'Id: "0011389" Comment: "Integrate frame 0011389_Au-Ir-Rh_Au-Rich_XRD_Mapping-018-0000.gfrmwith cursor Wedge Cursor #5" Operator: "B?rgel" Anode: "Cu" Wavelength: "1.5406" Scantype: "2Theta (TwoTheta)" TimePerStep: "1" X: "4.5" Y: "-36" Z: "5.95" 
10.00000 0.000
10.02000 7.662
10.04000 11.930
10.06000 5.929
10.08000 -4.239
10.10000 5.122
10.12000 7.558
10.14000 -4.230
10.16000 4.876
10.18000 24.590
10.20000 11.859
10.22000 9.795
10.24000 19.230
10.26000 14.400
10.28000 16.487
10.30000 13.289
10.32000 12.257
10.34000 6.241
10.36000 19.750
10.38000 8.742
10.40000 -3.094
10.42000 12.306
10.44000 20.162
10.46000 11.781
10.48000 12.622
10.50000 2.684
10.52000 8.890
10.54000 -4.242
10.56000 7.921
10.58000 23.957
10.60000 30.488
10.62000 37.134
10.64000 31.117
10.66000 34.902
10.68000 10.106
10.70000 -4.248
10.72000 4.165
10.74000 3.006
10.76000 9.367
10.78000 19.590
10.80000 11.576
10.82000 10.537
10.84000 23.189
10.86000 11.192
10.88000 17.177
10.90000 11.735
10.92000 7.066
10.94000 7.300
10.96000 5.518
10.98000 12.390
11.00000 22.463
11.02000 27.425
11.04000 18.658
11.06000 12.995
11.08000 -0.173
11.10000 8.336
11.12000 9.770
11.14000 14.693
11.16000 8.690
11.18000 15.771
11.20000 15.154
11.22000 19.239
11.24000 9.799
11.26000 19.197
11.28000 23.292
11.30000 14.335
11.32000 17.758
11.34000 18.881
11.36000 17.550
11.38000 20.295
11.40000 12.103
11.42000 10.554
11.44000 14.174
11.46000 16.274
11.48000 6.256
11.50000 5.228
11.52000 18.172
11.54000 9.751
11.56000 12.209
11.58000 21.542
11.60000 18.422
11.62000 13.075
11.64000 6.853
11.66000 19.634
11.68000 26.544
11.70000 16.465
11.72000 6.399
11.74000 6.872
11.76000 1.413
11.78000 0.965
11.80000 7.083
11.82000 -0.215
11.84000 3.256
11.86000 11.843
11.88000 16.297
11.90000 24.438
11.92000 19.801
11.94000 13.049
11.96000 19.700
11.98000 25.580
12.00000 17.092
12.02000 13.549
12.04000 21.993
12.06000 12.505
12.08000 11.791
12.10000 16.197
12.12000 13.108
12.14000 19.584
12.16000 9.589
12.18000 16.079
12.20000 17.457
12.22000 5.140
12.24000 6.443
12.26000 10.338
12.28000 21.442
12.30000 12.311
12.32000 7.286
12.34000 9.526
12.36000 16.198
12.38000 15.945
12.40000 -1.418
12.42000 -1.025
12.44000 9.976
12.46000 17.955
12.48000 12.509
12.50000 8.487
12.52000 12.046
12.54000 13.156
12.56000 14.907
12.58000 14.492
12.60000 13.410
12.62000 5.568
12.64000 16.373
12.66000 18.211
12.68000 19.836
12.70000 9.515
12.72000 9.603
12.74000 9.410
12.76000 7.776
12.78000 8.207
12.80000 8.901
12.82000 14.991
12.84000 11.265
12.86000 16.424
12.88000 11.884
12.90000 4.546
12.92000 0.494
12.94000 5.527
12.96000 10.965
12.98000 20.502
13.00000 22.210
13.02000 13.747
13.04000 -0.405
13.06000 -1.577
13.08000 5.685
13.10000 4.388
13.12000 15.226
13.14000 15.394
13.16000 11.852
13.18000 18.402
13.20000 13.853
13.22000 10.841
13.24000 13.314
13.26000 9.844
13.28000 19.851
13.30000 20.834
13.32000 14.725
13.34000 10.085
13.36000 17.161
13.38000 21.027
13.40000 26.800
13.42000 17.810
13.44000 16.216
13.46000 13.118
13.48000 9.555
13.50000 5.189
13.52000 8.858
13.54000 5.288
13.56000 6.921
13.58000 5.561
13.60000 8.637
13.62000 13.756
13.64000 10.557
13.66000 0.988
13.68000 1.599
13.70000 7.370
13.72000 14.423
13.74000 13.019
13.76000 12.230
13.78000 13.538
13.80000 9.246
13.82000 3.635
13.84000 2.307
13.86000 5.434
13.88000 2.637
13.90000 -4.320
13.92000 7.458
13.94000 9.397
13.96000 2.523
13.98000 -2.182
14.00000 7.840
14.02000 3.467
14.04000 0.200
14.06000 7.681
14.08000 11.985
14.10000 14.086
14.12000 13.973
14.14000 12.983
14.16000 3.982
14.18000 3.806
14.20000 -1.049
14.22000 -0.478
14.24000 6.583
14.26000 7.349
14.28000 8.351
14.30000 12.607
14.32000 19.111
14.34000 9.382
14.36000 11.346
14.38000 12.491
14.40000 0.128
14.42000 -4.444
14.44000 2.763
14.46000 7.349
14.48000 1.582
14.50000 8.577
14.52000 8.119
14.54000 13.498
14.56000 5.931
14.58000 4.978
14.60000 2.662
14.62000 4.730
14.64000 1.627
14.66000 4.080
14.68000 11.593
14.70000 11.420
14.72000 11.530
14.74000 7.174
14.76000 11.428
14.78000 12.181
14.80000 12.266
14.82000 16.803
14.84000 10.857
14.86000 11.482
14.88000 6.076
14.90000 3.731
14.92000 11.725
14.94000 11.437
14.96000 2.129
14.98000 8.127
15.00000 8.871
15.02000 8.594
15.04000 16.356
15.06000 2.232
15.08000 13.664
15.10000 16.714
15.12000 15.272
15.14000 4.771
15.16000 3.856
15.18000 2.323
15.20000 6.480
15.22000 13.464
15.24000 15.810
15.26000 9.849
15.28000 -0.018
15.30000 9.312
15.32000 10.829
15.34000 5.073
15.36000 11.356
15.38000 14.617
15.40000 8.261
15.42000 10.284
15.44000 13.807
15.46000 16.130
15.48000 12.865
15.50000 12.873
15.52000 19.414
15.54000 14.764
15.56000 3.938
15.58000 7.844
15.60000 6.564
15.62000 9.444
15.64000 4.829
15.66000 8.443
15.68000 10.208
15.70000 8.094
15.72000 8.756
15.74000 -0.638
15.76000 -0.514
15.78000 8.750
15.80000 16.069
15.82000 11.997
15.84000 0.039
15.86000 5.533
15.88000 7.791
15.90000 7.242
15.92000 2.357
15.94000 6.246
15.96000 1.097
15.98000 9.708
16.00000 -2.040
16.02000 5.393
16.04000 10.218
16.06000 10.006
16.08000 13.104
16.10000 16.344
16.12000 14.290
16.14000 12.625
16.16000 6.878
16.18000 5.614
16.20000 7.009
16.22000 5.914
16.24000 7.046
16.26000 1.182
16.28000 -4.356
16.30000 -0.254
16.32000 5.270
16.34000 16.747
16.36000 12.996
16.38000 15.542
16.40000 12.909
16.42000 5.285
16.44000 7.455
16.46000 8.189
16.48000 7.877
16.50000 5.660
16.52000 14.622
16.54000 13.739
16.56000 9.495
16.58000 4.480
16.60000 10.573
16.62000 9.591
16.64000 2.449
16.66000 13.207
16.68000 14.554
16.70000 11.905
16.72000 6.723
16.74000 6.399
16.76000 1.476
16.78000 4.540
16.80000 5.511
16.82000 1.978
16.84000 7.547
16.86000 12.828
16.88000 11.740
16.90000 8.850
16.92000 8.234
16.94000 7.772
16.96000 11.803
16.98000 12.154
17.00000 9.330
17.02000 10.544
17.04000 6.260
17.06000 2.473
17.08000 6.201
17.10000 7.421
17.12000 8.819
17.14000 10.765
17.16000 5.725
17.18000 5.094
17.20000 3.977
17.22000 3.563
17.24000 6.289
17.26000 13.738
17.28000 6.311
17.30000 6.069
17.32000 3.294
17.34000 8.117
17.36000 8.215
17.38000 7.553
17.40000 9.735
17.42000 8.779
17.44000 2.374
17.46000 6.791
17.48000 10.470
17.50000 10.893
17.52000 7.938
17.54000 8.127
17.56000 8.133
17.58000 3.241
17.60000 7.047
17.62000 2.087
17.64000 4.826
17.66000 6.049
17.68000 12.589
17.70000 4.427
17.72000 5.339
17.74000 8.577
17.76000 8.282
17.78000 2.722
17.80000 -0.354
17.82000 3.989
17.84000 8.366
17.86000 5.304
17.88000 -0.664
17.90000 3.364
17.92000 4.459
17.94000 5.983
17.96000 11.461
17.98000 16.888
18.00000 10.790
18.02000 6.935
18.04000 0.796
18.06000 3.487
18.08000 -3.034
18.10000 8.855
18.12000 6.940
18.14000 3.235
18.16000 -0.782
18.18000 2.598
18.20000 9.090
18.22000 4.499
18.24000 3.558
18.26000 7.573
18.28000 10.342
18.30000 7.687
18.32000 6.222
18.34000 -1.451
18.36000 -0.437
18.38000 -4.266
18.40000 -0.386
18.42000 -0.097
18.44000 4.551
18.46000 6.124
18.48000 6.390
18.50000 9.034
18.52000 7.955
18.54000 8.388
18.56000 8.659
18.58000 4.296
18.60000 4.489
18.62000 5.164
18.64000 5.721
18.66000 4.293
18.68000 8.651
18.70000 2.157
18.72000 2.061
18.74000 -3.274
18.76000 -0.256
18.78000 7.535
18.80000 12.612
18.82000 8.305
18.84000 8.056
18.86000 8.208
18.88000 6.192
18.90000 10.463
18.92000 14.038
18.94000 12.335
18.96000 8.901
18.98000 2.290
19.00000 7.957
19.02000 8.110
19.04000 8.654
19.06000 6.022
19.08000 12.132
19.10000 10.264
19.12000 5.602
19.14000 8.524
19.16000 8.214
19.18000 4.668
19.20000 1.523
19.22000 -4.218
19.24000 -1.447
19.26000 5.189
19.28000 3.769
19.30000 -2.454
19.32000 -0.036
19.34000 2.443
19.36000 6.092
19.38000 6.907
19.40000 8.506
19.42000 14.426
19.44000 9.369
19.46000 4.894
19.48000 6.451
19.50000 5.944
19.52000 2.681
19.54000 0.683
19.56000 8.627
19.58000 8.749
19.60000 5.386
19.62000 4.716
19.64000 10.983
19.66000 6.956
19.68000 -1.128
19.70000 3.853
19.72000 6.247
19.74000 7.206
19.76000 7.727
19.78000 0.402
19.80000 0.834
19.82000 5.886
19.84000 14.871
19.86000 10.243
19.88000 2.008
19.90000 -3.300
19.92000 -1.144
19.94000 2.855
19.96000 11.274
19.98000 2.772
20.00000 -1.168
20.02000 -2.245
20.04000 2.224
20.06000 -0.109
20.08000 -3.238
20.10000 -4.175
20.12000 -1.948
20.14000 -1.183
20.16000 0.204
20.18000 1.497
20.20000 4.129
20.22000 6.976
20.24000 4.901
20.26000 4.085
20.28000 1.273
20.30000 1.058
20.32000 3.380
20.34000 6.321
20.36000 2.152
20.38000 3.785
20.40000 2.843
20.42000 2.969
20.44000 8.975
20.46000 7.575
20.48000 3.996
20.50000 -1.829
20.52000 -2.490
20.54000 -0.251
20.56000 2.997
20.58000 0.586
20.60000 2.020
20.62000 3.100
20.64000 -0.314
20.66000 6.612
20.68000 2.848
20.70000 1.080
20.72000 -2.270
20.74000 0.145
20.76000 4.405
20.78000 7.069
20.80000 3.476
20.82000 0.858
20.84000 0.516
20.86000 0.872
20.88000 -3.393
20.90000 1.928
20.92000 3.616
20.94000 0.607
20.96000 2.735
20.98000 4.066
21.00000 -0.070
21.02000 4.784
21.04000 11.059
21.06000 4.766
21.08000 4.056
21.10000 3.360
21.12000 6.362
21.14000 5.907
21.16000 4.186
21.18000 -1.089
21.20000 4.744
21.22000 3.350
21.24000 6.483
21.26000 2.229
21.28000 0.660
21.30000 5.363
21.32000 7.517
21.34000 0.802
21.36000 2.388
21.38000 4.514
21.40000 2.348
21.42000 -1.028
21.44000 -1.978
21.46000 6.956
21.48000 9.385
21.50000 3.926
21.52000 0.398
21.54000 2.259
21.56000 7.820
21.58000 10.112
21.60000 9.234
21.62000 7.494
21.64000 10.122
21.66000 12.161
21.68000 7.650
21.70000 -0.409
21.72000 0.029
21.74000 -0.563
21.76000 4.980
21.78000 8.910
21.80000 7.596
21.82000 6.760
21.84000 3.785
21.86000 10.416
21.88000 8.275
21.90000 4.074
21.92000 5.515
21.94000 6.609
21.96000 7.147
21.98000 3.003
22.00000 6.554
22.02000 7.215
22.04000 7.418
22.06000 12.982
22.08000 9.951
22.10000 7.663
22.12000 6.103
22.14000 2.977
22.16000 -1.687
22.18000 -0.502
22.20000 -4.015
22.22000 5.617
22.24000 12.850
22.26000 5.010
22.28000 3.354
22.30000 9.931
22.32000 9.886
22.34000 12.323
22.36000 12.151
22.38000 14.464
22.40000 11.635
22.42000 1.779
22.44000 -1.492
22.46000 -0.459
22.48000 4.876
22.50000 11.647
22.52000 10.293
22.54000 7.876
22.56000 4.816
22.58000 5.264
22.60000 10.666
22.62000 2.306
22.64000 -3.089
22.66000 2.940
22.68000 11.234
22.70000 6.970
22.72000 0.421
22.74000 -0.183
22.76000 1.604
22.78000 5.023
22.80000 3.459
22.82000 8.672
22.84000 7.082
22.86000 3.796
22.88000 0.593
22.90000 -0.989
22.92000 -2.014
22.94000 3.701
22.96000 10.060
22.98000 11.817
23.00000 5.609
23.02000 2.297
23.04000 2.502
23.06000 10.370
23.08000 7.762
23.10000 4.524
23.12000 4.458
23.14000 3.849
23.16000 -0.687
23.18000 0.495
23.20000 5.033
23.22000 3.691
23.24000 2.235
23.26000 5.527
23.28000 9.433
23.30000 2.793
23.32000 -0.134
23.34000 2.079
23.36000 3.448
23.38000 1.815
23.40000 -0.685
23.42000 -1.427
23.44000 -1.963
23.46000 -3.157
23.48000 2.917
23.50000 0.024
23.52000 1.285
23.54000 2.461
23.56000 2.076
23.58000 5.406
23.60000 6.761
23.62000 2.876
23.64000 -2.759
23.66000 0.138
23.68000 -1.421
23.70000 -1.246
23.72000 0.163
23.74000 4.351
23.76000 5.018
23.78000 6.660
23.80000 9.164
23.82000 1.961
23.84000 1.831
23.86000 -0.355
23.88000 4.469
23.90000 1.934
23.92000 1.857
23.94000 -0.344
23.96000 -1.386
23.98000 4.480
24.00000 8.815
24.02000 4.811
24.04000 1.995
24.06000 2.338
24.08000 6.993
24.10000 6.246
24.12000 9.571
24.14000 5.294
24.16000 5.051
24.18000 6.374
24.20000 1.710
24.22000 3.917
24.24000 11.820
24.26000 8.385
24.28000 4.189
24.30000 1.834
24.32000 -0.932
24.34000 -0.706
24.36000 2.598
24.38000 5.339
24.40000 9.492
24.42000 7.805
24.44000 7.111
24.46000 3.754
24.48000 -0.159
24.50000 4.275
24.52000 6.346
24.54000 3.822
24.56000 4.644
24.58000 0.240
24.60000 1.222
24.62000 -1.130
24.64000 -3.905
24.66000 -3.904
24.68000 0.075
24.70000 0.038
24.72000 1.451
24.74000 0.777
24.76000 1.857
24.78000 6.166
24.80000 0.868
24.82000 -0.602
24.84000 3.319
24.86000 7.121
24.88000 8.298
24.90000 7.012
24.92000 5.147
24.94000 1.558
24.96000 0.751
24.98000 3.939
25.00000 11.151
25.02000 8.554
25.04000 3.719
25.06000 4.141
25.08000 4.007
25.10000 2.995
25.12000 4.346
25.14000 1.476
25.16000 6.737
25.18000 12.479
25.20000 8.930
25.22000 3.895
25.24000 2.058
25.26000 8.456
25.28000 8.102
25.30000 6.184
25.32000 13.047
25.34000 5.382
25.36000 4.846
25.38000 7.036
25.40000 2.993
25.42000 2.080
25.44000 0.425
25.46000 3.752
25.48000 2.871
25.50000 8.941
25.52000 7.967
25.54000 8.857
25.56000 6.095
25.58000 4.518
25.60000 2.553
25.62000 2.693
25.64000 -0.649
25.66000 -0.761
25.68000 1.113
25.70000 -1.916
25.72000 -3.864
25.74000 -1.022
25.76000 1.046
25.78000 0.011
25.80000 -2.428
25.82000 -2.204
25.84000 1.923
25.86000 10.518
25.88000 0.395
25.90000 -1.333
25.92000 -0.495
25.94000 2.513
25.96000 -2.187
25.98000 -3.854
26.00000 -0.510
26.02000 3.052
26.04000 3.883
26.06000 2.463
26.08000 -1.665
26.10000 -3.811
26.12000 -3.849
26.14000 -1.650
26.16000 6.116
26.18000 8.864
26.20000 7.133
26.22000 5.345
26.24000 5.667
26.26000 1.601
26.28000 -2.649
26.30000 1.343
26.32000 6.252
26.34000 13.312
26.36000 7.892
26.38000 3.927
26.40000 4.700
26.42000 9.935
26.44000 6.428
26.46000 -1.445
26.48000 4.438
26.50000 2.536
26.52000 -3.836
26.54000 2.462
26.56000 2.882
26.58000 -1.170
26.60000 1.464
26.62000 3.075
26.64000 1.529
26.66000 2.604
26.68000 -1.453
26.70000 5.980
26.72000 3.384
26.74000 -1.948
26.76000 4.567
26.78000 1.652
26.80000 -2.787
26.82000 0.855
26.84000 -1.035
26.86000 -0.572
26.88000 -3.645
26.90000 -0.454
26.92000 3.429
26.94000 0.377
26.96000 0.436
26.98000 0.547
27.00000 2.422
27.02000 2.423
27.04000 0.582
27.06000 1.166
27.08000 -3.808
27.10000 -2.439
27.12000 1.599
27.14000 1.996
27.16000 0.017
27.18000 1.201
27.20000 1.041
27.22000 4.978
27.24000 3.633
27.26000 1.200
27.28000 4.898
27.30000 4.934
27.32000 1.547
27.34000 -0.754
27.36000 2.518
27.38000 3.966
27.40000 1.229
27.42000 3.258
27.44000 3.426
27.46000 0.685
27.48000 1.579
27.50000 8.714
27.52000 1.797
27.54000 0.536
27.56000 4.381
27.58000 5.079
27.60000 6.630
27.62000 1.730
27.64000 3.368
27.66000 -0.719
27.68000 3.587
27.70000 11.940
27.72000 9.565
27.74000 4.398
27.76000 4.509
27.78000 7.197
27.80000 9.768
27.82000 11.416
27.84000 7.107
27.86000 7.965
27.88000 5.447
27.90000 1.663
27.92000 3.271
27.94000 4.195
27.96000 10.446
27.98000 12.864
28.00000 5.102
28.02000 -3.745
28.04000 -1.432
28.06000 0.443
28.08000 3.648
28.10000 6.156
28.12000 -1.245
28.14000 -0.166
28.16000 4.957
28.18000 -0.842
28.20000 -1.678
28.22000 -0.637
28.24000 3.138
28.26000 1.402
28.28000 -0.275
28.30000 0.998
28.32000 3.908
28.34000 0.632
28.36000 -0.438
28.38000 1.664
28.40000 3.327
28.42000 -0.350
28.44000 4.816
28.46000 1.688
28.48000 2.565
28.50000 2.137
28.52000 0.199
28.54000 -0.275
28.56000 -0.167
28.58000 0.118
28.60000 -0.254
28.62000 0.302
28.64000 -0.752
28.66000 2.115
28.68000 5.852
28.70000 4.779
28.72000 1.869
28.74000 0.528
28.76000 -2.146
28.78000 3.831
28.80000 1.138
28.82000 1.603
28.84000 -1.453
28.86000 0.091
28.88000 3.513
28.90000 1.623
28.92000 -3.722
28.94000 -0.777
28.96000 -2.338
28.98000 0.201
29.00000 2.504
29.02000 0.475
29.04000 4.139
29.06000 0.653
29.08000 0.381
29.10000 -0.138
29.12000 1.524
29.14000 -0.718
29.16000 0.302
29.18000 1.339
29.20000 -0.306
29.22000 1.163
29.24000 1.860
29.26000 3.489
29.28000 3.920
29.30000 6.748
29.32000 5.347
29.34000 2.560
29.36000 4.760
29.38000 -2.152
29.40000 2.018
29.42000 -2.966
29.44000 0.358
29.46000 3.761
29.48000 -0.943
29.50000 2.741
29.52000 1.506
29.54000 -3.569
29.56000 1.191
29.58000 3.574
29.60000 1.786
29.62000 2.388
29.64000 2.941
29.66000 0.397
29.68000 2.009
29.70000 1.095
29.72000 6.320
29.74000 6.927
29.76000 3.877
29.78000 6.205
29.80000 -0.876
29.82000 0.664
29.84000 11.124
29.86000 11.477
29.88000 6.808
29.90000 0.999
29.92000 -2.812
29.94000 3.296
29.96000 7.677
29.98000 7.366
30.00000 5.529
30.02000 3.915
30.04000 5.873
30.06000 0.620
30.08000 -3.633
30.10000 3.173
30.12000 7.674
30.14000 5.807
30.16000 -1.719
30.18000 -2.151
30.20000 0.837
30.22000 0.324
30.24000 -0.059
30.26000 0.942
30.28000 4.033
30.30000 4.503
30.32000 3.163
30.34000 4.946
30.36000 4.438
30.38000 4.916
30.40000 -3.632
30.42000 0.321
30.44000 2.409
30.46000 -0.376
30.48000 5.284
30.50000 3.708
30.52000 0.868
30.54000 -1.582
30.56000 1.984
30.58000 0.838
30.60000 1.088
30.62000 -0.135
30.64000 4.620
30.66000 7.277
30.68000 4.607
30.70000 1.115
30.72000 1.341
30.74000 4.876
30.76000 -2.503
30.78000 1.919
30.80000 4.472
30.82000 1.332
30.84000 -3.067
30.86000 4.186
30.88000 4.548
30.90000 2.177
30.92000 6.278
30.94000 5.614
30.96000 1.892
30.98000 6.108
31.00000 5.048
31.02000 -0.058
31.04000 -0.488
31.06000 2.827
31.08000 0.262
31.10000 -1.477
31.12000 -0.612
31.14000 -3.335
31.16000 -0.174
31.18000 1.398
31.20000 -3.609
31.22000 1.466
31.24000 4.084
31.26000 3.189
31.28000 2.958
31.30000 6.299
31.32000 6.815
31.34000 1.764
31.36000 -0.400
31.38000 2.538
31.40000 4.310
31.42000 2.580
31.44000 1.645
31.46000 5.525
31.48000 6.748
31.50000 3.443
31.52000 3.304
31.54000 -1.186
31.56000 -0.107
31.58000 4.149
31.60000 7.845
31.62000 1.705
31.64000 -3.584
31.66000 0.748
31.68000 3.700
31.70000 3.210
31.72000 3.856
31.74000 5.929
31.76000 0.051
31.78000 2.811
31.80000 3.765
31.82000 4.460
31.84000 8.674
31.86000 8.977
31.88000 4.250
31.90000 3.975
31.92000 3.810
31.94000 5.730
31.96000 5.867
31.98000 4.779
32.00000 1.901
32.02000 3.537
32.04000 1.504
32.06000 0.845
32.08000 1.063
32.10000 -2.504
32.12000 2.270
32.14000 1.893
32.16000 -0.751
32.18000 5.252
32.20000 1.762
32.22000 -3.561
32.24000 0.731
32.26000 6.593
32.28000 6.384
32.30000 4.880
32.32000 -0.416
32.34000 3.704
32.36000 4.184
32.38000 -3.147
32.40000 -2.193
32.42000 1.073
32.44000 1.797
32.46000 2.506
32.48000 -0.826
32.50000 -0.054
32.52000 2.079
32.54000 3.682
32.56000 1.225
32.58000 0.359
32.60000 3.416
32.62000 1.020
32.64000 -0.578
32.66000 3.350
32.68000 -0.127
32.70000 -3.554
32.72000 -0.988
32.74000 3.719
32.76000 3.619
32.78000 6.670
32.80000 4.754
32.82000 5.233
32.84000 0.122
32.86000 7.196
32.88000 -0.443
32.90000 -3.553
32.92000 2.480
32.94000 7.347
32.96000 7.275
32.98000 -0.745
33.00000 2.079
33.02000 5.493
33.04000 5.371
33.06000 1.463
33.08000 0.272
33.10000 5.585
33.12000 5.610
33.14000 2.083
33.16000 1.978
33.18000 1.088
33.20000 -1.440
33.22000 1.306
33.24000 5.284
33.26000 4.251
33.28000 4.715
33.30000 1.271
33.32000 0.571
33.34000 4.356
33.36000 2.213
33.38000 0.153
33.40000 4.937
33.42000 5.833
33.44000 4.432
33.46000 5.379
33.48000 1.325
33.50000 4.295
33.52000 1.635
33.54000 2.374
33.56000 4.274
33.58000 1.089
33.60000 -0.221
33.62000 -0.339
33.64000 -3.454
33.66000 -3.221
33.68000 2.603
33.70000 5.339
33.72000 4.768
33.74000 4.735
33.76000 0.571
33.78000 4.372
33.80000 4.940
33.82000 5.070
33.84000 3.347
33.86000 3.873
33.88000 1.567
33.90000 2.924
33.92000 7.453
33.94000 7.284
33.96000 6.113
33.98000 6.841
34.00000 7.522
34.02000 -0.507
34.04000 -3.525
34.06000 -1.130
34.08000 0.119
34.10000 0.700
34.12000 3.139
34.14000 2.076
34.16000 2.114
34.18000 3.305
34.20000 6.967
34.22000 6.245
34.24000 2.728
34.26000 5.689
34.28000 7.375
34.30000 8.327
34.32000 4.812
34.34000 4.377
34.36000 5.049
34.38000 7.556
34.40000 7.054
34.42000 5.124
34.44000 3.570
34.46000 4.303
34.48000 4.654
34.50000 2.848
34.52000 5.447
34.54000 4.854
34.56000 2.802
34.58000 0.309
34.60000 -3.503
34.62000 1.998
34.64000 6.151
34.66000 6.724
34.68000 7.914
34.70000 3.855
34.72000 -1.720
34.74000 2.109
34.76000 7.980
34.78000 9.899
34.80000 9.683
34.82000 7.999
34.84000 2.227
34.86000 5.543
34.88000 7.331
34.90000 7.261
34.92000 3.232
34.94000 3.166
34.96000 2.132
34.98000 -0.636
35.00000 1.427
35.02000 4.145
35.04000 4.416
35.06000 8.020
35.08000 3.038
35.10000 6.131
35.12000 5.187
35.14000 4.988
35.16000 2.404
35.18000 -3.489
35.20000 -3.342
35.22000 -1.713
35.24000 -0.165
35.26000 2.837
35.28000 7.723
35.30000 3.299
35.32000 3.896
35.34000 6.551
35.36000 7.404
35.38000 1.833
35.40000 1.521
35.42000 3.387
35.44000 4.066
35.46000 2.481
35.48000 2.479
35.50000 -0.196
35.52000 1.049
35.54000 2.252
35.56000 0.807
35.58000 -1.463
35.60000 3.323
35.62000 1.658
35.64000 -3.163
35.66000 -3.286
35.68000 4.183
35.70000 5.649
35.72000 5.996
35.74000 1.910
35.76000 2.230
35.78000 2.071
35.80000 0.883
35.82000 -1.479
35.84000 0.410
35.86000 2.783
35.88000 3.832
35.90000 4.420
35.92000 7.066
35.94000 3.046
35.96000 4.258
35.98000 2.626
36.00000 2.552
36.02000 5.888
36.04000 3.815
36.06000 2.167
36.08000 -1.857
36.10000 -3.150
36.12000 -3.518
36.14000 0.491
36.16000 0.230
36.18000 1.044
36.20000 1.810
36.22000 -0.613
36.24000 -0.376
36.26000 2.525
36.28000 3.224
36.30000 1.814
36.32000 -0.375
36.34000 0.120
36.36000 1.255
36.38000 4.677
36.40000 2.293
36.42000 5.931
36.44000 5.769
36.46000 3.273
36.48000 -0.121
36.50000 1.364
36.52000 4.181
36.54000 0.768
36.56000 -2.769
36.58000 -3.531
36.60000 1.056
36.62000 2.081
36.64000 -0.819
36.66000 -1.988
36.68000 -0.136
36.70000 -1.463
36.72000 5.543
36.74000 7.209
36.76000 6.784
36.78000 5.970
36.80000 1.263
36.82000 2.184
36.84000 3.278
36.86000 3.337
36.88000 -2.842
36.90000 0.510
36.92000 2.691
36.94000 3.912
36.96000 6.026
36.98000 1.965
37.00000 2.743
37.02000 -2.421
37.04000 -0.328
37.06000 4.166
37.08000 2.236
37.10000 0.011
37.12000 -0.855
37.14000 -1.411
37.16000 -3.582
37.18000 -1.272
37.20000 2.098
37.22000 5.485
37.24000 5.408
37.26000 7.062
37.28000 3.167
37.30000 4.160
37.32000 3.386
37.34000 4.055
37.36000 2.258
37.38000 7.276
37.40000 2.376
37.42000 -0.304
37.44000 0.359
37.46000 3.074
37.48000 6.544
37.50000 9.004
37.52000 5.434
37.54000 7.609
37.56000 4.914
37.58000 6.705
37.60000 4.971
37.62000 7.768
37.64000 5.145
37.66000 2.164
37.68000 2.396
37.70000 5.600
37.72000 9.297
37.74000 10.127
37.76000 10.891
37.78000 13.456
37.80000 14.721
37.82000 12.169
37.84000 10.689
37.86000 4.943
37.88000 5.544
37.90000 9.682
37.92000 10.329
37.94000 12.519
37.96000 14.406
37.98000 12.457
38.00000 20.522
38.02000 16.313
38.04000 11.483
38.06000 20.051
38.08000 20.285
38.10000 18.232
38.12000 20.238
38.14000 15.261
38.16000 15.692
38.18000 20.552
38.20000 19.290
38.22000 21.650
38.24000 29.185
38.26000 28.315
38.28000 25.027
38.30000 21.383
38.32000 24.254
38.34000 22.760
38.36000 26.877
38.38000 26.758
38.40000 26.403
38.42000 27.872
38.44000 28.638
38.46000 35.416
38.48000 33.531
38.50000 30.868
38.52000 28.182
38.54000 34.507
38.56000 35.288
38.58000 37.634
38.60000 38.519
38.62000 37.612
38.64000 38.699
38.66000 37.177
38.68000 45.645
38.70000 46.465
38.72000 44.927
38.74000 51.594
38.76000 53.819
38.78000 53.350
38.80000 56.524
38.82000 58.315
38.84000 62.360
38.86000 61.483
38.88000 61.475
38.90000 65.027
38.92000 70.116
38.94000 70.597
38.96000 78.628
38.98000 81.707
39.00000 86.378
39.02000 91.371
39.04000 91.323
39.06000 95.993
39.08000 95.371
39.10000 100.543
39.12000 106.059
39.14000 119.340
39.16000 127.026
39.18000 131.444
39.20000 137.241
39.22000 149.125
39.24000 156.768
39.26000 161.454
39.28000 163.121
39.30000 173.390
39.32000 191.306
39.34000 202.393
39.36000 206.993
39.38000 227.160
39.40000 242.812
39.42000 251.902
39.44000 263.261
39.46000 282.916
39.48000 296.246
39.50000 318.467
39.52000 336.055
39.54000 355.934
39.56000 381.946
39.58000 398.359
39.60000 423.593
39.62000 447.121
39.64000 464.728
39.66000 489.576
39.68000 505.810
39.70000 534.206
39.72000 555.311
39.74000 574.098
39.76000 600.021
39.78000 612.671
39.80000 623.450
39.82000 636.364
39.84000 663.444
39.86000 686.536
39.88000 696.905
39.90000 712.633
39.92000 702.997
39.94000 701.179
39.96000 699.176
39.98000 700.523
40.00000 693.394
40.02000 686.046
40.04000 684.382
40.06000 673.145
40.08000 665.698
40.10000 650.944
40.12000 630.868
40.14000 608.380
40.16000 582.930
40.18000 563.453
40.20000 542.579
40.22000 532.933
40.24000 511.362
40.26000 483.269
40.28000 461.198
40.30000 434.575
40.32000 414.155
40.34000 392.185
40.36000 379.381
40.38000 363.363
40.40000 336.333
40.42000 311.390
40.44000 296.885
40.46000 277.319
40.48000 259.756
40.50000 240.178
40.52000 228.326
40.54000 217.027
40.56000 199.990
40.58000 190.948
40.60000 170.723
40.62000 166.815
40.64000 160.737
40.66000 152.300
40.68000 137.700
40.70000 131.428
40.72000 122.223
40.74000 111.350
40.76000 109.521
40.78000 104.632
40.80000 101.339
40.82000 94.516
40.84000 86.795
40.86000 79.131
40.88000 78.333
40.90000 75.363
40.92000 70.171
40.94000 65.812
40.96000 62.592
40.98000 56.060
41.00000 52.853
41.02000 49.585
41.04000 44.206
41.06000 41.663
41.08000 38.868
41.10000 39.389
41.12000 36.912
41.14000 35.028
41.16000 34.713
41.18000 28.493
41.20000 26.606
41.22000 30.168
41.24000 28.759
41.26000 25.837
41.28000 22.057
41.30000 24.141
41.32000 18.512
41.34000 18.821
41.36000 18.105
41.38000 16.331
41.40000 25.898
41.42000 18.531
41.44000 13.197
41.46000 9.666
41.48000 14.270
41.50000 14.400
41.52000 14.160
41.54000 15.349
41.56000 13.409
41.58000 9.265
41.60000 11.363
41.62000 9.968
41.64000 9.153
41.66000 10.147
41.68000 7.891
41.70000 11.832
41.72000 5.077
41.74000 2.292
41.76000 4.990
41.78000 12.176
41.80000 5.315
41.82000 3.414
41.84000 5.401
41.86000 6.989
41.88000 6.960
41.90000 3.216
41.92000 6.203
41.94000 6.615
41.96000 6.957
41.98000 6.533
42.00000 7.335
42.02000 2.530
42.04000 3.349
42.06000 2.845
42.08000 0.984
42.10000 -3.424
42.12000 -2.032
42.14000 -0.081
42.16000 -1.837
42.18000 1.424
42.20000 2.082
42.22000 2.585
42.24000 1.428
42.26000 2.842
42.28000 4.015
42.30000 4.734
42.32000 4.429
42.34000 4.103
42.36000 5.210
42.38000 3.210
42.40000 3.496
42.42000 2.822
42.44000 3.242
42.46000 0.518
42.48000 6.569
42.50000 2.862
42.52000 -1.527
42.54000 -2.623
42.56000 -3.346
42.58000 -1.371
42.60000 -1.068
42.62000 3.256
42.64000 3.649
42.66000 1.073
42.68000 1.168
42.70000 1.151
42.72000 2.214
42.74000 2.263
42.76000 3.691
42.78000 3.985
42.80000 -0.605
42.82000 -0.024
42.84000 2.112
42.86000 -1.292
42.88000 1.524
42.90000 2.274
42.92000 4.254
42.94000 1.852
42.96000 -0.331
42.98000 0.678
43.00000 -1.695
43.02000 -1.718
43.04000 0.039
43.06000 1.896
43.08000 0.670
43.10000 2.097
43.12000 3.463
43.14000 4.513
43.16000 0.722
43.18000 -1.114
43.20000 1.075
43.22000 0.470
43.24000 4.042
43.26000 4.992
43.28000 -0.551
43.30000 -3.218
43.32000 1.558
43.34000 4.443
43.36000 1.214
43.38000 1.073
43.40000 0.521
43.42000 5.005
43.44000 4.919
43.46000 5.251
43.48000 2.584
43.50000 2.148
43.52000 0.871
43.54000 2.444
43.56000 0.323
43.58000 -0.314
43.60000 0.550
43.62000 -0.094
43.64000 2.415
43.66000 1.452
43.68000 1.370
43.70000 1.110
43.72000 1.777
43.74000 -1.897
43.76000 1.310
43.78000 0.087
43.80000 1.087
43.82000 2.786
43.84000 1.049
43.86000 2.323
43.88000 2.508
43.90000 -0.493
43.92000 0.369
43.94000 0.815
43.96000 3.588
43.98000 1.691
44.00000 -3.164
44.02000 0.354
44.04000 1.307
44.06000 2.176
44.08000 2.439
44.10000 1.824
44.12000 1.878
44.14000 0.118
44.16000 1.292
44.18000 3.924
44.20000 4.746
44.22000 0.592
44.24000 -0.352
44.26000 2.199
44.28000 2.205
44.30000 1.662
44.32000 2.882
44.34000 3.047
44.36000 1.647
44.38000 0.315
44.40000 -2.033
44.42000 -1.124
44.44000 -3.148
44.46000 0.918
44.48000 4.228
44.50000 2.600
44.52000 2.620
44.54000 2.165
44.56000 0.454
44.58000 -0.966
44.60000 0.529
44.62000 -2.663
44.64000 -2.286
44.66000 3.194
44.68000 1.598
44.70000 -1.579
44.72000 -1.516
44.74000 -1.702
44.76000 1.158
44.78000 0.680
44.80000 -0.742
44.82000 -1.137
44.84000 1.037
44.86000 -1.201
44.88000 0.434
44.90000 1.474
44.92000 -0.523
44.94000 -0.911
44.96000 -1.680
44.98000 -0.910
45.00000 -0.188
45.02000 3.011
45.04000 2.210
45.06000 -1.084
45.08000 -3.177
45.10000 -1.979
45.12000 -0.127
45.14000 7.361
45.16000 6.550
45.18000 5.880
45.20000 6.806
45.22000 9.181
45.24000 5.895
45.26000 7.724
45.28000 6.009
45.30000 6.645
45.32000 4.215
45.34000 4.626
45.36000 3.501
45.38000 7.097
45.40000 9.874
45.42000 8.574
45.44000 8.413
45.46000 6.385
45.48000 5.969
45.50000 9.306
45.52000 9.032
45.54000 9.072
45.56000 9.179
45.58000 8.538
45.60000 10.354
45.62000 9.824
45.64000 13.007
45.66000 13.081
45.68000 13.846
45.70000 13.532
45.72000 15.800
45.74000 18.821
45.76000 18.150
45.78000 17.458
45.80000 22.153
45.82000 22.151
45.84000 25.256
45.86000 20.780
45.88000 21.336
45.90000 23.670
45.92000 25.920
45.94000 27.190
45.96000 33.822
45.98000 34.700
46.00000 34.875
46.02000 39.175
46.04000 37.780
46.06000 34.144
46.08000 35.261
46.10000 38.109
46.12000 37.173
46.14000 37.932
46.16000 44.945
46.18000 43.874
46.20000 47.591
46.22000 50.140
46.24000 49.356
46.26000 50.274
46.28000 54.886
46.30000 56.423
46.32000 63.482
46.34000 59.208
46.36000 61.824
46.38000 62.863
46.40000 68.660
46.42000 67.636
46.44000 69.320
46.46000 71.630
46.48000 71.451
46.50000 73.260
46.52000 72.413
46.54000 76.326
46.56000 78.928
46.58000 76.509
46.60000 69.883
46.62000 71.896
46.64000 69.918
46.66000 73.455
46.68000 74.965
46.70000 80.410
46.72000 83.333
46.74000 79.162
46.76000 72.550
46.78000 73.089
46.80000 74.790
46.82000 71.425
46.84000 64.620
46.86000 64.636
46.88000 65.527
46.90000 64.919
46.92000 69.483
46.94000 65.251
46.96000 64.756
46.98000 62.572
47.00000 56.867
47.02000 50.170
47.04000 51.050
47.06000 48.761
47.08000 49.648
47.10000 43.968
47.12000 46.469
47.14000 48.965
47.16000 42.796
47.18000 39.210
47.20000 36.279
47.22000 37.507
47.24000 34.146
47.26000 32.951
47.28000 29.135
47.30000 29.848
47.32000 27.823
47.34000 21.037
47.36000 26.425
47.38000 23.540
47.40000 21.554
47.42000 21.483
47.44000 20.718
47.46000 18.904
47.48000 16.197
47.50000 14.673
47.52000 18.281
47.54000 18.979
47.56000 14.064
47.58000 12.927
47.60000 12.658
47.62000 14.120
47.64000 8.777
47.66000 3.401
47.68000 2.103
47.70000 3.742
47.72000 5.426
47.74000 4.127
47.76000 7.282
47.78000 9.486
47.80000 5.444
47.82000 7.346
47.84000 9.392
47.86000 4.708
47.88000 7.787
47.90000 3.096
47.92000 4.943
47.94000 4.071
47.96000 2.353
47.98000 0.791
48.00000 3.753
48.02000 4.093
48.04000 -1.735
48.06000 -2.845
48.08000 -1.151
48.10000 3.153
48.12000 5.098
48.14000 3.924
48.16000 -0.821
48.18000 3.519
48.20000 -0.211
48.22000 -0.537
48.24000 -2.127
48.26000 1.214
48.28000 2.887
48.30000 1.216
48.32000 0.179
48.34000 -2.793
48.36000 -2.194
48.38000 0.791
48.40000 3.226
48.42000 1.343
48.44000 2.288
48.46000 2.954
48.48000 5.885
48.50000 5.582
48.52000 0.107
48.54000 2.507
48.56000 0.018
48.58000 -2.044
48.60000 3.410
48.62000 4.569
48.64000 2.754
48.66000 8.868
48.68000 8.976
48.70000 0.099
48.72000 -2.114
48.74000 -1.317
48.76000 2.447
48.78000 3.032
48.80000 0.476
48.82000 -2.650
48.84000 -2.469
48.86000 -0.065
48.88000 -0.617
48.90000 1.192
48.92000 -0.800
48.94000 -2.689
48.96000 0.857
48.98000 0.465
49.00000 1.413
49.02000 3.581
49.04000 2.204
49.06000 6.288
49.08000 7.589
49.10000 6.382
49.12000 0.639
49.14000 0.350
49.16000 0.717
49.18000 5.159
49.20000 5.751
49.22000 1.574
49.24000 -0.683
49.26000 -0.280
49.28000 -0.989
49.30000 -0.581
49.32000 1.023
49.34000 -1.793
49.36000 -0.843
49.38000 -1.166
49.40000 4.022
49.42000 5.510
49.44000 0.634
49.46000 -0.827
49.48000 2.344
49.50000 2.522
49.52000 4.455
49.54000 5.435
49.56000 2.852
49.58000 -0.706
49.60000 2.560
49.62000 4.985
49.64000 3.725
49.66000 0.763
49.68000 -0.491
49.70000 0.573
49.72000 0.304
49.74000 4.467
49.76000 4.752
49.78000 2.087
49.80000 -0.819
49.82000 -2.634
49.84000 -0.199
49.86000 4.168
49.88000 6.420
49.90000 1.705
49.92000 -2.628
49.94000 0.471
49.96000 4.303
49.98000 3.425
50.00000 2.903
50.02000 2.002
50.04000 -0.443
50.06000 2.503
50.08000 2.676
50.10000 4.494
50.12000 4.939
50.14000 4.654
50.16000 1.902
50.18000 5.827
50.20000 3.947
50.22000 -2.011
50.24000 0.454
50.26000 5.769
50.28000 5.174
50.30000 4.777
50.32000 -1.181
50.34000 -2.611
50.36000 -1.577
50.38000 -0.212
50.40000 1.268
50.42000 1.175
50.44000 1.682
50.46000 4.803
50.48000 5.843
50.50000 2.380
50.52000 -0.517
50.54000 0.768
50.56000 -0.794
50.58000 0.105
50.60000 1.739
50.62000 7.011
50.64000 3.968
50.66000 2.291
50.68000 -2.595
50.70000 -1.267
50.72000 -1.778
50.74000 1.863
50.76000 1.965
50.78000 0.939
50.80000 2.941
50.82000 1.145
50.84000 0.461
50.86000 2.190
50.88000 1.097
50.90000 0.910
50.92000 2.276
50.94000 0.029
50.96000 2.372
50.98000 4.944
51.00000 -2.030
51.02000 -1.206
51.04000 -1.164
51.06000 2.330
51.08000 1.957
51.10000 2.302
51.12000 4.136
51.14000 0.065
51.16000 -0.522
51.18000 -1.817
51.20000 -0.299
51.22000 3.320
51.24000 3.935
51.26000 3.168
51.28000 0.587
51.30000 -0.539
51.32000 -2.589
51.34000 -1.957
51.36000 -0.272
51.38000 0.409
51.40000 0.266
51.42000 -0.810
51.44000 -1.083
51.46000 1.102
51.48000 4.129
51.50000 3.200
51.52000 2.421
51.54000 -0.219
51.56000 1.672
51.58000 0.831
51.60000 2.269
51.62000 0.565
51.64000 -0.482
51.66000 -1.720
51.68000 0.061
51.70000 -1.106
51.72000 -1.915
51.74000 -1.913
51.76000 0.457
51.78000 2.489
51.80000 0.784
51.82000 -0.260
51.84000 2.508
51.86000 1.426
51.88000 3.399
51.90000 2.989
51.92000 3.221
51.94000 0.197
51.96000 0.979
51.98000 2.635
52.00000 -1.265
52.02000 -1.776
52.04000 0.709
52.06000 0.942
52.08000 0.091
52.10000 4.756
52.12000 1.630
52.14000 3.578
52.16000 4.592
52.18000 1.088
52.20000 -0.832
52.22000 1.871
52.24000 1.708
52.26000 2.029
52.28000 -1.142
52.30000 -2.341
52.32000 0.969
52.34000 -0.317
52.36000 0.580
52.38000 -0.178
52.40000 -0.356
52.42000 -1.000
52.44000 2.505
52.46000 2.446
52.48000 -0.429
52.50000 -2.387
52.52000 -1.723
52.54000 -2.049
52.56000 0.522
52.58000 5.048
52.60000 -0.044
52.62000 0.312
52.64000 1.433
52.66000 -2.547
52.68000 2.416
52.70000 4.352
52.72000 0.696
52.74000 1.090
52.76000 2.678
52.78000 4.394
52.80000 3.366
52.82000 -0.074
52.84000 -1.800
52.86000 -2.545
52.88000 3.173
52.90000 3.013
52.92000 -1.947
52.94000 -2.097
52.96000 2.662
52.98000 0.186
53.00000 0.916
53.02000 0.174
53.04000 -0.305
53.06000 1.441
53.08000 2.829
53.10000 4.091
53.12000 1.138
53.14000 -0.142
53.16000 2.917
53.18000 0.049
53.20000 -1.956
53.22000 2.015
53.24000 4.927
53.26000 3.182
53.28000 1.387
53.30000 -0.297
53.32000 3.238
53.34000 5.280
53.36000 3.479
53.38000 0.145
53.40000 3.856
53.42000 3.193
53.44000 -0.399
53.46000 4.016
53.48000 4.319
53.50000 -1.344
53.52000 -2.034
53.54000 1.765
53.56000 -0.655
53.58000 2.107
53.60000 1.771
53.62000 2.000
53.64000 1.064
53.66000 2.115
53.68000 1.266
53.70000 -0.331
53.72000 3.864
53.74000 5.085
53.76000 -0.642
53.78000 0.193
53.80000 -2.522
53.82000 -0.729
53.84000 -2.038
53.86000 0.697
53.88000 2.008
53.90000 4.812
53.92000 3.158
53.94000 3.734
53.96000 3.317
53.98000 3.229
54.00000 5.859
54.02000 3.155
54.04000 1.443
54.06000 -0.096
54.08000 3.442
54.10000 3.052
54.12000 3.669
54.14000 2.328
54.16000 3.945
54.18000 3.693
54.20000 1.649
54.22000 0.348
54.24000 2.867
54.26000 1.015
54.28000 0.784
54.30000 0.972
54.32000 1.266
54.34000 -0.702
54.36000 0.804
54.38000 -2.495
54.40000 0.737
54.42000 1.386
54.44000 1.396
54.46000 6.262
54.48000 6.848
54.50000 3.973
54.52000 0.945
54.54000 0.413
54.56000 3.052
54.58000 3.527
54.60000 0.838
54.62000 -1.588
54.64000 6.468
54.66000 4.125
54.68000 3.972
54.70000 7.444
54.72000 4.914
54.74000 0.912
54.76000 1.407
54.78000 0.019
54.80000 2.742
54.82000 4.899
54.84000 2.354
54.86000 -0.291
54.88000 1.239
54.90000 3.827
54.92000 3.610
54.94000 0.694
54.96000 -0.750
54.98000 -1.813
55.00000 1.166
55.02000 0.128
55.04000 0.195
55.06000 3.727
55.08000 8.095
55.10000 4.055
55.12000 3.844
55.14000 4.390
55.16000 2.042
55.18000 1.445
55.20000 4.770
55.22000 4.254
55.24000 3.747
55.26000 4.952
55.28000 7.570
55.30000 6.977
55.32000 1.340
55.34000 3.599
55.36000 3.228
55.38000 0.858
55.40000 4.046
55.42000 2.126
55.44000 0.030
55.46000 0.746
55.48000 2.921
55.50000 3.447
55.52000 1.293
55.54000 0.971
55.56000 3.093
55.58000 3.183
55.60000 1.229
55.62000 2.689
55.64000 3.341
55.66000 2.443
55.68000 3.922
55.70000 3.315
55.72000 3.690
55.74000 4.156
55.76000 4.977
55.78000 1.031
55.80000 0.373
55.82000 1.021
55.84000 -2.315
55.86000 -1.275
55.88000 -2.457
55.90000 3.318
55.92000 4.225
55.94000 3.605
55.96000 6.332
55.98000 3.843
56.00000 1.800
56.02000 3.283
56.04000 6.365
56.06000 3.180
56.08000 -1.061
56.10000 0.465
56.12000 1.652
56.14000 2.653
56.16000 2.682
56.18000 -0.237
56.20000 0.003
56.22000 4.012
56.24000 0.785
56.26000 -1.833
56.28000 -0.835
56.30000 3.628
56.32000 1.964
56.34000 -0.104
56.36000 1.809
56.38000 3.874
56.40000 6.264
56.42000 3.611
56.44000 2.942
56.46000 6.978
56.48000 2.078
56.50000 -1.104
56.52000 3.108
56.54000 6.351
56.56000 7.031
56.58000 4.956
56.60000 0.439
56.62000 1.468
56.64000 1.647
56.66000 4.322
56.68000 2.100
56.70000 1.063
56.72000 3.405
56.74000 3.932
56.76000 -0.308
56.78000 -2.442
56.80000 2.010
56.82000 1.257
56.84000 0.028
56.86000 3.497
56.88000 4.780
56.90000 0.141
56.92000 1.325
56.94000 4.914
56.96000 2.063
56.98000 0.337
57.00000 0.642
57.02000 1.934
57.04000 4.666
57.06000 3.774
57.08000 1.789
57.10000 2.571
57.12000 1.417
57.14000 1.069
57.16000 0.550
57.18000 -1.230
57.20000 -1.464
57.22000 -0.123
57.24000 3.996
57.26000 4.212
57.28000 2.141
57.30000 -0.502
57.32000 -2.417
57.34000 -0.052
57.36000 0.888
57.38000 3.381
57.40000 -0.389
57.42000 -0.464
57.44000 3.071
57.46000 0.176
57.48000 -0.604
57.50000 0.453
57.52000 -0.758
57.54000 -1.344
57.56000 0.337
57.58000 2.336
57.60000 0.325
57.62000 3.389
57.64000 4.400
57.66000 3.152
57.68000 -2.372
57.70000 4.540
57.72000 7.061
57.74000 3.442
57.76000 3.805
57.78000 4.652
57.80000 3.928
57.82000 2.981
57.84000 4.356
57.86000 5.515
57.88000 2.121
57.90000 1.708
57.92000 2.218
57.94000 3.621
57.96000 -1.612
57.98000 -2.115
58.00000 -1.580
58.02000 -1.633
58.04000 -1.984
58.06000 0.866
58.08000 -2.404
58.10000 0.144
58.12000 1.165
58.14000 5.533
58.16000 5.524
58.18000 4.634
58.20000 1.301
58.22000 1.879
58.24000 2.914
58.26000 3.301
58.28000 2.759
58.30000 -1.087
58.32000 -0.453
58.34000 1.504
58.36000 3.824
58.38000 3.531
58.40000 4.120
58.42000 3.541
58.44000 3.593
58.46000 4.877
58.48000 4.527
58.50000 0.578
58.52000 -1.380
58.54000 -0.242
58.56000 -0.398
58.58000 2.552
58.60000 2.426
58.62000 2.830
58.64000 2.099
58.66000 -1.220
58.68000 -1.837
58.70000 5.519
58.72000 4.156
58.74000 -0.280
58.76000 -2.356
58.78000 2.156
58.80000 3.445
58.82000 1.921
58.84000 1.678
58.86000 0.945
58.88000 6.336
58.90000 6.790
58.92000 4.292
58.94000 3.757
58.96000 -0.944
58.98000 -0.219
59.00000 2.592
59.02000 3.091
59.04000 2.916
59.06000 3.519
59.08000 1.515
59.10000 1.399
59.12000 0.927
59.14000 3.106
59.16000 3.003
59.18000 1.223
59.20000 2.637
59.22000 4.272
59.24000 2.638
59.26000 1.496
59.28000 4.348
59.30000 4.001
59.32000 3.970
59.34000 3.067
59.36000 4.155
59.38000 4.605
59.40000 1.868
59.42000 2.902
59.44000 -0.103
59.46000 -2.310
59.48000 -0.313
59.50000 6.387
59.52000 8.982
59.54000 6.896
59.56000 6.512
59.58000 5.079
59.60000 5.193
59.62000 -0.820
59.64000 2.684
59.66000 4.152
59.68000 1.441
59.70000 0.377
59.72000 4.578
59.74000 6.644
59.76000 6.658
59.78000 2.264
59.80000 0.328
59.82000 9.785
59.84000 8.836
59.86000 5.516
59.88000 1.518
59.90000 5.403
59.92000 4.137
59.94000 5.496
59.96000 3.041
59.98000 2.221
60.00000 5.429
60.02000 3.920
60.04000 2.677
60.06000 1.236
60.08000 -1.336
60.10000 2.395
60.12000 0.807
60.14000 1.674
60.16000 3.704
60.18000 5.481
60.20000 -0.638
60.22000 -0.023
60.24000 5.204
60.26000 7.349
60.28000 4.229
60.30000 4.274
60.32000 3.163
60.34000 1.418
60.36000 1.748
60.38000 -2.320
60.40000 1.142
60.42000 0.965
60.44000 -0.358
60.46000 0.891
60.48000 2.725
60.50000 1.819
60.52000 0.436
60.54000 -1.077
60.56000 2.999
60.58000 3.312
60.60000 -0.565
60.62000 0.418
60.64000 0.540
60.66000 0.845
60.68000 0.274
60.70000 3.145
60.72000 4.202
60.74000 1.764
60.76000 2.394
60.78000 1.952
60.80000 -0.297
60.82000 0.207
60.84000 2.789
60.86000 3.923
60.88000 2.732
60.90000 3.655
60.92000 1.706
60.94000 1.798
60.96000 5.236
60.98000 2.049
61.00000 3.307
61.02000 0.880
61.04000 0.667
61.06000 3.904
61.08000 3.916
61.10000 3.425
61.12000 4.473
61.14000 4.338
61.16000 0.360
61.18000 -2.281
61.20000 1.680
61.22000 2.014
61.24000 1.651
61.26000 1.502
61.28000 1.809
61.30000 1.022
61.32000 -2.282
61.34000 0.954
61.36000 3.272
61.38000 -0.033
61.40000 0.843
61.42000 -0.165
61.44000 3.561
61.46000 1.294
61.48000 2.049
61.50000 -0.370
61.52000 1.198
61.54000 3.936
61.56000 4.488
61.58000 1.329
61.60000 -0.340
61.62000 2.807
61.64000 0.689
61.66000 -1.500
61.68000 3.554
61.70000 3.585
61.72000 2.890
61.74000 0.770
61.76000 1.221
61.78000 -1.743
61.80000 -2.279
61.82000 -0.657
61.84000 1.854
61.86000 1.949
61.88000 0.510
61.90000 1.050
61.92000 2.464
61.94000 1.028
61.96000 2.813
61.98000 2.906
62.00000 2.123
62.02000 -0.215
62.04000 2.358
62.06000 3.168
62.08000 0.968
62.10000 1.288
62.12000 2.409
62.14000 3.515
62.16000 2.120
62.18000 1.143
62.20000 1.423
62.22000 1.848
62.24000 0.234
62.26000 1.435
62.28000 0.263
62.30000 -0.758
62.32000 -0.624
62.34000 0.165
62.36000 0.226
62.38000 -0.664
62.40000 0.040
62.42000 2.845
62.44000 1.814
62.46000 1.745
62.48000 2.947
62.50000 5.924
62.52000 0.925
62.54000 0.244
62.56000 2.238
62.58000 2.309
62.60000 2.060
62.62000 -0.550
62.64000 0.434
62.66000 1.408
62.68000 -0.918
62.70000 0.788
62.72000 -2.291
62.74000 0.974
62.76000 2.079
62.78000 4.230
62.80000 -0.468
62.82000 0.795
62.84000 -1.174
62.86000 0.760
62.88000 0.849
62.90000 -2.292
62.92000 -1.969
62.94000 0.133
62.96000 -0.457
62.98000 -1.215
63.00000 -0.060
63.02000 0.922
63.04000 3.225
63.06000 1.670
63.08000 0.832
63.10000 2.072
63.12000 -1.692
63.14000 0.726
63.16000 0.729
63.18000 -0.988
63.20000 0.099
63.22000 -1.077
63.24000 1.123
63.26000 -0.986
63.28000 2.268
63.30000 2.753
63.32000 -0.747
63.34000 1.678
63.36000 2.536
63.38000 2.293
63.40000 0.878
63.42000 0.885
63.44000 2.378
63.46000 1.982
63.48000 2.132
63.50000 2.531
63.52000 4.129
63.54000 1.739
63.56000 -1.733
63.58000 -1.480
63.60000 1.063
63.62000 2.722
63.64000 4.343
63.66000 3.341
63.68000 2.311
63.70000 2.667
63.72000 1.991
63.74000 1.824
63.76000 1.383
63.78000 1.325
63.80000 1.564
63.82000 4.420
63.84000 3.192
63.86000 2.112
63.88000 3.254
63.90000 1.504
63.92000 -0.274
63.94000 0.654
63.96000 1.653
63.98000 2.826
64.00000 3.976
64.02000 2.175
64.04000 0.082
64.06000 0.931
64.08000 2.865
64.10000 -2.281
64.12000 -1.073
64.14000 0.524
64.16000 -1.040
64.18000 1.979
64.20000 4.020
64.22000 4.440
64.24000 4.617
64.26000 1.328
64.28000 -1.789
64.30000 -2.152
64.32000 -1.084
64.34000 0.934
64.36000 0.105
64.38000 1.225
64.40000 1.502
64.42000 3.343
64.44000 2.228
64.46000 4.321
64.48000 0.293
64.50000 -0.522
64.52000 -1.069
64.54000 -1.409
64.56000 -1.011
64.58000 2.751
64.60000 1.684
64.62000 1.355
64.64000 -0.529
64.66000 1.890
64.68000 4.459
64.70000 0.221
64.72000 -0.983
64.74000 -1.592
64.76000 1.518
64.78000 2.117
64.80000 -0.095
64.82000 1.266
64.84000 0.559
64.86000 -2.218
64.88000 0.037
64.90000 -0.419
64.92000 0.488
64.94000 2.315
64.96000 1.523
64.98000 0.816
65.00000 -1.778
65.02000 1.058
65.04000 1.103
65.06000 -0.456
65.08000 2.407
65.10000 1.171
65.12000 -2.299
65.14000 -1.492
65.16000 0.875
65.18000 0.920
65.20000 1.375
65.22000 4.294
65.24000 4.723
65.26000 2.034
65.28000 -1.738
65.30000 -1.433
65.32000 0.501
65.34000 1.782
65.36000 2.971
65.38000 1.588
65.40000 1.048
65.42000 -0.072
65.44000 1.450
65.46000 1.073
65.48000 0.711
65.50000 -0.320
65.52000 1.389
65.54000 2.488
65.56000 1.205
65.58000 -1.826
65.60000 -0.347
65.62000 -0.392
65.64000 2.365
65.66000 1.916
65.68000 1.441
65.70000 0.613
65.72000 1.007
65.74000 0.747
65.76000 0.936
65.78000 1.481
65.80000 2.215
65.82000 -2.239
65.84000 -1.873
65.86000 1.164
65.88000 3.520
65.90000 2.281
65.92000 1.971
65.94000 0.209
65.96000 -1.525
65.98000 -0.122
66.00000 -0.542
66.02000 -1.068
66.04000 -1.698
66.06000 -1.985
66.08000 0.200
66.10000 1.664
66.12000 4.617
66.14000 3.378
66.16000 2.732
66.18000 3.629
66.20000 2.518
66.22000 -2.332
66.24000 0.408
66.26000 1.117
66.28000 0.103
66.30000 -1.239
66.32000 0.529
66.34000 1.506
66.36000 -0.339
66.38000 -0.602
66.40000 0.405
66.42000 1.900
66.44000 1.900
66.46000 4.100
66.48000 3.385
66.50000 3.556
66.52000 2.846
66.54000 4.386
66.56000 2.037
66.58000 -2.347
66.60000 2.645
66.62000 2.986
66.64000 -1.236
66.66000 -0.832
66.68000 1.261
66.70000 0.464
66.72000 1.386
66.74000 -0.918
66.76000 2.385
66.78000 1.997
66.80000 1.282
66.82000 2.218
66.84000 2.180
66.86000 2.313
66.88000 1.252
66.90000 -0.583
66.92000 0.498
66.94000 1.790
66.96000 2.122
66.98000 2.465
67.00000 3.996
67.02000 3.743
67.04000 4.834
67.06000 5.986
67.08000 4.430
67.10000 2.791
67.12000 4.912
67.14000 7.273
67.16000 4.777
67.18000 4.677
67.20000 5.408
67.22000 5.804
67.24000 4.213
67.26000 5.361
67.28000 10.041
67.30000 10.557
67.32000 9.677
67.34000 9.668
67.36000 8.655
67.38000 5.387
67.40000 8.679
67.42000 10.658
67.44000 11.674
67.46000 11.942
67.48000 10.373
67.50000 11.833
67.52000 10.560
67.54000 7.345
67.56000 11.001
67.58000 11.550
67.60000 13.405
67.62000 12.174
67.64000 11.034
67.66000 11.205
67.68000 11.085
67.70000 12.020
67.72000 16.876
67.74000 17.000
67.76000 16.251
67.78000 15.251
67.80000 16.141
67.82000 16.337
67.84000 18.761
67.86000 16.520
67.88000 18.211
67.90000 18.950
67.92000 20.857
67.94000 18.631
67.96000 17.931
67.98000 17.990
68.00000 18.416
68.02000 16.813
68.04000 16.332
68.06000 16.357
68.08000 17.461
68.10000 18.530
68.12000 20.430
68.14000 17.100
68.16000 17.487
68.18000 16.686
68.20000 16.893
68.22000 15.021
68.24000 13.335
68.26000 15.376
68.28000 14.499
68.30000 12.327
68.32000 11.864
68.34000 12.221
68.36000 14.911
68.38000 15.191
68.40000 15.541
68.42000 12.534
68.44000 10.892
68.46000 8.531
68.48000 8.474
68.50000 8.672
68.52000 6.614
68.54000 3.613
68.56000 8.444
68.58000 6.642
68.60000 5.915
68.62000 9.296
68.64000 9.435
68.66000 9.799
68.68000 7.921
68.70000 5.519
68.72000 5.015
68.74000 3.181
68.76000 3.754
68.78000 2.474
68.80000 2.746
68.82000 4.082
68.84000 1.183
68.86000 -1.025
68.88000 1.023
68.90000 2.252
68.92000 4.713
68.94000 1.848
68.96000 2.225
68.98000 1.596
69.00000 5.620
69.02000 3.000
69.04000 0.155
69.06000 -2.096
69.08000 -0.724
69.10000 0.507
69.12000 -0.514
69.14000 -0.087
69.16000 0.448
69.18000 0.721
69.20000 1.155
69.22000 1.366
69.24000 2.462
69.26000 1.446
69.28000 0.798
69.30000 2.084
69.32000 0.703
69.34000 0.243
69.36000 0.302
69.38000 -1.092
69.40000 -2.271
69.42000 -1.784
69.44000 0.633
69.46000 1.629
69.48000 0.301
69.50000 -0.154
69.52000 2.996
69.54000 3.994
69.56000 3.458
69.58000 5.846
69.60000 6.134
69.62000 5.125
69.64000 3.479
69.66000 -0.400
69.68000 -0.980
69.70000 0.582
69.72000 -0.585
69.74000 -0.751
69.76000 -1.721
69.78000 1.663
69.80000 -0.724
69.82000 3.975
69.84000 3.671
69.86000 1.414
69.88000 1.351
69.90000 0.533
69.92000 -2.241
69.94000 0.075
69.96000 1.088
69.98000 1.544
70.00000 1.718
70.02000 1.891
70.04000 1.138
70.06000 1.205
70.08000 -0.495
70.10000 0.171
70.12000 -0.054
70.14000 1.741
70.16000 2.379
70.18000 -1.891
70.20000 -0.441
70.22000 3.964
70.24000 2.751
70.26000 1.731
70.28000 1.806
70.30000 2.039
70.32000 -1.277
70.34000 -0.399
70.36000 0.091
70.38000 -0.192
70.40000 1.466
70.42000 0.441
70.44000 -0.706
70.46000 -0.308
70.48000 -2.194
70.50000 -0.084
70.52000 0.396
70.54000 1.672
70.56000 2.394
70.58000 1.401
70.60000 2.222
70.62000 3.417
70.64000 2.381
70.66000 1.267
70.68000 -2.190
70.70000 -1.024
70.72000 2.341
70.74000 3.590
70.76000 1.149
70.78000 -1.691
70.80000 0.783
70.82000 1.115
70.84000 -0.097
70.86000 0.218
70.88000 0.857
70.90000 1.274
70.92000 0.342
70.94000 2.154
70.96000 3.220
70.98000 2.390
71.00000 1.024
71.02000 -0.468
71.04000 -0.972
71.06000 -1.128
71.08000 -0.284
71.10000 -0.748
71.12000 0.704
71.14000 0.400
71.16000 2.280
71.18000 1.778
71.20000 0.335
71.22000 1.741
71.24000 3.420
71.26000 2.833
71.28000 0.195
71.30000 2.841
71.32000 2.046
71.34000 2.043
71.36000 -0.734
71.38000 3.797
71.40000 3.126
71.42000 2.148
71.44000 -0.370
71.46000 -0.154
71.48000 -0.377
71.50000 1.114
71.52000 0.904
71.54000 4.607
71.56000 6.481
71.58000 2.653
71.60000 1.693
71.62000 2.121
71.64000 2.270
71.66000 1.364
71.68000 1.010
71.70000 2.145
71.72000 2.289
71.74000 1.398
71.76000 1.125
71.78000 -0.720
71.80000 0.388
71.82000 1.969
71.84000 0.981
71.86000 0.512
71.88000 2.393
71.90000 2.483
71.92000 0.524
71.94000 0.211
71.96000 2.386
71.98000 1.137
72.00000 0.893
72.02000 2.404
72.04000 2.100
72.06000 0.748
72.08000 -0.879
72.10000 0.311
72.12000 0.680
72.14000 4.212
72.16000 5.928
72.18000 1.897
72.20000 0.672
72.22000 3.934
72.24000 4.295
72.26000 1.527
72.28000 -2.120
72.30000 0.345
72.32000 2.853
72.34000 1.302
72.36000 1.753
72.38000 1.325
72.40000 0.713
72.42000 1.421
72.44000 2.087
72.46000 1.226
72.48000 -0.178
72.50000 -1.040
72.52000 1.562
72.54000 1.131
72.56000 2.396
72.58000 4.303
72.60000 -0.285
72.62000 -0.484
72.64000 2.611
72.66000 3.378
72.68000 3.153
72.70000 2.078
72.72000 4.389
72.74000 4.925
72.76000 6.066
72.78000 -0.170
72.80000 -1.070
72.82000 0.760
72.84000 2.147
72.86000 -0.753
72.88000 -1.003
72.90000 4.064
72.92000 5.995
72.94000 0.126
72.96000 -0.615
72.98000 3.042
73.00000 1.580
73.02000 -0.347
73.04000 2.081
73.06000 4.193
73.08000 3.261
73.10000 1.509
73.12000 0.719
73.14000 4.270
73.16000 5.653
73.18000 2.443
73.20000 0.903
73.22000 0.275
73.24000 1.146
73.26000 0.106
73.28000 0.133
73.30000 0.199
73.32000 -2.029
73.34000 -2.105
73.36000 -0.022
73.38000 0.629
73.40000 1.391
73.42000 -1.666
73.44000 1.763
73.46000 4.781
73.48000 0.853
73.50000 0.412
73.52000 -1.128
73.54000 -1.502
73.56000 -0.885
73.58000 1.977
73.60000 1.695
73.62000 2.377
73.64000 0.203
73.66000 -0.068
73.68000 1.587
73.70000 2.583
73.72000 5.227
73.74000 2.984
73.76000 2.461
73.78000 4.771
73.80000 1.865
73.82000 -0.517
73.84000 -2.106
73.86000 -0.040
73.88000 2.969
73.90000 3.977
73.92000 0.748
73.94000 0.515
73.96000 2.082
73.98000 1.970
74.00000 4.226
74.02000 1.744
74.04000 0.239
74.06000 3.810
74.08000 3.523
74.10000 3.489
74.12000 4.374
74.14000 2.346
74.16000 2.513
74.18000 4.580
74.20000 3.591
74.22000 3.794
74.24000 2.676
74.26000 2.342
74.28000 4.168
74.30000 2.648
74.32000 7.209
74.34000 5.226
74.36000 1.289
74.38000 0.141
74.40000 1.009
74.42000 1.011
74.44000 0.020
74.46000 1.713
74.48000 4.571
74.50000 0.090
74.52000 -0.297
74.54000 0.077
74.56000 1.387
74.58000 0.265
74.60000 1.810
74.62000 4.181
74.64000 -1.219
74.66000 -0.843
74.68000 1.315
74.70000 -0.673
74.72000 2.881
74.74000 2.655
74.76000 4.154
74.78000 6.125
74.80000 3.692
74.82000 1.058
74.84000 1.641
74.86000 3.783
74.88000 1.047
74.90000 -2.076
74.92000 2.649
74.94000 6.046
74.96000 4.256
74.98000 1.043
75.00000 5.214
75.02000 3.104
75.04000 2.866
75.06000 2.889
75.08000 2.292
75.10000 3.241
75.12000 0.476
75.14000 3.830
75.16000 3.432
75.18000 1.727
75.20000 4.053
75.22000 5.284
75.24000 4.434
75.26000 4.355
75.28000 5.991
75.30000 4.723
75.32000 4.751
75.34000 5.068
75.36000 2.761
75.38000 2.511
75.40000 7.423
75.42000 8.372
75.44000 5.950
75.46000 1.143
75.48000 -2.082
75.50000 -0.565
75.52000 1.001
75.54000 0.951
75.56000 2.425
75.58000 4.100
75.60000 5.498
75.62000 5.266
75.64000 7.428
75.66000 3.060
75.68000 -0.837
75.70000 -0.736
75.72000 -0.060
75.74000 2.668
75.76000 2.431
75.78000 3.104
75.80000 1.632
75.82000 1.390
75.84000 1.631
75.86000 -0.884
75.88000 -0.544
75.90000 0.502
75.92000 -0.771
75.94000 1.096
75.96000 1.289
75.98000 -1.666
76.00000 0.314
76.02000 0.610
76.04000 -0.218
76.06000 0.283
76.08000 -0.020
76.10000 3.050
76.12000 6.700
76.14000 2.034
76.16000 2.822
76.18000 5.032
76.20000 1.793
76.22000 3.419
76.24000 -0.785
76.26000 -1.363
76.28000 -0.306
76.30000 1.111
76.32000 1.736
76.34000 2.441
76.36000 3.423
76.38000 -0.629
76.40000 0.778
76.42000 2.607
76.44000 2.524
76.46000 -0.456
76.48000 -1.437
76.50000 3.063
76.52000 0.622
76.54000 0.770
76.56000 0.026
76.58000 0.903
76.60000 0.828
76.62000 2.985
76.64000 2.165
76.66000 2.063
76.68000 2.765
76.70000 0.914
76.72000 -1.769
76.74000 -0.996
76.76000 -0.367
76.78000 1.921
76.80000 0.338
76.82000 4.105
76.84000 5.069
76.86000 3.922
76.88000 1.058
76.90000 4.741
76.92000 3.731
76.94000 -0.931
76.96000 2.815
76.98000 0.563
77.00000 -0.304
77.02000 0.694
77.04000 1.607
77.06000 1.637
77.08000 1.955
77.10000 1.485
77.12000 1.278
77.14000 2.656
77.16000 2.247
77.18000 0.896
77.20000 3.546
77.22000 4.491
77.24000 1.220
77.26000 3.942
77.28000 4.363
77.30000 1.279
77.32000 0.519
77.34000 -0.822
77.36000 -0.403
77.38000 1.254
77.40000 -2.142
77.42000 0.770
77.44000 2.669
77.46000 4.123
77.48000 2.402
77.50000 4.334
77.52000 1.932
77.54000 2.639
77.56000 6.443
77.58000 4.520
77.60000 4.330
77.62000 1.537
77.64000 -1.642
77.66000 1.455
77.68000 5.336
77.70000 1.637
77.72000 1.251
77.74000 3.970
77.76000 5.590
77.78000 3.259
77.80000 6.988
77.82000 5.748
77.84000 4.174
77.86000 3.786
77.88000 4.303
77.90000 6.463
77.92000 6.008
77.94000 4.004
77.96000 0.506
77.98000 -2.147
78.00000 3.301
78.02000 4.576
78.04000 2.584
78.06000 3.200
78.08000 1.585
78.10000 1.827
78.12000 0.090
78.14000 1.084
78.16000 -1.793
78.18000 5.634
78.20000 4.028
78.22000 3.809
78.24000 4.004
78.26000 2.391
78.28000 -0.287
78.30000 0.054
78.32000 2.437
78.34000 1.912
78.36000 4.122
78.38000 6.469
78.40000 3.195
78.42000 1.346
78.44000 4.125
78.46000 0.922
78.48000 0.394
78.50000 3.106
78.52000 4.789
78.54000 0.040
78.56000 -0.305
78.58000 0.439
78.60000 0.455
78.62000 1.069
78.64000 -2.167
78.66000 -0.188
78.68000 5.817
78.70000 5.244
78.72000 -1.046
78.74000 1.757
78.76000 1.689
78.78000 3.185
78.80000 2.958
78.82000 2.265
78.84000 0.336
78.86000 2.239
78.88000 5.178
78.90000 2.751
78.92000 -0.355
78.94000 1.571
78.96000 1.465
78.98000 4.162
79.00000 1.264
79.02000 5.723
79.04000 5.673
79.06000 2.605
79.08000 2.726
79.10000 1.130
79.12000 2.459
79.14000 3.350
79.16000 2.128
79.18000 0.432
79.20000 0.282
79.22000 3.782
79.24000 7.741
79.26000 4.557
79.28000 3.831
79.30000 2.197
79.32000 1.758
79.34000 -2.152
79.36000 2.251
79.38000 7.033
79.40000 8.456
79.42000 7.595
79.44000 3.705
79.46000 4.824
79.48000 4.727
79.50000 4.050
79.52000 4.280
79.54000 3.885
79.56000 8.930
79.58000 6.144
79.60000 3.339
79.62000 4.279
79.64000 0.557
79.66000 5.165
79.68000 6.082
79.70000 5.941
79.72000 5.403
79.74000 7.124
79.76000 6.824
79.78000 5.620
79.80000 4.839
79.82000 3.104
79.84000 2.765
79.86000 6.477
79.88000 4.313
79.90000 1.182
79.92000 -1.368
79.94000 5.582
79.96000 6.121
79.98000 6.383
80.00000 4.895
80.02000 5.886
80.04000 6.535
80.06000 5.627
80.08000 5.152
80.10000 1.816
80.12000 -2.226
80.14000 -0.883
80.16000 0.987
80.18000 -1.100
80.20000 2.552
80.22000 2.329
80.24000 2.616
80.26000 1.095
80.28000 1.948
80.30000 5.093
80.32000 4.551
80.34000 1.513
80.36000 2.529
80.38000 0.952
80.40000 3.955
80.42000 5.573
80.44000 3.048
80.46000 2.203
80.48000 3.311
80.50000 5.487
80.52000 4.277
80.54000 2.101
80.56000 5.104
80.58000 8.504
80.60000 7.635
80.62000 3.176
80.64000 4.113
80.66000 6.532
80.68000 6.321
80.70000 4.626
80.72000 3.039
80.74000 3.512
80.76000 1.576
80.78000 6.020
80.80000 7.598
80.82000 5.512
80.84000 7.212
80.86000 6.828
80.88000 5.659
80.90000 5.632
80.92000 2.603
80.94000 3.384
80.96000 9.132
80.98000 10.270
81.00000 9.008
81.02000 7.249
81.04000 8.908
81.06000 8.886
81.08000 7.490
81.10000 12.116
81.12000 12.129
81.14000 10.710
81.16000 8.333
81.18000 7.757
81.20000 8.231
81.22000 9.661
81.24000 13.382
81.26000 12.876
81.28000 12.208
81.30000 16.624
81.32000 17.524
81.34000 18.279
81.36000 16.416
81.38000 11.227
81.40000 12.291
81.42000 14.526
81.44000 15.068
81.46000 15.500
81.48000 18.275
81.50000 20.202
81.52000 21.844
81.54000 23.191
81.56000 23.703
81.58000 21.506
81.60000 18.478
81.62000 24.200
81.64000 26.084
81.66000 25.312
81.68000 25.059
81.70000 25.361
81.72000 25.791
81.74000 25.554
81.76000 25.669
81.78000 25.935
81.80000 23.296
81.82000 23.299
81.84000 29.415
81.86000 28.726
81.88000 25.629
81.90000 30.174
81.92000 28.755
81.94000 28.232
81.96000 30.975
81.98000 31.409
82.00000 32.668
82.02000 29.365
82.04000 29.054
82.06000 27.552
82.08000 28.469
82.10000 29.127
82.12000 24.990
82.14000 23.559
82.16000 25.368
82.18000 25.143
82.20000 28.070
82.22000 33.361
82.24000 29.352
82.26000 27.546
82.28000 23.825
82.30000 22.925
82.32000 22.952
82.34000 18.277
82.36000 21.654
82.38000 24.725
82.40000 22.136
82.42000 21.610
82.44000 19.153
82.46000 18.609
82.48000 16.058
82.50000 11.737
82.52000 14.012
82.54000 20.301
82.56000 14.512
82.58000 14.766
82.60000 17.029
82.62000 16.299
82.64000 18.371
82.66000 18.408
82.68000 17.761
82.70000 15.018
82.72000 11.744
82.74000 12.046
82.76000 11.830
82.78000 10.981
82.80000 7.933
82.82000 11.109
82.84000 12.767
82.86000 11.547
82.88000 11.256
82.90000 7.539
82.92000 3.819
82.94000 6.033
82.96000 6.286
82.98000 5.069
83.00000 3.603
83.02000 6.134
83.04000 6.847
83.06000 7.559
83.08000 5.703
83.10000 2.703
83.12000 0.422
83.14000 -1.124
83.16000 2.000
83.18000 3.468
83.20000 2.182
83.22000 0.049
83.24000 1.434
83.26000 1.670
83.28000 3.031
83.30000 1.042
83.32000 1.494
83.34000 5.142
83.36000 3.838
83.38000 1.874
83.40000 3.601
83.42000 4.585
83.44000 1.246
83.46000 3.215
83.48000 4.468
83.50000 3.204
83.52000 3.830
83.54000 4.295
83.56000 3.906
83.58000 1.589
83.60000 -2.321
83.62000 -1.019
83.64000 -1.327
83.66000 -0.113
83.68000 1.356
83.70000 1.054
83.72000 0.121
83.74000 0.130
83.76000 3.641
83.78000 3.632
83.80000 -0.774
83.82000 -1.303
83.84000 0.013
83.86000 -0.367
83.88000 -1.438
83.90000 1.174
83.92000 3.556
83.94000 4.905
83.96000 1.651
83.98000 -1.868
84.00000 -2.207
84.02000 -2.165
84.04000 -0.137
84.06000 1.106
84.08000 2.336
84.10000 2.109
84.12000 0.266
84.14000 -0.982
84.16000 -2.268
84.18000 -1.340
84.20000 0.852
84.22000 0.704
84.24000 3.070
84.26000 1.250
84.28000 2.463
84.30000 0.651
84.32000 1.931
84.34000 3.241
84.36000 2.269
84.38000 2.876
84.40000 -0.392
84.42000 -1.182
84.44000 -1.165
84.46000 -0.629
84.48000 2.465
84.50000 6.765
84.52000 5.604
84.54000 1.890
84.56000 3.896
84.58000 0.858
84.60000 -2.224
84.62000 1.770
84.64000 6.180
84.66000 5.563
84.68000 3.293
84.70000 2.379
84.72000 4.972
84.74000 2.863
84.76000 3.715
84.78000 2.314
84.80000 3.680
84.82000 4.053
84.84000 5.751
84.86000 6.151
84.88000 5.183
84.90000 6.417
84.92000 6.991
84.94000 3.683
84.96000 1.273
84.98000 -0.854
85.00000 1.686
85.02000 7.436
85.04000 4.764
85.06000 5.635
85.08000 2.869
85.10000 3.534
85.12000 2.553
85.14000 3.436
85.16000 7.398
85.18000 6.133
85.20000 6.587
85.22000 8.989
85.24000 8.494
85.26000 8.591
85.28000 4.800
85.30000 4.572
85.32000 4.033
85.34000 5.085
85.36000 6.728
85.38000 6.135
85.40000 7.990
85.42000 11.718
85.44000 13.167
85.46000 7.516
85.48000 11.123
85.50000 15.258
85.52000 15.021
85.54000 16.355
85.56000 13.900
85.58000 15.587
85.60000 18.018
85.62000 14.532
85.64000 14.377
85.66000 14.840
85.68000 15.898
85.70000 15.179
85.72000 18.623
85.74000 18.679
85.76000 20.332
85.78000 24.246
85.80000 21.764
85.82000 22.576
85.84000 21.723
85.86000 18.029
85.88000 16.608
85.90000 19.392
85.92000 18.908
85.94000 22.066
85.96000 25.655
85.98000 25.701
86.00000 25.911
86.02000 22.402
86.04000 22.294
86.06000 25.613
86.08000 24.079
86.10000 26.139
86.12000 24.693
86.14000 27.223
86.16000 28.852
86.18000 23.286
86.20000 24.108
86.22000 25.039
86.24000 24.065
86.26000 20.574
86.28000 25.560
86.30000 22.923
86.32000 18.450
86.34000 24.251
86.36000 25.298
86.38000 23.248
86.40000 20.432
86.42000 20.023
86.44000 24.195
86.46000 22.368
86.48000 18.339
86.50000 17.315
86.52000 19.249
86.54000 16.860
86.56000 12.527
86.58000 14.080
86.60000 15.151
86.62000 15.463
86.64000 12.195
86.66000 11.255
86.68000 11.012
86.70000 13.640
86.72000 14.523
86.74000 11.909
86.76000 13.714
86.78000 10.654
86.80000 7.088
86.82000 8.693
86.84000 9.291
86.86000 11.292
86.88000 7.954
86.90000 5.280
86.92000 3.969
86.94000 7.355
86.96000 9.932
86.98000 5.887
87.00000 5.689
87.02000 6.416
87.04000 6.456
87.06000 8.768
87.08000 8.414
87.10000 4.793
87.12000 1.296
87.14000 2.189
87.16000 2.024
87.18000 3.086
87.20000 5.392
87.22000 4.976
87.24000 2.429
87.26000 3.179
87.28000 4.250
87.30000 1.664
87.32000 -0.446
87.34000 -0.662
87.36000 0.309
87.38000 3.615
87.40000 -2.125
87.42000 -0.597
87.44000 3.453
87.46000 7.653
87.48000 6.313
87.50000 0.909
87.52000 1.076
87.54000 2.247
87.56000 3.182
87.58000 1.710
87.60000 5.063
87.62000 2.092
87.64000 1.437
87.66000 2.197
87.68000 1.071
87.70000 2.197
87.72000 0.752
87.74000 2.848
87.76000 1.986
87.78000 -1.321
87.80000 -1.632
87.82000 -2.063
87.84000 -2.064
87.86000 1.823
87.88000 1.965
87.90000 1.240
87.92000 0.107
87.94000 3.678
87.96000 3.737
87.98000 2.671
88.00000 -0.689
88.02000 1.609
88.04000 5.096
88.06000 4.311
88.08000 2.853
88.10000 5.104
88.12000 4.717
88.14000 1.793
88.16000 0.351
88.18000 3.172
88.20000 2.692
88.22000 3.221
88.24000 2.490
88.26000 3.541
88.28000 1.218
88.30000 2.015
88.32000 3.941
88.34000 2.570
88.36000 3.351
88.38000 0.859
88.40000 4.322
88.42000 0.285
88.44000 -2.018
88.46000 -0.694
88.48000 4.176
88.50000 4.433
88.52000 4.045
88.54000 -0.072
88.56000 -0.261
88.58000 -0.415
88.60000 0.370
88.62000 4.391
88.64000 3.241
88.66000 2.030
88.68000 3.814
88.70000 5.983
88.72000 1.427
88.74000 -1.275
88.76000 0.978
88.78000 4.169
88.80000 -0.863
88.82000 -0.670
88.84000 2.171
88.86000 3.996
88.88000 3.524
88.90000 1.198
88.92000 4.414
88.94000 3.557
88.96000 0.102
88.98000 -0.102
89.00000 -0.618
89.02000 -0.895
89.04000 4.514
89.06000 4.549
89.08000 1.132
89.10000 -1.664
89.12000 -2.006
89.14000 2.428
89.16000 1.914
89.18000 2.190
89.20000 1.602
89.22000 2.561
89.24000 3.806
89.26000 1.495
89.28000 1.122
89.30000 0.725
89.32000 2.415
89.34000 2.027
89.36000 -0.200
89.38000 -1.648
89.40000 0.647
89.42000 1.995
89.44000 -0.763
89.46000 -1.917
89.48000 1.259
89.50000 -0.587
89.52000 -0.331
89.54000 1.328
89.56000 0.077
89.58000 -1.981
89.60000 1.728
89.62000 0.437
89.64000 -0.495
89.66000 1.258
89.68000 3.186
89.70000 0.456
89.72000 2.108
89.74000 5.721
89.76000 4.711
89.78000 3.862
89.80000 8.064
89.82000 3.903
89.84000 1.672
89.86000 0.756
89.88000 2.623
89.90000 2.253
89.92000 2.125
89.94000 0.602
89.96000 0.211
89.98000 3.774
90.00000 5.392
90.02000 3.915
90.04000 2.249
90.06000 0.703
90.08000 2.327
90.10000 1.685
90.12000 0.814
90.14000 2.831
90.16000 1.352
90.18000 5.584
90.20000 6.314
90.22000 4.944
90.24000 4.702
90.26000 1.961
90.28000 2.244
90.30000 2.548
90.32000 2.937
90.34000 3.721
90.36000 4.451
90.38000 7.582
90.40000 2.059
90.42000 6.037
90.44000 8.910
90.46000 3.364
90.48000 2.252
90.50000 5.000
90.52000 4.361
90.54000 5.123
90.56000 3.731
90.58000 2.758
90.60000 4.090
90.62000 3.579
90.64000 4.151
90.66000 6.007
90.68000 6.750
90.70000 6.670
90.72000 7.501
90.74000 4.983
90.76000 8.786
90.78000 3.366
90.80000 4.544
90.82000 5.798
90.84000 3.955
90.86000 1.427
90.88000 2.928
90.90000 2.495
90.92000 -1.916
90.94000 1.258
90.96000 9.029
90.98000 9.059
91.00000 3.368
91.02000 3.469
91.04000 1.369
91.06000 4.594
91.08000 6.464
91.10000 1.041
91.12000 0.300
91.14000 7.274
91.16000 4.302
91.18000 4.912
91.20000 4.571
91.22000 7.211
91.24000 5.754
91.26000 5.407
91.28000 6.132
91.30000 6.007
91.32000 5.855
91.34000 4.710
91.36000 4.856
91.38000 4.920
91.40000 1.422
91.42000 -0.644
91.44000 -0.856
91.46000 1.156
91.48000 3.739
91.50000 5.349
91.52000 8.355
91.54000 5.916
91.56000 1.928
91.58000 1.199
91.60000 -0.291
91.62000 -1.742
91.64000 -0.858
91.66000 3.438
91.68000 3.457
91.70000 1.715
91.72000 -0.698
91.74000 3.059
91.76000 2.928
91.78000 2.794
91.80000 2.429
91.82000 3.132
91.84000 5.233
91.86000 5.274
91.88000 3.447
91.90000 1.699
91.92000 1.631
91.94000 6.436
91.96000 3.559
91.98000 5.176
92.00000 2.787
92.02000 1.088
92.04000 0.457
92.06000 0.966
92.08000 4.742
92.10000 5.086
92.12000 0.083
92.14000 -0.221
92.16000 7.014
92.18000 2.792
92.20000 2.135
92.22000 0.201
92.24000 1.456
92.26000 -1.092
92.28000 -0.630
92.30000 1.614
92.32000 1.547
92.34000 3.123
92.36000 6.687
92.38000 8.065
92.40000 6.848
92.42000 2.022
92.44000 3.428
92.46000 5.257
92.48000 3.838
92.50000 3.196
92.52000 3.497
92.54000 5.066
92.56000 3.543
92.58000 -0.617
92.60000 0.697
92.62000 -1.921
92.64000 -1.876
92.66000 -0.314
92.68000 -2.013
92.70000 -0.838
92.72000 -0.267
92.74000 2.599
92.76000 7.693
92.78000 6.479
92.80000 3.654
92.82000 2.616
92.84000 0.270
92.86000 3.450
92.88000 2.805
92.90000 0.649
92.92000 1.239
92.94000 3.027
92.96000 3.191
92.98000 0.846
93.00000 0.621
93.02000 2.065
93.04000 1.427
93.06000 0.290
93.08000 2.764
93.10000 -2.024
93.12000 -0.592
93.14000 -0.822
93.16000 1.589
93.18000 0.982
93.20000 -0.875
93.22000 -1.182
93.24000 1.598
93.26000 1.051
93.28000 0.844
93.30000 1.063
93.32000 -0.292
93.34000 5.377
93.36000 3.329
93.38000 3.233
93.40000 1.088
93.42000 6.559
93.44000 2.937
93.46000 2.783
93.48000 2.744
93.50000 1.090
93.52000 1.440
93.54000 3.266
93.56000 3.078
93.58000 2.499
93.60000 1.705
93.62000 0.822
93.64000 -2.017
93.66000 1.584
93.68000 3.400
93.70000 0.805
93.72000 -0.490
93.74000 3.431
93.76000 5.100
93.78000 3.243
93.80000 2.218
93.82000 -0.515
93.84000 -0.208
93.86000 0.715
93.88000 1.220
93.90000 0.717
93.92000 0.042
93.94000 2.091
93.96000 0.694
93.98000 -1.152
94.00000 0.713
94.02000 -2.017
94.04000 -1.035
94.06000 2.305
94.08000 2.488
94.10000 1.072
94.12000 3.730
94.14000 3.747
94.16000 6.146
94.18000 7.496
94.20000 4.669
94.22000 -0.661
94.24000 4.616
94.26000 6.657
94.28000 0.910
94.30000 -0.818
94.32000 1.554
94.34000 4.528
94.36000 5.697
94.38000 4.634
94.40000 2.295
94.42000 1.488
94.44000 4.466
94.46000 6.381
94.48000 6.082
94.50000 0.433
94.52000 -2.016
94.54000 1.922
94.56000 3.559
94.58000 4.269
94.60000 4.769
94.62000 8.522
94.64000 8.858
94.66000 -1.529
94.68000 3.025
94.70000 3.044
94.72000 5.620
94.74000 7.235
94.76000 5.732
94.78000 5.010
94.80000 5.094
94.82000 5.741
94.84000 4.259
94.86000 2.656
94.88000 4.290
94.90000 4.318
94.92000 2.194
94.94000 -1.050
94.96000 2.069
94.98000 1.302
95.00000 0.629
95.02000 5.751
95.04000 7.423
95.06000 4.290
95.08000 4.411
95.10000 2.611
95.12000 -2.009
95.14000 -2.030
95.16000 5.613
95.18000 5.188
95.20000 6.157
95.22000 1.594
95.24000 4.989
95.26000 2.858
95.28000 3.292
95.30000 5.780
95.32000 5.703
95.34000 3.784
95.36000 3.056
95.38000 -0.963
95.40000 1.504
95.42000 1.795
95.44000 4.220
95.46000 8.923
95.48000 1.658
95.50000 2.388
95.52000 3.830
95.54000 1.998
95.56000 3.429
95.58000 4.129
95.60000 1.501
95.62000 2.310
95.64000 3.136
95.66000 0.774
95.68000 1.232
95.70000 2.170
95.72000 4.167
95.74000 0.859
95.76000 -0.414
95.78000 3.217
95.80000 -1.996
95.82000 0.603
95.84000 2.600
95.86000 2.626
95.88000 5.907
95.90000 4.800
95.92000 2.625
95.94000 6.654
95.96000 0.081
95.98000 -0.230
96.00000 3.628
96.02000 8.188
96.04000 7.678
96.06000 3.583
96.08000 7.615
96.10000 6.450
96.12000 2.102
96.14000 8.432
96.16000 10.231
96.18000 7.494
96.20000 6.552
96.22000 3.852
96.24000 5.399
96.26000 -0.481
96.28000 7.987
96.30000 6.913
96.32000 4.620
96.34000 4.799
96.36000 3.784
96.38000 5.527
96.40000 0.599
96.42000 -1.974
96.44000 2.963
96.46000 6.481
96.48000 5.957
96.50000 3.409
96.52000 -1.235
96.54000 2.865
96.56000 9.294
96.58000 9.260
96.60000 8.605
96.62000 7.828
96.64000 5.341
96.66000 9.021
96.68000 10.367
96.70000 10.438
96.72000 9.735
96.74000 8.521
96.76000 11.043
96.78000 8.124
96.80000 6.296
96.82000 9.664
96.84000 10.284
96.86000 9.182
96.88000 11.401
96.90000 11.121
96.92000 7.163
96.94000 6.227
96.96000 8.939
96.98000 8.371
97.00000 6.489
97.02000 10.517
97.04000 11.101
97.06000 12.312
97.08000 9.958
97.10000 6.287
97.12000 4.155
97.14000 -0.243
97.16000 -1.871
97.18000 2.409
97.20000 8.208
97.22000 3.632
97.24000 6.290
97.26000 11.459
97.28000 10.461
97.30000 7.126
97.32000 7.529
97.34000 10.747
97.36000 13.561
97.38000 11.911
97.40000 6.087
97.42000 8.087
97.44000 10.056
97.46000 3.682
97.48000 4.029
97.50000 7.489
97.52000 9.177
97.54000 10.295
97.56000 11.438
97.58000 13.017
97.60000 6.820
97.62000 3.418
97.64000 4.346
97.66000 7.445
97.68000 11.383
97.70000 13.939
97.72000 5.395
97.74000 4.637
97.76000 6.926
97.78000 6.376
97.80000 1.714
97.82000 0.046
97.84000 4.849
97.86000 10.825
97.88000 10.178
97.90000 4.919
97.92000 3.337
97.94000 8.631
97.96000 -1.281
97.98000 4.386
98.00000 3.204
98.02000 2.238
98.04000 8.132
98.06000 9.667
98.08000 7.535
98.10000 8.023
98.12000 5.990
98.14000 9.288
98.16000 11.310
98.18000 8.133
98.20000 3.381
98.22000 0.341
98.24000 -0.828
98.26000 5.592
98.28000 8.933
98.30000 12.142
98.32000 9.340
98.34000 6.695
98.36000 6.094
98.38000 4.703
98.40000 4.435
98.42000 0.601
98.44000 1.399
98.46000 0.259
98.48000 0.819
98.50000 3.096
98.52000 2.618
98.54000 -0.149
98.56000 -1.994
98.58000 0.546
98.60000 -0.393
98.62000 0.020
98.64000 3.804
98.66000 5.266
98.68000 1.820
98.70000 7.209
98.72000 9.453
98.74000 5.757
98.76000 2.738
98.78000 4.297
98.80000 4.648
98.82000 10.105
98.84000 3.731
98.86000 -1.386
98.88000 3.859
98.90000 3.160
98.92000 4.249
98.94000 4.833
98.96000 -2.000
98.98000 -1.338
99.00000 12.521
99.02000 9.687
99.04000 14.478
99.06000 10.595
99.08000 3.574
99.10000 0.643
99.12000 8.905
99.14000 8.565
99.16000 4.473
99.18000 1.809
99.20000 4.864
99.22000 7.021
99.24000 7.570
99.26000 0.999
99.28000 1.739
99.30000 0.008
99.32000 3.049
99.34000 3.773
99.36000 1.208
99.38000 4.570
99.40000 9.997
99.42000 11.406
99.44000 11.947
99.46000 8.901
99.48000 2.887
99.50000 4.225
99.52000 0.764
99.54000 9.162
99.56000 10.039
99.58000 10.773
99.60000 2.401
99.62000 12.019
99.64000 10.425
99.66000 7.353
99.68000 12.187
99.70000 10.117
99.72000 3.308
99.74000 2.908
99.76000 5.138
99.78000 -1.971
99.80000 2.937
99.82000 12.903
99.84000 9.714
99.86000 19.997
99.88000 17.294
99.90000 13.044
99.92000 13.671
99.94000 6.758
99.96000 5.008
99.98000 0.000
