'Id: "0011388" Comment: "Integrate frame 0011388_Au-Ir-Rh_Rh-rich_XRD-Mapping-317-0000.gfrmwith cursor Wedge Cursor #5" Operator: "B?rgel" Anode: "Cu" Wavelength: "1.5406" Scantype: "2Theta (TwoTheta)" TimePerStep: "1" X: "0" Y: "36" Z: "5.95" 
10.00000 0.000
10.02000 0.256
10.04000 -2.848
10.06000 -5.416
10.08000 22.173
10.10000 12.466
10.12000 12.111
10.14000 14.978
10.16000 1.626
10.18000 18.948
10.20000 -2.448
10.22000 7.290
10.24000 0.112
10.26000 8.824
10.28000 13.580
10.30000 12.008
10.32000 14.872
10.34000 4.243
10.36000 3.669
10.38000 -4.334
10.40000 5.416
10.42000 14.363
10.44000 5.283
10.46000 -0.124
10.48000 5.762
10.50000 3.068
10.52000 -4.336
10.54000 3.749
10.56000 9.744
10.58000 14.387
10.60000 26.644
10.62000 22.267
10.64000 3.564
10.66000 1.562
10.68000 1.014
10.70000 8.173
10.72000 18.089
10.74000 26.161
10.76000 19.503
10.78000 18.106
10.80000 25.339
10.82000 2.680
10.84000 5.041
10.86000 11.854
10.88000 10.196
10.90000 18.564
10.92000 11.831
10.94000 2.055
10.96000 -0.355
10.98000 8.981
11.00000 12.925
11.02000 15.107
11.04000 14.833
11.06000 16.250
11.08000 21.034
11.10000 20.223
11.12000 13.806
11.14000 4.402
11.16000 5.727
11.18000 12.469
11.20000 9.765
11.22000 5.879
11.24000 8.639
11.26000 19.338
11.28000 11.490
11.30000 12.715
11.32000 9.624
11.34000 1.499
11.36000 -0.126
11.38000 13.874
11.40000 20.662
11.42000 17.201
11.44000 22.334
11.46000 24.104
11.48000 3.852
11.50000 -1.773
11.52000 10.040
11.54000 23.666
11.56000 24.767
11.58000 20.684
11.60000 23.242
11.62000 10.254
11.64000 8.850
11.66000 1.297
11.68000 -0.771
11.70000 6.123
11.72000 15.681
11.74000 18.316
11.76000 18.419
11.78000 13.658
11.80000 13.017
11.82000 4.242
11.84000 13.881
11.86000 7.265
11.88000 4.248
11.90000 13.143
11.92000 9.409
11.94000 4.020
11.96000 6.730
11.98000 10.550
12.00000 2.766
12.02000 8.892
12.04000 15.623
12.06000 4.100
12.08000 12.433
12.10000 12.113
12.12000 16.234
12.14000 22.637
12.16000 12.518
12.18000 9.086
12.20000 20.831
12.22000 13.685
12.24000 4.020
12.26000 5.000
12.28000 11.225
12.30000 11.434
12.32000 0.736
12.34000 -2.575
12.36000 15.795
12.38000 4.146
12.40000 1.716
12.42000 -4.486
12.44000 5.618
12.46000 1.342
12.48000 10.867
12.50000 3.024
12.52000 4.467
12.54000 5.536
12.56000 4.658
12.58000 11.800
12.60000 18.811
12.62000 12.161
12.64000 5.788
12.66000 8.900
12.68000 10.515
12.70000 3.441
12.72000 5.846
12.74000 5.319
12.76000 -4.216
12.78000 1.648
12.80000 16.346
12.82000 18.471
12.84000 11.949
12.86000 8.198
12.88000 9.673
12.90000 4.933
12.92000 -0.075
12.94000 9.433
12.96000 8.133
12.98000 8.759
13.00000 0.771
13.02000 11.879
13.04000 14.830
13.06000 14.992
13.08000 14.791
13.10000 10.943
13.12000 10.631
13.14000 11.911
13.16000 4.517
13.18000 6.923
13.20000 8.045
13.22000 3.786
13.24000 4.174
13.26000 4.736
13.28000 9.404
13.30000 12.560
13.32000 6.886
13.34000 6.403
13.36000 21.193
13.38000 22.134
13.40000 4.612
13.42000 6.627
13.44000 8.316
13.46000 14.220
13.48000 12.149
13.50000 8.176
13.52000 13.206
13.54000 8.026
13.56000 10.259
13.58000 19.227
13.60000 8.375
13.62000 3.615
13.64000 8.175
13.66000 13.898
13.68000 7.113
13.70000 7.310
13.72000 1.994
13.74000 12.464
13.76000 1.585
13.78000 3.697
13.80000 1.235
13.82000 3.678
13.84000 -3.707
13.86000 4.139
13.88000 14.768
13.90000 18.905
13.92000 26.279
13.94000 17.044
13.96000 8.559
13.98000 6.970
14.00000 1.116
14.02000 1.822
14.04000 -3.014
14.06000 9.065
14.08000 10.013
14.10000 -2.541
14.12000 -3.699
14.14000 1.659
14.16000 6.909
14.18000 10.042
14.20000 15.136
14.22000 16.952
14.24000 21.404
14.26000 12.476
14.28000 16.136
14.30000 11.950
14.32000 6.768
14.34000 8.102
14.36000 3.530
14.38000 -1.658
14.40000 13.950
14.42000 9.481
14.44000 13.091
14.46000 6.718
14.48000 12.824
14.50000 12.778
14.52000 10.556
14.54000 14.579
14.56000 6.893
14.58000 11.629
14.60000 7.269
14.62000 6.948
14.64000 2.715
14.66000 10.680
14.68000 10.079
14.70000 2.589
14.72000 0.708
14.74000 10.774
14.76000 17.009
14.78000 11.430
14.80000 -2.268
14.82000 8.982
14.84000 14.437
14.86000 16.950
14.88000 7.975
14.90000 5.243
14.92000 2.529
14.94000 3.126
14.96000 13.122
14.98000 9.335
15.00000 19.804
15.02000 13.263
15.04000 8.703
15.06000 13.608
15.08000 10.308
15.10000 14.459
15.12000 18.199
15.14000 9.196
15.16000 9.549
15.18000 6.391
15.20000 8.608
15.22000 9.616
15.24000 17.644
15.26000 7.739
15.28000 3.772
15.30000 6.542
15.32000 7.153
15.34000 9.499
15.36000 8.961
15.38000 5.266
15.40000 5.991
15.42000 7.608
15.44000 12.005
15.46000 8.253
15.48000 11.992
15.50000 25.038
15.52000 16.585
15.54000 14.389
15.56000 17.599
15.58000 12.170
15.60000 12.762
15.62000 14.523
15.64000 14.731
15.66000 16.690
15.68000 18.618
15.70000 13.188
15.72000 15.767
15.74000 16.638
15.76000 14.221
15.78000 19.337
15.80000 7.835
15.82000 14.853
15.84000 13.839
15.86000 9.932
15.88000 12.445
15.90000 7.711
15.92000 12.512
15.94000 8.669
15.96000 10.644
15.98000 13.025
16.00000 9.454
16.02000 11.394
16.04000 17.212
16.06000 9.766
16.08000 -4.590
16.10000 11.477
16.12000 15.391
16.14000 15.221
16.16000 11.510
16.18000 12.524
16.20000 10.031
16.22000 12.283
16.24000 12.139
16.26000 11.063
16.28000 15.934
16.30000 22.031
16.32000 12.713
16.34000 11.893
16.36000 22.041
16.38000 13.789
16.40000 10.667
16.42000 8.976
16.44000 6.431
16.46000 14.444
16.48000 14.490
16.50000 12.634
16.52000 11.053
16.54000 11.007
16.56000 6.087
16.58000 10.008
16.60000 9.480
16.62000 5.703
16.64000 0.319
16.66000 11.230
16.68000 7.080
16.70000 8.254
16.72000 6.717
16.74000 5.641
16.76000 10.925
16.78000 4.317
16.80000 2.635
16.82000 1.248
16.84000 8.152
16.86000 13.314
16.88000 6.562
16.90000 0.112
16.92000 4.640
16.94000 12.832
16.96000 11.476
16.98000 9.578
17.00000 11.656
17.02000 5.080
17.04000 10.496
17.06000 14.017
17.08000 11.921
17.10000 11.434
17.12000 11.597
17.14000 9.560
17.16000 8.230
17.18000 10.201
17.20000 13.022
17.22000 4.507
17.24000 14.097
17.26000 17.326
17.28000 8.475
17.30000 9.056
17.32000 2.548
17.34000 7.211
17.36000 7.559
17.38000 7.360
17.40000 14.091
17.42000 10.306
17.44000 3.144
17.46000 2.939
17.48000 3.672
17.50000 7.519
17.52000 7.042
17.54000 9.345
17.56000 14.533
17.58000 19.806
17.60000 12.793
17.62000 -0.177
17.64000 6.219
17.66000 7.216
17.68000 1.733
17.70000 -0.887
17.72000 8.336
17.74000 14.648
17.76000 10.029
17.78000 6.704
17.80000 -1.187
17.82000 0.331
17.84000 2.706
17.86000 6.700
17.88000 6.287
17.90000 0.492
17.92000 2.596
17.94000 2.250
17.96000 6.014
17.98000 7.056
18.00000 -2.457
18.02000 1.762
18.04000 -0.681
18.06000 6.042
18.08000 9.519
18.10000 3.103
18.12000 3.086
18.14000 3.400
18.16000 6.597
18.18000 12.009
18.20000 11.390
18.22000 5.350
18.24000 2.674
18.26000 2.896
18.28000 10.779
18.30000 5.017
18.32000 1.096
18.34000 4.751
18.36000 5.816
18.38000 4.172
18.40000 4.382
18.42000 8.418
18.44000 8.894
18.46000 6.086
18.48000 4.683
18.50000 3.403
18.52000 1.105
18.54000 1.505
18.56000 -0.049
18.58000 -3.513
18.60000 3.429
18.62000 7.004
18.64000 9.384
18.66000 10.130
18.68000 13.444
18.70000 2.252
18.72000 -4.324
18.74000 -3.841
18.76000 -0.544
18.78000 3.388
18.80000 8.953
18.82000 9.695
18.84000 4.097
18.86000 3.443
18.88000 4.078
18.90000 -1.204
18.92000 1.855
18.94000 1.429
18.96000 5.037
18.98000 7.200
19.00000 5.662
19.02000 2.332
19.04000 7.826
19.06000 3.525
19.08000 1.806
19.10000 -0.233
19.12000 5.575
19.14000 3.850
19.16000 6.086
19.18000 8.579
19.20000 12.561
19.22000 8.171
19.24000 8.868
19.26000 10.848
19.28000 13.492
19.30000 6.545
19.32000 7.309
19.34000 3.240
19.36000 5.747
19.38000 4.038
19.40000 3.792
19.42000 10.904
19.44000 11.013
19.46000 13.183
19.48000 9.052
19.50000 7.879
19.52000 1.755
19.54000 0.259
19.56000 6.631
19.58000 3.507
19.60000 2.649
19.62000 1.026
19.64000 2.779
19.66000 3.379
19.68000 4.036
19.70000 1.517
19.72000 -1.326
19.74000 8.955
19.76000 14.778
19.78000 10.261
19.80000 8.759
19.82000 8.439
19.84000 4.498
19.86000 3.096
19.88000 4.797
19.90000 7.240
19.92000 11.831
19.94000 5.149
19.96000 -1.701
19.98000 -4.233
20.00000 5.408
20.02000 8.381
20.04000 3.618
20.06000 5.984
20.08000 5.834
20.10000 4.822
20.12000 4.405
20.14000 7.616
20.16000 13.271
20.18000 7.367
20.20000 7.467
20.22000 10.888
20.24000 10.752
20.26000 8.154
20.28000 6.981
20.30000 6.060
20.32000 6.740
20.34000 2.752
20.36000 9.056
20.38000 10.327
20.40000 7.275
20.42000 0.886
20.44000 1.073
20.46000 2.434
20.48000 1.337
20.50000 0.695
20.52000 3.552
20.54000 6.629
20.56000 5.222
20.58000 -1.060
20.60000 -3.999
20.62000 4.076
20.64000 5.080
20.66000 7.922
20.68000 8.350
20.70000 1.849
20.72000 0.301
20.74000 4.971
20.76000 7.459
20.78000 5.944
20.80000 7.427
20.82000 6.319
20.84000 2.364
20.86000 1.172
20.88000 10.385
20.90000 12.447
20.92000 5.110
20.94000 3.526
20.96000 7.543
20.98000 10.611
21.00000 6.731
21.02000 3.782
21.04000 7.159
21.06000 -0.450
21.08000 -2.833
21.10000 0.511
21.12000 5.489
21.14000 -3.746
21.16000 5.567
21.18000 6.326
21.20000 2.627
21.22000 3.327
21.24000 0.481
21.26000 -3.323
21.28000 -3.468
21.30000 -0.508
21.32000 -3.310
21.34000 -2.726
21.36000 0.321
21.38000 -0.633
21.40000 -1.269
21.42000 0.295
21.44000 0.954
21.46000 2.815
21.48000 2.809
21.50000 4.382
21.52000 0.182
21.54000 0.601
21.56000 -4.202
21.58000 2.271
21.60000 4.441
21.62000 1.393
21.64000 -0.755
21.66000 7.142
21.68000 3.780
21.70000 2.588
21.72000 5.547
21.74000 9.520
21.76000 -1.064
21.78000 -3.893
21.80000 1.543
21.82000 1.858
21.84000 0.828
21.86000 5.336
21.88000 0.738
21.90000 3.561
21.92000 0.525
21.94000 -2.184
21.96000 -2.174
21.98000 2.967
22.00000 -4.175
22.02000 -3.668
22.04000 -0.545
22.06000 2.877
22.08000 -0.862
22.10000 7.508
22.12000 9.659
22.14000 12.229
22.16000 11.637
22.18000 7.703
22.20000 2.742
22.22000 2.948
22.24000 2.063
22.26000 2.307
22.28000 -0.370
22.30000 0.587
22.32000 5.357
22.34000 9.670
22.36000 7.169
22.38000 0.802
22.40000 -2.718
22.42000 -1.843
22.44000 0.071
22.46000 -0.337
22.48000 -0.099
22.50000 0.268
22.52000 2.874
22.54000 8.196
22.56000 -0.166
22.58000 -3.095
22.60000 3.073
22.62000 6.023
22.64000 1.167
22.66000 -0.519
22.68000 -0.179
22.70000 7.940
22.72000 6.121
22.74000 -2.060
22.76000 -1.359
22.78000 -0.332
22.80000 2.112
22.82000 3.026
22.84000 4.733
22.86000 4.724
22.88000 5.204
22.90000 0.774
22.92000 0.632
22.94000 -2.215
22.96000 -2.551
22.98000 -2.704
23.00000 -2.816
23.02000 1.597
23.04000 0.402
23.06000 -0.798
23.08000 -1.909
23.10000 3.787
23.12000 7.561
23.14000 2.850
23.16000 -0.160
23.18000 2.991
23.20000 0.850
23.22000 3.418
23.24000 7.377
23.26000 5.384
23.28000 7.429
23.30000 10.290
23.32000 11.368
23.34000 1.088
23.36000 3.048
23.38000 7.058
23.40000 4.992
23.42000 2.120
23.44000 1.609
23.46000 2.911
23.48000 6.862
23.50000 1.635
23.52000 3.479
23.54000 -4.061
23.56000 4.007
23.58000 9.561
23.60000 12.343
23.62000 9.584
23.64000 6.473
23.66000 5.543
23.68000 10.274
23.70000 11.650
23.72000 4.523
23.74000 3.167
23.76000 4.906
23.78000 6.583
23.80000 3.553
23.82000 10.267
23.84000 4.071
23.86000 7.012
23.88000 -2.017
23.90000 -1.258
23.92000 0.198
23.94000 2.205
23.96000 -1.509
23.98000 -1.707
24.00000 -1.692
24.02000 -0.929
24.04000 2.317
24.06000 4.984
24.08000 2.554
24.10000 0.280
24.12000 5.779
24.14000 7.503
24.16000 9.980
24.18000 9.960
24.20000 6.643
24.22000 6.493
24.24000 4.191
24.26000 4.718
24.28000 3.139
24.30000 8.660
24.32000 9.712
24.34000 6.240
24.36000 1.410
24.38000 2.775
24.40000 4.444
24.42000 1.288
24.44000 -3.104
24.46000 0.234
24.48000 5.987
24.50000 0.269
24.52000 0.828
24.54000 1.251
24.56000 1.348
24.58000 0.595
24.60000 -2.126
24.62000 -0.559
24.64000 3.316
24.66000 9.675
24.68000 6.851
24.70000 0.166
24.72000 -4.016
24.74000 0.339
24.76000 3.848
24.78000 5.537
24.80000 0.570
24.82000 2.762
24.84000 2.149
24.86000 3.906
24.88000 -0.814
24.90000 -3.373
24.92000 -2.603
24.94000 -2.758
24.96000 3.326
24.98000 1.736
25.00000 -3.120
25.02000 -0.909
25.04000 0.026
25.06000 3.453
25.08000 2.963
25.10000 1.261
25.12000 3.272
25.14000 9.701
25.16000 7.586
25.18000 -0.990
25.20000 -1.916
25.22000 6.515
25.24000 3.150
25.26000 1.923
25.28000 5.015
25.30000 12.335
25.32000 11.342
25.34000 3.281
25.36000 4.814
25.38000 3.102
25.40000 4.669
25.42000 -2.188
25.44000 -1.521
25.46000 0.098
25.48000 4.986
25.50000 7.363
25.52000 3.719
25.54000 0.318
25.56000 4.845
25.58000 4.689
25.60000 0.750
25.62000 1.492
25.64000 3.946
25.66000 7.927
25.68000 8.529
25.70000 5.396
25.72000 -0.430
25.74000 2.762
25.76000 1.525
25.78000 -1.929
25.80000 5.381
25.82000 4.266
25.84000 0.936
25.86000 -3.953
25.88000 4.800
25.90000 6.286
25.92000 7.521
25.94000 0.729
25.96000 1.284
25.98000 3.057
26.00000 2.164
26.02000 1.093
26.04000 3.134
26.06000 2.975
26.08000 1.003
26.10000 0.132
26.12000 1.764
26.14000 1.691
26.16000 -1.226
26.18000 0.476
26.20000 3.700
26.22000 3.273
26.24000 10.918
26.26000 10.592
26.28000 5.481
26.30000 6.632
26.32000 4.839
26.34000 2.104
26.36000 4.611
26.38000 6.330
26.40000 0.176
26.42000 2.513
26.44000 5.050
26.46000 5.144
26.48000 -0.174
26.50000 0.268
26.52000 5.015
26.54000 2.786
26.56000 3.668
26.58000 2.636
26.60000 7.121
26.62000 4.130
26.64000 -2.372
26.66000 -3.909
26.68000 4.642
26.70000 5.388
26.72000 0.457
26.74000 1.816
26.76000 -0.848
26.78000 -3.904
26.80000 4.521
26.82000 8.128
26.84000 5.173
26.86000 1.443
26.88000 0.710
26.90000 2.129
26.92000 0.689
26.94000 3.821
26.96000 6.196
26.98000 4.272
27.00000 2.988
27.02000 8.093
27.04000 5.527
27.06000 -0.558
27.08000 0.784
27.10000 4.267
27.12000 3.581
27.14000 3.780
27.16000 4.405
27.18000 4.353
27.20000 1.111
27.22000 1.101
27.24000 9.075
27.26000 10.574
27.28000 4.600
27.30000 0.066
27.32000 -2.724
27.34000 -2.272
27.36000 1.788
27.38000 -0.330
27.40000 2.044
27.42000 -3.174
27.44000 -0.560
27.46000 3.780
27.48000 5.994
27.50000 6.190
27.52000 0.905
27.54000 0.672
27.56000 1.857
27.58000 3.479
27.60000 2.167
27.62000 4.110
27.64000 0.659
27.66000 6.203
27.68000 6.491
27.70000 5.631
27.72000 3.162
27.74000 -3.012
27.76000 -2.790
27.78000 -1.130
27.80000 0.273
27.82000 3.768
27.84000 2.016
27.86000 0.126
27.88000 -0.693
27.90000 -2.352
27.92000 2.774
27.94000 6.982
27.96000 1.999
27.98000 1.299
28.00000 0.744
28.02000 4.825
28.04000 -0.128
28.06000 5.261
28.08000 7.181
28.10000 2.737
28.12000 2.827
28.14000 4.476
28.16000 7.297
28.18000 5.126
28.20000 2.356
28.22000 7.414
28.24000 5.279
28.26000 5.547
28.28000 2.092
28.30000 -0.842
28.32000 -3.294
28.34000 -3.817
28.36000 4.433
28.38000 2.539
28.40000 1.473
28.42000 6.473
28.44000 0.616
28.46000 -2.871
28.48000 2.298
28.50000 1.429
28.52000 5.481
28.54000 6.610
28.56000 -1.856
28.58000 3.289
28.60000 0.611
28.62000 0.340
28.64000 1.284
28.66000 0.213
28.68000 0.524
28.70000 4.125
28.72000 9.987
28.74000 6.654
28.76000 1.815
28.78000 3.944
28.80000 1.316
28.82000 3.064
28.84000 5.961
28.86000 3.256
28.88000 3.647
28.90000 1.785
28.92000 -1.570
28.94000 0.243
28.96000 2.481
28.98000 3.088
29.00000 1.261
29.02000 1.619
29.04000 4.519
29.06000 4.467
29.08000 0.605
29.10000 1.016
29.12000 2.562
29.14000 -1.210
29.16000 1.114
29.18000 4.457
29.20000 7.385
29.22000 2.332
29.24000 2.727
29.26000 1.035
29.28000 2.400
29.30000 1.487
29.32000 0.331
29.34000 1.762
29.36000 6.164
29.38000 6.435
29.40000 6.305
29.42000 4.247
29.44000 2.881
29.46000 10.688
29.48000 8.911
29.50000 5.405
29.52000 5.094
29.54000 0.370
29.56000 -2.589
29.58000 0.122
29.60000 -3.738
29.62000 2.851
29.64000 -0.135
29.66000 0.851
29.68000 1.890
29.70000 7.603
29.72000 8.322
29.74000 6.808
29.76000 6.292
29.78000 4.770
29.80000 3.534
29.82000 5.439
29.84000 1.970
29.86000 2.063
29.88000 -0.271
29.90000 2.528
29.92000 1.809
29.94000 1.320
29.96000 10.763
29.98000 7.695
30.00000 0.750
30.02000 4.090
30.04000 1.931
30.06000 4.225
30.08000 2.858
30.10000 4.773
30.12000 4.522
30.14000 5.309
30.16000 1.364
30.18000 -0.152
30.20000 1.670
30.22000 1.809
30.24000 -1.183
30.26000 1.734
30.28000 3.833
30.30000 4.075
30.32000 2.722
30.34000 -3.492
30.36000 -0.037
30.38000 1.639
30.40000 6.665
30.42000 3.477
30.44000 0.375
30.46000 -0.566
30.48000 -1.689
30.50000 -2.182
30.52000 2.784
30.54000 2.841
30.56000 -0.219
30.58000 -1.831
30.60000 -1.942
30.62000 -0.967
30.64000 -1.906
30.66000 0.153
30.68000 0.518
30.70000 -2.290
30.72000 2.206
30.74000 7.493
30.76000 9.680
30.78000 3.384
30.80000 -3.706
30.82000 -0.591
30.84000 -1.847
30.86000 1.939
30.88000 0.983
30.90000 1.170
30.92000 5.829
30.94000 2.582
30.96000 0.731
30.98000 2.920
31.00000 3.605
31.02000 1.034
31.04000 4.053
31.06000 8.831
31.08000 5.574
31.10000 1.409
31.12000 -1.811
31.14000 1.232
31.16000 -2.982
31.18000 -3.683
31.20000 -1.028
31.22000 -2.435
31.24000 -0.873
31.26000 5.187
31.28000 5.817
31.30000 7.802
31.32000 4.694
31.34000 5.013
31.36000 3.244
31.38000 3.026
31.40000 -1.978
31.42000 -0.664
31.44000 0.754
31.46000 -2.091
31.48000 2.761
31.50000 5.292
31.52000 7.622
31.54000 8.844
31.56000 1.031
31.58000 2.525
31.60000 0.480
31.62000 -3.205
31.64000 -1.998
31.66000 1.152
31.68000 1.877
31.70000 3.256
31.72000 2.499
31.74000 -2.163
31.76000 -0.492
31.78000 3.494
31.80000 2.246
31.82000 -0.141
31.84000 4.208
31.86000 5.352
31.88000 10.223
31.90000 4.652
31.92000 -0.049
31.94000 -3.658
31.96000 1.038
31.98000 3.317
32.00000 3.263
32.02000 8.128
32.04000 4.878
32.06000 1.410
32.08000 1.131
32.10000 -3.231
32.12000 -1.806
32.14000 -0.271
32.16000 -0.815
32.18000 1.381
32.20000 -1.955
32.22000 1.015
32.24000 2.700
32.26000 2.481
32.28000 2.601
32.30000 0.605
32.32000 1.600
32.34000 0.175
32.36000 -2.855
32.38000 -2.930
32.40000 0.407
32.42000 2.007
32.44000 1.032
32.46000 -2.014
32.48000 -0.362
32.50000 -1.131
32.52000 -3.655
32.54000 -0.415
32.56000 7.218
32.58000 5.618
32.60000 2.629
32.62000 0.077
32.64000 -0.662
32.66000 0.971
32.68000 1.175
32.70000 -0.333
32.72000 -1.669
32.74000 -1.665
32.76000 0.316
32.78000 -0.063
32.80000 0.049
32.82000 -2.873
32.84000 -2.200
32.86000 -0.531
32.88000 -2.521
32.90000 -3.659
32.92000 -0.030
32.94000 2.801
32.96000 0.382
32.98000 1.278
33.00000 1.590
33.02000 2.462
33.04000 5.903
33.06000 9.396
33.08000 4.331
33.10000 0.890
33.12000 1.448
33.14000 1.958
33.16000 -1.573
33.18000 -1.260
33.20000 -2.410
33.22000 0.763
33.24000 4.553
33.26000 4.605
33.28000 2.957
33.30000 -1.693
33.32000 -3.656
33.34000 1.338
33.36000 0.882
33.38000 2.321
33.40000 -2.444
33.42000 -2.528
33.44000 -3.541
33.46000 -0.782
33.48000 1.542
33.50000 -0.205
33.52000 0.649
33.54000 -0.566
33.56000 -1.441
33.58000 3.385
33.60000 4.884
33.62000 5.039
33.64000 3.013
33.66000 -1.195
33.68000 0.098
33.70000 -1.319
33.72000 -0.260
33.74000 0.851
33.76000 4.239
33.78000 5.413
33.80000 3.293
33.82000 0.880
33.84000 -1.756
33.86000 2.950
33.88000 5.859
33.90000 -1.472
33.92000 2.136
33.94000 4.774
33.96000 2.098
33.98000 2.970
34.00000 2.590
34.02000 1.801
34.04000 1.734
34.06000 4.715
34.08000 8.887
34.10000 7.717
34.12000 8.071
34.14000 2.626
34.16000 -1.245
34.18000 2.858
34.20000 7.023
34.22000 6.689
34.24000 5.414
34.26000 4.089
34.28000 5.499
34.30000 3.864
34.32000 -3.615
34.34000 0.568
34.36000 1.309
34.38000 -2.589
34.40000 -2.211
34.42000 -3.010
34.44000 -1.211
34.46000 4.204
34.48000 3.209
34.50000 2.499
34.52000 4.847
34.54000 4.669
34.56000 -0.549
34.58000 -0.208
34.60000 3.099
34.62000 7.189
34.64000 5.021
34.66000 1.107
34.68000 0.281
34.70000 1.564
34.72000 3.407
34.74000 -1.084
34.76000 2.607
34.78000 1.509
34.80000 -1.104
34.82000 0.374
34.84000 -1.197
34.86000 1.731
34.88000 3.355
34.90000 5.618
34.92000 1.853
34.94000 10.322
34.96000 7.974
34.98000 6.317
35.00000 4.872
35.02000 7.508
35.04000 4.391
35.06000 5.303
35.08000 6.253
35.10000 9.576
35.12000 2.923
35.14000 6.515
35.16000 3.067
35.18000 -3.552
35.20000 3.113
35.22000 6.258
35.24000 7.242
35.26000 9.343
35.28000 5.794
35.30000 8.609
35.32000 9.004
35.34000 4.624
35.36000 5.916
35.38000 3.019
35.40000 4.284
35.42000 3.858
35.44000 2.471
35.46000 3.157
35.48000 2.031
35.50000 1.996
35.52000 0.839
35.54000 1.584
35.56000 0.631
35.58000 -3.586
35.60000 -0.083
35.62000 9.112
35.64000 10.923
35.66000 8.587
35.68000 -1.716
35.70000 -3.326
35.72000 4.836
35.74000 5.367
35.76000 -1.023
35.78000 4.175
35.80000 8.227
35.82000 7.253
35.84000 10.594
35.86000 5.414
35.88000 3.367
35.90000 4.589
35.92000 4.861
35.94000 3.851
35.96000 -3.214
35.98000 -3.035
36.00000 1.835
36.02000 3.101
36.04000 -1.343
36.06000 -1.213
36.08000 0.163
36.10000 2.006
36.12000 -0.969
36.14000 -3.243
36.16000 -0.090
36.18000 4.587
36.20000 5.833
36.22000 2.518
36.24000 3.436
36.26000 4.101
36.28000 3.819
36.30000 1.973
36.32000 2.314
36.34000 -2.606
36.36000 4.599
36.38000 4.546
36.40000 4.229
36.42000 -3.106
36.44000 2.616
36.46000 0.998
36.48000 1.638
36.50000 1.514
36.52000 -3.655
36.54000 1.349
36.56000 6.320
36.58000 7.762
36.60000 4.048
36.62000 3.536
36.64000 -1.085
36.66000 -3.172
36.68000 -1.721
36.70000 0.392
36.72000 3.337
36.74000 -0.244
36.76000 0.502
36.78000 -2.524
36.80000 0.992
36.82000 2.397
36.84000 3.201
36.86000 3.643
36.88000 3.587
36.90000 2.554
36.92000 2.648
36.94000 1.181
36.96000 2.717
36.98000 2.779
37.00000 4.616
37.02000 3.214
37.04000 3.094
37.06000 7.548
37.08000 4.729
37.10000 0.342
37.12000 -0.002
37.14000 -1.983
37.16000 -0.837
37.18000 -1.861
37.20000 -3.707
37.22000 -2.293
37.24000 -3.577
37.26000 -3.711
37.28000 1.026
37.30000 5.015
37.32000 2.569
37.34000 3.996
37.36000 3.019
37.38000 0.258
37.40000 4.320
37.42000 7.608
37.44000 8.487
37.46000 6.137
37.48000 3.948
37.50000 6.086
37.52000 9.573
37.54000 4.132
37.56000 3.056
37.58000 7.185
37.60000 4.020
37.62000 1.768
37.64000 9.845
37.66000 8.040
37.68000 7.758
37.70000 5.802
37.72000 6.412
37.74000 7.081
37.76000 4.708
37.78000 1.825
37.80000 6.781
37.82000 9.457
37.84000 8.290
37.86000 8.600
37.88000 10.098
37.90000 8.661
37.92000 11.343
37.94000 13.891
37.96000 12.112
37.98000 15.107
38.00000 13.580
38.02000 14.173
38.04000 11.958
38.06000 12.110
38.08000 10.911
38.10000 10.511
38.12000 10.908
38.14000 13.754
38.16000 17.607
38.18000 20.048
38.20000 22.682
38.22000 21.996
38.24000 19.686
38.26000 24.245
38.28000 20.195
38.30000 18.891
38.32000 21.337
38.34000 28.327
38.36000 24.609
38.38000 24.742
38.40000 24.813
38.42000 30.973
38.44000 33.617
38.46000 29.820
38.48000 31.718
38.50000 32.224
38.52000 29.508
38.54000 31.275
38.56000 30.697
38.58000 29.278
38.60000 23.777
38.62000 33.217
38.64000 30.718
38.66000 34.463
38.68000 40.895
38.70000 42.776
38.72000 46.485
38.74000 50.075
38.76000 50.713
38.78000 52.359
38.80000 56.060
38.82000 57.808
38.84000 63.835
38.86000 63.235
38.88000 64.797
38.90000 64.135
38.92000 68.190
38.94000 66.821
38.96000 70.904
38.98000 77.023
39.00000 75.897
39.02000 79.224
39.04000 80.915
39.06000 85.684
39.08000 90.283
39.10000 90.354
39.12000 103.017
39.14000 106.234
39.16000 108.391
39.18000 112.706
39.20000 122.238
39.22000 130.429
39.24000 131.942
39.26000 131.067
39.28000 139.571
39.30000 148.705
39.32000 155.080
39.34000 159.157
39.36000 159.247
39.38000 176.759
39.40000 188.078
39.42000 193.566
39.44000 203.913
39.46000 216.196
39.48000 226.629
39.50000 229.628
39.52000 244.126
39.54000 258.285
39.56000 275.840
39.58000 288.716
39.60000 296.129
39.62000 305.289
39.64000 320.973
39.66000 333.883
39.68000 345.911
39.70000 367.454
39.72000 392.011
39.74000 411.817
39.76000 421.575
39.78000 445.377
39.80000 458.082
39.82000 477.787
39.84000 502.244
39.86000 524.697
39.88000 544.120
39.90000 556.721
39.92000 574.602
39.94000 586.628
39.96000 607.152
39.98000 629.463
40.00000 643.301
40.02000 657.643
40.04000 670.938
40.06000 687.347
40.08000 707.863
40.10000 705.681
40.12000 720.103
40.14000 741.351
40.16000 734.116
40.18000 728.053
40.20000 725.982
40.22000 734.063
40.24000 739.780
40.26000 742.151
40.28000 736.351
40.30000 721.134
40.32000 712.396
40.34000 689.050
40.36000 681.893
40.38000 666.793
40.40000 649.200
40.42000 626.807
40.44000 613.992
40.46000 599.374
40.48000 591.209
40.50000 558.723
40.52000 532.340
40.54000 504.958
40.56000 484.137
40.58000 468.787
40.60000 451.934
40.62000 427.879
40.64000 411.546
40.66000 393.234
40.68000 370.914
40.70000 352.248
40.72000 332.037
40.74000 313.718
40.76000 294.592
40.78000 277.920
40.80000 265.449
40.82000 254.626
40.84000 239.194
40.86000 229.980
40.88000 213.395
40.90000 208.347
40.92000 195.802
40.94000 175.458
40.96000 168.763
40.98000 163.652
41.00000 151.205
41.02000 141.843
41.04000 131.384
41.06000 129.885
41.08000 121.687
41.10000 109.729
41.12000 106.604
41.14000 103.226
41.16000 96.563
41.18000 89.303
41.20000 83.064
41.22000 81.570
41.24000 74.106
41.26000 72.937
41.28000 72.040
41.30000 70.572
41.32000 65.561
41.34000 63.180
41.36000 59.922
41.38000 48.697
41.40000 47.400
41.42000 44.686
41.44000 40.280
41.46000 37.502
41.48000 40.395
41.50000 36.015
41.52000 28.984
41.54000 33.895
41.56000 26.934
41.58000 27.881
41.60000 28.020
41.62000 29.942
41.64000 33.703
41.66000 32.006
41.68000 29.942
41.70000 26.731
41.72000 27.595
41.74000 21.152
41.76000 14.806
41.78000 14.598
41.80000 21.305
41.82000 18.580
41.84000 14.293
41.86000 14.112
41.88000 14.149
41.90000 11.795
41.92000 10.177
41.94000 9.365
41.96000 5.572
41.98000 8.697
42.00000 11.173
42.02000 8.976
42.04000 10.142
42.06000 8.585
42.08000 10.933
42.10000 6.105
42.12000 5.297
42.14000 2.901
42.16000 6.690
42.18000 3.920
42.20000 6.784
42.22000 6.147
42.24000 0.233
42.26000 -0.739
42.28000 1.105
42.30000 1.872
42.32000 6.527
42.34000 10.468
42.36000 8.987
42.38000 7.791
42.40000 7.629
42.42000 7.665
42.44000 5.058
42.46000 3.903
42.48000 -1.795
42.50000 1.498
42.52000 4.921
42.54000 4.020
42.56000 3.738
42.58000 -0.666
42.60000 -2.393
42.62000 -3.663
42.64000 1.114
42.66000 4.764
42.68000 4.876
42.70000 2.788
42.72000 0.310
42.74000 1.701
42.76000 3.944
42.78000 4.585
42.80000 6.314
42.82000 -2.682
42.84000 -0.920
42.86000 1.386
42.88000 3.308
42.90000 1.476
42.92000 -3.621
42.94000 -2.702
42.96000 -0.413
42.98000 -0.972
43.00000 7.621
43.02000 2.823
43.04000 -2.702
43.06000 1.720
43.08000 0.156
43.10000 -1.680
43.12000 3.720
43.14000 2.307
43.16000 -1.103
43.18000 2.228
43.20000 1.667
43.22000 1.996
43.24000 0.527
43.26000 3.159
43.28000 3.351
43.30000 4.053
43.32000 -0.896
43.34000 -0.563
43.36000 -1.383
43.38000 1.765
43.40000 -0.263
43.42000 0.640
43.44000 0.533
43.46000 -0.634
43.48000 8.367
43.50000 5.098
43.52000 -1.725
43.54000 -0.008
43.56000 -2.392
43.58000 -3.558
43.60000 1.614
43.62000 5.895
43.64000 6.462
43.66000 5.048
43.68000 4.798
43.70000 3.455
43.72000 3.405
43.74000 2.145
43.76000 6.693
43.78000 9.150
43.80000 1.777
43.82000 -1.751
43.84000 0.574
43.86000 4.002
43.88000 -3.521
43.90000 2.305
43.92000 7.186
43.94000 7.637
43.96000 5.526
43.98000 -0.903
44.00000 1.947
44.02000 5.112
44.04000 3.105
44.06000 -1.662
44.08000 6.136
44.10000 7.444
44.12000 2.100
44.14000 3.393
44.16000 0.955
44.18000 1.268
44.20000 5.823
44.22000 5.241
44.24000 4.636
44.26000 6.235
44.28000 2.451
44.30000 5.561
44.32000 7.012
44.34000 4.648
44.36000 2.837
44.38000 -3.275
44.40000 -3.537
44.42000 1.824
44.44000 9.494
44.46000 11.045
44.48000 7.549
44.50000 2.648
44.52000 4.449
44.54000 8.122
44.56000 10.578
44.58000 7.990
44.60000 4.219
44.62000 -0.797
44.64000 -0.097
44.66000 3.721
44.68000 5.129
44.70000 6.391
44.72000 10.563
44.74000 8.462
44.76000 8.005
44.78000 7.540
44.80000 8.637
44.82000 7.526
44.84000 6.383
44.86000 7.912
44.88000 7.823
44.90000 6.162
44.92000 3.353
44.94000 4.089
44.96000 3.515
44.98000 8.389
45.00000 11.136
45.02000 9.123
45.04000 4.918
45.06000 5.202
45.08000 12.358
45.10000 12.770
45.12000 13.672
45.14000 12.920
45.16000 12.869
45.18000 9.466
45.20000 5.495
45.22000 11.896
45.24000 13.436
45.26000 11.359
45.28000 14.973
45.30000 15.035
45.32000 17.344
45.34000 18.029
45.36000 16.057
45.38000 15.265
45.40000 16.664
45.42000 14.541
45.44000 16.495
45.46000 19.080
45.48000 18.653
45.50000 23.306
45.52000 25.440
45.54000 30.691
45.56000 30.788
45.58000 23.671
45.60000 23.792
45.62000 31.269
45.64000 30.190
45.66000 29.925
45.68000 29.630
45.70000 28.005
45.72000 35.561
45.74000 35.820
45.76000 33.551
45.78000 34.682
45.80000 34.560
45.82000 34.703
45.84000 31.466
45.86000 38.556
45.88000 44.351
45.90000 43.868
45.92000 43.351
45.94000 43.843
45.96000 46.928
45.98000 48.116
46.00000 47.774
46.02000 48.923
46.04000 49.310
46.06000 43.688
46.08000 48.124
46.10000 49.793
46.12000 48.547
46.14000 51.377
46.16000 57.183
46.18000 57.136
46.20000 61.823
46.22000 58.323
46.24000 60.788
46.26000 59.374
46.28000 56.445
46.30000 59.284
46.32000 62.560
46.34000 69.343
46.36000 72.098
46.38000 72.996
46.40000 81.574
46.42000 83.474
46.44000 77.397
46.46000 76.425
46.48000 79.566
46.50000 79.879
46.52000 80.923
46.54000 76.122
46.56000 82.113
46.58000 94.462
46.60000 93.607
46.62000 88.585
46.64000 89.306
46.66000 82.722
46.68000 77.938
46.70000 82.716
46.72000 82.848
46.74000 84.661
46.76000 86.177
46.78000 87.508
46.80000 89.270
46.82000 87.206
46.84000 85.016
46.86000 78.597
46.88000 78.358
46.90000 82.921
46.92000 86.299
46.94000 84.434
46.96000 81.117
46.98000 76.692
47.00000 73.679
47.02000 80.999
47.04000 76.813
47.06000 79.581
47.08000 85.046
47.10000 80.477
47.12000 70.666
47.14000 65.501
47.16000 66.786
47.18000 69.196
47.20000 66.621
47.22000 65.931
47.24000 57.771
47.26000 55.681
47.28000 54.319
47.30000 54.611
47.32000 53.444
47.34000 53.844
47.36000 53.954
47.38000 51.159
47.40000 48.439
47.42000 51.627
47.44000 44.608
47.46000 41.687
47.48000 45.513
47.50000 48.342
47.52000 43.791
47.54000 43.478
47.56000 35.916
47.58000 30.660
47.60000 34.757
47.62000 32.951
47.64000 33.516
47.66000 34.521
47.68000 29.976
47.70000 30.590
47.72000 30.601
47.74000 21.485
47.76000 17.003
47.78000 19.782
47.80000 23.008
47.82000 21.671
47.84000 17.821
47.86000 17.033
47.88000 20.961
47.90000 21.581
47.92000 17.733
47.94000 8.939
47.96000 13.436
47.98000 14.247
48.00000 12.854
48.02000 13.392
48.04000 8.201
48.06000 11.783
48.08000 13.438
48.10000 15.134
48.12000 15.645
48.14000 4.322
48.16000 2.729
48.18000 6.037
48.20000 8.526
48.22000 11.343
48.24000 13.311
48.26000 8.598
48.28000 9.604
48.30000 5.379
48.32000 5.256
48.34000 7.168
48.36000 5.544
48.38000 7.390
48.40000 5.675
48.42000 3.368
48.44000 3.848
48.46000 9.686
48.48000 7.363
48.50000 0.763
48.52000 -3.266
48.54000 -0.239
48.56000 7.164
48.58000 8.140
48.60000 6.724
48.62000 2.130
48.64000 9.196
48.66000 4.830
48.68000 3.103
48.70000 9.790
48.72000 6.815
48.74000 5.705
48.76000 -1.719
48.78000 0.621
48.80000 4.291
48.82000 6.698
48.84000 6.097
48.86000 4.084
48.88000 0.706
48.90000 2.157
48.92000 3.598
48.94000 3.900
48.96000 4.503
48.98000 0.062
49.00000 -0.045
49.02000 1.563
49.04000 -3.206
49.06000 1.134
49.08000 8.499
49.10000 6.562
49.12000 -1.814
49.14000 0.412
49.16000 3.426
49.18000 -1.862
49.20000 3.089
49.22000 2.205
49.24000 7.940
49.26000 7.492
49.28000 1.784
49.30000 1.445
49.32000 -0.228
49.34000 4.961
49.36000 2.973
49.38000 2.798
49.40000 1.755
49.42000 -0.297
49.44000 3.550
49.46000 7.672
49.48000 -2.135
49.50000 -2.460
49.52000 -3.092
49.54000 1.385
49.56000 7.843
49.58000 6.627
49.60000 -0.783
49.62000 1.009
49.64000 3.916
49.66000 5.127
49.68000 -0.213
49.70000 2.708
49.72000 5.467
49.74000 5.596
49.76000 6.020
49.78000 3.426
49.80000 1.339
49.82000 2.003
49.84000 4.426
49.86000 3.242
49.88000 2.244
49.90000 -3.106
49.92000 3.694
49.94000 1.937
49.96000 -2.585
49.98000 -1.414
50.00000 3.528
50.02000 -2.003
50.04000 -1.601
50.06000 5.868
50.08000 -0.753
50.10000 -1.360
50.12000 0.035
50.14000 2.543
50.16000 4.131
50.18000 3.140
50.20000 3.252
50.22000 5.538
50.24000 5.909
50.26000 6.421
50.28000 6.021
50.30000 6.511
50.32000 5.189
50.34000 3.034
50.36000 -3.055
50.38000 2.250
50.40000 5.277
50.42000 7.052
50.44000 4.885
50.46000 6.217
50.48000 2.751
50.50000 2.651
50.52000 3.688
50.54000 -0.198
50.56000 -1.463
50.58000 2.963
50.60000 3.309
50.62000 2.748
50.64000 4.634
50.66000 4.425
50.68000 2.988
50.70000 1.120
50.72000 6.780
50.74000 4.896
50.76000 6.295
50.78000 2.353
50.80000 1.401
50.82000 3.396
50.84000 1.235
50.86000 -1.847
50.88000 2.067
50.90000 1.848
50.92000 5.487
50.94000 8.935
50.96000 -0.893
50.98000 0.413
51.00000 0.582
51.02000 3.981
51.04000 1.791
51.06000 0.752
51.08000 0.155
51.10000 2.507
51.12000 4.413
51.14000 3.559
51.16000 6.560
51.18000 3.178
51.20000 0.936
51.22000 0.003
51.24000 3.657
51.26000 7.206
51.28000 7.799
51.30000 10.936
51.32000 9.923
51.34000 1.624
51.36000 -2.075
51.38000 3.439
51.40000 2.882
51.42000 1.965
51.44000 1.999
51.46000 2.708
51.48000 5.253
51.50000 7.737
51.52000 6.514
51.54000 4.318
51.56000 4.327
51.58000 3.502
51.60000 4.582
51.62000 9.897
51.64000 7.342
51.66000 1.923
51.68000 8.011
51.70000 3.233
51.72000 2.775
51.74000 7.966
51.76000 5.663
51.78000 4.712
51.80000 4.027
51.82000 5.843
51.84000 8.075
51.86000 10.856
51.88000 -0.312
51.90000 -2.981
51.92000 1.696
51.94000 2.808
51.96000 7.000
51.98000 8.508
52.00000 11.630
52.02000 6.806
52.04000 5.059
52.06000 6.201
52.08000 8.674
52.10000 4.369
52.12000 7.031
52.14000 3.402
52.16000 3.742
52.18000 5.208
52.20000 1.381
52.22000 2.405
52.24000 5.264
52.26000 2.632
52.28000 3.499
52.30000 0.603
52.32000 -2.960
52.34000 -1.207
52.36000 1.994
52.38000 8.749
52.40000 5.576
52.42000 8.661
52.44000 10.338
52.46000 7.068
52.48000 6.078
52.50000 4.593
52.52000 2.689
52.54000 0.090
52.56000 3.253
52.58000 -2.009
52.60000 3.934
52.62000 2.375
52.64000 6.965
52.66000 10.626
52.68000 6.849
52.70000 5.120
52.72000 3.603
52.74000 1.357
52.76000 5.963
52.78000 4.071
52.80000 1.800
52.82000 4.665
52.84000 2.646
52.86000 2.592
52.88000 7.902
52.90000 4.129
52.92000 6.501
52.94000 4.995
52.96000 0.134
52.98000 -0.063
53.00000 5.228
53.02000 2.489
53.04000 4.175
53.06000 8.684
53.08000 7.186
53.10000 2.468
53.12000 3.066
53.14000 8.404
53.16000 13.846
53.18000 10.650
53.20000 9.584
53.22000 4.216
53.24000 1.907
53.26000 5.252
53.28000 8.124
53.30000 5.969
53.32000 9.855
53.34000 4.738
53.36000 5.525
53.38000 3.555
53.40000 1.018
53.42000 4.195
53.44000 2.671
53.46000 7.471
53.48000 7.282
53.50000 8.010
53.52000 6.666
53.54000 8.538
53.56000 7.156
53.58000 2.933
53.60000 3.035
53.62000 7.274
53.64000 10.630
53.66000 9.478
53.68000 4.931
53.70000 -0.945
53.72000 5.427
53.74000 0.541
53.76000 -0.575
53.78000 -2.923
53.80000 5.587
53.82000 7.415
53.84000 2.789
53.86000 1.693
53.88000 5.317
53.90000 7.001
53.92000 3.023
53.94000 4.529
53.96000 4.103
53.98000 4.236
54.00000 4.708
54.02000 0.991
54.04000 2.396
54.06000 7.330
54.08000 6.570
54.10000 2.923
54.12000 0.059
54.14000 1.346
54.16000 -0.584
54.18000 1.375
54.20000 2.457
54.22000 2.022
54.24000 6.175
54.26000 7.929
54.28000 5.413
54.30000 6.128
54.32000 4.938
54.34000 3.716
54.36000 1.175
54.38000 4.831
54.40000 5.887
54.42000 2.844
54.44000 0.039
54.46000 1.030
54.48000 6.446
54.50000 0.037
54.52000 -1.079
54.54000 -0.496
54.56000 3.647
54.58000 6.905
54.60000 6.773
54.62000 6.333
54.64000 0.851
54.66000 1.666
54.68000 5.136
54.70000 2.627
54.72000 4.731
54.74000 3.046
54.76000 1.544
54.78000 -0.847
54.80000 0.169
54.82000 3.326
54.84000 6.727
54.86000 5.734
54.88000 1.106
54.90000 -1.671
54.92000 4.553
54.94000 11.105
54.96000 8.105
54.98000 2.905
55.00000 7.421
55.02000 10.469
55.04000 7.956
55.06000 1.002
55.08000 2.812
55.10000 5.573
55.12000 1.909
55.14000 1.173
55.16000 1.584
55.18000 11.941
55.20000 8.736
55.22000 9.644
55.24000 5.432
55.26000 9.657
55.28000 9.341
55.30000 4.581
55.32000 7.370
55.34000 6.836
55.36000 1.164
55.38000 1.463
55.40000 6.872
55.42000 7.118
55.44000 4.012
55.46000 -0.810
55.48000 -2.890
55.50000 4.324
55.52000 7.679
55.54000 3.316
55.56000 3.600
55.58000 2.024
55.60000 5.453
55.62000 7.709
55.64000 2.081
55.66000 6.188
55.68000 3.432
55.70000 7.397
55.72000 5.959
55.74000 3.590
55.76000 3.307
55.78000 7.723
55.80000 3.208
55.82000 2.105
55.84000 2.870
55.86000 -1.509
55.88000 0.617
55.90000 7.625
55.92000 6.923
55.94000 3.108
55.96000 0.297
55.98000 4.967
56.00000 1.445
56.02000 3.172
56.04000 2.459
56.06000 5.344
56.08000 3.307
56.10000 5.589
56.12000 5.576
56.14000 0.621
56.16000 1.337
56.18000 0.789
56.20000 5.249
56.22000 4.578
56.24000 0.424
56.26000 0.799
56.28000 0.755
56.30000 7.322
56.32000 7.259
56.34000 7.938
56.36000 2.123
56.38000 -0.545
56.40000 -2.185
56.42000 2.402
56.44000 2.295
56.46000 2.877
56.48000 -2.173
56.50000 1.542
56.52000 8.644
56.54000 7.720
56.56000 1.736
56.58000 -1.627
56.60000 0.097
56.62000 -2.879
56.64000 -0.964
56.66000 -0.354
56.68000 4.050
56.70000 -1.671
56.72000 -0.805
56.74000 0.727
56.76000 0.733
56.78000 -1.340
56.80000 4.658
56.82000 0.454
56.84000 2.386
56.86000 3.331
56.88000 3.847
56.90000 -0.714
56.92000 -1.398
56.94000 0.284
56.96000 0.979
56.98000 2.433
57.00000 -0.876
57.02000 4.735
57.04000 8.595
57.06000 2.110
57.08000 0.224
57.10000 0.083
57.12000 2.474
57.14000 3.040
57.16000 4.831
57.18000 2.291
57.20000 -1.048
57.22000 -2.856
57.24000 1.121
57.26000 2.798
57.28000 4.694
57.30000 3.224
57.32000 1.043
57.34000 5.364
57.36000 -1.671
57.38000 -2.331
57.40000 0.104
57.42000 1.436
57.44000 -2.849
57.46000 -0.577
57.48000 0.515
57.50000 3.981
57.52000 6.681
57.54000 10.173
57.56000 5.543
57.58000 3.290
57.60000 2.069
57.62000 3.028
57.64000 2.980
57.66000 6.120
57.68000 5.848
57.70000 4.535
57.72000 7.623
57.74000 8.701
57.76000 3.230
57.78000 5.022
57.80000 5.220
57.82000 4.283
57.84000 5.475
57.86000 3.932
57.88000 -1.589
57.90000 -0.119
57.92000 1.424
57.94000 1.331
57.96000 0.758
57.98000 2.401
58.00000 0.134
58.02000 4.299
58.04000 5.675
58.06000 6.511
58.08000 1.687
58.10000 -0.368
58.12000 -1.339
58.14000 1.993
58.16000 1.096
58.18000 1.473
58.20000 5.551
58.22000 6.728
58.24000 4.401
58.26000 0.919
58.28000 3.893
58.30000 3.416
58.32000 0.508
58.34000 -2.306
58.36000 1.712
58.38000 6.642
58.40000 1.911
58.42000 2.801
58.44000 5.773
58.46000 5.229
58.48000 4.134
58.50000 1.388
58.52000 -0.712
58.54000 2.391
58.56000 7.863
58.58000 5.656
58.60000 3.548
58.62000 4.991
58.64000 1.943
58.66000 2.228
58.68000 3.832
58.70000 4.380
58.72000 4.335
58.74000 4.539
58.76000 7.131
58.78000 4.532
58.80000 6.359
58.82000 11.834
58.84000 8.155
58.86000 2.333
58.88000 6.878
58.90000 4.436
58.92000 3.737
58.94000 5.852
58.96000 2.980
58.98000 2.377
59.00000 -2.012
59.02000 -2.754
59.04000 1.909
59.06000 9.300
59.08000 4.218
59.10000 2.930
59.12000 0.439
59.14000 1.333
59.16000 3.815
59.18000 1.402
59.20000 4.771
59.22000 8.080
59.24000 5.255
59.26000 6.590
59.28000 2.376
59.30000 3.347
59.32000 6.962
59.34000 5.819
59.36000 6.375
59.38000 8.736
59.40000 8.160
59.42000 4.841
59.44000 4.613
59.46000 3.823
59.48000 4.180
59.50000 0.412
59.52000 -0.638
59.54000 3.170
59.56000 4.258
59.58000 7.236
59.60000 8.744
59.62000 6.015
59.64000 5.065
59.66000 3.533
59.68000 1.359
59.70000 -2.733
59.72000 0.748
59.74000 4.946
59.76000 -0.900
59.78000 4.033
59.80000 8.017
59.82000 6.584
59.84000 7.962
59.86000 2.123
59.88000 2.840
59.90000 3.988
59.92000 6.263
59.94000 6.380
59.96000 7.927
59.98000 7.554
60.00000 2.578
60.02000 5.913
60.04000 11.700
60.06000 8.882
60.08000 6.877
60.10000 9.093
60.12000 8.635
60.14000 5.567
60.16000 6.780
60.18000 5.269
60.20000 2.736
60.22000 2.289
60.24000 2.483
60.26000 1.587
60.28000 2.707
60.30000 3.855
60.32000 3.666
60.34000 5.539
60.36000 8.817
60.38000 3.494
60.40000 2.814
60.42000 7.572
60.44000 2.270
60.46000 6.408
60.48000 3.986
60.50000 4.220
60.52000 5.856
60.54000 9.253
60.56000 7.014
60.58000 6.434
60.60000 1.305
60.62000 1.537
60.64000 4.084
60.66000 6.322
60.68000 3.483
60.70000 3.828
60.72000 1.329
60.74000 -2.700
60.76000 -2.588
60.78000 2.709
60.80000 6.846
60.82000 5.617
60.84000 1.490
60.86000 7.067
60.88000 10.686
60.90000 6.163
60.92000 3.745
60.94000 3.373
60.96000 4.503
60.98000 3.918
61.00000 1.228
61.02000 2.990
61.04000 6.751
61.06000 5.971
61.08000 1.755
61.10000 5.953
61.12000 6.251
61.14000 5.384
61.16000 5.305
61.18000 5.107
61.20000 4.100
61.22000 4.051
61.24000 0.140
61.26000 2.231
61.28000 2.422
61.30000 6.876
61.32000 7.884
61.34000 3.218
61.36000 4.282
61.38000 8.224
61.40000 11.082
61.42000 6.878
61.44000 -0.359
61.46000 -1.945
61.48000 3.365
61.50000 8.241
61.52000 4.028
61.54000 -0.459
61.56000 1.461
61.58000 3.943
61.60000 6.871
61.62000 5.533
61.64000 1.076
61.66000 -2.651
61.68000 4.232
61.70000 1.943
61.72000 5.264
61.74000 3.121
61.76000 -1.690
61.78000 1.137
61.80000 7.721
61.82000 5.655
61.84000 9.624
61.86000 10.800
61.88000 6.821
61.90000 8.839
61.92000 7.386
61.94000 4.996
61.96000 4.402
61.98000 6.423
62.00000 3.903
62.02000 3.999
62.04000 1.957
62.06000 4.055
62.08000 5.572
62.10000 -0.931
62.12000 -1.602
62.14000 3.605
62.16000 3.970
62.18000 1.946
62.20000 0.895
62.22000 0.382
62.24000 1.998
62.26000 2.687
62.28000 -0.154
62.30000 -1.756
62.32000 -2.563
62.34000 -1.178
62.36000 -1.874
62.38000 1.649
62.40000 0.392
62.42000 3.798
62.44000 4.814
62.46000 0.818
62.48000 -0.387
62.50000 4.789
62.52000 5.561
62.54000 2.832
62.56000 4.610
62.58000 4.297
62.60000 1.933
62.62000 3.903
62.64000 2.629
62.66000 4.202
62.68000 4.469
62.70000 3.739
62.72000 2.049
62.74000 6.712
62.76000 6.834
62.78000 5.249
62.80000 5.232
62.82000 3.488
62.84000 6.084
62.86000 9.115
62.88000 4.597
62.90000 0.895
62.92000 -2.685
62.94000 2.364
62.96000 3.704
62.98000 4.257
63.00000 0.115
63.02000 -0.589
63.04000 2.520
63.06000 3.322
63.08000 3.962
63.10000 3.322
63.12000 0.268
63.14000 3.375
63.16000 4.175
63.18000 5.391
63.20000 4.717
63.22000 2.390
63.24000 0.546
63.26000 -0.409
63.28000 6.566
63.30000 3.718
63.32000 2.394
63.34000 -1.013
63.36000 -2.677
63.38000 1.465
63.40000 0.429
63.42000 0.541
63.44000 5.526
63.46000 3.912
63.48000 3.321
63.50000 -0.749
63.52000 -0.052
63.54000 -2.270
63.56000 0.068
63.58000 0.953
63.60000 -1.512
63.62000 -2.690
63.64000 2.112
63.66000 9.107
63.68000 9.605
63.70000 5.441
63.72000 0.526
63.74000 2.263
63.76000 3.824
63.78000 4.878
63.80000 5.226
63.82000 1.650
63.84000 1.688
63.86000 2.664
63.88000 0.572
63.90000 1.214
63.92000 3.702
63.94000 1.547
63.96000 1.828
63.98000 1.059
64.00000 -0.763
64.02000 3.919
64.04000 4.177
64.06000 2.978
64.08000 1.212
64.10000 0.539
64.12000 -0.160
64.14000 2.885
64.16000 5.104
64.18000 7.881
64.20000 4.166
64.22000 3.449
64.24000 1.395
64.26000 2.064
64.28000 -0.767
64.30000 -0.276
64.32000 3.817
64.34000 5.026
64.36000 3.956
64.38000 2.338
64.40000 2.673
64.42000 6.542
64.44000 4.917
64.46000 3.793
64.48000 1.169
64.50000 1.674
64.52000 1.180
64.54000 6.852
64.56000 6.902
64.58000 3.212
64.60000 0.267
64.62000 -1.022
64.64000 -0.570
64.66000 -1.237
64.68000 1.004
64.70000 3.821
64.72000 5.117
64.74000 0.376
64.76000 2.837
64.78000 4.056
64.80000 4.556
64.82000 3.845
64.84000 4.656
64.86000 1.654
64.88000 0.576
64.90000 3.558
64.92000 5.536
64.94000 4.927
64.96000 4.877
64.98000 3.153
65.00000 0.615
65.02000 -2.678
65.04000 1.654
65.06000 6.864
65.08000 1.358
65.10000 2.941
65.12000 1.923
65.14000 4.223
65.16000 5.723
65.18000 4.008
65.20000 7.603
65.22000 4.701
65.24000 3.358
65.26000 6.095
65.28000 4.185
65.30000 1.957
65.32000 2.185
65.34000 2.885
65.36000 5.978
65.38000 1.707
65.40000 -0.691
65.42000 3.619
65.44000 5.849
65.46000 6.234
65.48000 4.603
65.50000 5.360
65.52000 6.123
65.54000 5.185
65.56000 1.434
65.58000 5.009
65.60000 4.686
65.62000 4.558
65.64000 2.374
65.66000 4.424
65.68000 0.572
65.70000 0.507
65.72000 -0.953
65.74000 -0.733
65.76000 2.646
65.78000 1.577
65.80000 3.116
65.82000 -1.630
65.84000 -0.852
65.86000 1.803
65.88000 1.910
65.90000 1.222
65.92000 1.817
65.94000 -0.405
65.96000 -2.761
65.98000 0.679
66.00000 0.676
66.02000 1.448
66.04000 1.858
66.06000 5.083
66.08000 3.490
66.10000 4.524
66.12000 0.813
66.14000 0.048
66.16000 3.449
66.18000 3.369
66.20000 -0.131
66.22000 -2.690
66.24000 -1.179
66.26000 0.042
66.28000 1.379
66.30000 1.845
66.32000 3.319
66.34000 6.699
66.36000 3.434
66.38000 1.529
66.40000 3.729
66.42000 1.840
66.44000 -0.771
66.46000 -1.364
66.48000 1.542
66.50000 2.528
66.52000 2.304
66.54000 5.002
66.56000 4.884
66.58000 6.454
66.60000 2.534
66.62000 2.083
66.64000 0.414
66.66000 6.129
66.68000 7.162
66.70000 3.970
66.72000 2.239
66.74000 2.259
66.76000 -0.093
66.78000 5.381
66.80000 6.884
66.82000 1.776
66.84000 2.447
66.86000 0.698
66.88000 0.636
66.90000 4.063
66.92000 4.260
66.94000 3.184
66.96000 6.019
66.98000 8.964
67.00000 6.455
67.02000 5.298
67.04000 3.225
67.06000 4.011
67.08000 5.085
67.10000 8.714
67.12000 7.789
67.14000 5.275
67.16000 9.672
67.18000 9.046
67.20000 4.027
67.22000 2.415
67.24000 7.361
67.26000 10.518
67.28000 9.069
67.30000 10.789
67.32000 12.999
67.34000 6.790
67.36000 8.029
67.38000 11.762
67.40000 12.576
67.42000 15.484
67.44000 17.063
67.46000 18.658
67.48000 17.315
67.50000 18.083
67.52000 13.762
67.54000 14.078
67.56000 13.811
67.58000 15.134
67.60000 16.120
67.62000 10.833
67.64000 16.384
67.66000 15.008
67.68000 11.609
67.70000 15.195
67.72000 18.976
67.74000 20.524
67.76000 15.201
67.78000 18.220
67.80000 21.402
67.82000 21.014
67.84000 17.645
67.86000 22.337
67.88000 20.521
67.90000 21.960
67.92000 25.630
67.94000 24.444
67.96000 20.036
67.98000 22.119
68.00000 25.143
68.02000 24.984
68.04000 22.061
68.06000 23.151
68.08000 22.081
68.10000 20.606
68.12000 22.588
68.14000 25.931
68.16000 25.168
68.18000 19.473
68.20000 20.318
68.22000 27.960
68.24000 28.892
68.26000 24.856
68.28000 26.418
68.30000 25.976
68.32000 25.736
68.34000 23.743
68.36000 29.764
68.38000 24.813
68.40000 23.473
68.42000 20.397
68.44000 23.631
68.46000 23.796
68.48000 24.498
68.50000 27.537
68.52000 28.927
68.54000 26.464
68.56000 23.190
68.58000 22.362
68.60000 22.292
68.62000 23.448
68.64000 26.111
68.66000 23.849
68.68000 26.284
68.70000 19.852
68.72000 17.887
68.74000 19.312
68.76000 19.130
68.78000 21.294
68.80000 17.780
68.82000 20.010
68.84000 21.015
68.86000 15.633
68.88000 12.192
68.90000 11.635
68.92000 16.884
68.94000 19.333
68.96000 18.659
68.98000 19.147
69.00000 19.031
69.02000 16.595
69.04000 12.233
69.06000 8.177
69.08000 10.952
69.10000 13.457
69.12000 8.639
69.14000 9.586
69.16000 8.621
69.18000 9.251
69.20000 7.234
69.22000 6.176
69.24000 5.826
69.26000 9.794
69.28000 12.836
69.30000 12.664
69.32000 4.873
69.34000 6.744
69.36000 9.221
69.38000 5.676
69.40000 2.948
69.42000 5.659
69.44000 5.636
69.46000 4.265
69.48000 4.982
69.50000 7.385
69.52000 1.494
69.54000 2.812
69.56000 3.101
69.58000 2.033
69.60000 4.035
69.62000 3.958
69.64000 0.664
69.66000 0.005
69.68000 7.918
69.70000 5.468
69.72000 0.145
69.74000 3.302
69.76000 3.626
69.78000 2.555
69.80000 7.246
69.82000 -0.124
69.84000 -0.439
69.86000 2.953
69.88000 3.759
69.90000 4.581
69.92000 -2.687
69.94000 -2.198
69.96000 -0.012
69.98000 2.527
70.00000 2.894
70.02000 -0.165
70.04000 3.442
70.06000 8.749
70.08000 4.293
70.10000 1.768
70.12000 -0.182
70.14000 2.113
70.16000 -1.771
70.18000 -0.062
70.20000 2.976
70.22000 2.257
70.24000 1.523
70.26000 5.043
70.28000 3.930
70.30000 4.279
70.32000 4.647
70.34000 1.836
70.36000 4.558
70.38000 2.056
70.40000 -1.352
70.42000 -2.502
70.44000 0.864
70.46000 3.752
70.48000 -0.304
70.50000 3.986
70.52000 3.192
70.54000 -2.310
70.56000 0.526
70.58000 3.508
70.60000 3.453
70.62000 4.026
70.64000 1.751
70.66000 4.581
70.68000 3.642
70.70000 2.858
70.72000 -2.379
70.74000 3.307
70.76000 4.264
70.78000 3.041
70.80000 4.642
70.82000 8.660
70.84000 6.575
70.86000 4.403
70.88000 7.865
70.90000 2.656
70.92000 4.660
70.94000 5.413
70.96000 7.537
70.98000 4.793
71.00000 7.862
71.02000 3.877
71.04000 3.056
71.06000 -2.554
71.08000 0.861
71.10000 4.997
71.12000 3.400
71.14000 -0.892
71.16000 2.095
71.18000 -0.257
71.20000 3.557
71.22000 7.784
71.24000 3.102
71.26000 1.704
71.28000 -0.075
71.30000 1.099
71.32000 -0.921
71.34000 2.728
71.36000 1.649
71.38000 1.034
71.40000 3.769
71.42000 4.336
71.44000 2.433
71.46000 5.658
71.48000 -0.085
71.50000 -2.160
71.52000 4.232
71.54000 3.111
71.56000 5.271
71.58000 7.733
71.60000 5.974
71.62000 6.803
71.64000 6.446
71.66000 1.964
71.68000 1.780
71.70000 5.397
71.72000 3.991
71.74000 4.944
71.76000 3.805
71.78000 1.233
71.80000 0.907
71.82000 -0.187
71.84000 1.990
71.86000 -0.042
71.88000 0.593
71.90000 -0.637
71.92000 1.244
71.94000 6.551
71.96000 6.953
71.98000 4.518
72.00000 -2.215
72.02000 -0.801
72.04000 4.153
72.06000 2.094
72.08000 2.687
72.10000 4.217
72.12000 2.035
72.14000 -2.329
72.16000 3.264
72.18000 6.060
72.20000 3.126
72.22000 -2.514
72.24000 -1.242
72.26000 -1.594
72.28000 -0.818
72.30000 -0.421
72.32000 1.580
72.34000 5.146
72.36000 5.175
72.38000 6.088
72.40000 4.677
72.42000 4.455
72.44000 2.485
72.46000 -2.516
72.48000 2.371
72.50000 3.893
72.52000 0.452
72.54000 -1.005
72.56000 -1.898
72.58000 5.280
72.60000 3.789
72.62000 3.266
72.64000 1.781
72.66000 2.844
72.68000 5.598
72.70000 5.255
72.72000 3.692
72.74000 0.977
72.76000 3.258
72.78000 -2.301
72.80000 2.119
72.82000 2.359
72.84000 2.150
72.86000 -0.045
72.88000 2.769
72.90000 5.302
72.92000 4.069
72.94000 1.859
72.96000 6.493
72.98000 5.725
73.00000 3.761
73.02000 3.179
73.04000 2.149
73.06000 0.766
73.08000 2.666
73.10000 6.301
73.12000 5.434
73.14000 -0.210
73.16000 0.569
73.18000 1.953
73.20000 7.131
73.22000 10.998
73.24000 8.113
73.26000 -0.208
73.28000 1.832
73.30000 2.607
73.32000 7.835
73.34000 5.769
73.36000 7.968
73.38000 7.689
73.40000 11.217
73.42000 3.351
73.44000 2.069
73.46000 6.499
73.48000 3.135
73.50000 3.176
73.52000 3.133
73.54000 6.108
73.56000 4.290
73.58000 2.741
73.60000 6.326
73.62000 5.394
73.64000 6.380
73.66000 3.063
73.68000 3.412
73.70000 0.331
73.72000 0.954
73.74000 5.324
73.76000 5.180
73.78000 -0.806
73.80000 -2.462
73.82000 -1.294
73.84000 5.484
73.86000 7.094
73.88000 1.386
73.90000 5.780
73.92000 5.133
73.94000 3.155
73.96000 3.493
73.98000 3.534
74.00000 1.408
74.02000 -1.028
74.04000 2.116
74.06000 5.022
74.08000 2.837
74.10000 2.078
74.12000 4.053
74.14000 0.925
74.16000 0.748
74.18000 0.943
74.20000 -2.060
74.22000 -2.467
74.24000 2.839
74.26000 1.553
74.28000 2.752
74.30000 3.074
74.32000 4.304
74.34000 5.021
74.36000 0.537
74.38000 -0.896
74.40000 -0.595
74.42000 3.238
74.44000 4.443
74.46000 0.141
74.48000 -0.193
74.50000 1.642
74.52000 4.042
74.54000 6.678
74.56000 4.390
74.58000 3.559
74.60000 2.308
74.62000 11.088
74.64000 8.078
74.66000 5.292
74.68000 4.078
74.70000 6.053
74.72000 3.937
74.74000 4.009
74.76000 3.011
74.78000 1.756
74.80000 4.204
74.82000 3.882
74.84000 1.730
74.86000 -2.473
74.88000 1.708
74.90000 6.155
74.92000 0.993
74.94000 0.933
74.96000 2.800
74.98000 3.249
75.00000 5.842
75.02000 5.839
75.04000 1.513
75.06000 2.384
75.08000 2.734
75.10000 -0.788
75.12000 0.266
75.14000 2.930
75.16000 7.722
75.18000 4.521
75.20000 3.185
75.22000 -0.170
75.24000 3.551
75.26000 1.342
75.28000 0.728
75.30000 1.269
75.32000 0.315
75.34000 1.202
75.36000 4.290
75.38000 7.248
75.40000 5.255
75.42000 8.176
75.44000 6.391
75.46000 6.981
75.48000 7.662
75.50000 5.579
75.52000 1.281
75.54000 0.105
75.56000 1.236
75.58000 4.408
75.60000 5.681
75.62000 1.035
75.64000 3.362
75.66000 1.471
75.68000 0.703
75.70000 5.574
75.72000 10.378
75.74000 6.181
75.76000 1.930
75.78000 -0.019
75.80000 -0.409
75.82000 5.762
75.84000 4.373
75.86000 7.989
75.88000 7.953
75.90000 7.864
75.92000 6.981
75.94000 3.357
75.96000 4.049
75.98000 2.136
76.00000 4.942
76.02000 3.455
76.04000 5.179
76.06000 -0.074
76.08000 0.071
76.10000 7.491
76.12000 8.035
76.14000 4.713
76.16000 1.793
76.18000 1.626
76.20000 3.515
76.22000 9.053
76.24000 8.345
76.26000 10.514
76.28000 7.236
76.30000 3.230
76.32000 0.177
76.34000 -2.496
76.36000 0.423
76.38000 2.359
76.40000 5.068
76.42000 5.393
76.44000 6.331
76.46000 5.126
76.48000 5.135
76.50000 3.773
76.52000 3.890
76.54000 2.859
76.56000 -1.580
76.58000 4.138
76.60000 3.886
76.62000 2.240
76.64000 2.065
76.66000 1.125
76.68000 -1.590
76.70000 -0.243
76.72000 -1.251
76.74000 1.569
76.76000 1.638
76.78000 2.802
76.80000 4.239
76.82000 2.908
76.84000 1.293
76.86000 2.247
76.88000 -2.519
76.90000 2.032
76.92000 -0.442
76.94000 -0.596
76.96000 2.425
76.98000 1.280
77.00000 2.036
77.02000 1.313
77.04000 2.835
77.06000 0.405
77.08000 3.024
77.10000 3.332
77.12000 3.092
77.14000 3.027
77.16000 1.961
77.18000 4.824
77.20000 6.816
77.22000 4.699
77.24000 -0.207
77.26000 -1.494
77.28000 3.955
77.30000 0.420
77.32000 1.555
77.34000 3.876
77.36000 2.132
77.38000 1.626
77.40000 3.220
77.42000 0.440
77.44000 4.031
77.46000 7.624
77.48000 3.241
77.50000 -1.166
77.52000 0.206
77.54000 4.033
77.56000 3.927
77.58000 8.023
77.60000 11.213
77.62000 9.300
77.64000 5.184
77.66000 3.327
77.68000 -1.255
77.70000 2.534
77.72000 6.885
77.74000 6.157
77.76000 3.000
77.78000 -2.528
77.80000 -2.026
77.82000 1.747
77.84000 2.964
77.86000 1.644
77.88000 2.893
77.90000 6.330
77.92000 4.879
77.94000 1.216
77.96000 2.607
77.98000 3.823
78.00000 4.758
78.02000 11.046
78.04000 11.538
78.06000 3.947
78.08000 4.815
78.10000 3.145
78.12000 1.189
78.14000 1.272
78.16000 2.541
78.18000 4.610
78.20000 0.681
78.22000 0.679
78.24000 4.469
78.26000 6.738
78.28000 6.930
78.30000 2.184
78.32000 -1.574
78.34000 -2.542
78.36000 -0.279
78.38000 3.531
78.40000 3.878
78.42000 2.205
78.44000 5.984
78.46000 3.802
78.48000 1.143
78.50000 3.951
78.52000 1.437
78.54000 2.517
78.56000 0.089
78.58000 -1.557
78.60000 -2.566
78.62000 4.403
78.64000 5.539
78.66000 0.573
78.68000 -1.392
78.70000 2.067
78.72000 2.567
78.74000 7.382
78.76000 4.255
78.78000 5.607
78.80000 0.456
78.82000 0.751
78.84000 -0.076
78.86000 -1.570
78.88000 3.416
78.90000 3.343
78.92000 -1.081
78.94000 -1.389
78.96000 -2.520
78.98000 3.815
79.00000 -0.456
79.02000 3.508
79.04000 0.107
79.06000 0.127
79.08000 3.791
79.10000 1.222
79.12000 1.675
79.14000 -1.878
79.16000 1.415
79.18000 -0.068
79.20000 2.347
79.22000 4.085
79.24000 1.831
79.26000 -0.962
79.28000 -0.142
79.30000 -1.305
79.32000 -1.152
79.34000 3.171
79.36000 1.907
79.38000 -2.389
79.40000 2.688
79.42000 2.151
79.44000 2.615
79.46000 1.405
79.48000 0.453
79.50000 -2.629
79.52000 0.002
79.54000 4.225
79.56000 3.004
79.58000 -2.116
79.60000 1.506
79.62000 1.864
79.64000 5.541
79.66000 3.045
79.68000 6.222
79.70000 5.289
79.72000 1.276
79.74000 2.879
79.76000 4.247
79.78000 1.581
79.80000 -2.090
79.82000 2.896
79.84000 2.426
79.86000 3.123
79.88000 3.285
79.90000 -1.468
79.92000 3.514
79.94000 -0.559
79.96000 -2.020
79.98000 -1.678
80.00000 4.592
80.02000 5.314
80.04000 4.450
80.06000 7.463
80.08000 9.642
80.10000 3.315
80.12000 -2.660
80.14000 1.695
80.16000 0.989
80.18000 2.650
80.20000 5.456
80.22000 1.737
80.24000 2.971
80.26000 2.034
80.28000 2.387
80.30000 0.710
80.32000 5.047
80.34000 9.005
80.36000 4.707
80.38000 5.835
80.40000 0.738
80.42000 4.726
80.44000 2.421
80.46000 1.454
80.48000 2.538
80.50000 0.812
80.52000 2.573
80.54000 0.056
80.56000 -2.692
80.58000 2.412
80.60000 10.654
80.62000 5.179
80.64000 7.610
80.66000 6.809
80.68000 7.380
80.70000 0.921
80.72000 0.568
80.74000 8.469
80.76000 10.416
80.78000 5.011
80.80000 1.707
80.82000 5.246
80.84000 3.971
80.86000 7.847
80.88000 6.279
80.90000 9.704
80.92000 7.244
80.94000 4.978
80.96000 4.951
80.98000 8.857
81.00000 12.811
81.02000 5.331
81.04000 5.988
81.06000 11.307
81.08000 12.581
81.10000 9.130
81.12000 12.444
81.14000 7.436
81.16000 8.029
81.18000 11.720
81.20000 11.255
81.22000 16.183
81.24000 15.549
81.26000 11.313
81.28000 9.851
81.30000 3.236
81.32000 7.490
81.34000 7.595
81.36000 12.918
81.38000 16.088
81.40000 14.833
81.42000 7.923
81.44000 10.176
81.46000 11.454
81.48000 13.869
81.50000 17.524
81.52000 18.787
81.54000 13.877
81.56000 9.819
81.58000 9.365
81.60000 8.909
81.62000 9.070
81.64000 16.815
81.66000 18.648
81.68000 18.356
81.70000 14.180
81.72000 17.000
81.74000 22.172
81.76000 22.947
81.78000 16.431
81.80000 17.459
81.82000 18.547
81.84000 19.251
81.86000 32.120
81.88000 20.304
81.90000 17.658
81.92000 20.906
81.94000 18.471
81.96000 22.231
81.98000 19.241
82.00000 16.038
82.02000 17.792
82.04000 19.632
82.06000 22.069
82.08000 22.280
82.10000 21.376
82.12000 16.920
82.14000 16.430
82.16000 24.310
82.18000 24.578
82.20000 24.575
82.22000 25.354
82.24000 25.703
82.26000 26.194
82.28000 24.246
82.30000 17.641
82.32000 22.348
82.34000 27.196
82.36000 23.764
82.38000 26.547
82.40000 21.363
82.42000 28.348
82.44000 29.131
82.46000 24.496
82.48000 25.113
82.50000 24.115
82.52000 23.731
82.54000 24.402
82.56000 22.466
82.58000 26.270
82.60000 24.242
82.62000 26.603
82.64000 22.512
82.66000 17.728
82.68000 18.622
82.70000 22.442
82.72000 26.388
82.74000 21.347
82.76000 21.436
82.78000 22.412
82.80000 19.247
82.82000 19.825
82.84000 19.935
82.86000 15.791
82.88000 17.166
82.90000 17.194
82.92000 18.457
82.94000 19.964
82.96000 20.751
82.98000 18.111
83.00000 22.605
83.02000 26.448
83.04000 22.458
83.06000 20.584
83.08000 16.758
83.10000 14.686
83.12000 17.650
83.14000 19.509
83.16000 18.892
83.18000 18.187
83.20000 20.466
83.22000 20.243
83.24000 15.553
83.26000 13.067
83.28000 14.183
83.30000 18.081
83.32000 14.398
83.34000 8.454
83.36000 10.254
83.38000 10.318
83.40000 8.330
83.42000 10.874
83.44000 11.959
83.46000 8.867
83.48000 10.117
83.50000 9.033
83.52000 8.952
83.54000 6.313
83.56000 10.192
83.58000 8.466
83.60000 12.977
83.62000 9.690
83.64000 4.966
83.66000 2.389
83.68000 5.814
83.70000 10.409
83.72000 12.483
83.74000 12.546
83.76000 10.332
83.78000 11.266
83.80000 8.160
83.82000 5.524
83.84000 3.796
83.86000 1.095
83.88000 0.857
83.90000 2.455
83.92000 3.283
83.94000 3.012
83.96000 3.764
83.98000 2.387
84.00000 3.453
84.02000 4.586
84.04000 6.794
84.06000 7.443
84.08000 2.207
84.10000 0.236
84.12000 -1.249
84.14000 2.036
84.16000 1.120
84.18000 2.170
84.20000 2.435
84.22000 0.200
84.24000 5.649
84.26000 3.270
84.28000 -1.204
84.30000 -1.488
84.32000 -1.896
84.34000 -1.605
84.36000 2.555
84.38000 7.537
84.40000 4.537
84.42000 1.702
84.44000 -2.694
84.46000 -1.420
84.48000 -2.692
84.50000 1.024
84.52000 5.451
84.54000 5.606
84.56000 3.619
84.58000 1.533
84.60000 1.861
84.62000 0.358
84.64000 2.321
84.66000 6.394
84.68000 6.872
84.70000 7.865
84.72000 2.013
84.74000 -1.030
84.76000 1.636
84.78000 1.020
84.80000 2.685
84.82000 1.116
84.84000 6.051
84.86000 10.491
84.88000 3.740
84.90000 0.944
84.92000 2.242
84.94000 -1.067
84.96000 2.355
84.98000 -0.339
85.00000 -2.670
85.02000 2.026
85.04000 6.026
85.06000 4.575
85.08000 1.510
85.10000 2.868
85.12000 3.461
85.14000 2.327
85.16000 -0.561
85.18000 2.157
85.20000 2.229
85.22000 2.491
85.24000 -1.914
85.26000 -0.353
85.28000 6.379
85.30000 2.562
85.32000 1.769
85.34000 -2.651
85.36000 -0.677
85.38000 -2.509
85.40000 3.846
85.42000 0.076
85.44000 3.464
85.46000 7.671
85.48000 5.261
85.50000 6.736
85.52000 4.855
85.54000 0.747
85.56000 6.189
85.58000 5.279
85.60000 2.798
85.62000 7.735
85.64000 7.685
85.66000 3.457
85.68000 6.654
85.70000 8.623
85.72000 8.855
85.74000 2.293
85.76000 0.646
85.78000 3.196
85.80000 4.287
85.82000 7.603
85.84000 13.010
85.86000 14.986
85.88000 7.709
85.90000 6.471
85.92000 10.288
85.94000 10.808
85.96000 8.462
85.98000 8.912
86.00000 11.869
86.02000 18.392
86.04000 18.047
86.06000 18.109
86.08000 11.402
86.10000 14.106
86.12000 15.716
86.14000 15.152
86.16000 15.417
86.18000 13.718
86.20000 12.675
86.22000 17.978
86.24000 17.496
86.26000 23.217
86.28000 24.969
86.30000 25.120
86.32000 19.656
86.34000 16.083
86.36000 17.486
86.38000 22.320
86.40000 17.398
86.42000 19.355
86.44000 22.135
86.46000 24.921
86.48000 21.110
86.50000 23.908
86.52000 24.841
86.54000 25.577
86.56000 32.561
86.58000 30.835
86.60000 30.967
86.62000 34.346
86.64000 34.403
86.66000 27.407
86.68000 25.212
86.70000 27.476
86.72000 30.487
86.74000 33.731
86.76000 33.712
86.78000 35.137
86.80000 34.926
86.82000 30.130
86.84000 28.708
86.86000 23.549
86.88000 27.865
86.90000 27.836
86.92000 33.873
86.94000 33.820
86.96000 29.531
86.98000 28.135
87.00000 26.864
87.02000 28.068
87.04000 25.098
87.06000 26.538
87.08000 26.134
87.10000 28.401
87.12000 29.558
87.14000 35.697
87.16000 31.125
87.18000 28.660
87.20000 33.261
87.22000 34.816
87.24000 22.250
87.26000 18.472
87.28000 29.463
87.30000 27.351
87.32000 27.894
87.34000 22.247
87.36000 20.717
87.38000 18.461
87.40000 17.876
87.42000 20.259
87.44000 22.327
87.46000 25.900
87.48000 22.438
87.50000 18.078
87.52000 16.927
87.54000 18.877
87.56000 14.558
87.58000 16.376
87.60000 17.532
87.62000 15.239
87.64000 15.471
87.66000 15.163
87.68000 17.744
87.70000 21.601
87.72000 21.349
87.74000 13.383
87.76000 8.255
87.78000 7.478
87.80000 7.603
87.82000 9.877
87.84000 10.238
87.86000 9.359
87.88000 10.107
87.90000 7.569
87.92000 4.645
87.94000 11.840
87.96000 12.778
87.98000 9.169
88.00000 3.633
88.02000 8.082
88.04000 4.072
88.06000 3.939
88.08000 6.680
88.10000 6.742
88.12000 8.729
88.14000 8.168
88.16000 1.033
88.18000 -0.613
88.20000 3.034
88.22000 -0.097
88.24000 3.050
88.26000 4.100
88.28000 5.410
88.30000 2.750
88.32000 2.677
88.34000 6.481
88.36000 6.540
88.38000 4.170
88.40000 0.589
88.42000 -0.481
88.44000 0.298
88.46000 2.677
88.48000 -0.112
88.50000 1.531
88.52000 7.526
88.54000 7.000
88.56000 4.822
88.58000 -0.258
88.60000 3.317
88.62000 5.136
88.64000 6.216
88.66000 0.111
88.68000 -0.124
88.70000 -2.424
88.72000 3.293
88.74000 5.533
88.76000 3.828
88.78000 -2.449
88.80000 -1.391
88.82000 9.493
88.84000 11.615
88.86000 9.886
88.88000 3.771
88.90000 -2.162
88.92000 1.468
88.94000 0.914
88.96000 2.192
88.98000 -2.144
89.00000 2.080
89.02000 3.265
89.04000 4.949
89.06000 6.492
89.08000 3.737
89.10000 3.511
89.12000 3.667
89.14000 0.754
89.16000 3.123
89.18000 2.959
89.20000 1.105
89.22000 7.445
89.24000 4.049
89.26000 1.977
89.28000 -1.186
89.30000 -2.395
89.32000 1.014
89.34000 7.646
89.36000 5.554
89.38000 3.827
89.40000 6.075
89.42000 3.900
89.44000 6.463
89.46000 2.724
89.48000 0.159
89.50000 1.856
89.52000 -1.856
89.54000 -0.294
89.56000 3.071
89.58000 5.247
89.60000 4.186
89.62000 5.442
89.64000 3.060
89.66000 7.705
89.68000 6.556
89.70000 6.909
89.72000 4.317
89.74000 -2.354
89.76000 -1.688
89.78000 9.525
89.80000 6.509
89.82000 6.881
89.84000 10.077
89.86000 2.121
89.88000 -0.200
89.90000 0.282
89.92000 5.323
89.94000 5.824
89.96000 7.304
89.98000 7.495
90.00000 4.835
90.02000 2.673
90.04000 2.089
90.06000 3.709
90.08000 5.402
90.10000 5.044
90.12000 6.561
90.14000 1.478
90.16000 7.306
90.18000 3.176
90.20000 1.684
90.22000 3.301
90.24000 5.562
90.26000 7.853
90.28000 6.206
90.30000 4.954
90.32000 0.401
90.34000 2.798
90.36000 10.814
90.38000 6.694
90.40000 -2.224
90.42000 -2.296
90.44000 7.364
90.46000 7.288
90.48000 4.359
90.50000 3.570
90.52000 5.965
90.54000 11.721
90.56000 8.318
90.58000 3.408
90.60000 8.180
90.62000 9.723
90.64000 14.833
90.66000 10.066
90.68000 7.135
90.70000 3.885
90.72000 0.343
90.74000 -1.644
90.76000 0.260
90.78000 6.485
90.80000 7.769
90.82000 6.371
90.84000 6.178
90.86000 5.890
90.88000 9.485
90.90000 10.394
90.92000 6.950
90.94000 9.796
90.96000 5.811
90.98000 6.093
91.00000 7.746
91.02000 7.261
91.04000 -1.766
91.06000 -0.911
91.08000 1.717
91.10000 3.744
91.12000 4.600
91.14000 6.923
91.16000 8.124
91.18000 3.423
91.20000 7.643
91.22000 5.360
91.24000 5.774
91.26000 5.093
91.28000 7.964
91.30000 4.482
91.32000 6.257
91.34000 5.195
91.36000 6.367
91.38000 11.051
91.40000 4.867
91.42000 2.691
91.44000 3.081
91.46000 0.004
91.48000 2.668
91.50000 4.441
91.52000 -1.011
91.54000 -1.588
91.56000 -2.346
91.58000 3.342
91.60000 1.744
91.62000 -1.720
91.64000 0.069
91.66000 11.241
91.68000 10.949
91.70000 8.457
91.72000 5.516
91.74000 3.544
91.76000 7.868
91.78000 5.822
91.80000 0.909
91.82000 3.742
91.84000 8.069
91.86000 7.618
91.88000 3.362
91.90000 1.028
91.92000 -0.995
91.94000 0.581
91.96000 2.605
91.98000 0.441
92.00000 2.062
92.02000 4.168
92.04000 0.483
92.06000 2.362
92.08000 0.392
92.10000 5.502
92.12000 1.750
92.14000 2.004
92.16000 4.636
92.18000 4.991
92.20000 6.040
92.22000 0.266
92.24000 4.305
92.26000 2.531
92.28000 1.240
92.30000 6.239
92.32000 5.541
92.34000 10.228
92.36000 13.123
92.38000 4.751
92.40000 -1.424
92.42000 -2.316
92.44000 5.646
92.46000 11.053
92.48000 6.457
92.50000 6.526
92.52000 11.552
92.54000 11.496
92.56000 7.608
92.58000 5.719
92.60000 5.722
92.62000 4.557
92.64000 7.189
92.66000 9.947
92.68000 8.852
92.70000 11.049
92.72000 7.581
92.74000 7.754
92.76000 3.439
92.78000 0.405
92.80000 1.235
92.82000 4.523
92.84000 3.343
92.86000 5.303
92.88000 3.061
92.90000 -0.368
92.92000 -1.261
92.94000 1.717
92.96000 1.522
92.98000 1.283
93.00000 0.005
93.02000 5.972
93.04000 8.165
93.06000 7.733
93.08000 4.449
93.10000 -0.568
93.12000 -2.301
93.14000 0.825
93.16000 -1.597
93.18000 0.164
93.20000 1.871
93.22000 6.850
93.24000 7.342
93.26000 5.327
93.28000 2.927
93.30000 1.986
93.32000 2.522
93.34000 3.525
93.36000 0.699
93.38000 0.692
93.40000 6.165
93.42000 9.041
93.44000 2.599
93.46000 -1.728
93.48000 -1.321
93.50000 0.217
93.52000 4.587
93.54000 0.975
93.56000 2.654
93.58000 2.924
93.60000 3.340
93.62000 1.500
93.64000 6.517
93.66000 6.315
93.68000 4.323
93.70000 2.853
93.72000 0.608
93.74000 -1.513
93.76000 -0.963
93.78000 0.169
93.80000 -0.657
93.82000 3.833
93.84000 2.959
93.86000 -1.660
93.88000 -2.409
93.90000 2.868
93.92000 2.882
93.94000 3.162
93.96000 -0.113
93.98000 3.248
94.00000 5.794
94.02000 9.675
94.04000 6.408
94.06000 1.212
94.08000 2.683
94.10000 3.502
94.12000 3.542
94.14000 3.057
94.16000 1.715
94.18000 5.936
94.20000 6.019
94.22000 1.807
94.24000 1.104
94.26000 0.268
94.28000 1.930
94.30000 2.797
94.32000 -0.340
94.34000 1.579
94.36000 2.734
94.38000 9.411
94.40000 2.709
94.42000 1.701
94.44000 2.965
94.46000 3.306
94.48000 0.909
94.50000 4.366
94.52000 0.540
94.54000 7.195
94.56000 9.470
94.58000 6.836
94.60000 1.522
94.62000 1.315
94.64000 5.192
94.66000 4.637
94.68000 6.848
94.70000 5.244
94.72000 3.263
94.74000 -2.337
94.76000 1.919
94.78000 5.348
94.80000 4.342
94.82000 1.389
94.84000 2.343
94.86000 3.457
94.88000 2.938
94.90000 9.955
94.92000 5.505
94.94000 -0.293
94.96000 2.917
94.98000 6.133
95.00000 2.222
95.02000 3.340
95.04000 0.187
95.06000 1.562
95.08000 -2.379
95.10000 1.550
95.12000 3.819
95.14000 6.941
95.16000 4.616
95.18000 4.753
95.20000 5.162
95.22000 12.063
95.24000 5.040
95.26000 8.354
95.28000 10.654
95.30000 7.431
95.32000 3.607
95.34000 7.661
95.36000 4.181
95.38000 3.128
95.40000 5.257
95.42000 6.818
95.44000 2.888
95.46000 -2.384
95.48000 0.842
95.50000 5.476
95.52000 3.637
95.54000 4.551
95.56000 8.045
95.58000 2.937
95.60000 2.332
95.62000 3.935
95.64000 1.009
95.66000 7.814
95.68000 5.540
95.70000 8.414
95.72000 4.041
95.74000 6.009
95.76000 5.505
95.78000 1.256
95.80000 3.017
95.82000 -1.677
95.84000 2.194
95.86000 6.291
95.88000 6.703
95.90000 7.044
95.92000 6.847
95.94000 13.423
95.96000 8.964
95.98000 10.594
96.00000 7.760
96.02000 4.437
96.04000 10.591
96.06000 6.797
96.08000 5.679
96.10000 0.364
96.12000 -0.143
96.14000 8.770
96.16000 12.151
96.18000 10.363
96.20000 10.727
96.22000 4.973
96.24000 8.357
96.26000 4.582
96.28000 -0.681
96.30000 3.317
96.32000 5.402
96.34000 5.510
96.36000 9.437
96.38000 7.851
96.40000 8.951
96.42000 10.378
96.44000 2.397
96.46000 2.386
96.48000 2.295
96.50000 3.968
96.52000 7.039
96.54000 8.584
96.56000 9.408
96.58000 5.626
96.60000 -0.744
96.62000 -0.901
96.64000 5.328
96.66000 0.039
96.68000 -2.332
96.70000 8.244
96.72000 10.219
96.74000 9.366
96.76000 9.158
96.78000 9.448
96.80000 10.534
96.82000 4.472
96.84000 5.640
96.86000 0.656
96.88000 3.223
96.90000 6.061
96.92000 7.882
96.94000 3.664
96.96000 6.187
96.98000 13.840
97.00000 11.955
97.02000 14.592
97.04000 14.421
97.06000 15.227
97.08000 6.620
97.10000 2.679
97.12000 2.951
97.14000 1.747
97.16000 5.155
97.18000 3.400
97.20000 5.100
97.22000 15.993
97.24000 11.101
97.26000 1.922
97.28000 5.536
97.30000 10.094
97.32000 3.549
97.34000 2.149
97.36000 4.282
97.38000 2.432
97.40000 5.653
97.42000 6.454
97.44000 5.973
97.46000 2.260
97.48000 -1.287
97.50000 0.020
97.52000 -1.126
97.54000 2.124
97.56000 8.470
97.58000 11.750
97.60000 3.268
97.62000 5.779
97.64000 -0.745
97.66000 6.059
97.68000 9.688
97.70000 14.698
97.72000 6.654
97.74000 0.831
97.76000 3.887
97.78000 -2.345
97.80000 1.642
97.82000 4.288
97.84000 6.171
97.86000 7.531
97.88000 11.912
97.90000 9.605
97.92000 3.963
97.94000 -1.255
97.96000 3.146
97.98000 -0.636
98.00000 3.897
98.02000 -0.620
98.04000 0.493
98.06000 0.795
98.08000 -0.647
98.10000 5.326
98.12000 7.949
98.14000 9.497
98.16000 20.178
98.18000 14.171
98.20000 5.760
98.22000 -0.369
98.24000 13.461
98.26000 10.044
98.28000 4.940
98.30000 10.155
98.32000 10.019
98.34000 9.839
98.36000 14.551
98.38000 3.642
98.40000 5.775
98.42000 9.179
98.44000 -2.920
98.46000 6.244
98.48000 21.148
98.50000 8.874
98.52000 12.170
98.54000 12.492
98.56000 15.158
98.58000 2.692
98.60000 9.359
98.62000 5.802
98.64000 10.866
98.66000 11.756
98.68000 10.700
98.70000 15.466
98.72000 17.784
98.74000 9.734
98.76000 4.304
98.78000 13.993
98.80000 10.058
98.82000 12.089
98.84000 9.317
98.86000 -1.924
98.88000 2.599
98.90000 5.005
98.92000 7.409
98.94000 8.363
98.96000 13.143
98.98000 16.050
99.00000 23.345
99.02000 7.232
99.04000 14.680
99.06000 12.534
99.08000 10.683
99.10000 5.289
99.12000 18.174
99.14000 18.776
99.16000 4.596
99.18000 11.717
99.20000 4.987
99.22000 -1.505
99.24000 1.790
99.26000 -2.217
99.28000 9.101
99.30000 22.872
99.32000 11.426
99.34000 10.347
99.36000 12.292
99.38000 7.922
99.40000 -0.152
99.42000 1.981
99.44000 7.236
99.46000 10.407
99.48000 11.237
99.50000 11.954
99.52000 7.463
99.54000 1.534
99.56000 -1.690
99.58000 9.044
99.60000 2.721
99.62000 -4.049
99.64000 8.664
99.66000 15.232
99.68000 8.158
99.70000 2.087
99.72000 -1.291
99.74000 1.804
99.76000 3.899
99.78000 6.714
99.80000 5.133
99.82000 14.259
99.84000 14.879
99.86000 2.267
99.88000 -1.033
99.90000 1.788
99.92000 11.480
99.94000 9.141
99.96000 -2.513
99.98000 0.000
