'Id: "0011387" Comment: "Integrate frame 0011387_Au-Ir-Rh_Rh-rich_XRD-Mapping-136-0000.gfrmwith cursor Wedge Cursor #5" Operator: "B?rgel" Anode: "Cu" Wavelength: "1.5406" Scantype: "2Theta (TwoTheta)" TimePerStep: "1" X: "-45" Y: "-4.5" Z: "5.95" 
10.00000 0.000
10.02000 -4.769
10.04000 -4.648
10.06000 -4.566
10.08000 8.863
10.10000 22.672
10.12000 16.336
10.14000 17.203
10.16000 9.577
10.18000 2.344
10.20000 5.338
10.22000 27.867
10.24000 10.889
10.26000 6.260
10.28000 -4.527
10.30000 7.242
10.32000 15.074
10.34000 7.880
10.36000 4.001
10.38000 10.390
10.40000 16.488
10.42000 30.186
10.44000 14.424
10.46000 1.982
10.48000 9.961
10.50000 20.749
10.52000 14.263
10.54000 15.880
10.56000 11.983
10.58000 8.928
10.60000 -2.108
10.62000 -4.027
10.64000 3.162
10.66000 21.877
10.68000 18.832
10.70000 12.872
10.72000 16.726
10.74000 21.828
10.76000 28.107
10.78000 22.013
10.80000 11.807
10.82000 10.936
10.84000 8.023
10.86000 8.814
10.88000 13.807
10.90000 3.631
10.92000 16.299
10.94000 20.385
10.96000 24.141
10.98000 15.117
11.00000 7.754
11.02000 12.165
11.04000 20.929
11.06000 14.233
11.08000 14.369
11.10000 13.385
11.12000 21.103
11.14000 7.353
11.16000 1.414
11.18000 17.545
11.20000 18.523
11.22000 13.234
11.24000 12.715
11.26000 12.190
11.28000 7.437
11.30000 7.181
11.32000 7.088
11.34000 6.658
11.36000 7.949
11.38000 14.815
11.40000 23.600
11.42000 22.836
11.44000 25.014
11.46000 19.922
11.48000 -7.840
11.50000 1.686
11.52000 4.516
11.54000 3.554
11.56000 11.343
11.58000 29.581
11.60000 10.259
11.62000 2.473
11.64000 4.399
11.66000 6.032
11.68000 14.267
11.70000 21.029
11.72000 20.430
11.74000 9.298
11.76000 18.406
11.78000 15.703
11.80000 18.062
11.82000 21.386
11.84000 6.348
11.86000 20.934
11.88000 19.135
11.90000 15.817
11.92000 10.171
11.94000 7.705
11.96000 11.441
11.98000 11.030
12.00000 12.438
12.02000 2.773
12.04000 4.542
12.06000 11.213
12.08000 14.416
12.10000 13.093
12.12000 14.674
12.14000 13.489
12.16000 18.342
12.18000 12.815
12.20000 13.696
12.22000 15.439
12.24000 12.889
12.26000 8.865
12.28000 4.889
12.30000 0.664
12.32000 0.733
12.34000 -1.091
12.36000 -1.740
12.38000 -1.746
12.40000 12.448
12.42000 8.352
12.44000 14.567
12.46000 13.088
12.48000 9.974
12.50000 10.283
12.52000 6.713
12.54000 13.487
12.56000 20.132
12.58000 5.435
12.60000 2.751
12.62000 4.181
12.64000 0.468
12.66000 1.941
12.68000 7.707
12.70000 10.693
12.72000 12.144
12.74000 14.916
12.76000 7.710
12.78000 18.452
12.80000 16.908
12.82000 11.729
12.84000 7.117
12.86000 15.136
12.88000 13.333
12.90000 4.999
12.92000 10.950
12.94000 16.059
12.96000 11.293
12.98000 -0.591
13.00000 5.091
13.02000 4.733
13.04000 9.631
13.06000 5.595
13.08000 6.305
13.10000 8.291
13.12000 -3.356
13.14000 7.861
13.16000 5.387
13.18000 4.090
13.20000 12.633
13.22000 17.024
13.24000 21.138
13.26000 18.544
13.28000 8.974
13.30000 3.426
13.32000 3.511
13.34000 6.120
13.36000 7.731
13.38000 16.680
13.40000 18.266
13.42000 15.566
13.44000 17.677
13.46000 13.476
13.48000 10.189
13.50000 7.610
13.52000 11.098
13.54000 16.207
13.56000 20.237
13.58000 21.082
13.60000 13.500
13.62000 4.032
13.64000 7.039
13.66000 3.953
13.68000 11.028
13.70000 11.321
13.72000 18.310
13.74000 18.075
13.76000 5.030
13.78000 -3.073
13.80000 -4.470
13.82000 7.717
13.84000 5.866
13.86000 3.263
13.88000 11.669
13.90000 4.412
13.92000 3.554
13.94000 5.038
13.96000 16.056
13.98000 11.828
14.00000 -0.198
14.02000 0.220
14.04000 7.938
14.06000 9.221
14.08000 14.650
14.10000 9.295
14.12000 1.681
14.14000 9.579
14.16000 18.448
14.18000 16.940
14.20000 17.406
14.22000 18.654
14.24000 11.497
14.26000 5.057
14.28000 8.752
14.30000 5.325
14.32000 7.153
14.34000 10.644
14.36000 14.746
14.38000 14.327
14.40000 5.957
14.42000 11.445
14.44000 10.232
14.46000 11.387
14.48000 6.785
14.50000 9.697
14.52000 -2.309
14.54000 -4.465
14.56000 3.713
14.58000 10.431
14.60000 9.603
14.62000 5.927
14.64000 6.562
14.66000 10.149
14.68000 6.243
14.70000 2.040
14.72000 4.908
14.74000 11.909
14.76000 3.011
14.78000 5.948
14.80000 12.439
14.82000 9.746
14.84000 11.964
14.86000 11.226
14.88000 12.165
14.90000 6.965
14.92000 8.425
14.94000 9.593
14.96000 9.357
14.98000 7.252
15.00000 5.853
15.02000 4.822
15.04000 3.484
15.06000 7.147
15.08000 14.930
15.10000 4.799
15.12000 2.773
15.14000 7.547
15.16000 5.587
15.18000 6.356
15.20000 5.919
15.22000 1.536
15.24000 6.696
15.26000 5.311
15.28000 8.166
15.30000 6.015
15.32000 4.914
15.34000 2.389
15.36000 3.315
15.38000 8.947
15.40000 11.834
15.42000 2.695
15.44000 6.053
15.46000 6.022
15.48000 8.161
15.50000 -0.439
15.52000 0.658
15.54000 12.755
15.56000 12.176
15.58000 3.584
15.60000 6.176
15.62000 13.924
15.64000 9.378
15.66000 4.360
15.68000 -1.230
15.70000 2.737
15.72000 -0.550
15.74000 5.535
15.76000 5.860
15.78000 8.573
15.80000 0.394
15.82000 -3.618
15.84000 3.660
15.86000 10.014
15.88000 19.558
15.90000 9.663
15.92000 14.448
15.94000 13.128
15.96000 10.788
15.98000 6.400
16.00000 6.749
16.02000 2.928
16.04000 0.731
16.06000 10.716
16.08000 3.711
16.10000 0.112
16.12000 -2.163
16.14000 0.777
16.16000 0.602
16.18000 -0.955
16.20000 0.580
16.22000 -1.729
16.24000 9.990
16.26000 11.392
16.28000 1.734
16.30000 -2.003
16.32000 0.636
16.34000 4.667
16.36000 9.777
16.38000 3.557
16.40000 -2.149
16.42000 -4.396
16.44000 11.024
16.46000 9.963
16.48000 4.696
16.50000 11.768
16.52000 7.051
16.54000 9.957
16.56000 9.504
16.58000 13.295
16.60000 9.297
16.62000 1.409
16.64000 1.039
16.66000 9.534
16.68000 9.444
16.70000 6.825
16.72000 7.099
16.74000 9.902
16.76000 6.187
16.78000 2.791
16.80000 6.353
16.82000 5.047
16.84000 2.290
16.86000 4.670
16.88000 8.675
16.90000 7.126
16.92000 9.876
16.94000 9.619
16.96000 7.095
16.98000 9.071
17.00000 3.833
17.02000 4.667
17.04000 5.579
17.06000 7.219
17.08000 9.832
17.10000 5.027
17.12000 4.689
17.14000 7.788
17.16000 10.130
17.18000 11.524
17.20000 8.916
17.22000 12.501
17.24000 18.131
17.26000 18.356
17.28000 14.722
17.30000 8.211
17.32000 11.726
17.34000 6.563
17.36000 10.631
17.38000 6.747
17.40000 -4.313
17.42000 4.393
17.44000 10.378
17.46000 12.721
17.48000 10.062
17.50000 12.443
17.52000 11.302
17.54000 5.983
17.56000 12.191
17.58000 16.987
17.60000 18.562
17.62000 14.894
17.64000 8.189
17.66000 0.776
17.68000 5.367
17.70000 4.099
17.72000 6.926
17.74000 11.671
17.76000 18.730
17.78000 13.602
17.80000 10.858
17.82000 8.462
17.84000 7.178
17.86000 3.192
17.88000 4.921
17.90000 13.836
17.92000 11.887
17.94000 3.562
17.96000 4.975
17.98000 5.394
18.00000 1.193
18.02000 4.201
18.04000 10.058
18.06000 5.560
18.08000 -1.396
18.10000 -4.280
18.12000 -1.021
18.14000 8.223
18.16000 4.954
18.18000 1.398
18.20000 8.559
18.22000 10.586
18.24000 4.119
18.26000 8.199
18.28000 11.672
18.30000 11.078
18.32000 1.975
18.34000 8.438
18.36000 4.803
18.38000 5.826
18.40000 15.169
18.42000 12.669
18.44000 10.504
18.46000 3.225
18.48000 4.805
18.50000 4.260
18.52000 2.356
18.54000 4.024
18.56000 6.550
18.58000 13.029
18.60000 8.926
18.62000 16.836
18.64000 11.392
18.66000 4.322
18.68000 -0.100
18.70000 8.795
18.72000 6.715
18.74000 1.653
18.76000 2.685
18.78000 3.829
18.80000 3.347
18.82000 0.562
18.84000 2.551
18.86000 5.866
18.88000 7.834
18.90000 2.163
18.92000 3.694
18.94000 11.277
18.96000 9.728
18.98000 5.733
19.00000 1.670
19.02000 3.425
19.04000 0.305
19.06000 1.892
19.08000 7.243
19.10000 6.856
19.12000 1.277
19.14000 -4.242
19.16000 5.225
19.18000 5.916
19.20000 13.703
19.22000 8.186
19.24000 6.081
19.26000 3.719
19.28000 6.661
19.30000 7.928
19.32000 5.733
19.34000 4.957
19.36000 10.982
19.38000 16.377
19.40000 10.519
19.42000 1.362
19.44000 -0.006
19.46000 2.485
19.48000 6.010
19.50000 4.093
19.52000 3.166
19.54000 5.658
19.56000 2.351
19.58000 6.604
19.60000 3.653
19.62000 -3.237
19.64000 1.835
19.66000 1.590
19.68000 -1.405
19.70000 0.704
19.72000 6.833
19.74000 12.353
19.76000 3.715
19.78000 -4.204
19.80000 -2.054
19.82000 7.472
19.84000 3.773
19.86000 4.538
19.88000 6.210
19.90000 1.711
19.92000 -3.869
19.94000 -1.309
19.96000 1.652
19.98000 1.504
20.00000 8.927
20.02000 6.337
20.04000 11.152
20.06000 5.973
20.08000 -3.231
20.10000 -1.802
20.12000 0.962
20.14000 6.251
20.16000 0.720
20.18000 6.241
20.20000 6.827
20.22000 6.640
20.24000 5.536
20.26000 8.427
20.28000 7.887
20.30000 4.357
20.32000 3.175
20.34000 3.830
20.36000 6.514
20.38000 5.404
20.40000 9.092
20.42000 0.630
20.44000 1.236
20.46000 3.785
20.48000 6.063
20.50000 9.539
20.52000 8.825
20.54000 2.480
20.56000 1.853
20.58000 4.177
20.60000 4.171
20.62000 1.281
20.64000 2.377
20.66000 6.499
20.68000 11.342
20.70000 13.848
20.72000 4.716
20.74000 2.387
20.76000 5.695
20.78000 -0.684
20.80000 1.810
20.82000 2.117
20.84000 1.305
20.86000 2.847
20.88000 7.114
20.90000 9.731
20.92000 7.711
20.94000 4.046
20.96000 4.109
20.98000 0.755
21.00000 -4.138
21.02000 -3.140
21.04000 4.679
21.06000 9.720
21.08000 4.549
21.10000 -0.897
21.12000 4.233
21.14000 4.018
21.16000 7.451
21.18000 7.146
21.20000 1.175
21.22000 -0.481
21.24000 0.755
21.26000 7.474
21.28000 3.351
21.30000 3.103
21.32000 3.773
21.34000 9.524
21.36000 11.942
21.38000 8.856
21.40000 5.397
21.42000 4.986
21.44000 5.690
21.46000 7.828
21.48000 9.983
21.50000 13.664
21.52000 10.626
21.54000 5.456
21.56000 -1.379
21.58000 -4.092
21.60000 7.883
21.62000 8.576
21.64000 7.291
21.66000 0.883
21.68000 5.451
21.70000 11.980
21.72000 8.093
21.74000 6.869
21.76000 11.861
21.78000 4.560
21.80000 6.887
21.82000 7.481
21.84000 9.358
21.86000 4.454
21.88000 3.259
21.90000 7.527
21.92000 3.830
21.94000 8.205
21.96000 12.267
21.98000 8.683
22.00000 5.371
22.02000 3.610
22.04000 1.547
22.06000 -1.241
22.08000 2.920
22.10000 6.508
22.12000 -1.825
22.14000 -1.233
22.16000 4.885
22.18000 -0.687
22.20000 0.528
22.22000 8.216
22.24000 9.423
22.26000 6.088
22.28000 5.453
22.30000 6.110
22.32000 2.311
22.34000 3.713
22.36000 7.058
22.38000 9.649
22.40000 13.082
22.42000 8.888
22.44000 5.134
22.46000 7.613
22.48000 8.676
22.50000 12.295
22.52000 4.755
22.54000 0.685
22.56000 2.967
22.58000 5.205
22.60000 6.526
22.62000 10.755
22.64000 11.435
22.66000 2.758
22.68000 4.854
22.70000 6.693
22.72000 8.576
22.74000 3.988
22.76000 6.069
22.78000 10.267
22.80000 3.899
22.82000 4.538
22.84000 3.630
22.86000 4.585
22.88000 6.458
22.90000 -1.493
22.92000 0.026
22.94000 -4.017
22.96000 6.132
22.98000 8.868
23.00000 4.052
23.02000 5.148
23.04000 7.116
23.06000 9.232
23.08000 5.212
23.10000 -2.852
23.12000 1.085
23.14000 4.117
23.16000 8.657
23.18000 8.458
23.20000 4.709
23.22000 -0.068
23.24000 4.661
23.26000 5.322
23.28000 2.818
23.30000 3.226
23.32000 1.408
23.34000 3.907
23.36000 4.439
23.38000 5.622
23.40000 9.490
23.42000 8.456
23.44000 -2.371
23.46000 0.816
23.48000 0.556
23.50000 2.770
23.52000 5.382
23.54000 1.562
23.56000 1.784
23.58000 8.153
23.60000 12.802
23.62000 9.579
23.64000 6.403
23.66000 6.685
23.68000 12.303
23.70000 10.650
23.72000 7.531
23.74000 4.442
23.76000 5.721
23.78000 7.714
23.80000 2.267
23.82000 6.886
23.84000 4.386
23.86000 5.485
23.88000 9.091
23.90000 10.650
23.92000 6.722
23.94000 -1.526
23.96000 5.429
23.98000 9.271
24.00000 13.103
24.02000 10.584
24.04000 7.915
24.06000 2.117
24.08000 4.106
24.10000 4.549
24.12000 10.805
24.14000 4.499
24.16000 1.518
24.18000 1.984
24.20000 7.936
24.22000 10.861
24.24000 5.386
24.26000 -2.422
24.28000 -3.938
24.30000 3.767
24.32000 6.651
24.34000 7.628
24.36000 7.719
24.38000 4.853
24.40000 5.906
24.42000 7.113
24.44000 1.583
24.46000 5.136
24.48000 7.053
24.50000 8.914
24.52000 0.478
24.54000 -3.923
24.56000 -1.632
24.58000 1.373
24.60000 1.687
24.62000 5.047
24.64000 5.984
24.66000 4.585
24.68000 4.985
24.70000 1.084
24.72000 -1.479
24.74000 4.771
24.76000 9.438
24.78000 10.833
24.80000 9.713
24.82000 5.971
24.84000 3.495
24.86000 9.857
24.88000 7.225
24.90000 3.664
24.92000 6.311
24.94000 2.472
24.96000 2.459
24.98000 8.979
25.00000 6.484
25.02000 3.267
25.04000 10.426
25.06000 10.427
25.08000 8.005
25.10000 8.767
25.12000 8.549
25.14000 6.728
25.16000 6.408
25.18000 3.867
25.20000 4.309
25.22000 3.621
25.24000 1.529
25.26000 3.841
25.28000 4.906
25.30000 8.797
25.32000 8.421
25.34000 6.357
25.36000 5.309
25.38000 4.847
25.40000 7.380
25.42000 11.950
25.44000 7.807
25.46000 1.422
25.48000 1.726
25.50000 3.576
25.52000 1.979
25.54000 6.726
25.56000 14.112
25.58000 9.341
25.60000 5.491
25.62000 -3.874
25.64000 1.507
25.66000 6.658
25.68000 3.770
25.70000 -1.238
25.72000 -2.832
25.74000 3.749
25.76000 3.412
25.78000 7.764
25.80000 6.007
25.82000 -0.122
25.84000 -0.342
25.86000 8.888
25.88000 6.686
25.90000 4.623
25.92000 5.150
25.94000 5.868
25.96000 7.029
25.98000 4.427
26.00000 1.756
26.02000 2.827
26.04000 4.470
26.06000 3.894
26.08000 3.246
26.10000 -0.084
26.12000 0.076
26.14000 1.886
26.16000 1.703
26.18000 -1.445
26.20000 -3.831
26.22000 5.436
26.24000 9.351
26.26000 5.841
26.28000 5.797
26.30000 6.194
26.32000 7.878
26.34000 4.576
26.36000 7.383
26.38000 7.859
26.40000 4.999
26.42000 6.577
26.44000 12.136
26.46000 4.689
26.48000 5.520
26.50000 4.289
26.52000 8.162
26.54000 6.687
26.56000 3.043
26.58000 3.305
26.60000 2.018
26.62000 1.290
26.64000 -3.811
26.66000 -2.009
26.68000 -0.555
26.70000 4.350
26.72000 6.108
26.74000 0.941
26.76000 -0.957
26.78000 -1.935
26.80000 3.696
26.82000 3.836
26.84000 4.444
26.86000 6.596
26.88000 4.508
26.90000 2.991
26.92000 1.244
26.94000 7.118
26.96000 4.952
26.98000 3.075
27.00000 2.358
27.02000 4.095
27.04000 2.483
27.06000 7.070
27.08000 2.470
27.10000 -0.164
27.12000 2.300
27.14000 6.226
27.16000 3.615
27.18000 0.436
27.20000 5.656
27.22000 5.675
27.24000 5.476
27.26000 5.944
27.28000 8.040
27.30000 6.147
27.32000 2.666
27.34000 0.800
27.36000 2.114
27.38000 3.746
27.40000 2.450
27.42000 2.679
27.44000 1.785
27.46000 3.712
27.48000 4.135
27.50000 -0.166
27.52000 -1.973
27.54000 2.558
27.56000 3.183
27.58000 3.728
27.60000 1.556
27.62000 8.000
27.64000 3.848
27.66000 6.591
27.68000 4.071
27.70000 1.800
27.72000 7.873
27.74000 10.480
27.76000 0.722
27.78000 0.997
27.80000 2.443
27.82000 -2.638
27.84000 -2.525
27.86000 2.731
27.88000 2.869
27.90000 5.838
27.92000 6.204
27.94000 -0.704
27.96000 -3.764
27.98000 1.176
28.00000 3.028
28.02000 -1.361
28.04000 1.516
28.06000 7.105
28.08000 4.840
28.10000 2.459
28.12000 2.483
28.14000 2.058
28.16000 4.313
28.18000 4.463
28.20000 0.783
28.22000 1.676
28.24000 2.304
28.26000 2.916
28.28000 4.826
28.30000 7.669
28.32000 0.750
28.34000 0.748
28.36000 9.451
28.38000 4.494
28.40000 1.630
28.42000 5.089
28.44000 4.043
28.46000 -0.833
28.48000 1.638
28.50000 3.438
28.52000 0.587
28.54000 -1.774
28.56000 3.258
28.58000 2.751
28.60000 3.269
28.62000 -1.083
28.64000 -0.391
28.66000 1.304
28.68000 -3.731
28.70000 0.273
28.72000 4.685
28.74000 3.409
28.76000 4.860
28.78000 4.010
28.80000 0.263
28.82000 4.908
28.84000 7.386
28.86000 7.416
28.88000 1.017
28.90000 1.114
28.92000 8.377
28.94000 9.877
28.96000 4.314
28.98000 4.035
29.00000 7.314
29.02000 2.621
29.04000 -1.756
29.06000 1.307
29.08000 0.751
29.10000 -2.653
29.12000 0.347
29.14000 -1.996
29.16000 -2.323
29.18000 -0.074
29.20000 0.761
29.22000 1.577
29.24000 1.362
29.26000 3.198
29.28000 4.419
29.30000 -1.931
29.32000 -1.488
29.34000 1.627
29.36000 5.061
29.38000 2.450
29.40000 -0.972
29.42000 -3.696
29.44000 -2.793
29.46000 0.881
29.48000 0.588
29.50000 4.146
29.52000 0.834
29.54000 -0.299
29.56000 -3.689
29.58000 -0.657
29.60000 -0.494
29.62000 0.741
29.64000 2.896
29.66000 4.527
29.68000 0.751
29.70000 5.230
29.72000 8.579
29.74000 2.625
29.76000 -0.599
29.78000 -3.528
29.80000 -2.025
29.82000 -1.589
29.84000 3.188
29.86000 1.040
29.88000 -1.282
29.90000 5.444
29.92000 6.623
29.94000 0.261
29.96000 0.836
29.98000 1.219
30.00000 2.169
30.02000 0.930
30.04000 2.146
30.06000 1.604
30.08000 0.858
30.10000 5.460
30.12000 1.988
30.14000 -0.652
30.16000 7.293
30.18000 9.523
30.20000 3.139
30.22000 0.895
30.24000 -0.729
30.26000 -0.161
30.28000 1.620
30.30000 2.740
30.32000 0.667
30.34000 -0.740
30.36000 -0.866
30.38000 -0.761
30.40000 3.532
30.42000 7.870
30.44000 7.640
30.46000 3.362
30.48000 1.969
30.50000 -1.358
30.52000 2.373
30.54000 1.176
30.56000 -0.969
30.58000 2.542
30.60000 -0.983
30.62000 4.384
30.64000 4.369
30.66000 1.500
30.68000 -1.012
30.70000 5.173
30.72000 7.629
30.74000 8.249
30.76000 11.731
30.78000 7.588
30.80000 5.598
30.82000 6.002
30.84000 7.205
30.86000 6.220
30.88000 3.469
30.90000 2.074
30.92000 4.938
30.94000 4.752
30.96000 4.498
30.98000 2.116
31.00000 -2.612
31.02000 -3.592
31.04000 1.278
31.06000 6.117
31.08000 5.015
31.10000 2.652
31.12000 -1.225
31.14000 -2.931
31.16000 -0.611
31.18000 1.139
31.20000 1.918
31.22000 6.350
31.24000 10.225
31.26000 5.669
31.28000 -0.666
31.30000 3.002
31.32000 1.128
31.34000 2.710
31.36000 2.935
31.38000 7.022
31.40000 7.853
31.42000 5.093
31.44000 6.389
31.46000 4.464
31.48000 3.728
31.50000 -1.210
31.52000 0.557
31.54000 7.727
31.56000 0.006
31.58000 -0.324
31.60000 -0.674
31.62000 -1.530
31.64000 0.755
31.66000 1.573
31.68000 -0.665
31.70000 -2.523
31.72000 1.259
31.74000 1.937
31.76000 -1.884
31.78000 0.704
31.80000 0.342
31.82000 2.220
31.84000 1.893
31.86000 -2.625
31.88000 -3.585
31.90000 -1.531
31.92000 1.406
31.94000 1.589
31.96000 -0.825
31.98000 -2.638
32.00000 -0.911
32.02000 -1.683
32.04000 1.747
32.06000 2.050
32.08000 0.058
32.10000 5.823
32.12000 -0.606
32.14000 0.420
32.16000 1.665
32.18000 0.379
32.20000 0.971
32.22000 2.312
32.24000 -1.068
32.26000 0.804
32.28000 8.171
32.30000 3.312
32.32000 -1.599
32.34000 4.300
32.36000 10.943
32.38000 9.402
32.40000 5.300
32.42000 6.155
32.44000 6.085
32.46000 2.122
32.48000 -0.764
32.50000 -2.290
32.52000 -0.325
32.54000 2.054
32.56000 1.173
32.58000 0.107
32.60000 0.339
32.62000 -1.538
32.64000 0.802
32.66000 0.955
32.68000 -3.560
32.70000 0.238
32.72000 5.852
32.74000 7.862
32.76000 6.719
32.78000 7.232
32.80000 5.391
32.82000 1.970
32.84000 4.537
32.86000 -1.855
32.88000 -1.814
32.90000 1.656
32.92000 3.432
32.94000 4.031
32.96000 -0.251
32.98000 -1.204
33.00000 -1.899
33.02000 2.356
33.04000 4.236
33.06000 3.482
33.08000 2.594
33.10000 2.762
33.12000 2.433
33.14000 0.648
33.16000 -3.553
33.18000 1.153
33.20000 5.899
33.22000 2.819
33.24000 -1.750
33.26000 2.299
33.28000 3.203
33.30000 6.150
33.32000 6.167
33.34000 4.181
33.36000 -0.812
33.38000 2.212
33.40000 -2.730
33.42000 2.935
33.44000 2.390
33.46000 -0.736
33.48000 -2.462
33.50000 -1.519
33.52000 -0.678
33.54000 1.750
33.56000 1.419
33.58000 -1.158
33.60000 1.678
33.62000 0.616
33.64000 -1.797
33.66000 3.139
33.68000 4.798
33.70000 4.961
33.72000 1.609
33.74000 4.231
33.76000 1.187
33.78000 -0.123
33.80000 3.081
33.82000 -0.091
33.84000 0.599
33.86000 3.072
33.88000 2.479
33.90000 0.476
33.92000 2.900
33.94000 1.082
33.96000 2.157
33.98000 0.200
34.00000 4.279
34.02000 2.718
34.04000 1.872
34.06000 0.564
34.08000 3.552
34.10000 3.831
34.12000 2.787
34.14000 3.964
34.16000 3.288
34.18000 4.315
34.20000 2.640
34.22000 0.846
34.24000 -1.791
34.26000 2.593
34.28000 4.342
34.30000 -1.538
34.32000 -0.319
34.34000 6.660
34.36000 5.120
34.38000 1.737
34.40000 4.169
34.42000 4.930
34.44000 5.849
34.46000 5.637
34.48000 6.614
34.50000 5.836
34.52000 5.168
34.54000 3.327
34.56000 1.900
34.58000 2.071
34.60000 0.165
34.62000 -3.453
34.64000 3.334
34.66000 7.088
34.68000 6.867
34.70000 2.853
34.72000 -1.029
34.74000 3.232
34.76000 6.371
34.78000 7.246
34.80000 5.671
34.82000 5.014
34.84000 5.911
34.86000 3.544
34.88000 3.136
34.90000 3.992
34.92000 -0.643
34.94000 0.101
34.96000 -0.906
34.98000 2.169
35.00000 5.405
35.02000 2.196
35.04000 -0.952
35.06000 0.006
35.08000 1.689
35.10000 0.438
35.12000 9.719
35.14000 4.099
35.16000 1.085
35.18000 5.856
35.20000 9.800
35.22000 5.642
35.24000 3.111
35.26000 3.120
35.28000 1.106
35.30000 7.050
35.32000 7.947
35.34000 3.097
35.36000 3.260
35.38000 3.729
35.40000 7.150
35.42000 3.500
35.44000 2.582
35.46000 2.998
35.48000 1.270
35.50000 0.261
35.52000 1.027
35.54000 0.046
35.56000 3.529
35.58000 7.979
35.60000 5.905
35.62000 3.287
35.64000 5.000
35.66000 3.881
35.68000 5.229
35.70000 10.904
35.72000 5.422
35.74000 0.373
35.76000 1.611
35.78000 -2.128
35.80000 -0.972
35.82000 -3.448
35.84000 0.884
35.86000 3.814
35.88000 5.865
35.90000 9.381
35.92000 9.745
35.94000 1.534
35.96000 -3.442
35.98000 -1.457
36.00000 -1.501
36.02000 6.436
36.04000 3.739
36.06000 -1.030
36.08000 5.141
36.10000 4.750
36.12000 7.408
36.14000 3.478
36.16000 0.331
36.18000 -1.471
36.20000 1.378
36.22000 4.246
36.24000 -1.993
36.26000 -1.803
36.28000 5.193
36.30000 5.686
36.32000 -0.594
36.34000 -3.346
36.36000 -1.118
36.38000 3.167
36.40000 0.432
36.42000 -1.754
36.44000 0.965
36.46000 3.443
36.48000 4.448
36.50000 1.352
36.52000 1.007
36.54000 -3.478
36.56000 -0.330
36.58000 0.327
36.60000 5.569
36.62000 4.301
36.64000 4.077
36.66000 0.557
36.68000 -1.696
36.70000 -1.330
36.72000 3.233
36.74000 5.137
36.76000 -0.174
36.78000 2.051
36.80000 4.193
36.82000 6.483
36.84000 1.830
36.86000 0.782
36.88000 2.673
36.90000 -2.393
36.92000 -3.510
36.94000 1.802
36.96000 1.723
36.98000 1.983
37.00000 0.309
37.02000 -0.285
37.04000 2.954
37.06000 3.486
37.08000 0.471
37.10000 -1.558
37.12000 -3.024
37.14000 2.324
37.16000 1.491
37.18000 -1.085
37.20000 -2.454
37.22000 0.036
37.24000 2.599
37.26000 0.615
37.28000 -1.563
37.30000 -3.036
37.32000 -2.519
37.34000 -2.323
37.36000 -2.068
37.38000 0.569
37.40000 -0.419
37.42000 -3.375
37.44000 0.402
37.46000 -0.397
37.48000 2.195
37.50000 3.578
37.52000 2.762
37.54000 -0.290
37.56000 -3.010
37.58000 -1.783
37.60000 -1.770
37.62000 -2.400
37.64000 1.740
37.66000 -3.585
37.68000 -1.934
37.70000 -0.198
37.72000 -0.164
37.74000 0.893
37.76000 -2.044
37.78000 -2.669
37.80000 -2.385
37.82000 1.172
37.84000 4.154
37.86000 3.741
37.88000 3.976
37.90000 5.901
37.92000 7.087
37.94000 4.354
37.96000 2.769
37.98000 0.863
38.00000 4.003
38.02000 4.773
38.04000 3.119
38.06000 4.532
38.08000 7.591
38.10000 5.052
38.12000 8.694
38.14000 9.068
38.16000 12.404
38.18000 13.998
38.20000 14.569
38.22000 11.181
38.24000 12.167
38.26000 12.504
38.28000 13.588
38.30000 11.800
38.32000 11.692
38.34000 15.797
38.36000 20.984
38.38000 16.662
38.40000 14.555
38.42000 21.647
38.44000 18.082
38.46000 17.751
38.48000 10.963
38.50000 14.835
38.52000 12.705
38.54000 14.898
38.56000 19.832
38.58000 20.276
38.60000 24.183
38.62000 23.735
38.64000 17.643
38.66000 17.555
38.68000 25.338
38.70000 24.422
38.72000 22.269
38.74000 20.569
38.76000 16.216
38.78000 24.302
38.80000 33.045
38.82000 32.325
38.84000 26.925
38.86000 21.702
38.88000 25.950
38.90000 32.562
38.92000 32.585
38.94000 31.657
38.96000 34.629
38.98000 32.769
39.00000 33.762
39.02000 33.844
39.04000 36.909
39.06000 37.240
39.08000 41.156
39.10000 41.290
39.12000 45.629
39.14000 43.998
39.16000 43.629
39.18000 48.215
39.20000 51.162
39.22000 52.180
39.24000 56.659
39.26000 67.110
39.28000 66.157
39.30000 63.181
39.32000 66.469
39.34000 67.657
39.36000 75.581
39.38000 84.248
39.40000 81.308
39.42000 82.630
39.44000 86.583
39.46000 90.898
39.48000 95.907
39.50000 100.004
39.52000 103.101
39.54000 118.788
39.56000 129.896
39.58000 132.556
39.60000 137.760
39.62000 142.347
39.64000 149.442
39.66000 161.070
39.68000 176.887
39.70000 189.659
39.72000 197.912
39.74000 211.527
39.76000 227.364
39.78000 240.526
39.80000 255.165
39.82000 271.635
39.84000 287.657
39.86000 314.489
39.88000 330.891
39.90000 349.518
39.92000 368.077
39.94000 398.990
39.96000 428.766
39.98000 460.126
40.00000 485.456
40.02000 514.598
40.04000 558.195
40.06000 591.025
40.08000 629.297
40.10000 665.641
40.12000 704.142
40.14000 740.914
40.16000 775.737
40.18000 818.635
40.20000 850.820
40.22000 884.363
40.24000 918.905
40.26000 950.883
40.28000 973.686
40.30000 993.803
40.32000 1024.963
40.34000 1050.113
40.36000 1059.082
40.38000 1071.137
40.40000 1080.655
40.42000 1082.535
40.44000 1070.245
40.46000 1060.108
40.48000 1058.869
40.50000 1035.233
40.52000 1023.099
40.54000 1008.592
40.56000 984.146
40.58000 961.002
40.60000 928.573
40.62000 886.292
40.64000 856.058
40.66000 823.349
40.68000 791.727
40.70000 753.279
40.72000 726.247
40.74000 693.154
40.76000 660.770
40.78000 627.087
40.80000 593.443
40.82000 557.654
40.84000 532.707
40.86000 506.671
40.88000 477.761
40.90000 447.102
40.92000 426.028
40.94000 403.766
40.96000 375.156
40.98000 357.940
41.00000 336.792
41.02000 318.216
41.04000 301.632
41.06000 280.127
41.08000 267.179
41.10000 252.612
41.12000 235.329
41.14000 223.179
41.16000 208.417
41.18000 200.517
41.20000 189.517
41.22000 178.405
41.24000 165.296
41.26000 155.981
41.28000 151.543
41.30000 147.052
41.32000 134.860
41.34000 126.349
41.36000 117.833
41.38000 115.599
41.40000 112.220
41.42000 102.303
41.44000 97.904
41.46000 86.390
41.48000 89.071
41.50000 87.316
41.52000 77.786
41.54000 75.608
41.56000 74.769
41.58000 68.315
41.60000 68.357
41.62000 64.649
41.64000 61.462
41.66000 57.009
41.68000 55.483
41.70000 49.639
41.72000 50.995
41.74000 47.308
41.76000 46.168
41.78000 40.368
41.80000 37.347
41.82000 39.495
41.84000 36.104
41.86000 35.811
41.88000 36.790
41.90000 32.620
41.92000 29.860
41.94000 26.739
41.96000 26.492
41.98000 22.891
42.00000 25.052
42.02000 23.712
42.04000 22.391
42.06000 19.481
42.08000 22.220
42.10000 18.954
42.12000 15.674
42.14000 18.540
42.16000 16.245
42.18000 14.647
42.20000 17.318
42.22000 14.186
42.24000 11.322
42.26000 10.744
42.28000 11.106
42.30000 19.712
42.32000 21.017
42.34000 16.019
42.36000 8.841
42.38000 11.779
42.40000 9.826
42.42000 9.088
42.44000 7.354
42.46000 6.579
42.48000 6.699
42.50000 4.958
42.52000 2.558
42.54000 4.973
42.56000 6.894
42.58000 7.781
42.60000 9.683
42.62000 7.727
42.64000 4.902
42.66000 4.693
42.68000 2.078
42.70000 1.115
42.72000 6.170
42.74000 6.682
42.76000 2.269
42.78000 2.161
42.80000 4.473
42.82000 -1.007
42.84000 0.960
42.86000 3.782
42.88000 1.067
42.90000 1.118
42.92000 5.477
42.94000 2.957
42.96000 2.585
42.98000 2.977
43.00000 -0.947
43.02000 2.286
43.04000 2.236
43.06000 1.382
43.08000 -0.033
43.10000 5.501
43.12000 4.596
43.14000 -1.428
43.16000 -3.476
43.18000 -0.822
43.20000 0.307
43.22000 -1.484
43.24000 1.764
43.26000 3.923
43.28000 4.493
43.30000 0.034
43.32000 -2.101
43.34000 -1.441
43.36000 0.333
43.38000 0.825
43.40000 1.914
43.42000 -0.951
43.44000 -0.079
43.46000 2.348
43.48000 3.193
43.50000 4.538
43.52000 3.263
43.54000 0.737
43.56000 0.052
43.58000 -0.645
43.60000 -1.371
43.62000 -2.719
43.64000 2.150
43.66000 2.641
43.68000 -0.881
43.70000 -3.371
43.72000 2.140
43.74000 1.049
43.76000 3.637
43.78000 1.416
43.80000 2.220
43.82000 3.497
43.84000 4.243
43.86000 4.735
43.88000 4.205
43.90000 6.303
43.92000 2.900
43.94000 4.035
43.96000 1.526
43.98000 -0.393
44.00000 -0.080
44.02000 2.748
44.04000 5.195
44.06000 0.450
44.08000 0.341
44.10000 2.808
44.12000 0.952
44.14000 1.888
44.16000 0.358
44.18000 -1.970
44.20000 -1.644
44.22000 -0.505
44.24000 0.358
44.26000 2.331
44.28000 -0.455
44.30000 -3.302
44.32000 0.635
44.34000 2.315
44.36000 2.188
44.38000 0.100
44.40000 -3.102
44.42000 1.023
44.44000 3.306
44.46000 1.191
44.48000 1.606
44.50000 4.090
44.52000 5.571
44.54000 3.324
44.56000 3.755
44.58000 2.369
44.60000 2.973
44.62000 2.412
44.64000 0.372
44.66000 2.557
44.68000 8.898
44.70000 3.143
44.72000 -2.629
44.74000 0.364
44.76000 4.878
44.78000 2.321
44.80000 -3.282
44.82000 -2.010
44.84000 2.038
44.86000 3.066
44.88000 2.352
44.90000 2.577
44.92000 0.953
44.94000 4.758
44.96000 6.104
44.98000 6.348
45.00000 3.307
45.02000 7.281
45.04000 4.727
45.06000 4.591
45.08000 1.133
45.10000 5.898
45.12000 8.178
45.14000 7.018
45.16000 6.475
45.18000 4.539
45.20000 8.452
45.22000 4.091
45.24000 5.189
45.26000 7.452
45.28000 7.823
45.30000 3.378
45.32000 4.207
45.34000 9.017
45.36000 11.854
45.38000 11.300
45.40000 7.362
45.42000 8.655
45.44000 3.240
45.46000 2.520
45.48000 6.248
45.50000 7.013
45.52000 11.033
45.54000 10.964
45.56000 10.572
45.58000 9.670
45.60000 9.973
45.62000 12.578
45.64000 17.107
45.66000 14.141
45.68000 12.816
45.70000 20.288
45.72000 14.825
45.74000 15.538
45.76000 20.280
45.78000 21.145
45.80000 19.398
45.82000 23.154
45.84000 26.446
45.86000 24.250
45.88000 22.421
45.90000 25.958
45.92000 28.064
45.94000 26.005
45.96000 29.069
45.98000 30.099
46.00000 31.571
46.02000 31.955
46.04000 34.712
46.06000 40.078
46.08000 40.915
46.10000 43.270
46.12000 42.358
46.14000 40.022
46.16000 45.104
46.18000 44.698
46.20000 45.556
46.22000 50.025
46.24000 55.116
46.26000 55.759
46.28000 57.572
46.30000 55.662
46.32000 58.206
46.34000 60.301
46.36000 66.425
46.38000 73.456
46.40000 78.073
46.42000 82.100
46.44000 84.743
46.46000 93.668
46.48000 98.144
46.50000 99.674
46.52000 110.187
46.54000 118.322
46.56000 119.849
46.58000 120.039
46.60000 123.094
46.62000 128.076
46.64000 136.760
46.66000 143.225
46.68000 151.718
46.70000 158.543
46.72000 162.325
46.74000 168.258
46.76000 178.755
46.78000 184.044
46.80000 187.539
46.82000 193.530
46.84000 202.744
46.86000 210.604
46.88000 220.306
46.90000 216.392
46.92000 221.865
46.94000 219.474
46.96000 227.952
46.98000 232.058
47.00000 235.456
47.02000 225.986
47.04000 225.649
47.06000 224.133
47.08000 232.101
47.10000 231.715
47.12000 220.969
47.14000 217.257
47.16000 208.534
47.18000 200.793
47.20000 200.272
47.22000 195.213
47.24000 192.683
47.26000 189.383
47.28000 181.069
47.30000 169.749
47.32000 165.245
47.34000 157.792
47.36000 159.039
47.38000 151.022
47.40000 142.452
47.42000 136.202
47.44000 128.502
47.46000 125.176
47.48000 117.986
47.50000 115.465
47.52000 107.294
47.54000 101.744
47.56000 95.909
47.58000 93.414
47.60000 80.634
47.62000 80.811
47.64000 77.819
47.66000 76.670
47.68000 70.630
47.70000 64.143
47.72000 63.132
47.74000 62.592
47.76000 56.190
47.78000 50.675
47.80000 51.364
47.82000 47.944
47.84000 45.343
47.86000 40.806
47.88000 37.714
47.90000 37.294
47.92000 33.270
47.94000 31.724
47.96000 33.645
47.98000 32.029
48.00000 23.152
48.02000 28.979
48.04000 28.999
48.06000 28.128
48.08000 28.796
48.10000 22.193
48.12000 24.260
48.14000 20.829
48.16000 15.463
48.18000 11.180
48.20000 12.606
48.22000 14.147
48.24000 14.344
48.26000 9.574
48.28000 8.643
48.30000 13.751
48.32000 15.395
48.34000 9.512
48.36000 11.613
48.38000 14.818
48.40000 9.029
48.42000 9.707
48.44000 6.474
48.46000 0.740
48.48000 2.748
48.50000 6.660
48.52000 7.202
48.54000 2.945
48.56000 1.539
48.58000 2.252
48.60000 -1.862
48.62000 2.436
48.64000 5.963
48.66000 6.252
48.68000 6.259
48.70000 1.800
48.72000 -0.476
48.74000 4.831
48.76000 1.431
48.78000 -1.450
48.80000 1.564
48.82000 5.244
48.84000 7.628
48.86000 6.907
48.88000 5.582
48.90000 -2.816
48.92000 3.889
48.94000 7.324
48.96000 4.821
48.98000 1.715
49.00000 -2.015
49.02000 -1.770
49.04000 0.305
49.06000 -0.475
49.08000 0.018
49.10000 0.008
49.12000 0.997
49.14000 2.828
49.16000 0.781
49.18000 3.332
49.20000 7.126
49.22000 4.344
49.24000 -0.224
49.26000 3.160
49.28000 2.289
49.30000 2.603
49.32000 0.676
49.34000 0.542
49.36000 -1.074
49.38000 1.000
49.40000 4.710
49.42000 2.003
49.44000 -0.944
49.46000 -1.720
49.48000 -2.723
49.50000 2.684
49.52000 5.530
49.54000 4.361
49.56000 3.467
49.58000 4.973
49.60000 7.683
49.62000 4.397
49.64000 -0.313
49.66000 0.334
49.68000 3.680
49.70000 3.327
49.72000 3.381
49.74000 3.554
49.76000 2.646
49.78000 4.555
49.80000 0.854
49.82000 1.540
49.84000 2.513
49.86000 4.892
49.88000 3.498
49.90000 -2.587
49.92000 -1.405
49.94000 4.531
49.96000 0.187
49.98000 2.521
50.00000 8.357
50.02000 4.249
50.04000 2.800
50.06000 4.004
50.08000 9.366
50.10000 3.693
50.12000 1.707
50.14000 3.164
50.16000 0.484
50.18000 0.583
50.20000 0.944
50.22000 0.982
50.24000 1.661
50.26000 0.668
50.28000 -2.623
50.30000 -1.128
50.32000 1.344
50.34000 1.571
50.36000 2.704
50.38000 2.422
50.40000 4.577
50.42000 0.659
50.44000 -2.023
50.46000 -2.108
50.48000 2.017
50.50000 3.975
50.52000 3.451
50.54000 2.070
50.56000 5.780
50.58000 3.141
50.60000 1.240
50.62000 4.950
50.64000 4.471
50.66000 6.431
50.68000 4.238
50.70000 2.561
50.72000 -0.339
50.74000 1.833
50.76000 6.708
50.78000 4.544
50.80000 7.130
50.82000 6.198
50.84000 3.056
50.86000 3.337
50.88000 1.915
50.90000 5.147
50.92000 0.019
50.94000 -0.470
50.96000 0.015
50.98000 2.283
51.00000 5.189
51.02000 3.555
51.04000 1.810
51.06000 3.352
51.08000 3.426
51.10000 0.608
51.12000 -0.572
51.14000 -2.537
51.16000 1.048
51.18000 3.495
51.20000 5.808
51.22000 7.868
51.24000 7.233
51.26000 3.754
51.28000 3.576
51.30000 7.340
51.32000 6.542
51.34000 1.871
51.36000 4.895
51.38000 7.569
51.40000 7.122
51.42000 8.853
51.44000 5.121
51.46000 0.384
51.48000 1.683
51.50000 4.039
51.52000 1.934
51.54000 -1.700
51.56000 0.308
51.58000 3.653
51.60000 3.950
51.62000 4.170
51.64000 3.824
51.66000 2.300
51.68000 5.581
51.70000 6.320
51.72000 3.444
51.74000 4.346
51.76000 4.526
51.78000 3.223
51.80000 0.517
51.82000 3.704
51.84000 0.807
51.86000 -0.093
51.88000 0.423
51.90000 2.336
51.92000 1.160
51.94000 -0.958
51.96000 -2.185
51.98000 -1.130
52.00000 1.965
52.02000 4.983
52.04000 3.519
52.06000 0.656
52.08000 2.546
52.10000 -0.839
52.12000 -1.356
52.14000 -0.310
52.16000 3.351
52.18000 4.695
52.20000 3.617
52.22000 2.557
52.24000 0.284
52.26000 1.015
52.28000 0.964
52.30000 -1.709
52.32000 -1.812
52.34000 -0.703
52.36000 -0.156
52.38000 2.469
52.40000 1.480
52.42000 -0.419
52.44000 0.389
52.46000 1.267
52.48000 -0.523
52.50000 -0.829
52.52000 0.487
52.54000 0.976
52.56000 0.733
52.58000 1.834
52.60000 -0.294
52.62000 2.661
52.64000 6.441
52.66000 -0.170
52.68000 -1.686
52.70000 -2.107
52.72000 -0.569
52.74000 1.685
52.76000 5.217
52.78000 5.413
52.80000 3.643
52.82000 5.884
52.84000 4.186
52.86000 -0.224
52.88000 3.839
52.90000 1.544
52.92000 -2.060
52.94000 -2.507
52.96000 1.000
52.98000 3.354
53.00000 1.029
53.02000 1.321
53.04000 -0.426
53.06000 -0.177
53.08000 1.594
53.10000 6.801
53.12000 5.981
53.14000 -0.032
53.16000 2.956
53.18000 5.091
53.20000 6.192
53.22000 2.982
53.24000 1.650
53.26000 3.920
53.28000 2.952
53.30000 0.818
53.32000 1.488
53.34000 -0.702
53.36000 -0.606
53.38000 0.371
53.40000 -0.373
53.42000 -1.325
53.44000 1.529
53.46000 1.820
53.48000 2.083
53.50000 -0.427
53.52000 -0.393
53.54000 0.242
53.56000 1.131
53.58000 -0.278
53.60000 -2.507
53.62000 -0.467
53.64000 1.003
53.66000 -0.388
53.68000 1.154
53.70000 2.395
53.72000 2.601
53.74000 0.822
53.76000 3.738
53.78000 -1.193
53.80000 -1.117
53.82000 0.464
53.84000 4.802
53.86000 2.262
53.88000 3.135
53.90000 3.284
53.92000 -0.232
53.94000 -0.762
53.96000 2.171
53.98000 3.071
54.00000 3.117
54.02000 3.921
54.04000 2.947
54.06000 0.627
54.08000 1.675
54.10000 0.953
54.12000 -1.625
54.14000 1.243
54.16000 -1.492
54.18000 -1.819
54.20000 -1.046
54.22000 0.684
54.24000 3.144
54.26000 0.368
54.28000 4.260
54.30000 2.371
54.32000 0.353
54.34000 -1.041
54.36000 2.284
54.38000 2.447
54.40000 3.322
54.42000 3.520
54.44000 1.908
54.46000 4.940
54.48000 2.758
54.50000 4.866
54.52000 5.579
54.54000 -0.798
54.56000 1.014
54.58000 3.636
54.60000 3.867
54.62000 3.357
54.64000 5.563
54.66000 1.233
54.68000 1.294
54.70000 2.253
54.72000 2.909
54.74000 4.569
54.76000 5.934
54.78000 2.545
54.80000 5.224
54.82000 4.573
54.84000 2.866
54.86000 -2.434
54.88000 0.952
54.90000 -1.466
54.92000 -1.484
54.94000 3.012
54.96000 2.907
54.98000 0.388
55.00000 -1.680
55.02000 3.326
55.04000 2.779
55.06000 3.670
55.08000 1.258
55.10000 1.886
55.12000 1.738
55.14000 1.113
55.16000 6.230
55.18000 6.045
55.20000 4.860
55.22000 5.235
55.24000 2.753
55.26000 0.733
55.28000 2.328
55.30000 0.201
55.32000 -1.458
55.34000 -1.275
55.36000 -1.406
55.38000 1.041
55.40000 3.077
55.42000 2.943
55.44000 1.777
55.46000 -0.532
55.48000 1.394
55.50000 1.344
55.52000 -0.563
55.54000 -0.251
55.56000 0.774
55.58000 0.785
55.60000 1.805
55.62000 -2.232
55.64000 0.100
55.66000 0.783
55.68000 0.800
55.70000 -1.178
55.72000 -1.566
55.74000 -0.883
55.76000 0.375
55.78000 0.983
55.80000 2.516
55.82000 1.675
55.84000 5.190
55.86000 6.645
55.88000 2.453
55.90000 -1.276
55.92000 -0.138
55.94000 2.966
55.96000 2.294
55.98000 1.600
56.00000 -0.073
56.02000 2.158
56.04000 1.579
56.06000 2.026
56.08000 2.641
56.10000 2.879
56.12000 -2.431
56.14000 -1.766
56.16000 0.020
56.18000 0.436
56.20000 0.311
56.22000 3.185
56.24000 4.960
56.26000 2.035
56.28000 3.841
56.30000 0.686
56.32000 4.866
56.34000 4.713
56.36000 1.745
56.38000 1.660
56.40000 5.083
56.42000 2.395
56.44000 3.837
56.46000 -0.034
56.48000 -1.159
56.50000 2.252
56.52000 2.363
56.54000 -0.921
56.56000 -1.719
56.58000 3.784
56.60000 3.804
56.62000 0.108
56.64000 2.334
56.66000 0.623
56.68000 -0.440
56.70000 -0.423
56.72000 2.224
56.74000 1.948
56.76000 -0.577
56.78000 -2.268
56.80000 3.436
56.82000 4.236
56.84000 3.046
56.86000 3.602
56.88000 3.214
56.90000 0.733
56.92000 -0.270
56.94000 0.869
56.96000 -2.353
56.98000 0.656
57.00000 0.362
57.02000 0.653
57.04000 5.743
57.06000 4.800
57.08000 1.896
57.10000 0.794
57.12000 3.719
57.14000 3.982
57.16000 4.214
57.18000 2.296
57.20000 1.929
57.22000 0.677
57.24000 0.365
57.26000 6.838
57.28000 4.365
57.30000 8.936
57.32000 7.498
57.34000 5.319
57.36000 8.100
57.38000 3.858
57.40000 0.428
57.42000 2.272
57.44000 4.975
57.46000 5.093
57.48000 7.049
57.50000 4.281
57.52000 2.938
57.54000 3.736
57.56000 5.705
57.58000 3.362
57.60000 3.893
57.62000 2.820
57.64000 1.219
57.66000 0.607
57.68000 -2.348
57.70000 -0.136
57.72000 0.459
57.74000 2.532
57.76000 4.198
57.78000 5.541
57.80000 3.278
57.82000 3.181
57.84000 4.612
57.86000 3.528
57.88000 3.044
57.90000 3.116
57.92000 1.352
57.94000 2.668
57.96000 3.327
57.98000 0.609
58.00000 4.972
58.02000 2.591
58.04000 1.594
58.06000 2.608
58.08000 1.117
58.10000 0.896
58.12000 2.276
58.14000 0.821
58.16000 1.614
58.18000 4.061
58.20000 2.594
58.22000 2.953
58.24000 3.507
58.26000 1.581
58.28000 1.361
58.30000 0.152
58.32000 2.058
58.34000 -0.563
58.36000 1.467
58.38000 1.167
58.40000 -0.832
58.42000 -0.073
58.44000 1.850
58.46000 1.825
58.48000 2.846
58.50000 -0.070
58.52000 -1.134
58.54000 0.859
58.56000 -1.306
58.58000 -0.904
58.60000 3.249
58.62000 -2.348
58.64000 -0.698
58.66000 -0.003
58.68000 0.201
58.70000 2.012
58.72000 1.347
58.74000 -0.939
58.76000 -0.373
58.78000 1.360
58.80000 1.351
58.82000 5.329
58.84000 1.187
58.86000 -1.449
58.88000 -1.090
58.90000 1.860
58.92000 2.671
58.94000 4.649
58.96000 0.190
58.98000 0.896
59.00000 1.143
59.02000 3.827
59.04000 5.178
59.06000 2.658
59.08000 -0.178
59.10000 -0.493
59.12000 0.902
59.14000 2.897
59.16000 1.603
59.18000 -0.392
59.20000 -2.334
59.22000 0.194
59.24000 3.631
59.26000 2.289
59.28000 2.627
59.30000 3.097
59.32000 0.811
59.34000 -0.647
59.36000 0.508
59.38000 -0.269
59.40000 0.062
59.42000 -0.438
59.44000 -0.482
59.46000 1.629
59.48000 -1.281
59.50000 0.331
59.52000 -2.316
59.54000 -1.733
59.56000 -1.361
59.58000 -2.313
59.60000 0.184
59.62000 2.073
59.64000 3.768
59.66000 2.211
59.68000 1.884
59.70000 1.919
59.72000 -0.413
59.74000 0.657
59.76000 -0.779
59.78000 2.817
59.80000 2.119
59.82000 4.734
59.84000 0.558
59.86000 -0.979
59.88000 0.785
59.90000 0.368
59.92000 -0.018
59.94000 2.393
59.96000 3.592
59.98000 3.570
60.00000 -1.147
60.02000 -1.164
60.04000 1.484
60.06000 2.459
60.08000 0.476
60.10000 2.623
60.12000 2.151
60.14000 1.899
60.16000 2.529
60.18000 1.841
60.20000 0.777
60.22000 3.536
60.24000 4.102
60.26000 1.515
60.28000 1.207
60.30000 1.743
60.32000 0.148
60.34000 -2.290
60.36000 -1.167
60.38000 2.108
60.40000 -0.450
60.42000 -0.792
60.44000 1.861
60.46000 3.771
60.48000 1.910
60.50000 -0.671
60.52000 -0.390
60.54000 -0.821
60.56000 0.101
60.58000 1.404
60.60000 2.207
60.62000 3.426
60.64000 2.777
60.66000 0.519
60.68000 2.071
60.70000 1.698
60.72000 2.315
60.74000 1.142
60.76000 1.345
60.78000 -0.254
60.80000 1.579
60.82000 0.508
60.84000 -1.226
60.86000 -0.760
60.88000 0.646
60.90000 1.789
60.92000 1.150
60.94000 -2.283
60.96000 -0.590
60.98000 0.044
61.00000 -0.047
61.02000 1.288
61.04000 0.486
61.06000 1.904
61.08000 1.969
61.10000 2.184
61.12000 1.137
61.14000 -1.333
61.16000 -0.449
61.18000 0.454
61.20000 0.378
61.22000 3.535
61.24000 4.725
61.26000 1.936
61.28000 1.467
61.30000 -0.116
61.32000 0.542
61.34000 2.246
61.36000 2.640
61.38000 1.076
61.40000 2.025
61.42000 0.517
61.44000 -0.825
61.46000 -1.181
61.48000 2.612
61.50000 3.419
61.52000 2.051
61.54000 2.425
61.56000 -0.754
61.58000 -0.339
61.60000 0.570
61.62000 -1.049
61.64000 1.357
61.66000 5.361
61.68000 2.507
61.70000 0.412
61.72000 0.650
61.74000 0.189
61.76000 0.307
61.78000 2.980
61.80000 0.413
61.82000 1.005
61.84000 2.744
61.86000 3.402
61.88000 1.922
61.90000 2.866
61.92000 2.618
61.94000 1.084
61.96000 -0.593
61.98000 -1.995
62.00000 -0.591
62.02000 -0.676
62.04000 2.151
62.06000 3.671
62.08000 4.342
62.10000 4.037
62.12000 -1.438
62.14000 -1.283
62.16000 2.258
62.18000 1.251
62.20000 1.148
62.22000 -2.204
62.24000 -1.186
62.26000 2.002
62.28000 2.095
62.30000 2.470
62.32000 1.551
62.34000 0.913
62.36000 4.462
62.38000 1.856
62.40000 -0.305
62.42000 -0.044
62.44000 1.831
62.46000 0.759
62.48000 1.723
62.50000 1.558
62.52000 -1.434
62.54000 0.531
62.56000 1.736
62.58000 2.101
62.60000 0.918
62.62000 1.796
62.64000 1.392
62.66000 0.892
62.68000 0.102
62.70000 -1.356
62.72000 -2.099
62.74000 1.032
62.76000 1.653
62.78000 1.764
62.80000 1.952
62.82000 2.759
62.84000 1.202
62.86000 -1.205
62.88000 1.817
62.90000 4.792
62.92000 6.551
62.94000 3.381
62.96000 2.576
62.98000 0.982
63.00000 0.623
63.02000 2.711
63.04000 2.891
63.06000 1.398
63.08000 -0.293
63.10000 -0.644
63.12000 0.790
63.14000 2.385
63.16000 3.102
63.18000 3.385
63.20000 -0.126
63.22000 -1.388
63.24000 0.959
63.26000 2.773
63.28000 0.484
63.30000 0.893
63.32000 2.370
63.34000 3.951
63.36000 4.976
63.38000 3.258
63.40000 3.426
63.42000 -1.336
63.44000 -1.861
63.46000 -0.215
63.48000 3.834
63.50000 1.296
63.52000 2.174
63.54000 2.133
63.56000 2.957
63.58000 -0.254
63.60000 3.048
63.62000 3.860
63.64000 4.311
63.66000 2.773
63.68000 2.410
63.70000 4.052
63.72000 3.357
63.74000 0.865
63.76000 -0.001
63.78000 -2.168
63.80000 0.187
63.82000 4.706
63.84000 1.199
63.86000 2.236
63.88000 4.873
63.90000 2.779
63.92000 4.761
63.94000 3.831
63.96000 5.721
63.98000 6.246
64.00000 4.265
64.02000 2.899
64.04000 1.435
64.06000 1.245
64.08000 3.081
64.10000 3.305
64.12000 1.040
64.14000 2.824
64.16000 4.347
64.18000 0.345
64.20000 2.950
64.22000 6.626
64.24000 6.460
64.26000 3.187
64.28000 2.402
64.30000 2.445
64.32000 1.927
64.34000 1.788
64.36000 0.893
64.38000 -1.160
64.40000 3.095
64.42000 2.377
64.44000 0.386
64.46000 -0.634
64.48000 -1.066
64.50000 2.214
64.52000 0.300
64.54000 1.518
64.56000 1.702
64.58000 1.252
64.60000 0.384
64.62000 0.458
64.64000 0.415
64.66000 0.168
64.68000 1.101
64.70000 1.704
64.72000 1.015
64.74000 -0.190
64.76000 2.789
64.78000 0.949
64.80000 3.516
64.82000 3.027
64.84000 1.107
64.86000 -2.173
64.88000 -1.285
64.90000 1.168
64.92000 2.019
64.94000 1.814
64.96000 1.308
64.98000 2.265
65.00000 3.338
65.02000 4.076
65.04000 4.566
65.06000 -1.102
65.08000 -0.933
65.10000 1.348
65.12000 0.803
65.14000 1.203
65.16000 3.649
65.18000 -0.295
65.20000 -1.506
65.22000 0.268
65.24000 0.320
65.26000 2.151
65.28000 1.578
65.30000 2.470
65.32000 1.723
65.34000 0.376
65.36000 2.284
65.38000 1.430
65.40000 0.194
65.42000 1.757
65.44000 1.916
65.46000 1.727
65.48000 1.751
65.50000 2.454
65.52000 1.933
65.54000 -0.494
65.56000 0.155
65.58000 2.356
65.60000 2.055
65.62000 0.079
65.64000 0.072
65.66000 0.284
65.68000 1.057
65.70000 1.369
65.72000 1.545
65.74000 1.474
65.76000 -2.185
65.78000 -2.026
65.80000 -0.209
65.82000 1.358
65.84000 0.514
65.86000 -0.149
65.88000 1.627
65.90000 0.899
65.92000 -2.074
65.94000 -0.802
65.96000 0.666
65.98000 2.220
66.00000 2.883
66.02000 0.960
66.04000 -1.931
66.06000 0.090
66.08000 1.315
66.10000 3.406
66.12000 1.064
66.14000 -0.148
66.16000 -0.952
66.18000 -0.029
66.20000 -0.131
66.22000 -1.662
66.24000 1.083
66.26000 3.473
66.28000 3.992
66.30000 2.883
66.32000 2.803
66.34000 1.690
66.36000 1.667
66.38000 0.047
66.40000 -0.100
66.42000 -0.327
66.44000 0.241
66.46000 0.787
66.48000 0.798
66.50000 -0.798
66.52000 -0.756
66.54000 0.935
66.56000 3.036
66.58000 1.732
66.60000 0.547
66.62000 -0.039
66.64000 1.287
66.66000 1.426
66.68000 1.155
66.70000 3.037
66.72000 1.046
66.74000 2.901
66.76000 2.018
66.78000 0.340
66.80000 -2.173
66.82000 2.149
66.84000 2.667
66.86000 0.515
66.88000 -0.847
66.90000 1.355
66.92000 0.379
66.94000 -0.140
66.96000 2.359
66.98000 2.219
67.00000 0.833
67.02000 2.489
67.04000 0.764
67.06000 -1.443
67.08000 0.277
67.10000 -0.209
67.12000 -1.222
67.14000 -1.162
67.16000 -0.453
67.18000 -1.575
67.20000 -2.196
67.22000 -0.793
67.24000 -0.402
67.26000 -0.342
67.28000 2.842
67.30000 3.400
67.32000 -1.039
67.34000 -0.910
67.36000 0.671
67.38000 -1.390
67.40000 -2.236
67.42000 -1.907
67.44000 -1.005
67.46000 -0.580
67.48000 -1.008
67.50000 -0.163
67.52000 1.471
67.54000 1.510
67.56000 1.225
67.58000 0.699
67.60000 1.338
67.62000 1.112
67.64000 1.701
67.66000 1.610
67.68000 0.719
67.70000 2.181
67.72000 1.995
67.74000 2.855
67.76000 3.041
67.78000 0.524
67.80000 1.840
67.82000 2.969
67.84000 2.523
67.86000 6.539
67.88000 5.291
67.90000 1.670
67.92000 5.490
67.94000 8.301
67.96000 7.072
67.98000 5.505
68.00000 6.983
68.02000 6.841
68.04000 7.821
68.06000 8.830
68.08000 7.082
68.10000 9.481
68.12000 10.185
68.14000 9.979
68.16000 10.861
68.18000 13.365
68.20000 15.454
68.22000 17.480
68.24000 19.709
68.26000 15.196
68.28000 14.612
68.30000 15.400
68.32000 18.312
68.34000 17.647
68.36000 16.204
68.38000 14.597
68.40000 18.052
68.42000 19.778
68.44000 21.682
68.46000 25.255
68.48000 23.823
68.50000 24.757
68.52000 25.119
68.54000 23.630
68.56000 25.263
68.58000 25.429
68.60000 25.286
68.62000 26.324
68.64000 28.617
68.66000 26.378
68.68000 24.086
68.70000 24.816
68.72000 28.554
68.74000 26.953
68.76000 24.300
68.78000 24.573
68.80000 23.510
68.82000 25.211
68.84000 24.368
68.86000 23.783
68.88000 24.613
68.90000 23.621
68.92000 19.208
68.94000 21.492
68.96000 23.117
68.98000 22.642
69.00000 19.714
69.02000 19.545
69.04000 18.275
69.06000 18.120
69.08000 18.940
69.10000 14.553
69.12000 14.968
69.14000 12.022
69.16000 15.646
69.18000 17.387
69.20000 15.712
69.22000 13.579
69.24000 12.672
69.26000 10.880
69.28000 9.167
69.30000 6.607
69.32000 6.666
69.34000 8.982
69.36000 6.665
69.38000 6.105
69.40000 5.075
69.42000 4.375
69.44000 6.650
69.46000 6.678
69.48000 4.410
69.50000 5.893
69.52000 5.356
69.54000 1.391
69.56000 0.521
69.58000 1.341
69.60000 0.704
69.62000 2.898
69.64000 2.637
69.66000 -0.193
69.68000 0.791
69.70000 2.029
69.72000 0.518
69.74000 0.468
69.76000 -2.176
69.78000 -1.509
69.80000 0.730
69.82000 3.630
69.84000 -0.043
69.86000 0.641
69.88000 0.907
69.90000 -1.724
69.92000 1.941
69.94000 1.130
69.96000 0.466
69.98000 -1.583
70.00000 -0.883
70.02000 -1.553
70.04000 -1.210
70.06000 -0.269
70.08000 -2.124
70.10000 -0.027
70.12000 -0.563
70.14000 0.642
70.16000 -1.380
70.18000 -0.208
70.20000 -0.410
70.22000 -1.469
70.24000 0.944
70.26000 -0.324
70.28000 -0.110
70.30000 -0.466
70.32000 0.178
70.34000 2.714
70.36000 -0.721
70.38000 -0.043
70.40000 -2.077
70.42000 -1.856
70.44000 -1.306
70.46000 -2.072
70.48000 0.282
70.50000 1.444
70.52000 -0.596
70.54000 0.341
70.56000 0.942
70.58000 -1.348
70.60000 0.040
70.62000 1.664
70.64000 -1.498
70.66000 -0.049
70.68000 -0.746
70.70000 -1.680
70.72000 0.118
70.74000 2.177
70.76000 2.944
70.78000 -0.934
70.80000 -0.998
70.82000 1.117
70.84000 1.306
70.86000 -2.040
70.88000 -1.374
70.90000 0.532
70.92000 -0.499
70.94000 0.018
70.96000 -2.032
70.98000 0.018
71.00000 -1.387
71.02000 -0.639
71.04000 1.721
71.06000 0.050
71.08000 -0.926
71.10000 -1.158
71.12000 0.224
71.14000 0.903
71.16000 0.275
71.18000 -1.653
71.20000 -1.573
71.22000 0.050
71.24000 1.700
71.26000 2.551
71.28000 0.404
71.30000 2.285
71.32000 2.746
71.34000 2.474
71.36000 0.028
71.38000 -0.328
71.40000 4.149
71.42000 2.844
71.44000 0.258
71.46000 -1.012
71.48000 -1.482
71.50000 -1.973
71.52000 3.064
71.54000 5.213
71.56000 3.404
71.58000 0.297
71.60000 0.120
71.62000 -0.229
71.64000 -1.422
71.66000 -1.525
71.68000 0.659
71.70000 1.820
71.72000 2.644
71.74000 0.858
71.76000 1.477
71.78000 3.026
71.80000 2.431
71.82000 1.910
71.84000 0.443
71.86000 0.770
71.88000 -0.185
71.90000 1.160
71.92000 2.595
71.94000 2.934
71.96000 3.348
71.98000 3.704
72.00000 2.091
72.02000 2.215
72.04000 0.707
72.06000 -1.930
72.08000 -0.963
72.10000 3.801
72.12000 6.310
72.14000 3.719
72.16000 1.297
72.18000 2.379
72.20000 2.124
72.22000 0.534
72.24000 -1.265
72.26000 -1.910
72.28000 1.363
72.30000 2.396
72.32000 2.763
72.34000 3.576
72.36000 2.483
72.38000 2.989
72.40000 1.695
72.42000 1.711
72.44000 1.068
72.46000 3.239
72.48000 4.886
72.50000 2.846
72.52000 0.861
72.54000 0.529
72.56000 0.192
72.58000 0.326
72.60000 1.509
72.62000 3.197
72.64000 0.475
72.66000 -0.755
72.68000 0.537
72.70000 0.932
72.72000 1.192
72.74000 0.148
72.76000 -0.153
72.78000 0.606
72.80000 2.619
72.82000 2.476
72.84000 -0.749
72.86000 2.975
72.88000 2.539
72.90000 2.438
72.92000 1.183
72.94000 -0.028
72.96000 -0.466
72.98000 -1.905
73.00000 -1.124
73.02000 -0.851
73.04000 1.140
73.06000 3.817
73.08000 2.440
73.10000 3.658
73.12000 2.807
73.14000 2.507
73.16000 -0.698
73.18000 1.248
73.20000 0.754
73.22000 1.407
73.24000 0.461
73.26000 0.702
73.28000 1.133
73.30000 0.841
73.32000 1.172
73.34000 -0.599
73.36000 -1.072
73.38000 1.887
73.40000 0.033
73.42000 -1.908
73.44000 1.840
73.46000 -1.278
73.48000 0.405
73.50000 2.807
73.52000 1.820
73.54000 2.280
73.56000 2.568
73.58000 2.885
73.60000 4.398
73.62000 2.101
73.64000 3.469
73.66000 0.885
73.68000 -1.680
73.70000 -1.904
73.72000 -0.158
73.74000 3.904
73.76000 2.662
73.78000 1.497
73.80000 0.965
73.82000 2.698
73.84000 1.117
73.86000 -0.674
73.88000 0.113
73.90000 2.211
73.92000 1.871
73.94000 3.577
73.96000 -0.535
73.98000 -0.108
74.00000 -1.914
74.02000 -0.254
74.04000 0.359
74.06000 1.052
74.08000 2.711
74.10000 0.419
74.12000 0.957
74.14000 0.064
74.16000 0.443
74.18000 2.273
74.20000 2.814
74.22000 1.512
74.24000 0.897
74.26000 -0.840
74.28000 -1.167
74.30000 -0.561
74.32000 0.398
74.34000 3.801
74.36000 2.128
74.38000 1.847
74.40000 0.236
74.42000 -0.007
74.44000 0.751
74.46000 -0.621
74.48000 0.271
74.50000 1.177
74.52000 2.072
74.54000 3.000
74.56000 2.076
74.58000 1.130
74.60000 -1.910
74.62000 -0.248
74.64000 0.162
74.66000 0.324
74.68000 0.673
74.70000 2.242
74.72000 0.608
74.74000 -0.270
74.76000 -1.903
74.78000 0.039
74.80000 0.707
74.82000 0.725
74.84000 0.975
74.86000 3.423
74.88000 1.063
74.90000 0.898
74.92000 3.406
74.94000 3.970
74.96000 2.337
74.98000 2.019
75.00000 2.928
75.02000 1.871
75.04000 1.379
75.06000 0.337
75.08000 -1.888
75.10000 -1.412
75.12000 0.532
75.14000 1.122
75.16000 1.472
75.18000 0.275
75.20000 -0.378
75.22000 0.342
75.24000 3.214
75.26000 4.949
75.28000 1.662
75.30000 0.523
75.32000 1.839
75.34000 3.844
75.36000 3.934
75.38000 3.794
75.40000 0.765
75.42000 0.468
75.44000 0.902
75.46000 1.072
75.48000 3.084
75.50000 2.764
75.52000 0.775
75.54000 -0.069
75.56000 -0.760
75.58000 3.075
75.60000 2.365
75.62000 1.906
75.64000 -1.875
75.66000 0.110
75.68000 3.324
75.70000 3.236
75.72000 2.741
75.74000 3.982
75.76000 6.547
75.78000 2.713
75.80000 1.165
75.82000 3.086
75.84000 3.287
75.86000 2.440
75.88000 2.679
75.90000 3.785
75.92000 2.942
75.94000 1.456
75.96000 1.225
75.98000 2.194
76.00000 2.457
76.02000 3.320
76.04000 2.210
76.06000 0.931
76.08000 1.687
76.10000 1.086
76.12000 -0.330
76.14000 0.415
76.16000 0.839
76.18000 1.469
76.20000 -0.279
76.22000 0.812
76.24000 -0.053
76.26000 1.648
76.28000 1.233
76.30000 0.637
76.32000 -1.401
76.34000 -0.412
76.36000 -1.361
76.38000 1.064
76.40000 1.224
76.42000 3.180
76.44000 1.250
76.46000 0.427
76.48000 0.694
76.50000 0.666
76.52000 -1.046
76.54000 -1.057
76.56000 0.162
76.58000 -0.900
76.60000 -1.676
76.62000 0.441
76.64000 -0.021
76.66000 0.092
76.68000 0.125
76.70000 0.606
76.72000 1.942
76.74000 1.845
76.76000 0.681
76.78000 -0.892
76.80000 1.016
76.82000 2.178
76.84000 -0.485
76.86000 -0.945
76.88000 -1.914
76.90000 1.552
76.92000 1.870
76.94000 1.195
76.96000 1.400
76.98000 0.415
77.00000 1.224
77.02000 -0.073
77.04000 0.322
77.06000 0.497
77.08000 1.581
77.10000 3.261
77.12000 2.871
77.14000 1.548
77.16000 0.211
77.18000 -1.309
77.20000 -0.960
77.22000 0.037
77.24000 -0.141
77.26000 -0.109
77.28000 0.264
77.30000 -0.341
77.32000 1.408
77.34000 0.695
77.36000 2.235
77.38000 2.612
77.40000 3.504
77.42000 2.888
77.44000 0.634
77.46000 1.009
77.48000 2.224
77.50000 3.510
77.52000 1.524
77.54000 1.297
77.56000 4.252
77.58000 1.137
77.60000 0.545
77.62000 0.655
77.64000 1.629
77.66000 1.599
77.68000 5.350
77.70000 4.469
77.72000 2.830
77.74000 0.875
77.76000 0.918
77.78000 -1.934
77.80000 -0.409
77.82000 1.734
77.84000 1.498
77.86000 0.174
77.88000 -0.579
77.90000 -0.618
77.92000 1.847
77.94000 0.939
77.96000 -0.194
77.98000 0.021
78.00000 2.310
78.02000 1.365
78.04000 2.413
78.06000 1.729
78.08000 -1.716
78.10000 -1.926
78.12000 -0.298
78.14000 1.440
78.16000 0.600
78.18000 1.007
78.20000 0.891
78.22000 1.567
78.24000 0.076
78.26000 -1.919
78.28000 -1.508
78.30000 -1.836
78.32000 -0.569
78.34000 2.096
78.36000 1.404
78.38000 3.008
78.40000 2.582
78.42000 3.809
78.44000 1.943
78.46000 1.982
78.48000 1.187
78.50000 -1.920
78.52000 2.268
78.54000 3.324
78.56000 0.109
78.58000 2.135
78.60000 2.551
78.62000 1.684
78.64000 1.546
78.66000 4.148
78.68000 3.261
78.70000 3.241
78.72000 3.491
78.74000 1.627
78.76000 4.567
78.78000 0.117
78.80000 0.600
78.82000 1.415
78.84000 3.564
78.86000 1.544
78.88000 2.692
78.90000 2.460
78.92000 2.579
78.94000 3.294
78.96000 5.345
78.98000 -0.188
79.00000 -1.926
79.02000 0.556
79.04000 4.777
79.06000 3.760
79.08000 5.913
79.10000 3.760
79.12000 3.807
79.14000 2.247
79.16000 2.581
79.18000 0.946
79.20000 -0.388
79.22000 0.136
79.24000 -0.288
79.26000 2.152
79.28000 5.242
79.30000 1.528
79.32000 -1.748
79.34000 0.732
79.36000 0.422
79.38000 -1.936
79.40000 -1.644
79.42000 -0.502
79.44000 1.148
79.46000 0.302
79.48000 0.910
79.50000 1.605
79.52000 2.405
79.54000 1.817
79.56000 1.937
79.58000 3.638
79.60000 2.385
79.62000 3.518
79.64000 3.334
79.66000 3.176
79.68000 1.111
79.70000 0.630
79.72000 -0.372
79.74000 -0.790
79.76000 2.873
79.78000 4.491
79.80000 3.323
79.82000 -1.935
79.84000 -0.379
79.86000 4.235
79.88000 2.555
79.90000 0.122
79.92000 0.260
79.94000 3.847
79.96000 4.567
79.98000 4.139
80.00000 4.989
80.02000 5.990
80.04000 2.303
80.06000 -0.590
80.08000 -1.430
80.10000 0.582
80.12000 1.658
80.14000 1.042
80.16000 2.097
80.18000 3.091
80.20000 1.650
80.22000 0.756
80.24000 0.209
80.26000 -1.306
80.28000 -1.136
80.30000 0.472
80.32000 0.581
80.34000 1.449
80.36000 0.540
80.38000 1.382
80.40000 2.700
80.42000 5.486
80.44000 4.221
80.46000 2.993
80.48000 0.822
80.50000 3.093
80.52000 0.768
80.54000 3.786
80.56000 1.564
80.58000 1.636
80.60000 1.444
80.62000 0.988
80.64000 2.459
80.66000 3.161
80.68000 3.757
80.70000 1.281
80.72000 1.607
80.74000 0.796
80.76000 0.244
80.78000 0.296
80.80000 -0.076
80.82000 2.549
80.84000 2.035
80.86000 2.184
80.88000 2.471
80.90000 2.159
80.92000 3.587
80.94000 3.126
80.96000 1.988
80.98000 0.706
81.00000 4.715
81.02000 0.896
81.04000 3.141
81.06000 -0.574
81.08000 -0.585
81.10000 -2.034
81.12000 -1.381
81.14000 0.104
81.16000 -0.450
81.18000 1.770
81.20000 -0.955
81.22000 0.025
81.24000 0.034
81.26000 2.724
81.28000 3.209
81.30000 2.069
81.32000 4.738
81.34000 4.004
81.36000 2.568
81.38000 1.884
81.40000 2.119
81.42000 0.454
81.44000 2.427
81.46000 0.926
81.48000 1.801
81.50000 5.255
81.52000 3.805
81.54000 4.848
81.56000 5.397
81.58000 4.427
81.60000 3.673
81.62000 4.265
81.64000 4.646
81.66000 2.842
81.68000 6.417
81.70000 7.756
81.72000 7.412
81.74000 6.239
81.76000 5.404
81.78000 5.917
81.80000 8.304
81.82000 10.494
81.84000 10.276
81.86000 10.840
81.88000 8.211
81.90000 10.669
81.92000 11.274
81.94000 8.920
81.96000 10.355
81.98000 12.082
82.00000 13.772
82.02000 15.264
82.04000 11.984
82.06000 12.381
82.08000 14.465
82.10000 13.925
82.12000 15.135
82.14000 13.358
82.16000 13.951
82.18000 13.823
82.20000 17.307
82.22000 16.550
82.24000 16.848
82.26000 14.653
82.28000 19.351
82.30000 22.056
82.32000 22.754
82.34000 21.398
82.36000 22.733
82.38000 22.129
82.40000 22.928
82.42000 26.465
82.44000 32.404
82.46000 31.320
82.48000 27.826
82.50000 32.202
82.52000 35.219
82.54000 35.380
82.56000 35.226
82.58000 36.446
82.60000 34.155
82.62000 34.977
82.64000 37.821
82.66000 38.060
82.68000 40.749
82.70000 38.292
82.72000 43.722
82.74000 45.600
82.76000 46.829
82.78000 49.948
82.80000 46.207
82.82000 42.043
82.84000 41.232
82.86000 44.256
82.88000 48.664
82.90000 44.831
82.92000 40.204
82.94000 41.511
82.96000 45.711
82.98000 43.554
83.00000 43.479
83.02000 43.312
83.04000 43.125
83.06000 47.021
83.08000 44.511
83.10000 42.034
83.12000 40.117
83.14000 40.981
83.16000 42.853
83.18000 37.651
83.20000 36.008
83.22000 35.259
83.24000 34.891
83.26000 34.046
83.28000 34.138
83.30000 31.232
83.32000 27.673
83.34000 26.154
83.36000 23.935
83.38000 21.054
83.40000 20.163
83.42000 23.293
83.44000 21.482
83.46000 25.672
83.48000 27.788
83.50000 22.557
83.52000 18.413
83.54000 19.969
83.56000 21.301
83.58000 17.493
83.60000 18.917
83.62000 20.104
83.64000 17.452
83.66000 13.840
83.68000 14.884
83.70000 14.054
83.72000 13.282
83.74000 11.194
83.76000 11.861
83.78000 14.128
83.80000 7.834
83.82000 5.024
83.84000 4.711
83.86000 8.620
83.88000 9.258
83.90000 8.968
83.92000 7.379
83.94000 8.165
83.96000 8.776
83.98000 6.960
84.00000 6.539
84.02000 2.276
84.04000 3.457
84.06000 4.592
84.08000 4.444
84.10000 1.391
84.12000 1.927
84.14000 2.801
84.16000 -0.038
84.18000 -1.002
84.20000 2.487
84.22000 1.842
84.24000 1.479
84.26000 2.263
84.28000 1.860
84.30000 -1.113
84.32000 2.043
84.34000 3.374
84.36000 4.892
84.38000 2.365
84.40000 0.243
84.42000 1.919
84.44000 1.082
84.46000 -0.373
84.48000 -1.589
84.50000 0.115
84.52000 -1.675
84.54000 2.204
84.56000 -0.169
84.58000 -2.070
84.60000 0.334
84.62000 1.768
84.64000 -0.795
84.66000 2.213
84.68000 1.497
84.70000 3.717
84.72000 2.402
84.74000 2.577
84.76000 2.622
84.78000 3.243
84.80000 0.857
84.82000 2.128
84.84000 2.124
84.86000 3.075
84.88000 1.654
84.90000 2.080
84.92000 0.788
84.94000 0.753
84.96000 3.283
84.98000 4.357
85.00000 4.012
85.02000 3.097
85.04000 1.320
85.06000 0.087
85.08000 2.493
85.10000 4.104
85.12000 0.971
85.14000 -1.982
85.16000 2.807
85.18000 3.277
85.20000 1.160
85.22000 0.848
85.24000 4.967
85.26000 3.241
85.28000 1.688
85.30000 2.041
85.32000 3.009
85.34000 -0.631
85.36000 -1.821
85.38000 3.819
85.40000 6.566
85.42000 2.532
85.44000 4.900
85.46000 -0.862
85.48000 -0.058
85.50000 0.470
85.52000 3.038
85.54000 1.950
85.56000 5.104
85.58000 3.191
85.60000 3.193
85.62000 2.241
85.64000 -0.626
85.66000 -0.722
85.68000 1.045
85.70000 1.903
85.72000 -1.177
85.74000 -1.673
85.76000 0.812
85.78000 3.439
85.80000 5.378
85.82000 4.230
85.84000 -0.785
85.86000 0.718
85.88000 1.785
85.90000 -1.171
85.92000 -2.007
85.94000 1.971
85.96000 4.802
85.98000 2.853
86.00000 2.616
86.02000 4.108
86.04000 6.451
86.06000 3.146
86.08000 -0.812
86.10000 0.461
86.12000 3.561
86.14000 2.785
86.16000 0.203
86.18000 2.342
86.20000 3.680
86.22000 5.057
86.24000 6.277
86.26000 4.281
86.28000 4.039
86.30000 7.107
86.32000 4.717
86.34000 4.514
86.36000 6.791
86.38000 7.752
86.40000 8.474
86.42000 8.042
86.44000 5.535
86.46000 4.600
86.48000 6.777
86.50000 9.594
86.52000 8.311
86.54000 7.512
86.56000 9.684
86.58000 11.462
86.60000 12.786
86.62000 15.178
86.64000 11.690
86.66000 13.349
86.68000 14.309
86.70000 16.460
86.72000 12.982
86.74000 11.545
86.76000 14.179
86.78000 15.335
86.80000 14.530
86.82000 16.265
86.84000 15.971
86.86000 19.614
86.88000 21.825
86.90000 20.628
86.92000 20.067
86.94000 23.418
86.96000 22.650
86.98000 21.597
87.00000 28.520
87.02000 28.447
87.04000 30.263
87.06000 30.374
87.08000 29.052
87.10000 25.551
87.12000 24.703
87.14000 27.728
87.16000 28.700
87.18000 30.229
87.20000 32.528
87.22000 31.040
87.24000 33.745
87.26000 32.728
87.28000 28.189
87.30000 30.036
87.32000 29.108
87.34000 30.143
87.36000 32.872
87.38000 32.570
87.40000 33.358
87.42000 33.612
87.44000 30.647
87.46000 28.511
87.48000 29.585
87.50000 33.274
87.52000 35.172
87.54000 34.532
87.56000 28.713
87.58000 30.714
87.60000 31.586
87.62000 28.081
87.64000 25.472
87.66000 21.056
87.68000 22.906
87.70000 26.006
87.72000 25.357
87.74000 24.095
87.76000 21.619
87.78000 23.138
87.80000 20.745
87.82000 18.449
87.84000 15.815
87.86000 16.929
87.88000 16.686
87.90000 16.422
87.92000 14.110
87.94000 15.532
87.96000 17.934
87.98000 13.902
88.00000 17.353
88.02000 13.783
88.04000 10.965
88.06000 9.868
88.08000 9.750
88.10000 13.296
88.12000 12.448
88.14000 12.592
88.16000 7.547
88.18000 4.771
88.20000 7.369
88.22000 7.164
88.24000 8.388
88.26000 6.787
88.28000 7.081
88.30000 8.362
88.32000 8.857
88.34000 10.154
88.36000 10.205
88.38000 8.686
88.40000 4.718
88.42000 2.660
88.44000 1.351
88.46000 5.259
88.48000 4.747
88.50000 1.018
88.52000 2.269
88.54000 4.680
88.56000 2.124
88.58000 2.948
88.60000 4.397
88.62000 3.588
88.64000 2.364
88.66000 3.907
88.68000 5.901
88.70000 6.955
88.72000 5.005
88.74000 2.326
88.76000 -1.908
88.78000 -0.550
88.80000 1.985
88.82000 2.865
88.84000 0.482
88.86000 2.153
88.88000 4.604
88.90000 4.568
88.92000 2.798
88.94000 2.676
88.96000 6.827
88.98000 4.228
89.00000 2.498
89.02000 2.145
89.04000 3.086
89.06000 2.684
89.08000 0.766
89.10000 2.936
89.12000 3.015
89.14000 3.369
89.16000 4.536
89.18000 3.514
89.20000 2.228
89.22000 3.443
89.24000 3.200
89.26000 3.003
89.28000 3.024
89.30000 -0.783
89.32000 -1.861
89.34000 -0.799
89.36000 0.762
89.38000 0.903
89.40000 2.470
89.42000 3.063
89.44000 2.874
89.46000 4.121
89.48000 2.750
89.50000 -1.188
89.52000 -1.846
89.54000 1.255
89.56000 2.320
89.58000 3.037
89.60000 1.174
89.62000 3.415
89.64000 1.586
89.66000 2.392
89.68000 1.624
89.70000 0.303
89.72000 1.608
89.74000 1.980
89.76000 1.469
89.78000 0.642
89.80000 1.102
89.82000 4.186
89.84000 3.536
89.86000 3.110
89.88000 2.629
89.90000 2.065
89.92000 0.310
89.94000 -1.523
89.96000 -0.376
89.98000 0.337
90.00000 0.182
90.02000 0.904
90.04000 2.602
90.06000 3.603
90.08000 4.229
90.10000 0.737
90.12000 4.209
90.14000 1.748
90.16000 1.771
90.18000 0.878
90.20000 2.534
90.22000 6.378
90.24000 4.553
90.26000 0.179
90.28000 2.847
90.30000 1.501
90.32000 -1.809
90.34000 -0.468
90.36000 2.243
90.38000 2.940
90.40000 -0.910
90.42000 0.672
90.44000 -0.832
90.46000 -0.484
90.48000 2.707
90.50000 4.837
90.52000 6.740
90.54000 1.986
90.56000 3.976
90.58000 3.550
90.60000 2.681
90.62000 2.621
90.64000 0.316
90.66000 0.975
90.68000 0.880
90.70000 1.123
90.72000 2.571
90.74000 3.237
90.76000 3.317
90.78000 1.845
90.80000 2.555
90.82000 4.015
90.84000 3.027
90.86000 1.598
90.88000 2.642
90.90000 4.664
90.92000 3.343
90.94000 2.740
90.96000 3.700
90.98000 2.472
91.00000 3.752
91.02000 2.359
91.04000 -1.777
91.06000 1.642
91.08000 0.803
91.10000 1.982
91.12000 2.903
91.14000 1.610
91.16000 3.427
91.18000 4.076
91.20000 3.193
91.22000 2.616
91.24000 2.676
91.26000 4.133
91.28000 0.743
91.30000 0.261
91.32000 1.619
91.34000 2.479
91.36000 4.570
91.38000 -0.080
91.40000 0.533
91.42000 3.963
91.44000 3.135
91.46000 2.371
91.48000 5.613
91.50000 4.524
91.52000 0.297
91.54000 0.338
91.56000 0.392
91.58000 2.112
91.60000 3.298
91.62000 1.708
91.64000 3.089
91.66000 1.918
91.68000 0.194
91.70000 -1.095
91.72000 -1.753
91.74000 -1.098
91.76000 0.083
91.78000 1.580
91.80000 1.767
91.82000 0.796
91.84000 -0.196
91.86000 -0.347
91.88000 2.730
91.90000 1.622
91.92000 0.220
91.94000 -1.167
91.96000 -0.465
91.98000 0.704
92.00000 0.240
92.02000 3.335
92.04000 3.063
92.06000 3.185
92.08000 3.506
92.10000 0.412
92.12000 -1.430
92.14000 1.901
92.16000 1.692
92.18000 1.970
92.20000 0.903
92.22000 -1.641
92.24000 -1.601
92.26000 -1.834
92.28000 2.836
92.30000 4.167
92.32000 2.956
92.34000 1.746
92.36000 -0.951
92.38000 -0.301
92.40000 1.145
92.42000 1.567
92.44000 1.257
92.46000 1.349
92.48000 1.915
92.50000 1.950
92.52000 1.101
92.54000 0.728
92.56000 1.392
92.58000 0.756
92.60000 2.798
92.62000 0.549
92.64000 -0.636
92.66000 2.765
92.68000 1.919
92.70000 3.289
92.72000 4.770
92.74000 5.627
92.76000 5.698
92.78000 1.585
92.80000 0.980
92.82000 -1.169
92.84000 -1.029
92.86000 1.475
92.88000 4.036
92.90000 3.119
92.92000 0.479
92.94000 -0.765
92.96000 0.353
92.98000 1.161
93.00000 -1.807
93.02000 2.166
93.04000 4.837
93.06000 2.533
93.08000 0.678
93.10000 3.608
93.12000 1.907
93.14000 -1.571
93.16000 -0.401
93.18000 -0.254
93.20000 -0.158
93.22000 1.792
93.24000 3.235
93.26000 3.187
93.28000 1.002
93.30000 -1.443
93.32000 1.275
93.34000 1.787
93.36000 1.988
93.38000 -0.481
93.40000 0.397
93.42000 0.611
93.44000 0.844
93.46000 3.455
93.48000 4.591
93.50000 0.105
93.52000 -1.806
93.54000 0.049
93.56000 -0.595
93.58000 0.360
93.60000 3.063
93.62000 2.285
93.64000 2.431
93.66000 0.456
93.68000 0.379
93.70000 1.544
93.72000 1.930
93.74000 1.493
93.76000 0.837
93.78000 0.807
93.80000 3.257
93.82000 1.208
93.84000 -0.407
93.86000 1.032
93.88000 3.987
93.90000 4.170
93.92000 1.204
93.94000 3.353
93.96000 5.428
93.98000 4.373
94.00000 0.530
94.02000 3.085
94.04000 4.008
94.06000 2.068
94.08000 -1.810
94.10000 -0.474
94.12000 4.939
94.14000 5.496
94.16000 3.714
94.18000 0.691
94.20000 -1.488
94.22000 -1.818
94.24000 0.124
94.26000 0.768
94.28000 -0.287
94.30000 0.777
94.32000 -0.083
94.34000 0.941
94.36000 -1.254
94.38000 0.039
94.40000 -0.579
94.42000 -0.044
94.44000 0.576
94.46000 0.195
94.48000 1.108
94.50000 1.622
94.52000 2.547
94.54000 2.720
94.56000 -0.189
94.58000 0.281
94.60000 1.627
94.62000 0.063
94.64000 -1.600
94.66000 0.652
94.68000 5.401
94.70000 2.914
94.72000 -0.957
94.74000 -0.467
94.76000 1.643
94.78000 2.234
94.80000 3.084
94.82000 0.676
94.84000 -1.014
94.86000 -1.837
94.88000 0.226
94.90000 0.210
94.92000 3.306
94.94000 3.111
94.96000 3.652
94.98000 -0.355
95.00000 -1.440
95.02000 -0.484
95.04000 0.988
95.06000 -0.794
95.08000 2.208
95.10000 5.211
95.12000 3.324
95.14000 1.253
95.16000 -0.027
95.18000 4.236
95.20000 0.850
95.22000 -0.737
95.24000 1.608
95.26000 4.782
95.28000 0.710
95.30000 5.343
95.32000 4.570
95.34000 1.911
95.36000 1.619
95.38000 1.497
95.40000 -0.111
95.42000 -0.901
95.44000 0.446
95.46000 2.323
95.48000 3.030
95.50000 2.036
95.52000 2.703
95.54000 6.236
95.56000 2.990
95.58000 -0.442
95.60000 1.811
95.62000 3.337
95.64000 3.189
95.66000 0.586
95.68000 -0.440
95.70000 4.864
95.72000 3.162
95.74000 4.920
95.76000 5.547
95.78000 4.323
95.80000 0.135
95.82000 3.075
95.84000 7.382
95.86000 7.139
95.88000 4.563
95.90000 0.701
95.92000 1.057
95.94000 3.101
95.96000 3.071
95.98000 5.828
96.00000 4.246
96.02000 8.077
96.04000 5.803
96.06000 4.882
96.08000 -1.747
96.10000 -0.342
96.12000 6.061
96.14000 5.327
96.16000 5.717
96.18000 4.750
96.20000 4.795
96.22000 5.099
96.24000 6.553
96.26000 5.421
96.28000 5.451
96.30000 5.353
96.32000 3.634
96.34000 3.984
96.36000 3.534
96.38000 3.665
96.40000 4.826
96.42000 6.889
96.44000 6.367
96.46000 4.273
96.48000 1.049
96.50000 4.631
96.52000 2.373
96.54000 1.981
96.56000 3.125
96.58000 4.189
96.60000 4.094
96.62000 4.973
96.64000 5.512
96.66000 3.537
96.68000 0.228
96.70000 -1.319
96.72000 1.934
96.74000 4.138
96.76000 3.572
96.78000 2.013
96.80000 1.676
96.82000 6.340
96.84000 5.728
96.86000 8.504
96.88000 4.491
96.90000 0.453
96.92000 1.187
96.94000 3.545
96.96000 1.908
96.98000 5.463
97.00000 8.391
97.02000 7.281
97.04000 6.434
97.06000 7.297
97.08000 5.417
97.10000 4.811
97.12000 4.411
97.14000 2.309
97.16000 0.419
97.18000 -0.859
97.20000 -0.133
97.22000 -0.286
97.24000 0.292
97.26000 1.743
97.28000 0.594
97.30000 0.510
97.32000 -1.092
97.34000 -1.323
97.36000 3.501
97.38000 2.542
97.40000 3.487
97.42000 6.031
97.44000 2.288
97.46000 3.314
97.48000 2.457
97.50000 4.219
97.52000 6.999
97.54000 2.787
97.56000 8.417
97.58000 3.766
97.60000 2.814
97.62000 1.951
97.64000 3.257
97.66000 5.041
97.68000 5.340
97.70000 8.425
97.72000 8.375
97.74000 4.072
97.76000 3.729
97.78000 3.480
97.80000 3.107
97.82000 3.758
97.84000 5.360
97.86000 6.131
97.88000 5.769
97.90000 0.456
97.92000 5.209
97.94000 8.493
97.96000 6.953
97.98000 3.518
98.00000 5.536
98.02000 8.658
98.04000 8.323
98.06000 4.142
98.08000 2.471
98.10000 5.963
98.12000 4.764
98.14000 3.090
98.16000 0.544
98.18000 4.811
98.20000 4.683
98.22000 4.892
98.24000 3.281
98.26000 1.996
98.28000 -1.708
98.30000 2.258
98.32000 7.350
98.34000 4.213
98.36000 9.368
98.38000 5.759
98.40000 4.972
98.42000 5.119
98.44000 3.294
98.46000 3.001
98.48000 3.956
98.50000 3.736
98.52000 7.363
98.54000 3.111
98.56000 1.145
98.58000 5.649
98.60000 4.800
98.62000 2.488
98.64000 6.290
98.66000 2.334
98.68000 2.546
98.70000 0.531
98.72000 2.507
98.74000 1.091
98.76000 1.629
98.78000 3.537
98.80000 3.496
98.82000 0.802
98.84000 4.394
98.86000 6.049
98.88000 0.785
98.90000 -1.404
98.92000 4.392
98.94000 8.668
98.96000 6.572
98.98000 5.296
99.00000 0.916
99.02000 2.686
99.04000 7.488
99.06000 1.921
99.08000 2.272
99.10000 3.670
99.12000 2.847
99.14000 0.525
99.16000 1.268
99.18000 6.234
99.20000 3.863
99.22000 2.883
99.24000 -0.129
99.26000 -1.750
99.28000 -0.304
99.30000 6.467
99.32000 8.807
99.34000 5.252
99.36000 1.625
99.38000 4.152
99.40000 6.821
99.42000 6.024
99.44000 2.917
99.46000 -0.323
99.48000 3.451
99.50000 3.249
99.52000 1.993
99.54000 -1.756
99.56000 1.575
99.58000 3.671
99.60000 1.550
99.62000 9.649
99.64000 9.457
99.66000 7.785
99.68000 13.141
99.70000 6.415
99.72000 0.437
99.74000 -1.769
99.76000 3.665
99.78000 -0.078
99.80000 -0.633
99.82000 -1.305
99.84000 -0.109
99.86000 1.134
99.88000 -1.787
99.90000 2.216
99.92000 4.155
99.94000 -0.672
99.96000 -2.091
99.98000 0.000
