'Id: "0011388" Comment: "Integrate frame 0011388_Au-Ir-Rh_Rh-rich_XRD-Mapping-020-0000.gfrmwith cursor Wedge Cursor #5" Operator: "B?rgel" Anode: "Cu" Wavelength: "1.5406" Scantype: "2Theta (TwoTheta)" TimePerStep: "1" X: "13.5" Y: "-36" Z: "5.95" 
10.00000 0.000
10.02000 5.504
10.04000 -4.192
10.06000 -2.969
10.08000 2.309
10.10000 7.305
10.12000 10.645
10.14000 15.633
10.16000 11.269
10.18000 6.697
10.20000 -1.680
10.22000 9.334
10.24000 19.617
10.26000 3.298
10.28000 -2.373
10.30000 -4.111
10.32000 9.382
10.34000 28.624
10.36000 17.866
10.38000 9.945
10.40000 9.283
10.42000 15.977
10.44000 13.510
10.46000 11.999
10.48000 3.955
10.50000 -5.551
10.52000 16.041
10.54000 17.183
10.56000 13.541
10.58000 12.155
10.60000 20.447
10.62000 30.522
10.64000 19.053
10.66000 7.435
10.68000 8.610
10.70000 10.897
10.72000 23.602
10.74000 16.201
10.76000 4.102
10.78000 2.444
10.80000 6.794
10.82000 29.031
10.84000 22.707
10.86000 18.789
10.88000 16.411
10.90000 18.419
10.92000 19.371
10.94000 18.369
10.96000 18.111
10.98000 13.109
11.00000 17.283
11.02000 15.150
11.04000 7.334
11.06000 6.621
11.08000 29.019
11.10000 36.787
11.12000 17.583
11.14000 -2.290
11.16000 5.460
11.18000 17.951
11.20000 26.180
11.22000 14.356
11.24000 28.281
11.26000 25.853
11.28000 9.712
11.30000 14.634
11.32000 10.676
11.34000 12.551
11.36000 10.074
11.38000 19.486
11.40000 18.918
11.42000 21.221
11.44000 18.070
11.46000 21.110
11.48000 20.739
11.50000 -1.259
11.52000 5.250
11.54000 21.862
11.56000 24.693
11.58000 20.087
11.60000 16.409
11.62000 4.309
11.64000 2.303
11.66000 13.702
11.68000 10.040
11.70000 8.135
11.72000 10.704
11.74000 17.001
11.76000 18.537
11.78000 12.991
11.80000 20.660
11.82000 15.252
11.84000 13.225
11.86000 18.690
11.88000 9.337
11.90000 2.883
11.92000 21.036
11.94000 22.301
11.96000 14.884
11.98000 17.981
12.00000 11.796
12.02000 14.904
12.04000 14.365
12.06000 15.497
12.08000 15.344
12.10000 18.528
12.12000 15.567
12.14000 16.876
12.16000 14.690
12.18000 10.792
12.20000 7.320
12.22000 7.823
12.24000 11.134
12.26000 14.959
12.28000 15.092
12.30000 11.624
12.32000 13.245
12.34000 18.873
12.36000 12.063
12.38000 18.527
12.40000 19.011
12.42000 13.693
12.44000 6.729
12.46000 3.595
12.48000 8.562
12.50000 11.773
12.52000 15.860
12.54000 22.568
12.56000 26.799
12.58000 27.931
12.60000 21.640
12.62000 11.308
12.64000 15.564
12.66000 17.922
12.68000 5.143
12.70000 8.310
12.72000 22.281
12.74000 9.241
12.76000 8.251
12.78000 19.756
12.80000 11.042
12.82000 15.333
12.84000 22.811
12.86000 16.977
12.88000 9.257
12.90000 1.877
12.92000 11.556
12.94000 7.631
12.96000 5.938
12.98000 1.914
13.00000 7.763
13.02000 20.260
13.04000 20.503
13.06000 19.056
13.08000 3.762
13.10000 9.171
13.12000 17.566
13.14000 14.087
13.16000 15.613
13.18000 17.606
13.20000 25.176
13.22000 25.217
13.24000 18.116
13.26000 18.431
13.28000 12.068
13.30000 21.563
13.32000 25.437
13.34000 23.798
13.36000 20.048
13.38000 19.092
13.40000 13.051
13.42000 17.406
13.44000 22.098
13.46000 15.212
13.48000 14.683
13.50000 17.597
13.52000 17.099
13.54000 21.827
13.56000 16.060
13.58000 12.041
13.60000 3.755
13.62000 11.182
13.64000 16.334
13.66000 8.170
13.68000 16.135
13.70000 13.150
13.72000 18.383
13.74000 13.377
13.76000 10.712
13.78000 15.967
13.80000 17.776
13.82000 17.746
13.84000 14.938
13.86000 11.328
13.88000 20.232
13.90000 29.580
13.92000 16.546
13.94000 10.558
13.96000 17.844
13.98000 24.787
14.00000 22.411
14.02000 19.275
14.04000 14.373
14.06000 23.685
14.08000 25.698
14.10000 18.357
14.12000 14.955
14.14000 14.003
14.16000 7.693
14.18000 4.948
14.20000 7.478
14.22000 8.923
14.24000 9.395
14.26000 19.388
14.28000 13.642
14.30000 17.181
14.32000 13.887
14.34000 16.965
14.36000 19.961
14.38000 13.559
14.40000 13.916
14.42000 9.075
14.44000 13.396
14.46000 10.778
14.48000 13.101
14.50000 10.278
14.52000 10.641
14.54000 10.365
14.56000 12.205
14.58000 10.844
14.60000 18.140
14.62000 22.948
14.64000 22.261
14.66000 17.658
14.68000 10.786
14.70000 10.800
14.72000 11.334
14.74000 8.113
14.76000 10.706
14.78000 7.539
14.80000 8.933
14.82000 14.031
14.84000 14.139
14.86000 14.060
14.88000 6.663
14.90000 8.704
14.92000 14.708
14.94000 9.579
14.96000 0.929
14.98000 4.684
15.00000 17.145
15.02000 15.707
15.04000 10.521
15.06000 4.149
15.08000 6.941
15.10000 7.781
15.12000 15.809
15.14000 3.196
15.16000 14.194
15.18000 18.850
15.20000 18.721
15.22000 16.486
15.24000 21.594
15.26000 8.615
15.28000 21.260
15.30000 20.119
15.32000 8.460
15.34000 1.931
15.36000 0.911
15.38000 8.075
15.40000 6.524
15.42000 1.167
15.44000 19.151
15.46000 21.345
15.48000 16.461
15.50000 15.439
15.52000 21.638
15.54000 12.529
15.56000 8.683
15.58000 21.409
15.60000 12.877
15.62000 7.230
15.64000 4.593
15.66000 12.509
15.68000 18.345
15.70000 15.240
15.72000 8.961
15.74000 10.438
15.76000 13.795
15.78000 16.932
15.80000 14.728
15.82000 21.050
15.84000 11.803
15.86000 10.505
15.88000 9.323
15.90000 4.617
15.92000 7.767
15.94000 7.993
15.96000 6.044
15.98000 7.076
16.00000 3.604
16.02000 6.718
16.04000 15.518
16.06000 10.011
16.08000 8.935
16.10000 14.159
16.12000 15.165
16.14000 10.769
16.16000 6.477
16.18000 4.820
16.20000 7.964
16.22000 4.155
16.24000 -1.106
16.26000 6.366
16.28000 3.415
16.30000 -4.335
16.32000 5.740
16.34000 9.491
16.36000 6.389
16.38000 10.133
16.40000 14.788
16.42000 7.049
16.44000 3.448
16.46000 6.586
16.48000 11.350
16.50000 9.812
16.52000 7.653
16.54000 6.675
16.56000 8.787
16.58000 10.526
16.60000 11.200
16.62000 12.976
16.64000 8.551
16.66000 12.567
16.68000 15.194
16.70000 13.677
16.72000 4.974
16.74000 8.039
16.76000 11.124
16.78000 8.887
16.80000 7.233
16.82000 11.156
16.84000 13.629
16.86000 15.009
16.88000 7.497
16.90000 5.254
16.92000 7.838
16.94000 12.529
16.96000 7.849
16.98000 7.702
17.00000 11.504
17.02000 12.902
17.04000 7.470
17.06000 8.324
17.08000 10.113
17.10000 9.709
17.12000 8.437
17.14000 4.869
17.16000 6.886
17.18000 8.112
17.20000 10.703
17.22000 17.154
17.24000 11.684
17.26000 0.004
17.28000 3.540
17.30000 5.034
17.32000 15.428
17.34000 15.079
17.36000 12.653
17.38000 2.369
17.40000 0.331
17.42000 -1.223
17.44000 2.849
17.46000 6.174
17.48000 4.983
17.50000 4.743
17.52000 9.924
17.54000 9.686
17.56000 2.893
17.58000 1.626
17.60000 1.382
17.62000 4.283
17.64000 1.502
17.66000 1.047
17.68000 2.428
17.70000 11.201
17.72000 1.001
17.74000 -1.385
17.76000 3.727
17.78000 9.009
17.80000 10.949
17.82000 7.959
17.84000 7.661
17.86000 3.985
17.88000 0.448
17.90000 1.687
17.92000 4.992
17.94000 7.411
17.96000 7.432
17.98000 4.565
18.00000 5.078
18.02000 2.253
18.04000 -2.899
18.06000 5.474
18.08000 3.062
18.10000 5.512
18.12000 -0.883
18.14000 1.080
18.16000 4.690
18.18000 9.334
18.20000 7.079
18.22000 5.841
18.24000 8.546
18.26000 9.900
18.28000 12.932
18.30000 8.836
18.32000 6.189
18.34000 -3.310
18.36000 2.123
18.38000 -1.690
18.40000 -4.288
18.42000 2.132
18.44000 12.370
18.46000 10.768
18.48000 7.664
18.50000 -1.542
18.52000 -1.037
18.54000 2.117
18.56000 5.101
18.58000 4.662
18.60000 0.809
18.62000 7.870
18.64000 13.987
18.66000 10.504
18.68000 4.574
18.70000 1.391
18.72000 8.958
18.74000 1.096
18.76000 1.585
18.78000 3.359
18.80000 7.018
18.82000 -2.662
18.84000 -1.175
18.86000 6.198
18.88000 1.898
18.90000 6.131
18.92000 15.239
18.94000 8.498
18.96000 -0.746
18.98000 0.867
19.00000 7.506
19.02000 9.994
19.04000 17.423
19.06000 11.448
19.08000 -1.121
19.10000 -1.803
19.12000 0.115
19.14000 -1.069
19.16000 2.546
19.18000 7.185
19.20000 6.780
19.22000 5.068
19.24000 4.951
19.26000 6.894
19.28000 7.684
19.30000 5.897
19.32000 7.546
19.34000 5.400
19.36000 3.067
19.38000 1.056
19.40000 -0.065
19.42000 -1.346
19.44000 -0.342
19.46000 -4.201
19.48000 0.551
19.50000 4.603
19.52000 7.369
19.54000 3.198
19.56000 -2.315
19.58000 5.988
19.60000 5.784
19.62000 10.928
19.64000 5.911
19.66000 -0.598
19.68000 -1.378
19.70000 8.633
19.72000 5.764
19.74000 3.545
19.76000 7.023
19.78000 10.621
19.80000 7.817
19.82000 0.548
19.84000 2.187
19.86000 4.741
19.88000 6.795
19.90000 8.113
19.92000 9.090
19.94000 8.779
19.96000 9.128
19.98000 10.000
20.00000 4.106
20.02000 5.964
20.04000 10.500
20.06000 7.537
20.08000 1.067
20.10000 -3.398
20.12000 -4.163
20.14000 1.953
20.16000 9.619
20.18000 4.734
20.20000 1.519
20.22000 8.347
20.24000 2.251
20.26000 4.780
20.28000 8.890
20.30000 10.209
20.32000 6.307
20.34000 1.656
20.36000 3.547
20.38000 0.163
20.40000 2.925
20.42000 4.991
20.44000 12.443
20.46000 11.024
20.48000 4.658
20.50000 4.290
20.52000 7.965
20.54000 4.291
20.56000 -4.127
20.58000 -1.047
20.60000 -2.483
20.62000 4.270
20.64000 8.560
20.66000 8.346
20.68000 12.471
20.70000 10.103
20.72000 13.996
20.74000 11.347
20.76000 13.902
20.78000 16.587
20.80000 13.096
20.82000 13.901
20.84000 6.589
20.86000 -1.128
20.88000 1.359
20.90000 7.335
20.92000 6.036
20.94000 3.577
20.96000 -0.323
20.98000 2.616
21.00000 8.576
21.02000 5.127
21.04000 4.499
21.06000 10.333
21.08000 6.737
21.10000 2.314
21.12000 5.448
21.14000 3.651
21.16000 3.161
21.18000 3.607
21.20000 4.795
21.22000 4.766
21.24000 -1.128
21.26000 -0.988
21.28000 4.328
21.30000 11.682
21.32000 7.993
21.34000 7.215
21.36000 0.946
21.38000 -4.106
21.40000 1.274
21.42000 5.413
21.44000 8.722
21.46000 3.378
21.48000 2.429
21.50000 -0.412
21.52000 -1.691
21.54000 1.771
21.56000 2.265
21.58000 6.436
21.60000 1.528
21.62000 -1.285
21.64000 1.426
21.66000 -1.296
21.68000 3.532
21.70000 9.118
21.72000 -0.195
21.74000 3.534
21.76000 2.968
21.78000 2.198
21.80000 3.453
21.82000 1.031
21.84000 0.794
21.86000 2.883
21.88000 4.733
21.90000 7.855
21.92000 -0.669
21.94000 -2.042
21.96000 3.734
21.98000 7.267
22.00000 7.987
22.02000 10.235
22.04000 6.577
22.06000 6.060
22.08000 6.906
22.10000 4.308
22.12000 2.191
22.14000 0.527
22.16000 7.112
22.18000 8.869
22.20000 0.381
22.22000 -2.874
22.24000 -3.685
22.26000 -0.049
22.28000 2.598
22.30000 1.805
22.32000 1.549
22.34000 5.512
22.36000 -0.812
22.38000 -2.358
22.40000 1.982
22.42000 1.718
22.44000 3.339
22.46000 0.853
22.48000 -4.049
22.50000 -3.788
22.52000 1.070
22.54000 5.378
22.56000 0.528
22.58000 0.234
22.60000 7.140
22.62000 4.163
22.64000 1.683
22.66000 4.358
22.68000 0.436
22.70000 1.091
22.72000 6.942
22.74000 6.263
22.76000 10.788
22.78000 6.539
22.80000 8.425
22.82000 -0.234
22.84000 -4.032
22.86000 1.447
22.88000 -0.249
22.90000 2.081
22.92000 4.073
22.94000 2.466
22.96000 4.271
22.98000 5.453
23.00000 3.347
23.02000 1.382
23.04000 6.943
23.06000 11.552
23.08000 9.437
23.10000 3.724
23.12000 3.800
23.14000 6.424
23.16000 6.032
23.18000 4.756
23.20000 8.168
23.22000 1.589
23.24000 0.112
23.26000 4.560
23.28000 2.701
23.30000 2.066
23.32000 5.139
23.34000 4.853
23.36000 0.586
23.38000 1.807
23.40000 5.039
23.42000 5.127
23.44000 5.358
23.46000 2.140
23.48000 6.443
23.50000 11.329
23.52000 3.506
23.54000 -1.386
23.56000 0.338
23.58000 4.143
23.60000 3.380
23.62000 7.945
23.64000 3.514
23.66000 0.683
23.68000 5.884
23.70000 8.436
23.72000 9.410
23.74000 5.002
23.76000 7.067
23.78000 3.146
23.80000 -0.800
23.82000 -3.960
23.84000 -0.471
23.86000 9.327
23.88000 5.935
23.90000 6.380
23.92000 5.368
23.94000 6.916
23.96000 5.921
23.98000 6.144
24.00000 3.166
24.02000 5.008
24.04000 3.891
24.06000 5.997
24.08000 6.596
24.10000 -0.404
24.12000 -0.732
24.14000 6.005
24.16000 8.346
24.18000 8.171
24.20000 3.456
24.22000 3.625
24.24000 3.467
24.26000 1.702
24.28000 3.825
24.30000 2.043
24.32000 1.364
24.34000 6.071
24.36000 4.232
24.38000 1.019
24.40000 1.572
24.42000 0.398
24.44000 1.053
24.46000 2.288
24.48000 -0.037
24.50000 7.618
24.52000 10.499
24.54000 7.620
24.56000 -0.559
24.58000 -1.357
24.60000 6.292
24.62000 1.769
24.64000 0.959
24.66000 -1.672
24.68000 1.490
24.70000 2.527
24.72000 2.390
24.74000 7.600
24.76000 4.581
24.78000 -2.429
24.80000 -1.540
24.82000 2.442
24.84000 2.733
24.86000 2.033
24.88000 6.357
24.90000 5.765
24.92000 0.567
24.94000 -0.838
24.96000 1.633
24.98000 3.949
25.00000 3.552
25.02000 3.720
25.04000 -0.374
25.06000 0.395
25.08000 2.228
25.10000 0.264
25.12000 2.433
25.14000 0.501
25.16000 0.178
25.18000 4.395
25.20000 -2.103
25.22000 -0.952
25.24000 1.447
25.26000 2.998
25.28000 1.686
25.30000 0.672
25.32000 0.730
25.34000 1.049
25.36000 0.650
25.38000 4.263
25.40000 7.172
25.42000 9.109
25.44000 8.253
25.46000 3.125
25.48000 7.239
25.50000 4.284
25.52000 3.870
25.54000 1.373
25.56000 -2.124
25.58000 -2.209
25.60000 2.715
25.62000 -1.625
25.64000 3.029
25.66000 6.532
25.68000 3.095
25.70000 1.746
25.72000 -0.848
25.74000 -3.852
25.76000 -2.877
25.78000 2.855
25.80000 6.183
25.82000 4.540
25.84000 4.545
25.86000 4.712
25.88000 5.024
25.90000 9.017
25.92000 10.456
25.94000 0.950
25.96000 4.210
25.98000 -2.045
26.00000 -3.840
26.02000 -1.363
26.04000 1.034
26.06000 1.548
26.08000 4.587
26.10000 1.077
26.12000 4.232
26.14000 7.431
26.16000 2.908
26.18000 6.962
26.20000 4.491
26.22000 2.207
26.24000 2.915
26.26000 11.301
26.28000 6.936
26.30000 3.123
26.32000 1.811
26.34000 0.628
26.36000 0.345
26.38000 1.502
26.40000 1.251
26.42000 3.269
26.44000 4.517
26.46000 5.558
26.48000 3.538
26.50000 -2.364
26.52000 1.000
26.54000 2.084
26.56000 -2.511
26.58000 1.814
26.60000 3.565
26.62000 3.480
26.64000 4.135
26.66000 0.290
26.68000 3.043
26.70000 1.164
26.72000 2.211
26.74000 0.211
26.76000 -0.032
26.78000 -0.883
26.80000 1.622
26.82000 3.567
26.84000 4.218
26.86000 3.475
26.88000 7.537
26.90000 6.583
26.92000 3.709
26.94000 7.802
26.96000 3.926
26.98000 4.636
27.00000 4.914
27.02000 9.910
27.04000 9.603
27.06000 6.902
27.08000 2.372
27.10000 -0.969
27.12000 -0.417
27.14000 -0.066
27.16000 4.024
27.18000 0.592
27.20000 3.859
27.22000 4.016
27.24000 5.455
27.26000 4.808
27.28000 7.519
27.30000 5.583
27.32000 2.574
27.34000 -1.049
27.36000 1.039
27.38000 3.480
27.40000 5.597
27.42000 0.421
27.44000 2.690
27.46000 3.793
27.48000 7.700
27.50000 4.346
27.52000 5.360
27.54000 2.690
27.56000 3.080
27.58000 0.140
27.60000 4.160
27.62000 4.654
27.64000 -2.445
27.66000 -3.773
27.68000 -0.152
27.70000 1.948
27.72000 4.516
27.74000 4.888
27.76000 3.868
27.78000 2.150
27.80000 2.099
27.82000 0.374
27.84000 -0.388
27.86000 5.836
27.88000 3.883
27.90000 -0.694
27.92000 6.135
27.94000 -0.112
27.96000 3.709
27.98000 8.000
28.00000 5.347
28.02000 4.850
28.04000 2.557
28.06000 5.297
28.08000 4.484
28.10000 -0.322
28.12000 0.658
28.14000 7.685
28.16000 6.500
28.18000 1.920
28.20000 1.470
28.22000 4.066
28.24000 2.446
28.26000 -1.833
28.28000 -3.191
28.30000 2.303
28.32000 3.049
28.34000 3.146
28.36000 5.821
28.38000 6.056
28.40000 3.479
28.42000 6.790
28.44000 4.667
28.46000 -0.054
28.48000 1.345
28.50000 1.961
28.52000 -1.194
28.54000 1.593
28.56000 1.381
28.58000 4.436
28.60000 4.485
28.62000 2.830
28.64000 1.255
28.66000 0.983
28.68000 -3.721
28.70000 1.313
28.72000 2.684
28.74000 2.664
28.76000 1.392
28.78000 1.372
28.80000 1.266
28.82000 -0.666
28.84000 -1.084
28.86000 0.873
28.88000 -0.053
28.90000 -0.225
28.92000 8.059
28.94000 5.208
28.96000 8.290
28.98000 9.584
29.00000 7.853
29.02000 4.836
29.04000 5.520
29.06000 0.172
29.08000 4.296
29.10000 3.534
29.12000 4.976
29.14000 3.942
29.16000 3.835
29.18000 10.367
29.20000 3.298
29.22000 6.690
29.24000 5.370
29.26000 6.091
29.28000 1.157
29.30000 0.632
29.32000 4.666
29.34000 0.204
29.36000 5.951
29.38000 7.202
29.40000 6.199
29.42000 -0.873
29.44000 2.639
29.46000 4.444
29.48000 4.923
29.50000 3.513
29.52000 2.784
29.54000 -1.268
29.56000 -3.645
29.58000 -2.066
29.60000 2.266
29.62000 3.344
29.64000 1.462
29.66000 1.429
29.68000 7.663
29.70000 6.668
29.72000 7.617
29.74000 9.081
29.76000 8.969
29.78000 1.557
29.80000 3.279
29.82000 1.736
29.84000 3.889
29.86000 0.335
29.88000 2.895
29.90000 4.956
29.92000 4.912
29.94000 9.042
29.96000 12.199
29.98000 5.623
30.00000 3.050
30.02000 3.807
30.04000 8.966
30.06000 11.011
30.08000 5.718
30.10000 2.521
30.12000 1.710
30.14000 6.134
30.16000 5.941
30.18000 4.943
30.20000 4.879
30.22000 9.936
30.24000 8.866
30.26000 3.926
30.28000 2.767
30.30000 -0.344
30.32000 2.621
30.34000 2.914
30.36000 1.265
30.38000 5.059
30.40000 5.995
30.42000 1.825
30.44000 0.831
30.46000 1.878
30.48000 4.429
30.50000 8.341
30.52000 5.542
30.54000 -2.718
30.56000 -0.226
30.58000 1.622
30.60000 6.441
30.62000 4.763
30.64000 2.783
30.66000 4.781
30.68000 5.852
30.70000 3.865
30.72000 1.332
30.74000 1.115
30.76000 -3.616
30.78000 2.074
30.80000 6.977
30.82000 5.817
30.84000 8.376
30.86000 6.372
30.88000 2.299
30.90000 2.331
30.92000 1.094
30.94000 1.521
30.96000 1.388
30.98000 4.957
31.00000 4.185
31.02000 6.038
31.04000 4.669
31.06000 0.775
31.08000 0.972
31.10000 -0.741
31.12000 -0.521
31.14000 2.327
31.16000 4.775
31.18000 -0.213
31.20000 -0.488
31.22000 -0.244
31.24000 4.013
31.26000 0.163
31.28000 5.388
31.30000 3.294
31.32000 6.059
31.34000 7.852
31.36000 2.556
31.38000 4.826
31.40000 4.796
31.42000 1.495
31.44000 4.230
31.46000 0.449
31.48000 3.124
31.50000 0.416
31.52000 -0.375
31.54000 3.244
31.56000 3.416
31.58000 4.251
31.60000 2.625
31.62000 2.700
31.64000 1.780
31.66000 3.450
31.68000 0.957
31.70000 0.409
31.72000 3.996
31.74000 0.220
31.76000 -3.576
31.78000 -2.133
31.80000 2.138
31.82000 9.825
31.84000 11.557
31.86000 5.735
31.88000 5.205
31.90000 0.178
31.92000 -0.361
31.94000 2.551
31.96000 4.083
31.98000 0.354
32.00000 -1.400
32.02000 2.257
32.04000 5.331
32.06000 0.275
32.08000 -2.897
32.10000 -0.474
32.12000 6.162
32.14000 9.716
32.16000 7.840
32.18000 2.808
32.20000 -3.553
32.22000 -2.708
32.24000 -0.298
32.26000 3.154
32.28000 2.402
32.30000 2.896
32.32000 7.483
32.34000 5.184
32.36000 3.379
32.38000 0.752
32.40000 3.129
32.42000 3.288
32.44000 3.512
32.46000 4.608
32.48000 3.824
32.50000 -0.721
32.52000 2.684
32.54000 2.621
32.56000 0.571
32.58000 2.540
32.60000 2.986
32.62000 1.335
32.64000 1.904
32.66000 -0.962
32.68000 1.477
32.70000 3.818
32.72000 3.060
32.74000 4.900
32.76000 4.950
32.78000 -2.405
32.80000 1.851
32.82000 3.730
32.84000 2.982
32.86000 3.658
32.88000 6.891
32.90000 4.801
32.92000 -1.029
32.94000 1.211
32.96000 5.200
32.98000 1.467
33.00000 4.900
33.02000 2.891
33.04000 5.211
33.06000 1.887
33.08000 3.163
33.10000 2.758
33.12000 1.856
33.14000 -3.546
33.16000 -0.258
33.18000 2.269
33.20000 0.455
33.22000 -0.488
33.24000 7.289
33.26000 2.852
33.28000 2.469
33.30000 5.124
33.32000 4.714
33.34000 3.364
33.36000 -0.497
33.38000 0.886
33.40000 4.996
33.42000 4.091
33.44000 -2.763
33.46000 0.838
33.48000 4.752
33.50000 7.119
33.52000 3.934
33.54000 4.499
33.56000 3.349
33.58000 -0.101
33.60000 -0.195
33.62000 3.238
33.64000 8.645
33.66000 4.548
33.68000 -1.532
33.70000 -3.538
33.72000 -3.218
33.74000 0.936
33.76000 7.530
33.78000 6.596
33.80000 1.476
33.82000 -0.966
33.84000 1.089
33.86000 3.758
33.88000 4.924
33.90000 2.283
33.92000 1.582
33.94000 2.628
33.96000 3.211
33.98000 4.657
34.00000 4.386
34.02000 6.455
34.04000 2.003
34.06000 -2.383
34.08000 3.994
34.10000 8.039
34.12000 3.621
34.14000 4.317
34.16000 2.681
34.18000 2.032
34.20000 3.607
34.22000 5.048
34.24000 2.263
34.26000 2.038
34.28000 0.057
34.30000 2.387
34.32000 0.301
34.34000 6.097
34.36000 -0.438
34.38000 -2.374
34.40000 -1.984
34.42000 -1.499
34.44000 0.358
34.46000 3.895
34.48000 2.618
34.50000 0.146
34.52000 2.282
34.54000 0.004
34.56000 4.184
34.58000 3.160
34.60000 1.860
34.62000 2.120
34.64000 -0.278
34.66000 1.893
34.68000 0.022
34.70000 0.493
34.72000 1.758
34.74000 0.682
34.76000 3.645
34.78000 2.452
34.80000 -3.347
34.82000 -1.317
34.84000 -0.309
34.86000 -0.563
34.88000 -3.513
34.90000 1.849
34.92000 1.350
34.94000 0.359
34.96000 4.318
34.98000 3.528
35.00000 0.231
35.02000 -2.020
35.04000 -0.995
35.06000 0.578
35.08000 1.397
35.10000 0.121
35.12000 0.540
35.14000 5.022
35.16000 5.097
35.18000 -3.508
35.20000 1.562
35.22000 2.467
35.24000 -2.487
35.26000 -3.140
35.28000 0.138
35.30000 -1.265
35.32000 -2.822
35.34000 -2.600
35.36000 -0.556
35.38000 -0.080
35.40000 2.012
35.42000 3.646
35.44000 3.910
35.46000 -1.729
35.48000 -1.432
35.50000 -1.317
35.52000 -0.643
35.54000 -0.992
35.56000 -0.854
35.58000 -2.731
35.60000 1.494
35.62000 0.662
35.64000 -1.335
35.66000 0.040
35.68000 0.481
35.70000 -1.213
35.72000 0.612
35.74000 3.675
35.76000 0.717
35.78000 -1.447
35.80000 2.679
35.82000 -0.240
35.84000 -0.204
35.86000 0.915
35.88000 0.828
35.90000 0.447
35.92000 -0.972
35.94000 -1.625
35.96000 1.953
35.98000 0.490
36.00000 -0.323
36.02000 -3.484
36.04000 -0.980
36.06000 5.292
36.08000 -1.240
36.10000 -2.225
36.12000 8.521
36.14000 5.083
36.16000 1.897
36.18000 3.552
36.20000 3.421
36.22000 2.632
36.24000 2.526
36.26000 -3.396
36.28000 -3.470
36.30000 -2.883
36.32000 1.951
36.34000 4.260
36.36000 2.022
36.38000 0.842
36.40000 -0.607
36.42000 0.849
36.44000 -1.408
36.46000 1.065
36.48000 3.853
36.50000 1.938
36.52000 2.736
36.54000 2.394
36.56000 3.156
36.58000 8.397
36.60000 2.938
36.62000 4.542
36.64000 1.605
36.66000 -3.467
36.68000 3.689
36.70000 -0.809
36.72000 -1.273
36.74000 -0.060
36.76000 -2.055
36.78000 1.729
36.80000 1.370
36.82000 -3.473
36.84000 2.507
36.86000 4.852
36.88000 1.935
36.90000 -0.557
36.92000 0.766
36.94000 3.786
36.96000 4.062
36.98000 -1.150
37.00000 -0.099
37.02000 2.613
37.04000 2.773
37.06000 4.651
37.08000 3.743
37.10000 5.357
37.12000 3.830
37.14000 2.882
37.16000 0.842
37.18000 2.434
37.20000 0.552
37.22000 -3.436
37.24000 -1.540
37.26000 2.122
37.28000 1.713
37.30000 0.836
37.32000 0.176
37.34000 -1.368
37.36000 -1.827
37.38000 4.005
37.40000 0.357
37.42000 0.157
37.44000 2.994
37.46000 3.620
37.48000 1.692
37.50000 -3.501
37.52000 -0.527
37.54000 2.073
37.56000 1.631
37.58000 1.792
37.60000 4.548
37.62000 4.938
37.64000 1.677
37.66000 0.663
37.68000 2.759
37.70000 5.311
37.72000 4.224
37.74000 -0.536
37.76000 -0.369
37.78000 2.070
37.80000 0.674
37.82000 0.461
37.84000 1.863
37.86000 4.744
37.88000 5.449
37.90000 3.807
37.92000 3.600
37.94000 5.947
37.96000 3.842
37.98000 4.807
38.00000 5.162
38.02000 5.532
38.04000 1.162
38.06000 3.677
38.08000 2.305
38.10000 -0.283
38.12000 3.791
38.14000 6.570
38.16000 5.682
38.18000 1.708
38.20000 9.051
38.22000 8.507
38.24000 7.583
38.26000 3.114
38.28000 8.238
38.30000 12.268
38.32000 11.785
38.34000 11.604
38.36000 16.670
38.38000 14.868
38.40000 10.119
38.42000 6.383
38.44000 7.611
38.46000 9.342
38.48000 17.253
38.50000 15.114
38.52000 10.891
38.54000 10.542
38.56000 17.062
38.58000 16.763
38.60000 11.223
38.62000 11.043
38.64000 10.714
38.66000 18.048
38.68000 17.592
38.70000 16.789
38.72000 14.295
38.74000 18.538
38.76000 18.100
38.78000 13.484
38.80000 15.167
38.82000 21.202
38.84000 20.511
38.86000 17.881
38.88000 20.033
38.90000 26.319
38.92000 22.489
38.94000 15.532
38.96000 16.215
38.98000 26.551
39.00000 26.999
39.02000 21.935
39.04000 24.492
39.06000 23.105
39.08000 22.262
39.10000 21.304
39.12000 27.916
39.14000 27.932
39.16000 28.992
39.18000 32.846
39.20000 32.263
39.22000 31.613
39.24000 29.434
39.26000 36.302
39.28000 38.055
39.30000 37.057
39.32000 34.611
39.34000 37.729
39.36000 42.626
39.38000 43.944
39.40000 44.756
39.42000 49.621
39.44000 51.203
39.46000 50.511
39.48000 50.177
39.50000 52.501
39.52000 54.820
39.54000 56.028
39.56000 50.361
39.58000 55.562
39.60000 63.722
39.62000 66.445
39.64000 74.404
39.66000 73.289
39.68000 74.398
39.70000 79.270
39.72000 83.943
39.74000 89.381
39.76000 84.710
39.78000 90.219
39.80000 94.901
39.82000 100.969
39.84000 106.962
39.86000 112.325
39.88000 118.593
39.90000 121.059
39.92000 134.021
39.94000 141.631
39.96000 143.225
39.98000 153.587
40.00000 159.296
40.02000 163.813
40.04000 169.151
40.06000 176.709
40.08000 188.788
40.10000 200.488
40.12000 211.283
40.14000 218.901
40.16000 220.841
40.18000 233.258
40.20000 255.041
40.22000 269.416
40.24000 278.707
40.26000 291.122
40.28000 308.754
40.30000 316.517
40.32000 329.317
40.34000 344.316
40.36000 353.533
40.38000 377.809
40.40000 394.712
40.42000 412.479
40.44000 430.310
40.46000 435.944
40.48000 442.500
40.50000 468.610
40.52000 481.355
40.54000 483.536
40.56000 497.945
40.58000 518.723
40.60000 524.202
40.62000 532.254
40.64000 543.056
40.66000 550.295
40.68000 542.814
40.70000 550.768
40.72000 551.656
40.74000 555.900
40.76000 566.113
40.78000 556.445
40.80000 557.637
40.82000 542.505
40.84000 533.962
40.86000 526.895
40.88000 526.249
40.90000 519.719
40.92000 509.671
40.94000 493.545
40.96000 476.836
40.98000 471.177
41.00000 458.634
41.02000 436.558
41.04000 414.674
41.06000 402.500
41.08000 390.434
41.10000 372.674
41.12000 361.173
41.14000 354.164
41.16000 334.029
41.18000 317.181
41.20000 300.977
41.22000 285.452
41.24000 271.543
41.26000 256.012
41.28000 249.172
41.30000 234.806
41.32000 225.713
41.34000 214.235
41.36000 201.232
41.38000 192.353
41.40000 189.115
41.42000 173.744
41.44000 163.116
41.46000 151.159
41.48000 147.139
41.50000 141.155
41.52000 138.114
41.54000 139.202
41.56000 124.027
41.58000 116.178
41.60000 107.139
41.62000 97.655
41.64000 100.419
41.66000 99.170
41.68000 90.911
41.70000 86.104
41.72000 85.437
41.74000 71.517
41.76000 70.653
41.78000 63.429
41.80000 61.452
41.82000 63.619
41.84000 61.913
41.86000 61.423
41.88000 60.031
41.90000 50.666
41.92000 51.812
41.94000 51.563
41.96000 43.997
41.98000 37.386
42.00000 39.732
42.02000 39.500
42.04000 36.447
42.06000 33.872
42.08000 29.390
42.10000 28.546
42.12000 28.983
42.14000 25.376
42.16000 23.223
42.18000 27.636
42.20000 25.953
42.22000 24.605
42.24000 23.538
42.26000 24.240
42.28000 22.087
42.30000 18.509
42.32000 12.699
42.34000 15.744
42.36000 17.173
42.38000 19.510
42.40000 17.887
42.42000 16.059
42.44000 13.470
42.46000 10.068
42.48000 7.555
42.50000 11.939
42.52000 5.016
42.54000 11.005
42.56000 6.843
42.58000 9.645
42.60000 10.191
42.62000 5.777
42.64000 6.817
42.66000 11.314
42.68000 12.416
42.70000 11.060
42.72000 5.281
42.74000 5.611
42.76000 4.144
42.78000 -0.789
42.80000 1.201
42.82000 3.666
42.84000 6.167
42.86000 9.053
42.88000 4.240
42.90000 3.053
42.92000 2.588
42.94000 2.154
42.96000 6.268
42.98000 1.987
43.00000 0.263
43.02000 2.285
43.04000 3.837
43.06000 2.348
43.08000 3.901
43.10000 4.336
43.12000 1.103
43.14000 2.053
43.16000 3.839
43.18000 1.707
43.20000 -0.425
43.22000 -0.931
43.24000 1.346
43.26000 0.225
43.28000 -0.270
43.30000 1.906
43.32000 1.659
43.34000 0.570
43.36000 0.230
43.38000 -2.207
43.40000 -1.030
43.42000 1.746
43.44000 4.022
43.46000 2.704
43.48000 3.841
43.50000 3.895
43.52000 2.502
43.54000 -0.457
43.56000 3.472
43.58000 1.182
43.60000 -2.128
43.62000 -1.448
43.64000 -1.338
43.66000 1.162
43.68000 5.557
43.70000 0.152
43.72000 0.863
43.74000 1.660
43.76000 -0.195
43.78000 -0.982
43.80000 0.455
43.82000 0.312
43.84000 0.956
43.86000 4.641
43.88000 4.084
43.90000 3.441
43.92000 3.818
43.94000 -3.269
43.96000 0.319
43.98000 4.152
44.00000 5.743
44.02000 3.801
44.04000 3.678
44.06000 7.076
44.08000 5.466
44.10000 0.668
44.12000 -0.192
44.14000 -1.148
44.16000 -3.384
44.18000 2.935
44.20000 7.473
44.22000 2.954
44.24000 7.451
44.26000 5.272
44.28000 4.320
44.30000 -0.150
44.32000 2.902
44.34000 3.398
44.36000 0.178
44.38000 3.912
44.40000 7.175
44.42000 7.448
44.44000 7.136
44.46000 5.567
44.48000 5.878
44.50000 7.661
44.52000 5.096
44.54000 2.668
44.56000 1.790
44.58000 -0.456
44.60000 5.929
44.62000 4.453
44.64000 6.497
44.66000 8.587
44.68000 4.238
44.70000 1.436
44.72000 3.286
44.74000 7.671
44.76000 7.002
44.78000 1.443
44.80000 3.816
44.82000 2.530
44.84000 -0.293
44.86000 2.546
44.88000 5.290
44.90000 5.583
44.92000 3.334
44.94000 1.915
44.96000 4.332
44.98000 6.606
45.00000 5.445
45.02000 7.911
45.04000 8.568
45.06000 5.368
45.08000 6.251
45.10000 9.055
45.12000 3.367
45.14000 7.680
45.16000 10.329
45.18000 4.397
45.20000 4.802
45.22000 3.650
45.24000 0.983
45.26000 -3.346
45.28000 1.541
45.30000 2.871
45.32000 1.082
45.34000 4.630
45.36000 9.449
45.38000 12.612
45.40000 8.912
45.42000 4.732
45.44000 9.168
45.46000 7.775
45.48000 8.852
45.50000 4.358
45.52000 2.130
45.54000 4.719
45.56000 5.634
45.58000 8.388
45.60000 8.785
45.62000 7.923
45.64000 11.827
45.66000 12.984
45.68000 11.900
45.70000 12.205
45.72000 12.182
45.74000 13.493
45.76000 13.642
45.78000 14.987
45.80000 13.794
45.82000 16.141
45.84000 16.902
45.86000 16.533
45.88000 14.785
45.90000 13.033
45.92000 15.582
45.94000 17.719
45.96000 12.083
45.98000 10.927
46.00000 15.087
46.02000 11.456
46.04000 14.950
46.06000 20.755
46.08000 23.616
46.10000 18.941
46.12000 21.546
46.14000 17.645
46.16000 21.872
46.18000 20.827
46.20000 20.734
46.22000 20.705
46.24000 24.727
46.26000 17.027
46.28000 19.493
46.30000 17.190
46.32000 17.667
46.34000 22.655
46.36000 25.594
46.38000 27.779
46.40000 29.105
46.42000 33.356
46.44000 29.767
46.46000 26.055
46.48000 30.550
46.50000 36.222
46.52000 34.386
46.54000 37.700
46.56000 40.567
46.58000 33.569
46.60000 30.125
46.62000 34.261
46.64000 31.929
46.66000 33.887
46.68000 34.848
46.70000 38.864
46.72000 41.323
46.74000 38.515
46.76000 38.922
46.78000 40.604
46.80000 42.959
46.82000 44.287
46.84000 46.313
46.86000 49.754
46.88000 45.739
46.90000 45.264
46.92000 47.879
46.94000 52.721
46.96000 57.942
46.98000 56.119
47.00000 46.157
47.02000 49.347
47.04000 55.272
47.06000 53.311
47.08000 53.901
47.10000 53.772
47.12000 55.562
47.14000 59.256
47.16000 60.852
47.18000 65.588
47.20000 67.612
47.22000 59.455
47.24000 55.329
47.26000 58.509
47.28000 64.400
47.30000 58.544
47.32000 62.164
47.34000 60.349
47.36000 55.810
47.38000 64.098
47.40000 65.370
47.42000 54.963
47.44000 54.736
47.46000 61.101
47.48000 57.723
47.50000 57.608
47.52000 55.883
47.54000 56.699
47.56000 56.278
47.58000 56.131
47.60000 53.771
47.62000 49.750
47.64000 45.688
47.66000 47.258
47.68000 48.250
47.70000 45.455
47.72000 43.894
47.74000 46.352
47.76000 43.779
47.78000 47.989
47.80000 47.559
47.82000 42.865
47.84000 41.631
47.86000 42.612
47.88000 40.780
47.90000 40.205
47.92000 32.916
47.94000 35.255
47.96000 31.705
47.98000 29.203
48.00000 31.515
48.02000 27.598
48.04000 24.885
48.06000 27.015
48.08000 28.221
48.10000 26.140
48.12000 23.921
48.14000 22.008
48.16000 20.611
48.18000 17.165
48.20000 19.316
48.22000 21.808
48.24000 22.437
48.26000 18.860
48.28000 16.355
48.30000 18.412
48.32000 13.726
48.34000 9.965
48.36000 8.252
48.38000 7.594
48.40000 7.841
48.42000 9.515
48.44000 11.418
48.46000 12.773
48.48000 11.312
48.50000 11.673
48.52000 12.749
48.54000 15.640
48.56000 4.100
48.58000 -0.097
48.60000 -1.623
48.62000 4.655
48.64000 3.349
48.66000 7.382
48.68000 4.144
48.70000 0.044
48.72000 0.109
48.74000 0.750
48.76000 -0.128
48.78000 0.725
48.80000 1.985
48.82000 8.320
48.84000 4.512
48.86000 0.576
48.88000 2.606
48.90000 6.486
48.92000 7.238
48.94000 5.136
48.96000 2.231
48.98000 7.744
49.00000 8.092
49.02000 4.079
49.04000 -0.406
49.06000 1.959
49.08000 3.677
49.10000 9.491
49.12000 3.645
49.14000 6.948
49.16000 7.687
49.18000 4.285
49.20000 8.735
49.22000 10.623
49.24000 7.694
49.26000 2.433
49.28000 -0.153
49.30000 -2.371
49.32000 2.600
49.34000 -3.014
49.36000 -1.798
49.38000 1.604
49.40000 5.211
49.42000 2.961
49.44000 0.159
49.46000 1.869
49.48000 0.029
49.50000 -0.938
49.52000 2.611
49.54000 3.647
49.56000 7.226
49.58000 7.027
49.60000 2.856
49.62000 3.340
49.64000 2.264
49.66000 9.280
49.68000 2.987
49.70000 3.345
49.72000 3.164
49.74000 5.835
49.76000 6.455
49.78000 6.338
49.80000 5.959
49.82000 3.555
49.84000 1.329
49.86000 -2.923
49.88000 1.481
49.90000 5.232
49.92000 1.791
49.94000 2.924
49.96000 5.552
49.98000 -0.226
50.00000 -2.172
50.02000 10.465
50.04000 9.593
50.06000 3.153
50.08000 2.792
50.10000 7.681
50.12000 6.973
50.14000 7.717
50.16000 9.315
50.18000 10.998
50.20000 3.835
50.22000 4.839
50.24000 8.629
50.26000 7.353
50.28000 0.645
50.30000 -1.078
50.32000 1.139
50.34000 2.401
50.36000 4.175
50.38000 4.041
50.40000 5.722
50.42000 6.387
50.44000 4.624
50.46000 2.912
50.48000 0.041
50.50000 1.834
50.52000 2.954
50.54000 4.577
50.56000 -0.526
50.58000 3.212
50.60000 8.319
50.62000 6.572
50.64000 1.304
50.66000 1.202
50.68000 -2.859
50.70000 0.618
50.72000 7.373
50.74000 3.597
50.76000 1.497
50.78000 6.797
50.80000 3.207
50.82000 2.578
50.84000 -0.357
50.86000 1.372
50.88000 7.343
50.90000 6.080
50.92000 6.181
50.94000 9.249
50.96000 8.689
50.98000 -0.886
51.00000 -2.844
51.02000 3.211
51.04000 5.156
51.06000 5.362
51.08000 4.654
51.10000 7.965
51.12000 6.634
51.14000 4.368
51.16000 3.693
51.18000 3.790
51.20000 6.195
51.22000 7.480
51.24000 6.715
51.26000 6.140
51.28000 2.284
51.30000 0.448
51.32000 6.053
51.34000 5.692
51.36000 4.152
51.38000 0.596
51.40000 -0.583
51.42000 3.765
51.44000 12.602
51.46000 7.208
51.48000 6.896
51.50000 6.249
51.52000 3.832
51.54000 2.040
51.56000 -1.351
51.58000 2.760
51.60000 10.006
51.62000 4.883
51.64000 -0.232
51.66000 5.603
51.68000 8.105
51.70000 -0.230
51.72000 -2.400
51.74000 2.345
51.76000 1.957
51.78000 5.240
51.80000 4.178
51.82000 6.104
51.84000 10.873
51.86000 8.191
51.88000 6.941
51.90000 6.014
51.92000 4.243
51.94000 0.646
51.96000 3.282
51.98000 6.726
52.00000 8.290
52.02000 9.871
52.04000 4.960
52.06000 3.933
52.08000 -1.818
52.10000 -0.574
52.12000 0.584
52.14000 1.691
52.16000 1.493
52.18000 0.033
52.20000 -2.821
52.22000 -0.774
52.24000 -2.820
52.26000 -1.183
52.28000 0.948
52.30000 1.257
52.32000 3.259
52.34000 1.956
52.36000 6.753
52.38000 5.742
52.40000 -1.809
52.42000 -1.728
52.44000 -0.550
52.46000 5.087
52.48000 2.217
52.50000 1.845
52.52000 4.040
52.54000 7.094
52.56000 5.367
52.58000 1.812
52.60000 0.003
52.62000 0.164
52.64000 -0.394
52.66000 1.412
52.68000 3.601
52.70000 2.037
52.72000 2.100
52.74000 3.097
52.76000 1.412
52.78000 4.176
52.80000 1.029
52.82000 2.830
52.84000 2.725
52.86000 1.239
52.88000 -1.645
52.90000 -2.035
52.92000 -0.987
52.94000 -0.062
52.96000 2.319
52.98000 0.308
53.00000 -0.657
53.02000 -0.331
53.04000 -0.288
53.06000 -2.826
53.08000 -2.082
53.10000 -0.515
53.12000 1.453
53.14000 7.491
53.16000 5.971
53.18000 2.993
53.20000 1.633
53.22000 -0.742
53.24000 1.627
53.26000 4.952
53.28000 5.115
53.30000 -2.601
53.32000 -2.551
53.34000 -0.095
53.36000 1.485
53.38000 8.722
53.40000 6.146
53.42000 -0.258
53.44000 -0.061
53.46000 1.744
53.48000 1.357
53.50000 -0.411
53.52000 2.780
53.54000 3.795
53.56000 1.554
53.58000 -0.151
53.60000 1.160
53.62000 0.442
53.64000 2.011
53.66000 -1.100
53.68000 -0.194
53.70000 1.932
53.72000 -1.922
53.74000 -1.544
53.76000 0.902
53.78000 -0.454
53.80000 0.512
53.82000 -2.565
53.84000 7.610
53.86000 8.230
53.88000 5.837
53.90000 6.783
53.92000 2.774
53.94000 2.986
53.96000 0.832
53.98000 3.532
54.00000 5.415
54.02000 5.113
54.04000 0.985
54.06000 0.830
54.08000 -0.587
54.10000 4.869
54.12000 4.398
54.14000 -0.829
54.16000 -0.058
54.18000 -2.099
54.20000 0.496
54.22000 2.853
54.24000 1.163
54.26000 -2.199
54.28000 -2.800
54.30000 -0.653
54.32000 2.843
54.34000 -1.050
54.36000 2.697
54.38000 2.087
54.40000 1.052
54.42000 -0.167
54.44000 -2.655
54.46000 0.999
54.48000 6.596
54.50000 8.236
54.52000 2.597
54.54000 1.790
54.56000 3.443
54.58000 1.404
54.60000 1.896
54.62000 1.054
54.64000 -1.246
54.66000 2.140
54.68000 3.898
54.70000 1.388
54.72000 -2.433
54.74000 1.859
54.76000 3.502
54.78000 4.377
54.80000 1.352
54.82000 -2.529
54.84000 0.296
54.86000 2.290
54.88000 -0.057
54.90000 5.566
54.92000 1.886
54.94000 1.357
54.96000 1.684
54.98000 1.269
55.00000 2.748
55.02000 5.538
55.04000 5.984
55.06000 2.868
55.08000 -2.680
55.10000 1.698
55.12000 5.757
55.14000 1.634
55.16000 5.248
55.18000 -1.677
55.20000 0.411
55.22000 0.951
55.24000 1.682
55.26000 5.096
55.28000 1.540
55.30000 -1.401
55.32000 3.485
55.34000 4.725
55.36000 4.191
55.38000 -0.364
55.40000 0.928
55.42000 1.035
55.44000 -1.861
55.46000 4.037
55.48000 7.570
55.50000 5.288
55.52000 0.666
55.54000 2.289
55.56000 3.313
55.58000 -2.299
55.60000 -2.728
55.62000 1.605
55.64000 4.652
55.66000 0.994
55.68000 4.629
55.70000 1.482
55.72000 -2.458
55.74000 1.127
55.76000 5.357
55.78000 4.624
55.80000 4.148
55.82000 0.876
55.84000 0.798
55.86000 6.366
55.88000 5.600
55.90000 6.730
55.92000 8.567
55.94000 4.646
55.96000 3.201
55.98000 4.834
56.00000 2.947
56.02000 1.925
56.04000 0.911
56.06000 -1.757
56.08000 1.213
56.10000 2.744
56.12000 2.956
56.14000 5.233
56.16000 6.330
56.18000 1.807
56.20000 -0.917
56.22000 0.780
56.24000 0.157
56.26000 0.627
56.28000 2.434
56.30000 4.712
56.32000 5.849
56.34000 6.109
56.36000 4.790
56.38000 6.453
56.40000 4.134
56.42000 2.054
56.44000 -0.762
56.46000 -1.264
56.48000 1.867
56.50000 6.425
56.52000 12.615
56.54000 7.454
56.56000 3.822
56.58000 4.520
56.60000 1.118
56.62000 4.540
56.64000 1.690
56.66000 2.792
56.68000 -2.681
56.70000 -1.539
56.72000 5.085
56.74000 4.539
56.76000 6.234
56.78000 10.227
56.80000 8.984
56.82000 6.718
56.84000 6.591
56.86000 5.281
56.88000 7.868
56.90000 3.788
56.92000 5.588
56.94000 6.104
56.96000 3.973
56.98000 -1.056
57.00000 3.754
57.02000 5.002
57.04000 3.891
57.06000 8.297
57.08000 2.248
57.10000 3.955
57.12000 1.555
57.14000 4.636
57.16000 2.758
57.18000 2.725
57.20000 4.728
57.22000 2.603
57.24000 5.432
57.26000 2.249
57.28000 2.767
57.30000 6.454
57.32000 7.166
57.34000 5.055
57.36000 4.698
57.38000 2.290
57.40000 2.269
57.42000 -2.207
57.44000 0.231
57.46000 -0.039
57.48000 1.230
57.50000 4.897
57.52000 3.995
57.54000 6.231
57.56000 6.159
57.58000 4.514
57.60000 7.923
57.62000 3.643
57.64000 4.985
57.66000 1.555
57.68000 5.712
57.70000 8.158
57.72000 5.809
57.74000 1.969
57.76000 3.741
57.78000 4.534
57.80000 3.011
57.82000 0.415
57.84000 -0.218
57.86000 -2.624
57.88000 -0.832
57.90000 -0.931
57.92000 2.872
57.94000 8.783
57.96000 6.399
57.98000 4.223
58.00000 5.819
58.02000 8.995
58.04000 7.668
58.06000 4.647
58.08000 -1.202
58.10000 2.025
58.12000 8.278
58.14000 7.083
58.16000 4.569
58.18000 2.538
58.20000 3.472
58.22000 3.965
58.24000 0.927
58.26000 -1.487
58.28000 2.449
58.30000 2.197
58.32000 4.457
58.34000 0.589
58.36000 -1.741
58.38000 -0.746
58.40000 -1.163
58.42000 -0.290
58.44000 0.902
58.46000 0.648
58.48000 -0.440
58.50000 4.368
58.52000 0.946
58.54000 -2.038
58.56000 0.648
58.58000 -1.012
58.60000 1.806
58.62000 4.685
58.64000 2.266
58.66000 5.639
58.68000 4.393
58.70000 0.620
58.72000 0.864
58.74000 3.460
58.76000 0.958
58.78000 1.043
58.80000 5.684
58.82000 2.092
58.84000 3.373
58.86000 1.211
58.88000 1.462
58.90000 3.615
58.92000 0.840
58.94000 -0.262
58.96000 2.222
58.98000 5.895
59.00000 0.315
59.02000 4.436
59.04000 3.702
59.06000 6.103
59.08000 5.101
59.10000 1.289
59.12000 -1.508
59.14000 4.602
59.16000 3.222
59.18000 5.580
59.20000 -1.013
59.22000 -1.060
59.24000 -0.422
59.26000 0.502
59.28000 1.126
59.30000 0.923
59.32000 3.187
59.34000 3.758
59.36000 -2.006
59.38000 1.579
59.40000 2.960
59.42000 3.159
59.44000 5.063
59.46000 0.289
59.48000 3.594
59.50000 1.113
59.52000 3.603
59.54000 2.160
59.56000 -1.455
59.58000 -1.473
59.60000 -0.489
59.62000 1.047
59.64000 0.512
59.66000 5.702
59.68000 3.751
59.70000 1.554
59.72000 0.401
59.74000 2.090
59.76000 3.792
59.78000 4.010
59.80000 2.486
59.82000 0.212
59.84000 -2.609
59.86000 0.290
59.88000 0.904
59.90000 -2.225
59.92000 1.996
59.94000 1.266
59.96000 3.797
59.98000 0.129
60.00000 -2.599
60.02000 6.296
60.04000 6.557
60.06000 2.641
60.08000 3.614
60.10000 -1.010
60.12000 1.546
60.14000 5.908
60.16000 3.849
60.18000 6.620
60.20000 3.636
60.22000 3.413
60.24000 2.649
60.26000 0.371
60.28000 0.603
60.30000 1.952
60.32000 3.126
60.34000 2.042
60.36000 -0.057
60.38000 6.552
60.40000 7.940
60.42000 1.407
60.44000 2.877
60.46000 3.333
60.48000 2.034
60.50000 5.123
60.52000 3.487
60.54000 1.470
60.56000 -0.858
60.58000 5.939
60.60000 1.071
60.62000 3.628
60.64000 6.294
60.66000 5.612
60.68000 9.940
60.70000 6.049
60.72000 5.044
60.74000 4.648
60.76000 4.310
60.78000 5.558
60.80000 1.829
60.82000 -0.790
60.84000 2.646
60.86000 3.558
60.88000 -0.061
60.90000 -0.211
60.92000 0.338
60.94000 1.733
60.96000 -0.072
60.98000 1.377
61.00000 4.043
61.02000 4.070
61.04000 6.635
61.06000 6.866
61.08000 4.695
61.10000 1.628
61.12000 1.777
61.14000 6.104
61.16000 9.425
61.18000 4.224
61.20000 -1.761
61.22000 0.528
61.24000 -2.507
61.26000 -0.834
61.28000 2.072
61.30000 3.424
61.32000 2.036
61.34000 3.528
61.36000 7.177
61.38000 6.037
61.40000 5.263
61.42000 6.478
61.44000 0.764
61.46000 -2.497
61.48000 4.516
61.50000 4.841
61.52000 2.101
61.54000 7.417
61.56000 4.925
61.58000 5.107
61.60000 5.782
61.62000 5.538
61.64000 0.335
61.66000 4.998
61.68000 7.237
61.70000 2.769
61.72000 7.210
61.74000 2.734
61.76000 0.850
61.78000 2.672
61.80000 -0.420
61.82000 -0.126
61.84000 3.488
61.86000 0.599
61.88000 1.594
61.90000 2.113
61.92000 2.884
61.94000 0.241
61.96000 2.716
61.98000 3.264
62.00000 3.416
62.02000 5.129
62.04000 3.158
62.06000 1.380
62.08000 0.978
62.10000 0.556
62.12000 -0.325
62.14000 0.203
62.16000 1.077
62.18000 2.966
62.20000 3.967
62.22000 6.355
62.24000 7.238
62.26000 3.118
62.28000 0.972
62.30000 -0.021
62.32000 3.988
62.34000 4.467
62.36000 3.326
62.38000 1.214
62.40000 3.885
62.42000 2.711
62.44000 2.441
62.46000 1.082
62.48000 1.665
62.50000 2.167
62.52000 0.418
62.54000 -0.667
62.56000 0.218
62.58000 4.796
62.60000 0.440
62.62000 -0.028
62.64000 -1.478
62.66000 -2.524
62.68000 -2.259
62.70000 0.280
62.72000 0.468
62.74000 4.081
62.76000 3.143
62.78000 0.489
62.80000 0.585
62.82000 1.838
62.84000 1.120
62.86000 3.988
62.88000 4.284
62.90000 2.832
62.92000 3.994
62.94000 3.335
62.96000 -1.593
62.98000 -1.090
63.00000 1.251
63.02000 -0.010
63.04000 0.988
63.06000 3.367
63.08000 2.178
63.10000 1.678
63.12000 3.279
63.14000 0.867
63.16000 0.752
63.18000 2.568
63.20000 3.259
63.22000 -2.508
63.24000 -2.370
63.26000 3.931
63.28000 5.416
63.30000 5.818
63.32000 6.376
63.34000 1.021
63.36000 -0.534
63.38000 -2.505
63.40000 -1.808
63.42000 3.378
63.44000 2.718
63.46000 2.449
63.48000 3.424
63.50000 5.608
63.52000 2.847
63.54000 0.252
63.56000 1.535
63.58000 4.693
63.60000 1.721
63.62000 1.870
63.64000 0.085
63.66000 1.272
63.68000 2.659
63.70000 1.398
63.72000 5.319
63.74000 9.012
63.76000 3.465
63.78000 3.097
63.80000 1.207
63.82000 -0.393
63.84000 5.153
63.86000 2.470
63.88000 1.197
63.90000 2.973
63.92000 1.648
63.94000 0.399
63.96000 0.222
63.98000 -2.503
64.00000 -1.477
64.02000 0.825
64.04000 0.184
64.06000 3.144
64.08000 5.035
64.10000 2.783
64.12000 2.575
64.14000 7.624
64.16000 5.396
64.18000 4.507
64.20000 0.620
64.22000 3.054
64.24000 2.396
64.26000 2.561
64.28000 3.961
64.30000 5.374
64.32000 3.646
64.34000 2.558
64.36000 3.973
64.38000 2.128
64.40000 0.573
64.42000 1.012
64.44000 0.957
64.46000 -0.341
64.48000 -0.341
64.50000 -0.140
64.52000 0.475
64.54000 -0.134
64.56000 1.411
64.58000 3.598
64.60000 3.879
64.62000 2.479
64.64000 3.070
64.66000 3.061
64.68000 3.825
64.70000 4.312
64.72000 3.030
64.74000 4.528
64.76000 4.727
64.78000 5.744
64.80000 7.552
64.82000 3.662
64.84000 3.004
64.86000 3.106
64.88000 4.628
64.90000 5.638
64.92000 6.191
64.94000 4.378
64.96000 6.064
64.98000 5.160
65.00000 7.453
65.02000 4.914
65.04000 1.643
65.06000 1.883
65.08000 4.392
65.10000 3.157
65.12000 5.373
65.14000 2.262
65.16000 -2.489
65.18000 -0.764
65.20000 0.733
65.22000 6.567
65.24000 7.810
65.26000 6.958
65.28000 5.737
65.30000 2.713
65.32000 1.036
65.34000 1.025
65.36000 3.513
65.38000 4.362
65.40000 6.249
65.42000 5.114
65.44000 2.587
65.46000 2.570
65.48000 2.115
65.50000 0.710
65.52000 2.218
65.54000 2.297
65.56000 3.212
65.58000 1.588
65.60000 0.004
65.62000 3.584
65.64000 5.753
65.66000 6.900
65.68000 4.227
65.70000 3.052
65.72000 4.265
65.74000 0.796
65.76000 -0.870
65.78000 -0.186
65.80000 -1.631
65.82000 0.905
65.84000 3.087
65.86000 2.252
65.88000 4.272
65.90000 3.027
65.92000 -0.687
65.94000 3.006
65.96000 1.605
65.98000 -0.287
66.00000 -2.515
66.02000 1.472
66.04000 0.859
66.06000 0.036
66.08000 0.564
66.10000 3.728
66.12000 1.269
66.14000 5.039
66.16000 5.666
66.18000 2.752
66.20000 -0.878
66.22000 -0.382
66.24000 0.972
66.26000 -1.197
66.28000 0.435
66.30000 2.015
66.32000 1.730
66.34000 -0.289
66.36000 -2.394
66.38000 0.301
66.40000 1.117
66.42000 0.504
66.44000 1.598
66.46000 3.187
66.48000 3.963
66.50000 4.927
66.52000 1.646
66.54000 1.073
66.56000 0.332
66.58000 0.074
66.60000 -0.741
66.62000 -0.984
66.64000 1.922
66.66000 2.950
66.68000 -0.640
66.70000 -2.064
66.72000 -2.535
66.74000 -0.430
66.76000 3.521
66.78000 3.639
66.80000 1.364
66.82000 2.120
66.84000 -0.319
66.86000 -0.070
66.88000 0.000
66.90000 0.568
66.92000 1.197
66.94000 -0.692
66.96000 -0.930
66.98000 1.386
67.00000 -0.626
67.02000 -1.680
67.04000 1.348
67.06000 -0.574
67.08000 -0.137
67.10000 0.568
67.12000 -0.763
67.14000 3.632
67.16000 3.378
67.18000 2.517
67.20000 0.085
67.22000 0.839
67.24000 0.747
67.26000 -1.622
67.28000 1.515
67.30000 -1.088
67.32000 -1.677
67.34000 -0.440
67.36000 -0.293
67.38000 0.790
67.40000 -2.579
67.42000 -1.397
67.44000 -1.397
67.46000 0.842
67.48000 0.619
67.50000 0.197
67.52000 1.853
67.54000 2.443
67.56000 1.907
67.58000 3.147
67.60000 2.920
67.62000 3.708
67.64000 2.556
67.66000 1.395
67.68000 -0.904
67.70000 -0.364
67.72000 -1.093
67.74000 1.831
67.76000 -1.079
67.78000 2.388
67.80000 4.683
67.82000 0.947
67.84000 0.657
67.86000 1.197
67.88000 -0.042
67.90000 -1.955
67.92000 -0.294
67.94000 0.212
67.96000 2.910
67.98000 5.020
68.00000 3.379
68.02000 2.010
68.04000 2.753
68.06000 2.495
68.08000 3.268
68.10000 3.243
68.12000 3.921
68.14000 2.197
68.16000 3.347
68.18000 0.906
68.20000 -1.527
68.22000 2.471
68.24000 6.274
68.26000 5.537
68.28000 6.393
68.30000 4.075
68.32000 3.387
68.34000 5.457
68.36000 6.234
68.38000 7.238
68.40000 8.759
68.42000 8.096
68.44000 9.950
68.46000 11.393
68.48000 9.246
68.50000 8.985
68.52000 7.201
68.54000 7.524
68.56000 8.881
68.58000 12.479
68.60000 12.897
68.62000 11.706
68.64000 11.773
68.66000 12.726
68.68000 12.345
68.70000 11.682
68.72000 9.997
68.74000 14.942
68.76000 14.507
68.78000 17.707
68.80000 12.800
68.82000 14.717
68.84000 19.466
68.86000 18.468
68.88000 16.360
68.90000 21.196
68.92000 21.506
68.94000 21.924
68.96000 22.916
68.98000 24.505
69.00000 20.885
69.02000 17.337
69.04000 18.687
69.06000 23.464
69.08000 21.434
69.10000 21.604
69.12000 21.175
69.14000 20.486
69.16000 17.404
69.18000 17.974
69.20000 17.803
69.22000 16.053
69.24000 18.875
69.26000 20.545
69.28000 17.424
69.30000 21.415
69.32000 21.249
69.34000 15.912
69.36000 13.680
69.38000 15.478
69.40000 15.789
69.42000 18.306
69.44000 21.872
69.46000 19.622
69.48000 18.378
69.50000 16.082
69.52000 12.820
69.54000 12.355
69.56000 11.856
69.58000 16.436
69.60000 18.859
69.62000 14.989
69.64000 10.843
69.66000 11.777
69.68000 14.689
69.70000 14.390
69.72000 13.017
69.74000 13.600
69.76000 12.220
69.78000 11.700
69.80000 13.909
69.82000 9.367
69.84000 9.500
69.86000 7.064
69.88000 6.188
69.90000 2.788
69.92000 5.093
69.94000 7.037
69.96000 12.522
69.98000 7.153
70.00000 4.817
70.02000 5.345
70.04000 6.489
70.06000 5.175
70.08000 4.887
70.10000 4.010
70.12000 1.350
70.14000 4.851
70.16000 3.217
70.18000 2.415
70.20000 1.504
70.22000 0.649
70.24000 0.333
70.26000 -1.629
70.28000 3.185
70.30000 4.236
70.32000 3.426
70.34000 3.705
70.36000 4.646
70.38000 3.143
70.40000 7.181
70.42000 8.527
70.44000 3.585
70.46000 1.474
70.48000 4.857
70.50000 5.127
70.52000 0.576
70.54000 3.393
70.56000 4.949
70.58000 4.359
70.60000 4.476
70.62000 3.402
70.64000 -0.315
70.66000 1.715
70.68000 1.986
70.70000 -2.487
70.72000 2.038
70.74000 1.663
70.76000 0.198
70.78000 -0.371
70.80000 2.821
70.82000 2.124
70.84000 6.266
70.86000 7.890
70.88000 -1.291
70.90000 0.167
70.92000 2.956
70.94000 2.775
70.96000 2.258
70.98000 2.297
71.00000 3.722
71.02000 1.091
71.04000 -1.453
71.06000 -1.433
71.08000 1.617
71.10000 5.988
71.12000 0.435
71.14000 -0.888
71.16000 1.905
71.18000 -0.350
71.20000 -0.643
71.22000 -0.719
71.24000 -1.804
71.26000 1.493
71.28000 4.936
71.30000 3.993
71.32000 -0.463
71.34000 1.702
71.36000 4.105
71.38000 3.647
71.40000 1.775
71.42000 1.641
71.44000 -1.607
71.46000 2.326
71.48000 1.025
71.50000 3.678
71.52000 5.723
71.54000 3.333
71.56000 0.464
71.58000 -2.408
71.60000 4.932
71.62000 3.868
71.64000 -0.838
71.66000 -0.170
71.68000 -1.875
71.70000 0.906
71.72000 0.879
71.74000 1.959
71.76000 2.836
71.78000 4.035
71.80000 -1.333
71.82000 1.526
71.84000 1.179
71.86000 0.871
71.88000 -1.037
71.90000 3.001
71.92000 3.413
71.94000 2.769
71.96000 1.559
71.98000 -0.778
72.00000 1.694
72.02000 -1.455
72.04000 1.456
72.06000 1.135
72.08000 1.539
72.10000 4.768
72.12000 4.367
72.14000 3.375
72.16000 1.579
72.18000 3.683
72.20000 1.584
72.22000 -1.133
72.24000 -0.661
72.26000 0.632
72.28000 -1.041
72.30000 1.119
72.32000 2.974
72.34000 2.606
72.36000 1.186
72.38000 1.090
72.40000 -0.209
72.42000 2.297
72.44000 3.069
72.46000 1.205
72.48000 0.631
72.50000 1.901
72.52000 3.082
72.54000 6.600
72.56000 6.634
72.58000 3.673
72.60000 1.869
72.62000 1.630
72.64000 1.753
72.66000 0.184
72.68000 1.149
72.70000 -0.111
72.72000 3.463
72.74000 -0.581
72.76000 -0.109
72.78000 2.385
72.80000 4.602
72.82000 2.064
72.84000 -0.193
72.86000 2.586
72.88000 0.343
72.90000 -2.318
72.92000 -1.585
72.94000 3.194
72.96000 4.935
72.98000 3.707
73.00000 5.085
73.02000 4.215
73.04000 0.798
73.06000 2.022
73.08000 5.797
73.10000 7.906
73.12000 -0.436
73.14000 1.081
73.16000 4.185
73.18000 4.136
73.20000 2.724
73.22000 0.754
73.24000 2.537
73.26000 0.951
73.28000 5.472
73.30000 6.153
73.32000 4.273
73.34000 5.369
73.36000 5.787
73.38000 0.828
73.40000 1.786
73.42000 2.607
73.44000 3.697
73.46000 3.071
73.48000 4.147
73.50000 3.616
73.52000 0.555
73.54000 0.143
73.56000 -2.332
73.58000 -0.055
73.60000 4.154
73.62000 3.179
73.64000 -0.268
73.66000 1.802
73.68000 1.297
73.70000 0.277
73.72000 0.253
73.74000 -1.028
73.76000 -0.181
73.78000 -0.393
73.80000 1.251
73.82000 0.237
73.84000 -1.717
73.86000 1.244
73.88000 4.278
73.90000 6.760
73.92000 1.213
73.94000 2.535
73.96000 6.386
73.98000 4.306
74.00000 1.520
74.02000 3.076
74.04000 2.193
74.06000 -0.032
74.08000 2.081
74.10000 -1.186
74.12000 2.266
74.14000 5.371
74.16000 1.055
74.18000 -2.335
74.20000 0.449
74.22000 -0.531
74.24000 -0.152
74.26000 0.441
74.28000 -1.130
74.30000 6.037
74.32000 7.397
74.34000 3.260
74.36000 1.661
74.38000 1.017
74.40000 -1.051
74.42000 0.365
74.44000 1.761
74.46000 2.650
74.48000 3.620
74.50000 8.701
74.52000 4.978
74.54000 2.453
74.56000 5.062
74.58000 -1.910
74.60000 0.478
74.62000 1.062
74.64000 3.185
74.66000 4.681
74.68000 6.675
74.70000 7.711
74.72000 1.167
74.74000 1.738
74.76000 4.184
74.78000 4.599
74.80000 6.744
74.82000 5.097
74.84000 1.597
74.86000 3.332
74.88000 2.507
74.90000 -0.209
74.92000 6.624
74.94000 4.510
74.96000 2.184
74.98000 3.430
75.00000 4.561
75.02000 0.123
75.04000 0.039
75.06000 -1.308
75.08000 0.039
75.10000 2.106
75.12000 -2.291
75.14000 2.431
75.16000 -2.146
75.18000 -1.205
75.20000 3.887
75.22000 6.046
75.24000 5.018
75.26000 5.916
75.28000 3.523
75.30000 1.159
75.32000 0.469
75.34000 1.438
75.36000 0.248
75.38000 1.855
75.40000 7.444
75.42000 8.833
75.44000 4.320
75.46000 -0.967
75.48000 3.388
75.50000 7.082
75.52000 10.906
75.54000 3.468
75.56000 0.849
75.58000 3.181
75.60000 4.364
75.62000 3.100
75.64000 -2.261
75.66000 1.934
75.68000 3.652
75.70000 1.221
75.72000 2.099
75.74000 5.050
75.76000 3.578
75.78000 5.186
75.80000 3.538
75.82000 2.644
75.84000 5.748
75.86000 4.188
75.88000 5.572
75.90000 7.629
75.92000 3.338
75.94000 -0.004
75.96000 2.547
75.98000 4.795
76.00000 -0.311
76.02000 0.492
76.04000 5.648
76.06000 3.558
76.08000 0.351
76.10000 2.945
76.12000 4.241
76.14000 5.715
76.16000 4.007
76.18000 5.924
76.20000 4.797
76.22000 1.045
76.24000 0.064
76.26000 4.361
76.28000 9.722
76.30000 7.507
76.32000 1.226
76.34000 4.969
76.36000 6.758
76.38000 5.698
76.40000 5.558
76.42000 4.215
76.44000 5.131
76.46000 6.908
76.48000 3.220
76.50000 -2.087
76.52000 -1.927
76.54000 0.501
76.56000 4.842
76.58000 5.352
76.60000 3.269
76.62000 2.005
76.64000 -0.048
76.66000 3.794
76.68000 5.746
76.70000 8.469
76.72000 1.922
76.74000 -1.457
76.76000 0.089
76.78000 -2.343
76.80000 -2.129
76.82000 0.190
76.84000 -1.573
76.86000 2.542
76.88000 5.201
76.90000 2.700
76.92000 -1.438
76.94000 -0.015
76.96000 -0.699
76.98000 -0.866
77.00000 4.461
77.02000 0.567
77.04000 1.820
77.06000 3.589
77.08000 -0.811
77.10000 2.308
77.12000 0.499
77.14000 0.736
77.16000 4.730
77.18000 4.426
77.20000 4.939
77.22000 4.948
77.24000 3.459
77.26000 4.015
77.28000 7.061
77.30000 2.315
77.32000 1.934
77.34000 9.615
77.36000 11.377
77.38000 8.634
77.40000 2.791
77.42000 3.476
77.44000 4.347
77.46000 5.548
77.48000 7.958
77.50000 2.951
77.52000 4.098
77.54000 1.925
77.56000 1.329
77.58000 3.211
77.60000 0.374
77.62000 3.122
77.64000 3.158
77.66000 3.457
77.68000 4.452
77.70000 1.092
77.72000 2.333
77.74000 -1.145
77.76000 0.001
77.78000 3.380
77.80000 3.784
77.82000 2.183
77.84000 4.225
77.86000 2.914
77.88000 4.120
77.90000 6.889
77.92000 4.468
77.94000 3.789
77.96000 -1.860
77.98000 -2.329
78.00000 -0.168
78.02000 3.953
78.04000 5.543
78.06000 1.138
78.08000 0.770
78.10000 2.736
78.12000 2.074
78.14000 2.804
78.16000 1.672
78.18000 1.296
78.20000 3.692
78.22000 6.461
78.24000 5.293
78.26000 4.363
78.28000 3.617
78.30000 4.304
78.32000 6.280
78.34000 7.147
78.36000 3.972
78.38000 4.571
78.40000 0.068
78.42000 1.051
78.44000 4.734
78.46000 5.770
78.48000 2.854
78.50000 -0.125
78.52000 -0.996
78.54000 -0.365
78.56000 4.580
78.58000 1.198
78.60000 2.121
78.62000 2.053
78.64000 2.220
78.66000 -2.166
78.68000 -1.666
78.70000 -1.394
78.72000 1.193
78.74000 5.984
78.76000 6.620
78.78000 0.528
78.80000 3.595
78.82000 2.719
78.84000 3.733
78.86000 5.377
78.88000 4.787
78.90000 2.283
78.92000 4.136
78.94000 4.758
78.96000 4.185
78.98000 -1.347
79.00000 0.312
79.02000 3.577
79.04000 5.194
79.06000 8.417
79.08000 6.917
79.10000 3.829
79.12000 3.218
79.14000 2.005
79.16000 0.584
79.18000 -2.347
79.20000 3.375
79.22000 2.763
79.24000 0.166
79.26000 1.817
79.28000 3.832
79.30000 7.649
79.32000 3.769
79.34000 -1.182
79.36000 -0.661
79.38000 0.019
79.40000 1.051
79.42000 -1.907
79.44000 3.742
79.46000 5.342
79.48000 4.764
79.50000 0.691
79.52000 5.907
79.54000 5.348
79.56000 4.046
79.58000 6.541
79.60000 0.225
79.62000 -0.460
79.64000 4.750
79.66000 3.985
79.68000 2.463
79.70000 4.458
79.72000 6.077
79.74000 2.691
79.76000 2.442
79.78000 3.194
79.80000 3.355
79.82000 2.015
79.84000 0.915
79.86000 0.517
79.88000 0.616
79.90000 2.050
79.92000 0.227
79.94000 -2.367
79.96000 2.567
79.98000 3.844
80.00000 6.487
80.02000 4.422
80.04000 2.742
80.06000 4.193
80.08000 1.465
80.10000 2.259
80.12000 1.495
80.14000 6.410
80.16000 6.663
80.18000 1.449
80.20000 4.991
80.22000 4.309
80.24000 -0.183
80.26000 0.987
80.28000 0.720
80.30000 1.695
80.32000 4.287
80.34000 4.785
80.36000 -0.183
80.38000 1.194
80.40000 2.407
80.42000 0.519
80.44000 0.676
80.46000 -0.528
80.48000 -1.967
80.50000 -2.416
80.52000 0.557
80.54000 7.067
80.56000 5.301
80.58000 0.403
80.60000 6.012
80.62000 6.193
80.64000 2.559
80.66000 0.635
80.68000 1.957
80.70000 -1.581
80.72000 0.550
80.74000 4.099
80.76000 3.129
80.78000 1.954
80.80000 3.003
80.82000 7.406
80.84000 7.512
80.86000 1.546
80.88000 1.383
80.90000 -2.438
80.92000 -2.217
80.94000 2.064
80.96000 5.524
80.98000 3.627
81.00000 1.341
81.02000 2.586
81.04000 3.461
81.06000 -1.990
81.08000 2.757
81.10000 4.031
81.12000 7.405
81.14000 4.647
81.16000 4.552
81.18000 5.807
81.20000 1.595
81.22000 3.685
81.24000 0.004
81.26000 1.081
81.28000 4.121
81.30000 1.688
81.32000 2.337
81.34000 4.286
81.36000 6.037
81.38000 3.770
81.40000 2.675
81.42000 2.900
81.44000 0.653
81.46000 2.239
81.48000 3.701
81.50000 8.769
81.52000 4.877
81.54000 2.788
81.56000 0.570
81.58000 -0.500
81.60000 6.251
81.62000 6.812
81.64000 2.063
81.66000 -2.479
81.68000 -1.689
81.70000 2.742
81.72000 3.460
81.74000 1.886
81.76000 4.380
81.78000 2.578
81.80000 2.316
81.82000 0.874
81.84000 2.285
81.86000 -1.242
81.88000 3.263
81.90000 3.111
81.92000 1.637
81.94000 5.813
81.96000 5.765
81.98000 2.625
82.00000 2.635
82.02000 0.476
82.04000 3.390
82.06000 10.869
82.08000 6.815
82.10000 5.374
82.12000 8.420
82.14000 7.132
82.16000 9.030
82.18000 6.981
82.20000 6.933
82.22000 3.829
82.24000 4.977
82.26000 6.122
82.28000 9.023
82.30000 9.987
82.32000 10.677
82.34000 8.343
82.36000 6.969
82.38000 6.517
82.40000 5.186
82.42000 10.348
82.44000 8.776
82.46000 6.622
82.48000 7.726
82.50000 2.937
82.52000 5.976
82.54000 10.097
82.56000 9.160
82.58000 9.203
82.60000 16.366
82.62000 13.645
82.64000 11.633
82.66000 6.594
82.68000 10.818
82.70000 11.131
82.72000 14.425
82.74000 14.340
82.76000 11.014
82.78000 17.557
82.80000 16.898
82.82000 18.013
82.84000 14.197
82.86000 13.461
82.88000 15.695
82.90000 13.028
82.92000 11.223
82.94000 15.910
82.96000 22.112
82.98000 19.692
83.00000 17.721
83.02000 12.723
83.04000 19.296
83.06000 17.774
83.08000 13.725
83.10000 15.298
83.12000 22.225
83.14000 24.764
83.16000 17.893
83.18000 22.231
83.20000 19.047
83.22000 23.823
83.24000 23.706
83.26000 19.184
83.28000 22.064
83.30000 31.581
83.32000 26.996
83.34000 22.570
83.36000 22.641
83.38000 21.639
83.40000 23.770
83.42000 25.726
83.44000 24.494
83.46000 26.053
83.48000 25.049
83.50000 22.901
83.52000 21.416
83.54000 22.850
83.56000 22.470
83.58000 24.481
83.60000 26.773
83.62000 29.723
83.64000 30.029
83.66000 27.378
83.68000 27.981
83.70000 30.519
83.72000 34.466
83.74000 27.497
83.76000 23.001
83.78000 23.764
83.80000 25.591
83.82000 25.573
83.84000 21.882
83.86000 20.620
83.88000 20.410
83.90000 21.148
83.92000 21.992
83.94000 19.476
83.96000 18.675
83.98000 17.210
84.00000 23.758
84.02000 26.541
84.04000 22.988
84.06000 20.468
84.08000 19.518
84.10000 19.535
84.12000 15.925
84.14000 15.494
84.16000 11.150
84.18000 17.263
84.20000 14.315
84.22000 7.858
84.24000 17.242
84.26000 10.531
84.28000 13.614
84.30000 14.445
84.32000 10.641
84.34000 9.721
84.36000 6.819
84.38000 5.225
84.40000 9.731
84.42000 10.980
84.44000 8.929
84.46000 6.297
84.48000 7.630
84.50000 5.257
84.52000 6.185
84.54000 9.571
84.56000 11.280
84.58000 9.359
84.60000 9.470
84.62000 9.895
84.64000 6.823
84.66000 9.361
84.68000 8.123
84.70000 6.121
84.72000 8.558
84.74000 7.517
84.76000 5.691
84.78000 5.544
84.80000 5.994
84.82000 5.576
84.84000 6.254
84.86000 6.479
84.88000 4.302
84.90000 5.624
84.92000 3.384
84.94000 3.732
84.96000 4.415
84.98000 3.691
85.00000 9.073
85.02000 6.760
85.04000 10.172
85.06000 9.903
85.08000 4.264
85.10000 6.764
85.12000 2.903
85.14000 1.723
85.16000 2.917
85.18000 10.261
85.20000 9.535
85.22000 8.251
85.24000 2.499
85.26000 5.868
85.28000 6.546
85.30000 5.771
85.32000 1.392
85.34000 3.154
85.36000 7.536
85.38000 6.097
85.40000 0.251
85.42000 -2.368
85.44000 0.601
85.46000 4.251
85.48000 5.451
85.50000 2.993
85.52000 7.485
85.54000 6.531
85.56000 8.330
85.58000 4.788
85.60000 1.504
85.62000 1.038
85.64000 1.259
85.66000 1.699
85.68000 0.978
85.70000 2.381
85.72000 5.376
85.74000 6.760
85.76000 6.926
85.78000 -0.088
85.80000 1.564
85.82000 1.165
85.84000 -1.741
85.86000 -0.962
85.88000 -0.361
85.90000 0.776
85.92000 3.206
85.94000 2.511
85.96000 3.875
85.98000 2.243
86.00000 -0.231
86.02000 -0.578
86.04000 2.662
86.06000 0.137
86.08000 0.642
86.10000 4.126
86.12000 1.483
86.14000 2.665
86.16000 2.307
86.18000 2.229
86.20000 5.451
86.22000 3.118
86.24000 4.286
86.26000 3.728
86.28000 3.180
86.30000 3.029
86.32000 7.510
86.34000 5.830
86.36000 3.354
86.38000 6.275
86.40000 4.438
86.42000 1.488
86.44000 -1.740
86.46000 -2.389
86.48000 -1.673
86.50000 1.980
86.52000 3.277
86.54000 0.105
86.56000 1.420
86.58000 -0.823
86.60000 -1.013
86.62000 -0.312
86.64000 2.219
86.66000 3.854
86.68000 4.104
86.70000 6.573
86.72000 7.326
86.74000 1.844
86.76000 -1.486
86.78000 2.637
86.80000 3.649
86.82000 5.829
86.84000 3.904
86.86000 1.332
86.88000 -1.751
86.90000 2.804
86.92000 2.103
86.94000 7.260
86.96000 12.693
86.98000 5.603
87.00000 5.497
87.02000 2.047
87.04000 2.901
87.06000 12.287
87.08000 11.902
87.10000 8.958
87.12000 5.909
87.14000 6.613
87.16000 6.371
87.18000 4.688
87.20000 6.763
87.22000 1.975
87.24000 4.373
87.26000 5.838
87.28000 4.043
87.30000 4.511
87.32000 4.241
87.34000 7.999
87.36000 12.037
87.38000 11.503
87.40000 11.131
87.42000 11.614
87.44000 10.182
87.46000 9.121
87.48000 17.753
87.50000 17.656
87.52000 12.417
87.54000 11.472
87.56000 13.936
87.58000 13.988
87.60000 14.163
87.62000 11.880
87.64000 17.959
87.66000 17.263
87.68000 16.900
87.70000 17.817
87.72000 18.823
87.74000 18.015
87.76000 19.804
87.78000 16.125
87.80000 15.119
87.82000 18.732
87.84000 20.728
87.86000 23.033
87.88000 24.439
87.90000 22.490
87.92000 18.191
87.94000 12.271
87.96000 16.742
87.98000 17.302
88.00000 17.005
88.02000 22.282
88.04000 24.587
88.06000 23.302
88.08000 19.245
88.10000 13.663
88.12000 21.232
88.14000 19.068
88.16000 18.788
88.18000 20.167
88.20000 28.803
88.22000 27.145
88.24000 23.458
88.26000 17.362
88.28000 22.384
88.30000 22.364
88.32000 21.855
88.34000 23.551
88.36000 24.517
88.38000 18.539
88.40000 21.534
88.42000 22.605
88.44000 17.680
88.46000 17.977
88.48000 25.874
88.50000 24.510
88.52000 15.417
88.54000 11.436
88.56000 14.081
88.58000 13.201
88.60000 20.319
88.62000 16.678
88.64000 14.301
88.66000 15.576
88.68000 14.842
88.70000 10.758
88.72000 7.997
88.74000 14.422
88.76000 16.247
88.78000 14.827
88.80000 14.943
88.82000 14.983
88.84000 18.767
88.86000 14.647
88.88000 13.423
88.90000 6.805
88.92000 11.798
88.94000 9.705
88.96000 9.938
88.98000 9.418
89.00000 8.819
89.02000 9.423
89.04000 6.920
89.06000 7.317
89.08000 3.405
89.10000 8.414
89.12000 7.551
89.14000 3.025
89.16000 4.821
89.18000 6.976
89.20000 7.402
89.22000 6.842
89.24000 8.033
89.26000 3.389
89.28000 2.813
89.30000 5.139
89.32000 2.566
89.34000 1.724
89.36000 4.870
89.38000 4.654
89.40000 2.025
89.42000 -1.372
89.44000 1.225
89.46000 1.217
89.48000 5.166
89.50000 3.652
89.52000 4.522
89.54000 10.278
89.56000 4.845
89.58000 3.593
89.60000 7.903
89.62000 4.952
89.64000 -2.321
89.66000 -0.777
89.68000 6.671
89.70000 8.644
89.72000 3.291
89.74000 0.399
89.76000 0.549
89.78000 1.072
89.80000 1.428
89.82000 -2.301
89.84000 1.942
89.86000 6.527
89.88000 5.765
89.90000 1.757
89.92000 2.941
89.94000 4.224
89.96000 5.864
89.98000 8.347
90.00000 6.671
90.02000 4.286
90.04000 5.422
90.06000 2.956
90.08000 0.540
90.10000 1.776
90.12000 2.272
90.14000 -2.272
90.16000 2.047
90.18000 4.166
90.20000 1.806
90.22000 3.442
90.24000 2.216
90.26000 -0.712
90.28000 3.045
90.30000 3.962
90.32000 2.946
90.34000 1.217
90.36000 3.745
90.38000 2.859
90.40000 2.449
90.42000 1.548
90.44000 2.043
90.46000 1.421
90.48000 0.965
90.50000 -0.597
90.52000 -0.498
90.54000 2.353
90.56000 3.490
90.58000 0.003
90.60000 0.311
90.62000 3.278
90.64000 6.126
90.66000 -0.443
90.68000 0.562
90.70000 1.339
90.72000 -1.721
90.74000 0.551
90.76000 0.069
90.78000 -1.512
90.80000 -1.907
90.82000 2.452
90.84000 1.855
90.86000 -2.164
90.88000 -0.358
90.90000 -1.133
90.92000 4.041
90.94000 5.346
90.96000 3.099
90.98000 0.102
91.00000 3.231
91.02000 2.823
91.04000 1.355
91.06000 1.173
91.08000 0.939
91.10000 0.534
91.12000 -2.246
91.14000 2.046
91.16000 4.037
91.18000 6.149
91.20000 4.982
91.22000 1.525
91.24000 0.163
91.26000 0.730
91.28000 2.149
91.30000 5.455
91.32000 1.229
91.34000 1.779
91.36000 2.211
91.38000 2.179
91.40000 0.912
91.42000 3.959
91.44000 3.351
91.46000 3.671
91.48000 4.975
91.50000 1.741
91.52000 0.833
91.54000 0.788
91.56000 0.171
91.58000 -2.222
91.60000 -0.605
91.62000 0.314
91.64000 1.871
91.66000 1.272
91.68000 0.479
91.70000 7.662
91.72000 5.130
91.74000 4.041
91.76000 3.678
91.78000 2.832
91.80000 -2.212
91.82000 4.299
91.84000 6.962
91.86000 7.915
91.88000 0.981
91.90000 2.764
91.92000 1.118
91.94000 1.592
91.96000 5.744
91.98000 7.050
92.00000 3.816
92.02000 5.847
92.04000 6.978
92.06000 7.736
92.08000 0.412
92.10000 -1.581
92.12000 -0.490
92.14000 0.297
92.16000 2.480
92.18000 2.558
92.20000 1.878
92.22000 7.755
92.24000 5.084
92.26000 4.610
92.28000 1.210
92.30000 0.534
92.32000 2.638
92.34000 0.705
92.36000 4.813
92.38000 7.699
92.40000 7.136
92.42000 3.104
92.44000 0.467
92.46000 3.180
92.48000 1.443
92.50000 5.404
92.52000 -1.326
92.54000 0.033
92.56000 2.740
92.58000 -0.222
92.60000 1.136
92.62000 2.301
92.64000 0.658
92.66000 0.979
92.68000 2.645
92.70000 3.738
92.72000 2.392
92.74000 5.001
92.76000 4.664
92.78000 5.314
92.80000 1.537
92.82000 1.981
92.84000 3.472
92.86000 2.559
92.88000 3.448
92.90000 5.486
92.92000 5.598
92.94000 9.682
92.96000 4.407
92.98000 -2.233
93.00000 0.996
93.02000 1.973
93.04000 1.754
93.06000 3.998
93.08000 6.747
93.10000 6.345
93.12000 0.628
93.14000 -1.074
93.16000 2.098
93.18000 3.863
93.20000 4.541
93.22000 8.356
93.24000 4.571
93.26000 4.683
93.28000 4.088
93.30000 0.869
93.32000 -1.225
93.34000 2.957
93.36000 7.326
93.38000 7.934
93.40000 7.902
93.42000 2.103
93.44000 8.197
93.46000 9.713
93.48000 5.838
93.50000 5.940
93.52000 8.292
93.54000 1.139
93.56000 2.993
93.58000 5.571
93.60000 5.096
93.62000 3.607
93.64000 6.292
93.66000 8.025
93.68000 5.704
93.70000 10.367
93.72000 6.797
93.74000 3.212
93.76000 3.416
93.78000 7.159
93.80000 5.339
93.82000 5.125
93.84000 2.621
93.86000 5.788
93.88000 8.951
93.90000 8.680
93.92000 6.884
93.94000 -2.210
93.96000 2.948
93.98000 4.856
94.00000 1.709
94.02000 2.562
94.04000 3.907
94.06000 1.099
94.08000 3.999
94.10000 5.814
94.12000 7.593
94.14000 5.722
94.16000 5.178
94.18000 9.547
94.20000 8.402
94.22000 8.653
94.24000 4.083
94.26000 -0.089
94.28000 0.419
94.30000 4.201
94.32000 3.954
94.34000 -0.003
94.36000 2.286
94.38000 8.770
94.40000 6.405
94.42000 0.673
94.44000 3.840
94.46000 6.681
94.48000 -1.288
94.50000 1.460
94.52000 2.897
94.54000 2.336
94.56000 0.331
94.58000 -0.840
94.60000 2.808
94.62000 4.006
94.64000 8.881
94.66000 4.827
94.68000 1.907
94.70000 4.595
94.72000 5.878
94.74000 5.889
94.76000 1.550
94.78000 5.845
94.80000 2.954
94.82000 -0.171
94.84000 2.014
94.86000 1.738
94.88000 1.963
94.90000 3.705
94.92000 2.606
94.94000 0.832
94.96000 2.422
94.98000 4.258
95.00000 3.158
95.02000 6.165
95.04000 2.235
95.06000 -2.020
95.08000 3.980
95.10000 5.206
95.12000 6.291
95.14000 8.564
95.16000 8.161
95.18000 4.370
95.20000 -0.141
95.22000 -1.158
95.24000 4.319
95.26000 0.712
95.28000 6.678
95.30000 4.481
95.32000 1.325
95.34000 3.550
95.36000 3.649
95.38000 1.917
95.40000 -0.808
95.42000 0.118
95.44000 -0.991
95.46000 -0.558
95.48000 -1.975
95.50000 2.141
95.52000 2.035
95.54000 -0.727
95.56000 6.401
95.58000 3.355
95.60000 -1.002
95.62000 0.459
95.64000 5.146
95.66000 8.052
95.68000 1.743
95.70000 2.979
95.72000 7.503
95.74000 4.681
95.76000 0.280
95.78000 -0.024
95.80000 -1.945
95.82000 1.095
95.84000 -2.256
95.86000 1.081
95.88000 4.122
95.90000 2.857
95.92000 5.644
95.94000 4.443
95.96000 7.520
95.98000 6.292
96.00000 6.073
96.02000 0.790
96.04000 6.481
96.06000 6.286
96.08000 1.878
96.10000 -0.012
96.12000 2.703
96.14000 7.135
96.16000 4.359
96.18000 7.455
96.20000 8.875
96.22000 10.174
96.24000 1.668
96.26000 -1.324
96.28000 -2.086
96.30000 -0.075
96.32000 -0.132
96.34000 2.505
96.36000 5.509
96.38000 5.417
96.40000 -0.680
96.42000 0.207
96.44000 0.343
96.46000 -1.259
96.48000 2.834
96.50000 9.213
96.52000 14.157
96.54000 8.033
96.56000 4.210
96.58000 2.823
96.60000 2.535
96.62000 1.781
96.64000 -1.656
96.66000 5.065
96.68000 -0.574
96.70000 -1.890
96.72000 2.632
96.74000 2.864
96.76000 0.964
96.78000 6.765
96.80000 10.159
96.82000 6.581
96.84000 -2.229
96.86000 0.553
96.88000 6.948
96.90000 9.297
96.92000 11.334
96.94000 7.573
96.96000 1.787
96.98000 -0.905
97.00000 4.387
97.02000 7.574
97.04000 5.248
97.06000 4.086
97.08000 -0.954
97.10000 2.145
97.12000 3.167
97.14000 9.011
97.16000 7.158
97.18000 2.611
97.20000 3.752
97.22000 1.743
97.24000 5.494
97.26000 8.425
97.28000 3.311
97.30000 3.396
97.32000 10.739
97.34000 12.880
97.36000 12.740
97.38000 10.731
97.40000 9.080
97.42000 12.173
97.44000 8.191
97.46000 9.657
97.48000 11.566
97.50000 6.488
97.52000 4.707
97.54000 9.907
97.56000 11.712
97.58000 8.836
97.60000 8.894
97.62000 4.960
97.64000 2.911
97.66000 8.670
97.68000 6.613
97.70000 9.821
97.72000 4.902
97.74000 7.538
97.76000 6.217
97.78000 3.213
97.80000 5.473
97.82000 7.383
97.84000 9.942
97.86000 12.209
97.88000 10.631
97.90000 14.171
97.92000 6.717
97.94000 1.063
97.96000 5.545
97.98000 10.907
98.00000 9.460
98.02000 6.794
98.04000 6.952
98.06000 -2.168
98.08000 -0.510
98.10000 1.721
98.12000 6.311
98.14000 5.530
98.16000 11.554
98.18000 5.211
98.20000 8.282
98.22000 12.478
98.24000 6.244
98.26000 6.848
98.28000 9.267
98.30000 12.466
98.32000 18.437
98.34000 7.914
98.36000 9.199
98.38000 8.643
98.40000 6.268
98.42000 3.148
98.44000 9.146
98.46000 8.304
98.48000 9.850
98.50000 9.011
98.52000 10.415
98.54000 6.467
98.56000 6.870
98.58000 11.613
98.60000 13.405
98.62000 9.136
98.64000 14.606
98.66000 11.444
98.68000 10.547
98.70000 7.892
98.72000 9.945
98.74000 10.690
98.76000 5.506
98.78000 1.647
98.80000 -4.805
98.82000 9.017
98.84000 13.065
98.86000 10.058
98.88000 3.392
98.90000 5.824
98.92000 13.572
98.94000 11.010
98.96000 7.434
98.98000 13.376
99.00000 12.364
99.02000 13.071
99.04000 6.463
99.06000 9.900
99.08000 5.511
99.10000 6.374
99.12000 23.340
99.14000 20.331
99.16000 5.715
99.18000 -2.070
99.20000 -1.996
99.22000 4.856
99.24000 6.423
99.26000 9.484
99.28000 1.347
99.30000 -0.149
99.32000 9.814
99.34000 8.276
99.36000 6.235
99.38000 7.762
99.40000 7.696
99.42000 9.862
99.44000 11.960
99.46000 9.663
99.48000 1.392
99.50000 3.580
99.52000 7.535
99.54000 0.462
99.56000 9.355
99.58000 12.126
99.60000 -0.341
99.62000 4.828
99.64000 6.829
99.66000 10.326
99.68000 4.516
99.70000 2.598
99.72000 12.137
99.74000 1.502
99.76000 0.713
99.78000 -2.276
99.80000 2.822
99.82000 2.201
99.84000 3.774
99.86000 -2.308
99.88000 -0.462
99.90000 8.525
99.92000 7.059
99.94000 8.146
99.96000 -3.265
99.98000 0.000
