'Id: "0011389" Comment: "Integrate frame 0011389_Au-Ir-Rh_Au-Rich_XRD_Mapping-262-0000.gfrmwith cursor Wedge Cursor #5" Operator: "B?rgel" Anode: "Cu" Wavelength: "1.5406" Scantype: "2Theta (TwoTheta)" TimePerStep: "1" X: "-31.5" Y: "22.5" Z: "5.95" 
10.00000 0.000
10.02000 -4.762
10.04000 -4.700
10.06000 -4.653
10.08000 -4.611
10.10000 15.188
10.12000 19.789
10.14000 7.795
10.16000 -4.699
10.18000 12.704
10.20000 20.453
10.22000 9.475
10.24000 8.822
10.26000 19.004
10.28000 32.732
10.30000 37.316
10.32000 46.983
10.34000 33.448
10.36000 19.986
10.38000 5.180
10.40000 3.243
10.42000 9.094
10.44000 0.740
10.46000 2.458
10.48000 14.745
10.50000 22.385
10.52000 5.932
10.54000 6.874
10.56000 21.792
10.58000 23.759
10.60000 11.780
10.62000 22.098
10.64000 18.364
10.66000 19.107
10.68000 15.585
10.70000 19.125
10.72000 24.747
10.74000 26.217
10.76000 23.652
10.78000 22.721
10.80000 15.343
10.82000 -1.020
10.84000 3.077
10.86000 8.626
10.88000 6.644
10.90000 13.070
10.92000 21.845
10.94000 20.247
10.96000 16.738
10.98000 3.216
11.00000 6.186
11.02000 17.700
11.04000 13.248
11.06000 18.482
11.08000 10.738
11.10000 14.300
11.12000 22.284
11.14000 7.251
11.16000 14.440
11.18000 14.161
11.20000 8.108
11.22000 13.819
11.24000 14.239
11.26000 17.873
11.28000 13.270
11.30000 3.684
11.32000 13.013
11.34000 4.721
11.36000 6.011
11.38000 21.183
11.40000 23.507
11.42000 22.752
11.44000 14.496
11.46000 13.301
11.48000 2.754
11.50000 15.964
11.52000 13.736
11.54000 19.937
11.56000 39.024
11.58000 16.295
11.60000 7.562
11.62000 11.592
11.64000 20.472
11.66000 24.418
11.68000 14.489
11.70000 8.079
11.72000 10.823
11.74000 24.943
11.76000 14.274
11.78000 15.548
11.80000 22.693
11.82000 23.520
11.84000 9.867
11.86000 -8.876
11.88000 11.942
11.90000 20.797
11.92000 16.765
11.94000 17.012
11.96000 17.327
11.98000 16.848
12.00000 4.253
12.02000 13.289
12.04000 19.364
12.06000 16.879
12.08000 15.324
12.10000 22.420
12.12000 15.241
12.14000 11.567
12.16000 20.572
12.18000 23.701
12.20000 20.231
12.22000 8.607
12.24000 12.212
12.26000 18.996
12.28000 18.364
12.30000 17.777
12.32000 7.429
12.34000 15.420
12.36000 12.211
12.38000 7.284
12.40000 7.106
12.42000 10.060
12.44000 25.585
12.46000 17.012
12.48000 15.864
12.50000 11.134
12.52000 25.328
12.54000 20.147
12.56000 10.542
12.58000 8.987
12.60000 6.057
12.62000 9.675
12.64000 20.780
12.66000 31.611
12.68000 16.741
12.70000 17.179
12.72000 18.197
12.74000 11.538
12.76000 12.311
12.78000 18.524
12.80000 12.217
12.82000 16.973
12.84000 13.748
12.86000 8.682
12.88000 10.143
12.90000 12.817
12.92000 14.531
12.94000 18.445
12.96000 20.367
12.98000 13.999
13.00000 4.925
13.02000 17.390
13.04000 23.401
13.06000 22.314
13.08000 10.741
13.10000 6.331
13.12000 18.179
13.14000 16.174
13.16000 12.171
13.18000 15.622
13.20000 16.410
13.22000 20.289
13.24000 17.520
13.26000 20.060
13.28000 18.692
13.30000 17.513
13.32000 21.349
13.34000 22.255
13.36000 19.537
13.38000 10.412
13.40000 12.928
13.42000 17.681
13.44000 16.821
13.46000 11.265
13.48000 7.117
13.50000 3.576
13.52000 10.824
13.54000 10.045
13.56000 7.233
13.58000 13.304
13.60000 14.357
13.62000 15.291
13.64000 11.360
13.66000 6.357
13.68000 6.141
13.70000 12.462
13.72000 13.045
13.74000 15.628
13.76000 15.117
13.78000 15.417
13.80000 2.261
13.82000 8.666
13.84000 9.864
13.86000 6.356
13.88000 10.869
13.90000 14.137
13.92000 13.127
13.94000 10.787
13.96000 10.504
13.98000 9.194
14.00000 0.460
14.02000 2.035
14.04000 4.441
14.06000 -0.710
14.08000 8.373
14.10000 9.545
14.12000 7.873
14.14000 20.491
14.16000 21.259
14.18000 17.089
14.20000 13.609
14.22000 17.638
14.24000 14.965
14.26000 8.259
14.28000 8.810
14.30000 11.101
14.32000 13.552
14.34000 12.418
14.36000 10.781
14.38000 16.129
14.40000 16.563
14.42000 16.612
14.44000 14.838
14.46000 17.873
14.48000 14.537
14.50000 20.435
14.52000 24.155
14.54000 15.702
14.56000 7.797
14.58000 5.065
14.60000 2.965
14.62000 -1.047
14.64000 -0.615
14.66000 11.432
14.68000 13.098
14.70000 1.364
14.72000 6.026
14.74000 0.658
14.76000 7.391
14.78000 11.384
14.80000 12.965
14.82000 9.747
14.84000 5.195
14.86000 3.801
14.88000 2.398
14.90000 -4.478
14.92000 -4.391
14.94000 6.039
14.96000 10.803
14.98000 12.285
15.00000 16.132
15.02000 18.023
15.04000 16.266
15.06000 8.286
15.08000 11.149
15.10000 4.304
15.12000 13.494
15.14000 12.221
15.16000 12.714
15.18000 13.177
15.20000 9.191
15.22000 10.856
15.24000 13.496
15.26000 14.733
15.28000 5.221
15.30000 2.196
15.32000 6.802
15.34000 2.170
15.36000 -2.129
15.38000 -2.720
15.40000 0.883
15.42000 11.875
15.44000 17.509
15.46000 12.916
15.48000 12.108
15.50000 11.417
15.52000 11.996
15.54000 13.464
15.56000 4.910
15.58000 -4.351
15.60000 1.311
15.62000 10.531
15.64000 18.116
15.66000 21.108
15.68000 2.399
15.70000 5.292
15.72000 3.906
15.74000 5.249
15.76000 4.653
15.78000 11.508
15.80000 1.192
15.82000 3.298
15.84000 9.533
15.86000 5.530
15.88000 9.905
15.90000 12.651
15.92000 11.801
15.94000 10.872
15.96000 15.708
15.98000 6.392
16.00000 2.383
16.02000 17.552
16.04000 12.200
16.06000 0.233
16.08000 -1.421
16.10000 4.445
16.12000 13.577
16.14000 11.150
16.16000 4.462
16.18000 7.824
16.20000 2.157
16.22000 8.955
16.24000 14.476
16.26000 3.057
16.28000 -2.759
16.30000 -4.454
16.32000 2.885
16.34000 4.697
16.36000 3.163
16.38000 9.003
16.40000 5.107
16.42000 14.227
16.44000 15.456
16.46000 13.614
16.48000 3.999
16.50000 6.135
16.52000 7.369
16.54000 6.099
16.56000 7.468
16.58000 15.976
16.60000 16.564
16.62000 8.396
16.64000 7.189
16.66000 0.450
16.68000 1.586
16.70000 6.989
16.72000 0.182
16.74000 3.627
16.76000 5.926
16.78000 7.449
16.80000 6.928
16.82000 3.213
16.84000 -1.060
16.86000 9.385
16.88000 10.419
16.90000 16.219
16.92000 12.204
16.94000 5.702
16.96000 9.082
16.98000 4.465
17.00000 6.716
17.02000 15.862
17.04000 16.735
17.06000 5.658
17.08000 -0.059
17.10000 -1.799
17.12000 1.343
17.14000 6.948
17.16000 2.081
17.18000 11.101
17.20000 13.886
17.22000 7.857
17.24000 6.581
17.26000 7.947
17.28000 6.693
17.30000 5.668
17.32000 3.723
17.34000 5.879
17.36000 3.113
17.38000 4.142
17.40000 5.502
17.42000 4.834
17.44000 1.958
17.46000 7.473
17.48000 8.667
17.50000 0.881
17.52000 2.623
17.54000 5.719
17.56000 2.649
17.58000 0.598
17.60000 4.480
17.62000 -1.517
17.64000 3.875
17.66000 -0.297
17.68000 5.749
17.70000 5.412
17.72000 5.778
17.74000 9.610
17.76000 7.598
17.78000 -0.651
17.80000 -1.398
17.82000 6.134
17.84000 6.741
17.86000 5.319
17.88000 0.319
17.90000 1.967
17.92000 -4.389
17.94000 -3.882
17.96000 -2.089
17.98000 -0.653
18.00000 3.764
18.02000 6.700
18.04000 6.678
18.06000 8.866
18.08000 5.882
18.10000 0.931
18.12000 2.478
18.14000 7.675
18.16000 6.798
18.18000 8.700
18.20000 7.929
18.22000 7.117
18.24000 5.501
18.26000 8.715
18.28000 -1.355
18.30000 0.383
18.32000 0.597
18.34000 4.211
18.36000 2.493
18.38000 1.766
18.40000 3.864
18.42000 -0.127
18.44000 2.935
18.46000 8.691
18.48000 8.870
18.50000 6.699
18.52000 -1.949
18.54000 -0.493
18.56000 -0.295
18.58000 1.694
18.60000 -2.480
18.62000 -3.397
18.64000 3.621
18.66000 7.857
18.68000 4.828
18.70000 -2.455
18.72000 1.635
18.74000 4.535
18.76000 9.302
18.78000 6.034
18.80000 4.336
18.82000 0.167
18.84000 -1.452
18.86000 3.488
18.88000 5.383
18.90000 6.592
18.92000 0.182
18.94000 -1.674
18.96000 -3.311
18.98000 -1.678
19.00000 2.177
19.02000 8.038
19.04000 14.170
19.06000 10.493
19.08000 6.561
19.10000 4.592
19.12000 6.890
19.14000 11.755
19.16000 4.309
19.18000 0.595
19.20000 12.407
19.22000 6.725
19.24000 1.339
19.26000 1.358
19.28000 7.290
19.30000 7.589
19.32000 1.855
19.34000 2.963
19.36000 2.043
19.38000 -1.525
19.40000 -4.293
19.42000 4.423
19.44000 -2.621
19.46000 -2.789
19.48000 0.230
19.50000 -1.246
19.52000 -0.886
19.54000 0.243
19.56000 4.459
19.58000 2.581
19.60000 1.520
19.62000 1.905
19.64000 4.001
19.66000 6.278
19.68000 1.339
19.70000 6.490
19.72000 3.567
19.74000 1.875
19.76000 7.225
19.78000 8.182
19.80000 3.860
19.82000 4.196
19.84000 0.183
19.86000 1.065
19.88000 7.754
19.90000 5.984
19.92000 5.170
19.94000 1.162
19.96000 -2.427
19.98000 -3.161
20.00000 -3.401
20.02000 -3.012
20.04000 3.192
20.06000 1.760
20.08000 0.529
20.10000 -2.991
20.12000 -1.049
20.14000 -0.537
20.16000 -2.404
20.18000 -1.912
20.20000 -1.360
20.22000 -2.571
20.24000 -2.620
20.26000 3.739
20.28000 7.286
20.30000 2.513
20.32000 -3.627
20.34000 -1.974
20.36000 -1.135
20.38000 4.500
20.40000 11.090
20.42000 4.692
20.44000 4.179
20.46000 0.429
20.48000 -1.512
20.50000 -3.458
20.52000 3.268
20.54000 1.781
20.56000 -0.707
20.58000 2.244
20.60000 4.257
20.62000 3.158
20.64000 10.178
20.66000 -1.000
20.68000 -3.699
20.70000 0.916
20.72000 4.039
20.74000 7.328
20.76000 -2.906
20.78000 -2.943
20.80000 2.214
20.82000 3.996
20.84000 6.100
20.86000 0.074
20.88000 -0.299
20.90000 2.456
20.92000 8.086
20.94000 5.124
20.96000 1.721
20.98000 4.509
21.00000 2.320
21.02000 9.086
21.04000 7.814
21.06000 2.793
21.08000 8.823
21.10000 5.868
21.12000 -1.986
21.14000 3.865
21.16000 6.339
21.18000 3.293
21.20000 0.256
21.22000 4.620
21.24000 4.043
21.26000 0.472
21.28000 0.885
21.30000 4.237
21.32000 6.565
21.34000 11.434
21.36000 2.115
21.38000 2.070
21.40000 -1.208
21.42000 2.306
21.44000 3.002
21.46000 3.075
21.48000 -0.187
21.50000 -4.176
21.52000 2.558
21.54000 2.076
21.56000 3.409
21.58000 6.321
21.60000 0.987
21.62000 -3.076
21.64000 2.482
21.66000 1.553
21.68000 4.223
21.70000 3.064
21.72000 -3.042
21.74000 1.867
21.76000 7.413
21.78000 3.124
21.80000 -3.006
21.82000 1.160
21.84000 2.856
21.86000 2.041
21.88000 2.320
21.90000 -0.121
21.92000 9.285
21.94000 2.441
21.96000 4.674
21.98000 2.071
22.00000 4.621
22.02000 8.159
22.04000 8.827
22.06000 4.582
22.08000 -1.123
22.10000 -4.133
22.12000 0.121
22.14000 6.845
22.16000 0.829
22.18000 3.331
22.20000 0.440
22.22000 -0.081
22.24000 0.707
22.26000 -1.128
22.28000 -4.121
22.30000 3.029
22.32000 0.936
22.34000 -1.928
22.36000 3.241
22.38000 4.907
22.40000 2.486
22.42000 7.407
22.44000 7.065
22.46000 4.822
22.48000 9.497
22.50000 2.781
22.52000 2.314
22.54000 6.477
22.56000 4.230
22.58000 -1.750
22.60000 1.457
22.62000 9.381
22.64000 2.488
22.66000 6.019
22.68000 4.124
22.70000 4.154
22.72000 2.983
22.74000 4.800
22.76000 5.711
22.78000 0.486
22.80000 -0.823
22.82000 7.192
22.84000 6.352
22.86000 6.693
22.88000 8.929
22.90000 8.094
22.92000 1.016
22.94000 3.416
22.96000 7.907
22.98000 5.422
23.00000 4.394
23.02000 4.793
23.04000 4.537
23.06000 2.953
23.08000 -2.685
23.10000 0.500
23.12000 4.454
23.14000 5.782
23.16000 5.002
23.18000 -2.933
23.20000 -0.743
23.22000 1.945
23.24000 3.287
23.26000 0.973
23.28000 4.881
23.30000 -1.679
23.32000 -0.086
23.34000 6.378
23.36000 1.977
23.38000 6.660
23.40000 6.187
23.42000 2.981
23.44000 1.272
23.46000 4.647
23.48000 3.293
23.50000 -1.812
23.52000 -0.303
23.54000 -3.268
23.56000 -1.175
23.58000 1.013
23.60000 5.499
23.62000 10.538
23.64000 5.852
23.66000 2.531
23.68000 4.117
23.70000 2.989
23.72000 -2.372
23.74000 1.843
23.76000 4.303
23.78000 -2.151
23.80000 -4.043
23.82000 0.882
23.84000 -2.953
23.86000 5.848
23.88000 2.853
23.90000 -2.354
23.92000 -1.481
23.94000 9.938
23.96000 3.286
23.98000 2.272
24.00000 6.661
24.02000 3.869
24.04000 8.394
24.06000 2.643
24.08000 4.122
24.10000 5.884
24.12000 2.188
24.14000 2.952
24.16000 5.716
24.18000 6.662
24.20000 4.290
24.22000 0.260
24.24000 2.093
24.26000 4.619
24.28000 8.144
24.30000 8.645
24.32000 2.287
24.34000 0.664
24.36000 -0.796
24.38000 2.455
24.40000 5.849
24.42000 3.069
24.44000 11.070
24.46000 9.271
24.48000 -0.903
24.50000 3.904
24.52000 2.307
24.54000 4.872
24.56000 4.499
24.58000 0.231
24.60000 5.337
24.62000 6.119
24.64000 1.375
24.66000 3.208
24.68000 2.134
24.70000 -3.991
24.72000 3.768
24.74000 6.565
24.76000 3.575
24.78000 1.631
24.80000 2.963
24.82000 2.184
24.84000 0.991
24.86000 0.435
24.88000 4.890
24.90000 1.833
24.92000 2.685
24.94000 9.132
24.96000 4.973
24.98000 -2.821
25.00000 -0.704
25.02000 3.151
25.04000 2.839
25.06000 4.359
25.08000 10.197
25.10000 7.828
25.12000 11.712
25.14000 6.728
25.16000 1.269
25.18000 1.957
25.20000 3.157
25.22000 5.913
25.24000 5.099
25.26000 0.479
25.28000 1.534
25.30000 2.734
25.32000 5.187
25.34000 4.897
25.36000 6.427
25.38000 8.085
25.40000 5.653
25.42000 4.553
25.44000 8.974
25.46000 10.939
25.48000 7.572
25.50000 1.300
25.52000 3.680
25.54000 1.497
25.56000 7.897
25.58000 13.746
25.60000 11.176
25.62000 10.427
25.64000 10.469
25.66000 2.580
25.68000 -1.933
25.70000 -3.927
25.72000 1.080
25.74000 -0.413
25.76000 6.130
25.78000 6.672
25.80000 2.884
25.82000 5.722
25.84000 5.851
25.86000 5.655
25.88000 5.088
25.90000 5.238
25.92000 3.831
25.94000 8.183
25.96000 7.058
25.98000 7.392
26.00000 1.474
26.02000 4.018
26.04000 2.385
26.06000 4.053
26.08000 1.911
26.10000 5.390
26.12000 8.178
26.14000 4.674
26.16000 -2.529
26.18000 0.971
26.20000 0.598
26.22000 3.870
26.24000 5.846
26.26000 3.421
26.28000 3.278
26.30000 -1.048
26.32000 -1.216
26.34000 1.421
26.36000 0.568
26.38000 0.566
26.40000 1.036
26.42000 6.039
26.44000 6.954
26.46000 6.008
26.48000 2.414
26.50000 -0.014
26.52000 0.708
26.54000 3.180
26.56000 2.817
26.58000 3.794
26.60000 1.447
26.62000 0.789
26.64000 -3.769
26.66000 -3.321
26.68000 0.436
26.70000 -3.905
26.72000 -0.989
26.74000 -1.581
26.76000 1.154
26.78000 -2.161
26.80000 2.677
26.82000 3.123
26.84000 0.819
26.86000 2.793
26.88000 4.178
26.90000 5.812
26.92000 -2.803
26.94000 -2.241
26.96000 -1.084
26.98000 0.906
27.00000 6.538
27.02000 4.280
27.04000 -0.668
27.06000 -2.184
27.08000 0.984
27.10000 0.365
27.12000 0.652
27.14000 3.850
27.16000 2.888
27.18000 1.584
27.20000 -2.134
27.22000 -0.495
27.24000 0.043
27.26000 4.102
27.28000 3.502
27.30000 1.078
27.32000 -0.163
27.34000 -1.466
27.36000 -1.091
27.38000 -0.562
27.40000 -0.263
27.42000 -0.393
27.44000 2.793
27.46000 6.096
27.48000 5.406
27.50000 1.398
27.52000 -0.007
27.54000 -3.736
27.56000 -3.858
27.58000 0.898
27.60000 1.660
27.62000 1.070
27.64000 2.753
27.66000 3.239
27.68000 6.936
27.70000 3.959
27.72000 2.298
27.74000 0.027
27.76000 1.483
27.78000 7.449
27.80000 6.030
27.82000 3.392
27.84000 3.386
27.86000 2.699
27.88000 0.006
27.90000 -1.642
27.92000 1.146
27.94000 2.840
27.96000 1.114
27.98000 2.867
28.00000 5.838
28.02000 2.246
28.04000 0.990
28.06000 3.827
28.08000 6.879
28.10000 0.263
28.12000 0.430
28.14000 0.170
28.16000 -1.395
28.18000 -2.301
28.20000 -1.731
28.22000 3.056
28.24000 2.060
28.26000 1.637
28.28000 -2.441
28.30000 -0.340
28.32000 0.600
28.34000 2.381
28.36000 2.368
28.38000 -0.176
28.40000 -0.960
28.42000 1.274
28.44000 2.169
28.46000 4.223
28.48000 2.418
28.50000 1.188
28.52000 3.149
28.54000 0.894
28.56000 3.895
28.58000 2.428
28.60000 -3.055
28.62000 1.325
28.64000 1.434
28.66000 3.047
28.68000 0.452
28.70000 -3.553
28.72000 -3.773
28.74000 -3.063
28.76000 -0.048
28.78000 3.605
28.80000 9.547
28.82000 -0.995
28.84000 2.711
28.86000 4.255
28.88000 9.164
28.90000 4.183
28.92000 -3.768
28.94000 3.631
28.96000 2.220
28.98000 1.171
29.00000 -3.361
29.02000 1.357
29.04000 7.527
29.06000 10.330
29.08000 4.290
29.10000 1.972
29.12000 3.873
29.14000 3.891
29.16000 2.336
29.18000 6.238
29.20000 6.862
29.22000 2.876
29.24000 -0.083
29.26000 1.037
29.28000 -0.601
29.30000 6.120
29.32000 5.548
29.34000 3.958
29.36000 4.282
29.38000 1.083
29.40000 -0.916
29.42000 3.896
29.44000 7.320
29.46000 6.805
29.48000 4.665
29.50000 4.201
29.52000 4.757
29.54000 2.642
29.56000 4.482
29.58000 7.548
29.60000 1.367
29.62000 -1.803
29.64000 0.210
29.66000 0.232
29.68000 3.424
29.70000 5.571
29.72000 1.750
29.74000 2.458
29.76000 0.751
29.78000 2.445
29.80000 -1.587
29.82000 -0.349
29.84000 3.123
29.86000 3.741
29.88000 1.044
29.90000 -1.159
29.92000 -1.201
29.94000 4.757
29.96000 3.466
29.98000 -0.993
30.00000 5.219
30.02000 3.339
30.04000 -1.476
30.06000 -1.426
30.08000 1.189
30.10000 1.596
30.12000 7.039
30.14000 10.074
30.16000 5.714
30.18000 7.626
30.20000 6.905
30.22000 8.110
30.24000 4.642
30.26000 -0.985
30.28000 -2.582
30.30000 -0.621
30.32000 0.180
30.34000 1.530
30.36000 1.676
30.38000 2.226
30.40000 3.671
30.42000 4.247
30.44000 2.651
30.46000 -0.179
30.48000 -1.668
30.50000 1.332
30.52000 1.823
30.54000 -0.042
30.56000 0.163
30.58000 0.607
30.60000 -1.446
30.62000 0.026
30.64000 1.871
30.66000 2.021
30.68000 -0.788
30.70000 -0.339
30.72000 7.011
30.74000 7.951
30.76000 0.029
30.78000 -3.692
30.80000 2.351
30.82000 4.425
30.84000 0.895
30.86000 2.233
30.88000 2.289
30.90000 5.877
30.92000 6.197
30.94000 2.136
30.96000 3.459
30.98000 6.841
31.00000 9.439
31.02000 2.338
31.04000 -1.370
31.06000 -3.426
31.08000 0.843
31.10000 7.272
31.12000 1.378
31.14000 2.098
31.16000 1.857
31.18000 2.639
31.20000 3.696
31.22000 4.075
31.24000 2.081
31.26000 -0.279
31.28000 0.170
31.30000 3.148
31.32000 6.588
31.34000 3.818
31.36000 3.156
31.38000 1.193
31.40000 -1.016
31.42000 0.793
31.44000 2.455
31.46000 6.058
31.48000 4.465
31.50000 4.199
31.52000 -1.088
31.54000 2.649
31.56000 0.557
31.58000 1.581
31.60000 3.455
31.62000 8.739
31.64000 4.768
31.66000 4.894
31.68000 3.166
31.70000 5.508
31.72000 2.555
31.74000 -3.649
31.76000 -1.592
31.78000 2.219
31.80000 7.454
31.82000 6.856
31.84000 -1.328
31.86000 -1.578
31.88000 4.090
31.90000 5.621
31.92000 6.111
31.94000 4.602
31.96000 4.235
31.98000 4.996
32.00000 4.080
32.02000 4.428
32.04000 6.021
32.06000 4.206
32.08000 5.633
32.10000 5.218
32.12000 6.634
32.14000 2.652
32.16000 6.053
32.18000 3.429
32.20000 0.648
32.22000 2.228
32.24000 6.085
32.26000 8.888
32.28000 7.051
32.30000 0.521
32.32000 -3.092
32.34000 3.422
32.36000 5.825
32.38000 6.864
32.40000 4.894
32.42000 4.775
32.44000 9.639
32.46000 6.161
32.48000 6.903
32.50000 6.089
32.52000 12.912
32.54000 3.715
32.56000 2.161
32.58000 9.665
32.60000 0.701
32.62000 -3.605
32.64000 1.975
32.66000 2.949
32.68000 4.988
32.70000 0.941
32.72000 1.957
32.74000 5.064
32.76000 10.387
32.78000 4.228
32.80000 4.136
32.82000 3.369
32.84000 4.723
32.86000 3.684
32.88000 6.539
32.90000 6.125
32.92000 5.889
32.94000 5.644
32.96000 11.186
32.98000 1.202
33.00000 -3.611
33.02000 -2.793
33.04000 -3.345
33.06000 -1.311
33.08000 -0.887
33.10000 -0.868
33.12000 1.850
33.14000 6.223
33.16000 3.184
33.18000 6.300
33.20000 4.523
33.22000 7.344
33.24000 6.180
33.26000 7.579
33.28000 2.313
33.30000 2.484
33.32000 0.000
33.34000 5.899
33.36000 4.260
33.38000 1.258
33.40000 7.789
33.42000 5.111
33.44000 5.334
33.46000 7.898
33.48000 5.431
33.50000 4.739
33.52000 11.924
33.54000 6.633
33.56000 6.658
33.58000 5.370
33.60000 5.554
33.62000 4.002
33.64000 1.600
33.66000 -3.617
33.68000 0.600
33.70000 6.940
33.72000 1.597
33.74000 1.317
33.76000 5.627
33.78000 1.189
33.80000 6.191
33.82000 6.871
33.84000 6.780
33.86000 12.235
33.88000 6.264
33.90000 1.629
33.92000 0.221
33.94000 -0.906
33.96000 1.756
33.98000 1.835
34.00000 3.397
34.02000 3.531
34.04000 4.938
34.06000 4.084
34.08000 1.531
34.10000 0.901
34.12000 1.801
34.14000 2.485
34.16000 2.952
34.18000 6.617
34.20000 2.381
34.22000 4.613
34.24000 7.833
34.26000 5.390
34.28000 8.083
34.30000 5.032
34.32000 1.693
34.34000 4.519
34.36000 1.875
34.38000 2.488
34.40000 1.414
34.42000 -2.996
34.44000 -3.622
34.46000 1.813
34.48000 4.836
34.50000 5.225
34.52000 3.320
34.54000 7.615
34.56000 6.234
34.58000 1.982
34.60000 0.100
34.62000 -1.611
34.64000 -1.542
34.66000 3.498
34.68000 6.001
34.70000 8.083
34.72000 3.960
34.74000 1.085
34.76000 2.874
34.78000 1.337
34.80000 2.663
34.82000 4.692
34.84000 6.054
34.86000 -0.514
34.88000 0.156
34.90000 4.822
34.92000 2.124
34.94000 3.703
34.96000 3.901
34.98000 -2.620
35.00000 1.203
35.02000 1.743
35.04000 -3.424
35.06000 -0.056
35.08000 4.423
35.10000 7.007
35.12000 1.577
35.14000 3.365
35.16000 3.379
35.18000 0.681
35.20000 2.457
35.22000 -1.179
35.24000 0.432
35.26000 3.997
35.28000 0.333
35.30000 -3.603
35.32000 1.746
35.34000 3.422
35.36000 1.802
35.38000 0.748
35.40000 -1.940
35.42000 1.270
35.44000 2.999
35.46000 2.844
35.48000 1.701
35.50000 6.199
35.52000 4.338
35.54000 4.716
35.56000 7.022
35.58000 5.599
35.60000 2.636
35.62000 -0.280
35.64000 4.944
35.66000 5.548
35.68000 -1.791
35.70000 -2.571
35.72000 2.166
35.74000 2.292
35.76000 -0.889
35.78000 -1.276
35.80000 -3.613
35.82000 -1.122
35.84000 -0.259
35.86000 0.794
35.88000 1.865
35.90000 5.257
35.92000 6.684
35.94000 6.711
35.96000 5.942
35.98000 3.421
36.00000 -0.862
36.02000 3.075
36.04000 4.521
36.06000 5.770
36.08000 -0.964
36.10000 -2.236
36.12000 5.336
36.14000 0.674
36.16000 -1.860
36.18000 1.159
36.20000 -0.024
36.22000 -2.269
36.24000 2.552
36.26000 6.465
36.28000 7.577
36.30000 3.220
36.32000 5.824
36.34000 8.165
36.36000 7.948
36.38000 8.694
36.40000 2.221
36.42000 -0.729
36.44000 1.398
36.46000 -2.003
36.48000 1.714
36.50000 2.952
36.52000 7.213
36.54000 8.608
36.56000 8.918
36.58000 6.652
36.60000 12.028
36.62000 7.605
36.64000 6.453
36.66000 10.484
36.68000 6.395
36.70000 8.972
36.72000 9.599
36.74000 9.887
36.76000 5.997
36.78000 5.365
36.80000 10.085
36.82000 9.860
36.84000 12.869
36.86000 12.110
36.88000 13.815
36.90000 10.052
36.92000 9.122
36.94000 11.621
36.96000 11.213
36.98000 14.121
37.00000 11.826
37.02000 15.869
37.04000 13.908
37.06000 12.718
37.08000 11.641
37.10000 14.012
37.12000 18.354
37.14000 15.977
37.16000 13.392
37.18000 14.221
37.20000 11.014
37.22000 9.857
37.24000 16.737
37.26000 19.191
37.28000 16.527
37.30000 16.009
37.32000 13.644
37.34000 16.252
37.36000 19.609
37.38000 19.111
37.40000 16.498
37.42000 19.874
37.44000 23.200
37.46000 24.100
37.48000 25.984
37.50000 27.550
37.52000 25.222
37.54000 27.929
37.56000 32.614
37.58000 36.689
37.60000 33.312
37.62000 27.630
37.64000 28.272
37.66000 24.943
37.68000 25.530
37.70000 30.799
37.72000 35.959
37.74000 31.390
37.76000 32.922
37.78000 35.211
37.80000 35.118
37.82000 34.434
37.84000 36.528
37.86000 34.378
37.88000 35.760
37.90000 41.327
37.92000 44.386
37.94000 42.415
37.96000 43.157
37.98000 50.028
38.00000 46.822
38.02000 47.989
38.04000 51.663
38.06000 51.519
38.08000 58.218
38.10000 63.766
38.12000 61.831
38.14000 62.547
38.16000 66.936
38.18000 71.725
38.20000 71.130
38.22000 73.164
38.24000 75.331
38.26000 81.375
38.28000 81.568
38.30000 90.600
38.32000 100.345
38.34000 107.949
38.36000 108.933
38.38000 108.347
38.40000 114.696
38.42000 128.048
38.44000 134.773
38.46000 149.244
38.48000 157.126
38.50000 163.309
38.52000 177.177
38.54000 189.923
38.56000 201.562
38.58000 206.114
38.60000 212.817
38.62000 226.934
38.64000 239.002
38.66000 250.353
38.68000 263.176
38.70000 281.523
38.72000 279.555
38.74000 283.354
38.76000 288.729
38.78000 302.677
38.80000 308.999
38.82000 319.779
38.84000 315.860
38.86000 323.135
38.88000 311.380
38.90000 307.840
38.92000 305.229
38.94000 299.460
38.96000 290.878
38.98000 280.430
39.00000 279.570
39.02000 271.656
39.04000 261.087
39.06000 247.919
39.08000 240.256
39.10000 225.937
39.12000 216.686
39.14000 204.938
39.16000 197.395
39.18000 188.377
39.20000 176.807
39.22000 172.111
39.24000 154.530
39.26000 140.586
39.28000 134.917
39.30000 129.497
39.32000 123.311
39.34000 122.261
39.36000 112.561
39.38000 103.814
39.40000 90.891
39.42000 84.458
39.44000 82.852
39.46000 83.051
39.48000 71.118
39.50000 67.504
39.52000 69.347
39.54000 62.592
39.56000 59.246
39.58000 57.924
39.60000 56.507
39.62000 55.832
39.64000 52.080
39.66000 44.419
39.68000 43.059
39.70000 47.054
39.72000 44.546
39.74000 43.412
39.76000 43.758
39.78000 40.456
39.80000 37.250
39.82000 33.615
39.84000 32.623
39.86000 31.622
39.88000 34.248
39.90000 32.607
39.92000 28.777
39.94000 25.398
39.96000 24.453
39.98000 25.859
40.00000 25.377
40.02000 23.903
40.04000 22.449
40.06000 19.527
40.08000 20.352
40.10000 16.797
40.12000 21.839
40.14000 17.630
40.16000 17.571
40.18000 18.854
40.20000 16.024
40.22000 16.177
40.24000 18.595
40.26000 14.950
40.28000 11.453
40.30000 16.317
40.32000 17.367
40.34000 13.287
40.36000 12.144
40.38000 12.449
40.40000 10.699
40.42000 15.976
40.44000 11.825
40.46000 10.461
40.48000 13.856
40.50000 16.992
40.52000 10.008
40.54000 14.494
40.56000 12.267
40.58000 8.366
40.60000 5.975
40.62000 9.082
40.64000 10.106
40.66000 6.701
40.68000 8.366
40.70000 10.933
40.72000 7.192
40.74000 7.957
40.76000 11.627
40.78000 12.160
40.80000 10.007
40.82000 5.187
40.84000 5.039
40.86000 5.498
40.88000 1.698
40.90000 5.666
40.92000 8.364
40.94000 9.782
40.96000 1.940
40.98000 -0.386
41.00000 -0.420
41.02000 3.916
41.04000 1.414
41.06000 1.070
41.08000 1.276
41.10000 2.426
41.12000 2.678
41.14000 3.704
41.16000 7.933
41.18000 4.564
41.20000 6.519
41.22000 6.193
41.24000 4.602
41.26000 0.507
41.28000 0.980
41.30000 -0.941
41.32000 -0.068
41.34000 2.053
41.36000 2.473
41.38000 0.778
41.40000 1.219
41.42000 0.614
41.44000 0.570
41.46000 1.692
41.48000 0.171
41.50000 1.134
41.52000 3.374
41.54000 0.581
41.56000 -0.656
41.58000 -0.235
41.60000 1.545
41.62000 1.306
41.64000 1.710
41.66000 3.430
41.68000 1.455
41.70000 -2.496
41.72000 -0.058
41.74000 -0.704
41.76000 2.891
41.78000 3.445
41.80000 3.826
41.82000 0.300
41.84000 -2.084
41.86000 -3.455
41.88000 -2.563
41.90000 3.763
41.92000 2.821
41.94000 -1.536
41.96000 -3.304
41.98000 -2.342
42.00000 0.252
42.02000 4.089
42.04000 2.547
42.06000 4.139
42.08000 5.700
42.10000 2.305
42.12000 -0.077
42.14000 -0.879
42.16000 -0.610
42.18000 1.004
42.20000 -1.427
42.22000 1.007
42.24000 2.934
42.26000 1.510
42.28000 -2.084
42.30000 -2.961
42.32000 -0.283
42.34000 0.909
42.36000 2.093
42.38000 5.144
42.40000 3.400
42.42000 2.267
42.44000 -3.382
42.46000 -2.928
42.48000 -3.379
42.50000 -1.827
42.52000 -1.444
42.54000 -1.244
42.56000 2.472
42.58000 0.132
42.60000 -3.364
42.62000 -0.748
42.64000 1.616
42.66000 0.792
42.68000 2.646
42.70000 0.845
42.72000 4.107
42.74000 1.082
42.76000 -2.383
42.78000 -1.580
42.80000 -3.191
42.82000 -1.750
42.84000 5.546
42.86000 1.394
42.88000 -2.140
42.90000 1.365
42.92000 1.948
42.94000 3.061
42.96000 1.258
42.98000 0.078
43.00000 1.337
43.02000 0.811
43.04000 -0.496
43.06000 2.966
43.08000 3.609
43.10000 0.794
43.12000 1.389
43.14000 4.237
43.16000 0.590
43.18000 -0.961
43.20000 0.533
43.22000 -1.706
43.24000 -3.306
43.26000 0.994
43.28000 1.771
43.30000 0.208
43.32000 0.862
43.34000 1.916
43.36000 3.084
43.38000 -2.685
43.40000 -1.479
43.42000 1.742
43.44000 2.602
43.46000 0.758
43.48000 -1.189
43.50000 4.137
43.52000 3.375
43.54000 1.775
43.56000 -0.503
43.58000 0.005
43.60000 -1.274
43.62000 -0.914
43.64000 -1.344
43.66000 -0.510
43.68000 0.612
43.70000 1.783
43.72000 4.080
43.74000 2.835
43.76000 5.644
43.78000 6.040
43.80000 1.219
43.82000 -2.429
43.84000 -0.932
43.86000 1.993
43.88000 2.758
43.90000 4.006
43.92000 4.524
43.94000 3.312
43.96000 2.957
43.98000 4.706
44.00000 7.125
44.02000 6.559
44.04000 4.445
44.06000 6.493
44.08000 7.512
44.10000 7.036
44.12000 10.735
44.14000 9.282
44.16000 8.493
44.18000 9.094
44.20000 7.597
44.22000 7.275
44.24000 5.569
44.26000 4.415
44.28000 5.676
44.30000 11.038
44.32000 11.224
44.34000 15.457
44.36000 15.969
44.38000 14.088
44.40000 16.609
44.42000 16.597
44.44000 16.915
44.46000 22.923
44.48000 23.613
44.50000 18.681
44.52000 21.654
44.54000 26.842
44.56000 28.623
44.58000 26.595
44.60000 26.699
44.62000 31.237
44.64000 31.516
44.66000 32.097
44.68000 29.596
44.70000 37.070
44.72000 39.256
44.74000 40.620
44.76000 51.792
44.78000 55.740
44.80000 52.344
44.82000 51.640
44.84000 53.159
44.86000 59.667
44.88000 63.511
44.90000 63.277
44.92000 68.568
44.94000 72.551
44.96000 76.025
44.98000 77.704
45.00000 77.901
45.02000 88.571
45.04000 81.635
45.06000 82.516
45.08000 90.045
45.10000 99.596
45.12000 100.661
45.14000 96.916
45.16000 96.090
45.18000 98.136
45.20000 96.408
45.22000 97.061
45.24000 99.626
45.26000 103.514
45.28000 98.202
45.30000 98.876
45.32000 98.883
45.34000 96.689
45.36000 93.895
45.38000 94.313
45.40000 94.675
45.42000 87.929
45.44000 84.823
45.46000 83.396
45.48000 81.658
45.50000 83.906
45.52000 80.556
45.54000 74.393
45.56000 66.090
45.58000 61.481
45.60000 61.644
45.62000 60.810
45.64000 59.206
45.66000 52.112
45.68000 52.048
45.70000 43.997
45.72000 40.622
45.74000 41.703
45.76000 36.441
45.78000 34.536
45.80000 31.556
45.82000 31.987
45.84000 29.719
45.86000 27.616
45.88000 28.508
45.90000 23.290
45.92000 20.467
45.94000 21.085
45.96000 18.809
45.98000 19.681
46.00000 16.715
46.02000 14.945
46.04000 15.561
46.06000 14.516
46.08000 17.655
46.10000 18.670
46.12000 15.911
46.14000 8.921
46.16000 4.914
46.18000 3.225
46.20000 5.464
46.22000 9.753
46.24000 7.107
46.26000 2.953
46.28000 10.584
46.30000 8.497
46.32000 10.124
46.34000 8.883
46.36000 8.422
46.38000 6.912
46.40000 7.450
46.42000 8.695
46.44000 6.571
46.46000 4.633
46.48000 2.298
46.50000 3.115
46.52000 5.765
46.54000 4.542
46.56000 2.194
46.58000 2.744
46.60000 0.862
46.62000 -1.510
46.64000 0.533
46.66000 5.418
46.68000 3.151
46.70000 3.395
46.72000 2.958
46.74000 -2.942
46.76000 2.168
46.78000 4.250
46.80000 2.679
46.82000 -0.887
46.84000 1.494
46.86000 -1.307
46.88000 1.247
46.90000 0.813
46.92000 0.513
46.94000 3.836
46.96000 1.093
46.98000 -1.161
47.00000 2.537
47.02000 0.302
47.04000 0.364
47.06000 -1.736
47.08000 2.078
47.10000 2.449
47.12000 -0.180
47.14000 -0.423
47.16000 -2.847
47.18000 4.420
47.20000 1.273
47.22000 -2.435
47.24000 -0.090
47.26000 3.730
47.28000 1.302
47.30000 -1.101
47.32000 1.398
47.34000 6.808
47.36000 6.367
47.38000 4.784
47.40000 0.310
47.42000 -2.838
47.44000 0.940
47.46000 3.758
47.48000 4.322
47.50000 1.610
47.52000 -0.951
47.54000 -0.184
47.56000 1.446
47.58000 4.501
47.60000 3.232
47.62000 3.466
47.64000 0.051
47.66000 0.616
47.68000 -0.587
47.70000 -2.446
47.72000 3.300
47.74000 3.582
47.76000 3.267
47.78000 1.084
47.80000 -1.948
47.82000 -0.502
47.84000 3.060
47.86000 4.934
47.88000 -0.214
47.90000 -2.798
47.92000 -0.815
47.94000 -0.321
47.96000 5.018
47.98000 2.484
48.00000 0.713
48.02000 6.837
48.04000 4.006
48.06000 1.555
48.08000 0.969
48.10000 0.525
48.12000 3.422
48.14000 2.840
48.16000 -0.607
48.18000 1.187
48.20000 3.011
48.22000 1.269
48.24000 5.230
48.26000 6.974
48.28000 4.688
48.30000 -0.006
48.32000 0.004
48.34000 3.344
48.36000 5.888
48.38000 0.654
48.40000 -2.499
48.42000 -0.377
48.44000 1.815
48.46000 1.468
48.48000 2.332
48.50000 4.026
48.52000 5.643
48.54000 7.244
48.56000 4.193
48.58000 1.077
48.60000 -0.277
48.62000 3.672
48.64000 4.577
48.66000 2.294
48.68000 4.761
48.70000 -0.152
48.72000 1.185
48.74000 5.263
48.76000 4.654
48.78000 2.959
48.80000 5.331
48.82000 -1.842
48.84000 -2.756
48.86000 0.864
48.88000 1.418
48.90000 4.432
48.92000 6.193
48.94000 2.110
48.96000 -2.381
48.98000 0.346
49.00000 3.732
49.02000 2.856
49.04000 1.201
49.06000 -0.481
49.08000 2.062
49.10000 1.776
49.12000 0.822
49.14000 -1.044
49.16000 4.792
49.18000 3.384
49.20000 1.628
49.22000 1.473
49.24000 0.795
49.26000 6.223
49.28000 3.722
49.30000 8.802
49.32000 7.836
49.34000 4.396
49.36000 4.419
49.38000 3.912
49.40000 1.922
49.42000 3.089
49.44000 1.188
49.46000 -2.528
49.48000 -2.721
49.50000 0.692
49.52000 0.434
49.54000 -1.744
49.56000 -1.933
49.58000 1.703
49.60000 5.216
49.62000 4.259
49.64000 3.612
49.66000 4.463
49.68000 5.321
49.70000 2.550
49.72000 0.494
49.74000 -0.643
49.76000 0.065
49.78000 -0.419
49.80000 3.004
49.82000 2.220
49.84000 0.764
49.86000 2.343
49.88000 1.352
49.90000 -0.225
49.92000 -2.434
49.94000 -2.695
49.96000 -2.590
49.98000 0.667
50.00000 0.289
50.02000 0.635
50.04000 -0.498
50.06000 1.810
50.08000 1.521
50.10000 4.618
50.12000 2.442
50.14000 3.337
50.16000 0.347
50.18000 3.878
50.20000 1.864
50.22000 -0.931
50.24000 0.947
50.26000 0.076
50.28000 5.371
50.30000 0.302
50.32000 0.679
50.34000 2.857
50.36000 4.579
50.38000 0.026
50.40000 2.802
50.42000 1.440
50.44000 -1.553
50.46000 0.390
50.48000 1.890
50.50000 2.995
50.52000 0.447
50.54000 3.915
50.56000 9.069
50.58000 5.988
50.60000 0.471
50.62000 3.492
50.64000 7.603
50.66000 5.914
50.68000 1.337
50.70000 4.035
50.72000 7.364
50.74000 3.113
50.76000 1.924
50.78000 1.604
50.80000 0.414
50.82000 0.317
50.84000 -2.657
50.86000 0.487
50.88000 4.037
50.90000 5.546
50.92000 2.370
50.94000 3.429
50.96000 5.952
50.98000 5.466
51.00000 6.110
51.02000 5.620
51.04000 0.545
51.06000 2.291
51.08000 9.212
51.10000 9.153
51.12000 0.569
51.14000 3.852
51.16000 8.569
51.18000 5.958
51.20000 2.526
51.22000 4.205
51.24000 3.593
51.26000 1.445
51.28000 4.459
51.30000 7.311
51.32000 4.712
51.34000 4.304
51.36000 2.309
51.38000 3.201
51.40000 2.852
51.42000 2.179
51.44000 3.632
51.46000 4.073
51.48000 4.561
51.50000 1.532
51.52000 0.594
51.54000 -1.759
51.56000 -0.771
51.58000 -0.894
51.60000 1.081
51.62000 4.212
51.64000 4.229
51.66000 2.069
51.68000 3.701
51.70000 1.961
51.72000 3.681
51.74000 1.983
51.76000 3.125
51.78000 5.254
51.80000 1.545
51.82000 4.435
51.84000 -2.078
51.86000 -1.873
51.88000 3.810
51.90000 2.935
51.92000 0.631
51.94000 -0.626
51.96000 0.723
51.98000 2.803
52.00000 4.961
52.02000 2.670
52.04000 4.216
52.06000 0.090
52.08000 2.469
52.10000 3.051
52.12000 5.262
52.14000 8.868
52.16000 5.387
52.18000 5.659
52.20000 6.969
52.22000 4.586
52.24000 -1.192
52.26000 -2.601
52.28000 3.607
52.30000 4.002
52.32000 3.579
52.34000 8.298
52.36000 4.368
52.38000 5.774
52.40000 3.732
52.42000 3.481
52.44000 4.268
52.46000 5.592
52.48000 3.018
52.50000 2.698
52.52000 3.332
52.54000 3.533
52.56000 4.254
52.58000 5.996
52.60000 3.571
52.62000 7.761
52.64000 6.468
52.66000 4.226
52.68000 1.671
52.70000 3.922
52.72000 3.085
52.74000 3.202
52.76000 5.992
52.78000 6.287
52.80000 2.347
52.82000 1.360
52.84000 3.314
52.86000 3.213
52.88000 3.926
52.90000 5.734
52.92000 2.743
52.94000 1.094
52.96000 4.043
52.98000 4.153
53.00000 4.181
53.02000 4.760
53.04000 5.938
53.06000 4.934
53.08000 1.890
53.10000 0.760
53.12000 2.776
53.14000 3.949
53.16000 5.342
53.18000 2.999
53.20000 2.364
53.22000 2.761
53.24000 3.706
53.26000 5.033
53.28000 4.266
53.30000 2.625
53.32000 4.378
53.34000 3.157
53.36000 2.986
53.38000 1.445
53.40000 3.291
53.42000 1.861
53.44000 -0.240
53.46000 1.771
53.48000 1.735
53.50000 0.317
53.52000 2.547
53.54000 4.397
53.56000 5.379
53.58000 4.729
53.60000 1.680
53.62000 5.232
53.64000 3.726
53.66000 3.911
53.68000 3.812
53.70000 1.059
53.72000 4.730
53.74000 5.225
53.76000 3.073
53.78000 1.024
53.80000 7.220
53.82000 1.988
53.84000 1.474
53.86000 2.963
53.88000 2.386
53.90000 2.339
53.92000 1.647
53.94000 3.133
53.96000 1.952
53.98000 0.968
54.00000 6.451
54.02000 4.257
54.04000 -2.545
54.06000 2.921
54.08000 9.121
54.10000 4.228
54.12000 -1.206
54.14000 7.238
54.16000 5.224
54.18000 3.234
54.20000 6.082
54.22000 7.830
54.24000 8.656
54.26000 7.395
54.28000 1.673
54.30000 1.812
54.32000 4.015
54.34000 0.335
54.36000 -2.529
54.38000 3.302
54.40000 5.304
54.42000 1.523
54.44000 0.248
54.46000 0.851
54.48000 -1.271
54.50000 2.210
54.52000 3.416
54.54000 2.080
54.56000 1.531
54.58000 3.825
54.60000 0.866
54.62000 2.434
54.64000 7.237
54.66000 4.647
54.68000 -1.030
54.70000 -1.499
54.72000 2.292
54.74000 0.809
54.76000 2.124
54.78000 0.643
54.80000 -0.250
54.82000 -2.555
54.84000 -1.491
54.86000 1.330
54.88000 0.351
54.90000 0.835
54.92000 0.580
54.94000 4.647
54.96000 6.590
54.98000 3.928
55.00000 3.794
55.02000 6.448
55.04000 3.958
55.06000 1.998
55.08000 5.290
55.10000 3.662
55.12000 -0.354
55.14000 -1.685
55.16000 2.141
55.18000 4.387
55.20000 -1.420
55.22000 -0.505
55.24000 0.303
55.26000 0.568
55.28000 1.770
55.30000 3.752
55.32000 2.308
55.34000 1.906
55.36000 2.733
55.38000 8.386
55.40000 6.184
55.42000 4.403
55.44000 3.652
55.46000 1.980
55.48000 1.436
55.50000 2.396
55.52000 2.169
55.54000 5.262
55.56000 5.431
55.58000 3.899
55.60000 5.060
55.62000 3.688
55.64000 6.079
55.66000 7.546
55.68000 3.491
55.70000 2.800
55.72000 2.589
55.74000 4.884
55.76000 2.233
55.78000 1.204
55.80000 2.636
55.82000 1.376
55.84000 2.289
55.86000 1.960
55.88000 3.264
55.90000 2.349
55.92000 1.777
55.94000 5.943
55.96000 8.978
55.98000 4.029
56.00000 3.870
56.02000 2.144
56.04000 1.697
56.06000 0.899
56.08000 -1.279
56.10000 2.834
56.12000 4.868
56.14000 4.565
56.16000 1.215
56.18000 -2.507
56.20000 1.665
56.22000 6.036
56.24000 2.923
56.26000 -0.146
56.28000 1.969
56.30000 0.700
56.32000 1.356
56.34000 -0.672
56.36000 3.028
56.38000 3.547
56.40000 1.199
56.42000 -0.195
56.44000 1.250
56.46000 5.731
56.48000 3.513
56.50000 2.432
56.52000 4.830
56.54000 6.799
56.56000 5.774
56.58000 2.516
56.60000 0.891
56.62000 3.639
56.64000 3.304
56.66000 -2.335
56.68000 -0.377
56.70000 3.129
56.72000 2.380
56.74000 6.819
56.76000 4.473
56.78000 -1.476
56.80000 1.955
56.82000 5.353
56.84000 5.572
56.86000 1.848
56.88000 1.234
56.90000 3.933
56.92000 4.474
56.94000 3.077
56.96000 1.126
56.98000 2.085
57.00000 1.225
57.02000 -1.506
57.04000 -2.503
57.06000 3.146
57.08000 2.811
57.10000 1.631
57.12000 1.895
57.14000 0.050
57.16000 -0.391
57.18000 2.123
57.20000 4.153
57.22000 1.329
57.24000 4.804
57.26000 4.860
57.28000 4.535
57.30000 4.433
57.32000 5.447
57.34000 5.620
57.36000 8.414
57.38000 5.747
57.40000 5.182
57.42000 1.275
57.44000 6.130
57.46000 5.665
57.48000 6.836
57.50000 2.709
57.52000 0.287
57.54000 -0.287
57.56000 2.072
57.58000 3.558
57.60000 3.390
57.62000 1.018
57.64000 -0.368
57.66000 0.251
57.68000 4.132
57.70000 1.383
57.72000 2.423
57.74000 7.083
57.76000 4.200
57.78000 1.898
57.80000 2.091
57.82000 0.699
57.84000 4.895
57.86000 4.552
57.88000 2.863
57.90000 3.745
57.92000 6.154
57.94000 5.260
57.96000 -2.126
57.98000 -2.465
58.00000 -1.224
58.02000 1.613
58.04000 5.795
58.06000 5.785
58.08000 4.516
58.10000 2.781
58.12000 0.593
58.14000 1.976
58.16000 1.857
58.18000 6.681
58.20000 6.745
58.22000 2.187
58.24000 4.370
58.26000 7.027
58.28000 1.540
58.30000 -2.448
58.32000 -0.675
58.34000 3.839
58.36000 2.155
58.38000 -2.158
58.40000 -2.444
58.42000 1.265
58.44000 5.677
58.46000 0.873
58.48000 2.184
58.50000 2.502
58.52000 1.712
58.54000 -0.312
58.56000 -0.313
58.58000 2.173
58.60000 5.599
58.62000 3.780
58.64000 3.297
58.66000 0.867
58.68000 0.948
58.70000 1.512
58.72000 0.759
58.74000 1.196
58.76000 6.603
58.78000 0.911
58.80000 1.087
58.82000 3.234
58.84000 2.775
58.86000 -2.010
58.88000 -0.425
58.90000 0.899
58.92000 -1.006
58.94000 -0.091
58.96000 3.724
58.98000 3.609
59.00000 3.951
59.02000 2.870
59.04000 0.225
59.06000 4.574
59.08000 4.448
59.10000 3.368
59.12000 2.549
59.14000 -0.949
59.16000 -1.307
59.18000 1.617
59.20000 1.697
59.22000 1.778
59.24000 1.881
59.26000 2.093
59.28000 4.469
59.30000 1.252
59.32000 1.916
59.34000 2.489
59.36000 4.724
59.38000 6.897
59.40000 0.440
59.42000 0.975
59.44000 5.309
59.46000 0.701
59.48000 0.748
59.50000 3.077
59.52000 4.139
59.54000 1.502
59.56000 -0.590
59.58000 -2.419
59.60000 -0.899
59.62000 -0.522
59.64000 4.395
59.66000 5.254
59.68000 1.658
59.70000 3.480
59.72000 1.662
59.74000 -1.284
59.76000 0.162
59.78000 3.771
59.80000 2.011
59.82000 1.610
59.84000 2.662
59.86000 2.222
59.88000 1.245
59.90000 -1.797
59.92000 -1.484
59.94000 2.596
59.96000 3.317
59.98000 3.066
60.00000 -0.468
60.02000 -0.159
60.04000 2.944
60.06000 1.476
60.08000 -1.496
60.10000 0.623
60.12000 4.172
60.14000 0.617
60.16000 0.565
60.18000 -1.253
60.20000 -2.400
60.22000 1.925
60.24000 3.515
60.26000 1.892
60.28000 0.484
60.30000 0.745
60.32000 2.706
60.34000 -1.097
60.36000 -1.507
60.38000 -0.352
60.40000 3.594
60.42000 3.975
60.44000 2.992
60.46000 3.542
60.48000 0.746
60.50000 1.418
60.52000 1.392
60.54000 -0.049
60.56000 -0.201
60.58000 3.895
60.60000 2.399
60.62000 2.298
60.64000 1.859
60.66000 6.571
60.68000 6.420
60.70000 5.443
60.72000 3.266
60.74000 0.580
60.76000 -0.594
60.78000 1.081
60.80000 3.106
60.82000 -1.237
60.84000 -1.466
60.86000 2.549
60.88000 5.006
60.90000 5.076
60.92000 -0.251
60.94000 -0.711
60.96000 3.493
60.98000 2.133
61.00000 -2.364
61.02000 5.327
61.04000 5.404
61.06000 5.610
61.08000 1.945
61.10000 0.780
61.12000 1.713
61.14000 -1.699
61.16000 -1.153
61.18000 3.834
61.20000 -0.004
61.22000 2.788
61.24000 2.368
61.26000 2.884
61.28000 3.992
61.30000 4.015
61.32000 -0.152
61.34000 2.455
61.36000 7.072
61.38000 3.844
61.40000 -1.065
61.42000 0.227
61.44000 2.422
61.46000 0.087
61.48000 2.321
61.50000 3.502
61.52000 1.953
61.54000 1.186
61.56000 3.467
61.58000 5.795
61.60000 6.128
61.62000 7.730
61.64000 6.164
61.66000 3.011
61.68000 4.017
61.70000 2.833
61.72000 -0.482
61.74000 5.140
61.76000 2.166
61.78000 2.771
61.80000 5.794
61.82000 4.832
61.84000 5.315
61.86000 3.925
61.88000 2.606
61.90000 3.739
61.92000 4.173
61.94000 5.505
61.96000 2.875
61.98000 1.355
62.00000 -2.278
62.02000 0.927
62.04000 4.918
62.06000 2.331
62.08000 1.747
62.10000 3.907
62.12000 2.436
62.14000 2.255
62.16000 0.831
62.18000 1.432
62.20000 3.421
62.22000 4.964
62.24000 4.858
62.26000 3.577
62.28000 5.979
62.30000 7.450
62.32000 1.813
62.34000 1.612
62.36000 3.429
62.38000 3.908
62.40000 6.080
62.42000 5.296
62.44000 5.918
62.46000 1.479
62.48000 2.409
62.50000 4.541
62.52000 4.342
62.54000 2.314
62.56000 3.616
62.58000 1.097
62.60000 1.783
62.62000 5.685
62.64000 1.708
62.66000 -0.103
62.68000 0.826
62.70000 2.636
62.72000 3.709
62.74000 4.956
62.76000 -0.443
62.78000 0.184
62.80000 0.272
62.82000 -0.924
62.84000 0.370
62.86000 4.108
62.88000 1.083
62.90000 1.355
62.92000 -0.416
62.94000 1.573
62.96000 5.826
62.98000 5.621
63.00000 5.534
63.02000 2.255
63.04000 3.476
63.06000 5.089
63.08000 1.977
63.10000 3.147
63.12000 2.844
63.14000 1.334
63.16000 0.578
63.18000 4.674
63.20000 4.391
63.22000 3.534
63.24000 -0.005
63.26000 0.886
63.28000 -0.624
63.30000 2.468
63.32000 2.827
63.34000 -0.898
63.36000 3.409
63.38000 3.626
63.40000 1.761
63.42000 2.854
63.44000 4.211
63.46000 4.105
63.48000 -0.126
63.50000 -2.292
63.52000 1.333
63.54000 2.877
63.56000 0.160
63.58000 1.699
63.60000 0.999
63.62000 -1.047
63.64000 -0.146
63.66000 3.803
63.68000 2.784
63.70000 1.347
63.72000 0.706
63.74000 -0.949
63.76000 0.107
63.78000 4.117
63.80000 5.060
63.82000 3.550
63.84000 2.433
63.86000 1.745
63.88000 2.353
63.90000 3.700
63.92000 3.650
63.94000 0.733
63.96000 0.608
63.98000 3.346
64.00000 5.392
64.02000 2.786
64.04000 1.481
64.06000 3.281
64.08000 2.221
64.10000 1.319
64.12000 3.435
64.14000 3.789
64.16000 5.350
64.18000 3.387
64.20000 2.686
64.22000 -0.287
64.24000 -0.793
64.26000 -1.418
64.28000 0.419
64.30000 2.408
64.32000 5.046
64.34000 5.897
64.36000 2.415
64.38000 3.249
64.40000 3.379
64.42000 1.293
64.44000 2.689
64.46000 0.606
64.48000 4.624
64.50000 2.645
64.52000 -2.306
64.54000 0.092
64.56000 4.947
64.58000 2.822
64.60000 2.393
64.62000 2.115
64.64000 3.335
64.66000 3.256
64.68000 2.673
64.70000 0.137
64.72000 0.138
64.74000 1.484
64.76000 4.811
64.78000 3.009
64.80000 2.487
64.82000 2.392
64.84000 -1.390
64.86000 0.548
64.88000 4.372
64.90000 0.409
64.92000 0.531
64.94000 3.526
64.96000 3.413
64.98000 1.337
65.00000 -0.181
65.02000 -1.008
65.04000 0.494
65.06000 2.680
65.08000 4.462
65.10000 6.612
65.12000 3.239
65.14000 2.069
65.16000 0.895
65.18000 0.528
65.20000 2.805
65.22000 7.708
65.24000 5.974
65.26000 2.183
65.28000 2.626
65.30000 5.576
65.32000 2.062
65.34000 -1.176
65.36000 0.874
65.38000 1.354
65.40000 0.124
65.42000 3.782
65.44000 5.521
65.46000 2.342
65.48000 3.609
65.50000 4.347
65.52000 6.079
65.54000 6.765
65.56000 5.970
65.58000 4.459
65.60000 2.114
65.62000 5.040
65.64000 3.492
65.66000 0.583
65.68000 5.139
65.70000 4.009
65.72000 5.628
65.74000 3.481
65.76000 7.696
65.78000 6.928
65.80000 6.672
65.82000 4.810
65.84000 2.932
65.86000 3.261
65.88000 4.200
65.90000 5.950
65.92000 9.318
65.94000 8.580
65.96000 6.775
65.98000 6.302
66.00000 5.557
66.02000 2.905
66.04000 6.133
66.06000 6.881
66.08000 7.829
66.10000 3.849
66.12000 3.018
66.14000 7.012
66.16000 3.598
66.18000 -0.168
66.20000 0.033
66.22000 2.825
66.24000 1.620
66.26000 3.048
66.28000 4.004
66.30000 3.753
66.32000 3.360
66.34000 2.343
66.36000 0.173
66.38000 -0.814
66.40000 3.937
66.42000 3.415
66.44000 3.855
66.46000 4.853
66.48000 3.425
66.50000 1.664
66.52000 -0.248
66.54000 -2.270
66.56000 0.747
66.58000 0.601
66.60000 0.681
66.62000 2.076
66.64000 4.118
66.66000 2.252
66.68000 -1.380
66.70000 1.123
66.72000 4.880
66.74000 2.308
66.76000 3.011
66.78000 6.310
66.80000 6.636
66.82000 6.125
66.84000 3.341
66.86000 1.324
66.88000 3.929
66.90000 3.760
66.92000 0.969
66.94000 -0.270
66.96000 1.083
66.98000 2.952
67.00000 2.535
67.02000 3.993
67.04000 3.990
67.06000 1.433
67.08000 -1.524
67.10000 -2.244
67.12000 1.857
67.14000 2.265
67.16000 2.885
67.18000 1.126
67.20000 2.452
67.22000 2.780
67.24000 1.564
67.26000 -0.030
67.28000 0.657
67.30000 0.581
67.32000 0.617
67.34000 1.480
67.36000 -0.067
67.38000 -0.454
67.40000 1.920
67.42000 1.989
67.44000 -0.048
67.46000 3.332
67.48000 2.019
67.50000 1.948
67.52000 -0.107
67.54000 -2.056
67.56000 -1.755
67.58000 0.231
67.60000 3.382
67.62000 0.343
67.64000 -2.218
67.66000 -0.745
67.68000 -0.437
67.70000 -1.696
67.72000 -0.040
67.74000 0.925
67.76000 3.622
67.78000 4.496
67.80000 3.253
67.82000 -0.123
67.84000 1.836
67.86000 0.670
67.88000 1.830
67.90000 2.577
67.92000 0.777
67.94000 4.834
67.96000 5.742
67.98000 3.520
68.00000 1.678
68.02000 3.420
68.04000 2.465
68.06000 2.400
68.08000 2.152
68.10000 3.048
68.12000 3.707
68.14000 2.134
68.16000 2.193
68.18000 2.122
68.20000 1.089
68.22000 -0.860
68.24000 0.812
68.26000 2.190
68.28000 1.640
68.30000 1.372
68.32000 1.072
68.34000 2.271
68.36000 0.951
68.38000 -1.599
68.40000 -2.169
68.42000 -1.623
68.44000 2.293
68.46000 5.070
68.48000 3.389
68.50000 3.777
68.52000 4.696
68.54000 1.662
68.56000 -0.873
68.58000 -0.987
68.60000 0.829
68.62000 1.347
68.64000 1.426
68.66000 1.077
68.68000 1.295
68.70000 2.361
68.72000 -1.184
68.74000 0.081
68.76000 3.351
68.78000 2.353
68.80000 4.137
68.82000 4.586
68.84000 5.345
68.86000 3.837
68.88000 1.651
68.90000 2.633
68.92000 1.959
68.94000 0.326
68.96000 0.914
68.98000 2.041
69.00000 1.505
69.02000 0.322
69.04000 -0.977
69.06000 0.452
69.08000 1.268
69.10000 -0.412
69.12000 -0.054
69.14000 3.009
69.16000 4.394
69.18000 0.979
69.20000 2.747
69.22000 2.247
69.24000 0.287
69.26000 1.081
69.28000 1.064
69.30000 -0.739
69.32000 -2.146
69.34000 -1.563
69.36000 -0.377
69.38000 1.941
69.40000 -1.526
69.42000 -1.010
69.44000 -0.828
69.46000 0.185
69.48000 -0.995
69.50000 0.348
69.52000 2.010
69.54000 -0.297
69.56000 -0.841
69.58000 0.933
69.60000 3.553
69.62000 2.041
69.64000 -0.225
69.66000 -0.383
69.68000 -0.706
69.70000 -0.968
69.72000 -1.823
69.74000 -0.305
69.76000 0.361
69.78000 0.159
69.80000 1.913
69.82000 0.636
69.84000 1.796
69.86000 -0.256
69.88000 -1.898
69.90000 -0.801
69.92000 -0.494
69.94000 1.258
69.96000 1.859
69.98000 1.791
70.00000 0.741
70.02000 1.287
70.04000 0.726
70.06000 1.584
70.08000 -0.268
70.10000 1.208
70.12000 1.857
70.14000 0.707
70.16000 -1.116
70.18000 -0.169
70.20000 1.847
70.22000 2.466
70.24000 -1.153
70.26000 0.165
70.28000 -0.611
70.30000 -2.144
70.32000 -1.814
70.34000 1.541
70.36000 2.689
70.38000 2.736
70.40000 2.670
70.42000 2.561
70.44000 -0.941
70.46000 0.485
70.48000 2.868
70.50000 1.611
70.52000 -2.136
70.54000 -0.043
70.56000 2.814
70.58000 1.523
70.60000 -1.545
70.62000 -0.518
70.64000 -1.491
70.66000 1.898
70.68000 1.726
70.70000 -0.604
70.72000 0.675
70.74000 -2.130
70.76000 -1.767
70.78000 -0.813
70.80000 0.742
70.82000 1.181
70.84000 0.187
70.86000 1.312
70.88000 -0.200
70.90000 0.054
70.92000 -0.159
70.94000 -0.881
70.96000 -0.316
70.98000 0.463
71.00000 2.986
71.02000 2.408
71.04000 1.518
71.06000 0.155
71.08000 -0.262
71.10000 1.609
71.12000 1.242
71.14000 1.146
71.16000 0.318
71.18000 -1.503
71.20000 2.357
71.22000 2.251
71.24000 -0.043
71.26000 -1.483
71.28000 -0.687
71.30000 -1.014
71.32000 0.918
71.34000 0.451
71.36000 4.693
71.38000 1.350
71.40000 -0.608
71.42000 -1.671
71.44000 -0.040
71.46000 2.651
71.48000 1.613
71.50000 -0.667
71.52000 -1.364
71.54000 -2.099
71.56000 0.193
71.58000 2.617
71.60000 2.858
71.62000 -0.018
71.64000 0.183
71.66000 2.117
71.68000 1.038
71.70000 1.968
71.72000 0.533
71.74000 -1.292
71.76000 -0.926
71.78000 -1.821
71.80000 -0.553
71.82000 1.457
71.84000 1.227
71.86000 0.667
71.88000 -2.078
71.90000 -1.651
71.92000 1.175
71.94000 -0.766
71.96000 -1.639
71.98000 2.065
72.00000 0.639
72.02000 -1.362
72.04000 -1.937
72.06000 0.070
72.08000 -1.613
72.10000 -0.642
72.12000 0.931
72.14000 1.506
72.16000 -0.190
72.18000 -0.239
72.20000 0.902
72.22000 0.840
72.24000 0.515
72.26000 -0.308
72.28000 -0.885
72.30000 0.368
72.32000 -1.844
72.34000 -2.060
72.36000 1.650
72.38000 1.277
72.40000 2.309
72.42000 2.830
72.44000 0.270
72.46000 0.020
72.48000 2.443
72.50000 2.026
72.52000 3.496
72.54000 -0.592
72.56000 2.326
72.58000 2.387
72.60000 1.663
72.62000 2.101
72.64000 1.144
72.66000 -2.045
72.68000 -1.414
72.70000 1.016
72.72000 4.107
72.74000 2.862
72.76000 2.598
72.78000 4.923
72.80000 4.670
72.82000 1.881
72.84000 4.592
72.86000 2.870
72.88000 3.246
72.90000 1.667
72.92000 1.608
72.94000 2.967
72.96000 3.010
72.98000 2.506
73.00000 2.821
73.02000 3.755
73.04000 6.537
73.06000 4.479
73.08000 1.966
73.10000 0.778
73.12000 -1.072
73.14000 -0.777
73.16000 2.428
73.18000 3.853
73.20000 4.965
73.22000 3.660
73.24000 2.908
73.26000 2.923
73.28000 2.025
73.30000 2.885
73.32000 -2.004
73.34000 1.647
73.36000 3.836
73.38000 2.593
73.40000 3.126
73.42000 5.894
73.44000 7.409
73.46000 5.110
73.48000 3.570
73.50000 6.121
73.52000 5.234
73.54000 2.283
73.56000 2.380
73.58000 4.118
73.60000 4.116
73.62000 0.928
73.64000 -0.090
73.66000 0.390
73.68000 2.531
73.70000 1.400
73.72000 0.593
73.74000 -0.455
73.76000 0.989
73.78000 2.334
73.80000 1.873
73.82000 2.761
73.84000 1.020
73.86000 3.918
73.88000 3.589
73.90000 1.015
73.92000 2.763
73.94000 2.401
73.96000 0.230
73.98000 -0.096
74.00000 3.363
74.02000 0.034
74.04000 1.095
74.06000 1.925
74.08000 3.232
74.10000 2.562
74.12000 2.570
74.14000 2.404
74.16000 1.073
74.18000 -2.041
74.20000 -1.619
74.22000 2.830
74.24000 5.540
74.26000 1.478
74.28000 1.945
74.30000 0.442
74.32000 -0.580
74.34000 0.340
74.36000 2.833
74.38000 0.272
74.40000 -0.301
74.42000 0.599
74.44000 2.677
74.46000 0.690
74.48000 -1.054
74.50000 -1.185
74.52000 0.734
74.54000 2.973
74.56000 3.451
74.58000 1.929
74.60000 0.798
74.62000 1.474
74.64000 1.576
74.66000 -0.912
74.68000 1.831
74.70000 1.425
74.72000 0.296
74.74000 -0.199
74.76000 -0.643
74.78000 1.355
74.80000 5.308
74.82000 -0.555
74.84000 -0.872
74.86000 -0.187
74.88000 2.501
74.90000 2.389
74.92000 -0.564
74.94000 -0.073
74.96000 2.695
74.98000 2.808
75.00000 -2.032
75.02000 -1.516
75.04000 0.718
75.06000 0.619
75.08000 -1.210
75.10000 -0.408
75.12000 1.743
75.14000 5.855
75.16000 5.510
75.18000 2.344
75.20000 1.197
75.22000 2.241
75.24000 1.526
75.26000 1.106
75.28000 1.879
75.30000 3.043
75.32000 1.432
75.34000 0.870
75.36000 3.091
75.38000 1.513
75.40000 -1.405
75.42000 2.594
75.44000 4.220
75.46000 3.210
75.48000 0.379
75.50000 1.355
75.52000 3.219
75.54000 2.855
75.56000 4.316
75.58000 5.866
75.60000 3.977
75.62000 4.736
75.64000 6.303
75.66000 4.546
75.68000 -0.504
75.70000 -0.557
75.72000 -0.755
75.74000 3.209
75.76000 8.093
75.78000 7.480
75.80000 0.367
75.82000 -2.040
75.84000 -1.491
75.86000 0.772
75.88000 4.549
75.90000 2.797
75.92000 4.175
75.94000 1.957
75.96000 3.604
75.98000 4.463
76.00000 1.973
76.02000 3.925
76.04000 3.228
76.06000 3.397
76.08000 2.647
76.10000 1.429
76.12000 5.733
76.14000 3.346
76.16000 1.735
76.18000 3.304
76.20000 2.731
76.22000 2.812
76.24000 0.008
76.26000 1.602
76.28000 4.249
76.30000 3.215
76.32000 3.907
76.34000 3.794
76.36000 4.327
76.38000 4.248
76.40000 2.345
76.42000 0.995
76.44000 2.210
76.46000 0.419
76.48000 0.214
76.50000 -1.702
76.52000 0.571
76.54000 -0.866
76.56000 -0.397
76.58000 0.046
76.60000 0.910
76.62000 -1.494
76.64000 3.361
76.66000 4.319
76.68000 -1.689
76.70000 -0.561
76.72000 6.094
76.74000 3.020
76.76000 0.660
76.78000 -2.093
76.80000 -1.354
76.82000 1.230
76.84000 1.634
76.86000 0.075
76.88000 0.375
76.90000 3.648
76.92000 2.109
76.94000 0.976
76.96000 -1.886
76.98000 -0.884
77.00000 3.504
77.02000 5.247
77.04000 2.030
77.06000 0.265
77.08000 -0.850
77.10000 -0.033
77.12000 3.197
77.14000 1.966
77.16000 3.822
77.18000 5.705
77.20000 5.701
77.22000 4.152
77.24000 2.911
77.26000 1.292
77.28000 -1.347
77.30000 -0.593
77.32000 -1.342
77.34000 -1.545
77.36000 -0.730
77.38000 1.128
77.40000 2.658
77.42000 2.324
77.44000 0.443
77.46000 3.171
77.48000 2.021
77.50000 4.035
77.52000 2.147
77.54000 1.085
77.56000 0.642
77.58000 -2.155
77.60000 -2.011
77.62000 2.970
77.64000 2.842
77.66000 2.960
77.68000 3.270
77.70000 3.902
77.72000 2.494
77.74000 2.946
77.76000 4.459
77.78000 4.985
77.80000 1.062
77.82000 1.034
77.84000 0.088
77.86000 2.131
77.88000 2.137
77.90000 1.958
77.92000 0.828
77.94000 1.548
77.96000 -1.100
77.98000 2.978
78.00000 6.497
78.02000 2.498
78.04000 5.194
78.06000 5.234
78.08000 2.721
78.10000 3.387
78.12000 1.885
78.14000 4.946
78.16000 4.343
78.18000 0.302
78.20000 1.491
78.22000 3.397
78.24000 2.744
78.26000 4.013
78.28000 1.494
78.30000 3.071
78.32000 3.559
78.34000 5.048
78.36000 7.316
78.38000 9.846
78.40000 5.373
78.42000 5.433
78.44000 6.926
78.46000 4.761
78.48000 8.075
78.50000 12.025
78.52000 13.421
78.54000 9.185
78.56000 9.593
78.58000 7.261
78.60000 7.976
78.62000 9.431
78.64000 12.629
78.66000 12.731
78.68000 14.838
78.70000 14.716
78.72000 15.409
78.74000 18.157
78.76000 17.814
78.78000 16.879
78.80000 19.228
78.82000 19.133
78.84000 17.384
78.86000 15.656
78.88000 20.870
78.90000 23.117
78.92000 23.075
78.94000 19.654
78.96000 21.552
78.98000 23.671
79.00000 21.476
79.02000 19.411
79.04000 24.782
79.06000 26.301
79.08000 23.702
79.10000 22.383
79.12000 26.833
79.14000 28.455
79.16000 24.769
79.18000 22.232
79.20000 24.852
79.22000 22.618
79.24000 21.012
79.26000 23.647
79.28000 26.921
79.30000 23.985
79.32000 19.697
79.34000 18.839
79.36000 16.797
79.38000 24.018
79.40000 25.796
79.42000 25.679
79.44000 22.149
79.46000 17.289
79.48000 18.358
79.50000 19.950
79.52000 20.539
79.54000 17.865
79.56000 12.964
79.58000 17.289
79.60000 16.330
79.62000 15.412
79.64000 12.084
79.66000 12.431
79.68000 15.274
79.70000 14.020
79.72000 12.327
79.74000 10.976
79.76000 6.589
79.78000 8.437
79.80000 6.303
79.82000 3.637
79.84000 6.269
79.86000 8.196
79.88000 8.048
79.90000 7.030
79.92000 8.734
79.94000 10.360
79.96000 6.932
79.98000 5.139
80.00000 5.753
80.02000 6.615
80.04000 5.973
80.06000 5.973
80.08000 4.363
80.10000 2.877
80.12000 1.863
80.14000 0.633
80.16000 4.056
80.18000 3.327
80.20000 4.101
80.22000 0.305
80.24000 -0.737
80.26000 0.837
80.28000 7.954
80.30000 6.960
80.32000 0.535
80.34000 1.727
80.36000 1.555
80.38000 0.772
80.40000 4.140
80.42000 3.882
80.44000 1.413
80.46000 3.275
80.48000 2.194
80.50000 -0.651
80.52000 0.527
80.54000 -2.329
80.56000 -0.458
80.58000 1.231
80.60000 2.465
80.62000 1.752
80.64000 -0.684
80.66000 0.168
80.68000 2.448
80.70000 -1.105
80.72000 0.228
80.74000 2.761
80.76000 2.126
80.78000 -1.247
80.80000 -0.958
80.82000 0.762
80.84000 1.037
80.86000 1.377
80.88000 1.654
80.90000 1.314
80.92000 -0.883
80.94000 -1.551
80.96000 -2.344
80.98000 0.190
81.00000 2.326
81.02000 3.800
81.04000 2.456
81.06000 1.389
81.08000 0.867
81.10000 -0.341
81.12000 1.783
81.14000 1.831
81.16000 1.115
81.18000 2.616
81.20000 2.416
81.22000 2.146
81.24000 4.000
81.26000 -0.582
81.28000 -2.349
81.30000 1.821
81.32000 1.568
81.34000 0.561
81.36000 -0.919
81.38000 2.645
81.40000 2.460
81.42000 3.485
81.44000 1.121
81.46000 2.272
81.48000 3.428
81.50000 0.127
81.52000 2.247
81.54000 3.380
81.56000 4.503
81.58000 7.031
81.60000 4.883
81.62000 5.199
81.64000 1.711
81.66000 4.511
81.68000 4.736
81.70000 2.192
81.72000 6.235
81.74000 5.958
81.76000 4.309
81.78000 3.942
81.80000 1.349
81.82000 4.040
81.84000 7.547
81.86000 2.181
81.88000 3.897
81.90000 4.217
81.92000 4.637
81.94000 7.332
81.96000 4.745
81.98000 7.516
82.00000 8.220
82.02000 7.534
82.04000 10.601
82.06000 10.300
82.08000 9.183
82.10000 11.183
82.12000 11.313
82.14000 9.154
82.16000 7.537
82.18000 10.980
82.20000 13.942
82.22000 14.169
82.24000 13.239
82.26000 10.966
82.28000 12.226
82.30000 16.900
82.32000 22.502
82.34000 17.042
82.36000 10.502
82.38000 12.944
82.40000 16.559
82.42000 17.496
82.44000 20.041
82.46000 21.721
82.48000 20.977
82.50000 21.737
82.52000 21.570
82.54000 23.695
82.56000 23.608
82.58000 27.149
82.60000 31.059
82.62000 31.505
82.64000 33.605
82.66000 34.842
82.68000 40.321
82.70000 37.956
82.72000 34.997
82.74000 40.873
82.76000 43.685
82.78000 43.354
82.80000 45.451
82.82000 45.660
82.84000 45.283
82.86000 48.651
82.88000 50.671
82.90000 50.533
82.92000 53.745
82.94000 56.556
82.96000 61.070
82.98000 63.079
83.00000 64.804
83.02000 65.749
83.04000 63.959
83.06000 72.113
83.08000 73.354
83.10000 77.070
83.12000 76.005
83.14000 78.508
83.16000 76.865
83.18000 76.194
83.20000 73.505
83.22000 74.766
83.24000 83.225
83.26000 82.483
83.28000 76.274
83.30000 71.284
83.32000 72.664
83.34000 76.796
83.36000 78.773
83.38000 75.788
83.40000 70.877
83.42000 69.325
83.44000 69.228
83.46000 70.162
83.48000 73.070
83.50000 71.914
83.52000 63.069
83.54000 63.214
83.56000 64.487
83.58000 58.723
83.60000 57.592
83.62000 56.425
83.64000 52.840
83.66000 53.853
83.68000 51.073
83.70000 50.277
83.72000 46.662
83.74000 43.232
83.76000 41.856
83.78000 43.639
83.80000 42.755
83.82000 37.090
83.84000 32.829
83.86000 34.050
83.88000 35.175
83.90000 31.893
83.92000 26.568
83.94000 23.162
83.96000 20.600
83.98000 21.267
84.00000 21.884
84.02000 23.501
84.04000 21.895
84.06000 18.635
84.08000 16.532
84.10000 17.190
84.12000 15.425
84.14000 12.821
84.16000 11.991
84.18000 8.538
84.20000 8.475
84.22000 11.498
84.24000 11.608
84.26000 10.168
84.28000 11.013
84.30000 11.894
84.32000 8.490
84.34000 6.322
84.36000 7.322
84.38000 3.312
84.40000 4.137
84.42000 6.089
84.44000 7.097
84.46000 8.956
84.48000 4.963
84.50000 1.858
84.52000 1.961
84.54000 0.229
84.56000 3.285
84.58000 7.656
84.60000 8.631
84.62000 8.658
84.64000 6.236
84.66000 4.985
84.68000 0.414
84.70000 -2.165
84.72000 0.896
84.74000 1.275
84.76000 4.464
84.78000 5.832
84.80000 2.338
84.82000 1.015
84.84000 2.860
84.86000 2.660
84.88000 1.821
84.90000 3.407
84.92000 4.156
84.94000 1.714
84.96000 0.240
84.98000 3.500
85.00000 1.420
85.02000 0.885
85.04000 -0.247
85.06000 2.097
85.08000 0.336
85.10000 -1.302
85.12000 2.723
85.14000 3.458
85.16000 0.438
85.18000 -1.734
85.20000 -0.523
85.22000 0.729
85.24000 1.006
85.26000 3.978
85.28000 1.268
85.30000 -2.063
85.32000 2.420
85.34000 3.703
85.36000 2.953
85.38000 -0.304
85.40000 1.159
85.42000 3.800
85.44000 2.444
85.46000 0.874
85.48000 1.792
85.50000 3.762
85.52000 0.348
85.54000 1.165
85.56000 -0.918
85.58000 -0.171
85.60000 0.135
85.62000 0.200
85.64000 2.481
85.66000 3.996
85.68000 0.935
85.70000 0.246
85.72000 0.874
85.74000 1.459
85.76000 2.195
85.78000 3.583
85.80000 3.015
85.82000 3.586
85.84000 1.935
85.86000 0.201
85.88000 -0.645
85.90000 0.469
85.92000 -1.489
85.94000 0.883
85.96000 3.754
85.98000 4.145
86.00000 3.499
86.02000 2.771
86.04000 0.713
86.06000 -1.041
86.08000 1.556
86.10000 3.801
86.12000 3.494
86.14000 1.100
86.16000 0.732
86.18000 -2.017
86.20000 1.707
86.22000 1.503
86.24000 1.397
86.26000 -0.522
86.28000 -0.207
86.30000 0.711
86.32000 -1.071
86.34000 1.085
86.36000 0.366
86.38000 -1.351
86.40000 -0.752
86.42000 1.028
86.44000 3.879
86.46000 2.319
86.48000 1.443
86.50000 1.091
86.52000 0.183
86.54000 -2.000
86.56000 -0.105
86.58000 3.182
86.60000 -1.642
86.62000 -0.929
86.64000 3.413
86.66000 -0.168
86.68000 -1.606
86.70000 -1.672
86.72000 -1.061
86.74000 -0.405
86.76000 1.573
86.78000 -1.236
86.80000 -0.055
86.82000 0.790
86.84000 3.202
86.86000 1.311
86.88000 0.853
86.90000 1.325
86.92000 3.081
86.94000 3.672
86.96000 2.388
86.98000 0.296
87.00000 -0.772
87.02000 -0.244
87.04000 -0.992
87.06000 -1.648
87.08000 0.096
87.10000 1.256
87.12000 -0.230
87.14000 1.255
87.16000 -0.695
87.18000 0.630
87.20000 -0.518
87.22000 -0.741
87.24000 0.213
87.26000 -1.362
87.28000 1.024
87.30000 0.942
87.32000 0.251
87.34000 0.721
87.36000 1.379
87.38000 0.431
87.40000 0.660
87.42000 2.106
87.44000 3.360
87.46000 1.991
87.48000 1.658
87.50000 1.107
87.52000 4.290
87.54000 3.180
87.56000 -1.654
87.58000 -0.317
87.60000 0.430
87.62000 -1.787
87.64000 1.771
87.66000 0.347
87.68000 -0.723
87.70000 1.262
87.72000 0.256
87.74000 0.920
87.76000 -1.506
87.78000 -1.913
87.80000 0.072
87.82000 -0.378
87.84000 0.457
87.86000 1.901
87.88000 -1.592
87.90000 -1.746
87.92000 0.386
87.94000 -0.811
87.96000 0.624
87.98000 0.363
88.00000 1.329
88.02000 0.901
88.04000 2.383
88.06000 5.727
88.08000 2.711
88.10000 -0.276
88.12000 -1.675
88.14000 -1.390
88.16000 1.992
88.18000 2.741
88.20000 2.848
88.22000 1.963
88.24000 1.891
88.26000 0.283
88.28000 0.618
88.30000 1.048
88.32000 3.126
88.34000 2.064
88.36000 2.459
88.38000 3.939
88.40000 2.922
88.42000 0.025
88.44000 1.509
88.46000 4.626
88.48000 3.783
88.50000 1.014
88.52000 1.692
88.54000 0.955
88.56000 1.664
88.58000 5.823
88.60000 5.258
88.62000 5.511
88.64000 0.226
88.66000 1.483
88.68000 3.794
88.70000 4.728
88.72000 3.656
88.74000 5.561
88.76000 -1.701
88.78000 -0.829
88.80000 -1.863
88.82000 0.292
88.84000 3.586
88.86000 3.523
88.88000 1.492
88.90000 5.125
88.92000 3.742
88.94000 6.024
88.96000 3.790
88.98000 2.253
89.00000 3.900
89.02000 3.045
89.04000 0.093
89.06000 -0.658
89.08000 4.682
89.10000 5.926
89.12000 5.990
89.14000 3.316
89.16000 1.079
89.18000 2.694
89.20000 3.640
89.22000 5.789
89.24000 4.034
89.26000 2.397
89.28000 3.401
89.30000 3.504
89.32000 2.539
89.34000 6.698
89.36000 6.341
89.38000 3.360
89.40000 1.461
89.42000 -0.250
89.44000 0.985
89.46000 2.264
89.48000 -0.016
89.50000 2.280
89.52000 1.282
89.54000 2.413
89.56000 5.113
89.58000 4.039
89.60000 -1.452
89.62000 1.545
89.64000 1.974
89.66000 0.135
89.68000 0.018
89.70000 0.855
89.72000 2.208
89.74000 1.816
89.76000 2.003
89.78000 1.817
89.80000 2.649
89.82000 3.796
89.84000 5.763
89.86000 0.678
89.88000 1.643
89.90000 2.232
89.92000 0.834
89.94000 1.918
89.96000 1.036
89.98000 0.543
90.00000 0.581
90.02000 0.163
90.04000 0.690
90.06000 1.128
90.08000 0.486
90.10000 2.597
90.12000 2.517
90.14000 3.354
90.16000 4.712
90.18000 4.855
90.20000 2.890
90.22000 2.621
90.24000 3.358
90.26000 2.496
90.28000 1.360
90.30000 2.278
90.32000 3.282
90.34000 2.982
90.36000 4.070
90.38000 4.094
90.40000 0.753
90.42000 -1.692
90.44000 0.482
90.46000 2.416
90.48000 6.100
90.50000 3.769
90.52000 3.368
90.54000 1.530
90.56000 3.689
90.58000 4.942
90.60000 4.946
90.62000 4.172
90.64000 4.370
90.66000 3.518
90.68000 5.347
90.70000 3.513
90.72000 3.224
90.74000 1.411
90.76000 1.329
90.78000 1.657
90.80000 1.441
90.82000 -0.424
90.84000 -1.835
90.86000 -1.127
90.88000 1.264
90.90000 2.253
90.92000 1.314
90.94000 3.953
90.96000 4.942
90.98000 5.957
91.00000 3.624
91.02000 6.208
91.04000 5.132
91.06000 2.774
91.08000 5.446
91.10000 4.958
91.12000 2.717
91.14000 3.346
91.16000 2.960
91.18000 2.223
91.20000 3.144
91.22000 2.180
91.24000 3.390
91.26000 2.164
91.28000 5.991
91.30000 6.039
91.32000 3.979
91.34000 5.580
91.36000 5.640
91.38000 3.871
91.40000 1.650
91.42000 1.050
91.44000 3.874
91.46000 6.209
91.48000 4.692
91.50000 4.072
91.52000 7.289
91.54000 7.065
91.56000 3.720
91.58000 -1.869
91.60000 1.579
91.62000 5.673
91.64000 5.098
91.66000 4.954
91.68000 3.235
91.70000 5.801
91.72000 1.984
91.74000 1.580
91.76000 2.041
91.78000 3.810
91.80000 2.764
91.82000 2.194
91.84000 0.333
91.86000 -1.851
91.88000 -0.903
91.90000 0.020
91.92000 -0.647
91.94000 -1.589
91.96000 2.505
91.98000 4.892
92.00000 5.021
92.02000 5.810
92.04000 5.642
92.06000 2.869
92.08000 2.596
92.10000 2.469
92.12000 3.659
92.14000 5.898
92.16000 4.509
92.18000 5.101
92.20000 3.072
92.22000 0.274
92.24000 -0.100
92.26000 2.987
92.28000 4.346
92.30000 4.394
92.32000 3.682
92.34000 6.047
92.36000 4.639
92.38000 2.485
92.40000 3.161
92.42000 4.363
92.44000 3.371
92.46000 0.681
92.48000 0.140
92.50000 1.638
92.52000 3.544
92.54000 1.896
92.56000 2.573
92.58000 4.148
92.60000 4.541
92.62000 6.937
92.64000 5.779
92.66000 5.298
92.68000 4.217
92.70000 4.051
92.72000 1.542
92.74000 0.544
92.76000 -1.873
92.78000 -1.026
92.80000 2.320
92.82000 2.475
92.84000 0.844
92.86000 4.260
92.88000 1.293
92.90000 -0.152
92.92000 1.041
92.94000 0.970
92.96000 3.205
92.98000 4.657
93.00000 4.759
93.02000 3.050
93.04000 6.186
93.06000 6.609
93.08000 4.475
93.10000 5.294
93.12000 4.091
93.14000 4.853
93.16000 3.256
93.18000 0.764
93.20000 2.748
93.22000 3.822
93.24000 1.928
93.26000 2.769
93.28000 2.178
93.30000 3.453
93.32000 1.853
93.34000 1.658
93.36000 4.373
93.38000 3.623
93.40000 0.814
93.42000 2.599
93.44000 2.425
93.46000 0.647
93.48000 4.091
93.50000 0.637
93.52000 -1.231
93.54000 -0.125
93.56000 -0.535
93.58000 2.711
93.60000 5.223
93.62000 2.582
93.64000 -1.544
93.66000 -0.587
93.68000 2.141
93.70000 2.107
93.72000 1.771
93.74000 1.053
93.76000 2.948
93.78000 3.738
93.80000 2.817
93.82000 0.614
93.84000 1.423
93.86000 -0.860
93.88000 2.585
93.90000 2.922
93.92000 2.918
93.94000 4.819
93.96000 6.338
93.98000 1.738
94.00000 0.246
94.02000 1.974
94.04000 4.796
94.06000 2.090
94.08000 1.443
94.10000 3.794
94.12000 2.126
94.14000 3.573
94.16000 0.626
94.18000 -1.899
94.20000 2.758
94.22000 6.936
94.24000 5.837
94.26000 5.428
94.28000 7.466
94.30000 8.214
94.32000 2.746
94.34000 2.063
94.36000 2.720
94.38000 4.735
94.40000 0.396
94.42000 2.294
94.44000 5.760
94.46000 5.311
94.48000 3.009
94.50000 3.333
94.52000 6.667
94.54000 5.163
94.56000 2.012
94.58000 -1.522
94.60000 1.159
94.62000 3.540
94.64000 3.464
94.66000 1.103
94.68000 4.510
94.70000 3.903
94.72000 3.540
94.74000 1.464
94.76000 1.463
94.78000 1.149
94.80000 5.531
94.82000 5.285
94.84000 2.893
94.86000 3.999
94.88000 5.989
94.90000 4.535
94.92000 3.838
94.94000 2.830
94.96000 2.952
94.98000 5.984
95.00000 7.635
95.02000 5.382
95.04000 5.971
95.06000 5.324
95.08000 8.157
95.10000 8.339
95.12000 5.095
95.14000 7.063
95.16000 3.561
95.18000 5.245
95.20000 4.884
95.22000 3.510
95.24000 3.459
95.26000 3.753
95.28000 2.467
95.30000 3.684
95.32000 4.995
95.34000 4.357
95.36000 3.244
95.38000 0.636
95.40000 2.208
95.42000 4.394
95.44000 4.199
95.46000 0.889
95.48000 -1.923
95.50000 -0.067
95.52000 0.768
95.54000 -0.360
95.56000 0.779
95.58000 6.087
95.60000 7.244
95.62000 3.758
95.64000 3.002
95.66000 0.988
95.68000 3.341
95.70000 4.068
95.72000 5.385
95.74000 2.153
95.76000 1.893
95.78000 2.534
95.80000 0.035
95.82000 -0.366
95.84000 0.868
95.86000 6.946
95.88000 4.871
95.90000 7.398
95.92000 5.399
95.94000 0.061
95.96000 0.268
95.98000 7.121
96.00000 2.730
96.02000 2.900
96.04000 1.752
96.06000 1.703
96.08000 3.056
96.10000 2.022
96.12000 5.985
96.14000 6.166
96.16000 7.310
96.18000 5.202
96.20000 7.614
96.22000 2.279
96.24000 3.931
96.26000 1.943
96.28000 3.733
96.30000 1.423
96.32000 3.885
96.34000 6.789
96.36000 3.861
96.38000 4.364
96.40000 3.986
96.42000 -0.858
96.44000 3.884
96.46000 6.946
96.48000 5.255
96.50000 5.569
96.52000 2.270
96.54000 5.190
96.56000 6.706
96.58000 5.879
96.60000 7.920
96.62000 10.453
96.64000 5.363
96.66000 3.390
96.68000 6.119
96.70000 8.262
96.72000 7.193
96.74000 5.335
96.76000 4.465
96.78000 6.573
96.80000 7.237
96.82000 6.921
96.84000 5.027
96.86000 4.554
96.88000 5.385
96.90000 3.466
96.92000 4.406
96.94000 5.170
96.96000 4.585
96.98000 3.943
97.00000 5.183
97.02000 5.804
97.04000 2.708
97.06000 3.618
97.08000 4.717
97.10000 4.163
97.12000 5.808
97.14000 -1.816
97.16000 1.914
97.18000 7.070
97.20000 6.627
97.22000 8.390
97.24000 7.241
97.26000 5.550
97.28000 5.577
97.30000 7.807
97.32000 10.222
97.34000 6.337
97.36000 3.122
97.38000 4.280
97.40000 5.261
97.42000 2.629
97.44000 7.086
97.46000 7.116
97.48000 7.589
97.50000 3.681
97.52000 4.294
97.54000 3.349
97.56000 1.271
97.58000 5.110
97.60000 8.555
97.62000 4.900
97.64000 2.703
97.66000 4.452
97.68000 7.301
97.70000 9.064
97.72000 7.486
97.74000 4.797
97.76000 3.890
97.78000 5.937
97.80000 3.296
97.82000 5.171
97.84000 5.502
97.86000 6.445
97.88000 2.368
97.90000 0.679
97.92000 3.879
97.94000 1.529
97.96000 0.639
97.98000 3.247
98.00000 4.202
98.02000 7.911
98.04000 4.333
98.06000 7.067
98.08000 7.816
98.10000 2.277
98.12000 -1.719
98.14000 5.306
98.16000 9.549
98.18000 6.865
98.20000 9.397
98.22000 9.614
98.24000 7.942
98.26000 4.185
98.28000 6.339
98.30000 5.051
98.32000 5.825
98.34000 7.849
98.36000 4.284
98.38000 1.216
98.40000 -1.056
98.42000 1.023
98.44000 0.496
98.46000 1.141
98.48000 5.461
98.50000 3.749
98.52000 6.207
98.54000 4.477
98.56000 -2.190
98.58000 5.089
98.60000 5.134
98.62000 6.002
98.64000 6.853
98.66000 7.361
98.68000 6.158
98.70000 2.940
98.72000 4.935
98.74000 0.842
98.76000 1.840
98.78000 3.620
98.80000 6.235
98.82000 15.311
98.84000 13.442
98.86000 6.426
98.88000 5.028
98.90000 5.290
98.92000 8.865
98.94000 2.716
98.96000 8.791
98.98000 3.171
99.00000 1.883
99.02000 3.799
99.04000 6.151
99.06000 -1.028
99.08000 -0.154
99.10000 1.306
99.12000 5.429
99.14000 3.745
99.16000 6.312
99.18000 7.269
99.20000 -0.653
99.22000 0.240
99.24000 6.462
99.26000 9.504
99.28000 10.760
99.30000 3.491
99.32000 -0.176
99.34000 4.381
99.36000 3.416
99.38000 -0.905
99.40000 3.549
99.42000 7.298
99.44000 7.274
99.46000 9.648
99.48000 9.907
99.50000 7.693
99.52000 3.418
99.54000 0.222
99.56000 8.002
99.58000 8.073
99.60000 6.553
99.62000 3.383
99.64000 2.956
99.66000 9.559
99.68000 3.574
99.70000 2.936
99.72000 3.791
99.74000 4.828
99.76000 5.000
99.78000 9.171
99.80000 5.880
99.82000 -1.866
99.84000 0.770
99.86000 2.967
99.88000 8.015
99.90000 -1.943
99.92000 -1.969
99.94000 5.735
99.96000 1.780
99.98000 0.000
