'Id: "0011389" Comment: "Integrate frame 0011389_Au-Ir-Rh_Au-Rich_XRD_Mapping-034-0000.gfrmwith cursor Wedge Cursor #5" Operator: "B?rgel" Anode: "Cu" Wavelength: "1.5406" Scantype: "2Theta (TwoTheta)" TimePerStep: "1" X: "13.5" Y: "-31.5" Z: "5.95" 
10.00000 0.000
10.02000 -4.145
10.04000 1.630
10.06000 -5.648
10.08000 8.129
10.10000 15.980
10.12000 14.833
10.14000 16.362
10.16000 25.444
10.18000 18.400
10.20000 14.322
10.22000 9.112
10.24000 14.621
10.26000 11.574
10.28000 19.741
10.30000 17.542
10.32000 29.700
10.34000 16.129
10.36000 20.288
10.38000 22.911
10.40000 19.204
10.42000 22.797
10.44000 21.409
10.46000 16.176
10.48000 21.070
10.50000 14.364
10.52000 -2.460
10.54000 11.938
10.56000 15.790
10.58000 4.572
10.60000 12.972
10.62000 14.521
10.64000 24.252
10.66000 23.577
10.68000 14.740
10.70000 4.153
10.72000 4.159
10.74000 4.594
10.76000 11.298
10.78000 15.890
10.80000 30.722
10.82000 24.082
10.84000 15.093
10.86000 7.826
10.88000 4.258
10.90000 14.673
10.92000 19.886
10.94000 19.555
10.96000 15.710
10.98000 18.429
11.00000 21.791
11.02000 18.405
11.04000 6.765
11.06000 21.376
11.08000 27.999
11.10000 36.991
11.12000 21.107
11.14000 13.730
11.16000 19.827
11.18000 9.008
11.20000 16.378
11.22000 7.784
11.24000 16.761
11.26000 23.932
11.28000 18.653
11.30000 15.079
11.32000 17.316
11.34000 24.140
11.36000 25.181
11.38000 27.572
11.40000 14.967
11.42000 15.308
11.44000 12.029
11.46000 10.094
11.48000 5.051
11.50000 8.793
11.52000 12.806
11.54000 6.971
11.56000 13.084
11.58000 10.301
11.60000 12.392
11.62000 32.625
11.64000 16.983
11.66000 8.386
11.68000 12.026
11.70000 7.703
11.72000 14.928
11.74000 21.390
11.76000 22.023
11.78000 23.767
11.80000 15.089
11.82000 5.953
11.84000 14.485
11.86000 20.635
11.88000 14.766
11.90000 15.940
11.92000 23.431
11.94000 22.958
11.96000 26.009
11.98000 22.760
12.00000 18.970
12.02000 8.174
12.04000 11.459
12.06000 9.101
12.08000 -0.055
12.10000 3.974
12.12000 13.950
12.14000 7.667
12.16000 25.330
12.18000 22.851
12.20000 18.141
12.22000 13.086
12.24000 22.717
12.26000 25.465
12.28000 21.670
12.30000 11.216
12.32000 11.884
12.34000 20.378
12.36000 23.510
12.38000 14.703
12.40000 11.431
12.42000 10.471
12.44000 24.722
12.46000 19.270
12.48000 18.691
12.50000 17.419
12.52000 15.625
12.54000 15.210
12.56000 4.223
12.58000 8.446
12.60000 15.368
12.62000 23.854
12.64000 26.127
12.66000 17.926
12.68000 16.101
12.70000 20.712
12.72000 21.435
12.74000 15.830
12.76000 17.644
12.78000 16.367
12.80000 13.226
12.82000 19.695
12.84000 37.116
12.86000 27.375
12.88000 23.959
12.90000 24.892
12.92000 18.307
12.94000 14.572
12.96000 19.595
12.98000 21.185
13.00000 18.843
13.02000 18.655
13.04000 20.192
13.06000 24.592
13.08000 20.999
13.10000 23.453
13.12000 22.815
13.14000 23.990
13.16000 20.769
13.18000 14.999
13.20000 14.815
13.22000 19.102
13.24000 19.669
13.26000 14.168
13.28000 15.297
13.30000 23.883
13.32000 25.205
13.34000 22.412
13.36000 21.130
13.38000 21.918
13.40000 23.790
13.42000 19.923
13.44000 26.942
13.46000 27.620
13.48000 25.348
13.50000 25.527
13.52000 19.704
13.54000 12.926
13.56000 4.731
13.58000 13.689
13.60000 16.362
13.62000 16.758
13.64000 19.812
13.66000 14.356
13.68000 15.487
13.70000 17.084
13.72000 9.908
13.74000 4.007
13.76000 4.740
13.78000 5.188
13.80000 9.563
13.82000 2.360
13.84000 2.010
13.86000 12.085
13.88000 13.736
13.90000 14.185
13.92000 13.764
13.94000 22.046
13.96000 19.329
13.98000 11.598
14.00000 12.247
14.02000 11.249
14.04000 15.847
14.06000 11.277
14.08000 10.117
14.10000 7.030
14.12000 5.173
14.14000 12.643
14.16000 9.739
14.18000 2.413
14.20000 6.129
14.22000 15.861
14.24000 17.434
14.26000 1.537
14.28000 4.741
14.30000 15.920
14.32000 16.540
14.34000 18.207
14.36000 8.163
14.38000 8.888
14.40000 8.528
14.42000 3.679
14.44000 6.596
14.46000 8.144
14.48000 9.106
14.50000 15.552
14.52000 14.471
14.54000 3.013
14.56000 6.183
14.58000 15.367
14.60000 17.064
14.62000 12.215
14.64000 17.534
14.66000 4.015
14.68000 0.614
14.70000 3.789
14.72000 15.004
14.74000 13.922
14.76000 13.293
14.78000 15.067
14.80000 18.930
14.82000 19.109
14.84000 12.445
14.86000 -4.416
14.88000 -0.775
14.90000 17.683
14.92000 16.865
14.94000 13.455
14.96000 14.069
14.98000 16.919
15.00000 20.917
15.02000 10.789
15.04000 6.686
15.06000 14.644
15.08000 18.726
15.10000 7.492
15.12000 -0.093
15.14000 1.379
15.16000 10.076
15.18000 7.850
15.20000 2.622
15.22000 8.751
15.24000 16.297
15.26000 13.663
15.28000 12.278
15.30000 6.774
15.32000 11.972
15.34000 7.648
15.36000 3.854
15.38000 10.562
15.40000 9.381
15.42000 9.951
15.44000 10.277
15.46000 15.994
15.48000 9.991
15.50000 8.617
15.52000 12.137
15.54000 6.027
15.56000 3.911
15.58000 9.047
15.60000 9.705
15.62000 8.117
15.64000 4.301
15.66000 2.318
15.68000 5.113
15.70000 11.601
15.72000 4.817
15.74000 -1.499
15.76000 -3.049
15.78000 5.386
15.80000 4.683
15.82000 8.650
15.84000 12.204
15.86000 9.485
15.88000 -2.514
15.90000 5.507
15.92000 13.923
15.94000 3.493
15.96000 0.879
15.98000 4.793
16.00000 7.207
16.02000 7.102
16.04000 2.645
16.06000 -3.688
16.08000 3.510
16.10000 14.533
16.12000 13.345
16.14000 11.380
16.16000 11.313
16.18000 10.732
16.20000 7.899
16.22000 10.031
16.24000 6.757
16.26000 13.903
16.28000 10.601
16.30000 3.872
16.32000 8.769
16.34000 10.115
16.36000 14.996
16.38000 15.917
16.40000 18.689
16.42000 18.817
16.44000 6.079
16.46000 7.028
16.48000 3.225
16.50000 13.900
16.52000 11.675
16.54000 -0.251
16.56000 -0.298
16.58000 9.772
16.60000 13.540
16.62000 14.661
16.64000 9.534
16.66000 4.767
16.68000 8.114
16.70000 11.144
16.72000 13.439
16.74000 14.230
16.76000 13.465
16.78000 11.523
16.80000 5.036
16.82000 5.445
16.84000 9.984
16.86000 11.154
16.88000 15.602
16.90000 16.446
16.92000 14.519
16.94000 12.282
16.96000 11.738
16.98000 12.359
17.00000 11.569
17.02000 11.540
17.04000 5.008
17.06000 10.053
17.08000 10.056
17.10000 -4.312
17.12000 2.547
17.14000 6.941
17.16000 13.427
17.18000 8.675
17.20000 8.241
17.22000 9.688
17.24000 8.503
17.26000 8.704
17.28000 5.184
17.30000 6.665
17.32000 5.295
17.34000 8.401
17.36000 8.518
17.38000 9.394
17.40000 8.412
17.42000 -0.085
17.44000 -1.889
17.46000 5.458
17.48000 5.002
17.50000 3.441
17.52000 4.156
17.54000 14.515
17.56000 16.695
17.58000 20.828
17.60000 16.182
17.62000 11.327
17.64000 11.763
17.66000 12.955
17.68000 13.374
17.70000 8.155
17.72000 7.888
17.74000 7.505
17.76000 -1.727
17.78000 1.245
17.80000 8.258
17.82000 6.430
17.84000 7.351
17.86000 8.097
17.88000 9.240
17.90000 10.430
17.92000 10.575
17.94000 7.147
17.96000 6.901
17.98000 2.759
18.00000 7.512
18.02000 13.474
18.04000 10.511
18.06000 3.314
18.08000 4.121
18.10000 10.341
18.12000 16.546
18.14000 9.381
18.16000 0.126
18.18000 13.417
18.20000 18.257
18.22000 11.600
18.24000 9.012
18.26000 10.428
18.28000 9.799
18.30000 4.684
18.32000 4.021
18.34000 -0.070
18.36000 6.155
18.38000 2.258
18.40000 4.332
18.42000 6.475
18.44000 9.141
18.46000 8.728
18.48000 -1.560
18.50000 0.863
18.52000 9.762
18.54000 1.511
18.56000 -1.096
18.58000 7.836
18.60000 4.127
18.62000 6.067
18.64000 5.999
18.66000 4.262
18.68000 7.216
18.70000 4.471
18.72000 -1.412
18.74000 -4.257
18.76000 4.703
18.78000 10.125
18.80000 -0.705
18.82000 1.303
18.84000 5.006
18.86000 4.291
18.88000 4.914
18.90000 8.141
18.92000 9.848
18.94000 10.317
18.96000 5.165
18.98000 2.184
19.00000 1.307
19.02000 6.547
19.04000 5.858
19.06000 4.802
19.08000 7.466
19.10000 5.773
19.12000 3.060
19.14000 6.880
19.16000 6.899
19.18000 1.793
19.20000 3.177
19.22000 8.049
19.24000 12.462
19.26000 4.073
19.28000 -3.792
19.30000 4.895
19.32000 5.114
19.34000 5.509
19.36000 9.143
19.38000 3.924
19.40000 5.068
19.42000 4.509
19.44000 -0.510
19.46000 5.344
19.48000 0.192
19.50000 1.576
19.52000 -0.441
19.54000 1.911
19.56000 8.714
19.58000 2.385
19.60000 5.368
19.62000 5.939
19.64000 0.053
19.66000 -0.721
19.68000 5.452
19.70000 5.508
19.72000 -0.421
19.74000 -4.228
19.76000 1.380
19.78000 -0.388
19.80000 -0.841
19.82000 -3.257
19.84000 -2.016
19.86000 -1.769
19.88000 4.491
19.90000 1.914
19.92000 2.310
19.94000 2.789
19.96000 1.065
19.98000 -1.010
20.00000 -3.240
20.02000 1.223
20.04000 5.573
20.06000 7.050
20.08000 3.903
20.10000 6.472
20.12000 2.732
20.14000 1.632
20.16000 5.631
20.18000 5.594
20.20000 8.541
20.22000 3.063
20.24000 -3.034
20.26000 -3.290
20.28000 -1.831
20.30000 0.534
20.32000 -0.963
20.34000 -0.545
20.36000 5.632
20.38000 6.310
20.40000 3.336
20.42000 0.192
20.44000 -4.187
20.46000 3.344
20.48000 2.477
20.50000 1.915
20.52000 9.451
20.54000 9.462
20.56000 3.066
20.58000 5.315
20.60000 8.005
20.62000 3.144
20.64000 9.730
20.66000 9.167
20.68000 3.106
20.70000 1.295
20.72000 -1.348
20.74000 -1.359
20.76000 1.069
20.78000 7.524
20.80000 9.709
20.82000 1.848
20.84000 -1.111
20.86000 -0.268
20.88000 2.501
20.90000 3.348
20.92000 4.506
20.94000 -3.826
20.96000 -3.428
20.98000 4.759
21.00000 11.016
21.02000 6.051
21.04000 1.836
21.06000 -0.769
21.08000 -0.078
21.10000 3.692
21.12000 6.987
21.14000 2.714
21.16000 -0.973
21.18000 0.363
21.20000 -1.244
21.22000 7.710
21.24000 1.332
21.26000 3.279
21.28000 5.813
21.30000 -3.286
21.32000 5.861
21.34000 6.787
21.36000 1.202
21.38000 -4.109
21.40000 5.583
21.42000 7.655
21.44000 8.433
21.46000 0.122
21.48000 -2.513
21.50000 -1.240
21.52000 3.776
21.54000 4.500
21.56000 12.225
21.58000 10.650
21.60000 1.938
21.62000 -1.156
21.64000 -4.094
21.66000 4.049
21.68000 4.124
21.70000 0.738
21.72000 5.810
21.74000 5.900
21.76000 3.597
21.78000 3.209
21.80000 2.359
21.82000 -3.064
21.84000 2.525
21.86000 4.620
21.88000 8.178
21.90000 11.043
21.92000 7.226
21.94000 2.184
21.96000 1.767
21.98000 5.772
22.00000 8.852
22.02000 3.132
22.04000 5.307
22.06000 10.049
22.08000 6.731
22.10000 -2.124
22.12000 0.923
22.14000 1.609
22.16000 2.032
22.18000 2.567
22.20000 2.039
22.22000 2.336
22.24000 -0.836
22.26000 3.151
22.28000 4.625
22.30000 1.013
22.32000 5.826
22.34000 0.095
22.36000 -1.721
22.38000 -2.032
22.40000 0.344
22.42000 -3.169
22.44000 0.368
22.46000 -1.137
22.48000 -1.367
22.50000 3.744
22.52000 5.272
22.54000 7.817
22.56000 7.003
22.58000 1.225
22.60000 4.717
22.62000 9.310
22.64000 4.373
22.66000 -0.412
22.68000 2.257
22.70000 3.190
22.72000 -0.761
22.74000 3.961
22.76000 5.053
22.78000 1.565
22.80000 -1.574
22.82000 -0.184
22.84000 5.321
22.86000 5.046
22.88000 3.708
22.90000 5.841
22.92000 1.435
22.94000 1.281
22.96000 0.800
22.98000 1.334
23.00000 1.376
23.02000 2.580
23.04000 -3.854
23.06000 -2.390
23.08000 -4.024
23.10000 -1.513
23.12000 6.527
23.14000 3.398
23.16000 2.052
23.18000 3.416
23.20000 5.568
23.22000 9.968
23.24000 3.641
23.26000 1.703
23.28000 3.473
23.30000 7.930
23.32000 7.542
23.34000 2.452
23.36000 1.121
23.38000 2.063
23.40000 -0.320
23.42000 4.387
23.44000 2.208
23.46000 2.131
23.48000 6.265
23.50000 10.114
23.52000 10.365
23.54000 5.350
23.56000 6.201
23.58000 4.112
23.60000 1.316
23.62000 4.601
23.64000 0.691
23.66000 1.339
23.68000 1.220
23.70000 -1.510
23.72000 3.116
23.74000 7.061
23.76000 4.876
23.78000 7.648
23.80000 8.641
23.82000 4.827
23.84000 5.013
23.86000 2.363
23.88000 5.828
23.90000 5.939
23.92000 3.185
23.94000 1.200
23.96000 7.531
23.98000 11.386
24.00000 8.712
24.02000 0.090
24.04000 6.111
24.06000 7.037
24.08000 2.532
24.10000 2.029
24.12000 4.434
24.14000 3.318
24.16000 -1.379
24.18000 0.574
24.20000 2.448
24.22000 1.870
24.24000 1.402
24.26000 2.929
24.28000 4.426
24.30000 1.283
24.32000 -3.964
24.34000 1.990
24.36000 1.783
24.38000 5.052
24.40000 6.918
24.42000 4.724
24.44000 9.311
24.46000 6.473
24.48000 9.880
24.50000 3.397
24.52000 -0.840
24.54000 2.400
24.56000 3.307
24.58000 9.517
24.60000 7.821
24.62000 9.691
24.64000 7.330
24.66000 -3.096
24.68000 1.408
24.70000 -2.495
24.72000 0.940
24.74000 5.453
24.76000 6.164
24.78000 4.803
24.80000 6.918
24.82000 6.827
24.84000 0.814
24.86000 3.992
24.88000 5.061
24.90000 0.260
24.92000 -3.916
24.94000 1.611
24.96000 4.605
24.98000 5.752
25.00000 3.226
25.02000 6.579
25.04000 3.993
25.06000 1.510
25.08000 4.689
25.10000 5.389
25.12000 7.138
25.14000 2.208
25.16000 1.079
25.18000 3.208
25.20000 2.973
25.22000 6.087
25.24000 6.568
25.26000 0.502
25.28000 -1.174
25.30000 -0.718
25.32000 1.540
25.34000 0.714
25.36000 5.183
25.38000 1.514
25.40000 2.390
25.42000 7.441
25.44000 10.625
25.46000 6.601
25.48000 6.382
25.50000 4.055
25.52000 1.688
25.54000 0.594
25.56000 0.283
25.58000 1.799
25.60000 5.537
25.62000 1.096
25.64000 -0.752
25.66000 -1.939
25.68000 3.278
25.70000 0.531
25.72000 0.470
25.74000 -1.426
25.76000 -2.445
25.78000 -2.107
25.80000 4.732
25.82000 6.116
25.84000 1.116
25.86000 0.591
25.88000 1.214
25.90000 -3.891
25.92000 -3.317
25.94000 2.036
25.96000 2.501
25.98000 4.470
26.00000 6.882
26.02000 1.162
26.04000 -0.415
26.06000 0.406
26.08000 -0.798
26.10000 -0.076
26.12000 2.368
26.14000 3.356
26.16000 2.292
26.18000 1.783
26.20000 6.726
26.22000 4.427
26.24000 3.098
26.26000 1.587
26.28000 1.938
26.30000 3.532
26.32000 -0.278
26.34000 -0.400
26.36000 -0.117
26.38000 -2.113
26.40000 -1.601
26.42000 2.843
26.44000 0.433
26.46000 1.161
26.48000 2.255
26.50000 0.820
26.52000 0.561
26.54000 1.853
26.56000 -0.920
26.58000 -2.344
26.60000 1.324
26.62000 -1.749
26.64000 0.945
26.66000 2.922
26.68000 -0.136
26.70000 -0.355
26.72000 -2.851
26.74000 -0.870
26.76000 0.934
26.78000 3.597
26.80000 3.140
26.82000 3.516
26.84000 5.370
26.86000 3.758
26.88000 7.331
26.90000 5.379
26.92000 2.864
26.94000 3.836
26.96000 5.349
26.98000 5.731
27.00000 3.854
27.02000 0.935
27.04000 1.929
27.06000 1.609
27.08000 5.919
27.10000 11.962
27.12000 5.841
27.14000 0.994
27.16000 2.506
27.18000 2.602
27.20000 5.192
27.22000 5.646
27.24000 4.212
27.26000 3.438
27.28000 7.123
27.30000 8.051
27.32000 6.096
27.34000 5.878
27.36000 4.213
27.38000 0.277
27.40000 3.980
27.42000 2.096
27.44000 -3.776
27.46000 2.353
27.48000 7.304
27.50000 6.141
27.52000 6.872
27.54000 5.881
27.56000 0.426
27.58000 2.022
27.60000 3.701
27.62000 3.893
27.64000 3.833
27.66000 2.021
27.68000 2.336
27.70000 2.624
27.72000 4.935
27.74000 3.599
27.76000 8.007
27.78000 6.705
27.80000 4.031
27.82000 1.794
27.84000 0.814
27.86000 5.431
27.88000 5.084
27.90000 3.280
27.92000 3.806
27.94000 4.386
27.96000 1.153
27.98000 6.181
28.00000 7.311
28.02000 4.594
28.04000 9.354
28.06000 9.142
28.08000 4.060
28.10000 0.600
28.12000 1.372
28.14000 2.681
28.16000 1.616
28.18000 2.604
28.20000 2.662
28.22000 7.586
28.24000 5.339
28.26000 5.298
28.28000 7.552
28.30000 6.265
28.32000 2.677
28.34000 5.934
28.36000 10.929
28.38000 5.885
28.40000 1.515
28.42000 2.276
28.44000 1.557
28.46000 5.340
28.48000 -1.066
28.50000 -2.674
28.52000 2.984
28.54000 8.903
28.56000 0.906
28.58000 5.066
28.60000 4.570
28.62000 8.025
28.64000 12.571
28.66000 4.352
28.68000 0.290
28.70000 1.812
28.72000 2.126
28.74000 3.121
28.76000 4.243
28.78000 0.405
28.80000 -2.455
28.82000 2.516
28.84000 6.142
28.86000 6.246
28.88000 6.938
28.90000 4.400
28.92000 5.867
28.94000 8.378
28.96000 4.148
28.98000 1.292
29.00000 4.349
29.02000 1.380
29.04000 0.896
29.06000 6.573
29.08000 5.833
29.10000 6.559
29.12000 5.500
29.14000 7.045
29.16000 10.265
29.18000 5.227
29.20000 -3.669
29.22000 3.133
29.24000 8.047
29.26000 11.781
29.28000 7.886
29.30000 3.553
29.32000 5.656
29.34000 4.020
29.36000 5.215
29.38000 7.709
29.40000 5.767
29.42000 5.004
29.44000 8.835
29.46000 7.868
29.48000 3.722
29.50000 6.534
29.52000 6.128
29.54000 7.768
29.56000 7.313
29.58000 7.541
29.60000 4.035
29.62000 3.639
29.64000 4.337
29.66000 2.937
29.68000 0.743
29.70000 2.387
29.72000 5.524
29.74000 6.156
29.76000 7.228
29.78000 1.408
29.80000 0.041
29.82000 -1.301
29.84000 2.542
29.86000 4.569
29.88000 5.098
29.90000 0.378
29.92000 -1.192
29.94000 -2.117
29.96000 4.988
29.98000 3.004
30.00000 4.658
30.02000 1.299
30.04000 -3.020
30.06000 0.711
30.08000 3.849
30.10000 3.922
30.12000 3.349
30.14000 1.976
30.16000 1.554
30.18000 3.185
30.20000 5.513
30.22000 -0.478
30.24000 2.010
30.26000 3.956
30.28000 1.287
30.30000 3.284
30.32000 3.799
30.34000 3.958
30.36000 2.754
30.38000 2.136
30.40000 4.685
30.42000 2.700
30.44000 -2.487
30.46000 -0.585
30.48000 0.995
30.50000 1.018
30.52000 -3.658
30.54000 -0.821
30.56000 5.081
30.58000 2.209
30.60000 2.018
30.62000 5.081
30.64000 3.974
30.66000 -0.955
30.68000 1.646
30.70000 3.809
30.72000 4.849
30.74000 2.695
30.76000 1.056
30.78000 -0.733
30.80000 -2.703
30.82000 -1.316
30.84000 2.678
30.86000 0.538
30.88000 -0.029
30.90000 6.993
30.92000 2.222
30.94000 7.168
30.96000 6.718
30.98000 4.650
31.00000 3.304
31.02000 0.125
31.04000 2.227
31.06000 8.108
31.08000 11.140
31.10000 6.843
31.12000 -3.630
31.14000 2.218
31.16000 9.586
31.18000 3.949
31.20000 7.494
31.22000 2.901
31.24000 1.454
31.26000 4.454
31.28000 9.596
31.30000 4.536
31.32000 0.217
31.34000 0.518
31.36000 0.042
31.38000 4.236
31.40000 4.964
31.42000 3.982
31.44000 6.627
31.46000 3.064
31.48000 0.564
31.50000 -3.604
31.52000 -0.803
31.54000 6.371
31.56000 5.605
31.58000 3.025
31.60000 2.343
31.62000 1.081
31.64000 2.651
31.66000 2.395
31.68000 3.754
31.70000 5.499
31.72000 3.593
31.74000 2.895
31.76000 5.064
31.78000 3.892
31.80000 0.405
31.82000 4.517
31.84000 6.013
31.86000 1.367
31.88000 6.098
31.90000 11.731
31.92000 7.032
31.94000 4.736
31.96000 5.472
31.98000 1.593
32.00000 -0.302
32.02000 0.453
32.04000 2.154
32.06000 3.220
32.08000 8.955
32.10000 10.506
32.12000 7.427
32.14000 6.376
32.16000 2.903
32.18000 -0.630
32.20000 3.715
32.22000 8.671
32.24000 4.652
32.26000 1.635
32.28000 1.735
32.30000 3.090
32.32000 3.686
32.34000 5.391
32.36000 6.636
32.38000 6.934
32.40000 8.284
32.42000 4.899
32.44000 -3.552
32.46000 -0.116
32.48000 -2.000
32.50000 2.307
32.52000 9.794
32.54000 3.587
32.56000 1.496
32.58000 1.199
32.60000 -0.255
32.62000 -1.026
32.64000 0.480
32.66000 -0.069
32.68000 3.392
32.70000 0.995
32.72000 3.674
32.74000 3.186
32.76000 6.920
32.78000 0.660
32.80000 3.335
32.82000 4.622
32.84000 4.510
32.86000 5.484
32.88000 -2.742
32.90000 -3.554
32.92000 4.624
32.94000 7.685
32.96000 7.013
32.98000 3.560
33.00000 0.966
33.02000 -1.830
33.04000 3.481
33.06000 3.333
33.08000 2.047
33.10000 1.584
33.12000 4.468
33.14000 4.691
33.16000 5.898
33.18000 3.355
33.20000 1.087
33.22000 6.442
33.24000 9.673
33.26000 6.308
33.28000 2.243
33.30000 3.776
33.32000 5.441
33.34000 11.173
33.36000 10.251
33.38000 4.101
33.40000 4.421
33.42000 7.450
33.44000 7.356
33.46000 6.357
33.48000 4.263
33.50000 4.790
33.52000 1.483
33.54000 -2.992
33.56000 -3.551
33.58000 4.912
33.60000 0.788
33.62000 0.076
33.64000 -0.057
33.66000 -1.520
33.68000 4.683
33.70000 3.443
33.72000 2.488
33.74000 2.485
33.76000 2.996
33.78000 6.130
33.80000 3.428
33.82000 0.311
33.84000 1.225
33.86000 6.345
33.88000 9.344
33.90000 11.941
33.92000 6.208
33.94000 3.573
33.96000 0.501
33.98000 10.961
34.00000 8.802
34.02000 4.833
34.04000 4.656
34.06000 6.570
34.08000 0.576
34.10000 -0.864
34.12000 4.100
34.14000 4.625
34.16000 5.516
34.18000 2.567
34.20000 -0.629
34.22000 2.424
34.24000 2.904
34.26000 2.859
34.28000 8.221
34.30000 9.136
34.32000 0.533
34.34000 -0.712
34.36000 -3.528
34.38000 3.152
34.40000 0.775
34.42000 -0.214
34.44000 5.237
34.46000 7.420
34.48000 5.691
34.50000 3.773
34.52000 1.159
34.54000 3.488
34.56000 2.156
34.58000 6.362
34.60000 6.730
34.62000 3.633
34.64000 1.589
34.66000 1.537
34.68000 0.627
34.70000 -2.971
34.72000 1.085
34.74000 3.303
34.76000 4.091
34.78000 5.330
34.80000 4.521
34.82000 2.911
34.84000 9.766
34.86000 9.850
34.88000 8.389
34.90000 5.336
34.92000 -0.806
34.94000 2.430
34.96000 3.033
34.98000 -2.610
35.00000 1.526
35.02000 5.430
35.04000 5.103
35.06000 6.136
35.08000 4.188
35.10000 -3.499
35.12000 0.135
35.14000 2.673
35.16000 2.948
35.18000 3.483
35.20000 2.596
35.22000 6.036
35.24000 3.974
35.26000 1.363
35.28000 -1.936
35.30000 3.204
35.32000 6.326
35.34000 2.020
35.36000 2.729
35.38000 1.093
35.40000 0.329
35.42000 2.066
35.44000 6.088
35.46000 4.350
35.48000 3.096
35.50000 1.922
35.52000 2.906
35.54000 1.209
35.56000 -2.829
35.58000 1.663
35.60000 6.292
35.62000 5.869
35.64000 1.054
35.66000 2.886
35.68000 1.728
35.70000 0.600
35.72000 2.403
35.74000 3.527
35.76000 5.023
35.78000 4.396
35.80000 2.370
35.82000 -2.600
35.84000 1.880
35.86000 3.962
35.88000 -0.013
35.90000 1.969
35.92000 4.193
35.94000 6.565
35.96000 6.055
35.98000 6.325
36.00000 4.511
36.02000 -0.590
36.04000 -3.434
36.06000 -3.514
36.08000 2.509
36.10000 6.987
36.12000 3.429
36.14000 1.116
36.16000 3.032
36.18000 2.094
36.20000 4.296
36.22000 5.659
36.24000 4.995
36.26000 -0.255
36.28000 2.311
36.30000 -0.395
36.32000 -1.348
36.34000 3.227
36.36000 0.921
36.38000 0.857
36.40000 0.752
36.42000 -0.599
36.44000 0.375
36.46000 3.224
36.48000 3.267
36.50000 4.787
36.52000 0.570
36.54000 0.147
36.56000 -1.516
36.58000 -1.751
36.60000 5.402
36.62000 4.512
36.64000 5.772
36.66000 5.988
36.68000 7.220
36.70000 11.077
36.72000 10.567
36.74000 10.201
36.76000 3.995
36.78000 2.936
36.80000 2.153
36.82000 8.458
36.84000 9.287
36.86000 6.542
36.88000 6.909
36.90000 4.193
36.92000 3.646
36.94000 1.953
36.96000 0.796
36.98000 -3.541
37.00000 -1.062
37.02000 4.882
37.04000 6.536
37.06000 2.396
37.08000 7.883
37.10000 10.166
37.12000 9.269
37.14000 -0.322
37.16000 3.272
37.18000 6.517
37.20000 8.358
37.22000 8.912
37.24000 5.210
37.26000 4.590
37.28000 4.132
37.30000 1.500
37.32000 4.146
37.34000 9.155
37.36000 10.512
37.38000 10.584
37.40000 9.565
37.42000 5.272
37.44000 1.995
37.46000 8.182
37.48000 7.700
37.50000 6.897
37.52000 4.283
37.54000 8.071
37.56000 6.492
37.58000 9.173
37.60000 8.036
37.62000 8.658
37.64000 6.413
37.66000 10.609
37.68000 9.932
37.70000 15.435
37.72000 13.383
37.74000 10.868
37.76000 9.388
37.78000 11.456
37.80000 12.971
37.82000 13.529
37.84000 9.864
37.86000 14.983
37.88000 15.496
37.90000 17.199
37.92000 15.537
37.94000 15.494
37.96000 16.910
37.98000 18.347
38.00000 18.187
38.02000 18.965
38.04000 19.504
38.06000 19.817
38.08000 17.773
38.10000 26.958
38.12000 26.144
38.14000 26.871
38.16000 22.414
38.18000 21.331
38.20000 21.417
38.22000 18.927
38.24000 23.402
38.26000 25.705
38.28000 28.654
38.30000 26.781
38.32000 22.842
38.34000 29.347
38.36000 32.762
38.38000 35.231
38.40000 33.543
38.42000 29.758
38.44000 33.061
38.46000 38.279
38.48000 41.279
38.50000 36.660
38.52000 35.120
38.54000 39.183
38.56000 38.200
38.58000 44.273
38.60000 47.100
38.62000 42.078
38.64000 41.507
38.66000 46.417
38.68000 47.964
38.70000 46.791
38.72000 48.589
38.74000 52.702
38.76000 53.115
38.78000 56.864
38.80000 62.809
38.82000 67.293
38.84000 65.586
38.86000 66.425
38.88000 65.958
38.90000 68.171
38.92000 76.463
38.94000 84.180
38.96000 87.760
38.98000 95.363
39.00000 96.808
39.02000 96.719
39.04000 98.943
39.06000 100.031
39.08000 110.400
39.10000 120.723
39.12000 121.713
39.14000 124.178
39.16000 133.003
39.18000 142.698
39.20000 152.549
39.22000 159.898
39.24000 170.262
39.26000 167.425
39.28000 181.420
39.30000 195.149
39.32000 211.222
39.34000 227.746
39.36000 239.187
39.38000 240.659
39.40000 255.187
39.42000 276.995
39.44000 292.929
39.46000 301.498
39.48000 314.006
39.50000 334.062
39.52000 359.242
39.54000 375.097
39.56000 395.166
39.58000 418.033
39.60000 440.359
39.62000 462.729
39.64000 482.669
39.66000 490.327
39.68000 510.166
39.70000 539.984
39.72000 572.045
39.74000 591.446
39.76000 604.662
39.78000 616.061
39.80000 628.659
39.82000 634.262
39.84000 639.359
39.86000 659.088
39.88000 667.011
39.90000 664.734
39.92000 667.551
39.94000 669.404
39.96000 678.360
39.98000 668.754
40.00000 653.425
40.02000 648.179
40.04000 636.444
40.06000 614.460
40.08000 605.055
40.10000 590.737
40.12000 568.342
40.14000 560.576
40.16000 537.761
40.18000 502.338
40.20000 482.362
40.22000 466.332
40.24000 446.305
40.26000 428.420
40.28000 409.204
40.30000 393.738
40.32000 381.999
40.34000 347.163
40.36000 335.829
40.38000 314.925
40.40000 298.905
40.42000 284.033
40.44000 256.644
40.46000 239.847
40.48000 224.786
40.50000 213.873
40.52000 207.007
40.54000 190.074
40.56000 182.687
40.58000 171.970
40.60000 160.992
40.62000 145.961
40.64000 132.422
40.66000 123.515
40.68000 123.733
40.70000 118.593
40.72000 108.929
40.74000 98.615
40.76000 90.494
40.78000 89.932
40.80000 79.202
40.82000 72.142
40.84000 76.797
40.86000 74.688
40.88000 69.223
40.90000 63.861
40.92000 59.062
40.94000 63.113
40.96000 55.777
40.98000 50.433
41.00000 47.943
41.02000 46.000
41.04000 44.876
41.06000 43.770
41.08000 37.398
41.10000 35.683
41.12000 33.235
41.14000 33.069
41.16000 30.260
41.18000 31.805
41.20000 26.003
41.22000 24.492
41.24000 22.312
41.26000 22.998
41.28000 24.293
41.30000 23.103
41.32000 24.806
41.34000 20.553
41.36000 18.705
41.38000 18.902
41.40000 16.916
41.42000 17.267
41.44000 12.540
41.46000 15.398
41.48000 17.786
41.50000 14.153
41.52000 6.341
41.54000 6.966
41.56000 11.657
41.58000 10.149
41.60000 12.306
41.62000 14.360
41.64000 13.269
41.66000 4.339
41.68000 5.598
41.70000 11.033
41.72000 6.321
41.74000 6.983
41.76000 6.761
41.78000 7.574
41.80000 5.820
41.82000 2.010
41.84000 2.773
41.86000 7.430
41.88000 9.236
41.90000 6.335
41.92000 5.819
41.94000 4.721
41.96000 2.576
41.98000 1.717
42.00000 1.729
42.02000 4.460
42.04000 3.073
42.06000 3.991
42.08000 5.194
42.10000 6.665
42.12000 6.375
42.14000 2.030
42.16000 -0.041
42.18000 1.499
42.20000 0.097
42.22000 2.676
42.24000 3.704
42.26000 1.569
42.28000 0.649
42.30000 2.531
42.32000 -1.491
42.34000 -3.378
42.36000 2.177
42.38000 4.464
42.40000 6.108
42.42000 0.395
42.44000 -2.453
42.46000 0.836
42.48000 1.798
42.50000 0.556
42.52000 2.753
42.54000 5.566
42.56000 4.581
42.58000 3.197
42.60000 2.301
42.62000 1.393
42.64000 -2.015
42.66000 0.839
42.68000 3.710
42.70000 -0.848
42.72000 -2.505
42.74000 0.306
42.76000 2.088
42.78000 1.819
42.80000 1.056
42.82000 2.459
42.84000 3.697
42.86000 2.449
42.88000 2.999
42.90000 -1.390
42.92000 0.623
42.94000 0.527
42.96000 0.401
42.98000 0.674
43.00000 -0.575
43.02000 -3.279
43.04000 -0.592
43.06000 2.990
43.08000 3.446
43.10000 2.594
43.12000 2.214
43.14000 0.815
43.16000 1.840
43.18000 1.812
43.20000 2.085
43.22000 0.876
43.24000 -1.379
43.26000 -1.686
43.28000 -0.665
43.30000 -0.230
43.32000 2.291
43.34000 -0.761
43.36000 -1.630
43.38000 -1.294
43.40000 1.873
43.42000 -1.823
43.44000 -0.196
43.46000 -1.967
43.48000 -0.272
43.50000 0.145
43.52000 2.165
43.54000 2.218
43.56000 0.028
43.58000 -2.466
43.60000 -2.637
43.62000 1.624
43.64000 3.920
43.66000 3.438
43.68000 0.804
43.70000 0.350
43.72000 -3.212
43.74000 0.122
43.76000 2.255
43.78000 5.062
43.80000 -1.653
43.82000 0.617
43.84000 2.096
43.86000 1.360
43.88000 0.020
43.90000 -1.381
43.92000 -0.746
43.94000 -0.766
43.96000 1.645
43.98000 2.966
44.00000 1.743
44.02000 2.691
44.04000 2.880
44.06000 0.574
44.08000 -2.389
44.10000 -2.576
44.12000 1.731
44.14000 4.588
44.16000 4.117
44.18000 4.326
44.20000 -0.362
44.22000 0.698
44.24000 2.230
44.26000 1.155
44.28000 -0.938
44.30000 3.604
44.32000 -2.144
44.34000 -3.179
44.36000 2.031
44.38000 1.391
44.40000 0.086
44.42000 -1.066
44.44000 -2.278
44.46000 -0.741
44.48000 5.326
44.50000 2.144
44.52000 0.530
44.54000 -1.621
44.56000 1.074
44.58000 2.358
44.60000 0.170
44.62000 2.886
44.64000 3.178
44.66000 -0.999
44.68000 -2.421
44.70000 -3.176
44.72000 0.575
44.74000 4.533
44.76000 4.136
44.78000 0.794
44.80000 2.573
44.82000 5.219
44.84000 5.976
44.86000 0.244
44.88000 3.929
44.90000 3.218
44.92000 2.647
44.94000 3.002
44.96000 2.997
44.98000 3.681
45.00000 0.565
45.02000 3.123
45.04000 2.419
45.06000 2.541
45.08000 4.070
45.10000 7.989
45.12000 1.834
45.14000 2.535
45.16000 3.993
45.18000 1.862
45.20000 1.889
45.22000 2.879
45.24000 1.128
45.26000 6.872
45.28000 6.467
45.30000 8.752
45.32000 7.152
45.34000 5.732
45.36000 10.691
45.38000 9.550
45.40000 8.666
45.42000 10.518
45.44000 10.464
45.46000 9.987
45.48000 8.088
45.50000 9.301
45.52000 11.902
45.54000 10.848
45.56000 15.520
45.58000 13.834
45.60000 12.405
45.62000 15.803
45.64000 18.980
45.66000 20.880
45.68000 15.713
45.70000 15.396
45.72000 16.745
45.74000 17.561
45.76000 23.808
45.78000 22.831
45.80000 24.905
45.82000 23.629
45.84000 21.313
45.86000 26.076
45.88000 30.403
45.90000 31.085
45.92000 31.797
45.94000 34.009
45.96000 31.585
45.98000 33.931
46.00000 38.513
46.02000 39.869
46.04000 41.191
46.06000 37.971
46.08000 38.084
46.10000 39.867
46.12000 43.936
46.14000 46.175
46.16000 46.728
46.18000 45.970
46.20000 45.622
46.22000 45.264
46.24000 50.324
46.26000 52.620
46.28000 48.933
46.30000 54.230
46.32000 65.190
46.34000 64.599
46.36000 63.297
46.38000 65.323
46.40000 67.570
46.42000 60.961
46.44000 66.165
46.46000 73.609
46.48000 69.913
46.50000 67.861
46.52000 67.208
46.54000 67.911
46.56000 73.569
46.58000 76.484
46.60000 74.950
46.62000 73.805
46.64000 74.301
46.66000 71.762
46.68000 75.251
46.70000 73.288
46.72000 71.870
46.74000 68.338
46.76000 70.726
46.78000 65.151
46.80000 64.171
46.82000 63.435
46.84000 70.316
46.86000 69.412
46.88000 62.957
46.90000 65.369
46.92000 61.572
46.94000 54.314
46.96000 53.910
46.98000 50.636
47.00000 49.409
47.02000 53.968
47.04000 51.949
47.06000 49.733
47.08000 45.536
47.10000 39.964
47.12000 39.538
47.14000 40.968
47.16000 39.481
47.18000 33.303
47.20000 34.878
47.22000 35.146
47.24000 24.365
47.26000 21.885
47.28000 30.933
47.30000 27.294
47.32000 25.484
47.34000 22.695
47.36000 21.261
47.38000 19.388
47.40000 13.206
47.42000 18.126
47.44000 17.596
47.46000 21.089
47.48000 16.858
47.50000 12.918
47.52000 13.448
47.54000 19.661
47.56000 15.350
47.58000 12.598
47.60000 15.383
47.62000 20.091
47.64000 15.189
47.66000 8.861
47.68000 14.043
47.70000 11.118
47.72000 5.872
47.74000 7.332
47.76000 7.339
47.78000 9.021
47.80000 5.079
47.82000 3.387
47.84000 8.166
47.86000 7.967
47.88000 10.369
47.90000 8.001
47.92000 3.633
47.94000 3.013
47.96000 0.994
47.98000 0.225
48.00000 4.803
48.02000 7.298
48.04000 7.495
48.06000 3.137
48.08000 5.141
48.10000 2.663
48.12000 -1.194
48.14000 1.498
48.16000 0.662
48.18000 1.550
48.20000 1.227
48.22000 1.299
48.24000 4.030
48.26000 2.568
48.28000 -0.919
48.30000 -1.182
48.32000 3.166
48.34000 6.232
48.36000 7.059
48.38000 5.767
48.40000 3.189
48.42000 6.941
48.44000 8.206
48.46000 3.145
48.48000 -2.732
48.50000 -0.646
48.52000 4.488
48.54000 4.691
48.56000 4.406
48.58000 0.901
48.60000 1.552
48.62000 4.226
48.64000 6.692
48.66000 7.135
48.68000 3.337
48.70000 1.856
48.72000 2.643
48.74000 2.534
48.76000 3.065
48.78000 6.865
48.80000 2.729
48.82000 2.183
48.84000 3.201
48.86000 3.372
48.88000 3.197
48.90000 2.285
48.92000 2.806
48.94000 4.757
48.96000 4.649
48.98000 6.148
49.00000 1.439
49.02000 -2.456
49.04000 1.339
49.06000 -2.712
49.08000 -2.223
49.10000 0.520
49.12000 -1.045
49.14000 -1.996
49.16000 0.025
49.18000 0.751
49.20000 1.381
49.22000 0.654
49.24000 3.904
49.26000 6.921
49.28000 4.103
49.30000 1.098
49.32000 3.661
49.34000 0.529
49.36000 -0.428
49.38000 4.271
49.40000 9.194
49.42000 0.921
49.44000 -2.686
49.46000 2.384
49.48000 5.460
49.50000 3.329
49.52000 3.780
49.54000 0.960
49.56000 -1.006
49.58000 0.596
49.60000 4.672
49.62000 5.003
49.64000 2.963
49.66000 -0.238
49.68000 -0.600
49.70000 -0.355
49.72000 4.287
49.74000 5.737
49.76000 3.329
49.78000 -0.681
49.80000 0.370
49.82000 -1.741
49.84000 -2.661
49.86000 1.710
49.88000 3.604
49.90000 1.143
49.92000 3.221
49.94000 3.133
49.96000 -1.954
49.98000 -1.901
50.00000 -0.528
50.02000 0.094
50.04000 -0.157
50.06000 -0.765
50.08000 -1.819
50.10000 -0.170
50.12000 2.004
50.14000 3.690
50.16000 2.706
50.18000 3.057
50.20000 3.558
50.22000 4.373
50.24000 5.249
50.26000 1.924
50.28000 -1.079
50.30000 0.540
50.32000 2.068
50.34000 4.938
50.36000 4.476
50.38000 3.669
50.40000 1.608
50.42000 -0.226
50.44000 4.682
50.46000 4.146
50.48000 4.536
50.50000 4.507
50.52000 3.399
50.54000 2.666
50.56000 2.825
50.58000 -0.951
50.60000 -0.823
50.62000 0.515
50.64000 -1.346
50.66000 2.097
50.68000 2.341
50.70000 2.743
50.72000 0.775
50.74000 -0.189
50.76000 -1.199
50.78000 2.697
50.80000 0.633
50.82000 -2.113
50.84000 -2.600
50.86000 0.537
50.88000 6.539
50.90000 6.285
50.92000 3.922
50.94000 5.393
50.96000 1.029
50.98000 0.090
51.00000 2.078
51.02000 3.559
51.04000 3.167
51.06000 3.796
51.08000 5.641
51.10000 9.111
51.12000 4.240
51.14000 0.327
51.16000 0.920
51.18000 4.022
51.20000 4.161
51.22000 6.557
51.24000 2.438
51.26000 2.607
51.28000 3.168
51.30000 -0.282
51.32000 -0.324
51.34000 0.907
51.36000 1.688
51.38000 1.568
51.40000 2.917
51.42000 3.017
51.44000 1.691
51.46000 4.300
51.48000 1.226
51.50000 0.107
51.52000 1.409
51.54000 2.328
51.56000 2.029
51.58000 -0.482
51.60000 1.616
51.62000 1.952
51.64000 2.455
51.66000 4.510
51.68000 2.919
51.70000 1.862
51.72000 2.952
51.74000 0.663
51.76000 2.418
51.78000 0.600
51.80000 2.103
51.82000 4.700
51.84000 2.600
51.86000 1.972
51.88000 0.433
51.90000 2.975
51.92000 2.082
51.94000 1.629
51.96000 0.574
51.98000 0.228
52.00000 1.789
52.02000 3.597
52.04000 1.233
52.06000 -0.826
52.08000 0.821
52.10000 1.663
52.12000 1.238
52.14000 3.515
52.16000 3.030
52.18000 0.662
52.20000 0.917
52.22000 -1.331
52.24000 -0.341
52.26000 -1.262
52.28000 -1.717
52.30000 0.315
52.32000 -2.078
52.34000 1.681
52.36000 1.795
52.38000 -2.554
52.40000 -0.820
52.42000 1.175
52.44000 5.865
52.46000 4.953
52.48000 2.108
52.50000 3.503
52.52000 7.548
52.54000 5.563
52.56000 0.197
52.58000 -1.721
52.60000 0.835
52.62000 -1.147
52.64000 -0.457
52.66000 6.348
52.68000 7.301
52.70000 3.429
52.72000 -0.332
52.74000 0.510
52.76000 1.056
52.78000 2.347
52.80000 -1.062
52.82000 2.379
52.84000 4.738
52.86000 3.665
52.88000 2.696
52.90000 1.211
52.92000 -0.487
52.94000 -1.201
52.96000 -1.480
52.98000 -0.484
53.00000 -0.628
53.02000 -0.621
53.04000 -2.568
53.06000 0.590
53.08000 -0.479
53.10000 -0.030
53.12000 0.312
53.14000 1.471
53.16000 -0.527
53.18000 2.209
53.20000 2.286
53.22000 -0.685
53.24000 0.276
53.26000 2.005
53.28000 -0.262
53.30000 -1.105
53.32000 -0.089
53.34000 1.182
53.36000 2.579
53.38000 1.031
53.40000 3.416
53.42000 0.199
53.44000 2.158
53.46000 3.280
53.48000 -1.390
53.50000 -1.238
53.52000 4.025
53.54000 1.713
53.56000 0.053
53.58000 -2.010
53.60000 -0.498
53.62000 1.319
53.64000 2.415
53.66000 2.870
53.68000 3.715
53.70000 3.722
53.72000 2.780
53.74000 4.734
53.76000 4.775
53.78000 2.627
53.80000 0.801
53.82000 -2.150
53.84000 -0.492
53.86000 3.765
53.88000 1.997
53.90000 -0.855
53.92000 0.052
53.94000 0.281
53.96000 -1.962
53.98000 -0.020
54.00000 0.329
54.02000 -0.867
54.04000 2.641
54.06000 1.876
54.08000 2.322
54.10000 3.218
54.12000 2.667
54.14000 3.378
54.16000 3.671
54.18000 4.720
54.20000 4.139
54.22000 2.697
54.24000 0.789
54.26000 5.098
54.28000 2.934
54.30000 -1.168
54.32000 2.314
54.34000 2.393
54.36000 2.515
54.38000 3.869
54.40000 3.835
54.42000 2.346
54.44000 2.411
54.46000 1.741
54.48000 -0.368
54.50000 -0.929
54.52000 3.280
54.54000 3.136
54.56000 1.721
54.58000 2.101
54.60000 0.038
54.62000 -2.479
54.64000 1.425
54.66000 6.339
54.68000 3.864
54.70000 5.863
54.72000 5.794
54.74000 5.268
54.76000 2.235
54.78000 2.543
54.80000 -0.791
54.82000 -0.103
54.84000 0.045
54.86000 3.906
54.88000 3.122
54.90000 0.809
54.92000 0.778
54.94000 3.106
54.96000 3.527
54.98000 -0.431
55.00000 1.565
55.02000 2.152
55.04000 2.726
55.06000 5.696
55.08000 4.977
55.10000 1.056
55.12000 3.541
55.14000 3.854
55.16000 0.903
55.18000 0.781
55.20000 3.188
55.22000 2.990
55.24000 4.346
55.26000 1.305
55.28000 -1.241
55.30000 1.916
55.32000 4.009
55.34000 2.742
55.36000 -1.085
55.38000 1.453
55.40000 4.056
55.42000 2.426
55.44000 -1.083
55.46000 0.625
55.48000 5.632
55.50000 0.101
55.52000 -0.750
55.54000 1.016
55.56000 1.461
55.58000 0.502
55.60000 0.829
55.62000 3.076
55.64000 3.614
55.66000 5.567
55.68000 7.597
55.70000 6.913
55.72000 0.574
55.74000 1.627
55.76000 3.597
55.78000 2.904
55.80000 0.175
55.82000 2.676
55.84000 4.400
55.86000 4.453
55.88000 0.139
55.90000 0.175
55.92000 1.757
55.94000 4.228
55.96000 2.303
55.98000 2.894
56.00000 3.381
56.02000 3.651
56.04000 2.726
56.06000 3.616
56.08000 5.961
56.10000 5.554
56.12000 3.602
56.14000 1.094
56.16000 -0.553
56.18000 3.044
56.20000 1.478
56.22000 -2.440
56.24000 1.861
56.26000 0.264
56.28000 5.025
56.30000 3.586
56.32000 -0.430
56.34000 -0.617
56.36000 3.619
56.38000 3.885
56.40000 0.930
56.42000 1.100
56.44000 1.252
56.46000 3.080
56.48000 7.336
56.50000 2.293
56.52000 2.558
56.54000 4.209
56.56000 5.923
56.58000 0.790
56.60000 -1.012
56.62000 1.216
56.64000 0.773
56.66000 2.437
56.68000 3.145
56.70000 4.701
56.72000 9.060
56.74000 2.304
56.76000 0.988
56.78000 2.951
56.80000 2.963
56.82000 -2.363
56.84000 -0.633
56.86000 2.157
56.88000 3.826
56.90000 3.651
56.92000 -0.362
56.94000 0.946
56.96000 2.709
56.98000 5.601
57.00000 3.091
57.02000 3.762
57.04000 2.253
57.06000 3.900
57.08000 6.332
57.10000 3.627
57.12000 0.658
57.14000 4.245
57.16000 1.978
57.18000 4.539
57.20000 4.738
57.22000 1.304
57.24000 4.379
57.26000 4.374
57.28000 3.434
57.30000 2.771
57.32000 3.695
57.34000 0.680
57.36000 2.500
57.38000 1.549
57.40000 1.451
57.42000 3.339
57.44000 4.292
57.46000 2.826
57.48000 2.049
57.50000 2.373
57.52000 3.823
57.54000 7.524
57.56000 8.078
57.58000 4.706
57.60000 1.495
57.62000 2.901
57.64000 5.518
57.66000 6.411
57.68000 1.440
57.70000 0.772
57.72000 4.777
57.74000 3.621
57.76000 4.788
57.78000 0.773
57.80000 -2.387
57.82000 3.257
57.84000 9.154
57.86000 6.282
57.88000 4.103
57.90000 2.162
57.92000 2.992
57.94000 1.691
57.96000 0.893
57.98000 0.197
58.00000 3.707
58.02000 2.798
58.04000 5.047
58.06000 3.544
58.08000 1.525
58.10000 0.106
58.12000 4.373
58.14000 4.004
58.16000 4.739
58.18000 3.351
58.20000 1.869
58.22000 2.031
58.24000 2.910
58.26000 2.377
58.28000 4.451
58.30000 4.820
58.32000 2.620
58.34000 1.482
58.36000 3.667
58.38000 1.604
58.40000 3.072
58.42000 3.880
58.44000 3.414
58.46000 4.548
58.48000 -2.368
58.50000 0.667
58.52000 1.004
58.54000 3.885
58.56000 2.856
58.58000 2.550
58.60000 -0.008
58.62000 2.268
58.64000 4.328
58.66000 1.977
58.68000 0.676
58.70000 2.182
58.72000 4.627
58.74000 2.015
58.76000 1.304
58.78000 2.770
58.80000 2.134
58.82000 -0.407
58.84000 2.684
58.86000 -0.568
58.88000 -1.930
58.90000 2.395
58.92000 2.867
58.94000 2.960
58.96000 1.991
58.98000 1.825
59.00000 2.767
59.02000 2.639
59.04000 3.833
59.06000 2.775
59.08000 1.154
59.10000 -1.472
59.12000 4.725
59.14000 2.405
59.16000 -1.005
59.18000 1.016
59.20000 5.553
59.22000 2.879
59.24000 0.496
59.26000 1.105
59.28000 2.974
59.30000 1.835
59.32000 2.842
59.34000 5.098
59.36000 0.298
59.38000 1.397
59.40000 3.063
59.42000 3.454
59.44000 2.187
59.46000 1.069
59.48000 0.142
59.50000 1.308
59.52000 -0.810
59.54000 -0.843
59.56000 0.272
59.58000 0.590
59.60000 1.747
59.62000 0.181
59.64000 -1.205
59.66000 1.050
59.68000 -2.385
59.70000 -0.588
59.72000 3.350
59.74000 5.264
59.76000 3.525
59.78000 0.696
59.80000 -2.271
59.82000 -2.103
59.84000 1.721
59.86000 1.331
59.88000 -0.429
59.90000 1.798
59.92000 0.677
59.94000 -0.092
59.96000 -0.865
59.98000 3.786
60.00000 1.643
60.02000 0.263
60.04000 3.332
60.06000 0.633
60.08000 1.896
60.10000 3.137
60.12000 5.017
60.14000 1.268
60.16000 0.041
60.18000 -0.701
60.20000 -1.414
60.22000 -0.921
60.24000 -2.141
60.26000 -1.368
60.28000 -0.431
60.30000 1.913
60.32000 1.933
60.34000 0.998
60.36000 -0.136
60.38000 -1.575
60.40000 3.473
60.42000 1.730
60.44000 0.247
60.46000 3.014
60.48000 2.339
60.50000 1.119
60.52000 2.044
60.54000 2.183
60.56000 2.226
60.58000 1.440
60.60000 2.846
60.62000 3.596
60.64000 3.169
60.66000 1.931
60.68000 1.326
60.70000 -1.042
60.72000 1.126
60.74000 1.736
60.76000 3.745
60.78000 1.868
60.80000 4.340
60.82000 3.144
60.84000 0.206
60.86000 -0.093
60.88000 0.902
60.90000 -1.043
60.92000 1.994
60.94000 3.452
60.96000 3.973
60.98000 5.086
61.00000 1.778
61.02000 -2.305
61.04000 -2.304
61.06000 2.752
61.08000 3.708
61.10000 0.640
61.12000 -1.387
61.14000 2.644
61.16000 1.882
61.18000 0.073
61.20000 3.977
61.22000 6.203
61.24000 3.399
61.26000 3.341
61.28000 4.709
61.30000 1.348
61.32000 0.899
61.34000 -2.308
61.36000 1.024
61.38000 1.133
61.40000 0.346
61.42000 1.768
61.44000 -0.809
61.46000 0.097
61.48000 -0.583
61.50000 0.323
61.52000 1.248
61.54000 0.674
61.56000 -1.103
61.58000 2.342
61.60000 2.004
61.62000 3.806
61.64000 1.793
61.66000 1.287
61.68000 2.425
61.70000 1.556
61.72000 4.672
61.74000 3.388
61.76000 0.231
61.78000 0.195
61.80000 1.712
61.82000 2.161
61.84000 2.165
61.86000 1.677
61.88000 3.559
61.90000 6.073
61.92000 2.858
61.94000 1.814
61.96000 3.647
61.98000 1.054
62.00000 3.138
62.02000 1.716
62.04000 0.056
62.06000 -0.686
62.08000 0.449
62.10000 2.792
62.12000 3.714
62.14000 1.275
62.16000 0.611
62.18000 0.814
62.20000 -1.448
62.22000 -2.300
62.24000 -0.438
62.26000 3.781
62.28000 1.767
62.30000 -0.606
62.32000 1.716
62.34000 4.829
62.36000 3.297
62.38000 5.469
62.40000 2.822
62.42000 2.378
62.44000 2.505
62.46000 0.242
62.48000 1.432
62.50000 -2.295
62.52000 2.515
62.54000 3.837
62.56000 3.940
62.58000 4.346
62.60000 2.277
62.62000 1.367
62.64000 0.092
62.66000 3.594
62.68000 3.841
62.70000 1.756
62.72000 1.614
62.74000 2.375
62.76000 -0.125
62.78000 -2.286
62.80000 2.337
62.82000 2.993
62.84000 1.188
62.86000 5.007
62.88000 2.010
62.90000 -0.297
62.92000 2.438
62.94000 1.617
62.96000 5.738
62.98000 1.271
63.00000 0.023
63.02000 -1.478
63.04000 -1.032
63.06000 2.547
63.08000 1.291
63.10000 1.672
63.12000 3.975
63.14000 5.396
63.16000 -0.660
63.18000 0.775
63.20000 -0.501
63.22000 -0.537
63.24000 0.317
63.26000 1.741
63.28000 -0.199
63.30000 -1.766
63.32000 1.888
63.34000 2.264
63.36000 1.450
63.38000 -0.435
63.40000 -0.590
63.42000 0.939
63.44000 -0.797
63.46000 -0.407
63.48000 -0.141
63.50000 0.556
63.52000 0.760
63.54000 0.709
63.56000 0.153
63.58000 0.327
63.60000 0.570
63.62000 1.577
63.64000 2.612
63.66000 1.494
63.68000 0.493
63.70000 1.352
63.72000 0.100
63.74000 2.318
63.76000 2.273
63.78000 1.308
63.80000 1.923
63.82000 2.797
63.84000 3.560
63.86000 2.773
63.88000 2.768
63.90000 2.819
63.92000 1.219
63.94000 3.209
63.96000 2.995
63.98000 1.887
64.00000 1.565
64.02000 2.394
64.04000 -1.835
64.06000 -2.290
64.08000 2.712
64.10000 2.712
64.12000 1.972
64.14000 1.597
64.16000 2.500
64.18000 4.038
64.20000 0.568
64.22000 4.021
64.24000 3.943
64.26000 2.752
64.28000 1.666
64.30000 -0.544
64.32000 2.044
64.34000 1.331
64.36000 0.809
64.38000 1.177
64.40000 1.019
64.42000 1.138
64.44000 2.856
64.46000 2.042
64.48000 1.786
64.50000 -1.972
64.52000 -0.689
64.54000 -1.772
64.56000 -2.302
64.58000 -0.691
64.60000 5.135
64.62000 0.780
64.64000 -1.156
64.66000 0.869
64.68000 4.586
64.70000 2.119
64.72000 1.123
64.74000 -0.889
64.76000 1.923
64.78000 -1.707
64.80000 -0.202
64.82000 2.050
64.84000 3.402
64.86000 4.507
64.88000 1.133
64.90000 0.611
64.92000 -1.470
64.94000 1.031
64.96000 2.159
64.98000 2.242
65.00000 -1.079
65.02000 1.005
65.04000 1.808
65.06000 3.971
65.08000 4.954
65.10000 4.110
65.12000 2.126
65.14000 2.855
65.16000 3.458
65.18000 3.241
65.20000 0.766
65.22000 -0.110
65.24000 1.663
65.26000 2.648
65.28000 4.389
65.30000 3.681
65.32000 0.931
65.34000 -1.906
65.36000 -2.293
65.38000 0.380
65.40000 1.641
65.42000 2.794
65.44000 2.703
65.46000 2.889
65.48000 5.115
65.50000 0.163
65.52000 0.060
65.54000 1.006
65.56000 -0.219
65.58000 1.735
65.60000 2.334
65.62000 -0.645
65.64000 -1.861
65.66000 -0.028
65.68000 0.687
65.70000 -0.567
65.72000 0.917
65.74000 -0.888
65.76000 -0.645
65.78000 0.188
65.80000 1.023
65.82000 -0.518
65.84000 -0.328
65.86000 3.397
65.88000 4.204
65.90000 5.114
65.92000 -1.107
65.94000 0.345
65.96000 -0.519
65.98000 4.670
66.00000 5.381
66.02000 1.974
66.04000 2.846
66.06000 -0.607
66.08000 -0.379
66.10000 -0.355
66.12000 -0.111
66.14000 0.801
66.16000 1.044
66.18000 -0.913
66.20000 0.016
66.22000 0.454
66.24000 0.117
66.26000 3.098
66.28000 2.045
66.30000 2.351
66.32000 1.066
66.34000 -1.233
66.36000 -1.687
66.38000 0.736
66.40000 -2.349
66.42000 0.958
66.44000 2.760
66.46000 0.133
66.48000 4.523
66.50000 6.396
66.52000 6.076
66.54000 1.282
66.56000 1.874
66.58000 2.350
66.60000 1.560
66.62000 -0.072
66.64000 0.587
66.66000 3.372
66.68000 1.753
66.70000 -0.180
66.72000 0.579
66.74000 2.596
66.76000 3.595
66.78000 3.935
66.80000 1.616
66.82000 5.460
66.84000 5.766
66.86000 3.842
66.88000 2.939
66.90000 2.055
66.92000 1.787
66.94000 1.144
66.96000 1.464
66.98000 3.833
67.00000 0.407
67.02000 0.996
67.04000 2.008
67.06000 1.552
67.08000 3.757
67.10000 4.640
67.12000 10.007
67.14000 7.843
67.16000 8.424
67.18000 10.276
67.20000 6.947
67.22000 7.115
67.24000 4.035
67.26000 3.199
67.28000 3.274
67.30000 6.140
67.32000 7.480
67.34000 8.335
67.36000 8.968
67.38000 10.243
67.40000 8.386
67.42000 5.917
67.44000 7.703
67.46000 11.293
67.48000 13.932
67.50000 11.963
67.52000 12.722
67.54000 12.655
67.56000 8.600
67.58000 10.858
67.60000 11.842
67.62000 11.917
67.64000 16.141
67.66000 15.399
67.68000 16.797
67.70000 17.449
67.72000 20.813
67.74000 17.663
67.76000 19.256
67.78000 17.513
67.80000 16.585
67.82000 14.124
67.84000 13.209
67.86000 16.579
67.88000 17.760
67.90000 16.399
67.92000 17.785
67.94000 18.973
67.96000 17.433
67.98000 17.524
68.00000 18.698
68.02000 18.039
68.04000 17.685
68.06000 17.904
68.08000 17.869
68.10000 17.019
68.12000 18.477
68.14000 15.509
68.16000 13.716
68.18000 13.665
68.20000 14.717
68.22000 16.197
68.24000 14.117
68.26000 11.483
68.28000 13.125
68.30000 11.534
68.32000 11.847
68.34000 10.426
68.36000 8.275
68.38000 8.774
68.40000 8.602
68.42000 10.743
68.44000 7.804
68.46000 8.821
68.48000 8.825
68.50000 7.902
68.52000 7.287
68.54000 5.575
68.56000 6.752
68.58000 5.289
68.60000 4.036
68.62000 2.472
68.64000 3.515
68.66000 1.804
68.68000 2.872
68.70000 6.391
68.72000 3.851
68.74000 3.809
68.76000 4.866
68.78000 4.544
68.80000 5.408
68.82000 3.047
68.84000 3.429
68.86000 2.315
68.88000 0.854
68.90000 1.182
68.92000 1.881
68.94000 1.697
68.96000 3.139
68.98000 2.022
69.00000 0.500
69.02000 3.466
69.04000 3.584
69.06000 0.528
69.08000 1.066
69.10000 1.307
69.12000 1.110
69.14000 -2.293
69.16000 -1.698
69.18000 0.920
69.20000 1.100
69.22000 4.682
69.24000 1.878
69.26000 -0.413
69.28000 1.609
69.30000 1.710
69.32000 4.161
69.34000 2.046
69.36000 -0.778
69.38000 -1.726
69.40000 -1.515
69.42000 2.253
69.44000 2.239
69.46000 1.368
69.48000 4.278
69.50000 3.493
69.52000 1.825
69.54000 0.985
69.56000 2.025
69.58000 0.892
69.60000 0.478
69.62000 1.347
69.64000 4.957
69.66000 3.755
69.68000 2.240
69.70000 3.960
69.72000 1.652
69.74000 1.372
69.76000 1.374
69.78000 4.581
69.80000 1.367
69.82000 2.334
69.84000 -1.887
69.86000 1.322
69.88000 -0.664
69.90000 -0.252
69.92000 0.157
69.94000 0.577
69.96000 0.181
69.98000 -1.185
70.00000 -0.930
70.02000 -0.942
70.04000 -2.205
70.06000 -1.147
70.08000 2.261
70.10000 4.248
70.12000 4.621
70.14000 4.298
70.16000 1.915
70.18000 0.843
70.20000 2.006
70.22000 4.174
70.24000 0.649
70.26000 1.020
70.28000 3.667
70.30000 4.868
70.32000 5.439
70.34000 0.339
70.36000 -0.716
70.38000 2.380
70.40000 1.892
70.42000 0.570
70.44000 0.178
70.46000 2.982
70.48000 2.661
70.50000 0.342
70.52000 1.052
70.54000 3.298
70.56000 1.320
70.58000 0.855
70.60000 1.571
70.62000 3.318
70.64000 5.405
70.66000 1.373
70.68000 3.289
70.70000 3.528
70.72000 3.094
70.74000 2.901
70.76000 1.154
70.78000 -0.234
70.80000 -1.987
70.82000 -2.200
70.84000 0.032
70.86000 3.584
70.88000 0.653
70.90000 0.171
70.92000 2.610
70.94000 1.252
70.96000 2.759
70.98000 4.448
71.00000 3.803
71.02000 -0.383
71.04000 2.567
71.06000 1.235
71.08000 0.804
71.10000 1.200
71.12000 2.538
71.14000 1.821
71.16000 1.509
71.18000 -1.024
71.20000 1.258
71.22000 3.686
71.24000 3.164
71.26000 2.160
71.28000 3.050
71.30000 1.287
71.32000 3.642
71.34000 7.659
71.36000 4.216
71.38000 1.417
71.40000 2.426
71.42000 0.786
71.44000 0.604
71.46000 3.134
71.48000 3.949
71.50000 6.079
71.52000 3.341
71.54000 -0.585
71.56000 0.405
71.58000 1.030
71.60000 1.027
71.62000 4.305
71.64000 3.490
71.66000 -2.140
71.68000 1.013
71.70000 -1.307
71.72000 2.090
71.74000 3.001
71.76000 2.620
71.78000 7.046
71.80000 1.085
71.82000 -0.386
71.84000 1.855
71.86000 4.118
71.88000 2.883
71.90000 3.805
71.92000 3.948
71.94000 7.137
71.96000 4.797
71.98000 5.400
72.00000 4.608
72.02000 3.107
72.04000 5.263
72.06000 2.348
72.08000 0.138
72.10000 -0.299
72.12000 -0.307
72.14000 1.281
72.16000 0.616
72.18000 0.514
72.20000 5.142
72.22000 7.806
72.24000 5.066
72.26000 -0.292
72.28000 4.138
72.30000 2.879
72.32000 1.434
72.34000 1.063
72.36000 2.492
72.38000 0.693
72.40000 -0.222
72.42000 1.006
72.44000 -0.600
72.46000 0.931
72.48000 2.444
72.50000 4.936
72.52000 2.155
72.54000 -0.289
72.56000 -1.829
72.58000 -2.149
72.60000 0.126
72.62000 -0.103
72.64000 1.476
72.66000 0.162
72.68000 -0.177
72.70000 1.749
72.72000 2.546
72.74000 1.650
72.76000 -1.706
72.78000 -0.430
72.80000 3.321
72.82000 -0.136
72.84000 1.148
72.86000 2.539
72.88000 -1.203
72.90000 -0.248
72.92000 0.748
72.94000 2.233
72.96000 0.457
72.98000 0.302
73.00000 1.084
73.02000 0.121
73.04000 2.933
73.06000 1.870
73.08000 3.139
73.10000 2.869
73.12000 2.852
73.14000 3.019
73.16000 -1.137
73.18000 -0.633
73.20000 2.010
73.22000 0.775
73.24000 -0.108
73.26000 0.755
73.28000 3.621
73.30000 3.352
73.32000 4.629
73.34000 3.111
73.36000 1.762
73.38000 1.277
73.40000 0.052
73.42000 2.017
73.44000 1.868
73.46000 -1.921
73.48000 -2.134
73.50000 -0.687
73.52000 1.457
73.54000 2.564
73.56000 1.272
73.58000 0.523
73.60000 2.267
73.62000 1.093
73.64000 1.509
73.66000 0.602
73.68000 -1.119
73.70000 1.905
73.72000 3.033
73.74000 3.062
73.76000 2.240
73.78000 1.052
73.80000 -0.431
73.82000 -0.047
73.84000 4.619
73.86000 3.437
73.88000 1.225
73.90000 1.909
73.92000 0.055
73.94000 0.082
73.96000 0.443
73.98000 1.318
74.00000 -1.624
74.02000 -0.763
74.04000 0.088
74.06000 1.290
74.08000 0.515
74.10000 -0.699
74.12000 -2.109
74.14000 -1.465
74.16000 2.045
74.18000 -0.257
74.20000 0.796
74.22000 2.273
74.24000 2.275
74.26000 0.824
74.28000 2.830
74.30000 1.934
74.32000 2.281
74.34000 2.422
74.36000 0.026
74.38000 -1.743
74.40000 1.931
74.42000 1.011
74.44000 1.406
74.46000 1.529
74.48000 1.802
74.50000 0.296
74.52000 1.005
74.54000 1.647
74.56000 1.478
74.58000 -1.215
74.60000 -1.914
74.62000 -2.117
74.64000 4.410
74.66000 2.279
74.68000 0.094
74.70000 1.348
74.72000 5.758
74.74000 2.277
74.76000 3.882
74.78000 2.817
74.80000 1.348
74.82000 3.222
74.84000 0.674
74.86000 1.940
74.88000 0.412
74.90000 0.749
74.92000 -0.599
74.94000 -2.119
74.96000 -1.057
74.98000 0.275
75.00000 1.605
75.02000 1.866
75.04000 1.158
75.06000 3.639
75.08000 4.586
75.10000 4.554
75.12000 0.831
75.14000 3.159
75.16000 5.400
75.18000 2.334
75.20000 4.017
75.22000 0.415
75.24000 0.033
75.26000 0.218
75.28000 0.131
75.30000 0.264
75.32000 1.722
75.34000 0.019
75.36000 -0.904
75.38000 5.067
75.40000 4.265
75.42000 2.457
75.44000 0.045
75.46000 1.903
75.48000 0.752
75.50000 2.614
75.52000 0.747
75.54000 1.932
75.56000 3.408
75.58000 3.349
75.60000 2.305
75.62000 0.853
75.64000 1.289
75.66000 0.932
75.68000 3.003
75.70000 4.349
75.72000 0.124
75.74000 -1.794
75.76000 -2.123
75.78000 1.568
75.80000 -0.314
75.82000 3.566
75.84000 1.540
75.86000 1.304
75.88000 0.250
75.90000 0.358
75.92000 2.108
75.94000 3.948
75.96000 1.990
75.98000 3.372
76.00000 0.750
76.02000 -0.247
76.04000 0.624
76.06000 0.917
76.08000 3.598
76.10000 6.103
76.12000 0.858
76.14000 0.592
76.16000 2.459
76.18000 2.776
76.20000 4.567
76.22000 -0.549
76.24000 -1.931
76.26000 2.349
76.28000 3.278
76.30000 2.494
76.32000 2.893
76.34000 3.175
76.36000 0.952
76.38000 3.883
76.40000 5.697
76.42000 6.030
76.44000 7.246
76.46000 4.889
76.48000 3.168
76.50000 0.742
76.52000 -0.487
76.54000 -0.088
76.56000 2.307
76.58000 4.794
76.60000 3.490
76.62000 5.987
76.64000 4.736
76.66000 4.247
76.68000 6.158
76.70000 4.645
76.72000 0.859
76.74000 -2.102
76.76000 0.123
76.78000 3.089
76.80000 1.661
76.82000 2.585
76.84000 5.967
76.86000 5.785
76.88000 7.635
76.90000 4.193
76.92000 4.008
76.94000 4.190
76.96000 2.683
76.98000 6.743
77.00000 4.372
77.02000 0.280
77.04000 2.474
77.06000 1.514
77.08000 0.627
77.10000 1.972
77.12000 1.208
77.14000 2.640
77.16000 2.983
77.18000 3.566
77.20000 2.791
77.22000 1.317
77.24000 3.212
77.26000 4.353
77.28000 3.777
77.30000 1.344
77.32000 0.224
77.34000 0.437
77.36000 3.180
77.38000 -0.713
77.40000 -0.722
77.42000 2.624
77.44000 4.109
77.46000 3.367
77.48000 3.225
77.50000 4.472
77.52000 1.960
77.54000 -0.151
77.56000 3.515
77.58000 2.375
77.60000 -2.141
77.62000 -0.185
77.64000 3.174
77.66000 2.831
77.68000 4.358
77.70000 3.593
77.72000 1.483
77.74000 2.609
77.76000 2.556
77.78000 4.368
77.80000 5.658
77.82000 3.153
77.84000 0.263
77.86000 1.240
77.88000 0.065
77.90000 1.656
77.92000 2.712
77.94000 1.415
77.96000 0.658
77.98000 -0.108
78.00000 0.249
78.02000 1.965
78.04000 0.497
78.06000 0.480
78.08000 1.912
78.10000 0.053
78.12000 2.628
78.14000 1.051
78.16000 0.270
78.18000 3.068
78.20000 3.050
78.22000 1.397
78.24000 1.385
78.26000 2.991
78.28000 3.960
78.30000 4.316
78.32000 2.263
78.34000 2.523
78.36000 3.945
78.38000 4.758
78.40000 5.356
78.42000 3.218
78.44000 2.210
78.46000 3.748
78.48000 2.143
78.50000 -0.604
78.52000 1.555
78.54000 6.533
78.56000 5.226
78.58000 6.427
78.60000 4.286
78.62000 -1.938
78.64000 -2.142
78.66000 3.292
78.68000 3.791
78.70000 0.384
78.72000 5.116
78.74000 4.560
78.76000 2.871
78.78000 5.916
78.80000 5.097
78.82000 5.197
78.84000 3.918
78.86000 1.823
78.88000 2.524
78.90000 2.649
78.92000 3.421
78.94000 3.599
78.96000 6.293
78.98000 5.727
79.00000 2.084
79.02000 3.702
79.04000 4.317
79.06000 1.517
79.08000 0.609
79.10000 1.673
79.12000 5.873
79.14000 9.831
79.16000 6.609
79.18000 2.716
79.20000 2.855
79.22000 3.021
79.24000 3.594
79.26000 2.539
79.28000 3.610
79.30000 2.491
79.32000 2.161
79.34000 1.240
79.36000 -0.563
79.38000 -1.657
79.40000 -2.165
79.42000 -1.468
79.44000 4.543
79.46000 4.269
79.48000 7.527
79.50000 5.549
79.52000 4.795
79.54000 5.232
79.56000 3.779
79.58000 5.679
79.60000 4.212
79.62000 2.329
79.64000 1.453
79.66000 2.634
79.68000 4.967
79.70000 2.697
79.72000 1.280
79.74000 4.459
79.76000 4.564
79.78000 4.287
79.80000 1.904
79.82000 -0.248
79.84000 0.485
79.86000 2.100
79.88000 1.964
79.90000 3.026
79.92000 5.736
79.94000 4.873
79.96000 4.874
79.98000 4.341
80.00000 2.285
80.02000 3.083
80.04000 -1.369
80.06000 -0.903
80.08000 3.469
80.10000 3.993
80.12000 1.809
80.14000 2.919
80.16000 4.537
80.18000 4.058
80.20000 2.393
80.22000 1.986
80.24000 2.497
80.26000 2.694
80.28000 -0.182
80.30000 2.553
80.32000 5.121
80.34000 2.317
80.36000 2.907
80.38000 1.480
80.40000 -1.259
80.42000 -0.049
80.44000 4.955
80.46000 7.703
80.48000 7.890
80.50000 4.895
80.52000 5.356
80.54000 2.804
80.56000 3.535
80.58000 -2.314
80.60000 2.258
80.62000 6.681
80.64000 5.457
80.66000 2.577
80.68000 2.875
80.70000 4.755
80.72000 5.346
80.74000 4.967
80.76000 5.759
80.78000 7.251
80.80000 8.103
80.82000 9.441
80.84000 11.236
80.86000 10.836
80.88000 8.080
80.90000 4.829
80.92000 3.603
80.94000 7.776
80.96000 11.001
80.98000 10.937
81.00000 11.149
81.02000 8.495
81.04000 7.514
81.06000 10.349
81.08000 11.244
81.10000 7.962
81.12000 6.649
81.14000 8.156
81.16000 8.868
81.18000 11.715
81.20000 15.283
81.22000 12.806
81.24000 9.601
81.26000 8.912
81.28000 14.023
81.30000 13.299
81.32000 10.537
81.34000 12.041
81.36000 13.936
81.38000 19.296
81.40000 25.018
81.42000 20.923
81.44000 21.727
81.46000 23.673
81.48000 23.400
81.50000 21.677
81.52000 18.862
81.54000 18.685
81.56000 20.670
81.58000 16.779
81.60000 19.744
81.62000 21.825
81.64000 21.571
81.66000 17.838
81.68000 22.834
81.70000 25.761
81.72000 25.565
81.74000 21.228
81.76000 24.780
81.78000 26.170
81.80000 23.988
81.82000 25.749
81.84000 27.202
81.86000 26.857
81.88000 22.260
81.90000 28.996
81.92000 32.832
81.94000 33.530
81.96000 27.770
81.98000 28.384
82.00000 22.592
82.02000 24.416
82.04000 23.863
82.06000 25.716
82.08000 26.362
82.10000 25.225
82.12000 20.664
82.14000 17.062
82.16000 20.670
82.18000 27.237
82.20000 24.838
82.22000 24.195
82.24000 22.513
82.26000 18.132
82.28000 19.171
82.30000 20.405
82.32000 22.878
82.34000 25.324
82.36000 25.202
82.38000 16.491
82.40000 16.047
82.42000 13.984
82.44000 16.365
82.46000 16.053
82.48000 16.013
82.50000 14.932
82.52000 15.490
82.54000 14.551
82.56000 12.171
82.58000 13.430
82.60000 11.264
82.62000 10.889
82.64000 8.176
82.66000 9.378
82.68000 12.191
82.70000 7.305
82.72000 8.257
82.74000 7.552
82.76000 8.700
82.78000 10.537
82.80000 13.072
82.82000 11.276
82.84000 6.654
82.86000 8.669
82.88000 6.052
82.90000 3.106
82.92000 5.001
82.94000 5.803
82.96000 7.969
82.98000 9.843
83.00000 8.505
83.02000 6.113
83.04000 2.726
83.06000 5.555
83.08000 6.141
83.10000 8.950
83.12000 7.301
83.14000 5.703
83.16000 1.715
83.18000 -0.652
83.20000 3.837
83.22000 1.326
83.24000 3.117
83.26000 1.255
83.28000 3.473
83.30000 5.968
83.32000 6.410
83.34000 5.415
83.36000 2.748
83.38000 1.874
83.40000 3.184
83.42000 3.252
83.44000 2.145
83.46000 1.269
83.48000 2.732
83.50000 2.537
83.52000 2.697
83.54000 2.218
83.56000 0.601
83.58000 0.364
83.60000 0.206
83.62000 1.855
83.64000 3.902
83.66000 1.703
83.68000 5.093
83.70000 2.225
83.72000 -2.274
83.74000 -0.570
83.76000 0.952
83.78000 0.243
83.80000 3.094
83.82000 3.787
83.84000 0.836
83.86000 -0.249
83.88000 3.642
83.90000 2.518
83.92000 0.177
83.94000 3.146
83.96000 6.745
83.98000 4.787
84.00000 1.193
84.02000 -0.948
84.04000 -0.344
84.06000 1.759
84.08000 3.076
84.10000 0.034
84.12000 -0.398
84.14000 -1.591
84.16000 4.347
84.18000 8.146
84.20000 6.128
84.22000 4.608
84.24000 0.676
84.26000 3.558
84.28000 -0.476
84.30000 -2.267
84.32000 -1.347
84.34000 -1.584
84.36000 1.201
84.38000 4.505
84.40000 3.788
84.42000 2.679
84.44000 4.784
84.46000 2.964
84.48000 -1.200
84.50000 1.903
84.52000 1.568
84.54000 2.127
84.56000 0.826
84.58000 -2.020
84.60000 2.152
84.62000 2.446
84.64000 -2.288
84.66000 -0.915
84.68000 -1.850
84.70000 -2.215
84.72000 0.602
84.74000 -0.450
84.76000 0.479
84.78000 3.717
84.80000 1.669
84.82000 1.802
84.84000 2.409
84.86000 -0.467
84.88000 2.624
84.90000 5.582
84.92000 4.918
84.94000 5.725
84.96000 5.588
84.98000 4.208
85.00000 1.601
85.02000 1.959
85.04000 2.080
85.06000 3.114
85.08000 0.217
85.10000 2.612
85.12000 3.878
85.14000 1.759
85.16000 2.726
85.18000 4.822
85.20000 5.569
85.22000 8.600
85.24000 6.997
85.26000 4.181
85.28000 1.567
85.30000 3.541
85.32000 7.688
85.34000 11.789
85.36000 9.687
85.38000 11.683
85.40000 10.109
85.42000 3.958
85.44000 3.604
85.46000 8.071
85.48000 8.576
85.50000 11.120
85.52000 15.701
85.54000 13.265
85.56000 8.736
85.58000 10.535
85.60000 12.448
85.62000 11.231
85.64000 13.363
85.66000 12.031
85.68000 11.614
85.70000 14.322
85.72000 17.202
85.74000 17.834
85.76000 17.683
85.78000 17.847
85.80000 19.262
85.82000 21.963
85.84000 21.594
85.86000 18.288
85.88000 20.756
85.90000 18.836
85.92000 18.190
85.94000 16.965
85.96000 16.673
85.98000 22.691
86.00000 22.646
86.02000 16.784
86.04000 13.510
86.06000 17.382
86.08000 18.017
86.10000 18.078
86.12000 18.161
86.14000 20.855
86.16000 21.425
86.18000 20.216
86.20000 22.237
86.22000 19.399
86.24000 18.659
86.26000 18.447
86.28000 15.855
86.30000 15.008
86.32000 15.400
86.34000 11.841
86.36000 12.544
86.38000 17.146
86.40000 16.238
86.42000 10.434
86.44000 16.568
86.46000 22.695
86.48000 18.628
86.50000 17.838
86.52000 15.017
86.54000 12.909
86.56000 10.411
86.58000 9.905
86.60000 13.368
86.62000 13.303
86.64000 5.216
86.66000 11.360
86.68000 10.318
86.70000 11.473
86.72000 11.632
86.74000 5.983
86.76000 7.976
86.78000 8.495
86.80000 8.037
86.82000 10.504
86.84000 6.848
86.86000 1.859
86.88000 4.591
86.90000 3.837
86.92000 4.837
86.94000 3.439
86.96000 2.982
86.98000 1.043
87.00000 -0.182
87.02000 3.049
87.04000 6.319
87.06000 1.226
87.08000 2.260
87.10000 4.877
87.12000 5.445
87.14000 4.309
87.16000 6.248
87.18000 4.508
87.20000 4.803
87.22000 5.225
87.24000 2.250
87.26000 2.296
87.28000 2.190
87.30000 3.119
87.32000 2.830
87.34000 4.731
87.36000 2.792
87.38000 2.173
87.40000 1.735
87.42000 0.649
87.44000 2.084
87.46000 0.678
87.48000 -0.370
87.50000 1.868
87.52000 -0.096
87.54000 1.581
87.56000 -1.789
87.58000 -0.380
87.60000 -0.335
87.62000 -1.681
87.64000 1.121
87.66000 0.218
87.68000 0.158
87.70000 5.582
87.72000 4.328
87.74000 1.563
87.76000 4.336
87.78000 2.984
87.80000 0.589
87.82000 -2.057
87.84000 -2.070
87.86000 1.449
87.88000 4.118
87.90000 4.090
87.92000 0.098
87.94000 -0.467
87.96000 -0.007
87.98000 -0.370
88.00000 0.667
88.02000 0.968
88.04000 2.016
88.06000 -0.393
88.08000 0.142
88.10000 1.298
88.12000 0.398
88.14000 1.829
88.16000 2.898
88.18000 2.410
88.20000 2.392
88.22000 4.683
88.24000 2.792
88.26000 1.496
88.28000 3.943
88.30000 3.197
88.32000 2.476
88.34000 2.444
88.36000 0.594
88.38000 0.829
88.40000 6.784
88.42000 2.354
88.44000 2.933
88.46000 2.534
88.48000 3.423
88.50000 1.866
88.52000 1.104
88.54000 0.178
88.56000 1.642
88.58000 -1.995
88.60000 -0.267
88.62000 -0.916
88.64000 0.871
88.66000 5.900
88.68000 4.468
88.70000 6.212
88.72000 5.056
88.74000 5.316
88.76000 0.779
88.78000 3.426
88.80000 3.183
88.82000 2.866
88.84000 2.852
88.86000 5.226
88.88000 4.954
88.90000 2.947
88.92000 1.103
88.94000 -1.740
88.96000 4.494
88.98000 8.760
89.00000 4.721
89.02000 3.669
89.04000 4.333
89.06000 5.655
89.08000 7.050
89.10000 2.110
89.12000 -0.606
89.14000 -1.744
89.16000 2.916
89.18000 1.826
89.20000 0.362
89.22000 1.838
89.24000 1.998
89.26000 4.300
89.28000 1.934
89.30000 3.534
89.32000 -0.639
89.34000 0.071
89.36000 1.833
89.38000 3.935
89.40000 5.842
89.42000 2.917
89.44000 -1.681
89.46000 -0.271
89.48000 0.283
89.50000 2.619
89.52000 4.225
89.54000 0.296
89.56000 1.345
89.58000 -0.414
89.60000 -0.128
89.62000 0.417
89.64000 -1.674
89.66000 0.844
89.68000 1.313
89.70000 1.590
89.72000 -1.690
89.74000 0.791
89.76000 4.703
89.78000 3.225
89.80000 3.013
89.82000 4.787
89.84000 5.650
89.86000 0.880
89.88000 -1.986
89.90000 2.132
89.92000 2.863
89.94000 2.796
89.96000 0.796
89.98000 1.430
90.00000 3.480
90.02000 3.042
90.04000 1.864
90.06000 2.401
90.08000 4.396
90.10000 4.380
90.12000 2.204
90.14000 3.285
90.16000 3.642
90.18000 3.656
90.20000 0.034
90.22000 0.883
90.24000 0.603
90.26000 1.275
90.28000 7.376
90.30000 6.144
90.32000 4.528
90.34000 0.806
90.36000 4.290
90.38000 -0.809
90.40000 -1.974
90.42000 1.064
90.44000 4.410
90.46000 0.970
90.48000 1.068
90.50000 3.288
90.52000 2.916
90.54000 4.773
90.56000 3.075
90.58000 6.164
90.60000 6.950
90.62000 3.939
90.64000 3.712
90.66000 4.005
90.68000 1.796
90.70000 2.967
90.72000 1.980
90.74000 5.802
90.76000 6.131
90.78000 2.656
90.80000 1.073
90.82000 0.199
90.84000 4.272
90.86000 3.154
90.88000 1.524
90.90000 1.782
90.92000 2.136
90.94000 -1.130
90.96000 0.244
90.98000 1.269
91.00000 -1.376
91.02000 -0.135
91.04000 0.888
91.06000 2.135
91.08000 2.010
91.10000 3.644
91.12000 1.218
91.14000 -1.930
91.16000 -0.209
91.18000 3.782
91.20000 2.810
91.22000 4.947
91.24000 2.649
91.26000 2.007
91.28000 4.193
91.30000 2.893
91.32000 0.482
91.34000 2.306
91.36000 4.202
91.38000 2.764
91.40000 1.198
91.42000 2.089
91.44000 2.256
91.46000 0.234
91.48000 -1.686
91.50000 1.489
91.52000 0.483
91.54000 -0.128
91.56000 4.758
91.58000 2.722
91.60000 0.149
91.62000 -0.511
91.64000 1.655
91.66000 4.621
91.68000 2.050
91.70000 -0.578
91.72000 -1.111
91.74000 -0.142
91.76000 -0.643
91.78000 0.013
91.80000 3.943
91.82000 3.788
91.84000 1.272
91.86000 0.399
91.88000 1.912
91.90000 1.980
91.92000 4.210
91.94000 0.419
91.96000 1.532
91.98000 -0.045
92.00000 -0.866
92.02000 -1.397
92.04000 0.152
92.06000 2.857
92.08000 -0.075
92.10000 -1.503
92.12000 0.050
92.14000 -2.010
92.16000 2.624
92.18000 1.380
92.20000 1.972
92.22000 0.975
92.24000 1.949
92.26000 2.449
92.28000 2.733
92.30000 1.734
92.32000 2.558
92.34000 3.978
92.36000 1.322
92.38000 4.944
92.40000 1.704
92.42000 -1.823
92.44000 2.195
92.46000 -0.129
92.48000 3.997
92.50000 2.835
92.52000 0.880
92.54000 1.995
92.56000 1.967
92.58000 0.622
92.60000 1.029
92.62000 1.908
92.64000 0.136
92.66000 2.926
92.68000 3.610
92.70000 7.797
92.72000 6.321
92.74000 4.416
92.76000 0.138
92.78000 2.381
92.80000 -0.859
92.82000 -1.530
92.84000 -0.830
92.86000 3.586
92.88000 6.051
92.90000 4.217
92.92000 7.137
92.94000 4.287
92.96000 1.105
92.98000 -1.514
93.00000 -0.239
93.02000 1.248
93.04000 4.031
93.06000 3.130
93.08000 2.104
93.10000 4.042
93.12000 0.921
93.14000 1.359
93.16000 1.105
93.18000 3.203
93.20000 3.721
93.22000 0.973
93.24000 6.365
93.26000 6.973
93.28000 3.053
93.30000 2.260
93.32000 4.807
93.34000 2.909
93.36000 0.827
93.38000 -1.979
93.40000 1.763
93.42000 5.073
93.44000 4.846
93.46000 4.338
93.48000 4.238
93.50000 4.313
93.52000 0.928
93.54000 0.261
93.56000 3.933
93.58000 2.352
93.60000 0.346
93.62000 -0.433
93.64000 3.335
93.66000 4.074
93.68000 5.994
93.70000 5.543
93.72000 4.418
93.74000 5.452
93.76000 2.837
93.78000 3.409
93.80000 5.417
93.82000 2.780
93.84000 3.831
93.86000 2.649
93.88000 2.645
93.90000 3.437
93.92000 1.132
93.94000 -0.838
93.96000 1.291
93.98000 4.669
94.00000 5.543
94.02000 4.546
94.04000 5.040
94.06000 3.578
94.08000 5.883
94.10000 6.350
94.12000 3.654
94.14000 3.032
94.16000 4.306
94.18000 8.797
94.20000 10.290
94.22000 5.877
94.24000 3.499
94.26000 3.053
94.28000 -1.260
94.30000 1.689
94.32000 4.501
94.34000 6.232
94.36000 7.461
94.38000 0.477
94.40000 -1.977
94.42000 0.629
94.44000 2.824
94.46000 -0.292
94.48000 1.411
94.50000 5.185
94.52000 2.393
94.54000 1.251
94.56000 3.560
94.58000 1.666
94.60000 0.312
94.62000 1.256
94.64000 3.870
94.66000 2.647
94.68000 2.466
94.70000 -1.995
94.72000 -1.049
94.74000 0.499
94.76000 3.320
94.78000 4.523
94.80000 1.308
94.82000 2.137
94.84000 1.228
94.86000 2.150
94.88000 1.755
94.90000 3.197
94.92000 6.481
94.94000 2.546
94.96000 2.277
94.98000 5.172
95.00000 3.182
95.02000 4.198
95.04000 4.324
95.06000 5.789
95.08000 6.338
95.10000 4.666
95.12000 7.411
95.14000 9.597
95.16000 5.137
95.18000 4.696
95.20000 0.672
95.22000 1.087
95.24000 3.809
95.26000 5.997
95.28000 2.614
95.30000 1.889
95.32000 1.508
95.34000 -1.123
95.36000 4.207
95.38000 5.111
95.40000 5.307
95.42000 5.344
95.44000 2.403
95.46000 4.619
95.48000 6.420
95.50000 6.601
95.52000 4.212
95.54000 3.690
95.56000 4.472
95.58000 5.888
95.60000 3.882
95.62000 1.874
95.64000 1.281
95.66000 5.441
95.68000 6.086
95.70000 3.104
95.72000 6.006
95.74000 3.163
95.76000 3.400
95.78000 1.636
95.80000 5.395
95.82000 6.126
95.84000 2.550
95.86000 1.583
95.88000 4.334
95.90000 7.883
95.92000 6.789
95.94000 3.338
95.96000 4.066
95.98000 2.851
96.00000 6.878
96.02000 4.152
96.04000 1.469
96.06000 1.673
96.08000 -2.010
96.10000 -1.184
96.12000 -0.512
96.14000 2.880
96.16000 1.361
96.18000 -1.875
96.20000 -0.055
96.22000 0.175
96.24000 -1.290
96.26000 1.972
96.28000 4.591
96.30000 5.370
96.32000 1.444
96.34000 1.890
96.36000 1.169
96.38000 -0.376
96.40000 -1.134
96.42000 0.781
96.44000 1.204
96.46000 4.639
96.48000 -0.932
96.50000 4.016
96.52000 4.300
96.54000 9.095
96.56000 5.697
96.58000 3.067
96.60000 4.071
96.62000 1.233
96.64000 3.107
96.66000 2.486
96.68000 2.639
96.70000 5.773
96.72000 7.734
96.74000 9.237
96.76000 8.668
96.78000 3.050
96.80000 1.527
96.82000 1.647
96.84000 1.719
96.86000 3.887
96.88000 1.168
96.90000 3.671
96.92000 2.544
96.94000 0.271
96.96000 3.226
96.98000 2.592
97.00000 4.450
97.02000 4.822
97.04000 0.555
97.06000 4.595
97.08000 3.361
97.10000 4.010
97.12000 3.104
97.14000 3.689
97.16000 4.480
97.18000 1.104
97.20000 1.725
97.22000 2.209
97.24000 4.143
97.26000 4.836
97.28000 -0.434
97.30000 0.743
97.32000 1.737
97.34000 8.072
97.36000 6.226
97.38000 6.767
97.40000 3.278
97.42000 0.244
97.44000 -1.008
97.46000 4.301
97.48000 9.541
97.50000 6.917
97.52000 7.251
97.54000 7.393
97.56000 6.574
97.58000 3.182
97.60000 0.372
97.62000 1.381
97.64000 6.552
97.66000 6.915
97.68000 3.637
97.70000 2.589
97.72000 0.484
97.74000 6.580
97.76000 5.813
97.78000 2.729
97.80000 -0.523
97.82000 2.842
97.84000 4.191
97.86000 1.890
97.88000 4.204
97.90000 3.900
97.92000 0.334
97.94000 -1.983
97.96000 2.784
97.98000 1.973
98.00000 8.050
98.02000 6.530
98.04000 8.777
98.06000 8.674
98.08000 5.449
98.10000 4.005
98.12000 3.961
98.14000 3.798
98.16000 0.869
98.18000 2.995
98.20000 -0.446
98.22000 2.293
98.24000 3.311
98.26000 2.051
98.28000 6.725
98.30000 8.208
98.32000 8.959
98.34000 1.876
98.36000 7.063
98.38000 1.152
98.40000 4.805
98.42000 11.453
98.44000 0.014
98.46000 2.603
98.48000 8.760
98.50000 2.994
98.52000 -1.073
98.54000 3.289
98.56000 5.271
98.58000 4.129
98.60000 -1.961
98.62000 1.439
98.64000 5.636
98.66000 9.568
98.68000 12.792
98.70000 3.970
98.72000 3.242
98.74000 4.940
98.76000 7.397
98.78000 5.174
98.80000 -2.278
98.82000 4.955
98.84000 6.672
98.86000 5.123
98.88000 2.773
98.90000 5.034
98.92000 -0.452
98.94000 4.409
98.96000 3.808
98.98000 2.476
99.00000 0.071
99.02000 5.962
99.04000 12.508
99.06000 4.711
99.08000 4.898
99.10000 7.267
99.12000 4.370
99.14000 3.629
99.16000 5.117
99.18000 8.831
99.20000 4.548
99.22000 2.471
99.24000 5.589
99.26000 5.329
99.28000 3.713
99.30000 -1.836
99.32000 5.008
99.34000 5.199
99.36000 -3.698
99.38000 4.731
99.40000 5.214
99.42000 5.191
99.44000 9.348
99.46000 5.731
99.48000 4.586
99.50000 4.784
99.52000 3.974
99.54000 -1.794
99.56000 6.398
99.58000 2.473
99.60000 2.436
99.62000 0.153
99.64000 -2.059
99.66000 0.022
99.68000 -1.126
99.70000 0.767
99.72000 1.289
99.74000 3.103
99.76000 -3.975
99.78000 7.713
99.80000 2.055
99.82000 2.902
99.84000 5.697
99.86000 -2.162
99.88000 2.280
99.90000 9.527
99.92000 4.035
99.94000 -2.235
99.96000 5.764
99.98000 0.000
