'Id: "0011387" Comment: "Integrate frame 0011387_Au-Ir-Rh_Rh-rich_XRD-Mapping-221-0000.gfrmwith cursor Wedge Cursor #5" Operator: "B?rgel" Anode: "Cu" Wavelength: "1.5406" Scantype: "2Theta (TwoTheta)" TimePerStep: "1" X: "-40.5" Y: "13.5" Z: "5.95" 
10.00000 0.000
10.02000 -4.741
10.04000 -4.681
10.06000 6.802
10.08000 4.472
10.10000 1.606
10.12000 11.999
10.14000 13.847
10.16000 6.150
10.18000 -5.895
10.20000 14.277
10.22000 18.883
10.24000 16.504
10.26000 19.967
10.28000 17.574
10.30000 4.599
10.32000 18.223
10.34000 7.156
10.36000 9.047
10.38000 13.405
10.40000 21.827
10.42000 21.982
10.44000 23.540
10.46000 22.293
10.48000 25.088
10.50000 23.649
10.52000 10.700
10.54000 7.413
10.56000 16.202
10.58000 13.738
10.60000 9.374
10.62000 2.844
10.64000 1.331
10.66000 0.559
10.68000 13.088
10.70000 16.867
10.72000 13.866
10.74000 15.240
10.76000 13.541
10.78000 17.109
10.80000 18.372
10.82000 3.693
10.84000 1.038
10.86000 6.838
10.88000 13.332
10.90000 19.118
10.92000 15.884
10.94000 19.767
10.96000 2.338
10.98000 2.916
11.00000 14.920
11.02000 19.690
11.04000 9.949
11.06000 -4.106
11.08000 0.283
11.10000 2.500
11.12000 2.035
11.14000 11.709
11.16000 15.382
11.18000 9.337
11.20000 10.013
11.22000 9.529
11.24000 8.012
11.26000 15.784
11.28000 17.916
11.30000 7.315
11.32000 16.882
11.34000 17.371
11.36000 6.465
11.38000 13.518
11.40000 18.267
11.42000 16.325
11.44000 11.687
11.46000 21.962
11.48000 7.712
11.50000 1.985
11.52000 -4.529
11.54000 -1.139
11.56000 3.655
11.58000 6.457
11.60000 6.218
11.62000 11.937
11.64000 0.611
11.66000 9.811
11.68000 9.738
11.70000 6.055
11.72000 8.758
11.74000 -0.963
11.76000 4.705
11.78000 17.816
11.80000 13.412
11.82000 9.165
11.84000 4.239
11.86000 11.105
11.88000 13.102
11.90000 7.040
11.92000 6.134
11.94000 18.506
11.96000 24.656
11.98000 7.839
12.00000 9.471
12.02000 7.563
12.04000 17.007
12.06000 23.656
12.08000 22.541
12.10000 28.993
12.12000 15.561
12.14000 5.242
12.16000 9.233
12.18000 8.868
12.20000 10.870
12.22000 22.561
12.24000 21.726
12.26000 10.433
12.28000 7.395
12.30000 12.127
12.32000 9.969
12.34000 12.943
12.36000 17.448
12.38000 10.855
12.40000 12.185
12.42000 6.352
12.44000 5.583
12.46000 0.041
12.48000 8.527
12.50000 5.542
12.52000 6.404
12.54000 8.421
12.56000 23.894
12.58000 23.196
12.60000 18.487
12.62000 10.441
12.64000 7.811
12.66000 10.512
12.68000 -4.514
12.70000 5.518
12.72000 13.018
12.74000 16.244
12.76000 12.571
12.78000 8.237
12.80000 -2.545
12.82000 2.254
12.84000 5.810
12.86000 8.848
12.88000 6.607
12.90000 20.057
12.92000 18.959
12.94000 4.793
12.96000 12.991
12.98000 24.125
13.00000 7.396
13.02000 6.659
13.04000 5.127
13.06000 1.294
13.08000 6.119
13.10000 3.858
13.12000 9.646
13.14000 16.453
13.16000 10.729
13.18000 -1.621
13.20000 -1.402
13.22000 -0.441
13.24000 5.801
13.26000 13.972
13.28000 8.366
13.30000 11.015
13.32000 15.393
13.34000 12.483
13.36000 9.030
13.38000 12.239
13.40000 14.953
13.42000 15.417
13.44000 4.534
13.46000 1.200
13.48000 10.363
13.50000 8.472
13.52000 12.838
13.54000 15.975
13.56000 14.043
13.58000 9.464
13.60000 3.979
13.62000 6.684
13.64000 11.073
13.66000 18.430
13.68000 8.348
13.70000 7.845
13.72000 0.205
13.74000 -0.938
13.76000 0.512
13.78000 4.435
13.80000 10.442
13.82000 17.531
13.84000 15.092
13.86000 15.203
13.88000 17.554
13.90000 27.055
13.92000 13.998
13.94000 18.122
13.96000 16.751
13.98000 7.964
14.00000 10.191
14.02000 11.437
14.04000 15.302
14.06000 15.189
14.08000 8.635
14.10000 10.446
14.12000 11.364
14.14000 11.785
14.16000 8.181
14.18000 6.670
14.20000 9.083
14.22000 9.428
14.24000 7.608
14.26000 13.924
14.28000 13.083
14.30000 13.504
14.32000 10.613
14.34000 12.652
14.36000 10.232
14.38000 12.633
14.40000 15.088
14.42000 18.514
14.44000 14.488
14.46000 16.163
14.48000 17.539
14.50000 8.264
14.52000 11.034
14.54000 13.552
14.56000 11.497
14.58000 15.541
14.60000 12.419
14.62000 18.506
14.64000 22.365
14.66000 14.567
14.68000 5.237
14.70000 -4.398
14.72000 2.992
14.74000 11.259
14.76000 20.087
14.78000 20.785
14.80000 16.697
14.82000 23.735
14.84000 19.934
14.86000 8.283
14.88000 17.981
14.90000 23.970
14.92000 20.840
14.94000 19.968
14.96000 12.295
14.98000 8.190
15.00000 11.904
15.02000 9.899
15.04000 16.208
15.06000 16.846
15.08000 21.851
15.10000 26.812
15.12000 15.798
15.14000 15.916
15.16000 11.036
15.18000 2.049
15.20000 10.056
15.22000 11.702
15.24000 5.755
15.26000 8.688
15.28000 3.092
15.30000 0.046
15.32000 1.640
15.34000 7.682
15.36000 11.354
15.38000 11.921
15.40000 13.474
15.42000 16.847
15.44000 9.818
15.46000 15.387
15.48000 19.175
15.50000 20.513
15.52000 14.105
15.54000 13.970
15.56000 11.548
15.58000 10.002
15.60000 7.972
15.62000 0.410
15.64000 0.482
15.66000 4.646
15.68000 6.638
15.70000 12.016
15.72000 11.611
15.74000 7.996
15.76000 7.885
15.78000 8.748
15.80000 11.562
15.82000 3.969
15.84000 6.214
15.86000 6.603
15.88000 8.602
15.90000 3.891
15.92000 9.224
15.94000 7.546
15.96000 7.156
15.98000 13.435
16.00000 7.777
16.02000 3.824
16.04000 11.705
16.06000 13.309
16.08000 10.422
16.10000 5.733
16.12000 -0.430
16.14000 3.082
16.16000 2.988
16.18000 8.336
16.20000 7.651
16.22000 4.471
16.24000 5.391
16.26000 9.060
16.28000 2.164
16.30000 4.566
16.32000 7.382
16.34000 11.556
16.36000 14.644
16.38000 9.514
16.40000 2.459
16.42000 9.456
16.44000 13.104
16.46000 5.037
16.48000 9.206
16.50000 12.302
16.52000 3.057
16.54000 1.526
16.56000 3.063
16.58000 0.894
16.60000 7.933
16.62000 9.403
16.64000 4.089
16.66000 7.797
16.68000 7.408
16.70000 4.229
16.72000 5.339
16.74000 6.832
16.76000 3.565
16.78000 0.550
16.80000 8.971
16.82000 11.311
16.84000 10.215
16.86000 3.188
16.88000 5.405
16.90000 8.157
16.92000 1.187
16.94000 2.514
16.96000 2.653
16.98000 7.560
17.00000 6.506
17.02000 7.303
17.04000 6.399
17.06000 5.343
17.08000 8.421
17.10000 6.652
17.12000 6.988
17.14000 2.043
17.16000 5.564
17.18000 14.088
17.20000 12.380
17.22000 2.464
17.24000 2.031
17.26000 11.495
17.28000 17.061
17.30000 6.292
17.32000 2.561
17.34000 2.917
17.36000 9.556
17.38000 9.255
17.40000 6.525
17.42000 13.229
17.44000 12.300
17.46000 12.118
17.48000 16.325
17.50000 1.249
17.52000 1.726
17.54000 9.997
17.56000 -0.684
17.58000 -4.358
17.60000 0.558
17.62000 4.192
17.64000 10.050
17.66000 5.182
17.68000 9.767
17.70000 5.169
17.72000 7.425
17.74000 12.447
17.76000 8.563
17.78000 0.720
17.80000 -0.623
17.82000 5.562
17.84000 2.144
17.86000 7.822
17.88000 9.947
17.90000 4.353
17.92000 5.239
17.94000 -3.553
17.96000 -4.216
17.98000 9.291
18.00000 7.739
18.02000 4.588
18.04000 6.321
18.06000 -4.102
18.08000 0.616
18.10000 1.811
18.12000 2.634
18.14000 10.144
18.16000 -2.379
18.18000 1.113
18.20000 5.267
18.22000 10.374
18.24000 5.919
18.26000 -3.150
18.28000 -1.355
18.30000 6.617
18.32000 3.323
18.34000 0.303
18.36000 1.598
18.38000 2.923
18.40000 1.854
18.42000 -3.562
18.44000 4.245
18.46000 11.179
18.48000 3.731
18.50000 5.705
18.52000 0.131
18.54000 5.946
18.56000 -2.904
18.58000 -4.303
18.60000 3.681
18.62000 8.684
18.64000 1.876
18.66000 0.936
18.68000 4.809
18.70000 3.340
18.72000 -1.869
18.74000 1.856
18.76000 8.699
18.78000 10.880
18.80000 4.588
18.82000 -1.768
18.84000 -0.935
18.86000 -0.914
18.88000 0.721
18.90000 6.484
18.92000 2.766
18.94000 -2.432
18.96000 2.613
18.98000 1.702
19.00000 0.203
19.02000 6.955
19.04000 5.746
19.06000 1.575
19.08000 -1.766
19.10000 0.399
19.12000 4.271
19.14000 -0.420
19.16000 -0.615
19.18000 -1.796
19.20000 -0.100
19.22000 5.829
19.24000 3.577
19.26000 4.464
19.28000 3.223
19.30000 3.844
19.32000 -2.879
19.34000 -0.106
19.36000 -1.483
19.38000 3.077
19.40000 -1.301
19.42000 2.721
19.44000 4.532
19.46000 -3.061
19.48000 -4.254
19.50000 0.293
19.52000 4.214
19.54000 -1.069
19.56000 1.431
19.58000 7.245
19.60000 8.390
19.62000 3.525
19.64000 1.470
19.66000 2.130
19.68000 2.287
19.70000 4.246
19.72000 5.444
19.74000 -1.667
19.76000 3.184
19.78000 7.809
19.80000 2.023
19.82000 2.339
19.84000 3.657
19.86000 3.335
19.88000 4.846
19.90000 5.235
19.92000 4.349
19.94000 7.683
19.96000 6.950
19.98000 5.272
20.00000 -1.554
20.02000 -4.233
20.04000 0.762
20.06000 2.437
20.08000 -0.048
20.10000 7.122
20.12000 7.352
20.14000 6.348
20.16000 0.091
20.18000 -0.128
20.20000 1.004
20.22000 0.168
20.24000 1.149
20.26000 -0.330
20.28000 -3.186
20.30000 7.714
20.32000 7.152
20.34000 -3.999
20.36000 -3.066
20.38000 -1.934
20.40000 -4.214
20.42000 -2.520
20.44000 2.991
20.46000 0.823
20.48000 5.822
20.50000 0.596
20.52000 -1.219
20.54000 1.294
20.56000 -3.569
20.58000 5.195
20.60000 6.091
20.62000 -0.899
20.64000 -1.086
20.66000 0.495
20.68000 0.851
20.70000 2.385
20.72000 1.903
20.74000 1.190
20.76000 2.416
20.78000 0.055
20.80000 8.533
20.82000 4.438
20.84000 4.778
20.86000 -1.062
20.88000 -0.391
20.90000 4.136
20.92000 -1.494
20.94000 4.546
20.96000 1.566
20.98000 6.453
21.00000 -0.513
21.02000 -4.034
21.04000 -0.073
21.06000 1.148
21.08000 6.284
21.10000 8.650
21.12000 2.072
21.14000 -2.378
21.16000 2.797
21.18000 8.089
21.20000 9.830
21.22000 9.289
21.24000 3.522
21.26000 -4.148
21.28000 -0.961
21.30000 2.380
21.32000 6.835
21.34000 3.503
21.36000 13.269
21.38000 14.597
21.40000 3.825
21.42000 -3.479
21.44000 -2.896
21.46000 0.349
21.48000 6.065
21.50000 7.045
21.52000 4.647
21.54000 2.032
21.56000 -2.751
21.58000 -1.542
21.60000 2.298
21.62000 9.903
21.64000 4.023
21.66000 1.430
21.68000 3.526
21.70000 5.383
21.72000 8.226
21.74000 5.936
21.76000 7.127
21.78000 5.060
21.80000 3.306
21.82000 4.278
21.84000 2.901
21.86000 7.166
21.88000 7.080
21.90000 2.940
21.92000 2.935
21.94000 3.303
21.96000 0.626
21.98000 2.547
22.00000 2.549
22.02000 3.655
22.04000 5.786
22.06000 4.626
22.08000 7.803
22.10000 4.406
22.12000 3.060
22.14000 9.225
22.16000 7.764
22.18000 2.664
22.20000 2.732
22.22000 6.486
22.24000 7.353
22.26000 5.880
22.28000 0.504
22.30000 -0.729
22.32000 7.912
22.34000 9.686
22.36000 4.122
22.38000 1.854
22.40000 9.236
22.42000 2.613
22.44000 -1.736
22.46000 3.136
22.48000 4.733
22.50000 4.699
22.52000 6.787
22.54000 4.952
22.56000 9.416
22.58000 6.681
22.60000 9.362
22.62000 7.047
22.64000 5.362
22.66000 6.995
22.68000 6.108
22.70000 2.150
22.72000 -4.032
22.74000 7.105
22.76000 12.301
22.78000 8.456
22.80000 8.116
22.82000 11.370
22.84000 9.865
22.86000 -0.639
22.88000 3.355
22.90000 4.431
22.92000 7.547
22.94000 4.882
22.96000 0.177
22.98000 3.705
23.00000 1.356
23.02000 2.924
23.04000 1.287
23.06000 6.705
23.08000 3.133
23.10000 4.983
23.12000 5.809
23.14000 7.156
23.16000 9.503
23.18000 8.221
23.20000 1.634
23.22000 3.205
23.24000 5.818
23.26000 10.445
23.28000 4.252
23.30000 1.370
23.32000 4.665
23.34000 2.436
23.36000 -0.715
23.38000 3.336
23.40000 3.174
23.42000 -1.275
23.44000 2.099
23.46000 7.837
23.48000 7.290
23.50000 10.889
23.52000 5.908
23.54000 -1.062
23.56000 0.982
23.58000 3.415
23.60000 -0.159
23.62000 0.688
23.64000 9.799
23.66000 9.155
23.68000 1.225
23.70000 4.990
23.72000 7.684
23.74000 6.674
23.76000 6.466
23.78000 0.331
23.80000 -0.750
23.82000 2.108
23.84000 6.314
23.86000 7.392
23.88000 8.565
23.90000 4.998
23.92000 3.696
23.94000 3.934
23.96000 4.606
23.98000 1.628
24.00000 3.568
24.02000 7.447
24.04000 6.601
24.06000 10.770
24.08000 3.260
24.10000 2.851
24.12000 -0.856
24.14000 2.381
24.16000 7.285
24.18000 2.062
24.20000 0.821
24.22000 1.307
24.24000 1.268
24.26000 7.177
24.28000 1.206
24.30000 6.878
24.32000 2.220
24.34000 -3.483
24.36000 0.166
24.38000 7.540
24.40000 3.927
24.42000 2.527
24.44000 1.993
24.46000 3.810
24.48000 1.550
24.50000 6.588
24.52000 8.927
24.54000 8.911
24.56000 9.184
24.58000 4.737
24.60000 6.368
24.62000 3.547
24.64000 4.092
24.66000 8.088
24.68000 7.650
24.70000 4.196
24.72000 6.620
24.74000 3.810
24.76000 4.074
24.78000 10.639
24.80000 6.975
24.82000 -1.729
24.84000 4.696
24.86000 4.133
24.88000 8.998
24.90000 15.446
24.92000 12.027
24.94000 13.922
24.96000 14.864
24.98000 9.083
25.00000 4.874
25.02000 3.845
25.04000 1.726
25.06000 4.474
25.08000 3.953
25.10000 5.730
25.12000 5.972
25.14000 6.840
25.16000 7.911
25.18000 7.765
25.20000 6.362
25.22000 2.060
25.24000 -3.887
25.26000 2.476
25.28000 5.997
25.30000 6.067
25.32000 2.565
25.34000 -1.180
25.36000 -1.747
25.38000 2.098
25.40000 7.211
25.42000 6.673
25.44000 7.356
25.46000 2.721
25.48000 0.673
25.50000 0.012
25.52000 2.201
25.54000 1.215
25.56000 2.787
25.58000 10.142
25.60000 9.044
25.62000 10.304
25.64000 5.861
25.66000 5.132
25.68000 2.203
25.70000 -2.276
25.72000 -0.765
25.74000 -1.095
25.76000 -1.572
25.78000 -0.319
25.80000 5.127
25.82000 4.744
25.84000 2.693
25.86000 7.294
25.88000 6.133
25.90000 5.263
25.92000 5.346
25.94000 5.238
25.96000 12.096
25.98000 10.108
26.00000 2.213
26.02000 1.846
26.04000 3.173
26.06000 0.735
26.08000 6.570
26.10000 10.430
26.12000 9.097
26.14000 3.186
26.16000 0.874
26.18000 -2.885
26.20000 -1.396
26.22000 -1.439
26.24000 1.953
26.26000 3.764
26.28000 3.574
26.30000 3.442
26.32000 2.996
26.34000 -3.358
26.36000 -3.869
26.38000 7.293
26.40000 6.464
26.42000 3.960
26.44000 0.797
26.46000 0.786
26.48000 0.680
26.50000 6.167
26.52000 5.439
26.54000 4.206
26.56000 -0.384
26.58000 2.035
26.60000 6.598
26.62000 7.570
26.64000 0.467
26.66000 -3.856
26.68000 -3.559
26.70000 -2.977
26.72000 1.662
26.74000 8.911
26.76000 7.927
26.78000 2.452
26.80000 2.446
26.82000 6.314
26.84000 3.804
26.86000 -1.834
26.88000 -0.674
26.90000 2.156
26.92000 3.392
26.94000 -1.656
26.96000 0.850
26.98000 8.893
27.00000 2.599
27.02000 0.459
27.04000 3.940
27.06000 8.186
27.08000 10.232
27.10000 3.937
27.12000 1.408
27.14000 2.136
27.16000 4.316
27.18000 3.355
27.20000 1.729
27.22000 2.524
27.24000 6.014
27.26000 3.721
27.28000 1.815
27.30000 6.810
27.32000 5.398
27.34000 8.771
27.36000 5.582
27.38000 0.319
27.40000 4.832
27.42000 8.257
27.44000 9.077
27.46000 5.959
27.48000 3.445
27.50000 1.417
27.52000 4.675
27.54000 1.477
27.56000 3.157
27.58000 -1.234
27.60000 -1.338
27.62000 1.030
27.64000 2.756
27.66000 2.768
27.68000 7.536
27.70000 6.109
27.72000 3.703
27.74000 3.810
27.76000 4.373
27.78000 3.098
27.80000 -0.250
27.82000 3.017
27.84000 8.854
27.86000 6.344
27.88000 3.057
27.90000 0.881
27.92000 -1.591
27.94000 -3.782
27.96000 -3.691
27.98000 3.504
28.00000 3.767
28.02000 0.130
28.04000 2.745
28.06000 8.528
28.08000 6.689
28.10000 8.147
28.12000 3.858
28.14000 4.386
28.16000 7.132
28.18000 9.618
28.20000 9.478
28.22000 5.123
28.24000 5.586
28.26000 8.940
28.28000 11.448
28.30000 8.378
28.32000 9.854
28.34000 5.806
28.36000 3.006
28.38000 7.538
28.40000 3.622
28.42000 0.329
28.44000 -3.731
28.46000 0.603
28.48000 2.093
28.50000 2.799
28.52000 8.543
28.54000 5.980
28.56000 1.385
28.58000 7.708
28.60000 8.896
28.62000 5.541
28.64000 -0.312
28.66000 2.221
28.68000 4.116
28.70000 6.620
28.72000 3.751
28.74000 3.883
28.76000 2.627
28.78000 3.202
28.80000 6.148
28.82000 10.281
28.84000 7.351
28.86000 2.721
28.88000 3.177
28.90000 7.203
28.92000 5.837
28.94000 2.627
28.96000 4.335
28.98000 2.563
29.00000 12.950
29.02000 6.463
29.04000 2.590
29.06000 -0.340
29.08000 0.852
29.10000 1.785
29.12000 5.376
29.14000 2.178
29.16000 0.232
29.18000 2.782
29.20000 -3.705
29.22000 -0.701
29.24000 2.685
29.26000 5.879
29.28000 3.199
29.30000 -0.952
29.32000 -3.319
29.34000 0.084
29.36000 0.881
29.38000 -0.026
29.40000 2.337
29.42000 4.936
29.44000 6.120
29.46000 3.700
29.48000 3.687
29.50000 8.587
29.52000 10.070
29.54000 2.799
29.56000 4.797
29.58000 4.319
29.60000 0.503
29.62000 -2.817
29.64000 -0.929
29.66000 4.053
29.68000 5.952
29.70000 3.469
29.72000 3.104
29.74000 3.287
29.76000 8.134
29.78000 4.707
29.80000 -3.699
29.82000 -2.319
29.84000 -2.204
29.86000 -0.295
29.88000 -3.698
29.90000 0.126
29.92000 4.087
29.94000 -0.187
29.96000 0.900
29.98000 2.163
30.00000 0.510
30.02000 -1.430
30.04000 0.346
30.06000 2.318
30.08000 2.523
30.10000 4.318
30.12000 -2.152
30.14000 0.568
30.16000 -0.100
30.18000 3.077
30.20000 7.025
30.22000 4.690
30.24000 0.676
30.26000 1.031
30.28000 -3.035
30.30000 0.924
30.32000 2.518
30.34000 1.975
30.36000 -0.152
30.38000 -1.929
30.40000 0.004
30.42000 -0.160
30.44000 -0.558
30.46000 0.320
30.48000 2.677
30.50000 -0.579
30.52000 0.008
30.54000 1.604
30.56000 -2.801
30.58000 1.789
30.60000 1.501
30.62000 -1.902
30.64000 -2.616
30.66000 -1.604
30.68000 1.692
30.70000 0.456
30.72000 -1.069
30.74000 0.595
30.76000 -1.207
30.78000 1.604
30.80000 -0.826
30.82000 -0.885
30.84000 -0.845
30.86000 -0.139
30.88000 3.138
30.90000 3.331
30.92000 0.615
30.94000 1.430
30.96000 9.926
30.98000 3.783
31.00000 1.840
31.02000 -0.043
31.04000 -2.374
31.06000 -2.115
31.08000 0.267
31.10000 -0.289
31.12000 -0.995
31.14000 4.815
31.16000 3.776
31.18000 0.340
31.20000 -3.645
31.22000 -1.965
31.24000 3.488
31.26000 4.921
31.28000 4.393
31.30000 3.811
31.32000 -0.478
31.34000 -1.677
31.36000 -3.224
31.38000 0.769
31.40000 1.478
31.42000 2.426
31.44000 -1.157
31.46000 -1.958
31.48000 -1.351
31.50000 -3.631
31.52000 -1.389
31.54000 3.693
31.56000 4.009
31.58000 -0.620
31.60000 -2.245
31.62000 -2.832
31.64000 -3.355
31.66000 0.436
31.68000 -2.110
31.70000 -0.799
31.72000 3.410
31.74000 2.972
31.76000 -2.001
31.78000 -1.472
31.80000 0.868
31.82000 0.408
31.84000 -2.168
31.86000 1.796
31.88000 2.752
31.90000 4.046
31.92000 3.154
31.94000 2.289
31.96000 6.700
31.98000 3.767
32.00000 6.229
32.02000 1.196
32.04000 -3.596
32.06000 -0.150
32.08000 -0.152
32.10000 2.287
32.12000 5.797
32.14000 4.336
32.16000 -1.379
32.18000 0.280
32.20000 4.910
32.22000 2.444
32.24000 2.690
32.26000 2.121
32.28000 2.724
32.30000 4.953
32.32000 2.456
32.34000 6.034
32.36000 10.651
32.38000 6.298
32.40000 2.537
32.42000 5.049
32.44000 -1.136
32.46000 -0.911
32.48000 5.089
32.50000 3.512
32.52000 -0.942
32.54000 5.180
32.56000 -1.622
32.58000 -0.005
32.60000 0.314
32.62000 -0.728
32.64000 4.232
32.66000 3.629
32.68000 3.763
32.70000 2.655
32.72000 0.514
32.74000 1.862
32.76000 4.641
32.78000 4.200
32.80000 2.012
32.82000 3.253
32.84000 3.305
32.86000 3.344
32.88000 3.694
32.90000 5.377
32.92000 4.404
32.94000 3.866
32.96000 2.407
32.98000 -2.368
33.00000 -0.823
33.02000 -0.129
33.04000 2.610
33.06000 3.136
33.08000 0.072
33.10000 -3.557
33.12000 1.913
33.14000 4.070
33.16000 3.528
33.18000 1.321
33.20000 0.906
33.22000 3.903
33.24000 5.220
33.26000 6.751
33.28000 4.053
33.30000 6.644
33.32000 10.276
33.34000 3.726
33.36000 1.552
33.38000 1.484
33.40000 -0.161
33.42000 1.643
33.44000 4.562
33.46000 9.756
33.48000 5.722
33.50000 -0.819
33.52000 2.496
33.54000 0.713
33.56000 1.036
33.58000 3.260
33.60000 1.150
33.62000 5.889
33.64000 8.607
33.66000 -0.248
33.68000 -3.538
33.70000 0.471
33.72000 4.434
33.74000 8.098
33.76000 5.926
33.78000 3.013
33.80000 2.196
33.82000 1.512
33.84000 5.225
33.86000 7.213
33.88000 6.200
33.90000 5.744
33.92000 0.426
33.94000 5.057
33.96000 2.869
33.98000 5.336
34.00000 3.614
34.02000 4.996
34.04000 2.695
34.06000 1.423
34.08000 1.998
34.10000 4.693
34.12000 5.778
34.14000 5.438
34.16000 7.911
34.18000 7.774
34.20000 3.741
34.22000 4.699
34.24000 6.550
34.26000 4.547
34.28000 4.678
34.30000 5.690
34.32000 2.100
34.34000 1.961
34.36000 -0.438
34.38000 -0.945
34.40000 0.629
34.42000 1.290
34.44000 3.789
34.46000 3.804
34.48000 2.969
34.50000 4.420
34.52000 2.955
34.54000 5.389
34.56000 2.149
34.58000 0.647
34.60000 1.382
34.62000 1.189
34.64000 1.957
34.66000 2.591
34.68000 1.355
34.70000 2.051
34.72000 4.696
34.74000 2.975
34.76000 -3.523
34.78000 1.759
34.80000 3.439
34.82000 1.597
34.84000 2.808
34.86000 2.257
34.88000 -2.356
34.90000 0.251
34.92000 3.109
34.94000 2.345
34.96000 1.517
34.98000 -3.523
35.00000 -2.653
35.02000 6.630
35.04000 4.427
35.06000 2.667
35.08000 1.733
35.10000 2.224
35.12000 -1.768
35.14000 -2.110
35.16000 -1.698
35.18000 9.598
35.20000 6.406
35.22000 1.890
35.24000 2.312
35.26000 -0.745
35.28000 -2.295
35.30000 1.345
35.32000 3.192
35.34000 4.247
35.36000 -0.889
35.38000 -3.519
35.40000 5.226
35.42000 3.481
35.44000 4.417
35.46000 6.106
35.48000 4.465
35.50000 4.399
35.52000 2.901
35.54000 6.966
35.56000 3.561
35.58000 -0.605
35.60000 -2.835
35.62000 2.520
35.64000 1.005
35.66000 1.844
35.68000 1.356
35.70000 1.182
35.72000 -2.950
35.74000 0.903
35.76000 3.902
35.78000 -3.473
35.80000 0.400
35.82000 5.271
35.84000 -0.482
35.86000 -3.525
35.88000 3.245
35.90000 4.153
35.92000 2.983
35.94000 6.110
35.96000 5.117
35.98000 6.059
36.00000 6.614
36.02000 3.490
36.04000 1.979
36.06000 4.488
36.08000 3.083
36.10000 3.439
36.12000 6.542
36.14000 0.970
36.16000 1.975
36.18000 1.908
36.20000 0.232
36.22000 -0.206
36.24000 0.303
36.26000 0.719
36.28000 -0.603
36.30000 0.822
36.32000 1.646
36.34000 4.490
36.36000 0.561
36.38000 -1.050
36.40000 0.230
36.42000 0.628
36.44000 -0.691
36.46000 -2.621
36.48000 -2.429
36.50000 -2.400
36.52000 3.096
36.54000 0.924
36.56000 0.619
36.58000 0.919
36.60000 6.633
36.62000 3.025
36.64000 10.092
36.66000 7.277
36.68000 -2.168
36.70000 -1.873
36.72000 0.187
36.74000 0.818
36.76000 2.635
36.78000 5.838
36.80000 5.878
36.82000 6.743
36.84000 6.522
36.86000 6.083
36.88000 5.457
36.90000 7.358
36.92000 0.822
36.94000 -3.518
36.96000 -2.220
36.98000 2.991
37.00000 6.655
37.02000 -0.733
37.04000 0.971
37.06000 3.619
37.08000 2.135
37.10000 8.652
37.12000 5.538
37.14000 5.368
37.16000 5.906
37.18000 4.766
37.20000 0.168
37.22000 0.831
37.24000 0.914
37.26000 2.848
37.28000 1.627
37.30000 0.995
37.32000 5.031
37.34000 8.271
37.36000 2.894
37.38000 1.159
37.40000 2.655
37.42000 6.394
37.44000 7.062
37.46000 8.281
37.48000 6.837
37.50000 6.236
37.52000 2.497
37.54000 1.323
37.56000 -0.437
37.58000 0.533
37.60000 0.073
37.62000 1.772
37.64000 3.293
37.66000 8.097
37.68000 7.258
37.70000 7.542
37.72000 5.314
37.74000 9.027
37.76000 11.614
37.78000 8.843
37.80000 6.649
37.82000 12.105
37.84000 13.644
37.86000 14.255
37.88000 9.651
37.90000 11.155
37.92000 5.218
37.94000 8.376
37.96000 14.716
37.98000 17.151
38.00000 15.018
38.02000 14.508
38.04000 10.632
38.06000 9.906
38.08000 14.077
38.10000 15.195
38.12000 16.192
38.14000 19.640
38.16000 19.793
38.18000 15.790
38.20000 17.088
38.22000 20.269
38.24000 14.253
38.26000 16.247
38.28000 24.030
38.30000 26.091
38.32000 21.024
38.34000 24.090
38.36000 22.680
38.38000 19.483
38.40000 20.359
38.42000 23.296
38.44000 25.309
38.46000 32.667
38.48000 33.740
38.50000 27.916
38.52000 26.472
38.54000 26.654
38.56000 27.936
38.58000 36.293
38.60000 34.794
38.62000 31.090
38.64000 32.063
38.66000 35.555
38.68000 37.038
38.70000 36.926
38.72000 40.635
38.74000 42.488
38.76000 41.954
38.78000 45.836
38.80000 43.430
38.82000 46.536
38.84000 48.151
38.86000 49.555
38.88000 52.591
38.90000 51.119
38.92000 57.123
38.94000 61.017
38.96000 60.362
38.98000 62.400
39.00000 64.795
39.02000 66.685
39.04000 70.159
39.06000 77.375
39.08000 78.353
39.10000 84.390
39.12000 84.242
39.14000 89.260
39.16000 89.864
39.18000 90.963
39.20000 98.843
39.22000 103.834
39.24000 116.564
39.26000 121.412
39.28000 125.271
39.30000 128.968
39.32000 137.841
39.34000 145.590
39.36000 148.449
39.38000 150.295
39.40000 155.644
39.42000 165.167
39.44000 181.021
39.46000 195.767
39.48000 194.922
39.50000 205.295
39.52000 216.435
39.54000 229.760
39.56000 237.598
39.58000 259.134
39.60000 268.867
39.62000 281.819
39.64000 303.386
39.66000 317.666
39.68000 333.516
39.70000 356.851
39.72000 370.328
39.74000 389.535
39.76000 411.731
39.78000 436.663
39.80000 462.813
39.82000 488.196
39.84000 520.355
39.86000 542.277
39.88000 571.595
39.90000 601.762
39.92000 628.865
39.94000 651.688
39.96000 685.461
39.98000 714.536
40.00000 729.278
40.02000 753.744
40.04000 778.861
40.06000 806.167
40.08000 834.315
40.10000 859.444
40.12000 882.683
40.14000 885.692
40.16000 881.123
40.18000 887.770
40.20000 898.385
40.22000 896.687
40.24000 901.943
40.26000 895.844
40.28000 888.234
40.30000 883.644
40.32000 862.414
40.34000 837.418
40.36000 817.540
40.38000 815.907
40.40000 793.490
40.42000 768.413
40.44000 743.220
40.46000 704.620
40.48000 670.939
40.50000 658.435
40.52000 635.989
40.54000 614.401
40.56000 580.754
40.58000 560.293
40.60000 542.573
40.62000 508.811
40.64000 484.010
40.66000 459.717
40.68000 426.076
40.70000 407.780
40.72000 388.594
40.74000 362.684
40.76000 340.350
40.78000 328.473
40.80000 313.443
40.82000 301.194
40.84000 281.853
40.86000 255.683
40.88000 240.636
40.90000 233.778
40.92000 215.230
40.94000 202.229
40.96000 190.225
40.98000 180.899
41.00000 170.478
41.02000 164.485
41.04000 147.909
41.06000 135.526
41.08000 129.127
41.10000 119.042
41.12000 118.047
41.14000 115.589
41.16000 109.081
41.18000 106.525
41.20000 102.405
41.22000 91.522
41.24000 84.196
41.26000 76.287
41.28000 75.993
41.30000 72.349
41.32000 70.567
41.34000 65.853
41.36000 59.914
41.38000 61.804
41.40000 57.683
41.42000 51.631
41.44000 49.847
41.46000 48.780
41.48000 44.475
41.50000 45.555
41.52000 45.492
41.54000 43.476
41.56000 42.408
41.58000 38.746
41.60000 31.743
41.62000 24.742
41.64000 25.800
41.66000 32.190
41.68000 27.269
41.70000 27.143
41.72000 28.574
41.74000 22.295
41.76000 22.123
41.78000 21.331
41.80000 16.914
41.82000 18.826
41.84000 19.546
41.86000 17.887
41.88000 14.782
41.90000 16.057
41.92000 11.693
41.94000 13.736
41.96000 10.999
41.98000 9.856
42.00000 12.581
42.02000 11.518
42.04000 11.934
42.06000 8.032
42.08000 9.010
42.10000 8.180
42.12000 8.523
42.14000 8.710
42.16000 8.588
42.18000 7.888
42.20000 10.845
42.22000 9.743
42.24000 6.624
42.26000 6.410
42.28000 8.373
42.30000 6.925
42.32000 4.563
42.34000 3.415
42.36000 3.568
42.38000 4.731
42.40000 2.432
42.42000 -1.733
42.44000 1.955
42.46000 0.171
42.48000 -0.888
42.50000 1.768
42.52000 1.171
42.54000 -0.024
42.56000 2.142
42.58000 2.023
42.60000 -1.039
42.62000 -1.744
42.64000 -2.004
42.66000 -2.033
42.68000 0.665
42.70000 -2.771
42.72000 0.557
42.74000 4.034
42.76000 0.799
42.78000 -1.833
42.80000 -3.267
42.82000 -1.959
42.84000 -0.711
42.86000 -1.731
42.88000 0.993
42.90000 2.619
42.92000 1.859
42.94000 2.034
42.96000 -3.335
42.98000 -3.470
43.00000 1.796
43.02000 -1.050
43.04000 0.830
43.06000 0.798
43.08000 -1.568
43.10000 -3.054
43.12000 -0.868
43.14000 2.526
43.16000 -0.346
43.18000 -1.406
43.20000 -3.435
43.22000 2.167
43.24000 4.224
43.26000 1.952
43.28000 3.012
43.30000 0.008
43.32000 -2.715
43.34000 0.002
43.36000 2.549
43.38000 1.828
43.40000 1.706
43.42000 1.888
43.44000 0.452
43.46000 1.596
43.48000 3.975
43.50000 3.927
43.52000 3.477
43.54000 -0.385
43.56000 -0.685
43.58000 0.914
43.60000 -3.373
43.62000 -1.109
43.64000 1.108
43.66000 0.852
43.68000 1.376
43.70000 1.307
43.72000 4.312
43.74000 -0.638
43.76000 -0.509
43.78000 2.818
43.80000 0.671
43.82000 0.220
43.84000 3.023
43.86000 0.756
43.88000 1.331
43.90000 -1.566
43.92000 -1.286
43.94000 0.217
43.96000 -1.079
43.98000 -0.820
44.00000 -3.368
44.02000 -1.854
44.04000 1.795
44.06000 3.552
44.08000 2.974
44.10000 0.389
44.12000 -1.680
44.14000 -2.115
44.16000 -0.425
44.18000 -0.068
44.20000 -1.631
44.22000 -1.451
44.24000 1.033
44.26000 1.535
44.28000 0.342
44.30000 -2.632
44.32000 -0.678
44.34000 1.435
44.36000 1.001
44.38000 3.103
44.40000 0.162
44.42000 -3.273
44.44000 -0.444
44.46000 2.407
44.48000 0.566
44.50000 0.180
44.52000 -1.174
44.54000 -0.625
44.56000 0.087
44.58000 4.470
44.60000 3.001
44.62000 2.129
44.64000 2.696
44.66000 3.555
44.68000 -3.342
44.70000 -2.114
44.72000 0.154
44.74000 2.118
44.76000 -2.379
44.78000 -0.542
44.80000 -0.574
44.82000 0.066
44.84000 2.496
44.86000 3.198
44.88000 0.938
44.90000 3.844
44.92000 1.171
44.94000 -0.214
44.96000 0.762
44.98000 2.486
45.00000 4.994
45.02000 4.394
45.04000 4.566
45.06000 2.326
45.08000 6.133
45.10000 3.158
45.12000 0.053
45.14000 8.698
45.16000 6.994
45.18000 11.277
45.20000 9.753
45.22000 8.525
45.24000 9.788
45.26000 12.496
45.28000 10.373
45.30000 7.940
45.32000 12.720
45.34000 10.244
45.36000 9.533
45.38000 12.840
45.40000 13.499
45.42000 15.290
45.44000 14.565
45.46000 15.459
45.48000 16.259
45.50000 18.118
45.52000 16.724
45.54000 16.652
45.56000 16.695
45.58000 15.865
45.60000 19.289
45.62000 23.430
45.64000 27.997
45.66000 25.152
45.68000 22.339
45.70000 27.278
45.72000 31.268
45.74000 31.851
45.76000 33.004
45.78000 33.258
45.80000 37.479
45.82000 36.557
45.84000 37.849
45.86000 38.748
45.88000 46.306
45.90000 46.961
45.92000 42.586
45.94000 47.346
45.96000 47.635
45.98000 46.393
46.00000 50.164
46.02000 59.466
46.04000 60.551
46.06000 59.563
46.08000 56.661
46.10000 61.238
46.12000 64.436
46.14000 66.571
46.16000 72.738
46.18000 72.515
46.20000 79.157
46.22000 80.921
46.24000 79.927
46.26000 80.312
46.28000 83.310
46.30000 87.526
46.32000 88.084
46.34000 87.375
46.36000 99.307
46.38000 105.731
46.40000 106.263
46.42000 114.505
46.44000 114.163
46.46000 117.786
46.48000 115.484
46.50000 119.611
46.52000 128.189
46.54000 132.948
46.56000 139.100
46.58000 140.376
46.60000 143.508
46.62000 146.007
46.64000 152.739
46.66000 152.198
46.68000 153.628
46.70000 157.068
46.72000 156.282
46.74000 160.686
46.76000 163.238
46.78000 164.228
46.80000 169.537
46.82000 181.976
46.84000 178.587
46.86000 170.658
46.88000 171.249
46.90000 167.052
46.92000 170.030
46.94000 169.366
46.96000 166.632
46.98000 169.233
47.00000 167.805
47.02000 162.504
47.04000 158.065
47.06000 159.891
47.08000 158.320
47.10000 150.281
47.12000 147.452
47.14000 143.587
47.16000 136.677
47.18000 132.502
47.20000 128.500
47.22000 125.010
47.24000 129.228
47.26000 121.585
47.28000 108.195
47.30000 101.449
47.32000 97.540
47.34000 99.332
47.36000 96.462
47.38000 91.402
47.40000 86.122
47.42000 83.496
47.44000 76.023
47.46000 75.915
47.48000 76.158
47.50000 65.502
47.52000 63.522
47.54000 57.548
47.56000 61.917
47.58000 57.446
47.60000 49.251
47.62000 48.742
47.64000 47.309
47.66000 38.610
47.68000 40.342
47.70000 37.406
47.72000 38.898
47.74000 37.091
47.76000 30.687
47.78000 31.675
47.80000 30.256
47.82000 23.367
47.84000 25.963
47.86000 22.468
47.88000 22.912
47.90000 20.006
47.92000 18.431
47.94000 16.854
47.96000 16.492
47.98000 18.994
48.00000 15.735
48.02000 15.190
48.04000 12.968
48.06000 14.790
48.08000 14.373
48.10000 12.813
48.12000 11.590
48.14000 8.506
48.16000 10.355
48.18000 7.137
48.20000 8.921
48.22000 7.988
48.24000 7.903
48.26000 8.578
48.28000 1.542
48.30000 3.235
48.32000 3.217
48.34000 5.585
48.36000 10.291
48.38000 14.436
48.40000 14.759
48.42000 8.209
48.44000 7.701
48.46000 8.843
48.48000 4.154
48.50000 1.463
48.52000 2.927
48.54000 6.249
48.56000 6.767
48.58000 6.350
48.60000 6.603
48.62000 5.868
48.64000 -1.171
48.66000 1.792
48.68000 2.005
48.70000 2.128
48.72000 3.497
48.74000 2.360
48.76000 0.193
48.78000 2.885
48.80000 4.080
48.82000 2.865
48.84000 4.463
48.86000 -0.013
48.88000 0.875
48.90000 4.964
48.92000 4.584
48.94000 5.223
48.96000 5.980
48.98000 6.945
49.00000 1.156
49.02000 5.695
49.04000 5.210
49.06000 8.892
49.08000 0.815
49.10000 -2.766
49.12000 1.689
49.14000 6.293
49.16000 11.803
49.18000 9.154
49.20000 10.551
49.22000 8.666
49.24000 7.916
49.26000 10.021
49.28000 8.233
49.30000 4.150
49.32000 3.365
49.34000 0.569
49.36000 1.334
49.38000 7.164
49.40000 5.803
49.42000 1.381
49.44000 0.518
49.46000 4.274
49.48000 4.716
49.50000 4.652
49.52000 7.479
49.54000 7.528
49.56000 6.096
49.58000 5.138
49.60000 1.128
49.62000 4.231
49.64000 1.637
49.66000 3.398
49.68000 6.984
49.70000 8.376
49.72000 3.112
49.74000 4.419
49.76000 3.938
49.78000 0.440
49.80000 -1.137
49.82000 2.079
49.84000 1.342
49.86000 3.230
49.88000 0.641
49.90000 0.248
49.92000 1.534
49.94000 4.952
49.96000 0.587
49.98000 -2.714
50.00000 0.124
50.02000 0.630
50.04000 -0.478
50.06000 1.106
50.08000 0.374
50.10000 1.926
50.12000 0.178
50.14000 0.429
50.16000 1.408
50.18000 -1.412
50.20000 -0.482
50.22000 1.569
50.24000 0.845
50.26000 1.707
50.28000 2.676
50.30000 1.144
50.32000 4.348
50.34000 7.168
50.36000 9.208
50.38000 5.165
50.40000 4.535
50.42000 4.344
50.44000 2.502
50.46000 -0.290
50.48000 2.437
50.50000 3.100
50.52000 0.352
50.54000 2.056
50.56000 -0.051
50.58000 -2.656
50.60000 -2.432
50.62000 4.243
50.64000 3.558
50.66000 5.576
50.68000 6.451
50.70000 3.950
50.72000 -0.877
50.74000 2.445
50.76000 5.391
50.78000 8.265
50.80000 6.622
50.82000 4.300
50.84000 5.288
50.86000 5.505
50.88000 0.811
50.90000 -2.337
50.92000 1.876
50.94000 -0.123
50.96000 2.155
50.98000 1.052
51.00000 3.780
51.02000 1.802
51.04000 3.860
51.06000 5.734
51.08000 8.774
51.10000 5.767
51.12000 6.426
51.14000 4.603
51.16000 3.240
51.18000 4.269
51.20000 1.303
51.22000 0.961
51.24000 2.048
51.26000 -1.509
51.28000 0.598
51.30000 1.352
51.32000 0.208
51.34000 0.028
51.36000 2.145
51.38000 3.987
51.40000 5.861
51.42000 6.480
51.44000 0.160
51.46000 1.796
51.48000 -1.777
51.50000 -0.624
51.52000 1.210
51.54000 2.283
51.56000 4.641
51.58000 5.546
51.60000 1.765
51.62000 1.380
51.64000 6.004
51.66000 5.129
51.68000 3.566
51.70000 4.724
51.72000 3.784
51.74000 3.157
51.76000 0.711
51.78000 -0.019
51.80000 1.117
51.82000 4.154
51.84000 6.856
51.86000 1.078
51.88000 -1.674
51.90000 -1.569
51.92000 -2.610
51.94000 2.195
51.96000 3.169
51.98000 4.506
52.00000 5.501
52.02000 2.800
52.04000 1.361
52.06000 3.478
52.08000 1.518
52.10000 0.613
52.12000 -2.437
52.14000 0.841
52.16000 3.257
52.18000 4.384
52.20000 4.681
52.22000 3.383
52.24000 3.374
52.26000 1.538
52.28000 -0.860
52.30000 -1.625
52.32000 -2.606
52.34000 -1.861
52.36000 -0.984
52.38000 0.633
52.40000 5.434
52.42000 2.816
52.44000 3.063
52.46000 2.721
52.48000 2.036
52.50000 -1.509
52.52000 0.808
52.54000 1.964
52.56000 0.672
52.58000 -2.307
52.60000 -1.129
52.62000 -1.134
52.64000 1.157
52.66000 0.138
52.68000 3.774
52.70000 4.186
52.72000 1.761
52.74000 4.610
52.76000 2.181
52.78000 1.080
52.80000 -0.334
52.82000 2.088
52.84000 4.350
52.86000 3.900
52.88000 4.404
52.90000 1.885
52.92000 2.252
52.94000 0.358
52.96000 -0.418
52.98000 -2.036
53.00000 -0.257
53.02000 3.823
53.04000 -1.586
53.06000 0.943
53.08000 2.601
53.10000 1.586
53.12000 0.621
53.14000 1.686
53.16000 2.973
53.18000 -0.383
53.20000 3.315
53.22000 1.842
53.24000 -0.787
53.26000 4.404
53.28000 6.296
53.30000 4.050
53.32000 1.736
53.34000 -0.309
53.36000 -1.222
53.38000 1.643
53.40000 1.887
53.42000 4.139
53.44000 1.719
53.46000 1.164
53.48000 1.907
53.50000 5.340
53.52000 3.852
53.54000 2.110
53.56000 5.244
53.58000 1.732
53.60000 1.184
53.62000 2.462
53.64000 1.989
53.66000 2.143
53.68000 0.389
53.70000 0.189
53.72000 2.604
53.74000 -0.512
53.76000 -2.540
53.78000 0.689
53.80000 0.272
53.82000 3.227
53.84000 0.581
53.86000 2.803
53.88000 2.894
53.90000 4.546
53.92000 5.337
53.94000 5.806
53.96000 -0.468
53.98000 -0.432
54.00000 2.696
54.02000 4.244
54.04000 3.315
54.06000 0.586
54.08000 -2.179
54.10000 3.554
54.12000 7.474
54.14000 5.378
54.16000 0.323
54.18000 -0.682
54.20000 -0.636
54.22000 1.043
54.24000 2.532
54.26000 -1.407
54.28000 -0.134
54.30000 3.623
54.32000 2.116
54.34000 3.462
54.36000 -0.399
54.38000 0.552
54.40000 2.314
54.42000 1.670
54.44000 1.797
54.46000 -0.416
54.48000 1.133
54.50000 3.179
54.52000 1.521
54.54000 0.982
54.56000 -0.861
54.58000 -2.527
54.60000 1.892
54.62000 5.510
54.64000 4.700
54.66000 3.793
54.68000 3.106
54.70000 2.393
54.72000 3.860
54.74000 0.818
54.76000 -0.416
54.78000 -0.312
54.80000 -2.264
54.82000 2.842
54.84000 8.186
54.86000 3.859
54.88000 3.486
54.90000 3.609
54.92000 5.468
54.94000 3.465
54.96000 4.105
54.98000 3.146
55.00000 0.018
55.02000 -0.234
55.04000 2.990
55.06000 3.610
55.08000 0.987
55.10000 0.634
55.12000 4.658
55.14000 3.358
55.16000 2.232
55.18000 2.748
55.20000 3.096
55.22000 1.228
55.24000 1.439
55.26000 1.596
55.28000 -1.505
55.30000 -0.748
55.32000 5.160
55.34000 4.817
55.36000 3.904
55.38000 0.748
55.40000 -1.974
55.42000 3.482
55.44000 4.250
55.46000 -0.732
55.48000 0.288
55.50000 2.354
55.52000 3.513
55.54000 2.680
55.56000 2.378
55.58000 2.668
55.60000 3.151
55.62000 2.808
55.64000 -0.969
55.66000 -2.502
55.68000 2.369
55.70000 1.554
55.72000 2.281
55.74000 4.835
55.76000 3.984
55.78000 4.517
55.80000 3.057
55.82000 1.934
55.84000 0.615
55.86000 -0.870
55.88000 -0.952
55.90000 2.406
55.92000 3.109
55.94000 4.720
55.96000 2.686
55.98000 1.572
56.00000 2.437
56.02000 1.106
56.04000 0.463
56.06000 0.122
56.08000 5.160
56.10000 5.573
56.12000 3.506
56.14000 2.817
56.16000 3.017
56.18000 0.153
56.20000 1.358
56.22000 1.439
56.24000 0.401
56.26000 0.301
56.28000 -0.309
56.30000 -1.842
56.32000 -1.721
56.34000 -2.488
56.36000 2.087
56.38000 1.176
56.40000 3.049
56.42000 2.563
56.44000 2.051
56.46000 1.120
56.48000 0.378
56.50000 -1.206
56.52000 1.052
56.54000 0.776
56.56000 3.016
56.58000 3.268
56.60000 0.819
56.62000 0.117
56.64000 3.731
56.66000 0.295
56.68000 -1.518
56.70000 -1.924
56.72000 2.793
56.74000 2.547
56.76000 0.939
56.78000 0.458
56.80000 1.352
56.82000 1.795
56.84000 -2.080
56.86000 0.912
56.88000 2.851
56.90000 4.585
56.92000 5.349
56.94000 1.014
56.96000 5.289
56.98000 5.909
57.00000 4.404
57.02000 3.402
57.04000 -2.463
57.06000 -0.153
57.08000 4.054
57.10000 0.695
57.12000 0.417
57.14000 3.754
57.16000 1.820
57.18000 -0.357
57.20000 -0.049
57.22000 1.677
57.24000 3.794
57.26000 2.185
57.28000 1.766
57.30000 0.562
57.32000 1.043
57.34000 -1.731
57.36000 -2.277
57.38000 -0.224
57.40000 0.072
57.42000 0.342
57.44000 4.069
57.46000 -0.569
57.48000 1.355
57.50000 1.662
57.52000 2.820
57.54000 -0.260
57.56000 -2.372
57.58000 -0.540
57.60000 4.320
57.62000 1.131
57.64000 0.915
57.66000 2.050
57.68000 3.571
57.70000 0.891
57.72000 0.634
57.74000 1.455
57.76000 1.924
57.78000 5.184
57.80000 5.190
57.82000 4.922
57.84000 3.444
57.86000 -1.063
57.88000 -2.456
57.90000 -0.401
57.92000 1.473
57.94000 1.387
57.96000 4.955
57.98000 2.277
58.00000 2.904
58.02000 6.742
58.04000 5.834
58.06000 4.247
58.08000 2.928
58.10000 -1.033
58.12000 1.270
58.14000 -0.799
58.16000 4.075
58.18000 4.894
58.20000 2.783
58.22000 1.858
58.24000 0.360
58.26000 -2.436
58.28000 0.142
58.30000 2.120
58.32000 -1.770
58.34000 -1.011
58.36000 1.680
58.38000 -1.894
58.40000 -0.376
58.42000 -1.096
58.44000 -0.291
58.46000 -2.250
58.48000 -0.856
58.50000 4.049
58.52000 0.863
58.54000 0.717
58.56000 2.581
58.58000 -0.201
58.60000 -2.205
58.62000 -1.609
58.64000 -0.722
58.66000 2.601
58.68000 2.488
58.70000 5.798
58.72000 4.700
58.74000 5.317
58.76000 5.333
58.78000 2.710
58.80000 4.016
58.82000 9.205
58.84000 5.754
58.86000 3.132
58.88000 5.075
58.90000 4.672
58.92000 4.415
58.94000 3.941
58.96000 4.149
58.98000 5.033
59.00000 3.439
59.02000 3.291
59.04000 5.687
59.06000 5.476
59.08000 0.989
59.10000 -2.356
59.12000 -1.015
59.14000 0.046
59.16000 2.144
59.18000 3.881
59.20000 3.930
59.22000 4.927
59.24000 3.095
59.26000 0.641
59.28000 2.182
59.30000 1.969
59.32000 -1.036
59.34000 -0.146
59.36000 0.049
59.38000 0.095
59.40000 3.426
59.42000 1.262
59.44000 3.584
59.46000 3.750
59.48000 0.916
59.50000 1.858
59.52000 -0.059
59.54000 0.315
59.56000 3.717
59.58000 1.415
59.60000 2.163
59.62000 2.647
59.64000 1.277
59.66000 0.010
59.68000 2.558
59.70000 3.600
59.72000 3.157
59.74000 4.435
59.76000 5.689
59.78000 4.830
59.80000 2.993
59.82000 3.615
59.84000 3.059
59.86000 2.268
59.88000 3.053
59.90000 0.294
59.92000 3.454
59.94000 5.565
59.96000 5.115
59.98000 6.807
60.00000 2.622
60.02000 1.968
60.04000 1.310
60.06000 2.240
60.08000 3.863
60.10000 4.224
60.12000 3.825
60.14000 5.512
60.16000 3.533
60.18000 3.282
60.20000 5.461
60.22000 2.861
60.24000 3.683
60.26000 7.578
60.28000 6.165
60.30000 3.133
60.32000 1.133
60.34000 2.161
60.36000 4.747
60.38000 2.782
60.40000 0.665
60.42000 1.500
60.44000 2.337
60.46000 1.483
60.48000 1.909
60.50000 1.581
60.52000 -2.335
60.54000 2.456
60.56000 3.719
60.58000 0.806
60.60000 2.370
60.62000 3.860
60.64000 6.169
60.66000 6.011
60.68000 6.578
60.70000 6.240
60.72000 3.490
60.74000 3.914
60.76000 1.251
60.78000 4.442
60.80000 4.766
60.82000 1.894
60.84000 2.888
60.86000 5.687
60.88000 5.056
60.90000 4.977
60.92000 3.955
60.94000 1.509
60.96000 5.263
60.98000 6.207
61.00000 3.480
61.02000 4.713
61.04000 8.830
61.06000 5.364
61.08000 0.501
61.10000 -2.302
61.12000 1.213
61.14000 4.266
61.16000 2.872
61.18000 2.299
61.20000 4.243
61.22000 2.737
61.24000 2.591
61.26000 2.106
61.28000 0.530
61.30000 6.917
61.32000 6.534
61.34000 7.662
61.36000 4.129
61.38000 -0.827
61.40000 1.626
61.42000 1.908
61.44000 6.309
61.46000 7.636
61.48000 4.434
61.50000 2.459
61.52000 1.853
61.54000 2.342
61.56000 3.405
61.58000 2.408
61.60000 4.897
61.62000 6.760
61.64000 6.134
61.66000 7.193
61.68000 1.628
61.70000 -1.777
61.72000 2.707
61.74000 3.083
61.76000 2.094
61.78000 3.239
61.80000 5.315
61.82000 4.457
61.84000 3.158
61.86000 6.438
61.88000 5.539
61.90000 1.614
61.92000 5.510
61.94000 3.258
61.96000 4.072
61.98000 1.174
62.00000 -1.865
62.02000 0.412
62.04000 3.219
62.06000 0.732
62.08000 2.932
62.10000 3.474
62.12000 4.920
62.14000 4.178
62.16000 2.251
62.18000 1.672
62.20000 0.520
62.22000 2.187
62.24000 -2.293
62.26000 2.751
62.28000 1.410
62.30000 5.156
62.32000 2.084
62.34000 0.676
62.36000 0.426
62.38000 1.371
62.40000 2.392
62.42000 3.915
62.44000 4.121
62.46000 -0.004
62.48000 0.144
62.50000 3.068
62.52000 2.051
62.54000 -0.168
62.56000 0.382
62.58000 0.395
62.60000 0.954
62.62000 3.738
62.64000 4.341
62.66000 4.825
62.68000 3.887
62.70000 2.457
62.72000 0.761
62.74000 2.442
62.76000 0.529
62.78000 -0.632
62.80000 -0.040
62.82000 0.091
62.84000 -1.119
62.86000 -1.062
62.88000 -1.412
62.90000 1.404
62.92000 2.086
62.94000 0.088
62.96000 2.498
62.98000 -0.629
63.00000 1.113
63.02000 1.154
63.04000 -2.189
63.06000 1.766
63.08000 2.639
63.10000 2.067
63.12000 1.992
63.14000 2.441
63.16000 1.598
63.18000 4.196
63.20000 1.053
63.22000 -0.420
63.24000 0.227
63.26000 2.306
63.28000 3.341
63.30000 2.618
63.32000 0.617
63.34000 1.251
63.36000 2.504
63.38000 1.136
63.40000 4.975
63.42000 0.935
63.44000 -2.284
63.46000 2.034
63.48000 -0.784
63.50000 1.292
63.52000 2.607
63.54000 1.331
63.56000 2.154
63.58000 1.187
63.60000 3.356
63.62000 3.508
63.64000 1.079
63.66000 4.742
63.68000 5.609
63.70000 3.625
63.72000 1.665
63.74000 4.329
63.76000 1.900
63.78000 2.288
63.80000 5.256
63.82000 1.942
63.84000 1.856
63.86000 3.892
63.88000 2.955
63.90000 2.247
63.92000 1.192
63.94000 0.546
63.96000 1.053
63.98000 -0.125
64.00000 1.641
64.02000 0.975
64.04000 1.403
64.06000 0.317
64.08000 6.241
64.10000 3.820
64.12000 3.611
64.14000 0.629
64.16000 -2.229
64.18000 2.085
64.20000 1.190
64.22000 0.786
64.24000 -1.847
64.26000 3.107
64.28000 5.388
64.30000 1.579
64.32000 -2.307
64.34000 -1.313
64.36000 -0.250
64.38000 -0.258
64.40000 2.405
64.42000 3.378
64.44000 2.262
64.46000 -0.673
64.48000 0.932
64.50000 1.985
64.52000 2.063
64.54000 1.107
64.56000 3.146
64.58000 4.675
64.60000 2.184
64.62000 3.578
64.64000 2.273
64.66000 1.051
64.68000 1.788
64.70000 1.380
64.72000 1.881
64.74000 1.704
64.76000 0.548
64.78000 2.361
64.80000 4.659
64.82000 6.977
64.84000 5.514
64.86000 0.871
64.88000 -2.333
64.90000 -1.183
64.92000 2.231
64.94000 4.238
64.96000 -0.425
64.98000 1.075
65.00000 0.944
65.02000 0.225
65.04000 1.325
65.06000 -0.111
65.08000 0.277
65.10000 1.398
65.12000 -0.851
65.14000 2.288
65.16000 1.160
65.18000 1.894
65.20000 1.201
65.22000 1.466
65.24000 1.736
65.26000 -1.878
65.28000 -0.781
65.30000 -0.411
65.32000 -1.823
65.34000 -1.761
65.36000 -0.727
65.38000 -1.335
65.40000 -0.598
65.42000 -0.312
65.44000 0.756
65.46000 3.224
65.48000 1.485
65.50000 3.219
65.52000 -0.144
65.54000 0.756
65.56000 0.348
65.58000 0.702
65.60000 1.655
65.62000 0.806
65.64000 1.027
65.66000 1.369
65.68000 -1.595
65.70000 -1.096
65.72000 -2.349
65.74000 1.561
65.76000 1.824
65.78000 1.510
65.80000 0.384
65.82000 0.806
65.84000 -0.258
65.86000 -0.191
65.88000 -0.056
65.90000 -0.086
65.92000 -0.384
65.94000 0.673
65.96000 0.988
65.98000 1.189
66.00000 0.568
66.02000 1.158
66.04000 -0.554
66.06000 0.274
66.08000 -1.669
66.10000 2.889
66.12000 1.045
66.14000 0.906
66.16000 4.283
66.18000 2.353
66.20000 1.962
66.22000 1.128
66.24000 0.890
66.26000 -1.462
66.28000 -1.582
66.30000 -0.237
66.32000 0.722
66.34000 1.987
66.36000 1.848
66.38000 2.241
66.40000 -0.382
66.42000 -2.371
66.44000 -1.449
66.46000 -1.140
66.48000 0.514
66.50000 0.361
66.52000 2.054
66.54000 4.248
66.56000 0.802
66.58000 2.293
66.60000 1.464
66.62000 0.741
66.64000 0.545
66.66000 4.846
66.68000 5.687
66.70000 2.771
66.72000 1.930
66.74000 1.803
66.76000 1.420
66.78000 0.275
66.80000 0.203
66.82000 2.147
66.84000 3.065
66.86000 2.702
66.88000 2.621
66.90000 1.196
66.92000 2.549
66.94000 4.870
66.96000 3.461
66.98000 0.140
67.00000 3.857
67.02000 1.435
67.04000 3.866
67.06000 1.329
67.08000 2.044
67.10000 2.809
67.12000 2.655
67.14000 4.913
67.16000 4.884
67.18000 2.973
67.20000 1.655
67.22000 4.619
67.24000 3.565
67.26000 2.375
67.28000 4.423
67.30000 5.046
67.32000 3.411
67.34000 1.953
67.36000 2.707
67.38000 6.365
67.40000 9.428
67.42000 11.001
67.44000 7.697
67.46000 6.453
67.48000 8.718
67.50000 11.211
67.52000 7.128
67.54000 5.196
67.56000 7.173
67.58000 8.680
67.60000 8.534
67.62000 10.825
67.64000 10.589
67.66000 10.040
67.68000 7.081
67.70000 9.504
67.72000 10.557
67.74000 11.822
67.76000 13.893
67.78000 14.881
67.80000 13.613
67.82000 11.357
67.84000 14.061
67.86000 11.910
67.88000 11.398
67.90000 16.451
67.92000 15.498
67.94000 16.191
67.96000 19.067
67.98000 15.900
68.00000 17.406
68.02000 22.746
68.04000 19.865
68.06000 15.416
68.08000 16.878
68.10000 20.410
68.12000 19.990
68.14000 20.827
68.16000 20.855
68.18000 25.921
68.20000 27.824
68.22000 28.212
68.24000 25.980
68.26000 27.084
68.28000 28.876
68.30000 26.340
68.32000 24.410
68.34000 25.494
68.36000 29.963
68.38000 29.798
68.40000 26.035
68.42000 24.237
68.44000 26.762
68.46000 28.617
68.48000 30.771
68.50000 30.082
68.52000 27.457
68.54000 29.299
68.56000 30.535
68.58000 24.420
68.60000 25.398
68.62000 24.691
68.64000 24.645
68.66000 25.138
68.68000 25.432
68.70000 23.713
68.72000 23.696
68.74000 24.551
68.76000 21.406
68.78000 20.783
68.80000 21.365
68.82000 18.333
68.84000 18.494
68.86000 19.094
68.88000 19.393
68.90000 19.389
68.92000 19.619
68.94000 17.449
68.96000 16.301
68.98000 16.634
69.00000 13.708
69.02000 11.141
69.04000 14.114
69.06000 13.989
69.08000 13.852
69.10000 13.626
69.12000 12.304
69.14000 11.040
69.16000 11.632
69.18000 10.873
69.20000 11.276
69.22000 8.629
69.24000 8.408
69.26000 9.198
69.28000 9.435
69.30000 7.139
69.32000 5.159
69.34000 2.359
69.36000 2.802
69.38000 5.181
69.40000 7.634
69.42000 7.379
69.44000 6.224
69.46000 5.178
69.48000 3.920
69.50000 3.520
69.52000 4.136
69.54000 4.910
69.56000 4.845
69.58000 5.263
69.60000 6.656
69.62000 5.372
69.64000 2.996
69.66000 2.769
69.68000 0.493
69.70000 1.072
69.72000 1.098
69.74000 2.970
69.76000 2.037
69.78000 0.213
69.80000 4.536
69.82000 2.389
69.84000 1.697
69.86000 1.840
69.88000 1.387
69.90000 -2.281
69.92000 -2.081
69.94000 0.090
69.96000 2.046
69.98000 1.500
70.00000 2.172
70.02000 4.629
70.04000 4.021
70.06000 0.596
70.08000 0.568
70.10000 2.651
70.12000 2.646
70.14000 -2.261
70.16000 3.318
70.18000 1.626
70.20000 3.037
70.22000 2.484
70.24000 0.554
70.26000 0.568
70.28000 0.322
70.30000 2.983
70.32000 5.995
70.34000 2.066
70.36000 0.380
70.38000 3.005
70.40000 -0.326
70.42000 -0.473
70.44000 4.871
70.46000 4.910
70.48000 0.612
70.50000 1.911
70.52000 1.617
70.54000 -0.228
70.56000 0.153
70.58000 3.358
70.60000 4.915
70.62000 3.256
70.64000 0.110
70.66000 1.228
70.68000 0.233
70.70000 2.019
70.72000 3.355
70.74000 3.705
70.76000 1.308
70.78000 2.692
70.80000 2.379
70.82000 -2.222
70.84000 -0.853
70.86000 -0.209
70.88000 3.523
70.90000 0.682
70.92000 2.301
70.94000 2.485
70.96000 5.129
70.98000 3.292
71.00000 2.786
71.02000 0.378
71.04000 2.409
71.06000 1.893
71.08000 0.920
71.10000 0.033
71.12000 3.020
71.14000 3.082
71.16000 1.566
71.18000 0.004
71.20000 -0.722
71.22000 2.834
71.24000 3.070
71.26000 1.124
71.28000 3.628
71.30000 4.431
71.32000 3.051
71.34000 3.617
71.36000 3.758
71.38000 4.864
71.40000 6.786
71.42000 4.295
71.44000 1.163
71.46000 -0.955
71.48000 4.373
71.50000 4.001
71.52000 -0.989
71.54000 1.114
71.56000 1.849
71.58000 -2.212
71.60000 -2.006
71.62000 -0.181
71.64000 0.938
71.66000 0.220
71.68000 -1.173
71.70000 0.191
71.72000 4.460
71.74000 1.271
71.76000 2.075
71.78000 3.857
71.80000 1.846
71.82000 0.060
71.84000 0.692
71.86000 2.382
71.88000 1.891
71.90000 1.625
71.92000 3.250
71.94000 3.040
71.96000 8.386
71.98000 4.565
72.00000 1.374
72.02000 4.044
72.04000 3.494
72.06000 3.106
72.08000 1.558
72.10000 0.138
72.12000 5.036
72.14000 2.693
72.16000 1.709
72.18000 2.106
72.20000 1.975
72.22000 0.174
72.24000 -1.895
72.26000 0.800
72.28000 1.893
72.30000 5.580
72.32000 4.144
72.34000 1.814
72.36000 2.286
72.38000 4.574
72.40000 -1.207
72.42000 -2.139
72.44000 -1.399
72.46000 1.971
72.48000 1.431
72.50000 2.522
72.52000 5.499
72.54000 4.891
72.56000 5.831
72.58000 5.649
72.60000 2.026
72.62000 1.718
72.64000 -0.421
72.66000 2.109
72.68000 6.903
72.70000 5.885
72.72000 3.486
72.74000 1.202
72.76000 2.675
72.78000 2.412
72.80000 1.334
72.82000 4.276
72.84000 3.496
72.86000 0.131
72.88000 3.736
72.90000 0.842
72.92000 2.382
72.94000 1.656
72.96000 0.912
72.98000 -1.264
73.00000 0.472
73.02000 -0.735
73.04000 4.095
73.06000 4.754
73.08000 1.211
73.10000 2.627
73.12000 2.509
73.14000 1.534
73.16000 -1.901
73.18000 -1.259
73.20000 0.101
73.22000 1.158
73.24000 0.767
73.26000 0.489
73.28000 2.961
73.30000 0.926
73.32000 -2.138
73.34000 -0.075
73.36000 2.561
73.38000 1.794
73.40000 1.189
73.42000 1.605
73.44000 2.864
73.46000 1.728
73.48000 -0.815
73.50000 2.559
73.52000 5.372
73.54000 5.168
73.56000 1.698
73.58000 2.356
73.60000 4.508
73.62000 6.083
73.64000 5.252
73.66000 1.971
73.68000 -0.148
73.70000 1.461
73.72000 1.487
73.74000 1.827
73.76000 0.809
73.78000 -0.101
73.80000 0.058
73.82000 1.220
73.84000 2.099
73.86000 0.133
73.88000 -0.143
73.90000 -0.550
73.92000 0.608
73.94000 3.078
73.96000 1.263
73.98000 1.898
74.00000 5.421
74.02000 5.780
74.04000 4.021
74.06000 1.331
74.08000 -2.123
74.10000 0.071
74.12000 3.929
74.14000 5.189
74.16000 4.168
74.18000 4.683
74.20000 4.343
74.22000 2.368
74.24000 0.776
74.26000 2.166
74.28000 2.406
74.30000 5.984
74.32000 1.798
74.34000 5.388
74.36000 1.470
74.38000 -1.608
74.40000 2.959
74.42000 6.888
74.44000 8.477
74.46000 7.160
74.48000 0.769
74.50000 0.026
74.52000 0.178
74.54000 2.219
74.56000 4.471
74.58000 5.375
74.60000 3.651
74.62000 3.597
74.64000 3.527
74.66000 0.373
74.68000 0.576
74.70000 2.512
74.72000 -0.994
74.74000 -0.315
74.76000 2.057
74.78000 -1.139
74.80000 -2.118
74.82000 0.528
74.84000 1.663
74.86000 1.014
74.88000 1.756
74.90000 1.565
74.92000 4.007
74.94000 4.888
74.96000 2.192
74.98000 0.766
75.00000 4.141
75.02000 4.619
75.04000 5.881
75.06000 1.578
75.08000 1.353
75.10000 1.603
75.12000 4.413
75.14000 3.358
75.16000 5.039
75.18000 3.094
75.20000 1.381
75.22000 3.856
75.24000 7.480
75.26000 4.000
75.28000 0.681
75.30000 2.214
75.32000 0.351
75.34000 2.478
75.36000 4.771
75.38000 8.316
75.40000 3.903
75.42000 5.706
75.44000 3.800
75.46000 1.820
75.48000 4.481
75.50000 5.532
75.52000 2.508
75.54000 4.384
75.56000 5.298
75.58000 4.474
75.60000 4.673
75.62000 3.930
75.64000 3.994
75.66000 3.928
75.68000 3.784
75.70000 3.136
75.72000 2.090
75.74000 5.706
75.76000 6.023
75.78000 4.524
75.80000 1.796
75.82000 0.483
75.84000 -0.107
75.86000 -2.109
75.88000 -0.829
75.90000 0.784
75.92000 2.195
75.94000 2.222
75.96000 0.819
75.98000 2.012
76.00000 1.546
76.02000 1.481
76.04000 4.959
76.06000 5.158
76.08000 4.947
76.10000 5.364
76.12000 4.463
76.14000 3.476
76.16000 5.537
76.18000 2.469
76.20000 0.312
76.22000 1.860
76.24000 3.585
76.26000 0.859
76.28000 -0.414
76.30000 2.478
76.32000 3.955
76.34000 3.529
76.36000 5.395
76.38000 -0.088
76.40000 1.102
76.42000 2.511
76.44000 2.762
76.46000 6.311
76.48000 6.747
76.50000 3.657
76.52000 1.957
76.54000 1.318
76.56000 3.426
76.58000 1.299
76.60000 3.090
76.62000 2.963
76.64000 6.356
76.66000 2.733
76.68000 -2.168
76.70000 0.449
76.72000 -0.262
76.74000 0.163
76.76000 1.675
76.78000 0.908
76.80000 0.872
76.82000 2.686
76.84000 3.943
76.86000 0.268
76.88000 1.675
76.90000 3.515
76.92000 2.914
76.94000 0.070
76.96000 3.682
76.98000 3.798
77.00000 1.143
77.02000 0.420
77.04000 -0.798
77.06000 2.685
77.08000 0.703
77.10000 -0.319
77.12000 -0.931
77.14000 -2.076
77.16000 2.813
77.18000 1.158
77.20000 0.512
77.22000 0.791
77.24000 -0.533
77.26000 -1.692
77.28000 -1.621
77.30000 -1.346
77.32000 3.873
77.34000 4.579
77.36000 1.474
77.38000 1.023
77.40000 1.877
77.42000 2.724
77.44000 3.956
77.46000 1.978
77.48000 -1.946
77.50000 0.844
77.52000 4.381
77.54000 2.597
77.56000 1.129
77.58000 2.581
77.60000 1.397
77.62000 1.232
77.64000 -0.302
77.66000 1.241
77.68000 -0.141
77.70000 3.232
77.72000 4.756
77.74000 4.126
77.76000 1.559
77.78000 0.840
77.80000 -1.482
77.82000 -0.956
77.84000 1.940
77.86000 -0.029
77.88000 1.479
77.90000 -0.008
77.92000 3.091
77.94000 1.427
77.96000 -0.976
77.98000 2.882
78.00000 2.267
78.02000 2.594
78.04000 1.614
78.06000 5.681
78.08000 3.716
78.10000 7.568
78.12000 6.122
78.14000 4.360
78.16000 2.386
78.18000 4.006
78.20000 1.367
78.22000 2.142
78.24000 0.982
78.26000 3.955
78.28000 2.494
78.30000 2.811
78.32000 4.884
78.34000 0.188
78.36000 1.837
78.38000 2.129
78.40000 2.648
78.42000 -0.839
78.44000 -2.161
78.46000 -1.041
78.48000 6.050
78.50000 8.381
78.52000 5.428
78.54000 4.656
78.56000 1.740
78.58000 6.470
78.60000 2.486
78.62000 2.453
78.64000 4.091
78.66000 2.556
78.68000 3.946
78.70000 4.333
78.72000 4.754
78.74000 4.535
78.76000 4.592
78.78000 5.064
78.80000 -0.250
78.82000 3.340
78.84000 2.044
78.86000 2.012
78.88000 1.050
78.90000 -0.034
78.92000 0.966
78.94000 0.724
78.96000 2.658
78.98000 1.979
79.00000 4.076
79.02000 6.046
79.04000 5.840
79.06000 3.871
79.08000 1.134
79.10000 -2.201
79.12000 1.717
79.14000 1.982
79.16000 -0.757
79.18000 -1.395
79.20000 4.713
79.22000 4.412
79.24000 1.542
79.26000 1.485
79.28000 2.173
79.30000 -0.739
79.32000 0.463
79.34000 2.622
79.36000 2.800
79.38000 3.582
79.40000 4.880
79.42000 6.393
79.44000 6.622
79.46000 4.670
79.48000 1.346
79.50000 0.146
79.52000 -1.107
79.54000 0.011
79.56000 -1.601
79.58000 0.886
79.60000 0.112
79.62000 2.469
79.64000 1.884
79.66000 0.322
79.68000 2.699
79.70000 6.383
79.72000 5.239
79.74000 0.767
79.76000 -0.289
79.78000 -2.269
79.80000 -2.236
79.82000 -0.739
79.84000 -0.046
79.86000 -0.839
79.88000 -2.042
79.90000 0.476
79.92000 6.714
79.94000 2.998
79.96000 0.372
79.98000 2.048
80.00000 3.142
80.02000 5.701
80.04000 4.619
80.06000 7.279
80.08000 5.894
80.10000 6.503
80.12000 3.712
80.14000 -1.278
80.16000 1.844
80.18000 0.981
80.20000 -0.631
80.22000 2.383
80.24000 -2.295
80.26000 1.461
80.28000 2.078
80.30000 2.973
80.32000 1.271
80.34000 0.193
80.36000 0.520
80.38000 5.373
80.40000 6.630
80.42000 2.744
80.44000 6.354
80.46000 5.865
80.48000 1.538
80.50000 -1.576
80.52000 0.911
80.54000 -0.301
80.56000 2.548
80.58000 -0.442
80.60000 0.447
80.62000 1.776
80.64000 6.594
80.66000 8.055
80.68000 4.284
80.70000 2.397
80.72000 2.534
80.74000 6.030
80.76000 3.980
80.78000 7.596
80.80000 5.133
80.82000 3.339
80.84000 0.112
80.86000 2.886
80.88000 0.209
80.90000 0.353
80.92000 7.155
80.94000 3.659
80.96000 -1.060
80.98000 -2.193
81.00000 -0.506
81.02000 2.414
81.04000 -1.321
81.06000 1.257
81.08000 -0.426
81.10000 3.479
81.12000 1.948
81.14000 1.739
81.16000 6.902
81.18000 6.780
81.20000 2.167
81.22000 -1.156
81.24000 5.672
81.26000 9.421
81.28000 9.483
81.30000 10.769
81.32000 11.619
81.34000 6.686
81.36000 3.987
81.38000 3.074
81.40000 7.915
81.42000 11.194
81.44000 13.287
81.46000 13.411
81.48000 6.568
81.50000 8.192
81.52000 7.340
81.54000 8.087
81.56000 9.432
81.58000 10.294
81.60000 11.058
81.62000 14.779
81.64000 11.181
81.66000 17.314
81.68000 19.195
81.70000 11.560
81.72000 9.922
81.74000 16.720
81.76000 16.177
81.78000 17.114
81.80000 11.863
81.82000 15.235
81.84000 19.696
81.86000 18.876
81.88000 17.286
81.90000 21.725
81.92000 17.459
81.94000 20.375
81.96000 20.701
81.98000 27.830
82.00000 27.654
82.02000 28.381
82.04000 28.921
82.06000 26.407
82.08000 28.337
82.10000 27.103
82.12000 26.060
82.14000 28.250
82.16000 24.077
82.18000 22.953
82.20000 24.498
82.22000 27.861
82.24000 27.906
82.26000 27.259
82.28000 27.612
82.30000 31.960
82.32000 34.100
82.34000 35.884
82.36000 36.876
82.38000 35.617
82.40000 34.498
82.42000 35.621
82.44000 35.468
82.46000 40.527
82.48000 43.269
82.50000 41.080
82.52000 38.758
82.54000 39.365
82.56000 39.134
82.58000 40.172
82.60000 37.896
82.62000 31.296
82.64000 35.041
82.66000 37.796
82.68000 39.036
82.70000 35.913
82.72000 34.159
82.74000 30.321
82.76000 36.253
82.78000 36.382
82.80000 31.814
82.82000 32.164
82.84000 36.128
82.86000 32.864
82.88000 30.214
82.90000 29.796
82.92000 24.739
82.94000 31.896
82.96000 37.104
82.98000 34.125
83.00000 27.648
83.02000 27.963
83.04000 31.786
83.06000 29.076
83.08000 25.686
83.10000 26.910
83.12000 26.804
83.14000 23.545
83.16000 19.353
83.18000 17.527
83.20000 19.993
83.22000 21.011
83.24000 18.575
83.26000 14.984
83.28000 14.724
83.30000 11.757
83.32000 17.146
83.34000 15.156
83.36000 13.830
83.38000 14.049
83.40000 11.979
83.42000 7.549
83.44000 7.764
83.46000 15.545
83.48000 17.358
83.50000 14.828
83.52000 9.875
83.54000 10.874
83.56000 11.528
83.58000 10.322
83.60000 9.119
83.62000 7.188
83.64000 6.649
83.66000 7.880
83.68000 11.004
83.70000 11.415
83.72000 7.708
83.74000 9.387
83.76000 4.360
83.78000 -0.512
83.80000 4.158
83.82000 6.589
83.84000 6.948
83.86000 6.854
83.88000 3.354
83.90000 1.428
83.92000 1.026
83.94000 1.519
83.96000 1.949
83.98000 4.034
84.00000 4.472
84.02000 3.357
84.04000 3.603
84.06000 3.372
84.08000 2.926
84.10000 1.010
84.12000 2.652
84.14000 4.545
84.16000 -0.946
84.18000 2.631
84.20000 5.647
84.22000 0.149
84.24000 -0.248
84.26000 4.947
84.28000 0.813
84.30000 0.441
84.32000 -1.967
84.34000 -2.320
84.36000 1.431
84.38000 3.459
84.40000 1.812
84.42000 2.664
84.44000 5.822
84.46000 3.713
84.48000 3.213
84.50000 4.382
84.52000 4.970
84.54000 3.279
84.56000 0.726
84.58000 3.277
84.60000 2.044
84.62000 2.802
84.64000 4.609
84.66000 3.914
84.68000 1.058
84.70000 0.448
84.72000 -2.270
84.74000 0.059
84.76000 5.433
84.78000 1.734
84.80000 0.376
84.82000 3.268
84.84000 2.249
84.86000 6.456
84.88000 7.339
84.90000 1.926
84.92000 1.354
84.94000 2.655
84.96000 5.201
84.98000 2.846
85.00000 1.670
85.02000 2.962
85.04000 3.845
85.06000 4.294
85.08000 4.234
85.10000 2.431
85.12000 -0.689
85.14000 1.406
85.16000 1.058
85.18000 -0.514
85.20000 -0.778
85.22000 0.865
85.24000 1.596
85.26000 0.679
85.28000 2.081
85.30000 -1.135
85.32000 -2.280
85.34000 -0.791
85.36000 3.710
85.38000 -0.447
85.40000 -1.078
85.42000 -1.252
85.44000 1.631
85.46000 1.028
85.48000 1.023
85.50000 2.688
85.52000 -1.011
85.54000 3.192
85.56000 3.200
85.58000 2.545
85.60000 4.469
85.62000 -0.967
85.64000 -0.465
85.66000 1.027
85.68000 3.429
85.70000 4.620
85.72000 0.421
85.74000 1.032
85.76000 2.903
85.78000 7.372
85.80000 10.484
85.82000 5.186
85.84000 5.811
85.86000 7.343
85.88000 7.590
85.90000 8.177
85.92000 7.066
85.94000 6.057
85.96000 5.461
85.98000 1.995
86.00000 6.259
86.02000 7.891
86.04000 9.316
86.06000 10.878
86.08000 11.136
86.10000 10.306
86.12000 11.484
86.14000 15.785
86.16000 14.316
86.18000 15.504
86.20000 13.476
86.22000 14.418
86.24000 14.258
86.26000 10.409
86.28000 10.300
86.30000 13.491
86.32000 22.457
86.34000 22.694
86.36000 20.488
86.38000 21.565
86.40000 23.911
86.42000 21.890
86.44000 20.715
86.46000 20.145
86.48000 22.411
86.50000 23.761
86.52000 24.761
86.54000 26.206
86.56000 28.306
86.58000 28.482
86.60000 26.794
86.62000 25.165
86.64000 25.704
86.66000 26.893
86.68000 31.161
86.70000 31.314
86.72000 28.075
86.74000 22.163
86.76000 25.060
86.78000 26.340
86.80000 28.996
86.82000 29.054
86.84000 27.876
86.86000 32.737
86.88000 38.057
86.90000 36.567
86.92000 27.543
86.94000 29.373
86.96000 25.492
86.98000 23.865
87.00000 23.066
87.02000 24.508
87.04000 24.855
87.06000 26.551
87.08000 23.439
87.10000 26.621
87.12000 24.937
87.14000 24.357
87.16000 25.136
87.18000 20.841
87.20000 19.130
87.22000 18.190
87.24000 22.285
87.26000 25.298
87.28000 19.715
87.30000 17.286
87.32000 13.715
87.34000 15.613
87.36000 16.736
87.38000 17.587
87.40000 17.649
87.42000 19.073
87.44000 14.515
87.46000 10.837
87.48000 11.644
87.50000 11.474
87.52000 9.092
87.54000 11.730
87.56000 14.132
87.58000 7.435
87.60000 7.254
87.62000 9.058
87.64000 9.016
87.66000 3.789
87.68000 5.709
87.70000 7.794
87.72000 5.653
87.74000 7.186
87.76000 5.885
87.78000 5.602
87.80000 1.017
87.82000 2.142
87.84000 3.479
87.86000 3.589
87.88000 5.686
87.90000 3.890
87.92000 0.924
87.94000 3.268
87.96000 2.704
87.98000 2.654
88.00000 2.024
88.02000 1.688
88.04000 0.048
88.06000 1.140
88.08000 2.638
88.10000 1.142
88.12000 6.087
88.14000 3.138
88.16000 0.247
88.18000 -0.328
88.20000 2.155
88.22000 2.523
88.24000 -0.109
88.26000 1.851
88.28000 0.273
88.30000 2.672
88.32000 3.040
88.34000 3.119
88.36000 2.047
88.38000 -1.380
88.40000 2.181
88.42000 0.943
88.44000 0.147
88.46000 3.008
88.48000 3.230
88.50000 2.638
88.52000 0.828
88.54000 3.510
88.56000 2.965
88.58000 3.057
88.60000 0.429
88.62000 0.588
88.64000 0.668
88.66000 -1.069
88.68000 2.039
88.70000 0.494
88.72000 0.215
88.74000 0.863
88.76000 1.527
88.78000 1.842
88.80000 -0.629
88.82000 1.871
88.84000 2.388
88.86000 0.969
88.88000 1.679
88.90000 -2.106
88.92000 -0.517
88.94000 2.275
88.96000 1.529
88.98000 -1.000
89.00000 2.499
89.02000 5.540
89.04000 6.467
89.06000 4.066
89.08000 0.211
89.10000 0.691
89.12000 -0.018
89.14000 3.085
89.16000 2.135
89.18000 1.585
89.20000 0.995
89.22000 0.418
89.24000 -1.414
89.26000 -2.076
89.28000 0.102
89.30000 -0.148
89.32000 -0.733
89.34000 -0.507
89.36000 1.691
89.38000 5.058
89.40000 4.506
89.42000 1.860
89.44000 5.242
89.46000 7.924
89.48000 6.449
89.50000 1.957
89.52000 1.805
89.54000 1.378
89.56000 1.749
89.58000 2.925
89.60000 6.755
89.62000 8.448
89.64000 6.839
89.66000 2.606
89.68000 4.682
89.70000 0.269
89.72000 -0.671
89.74000 -2.046
89.76000 -0.664
89.78000 2.503
89.80000 3.289
89.82000 2.447
89.84000 1.465
89.86000 5.187
89.88000 3.693
89.90000 1.829
89.92000 0.123
89.94000 1.782
89.96000 3.360
89.98000 4.650
90.00000 2.207
90.02000 -1.099
90.04000 1.238
90.06000 4.131
90.08000 8.168
90.10000 6.376
90.12000 2.453
90.14000 5.374
90.16000 6.976
90.18000 6.737
90.20000 6.400
90.22000 6.319
90.24000 4.646
90.26000 4.507
90.28000 5.206
90.30000 5.292
90.32000 6.819
90.34000 6.473
90.36000 5.973
90.38000 4.214
90.40000 4.669
90.42000 4.060
90.44000 1.342
90.46000 7.607
90.48000 5.612
90.50000 0.616
90.52000 -1.995
90.54000 0.394
90.56000 0.930
90.58000 0.105
90.60000 1.162
90.62000 2.203
90.64000 1.542
90.66000 6.571
90.68000 8.776
90.70000 6.192
90.72000 2.971
90.74000 2.440
90.76000 3.638
90.78000 5.241
90.80000 4.797
90.82000 5.737
90.84000 7.674
90.86000 4.881
90.88000 3.787
90.90000 5.015
90.92000 2.348
90.94000 0.322
90.96000 0.381
90.98000 2.292
91.00000 -0.927
91.02000 2.188
91.04000 4.430
91.06000 3.213
91.08000 4.877
91.10000 1.601
91.12000 1.751
91.14000 6.523
91.16000 3.323
91.18000 -2.029
91.20000 -1.797
91.22000 1.022
91.24000 0.753
91.26000 2.328
91.28000 1.563
91.30000 2.412
91.32000 4.863
91.34000 4.956
91.36000 3.270
91.38000 2.804
91.40000 3.392
91.42000 4.455
91.44000 4.051
91.46000 -1.274
91.48000 -1.334
91.50000 6.627
91.52000 2.766
91.54000 3.272
91.56000 1.894
91.58000 3.206
91.60000 1.738
91.62000 3.023
91.64000 2.078
91.66000 -1.546
91.68000 2.198
91.70000 4.038
91.72000 1.462
91.74000 3.127
91.76000 6.066
91.78000 3.370
91.80000 3.112
91.82000 3.489
91.84000 6.290
91.86000 4.815
91.88000 5.096
91.90000 1.028
91.92000 -1.334
91.94000 0.136
91.96000 2.733
91.98000 2.721
92.00000 0.052
92.02000 6.520
92.04000 9.724
92.06000 2.621
92.08000 1.657
92.10000 1.551
92.12000 4.628
92.14000 5.013
92.16000 3.763
92.18000 4.094
92.20000 3.602
92.22000 6.293
92.24000 6.796
92.26000 1.713
92.28000 -2.015
92.30000 1.645
92.32000 7.133
92.34000 1.084
92.36000 -0.476
92.38000 3.240
92.40000 1.191
92.42000 3.652
92.44000 2.149
92.46000 6.741
92.48000 8.219
92.50000 4.416
92.52000 1.695
92.54000 1.362
92.56000 2.368
92.58000 7.142
92.60000 4.086
92.62000 2.416
92.64000 4.090
92.66000 6.050
92.68000 9.476
92.70000 5.681
92.72000 1.604
92.74000 4.124
92.76000 6.330
92.78000 3.016
92.80000 3.278
92.82000 6.603
92.84000 6.454
92.86000 7.015
92.88000 7.681
92.90000 8.146
92.92000 8.601
92.94000 6.678
92.96000 4.843
92.98000 9.172
93.00000 3.174
93.02000 6.720
93.04000 9.003
93.06000 3.583
93.08000 -1.969
93.10000 -0.284
93.12000 4.546
93.14000 3.091
93.16000 3.487
93.18000 7.877
93.20000 6.099
93.22000 6.188
93.24000 8.214
93.26000 9.571
93.28000 8.926
93.30000 7.280
93.32000 4.012
93.34000 2.991
93.36000 7.437
93.38000 6.644
93.40000 1.508
93.42000 -1.995
93.44000 1.477
93.46000 0.977
93.48000 2.921
93.50000 3.159
93.52000 2.736
93.54000 5.123
93.56000 6.986
93.58000 3.920
93.60000 3.908
93.62000 1.377
93.64000 0.889
93.66000 0.993
93.68000 5.122
93.70000 6.465
93.72000 7.040
93.74000 3.606
93.76000 3.330
93.78000 0.667
93.80000 -1.994
93.82000 0.286
93.84000 1.001
93.86000 -0.200
93.88000 1.328
93.90000 7.011
93.92000 4.345
93.94000 1.925
93.96000 4.730
93.98000 5.322
94.00000 3.153
94.02000 3.240
94.04000 5.039
94.06000 5.590
94.08000 7.235
94.10000 6.226
94.12000 3.940
94.14000 4.241
94.16000 2.695
94.18000 2.305
94.20000 1.906
94.22000 1.877
94.24000 1.792
94.26000 3.555
94.28000 2.904
94.30000 6.314
94.32000 1.958
94.34000 2.072
94.36000 1.618
94.38000 2.996
94.40000 3.934
94.42000 5.424
94.44000 2.560
94.46000 1.535
94.48000 1.559
94.50000 2.744
94.52000 5.330
94.54000 4.690
94.56000 1.214
94.58000 1.687
94.60000 2.252
94.62000 3.970
94.64000 1.331
94.66000 2.432
94.68000 -0.374
94.70000 -2.060
94.72000 0.581
94.74000 2.986
94.76000 0.704
94.78000 -1.082
94.80000 0.287
94.82000 -0.418
94.84000 1.529
94.86000 1.252
94.88000 5.211
94.90000 2.630
94.92000 5.046
94.94000 8.464
94.96000 6.426
94.98000 3.233
95.00000 -0.270
95.02000 0.910
95.04000 2.716
95.06000 5.775
95.08000 5.489
95.10000 5.812
95.12000 2.239
95.14000 1.678
95.16000 3.091
95.18000 6.087
95.20000 5.538
95.22000 7.226
95.24000 -1.194
95.26000 5.428
95.28000 3.142
95.30000 2.960
95.32000 3.508
95.34000 9.327
95.36000 2.660
95.38000 0.505
95.40000 1.008
95.42000 0.734
95.44000 -2.052
95.46000 5.392
95.48000 3.670
95.50000 0.419
95.52000 3.655
95.54000 4.196
95.56000 1.343
95.58000 -0.023
95.60000 1.692
95.62000 3.651
95.64000 6.935
95.66000 6.576
95.68000 3.645
95.70000 0.824
95.72000 -0.418
95.74000 -0.670
95.76000 1.120
95.78000 3.259
95.80000 1.446
95.82000 3.392
95.84000 2.737
95.86000 1.672
95.88000 4.371
95.90000 2.510
95.92000 4.800
95.94000 2.354
95.96000 -0.699
95.98000 4.319
96.00000 6.107
96.02000 4.993
96.04000 4.776
96.06000 5.490
96.08000 7.437
96.10000 4.138
96.12000 4.592
96.14000 -2.054
96.16000 0.518
96.18000 6.215
96.20000 4.904
96.22000 5.066
96.24000 1.763
96.26000 1.420
96.28000 3.698
96.30000 8.970
96.32000 7.621
96.34000 5.694
96.36000 2.950
96.38000 6.790
96.40000 8.508
96.42000 4.760
96.44000 -2.051
96.46000 -0.793
96.48000 -0.760
96.50000 0.165
96.52000 4.496
96.54000 6.336
96.56000 6.210
96.58000 5.920
96.60000 5.083
96.62000 2.698
96.64000 4.565
96.66000 1.588
96.68000 -1.231
96.70000 0.961
96.72000 3.995
96.74000 3.429
96.76000 -0.796
96.78000 3.866
96.80000 5.652
96.82000 3.721
96.84000 5.325
96.86000 5.017
96.88000 12.010
96.90000 6.239
96.92000 4.925
96.94000 7.736
96.96000 10.429
96.98000 8.687
97.00000 2.868
97.02000 2.252
97.04000 3.294
97.06000 1.845
97.08000 5.924
97.10000 2.852
97.12000 1.570
97.14000 1.099
97.16000 3.214
97.18000 8.374
97.20000 4.040
97.22000 4.392
97.24000 7.849
97.26000 10.641
97.28000 2.781
97.30000 1.790
97.32000 -1.993
97.34000 2.460
97.36000 3.137
97.38000 2.935
97.40000 7.042
97.42000 3.264
97.44000 0.536
97.46000 5.417
97.48000 3.545
97.50000 0.493
97.52000 2.629
97.54000 3.489
97.56000 4.506
97.58000 2.626
97.60000 1.763
97.62000 3.436
97.64000 0.861
97.66000 1.142
97.68000 4.904
97.70000 10.549
97.72000 9.935
97.74000 4.467
97.76000 -0.482
97.78000 -1.989
97.80000 -1.471
97.82000 2.593
97.84000 8.847
97.86000 11.571
97.88000 6.091
97.90000 4.784
97.92000 1.873
97.94000 5.710
97.96000 11.411
97.98000 13.746
98.00000 11.073
98.02000 12.401
98.04000 4.808
98.06000 7.245
98.08000 9.079
98.10000 1.114
98.12000 4.991
98.14000 8.774
98.16000 9.475
98.18000 6.732
98.20000 5.328
98.22000 4.130
98.24000 0.574
98.26000 -1.978
98.28000 2.985
98.30000 3.888
98.32000 2.207
98.34000 5.383
98.36000 8.539
98.38000 5.613
98.40000 5.053
98.42000 3.142
98.44000 1.812
98.46000 2.871
98.48000 -0.318
98.50000 1.058
98.52000 5.903
98.54000 5.010
98.56000 7.497
98.58000 3.196
98.60000 5.757
98.62000 8.457
98.64000 4.706
98.66000 6.717
98.68000 12.454
98.70000 2.434
98.72000 -1.503
98.74000 4.906
98.76000 1.810
98.78000 4.932
98.80000 10.078
98.82000 10.563
98.84000 3.243
98.86000 3.298
98.88000 2.774
98.90000 4.179
98.92000 10.844
98.94000 9.058
98.96000 5.643
98.98000 3.987
99.00000 2.996
99.02000 6.599
99.04000 2.624
99.06000 -0.551
99.08000 5.454
99.10000 14.235
99.12000 15.981
99.14000 10.910
99.16000 10.907
99.18000 9.481
99.20000 13.870
99.22000 8.167
99.24000 6.195
99.26000 2.425
99.28000 5.364
99.30000 1.864
99.32000 7.298
99.34000 7.224
99.36000 6.491
99.38000 11.959
99.40000 1.179
99.42000 -0.657
99.44000 2.314
99.46000 10.503
99.48000 5.156
99.50000 7.002
99.52000 14.299
99.54000 13.947
99.56000 6.969
99.58000 3.451
99.60000 -1.888
99.62000 5.371
99.64000 5.325
99.66000 8.563
99.68000 4.589
99.70000 3.557
99.72000 0.176
99.74000 2.272
99.76000 7.572
99.78000 9.141
99.80000 9.821
99.82000 8.027
99.84000 12.691
99.86000 7.787
99.88000 2.529
99.90000 0.602
99.92000 1.259
99.94000 0.042
99.96000 -2.179
99.98000 0.000
