'Id: "0011389" Comment: "Integrate frame 0011389_Au-Ir-Rh_Au-Rich_XRD_Mapping-177-0000.gfrmwith cursor Wedge Cursor #5" Operator: "B?rgel" Anode: "Cu" Wavelength: "1.5406" Scantype: "2Theta (TwoTheta)" TimePerStep: "1" X: "45" Y: "0" Z: "5.95" 
10.00000 0.000
10.02000 0.946
10.04000 2.080
10.06000 -2.624
10.08000 4.788
10.10000 11.953
10.12000 14.597
10.14000 11.661
10.16000 0.174
10.18000 14.056
10.20000 18.273
10.22000 17.910
10.24000 12.583
10.26000 7.857
10.28000 22.807
10.30000 24.946
10.32000 18.656
10.34000 17.119
10.36000 18.940
10.38000 13.246
10.40000 18.024
10.42000 13.051
10.44000 14.124
10.46000 32.116
10.48000 20.420
10.50000 13.848
10.52000 25.530
10.54000 34.863
10.56000 25.234
10.58000 19.775
10.60000 25.754
10.62000 25.338
10.64000 32.035
10.66000 34.216
10.68000 29.358
10.70000 28.085
10.72000 26.823
10.74000 29.209
10.76000 34.565
10.78000 29.614
10.80000 36.267
10.82000 31.310
10.84000 23.453
10.86000 13.009
10.88000 23.207
10.90000 29.603
10.92000 34.387
10.94000 40.856
10.96000 39.009
10.98000 37.152
11.00000 35.540
11.02000 31.807
11.04000 28.791
11.06000 27.155
11.08000 42.901
11.10000 43.725
11.12000 37.864
11.14000 30.469
11.16000 41.522
11.18000 43.745
11.20000 47.345
11.22000 47.452
11.24000 38.046
11.26000 40.047
11.28000 50.323
11.30000 45.178
11.32000 37.238
11.34000 34.514
11.36000 51.159
11.38000 47.184
11.40000 46.676
11.42000 56.611
11.44000 52.434
11.46000 43.089
11.48000 30.843
11.50000 39.223
11.52000 51.816
11.54000 54.132
11.56000 55.895
11.58000 54.544
11.60000 49.832
11.62000 42.848
11.64000 49.218
11.66000 59.938
11.68000 56.577
11.70000 48.118
11.72000 45.649
11.74000 48.765
11.76000 50.947
11.78000 49.101
11.80000 51.857
11.82000 53.309
11.84000 50.245
11.86000 53.058
11.88000 55.256
11.90000 60.174
11.92000 53.862
11.94000 53.175
11.96000 63.911
11.98000 63.525
12.00000 55.605
12.02000 54.581
12.04000 54.194
12.06000 56.624
12.08000 58.604
12.10000 60.233
12.12000 61.333
12.14000 53.748
12.16000 50.131
12.18000 59.091
12.20000 56.148
12.22000 52.529
12.24000 56.698
12.26000 55.520
12.28000 59.564
12.30000 64.192
12.32000 63.162
12.34000 62.063
12.36000 54.729
12.38000 59.202
12.40000 58.700
12.42000 51.480
12.44000 55.376
12.46000 62.952
12.48000 69.993
12.50000 71.835
12.52000 64.009
12.54000 68.681
12.56000 62.629
12.58000 60.633
12.60000 65.604
12.62000 67.717
12.64000 69.539
12.66000 78.432
12.68000 76.660
12.70000 71.152
12.72000 73.960
12.74000 69.736
12.76000 61.299
12.78000 74.984
12.80000 71.933
12.82000 61.024
12.84000 68.604
12.86000 74.594
12.88000 68.869
12.90000 63.369
12.92000 56.450
12.94000 63.950
12.96000 67.598
12.98000 65.244
13.00000 61.768
13.02000 56.923
13.04000 60.799
13.06000 67.086
13.08000 63.365
13.10000 60.060
13.12000 71.078
13.14000 81.559
13.16000 74.546
13.18000 70.826
13.20000 53.592
13.22000 61.022
13.24000 60.966
13.26000 66.402
13.28000 61.805
13.30000 59.827
13.32000 62.600
13.34000 56.919
13.36000 61.390
13.38000 58.445
13.40000 58.481
13.42000 60.324
13.44000 61.240
13.46000 62.462
13.48000 52.560
13.50000 53.903
13.52000 53.917
13.54000 57.121
13.56000 63.229
13.58000 64.144
13.60000 55.060
13.62000 52.576
13.64000 52.549
13.66000 49.864
13.68000 48.475
13.70000 48.802
13.72000 54.871
13.74000 65.836
13.76000 72.645
13.78000 68.811
13.80000 55.858
13.82000 59.702
13.84000 60.579
13.86000 67.814
13.88000 64.131
13.90000 66.116
13.92000 65.805
13.94000 59.971
13.96000 64.394
13.98000 53.617
14.00000 52.953
14.02000 54.187
14.04000 52.890
14.06000 51.950
14.08000 54.040
14.10000 53.210
14.12000 57.714
14.14000 52.168
14.16000 49.742
14.18000 56.852
14.20000 50.060
14.22000 46.098
14.24000 55.383
14.26000 60.383
14.28000 51.102
14.30000 40.049
14.32000 37.901
14.34000 48.587
14.36000 48.135
14.38000 54.383
14.40000 57.684
14.42000 55.124
14.44000 49.286
14.46000 48.664
14.48000 53.467
14.50000 56.266
14.52000 49.563
14.54000 43.963
14.56000 34.703
14.58000 38.049
14.60000 50.489
14.62000 41.501
14.64000 44.573
14.66000 51.868
14.68000 40.033
14.70000 46.320
14.72000 54.274
14.74000 50.113
14.76000 38.399
14.78000 41.098
14.80000 30.467
14.82000 40.327
14.84000 41.009
14.86000 49.954
14.88000 47.791
14.90000 51.213
14.92000 50.651
14.94000 45.065
14.96000 32.711
14.98000 30.549
15.00000 44.692
15.02000 46.930
15.04000 43.979
15.06000 47.615
15.08000 43.843
15.10000 38.664
15.12000 43.763
15.14000 42.966
15.16000 39.775
15.18000 35.906
15.20000 33.579
15.22000 28.203
15.24000 32.305
15.26000 41.722
15.28000 43.096
15.30000 35.038
15.32000 33.675
15.34000 29.991
15.36000 35.889
15.38000 34.280
15.40000 37.085
15.42000 37.148
15.44000 43.462
15.46000 40.183
15.48000 37.517
15.50000 37.809
15.52000 39.214
15.54000 32.958
15.56000 31.799
15.58000 28.682
15.60000 25.607
15.62000 36.375
15.64000 37.014
15.66000 42.576
15.68000 39.930
15.70000 31.199
15.72000 26.319
15.74000 29.334
15.76000 41.929
15.78000 34.898
15.80000 32.447
15.82000 29.630
15.84000 34.594
15.86000 31.222
15.88000 26.224
15.90000 28.608
15.92000 34.025
15.94000 31.686
15.96000 25.990
15.98000 30.590
16.00000 29.476
16.02000 29.469
16.04000 27.270
16.06000 23.598
16.08000 24.875
16.10000 31.959
16.12000 26.259
16.14000 21.284
16.16000 23.659
16.18000 18.409
16.20000 17.650
16.22000 21.776
16.24000 26.045
16.26000 25.162
16.28000 20.065
16.30000 22.664
16.32000 30.502
16.34000 30.029
16.36000 28.436
16.38000 19.593
16.40000 24.378
16.42000 22.655
16.44000 19.058
16.46000 20.389
16.48000 15.584
16.50000 15.136
16.52000 22.120
16.54000 31.709
16.56000 27.384
16.58000 21.333
16.60000 27.183
16.62000 21.175
16.64000 24.093
16.66000 16.460
16.68000 19.232
16.70000 25.489
16.72000 26.330
16.74000 18.994
16.76000 19.174
16.78000 24.123
16.80000 16.867
16.82000 16.322
16.84000 23.086
16.86000 21.822
16.88000 19.388
16.90000 19.298
16.92000 19.019
16.94000 19.082
16.96000 20.084
16.98000 18.855
17.00000 20.565
17.02000 18.615
17.04000 19.512
17.06000 14.998
17.08000 21.210
17.10000 19.994
17.12000 17.610
17.14000 19.233
17.16000 14.284
17.18000 14.056
17.20000 13.698
17.22000 13.082
17.24000 11.068
17.26000 16.362
17.28000 9.080
17.30000 14.962
17.32000 20.736
17.34000 18.424
17.36000 16.300
17.38000 15.757
17.40000 18.337
17.42000 21.295
17.44000 15.886
17.46000 15.937
17.48000 17.777
17.50000 14.315
17.52000 12.748
17.54000 15.612
17.56000 23.831
17.58000 20.566
17.60000 18.350
17.62000 14.057
17.64000 9.433
17.66000 5.945
17.68000 10.004
17.70000 11.595
17.72000 14.374
17.74000 13.373
17.76000 15.387
17.78000 12.757
17.80000 18.951
17.82000 13.973
17.84000 6.304
17.86000 4.999
17.88000 9.694
17.90000 14.041
17.92000 12.186
17.94000 6.263
17.96000 2.595
17.98000 15.948
18.00000 12.189
18.02000 16.494
18.04000 20.429
18.06000 13.332
18.08000 2.408
18.10000 3.203
18.12000 9.859
18.14000 14.842
18.16000 7.207
18.18000 15.484
18.20000 19.453
18.22000 10.215
18.24000 7.626
18.26000 14.921
18.28000 13.006
18.30000 11.104
18.32000 5.150
18.34000 1.453
18.36000 3.305
18.38000 10.116
18.40000 9.866
18.42000 14.563
18.44000 10.393
18.46000 8.117
18.48000 13.682
18.50000 10.595
18.52000 11.657
18.54000 9.985
18.56000 11.260
18.58000 4.747
18.60000 0.871
18.62000 6.140
18.64000 10.192
18.66000 6.266
18.68000 -3.521
18.70000 -1.413
18.72000 7.950
18.74000 2.381
18.76000 -0.383
18.78000 1.412
18.80000 6.609
18.82000 1.340
18.84000 1.217
18.86000 6.795
18.88000 6.714
18.90000 2.271
18.92000 4.081
18.94000 5.281
18.96000 7.386
18.98000 8.578
19.00000 13.226
19.02000 16.452
19.04000 8.733
19.06000 4.969
19.08000 3.840
19.10000 7.967
19.12000 8.471
19.14000 3.093
19.16000 5.603
19.18000 6.988
19.20000 9.025
19.22000 5.214
19.24000 4.630
19.26000 3.389
19.28000 7.717
19.30000 9.621
19.32000 11.917
19.34000 12.633
19.36000 9.863
19.38000 8.776
19.40000 11.399
19.42000 9.102
19.44000 4.910
19.46000 -4.264
19.48000 0.663
19.50000 8.889
19.52000 9.758
19.54000 5.840
19.56000 6.026
19.58000 8.846
19.60000 9.288
19.62000 10.077
19.64000 10.155
19.66000 6.215
19.68000 10.425
19.70000 7.368
19.72000 5.945
19.74000 0.795
19.76000 1.760
19.78000 -1.999
19.80000 -2.983
19.82000 3.595
19.84000 2.669
19.86000 14.010
19.88000 13.629
19.90000 10.851
19.92000 8.197
19.94000 8.851
19.96000 7.124
19.98000 4.237
20.00000 7.472
20.02000 8.862
20.04000 4.929
20.06000 2.483
20.08000 3.094
20.10000 12.067
20.12000 9.667
20.14000 3.725
20.16000 3.493
20.18000 -1.550
20.20000 4.915
20.22000 3.156
20.24000 0.080
20.26000 1.581
20.28000 2.389
20.30000 5.206
20.32000 8.104
20.34000 -0.471
20.36000 -3.820
20.38000 -0.870
20.40000 11.501
20.42000 5.634
20.44000 -4.217
20.46000 3.544
20.48000 4.908
20.50000 2.169
20.52000 3.129
20.54000 1.597
20.56000 1.837
20.58000 3.021
20.60000 1.512
20.62000 -3.016
20.64000 0.216
20.66000 9.189
20.68000 8.537
20.70000 -0.775
20.72000 0.369
20.74000 6.993
20.76000 3.217
20.78000 2.378
20.80000 4.292
20.82000 0.117
20.84000 -2.296
20.86000 3.101
20.88000 6.349
20.90000 8.589
20.92000 4.276
20.94000 3.184
20.96000 7.035
20.98000 11.441
21.00000 5.665
21.02000 -1.816
21.04000 4.643
21.06000 7.571
21.08000 2.333
21.10000 1.145
21.12000 0.104
21.14000 -0.452
21.16000 7.255
21.18000 5.406
21.20000 10.564
21.22000 2.390
21.24000 -4.196
21.26000 -1.319
21.28000 3.269
21.30000 8.692
21.32000 6.284
21.34000 4.631
21.36000 3.897
21.38000 -0.182
21.40000 1.809
21.42000 -3.775
21.44000 3.128
21.46000 2.435
21.48000 6.385
21.50000 5.803
21.52000 1.550
21.54000 0.936
21.56000 2.828
21.58000 3.836
21.60000 0.377
21.62000 -3.614
21.64000 1.913
21.66000 3.950
21.68000 5.428
21.70000 9.234
21.72000 4.670
21.74000 1.951
21.76000 2.241
21.78000 2.568
21.80000 5.502
21.82000 3.196
21.84000 -4.161
21.86000 0.830
21.88000 1.635
21.90000 3.438
21.92000 4.571
21.94000 1.340
21.96000 -1.686
21.98000 2.913
22.00000 -3.244
22.02000 -2.950
22.04000 1.367
22.06000 3.218
22.08000 6.453
22.10000 10.305
22.12000 5.904
22.14000 -3.170
22.16000 -4.142
22.18000 -1.590
22.20000 2.177
22.22000 -0.007
22.24000 4.190
22.26000 -0.372
22.28000 0.344
22.30000 -1.533
22.32000 -0.002
22.34000 -0.051
22.36000 7.492
22.38000 1.843
22.40000 6.329
22.42000 4.633
22.44000 5.246
22.46000 2.073
22.48000 0.913
22.50000 7.395
22.52000 8.414
22.54000 5.468
22.56000 4.974
22.58000 6.535
22.60000 2.341
22.62000 5.411
22.64000 1.416
22.66000 2.340
22.68000 5.416
22.70000 3.578
22.72000 1.549
22.74000 0.869
22.76000 1.359
22.78000 5.647
22.80000 4.098
22.82000 10.158
22.84000 12.276
22.86000 6.111
22.88000 3.571
22.90000 2.171
22.92000 -1.394
22.94000 -4.088
22.96000 1.213
22.98000 4.970
23.00000 9.802
23.02000 6.122
23.04000 -0.629
23.06000 2.727
23.08000 11.579
23.10000 6.144
23.12000 5.642
23.14000 5.523
23.16000 4.964
23.18000 7.857
23.20000 3.264
23.22000 7.070
23.24000 7.396
23.26000 4.274
23.28000 2.274
23.30000 7.592
23.32000 8.805
23.34000 -0.781
23.36000 1.745
23.38000 11.655
23.40000 7.823
23.42000 4.933
23.44000 9.655
23.46000 6.518
23.48000 4.521
23.50000 3.639
23.52000 7.221
23.54000 2.003
23.56000 0.462
23.58000 5.559
23.60000 7.057
23.62000 1.180
23.64000 3.755
23.66000 12.387
23.68000 5.488
23.70000 5.760
23.72000 1.080
23.74000 4.883
23.76000 5.570
23.78000 7.598
23.80000 1.884
23.82000 0.372
23.84000 1.313
23.86000 -1.910
23.88000 1.780
23.90000 4.933
23.92000 2.837
23.94000 -1.403
23.96000 0.595
23.98000 6.657
24.00000 8.103
24.02000 0.973
24.04000 2.422
24.06000 4.129
24.08000 4.138
24.10000 0.707
24.12000 3.346
24.14000 4.184
24.16000 12.606
24.18000 10.874
24.20000 2.698
24.22000 -0.333
24.24000 4.525
24.26000 5.849
24.28000 4.124
24.30000 2.541
24.32000 2.967
24.34000 1.053
24.36000 5.602
24.38000 7.640
24.40000 3.784
24.42000 0.243
24.44000 4.461
24.46000 5.237
24.48000 6.252
24.50000 6.706
24.52000 4.444
24.54000 3.354
24.56000 2.398
24.58000 -1.134
24.60000 -0.410
24.62000 1.371
24.64000 -0.755
24.66000 -3.998
24.68000 -3.285
24.70000 2.121
24.72000 4.322
24.74000 3.005
24.76000 -0.141
24.78000 2.022
24.80000 0.680
24.82000 -3.989
24.84000 -1.883
24.86000 4.335
24.88000 2.123
24.90000 1.133
24.92000 8.383
24.94000 7.653
24.96000 5.718
24.98000 2.751
25.00000 8.287
25.02000 4.310
25.04000 9.709
25.06000 7.311
25.08000 2.605
25.10000 -2.574
25.12000 -2.069
25.14000 1.803
25.16000 5.865
25.18000 1.907
25.20000 1.795
25.22000 4.511
25.24000 6.348
25.26000 1.561
25.28000 4.077
25.30000 3.533
25.32000 4.691
25.34000 2.187
25.36000 -0.063
25.38000 1.186
25.40000 3.235
25.42000 6.618
25.44000 6.392
25.46000 11.178
25.48000 7.650
25.50000 0.340
25.52000 -1.002
25.54000 -3.865
25.56000 -3.955
25.58000 5.450
25.60000 6.617
25.62000 2.423
25.64000 5.233
25.66000 8.977
25.68000 2.371
25.70000 1.621
25.72000 -1.191
25.74000 -2.252
25.76000 1.302
25.78000 -0.548
25.80000 -2.243
25.82000 3.497
25.84000 7.088
25.86000 3.885
25.88000 -3.945
25.90000 -3.620
25.92000 -1.781
25.94000 -0.168
25.96000 3.690
25.98000 3.109
26.00000 4.310
26.02000 6.732
26.04000 0.594
26.06000 3.543
26.08000 7.439
26.10000 1.028
26.12000 -2.484
26.14000 2.466
26.16000 3.681
26.18000 3.504
26.20000 2.849
26.22000 7.751
26.24000 2.049
26.26000 -0.997
26.28000 -2.184
26.30000 1.238
26.32000 0.468
26.34000 -3.191
26.36000 -2.972
26.38000 1.229
26.40000 3.323
26.42000 -0.107
26.44000 -1.787
26.46000 3.668
26.48000 2.082
26.50000 2.812
26.52000 2.600
26.54000 1.356
26.56000 3.019
26.58000 2.046
26.60000 5.002
26.62000 -0.946
26.64000 -3.926
26.66000 2.915
26.68000 10.382
26.70000 7.054
26.72000 0.066
26.74000 1.454
26.76000 0.639
26.78000 -2.263
26.80000 0.012
26.82000 5.461
26.84000 6.502
26.86000 3.845
26.88000 0.346
26.90000 0.390
26.92000 -0.104
26.94000 0.360
26.96000 -2.624
26.98000 1.234
27.00000 2.378
27.02000 1.242
27.04000 4.583
27.06000 -0.472
27.08000 -1.349
27.10000 -0.845
27.12000 1.087
27.14000 5.178
27.16000 2.838
27.18000 2.026
27.20000 6.353
27.22000 3.421
27.24000 7.388
27.26000 6.257
27.28000 2.481
27.30000 0.926
27.32000 -2.622
27.34000 -0.485
27.36000 -0.322
27.38000 5.043
27.40000 3.417
27.42000 -0.391
27.44000 -1.556
27.46000 0.321
27.48000 -3.384
27.50000 -2.763
27.52000 0.295
27.54000 1.172
27.56000 5.084
27.58000 1.479
27.60000 -0.939
27.62000 4.601
27.64000 1.386
27.66000 -0.682
27.68000 0.542
27.70000 -2.602
27.72000 -3.866
27.74000 -0.195
27.76000 -0.650
27.78000 2.519
27.80000 -3.481
27.82000 2.296
27.84000 2.406
27.86000 -2.504
27.88000 -0.576
27.90000 2.389
27.92000 1.440
27.94000 2.942
27.96000 4.667
27.98000 10.260
28.00000 7.058
28.02000 6.291
28.04000 -0.394
28.06000 -1.235
28.08000 4.365
28.10000 0.392
28.12000 -0.100
28.14000 0.899
28.16000 2.963
28.18000 2.339
28.20000 0.728
28.22000 2.472
28.24000 1.093
28.26000 -1.327
28.28000 -0.653
28.30000 2.064
28.32000 7.051
28.34000 8.552
28.36000 2.778
28.38000 2.232
28.40000 2.625
28.42000 7.486
28.44000 3.991
28.46000 -0.283
28.48000 -2.780
28.50000 -3.791
28.52000 1.110
28.54000 0.839
28.56000 3.295
28.58000 9.240
28.60000 6.013
28.62000 0.869
28.64000 2.555
28.66000 0.133
28.68000 0.020
28.70000 5.137
28.72000 6.020
28.74000 4.368
28.76000 -0.344
28.78000 -1.103
28.80000 3.221
28.82000 4.016
28.84000 4.444
28.86000 0.869
28.88000 3.102
28.90000 5.960
28.92000 -1.440
28.94000 -3.765
28.96000 5.496
28.98000 5.847
29.00000 -0.342
29.02000 -3.090
29.04000 0.653
29.06000 4.096
29.08000 5.911
29.10000 6.836
29.12000 4.497
29.14000 3.792
29.16000 3.588
29.18000 3.362
29.20000 -0.113
29.22000 0.280
29.24000 5.844
29.26000 2.466
29.28000 -1.271
29.30000 1.607
29.32000 3.014
29.34000 0.922
29.36000 0.625
29.38000 1.284
29.40000 0.265
29.42000 1.451
29.44000 4.122
29.46000 -2.688
29.48000 -3.749
29.50000 2.342
29.52000 3.145
29.54000 6.137
29.56000 2.713
29.58000 -2.761
29.60000 0.474
29.62000 2.971
29.64000 2.645
29.66000 3.307
29.68000 2.934
29.70000 6.142
29.72000 9.309
29.74000 4.689
29.76000 1.293
29.78000 -1.725
29.80000 -3.409
29.82000 2.627
29.84000 6.442
29.86000 1.552
29.88000 4.265
29.90000 1.829
29.92000 -2.146
29.94000 2.231
29.96000 3.767
29.98000 1.455
30.00000 4.842
30.02000 2.407
30.04000 -1.723
30.06000 -0.485
30.08000 -0.862
30.10000 -0.070
30.12000 0.941
30.14000 1.235
30.16000 1.724
30.18000 7.158
30.20000 4.644
30.22000 4.384
30.24000 7.136
30.26000 3.275
30.28000 3.611
30.30000 0.119
30.32000 -3.217
30.34000 0.724
30.36000 4.165
30.38000 7.548
30.40000 7.862
30.42000 5.503
30.44000 5.579
30.46000 -3.445
30.48000 -3.716
30.50000 -1.948
30.52000 2.501
30.54000 -1.573
30.56000 2.115
30.58000 3.206
30.60000 4.305
30.62000 1.091
30.64000 -0.699
30.66000 -3.067
30.68000 1.821
30.70000 5.410
30.72000 4.050
30.74000 5.790
30.76000 2.639
30.78000 2.537
30.80000 -0.384
30.82000 -0.389
30.84000 1.812
30.86000 3.861
30.88000 4.265
30.90000 1.732
30.92000 -1.560
30.94000 0.248
30.96000 -1.091
30.98000 0.130
31.00000 3.702
31.02000 1.835
31.04000 -1.856
31.06000 -0.240
31.08000 3.229
31.10000 2.328
31.12000 -3.239
31.14000 -2.643
31.16000 -0.215
31.18000 2.430
31.20000 2.874
31.22000 2.843
31.24000 1.530
31.26000 -0.128
31.28000 4.337
31.30000 2.952
31.32000 2.014
31.34000 1.719
31.36000 2.917
31.38000 1.387
31.40000 0.777
31.42000 6.762
31.44000 2.766
31.46000 -3.690
31.48000 -3.281
31.50000 0.138
31.52000 0.701
31.54000 1.784
31.56000 3.762
31.58000 0.152
31.60000 -2.690
31.62000 -2.254
31.64000 0.967
31.66000 -2.361
31.68000 -0.346
31.70000 2.194
31.72000 1.095
31.74000 2.581
31.76000 4.325
31.78000 4.572
31.80000 -3.673
31.82000 -2.484
31.84000 -3.252
31.86000 -0.213
31.88000 1.133
31.90000 -0.597
31.92000 1.159
31.94000 -0.780
31.96000 1.849
31.98000 1.073
32.00000 1.097
32.02000 0.280
32.04000 -0.468
32.06000 -0.904
32.08000 -1.101
32.10000 2.344
32.12000 -1.449
32.14000 0.312
32.16000 1.151
32.18000 1.541
32.20000 1.815
32.22000 4.148
32.24000 1.147
32.26000 0.891
32.28000 0.610
32.30000 -3.543
32.32000 0.991
32.34000 2.527
32.36000 -3.260
32.38000 -0.205
32.40000 2.212
32.42000 6.556
32.44000 6.841
32.46000 4.311
32.48000 5.674
32.50000 1.373
32.52000 -3.650
32.54000 -1.210
32.56000 0.918
32.58000 3.734
32.60000 0.544
32.62000 2.009
32.64000 -1.049
32.66000 -3.102
32.68000 -0.616
32.70000 -2.206
32.72000 0.591
32.74000 -0.298
32.76000 2.660
32.78000 1.407
32.80000 -2.718
32.82000 -2.125
32.84000 -1.442
32.86000 4.355
32.88000 0.629
32.90000 1.583
32.92000 3.990
32.94000 -0.537
32.96000 2.839
32.98000 4.262
33.00000 2.785
33.02000 1.269
33.04000 3.045
33.06000 1.164
33.08000 -2.354
33.10000 -3.635
33.12000 1.664
33.14000 4.258
33.16000 2.162
33.18000 -1.309
33.20000 3.548
33.22000 4.506
33.24000 7.901
33.26000 5.549
33.28000 3.764
33.30000 1.620
33.32000 3.522
33.34000 4.690
33.36000 1.398
33.38000 -1.283
33.40000 0.796
33.42000 5.996
33.44000 6.096
33.46000 6.425
33.48000 5.046
33.50000 6.505
33.52000 7.737
33.54000 5.635
33.56000 1.175
33.58000 -2.334
33.60000 -3.239
33.62000 1.447
33.64000 1.645
33.66000 6.328
33.68000 8.723
33.70000 7.132
33.72000 -3.634
33.74000 1.030
33.76000 0.867
33.78000 3.709
33.80000 10.086
33.82000 7.899
33.84000 1.512
33.86000 1.659
33.88000 3.707
33.90000 5.774
33.92000 7.852
33.94000 7.036
33.96000 2.052
33.98000 -1.559
34.00000 -1.466
34.02000 4.758
34.04000 4.803
34.06000 -0.618
34.08000 6.065
34.10000 5.885
34.12000 0.127
34.14000 5.575
34.16000 8.793
34.18000 3.977
34.20000 2.525
34.22000 2.327
34.24000 4.248
34.26000 -1.642
34.28000 4.634
34.30000 5.709
34.32000 -1.219
34.34000 1.026
34.36000 -0.361
34.38000 -1.204
34.40000 1.553
34.42000 2.341
34.44000 3.616
34.46000 0.197
34.48000 3.359
34.50000 1.829
34.52000 -2.966
34.54000 -0.462
34.56000 -3.611
34.58000 -1.162
34.60000 6.233
34.62000 6.210
34.64000 8.109
34.66000 8.878
34.68000 2.462
34.70000 -0.359
34.72000 2.630
34.74000 6.418
34.76000 4.853
34.78000 2.606
34.80000 3.585
34.82000 -1.662
34.84000 2.703
34.86000 5.608
34.88000 4.619
34.90000 2.987
34.92000 0.129
34.94000 1.432
34.96000 -1.687
34.98000 -2.286
35.00000 0.916
35.02000 0.780
35.04000 1.836
35.06000 0.645
35.08000 -2.261
35.10000 -1.952
35.12000 3.343
35.14000 0.779
35.16000 -0.112
35.18000 -2.349
35.20000 -0.899
35.22000 3.888
35.24000 5.746
35.26000 -1.644
35.28000 -3.513
35.30000 0.139
35.32000 3.529
35.34000 0.284
35.36000 -3.487
35.38000 -2.677
35.40000 0.972
35.42000 2.607
35.44000 0.611
35.46000 3.852
35.48000 4.363
35.50000 -1.208
35.52000 -3.429
35.54000 2.285
35.56000 2.600
35.58000 0.439
35.60000 -2.301
35.62000 1.592
35.64000 4.668
35.66000 6.095
35.68000 3.905
35.70000 3.562
35.72000 4.461
35.74000 3.811
35.76000 2.773
35.78000 -3.601
35.80000 -0.633
35.82000 3.290
35.84000 1.541
35.86000 4.716
35.88000 8.893
35.90000 11.495
35.92000 4.456
35.94000 6.900
35.96000 1.065
35.98000 1.197
36.00000 2.467
36.02000 4.924
36.04000 2.578
36.06000 4.791
36.08000 6.791
36.10000 4.739
36.12000 6.682
36.14000 2.408
36.16000 3.638
36.18000 7.167
36.20000 3.896
36.22000 2.845
36.24000 6.245
36.26000 7.136
36.28000 7.202
36.30000 4.728
36.32000 5.459
36.34000 -2.139
36.36000 -3.624
36.38000 4.024
36.40000 5.245
36.42000 5.093
36.44000 -0.476
36.46000 -3.422
36.48000 -1.523
36.50000 -0.044
36.52000 4.870
36.54000 4.158
36.56000 -1.939
36.58000 -0.929
36.60000 0.305
36.62000 2.394
36.64000 3.493
36.66000 -1.404
36.68000 -1.905
36.70000 0.167
36.72000 0.747
36.74000 -1.286
36.76000 -1.886
36.78000 -0.622
36.80000 1.590
36.82000 2.422
36.84000 -2.433
36.86000 0.935
36.88000 3.958
36.90000 -0.008
36.92000 -0.596
36.94000 -0.983
36.96000 -2.671
36.98000 -1.110
37.00000 5.518
37.02000 7.145
37.04000 6.604
37.06000 4.746
37.08000 -1.802
37.10000 2.413
37.12000 3.451
37.14000 1.912
37.16000 2.919
37.18000 -1.005
37.20000 0.036
37.22000 0.239
37.24000 6.632
37.26000 7.238
37.28000 3.123
37.30000 0.252
37.32000 4.237
37.34000 1.639
37.36000 -2.239
37.38000 2.305
37.40000 -1.653
37.42000 0.319
37.44000 8.415
37.46000 11.178
37.48000 4.945
37.50000 3.566
37.52000 6.335
37.54000 4.116
37.56000 1.642
37.58000 3.198
37.60000 5.646
37.62000 11.484
37.64000 10.757
37.66000 7.240
37.68000 8.639
37.70000 12.774
37.72000 7.446
37.74000 11.988
37.76000 7.377
37.78000 11.043
37.80000 14.509
37.82000 13.496
37.84000 14.452
37.86000 9.943
37.88000 11.126
37.90000 8.362
37.92000 8.652
37.94000 13.682
37.96000 10.723
37.98000 12.734
38.00000 18.051
38.02000 20.748
38.04000 20.483
38.06000 19.320
38.08000 14.491
38.10000 19.284
38.12000 24.524
38.14000 25.595
38.16000 22.365
38.18000 21.056
38.20000 26.628
38.22000 28.570
38.24000 28.427
38.26000 26.808
38.28000 27.425
38.30000 24.147
38.32000 29.737
38.34000 32.111
38.36000 29.776
38.38000 26.733
38.40000 26.577
38.42000 37.187
38.44000 39.399
38.46000 34.679
38.48000 38.883
38.50000 41.766
38.52000 44.755
38.54000 47.323
38.56000 48.775
38.58000 50.599
38.60000 50.596
38.62000 49.350
38.64000 55.979
38.66000 62.069
38.68000 62.704
38.70000 59.212
38.72000 62.157
38.74000 72.417
38.76000 68.957
38.78000 70.731
38.80000 78.744
38.82000 84.035
38.84000 90.879
38.86000 93.527
38.88000 94.700
38.90000 95.919
38.92000 102.904
38.94000 109.118
38.96000 113.018
38.98000 115.110
39.00000 127.570
39.02000 132.480
39.04000 135.446
39.06000 136.353
39.08000 152.024
39.10000 166.649
39.12000 166.424
39.14000 177.699
39.16000 184.845
39.18000 191.702
39.20000 205.830
39.22000 222.973
39.24000 235.152
39.26000 248.498
39.28000 258.252
39.30000 270.541
39.32000 284.115
39.34000 300.201
39.36000 316.309
39.38000 334.061
39.40000 354.207
39.42000 367.694
39.44000 389.214
39.46000 415.937
39.48000 436.852
39.50000 445.126
39.52000 470.791
39.54000 491.843
39.56000 517.374
39.58000 539.351
39.60000 561.624
39.62000 582.304
39.64000 587.140
39.66000 594.256
39.68000 611.089
39.70000 637.025
39.72000 667.610
39.74000 665.482
39.76000 663.421
39.78000 674.429
39.80000 674.704
39.82000 677.462
39.84000 685.304
39.86000 691.531
39.88000 687.534
39.90000 689.935
39.92000 685.182
39.94000 675.676
39.96000 661.244
39.98000 655.016
40.00000 634.998
40.02000 608.736
40.04000 591.459
40.06000 576.307
40.08000 560.667
40.10000 541.694
40.12000 530.473
40.14000 508.405
40.16000 481.418
40.18000 459.320
40.20000 431.311
40.22000 409.890
40.24000 397.558
40.26000 372.528
40.28000 352.073
40.30000 331.077
40.32000 309.417
40.34000 301.128
40.36000 284.189
40.38000 263.365
40.40000 244.647
40.42000 235.625
40.44000 221.575
40.46000 201.897
40.48000 190.437
40.50000 185.863
40.52000 171.984
40.54000 164.547
40.56000 152.423
40.58000 140.863
40.60000 134.981
40.62000 127.432
40.64000 117.705
40.66000 105.819
40.68000 105.524
40.70000 99.882
40.72000 91.265
40.74000 92.203
40.76000 85.694
40.78000 77.074
40.80000 71.945
40.82000 65.407
40.84000 63.499
40.86000 59.498
40.88000 56.502
40.90000 52.856
40.92000 48.736
40.94000 43.849
40.96000 46.400
40.98000 44.618
41.00000 42.244
41.02000 37.204
41.04000 35.365
41.06000 34.907
41.08000 31.167
41.10000 24.716
41.12000 22.120
41.14000 23.662
41.16000 26.152
41.18000 21.674
41.20000 20.800
41.22000 20.647
41.24000 16.557
41.26000 17.190
41.28000 18.530
41.30000 16.040
41.32000 18.966
41.34000 17.697
41.36000 14.863
41.38000 13.584
41.40000 13.006
41.42000 12.813
41.44000 10.685
41.46000 15.221
41.48000 13.366
41.50000 8.272
41.52000 9.854
41.54000 9.769
41.56000 7.126
41.58000 2.665
41.60000 2.310
41.62000 6.998
41.64000 5.607
41.66000 3.191
41.68000 4.076
41.70000 5.081
41.72000 6.742
41.74000 5.730
41.76000 3.390
41.78000 -0.501
41.80000 2.337
41.82000 3.392
41.84000 1.889
41.86000 2.005
41.88000 1.015
41.90000 0.175
41.92000 4.490
41.94000 2.197
41.96000 0.558
41.98000 1.802
42.00000 2.485
42.02000 0.580
42.04000 2.931
42.06000 0.471
42.08000 -2.536
42.10000 -1.605
42.12000 2.307
42.14000 3.440
42.16000 3.315
42.18000 2.029
42.20000 1.206
42.22000 4.227
42.24000 -1.375
42.26000 -1.114
42.28000 0.715
42.30000 1.687
42.32000 -0.060
42.34000 -0.486
42.36000 5.102
42.38000 6.202
42.40000 -2.351
42.42000 -2.294
42.44000 -0.921
42.46000 1.239
42.48000 2.319
42.50000 0.574
42.52000 -0.918
42.54000 2.241
42.56000 1.668
42.58000 2.240
42.60000 0.719
42.62000 5.614
42.64000 1.225
42.66000 -3.387
42.68000 -1.547
42.70000 0.935
42.72000 3.176
42.74000 1.511
42.76000 -1.217
42.78000 -0.356
42.80000 -1.845
42.82000 -2.387
42.84000 -2.038
42.86000 0.099
42.88000 2.561
42.90000 2.963
42.92000 -0.947
42.94000 4.155
42.96000 3.551
42.98000 3.724
43.00000 2.908
43.02000 -0.362
43.04000 -0.644
43.06000 -0.336
43.08000 1.752
43.10000 0.704
43.12000 2.749
43.14000 5.149
43.16000 3.002
43.18000 1.596
43.20000 0.378
43.22000 -0.105
43.24000 1.058
43.26000 2.202
43.28000 3.940
43.30000 7.025
43.32000 5.896
43.34000 1.159
43.36000 -3.285
43.38000 -1.872
43.40000 3.554
43.42000 1.822
43.44000 2.285
43.46000 7.113
43.48000 7.426
43.50000 4.810
43.52000 2.650
43.54000 3.267
43.56000 1.901
43.58000 4.052
43.60000 2.412
43.62000 0.068
43.64000 0.053
43.66000 1.052
43.68000 -2.398
43.70000 -2.140
43.72000 -3.278
43.74000 -0.759
43.76000 2.477
43.78000 0.465
43.80000 2.653
43.82000 4.899
43.84000 -1.551
43.86000 0.233
43.88000 -0.461
43.90000 0.348
43.92000 -0.668
43.94000 0.029
43.96000 1.656
43.98000 3.896
44.00000 2.761
44.02000 3.504
44.04000 3.344
44.06000 3.433
44.08000 4.634
44.10000 -0.822
44.12000 -0.702
44.14000 -2.182
44.16000 0.367
44.18000 4.793
44.20000 4.472
44.22000 2.039
44.24000 0.721
44.26000 0.568
44.28000 2.414
44.30000 1.525
44.32000 2.490
44.34000 1.947
44.36000 4.048
44.38000 2.245
44.40000 0.856
44.42000 3.064
44.44000 2.295
44.46000 1.510
44.48000 0.416
44.50000 2.042
44.52000 0.878
44.54000 -1.139
44.56000 -0.658
44.58000 -1.858
44.60000 0.172
44.62000 -3.256
44.64000 -1.512
44.66000 3.709
44.68000 5.805
44.70000 3.026
44.72000 2.327
44.74000 3.556
44.76000 3.579
44.78000 8.115
44.80000 4.636
44.82000 2.908
44.84000 2.420
44.86000 -1.045
44.88000 0.129
44.90000 4.444
44.92000 10.097
44.94000 11.137
44.96000 6.214
44.98000 5.163
45.00000 8.850
45.02000 8.894
45.04000 4.218
45.06000 2.572
45.08000 3.723
45.10000 3.178
45.12000 3.573
45.14000 8.020
45.16000 6.769
45.18000 3.996
45.20000 8.644
45.22000 9.870
45.24000 7.039
45.26000 8.043
45.28000 9.733
45.30000 7.933
45.32000 9.408
45.34000 14.512
45.36000 8.938
45.38000 7.422
45.40000 9.078
45.42000 13.617
45.44000 13.284
45.46000 13.298
45.48000 14.245
45.50000 17.841
45.52000 20.408
45.54000 20.037
45.56000 18.459
45.58000 23.881
45.60000 24.383
45.62000 27.205
45.64000 25.013
45.66000 25.171
45.68000 27.581
45.70000 25.739
45.72000 28.430
45.74000 27.062
45.76000 28.499
45.78000 30.291
45.80000 38.305
45.82000 42.254
45.84000 43.851
45.86000 39.489
45.88000 41.788
45.90000 40.770
45.92000 40.376
45.94000 39.060
45.96000 42.176
45.98000 41.736
46.00000 40.835
46.02000 48.199
46.04000 52.571
46.06000 51.142
46.08000 53.057
46.10000 55.701
46.12000 53.588
46.14000 55.383
46.16000 62.713
46.18000 69.429
46.20000 67.944
46.22000 70.914
46.24000 75.430
46.26000 67.053
46.28000 61.475
46.30000 67.580
46.32000 66.487
46.34000 68.857
46.36000 70.179
46.38000 67.466
46.40000 68.712
46.42000 69.199
46.44000 69.455
46.46000 68.915
46.48000 70.882
46.50000 74.036
46.52000 71.960
46.54000 65.420
46.56000 64.547
46.58000 72.555
46.60000 75.286
46.62000 76.568
46.64000 72.615
46.66000 63.597
46.68000 64.305
46.70000 65.980
46.72000 61.565
46.74000 63.066
46.76000 61.061
46.78000 61.931
46.80000 60.437
46.82000 58.293
46.84000 55.444
46.86000 52.925
46.88000 53.392
46.90000 51.470
46.92000 50.381
46.94000 47.165
46.96000 46.523
46.98000 44.970
47.00000 39.423
47.02000 38.306
47.04000 39.760
47.06000 44.014
47.08000 39.891
47.10000 36.230
47.12000 34.105
47.14000 32.770
47.16000 24.791
47.18000 29.786
47.20000 29.765
47.22000 26.346
47.24000 24.400
47.26000 23.923
47.28000 21.808
47.30000 17.899
47.32000 17.054
47.34000 17.837
47.36000 19.045
47.38000 19.288
47.40000 15.747
47.42000 16.341
47.44000 17.049
47.46000 11.704
47.48000 13.318
47.50000 11.503
47.52000 8.942
47.54000 9.346
47.56000 8.845
47.58000 13.226
47.60000 13.591
47.62000 11.369
47.64000 11.045
47.66000 7.394
47.68000 5.969
47.70000 2.659
47.72000 3.530
47.74000 1.080
47.76000 1.814
47.78000 1.845
47.80000 4.764
47.82000 1.893
47.84000 4.055
47.86000 -0.995
47.88000 0.381
47.90000 1.223
47.92000 -2.564
47.94000 1.428
47.96000 5.554
47.98000 2.535
48.00000 0.441
48.02000 4.797
48.04000 6.216
48.06000 5.463
48.08000 2.986
48.10000 2.336
48.12000 3.251
48.14000 -1.476
48.16000 -2.570
48.18000 -2.748
48.20000 -1.818
48.22000 -0.183
48.24000 5.801
48.26000 4.159
48.28000 7.365
48.30000 5.573
48.32000 2.479
48.34000 0.283
48.36000 2.166
48.38000 1.863
48.40000 -2.739
48.42000 -2.262
48.44000 0.108
48.46000 1.851
48.48000 1.140
48.50000 1.628
48.52000 4.258
48.54000 -2.880
48.56000 1.166
48.58000 0.301
48.60000 1.565
48.62000 0.692
48.64000 -0.460
48.66000 4.336
48.68000 5.182
48.70000 4.976
48.72000 1.571
48.74000 5.107
48.76000 4.265
48.78000 0.863
48.80000 -2.671
48.82000 0.037
48.84000 -1.585
48.86000 2.686
48.88000 0.568
48.90000 -0.131
48.92000 0.131
48.94000 1.520
48.96000 0.413
48.98000 3.674
49.00000 6.777
49.02000 1.916
49.04000 4.305
49.06000 4.196
49.08000 6.250
49.10000 1.603
49.12000 -0.115
49.14000 2.729
49.16000 3.564
49.18000 2.348
49.20000 -1.647
49.22000 -2.836
49.24000 -1.836
49.26000 1.548
49.28000 3.928
49.30000 3.791
49.32000 2.684
49.34000 0.646
49.36000 1.268
49.38000 -0.053
49.40000 0.115
49.42000 -2.648
49.44000 -2.471
49.46000 -2.075
49.48000 -0.242
49.50000 4.274
49.52000 -0.287
49.54000 0.141
49.56000 1.431
49.58000 2.458
49.60000 -2.799
49.62000 -2.275
49.64000 1.699
49.66000 0.694
49.68000 1.906
49.70000 5.856
49.72000 1.776
49.74000 4.790
49.76000 4.928
49.78000 4.686
49.80000 4.109
49.82000 -0.044
49.84000 0.536
49.86000 3.221
49.88000 5.805
49.90000 3.143
49.92000 4.386
49.94000 1.926
49.96000 -0.188
49.98000 -1.330
50.00000 -1.523
50.02000 1.781
50.04000 2.368
50.06000 3.523
50.08000 3.444
50.10000 4.746
50.12000 1.926
50.14000 1.390
50.16000 3.607
50.18000 3.007
50.20000 1.485
50.22000 -0.188
50.24000 4.145
50.26000 2.783
50.28000 1.002
50.30000 2.604
50.32000 3.489
50.34000 3.839
50.36000 2.761
50.38000 4.945
50.40000 6.228
50.42000 3.017
50.44000 6.182
50.46000 6.143
50.48000 7.392
50.50000 4.935
50.52000 0.712
50.54000 2.059
50.56000 -2.718
50.58000 -1.660
50.60000 0.652
50.62000 3.032
50.64000 2.684
50.66000 1.952
50.68000 2.249
50.70000 5.845
50.72000 3.374
50.74000 5.444
50.76000 2.847
50.78000 1.276
50.80000 0.287
50.82000 1.109
50.84000 3.904
50.86000 2.585
50.88000 4.653
50.90000 6.828
50.92000 4.123
50.94000 0.846
50.96000 2.892
50.98000 6.574
51.00000 4.942
51.02000 5.446
51.04000 3.398
51.06000 2.328
51.08000 3.834
51.10000 3.691
51.12000 1.858
51.14000 4.504
51.16000 4.008
51.18000 0.275
51.20000 2.512
51.22000 -0.061
51.24000 2.957
51.26000 1.766
51.28000 0.699
51.30000 5.331
51.32000 3.278
51.34000 2.560
51.36000 3.513
51.38000 -0.882
51.40000 0.775
51.42000 -0.692
51.44000 -2.718
51.46000 1.316
51.48000 4.346
51.50000 3.326
51.52000 2.274
51.54000 -0.944
51.56000 0.766
51.58000 6.913
51.60000 4.868
51.62000 2.028
51.64000 -0.957
51.66000 3.409
51.68000 3.901
51.70000 4.062
51.72000 -1.893
51.74000 0.311
51.76000 -1.572
51.78000 -0.313
51.80000 0.281
51.82000 0.460
51.84000 -1.612
51.86000 1.059
51.88000 -1.206
51.90000 -1.307
51.92000 -0.060
51.94000 2.394
51.96000 3.318
51.98000 3.076
52.00000 4.868
52.02000 -1.448
52.04000 -0.153
52.06000 -0.230
52.08000 1.732
52.10000 2.038
52.12000 2.529
52.14000 3.682
52.16000 5.340
52.18000 4.921
52.20000 3.307
52.22000 5.888
52.24000 3.395
52.26000 2.921
52.28000 -0.073
52.30000 3.027
52.32000 2.979
52.34000 4.612
52.36000 1.892
52.38000 -2.676
52.40000 -2.355
52.42000 -0.613
52.44000 0.561
52.46000 3.997
52.48000 3.476
52.50000 2.131
52.52000 1.285
52.54000 0.960
52.56000 0.393
52.58000 4.901
52.60000 7.567
52.62000 3.422
52.64000 5.164
52.66000 4.044
52.68000 5.162
52.70000 0.156
52.72000 -1.765
52.74000 2.950
52.76000 2.294
52.78000 2.022
52.80000 0.208
52.82000 1.423
52.84000 -2.660
52.86000 -0.641
52.88000 3.002
52.90000 4.668
52.92000 5.598
52.94000 -1.628
52.96000 0.881
52.98000 1.529
53.00000 1.332
53.02000 1.392
53.04000 2.008
53.06000 3.757
53.08000 2.091
53.10000 3.441
53.12000 5.365
53.14000 6.014
53.16000 2.759
53.18000 0.789
53.20000 0.576
53.22000 3.117
53.24000 2.449
53.26000 -1.811
53.28000 -2.166
53.30000 2.625
53.32000 6.274
53.34000 9.987
53.36000 5.173
53.38000 -0.486
53.40000 -0.659
53.42000 1.209
53.44000 0.346
53.46000 0.471
53.48000 0.041
53.50000 4.575
53.52000 6.155
53.54000 2.512
53.56000 -1.836
53.58000 -0.430
53.60000 2.180
53.62000 2.592
53.64000 0.795
53.66000 -0.154
53.68000 1.286
53.70000 1.788
53.72000 5.222
53.74000 5.838
53.76000 3.922
53.78000 3.361
53.80000 3.748
53.82000 3.273
53.84000 2.481
53.86000 2.024
53.88000 1.496
53.90000 2.054
53.92000 0.098
53.94000 -1.395
53.96000 -0.911
53.98000 -0.549
54.00000 -1.363
54.02000 -0.010
54.04000 2.631
54.06000 1.133
54.08000 3.597
54.10000 2.681
54.12000 3.397
54.14000 4.548
54.16000 2.150
54.18000 -2.280
54.20000 2.225
54.22000 2.395
54.24000 6.734
54.26000 6.080
54.28000 1.290
54.30000 0.828
54.32000 -1.873
54.34000 2.943
54.36000 3.253
54.38000 8.215
54.40000 7.560
54.42000 1.699
54.44000 -0.383
54.46000 0.065
54.48000 -0.491
54.50000 -1.808
54.52000 1.564
54.54000 5.832
54.56000 3.600
54.58000 2.776
54.60000 1.260
54.62000 -2.622
54.64000 2.649
54.66000 7.786
54.68000 3.962
54.70000 2.783
54.72000 0.212
54.74000 3.761
54.76000 3.162
54.78000 5.339
54.80000 6.449
54.82000 4.413
54.84000 -1.100
54.86000 1.816
54.88000 -0.405
54.90000 2.280
54.92000 3.702
54.94000 4.841
54.96000 5.146
54.98000 1.410
55.00000 3.362
55.02000 2.808
55.04000 3.473
55.06000 3.350
55.08000 5.574
55.10000 4.796
55.12000 -2.612
55.14000 -1.740
55.16000 -1.481
55.18000 -0.435
55.20000 -0.374
55.22000 2.668
55.24000 1.967
55.26000 -1.546
55.28000 4.120
55.30000 2.818
55.32000 2.618
55.34000 3.944
55.36000 2.990
55.38000 1.314
55.40000 2.492
55.42000 3.292
55.44000 -0.002
55.46000 -1.243
55.48000 -0.055
55.50000 2.864
55.52000 3.208
55.54000 1.423
55.56000 1.181
55.58000 2.268
55.60000 5.607
55.62000 0.367
55.64000 0.288
55.66000 1.862
55.68000 -0.403
55.70000 2.908
55.72000 3.458
55.74000 -2.387
55.76000 -2.600
55.78000 5.455
55.80000 6.563
55.82000 4.067
55.84000 4.386
55.86000 5.402
55.88000 -2.438
55.90000 -1.771
55.92000 5.139
55.94000 -0.680
55.96000 0.100
55.98000 1.938
56.00000 1.437
56.02000 -0.349
56.04000 0.448
56.06000 1.967
56.08000 0.687
56.10000 0.201
56.12000 4.746
56.14000 2.059
56.16000 0.652
56.18000 2.003
56.20000 2.244
56.22000 6.014
56.24000 3.564
56.26000 -1.524
56.28000 -2.422
56.30000 1.587
56.32000 5.833
56.34000 2.482
56.36000 -2.316
56.38000 0.280
56.40000 3.562
56.42000 5.082
56.44000 3.535
56.46000 0.770
56.48000 0.940
56.50000 0.342
56.52000 -0.701
56.54000 3.662
56.56000 5.366
56.58000 4.241
56.60000 -1.496
56.62000 0.797
56.64000 0.489
56.66000 2.419
56.68000 0.911
56.70000 -2.593
56.72000 0.144
56.74000 1.317
56.76000 2.635
56.78000 -0.254
56.80000 -0.900
56.82000 3.293
56.84000 3.670
56.86000 2.843
56.88000 -0.301
56.90000 1.345
56.92000 -1.297
56.94000 -0.545
56.96000 2.607
56.98000 0.615
57.00000 1.970
57.02000 -0.719
57.04000 -1.330
57.06000 0.220
57.08000 1.528
57.10000 1.251
57.12000 1.303
57.14000 3.987
57.16000 1.833
57.18000 -0.901
57.20000 -2.569
57.22000 0.248
57.24000 2.340
57.26000 2.368
57.28000 2.809
57.30000 2.580
57.32000 1.955
57.34000 1.498
57.36000 1.031
57.38000 -0.258
57.40000 2.935
57.42000 3.485
57.44000 -0.546
57.46000 -0.162
57.48000 4.494
57.50000 4.773
57.52000 0.641
57.54000 -1.398
57.56000 1.456
57.58000 3.875
57.60000 3.557
57.62000 3.955
57.64000 3.363
57.66000 3.250
57.68000 2.398
57.70000 -2.544
57.72000 -0.027
57.74000 0.118
57.76000 -0.552
57.78000 -0.996
57.80000 0.326
57.82000 3.236
57.84000 3.965
57.86000 5.218
57.88000 2.964
57.90000 1.879
57.92000 3.955
57.94000 3.332
57.96000 2.451
57.98000 0.357
58.00000 0.448
58.02000 0.733
58.04000 -0.520
58.06000 2.456
58.08000 7.261
58.10000 1.281
58.12000 2.789
58.14000 0.673
58.16000 -2.108
58.18000 -0.454
58.20000 -2.293
58.22000 4.347
58.24000 1.233
58.26000 0.768
58.28000 -2.052
58.30000 0.955
58.32000 1.170
58.34000 2.448
58.36000 1.225
58.38000 0.225
58.40000 -0.561
58.42000 1.443
58.44000 6.212
58.46000 6.842
58.48000 6.363
58.50000 3.185
58.52000 5.271
58.54000 3.303
58.56000 1.045
58.58000 -0.544
58.60000 1.077
58.62000 0.178
58.64000 4.608
58.66000 8.913
58.68000 5.735
58.70000 0.407
58.72000 0.174
58.74000 4.463
58.76000 6.243
58.78000 9.312
58.80000 5.312
58.82000 3.124
58.84000 2.176
58.86000 -2.515
58.88000 -0.065
58.90000 -0.032
58.92000 0.668
58.94000 0.394
58.96000 1.219
58.98000 1.802
59.00000 4.045
59.02000 4.133
59.04000 -0.929
59.06000 -1.702
59.08000 -2.505
59.10000 -0.649
59.12000 0.391
59.14000 1.533
59.16000 2.386
59.18000 3.762
59.20000 0.680
59.22000 -2.227
59.24000 -1.296
59.26000 1.855
59.28000 -0.300
59.30000 1.055
59.32000 0.351
59.34000 1.153
59.36000 2.193
59.38000 -1.932
59.40000 2.418
59.42000 2.377
59.44000 2.356
59.46000 1.802
59.48000 1.313
59.50000 0.759
59.52000 -0.513
59.54000 1.050
59.56000 2.841
59.58000 -1.678
59.60000 0.234
59.62000 2.570
59.64000 1.729
59.66000 -2.493
59.68000 0.853
59.70000 4.197
59.72000 9.535
59.74000 1.451
59.76000 2.329
59.78000 1.307
59.80000 0.863
59.82000 1.231
59.84000 4.869
59.86000 1.486
59.88000 -1.535
59.90000 3.940
59.92000 1.835
59.94000 -0.798
59.96000 -1.924
59.98000 1.157
60.00000 -1.730
60.02000 0.788
60.04000 -1.469
60.06000 -1.144
60.08000 4.606
60.10000 1.352
60.12000 2.246
60.14000 3.618
60.16000 4.304
60.18000 2.215
60.20000 3.161
60.22000 -1.096
60.24000 1.599
60.26000 1.901
60.28000 5.062
60.30000 -2.461
60.32000 3.646
60.34000 5.234
60.36000 2.020
60.38000 0.278
60.40000 2.451
60.42000 -0.260
60.44000 -1.112
60.46000 1.013
60.48000 2.735
60.50000 2.335
60.52000 4.517
60.54000 5.309
60.56000 7.202
60.58000 8.699
60.60000 6.974
60.62000 3.633
60.64000 2.754
60.66000 3.589
60.68000 0.694
60.70000 -0.062
60.72000 3.924
60.74000 1.445
60.76000 2.345
60.78000 1.056
60.80000 4.035
60.82000 6.304
60.84000 2.460
60.86000 3.116
60.88000 4.453
60.90000 5.095
60.92000 2.622
60.94000 3.321
60.96000 4.973
60.98000 1.116
61.00000 1.228
61.02000 3.673
61.04000 7.393
61.06000 5.439
61.08000 4.724
61.10000 5.760
61.12000 3.536
61.14000 1.968
61.16000 1.797
61.18000 -0.606
61.20000 -2.415
61.22000 0.658
61.24000 1.693
61.26000 2.407
61.28000 1.913
61.30000 9.874
61.32000 7.640
61.34000 1.013
61.36000 -0.972
61.38000 2.851
61.40000 2.773
61.42000 1.124
61.44000 -0.129
61.46000 -0.503
61.48000 0.937
61.50000 2.242
61.52000 3.827
61.54000 4.210
61.56000 4.104
61.58000 2.055
61.60000 -0.024
61.62000 1.961
61.64000 3.065
61.66000 2.889
61.68000 2.512
61.70000 2.565
61.72000 2.354
61.74000 1.762
61.76000 1.272
61.78000 0.987
61.80000 -0.111
61.82000 -2.424
61.84000 1.002
61.86000 1.871
61.88000 2.484
61.90000 2.744
61.92000 5.459
61.94000 3.434
61.96000 2.780
61.98000 6.361
62.00000 4.262
62.02000 4.443
62.04000 -0.328
62.06000 -2.228
62.08000 0.027
62.10000 1.357
62.12000 -1.117
62.14000 1.194
62.16000 2.630
62.18000 -2.426
62.20000 0.131
62.22000 2.813
62.24000 2.129
62.26000 2.385
62.28000 2.631
62.30000 5.580
62.32000 0.565
62.34000 -0.583
62.36000 0.929
62.38000 0.588
62.40000 -1.718
62.42000 2.017
62.44000 3.229
62.46000 2.365
62.48000 3.414
62.50000 3.179
62.52000 2.804
62.54000 0.722
62.56000 3.933
62.58000 -1.329
62.60000 3.051
62.62000 4.315
62.64000 0.775
62.66000 -2.419
62.68000 2.561
62.70000 1.661
62.72000 -0.047
62.74000 -0.280
62.76000 2.219
62.78000 0.728
62.80000 2.689
62.82000 5.029
62.84000 2.760
62.86000 -1.160
62.88000 3.823
62.90000 4.905
62.92000 4.197
62.94000 4.105
62.96000 2.088
62.98000 1.913
63.00000 3.132
63.02000 2.031
63.04000 0.420
63.06000 0.450
63.08000 1.929
63.10000 3.907
63.12000 7.319
63.14000 3.287
63.16000 3.373
63.18000 3.858
63.20000 1.599
63.22000 1.229
63.24000 4.654
63.26000 3.848
63.28000 0.299
63.30000 -2.424
63.32000 -1.261
63.34000 1.829
63.36000 5.549
63.38000 4.646
63.40000 1.901
63.42000 -0.906
63.44000 3.516
63.46000 2.742
63.48000 2.832
63.50000 6.845
63.52000 5.286
63.54000 1.517
63.56000 1.515
63.58000 -1.297
63.60000 2.173
63.62000 4.921
63.64000 2.574
63.66000 1.299
63.68000 2.968
63.70000 0.786
63.72000 -1.739
63.74000 1.114
63.76000 -0.095
63.78000 -0.639
63.80000 3.069
63.82000 2.808
63.84000 1.025
63.86000 1.184
63.88000 -0.692
63.90000 0.934
63.92000 2.139
63.94000 1.228
63.96000 -1.344
63.98000 -0.922
64.00000 2.383
64.02000 0.879
64.04000 -0.065
64.06000 2.040
64.08000 0.802
64.10000 -0.560
64.12000 -0.093
64.14000 -0.547
64.16000 1.967
64.18000 2.045
64.20000 0.684
64.22000 -1.061
64.24000 2.616
64.26000 -0.990
64.28000 -1.098
64.30000 1.617
64.32000 1.218
64.34000 0.355
64.36000 0.852
64.38000 0.190
64.40000 0.862
64.42000 1.550
64.44000 4.618
64.46000 1.987
64.48000 -0.774
64.50000 -1.997
64.52000 -0.462
64.54000 -0.108
64.56000 6.975
64.58000 5.883
64.60000 5.765
64.62000 7.455
64.64000 2.425
64.66000 0.437
64.68000 2.372
64.70000 3.974
64.72000 0.412
64.74000 2.136
64.76000 2.176
64.78000 4.385
64.80000 6.660
64.82000 4.890
64.84000 -0.531
64.86000 0.768
64.88000 5.721
64.90000 7.394
64.92000 5.250
64.94000 2.476
64.96000 2.472
64.98000 1.163
65.00000 3.153
65.02000 6.882
65.04000 4.037
65.06000 4.791
65.08000 5.178
65.10000 3.910
65.12000 4.996
65.14000 7.681
65.16000 6.464
65.18000 3.515
65.20000 5.531
65.22000 5.963
65.24000 5.379
65.26000 5.590
65.28000 5.085
65.30000 1.679
65.32000 -2.395
65.34000 3.611
65.36000 7.027
65.38000 4.846
65.40000 5.635
65.42000 9.650
65.44000 6.724
65.46000 2.519
65.48000 2.939
65.50000 7.909
65.52000 4.765
65.54000 3.456
65.56000 -1.074
65.58000 0.929
65.60000 1.370
65.62000 3.451
65.64000 4.638
65.66000 3.699
65.68000 8.055
65.70000 1.948
65.72000 0.474
65.74000 0.065
65.76000 3.150
65.78000 1.196
65.80000 1.178
65.82000 3.377
65.84000 1.304
65.86000 3.074
65.88000 3.900
65.90000 2.554
65.92000 5.039
65.94000 5.316
65.96000 3.185
65.98000 4.839
66.00000 3.357
66.02000 1.608
66.04000 -0.282
66.06000 1.916
66.08000 2.063
66.10000 1.777
66.12000 4.294
66.14000 3.300
66.16000 0.663
66.18000 2.170
66.20000 -2.358
66.22000 0.424
66.24000 4.272
66.26000 1.981
66.28000 2.708
66.30000 2.005
66.32000 2.104
66.34000 1.586
66.36000 -0.663
66.38000 -1.800
66.40000 1.980
66.42000 1.168
66.44000 3.462
66.46000 1.397
66.48000 -1.623
66.50000 1.144
66.52000 2.303
66.54000 2.734
66.56000 1.973
66.58000 1.684
66.60000 1.775
66.62000 4.669
66.64000 3.679
66.66000 3.365
66.68000 8.140
66.70000 9.771
66.72000 8.384
66.74000 6.236
66.76000 5.470
66.78000 5.779
66.80000 5.789
66.82000 2.356
66.84000 4.808
66.86000 2.322
66.88000 6.633
66.90000 3.837
66.92000 6.619
66.94000 9.640
66.96000 8.411
66.98000 10.237
67.00000 11.613
67.02000 10.344
67.04000 9.290
67.06000 9.423
67.08000 11.911
67.10000 12.618
67.12000 9.834
67.14000 8.009
67.16000 8.528
67.18000 11.633
67.20000 12.800
67.22000 11.767
67.24000 16.321
67.26000 16.908
67.28000 13.099
67.30000 10.916
67.32000 13.705
67.34000 12.625
67.36000 15.981
67.38000 16.252
67.40000 16.927
67.42000 18.467
67.44000 22.013
67.46000 18.333
67.48000 19.255
67.50000 19.845
67.52000 18.686
67.54000 18.230
67.56000 21.431
67.58000 21.667
67.60000 16.588
67.62000 19.674
67.64000 19.747
67.66000 20.696
67.68000 22.843
67.70000 23.342
67.72000 19.747
67.74000 17.509
67.76000 20.118
67.78000 15.991
67.80000 19.335
67.82000 17.928
67.84000 14.854
67.86000 14.898
67.88000 18.299
67.90000 20.366
67.92000 19.678
67.94000 19.763
67.96000 17.291
67.98000 15.050
68.00000 15.141
68.02000 16.995
68.04000 21.043
68.06000 17.081
68.08000 14.724
68.10000 13.407
68.12000 14.016
68.14000 13.724
68.16000 9.862
68.18000 14.053
68.20000 12.950
68.22000 15.253
68.24000 10.127
68.26000 13.386
68.28000 8.933
68.30000 10.315
68.32000 10.447
68.34000 10.666
68.36000 7.830
68.38000 9.424
68.40000 9.930
68.42000 9.024
68.44000 9.767
68.46000 7.795
68.48000 5.295
68.50000 7.065
68.52000 6.155
68.54000 3.682
68.56000 1.225
68.58000 -0.222
68.60000 1.824
68.62000 2.505
68.64000 4.075
68.66000 4.380
68.68000 2.466
68.70000 3.823
68.72000 5.358
68.74000 6.276
68.76000 4.469
68.78000 3.087
68.80000 1.495
68.82000 1.505
68.84000 2.906
68.86000 1.443
68.88000 1.751
68.90000 0.482
68.92000 0.512
68.94000 2.020
68.96000 0.896
68.98000 -1.699
69.00000 -1.012
69.02000 -0.042
69.04000 1.787
69.06000 2.917
69.08000 1.251
69.10000 -0.902
69.12000 1.305
69.14000 -0.897
69.16000 -1.858
69.18000 1.094
69.20000 0.183
69.22000 2.024
69.24000 3.863
69.26000 3.150
69.28000 1.793
69.30000 0.377
69.32000 1.059
69.34000 3.388
69.36000 1.552
69.38000 0.009
69.40000 -1.143
69.42000 -2.391
69.44000 -0.969
69.46000 0.559
69.48000 1.369
69.50000 0.932
69.52000 3.038
69.54000 0.624
69.56000 0.716
69.58000 1.000
69.60000 0.904
69.62000 -0.230
69.64000 3.431
69.66000 3.324
69.68000 -0.426
69.70000 2.452
69.72000 1.262
69.74000 0.722
69.76000 -1.515
69.78000 -0.357
69.80000 0.888
69.82000 -1.428
69.84000 0.772
69.86000 2.365
69.88000 0.759
69.90000 -0.534
69.92000 -0.166
69.94000 -1.077
69.96000 -2.373
69.98000 -1.949
70.00000 -1.344
70.02000 -0.255
70.04000 1.080
70.06000 3.680
70.08000 1.872
70.10000 2.653
70.12000 1.193
70.14000 0.320
70.16000 2.406
70.18000 0.517
70.20000 2.028
70.22000 2.924
70.24000 -0.490
70.26000 -0.163
70.28000 2.234
70.30000 3.246
70.32000 0.033
70.34000 -0.356
70.36000 -1.624
70.38000 -1.098
70.40000 2.332
70.42000 2.852
70.44000 2.346
70.46000 -2.354
70.48000 -1.674
70.50000 -2.017
70.52000 -0.289
70.54000 -1.381
70.56000 0.063
70.58000 3.603
70.60000 2.551
70.62000 1.848
70.64000 3.268
70.66000 5.249
70.68000 0.352
70.70000 1.401
70.72000 1.390
70.74000 0.311
70.76000 1.566
70.78000 3.472
70.80000 -0.236
70.82000 1.373
70.84000 0.308
70.86000 -0.408
70.88000 -1.268
70.90000 0.378
70.92000 0.865
70.94000 -1.286
70.96000 1.057
70.98000 1.877
71.00000 -2.323
71.02000 -1.089
71.04000 -0.219
71.06000 0.789
71.08000 -2.011
71.10000 -2.102
71.12000 -0.809
71.14000 1.870
71.16000 6.746
71.18000 4.245
71.20000 1.059
71.22000 0.073
71.24000 1.304
71.26000 3.881
71.28000 4.687
71.30000 1.604
71.32000 -0.038
71.34000 1.327
71.36000 6.971
71.38000 5.500
71.40000 0.425
71.42000 -0.189
71.44000 0.545
71.46000 4.346
71.48000 6.181
71.50000 2.857
71.52000 0.368
71.54000 1.327
71.56000 1.086
71.58000 5.449
71.60000 3.569
71.62000 2.874
71.64000 2.756
71.66000 2.876
71.68000 5.542
71.70000 5.591
71.72000 5.228
71.74000 6.530
71.76000 6.010
71.78000 3.246
71.80000 1.065
71.82000 1.825
71.84000 -0.987
71.86000 -1.653
71.88000 4.580
71.90000 7.624
71.92000 7.744
71.94000 2.240
71.96000 0.169
71.98000 1.284
72.00000 6.162
72.02000 6.920
72.04000 3.916
72.06000 2.387
72.08000 4.008
72.10000 3.261
72.12000 4.507
72.14000 8.005
72.16000 6.203
72.18000 4.749
72.20000 2.628
72.22000 0.957
72.24000 0.936
72.26000 1.997
72.28000 3.886
72.30000 4.990
72.32000 6.748
72.34000 5.580
72.36000 6.286
72.38000 1.439
72.40000 -2.206
72.42000 0.670
72.44000 5.038
72.46000 6.402
72.48000 5.970
72.50000 7.830
72.52000 4.220
72.54000 5.478
72.56000 8.361
72.58000 6.001
72.60000 4.943
72.62000 6.602
72.64000 8.075
72.66000 9.636
72.68000 8.308
72.70000 4.778
72.72000 1.550
72.74000 4.026
72.76000 8.642
72.78000 5.682
72.80000 1.725
72.82000 4.548
72.84000 6.696
72.86000 5.093
72.88000 1.201
72.90000 -0.487
72.92000 1.765
72.94000 3.537
72.96000 4.108
72.98000 1.322
73.00000 1.605
73.02000 0.331
73.04000 3.097
73.06000 5.479
73.08000 3.533
73.10000 4.437
73.12000 3.181
73.14000 4.329
73.16000 -1.734
73.18000 0.203
73.20000 3.412
73.22000 3.190
73.24000 4.182
73.26000 4.796
73.28000 0.320
73.30000 4.914
73.32000 6.520
73.34000 4.310
73.36000 7.788
73.38000 5.626
73.40000 2.022
73.42000 1.048
73.44000 4.787
73.46000 3.421
73.48000 2.152
73.50000 0.704
73.52000 -2.243
73.54000 -0.972
73.56000 0.481
73.58000 1.195
73.60000 1.273
73.62000 0.986
73.64000 -2.218
73.66000 -0.404
73.68000 -1.864
73.70000 -0.063
73.72000 -1.317
73.74000 2.369
73.76000 2.116
73.78000 3.034
73.80000 1.187
73.82000 2.496
73.84000 1.897
73.86000 0.974
73.88000 2.661
73.90000 1.034
73.92000 -0.678
73.94000 1.176
73.96000 2.124
73.98000 3.523
74.00000 0.881
74.02000 2.557
74.04000 4.180
74.06000 3.344
74.08000 -1.873
74.10000 1.734
74.12000 2.372
74.14000 2.470
74.16000 5.485
74.18000 3.344
74.20000 4.657
74.22000 1.499
74.24000 0.814
74.26000 3.532
74.28000 3.887
74.30000 3.116
74.32000 5.633
74.34000 2.560
74.36000 6.364
74.38000 4.043
74.40000 -0.843
74.42000 0.431
74.44000 3.184
74.46000 1.651
74.48000 2.384
74.50000 3.479
74.52000 0.281
74.54000 1.201
74.56000 2.429
74.58000 -0.366
74.60000 -1.157
74.62000 -2.239
74.64000 0.994
74.66000 2.076
74.68000 3.766
74.70000 0.659
74.72000 2.304
74.74000 -0.751
74.76000 0.210
74.78000 0.786
74.80000 7.400
74.82000 6.561
74.84000 3.370
74.86000 0.570
74.88000 -0.368
74.90000 -2.239
74.92000 -1.099
74.94000 2.245
74.96000 2.860
74.98000 4.845
75.00000 4.591
75.02000 4.207
75.04000 3.896
75.06000 4.427
75.08000 2.057
75.10000 1.744
75.12000 1.524
75.14000 3.278
75.16000 4.176
75.18000 3.125
75.20000 2.467
75.22000 4.165
75.24000 2.638
75.26000 4.971
75.28000 5.009
75.30000 4.891
75.32000 6.183
75.34000 3.359
75.36000 2.110
75.38000 0.821
75.40000 3.322
75.42000 6.340
75.44000 3.239
75.46000 1.825
75.48000 0.346
75.50000 1.191
75.52000 -1.325
75.54000 -1.340
75.56000 -0.730
75.58000 3.201
75.60000 5.405
75.62000 2.960
75.64000 2.181
75.66000 3.302
75.68000 1.663
75.70000 4.305
75.72000 2.192
75.74000 1.948
75.76000 0.232
75.78000 -0.360
75.80000 -0.995
75.82000 -0.602
75.84000 4.200
75.86000 4.370
75.88000 5.906
75.90000 3.508
75.92000 5.119
75.94000 1.185
75.96000 6.186
75.98000 6.152
76.00000 1.115
76.02000 -2.236
76.04000 3.593
76.06000 3.529
76.08000 2.000
76.10000 5.910
76.12000 7.602
76.14000 5.301
76.16000 1.332
76.18000 -1.212
76.20000 -0.127
76.22000 1.424
76.24000 2.400
76.26000 2.309
76.28000 0.804
76.30000 3.424
76.32000 2.581
76.34000 0.519
76.36000 1.101
76.38000 1.694
76.40000 -0.573
76.42000 -1.334
76.44000 2.818
76.46000 0.530
76.48000 -2.252
76.50000 0.655
76.52000 0.907
76.54000 0.216
76.56000 4.750
76.58000 0.859
76.60000 1.704
76.62000 3.335
76.64000 1.796
76.66000 2.962
76.68000 1.146
76.70000 0.753
76.72000 2.206
76.74000 1.995
76.76000 0.557
76.78000 6.152
76.80000 6.058
76.82000 4.454
76.84000 5.509
76.86000 1.365
76.88000 2.468
76.90000 1.637
76.92000 1.474
76.94000 6.798
76.96000 1.446
76.98000 -2.263
77.00000 2.770
77.02000 7.222
77.04000 6.086
77.06000 4.341
77.08000 2.981
77.10000 2.051
77.12000 3.696
77.14000 3.781
77.16000 7.416
77.18000 6.241
77.20000 2.097
77.22000 2.668
77.24000 2.563
77.26000 2.725
77.28000 2.797
77.30000 3.765
77.32000 2.566
77.34000 1.456
77.36000 0.523
77.38000 1.385
77.40000 4.036
77.42000 1.971
77.44000 2.687
77.46000 2.773
77.48000 4.712
77.50000 4.704
77.52000 4.400
77.54000 0.269
77.56000 -2.287
77.58000 -1.587
77.60000 1.086
77.62000 4.605
77.64000 6.914
77.66000 7.672
77.68000 6.266
77.70000 7.433
77.72000 6.360
77.74000 2.255
77.76000 1.829
77.78000 -1.172
77.80000 -0.124
77.82000 2.469
77.84000 3.690
77.86000 6.044
77.88000 3.562
77.90000 -0.816
77.92000 1.664
77.94000 2.626
77.96000 1.440
77.98000 2.271
78.00000 5.053
78.02000 2.607
78.04000 1.011
78.06000 5.217
78.08000 3.356
78.10000 1.729
78.12000 1.685
78.14000 1.036
78.16000 0.937
78.18000 -0.032
78.20000 3.235
78.22000 2.727
78.24000 -0.080
78.26000 0.995
78.28000 1.504
78.30000 -2.326
78.32000 -1.336
78.34000 -1.629
78.36000 2.491
78.38000 5.220
78.40000 5.362
78.42000 5.241
78.44000 1.817
78.46000 1.004
78.48000 0.921
78.50000 -0.934
78.52000 3.271
78.54000 1.269
78.56000 1.454
78.58000 1.607
78.60000 1.097
78.62000 1.699
78.64000 3.168
78.66000 6.000
78.68000 5.105
78.70000 1.233
78.72000 0.342
78.74000 0.879
78.76000 3.911
78.78000 2.090
78.80000 -1.630
78.82000 0.107
78.84000 3.771
78.86000 3.749
78.88000 8.059
78.90000 6.844
78.92000 4.031
78.94000 3.469
78.96000 3.871
78.98000 4.684
79.00000 2.232
79.02000 3.358
79.04000 5.461
79.06000 3.615
79.08000 3.245
79.10000 -0.746
79.12000 -0.020
79.14000 0.007
79.16000 1.274
79.18000 3.498
79.20000 2.125
79.22000 5.743
79.24000 4.671
79.26000 2.945
79.28000 -1.999
79.30000 -1.634
79.32000 -1.566
79.34000 4.102
79.36000 -2.316
79.38000 1.755
79.40000 3.725
79.42000 2.916
79.44000 6.864
79.46000 6.116
79.48000 -1.901
79.50000 0.946
79.52000 1.682
79.54000 6.558
79.56000 2.378
79.58000 2.240
79.60000 0.276
79.62000 0.029
79.64000 2.484
79.66000 3.840
79.68000 2.675
79.70000 1.923
79.72000 4.218
79.74000 -0.155
79.76000 1.798
79.78000 0.993
79.80000 -0.181
79.82000 2.509
79.84000 2.672
79.86000 3.769
79.88000 0.654
79.90000 -0.457
79.92000 2.727
79.94000 4.808
79.96000 3.032
79.98000 4.282
80.00000 3.085
80.02000 0.394
80.04000 1.245
80.06000 1.602
80.08000 2.176
80.10000 2.448
80.12000 4.925
80.14000 3.056
80.16000 4.102
80.18000 4.512
80.20000 3.422
80.22000 3.156
80.24000 6.031
80.26000 6.435
80.28000 5.670
80.30000 5.606
80.32000 3.454
80.34000 3.605
80.36000 7.621
80.38000 2.173
80.40000 0.789
80.42000 4.641
80.44000 5.140
80.46000 5.903
80.48000 4.820
80.50000 6.376
80.52000 1.424
80.54000 5.441
80.56000 6.857
80.58000 5.577
80.60000 7.339
80.62000 8.665
80.64000 9.358
80.66000 12.818
80.68000 7.741
80.70000 7.983
80.72000 11.607
80.74000 9.478
80.76000 4.098
80.78000 4.374
80.80000 7.395
80.82000 12.588
80.84000 9.669
80.86000 11.491
80.88000 14.199
80.90000 12.459
80.92000 12.296
80.94000 14.805
80.96000 17.555
80.98000 18.412
81.00000 13.157
81.02000 10.018
81.04000 15.106
81.06000 14.598
81.08000 15.652
81.10000 16.381
81.12000 15.535
81.14000 14.496
81.16000 14.462
81.18000 16.036
81.20000 20.389
81.22000 21.639
81.24000 17.458
81.26000 19.195
81.28000 20.804
81.30000 14.164
81.32000 16.355
81.34000 22.253
81.36000 17.825
81.38000 15.095
81.40000 21.901
81.42000 16.517
81.44000 22.707
81.46000 24.874
81.48000 18.950
81.50000 18.765
81.52000 21.177
81.54000 17.895
81.56000 20.157
81.58000 20.620
81.60000 26.805
81.62000 29.215
81.64000 28.534
81.66000 27.380
81.68000 25.606
81.70000 20.988
81.72000 22.745
81.74000 27.231
81.76000 25.730
81.78000 27.461
81.80000 29.875
81.82000 21.912
81.84000 24.048
81.86000 23.772
81.88000 24.719
81.90000 28.260
81.92000 31.399
81.94000 26.981
81.96000 30.097
81.98000 22.339
82.00000 27.519
82.02000 26.768
82.04000 23.133
82.06000 21.478
82.08000 18.989
82.10000 23.952
82.12000 24.893
82.14000 22.449
82.16000 20.144
82.18000 17.991
82.20000 15.512
82.22000 12.848
82.24000 18.543
82.26000 19.881
82.28000 19.644
82.30000 21.375
82.32000 16.860
82.34000 12.096
82.36000 14.890
82.38000 15.485
82.40000 14.313
82.42000 19.492
82.44000 18.263
82.46000 16.282
82.48000 17.487
82.50000 14.657
82.52000 11.455
82.54000 17.047
82.56000 10.754
82.58000 11.422
82.60000 15.203
82.62000 14.399
82.64000 10.477
82.66000 8.961
82.68000 9.556
82.70000 16.313
82.72000 13.739
82.74000 12.701
82.76000 9.699
82.78000 15.915
82.80000 13.057
82.82000 11.188
82.84000 11.266
82.86000 10.726
82.88000 11.092
82.90000 10.139
82.92000 7.184
82.94000 5.904
82.96000 11.973
82.98000 13.080
83.00000 10.161
83.02000 8.451
83.04000 8.140
83.06000 8.154
83.08000 1.293
83.10000 -2.041
83.12000 -1.943
83.14000 -0.162
83.16000 3.063
83.18000 4.254
83.20000 5.229
83.22000 3.800
83.24000 3.414
83.26000 8.261
83.28000 5.453
83.30000 4.790
83.32000 5.582
83.34000 3.736
83.36000 2.978
83.38000 6.885
83.40000 4.331
83.42000 6.035
83.44000 6.580
83.46000 6.422
83.48000 5.152
83.50000 3.492
83.52000 -2.375
83.54000 5.049
83.56000 6.316
83.58000 7.924
83.60000 6.934
83.62000 3.681
83.64000 4.766
83.66000 3.112
83.68000 4.028
83.70000 2.716
83.72000 7.138
83.74000 6.580
83.76000 5.146
83.78000 3.422
83.80000 0.972
83.82000 2.876
83.84000 6.658
83.86000 3.882
83.88000 5.043
83.90000 3.964
83.92000 6.655
83.94000 6.230
83.96000 4.541
83.98000 3.398
84.00000 3.219
84.02000 5.260
84.04000 3.375
84.06000 4.311
84.08000 2.282
84.10000 5.085
84.12000 6.709
84.14000 7.631
84.16000 9.577
84.18000 6.763
84.20000 4.604
84.22000 5.376
84.24000 5.965
84.26000 4.523
84.28000 -0.870
84.30000 3.214
84.32000 0.101
84.34000 -2.359
84.36000 2.520
84.38000 3.989
84.40000 4.675
84.42000 4.129
84.44000 4.842
84.46000 5.271
84.48000 3.743
84.50000 1.924
84.52000 6.508
84.54000 8.261
84.56000 7.125
84.58000 5.979
84.60000 6.815
84.62000 6.794
84.64000 7.618
84.66000 5.933
84.68000 6.097
84.70000 3.926
84.72000 3.712
84.74000 6.997
84.76000 5.900
84.78000 7.342
84.80000 9.001
84.82000 10.638
84.84000 11.797
84.86000 7.899
84.88000 6.161
84.90000 5.783
84.92000 6.678
84.94000 8.555
84.96000 6.105
84.98000 9.033
85.00000 8.716
85.02000 6.260
85.04000 10.114
85.06000 11.206
85.08000 8.090
85.10000 10.495
85.12000 14.169
85.14000 16.462
85.16000 11.718
85.18000 15.153
85.20000 14.988
85.22000 10.266
85.24000 11.355
85.26000 13.487
85.28000 16.227
85.30000 14.624
85.32000 16.049
85.34000 17.049
85.36000 22.700
85.38000 19.977
85.40000 16.065
85.42000 19.123
85.44000 19.007
85.46000 15.517
85.48000 15.659
85.50000 18.882
85.52000 21.200
85.54000 19.185
85.56000 18.128
85.58000 18.326
85.60000 22.076
85.62000 24.355
85.64000 25.411
85.66000 24.097
85.68000 27.697
85.70000 24.539
85.72000 23.975
85.74000 20.366
85.76000 23.189
85.78000 25.136
85.80000 28.280
85.82000 29.745
85.84000 24.553
85.86000 24.501
85.88000 29.085
85.90000 28.372
85.92000 28.180
85.94000 26.645
85.96000 24.487
85.98000 30.819
86.00000 32.126
86.02000 31.002
86.04000 25.671
86.06000 25.339
86.08000 22.267
86.10000 22.560
86.12000 26.286
86.14000 28.193
86.16000 26.644
86.18000 25.397
86.20000 28.988
86.22000 22.842
86.24000 23.694
86.26000 20.478
86.28000 23.230
86.30000 25.389
86.32000 21.707
86.34000 15.574
86.36000 17.553
86.38000 23.355
86.40000 19.848
86.42000 19.730
86.44000 21.164
86.46000 21.294
86.48000 18.216
86.50000 16.026
86.52000 16.576
86.54000 11.348
86.56000 12.000
86.58000 14.173
86.60000 12.214
86.62000 13.576
86.64000 9.956
86.66000 12.311
86.68000 17.293
86.70000 21.194
86.72000 12.753
86.74000 10.800
86.76000 9.437
86.78000 10.509
86.80000 15.510
86.82000 14.555
86.84000 8.546
86.86000 9.991
86.88000 9.243
86.90000 9.334
86.92000 8.851
86.94000 7.106
86.96000 7.585
86.98000 7.242
87.00000 9.655
87.02000 8.493
87.04000 5.026
87.06000 5.910
87.08000 3.852
87.10000 2.683
87.12000 -0.904
87.14000 0.117
87.16000 5.304
87.18000 4.766
87.20000 1.899
87.22000 1.488
87.24000 3.188
87.26000 2.778
87.28000 7.123
87.30000 6.008
87.32000 6.951
87.34000 6.169
87.36000 3.859
87.38000 0.344
87.40000 1.412
87.42000 -2.217
87.44000 0.152
87.46000 6.345
87.48000 11.741
87.50000 8.492
87.52000 1.286
87.54000 1.915
87.56000 -0.730
87.58000 2.142
87.60000 0.114
87.62000 -1.074
87.64000 1.709
87.66000 0.770
87.68000 4.600
87.70000 2.865
87.72000 0.841
87.74000 4.354
87.76000 5.860
87.78000 4.064
87.80000 0.603
87.82000 3.055
87.84000 2.846
87.86000 -0.611
87.88000 0.792
87.90000 0.517
87.92000 0.009
87.94000 4.145
87.96000 0.097
87.98000 -1.791
88.00000 1.602
88.02000 3.466
88.04000 -0.021
88.06000 -0.173
88.08000 4.436
88.10000 3.804
88.12000 2.933
88.14000 1.531
88.16000 4.974
88.18000 2.715
88.20000 0.725
88.22000 3.926
88.24000 -0.128
88.26000 -1.213
88.28000 -2.159
88.30000 -0.293
88.32000 3.219
88.34000 3.220
88.36000 2.619
88.38000 -1.946
88.40000 2.575
88.42000 3.242
88.44000 1.112
88.46000 1.885
88.48000 3.203
88.50000 3.000
88.52000 3.470
88.54000 6.823
88.56000 7.280
88.58000 11.485
88.60000 4.329
88.62000 3.756
88.64000 2.474
88.66000 -2.127
88.68000 -1.205
88.70000 0.754
88.72000 -1.987
88.74000 -2.122
88.76000 -0.161
88.78000 1.813
88.80000 2.513
88.82000 2.321
88.84000 4.680
88.86000 3.726
88.88000 0.903
88.90000 1.742
88.92000 1.106
88.94000 2.073
88.96000 5.348
88.98000 0.516
89.00000 -0.171
89.02000 4.030
89.04000 3.432
89.06000 2.738
89.08000 2.148
89.10000 1.191
89.12000 -0.312
89.14000 3.753
89.16000 1.530
89.18000 2.550
89.20000 1.571
89.22000 -0.303
89.24000 2.302
89.26000 2.792
89.28000 4.032
89.30000 1.786
89.32000 -1.970
89.34000 -2.130
89.36000 0.236
89.38000 1.663
89.40000 2.571
89.42000 -0.995
89.44000 0.020
89.46000 3.669
89.48000 3.513
89.50000 0.480
89.52000 0.371
89.54000 0.923
89.56000 1.688
89.58000 -0.486
89.60000 1.176
89.62000 0.228
89.64000 -1.177
89.66000 2.906
89.68000 2.069
89.70000 -2.141
89.72000 -2.114
89.74000 -1.166
89.76000 6.321
89.78000 9.532
89.80000 10.461
89.82000 3.596
89.84000 1.343
89.86000 4.135
89.88000 3.986
89.90000 0.568
89.92000 2.595
89.94000 1.913
89.96000 2.048
89.98000 1.666
90.00000 0.718
90.02000 0.514
90.04000 -1.063
90.06000 0.746
90.08000 2.480
90.10000 0.919
90.12000 1.252
90.14000 -0.476
90.16000 1.907
90.18000 5.954
90.20000 5.389
90.22000 4.226
90.24000 4.355
90.26000 6.372
90.28000 8.985
90.30000 7.369
90.32000 4.631
90.34000 6.479
90.36000 2.475
90.38000 0.334
90.40000 5.568
90.42000 3.003
90.44000 4.511
90.46000 -0.029
90.48000 3.542
90.50000 1.719
90.52000 -1.258
90.54000 2.200
90.56000 5.633
90.58000 3.657
90.60000 3.580
90.62000 4.458
90.64000 4.270
90.66000 3.918
90.68000 1.415
90.70000 2.144
90.72000 -0.432
90.74000 2.090
90.76000 0.165
90.78000 -2.111
90.80000 -1.633
90.82000 5.823
90.84000 4.279
90.86000 6.128
90.88000 4.419
90.90000 -0.407
90.92000 2.555
90.94000 3.558
90.96000 6.057
90.98000 1.503
91.00000 2.658
91.02000 1.115
91.04000 4.417
91.06000 1.777
91.08000 1.133
91.10000 3.205
91.12000 4.753
91.14000 3.338
91.16000 2.879
91.18000 2.204
91.20000 0.690
91.22000 0.631
91.24000 0.848
91.26000 1.595
91.28000 1.843
91.30000 1.275
91.32000 2.254
91.34000 4.021
91.36000 4.639
91.38000 5.295
91.40000 -0.982
91.42000 1.076
91.44000 1.560
91.46000 2.918
91.48000 4.189
91.50000 4.007
91.52000 3.353
91.54000 1.310
91.56000 -0.554
91.58000 1.675
91.60000 1.255
91.62000 -2.114
91.64000 2.787
91.66000 4.395
91.68000 3.253
91.70000 3.693
91.72000 4.333
91.74000 -0.210
91.76000 -1.837
91.78000 -2.004
91.80000 5.990
91.82000 2.304
91.84000 5.624
91.86000 0.972
91.88000 2.679
91.90000 4.357
91.92000 2.271
91.94000 1.687
91.96000 6.162
91.98000 7.405
92.00000 7.164
92.02000 7.325
92.04000 4.001
92.06000 4.455
92.08000 7.258
92.10000 1.137
92.12000 7.305
92.14000 8.134
92.16000 0.620
92.18000 1.393
92.20000 2.647
92.22000 1.582
92.24000 3.041
92.26000 3.977
92.28000 8.191
92.30000 3.580
92.32000 3.551
92.34000 2.880
92.36000 6.711
92.38000 6.911
92.40000 1.530
92.42000 4.518
92.44000 3.010
92.46000 3.524
92.48000 5.172
92.50000 3.298
92.52000 5.249
92.54000 6.472
92.56000 4.523
92.58000 5.127
92.60000 4.341
92.62000 1.973
92.64000 2.484
92.66000 3.907
92.68000 5.864
92.70000 5.071
92.72000 -1.742
92.74000 -2.101
92.76000 1.451
92.78000 0.795
92.80000 2.890
92.82000 7.117
92.84000 8.595
92.86000 3.857
92.88000 6.980
92.90000 3.177
92.92000 0.884
92.94000 0.856
92.96000 2.747
92.98000 5.300
93.00000 6.015
93.02000 3.948
93.04000 -1.130
93.06000 5.842
93.08000 4.429
93.10000 5.475
93.12000 1.909
93.14000 3.079
93.16000 2.542
93.18000 6.373
93.20000 1.577
93.22000 2.624
93.24000 3.372
93.26000 2.010
93.28000 0.151
93.30000 0.396
93.32000 0.961
93.34000 1.526
93.36000 3.030
93.38000 8.875
93.40000 3.112
93.42000 5.055
93.44000 2.623
93.46000 6.044
93.48000 2.248
93.50000 -1.656
93.52000 -1.391
93.54000 0.513
93.56000 2.921
93.58000 4.823
93.60000 4.120
93.62000 5.147
93.64000 -0.035
93.66000 -1.639
93.68000 1.556
93.70000 0.509
93.72000 1.730
93.74000 -1.048
93.76000 0.141
93.78000 4.420
93.80000 7.264
93.82000 5.967
93.84000 0.421
93.86000 2.026
93.88000 3.273
93.90000 -0.881
93.92000 -1.054
93.94000 1.408
93.96000 2.915
93.98000 5.790
94.00000 8.689
94.02000 8.804
94.04000 6.527
94.06000 5.059
94.08000 2.733
94.10000 8.936
94.12000 7.286
94.14000 1.513
94.16000 0.409
94.18000 4.032
94.20000 2.189
94.22000 4.400
94.24000 0.756
94.26000 -2.121
94.28000 1.179
94.30000 3.361
94.32000 2.524
94.34000 3.779
94.36000 0.165
94.38000 3.219
94.40000 5.622
94.42000 6.534
94.44000 8.070
94.46000 6.279
94.48000 3.923
94.50000 5.965
94.52000 0.891
94.54000 1.260
94.56000 4.928
94.58000 6.914
94.60000 5.217
94.62000 4.779
94.64000 -0.230
94.66000 4.846
94.68000 5.439
94.70000 5.225
94.72000 7.149
94.74000 3.640
94.76000 3.332
94.78000 9.064
94.80000 14.207
94.82000 6.735
94.84000 2.916
94.86000 2.728
94.88000 0.395
94.90000 1.126
94.92000 -0.188
94.94000 0.356
94.96000 4.260
94.98000 4.427
95.00000 2.411
95.02000 7.552
95.04000 7.407
95.06000 7.416
95.08000 2.954
95.10000 0.253
95.12000 7.228
95.14000 6.352
95.16000 3.165
95.18000 2.346
95.20000 -1.312
95.22000 4.119
95.24000 3.296
95.26000 -2.137
95.28000 6.317
95.30000 4.561
95.32000 2.918
95.34000 4.677
95.36000 6.812
95.38000 4.536
95.40000 6.146
95.42000 6.155
95.44000 5.645
95.46000 2.825
95.48000 -1.112
95.50000 -0.505
95.52000 2.125
95.54000 3.158
95.56000 2.441
95.58000 0.529
95.60000 2.444
95.62000 4.633
95.64000 7.292
95.66000 8.043
95.68000 1.466
95.70000 3.480
95.72000 3.314
95.74000 -0.987
95.76000 2.278
95.78000 3.323
95.80000 9.716
95.82000 11.116
95.84000 4.582
95.86000 5.539
95.88000 3.896
95.90000 5.225
95.92000 6.024
95.94000 6.297
95.96000 10.316
95.98000 8.902
96.00000 6.852
96.02000 10.804
96.04000 8.393
96.06000 2.146
96.08000 3.403
96.10000 3.140
96.12000 2.788
96.14000 6.588
96.16000 1.033
96.18000 0.856
96.20000 5.451
96.22000 1.685
96.24000 7.539
96.26000 5.139
96.28000 -2.105
96.30000 0.203
96.32000 3.498
96.34000 12.897
96.36000 11.752
96.38000 5.915
96.40000 4.597
96.42000 5.492
96.44000 1.941
96.46000 5.762
96.48000 4.387
96.50000 6.412
96.52000 7.767
96.54000 7.144
96.56000 5.495
96.58000 8.164
96.60000 11.169
96.62000 3.364
96.64000 0.484
96.66000 2.165
96.68000 6.233
96.70000 3.855
96.72000 5.650
96.74000 7.214
96.76000 5.523
96.78000 6.144
96.80000 2.194
96.82000 -1.926
96.84000 3.119
96.86000 1.824
96.88000 0.486
96.90000 1.016
96.92000 7.422
96.94000 4.327
96.96000 1.649
96.98000 4.327
97.00000 3.609
97.02000 1.163
97.04000 4.773
97.06000 7.450
97.08000 6.126
97.10000 2.929
97.12000 6.715
97.14000 4.119
97.16000 0.521
97.18000 -0.985
97.20000 1.286
97.22000 13.113
97.24000 7.118
97.26000 4.827
97.28000 0.919
97.30000 4.535
97.32000 1.191
97.34000 -0.458
97.36000 0.619
97.38000 5.422
97.40000 4.752
97.42000 2.624
97.44000 6.255
97.46000 8.506
97.48000 6.681
97.50000 3.915
97.52000 9.183
97.54000 5.535
97.56000 8.943
97.58000 8.933
97.60000 6.169
97.62000 3.664
97.64000 4.833
97.66000 7.894
97.68000 9.803
97.70000 5.152
97.72000 2.707
97.74000 1.529
97.76000 2.876
97.78000 6.521
97.80000 1.645
97.82000 -1.433
97.84000 11.665
97.86000 10.191
97.88000 6.648
97.90000 5.070
97.92000 7.773
97.94000 12.243
97.96000 1.296
97.98000 3.162
98.00000 11.587
98.02000 11.607
98.04000 12.066
98.06000 6.979
98.08000 10.213
98.10000 8.887
98.12000 7.540
98.14000 0.454
98.16000 1.040
98.18000 -2.052
98.20000 8.808
98.22000 14.130
98.24000 -0.710
98.26000 2.283
98.28000 7.957
98.30000 5.276
98.32000 8.451
98.34000 9.806
98.36000 9.470
98.38000 7.382
98.40000 4.082
98.42000 3.937
98.44000 5.667
98.46000 6.057
98.48000 11.076
98.50000 6.159
98.52000 2.328
98.54000 1.086
98.56000 3.597
98.58000 2.757
98.60000 5.936
98.62000 8.445
98.64000 6.995
98.66000 10.014
98.68000 5.633
98.70000 4.466
98.72000 0.996
98.74000 4.495
98.76000 2.227
98.78000 5.181
98.80000 -0.559
98.82000 1.624
98.84000 2.317
98.86000 -0.334
98.88000 3.529
98.90000 2.591
98.92000 3.981
98.94000 10.816
98.96000 6.451
98.98000 4.483
99.00000 3.057
99.02000 3.678
99.04000 4.119
99.06000 -2.132
99.08000 6.331
99.10000 -0.465
99.12000 -0.725
99.14000 2.601
99.16000 6.775
99.18000 11.166
99.20000 1.623
99.22000 1.072
99.24000 4.617
99.26000 6.336
99.28000 0.431
99.30000 -1.063
99.32000 12.583
99.34000 8.119
99.36000 4.988
99.38000 7.501
99.40000 4.545
99.42000 6.429
99.44000 5.185
99.46000 2.851
99.48000 -1.276
99.50000 2.375
99.52000 3.838
99.54000 0.376
99.56000 -1.425
99.58000 2.350
99.60000 4.804
99.62000 9.567
99.64000 9.693
99.66000 2.280
99.68000 0.051
99.70000 -2.172
99.72000 2.150
99.74000 3.790
99.76000 6.983
99.78000 2.181
99.80000 6.035
99.82000 -3.471
99.84000 5.414
99.86000 -2.289
99.88000 1.671
99.90000 -0.413
99.92000 0.447
99.94000 4.180
99.96000 1.321
99.98000 0.000
