'Id: "0011387" Comment: "Integrate frame 0011387_Au-Ir-Rh_Rh-rich_XRD-Mapping-162-0000.gfrmwith cursor Wedge Cursor #5" Operator: "B?rgel" Anode: "Cu" Wavelength: "1.5406" Scantype: "2Theta (TwoTheta)" TimePerStep: "1" X: "-22.5" Y: "0" Z: "5.95" 
10.00000 0.000
10.02000 8.127
10.04000 1.117
10.06000 -4.436
10.08000 1.619
10.10000 7.550
10.12000 4.203
10.14000 20.929
10.16000 5.182
10.18000 -4.363
10.20000 -2.013
10.22000 0.189
10.24000 -0.199
10.26000 19.157
10.28000 22.904
10.30000 14.455
10.32000 28.857
10.34000 22.654
10.36000 27.802
10.38000 18.247
10.40000 15.554
10.42000 14.434
10.44000 16.488
10.46000 9.816
10.48000 9.790
10.50000 -5.751
10.52000 10.882
10.54000 29.080
10.56000 23.834
10.58000 8.748
10.60000 9.923
10.62000 18.292
10.64000 18.872
10.66000 19.475
10.68000 12.899
10.70000 16.260
10.72000 23.904
10.74000 12.757
10.76000 9.908
10.78000 10.916
10.80000 17.687
10.82000 16.846
10.84000 10.655
10.86000 -3.483
10.88000 9.663
10.90000 13.614
10.92000 7.397
10.94000 9.542
10.96000 4.602
10.98000 13.743
11.00000 17.688
11.02000 12.171
11.04000 17.022
11.06000 12.961
11.08000 3.401
11.10000 16.539
11.12000 23.811
11.14000 29.330
11.16000 19.738
11.18000 24.378
11.20000 18.659
11.22000 9.936
11.24000 23.716
11.26000 26.369
11.28000 10.038
11.30000 23.535
11.32000 25.240
11.34000 18.117
11.36000 13.640
11.38000 21.342
11.40000 23.093
11.42000 13.575
11.44000 16.843
11.46000 21.427
11.48000 9.982
11.50000 3.901
11.52000 -4.394
11.54000 7.980
11.56000 13.232
11.58000 4.776
11.60000 6.080
11.62000 17.814
11.64000 17.985
11.66000 7.052
11.68000 18.251
11.70000 25.916
11.72000 20.160
11.74000 20.801
11.76000 17.695
11.78000 18.791
11.80000 19.120
11.82000 17.526
11.84000 10.887
11.86000 18.158
11.88000 8.553
11.90000 17.014
11.92000 13.407
11.94000 20.345
11.96000 1.623
11.98000 4.035
12.00000 10.078
12.02000 13.219
12.04000 12.622
12.06000 6.415
12.08000 7.757
12.10000 14.315
12.12000 3.512
12.14000 9.303
12.16000 4.533
12.18000 3.669
12.20000 13.851
12.22000 14.083
12.24000 6.845
12.26000 7.021
12.28000 22.810
12.30000 15.193
12.32000 10.249
12.34000 8.044
12.36000 7.372
12.38000 3.688
12.40000 1.246
12.42000 9.953
12.44000 16.019
12.46000 6.227
12.48000 18.818
12.50000 21.512
12.52000 10.089
12.54000 10.364
12.56000 10.811
12.58000 8.306
12.60000 13.155
12.62000 13.120
12.64000 11.660
12.66000 13.583
12.68000 13.914
12.70000 12.351
12.72000 14.477
12.74000 10.997
12.76000 17.078
12.78000 17.665
12.80000 15.818
12.82000 11.267
12.84000 8.714
12.86000 16.961
12.88000 17.675
12.90000 12.758
12.92000 4.398
12.94000 8.740
12.96000 8.776
12.98000 11.589
13.00000 6.826
13.02000 7.092
13.04000 10.494
13.06000 9.229
13.08000 8.354
13.10000 4.023
13.12000 1.111
13.14000 9.028
13.16000 12.793
13.18000 19.468
13.20000 12.446
13.22000 4.051
13.24000 2.358
13.26000 11.196
13.28000 9.232
13.30000 8.091
13.32000 9.174
13.34000 7.988
13.36000 -1.252
13.38000 -1.677
13.40000 8.163
13.42000 12.009
13.44000 15.569
13.46000 8.416
13.48000 6.922
13.50000 12.009
13.52000 11.348
13.54000 5.045
13.56000 6.909
13.58000 17.344
13.60000 7.050
13.62000 0.337
13.64000 2.222
13.66000 9.973
13.68000 8.972
13.70000 8.196
13.72000 11.850
13.74000 4.952
13.76000 -4.054
13.78000 3.527
13.80000 5.744
13.82000 9.388
13.84000 13.841
13.86000 11.651
13.88000 -2.182
13.90000 -1.824
13.92000 9.540
13.94000 15.646
13.96000 13.414
13.98000 4.966
14.00000 -4.480
14.02000 5.173
14.04000 8.005
14.06000 7.261
14.08000 10.321
14.10000 7.607
14.12000 2.043
14.14000 7.995
14.16000 9.370
14.18000 4.581
14.20000 -0.860
14.22000 15.116
14.24000 3.825
14.26000 8.151
14.28000 19.214
14.30000 20.386
14.32000 7.773
14.34000 2.942
14.36000 4.704
14.38000 8.541
14.40000 1.630
14.42000 3.881
14.44000 7.012
14.46000 3.292
14.48000 3.081
14.50000 8.327
14.52000 7.697
14.54000 9.960
14.56000 7.039
14.58000 17.989
14.60000 18.910
14.62000 1.448
14.64000 -1.321
14.66000 14.059
14.68000 9.721
14.70000 1.757
14.72000 1.273
14.74000 3.664
14.76000 3.628
14.78000 1.359
14.80000 -0.460
14.82000 -2.735
14.84000 2.041
14.86000 9.704
14.88000 8.079
14.90000 9.872
14.92000 7.198
14.94000 9.530
14.96000 -0.124
14.98000 -4.445
15.00000 6.208
15.02000 9.314
15.04000 6.678
15.06000 13.147
15.08000 1.765
15.10000 2.350
15.12000 10.759
15.14000 0.342
15.16000 1.736
15.18000 13.072
15.20000 10.002
15.22000 6.858
15.24000 7.501
15.26000 0.272
15.28000 1.098
15.30000 6.936
15.32000 8.088
15.34000 8.371
15.36000 13.586
15.38000 4.819
15.40000 7.078
15.42000 8.895
15.44000 11.999
15.46000 8.848
15.48000 8.132
15.50000 2.444
15.52000 -0.759
15.54000 -1.265
15.56000 -1.099
15.58000 -1.702
15.60000 5.003
15.62000 0.788
15.64000 5.854
15.66000 13.012
15.68000 7.228
15.70000 9.585
15.72000 14.014
15.74000 3.019
15.76000 -2.938
15.78000 4.231
15.80000 4.388
15.82000 1.118
15.84000 3.817
15.86000 13.206
15.88000 12.606
15.90000 8.643
15.92000 0.670
15.94000 1.037
15.96000 1.229
15.98000 7.061
16.00000 -0.792
16.02000 4.826
16.04000 6.553
16.06000 5.923
16.08000 0.521
16.10000 0.300
16.12000 7.902
16.14000 10.611
16.16000 5.838
16.18000 3.958
16.20000 1.831
16.22000 6.921
16.24000 5.799
16.26000 2.669
16.28000 -0.952
16.30000 1.734
16.32000 0.710
16.34000 2.715
16.36000 2.299
16.38000 2.730
16.40000 4.642
16.42000 10.022
16.44000 11.596
16.46000 6.269
16.48000 19.295
16.50000 8.524
16.52000 2.911
16.54000 -1.083
16.56000 -2.364
16.58000 -2.735
16.60000 -1.052
16.62000 7.976
16.64000 8.618
16.66000 10.639
16.68000 6.055
16.70000 7.479
16.72000 5.051
16.74000 1.877
16.76000 1.027
16.78000 10.779
16.80000 9.745
16.82000 16.614
16.84000 15.010
16.86000 5.616
16.88000 4.974
16.90000 8.077
16.92000 3.273
16.94000 0.455
16.96000 -2.327
16.98000 -3.134
17.00000 3.983
17.02000 10.862
17.04000 16.407
17.06000 2.067
17.08000 1.808
17.10000 -0.010
17.12000 -2.039
17.14000 1.062
17.16000 8.103
17.18000 6.219
17.20000 -1.797
17.22000 0.010
17.24000 1.998
17.26000 4.754
17.28000 4.507
17.30000 2.726
17.32000 5.585
17.34000 7.011
17.36000 5.244
17.38000 1.794
17.40000 -1.683
17.42000 -2.347
17.44000 4.680
17.46000 12.774
17.48000 13.099
17.50000 11.549
17.52000 0.583
17.54000 0.333
17.56000 8.006
17.58000 8.087
17.60000 0.202
17.62000 -3.204
17.64000 -4.040
17.66000 4.804
17.68000 8.651
17.70000 2.267
17.72000 1.057
17.74000 8.557
17.76000 13.501
17.78000 16.168
17.80000 14.109
17.82000 5.835
17.84000 10.914
17.86000 12.634
17.88000 7.168
17.90000 4.821
17.92000 7.418
17.94000 11.323
17.96000 8.005
17.98000 0.274
18.00000 12.127
18.02000 10.351
18.04000 -1.280
18.06000 2.735
18.08000 5.869
18.10000 0.236
18.12000 -4.288
18.14000 2.340
18.16000 1.362
18.18000 6.397
18.20000 11.527
18.22000 8.557
18.24000 11.427
18.26000 9.946
18.28000 8.775
18.30000 1.834
18.32000 -4.268
18.34000 1.372
18.36000 3.598
18.38000 5.077
18.40000 0.835
18.42000 6.430
18.44000 2.764
18.46000 7.767
18.48000 7.669
18.50000 7.006
18.52000 6.503
18.54000 8.273
18.56000 8.377
18.58000 6.911
18.60000 11.197
18.62000 10.775
18.64000 6.666
18.66000 5.685
18.68000 5.456
18.70000 3.435
18.72000 8.058
18.74000 -1.243
18.76000 -4.229
18.78000 1.422
18.80000 9.860
18.82000 11.504
18.84000 8.142
18.86000 4.666
18.88000 13.892
18.90000 11.150
18.92000 10.429
18.94000 11.825
18.96000 11.413
18.98000 13.546
19.00000 9.950
19.02000 7.718
19.04000 6.749
19.06000 8.673
19.08000 7.906
19.10000 10.121
19.12000 3.421
19.14000 4.774
19.16000 6.763
19.18000 7.315
19.20000 8.302
19.22000 5.411
19.24000 5.166
19.26000 8.850
19.28000 14.291
19.30000 9.859
19.32000 7.867
19.34000 4.859
19.36000 -0.460
19.38000 2.082
19.40000 6.598
19.42000 5.754
19.44000 7.649
19.46000 9.660
19.48000 10.383
19.50000 12.153
19.52000 9.774
19.54000 0.781
19.56000 6.396
19.58000 1.259
19.60000 1.215
19.62000 0.341
19.64000 7.019
19.66000 5.567
19.68000 2.948
19.70000 6.072
19.72000 9.482
19.74000 3.025
19.76000 6.162
19.78000 8.151
19.80000 6.747
19.82000 4.997
19.84000 5.880
19.86000 4.191
19.88000 -0.875
19.90000 0.577
19.92000 7.776
19.94000 5.323
19.96000 1.703
19.98000 7.504
20.00000 12.213
20.02000 8.608
20.04000 10.574
20.06000 -1.847
20.08000 -2.479
20.10000 1.801
20.12000 -2.124
20.14000 -0.434
20.16000 0.870
20.18000 -4.219
20.20000 -0.649
20.22000 1.003
20.24000 2.417
20.26000 2.406
20.28000 1.356
20.30000 4.165
20.32000 0.830
20.34000 3.122
20.36000 1.363
20.38000 6.946
20.40000 5.787
20.42000 0.095
20.44000 2.108
20.46000 -0.513
20.48000 -4.122
20.50000 -0.454
20.52000 5.010
20.54000 5.302
20.56000 0.033
20.58000 -4.201
20.60000 -3.478
20.62000 2.330
20.64000 1.229
20.66000 0.514
20.68000 -0.175
20.70000 -0.332
20.72000 4.038
20.74000 6.717
20.76000 7.264
20.78000 6.615
20.80000 6.158
20.82000 0.256
20.84000 -0.645
20.86000 5.305
20.88000 8.604
20.90000 9.601
20.92000 3.792
20.94000 4.926
20.96000 0.813
20.98000 -0.065
21.00000 1.027
21.02000 4.771
21.04000 1.997
21.06000 -0.911
21.08000 2.575
21.10000 9.826
21.12000 9.486
21.14000 8.576
21.16000 11.553
21.18000 3.435
21.20000 0.239
21.22000 -4.166
21.24000 -1.097
21.26000 -2.942
21.28000 1.796
21.30000 0.202
21.32000 -1.835
21.34000 3.418
21.36000 -1.711
21.38000 -2.347
21.40000 -0.423
21.42000 -1.334
21.44000 5.589
21.46000 10.646
21.48000 3.790
21.50000 -3.225
21.52000 -2.744
21.54000 1.384
21.56000 2.936
21.58000 -1.486
21.60000 -1.274
21.62000 -2.933
21.64000 -1.542
21.66000 -2.055
21.68000 3.017
21.70000 2.194
21.72000 3.025
21.74000 1.633
21.76000 -0.387
21.78000 0.524
21.80000 3.212
21.82000 7.812
21.84000 1.740
21.86000 2.029
21.88000 5.412
21.90000 7.492
21.92000 0.470
21.94000 6.427
21.96000 2.734
21.98000 4.219
22.00000 -0.101
22.02000 0.643
22.04000 -3.503
22.06000 1.195
22.08000 9.445
22.10000 10.701
22.12000 9.601
22.14000 0.898
22.16000 0.691
22.18000 -2.002
22.20000 -3.285
22.22000 0.089
22.24000 3.447
22.26000 0.560
22.28000 5.592
22.30000 7.623
22.32000 4.582
22.34000 1.420
22.36000 6.632
22.38000 3.005
22.40000 0.023
22.42000 -2.499
22.44000 3.645
22.46000 13.118
22.48000 2.910
22.50000 4.395
22.52000 5.042
22.54000 -0.878
22.56000 -1.080
22.58000 8.025
22.60000 6.203
22.62000 3.884
22.64000 3.544
22.66000 2.431
22.68000 3.521
22.70000 4.914
22.72000 4.790
22.74000 6.547
22.76000 2.835
22.78000 -4.044
22.80000 2.305
22.82000 7.675
22.84000 4.824
22.86000 9.475
22.88000 11.993
22.90000 6.977
22.92000 0.894
22.94000 0.443
22.96000 1.024
22.98000 -4.037
23.00000 -2.568
23.02000 0.560
23.04000 5.564
23.06000 7.797
23.08000 4.767
23.10000 3.200
23.12000 0.954
23.14000 3.714
23.16000 13.168
23.18000 7.832
23.20000 7.525
23.22000 2.858
23.24000 7.463
23.26000 -1.012
23.28000 3.900
23.30000 7.554
23.32000 4.729
23.34000 4.407
23.36000 0.929
23.38000 4.262
23.40000 9.601
23.42000 6.569
23.44000 2.627
23.46000 2.084
23.48000 1.914
23.50000 -0.295
23.52000 0.705
23.54000 2.459
23.56000 5.769
23.58000 6.208
23.60000 3.892
23.62000 5.523
23.64000 6.992
23.66000 -2.200
23.68000 2.104
23.70000 6.173
23.72000 -0.498
23.74000 -0.302
23.76000 2.923
23.78000 3.324
23.80000 3.659
23.82000 5.041
23.84000 1.319
23.86000 6.796
23.88000 2.454
23.90000 4.705
23.92000 5.558
23.94000 4.023
23.96000 5.567
23.98000 9.633
24.00000 1.512
24.02000 0.000
24.04000 5.635
24.06000 6.088
24.08000 6.546
24.10000 12.043
24.12000 5.815
24.14000 -0.054
24.16000 -0.650
24.18000 -2.017
24.20000 -2.320
24.22000 8.270
24.24000 4.554
24.26000 5.840
24.28000 5.691
24.30000 2.126
24.32000 -3.966
24.34000 -1.552
24.36000 3.414
24.38000 7.505
24.40000 8.710
24.42000 6.746
24.44000 3.478
24.46000 5.463
24.48000 8.748
24.50000 7.056
24.52000 4.799
24.54000 1.629
24.56000 8.341
24.58000 4.714
24.60000 0.984
24.62000 2.963
24.64000 3.809
24.66000 1.622
24.68000 2.958
24.70000 6.234
24.72000 10.462
24.74000 6.419
24.76000 8.520
24.78000 13.369
24.80000 11.123
24.82000 4.284
24.84000 6.150
24.86000 6.296
24.88000 5.970
24.90000 1.919
24.92000 -3.610
24.94000 -2.424
24.96000 4.077
24.98000 7.979
25.00000 10.805
25.02000 3.397
25.04000 -0.573
25.06000 -3.925
25.08000 -3.596
25.10000 3.759
25.12000 5.678
25.14000 6.169
25.16000 7.747
25.18000 7.792
25.20000 7.772
25.22000 3.901
25.24000 5.812
25.26000 3.962
25.28000 3.582
25.30000 6.789
25.32000 3.121
25.34000 3.178
25.36000 3.504
25.38000 1.343
25.40000 3.047
25.42000 8.076
25.44000 8.377
25.46000 4.750
25.48000 5.755
25.50000 0.599
25.52000 4.161
25.54000 3.320
25.56000 6.540
25.58000 2.710
25.60000 4.347
25.62000 -0.673
25.64000 -2.259
25.66000 4.305
25.68000 7.060
25.70000 6.742
25.72000 -1.526
25.74000 -3.096
25.76000 2.328
25.78000 0.343
25.80000 -0.886
25.82000 1.224
25.84000 0.161
25.86000 5.668
25.88000 9.531
25.90000 3.933
25.92000 -3.885
25.94000 3.994
25.96000 3.009
25.98000 2.075
26.00000 5.212
26.02000 3.043
26.04000 1.646
26.06000 3.292
26.08000 11.499
26.10000 9.557
26.12000 -0.831
26.14000 2.446
26.16000 3.422
26.18000 -2.660
26.20000 3.565
26.22000 11.189
26.24000 11.728
26.26000 7.880
26.28000 5.155
26.30000 0.512
26.32000 3.308
26.34000 2.247
26.36000 -0.672
26.38000 2.836
26.40000 2.944
26.42000 8.884
26.44000 1.156
26.46000 -2.036
26.48000 2.075
26.50000 0.351
26.52000 -1.939
26.54000 -0.301
26.56000 6.807
26.58000 3.710
26.60000 5.140
26.62000 7.057
26.64000 2.660
26.66000 1.219
26.68000 3.485
26.70000 3.680
26.72000 4.707
26.74000 3.851
26.76000 10.925
26.78000 12.535
26.80000 8.308
26.82000 2.632
26.84000 6.074
26.86000 6.944
26.88000 5.393
26.90000 -1.133
26.92000 -2.569
26.94000 -3.843
26.96000 -2.887
26.98000 2.169
27.00000 5.298
27.02000 5.090
27.04000 4.069
27.06000 2.398
27.08000 6.586
27.10000 2.696
27.12000 -1.500
27.14000 0.056
27.16000 3.577
27.18000 -3.827
27.20000 -1.371
27.22000 -2.376
27.24000 0.329
27.26000 2.527
27.28000 3.136
27.30000 -2.176
27.32000 -0.052
27.34000 3.613
27.36000 8.094
27.38000 6.256
27.40000 1.843
27.42000 -3.192
27.44000 1.950
27.46000 3.527
27.48000 0.486
27.50000 -2.085
27.52000 2.032
27.54000 3.184
27.56000 -3.366
27.58000 -2.777
27.60000 -2.688
27.62000 -0.507
27.64000 -3.808
27.66000 0.078
27.68000 2.633
27.70000 0.074
27.72000 2.921
27.74000 2.299
27.76000 -0.572
27.78000 3.290
27.80000 5.115
27.82000 3.947
27.84000 4.099
27.86000 1.403
27.88000 -1.763
27.90000 0.587
27.92000 5.420
27.94000 3.427
27.96000 -0.405
27.98000 -0.940
28.00000 0.156
28.02000 5.567
28.04000 2.945
28.06000 -1.692
28.08000 -0.167
28.10000 1.502
28.12000 5.730
28.14000 5.292
28.16000 2.786
28.18000 -0.259
28.20000 -0.630
28.22000 -2.246
28.24000 -1.556
28.26000 -2.684
28.28000 -1.515
28.30000 2.187
28.32000 4.695
28.34000 6.546
28.36000 2.544
28.38000 2.060
28.40000 2.269
28.42000 1.491
28.44000 2.938
28.46000 6.732
28.48000 2.693
28.50000 2.850
28.52000 6.388
28.54000 5.743
28.56000 5.532
28.58000 3.337
28.60000 1.538
28.62000 0.994
28.64000 -0.982
28.66000 3.848
28.68000 -0.648
28.70000 0.122
28.72000 1.492
28.74000 -1.762
28.76000 -0.519
28.78000 3.610
28.80000 6.143
28.82000 0.107
28.84000 0.163
28.86000 0.833
28.88000 5.429
28.90000 4.622
28.92000 0.793
28.94000 1.261
28.96000 3.924
28.98000 8.348
29.00000 9.480
29.02000 5.924
29.04000 3.428
29.06000 9.111
29.08000 6.219
29.10000 -1.163
29.12000 -1.471
29.14000 -3.714
29.16000 0.096
29.18000 5.864
29.20000 13.665
29.22000 10.520
29.24000 6.593
29.26000 3.949
29.28000 0.669
29.30000 -1.294
29.32000 1.141
29.34000 3.451
29.36000 6.012
29.38000 0.437
29.40000 5.173
29.42000 4.716
29.44000 -1.634
29.46000 -1.860
29.48000 2.326
29.50000 7.840
29.52000 7.484
29.54000 5.154
29.56000 4.953
29.58000 2.618
29.60000 3.986
29.62000 3.381
29.64000 -1.795
29.66000 -0.180
29.68000 0.185
29.70000 0.810
29.72000 5.305
29.74000 0.786
29.76000 3.475
29.78000 0.313
29.80000 0.946
29.82000 6.601
29.84000 4.737
29.86000 4.270
29.88000 3.809
29.90000 3.366
29.92000 5.216
29.94000 2.215
29.96000 4.848
29.98000 4.916
30.00000 6.896
30.02000 0.621
30.04000 -3.056
30.06000 4.327
30.08000 3.235
30.10000 8.984
30.12000 9.005
30.14000 7.503
30.16000 5.717
30.18000 4.933
30.20000 7.714
30.22000 2.421
30.24000 -0.748
30.26000 -3.655
30.28000 -0.013
30.30000 0.775
30.32000 3.055
30.34000 7.098
30.36000 5.669
30.38000 2.706
30.40000 3.616
30.42000 2.039
30.44000 3.393
30.46000 1.814
30.48000 3.306
30.50000 2.456
30.52000 -0.187
30.54000 6.735
30.56000 0.178
30.58000 -0.006
30.60000 3.353
30.62000 4.882
30.64000 4.355
30.66000 7.915
30.68000 6.610
30.70000 5.254
30.72000 4.737
30.74000 1.221
30.76000 -3.632
30.78000 0.493
30.80000 0.768
30.82000 4.683
30.84000 0.815
30.86000 3.172
30.88000 1.678
30.90000 1.658
30.92000 1.995
30.94000 6.246
30.96000 6.406
30.98000 3.133
31.00000 2.587
31.02000 2.188
31.04000 2.186
31.06000 -1.249
31.08000 4.652
31.10000 -0.116
31.12000 -1.671
31.14000 0.370
31.16000 2.632
31.18000 6.584
31.20000 6.732
31.22000 0.551
31.24000 2.756
31.26000 4.398
31.28000 2.591
31.30000 3.881
31.32000 5.371
31.34000 -2.317
31.36000 0.665
31.38000 2.702
31.40000 3.979
31.42000 6.204
31.44000 1.993
31.46000 0.081
31.48000 1.204
31.50000 -3.594
31.52000 -2.719
31.54000 0.799
31.56000 2.411
31.58000 4.738
31.60000 5.039
31.62000 5.360
31.64000 1.350
31.66000 1.074
31.68000 5.836
31.70000 4.836
31.72000 4.916
31.74000 3.722
31.76000 2.796
31.78000 -0.414
31.80000 2.659
31.82000 7.110
31.84000 2.819
31.86000 4.405
31.88000 2.949
31.90000 1.698
31.92000 -0.892
31.94000 2.932
31.96000 4.665
31.98000 4.788
32.00000 4.379
32.02000 4.140
32.04000 3.314
32.06000 -3.067
32.08000 -0.524
32.10000 1.498
32.12000 1.970
32.14000 2.765
32.16000 4.477
32.18000 3.564
32.20000 7.786
32.22000 2.639
32.24000 5.174
32.26000 5.408
32.28000 5.921
32.30000 8.418
32.32000 8.046
32.34000 4.262
32.36000 5.677
32.38000 9.022
32.40000 0.997
32.42000 7.187
32.44000 5.237
32.46000 6.411
32.48000 6.539
32.50000 -0.999
32.52000 -1.336
32.54000 -2.007
32.56000 -3.554
32.58000 -0.917
32.60000 3.337
32.62000 2.265
32.64000 5.066
32.66000 4.728
32.68000 2.140
32.70000 -0.033
32.72000 -0.407
32.74000 1.572
32.76000 0.445
32.78000 3.526
32.80000 3.453
32.82000 1.307
32.84000 6.452
32.86000 3.819
32.88000 4.315
32.90000 4.944
32.92000 4.786
32.94000 4.816
32.96000 4.973
32.98000 7.341
33.00000 5.361
33.02000 0.873
33.04000 3.037
33.06000 5.628
33.08000 0.375
33.10000 -3.447
33.12000 4.981
33.14000 0.640
33.16000 0.789
33.18000 5.006
33.20000 0.652
33.22000 -0.065
33.24000 7.004
33.26000 7.042
33.28000 0.459
33.30000 -0.169
33.32000 -3.518
33.34000 0.784
33.36000 1.387
33.38000 7.467
33.40000 5.858
33.42000 3.999
33.44000 2.947
33.46000 5.547
33.48000 8.117
33.50000 7.325
33.52000 4.857
33.54000 3.999
33.56000 2.672
33.58000 2.354
33.60000 5.849
33.62000 1.274
33.64000 2.485
33.66000 4.107
33.68000 8.217
33.70000 9.775
33.72000 6.481
33.74000 4.630
33.76000 2.067
33.78000 4.103
33.80000 0.479
33.82000 1.752
33.84000 0.287
33.86000 0.051
33.88000 -1.513
33.90000 -1.563
33.92000 3.853
33.94000 1.577
33.96000 1.122
33.98000 4.396
34.00000 9.127
34.02000 5.850
34.04000 4.569
34.06000 2.034
34.08000 4.252
34.10000 3.436
34.12000 -0.255
34.14000 3.735
34.16000 5.246
34.18000 6.502
34.20000 6.263
34.22000 4.636
34.24000 2.955
34.26000 -3.506
34.28000 1.233
34.30000 5.028
34.32000 3.517
34.34000 5.212
34.36000 3.051
34.38000 -3.147
34.40000 -0.369
34.42000 -2.246
34.44000 3.896
34.46000 6.775
34.48000 7.125
34.50000 2.815
34.52000 3.963
34.54000 2.208
34.56000 0.416
34.58000 1.221
34.60000 4.523
34.62000 1.174
34.64000 -2.298
34.66000 2.074
34.68000 2.753
34.70000 1.582
34.72000 -3.486
34.74000 -2.242
34.76000 4.029
34.78000 9.039
34.80000 7.970
34.82000 7.376
34.84000 11.368
34.86000 9.117
34.88000 9.850
34.90000 9.522
34.92000 5.952
34.94000 8.772
34.96000 5.040
34.98000 -0.749
35.00000 3.481
35.02000 1.804
35.04000 -1.169
35.06000 2.690
35.08000 4.644
35.10000 1.512
35.12000 3.568
35.14000 5.373
35.16000 1.780
35.18000 -3.466
35.20000 -0.300
35.22000 3.710
35.24000 5.652
35.26000 7.827
35.28000 8.703
35.30000 3.946
35.32000 0.664
35.34000 1.333
35.36000 0.816
35.38000 3.261
35.40000 5.875
35.42000 7.173
35.44000 5.269
35.46000 3.261
35.48000 1.143
35.50000 0.171
35.52000 4.299
35.54000 1.387
35.56000 -0.560
35.58000 0.216
35.60000 3.386
35.62000 2.926
35.64000 -0.803
35.66000 3.952
35.68000 5.438
35.70000 1.368
35.72000 0.287
35.74000 4.395
35.76000 4.252
35.78000 0.889
35.80000 3.482
35.82000 0.891
35.84000 -0.808
35.86000 -0.332
35.88000 3.341
35.90000 5.381
35.92000 2.762
35.94000 5.528
35.96000 3.613
35.98000 0.386
36.00000 4.947
36.02000 5.544
36.04000 3.926
36.06000 -3.495
36.08000 -0.695
36.10000 0.302
36.12000 0.666
36.14000 3.850
36.16000 7.800
36.18000 3.405
36.20000 6.739
36.22000 3.073
36.24000 -1.529
36.26000 2.794
36.28000 6.479
36.30000 5.176
36.32000 3.944
36.34000 0.843
36.36000 2.115
36.38000 1.723
36.40000 0.438
36.42000 -0.330
36.44000 -3.404
36.46000 1.241
36.48000 -3.509
36.50000 -2.638
36.52000 0.458
36.54000 1.273
36.56000 6.419
36.58000 2.377
36.60000 4.475
36.62000 4.739
36.64000 2.934
36.66000 -3.517
36.68000 0.415
36.70000 1.627
36.72000 2.140
36.74000 -0.189
36.76000 -2.223
36.78000 -1.302
36.80000 -2.174
36.82000 2.099
36.84000 1.458
36.86000 0.012
36.88000 1.027
36.90000 0.764
36.92000 -0.355
36.94000 -0.218
36.96000 0.178
36.98000 4.150
37.00000 4.711
37.02000 -3.533
37.04000 1.233
37.06000 -0.560
37.08000 -0.435
37.10000 0.973
37.12000 -0.009
37.14000 2.759
37.16000 1.367
37.18000 -2.011
37.20000 -0.887
37.22000 0.701
37.24000 4.308
37.26000 1.059
37.28000 -1.366
37.30000 0.380
37.32000 3.064
37.34000 3.389
37.36000 2.068
37.38000 0.843
37.40000 1.829
37.42000 2.155
37.44000 4.147
37.46000 1.952
37.48000 1.827
37.50000 -1.599
37.52000 -1.889
37.54000 -3.598
37.56000 -2.967
37.58000 -1.880
37.60000 0.653
37.62000 -0.379
37.64000 -0.263
37.66000 5.221
37.68000 4.579
37.70000 3.603
37.72000 2.483
37.74000 3.911
37.76000 5.476
37.78000 2.877
37.80000 0.115
37.82000 2.908
37.84000 2.274
37.86000 2.008
37.88000 3.508
37.90000 2.386
37.92000 3.073
37.94000 3.114
37.96000 4.597
37.98000 3.805
38.00000 -0.739
38.02000 6.415
38.04000 8.281
38.06000 9.639
38.08000 11.738
38.10000 7.607
38.12000 5.204
38.14000 8.991
38.16000 10.173
38.18000 10.536
38.20000 5.524
38.22000 9.965
38.24000 9.167
38.26000 10.247
38.28000 13.220
38.30000 11.387
38.32000 9.652
38.34000 10.777
38.36000 12.557
38.38000 10.267
38.40000 7.341
38.42000 9.540
38.44000 12.059
38.46000 14.555
38.48000 15.593
38.50000 15.832
38.52000 15.246
38.54000 17.461
38.56000 20.835
38.58000 21.725
38.60000 18.364
38.62000 18.579
38.64000 22.181
38.66000 23.586
38.68000 24.891
38.70000 24.754
38.72000 24.986
38.74000 27.745
38.76000 33.851
38.78000 30.957
38.80000 23.188
38.82000 24.628
38.84000 32.465
38.86000 33.839
38.88000 35.156
38.90000 38.082
38.92000 36.533
38.94000 34.222
38.96000 39.887
38.98000 38.936
39.00000 50.059
39.02000 46.003
39.04000 40.219
39.06000 45.020
39.08000 49.456
39.10000 49.963
39.12000 53.648
39.14000 55.393
39.16000 60.710
39.18000 59.290
39.20000 53.984
39.22000 59.736
39.24000 65.687
39.26000 71.686
39.28000 68.173
39.30000 71.491
39.32000 78.345
39.34000 79.951
39.36000 85.480
39.38000 89.548
39.40000 88.747
39.42000 95.238
39.44000 99.857
39.46000 110.847
39.48000 119.092
39.50000 117.918
39.52000 117.849
39.54000 123.569
39.56000 134.736
39.58000 146.880
39.60000 157.527
39.62000 159.460
39.64000 172.788
39.66000 181.826
39.68000 194.422
39.70000 208.478
39.72000 227.143
39.74000 234.152
39.76000 239.913
39.78000 254.251
39.80000 278.835
39.82000 293.402
39.84000 318.108
39.86000 338.638
39.88000 353.664
39.90000 375.881
39.92000 404.363
39.94000 422.136
39.96000 450.238
39.98000 475.193
40.00000 504.002
40.02000 528.478
40.04000 554.112
40.06000 601.162
40.08000 635.754
40.10000 659.222
40.12000 697.213
40.14000 733.532
40.16000 748.540
40.18000 778.958
40.20000 819.629
40.22000 847.537
40.24000 855.485
40.26000 872.615
40.28000 903.153
40.30000 918.376
40.32000 922.664
40.34000 920.997
40.36000 920.361
40.38000 918.984
40.40000 918.831
40.42000 912.573
40.44000 904.562
40.46000 900.408
40.48000 887.720
40.50000 868.727
40.52000 837.547
40.54000 821.008
40.56000 798.326
40.58000 783.474
40.60000 771.074
40.62000 735.555
40.64000 701.880
40.66000 667.874
40.68000 639.724
40.70000 610.464
40.72000 582.821
40.74000 554.978
40.76000 539.571
40.78000 515.144
40.80000 480.209
40.82000 457.935
40.84000 442.771
40.86000 424.313
40.88000 388.024
40.90000 365.623
40.92000 344.069
40.94000 324.393
40.96000 307.037
40.98000 295.858
41.00000 280.634
41.02000 260.406
41.04000 242.159
41.06000 232.106
41.08000 218.356
41.10000 202.032
41.12000 196.097
41.14000 182.593
41.16000 171.053
41.18000 161.391
41.20000 156.582
41.22000 146.417
41.24000 135.862
41.26000 137.919
41.28000 130.251
41.30000 116.151
41.32000 112.104
41.34000 105.417
41.36000 99.718
41.38000 90.304
41.40000 87.791
41.42000 85.662
41.44000 81.876
41.46000 77.614
41.48000 71.908
41.50000 68.934
41.52000 63.590
41.54000 61.514
41.56000 59.106
41.58000 55.954
41.60000 53.686
41.62000 49.162
41.64000 50.477
41.66000 47.796
41.68000 46.291
41.70000 44.948
41.72000 39.424
41.74000 39.834
41.76000 37.930
41.78000 38.128
41.80000 39.291
41.82000 33.804
41.84000 27.620
41.86000 27.386
41.88000 26.001
41.90000 24.293
41.92000 21.285
41.94000 18.440
41.96000 20.205
41.98000 22.055
42.00000 21.061
42.02000 18.912
42.04000 17.212
42.06000 8.166
42.08000 10.763
42.10000 14.070
42.12000 14.821
42.14000 16.410
42.16000 13.014
42.18000 12.913
42.20000 9.772
42.22000 13.515
42.24000 15.167
42.26000 10.680
42.28000 9.257
42.30000 7.014
42.32000 10.968
42.34000 11.067
42.36000 7.860
42.38000 5.933
42.40000 7.146
42.42000 7.622
42.44000 6.904
42.46000 8.998
42.48000 7.990
42.50000 8.005
42.52000 6.720
42.54000 4.395
42.56000 8.061
42.58000 3.013
42.60000 -0.653
42.62000 -1.924
42.64000 -2.306
42.66000 3.452
42.68000 4.730
42.70000 1.349
42.72000 0.384
42.74000 -0.428
42.76000 -0.028
42.78000 0.086
42.80000 2.267
42.82000 1.290
42.84000 2.881
42.86000 0.476
42.88000 -1.368
42.90000 1.230
42.92000 3.447
42.94000 1.066
42.96000 -0.112
42.98000 1.461
43.00000 0.206
43.02000 0.766
43.04000 0.696
43.06000 -0.946
43.08000 -1.318
43.10000 0.135
43.12000 0.442
43.14000 3.166
43.16000 -0.033
43.18000 -1.950
43.20000 -3.486
43.22000 1.718
43.24000 3.837
43.26000 3.045
43.28000 -0.584
43.30000 2.891
43.32000 -1.181
43.34000 -1.003
43.36000 -0.045
43.38000 -2.358
43.40000 -0.171
43.42000 -0.226
43.44000 -0.379
43.46000 -2.690
43.48000 -0.699
43.50000 -1.913
43.52000 -1.945
43.54000 -1.409
43.56000 1.728
43.58000 1.243
43.60000 1.298
43.62000 1.598
43.64000 4.633
43.66000 0.097
43.68000 1.713
43.70000 2.384
43.72000 1.918
43.74000 -0.337
43.76000 -0.828
43.78000 1.084
43.80000 4.054
43.82000 2.455
43.84000 4.179
43.86000 5.984
43.88000 4.773
43.90000 1.106
43.92000 -3.353
43.94000 -1.706
43.96000 3.272
43.98000 4.752
44.00000 0.802
44.02000 -0.639
44.04000 -2.774
44.06000 0.889
44.08000 1.188
44.10000 -0.022
44.12000 -1.279
44.14000 1.049
44.16000 1.700
44.18000 2.528
44.20000 1.348
44.22000 1.376
44.24000 0.787
44.26000 2.615
44.28000 4.253
44.30000 1.127
44.32000 -1.488
44.34000 -1.585
44.36000 1.140
44.38000 2.098
44.40000 -2.888
44.42000 0.805
44.44000 -0.847
44.46000 -2.055
44.48000 -0.007
44.50000 -3.338
44.52000 -2.318
44.54000 -0.357
44.56000 0.962
44.58000 1.335
44.60000 0.263
44.62000 3.015
44.64000 1.198
44.66000 -0.633
44.68000 0.030
44.70000 3.445
44.72000 0.917
44.74000 0.473
44.76000 -0.345
44.78000 0.921
44.80000 -0.887
44.82000 -2.014
44.84000 0.278
44.86000 -1.293
44.88000 0.652
44.90000 -0.214
44.92000 0.510
44.94000 -1.259
44.96000 1.285
44.98000 1.514
45.00000 -0.926
45.02000 0.501
45.04000 -3.341
45.06000 -1.649
45.08000 5.074
45.10000 3.349
45.12000 -2.156
45.14000 1.057
45.16000 2.464
45.18000 0.955
45.20000 3.284
45.22000 3.273
45.24000 8.026
45.26000 6.290
45.28000 -0.419
45.30000 4.340
45.32000 1.612
45.34000 4.140
45.36000 7.700
45.38000 7.290
45.40000 3.883
45.42000 6.771
45.44000 6.360
45.46000 5.652
45.48000 3.716
45.50000 8.141
45.52000 10.435
45.54000 8.341
45.56000 8.315
45.58000 14.050
45.60000 10.274
45.62000 14.263
45.64000 14.738
45.66000 14.163
45.68000 11.774
45.70000 18.299
45.72000 12.946
45.74000 18.404
45.76000 20.196
45.78000 12.153
45.80000 15.931
45.82000 14.629
45.84000 17.209
45.86000 23.956
45.88000 21.467
45.90000 19.337
45.92000 23.985
45.94000 24.711
45.96000 23.028
45.98000 22.518
46.00000 31.319
46.02000 33.030
46.04000 34.697
46.06000 37.699
46.08000 33.322
46.10000 35.097
46.12000 41.733
46.14000 38.509
46.16000 39.039
46.18000 45.037
46.20000 42.844
46.22000 45.742
46.24000 50.181
46.26000 51.916
46.28000 60.478
46.30000 61.890
46.32000 68.317
46.34000 68.789
46.36000 66.002
46.38000 67.981
46.40000 74.893
46.42000 76.296
46.44000 85.397
46.46000 81.689
46.48000 88.673
46.50000 95.214
46.52000 98.382
46.54000 99.451
46.56000 101.056
46.58000 101.508
46.60000 102.136
46.62000 108.031
46.64000 116.498
46.66000 122.439
46.68000 131.514
46.70000 132.727
46.72000 134.750
46.74000 132.552
46.76000 140.767
46.78000 148.850
46.80000 149.202
46.82000 150.081
46.84000 153.423
46.86000 150.709
46.88000 150.902
46.90000 159.759
46.92000 167.591
46.94000 174.114
46.96000 169.075
46.98000 166.186
47.00000 158.754
47.02000 161.560
47.04000 160.882
47.06000 164.056
47.08000 157.499
47.10000 161.683
47.12000 162.734
47.14000 163.137
47.16000 153.158
47.18000 150.220
47.20000 144.373
47.22000 145.424
47.24000 139.531
47.26000 141.316
47.28000 133.656
47.30000 124.409
47.32000 117.442
47.34000 118.477
47.36000 116.428
47.38000 111.026
47.40000 105.911
47.42000 102.281
47.44000 93.143
47.46000 89.735
47.48000 87.480
47.50000 86.826
47.52000 80.346
47.54000 80.571
47.56000 80.146
47.58000 75.116
47.60000 67.437
47.62000 65.092
47.64000 57.185
47.66000 55.295
47.68000 56.814
47.70000 54.125
47.72000 50.403
47.74000 47.119
47.76000 38.201
47.78000 35.035
47.80000 36.243
47.82000 36.857
47.84000 32.586
47.86000 29.525
47.88000 26.960
47.90000 23.020
47.92000 26.244
47.94000 29.817
47.96000 25.462
47.98000 25.448
48.00000 20.591
48.02000 16.993
48.04000 14.285
48.06000 12.907
48.08000 17.864
48.10000 17.110
48.12000 15.043
48.14000 17.650
48.16000 14.914
48.18000 12.819
48.20000 6.819
48.22000 2.785
48.24000 8.675
48.26000 7.298
48.28000 6.347
48.30000 8.088
48.32000 9.143
48.34000 8.147
48.36000 9.124
48.38000 7.451
48.40000 7.623
48.42000 5.754
48.44000 3.075
48.46000 -0.007
48.48000 2.609
48.50000 -0.026
48.52000 -0.333
48.54000 3.016
48.56000 0.943
48.58000 2.475
48.60000 0.877
48.62000 0.238
48.64000 -0.112
48.66000 2.966
48.68000 5.057
48.70000 1.183
48.72000 1.993
48.74000 0.384
48.76000 -1.714
48.78000 9.332
48.80000 4.090
48.82000 1.424
48.84000 -0.746
48.86000 -2.890
48.88000 0.936
48.90000 4.617
48.92000 6.289
48.94000 7.867
48.96000 4.966
48.98000 1.207
49.00000 2.433
49.02000 0.693
49.04000 3.418
49.06000 2.043
49.08000 -0.413
49.10000 -0.296
49.12000 1.397
49.14000 1.879
49.16000 2.565
49.18000 0.122
49.20000 -1.493
49.22000 0.147
49.24000 -2.791
49.26000 0.843
49.28000 5.399
49.30000 6.036
49.32000 6.144
49.34000 7.217
49.36000 1.471
49.38000 0.529
49.40000 2.723
49.42000 1.298
49.44000 0.719
49.46000 -0.132
49.48000 3.095
49.50000 1.344
49.52000 1.477
49.54000 3.916
49.56000 1.618
49.58000 0.644
49.60000 2.345
49.62000 9.155
49.64000 5.659
49.66000 0.079
49.68000 0.069
49.70000 5.117
49.72000 -1.005
49.74000 -2.753
49.76000 4.637
49.78000 7.064
49.80000 4.056
49.82000 4.591
49.84000 4.891
49.86000 6.215
49.88000 4.600
49.90000 -0.107
49.92000 -1.341
49.94000 -1.573
49.96000 0.936
49.98000 1.062
50.00000 1.092
50.02000 -1.237
50.04000 0.093
50.06000 0.230
50.08000 3.425
50.10000 5.332
50.12000 3.717
50.14000 -0.153
50.16000 1.857
50.18000 1.685
50.20000 1.920
50.22000 2.448
50.24000 5.339
50.26000 2.330
50.28000 -2.172
50.30000 -2.008
50.32000 -2.093
50.34000 0.509
50.36000 -1.419
50.38000 -2.721
50.40000 -1.312
50.42000 2.706
50.44000 4.586
50.46000 2.908
50.48000 1.342
50.50000 4.250
50.52000 2.785
50.54000 -0.799
50.56000 -0.531
50.58000 3.144
50.60000 1.164
50.62000 4.700
50.64000 -2.164
50.66000 0.316
50.68000 5.704
50.70000 7.028
50.72000 6.722
50.74000 2.702
50.76000 4.847
50.78000 2.471
50.80000 3.275
50.82000 3.020
50.84000 4.583
50.86000 1.533
50.88000 -0.765
50.90000 0.720
50.92000 1.963
50.94000 4.073
50.96000 -1.447
50.98000 -2.663
51.00000 0.324
51.02000 1.998
51.04000 3.016
51.06000 2.302
51.08000 1.579
51.10000 1.892
51.12000 -2.010
51.14000 -1.209
51.16000 1.335
51.18000 1.166
51.20000 6.054
51.22000 6.897
51.24000 1.528
51.26000 -1.238
51.28000 3.933
51.30000 5.199
51.32000 4.723
51.34000 5.938
51.36000 8.445
51.38000 1.226
51.40000 -0.962
51.42000 5.593
51.44000 4.666
51.46000 3.100
51.48000 5.578
51.50000 2.030
51.52000 4.610
51.54000 2.163
51.56000 3.049
51.58000 6.524
51.60000 8.080
51.62000 7.215
51.64000 6.438
51.66000 6.232
51.68000 3.104
51.70000 2.602
51.72000 1.106
51.74000 -2.565
51.76000 2.079
51.78000 5.662
51.80000 7.365
51.82000 9.857
51.84000 8.396
51.86000 7.891
51.88000 5.152
51.90000 4.666
51.92000 1.555
51.94000 6.276
51.96000 3.961
51.98000 1.034
52.00000 1.675
52.02000 3.566
52.04000 0.642
52.06000 4.762
52.08000 7.165
52.10000 3.266
52.12000 1.841
52.14000 3.585
52.16000 0.649
52.18000 2.298
52.20000 5.994
52.22000 1.163
52.24000 0.839
52.26000 4.987
52.28000 3.241
52.30000 -1.207
52.32000 -0.875
52.34000 -0.068
52.36000 3.557
52.38000 2.088
52.40000 1.094
52.42000 3.566
52.44000 1.402
52.46000 1.104
52.48000 5.578
52.50000 5.295
52.52000 2.841
52.54000 0.473
52.56000 0.445
52.58000 0.386
52.60000 1.439
52.62000 -0.084
52.64000 4.687
52.66000 4.676
52.68000 6.479
52.70000 3.378
52.72000 2.602
52.74000 5.682
52.76000 2.926
52.78000 1.018
52.80000 0.114
52.82000 2.690
52.84000 1.887
52.86000 1.893
52.88000 5.504
52.90000 8.769
52.92000 5.308
52.94000 7.875
52.96000 2.003
52.98000 -0.227
53.00000 1.768
53.02000 8.401
53.04000 4.430
53.06000 2.608
53.08000 3.361
53.10000 4.215
53.12000 5.351
53.14000 3.938
53.16000 4.148
53.18000 1.755
53.20000 0.439
53.22000 0.944
53.24000 2.073
53.26000 3.806
53.28000 5.337
53.30000 6.796
53.32000 4.081
53.34000 5.714
53.36000 3.371
53.38000 2.777
53.40000 4.221
53.42000 1.342
53.44000 0.394
53.46000 -0.761
53.48000 -2.534
53.50000 -0.844
53.52000 6.628
53.54000 7.991
53.56000 4.337
53.58000 1.710
53.60000 2.396
53.62000 1.764
53.64000 0.588
53.66000 3.407
53.68000 3.693
53.70000 2.471
53.72000 2.226
53.74000 1.835
53.76000 2.815
53.78000 1.097
53.80000 1.249
53.82000 0.620
53.84000 3.286
53.86000 4.460
53.88000 0.712
53.90000 -0.832
53.92000 0.948
53.94000 2.973
53.96000 5.045
53.98000 4.458
54.00000 3.544
54.02000 4.595
54.04000 0.702
54.06000 0.308
54.08000 -1.226
54.10000 -0.298
54.12000 2.803
54.14000 5.263
54.16000 7.113
54.18000 4.590
54.20000 6.655
54.22000 8.230
54.24000 0.172
54.26000 -0.806
54.28000 -0.331
54.30000 -0.868
54.32000 1.224
54.34000 2.078
54.36000 -0.090
54.38000 -0.131
54.40000 0.619
54.42000 0.909
54.44000 -0.263
54.46000 0.720
54.48000 -1.135
54.50000 0.415
54.52000 1.977
54.54000 -0.417
54.56000 -0.850
54.58000 -0.610
54.60000 3.032
54.62000 -0.299
54.64000 -0.420
54.66000 1.115
54.68000 2.479
54.70000 -0.189
54.72000 -0.778
54.74000 -1.043
54.76000 -1.360
54.78000 0.536
54.80000 2.613
54.82000 0.788
54.84000 0.250
54.86000 0.464
54.88000 2.023
54.90000 0.746
54.92000 0.806
54.94000 2.555
54.96000 2.658
54.98000 -0.646
55.00000 2.062
55.02000 0.279
55.04000 0.963
55.06000 1.051
55.08000 4.870
55.10000 4.732
55.12000 2.634
55.14000 2.493
55.16000 3.275
55.18000 0.996
55.20000 3.155
55.22000 3.943
55.24000 4.047
55.26000 5.900
55.28000 4.959
55.30000 2.990
55.32000 2.680
55.34000 -0.013
55.36000 -0.875
55.38000 -0.227
55.40000 0.004
55.42000 3.331
55.44000 0.999
55.46000 -2.506
55.48000 -1.955
55.50000 -0.678
55.52000 0.204
55.54000 0.767
55.56000 1.934
55.58000 3.114
55.60000 3.807
55.62000 4.632
55.64000 1.944
55.66000 0.292
55.68000 -2.502
55.70000 -0.624
55.72000 4.287
55.74000 4.450
55.76000 2.187
55.78000 1.456
55.80000 0.235
55.82000 -1.311
55.84000 0.692
55.86000 0.444
55.88000 0.043
55.90000 2.138
55.92000 2.379
55.94000 0.839
55.96000 2.548
55.98000 4.716
56.00000 5.190
56.02000 3.546
56.04000 1.247
56.06000 0.696
56.08000 4.779
56.10000 5.679
56.12000 6.382
56.14000 1.434
56.16000 -0.781
56.18000 2.459
56.20000 4.885
56.22000 -1.402
56.24000 2.802
56.26000 5.818
56.28000 4.874
56.30000 4.437
56.32000 2.417
56.34000 1.891
56.36000 4.359
56.38000 5.540
56.40000 3.603
56.42000 2.054
56.44000 -2.464
56.46000 -0.593
56.48000 3.043
56.50000 3.729
56.52000 2.381
56.54000 4.319
56.56000 -0.431
56.58000 2.426
56.60000 4.458
56.62000 6.468
56.64000 1.520
56.66000 -2.469
56.68000 0.934
56.70000 3.538
56.72000 1.419
56.74000 -1.181
56.76000 1.441
56.78000 2.072
56.80000 0.435
56.82000 3.201
56.84000 3.552
56.86000 -1.599
56.88000 1.926
56.90000 3.139
56.92000 4.987
56.94000 2.267
56.96000 2.198
56.98000 1.724
57.00000 -1.833
57.02000 -2.187
57.04000 -1.797
57.06000 2.362
57.08000 2.461
57.10000 2.799
57.12000 1.201
57.14000 -0.803
57.16000 -2.222
57.18000 1.073
57.20000 1.607
57.22000 1.213
57.24000 2.920
57.26000 0.710
57.28000 0.538
57.30000 0.405
57.32000 1.449
57.34000 0.780
57.36000 -2.228
57.38000 -0.582
57.40000 0.136
57.42000 2.039
57.44000 3.451
57.46000 1.785
57.48000 -0.472
57.50000 -1.299
57.52000 2.411
57.54000 4.512
57.56000 4.567
57.58000 5.639
57.60000 2.236
57.62000 -2.459
57.64000 -1.877
57.66000 0.185
57.68000 3.086
57.70000 0.231
57.72000 -1.160
57.74000 -1.682
57.76000 -0.840
57.78000 1.266
57.80000 0.942
57.82000 1.410
57.84000 0.935
57.86000 4.155
57.88000 4.431
57.90000 1.520
57.92000 1.598
57.94000 1.662
57.96000 2.116
57.98000 3.914
58.00000 0.247
58.02000 2.220
58.04000 4.402
58.06000 2.091
58.08000 2.295
58.10000 3.137
58.12000 1.493
58.14000 1.470
58.16000 -0.846
58.18000 -0.717
58.20000 -2.425
58.22000 -1.982
58.24000 0.539
58.26000 2.784
58.28000 0.409
58.30000 1.521
58.32000 3.971
58.34000 3.048
58.36000 2.624
58.38000 2.633
58.40000 0.093
58.42000 1.349
58.44000 5.448
58.46000 3.305
58.48000 3.304
58.50000 4.664
58.52000 1.465
58.54000 -0.538
58.56000 4.259
58.58000 0.088
58.60000 1.825
58.62000 -1.210
58.64000 -1.592
58.66000 0.334
58.68000 -1.095
58.70000 4.184
58.72000 4.253
58.74000 6.328
58.76000 4.634
58.78000 0.134
58.80000 1.734
58.82000 -0.356
58.84000 1.066
58.86000 1.991
58.88000 -0.033
58.90000 0.345
58.92000 -2.429
58.94000 0.211
58.96000 1.098
58.98000 2.762
59.00000 3.016
59.02000 4.515
59.04000 3.580
59.06000 2.118
59.08000 0.880
59.10000 2.407
59.12000 2.282
59.14000 -0.192
59.16000 1.673
59.18000 3.851
59.20000 1.078
59.22000 1.838
59.24000 0.292
59.26000 -1.826
59.28000 0.597
59.30000 0.935
59.32000 0.869
59.34000 1.015
59.36000 0.755
59.38000 1.514
59.40000 2.969
59.42000 2.650
59.44000 5.048
59.46000 2.515
59.48000 0.581
59.50000 0.615
59.52000 2.833
59.54000 4.048
59.56000 -0.120
59.58000 -2.398
59.60000 -0.659
59.62000 0.791
59.64000 1.086
59.66000 0.802
59.68000 4.643
59.70000 4.836
59.72000 1.062
59.74000 -1.357
59.76000 -0.316
59.78000 3.327
59.80000 3.527
59.82000 3.452
59.84000 3.681
59.86000 1.848
59.88000 3.806
59.90000 1.349
59.92000 -2.387
59.94000 -0.551
59.96000 2.051
59.98000 2.054
60.00000 5.541
60.02000 2.737
60.04000 4.781
60.06000 3.255
60.08000 0.098
60.10000 2.333
60.12000 0.869
60.14000 1.880
60.16000 1.215
60.18000 1.354
60.20000 -2.217
60.22000 -1.875
60.24000 1.336
60.26000 -2.006
60.28000 -1.328
60.30000 0.678
60.32000 0.689
60.34000 -1.915
60.36000 -1.728
60.38000 2.893
60.40000 -1.736
60.42000 -1.052
60.44000 1.638
60.46000 2.218
60.48000 0.997
60.50000 2.105
60.52000 -0.757
60.54000 0.683
60.56000 2.017
60.58000 5.036
60.60000 1.073
60.62000 -2.148
60.64000 1.034
60.66000 3.975
60.68000 6.759
60.70000 3.353
60.72000 5.842
60.74000 4.029
60.76000 -0.641
60.78000 1.232
60.80000 2.360
60.82000 5.733
60.84000 5.864
60.86000 4.016
60.88000 2.076
60.90000 -0.284
60.92000 1.790
60.94000 2.622
60.96000 4.484
60.98000 6.307
61.00000 6.992
61.02000 2.524
61.04000 2.637
61.06000 4.382
61.08000 4.092
61.10000 5.285
61.12000 5.369
61.14000 3.404
61.16000 3.456
61.18000 1.600
61.20000 1.883
61.22000 3.129
61.24000 3.347
61.26000 7.574
61.28000 6.699
61.30000 3.730
61.32000 2.455
61.34000 2.376
61.36000 0.040
61.38000 -2.255
61.40000 -0.894
61.42000 3.214
61.44000 8.902
61.46000 7.943
61.48000 5.124
61.50000 6.016
61.52000 6.377
61.54000 7.968
61.56000 5.965
61.58000 3.927
61.60000 2.630
61.62000 4.479
61.64000 4.469
61.66000 5.181
61.68000 2.919
61.70000 1.706
61.72000 0.905
61.74000 2.136
61.76000 3.275
61.78000 4.958
61.80000 4.259
61.82000 2.007
61.84000 0.299
61.86000 2.666
61.88000 4.201
61.90000 2.949
61.92000 4.476
61.94000 2.125
61.96000 1.696
61.98000 3.929
62.00000 1.956
62.02000 2.129
62.04000 4.869
62.06000 0.702
62.08000 -2.308
62.10000 1.874
62.12000 0.889
62.14000 4.792
62.16000 5.081
62.18000 2.684
62.20000 2.325
62.22000 6.897
62.24000 5.501
62.26000 3.458
62.28000 4.931
62.30000 3.080
62.32000 4.245
62.34000 1.536
62.36000 1.077
62.38000 -0.741
62.40000 -0.379
62.42000 -0.001
62.44000 0.271
62.46000 -0.661
62.48000 3.047
62.50000 0.768
62.52000 -0.393
62.54000 3.387
62.56000 2.166
62.58000 0.557
62.60000 3.437
62.62000 1.610
62.64000 1.477
62.66000 0.293
62.68000 -0.638
62.70000 0.749
62.72000 2.974
62.74000 2.981
62.76000 3.114
62.78000 0.051
62.80000 -0.695
62.82000 -2.048
62.84000 -0.600
62.86000 -0.827
62.88000 -0.140
62.90000 3.949
62.92000 5.485
62.94000 1.920
62.96000 -2.335
62.98000 -1.271
63.00000 0.555
63.02000 1.492
63.04000 0.015
63.06000 -1.085
63.08000 -2.336
63.10000 0.151
63.12000 1.276
63.14000 -1.147
63.16000 1.816
63.18000 2.752
63.20000 1.264
63.22000 1.400
63.24000 -0.239
63.26000 1.835
63.28000 4.703
63.30000 2.325
63.32000 5.297
63.34000 2.403
63.36000 -1.681
63.38000 0.960
63.40000 3.331
63.42000 2.775
63.44000 0.369
63.46000 -0.494
63.48000 0.919
63.50000 0.023
63.52000 1.465
63.54000 0.540
63.56000 0.041
63.58000 2.323
63.60000 0.826
63.62000 -0.089
63.64000 3.025
63.66000 5.223
63.68000 3.140
63.70000 -1.092
63.72000 0.658
63.74000 3.120
63.76000 -0.024
63.78000 -0.599
63.80000 -2.080
63.82000 0.562
63.84000 -0.057
63.86000 -0.066
63.88000 2.394
63.90000 4.723
63.92000 2.273
63.94000 1.202
63.96000 -0.637
63.98000 -2.305
64.00000 -1.080
64.02000 1.142
64.04000 3.670
64.06000 3.271
64.08000 -1.357
64.10000 3.217
64.12000 4.873
64.14000 4.590
64.16000 3.318
64.18000 0.926
64.20000 -0.606
64.22000 -0.932
64.24000 -2.083
64.26000 1.449
64.28000 3.449
64.30000 3.385
64.32000 4.409
64.34000 -1.561
64.36000 0.389
64.38000 0.619
64.40000 1.162
64.42000 0.319
64.44000 -0.736
64.46000 1.232
64.48000 -0.496
64.50000 0.094
64.52000 1.249
64.54000 0.537
64.56000 0.557
64.58000 1.237
64.60000 4.673
64.62000 4.105
64.64000 -0.231
64.66000 -0.768
64.68000 4.063
64.70000 3.198
64.72000 1.718
64.74000 1.642
64.76000 2.005
64.78000 -0.500
64.80000 3.983
64.82000 2.224
64.84000 4.237
64.86000 1.188
64.88000 1.407
64.90000 -0.545
64.92000 0.227
64.94000 -0.368
64.96000 0.809
64.98000 2.395
65.00000 1.086
65.02000 -0.125
65.04000 -0.072
65.06000 0.021
65.08000 -0.273
65.10000 -2.324
65.12000 -1.362
65.14000 -2.323
65.16000 -1.179
65.18000 3.912
65.20000 0.967
65.22000 3.423
65.24000 0.165
65.26000 -0.178
65.28000 1.536
65.30000 0.408
65.32000 0.265
65.34000 3.864
65.36000 2.526
65.38000 0.818
65.40000 1.034
65.42000 3.104
65.44000 -0.138
65.46000 0.737
65.48000 4.086
65.50000 3.862
65.52000 -1.144
65.54000 3.217
65.56000 0.715
65.58000 -2.310
65.60000 0.246
65.62000 2.723
65.64000 0.952
65.66000 0.447
65.68000 0.354
65.70000 1.456
65.72000 -0.212
65.74000 1.179
65.76000 4.145
65.78000 5.948
65.80000 1.835
65.82000 2.486
65.84000 2.586
65.86000 1.282
65.88000 -1.762
65.90000 -2.312
65.92000 -0.338
65.94000 1.304
65.96000 3.674
65.98000 3.371
66.00000 3.314
66.02000 7.276
66.04000 2.704
66.06000 0.915
66.08000 0.664
66.10000 0.174
66.12000 0.757
66.14000 2.202
66.16000 1.562
66.18000 3.922
66.20000 2.170
66.22000 0.573
66.24000 0.295
66.26000 1.031
66.28000 0.110
66.30000 -0.829
66.32000 -0.715
66.34000 0.015
66.36000 0.577
66.38000 -0.258
66.40000 -1.609
66.42000 -0.828
66.44000 -1.555
66.46000 0.400
66.48000 0.664
66.50000 -1.891
66.52000 2.312
66.54000 -0.080
66.56000 -0.751
66.58000 1.659
66.60000 1.321
66.62000 -0.760
66.64000 -0.634
66.66000 0.366
66.68000 1.134
66.70000 0.153
66.72000 -2.387
66.74000 -0.358
66.76000 -0.179
66.78000 0.338
66.80000 -0.129
66.82000 -0.372
66.84000 -2.310
66.86000 -2.154
66.88000 2.124
66.90000 2.264
66.92000 1.124
66.94000 -1.019
66.96000 -1.176
66.98000 2.953
67.00000 2.619
67.02000 1.878
67.04000 1.269
67.06000 -0.589
67.08000 -0.109
67.10000 0.039
67.12000 -0.555
67.14000 -0.613
67.16000 1.592
67.18000 0.355
67.20000 0.982
67.22000 1.343
67.24000 -0.294
67.26000 -2.435
67.28000 3.257
67.30000 3.348
67.32000 1.549
67.34000 -1.251
67.36000 -0.240
67.38000 1.597
67.40000 0.364
67.42000 1.090
67.44000 3.171
67.46000 6.341
67.48000 2.308
67.50000 2.610
67.52000 7.493
67.54000 5.459
67.56000 4.068
67.58000 7.364
67.60000 8.549
67.62000 2.868
67.64000 2.734
67.66000 1.901
67.68000 0.217
67.70000 0.889
67.72000 2.975
67.74000 5.950
67.76000 9.627
67.78000 6.644
67.80000 7.398
67.82000 3.988
67.84000 5.530
67.86000 9.107
67.88000 8.390
67.90000 10.633
67.92000 11.274
67.94000 12.530
67.96000 11.000
67.98000 10.949
68.00000 16.313
68.02000 16.697
68.04000 17.621
68.06000 18.633
68.08000 19.455
68.10000 17.021
68.12000 15.958
68.14000 18.951
68.16000 15.304
68.18000 17.711
68.20000 21.529
68.22000 23.664
68.24000 22.801
68.26000 26.173
68.28000 26.517
68.30000 25.864
68.32000 24.706
68.34000 26.170
68.36000 34.389
68.38000 30.949
68.40000 28.263
68.42000 29.141
68.44000 31.147
68.46000 34.691
68.48000 34.226
68.50000 34.114
68.52000 25.892
68.54000 29.041
68.56000 35.083
68.58000 33.550
68.60000 37.181
68.62000 37.131
68.64000 35.621
68.66000 35.714
68.68000 38.887
68.70000 39.077
68.72000 36.196
68.74000 36.117
68.76000 34.518
68.78000 33.286
68.80000 35.077
68.82000 32.982
68.84000 32.683
68.86000 30.788
68.88000 30.512
68.90000 31.332
68.92000 31.698
68.94000 27.523
68.96000 29.832
68.98000 32.978
69.00000 31.872
69.02000 26.574
69.04000 22.539
69.06000 21.249
69.08000 21.124
69.10000 21.146
69.12000 15.945
69.14000 19.373
69.16000 17.743
69.18000 22.175
69.20000 21.095
69.22000 19.982
69.24000 14.200
69.26000 15.091
69.28000 13.934
69.30000 16.418
69.32000 12.234
69.34000 12.351
69.36000 10.568
69.38000 10.875
69.40000 11.701
69.42000 10.312
69.44000 6.751
69.46000 5.407
69.48000 7.110
69.50000 8.132
69.52000 6.932
69.54000 10.722
69.56000 8.000
69.58000 8.015
69.60000 4.267
69.62000 1.979
69.64000 2.553
69.66000 2.616
69.68000 5.470
69.70000 6.844
69.72000 3.647
69.74000 2.638
69.76000 2.146
69.78000 3.811
69.80000 8.003
69.82000 5.958
69.84000 4.420
69.86000 0.137
69.88000 0.510
69.90000 1.787
69.92000 0.366
69.94000 1.895
69.96000 8.087
69.98000 3.871
70.00000 0.598
70.02000 0.326
70.04000 1.640
70.06000 0.657
70.08000 2.145
70.10000 3.395
70.12000 2.329
70.14000 -1.179
70.16000 -0.521
70.18000 1.136
70.20000 -2.311
70.22000 0.788
70.24000 1.688
70.26000 1.412
70.28000 -1.124
70.30000 3.916
70.32000 4.368
70.34000 5.002
70.36000 4.574
70.38000 2.269
70.40000 -0.782
70.42000 -0.923
70.44000 3.499
70.46000 -0.073
70.48000 -0.596
70.50000 0.349
70.52000 1.854
70.54000 0.823
70.56000 2.927
70.58000 3.522
70.60000 3.931
70.62000 -0.020
70.64000 -0.529
70.66000 2.417
70.68000 1.334
70.70000 3.364
70.72000 3.771
70.74000 2.419
70.76000 5.275
70.78000 4.916
70.80000 5.552
70.82000 3.676
70.84000 4.353
70.86000 0.494
70.88000 3.702
70.90000 1.188
70.92000 -2.205
70.94000 1.409
70.96000 4.927
70.98000 9.295
71.00000 8.042
71.02000 7.465
71.04000 5.394
71.06000 6.187
71.08000 4.578
71.10000 3.169
71.12000 3.320
71.14000 -1.904
71.16000 3.059
71.18000 7.454
71.20000 4.872
71.22000 2.496
71.24000 0.541
71.26000 2.682
71.28000 0.244
71.30000 2.257
71.32000 5.750
71.34000 6.051
71.36000 2.155
71.38000 0.576
71.40000 3.132
71.42000 2.282
71.44000 4.996
71.46000 2.583
71.48000 2.200
71.50000 1.495
71.52000 0.667
71.54000 -1.225
71.56000 -1.820
71.58000 2.513
71.60000 3.418
71.62000 3.176
71.64000 1.471
71.66000 1.313
71.68000 1.545
71.70000 -0.238
71.72000 1.568
71.74000 -0.214
71.76000 0.790
71.78000 5.952
71.80000 4.551
71.82000 3.845
71.84000 4.384
71.86000 5.550
71.88000 3.279
71.90000 2.744
71.92000 -0.419
71.94000 3.912
71.96000 4.323
71.98000 0.881
72.00000 1.357
72.02000 2.918
72.04000 3.734
72.06000 1.968
72.08000 -1.796
72.10000 -2.177
72.12000 0.003
72.14000 -1.051
72.16000 1.991
72.18000 2.644
72.20000 2.341
72.22000 3.260
72.24000 1.502
72.26000 1.418
72.28000 0.634
72.30000 1.414
72.32000 2.393
72.34000 0.227
72.36000 1.053
72.38000 3.747
72.40000 3.683
72.42000 3.032
72.44000 4.734
72.46000 3.697
72.48000 2.153
72.50000 -0.316
72.52000 -0.911
72.54000 -2.153
72.56000 1.588
72.58000 5.485
72.60000 6.545
72.62000 4.121
72.64000 2.237
72.66000 3.091
72.68000 5.302
72.70000 5.044
72.72000 6.219
72.74000 4.371
72.76000 0.444
72.78000 2.200
72.80000 4.309
72.82000 3.734
72.84000 2.196
72.86000 2.361
72.88000 4.098
72.90000 3.047
72.92000 1.253
72.94000 -0.278
72.96000 -0.839
72.98000 -1.909
73.00000 1.127
73.02000 1.023
73.04000 1.943
73.06000 1.348
73.08000 3.529
73.10000 2.334
73.12000 6.262
73.14000 4.285
73.16000 1.670
73.18000 1.366
73.20000 0.865
73.22000 -0.038
73.24000 0.916
73.26000 1.887
73.28000 1.539
73.30000 3.010
73.32000 3.434
73.34000 1.124
73.36000 -0.688
73.38000 3.252
73.40000 4.579
73.42000 4.333
73.44000 4.567
73.46000 2.096
73.48000 1.111
73.50000 3.514
73.52000 6.786
73.54000 3.828
73.56000 1.975
73.58000 2.728
73.60000 4.268
73.62000 3.963
73.64000 -0.678
73.66000 2.805
73.68000 4.198
73.70000 2.182
73.72000 0.829
73.74000 -2.135
73.76000 -0.762
73.78000 -0.044
73.80000 0.443
73.82000 0.610
73.84000 -1.765
73.86000 2.495
73.88000 3.322
73.90000 1.221
73.92000 -0.736
73.94000 1.338
73.96000 -0.786
73.98000 -0.610
74.00000 0.329
74.02000 -0.887
74.04000 -0.547
74.06000 -0.630
74.08000 0.424
74.10000 0.929
74.12000 1.703
74.14000 4.394
74.16000 2.875
74.18000 5.102
74.20000 7.965
74.22000 4.226
74.24000 3.096
74.26000 5.451
74.28000 3.979
74.30000 0.115
74.32000 2.038
74.34000 3.728
74.36000 -0.690
74.38000 1.808
74.40000 1.865
74.42000 1.111
74.44000 1.264
74.46000 1.615
74.48000 3.723
74.50000 0.824
74.52000 -0.248
74.54000 2.072
74.56000 1.377
74.58000 0.847
74.60000 -1.718
74.62000 0.565
74.64000 0.638
74.66000 0.789
74.68000 -1.878
74.70000 -0.524
74.72000 -0.828
74.74000 1.578
74.76000 3.069
74.78000 4.019
74.80000 4.383
74.82000 3.651
74.84000 0.873
74.86000 2.162
74.88000 1.606
74.90000 -0.845
74.92000 0.276
74.94000 2.813
74.96000 2.882
74.98000 0.158
75.00000 0.772
75.02000 2.694
75.04000 3.948
75.06000 1.029
75.08000 0.226
75.10000 0.806
75.12000 -0.930
75.14000 1.477
75.16000 5.977
75.18000 1.983
75.20000 -0.781
75.22000 2.208
75.24000 4.018
75.26000 0.960
75.28000 -2.111
75.30000 1.510
75.32000 3.401
75.34000 4.421
75.36000 5.907
75.38000 0.855
75.40000 0.294
75.42000 3.844
75.44000 4.918
75.46000 0.149
75.48000 2.929
75.50000 2.458
75.52000 1.628
75.54000 2.950
75.56000 3.238
75.58000 1.028
75.60000 0.240
75.62000 0.733
75.64000 2.758
75.66000 3.371
75.68000 3.230
75.70000 3.351
75.72000 2.209
75.74000 8.135
75.76000 8.126
75.78000 6.976
75.80000 5.377
75.82000 2.443
75.84000 2.236
75.86000 2.345
75.88000 5.713
75.90000 1.381
75.92000 0.704
75.94000 -1.001
75.96000 1.692
75.98000 5.598
76.00000 3.400
76.02000 4.006
76.04000 1.800
76.06000 1.750
76.08000 4.612
76.10000 4.666
76.12000 2.713
76.14000 3.868
76.16000 1.380
76.18000 -1.233
76.20000 2.272
76.22000 2.438
76.24000 -2.127
76.26000 0.970
76.28000 2.473
76.30000 0.551
76.32000 0.546
76.34000 2.231
76.36000 0.530
76.38000 -0.621
76.40000 -0.828
76.42000 -2.087
76.44000 -0.264
76.46000 5.487
76.48000 3.413
76.50000 1.264
76.52000 2.120
76.54000 2.432
76.56000 3.712
76.58000 1.911
76.60000 0.009
76.62000 0.568
76.64000 1.344
76.66000 1.370
76.68000 1.465
76.70000 2.854
76.72000 2.240
76.74000 4.356
76.76000 3.198
76.78000 -0.078
76.80000 -0.177
76.82000 0.834
76.84000 1.055
76.86000 2.286
76.88000 6.912
76.90000 4.044
76.92000 2.848
76.94000 1.374
76.96000 3.100
76.98000 6.541
77.00000 5.803
77.02000 2.118
77.04000 2.130
77.06000 1.136
77.08000 -0.288
77.10000 -0.180
77.12000 -0.092
77.14000 2.500
77.16000 1.759
77.18000 5.105
77.20000 4.469
77.22000 2.429
77.24000 2.464
77.26000 2.698
77.28000 0.127
77.30000 -2.163
77.32000 1.967
77.34000 2.572
77.36000 4.750
77.38000 5.117
77.40000 3.162
77.42000 3.656
77.44000 4.385
77.46000 1.547
77.48000 -1.193
77.50000 0.030
77.52000 4.577
77.54000 3.013
77.56000 0.397
77.58000 -0.854
77.60000 0.902
77.62000 2.848
77.64000 1.768
77.66000 0.891
77.68000 3.338
77.70000 1.639
77.72000 -0.007
77.74000 0.163
77.76000 1.085
77.78000 0.355
77.80000 -0.140
77.82000 0.573
77.84000 2.347
77.86000 1.830
77.88000 0.964
77.90000 -2.166
77.92000 1.464
77.94000 2.987
77.96000 0.671
77.98000 1.288
78.00000 2.807
78.02000 3.564
78.04000 7.916
78.06000 6.130
78.08000 -1.535
78.10000 -1.366
78.12000 2.887
78.14000 2.078
78.16000 -1.109
78.18000 0.995
78.20000 2.210
78.22000 2.541
78.24000 3.980
78.26000 3.054
78.28000 4.377
78.30000 1.435
78.32000 1.752
78.34000 0.204
78.36000 1.710
78.38000 -0.365
78.40000 -1.167
78.42000 3.569
78.44000 4.051
78.46000 2.013
78.48000 -2.191
78.50000 1.755
78.52000 -1.091
78.54000 1.696
78.56000 2.099
78.58000 -0.444
78.60000 -0.363
78.62000 -0.715
78.64000 1.117
78.66000 3.592
78.68000 0.417
78.70000 1.597
78.72000 6.549
78.74000 3.813
78.76000 1.018
78.78000 -0.726
78.80000 0.760
78.82000 -1.898
78.84000 -1.456
78.86000 -2.194
78.88000 0.577
78.90000 3.580
78.92000 3.507
78.94000 2.804
78.96000 1.556
78.98000 2.417
79.00000 0.791
79.02000 1.430
79.04000 2.571
79.06000 1.777
79.08000 1.066
79.10000 1.955
79.12000 0.236
79.14000 1.060
79.16000 6.379
79.18000 4.755
79.20000 4.654
79.22000 4.415
79.24000 3.795
79.26000 -0.737
79.28000 -1.220
79.30000 -2.192
79.32000 0.521
79.34000 1.028
79.36000 -0.127
79.38000 -0.235
79.40000 3.550
79.42000 2.009
79.44000 -1.696
79.46000 -1.748
79.48000 0.765
79.50000 0.576
79.52000 1.860
79.54000 -0.423
79.56000 -0.014
79.58000 2.441
79.60000 0.952
79.62000 1.006
79.64000 1.193
79.66000 1.092
79.68000 0.773
79.70000 1.566
79.72000 1.767
79.74000 3.638
79.76000 2.358
79.78000 2.331
79.80000 -2.223
79.82000 2.810
79.84000 2.229
79.86000 2.634
79.88000 1.009
79.90000 1.070
79.92000 0.236
79.94000 0.284
79.96000 2.735
79.98000 0.727
80.00000 -1.625
80.02000 3.070
80.04000 4.548
80.06000 5.502
80.08000 0.010
80.10000 -2.037
80.12000 -0.787
80.14000 0.622
80.16000 1.660
80.18000 1.144
80.20000 0.607
80.22000 4.135
80.24000 0.984
80.26000 -1.510
80.28000 0.210
80.30000 3.218
80.32000 3.001
80.34000 0.170
80.36000 0.071
80.38000 -0.275
80.40000 1.491
80.42000 0.141
80.44000 -1.237
80.46000 -2.273
80.48000 -1.005
80.50000 0.787
80.52000 -0.842
80.54000 2.012
80.56000 4.419
80.58000 0.592
80.60000 1.654
80.62000 3.630
80.64000 5.744
80.66000 1.639
80.68000 2.782
80.70000 3.159
80.72000 2.414
80.74000 -1.579
80.76000 -1.826
80.78000 -2.305
80.80000 -1.043
80.82000 -1.142
80.84000 0.070
80.86000 2.758
80.88000 2.313
80.90000 -0.563
80.92000 1.791
80.94000 3.310
80.96000 1.651
80.98000 3.391
81.00000 3.112
81.02000 4.502
81.04000 3.937
81.06000 4.090
81.08000 3.788
81.10000 6.947
81.12000 4.284
81.14000 2.494
81.16000 3.318
81.18000 1.800
81.20000 -2.332
81.22000 3.078
81.24000 8.325
81.26000 5.134
81.28000 3.311
81.30000 2.655
81.32000 4.218
81.34000 3.684
81.36000 4.395
81.38000 5.857
81.40000 8.739
81.42000 8.388
81.44000 6.710
81.46000 4.734
81.48000 3.319
81.50000 3.723
81.52000 3.838
81.54000 7.643
81.56000 10.998
81.58000 4.150
81.60000 3.465
81.62000 6.569
81.64000 10.588
81.66000 12.505
81.68000 11.298
81.70000 9.802
81.72000 9.945
81.74000 6.654
81.76000 8.715
81.78000 11.969
81.80000 15.978
81.82000 12.396
81.84000 12.353
81.86000 13.092
81.88000 13.314
81.90000 11.301
81.92000 12.769
81.94000 13.329
81.96000 15.800
81.98000 20.695
82.00000 21.060
82.02000 25.725
82.04000 23.998
82.06000 19.923
82.08000 16.252
82.10000 19.359
82.12000 23.122
82.14000 22.557
82.16000 18.889
82.18000 22.999
82.20000 28.091
82.22000 27.059
82.24000 27.773
82.26000 26.771
82.28000 29.515
82.30000 35.073
82.32000 38.098
82.34000 36.513
82.36000 36.108
82.38000 35.001
82.40000 35.823
82.42000 35.445
82.44000 35.287
82.46000 36.981
82.48000 40.749
82.50000 41.477
82.52000 42.218
82.54000 44.442
82.56000 42.438
82.58000 39.537
82.60000 43.693
82.62000 43.939
82.64000 48.302
82.66000 45.672
82.68000 46.346
82.70000 47.132
82.72000 49.088
82.74000 51.815
82.76000 53.977
82.78000 54.527
82.80000 51.804
82.82000 55.445
82.84000 55.918
82.86000 50.545
82.88000 56.176
82.90000 56.757
82.92000 54.603
82.94000 54.323
82.96000 52.677
82.98000 52.966
83.00000 50.015
83.02000 52.623
83.04000 52.443
83.06000 50.331
83.08000 50.420
83.10000 48.902
83.12000 49.150
83.14000 41.897
83.16000 40.159
83.18000 42.015
83.20000 43.551
83.22000 39.159
83.24000 39.483
83.26000 42.487
83.28000 46.576
83.30000 41.254
83.32000 38.829
83.34000 38.537
83.36000 33.273
83.38000 33.812
83.40000 34.262
83.42000 32.807
83.44000 34.693
83.46000 35.177
83.48000 30.455
83.50000 28.882
83.52000 25.202
83.54000 21.352
83.56000 21.478
83.58000 26.164
83.60000 25.858
83.62000 25.908
83.64000 25.662
83.66000 21.104
83.68000 20.938
83.70000 20.981
83.72000 20.956
83.74000 15.178
83.76000 13.230
83.78000 13.720
83.80000 14.029
83.82000 13.527
83.84000 12.799
83.86000 15.045
83.88000 14.031
83.90000 10.075
83.92000 4.956
83.94000 6.963
83.96000 5.214
83.98000 9.234
84.00000 11.896
84.02000 5.607
84.04000 8.695
84.06000 5.240
84.08000 11.376
84.10000 8.057
84.12000 7.219
84.14000 7.851
84.16000 7.664
84.18000 5.336
84.20000 0.802
84.22000 4.810
84.24000 5.062
84.26000 3.319
84.28000 8.662
84.30000 10.520
84.32000 9.861
84.34000 5.423
84.36000 1.286
84.38000 0.461
84.40000 3.329
84.42000 3.435
84.44000 4.278
84.46000 5.422
84.48000 2.648
84.50000 5.002
84.52000 5.274
84.54000 3.525
84.56000 5.458
84.58000 1.548
84.60000 2.329
84.62000 3.877
84.64000 0.087
84.66000 2.477
84.68000 2.459
84.70000 -1.059
84.72000 0.135
84.74000 -1.833
84.76000 4.369
84.78000 3.546
84.80000 0.981
84.82000 2.252
84.84000 -0.276
84.86000 -1.850
84.88000 2.337
84.90000 4.195
84.92000 7.389
84.94000 6.183
84.96000 6.610
84.98000 5.120
85.00000 6.912
85.02000 4.791
85.04000 -2.213
85.06000 2.303
85.08000 0.713
85.10000 7.274
85.12000 6.184
85.14000 0.648
85.16000 4.170
85.18000 3.371
85.20000 10.040
85.22000 9.101
85.24000 6.261
85.26000 3.414
85.28000 3.473
85.30000 2.228
85.32000 2.381
85.34000 5.768
85.36000 4.592
85.38000 4.366
85.40000 5.663
85.42000 6.387
85.44000 5.417
85.46000 3.912
85.48000 5.200
85.50000 4.035
85.52000 3.135
85.54000 4.328
85.56000 3.699
85.58000 4.565
85.60000 2.497
85.62000 -0.845
85.64000 2.293
85.66000 4.136
85.68000 3.362
85.70000 6.143
85.72000 5.131
85.74000 2.830
85.76000 1.954
85.78000 -2.217
85.80000 1.720
85.82000 2.816
85.84000 3.463
85.86000 1.800
85.88000 4.297
85.90000 3.547
85.92000 1.831
85.94000 5.231
85.96000 2.660
85.98000 3.106
86.00000 6.866
86.02000 11.903
86.04000 8.368
86.06000 2.619
86.08000 3.121
86.10000 1.748
86.12000 2.855
86.14000 4.620
86.16000 3.213
86.18000 5.013
86.20000 4.317
86.22000 8.175
86.24000 4.720
86.26000 8.145
86.28000 6.893
86.30000 5.843
86.32000 2.614
86.34000 4.047
86.36000 7.391
86.38000 6.857
86.40000 8.447
86.42000 10.694
86.44000 9.828
86.46000 5.119
86.48000 5.624
86.50000 9.260
86.52000 8.116
86.54000 9.815
86.56000 9.515
86.58000 11.796
86.60000 14.165
86.62000 15.181
86.64000 15.224
86.66000 15.542
86.68000 14.360
86.70000 17.684
86.72000 21.697
86.74000 17.195
86.76000 19.618
86.78000 17.573
86.80000 22.356
86.82000 23.001
86.84000 22.475
86.86000 23.098
86.88000 28.070
86.90000 28.534
86.92000 27.122
86.94000 22.670
86.96000 23.305
86.98000 26.175
87.00000 28.539
87.02000 29.536
87.04000 32.878
87.06000 31.841
87.08000 32.547
87.10000 25.617
87.12000 30.375
87.14000 36.829
87.16000 28.515
87.18000 26.592
87.20000 30.605
87.22000 32.024
87.24000 30.062
87.26000 29.038
87.28000 31.265
87.30000 28.685
87.32000 29.783
87.34000 29.609
87.36000 28.798
87.38000 28.234
87.40000 33.937
87.42000 28.066
87.44000 31.724
87.46000 34.457
87.48000 30.607
87.50000 27.559
87.52000 30.008
87.54000 28.921
87.56000 25.284
87.58000 19.324
87.60000 21.117
87.62000 18.990
87.64000 23.150
87.66000 24.048
87.68000 20.469
87.70000 21.272
87.72000 20.478
87.74000 17.102
87.76000 18.648
87.78000 20.938
87.80000 16.130
87.82000 14.577
87.84000 15.790
87.86000 16.590
87.88000 17.385
87.90000 12.207
87.92000 12.209
87.94000 16.335
87.96000 17.160
87.98000 13.979
88.00000 14.274
88.02000 12.274
88.04000 10.526
88.06000 14.157
88.08000 15.034
88.10000 6.684
88.12000 4.688
88.14000 8.252
88.16000 5.927
88.18000 8.021
88.20000 8.259
88.22000 8.046
88.24000 6.475
88.26000 5.735
88.28000 8.935
88.30000 10.061
88.32000 8.597
88.34000 6.769
88.36000 3.500
88.38000 1.783
88.40000 10.437
88.42000 7.057
88.44000 0.935
88.46000 3.125
88.48000 5.293
88.50000 4.103
88.52000 1.633
88.54000 0.423
88.56000 1.955
88.58000 3.989
88.60000 3.440
88.62000 1.755
88.64000 3.784
88.66000 2.587
88.68000 3.363
88.70000 1.125
88.72000 1.923
88.74000 1.159
88.76000 4.271
88.78000 2.781
88.80000 3.026
88.82000 5.071
88.84000 1.848
88.86000 1.070
88.88000 1.614
88.90000 3.736
88.92000 4.421
88.94000 2.431
88.96000 -0.158
88.98000 -1.569
89.00000 -2.121
89.02000 0.721
89.04000 -1.139
89.06000 -0.663
89.08000 -0.052
89.10000 2.589
89.12000 3.831
89.14000 4.623
89.16000 2.860
89.18000 0.333
89.20000 5.499
89.22000 2.279
89.24000 2.537
89.26000 3.129
89.28000 6.468
89.30000 4.700
89.32000 3.231
89.34000 2.148
89.36000 4.702
89.38000 4.314
89.40000 -1.058
89.42000 -1.524
89.44000 -2.049
89.46000 1.940
89.48000 4.393
89.50000 2.783
89.52000 3.577
89.54000 3.953
89.56000 6.132
89.58000 3.724
89.60000 4.106
89.62000 3.968
89.64000 0.820
89.66000 -0.162
89.68000 2.477
89.70000 1.655
89.72000 1.665
89.74000 -0.012
89.76000 0.984
89.78000 4.290
89.80000 5.587
89.82000 1.660
89.84000 -0.546
89.86000 2.145
89.88000 3.792
89.90000 4.398
89.92000 1.680
89.94000 3.193
89.96000 2.611
89.98000 -0.047
90.00000 1.044
90.02000 4.684
90.04000 6.017
90.06000 4.910
90.08000 4.472
90.10000 1.610
90.12000 3.337
90.14000 6.761
90.16000 5.306
90.18000 5.313
90.20000 4.009
90.22000 4.755
90.24000 3.588
90.26000 5.507
90.28000 5.385
90.30000 7.390
90.32000 6.470
90.34000 -1.281
90.36000 -2.031
90.38000 4.691
90.40000 3.907
90.42000 2.634
90.44000 5.021
90.46000 2.067
90.48000 1.939
90.50000 5.138
90.52000 3.663
90.54000 4.494
90.56000 6.827
90.58000 8.638
90.60000 5.206
90.62000 3.675
90.64000 1.158
90.66000 -2.012
90.68000 -2.011
90.70000 0.662
90.72000 4.425
90.74000 4.577
90.76000 6.404
90.78000 5.148
90.80000 2.404
90.82000 -2.005
90.84000 0.866
90.86000 0.924
90.88000 5.240
90.90000 6.400
90.92000 5.863
90.94000 3.509
90.96000 6.613
90.98000 6.859
91.00000 5.892
91.02000 6.442
91.04000 6.397
91.06000 6.136
91.08000 4.879
91.10000 -0.525
91.12000 -1.618
91.14000 -0.402
91.16000 -0.806
91.18000 1.477
91.20000 0.595
91.22000 2.141
91.24000 5.913
91.26000 2.108
91.28000 1.925
91.30000 3.315
91.32000 3.340
91.34000 7.970
91.36000 4.162
91.38000 1.485
91.40000 0.972
91.42000 1.057
91.44000 4.158
91.46000 1.743
91.48000 4.916
91.50000 3.572
91.52000 0.727
91.54000 2.341
91.56000 -0.096
91.58000 1.084
91.60000 -1.478
91.62000 -0.551
91.64000 1.067
91.66000 0.904
91.68000 1.543
91.70000 1.795
91.72000 2.868
91.74000 1.433
91.76000 4.354
91.78000 2.926
91.80000 -0.074
91.82000 0.660
91.84000 -0.334
91.86000 2.040
91.88000 3.206
91.90000 2.973
91.92000 -2.027
91.94000 0.536
91.96000 2.937
91.98000 0.284
92.00000 2.816
92.02000 4.774
92.04000 -1.646
92.06000 3.071
92.08000 8.966
92.10000 7.178
92.12000 2.597
92.14000 0.319
92.16000 1.583
92.18000 5.397
92.20000 5.605
92.22000 5.261
92.24000 4.012
92.26000 2.242
92.28000 -1.961
92.30000 -0.766
92.32000 0.828
92.34000 0.111
92.36000 -2.031
92.38000 -0.098
92.40000 2.183
92.42000 1.174
92.44000 4.055
92.46000 5.272
92.48000 1.142
92.50000 -2.030
92.52000 1.910
92.54000 6.315
92.56000 7.486
92.58000 5.447
92.60000 5.455
92.62000 6.010
92.64000 4.303
92.66000 2.244
92.68000 0.182
92.70000 3.838
92.72000 7.082
92.74000 2.036
92.76000 -2.031
92.78000 -0.995
92.80000 1.133
92.82000 3.943
92.84000 -0.631
92.86000 -0.614
92.88000 -0.625
92.90000 0.869
92.92000 2.142
92.94000 2.164
92.96000 3.168
92.98000 1.617
93.00000 -2.041
93.02000 -1.106
93.04000 2.367
93.06000 3.886
93.08000 3.253
93.10000 4.698
93.12000 3.767
93.14000 3.047
93.16000 3.903
93.18000 5.030
93.20000 2.263
93.22000 0.219
93.24000 6.795
93.26000 5.024
93.28000 3.560
93.30000 4.093
93.32000 0.872
93.34000 -0.054
93.36000 0.516
93.38000 3.313
93.40000 3.979
93.42000 3.320
93.44000 -1.995
93.46000 -0.790
93.48000 4.875
93.50000 4.062
93.52000 1.837
93.54000 -2.053
93.56000 -1.925
93.58000 3.348
93.60000 6.440
93.62000 2.629
93.64000 3.411
93.66000 3.883
93.68000 8.310
93.70000 7.348
93.72000 7.527
93.74000 5.869
93.76000 5.592
93.78000 4.835
93.80000 0.169
93.82000 -0.686
93.84000 3.334
93.86000 2.377
93.88000 1.803
93.90000 -1.981
93.92000 -0.959
93.94000 4.007
93.96000 2.707
93.98000 0.493
94.00000 -0.097
94.02000 1.946
94.04000 6.306
94.06000 3.323
94.08000 4.883
94.10000 5.334
94.12000 4.136
94.14000 6.849
94.16000 4.259
94.18000 1.069
94.20000 6.275
94.22000 3.096
94.24000 3.818
94.26000 0.305
94.28000 1.366
94.30000 1.066
94.32000 1.292
94.34000 1.524
94.36000 2.333
94.38000 3.409
94.40000 3.769
94.42000 2.690
94.44000 0.974
94.46000 -1.108
94.48000 2.368
94.50000 5.964
94.52000 5.730
94.54000 5.136
94.56000 5.028
94.58000 0.347
94.60000 1.750
94.62000 5.761
94.64000 3.418
94.66000 0.648
94.68000 -0.214
94.70000 1.915
94.72000 7.270
94.74000 4.169
94.76000 4.342
94.78000 3.430
94.80000 4.034
94.82000 3.667
94.84000 3.794
94.86000 7.741
94.88000 4.512
94.90000 -2.022
94.92000 1.271
94.94000 0.630
94.96000 2.000
94.98000 3.005
95.00000 2.004
95.02000 1.474
95.04000 3.671
95.06000 1.964
95.08000 -2.029
95.10000 -0.411
95.12000 6.805
95.14000 7.574
95.16000 4.497
95.18000 0.686
95.20000 -0.586
95.22000 5.512
95.24000 3.678
95.26000 2.071
95.28000 6.648
95.30000 4.457
95.32000 0.883
95.34000 1.643
95.36000 1.947
95.38000 2.279
95.40000 3.694
95.42000 6.807
95.44000 6.360
95.46000 7.633
95.48000 8.514
95.50000 5.255
95.52000 4.180
95.54000 1.898
95.56000 5.295
95.58000 2.425
95.60000 0.732
95.62000 4.340
95.64000 5.096
95.66000 2.949
95.68000 3.872
95.70000 3.780
95.72000 2.245
95.74000 5.237
95.76000 7.534
95.78000 7.820
95.80000 5.085
95.82000 5.531
95.84000 4.432
95.86000 5.742
95.88000 7.040
95.90000 4.949
95.92000 2.479
95.94000 2.954
95.96000 2.820
95.98000 2.574
96.00000 0.545
96.02000 1.513
96.04000 6.927
96.06000 4.019
96.08000 -0.406
96.10000 1.041
96.12000 -2.025
96.14000 1.601
96.16000 6.029
96.18000 10.210
96.20000 6.097
96.22000 3.312
96.24000 4.835
96.26000 5.876
96.28000 4.217
96.30000 5.931
96.32000 3.387
96.34000 -0.784
96.36000 0.689
96.38000 4.429
96.40000 4.708
96.42000 1.344
96.44000 2.946
96.46000 1.148
96.48000 4.226
96.50000 7.937
96.52000 7.370
96.54000 7.832
96.56000 8.700
96.58000 5.369
96.60000 5.421
96.62000 7.263
96.64000 3.798
96.66000 5.502
96.68000 4.474
96.70000 1.387
96.72000 0.510
96.74000 -0.134
96.76000 3.610
96.78000 4.365
96.80000 3.248
96.82000 2.806
96.84000 5.555
96.86000 3.614
96.88000 3.708
96.90000 6.040
96.92000 4.812
96.94000 2.363
96.96000 1.454
96.98000 4.639
97.00000 1.350
97.02000 2.628
97.04000 9.001
97.06000 9.051
97.08000 6.237
97.10000 8.736
97.12000 6.933
97.14000 1.169
97.16000 4.334
97.18000 3.678
97.20000 3.949
97.22000 6.270
97.24000 6.630
97.26000 6.648
97.28000 8.623
97.30000 6.818
97.32000 1.600
97.34000 2.573
97.36000 6.847
97.38000 7.662
97.40000 8.972
97.42000 10.802
97.44000 7.849
97.46000 -0.720
97.48000 -1.786
97.50000 2.416
97.52000 3.545
97.54000 3.885
97.56000 9.533
97.58000 7.142
97.60000 6.711
97.62000 3.601
97.64000 -1.074
97.66000 -1.969
97.68000 2.690
97.70000 6.790
97.72000 5.521
97.74000 8.116
97.76000 4.722
97.78000 3.337
97.80000 3.838
97.82000 4.988
97.84000 12.496
97.86000 13.406
97.88000 6.953
97.90000 9.527
97.92000 10.271
97.94000 9.997
97.96000 7.078
97.98000 10.827
98.00000 8.153
98.02000 3.115
98.04000 5.680
98.06000 7.010
98.08000 5.063
98.10000 5.803
98.12000 3.058
98.14000 7.939
98.16000 5.451
98.18000 4.709
98.20000 9.339
98.22000 8.188
98.24000 -1.955
98.26000 -1.158
98.28000 1.842
98.30000 7.505
98.32000 9.553
98.34000 11.743
98.36000 8.583
98.38000 7.262
98.40000 7.803
98.42000 5.276
98.44000 6.933
98.46000 5.921
98.48000 0.957
98.50000 7.448
98.52000 6.156
98.54000 5.984
98.56000 0.356
98.58000 6.276
98.60000 5.289
98.62000 4.105
98.64000 6.086
98.66000 14.479
98.68000 11.770
98.70000 6.243
98.72000 5.713
98.74000 4.863
98.76000 5.461
98.78000 8.527
98.80000 9.700
98.82000 13.164
98.84000 1.726
98.86000 -0.418
98.88000 5.667
98.90000 3.599
98.92000 3.072
98.94000 6.049
98.96000 9.887
98.98000 9.247
99.00000 13.330
99.02000 3.770
99.04000 8.637
99.06000 8.468
99.08000 6.466
99.10000 2.963
99.12000 6.843
99.14000 -2.177
99.16000 3.327
99.18000 5.186
99.20000 0.499
99.22000 3.919
99.24000 0.406
99.26000 2.411
99.28000 0.551
99.30000 7.502
99.32000 8.404
99.34000 4.810
99.36000 -1.952
99.38000 -1.760
99.40000 7.493
99.42000 9.936
99.44000 12.191
99.46000 6.506
99.48000 7.938
99.50000 8.742
99.52000 2.516
99.54000 2.056
99.56000 2.812
99.58000 8.650
99.60000 9.820
99.62000 11.953
99.64000 10.853
99.66000 3.877
99.68000 -1.734
99.70000 -0.907
99.72000 2.242
99.74000 8.665
99.76000 5.645
99.78000 7.677
99.80000 4.561
99.82000 2.372
99.84000 2.017
99.86000 4.416
99.88000 1.409
99.90000 5.743
99.92000 1.587
99.94000 -2.072
99.96000 -2.134
99.98000 0.000
