'Id: "0011389" Comment: "Integrate frame 0011389_Au-Ir-Rh_Au-Rich_XRD_Mapping-055-0000.gfrmwith cursor Wedge Cursor #5" Operator: "B?rgel" Anode: "Cu" Wavelength: "1.5406" Scantype: "2Theta (TwoTheta)" TimePerStep: "1" X: "36" Y: "-27" Z: "5.95" 
10.00000 0.000
10.02000 4.868
10.04000 18.608
10.06000 20.572
10.08000 6.030
10.10000 1.859
10.12000 -3.311
10.14000 2.489
10.16000 16.083
10.18000 27.178
10.20000 19.693
10.22000 14.072
10.24000 18.079
10.26000 17.307
10.28000 15.806
10.30000 24.793
10.32000 18.857
10.34000 12.482
10.36000 16.518
10.38000 19.358
10.40000 29.713
10.42000 25.839
10.44000 32.792
10.46000 40.680
10.48000 23.213
10.50000 21.546
10.52000 15.314
10.54000 16.142
10.56000 20.101
10.58000 21.752
10.60000 19.350
10.62000 9.197
10.64000 12.652
10.66000 27.124
10.68000 20.508
10.70000 27.611
10.72000 25.464
10.74000 27.066
10.76000 32.978
10.78000 34.762
10.80000 38.593
10.82000 33.177
10.84000 30.659
10.86000 23.989
10.88000 24.196
10.90000 32.306
10.92000 36.577
10.94000 39.266
10.96000 30.259
10.98000 21.500
11.00000 32.727
11.02000 29.588
11.04000 24.756
11.06000 23.369
11.08000 32.542
11.10000 38.009
11.12000 38.599
11.14000 37.217
11.16000 24.685
11.18000 30.412
11.20000 30.562
11.22000 27.085
11.24000 34.252
11.26000 37.177
11.28000 39.876
11.30000 43.682
11.32000 30.198
11.34000 27.345
11.36000 35.607
11.38000 39.025
11.40000 30.628
11.42000 30.101
11.44000 33.164
11.46000 36.060
11.48000 34.322
11.50000 35.180
11.52000 39.744
11.54000 43.046
11.56000 45.074
11.58000 40.531
11.60000 38.753
11.62000 42.128
11.64000 42.508
11.66000 48.245
11.68000 49.463
11.70000 40.523
11.72000 33.547
11.74000 37.435
11.76000 38.801
11.78000 36.526
11.80000 42.729
11.82000 47.424
11.84000 44.857
11.86000 36.156
11.88000 29.578
11.90000 41.925
11.92000 41.755
11.94000 41.244
11.96000 38.121
11.98000 32.659
12.00000 33.386
12.02000 40.123
12.04000 50.548
12.06000 46.587
12.08000 42.208
12.10000 40.239
12.12000 39.476
12.14000 48.582
12.16000 48.402
12.18000 40.733
12.20000 44.382
12.22000 53.433
12.24000 44.393
12.26000 39.471
12.28000 50.332
12.30000 45.457
12.32000 48.452
12.34000 49.433
12.36000 46.201
12.38000 44.193
12.40000 31.302
12.42000 31.824
12.44000 41.433
12.46000 43.976
12.48000 38.828
12.50000 43.430
12.52000 49.262
12.54000 46.527
12.56000 46.592
12.58000 48.278
12.60000 45.633
12.62000 42.246
12.64000 40.631
12.66000 41.099
12.68000 48.371
12.70000 47.388
12.72000 39.095
12.74000 40.124
12.76000 41.647
12.78000 48.579
12.80000 51.255
12.82000 40.390
12.84000 38.629
12.86000 43.485
12.88000 47.584
12.90000 44.015
12.92000 43.128
12.94000 42.843
12.96000 46.751
12.98000 36.454
13.00000 37.804
13.02000 48.333
13.04000 42.388
13.06000 42.463
13.08000 40.553
13.10000 43.884
13.12000 44.647
13.14000 42.260
13.16000 42.984
13.18000 38.866
13.20000 32.868
13.22000 39.493
13.24000 46.156
13.26000 32.809
13.28000 36.787
13.30000 41.771
13.32000 44.956
13.34000 40.066
13.36000 37.082
13.38000 38.464
13.40000 36.944
13.42000 34.483
13.44000 32.827
13.46000 29.397
13.48000 30.625
13.50000 30.654
13.52000 32.364
13.54000 34.142
13.56000 43.749
13.58000 41.246
13.60000 29.696
13.62000 25.494
13.64000 27.407
13.66000 29.343
13.68000 33.635
13.70000 37.786
13.72000 41.978
13.74000 41.087
13.76000 34.403
13.78000 37.084
13.80000 34.670
13.82000 30.057
13.84000 37.033
13.86000 40.599
13.88000 38.449
13.90000 33.964
13.92000 34.629
13.94000 34.172
13.96000 43.015
13.98000 43.654
14.00000 35.249
14.02000 35.919
14.04000 32.251
14.06000 35.512
14.08000 37.963
14.10000 36.873
14.12000 30.477
14.14000 36.745
14.16000 36.075
14.18000 30.440
14.20000 26.465
14.22000 30.805
14.24000 42.249
14.26000 36.657
14.28000 45.391
14.30000 44.403
14.32000 45.284
14.34000 34.828
14.36000 24.776
14.38000 23.384
14.40000 24.798
14.42000 33.893
14.44000 27.848
14.46000 23.269
14.48000 23.114
14.50000 34.662
14.52000 37.306
14.54000 31.534
14.56000 32.212
14.58000 40.925
14.60000 38.943
14.62000 31.478
14.64000 18.752
14.66000 14.450
14.68000 21.395
14.70000 22.311
14.72000 30.909
14.74000 32.112
14.76000 29.830
14.78000 28.979
14.80000 28.793
14.82000 24.696
14.84000 25.977
14.86000 21.411
14.88000 27.807
14.90000 30.005
14.92000 20.675
14.94000 24.165
14.96000 19.314
14.98000 20.223
15.00000 25.886
15.02000 13.647
15.04000 16.547
15.06000 21.965
15.08000 28.990
15.10000 40.895
15.12000 33.236
15.14000 21.443
15.16000 20.240
15.18000 17.999
15.20000 12.880
15.22000 17.103
15.24000 23.152
15.26000 20.890
15.28000 24.552
15.30000 21.143
15.32000 16.265
15.34000 24.448
15.36000 26.698
15.38000 27.970
15.40000 30.736
15.42000 22.746
15.44000 15.946
15.46000 21.029
15.48000 26.935
15.50000 26.817
15.52000 35.103
15.54000 22.186
15.56000 14.758
15.58000 13.986
15.60000 21.869
15.62000 24.380
15.64000 13.629
15.66000 17.964
15.68000 20.569
15.70000 18.215
15.72000 22.162
15.74000 19.060
15.76000 19.274
15.78000 18.327
15.80000 16.516
15.82000 20.462
15.84000 18.263
15.86000 15.560
15.88000 15.296
15.90000 17.514
15.92000 18.023
15.94000 13.549
15.96000 22.590
15.98000 28.584
16.00000 20.027
16.02000 29.384
16.04000 31.284
16.06000 12.624
16.08000 13.358
16.10000 20.767
16.12000 24.316
16.14000 15.183
16.16000 12.346
16.18000 17.756
16.20000 18.993
16.22000 22.125
16.24000 27.985
16.26000 15.452
16.28000 11.031
16.30000 19.765
16.32000 24.699
16.34000 15.707
16.36000 8.707
16.38000 10.606
16.40000 15.178
16.42000 12.620
16.44000 19.998
16.46000 20.247
16.48000 20.675
16.50000 15.865
16.52000 16.079
16.54000 16.070
16.56000 10.949
16.58000 17.485
16.60000 15.460
16.62000 16.344
16.64000 17.878
16.66000 11.405
16.68000 10.194
16.70000 14.288
16.72000 25.532
16.74000 25.594
16.76000 18.911
16.78000 15.067
16.80000 7.597
16.82000 14.878
16.84000 16.383
16.86000 15.929
16.88000 13.878
16.90000 9.710
16.92000 10.213
16.94000 12.747
16.96000 6.530
16.98000 6.025
17.00000 9.331
17.02000 17.320
17.04000 9.338
17.06000 10.743
17.08000 17.000
17.10000 8.087
17.12000 3.396
17.14000 12.630
17.16000 19.532
17.18000 18.247
17.20000 16.633
17.22000 11.424
17.24000 3.379
17.26000 7.762
17.28000 9.338
17.30000 8.305
17.32000 6.011
17.34000 6.670
17.36000 8.809
17.38000 14.862
17.40000 13.034
17.42000 15.739
17.44000 15.949
17.46000 11.894
17.48000 16.490
17.50000 15.994
17.52000 13.776
17.54000 6.321
17.56000 10.584
17.58000 4.995
17.60000 7.347
17.62000 12.737
17.64000 8.051
17.66000 7.976
17.68000 8.783
17.70000 13.446
17.72000 10.210
17.74000 10.669
17.76000 14.383
17.78000 12.007
17.80000 11.792
17.82000 3.054
17.84000 8.748
17.86000 8.046
17.88000 9.638
17.90000 4.881
17.92000 11.803
17.94000 6.596
17.96000 2.556
17.98000 2.239
18.00000 1.152
18.02000 0.646
18.04000 3.601
18.06000 1.456
18.08000 1.589
18.10000 2.352
18.12000 -1.121
18.14000 13.332
18.16000 18.088
18.18000 12.938
18.20000 10.327
18.22000 7.560
18.24000 13.511
18.26000 9.148
18.28000 3.088
18.30000 9.616
18.32000 6.709
18.34000 7.190
18.36000 11.881
18.38000 9.175
18.40000 6.774
18.42000 7.662
18.44000 -2.019
18.46000 8.210
18.48000 9.196
18.50000 11.212
18.52000 4.899
18.54000 7.467
18.56000 12.862
18.58000 4.162
18.60000 2.995
18.62000 6.123
18.64000 9.653
18.66000 7.071
18.68000 10.535
18.70000 13.135
18.72000 5.062
18.74000 4.647
18.76000 8.462
18.78000 6.589
18.80000 13.868
18.82000 13.148
18.84000 7.888
18.86000 5.341
18.88000 4.926
18.90000 6.641
18.92000 12.920
18.94000 12.397
18.96000 4.741
18.98000 8.178
19.00000 7.846
19.02000 3.347
19.04000 16.201
19.06000 16.232
19.08000 8.126
19.10000 8.041
19.12000 7.378
19.14000 6.649
19.16000 -0.560
19.18000 2.959
19.20000 6.099
19.22000 4.583
19.24000 4.108
19.26000 8.222
19.28000 13.429
19.30000 10.598
19.32000 5.203
19.34000 7.935
19.36000 3.106
19.38000 -0.144
19.40000 7.283
19.42000 12.320
19.44000 11.588
19.46000 10.242
19.48000 -4.189
19.50000 -1.323
19.52000 6.130
19.54000 8.200
19.56000 1.794
19.58000 6.243
19.60000 13.605
19.62000 9.909
19.64000 6.799
19.66000 6.051
19.68000 10.912
19.70000 8.843
19.72000 9.290
19.74000 9.680
19.76000 5.681
19.78000 3.954
19.80000 7.006
19.82000 8.969
19.84000 7.590
19.86000 1.708
19.88000 6.204
19.90000 4.556
19.92000 5.504
19.94000 5.904
19.96000 2.886
19.98000 3.740
20.00000 5.408
20.02000 8.689
20.04000 15.997
20.06000 12.841
20.08000 7.781
20.10000 3.867
20.12000 8.228
20.14000 1.884
20.16000 0.408
20.18000 6.080
20.20000 14.804
20.22000 9.432
20.24000 11.702
20.26000 9.412
20.28000 12.781
20.30000 12.101
20.32000 7.700
20.34000 1.999
20.36000 6.117
20.38000 7.960
20.40000 16.137
20.42000 11.874
20.44000 8.328
20.46000 2.732
20.48000 -1.209
20.50000 2.849
20.52000 5.671
20.54000 0.739
20.56000 -0.554
20.58000 3.946
20.60000 1.841
20.62000 9.493
20.64000 13.960
20.66000 5.087
20.68000 -0.206
20.70000 10.813
20.72000 9.429
20.74000 6.140
20.76000 8.403
20.78000 4.485
20.80000 0.657
20.82000 6.296
20.84000 4.153
20.86000 9.646
20.88000 8.560
20.90000 5.960
20.92000 1.666
20.94000 1.556
20.96000 2.102
20.98000 3.757
21.00000 1.413
21.02000 0.746
21.04000 7.371
21.06000 5.563
21.08000 3.927
21.10000 -1.087
21.12000 0.562
21.14000 2.706
21.16000 9.029
21.18000 1.061
21.20000 1.480
21.22000 1.808
21.24000 1.323
21.26000 5.413
21.28000 10.407
21.30000 11.948
21.32000 10.370
21.34000 6.057
21.36000 9.622
21.38000 6.271
21.40000 6.379
21.42000 7.446
21.44000 3.375
21.46000 -1.028
21.48000 3.833
21.50000 3.320
21.52000 6.911
21.54000 10.757
21.56000 1.066
21.58000 -2.893
21.60000 2.221
21.62000 7.944
21.64000 14.814
21.66000 12.056
21.68000 9.205
21.70000 9.378
21.72000 10.564
21.74000 2.933
21.76000 5.007
21.78000 1.519
21.80000 0.152
21.82000 5.971
21.84000 6.886
21.86000 2.347
21.88000 10.424
21.90000 4.543
21.92000 -4.104
21.94000 1.664
21.96000 10.537
21.98000 7.669
22.00000 7.643
22.02000 2.888
22.04000 7.023
22.06000 10.751
22.08000 2.890
22.10000 -2.844
22.12000 4.573
22.14000 2.384
22.16000 4.438
22.18000 4.462
22.20000 2.496
22.22000 1.540
22.24000 3.418
22.26000 0.356
22.28000 1.058
22.30000 1.253
22.32000 -1.420
22.34000 -3.241
22.36000 1.445
22.38000 2.159
22.40000 2.407
22.42000 3.239
22.44000 -0.732
22.46000 0.850
22.48000 7.432
22.50000 5.235
22.52000 7.630
22.54000 4.407
22.56000 5.651
22.58000 3.874
22.60000 4.220
22.62000 2.484
22.64000 -0.748
22.66000 -1.950
22.68000 5.400
22.70000 0.607
22.72000 0.756
22.74000 2.955
22.76000 4.721
22.78000 7.999
22.80000 1.301
22.82000 -0.649
22.84000 1.700
22.86000 4.308
22.88000 4.522
22.90000 3.758
22.92000 6.397
22.94000 -3.777
22.96000 -3.056
22.98000 -0.344
23.00000 1.021
23.02000 0.191
23.04000 -3.438
23.06000 1.684
23.08000 1.645
23.10000 0.979
23.12000 1.069
23.14000 3.518
23.16000 3.499
23.18000 11.973
23.20000 2.772
23.22000 1.278
23.24000 5.975
23.26000 6.953
23.28000 7.690
23.30000 1.995
23.32000 -0.216
23.34000 0.781
23.36000 2.493
23.38000 0.038
23.40000 4.100
23.42000 8.124
23.44000 3.323
23.46000 -1.691
23.48000 -1.360
23.50000 1.479
23.52000 -2.809
23.54000 5.378
23.56000 3.504
23.58000 5.908
23.60000 0.815
23.62000 -3.410
23.64000 -0.550
23.66000 1.939
23.68000 4.892
23.70000 6.854
23.72000 0.275
23.74000 0.874
23.76000 0.606
23.78000 -0.032
23.80000 2.076
23.82000 3.268
23.84000 6.423
23.86000 4.657
23.88000 3.462
23.90000 -1.614
23.92000 1.259
23.94000 -2.527
23.96000 -1.425
23.98000 -3.826
24.00000 -4.014
24.02000 -1.575
24.04000 1.700
24.06000 3.355
24.08000 -1.530
24.10000 -2.090
24.12000 2.178
24.14000 0.241
24.16000 2.318
24.18000 0.190
24.20000 -1.035
24.22000 -3.106
24.24000 3.079
24.26000 5.023
24.28000 4.531
24.30000 -0.055
24.32000 -0.342
24.34000 -0.852
24.36000 2.229
24.38000 5.125
24.40000 0.056
24.42000 0.682
24.44000 -2.250
24.46000 0.480
24.48000 -0.120
24.50000 2.409
24.52000 6.751
24.54000 4.197
24.56000 4.450
24.58000 1.810
24.60000 4.166
24.62000 2.212
24.64000 3.105
24.66000 4.537
24.68000 0.763
24.70000 -2.742
24.72000 -3.971
24.74000 -1.048
24.76000 2.034
24.78000 4.829
24.80000 1.288
24.82000 3.462
24.84000 2.842
24.86000 6.123
24.88000 10.737
24.90000 6.133
24.92000 3.540
24.94000 3.540
24.96000 5.397
24.98000 6.269
25.00000 -0.431
25.02000 0.089
25.04000 6.334
25.06000 7.489
25.08000 7.771
25.10000 6.641
25.12000 4.254
25.14000 4.386
25.16000 3.144
25.18000 5.460
25.20000 5.890
25.22000 4.034
25.24000 -0.662
25.26000 0.035
25.28000 -1.063
25.30000 0.421
25.32000 5.735
25.34000 0.785
25.36000 -1.247
25.38000 2.864
25.40000 3.062
25.42000 4.755
25.44000 0.276
25.46000 3.512
25.48000 3.664
25.50000 1.320
25.52000 1.625
25.54000 4.056
25.56000 -3.899
25.58000 -2.022
25.60000 1.452
25.62000 5.346
25.64000 0.757
25.66000 -0.030
25.68000 -1.303
25.70000 -0.175
25.72000 1.470
25.74000 1.762
25.76000 5.736
25.78000 3.888
25.80000 1.680
25.82000 0.870
25.84000 1.562
25.86000 -2.313
25.88000 1.821
25.90000 4.906
25.92000 3.959
25.94000 6.212
25.96000 2.888
25.98000 0.448
26.00000 -0.316
26.02000 3.324
26.04000 5.807
26.06000 5.488
26.08000 6.339
26.10000 9.044
26.12000 1.802
26.14000 -3.654
26.16000 0.814
26.18000 7.610
26.20000 1.477
26.22000 -1.509
26.24000 1.014
26.26000 5.526
26.28000 5.934
26.30000 5.234
26.32000 3.779
26.34000 -3.866
26.36000 -2.634
26.38000 7.778
26.40000 4.283
26.42000 1.634
26.44000 6.685
26.46000 9.133
26.48000 11.378
26.50000 5.621
26.52000 6.562
26.54000 5.739
26.56000 0.582
26.58000 2.697
26.60000 6.925
26.62000 0.353
26.64000 -3.818
26.66000 3.230
26.68000 5.115
26.70000 2.400
26.72000 2.924
26.74000 1.164
26.76000 -2.151
26.78000 1.692
26.80000 4.047
26.82000 3.764
26.84000 0.810
26.86000 -0.856
26.88000 0.652
26.90000 -3.388
26.92000 -3.599
26.94000 2.003
26.96000 2.363
26.98000 3.378
27.00000 2.228
27.02000 4.224
27.04000 6.059
27.06000 3.816
27.08000 2.894
27.10000 3.133
27.12000 8.178
27.14000 8.762
27.16000 3.284
27.18000 -0.799
27.20000 3.383
27.22000 0.920
27.24000 -2.090
27.26000 -2.722
27.28000 -3.791
27.30000 3.086
27.32000 5.321
27.34000 4.274
27.36000 1.292
27.38000 1.223
27.40000 3.273
27.42000 1.798
27.44000 -2.480
27.46000 1.207
27.48000 2.426
27.50000 -0.679
27.52000 0.850
27.54000 -3.027
27.56000 0.720
27.58000 4.995
27.60000 5.207
27.62000 1.250
27.64000 1.227
27.66000 7.307
27.68000 8.641
27.70000 2.336
27.72000 3.521
27.74000 5.091
27.76000 2.992
27.78000 5.325
27.80000 3.125
27.82000 0.556
27.84000 2.347
27.86000 4.491
27.88000 8.661
27.90000 4.733
27.92000 0.078
27.94000 -3.773
27.96000 -1.299
27.98000 -1.789
28.00000 -3.768
28.02000 -0.123
28.04000 -0.211
28.06000 4.264
28.08000 3.966
28.10000 3.974
28.12000 1.863
28.14000 0.918
28.16000 4.943
28.18000 5.231
28.20000 3.503
28.22000 2.428
28.24000 -2.036
28.26000 -0.682
28.28000 1.742
28.30000 7.126
28.32000 6.452
28.34000 3.570
28.36000 2.976
28.38000 6.730
28.40000 2.516
28.42000 5.473
28.44000 7.276
28.46000 -1.602
28.48000 -3.099
28.50000 -1.806
28.52000 -2.405
28.54000 2.007
28.56000 5.849
28.58000 1.478
28.60000 -3.101
28.62000 6.314
28.64000 5.602
28.66000 5.792
28.68000 5.557
28.70000 3.642
28.72000 6.960
28.74000 2.300
28.76000 2.462
28.78000 1.871
28.80000 0.273
28.82000 5.805
28.84000 4.087
28.86000 -3.441
28.88000 2.999
28.90000 6.474
28.92000 3.160
28.94000 4.932
28.96000 5.313
28.98000 3.975
29.00000 1.277
29.02000 1.248
29.04000 5.983
29.06000 -0.284
29.08000 2.057
29.10000 -1.110
29.12000 -3.506
29.14000 -0.090
29.16000 2.634
29.18000 1.065
29.20000 1.595
29.22000 2.574
29.24000 3.408
29.26000 5.323
29.28000 1.955
29.30000 3.202
29.32000 2.391
29.34000 2.951
29.36000 1.483
29.38000 1.007
29.40000 2.183
29.42000 2.265
29.44000 0.306
29.46000 5.706
29.48000 3.210
29.50000 2.232
29.52000 0.278
29.54000 4.915
29.56000 8.135
29.58000 8.814
29.60000 7.630
29.62000 2.418
29.64000 2.829
29.66000 7.032
29.68000 5.737
29.70000 2.639
29.72000 1.442
29.74000 3.151
29.76000 5.053
29.78000 8.078
29.80000 3.640
29.82000 1.994
29.84000 0.445
29.86000 2.636
29.88000 3.096
29.90000 9.715
29.92000 5.465
29.94000 2.815
29.96000 -3.678
29.98000 1.881
30.00000 5.723
30.02000 6.468
30.04000 6.301
30.06000 4.044
30.08000 3.009
30.10000 -0.789
30.12000 1.547
30.14000 6.034
30.16000 8.372
30.18000 7.532
30.20000 4.421
30.22000 1.995
30.24000 -2.865
30.26000 1.581
30.28000 2.440
30.30000 3.207
30.32000 3.855
30.34000 8.169
30.36000 5.548
30.38000 2.431
30.40000 3.647
30.42000 2.137
30.44000 5.951
30.46000 10.934
30.48000 1.617
30.50000 -3.652
30.52000 3.600
30.54000 5.288
30.56000 3.317
30.58000 7.892
30.60000 7.017
30.62000 1.836
30.64000 6.230
30.66000 8.801
30.68000 1.363
30.70000 2.853
30.72000 4.036
30.74000 -2.997
30.76000 -3.645
30.78000 -2.159
30.80000 1.797
30.82000 0.144
30.84000 -0.058
30.86000 -1.916
30.88000 -3.461
30.90000 1.085
30.92000 -0.079
30.94000 2.468
30.96000 3.084
30.98000 1.824
31.00000 2.422
31.02000 2.483
31.04000 1.174
31.06000 0.031
31.08000 -1.016
31.10000 2.990
31.12000 6.986
31.14000 2.788
31.16000 0.179
31.18000 -0.017
31.20000 3.135
31.22000 2.126
31.24000 2.643
31.26000 5.843
31.28000 4.389
31.30000 -2.028
31.32000 0.298
31.34000 4.340
31.36000 3.838
31.38000 2.641
31.40000 0.191
31.42000 -3.628
31.44000 -1.030
31.46000 3.146
31.48000 3.295
31.50000 7.042
31.52000 8.365
31.54000 5.519
31.56000 3.934
31.58000 7.391
31.60000 1.584
31.62000 2.147
31.64000 -0.538
31.66000 0.758
31.68000 5.562
31.70000 5.803
31.72000 4.509
31.74000 11.834
31.76000 2.027
31.78000 -2.134
31.80000 3.477
31.82000 -1.952
31.84000 1.295
31.86000 8.452
31.88000 4.189
31.90000 2.710
31.92000 4.773
31.94000 4.558
31.96000 2.596
31.98000 1.643
32.00000 1.977
32.02000 3.375
32.04000 -2.777
32.06000 -0.553
32.08000 1.721
32.10000 4.093
32.12000 7.100
32.14000 2.269
32.16000 2.527
32.18000 2.675
32.20000 3.336
32.22000 0.850
32.24000 1.182
32.26000 4.241
32.28000 1.445
32.30000 -0.013
32.32000 -2.734
32.34000 2.250
32.36000 -0.474
32.38000 -0.713
32.40000 4.421
32.42000 4.477
32.44000 6.447
32.46000 1.811
32.48000 0.830
32.50000 8.906
32.52000 6.297
32.54000 2.476
32.56000 1.870
32.58000 2.438
32.60000 0.723
32.62000 -1.304
32.64000 -2.167
32.66000 -3.577
32.68000 -2.042
32.70000 1.683
32.72000 4.337
32.74000 1.526
32.76000 5.459
32.78000 5.737
32.80000 0.331
32.82000 2.929
32.84000 4.125
32.86000 1.754
32.88000 -0.752
32.90000 0.925
32.92000 5.639
32.94000 4.448
32.96000 4.918
32.98000 2.789
33.00000 5.012
33.02000 7.259
33.04000 7.521
33.06000 10.319
33.08000 3.940
33.10000 1.907
33.12000 7.149
33.14000 3.298
33.16000 3.632
33.18000 -1.166
33.20000 -0.168
33.22000 4.505
33.24000 7.307
33.26000 4.054
33.28000 1.780
33.30000 -0.662
33.32000 6.438
33.34000 6.335
33.36000 8.038
33.38000 4.457
33.40000 1.504
33.42000 0.006
33.44000 1.624
33.46000 -0.921
33.48000 -1.798
33.50000 5.264
33.52000 8.079
33.54000 3.252
33.56000 1.212
33.58000 -0.967
33.60000 0.886
33.62000 4.060
33.64000 2.190
33.66000 2.611
33.68000 4.353
33.70000 6.786
33.72000 7.562
33.74000 1.006
33.76000 4.712
33.78000 6.018
33.80000 7.204
33.82000 4.996
33.84000 4.775
33.86000 7.672
33.88000 8.556
33.90000 6.066
33.92000 -0.920
33.94000 1.211
33.96000 1.694
33.98000 3.710
34.00000 9.902
34.02000 5.000
34.04000 0.208
34.06000 -0.990
34.08000 1.251
34.10000 5.133
34.12000 5.093
34.14000 6.118
34.16000 5.494
34.18000 5.854
34.20000 7.699
34.22000 7.912
34.24000 1.724
34.26000 2.865
34.28000 1.641
34.30000 0.085
34.32000 4.741
34.34000 8.479
34.36000 3.610
34.38000 4.147
34.40000 3.215
34.42000 2.611
34.44000 0.226
34.46000 -0.541
34.48000 -1.113
34.50000 -0.070
34.52000 -1.326
34.54000 0.077
34.56000 2.584
34.58000 -1.207
34.60000 -3.180
34.62000 -2.854
34.64000 -1.515
34.66000 4.644
34.68000 2.626
34.70000 -0.615
34.72000 -2.232
34.74000 2.426
34.76000 -1.602
34.78000 1.815
34.80000 4.721
34.82000 1.459
34.84000 -3.325
34.86000 -2.663
34.88000 -1.802
34.90000 6.622
34.92000 6.868
34.94000 4.994
34.96000 2.211
34.98000 2.095
35.00000 -3.528
35.02000 0.873
35.04000 3.367
35.06000 3.289
35.08000 4.901
35.10000 4.619
35.12000 4.946
35.14000 4.491
35.16000 6.083
35.18000 4.091
35.20000 -0.025
35.22000 0.225
35.24000 0.835
35.26000 1.873
35.28000 3.057
35.30000 0.958
35.32000 1.823
35.34000 1.021
35.36000 0.326
35.38000 -3.542
35.40000 -0.805
35.42000 0.821
35.44000 5.855
35.46000 6.823
35.48000 1.952
35.50000 1.287
35.52000 -0.003
35.54000 -0.069
35.56000 -3.546
35.58000 -0.594
35.60000 -0.540
35.62000 3.577
35.64000 1.742
35.66000 2.665
35.68000 3.234
35.70000 1.285
35.72000 4.329
35.74000 4.930
35.76000 4.090
35.78000 1.551
35.80000 4.609
35.82000 2.056
35.84000 -0.769
35.86000 4.686
35.88000 5.460
35.90000 4.354
35.92000 3.581
35.94000 2.860
35.96000 5.846
35.98000 -1.518
36.00000 -0.951
36.02000 -1.180
36.04000 2.184
36.06000 -1.608
36.08000 -3.554
36.10000 -0.050
36.12000 2.003
36.14000 0.028
36.16000 -2.292
36.18000 -2.584
36.20000 1.519
36.22000 2.322
36.24000 2.619
36.26000 3.893
36.28000 2.988
36.30000 0.519
36.32000 -3.068
36.34000 0.327
36.36000 0.016
36.38000 -0.395
36.40000 4.099
36.42000 5.238
36.44000 5.661
36.46000 4.901
36.48000 3.325
36.50000 1.527
36.52000 2.210
36.54000 5.014
36.56000 8.952
36.58000 6.128
36.60000 0.712
36.62000 2.148
36.64000 1.799
36.66000 3.838
36.68000 5.618
36.70000 5.214
36.72000 3.247
36.74000 -0.531
36.76000 3.166
36.78000 6.525
36.80000 6.497
36.82000 3.776
36.84000 2.714
36.86000 0.149
36.88000 -0.816
36.90000 -2.055
36.92000 -3.586
36.94000 0.526
36.96000 2.161
36.98000 4.248
37.00000 2.405
37.02000 3.245
37.04000 -0.125
37.06000 0.878
37.08000 3.516
37.10000 3.217
37.12000 1.175
37.14000 1.749
37.16000 3.987
37.18000 4.249
37.20000 4.774
37.22000 3.026
37.24000 0.901
37.26000 0.733
37.28000 4.985
37.30000 -0.435
37.32000 -0.177
37.34000 3.239
37.36000 3.657
37.38000 4.296
37.40000 8.575
37.42000 6.269
37.44000 3.379
37.46000 2.282
37.48000 3.736
37.50000 7.499
37.52000 9.240
37.54000 7.414
37.56000 6.933
37.58000 8.559
37.60000 4.446
37.62000 9.007
37.64000 10.719
37.66000 10.002
37.68000 9.448
37.70000 11.049
37.72000 13.013
37.74000 9.083
37.76000 2.790
37.78000 4.122
37.80000 3.452
37.82000 8.066
37.84000 10.815
37.86000 10.785
37.88000 13.414
37.90000 11.380
37.92000 9.347
37.94000 7.594
37.96000 10.340
37.98000 8.050
38.00000 6.887
38.02000 10.653
38.04000 12.203
38.06000 10.822
38.08000 17.542
38.10000 20.515
38.12000 20.270
38.14000 16.184
38.16000 9.898
38.18000 11.730
38.20000 16.884
38.22000 17.998
38.24000 17.314
38.26000 18.564
38.28000 17.265
38.30000 17.813
38.32000 20.282
38.34000 24.883
38.36000 24.891
38.38000 21.736
38.40000 24.399
38.42000 27.166
38.44000 30.742
38.46000 29.463
38.48000 29.457
38.50000 30.440
38.52000 33.160
38.54000 31.476
38.56000 30.042
38.58000 34.675
38.60000 36.433
38.62000 30.634
38.64000 30.205
38.66000 32.382
38.68000 37.487
38.70000 44.058
38.72000 41.335
38.74000 45.989
38.76000 49.933
38.78000 47.965
38.80000 55.825
38.82000 54.481
38.84000 55.780
38.86000 56.971
38.88000 63.566
38.90000 67.756
38.92000 64.080
38.94000 64.573
38.96000 69.547
38.98000 77.703
39.00000 78.715
39.02000 82.594
39.04000 87.698
39.06000 87.793
39.08000 92.936
39.10000 94.779
39.12000 98.222
39.14000 100.159
39.16000 107.811
39.18000 113.598
39.20000 118.650
39.22000 125.684
39.24000 128.722
39.26000 140.742
39.28000 150.980
39.30000 164.260
39.32000 160.883
39.34000 167.611
39.36000 175.984
39.38000 187.551
39.40000 201.325
39.42000 216.185
39.44000 231.404
39.46000 243.438
39.48000 259.022
39.50000 266.541
39.52000 274.778
39.54000 286.299
39.56000 306.577
39.58000 330.295
39.60000 339.935
39.62000 352.460
39.64000 373.192
39.66000 394.283
39.68000 409.399
39.70000 432.984
39.72000 446.569
39.74000 463.677
39.76000 473.000
39.78000 489.499
39.80000 501.432
39.82000 516.487
39.84000 525.632
39.86000 542.451
39.88000 562.825
39.90000 569.199
39.92000 567.386
39.94000 564.163
39.96000 565.141
39.98000 568.494
40.00000 571.951
40.02000 575.494
40.04000 570.992
40.06000 573.969
40.08000 560.881
40.10000 555.064
40.12000 535.824
40.14000 522.458
40.16000 509.815
40.18000 498.680
40.20000 484.029
40.22000 464.120
40.24000 445.285
40.26000 425.926
40.28000 413.144
40.30000 400.682
40.32000 383.830
40.34000 359.817
40.36000 341.596
40.38000 333.098
40.40000 314.200
40.42000 293.438
40.44000 280.741
40.46000 268.352
40.48000 259.657
40.50000 242.164
40.52000 228.430
40.54000 210.078
40.56000 201.598
40.58000 189.343
40.60000 173.555
40.62000 163.678
40.64000 156.991
40.66000 149.816
40.68000 138.122
40.70000 124.454
40.72000 119.983
40.74000 114.232
40.76000 104.912
40.78000 98.668
40.80000 91.322
40.82000 90.440
40.84000 83.220
40.86000 78.267
40.88000 77.165
40.90000 67.706
40.92000 64.667
40.94000 65.883
40.96000 59.135
40.98000 55.330
41.00000 53.463
41.02000 51.780
41.04000 53.282
41.06000 44.039
41.08000 42.062
41.10000 41.039
41.12000 38.099
41.14000 36.664
41.16000 35.528
41.18000 31.273
41.20000 31.103
41.22000 29.416
41.24000 27.526
41.26000 28.623
41.28000 26.128
41.30000 22.235
41.32000 23.561
41.34000 22.302
41.36000 17.749
41.38000 20.483
41.40000 20.645
41.42000 16.520
41.44000 17.811
41.46000 18.825
41.48000 14.341
41.50000 13.831
41.52000 10.291
41.54000 9.848
41.56000 12.612
41.58000 12.071
41.60000 12.171
41.62000 11.968
41.64000 5.729
41.66000 8.080
41.68000 11.902
41.70000 7.677
41.72000 2.012
41.74000 8.286
41.76000 10.199
41.78000 6.701
41.80000 6.811
41.82000 6.494
41.84000 5.949
41.86000 5.231
41.88000 0.617
41.90000 1.364
41.92000 3.328
41.94000 3.272
41.96000 5.404
41.98000 8.524
42.00000 8.909
42.02000 3.531
42.04000 2.532
42.06000 3.867
42.08000 3.850
42.10000 4.270
42.12000 6.081
42.14000 3.220
42.16000 2.617
42.18000 0.801
42.20000 -3.248
42.22000 1.241
42.24000 3.853
42.26000 1.393
42.28000 -0.615
42.30000 -0.876
42.32000 2.190
42.34000 -0.344
42.36000 4.101
42.38000 2.616
42.40000 0.125
42.42000 -0.791
42.44000 1.730
42.46000 0.571
42.48000 1.224
42.50000 1.119
42.52000 1.146
42.54000 1.913
42.56000 -2.571
42.58000 -1.105
42.60000 1.323
42.62000 -2.062
42.64000 -0.955
42.66000 0.789
42.68000 -0.706
42.70000 2.885
42.72000 3.705
42.74000 3.391
42.76000 -1.303
42.78000 -0.934
42.80000 -0.016
42.82000 -1.701
42.84000 -3.328
42.86000 -1.464
42.88000 1.294
42.90000 1.173
42.92000 1.078
42.94000 -1.885
42.96000 -3.313
42.98000 -0.612
43.00000 0.047
43.02000 3.085
43.04000 2.821
43.06000 2.071
43.08000 2.980
43.10000 0.934
43.12000 0.408
43.14000 2.913
43.16000 1.180
43.18000 1.322
43.20000 -2.176
43.22000 -0.177
43.24000 4.009
43.26000 3.247
43.28000 3.034
43.30000 4.548
43.32000 0.815
43.34000 -0.129
43.36000 -3.269
43.38000 -2.141
43.40000 2.435
43.42000 0.836
43.44000 4.891
43.46000 6.083
43.48000 1.598
43.50000 -0.162
43.52000 -0.073
43.54000 1.911
43.56000 0.943
43.58000 1.331
43.60000 -0.262
43.62000 -0.542
43.64000 -0.133
43.66000 -2.202
43.68000 0.815
43.70000 2.005
43.72000 0.986
43.74000 0.120
43.76000 -0.053
43.78000 -1.783
43.80000 -2.753
43.82000 -3.230
43.84000 0.386
43.86000 -0.655
43.88000 5.243
43.90000 1.047
43.92000 -0.764
43.94000 -0.435
43.96000 1.852
43.98000 1.382
44.00000 0.567
44.02000 -2.636
44.04000 -0.098
44.06000 0.068
44.08000 1.548
44.10000 1.819
44.12000 1.198
44.14000 2.310
44.16000 3.677
44.18000 1.908
44.20000 0.351
44.22000 -1.573
44.24000 -3.048
44.26000 2.968
44.28000 3.756
44.30000 1.211
44.32000 -3.213
44.34000 -0.956
44.36000 2.127
44.38000 2.851
44.40000 4.719
44.42000 4.841
44.44000 3.076
44.46000 2.922
44.48000 1.540
44.50000 1.038
44.52000 -2.024
44.54000 -1.523
44.56000 -1.838
44.58000 -1.597
44.60000 0.316
44.62000 -3.213
44.64000 -2.971
44.66000 0.914
44.68000 -1.748
44.70000 -2.628
44.72000 3.109
44.74000 -0.439
44.76000 1.221
44.78000 3.723
44.80000 -1.339
44.82000 2.712
44.84000 3.521
44.86000 -0.261
44.88000 2.844
44.90000 2.343
44.92000 3.924
44.94000 4.927
44.96000 -2.077
44.98000 -1.353
45.00000 0.536
45.02000 1.416
45.04000 4.703
45.06000 5.015
45.08000 3.230
45.10000 6.660
45.12000 5.472
45.14000 5.230
45.16000 5.635
45.18000 2.385
45.20000 -0.376
45.22000 4.178
45.24000 9.591
45.26000 7.139
45.28000 7.291
45.30000 9.545
45.32000 9.686
45.34000 8.415
45.36000 7.242
45.38000 8.947
45.40000 13.588
45.42000 9.803
45.44000 5.860
45.46000 7.319
45.48000 10.327
45.50000 11.334
45.52000 11.829
45.54000 8.173
45.56000 14.618
45.58000 16.100
45.60000 15.562
45.62000 13.722
45.64000 14.029
45.66000 13.260
45.68000 16.572
45.70000 17.061
45.72000 13.898
45.74000 18.052
45.76000 19.593
45.78000 18.927
45.80000 23.109
45.82000 22.113
45.84000 22.404
45.86000 20.507
45.88000 23.574
45.90000 26.046
45.92000 25.751
45.94000 26.706
45.96000 30.240
45.98000 31.757
46.00000 34.624
46.02000 38.186
46.04000 35.529
46.06000 33.717
46.08000 37.654
46.10000 36.953
46.12000 44.374
46.14000 46.766
46.16000 48.906
46.18000 51.429
46.20000 45.236
46.22000 50.258
46.24000 51.507
46.26000 50.026
46.28000 51.090
46.30000 46.782
46.32000 51.336
46.34000 54.000
46.36000 55.633
46.38000 57.958
46.40000 58.881
46.42000 59.902
46.44000 59.252
46.46000 62.053
46.48000 62.469
46.50000 64.970
46.52000 65.437
46.54000 66.666
46.56000 62.425
46.58000 62.363
46.60000 61.719
46.62000 61.657
46.64000 58.810
46.66000 58.519
46.68000 61.245
46.70000 64.204
46.72000 65.092
46.74000 61.017
46.76000 56.895
46.78000 55.803
46.80000 53.550
46.82000 61.282
46.84000 61.554
46.86000 61.346
46.88000 56.460
46.90000 54.351
46.92000 52.035
46.94000 51.710
46.96000 52.547
46.98000 49.695
47.00000 45.676
47.02000 43.455
47.04000 42.421
47.06000 46.091
47.08000 41.188
47.10000 37.333
47.12000 36.584
47.14000 36.414
47.16000 33.871
47.18000 34.758
47.20000 35.761
47.22000 34.135
47.24000 31.138
47.26000 35.324
47.28000 32.108
47.30000 28.112
47.32000 25.190
47.34000 23.641
47.36000 21.663
47.38000 24.434
47.40000 25.916
47.42000 20.433
47.44000 22.432
47.46000 20.254
47.48000 21.156
47.50000 14.200
47.52000 16.676
47.54000 15.688
47.56000 10.248
47.58000 11.318
47.60000 14.205
47.62000 12.520
47.64000 10.972
47.66000 9.730
47.68000 11.050
47.70000 16.119
47.72000 14.001
47.74000 12.030
47.76000 12.959
47.78000 10.605
47.80000 12.817
47.82000 12.755
47.84000 15.991
47.86000 12.997
47.88000 7.721
47.90000 6.257
47.92000 3.162
47.94000 7.675
47.96000 8.155
47.98000 4.880
48.00000 6.008
48.02000 8.459
48.04000 8.536
48.06000 4.539
48.08000 7.913
48.10000 7.162
48.12000 8.011
48.14000 6.121
48.16000 1.175
48.18000 1.809
48.20000 3.988
48.22000 3.988
48.24000 5.636
48.26000 6.445
48.28000 3.468
48.30000 4.820
48.32000 9.079
48.34000 6.602
48.36000 6.621
48.38000 -2.812
48.40000 1.209
48.42000 7.119
48.44000 9.717
48.46000 7.598
48.48000 6.091
48.50000 5.064
48.52000 2.401
48.54000 0.415
48.56000 3.458
48.58000 4.887
48.60000 4.369
48.62000 3.158
48.64000 5.256
48.66000 6.761
48.68000 3.340
48.70000 5.396
48.72000 4.424
48.74000 2.916
48.76000 6.338
48.78000 5.603
48.80000 3.599
48.82000 2.273
48.84000 4.996
48.86000 2.857
48.88000 4.858
48.90000 4.949
48.92000 10.091
48.94000 10.350
48.96000 4.073
48.98000 3.166
49.00000 7.154
49.02000 -1.442
49.04000 -2.286
49.06000 0.088
49.08000 3.239
49.10000 0.664
49.12000 -1.275
49.14000 2.140
49.16000 2.145
49.18000 3.577
49.20000 3.536
49.22000 0.221
49.24000 0.455
49.26000 2.377
49.28000 0.560
49.30000 3.059
49.32000 7.108
49.34000 2.461
49.36000 1.856
49.38000 2.285
49.40000 3.695
49.42000 0.808
49.44000 0.907
49.46000 -0.557
49.48000 3.976
49.50000 3.566
49.52000 1.885
49.54000 1.981
49.56000 1.265
49.58000 -2.529
49.60000 -0.616
49.62000 2.399
49.64000 4.188
49.66000 4.445
49.68000 3.237
49.70000 5.423
49.72000 6.372
49.74000 3.897
49.76000 -1.473
49.78000 -2.719
49.80000 -1.727
49.82000 -1.587
49.84000 1.980
49.86000 4.736
49.88000 4.148
49.90000 3.260
49.92000 1.083
49.94000 3.782
49.96000 5.387
49.98000 4.400
50.00000 5.598
50.02000 9.100
50.04000 1.474
50.06000 1.424
50.08000 3.243
50.10000 3.423
50.12000 3.657
50.14000 -0.808
50.16000 2.567
50.18000 0.671
50.20000 3.095
50.22000 3.626
50.24000 0.253
50.26000 0.993
50.28000 6.514
50.30000 4.035
50.32000 -2.679
50.34000 -2.618
50.36000 1.969
50.38000 0.362
50.40000 1.214
50.42000 3.348
50.44000 1.708
50.46000 1.184
50.48000 2.228
50.50000 3.935
50.52000 3.563
50.54000 4.074
50.56000 5.299
50.58000 2.718
50.60000 3.532
50.62000 6.821
50.64000 5.412
50.66000 0.177
50.68000 -1.381
50.70000 2.750
50.72000 0.062
50.74000 -2.162
50.76000 0.288
50.78000 2.078
50.80000 3.425
50.82000 4.320
50.84000 -2.135
50.86000 -0.772
50.88000 2.889
50.90000 6.341
50.92000 2.842
50.94000 2.658
50.96000 0.660
50.98000 6.223
51.00000 7.200
51.02000 3.771
51.04000 3.174
51.06000 -0.641
51.08000 -2.651
51.10000 2.800
51.12000 1.422
51.14000 5.796
51.16000 9.574
51.18000 8.621
51.20000 5.816
51.22000 4.548
51.24000 3.731
51.26000 3.821
51.28000 5.087
51.30000 2.454
51.32000 5.353
51.34000 0.419
51.36000 -2.639
51.38000 2.005
51.40000 4.672
51.42000 0.953
51.44000 3.128
51.46000 1.380
51.48000 2.674
51.50000 4.686
51.52000 5.766
51.54000 6.383
51.56000 3.353
51.58000 3.884
51.60000 4.037
51.62000 3.955
51.64000 3.244
51.66000 2.573
51.68000 1.336
51.70000 4.067
51.72000 4.880
51.74000 1.320
51.76000 3.761
51.78000 5.085
51.80000 6.621
51.82000 4.521
51.84000 3.955
51.86000 2.690
51.88000 1.251
51.90000 3.297
51.92000 5.664
51.94000 3.041
51.96000 3.884
51.98000 0.389
52.00000 3.016
52.02000 4.169
52.04000 3.993
52.06000 3.727
52.08000 2.353
52.10000 0.301
52.12000 2.317
52.14000 6.357
52.16000 6.624
52.18000 4.165
52.20000 6.183
52.22000 4.660
52.24000 -1.112
52.26000 -0.926
52.28000 -2.633
52.30000 0.451
52.32000 1.443
52.34000 2.759
52.36000 2.455
52.38000 3.104
52.40000 0.573
52.42000 1.991
52.44000 3.437
52.46000 0.638
52.48000 -0.424
52.50000 2.754
52.52000 2.023
52.54000 2.045
52.56000 1.827
52.58000 2.375
52.60000 3.144
52.62000 5.006
52.64000 0.235
52.66000 -1.720
52.68000 -0.012
52.70000 -0.550
52.72000 2.571
52.74000 3.930
52.76000 -0.197
52.78000 1.535
52.80000 1.323
52.82000 -0.261
52.84000 -2.633
52.86000 -0.780
52.88000 -0.883
52.90000 2.389
52.92000 2.032
52.94000 -1.563
52.96000 -1.174
52.98000 -2.293
53.00000 -2.062
53.02000 1.206
53.04000 2.561
53.06000 1.143
53.08000 1.086
53.10000 0.243
53.12000 2.021
53.14000 -1.267
53.16000 1.348
53.18000 -0.451
53.20000 0.696
53.22000 -1.733
53.24000 2.222
53.26000 6.069
53.28000 4.173
53.30000 3.513
53.32000 3.910
53.34000 0.044
53.36000 3.879
53.38000 2.283
53.40000 1.512
53.42000 0.623
53.44000 -2.612
53.46000 -2.091
53.48000 -0.409
53.50000 2.985
53.52000 2.322
53.54000 1.612
53.56000 6.217
53.58000 5.729
53.60000 0.056
53.62000 -0.561
53.64000 -0.478
53.66000 -0.404
53.68000 0.994
53.70000 4.299
53.72000 6.678
53.74000 2.897
53.76000 -1.629
53.78000 0.162
53.80000 -2.148
53.82000 -0.380
53.84000 3.729
53.86000 4.299
53.88000 2.645
53.90000 -1.419
53.92000 -1.870
53.94000 -1.484
53.96000 0.489
53.98000 0.936
54.00000 4.251
54.02000 -0.372
54.04000 1.003
54.06000 2.027
54.08000 1.874
54.10000 0.937
54.12000 0.621
54.14000 -1.093
54.16000 0.163
54.18000 0.364
54.20000 5.989
54.22000 5.484
54.24000 2.212
54.26000 4.256
54.28000 0.982
54.30000 -1.759
54.32000 1.164
54.34000 2.101
54.36000 0.609
54.38000 0.264
54.40000 0.886
54.42000 0.605
54.44000 -0.581
54.46000 0.369
54.48000 -1.686
54.50000 -1.289
54.52000 -2.594
54.54000 -2.402
54.56000 -0.132
54.58000 -0.965
54.60000 2.350
54.62000 2.140
54.64000 3.629
54.66000 5.871
54.68000 5.059
54.70000 1.614
54.72000 2.746
54.74000 1.261
54.76000 -1.960
54.78000 1.216
54.80000 1.828
54.82000 3.204
54.84000 0.134
54.86000 -2.332
54.88000 -2.516
54.90000 1.459
54.92000 4.000
54.94000 1.729
54.96000 5.074
54.98000 3.017
55.00000 3.488
55.02000 1.272
55.04000 0.954
55.06000 0.905
55.08000 1.007
55.10000 0.325
55.12000 1.191
55.14000 0.381
55.16000 3.547
55.18000 3.695
55.20000 5.081
55.22000 2.539
55.24000 1.960
55.26000 4.764
55.28000 4.664
55.30000 4.573
55.32000 3.384
55.34000 3.649
55.36000 6.320
55.38000 3.955
55.40000 1.481
55.42000 2.647
55.44000 5.551
55.46000 1.140
55.48000 0.968
55.50000 -0.598
55.52000 2.091
55.54000 7.304
55.56000 3.713
55.58000 5.023
55.60000 6.433
55.62000 4.284
55.64000 5.554
55.66000 3.234
55.68000 6.043
55.70000 5.698
55.72000 4.931
55.74000 3.937
55.76000 3.197
55.78000 -2.501
55.80000 -0.529
55.82000 3.390
55.84000 0.750
55.86000 2.745
55.88000 8.723
55.90000 6.504
55.92000 4.879
55.94000 5.684
55.96000 4.106
55.98000 2.469
56.00000 3.509
56.02000 2.994
56.04000 2.899
56.06000 4.407
56.08000 1.985
56.10000 6.067
56.12000 5.035
56.14000 7.149
56.16000 6.966
56.18000 2.790
56.20000 5.670
56.22000 3.869
56.24000 3.485
56.26000 5.241
56.28000 3.570
56.30000 0.810
56.32000 0.431
56.34000 2.273
56.36000 3.240
56.38000 0.831
56.40000 2.698
56.42000 -0.978
56.44000 0.858
56.46000 -0.683
56.48000 6.669
56.50000 8.956
56.52000 9.169
56.54000 5.803
56.56000 4.467
56.58000 2.718
56.60000 3.940
56.62000 1.413
56.64000 3.434
56.66000 6.265
56.68000 2.120
56.70000 1.774
56.72000 2.548
56.74000 2.532
56.76000 -0.421
56.78000 1.000
56.80000 1.960
56.82000 2.656
56.84000 3.273
56.86000 4.274
56.88000 1.920
56.90000 5.602
56.92000 4.346
56.94000 -0.898
56.96000 -2.513
56.98000 -1.507
57.00000 4.611
57.02000 3.501
57.04000 2.265
57.06000 -0.669
57.08000 -1.301
57.10000 0.340
57.12000 1.332
57.14000 2.327
57.16000 1.349
57.18000 0.043
57.20000 2.456
57.22000 3.304
57.24000 4.395
57.26000 3.363
57.28000 -0.128
57.30000 -0.811
57.32000 0.747
57.34000 2.163
57.36000 7.329
57.38000 5.464
57.40000 5.913
57.42000 -0.823
57.44000 -0.121
57.46000 3.179
57.48000 4.268
57.50000 2.524
57.52000 3.258
57.54000 4.513
57.56000 6.248
57.58000 1.911
57.60000 -0.847
57.62000 1.155
57.64000 -0.514
57.66000 -2.357
57.68000 2.487
57.70000 9.996
57.72000 11.030
57.74000 9.646
57.76000 3.191
57.78000 3.227
57.80000 5.883
57.82000 5.587
57.84000 5.111
57.86000 2.845
57.88000 2.114
57.90000 -2.482
57.92000 4.105
57.94000 6.867
57.96000 3.482
57.98000 -0.112
58.00000 3.342
58.02000 2.463
58.04000 -0.926
58.06000 1.621
58.08000 1.773
58.10000 -0.492
58.12000 0.598
58.14000 2.461
58.16000 1.602
58.18000 3.571
58.20000 2.533
58.22000 -0.006
58.24000 -0.819
58.26000 2.846
58.28000 2.270
58.30000 2.817
58.32000 1.995
58.34000 -0.496
58.36000 2.631
58.38000 2.975
58.40000 2.604
58.42000 2.224
58.44000 4.461
58.46000 2.680
58.48000 -0.036
58.50000 3.857
58.52000 3.308
58.54000 1.497
58.56000 -2.471
58.58000 2.291
58.60000 5.332
58.62000 4.942
58.64000 4.762
58.66000 2.041
58.68000 0.264
58.70000 2.457
58.72000 1.928
58.74000 2.087
58.76000 0.981
58.78000 -1.764
58.80000 1.157
58.82000 1.557
58.84000 0.523
58.86000 -1.469
58.88000 1.482
58.90000 2.497
58.92000 5.318
58.94000 5.217
58.96000 4.039
58.98000 4.005
59.00000 2.844
59.02000 5.803
59.04000 3.855
59.06000 1.399
59.08000 2.717
59.10000 -0.092
59.12000 -1.775
59.14000 2.107
59.16000 6.572
59.18000 6.938
59.20000 0.607
59.22000 2.082
59.24000 -0.018
59.26000 -0.016
59.28000 -1.596
59.30000 2.855
59.32000 2.566
59.34000 0.827
59.36000 0.406
59.38000 4.388
59.40000 1.971
59.42000 -0.203
59.44000 -2.178
59.46000 -2.348
59.48000 -1.698
59.50000 -1.820
59.52000 0.525
59.54000 2.621
59.56000 1.078
59.58000 1.381
59.60000 1.745
59.62000 -2.458
59.64000 -0.285
59.66000 -0.271
59.68000 -0.904
59.70000 -0.029
59.72000 1.852
59.74000 3.716
59.76000 3.050
59.78000 2.937
59.80000 3.919
59.82000 1.011
59.84000 2.176
59.86000 1.614
59.88000 2.411
59.90000 1.504
59.92000 -2.139
59.94000 1.223
59.96000 4.747
59.98000 1.853
60.00000 0.247
60.02000 -2.439
60.04000 -0.404
60.06000 -1.148
60.08000 -0.114
60.10000 -0.621
60.12000 0.586
60.14000 0.519
60.16000 1.157
60.18000 0.396
60.20000 2.011
60.22000 2.267
60.24000 0.308
60.26000 -1.022
60.28000 2.826
60.30000 4.214
60.32000 1.595
60.34000 -2.425
60.36000 -0.365
60.38000 2.009
60.40000 1.589
60.42000 0.095
60.44000 1.865
60.46000 2.002
60.48000 -1.731
60.50000 -2.425
60.52000 0.321
60.54000 -0.391
60.56000 1.437
60.58000 2.048
60.60000 0.219
60.62000 -2.384
60.64000 -0.745
60.66000 4.036
60.68000 0.970
60.70000 2.416
60.72000 4.408
60.74000 5.109
60.76000 3.478
60.78000 1.681
60.80000 2.145
60.82000 3.522
60.84000 1.444
60.86000 -1.137
60.88000 -1.431
60.90000 2.379
60.92000 2.768
60.94000 2.524
60.96000 6.136
60.98000 6.032
61.00000 3.308
61.02000 1.803
61.04000 -0.410
61.06000 1.119
61.08000 0.891
61.10000 0.363
61.12000 -2.409
61.14000 -0.901
61.16000 0.870
61.18000 1.844
61.20000 -0.983
61.22000 3.264
61.24000 4.961
61.26000 3.398
61.28000 -0.398
61.30000 0.527
61.32000 1.571
61.34000 -0.739
61.36000 0.721
61.38000 -0.978
61.40000 -1.356
61.42000 -0.378
61.44000 1.445
61.46000 0.196
61.48000 2.331
61.50000 -1.047
61.52000 -0.156
61.54000 2.569
61.56000 2.395
61.58000 3.797
61.60000 7.534
61.62000 6.219
61.64000 10.345
61.66000 10.442
61.68000 4.670
61.70000 1.447
61.72000 0.506
61.74000 4.672
61.76000 4.319
61.78000 3.631
61.80000 0.404
61.82000 2.017
61.84000 1.170
61.86000 -2.375
61.88000 0.023
61.90000 2.004
61.92000 5.085
61.94000 1.150
61.96000 2.046
61.98000 7.643
62.00000 5.147
62.02000 3.019
62.04000 2.077
62.06000 2.395
62.08000 -1.724
62.10000 1.104
62.12000 1.602
62.14000 -0.519
62.16000 1.319
62.18000 3.889
62.20000 1.917
62.22000 4.680
62.24000 4.104
62.26000 0.975
62.28000 -0.107
62.30000 0.574
62.32000 1.249
62.34000 1.732
62.36000 1.820
62.38000 1.472
62.40000 3.282
62.42000 1.259
62.44000 -0.056
62.46000 0.944
62.48000 -0.840
62.50000 0.489
62.52000 2.477
62.54000 0.149
62.56000 0.441
62.58000 1.905
62.60000 3.348
62.62000 1.758
62.64000 -1.378
62.66000 3.452
62.68000 6.130
62.70000 2.213
62.72000 1.083
62.74000 4.839
62.76000 6.221
62.78000 4.355
62.80000 0.047
62.82000 2.278
62.84000 0.377
62.86000 -1.603
62.88000 0.494
62.90000 2.075
62.92000 1.845
62.94000 1.932
62.96000 4.429
62.98000 0.728
63.00000 -1.489
63.02000 0.584
63.04000 -0.347
63.06000 1.869
63.08000 4.256
63.10000 0.603
63.12000 1.977
63.14000 0.976
63.16000 0.588
63.18000 -0.062
63.20000 2.976
63.22000 1.215
63.24000 1.531
63.26000 -1.430
63.28000 -1.498
63.30000 -1.486
63.32000 -2.357
63.34000 0.648
63.36000 -0.377
63.38000 0.494
63.40000 1.449
63.42000 1.631
63.44000 1.576
63.46000 2.141
63.48000 -1.122
63.50000 -0.531
63.52000 -0.005
63.54000 1.269
63.56000 4.225
63.58000 5.143
63.60000 6.581
63.62000 8.922
63.64000 7.582
63.66000 3.825
63.68000 5.333
63.70000 5.269
63.72000 -2.351
63.74000 -0.558
63.76000 -0.129
63.78000 0.207
63.80000 1.792
63.82000 1.395
63.84000 4.119
63.86000 6.563
63.88000 4.648
63.90000 1.428
63.92000 1.391
63.94000 4.092
63.96000 5.760
63.98000 3.717
64.00000 2.416
64.02000 4.539
64.04000 1.331
64.06000 -0.311
64.08000 3.949
64.10000 2.135
64.12000 3.580
64.14000 2.421
64.16000 0.027
64.18000 0.732
64.20000 2.909
64.22000 6.175
64.24000 7.016
64.26000 1.029
64.28000 -0.960
64.30000 -0.214
64.32000 -0.807
64.34000 0.523
64.36000 1.877
64.38000 1.546
64.40000 4.764
64.42000 -0.305
64.44000 0.769
64.46000 1.927
64.48000 0.764
64.50000 1.226
64.52000 2.573
64.54000 4.333
64.56000 2.502
64.58000 2.232
64.60000 -0.230
64.62000 1.268
64.64000 1.537
64.66000 -1.429
64.68000 1.831
64.70000 3.161
64.72000 4.508
64.74000 3.393
64.76000 1.189
64.78000 1.363
64.80000 2.096
64.82000 1.244
64.84000 1.479
64.86000 2.779
64.88000 0.613
64.90000 0.951
64.92000 2.252
64.94000 2.302
64.96000 3.742
64.98000 2.547
65.00000 1.297
65.02000 1.318
65.04000 3.807
65.06000 2.306
65.08000 4.844
65.10000 3.630
65.12000 5.496
65.14000 4.045
65.16000 3.152
65.18000 5.869
65.20000 3.954
65.22000 4.151
65.24000 1.897
65.26000 -2.346
65.28000 1.018
65.30000 2.163
65.32000 5.021
65.34000 4.708
65.36000 1.507
65.38000 1.108
65.40000 3.939
65.42000 6.199
65.44000 5.481
65.46000 3.509
65.48000 0.122
65.50000 1.827
65.52000 0.871
65.54000 0.191
65.56000 2.320
65.58000 4.177
65.60000 2.730
65.62000 1.785
65.64000 0.013
65.66000 0.585
65.68000 3.653
65.70000 0.584
65.72000 0.897
65.74000 0.443
65.76000 1.582
65.78000 1.475
65.80000 0.946
65.82000 1.961
65.84000 -0.282
65.86000 -0.277
65.88000 -0.953
65.90000 -1.866
65.92000 3.779
65.94000 4.565
65.96000 0.715
65.98000 0.136
66.00000 1.766
66.02000 1.118
66.04000 0.577
66.06000 -0.287
66.08000 -1.109
66.10000 -1.900
66.12000 -0.937
66.14000 1.597
66.16000 1.278
66.18000 -1.382
66.20000 -2.437
66.22000 0.159
66.24000 -0.181
66.26000 -1.201
66.28000 0.030
66.30000 0.486
66.32000 -1.711
66.34000 -1.815
66.36000 0.209
66.38000 -0.173
66.40000 1.887
66.42000 0.521
66.44000 0.548
66.46000 0.768
66.48000 0.706
66.50000 1.242
66.52000 0.537
66.54000 -0.884
66.56000 -2.456
66.58000 2.146
66.60000 1.535
66.62000 0.164
66.64000 0.412
66.66000 1.761
66.68000 3.676
66.70000 2.047
66.72000 0.030
66.74000 1.420
66.76000 2.658
66.78000 0.963
66.80000 3.137
66.82000 3.106
66.84000 -0.594
66.86000 1.084
66.88000 3.038
66.90000 2.426
66.92000 2.542
66.94000 0.745
66.96000 4.455
66.98000 7.917
67.00000 5.646
67.02000 3.910
67.04000 2.706
67.06000 2.393
67.08000 2.608
67.10000 4.196
67.12000 3.236
67.14000 5.453
67.16000 7.277
67.18000 9.094
67.20000 5.242
67.22000 2.269
67.24000 4.741
67.26000 6.923
67.28000 5.854
67.30000 8.010
67.32000 7.820
67.34000 8.546
67.36000 8.351
67.38000 4.965
67.40000 10.770
67.42000 11.680
67.44000 9.156
67.46000 6.972
67.48000 5.598
67.50000 6.800
67.52000 10.568
67.54000 12.295
67.56000 10.948
67.58000 7.177
67.60000 7.087
67.62000 7.840
67.64000 12.400
67.66000 13.334
67.68000 11.860
67.70000 12.636
67.72000 11.140
67.74000 11.044
67.76000 12.734
67.78000 14.741
67.80000 16.205
67.82000 17.592
67.84000 14.733
67.86000 12.723
67.88000 17.286
67.90000 17.780
67.92000 16.784
67.94000 16.019
67.96000 15.159
67.98000 16.244
68.00000 12.686
68.02000 15.050
68.04000 17.025
68.06000 15.590
68.08000 18.379
68.10000 15.146
68.12000 15.745
68.14000 18.167
68.16000 19.445
68.18000 15.874
68.20000 12.656
68.22000 14.313
68.24000 16.483
68.26000 17.569
68.28000 14.680
68.30000 10.880
68.32000 10.247
68.34000 12.289
68.36000 14.114
68.38000 12.249
68.40000 9.244
68.42000 8.766
68.44000 5.715
68.46000 6.935
68.48000 9.146
68.50000 6.978
68.52000 10.682
68.54000 8.170
68.56000 8.780
68.58000 2.226
68.60000 0.943
68.62000 0.543
68.64000 0.596
68.66000 3.226
68.68000 2.017
68.70000 5.506
68.72000 9.779
68.74000 7.473
68.76000 1.639
68.78000 1.507
68.80000 -0.356
68.82000 2.086
68.84000 4.951
68.86000 3.637
68.88000 1.771
68.90000 2.434
68.92000 0.482
68.94000 1.929
68.96000 -1.169
68.98000 -2.420
69.00000 0.299
69.02000 2.281
69.04000 4.735
69.06000 6.384
69.08000 3.754
69.10000 4.954
69.12000 4.773
69.14000 4.029
69.16000 -0.205
69.18000 -1.259
69.20000 -1.327
69.22000 -0.976
69.24000 -0.119
69.26000 3.637
69.28000 4.536
69.30000 3.732
69.32000 3.208
69.34000 4.293
69.36000 1.875
69.38000 1.549
69.40000 0.734
69.42000 -1.676
69.44000 0.271
69.46000 1.492
69.48000 3.049
69.50000 -1.218
69.52000 -2.160
69.54000 -2.362
69.56000 -0.004
69.58000 -0.629
69.60000 1.671
69.62000 1.635
69.64000 4.417
69.66000 -0.409
69.68000 0.789
69.70000 0.973
69.72000 0.959
69.74000 0.405
69.76000 -0.707
69.78000 0.490
69.80000 0.204
69.82000 -0.051
69.84000 2.290
69.86000 2.254
69.88000 1.430
69.90000 -2.337
69.92000 -1.464
69.94000 0.262
69.96000 1.096
69.98000 -0.540
70.00000 2.475
70.02000 1.271
70.04000 0.366
70.06000 -1.596
70.08000 -2.151
70.10000 0.808
70.12000 -0.767
70.14000 -0.060
70.16000 0.266
70.18000 -1.086
70.20000 -1.116
70.22000 0.506
70.24000 0.777
70.26000 -0.501
70.28000 1.100
70.30000 0.570
70.32000 -2.298
70.34000 -0.384
70.36000 -2.036
70.38000 1.619
70.40000 4.443
70.42000 0.579
70.44000 1.992
70.46000 -1.620
70.48000 0.972
70.50000 1.315
70.52000 1.554
70.54000 0.689
70.56000 -1.889
70.58000 2.088
70.60000 0.732
70.62000 1.224
70.64000 1.250
70.66000 3.182
70.68000 1.894
70.70000 2.254
70.72000 -0.640
70.74000 0.964
70.76000 3.085
70.78000 0.194
70.80000 -0.048
70.82000 0.355
70.84000 -0.102
70.86000 0.200
70.88000 -1.933
70.90000 -2.285
70.92000 0.391
70.94000 2.910
70.96000 3.208
70.98000 4.800
71.00000 3.500
71.02000 4.646
71.04000 -1.467
71.06000 -0.862
71.08000 2.363
71.10000 4.674
71.12000 5.380
71.14000 2.870
71.16000 1.073
71.18000 1.767
71.20000 1.462
71.22000 6.071
71.24000 0.185
71.26000 0.171
71.28000 2.171
71.30000 -0.931
71.32000 -0.986
71.34000 -1.011
71.36000 -2.185
71.38000 0.909
71.40000 2.857
71.42000 2.499
71.44000 0.843
71.46000 5.093
71.48000 2.728
71.50000 3.005
71.52000 -1.196
71.54000 -0.618
71.56000 -1.789
71.58000 0.228
71.60000 -1.896
71.62000 -1.274
71.64000 1.591
71.66000 1.838
71.68000 7.034
71.70000 2.487
71.72000 2.630
71.74000 0.811
71.76000 0.392
71.78000 0.759
71.80000 -0.078
71.82000 0.848
71.84000 1.291
71.86000 0.353
71.88000 5.168
71.90000 4.021
71.92000 1.111
71.94000 0.936
71.96000 5.837
71.98000 4.357
72.00000 1.908
72.02000 0.581
72.04000 -0.005
72.06000 1.990
72.08000 0.882
72.10000 -2.208
72.12000 0.536
72.14000 2.212
72.16000 1.646
72.18000 -0.763
72.20000 0.568
72.22000 0.506
72.24000 3.352
72.26000 -0.147
72.28000 -0.685
72.30000 0.489
72.32000 -1.222
72.34000 0.106
72.36000 1.721
72.38000 2.040
72.40000 4.438
72.42000 4.087
72.44000 0.287
72.46000 0.385
72.48000 4.124
72.50000 2.197
72.52000 0.130
72.54000 2.887
72.56000 4.152
72.58000 7.199
72.60000 2.923
72.62000 4.229
72.64000 3.733
72.66000 3.259
72.68000 2.522
72.70000 -1.765
72.72000 0.026
72.74000 2.333
72.76000 3.995
72.78000 4.282
72.80000 1.779
72.82000 1.996
72.84000 2.265
72.86000 1.361
72.88000 1.021
72.90000 -0.656
72.92000 2.154
72.94000 3.091
72.96000 1.424
72.98000 0.972
73.00000 -2.184
73.02000 -1.804
73.04000 -0.093
73.06000 0.675
73.08000 5.986
73.10000 4.874
73.12000 3.136
73.14000 0.430
73.16000 0.549
73.18000 2.152
73.20000 2.461
73.22000 3.867
73.24000 3.232
73.26000 6.062
73.28000 1.370
73.30000 -0.307
73.32000 1.145
73.34000 2.946
73.36000 -0.678
73.38000 3.324
73.40000 4.093
73.42000 0.267
73.44000 4.555
73.46000 2.402
73.48000 1.455
73.50000 1.427
73.52000 5.620
73.54000 5.880
73.56000 3.522
73.58000 3.470
73.60000 2.454
73.62000 0.909
73.64000 2.437
73.66000 2.063
73.68000 1.782
73.70000 -2.160
73.72000 1.075
73.74000 4.255
73.76000 1.826
73.78000 3.444
73.80000 3.376
73.82000 2.878
73.84000 3.298
73.86000 3.289
73.88000 3.038
73.90000 7.042
73.92000 4.097
73.94000 5.514
73.96000 5.881
73.98000 -0.136
74.00000 -1.252
74.02000 -0.493
74.04000 4.563
74.06000 9.456
74.08000 6.536
74.10000 0.818
74.12000 3.643
74.14000 5.648
74.16000 2.999
74.18000 3.359
74.20000 2.915
74.22000 5.070
74.24000 8.610
74.26000 7.759
74.28000 2.135
74.30000 4.007
74.32000 7.237
74.34000 6.974
74.36000 5.186
74.38000 4.171
74.40000 5.820
74.42000 6.260
74.44000 -0.316
74.46000 1.416
74.48000 3.285
74.50000 -2.147
74.52000 -2.073
74.54000 0.614
74.56000 4.457
74.58000 3.741
74.60000 2.445
74.62000 2.137
74.64000 1.831
74.66000 0.384
74.68000 1.838
74.70000 2.623
74.72000 3.069
74.74000 7.431
74.76000 6.778
74.78000 2.934
74.80000 2.151
74.82000 3.963
74.84000 5.524
74.86000 6.988
74.88000 5.725
74.90000 7.337
74.92000 6.037
74.94000 1.038
74.96000 2.707
74.98000 5.011
75.00000 4.006
75.02000 1.146
75.04000 2.740
75.06000 1.797
75.08000 3.429
75.10000 4.649
75.12000 3.405
75.14000 3.137
75.16000 5.008
75.18000 1.822
75.20000 -0.946
75.22000 4.176
75.24000 3.168
75.26000 5.847
75.28000 5.484
75.30000 5.038
75.32000 5.454
75.34000 2.897
75.36000 5.095
75.38000 4.393
75.40000 4.449
75.42000 6.157
75.44000 4.123
75.46000 4.206
75.48000 5.393
75.50000 6.242
75.52000 2.681
75.54000 0.515
75.56000 6.736
75.58000 9.573
75.60000 3.215
75.62000 3.474
75.64000 6.230
75.66000 4.793
75.68000 0.656
75.70000 -2.128
75.72000 1.152
75.74000 2.981
75.76000 7.017
75.78000 7.834
75.80000 5.680
75.82000 3.224
75.84000 3.512
75.86000 5.288
75.88000 5.674
75.90000 0.658
75.92000 1.407
75.94000 0.513
75.96000 0.398
75.98000 4.440
76.00000 5.174
76.02000 3.188
76.04000 6.411
76.06000 9.574
76.08000 3.946
76.10000 2.349
76.12000 1.215
76.14000 -0.161
76.16000 1.004
76.18000 4.173
76.20000 3.836
76.22000 4.177
76.24000 4.962
76.26000 1.343
76.28000 0.657
76.30000 1.877
76.32000 1.529
76.34000 2.434
76.36000 1.988
76.38000 3.812
76.40000 6.813
76.42000 6.499
76.44000 6.590
76.46000 5.122
76.48000 3.097
76.50000 2.791
76.52000 0.360
76.54000 0.364
76.56000 2.822
76.58000 2.650
76.60000 3.570
76.62000 3.714
76.64000 1.730
76.66000 0.714
76.68000 -0.529
76.70000 -1.036
76.72000 -2.178
76.74000 0.064
76.76000 -1.336
76.78000 -0.166
76.80000 6.191
76.82000 9.068
76.84000 7.669
76.86000 5.213
76.88000 5.842
76.90000 4.856
76.92000 4.201
76.94000 2.617
76.96000 0.683
76.98000 3.335
77.00000 3.905
77.02000 -0.220
77.04000 3.491
77.06000 5.766
77.08000 5.514
77.10000 2.098
77.12000 5.527
77.14000 1.816
77.16000 0.951
77.18000 2.496
77.20000 0.815
77.22000 -1.215
77.24000 1.918
77.26000 -1.361
77.28000 -0.789
77.30000 -0.371
77.32000 0.356
77.34000 0.330
77.36000 3.586
77.38000 4.522
77.40000 0.798
77.42000 -0.299
77.44000 2.030
77.46000 4.762
77.48000 3.813
77.50000 4.075
77.52000 3.257
77.54000 2.151
77.56000 1.368
77.58000 -0.736
77.60000 -2.153
77.62000 -0.627
77.64000 1.263
77.66000 6.031
77.68000 4.655
77.70000 1.206
77.72000 0.506
77.74000 2.258
77.76000 1.930
77.78000 5.332
77.80000 -0.029
77.82000 -0.551
77.84000 3.015
77.86000 5.405
77.88000 3.782
77.90000 0.697
77.92000 0.591
77.94000 3.858
77.96000 8.278
77.98000 2.666
78.00000 3.658
78.02000 1.289
78.04000 4.431
78.06000 2.176
78.08000 1.544
78.10000 -2.252
78.12000 -0.667
78.14000 1.488
78.16000 1.690
78.18000 3.853
78.20000 4.740
78.22000 1.962
78.24000 1.987
78.26000 1.601
78.28000 -0.019
78.30000 1.870
78.32000 1.016
78.34000 1.962
78.36000 1.370
78.38000 2.569
78.40000 2.137
78.42000 0.958
78.44000 1.152
78.46000 0.987
78.48000 2.383
78.50000 0.476
78.52000 1.597
78.54000 -2.254
78.56000 3.816
78.58000 6.925
78.60000 3.156
78.62000 -0.326
78.64000 1.533
78.66000 4.004
78.68000 2.954
78.70000 -1.126
78.72000 0.430
78.74000 3.644
78.76000 3.133
78.78000 -0.929
78.80000 2.017
78.82000 2.641
78.84000 1.240
78.86000 2.244
78.88000 -0.070
78.90000 2.228
78.92000 0.082
78.94000 3.282
78.96000 3.591
78.98000 -0.120
79.00000 0.618
79.02000 2.546
79.04000 2.314
79.06000 -0.110
79.08000 -1.729
79.10000 -1.694
79.12000 0.908
79.14000 5.144
79.16000 7.889
79.18000 3.858
79.20000 2.623
79.22000 -0.220
79.24000 0.844
79.26000 -0.323
79.28000 0.229
79.30000 -0.109
79.32000 1.381
79.34000 1.059
79.36000 1.817
79.38000 1.378
79.40000 4.987
79.42000 5.961
79.44000 2.100
79.46000 0.188
79.48000 1.684
79.50000 6.573
79.52000 3.815
79.54000 0.940
79.56000 -0.610
79.58000 5.725
79.60000 3.116
79.62000 -0.287
79.64000 -2.301
79.66000 0.314
79.68000 5.336
79.70000 0.438
79.72000 -0.612
79.74000 1.652
79.76000 1.319
79.78000 -1.205
79.80000 0.166
79.82000 1.357
79.84000 4.446
79.86000 3.828
79.88000 4.375
79.90000 5.573
79.92000 2.424
79.94000 1.795
79.96000 2.474
79.98000 4.180
80.00000 1.920
80.02000 0.017
80.04000 -0.428
80.06000 0.341
80.08000 0.732
80.10000 -0.541
80.12000 3.987
80.14000 3.904
80.16000 2.272
80.18000 1.654
80.20000 3.625
80.22000 4.969
80.24000 0.790
80.26000 -2.330
80.28000 3.327
80.30000 4.197
80.32000 3.023
80.34000 -0.245
80.36000 2.167
80.38000 8.160
80.40000 3.649
80.42000 -2.349
80.44000 -1.388
80.46000 0.481
80.48000 2.131
80.50000 2.515
80.52000 6.648
80.54000 6.102
80.56000 1.460
80.58000 -0.353
80.60000 1.357
80.62000 3.738
80.64000 4.008
80.66000 3.313
80.68000 7.137
80.70000 9.505
80.72000 5.725
80.74000 3.137
80.76000 6.077
80.78000 7.995
80.80000 4.916
80.82000 5.518
80.84000 4.952
80.86000 4.071
80.88000 4.116
80.90000 7.391
80.92000 7.424
80.94000 9.373
80.96000 8.251
80.98000 11.267
81.00000 10.906
81.02000 13.078
81.04000 14.832
81.06000 13.725
81.08000 10.169
81.10000 8.527
81.12000 11.068
81.14000 11.740
81.16000 13.469
81.18000 16.095
81.20000 14.824
81.22000 10.711
81.24000 10.898
81.26000 10.662
81.28000 13.422
81.30000 12.693
81.32000 11.990
81.34000 12.333
81.36000 14.257
81.38000 19.426
81.40000 19.632
81.42000 12.510
81.44000 12.154
81.46000 12.823
81.48000 14.885
81.50000 16.567
81.52000 17.213
81.54000 20.337
81.56000 18.504
81.58000 14.469
81.60000 14.718
81.62000 20.101
81.64000 20.629
81.66000 14.205
81.68000 17.969
81.70000 20.522
81.72000 22.872
81.74000 24.053
81.76000 24.272
81.78000 18.791
81.80000 18.741
81.82000 17.413
81.84000 17.470
81.86000 16.602
81.88000 25.661
81.90000 24.785
81.92000 21.767
81.94000 27.132
81.96000 23.423
81.98000 21.868
82.00000 21.429
82.02000 22.754
82.04000 21.144
82.06000 21.363
82.08000 21.766
82.10000 22.835
82.12000 21.618
82.14000 25.831
82.16000 23.643
82.18000 23.955
82.20000 26.602
82.22000 23.811
82.24000 22.024
82.26000 20.828
82.28000 20.771
82.30000 20.656
82.32000 19.263
82.34000 22.447
82.36000 23.491
82.38000 21.057
82.40000 17.523
82.42000 19.161
82.44000 17.397
82.46000 14.484
82.48000 18.118
82.50000 22.193
82.52000 20.898
82.54000 15.994
82.56000 16.179
82.58000 14.066
82.60000 15.133
82.62000 20.967
82.64000 22.163
82.66000 13.701
82.68000 10.338
82.70000 12.926
82.72000 9.546
82.74000 9.014
82.76000 14.226
82.78000 12.157
82.80000 13.929
82.82000 12.355
82.84000 7.585
82.86000 8.919
82.88000 8.897
82.90000 -0.694
82.92000 4.312
82.94000 8.138
82.96000 7.844
82.98000 5.823
83.00000 5.925
83.02000 11.458
83.04000 8.472
83.06000 13.009
83.08000 9.889
83.10000 3.054
83.12000 7.733
83.14000 6.372
83.16000 3.227
83.18000 4.379
83.20000 6.527
83.22000 7.765
83.24000 7.499
83.26000 7.701
83.28000 5.433
83.30000 1.378
83.32000 5.511
83.34000 5.818
83.36000 6.109
83.38000 2.426
83.40000 1.935
83.42000 1.248
83.44000 3.731
83.46000 4.231
83.48000 4.416
83.50000 5.912
83.52000 4.033
83.54000 -0.699
83.56000 -1.682
83.58000 0.328
83.60000 -1.326
83.62000 -2.352
83.64000 1.384
83.66000 3.396
83.68000 4.577
83.70000 4.009
83.72000 3.598
83.74000 4.586
83.76000 6.681
83.78000 5.040
83.80000 7.497
83.82000 8.868
83.84000 6.289
83.86000 5.071
83.88000 4.450
83.90000 1.496
83.92000 -2.326
83.94000 -1.415
83.96000 1.772
83.98000 0.558
84.00000 -0.644
84.02000 -0.758
84.04000 3.209
84.06000 2.035
84.08000 0.186
84.10000 1.076
84.12000 5.883
84.14000 4.390
84.16000 1.111
84.18000 -0.472
84.20000 3.898
84.22000 4.140
84.24000 2.158
84.26000 2.130
84.28000 0.196
84.30000 -0.186
84.32000 1.640
84.34000 0.144
84.36000 -0.361
84.38000 -1.387
84.40000 2.773
84.42000 5.363
84.44000 3.118
84.46000 -1.233
84.48000 1.399
84.50000 1.876
84.52000 3.556
84.54000 -2.346
84.56000 0.099
84.58000 1.434
84.60000 1.001
84.62000 1.815
84.64000 0.097
84.66000 4.560
84.68000 1.705
84.70000 1.646
84.72000 -0.070
84.74000 1.662
84.76000 2.114
84.78000 -0.347
84.80000 -0.541
84.82000 -2.351
84.84000 -1.483
84.86000 1.869
84.88000 0.035
84.90000 1.192
84.92000 3.455
84.94000 1.822
84.96000 3.217
84.98000 -0.432
85.00000 1.634
85.02000 2.544
85.04000 1.879
85.06000 -0.876
85.08000 2.421
85.10000 3.797
85.12000 1.288
85.14000 5.961
85.16000 3.787
85.18000 0.967
85.20000 1.543
85.22000 1.804
85.24000 2.924
85.26000 2.366
85.28000 4.895
85.30000 3.620
85.32000 2.009
85.34000 5.654
85.36000 3.306
85.38000 3.853
85.40000 3.777
85.42000 2.276
85.44000 6.883
85.46000 2.914
85.48000 3.986
85.50000 6.917
85.52000 7.006
85.54000 3.471
85.56000 3.971
85.58000 4.010
85.60000 8.263
85.62000 3.225
85.64000 2.145
85.66000 4.361
85.68000 8.649
85.70000 10.583
85.72000 10.200
85.74000 10.834
85.76000 13.475
85.78000 14.986
85.80000 10.863
85.82000 12.333
85.84000 13.400
85.86000 14.281
85.88000 13.666
85.90000 10.760
85.92000 10.301
85.94000 11.398
85.96000 9.375
85.98000 8.438
86.00000 14.260
86.02000 10.448
86.04000 13.789
86.06000 17.836
86.08000 21.358
86.10000 23.515
86.12000 20.287
86.14000 17.802
86.16000 19.154
86.18000 19.455
86.20000 18.176
86.22000 16.642
86.24000 20.138
86.26000 20.941
86.28000 19.473
86.30000 18.962
86.32000 17.441
86.34000 19.598
86.36000 16.749
86.38000 17.356
86.40000 16.328
86.42000 15.373
86.44000 19.261
86.46000 24.084
86.48000 20.196
86.50000 15.929
86.52000 17.958
86.54000 20.615
86.56000 15.883
86.58000 17.228
86.60000 16.256
86.62000 18.001
86.64000 12.239
86.66000 12.760
86.68000 9.660
86.70000 12.996
86.72000 12.918
86.74000 7.244
86.76000 7.479
86.78000 14.738
86.80000 16.872
86.82000 14.881
86.84000 11.481
86.86000 10.020
86.88000 11.987
86.90000 14.679
86.92000 13.099
86.94000 9.852
86.96000 10.504
86.98000 7.320
87.00000 10.200
87.02000 9.186
87.04000 5.573
87.06000 6.488
87.08000 3.665
87.10000 3.555
87.12000 7.598
87.14000 6.216
87.16000 7.050
87.18000 6.835
87.20000 5.781
87.22000 6.786
87.24000 4.495
87.26000 2.565
87.28000 5.961
87.30000 2.641
87.32000 4.302
87.34000 8.207
87.36000 7.149
87.38000 4.266
87.40000 3.838
87.42000 6.884
87.44000 7.477
87.46000 6.821
87.48000 6.991
87.50000 5.620
87.52000 6.116
87.54000 2.749
87.56000 3.038
87.58000 4.064
87.60000 5.465
87.62000 4.212
87.64000 4.183
87.66000 1.722
87.68000 3.655
87.70000 2.287
87.72000 2.426
87.74000 2.079
87.76000 -2.156
87.78000 0.340
87.80000 1.649
87.82000 1.157
87.84000 2.476
87.86000 2.091
87.88000 3.548
87.90000 3.612
87.92000 4.701
87.94000 4.873
87.96000 3.318
87.98000 0.464
88.00000 1.997
88.02000 -0.303
88.04000 -1.422
88.06000 1.099
88.08000 1.302
88.10000 -0.088
88.12000 6.030
88.14000 3.045
88.16000 3.480
88.18000 3.420
88.20000 1.884
88.22000 3.764
88.24000 -1.356
88.26000 1.842
88.28000 7.136
88.30000 3.331
88.32000 -0.575
88.34000 -0.201
88.36000 1.474
88.38000 4.414
88.40000 6.240
88.42000 4.093
88.44000 2.209
88.46000 -2.093
88.48000 -2.092
88.50000 5.767
88.52000 4.239
88.54000 2.037
88.56000 3.823
88.58000 4.308
88.60000 4.583
88.62000 3.803
88.64000 1.575
88.66000 -1.663
88.68000 -2.091
88.70000 0.085
88.72000 3.062
88.74000 1.487
88.76000 0.055
88.78000 2.404
88.80000 1.815
88.82000 -1.152
88.84000 2.912
88.86000 3.566
88.88000 3.564
88.90000 1.700
88.92000 1.903
88.94000 0.520
88.96000 -1.645
88.98000 0.538
89.00000 -0.327
89.02000 -1.388
89.04000 2.054
89.06000 2.617
89.08000 -1.581
89.10000 2.533
89.12000 3.085
89.14000 4.270
89.16000 2.907
89.18000 -1.071
89.20000 2.159
89.22000 1.178
89.24000 0.363
89.26000 1.370
89.28000 4.614
89.30000 -0.198
89.32000 1.582
89.34000 1.546
89.36000 -0.433
89.38000 2.098
89.40000 2.690
89.42000 4.279
89.44000 4.282
89.46000 0.972
89.48000 -0.258
89.50000 -2.065
89.52000 -2.065
89.54000 1.428
89.56000 3.597
89.58000 2.235
89.60000 2.363
89.62000 2.339
89.64000 3.293
89.66000 2.684
89.68000 2.877
89.70000 1.763
89.72000 2.092
89.74000 0.738
89.76000 1.940
89.78000 3.892
89.80000 0.173
89.82000 0.544
89.84000 0.526
89.86000 2.048
89.88000 3.844
89.90000 5.915
89.92000 0.773
89.94000 0.952
89.96000 1.098
89.98000 1.724
90.00000 3.949
90.02000 2.982
90.04000 -0.434
90.06000 2.223
90.08000 4.287
90.10000 0.086
90.12000 2.218
90.14000 -1.678
90.16000 -2.080
90.18000 -0.683
90.20000 -0.379
90.22000 1.598
90.24000 -0.175
90.26000 0.676
90.28000 -0.739
90.30000 -1.580
90.32000 2.216
90.34000 -0.498
90.36000 1.351
90.38000 1.518
90.40000 5.793
90.42000 4.717
90.44000 0.832
90.46000 -0.719
90.48000 3.730
90.50000 1.813
90.52000 3.118
90.54000 0.740
90.56000 0.415
90.58000 1.053
90.60000 2.643
90.62000 1.727
90.64000 -0.508
90.66000 0.738
90.68000 1.114
90.70000 -0.416
90.72000 2.022
90.74000 2.317
90.76000 -0.740
90.78000 -0.668
90.80000 1.055
90.82000 -1.745
90.84000 -1.743
90.86000 -0.821
90.88000 2.865
90.90000 3.455
90.92000 1.207
90.94000 3.272
90.96000 2.284
90.98000 2.557
91.00000 4.760
91.02000 -0.187
91.04000 0.570
91.06000 2.932
91.08000 6.030
91.10000 7.460
91.12000 4.616
91.14000 4.788
91.16000 4.286
91.18000 0.589
91.20000 3.130
91.22000 2.887
91.24000 -2.073
91.26000 0.594
91.28000 1.299
91.30000 -1.109
91.32000 2.276
91.34000 0.889
91.36000 0.263
91.38000 1.563
91.40000 0.365
91.42000 3.584
91.44000 5.093
91.46000 1.468
91.48000 -2.061
91.50000 -0.310
91.52000 0.531
91.54000 0.689
91.56000 4.522
91.58000 5.557
91.60000 1.139
91.62000 0.656
91.64000 1.940
91.66000 2.191
91.68000 1.320
91.70000 4.655
91.72000 5.570
91.74000 4.897
91.76000 0.940
91.78000 3.586
91.80000 3.998
91.82000 4.471
91.84000 1.176
91.86000 -0.932
91.88000 4.034
91.90000 0.738
91.92000 -2.061
91.94000 0.989
91.96000 1.244
91.98000 -0.900
92.00000 1.610
92.02000 8.371
92.04000 3.608
92.06000 1.596
92.08000 2.317
92.10000 4.020
92.12000 2.498
92.14000 0.740
92.16000 4.627
92.18000 7.353
92.20000 6.335
92.22000 5.597
92.24000 4.580
92.26000 2.783
92.28000 4.752
92.30000 2.383
92.32000 5.050
92.34000 1.846
92.36000 3.895
92.38000 4.694
92.40000 3.886
92.42000 4.896
92.44000 2.709
92.46000 7.619
92.48000 9.017
92.50000 4.443
92.52000 -2.053
92.54000 3.434
92.56000 7.517
92.58000 2.986
92.60000 -1.099
92.62000 -0.247
92.64000 1.988
92.66000 6.770
92.68000 5.382
92.70000 6.497
92.72000 8.371
92.74000 5.672
92.76000 4.879
92.78000 5.758
92.80000 5.875
92.82000 6.616
92.84000 6.827
92.86000 4.887
92.88000 1.960
92.90000 -0.291
92.92000 1.762
92.94000 4.528
92.96000 3.034
92.98000 6.078
93.00000 6.524
93.02000 5.921
93.04000 0.751
93.06000 0.001
93.08000 -0.525
93.10000 -0.651
93.12000 6.539
93.14000 2.183
93.16000 0.334
93.18000 3.338
93.20000 1.747
93.22000 -0.741
93.24000 -0.164
93.26000 6.407
93.28000 4.958
93.30000 4.977
93.32000 1.265
93.34000 6.531
93.36000 9.670
93.38000 3.477
93.40000 2.837
93.42000 4.546
93.44000 1.847
93.46000 0.698
93.48000 4.106
93.50000 8.244
93.52000 4.557
93.54000 2.019
93.56000 0.601
93.58000 2.703
93.60000 -0.390
93.62000 2.197
93.64000 5.598
93.66000 3.153
93.68000 2.043
93.70000 5.296
93.72000 5.758
93.74000 0.945
93.76000 1.425
93.78000 2.681
93.80000 3.550
93.82000 5.762
93.84000 3.187
93.86000 4.872
93.88000 8.168
93.90000 9.369
93.92000 6.182
93.94000 5.575
93.96000 4.010
93.98000 3.873
94.00000 2.294
94.02000 0.919
94.04000 4.609
94.06000 3.062
94.08000 4.169
94.10000 3.766
94.12000 6.401
94.14000 4.146
94.16000 4.055
94.18000 4.108
94.20000 5.264
94.22000 3.836
94.24000 6.163
94.26000 3.841
94.28000 3.572
94.30000 8.948
94.32000 8.196
94.34000 0.699
94.36000 6.309
94.38000 8.845
94.40000 4.070
94.42000 6.119
94.44000 6.500
94.46000 4.948
94.48000 5.540
94.50000 10.165
94.52000 5.902
94.54000 5.355
94.56000 3.430
94.58000 3.002
94.60000 9.040
94.62000 5.574
94.64000 3.454
94.66000 -2.035
94.68000 -1.342
94.70000 4.568
94.72000 4.419
94.74000 0.979
94.76000 5.823
94.78000 7.233
94.80000 8.188
94.82000 6.729
94.84000 4.370
94.86000 6.707
94.88000 7.080
94.90000 5.587
94.92000 6.728
94.94000 2.586
94.96000 3.583
94.98000 5.661
95.00000 5.734
95.02000 6.004
95.04000 4.180
95.06000 3.496
95.08000 4.021
95.10000 1.896
95.12000 3.891
95.14000 0.518
95.16000 6.998
95.18000 5.073
95.20000 5.534
95.22000 3.068
95.24000 0.816
95.26000 1.560
95.28000 5.234
95.30000 2.888
95.32000 6.161
95.34000 10.069
95.36000 9.829
95.38000 6.681
95.40000 1.236
95.42000 0.526
95.44000 4.104
95.46000 2.589
95.48000 3.279
95.50000 7.151
95.52000 6.934
95.54000 4.315
95.56000 5.482
95.58000 4.454
95.60000 4.151
95.62000 0.407
95.64000 1.854
95.66000 2.817
95.68000 1.400
95.70000 6.587
95.72000 8.519
95.74000 4.636
95.76000 2.206
95.78000 4.043
95.80000 4.013
95.82000 7.131
95.84000 7.651
95.86000 1.837
95.88000 4.035
95.90000 9.522
95.92000 3.960
95.94000 0.696
95.96000 2.760
95.98000 3.482
96.00000 4.730
96.02000 10.289
96.04000 10.166
96.06000 3.017
96.08000 3.155
96.10000 2.634
96.12000 6.278
96.14000 1.777
96.16000 -2.076
96.18000 5.633
96.20000 6.540
96.22000 9.206
96.24000 7.846
96.26000 8.727
96.28000 12.016
96.30000 3.171
96.32000 2.421
96.34000 1.378
96.36000 -0.737
96.38000 1.180
96.40000 3.587
96.42000 2.685
96.44000 2.809
96.46000 4.443
96.48000 0.756
96.50000 1.848
96.52000 -1.164
96.54000 2.121
96.56000 1.317
96.58000 7.529
96.60000 3.732
96.62000 0.442
96.64000 1.991
96.66000 9.897
96.68000 8.838
96.70000 5.311
96.72000 7.176
96.74000 3.132
96.76000 4.689
96.78000 5.863
96.80000 1.015
96.82000 -1.721
96.84000 -0.303
96.86000 2.208
96.88000 0.431
96.90000 -2.075
96.92000 -0.814
96.94000 5.586
96.96000 2.357
96.98000 4.277
97.00000 -0.241
97.02000 4.183
97.04000 5.219
97.06000 4.111
97.08000 6.671
97.10000 2.540
97.12000 6.382
97.14000 4.134
97.16000 4.999
97.18000 7.073
97.20000 4.463
97.22000 7.754
97.24000 -1.158
97.26000 -0.857
97.28000 3.414
97.30000 4.449
97.32000 4.552
97.34000 4.072
97.36000 2.408
97.38000 4.958
97.40000 4.806
97.42000 4.956
97.44000 6.431
97.46000 1.521
97.48000 -1.324
97.50000 3.581
97.52000 2.742
97.54000 5.881
97.56000 7.441
97.58000 6.109
97.60000 1.176
97.62000 3.205
97.64000 1.727
97.66000 1.577
97.68000 8.389
97.70000 3.162
97.72000 -1.497
97.74000 -1.897
97.76000 3.207
97.78000 10.093
97.80000 4.013
97.82000 1.316
97.84000 2.971
97.86000 4.590
97.88000 8.265
97.90000 6.130
97.92000 2.398
97.94000 -0.043
97.96000 1.111
97.98000 6.219
98.00000 7.741
98.02000 8.091
98.04000 4.928
98.06000 9.623
98.08000 9.113
98.10000 6.572
98.12000 4.232
98.14000 2.493
98.16000 2.200
98.18000 3.631
98.20000 9.925
98.22000 9.060
98.24000 6.063
98.26000 4.302
98.28000 3.441
98.30000 6.655
98.32000 6.033
98.34000 10.825
98.36000 9.654
98.38000 6.594
98.40000 3.433
98.42000 6.499
98.44000 7.177
98.46000 9.036
98.48000 2.313
98.50000 6.719
98.52000 6.581
98.54000 5.994
98.56000 3.155
98.58000 5.354
98.60000 4.500
98.62000 4.367
98.64000 8.257
98.66000 5.477
98.68000 4.635
98.70000 -1.976
98.72000 0.249
98.74000 2.947
98.76000 9.008
98.78000 14.280
98.80000 11.048
98.82000 15.849
98.84000 7.338
98.86000 1.070
98.88000 9.910
98.90000 17.970
98.92000 5.891
98.94000 6.822
98.96000 7.126
98.98000 7.783
99.00000 10.049
99.02000 8.666
99.04000 2.936
99.06000 6.406
99.08000 13.348
99.10000 13.289
99.12000 10.622
99.14000 5.897
99.16000 6.740
99.18000 8.827
99.20000 11.063
99.22000 8.015
99.24000 11.189
99.26000 13.110
99.28000 10.312
99.30000 9.378
99.32000 6.171
99.34000 3.887
99.36000 -2.007
99.38000 0.189
99.40000 7.230
99.42000 7.534
99.44000 12.854
99.46000 6.864
99.48000 10.982
99.50000 2.212
99.52000 9.920
99.54000 6.733
99.56000 7.749
99.58000 9.288
99.60000 7.401
99.62000 9.047
99.64000 11.558
99.66000 3.976
99.68000 1.417
99.70000 4.420
99.72000 5.694
99.74000 13.066
99.76000 4.781
99.78000 4.909
99.80000 10.132
99.82000 9.404
99.84000 10.047
99.86000 4.538
99.88000 6.284
99.90000 12.398
99.92000 9.527
99.94000 10.351
99.96000 15.135
99.98000 0.000
