'Id: "0011387" Comment: "Integrate frame 0011387_Au-Ir-Rh_Rh-rich_XRD-Mapping-257-0000.gfrmwith cursor Wedge Cursor #5" Operator: "B?rgel" Anode: "Cu" Wavelength: "1.5406" Scantype: "2Theta (TwoTheta)" TimePerStep: "1" X: "31.5" Y: "18" Z: "5.95" 
10.00000 0.000
10.02000 -3.551
10.04000 -3.488
10.06000 1.131
10.08000 2.487
10.10000 4.126
10.12000 2.219
10.14000 18.514
10.16000 8.458
10.18000 9.953
10.20000 15.463
10.22000 9.671
10.24000 -0.513
10.26000 7.020
10.28000 7.008
10.30000 7.997
10.32000 -0.578
10.34000 4.783
10.36000 2.494
10.38000 7.827
10.40000 17.257
10.42000 12.098
10.44000 5.877
10.46000 8.054
10.48000 9.689
10.50000 6.054
10.52000 8.608
10.54000 7.590
10.56000 21.338
10.58000 27.952
10.60000 15.035
10.62000 5.396
10.64000 10.506
10.66000 10.940
10.68000 14.375
10.70000 21.431
10.72000 16.802
10.74000 13.485
10.76000 10.700
10.78000 19.045
10.80000 20.660
10.82000 19.226
10.84000 24.039
10.86000 15.420
10.88000 14.779
10.90000 13.824
10.92000 14.497
10.94000 27.657
10.96000 24.360
10.98000 15.356
11.00000 20.731
11.02000 21.700
11.04000 28.506
11.06000 28.209
11.08000 23.753
11.10000 20.685
11.12000 22.932
11.14000 19.080
11.16000 18.984
11.18000 24.358
11.20000 18.999
11.22000 17.609
11.24000 16.068
11.26000 27.054
11.28000 21.389
11.30000 24.991
11.32000 18.341
11.34000 15.838
11.36000 16.645
11.38000 19.721
11.40000 23.745
11.42000 25.356
11.44000 24.014
11.46000 14.786
11.48000 19.864
11.50000 21.856
11.52000 15.343
11.54000 28.029
11.56000 29.392
11.58000 27.481
11.60000 21.533
11.62000 20.905
11.64000 23.849
11.66000 24.610
11.68000 36.553
11.70000 26.496
11.72000 29.722
11.74000 31.490
11.76000 21.487
11.78000 23.568
11.80000 30.516
11.82000 20.763
11.84000 23.978
11.86000 33.826
11.88000 35.845
11.90000 26.878
11.92000 29.443
11.94000 40.280
11.96000 40.533
11.98000 22.532
12.00000 29.537
12.02000 33.469
12.04000 31.462
12.06000 29.740
12.08000 44.670
12.10000 36.287
12.12000 37.365
12.14000 32.609
12.16000 22.390
12.18000 17.808
12.20000 18.415
12.22000 27.234
12.24000 32.199
12.26000 25.706
12.28000 16.712
12.30000 23.237
12.32000 29.080
12.34000 27.976
12.36000 20.725
12.38000 28.442
12.40000 40.988
12.42000 41.450
12.44000 42.182
12.46000 31.093
12.48000 33.707
12.50000 34.883
12.52000 30.204
12.54000 31.446
12.56000 34.847
12.58000 32.726
12.60000 35.535
12.62000 41.710
12.64000 40.320
12.66000 34.300
12.68000 34.496
12.70000 36.740
12.72000 32.810
12.74000 32.374
12.76000 36.067
12.78000 34.369
12.80000 31.651
12.82000 34.799
12.84000 32.220
12.86000 29.971
12.88000 31.853
12.90000 35.430
12.92000 34.473
12.94000 29.572
12.96000 30.851
12.98000 39.629
13.00000 33.117
13.02000 31.543
13.04000 35.422
13.06000 29.310
13.08000 20.897
13.10000 30.587
13.12000 24.438
13.14000 29.183
13.16000 27.244
13.18000 31.083
13.20000 31.069
13.22000 26.847
13.24000 24.453
13.26000 29.873
13.28000 34.272
13.30000 40.686
13.32000 30.484
13.34000 24.652
13.36000 28.674
13.38000 21.390
13.40000 23.121
13.42000 24.860
13.44000 24.636
13.46000 30.358
13.48000 36.709
13.50000 32.653
13.52000 28.256
13.54000 27.642
13.56000 23.022
13.58000 25.577
13.60000 17.343
13.62000 17.499
13.64000 32.454
13.66000 30.181
13.68000 27.321
13.70000 30.506
13.72000 32.676
13.74000 24.037
13.76000 22.534
13.78000 27.401
13.80000 31.336
13.82000 19.655
13.84000 31.851
13.86000 24.492
13.88000 19.090
13.90000 30.028
13.92000 27.305
13.94000 21.205
13.96000 19.647
13.98000 17.987
14.00000 28.599
14.02000 29.628
14.04000 22.909
14.06000 21.527
14.08000 27.234
14.10000 27.019
14.12000 33.673
14.14000 28.019
14.16000 23.538
14.18000 30.154
14.20000 27.151
14.22000 27.681
14.24000 34.132
14.26000 32.291
14.28000 21.928
14.30000 24.332
14.32000 19.958
14.34000 16.237
14.36000 16.812
14.38000 20.824
14.40000 19.492
14.42000 21.077
14.44000 24.631
14.46000 22.374
14.48000 18.503
14.50000 28.755
14.52000 24.221
14.54000 21.121
14.56000 29.895
14.58000 37.553
14.60000 30.950
14.62000 14.777
14.64000 10.274
14.66000 21.378
14.68000 23.767
14.70000 21.357
14.72000 19.309
14.74000 15.733
14.76000 18.034
14.78000 15.255
14.80000 19.421
14.82000 17.616
14.84000 15.152
14.86000 12.999
14.88000 15.717
14.90000 14.165
14.92000 15.265
14.94000 22.093
14.96000 22.492
14.98000 14.241
15.00000 12.013
15.02000 17.105
15.04000 20.155
15.06000 18.010
15.08000 29.640
15.10000 23.369
15.12000 18.233
15.14000 16.573
15.16000 13.263
15.18000 16.248
15.20000 15.254
15.22000 20.718
15.24000 16.998
15.26000 18.336
15.28000 18.605
15.30000 16.855
15.32000 13.792
15.34000 9.182
15.36000 11.844
15.38000 19.628
15.40000 18.739
15.42000 19.423
15.44000 20.980
15.46000 21.418
15.48000 14.098
15.50000 11.800
15.52000 12.138
15.54000 7.418
15.56000 7.392
15.58000 11.918
15.60000 12.264
15.62000 9.954
15.64000 6.362
15.66000 9.265
15.68000 17.758
15.70000 11.887
15.72000 11.198
15.74000 9.296
15.76000 16.954
15.78000 18.443
15.80000 19.351
15.82000 9.484
15.84000 7.538
15.86000 9.923
15.88000 17.003
15.90000 15.918
15.92000 14.770
15.94000 9.096
15.96000 2.892
15.98000 15.599
16.00000 19.069
16.02000 15.531
16.04000 8.239
16.06000 15.352
16.08000 19.911
16.10000 6.805
16.12000 4.001
16.14000 20.018
16.16000 19.472
16.18000 21.705
16.20000 10.800
16.22000 12.027
16.24000 17.745
16.26000 15.533
16.28000 7.942
16.30000 10.636
16.32000 11.881
16.34000 9.085
16.36000 9.265
16.38000 10.445
16.40000 10.483
16.42000 12.147
16.44000 11.201
16.46000 12.409
16.48000 14.975
16.50000 4.928
16.52000 8.548
16.54000 13.018
16.56000 4.580
16.58000 2.717
16.60000 2.594
16.62000 -4.403
16.64000 7.709
16.66000 10.378
16.68000 20.064
16.70000 10.263
16.72000 5.490
16.74000 3.188
16.76000 7.808
16.78000 14.240
16.80000 8.250
16.82000 7.278
16.84000 1.396
16.86000 2.316
16.88000 2.085
16.90000 6.188
16.92000 11.579
16.94000 6.209
16.96000 -4.402
16.98000 6.304
17.00000 10.088
17.02000 9.867
17.04000 7.840
17.06000 10.666
17.08000 12.057
17.10000 9.853
17.12000 3.471
17.14000 2.075
17.16000 1.996
17.18000 6.996
17.20000 6.336
17.22000 4.342
17.24000 5.831
17.26000 5.737
17.28000 2.942
17.30000 2.872
17.32000 6.187
17.34000 1.301
17.36000 -2.398
17.38000 1.690
17.40000 0.777
17.42000 -4.375
17.44000 -3.086
17.46000 -0.633
17.48000 -0.468
17.50000 7.641
17.52000 11.709
17.54000 7.042
17.56000 2.659
17.58000 1.231
17.60000 9.335
17.62000 8.389
17.64000 3.195
17.66000 7.662
17.68000 13.973
17.70000 3.595
17.72000 5.346
17.74000 1.114
17.76000 2.911
17.78000 7.585
17.80000 4.027
17.82000 -0.237
17.84000 3.803
17.86000 1.267
17.88000 -0.366
17.90000 -2.393
17.92000 -3.363
17.94000 0.293
17.96000 -2.156
17.98000 0.660
18.00000 -1.534
18.02000 0.137
18.04000 6.500
18.06000 6.799
18.08000 3.151
18.10000 1.669
18.12000 6.413
18.14000 11.173
18.16000 10.010
18.18000 16.376
18.20000 8.483
18.22000 5.214
18.24000 1.204
18.26000 -0.834
18.28000 3.133
18.30000 4.024
18.32000 -0.641
18.34000 6.582
18.36000 7.270
18.38000 1.682
18.40000 1.303
18.42000 6.604
18.44000 2.027
18.46000 3.603
18.48000 3.881
18.50000 2.847
18.52000 -1.724
18.54000 1.457
18.56000 2.927
18.58000 -1.157
18.60000 0.645
18.62000 -0.854
18.64000 -1.410
18.66000 6.573
18.68000 9.737
18.70000 7.795
18.72000 8.028
18.74000 2.161
18.76000 9.110
18.78000 11.752
18.80000 6.919
18.82000 4.085
18.84000 0.221
18.86000 0.783
18.88000 2.178
18.90000 6.776
18.92000 10.391
18.94000 8.039
18.96000 4.420
18.98000 3.596
19.00000 5.828
19.02000 4.719
19.04000 -0.718
19.06000 1.257
19.08000 4.713
19.10000 1.094
19.12000 -0.513
19.14000 -2.020
19.16000 1.494
19.18000 0.359
19.20000 1.118
19.22000 9.121
19.24000 8.391
19.26000 2.028
19.28000 0.334
19.30000 7.995
19.32000 13.183
19.34000 6.819
19.36000 -4.276
19.38000 -1.537
19.40000 -2.476
19.42000 -2.481
19.44000 -3.225
19.46000 4.319
19.48000 10.972
19.50000 9.281
19.52000 4.318
19.54000 1.960
19.56000 3.276
19.58000 3.143
19.60000 5.835
19.62000 6.424
19.64000 8.088
19.66000 7.841
19.68000 2.620
19.70000 8.959
19.72000 6.770
19.74000 -0.732
19.76000 0.910
19.78000 1.643
19.80000 1.739
19.82000 -3.014
19.84000 0.191
19.86000 10.699
19.88000 12.690
19.90000 5.611
19.92000 3.373
19.94000 -1.783
19.96000 0.186
19.98000 5.734
20.00000 4.496
20.02000 3.666
20.04000 4.287
20.06000 2.745
20.08000 7.797
20.10000 7.594
20.12000 -3.748
20.14000 -4.249
20.16000 0.795
20.18000 4.015
20.20000 0.715
20.22000 -3.367
20.24000 11.614
20.26000 11.505
20.28000 -3.414
20.30000 1.140
20.32000 5.159
20.34000 7.055
20.36000 7.355
20.38000 -2.734
20.40000 2.827
20.42000 5.339
20.44000 1.300
20.46000 1.999
20.48000 2.724
20.50000 1.650
20.52000 4.206
20.54000 8.297
20.56000 12.874
20.58000 4.717
20.60000 4.526
20.62000 7.809
20.64000 13.391
20.66000 10.188
20.68000 7.674
20.70000 11.991
20.72000 3.819
20.74000 0.089
20.76000 3.655
20.78000 4.428
20.80000 8.105
20.82000 4.566
20.84000 0.908
20.86000 -0.352
20.88000 -1.306
20.90000 -0.367
20.92000 5.874
20.94000 12.116
20.96000 8.287
20.98000 7.052
21.00000 3.420
21.02000 0.990
21.04000 8.614
21.06000 6.378
21.08000 5.101
21.10000 3.945
21.12000 5.791
21.14000 0.826
21.16000 -4.148
21.18000 8.313
21.20000 3.898
21.22000 -3.747
21.24000 5.390
21.26000 4.617
21.28000 3.931
21.30000 -0.223
21.32000 8.445
21.34000 6.789
21.36000 2.650
21.38000 2.356
21.40000 4.100
21.42000 3.389
21.44000 10.494
21.46000 8.297
21.48000 9.785
21.50000 7.711
21.52000 -0.299
21.54000 3.230
21.56000 7.736
21.58000 9.685
21.60000 7.132
21.62000 4.612
21.64000 2.849
21.66000 7.316
21.68000 13.431
21.70000 2.416
21.72000 0.121
21.74000 2.180
21.76000 3.816
21.78000 -0.591
21.80000 -0.850
21.82000 1.467
21.84000 4.430
21.86000 1.986
21.88000 -2.768
21.90000 2.274
21.92000 5.964
21.94000 5.143
21.96000 8.061
21.98000 8.691
22.00000 2.079
22.02000 -1.174
22.04000 -0.832
22.06000 7.547
22.08000 2.602
22.10000 7.775
22.12000 11.134
22.14000 -0.328
22.16000 3.392
22.18000 7.205
22.20000 8.023
22.22000 9.615
22.24000 2.270
22.26000 -1.837
22.28000 0.966
22.30000 4.011
22.32000 -4.105
22.34000 4.510
22.36000 10.057
22.38000 6.557
22.40000 4.164
22.42000 2.266
22.44000 0.171
22.46000 8.625
22.48000 7.803
22.50000 7.137
22.52000 7.422
22.54000 4.204
22.56000 3.606
22.58000 6.375
22.60000 2.727
22.62000 5.054
22.64000 4.277
22.66000 -2.057
22.68000 -0.827
22.70000 3.351
22.72000 4.727
22.74000 4.282
22.76000 9.425
22.78000 10.118
22.80000 10.409
22.82000 5.521
22.84000 0.143
22.86000 5.767
22.88000 2.371
22.90000 1.988
22.92000 7.685
22.94000 5.770
22.96000 2.419
22.98000 7.515
23.00000 7.746
23.02000 4.150
23.04000 2.125
23.06000 2.179
23.08000 10.135
23.10000 1.891
23.12000 1.296
23.14000 4.743
23.16000 2.366
23.18000 1.575
23.20000 5.285
23.22000 -0.142
23.24000 3.996
23.26000 8.720
23.28000 6.814
23.30000 7.155
23.32000 2.058
23.34000 -3.968
23.36000 -0.671
23.38000 3.516
23.40000 10.876
23.42000 12.964
23.44000 6.303
23.46000 -0.419
23.48000 -4.050
23.50000 3.208
23.52000 8.011
23.54000 4.526
23.56000 2.437
23.58000 2.197
23.60000 -1.686
23.62000 -3.650
23.64000 -1.111
23.66000 1.124
23.68000 0.180
23.70000 -3.872
23.72000 0.807
23.74000 6.611
23.76000 4.390
23.78000 4.209
23.80000 7.515
23.82000 7.523
23.84000 8.352
23.86000 5.781
23.88000 7.358
23.90000 0.791
23.92000 1.439
23.94000 4.769
23.96000 7.360
23.98000 1.606
24.00000 1.071
24.02000 0.189
24.04000 0.230
24.06000 2.947
24.08000 9.288
24.10000 4.310
24.12000 0.027
24.14000 0.188
24.16000 2.311
24.18000 1.455
24.20000 7.041
24.22000 9.823
24.24000 7.372
24.26000 -0.493
24.28000 1.376
24.30000 1.836
24.32000 -1.506
24.34000 -3.093
24.36000 1.081
24.38000 2.685
24.40000 -1.036
24.42000 1.154
24.44000 6.277
24.46000 11.417
24.48000 7.168
24.50000 3.353
24.52000 4.656
24.54000 5.414
24.56000 3.976
24.58000 -1.847
24.60000 4.047
24.62000 0.294
24.64000 0.283
24.66000 -2.395
24.68000 -0.919
24.70000 -1.442
24.72000 1.305
24.74000 2.190
24.76000 1.915
24.78000 -1.034
24.80000 -3.312
24.82000 0.040
24.84000 0.684
24.86000 1.291
24.88000 6.634
24.90000 11.062
24.92000 3.032
24.94000 -1.184
24.96000 4.334
24.98000 2.969
25.00000 2.847
25.02000 5.263
25.04000 5.534
25.06000 6.975
25.08000 7.119
25.10000 4.829
25.12000 7.602
25.14000 6.858
25.16000 1.496
25.18000 -3.959
25.20000 -0.899
25.22000 4.427
25.24000 8.876
25.26000 12.379
25.28000 7.438
25.30000 3.402
25.32000 -1.874
25.34000 -1.613
25.36000 -3.044
25.38000 3.577
25.40000 7.983
25.42000 5.109
25.44000 3.631
25.46000 5.166
25.48000 2.557
25.50000 1.039
25.52000 2.725
25.54000 5.853
25.56000 4.144
25.58000 3.514
25.60000 1.579
25.62000 3.297
25.64000 4.717
25.66000 2.612
25.68000 8.387
25.70000 7.700
25.72000 4.750
25.74000 1.523
25.76000 0.498
25.78000 3.472
25.80000 4.852
25.82000 3.972
25.84000 -0.616
25.86000 0.874
25.88000 -1.862
25.90000 2.713
25.92000 6.935
25.94000 8.283
25.96000 3.271
25.98000 4.574
26.00000 -2.323
26.02000 -2.232
26.04000 4.298
26.06000 3.043
26.08000 5.204
26.10000 7.832
26.12000 1.105
26.14000 0.276
26.16000 0.686
26.18000 1.308
26.20000 1.732
26.22000 5.073
26.24000 4.939
26.26000 0.491
26.28000 -3.879
26.30000 -0.304
26.32000 2.876
26.34000 4.540
26.36000 1.043
26.38000 2.336
26.40000 5.621
26.42000 7.835
26.44000 11.233
26.46000 7.494
26.48000 7.751
26.50000 5.797
26.52000 7.141
26.54000 9.237
26.56000 4.447
26.58000 1.584
26.60000 7.287
26.62000 2.107
26.64000 1.108
26.66000 1.325
26.68000 0.689
26.70000 0.758
26.72000 2.324
26.74000 5.496
26.76000 2.451
26.78000 4.909
26.80000 7.700
26.82000 10.866
26.84000 12.649
26.86000 8.826
26.88000 6.884
26.90000 6.032
26.92000 4.808
26.94000 5.167
26.96000 -1.854
26.98000 2.200
27.00000 8.965
27.02000 10.784
27.04000 5.760
27.06000 8.481
27.08000 9.971
27.10000 11.344
27.12000 6.484
27.14000 3.264
27.16000 0.885
27.18000 2.694
27.20000 4.958
27.22000 3.030
27.24000 1.621
27.26000 2.371
27.28000 0.109
27.30000 2.606
27.32000 2.494
27.34000 0.774
27.36000 -1.454
27.38000 3.780
27.40000 7.041
27.42000 3.372
27.44000 1.574
27.46000 -0.027
27.48000 -0.993
27.50000 1.727
27.52000 5.065
27.54000 6.790
27.56000 4.162
27.58000 -2.317
27.60000 0.653
27.62000 1.105
27.64000 3.460
27.66000 1.453
27.68000 5.459
27.70000 4.907
27.72000 0.296
27.74000 -1.864
27.76000 1.498
27.78000 2.431
27.80000 1.384
27.82000 6.151
27.84000 5.617
27.86000 5.329
27.88000 3.832
27.90000 5.710
27.92000 3.601
27.94000 3.983
27.96000 3.227
27.98000 -0.248
28.00000 -3.813
28.02000 0.346
28.04000 1.686
28.06000 -1.901
28.08000 1.540
28.10000 1.770
28.12000 6.056
28.14000 9.887
28.16000 5.650
28.18000 6.769
28.20000 2.591
28.22000 -0.305
28.24000 2.721
28.26000 -1.239
28.28000 0.769
28.30000 7.944
28.32000 8.776
28.34000 3.818
28.36000 -1.008
28.38000 -1.618
28.40000 0.396
28.42000 2.631
28.44000 2.265
28.46000 5.271
28.48000 6.677
28.50000 7.411
28.52000 5.024
28.54000 -0.601
28.56000 -1.948
28.58000 -0.847
28.60000 1.884
28.62000 6.033
28.64000 0.533
28.66000 -0.962
28.68000 1.691
28.70000 4.987
28.72000 2.342
28.74000 -1.306
28.76000 1.338
28.78000 3.930
28.80000 5.235
28.82000 2.900
28.84000 3.048
28.86000 0.428
28.88000 0.048
28.90000 -3.163
28.92000 -0.301
28.94000 6.459
28.96000 3.367
28.98000 -1.195
29.00000 -0.167
29.02000 2.753
29.04000 -1.118
29.06000 -1.472
29.08000 7.632
29.10000 5.111
29.12000 1.810
29.14000 2.521
29.16000 -0.488
29.18000 -1.495
29.20000 -2.730
29.22000 -1.928
29.24000 -2.133
29.26000 -0.881
29.28000 -1.086
29.30000 -0.246
29.32000 0.298
29.34000 -0.193
29.36000 1.127
29.38000 0.013
29.40000 0.514
29.42000 0.662
29.44000 -0.546
29.46000 -1.735
29.48000 -2.639
29.50000 -2.384
29.52000 -3.042
29.54000 -3.753
29.56000 -2.280
29.58000 -2.196
29.60000 -0.435
29.62000 2.165
29.64000 1.785
29.66000 -1.096
29.68000 -2.101
29.70000 0.133
29.72000 6.856
29.74000 6.835
29.76000 3.434
29.78000 -1.087
29.80000 -3.737
29.82000 -2.405
29.84000 -3.099
29.86000 0.320
29.88000 1.269
29.90000 -1.329
29.92000 -1.709
29.94000 3.788
29.96000 1.809
29.98000 1.668
30.00000 4.941
30.02000 7.389
30.04000 6.906
30.06000 5.088
30.08000 0.467
30.10000 1.901
30.12000 0.839
30.14000 7.100
30.16000 5.699
30.18000 -1.375
30.20000 2.432
30.22000 2.424
30.24000 0.778
30.26000 3.111
30.28000 4.846
30.30000 0.758
30.32000 -2.028
30.34000 -1.494
30.36000 -3.703
30.38000 1.442
30.40000 -0.503
30.42000 -1.278
30.44000 4.329
30.46000 5.702
30.48000 6.958
30.50000 4.448
30.52000 -1.723
30.54000 1.170
30.56000 3.002
30.58000 1.849
30.60000 4.215
30.62000 2.500
30.64000 3.042
30.66000 3.797
30.68000 2.107
30.70000 1.441
30.72000 5.335
30.74000 7.588
30.76000 6.390
30.78000 2.711
30.80000 3.671
30.82000 2.863
30.84000 4.512
30.86000 2.617
30.88000 -2.113
30.90000 -0.860
30.92000 -3.425
30.94000 -1.878
30.96000 -1.066
30.98000 3.911
31.00000 6.388
31.02000 -0.351
31.04000 -1.494
31.06000 2.897
31.08000 7.927
31.10000 6.023
31.12000 -0.699
31.14000 -2.207
31.16000 2.709
31.18000 6.775
31.20000 8.903
31.22000 4.082
31.24000 1.822
31.26000 2.116
31.28000 5.285
31.30000 6.866
31.32000 2.255
31.34000 6.214
31.36000 7.672
31.38000 3.042
31.40000 1.251
31.42000 3.892
31.44000 3.320
31.46000 2.357
31.48000 5.379
31.50000 4.410
31.52000 -0.994
31.54000 -0.888
31.56000 4.872
31.58000 2.442
31.60000 4.737
31.62000 6.663
31.64000 4.048
31.66000 2.588
31.68000 1.612
31.70000 5.651
31.72000 7.626
31.74000 5.106
31.76000 1.686
31.78000 4.952
31.80000 7.276
31.82000 5.739
31.84000 6.659
31.86000 7.378
31.88000 3.788
31.90000 6.447
31.92000 8.760
31.94000 9.115
31.96000 4.110
31.98000 4.668
32.00000 4.993
32.02000 8.158
32.04000 8.088
32.06000 3.011
32.08000 -3.572
32.10000 -1.935
32.12000 0.329
32.14000 5.911
32.16000 4.723
32.18000 6.368
32.20000 5.008
32.22000 4.558
32.24000 4.464
32.26000 4.070
32.28000 3.900
32.30000 4.512
32.32000 -0.510
32.34000 -0.030
32.36000 2.347
32.38000 2.281
32.40000 3.564
32.42000 6.837
32.44000 4.664
32.46000 8.891
32.48000 6.520
32.50000 0.625
32.52000 2.921
32.54000 9.953
32.56000 13.228
32.58000 9.612
32.60000 7.631
32.62000 2.752
32.64000 6.605
32.66000 2.867
32.68000 3.537
32.70000 3.969
32.72000 6.662
32.74000 2.607
32.76000 0.892
32.78000 5.247
32.80000 5.624
32.82000 7.017
32.84000 4.551
32.86000 3.265
32.88000 4.455
32.90000 10.500
32.92000 7.883
32.94000 3.503
32.96000 3.258
32.98000 4.856
33.00000 5.220
33.02000 1.058
33.04000 7.507
33.06000 5.261
33.08000 -1.090
33.10000 -0.244
33.12000 5.477
33.14000 4.228
33.16000 6.410
33.18000 6.260
33.20000 -0.169
33.22000 1.741
33.24000 5.500
33.26000 3.333
33.28000 4.185
33.30000 4.672
33.32000 6.894
33.34000 7.154
33.36000 5.806
33.38000 6.009
33.40000 5.043
33.42000 8.335
33.44000 8.668
33.46000 10.685
33.48000 4.919
33.50000 7.462
33.52000 2.017
33.54000 -3.555
33.56000 -1.900
33.58000 4.595
33.60000 2.931
33.62000 4.832
33.64000 6.604
33.66000 4.011
33.68000 8.340
33.70000 11.247
33.72000 7.912
33.74000 7.288
33.76000 4.456
33.78000 5.294
33.80000 5.187
33.82000 4.757
33.84000 7.998
33.86000 8.403
33.88000 7.546
33.90000 8.720
33.92000 8.365
33.94000 6.164
33.96000 5.626
33.98000 8.062
34.00000 7.523
34.02000 9.336
34.04000 8.089
34.06000 1.634
34.08000 4.038
34.10000 4.080
34.12000 6.165
34.14000 7.996
34.16000 6.422
34.18000 1.836
34.20000 -3.529
34.22000 0.886
34.24000 5.774
34.26000 4.970
34.28000 1.662
34.30000 8.727
34.32000 9.003
34.34000 2.203
34.36000 3.598
34.38000 6.605
34.40000 10.352
34.42000 8.532
34.44000 9.111
34.46000 7.902
34.48000 5.601
34.50000 -0.420
34.52000 -3.529
34.54000 0.006
34.56000 1.256
34.58000 -2.827
34.60000 3.254
34.62000 2.918
34.64000 1.868
34.66000 1.464
34.68000 -0.953
34.70000 3.807
34.72000 8.053
34.74000 4.312
34.76000 4.495
34.78000 3.470
34.80000 8.606
34.82000 3.358
34.84000 4.700
34.86000 5.562
34.88000 10.676
34.90000 4.446
34.92000 7.702
34.94000 5.002
34.96000 -1.102
34.98000 3.365
35.00000 3.055
35.02000 11.171
35.04000 7.151
35.06000 4.306
35.08000 1.376
35.10000 0.782
35.12000 -0.469
35.14000 -0.088
35.16000 4.224
35.18000 4.684
35.20000 3.464
35.22000 6.683
35.24000 0.863
35.26000 1.405
35.28000 1.014
35.30000 4.074
35.32000 1.213
35.34000 6.594
35.36000 7.486
35.38000 4.337
35.40000 1.231
35.42000 -1.041
35.44000 2.166
35.46000 3.707
35.48000 4.037
35.50000 6.845
35.52000 8.144
35.54000 8.921
35.56000 5.570
35.58000 3.329
35.60000 1.920
35.62000 2.614
35.64000 5.608
35.66000 4.157
35.68000 7.573
35.70000 11.029
35.72000 4.093
35.74000 3.769
35.76000 5.501
35.78000 5.656
35.80000 4.338
35.82000 11.435
35.84000 8.657
35.86000 5.171
35.88000 2.292
35.90000 2.199
35.92000 3.467
35.94000 4.134
35.96000 2.225
35.98000 3.106
36.00000 4.623
36.02000 1.904
36.04000 5.733
36.06000 10.791
36.08000 7.264
36.10000 6.214
36.12000 5.603
36.14000 3.857
36.16000 -0.239
36.18000 -3.491
36.20000 -1.907
36.22000 3.270
36.24000 3.861
36.26000 4.572
36.28000 7.021
36.30000 9.382
36.32000 6.733
36.34000 5.726
36.36000 0.965
36.38000 2.545
36.40000 5.939
36.42000 0.462
36.44000 3.788
36.46000 5.557
36.48000 2.841
36.50000 2.866
36.52000 5.090
36.54000 2.189
36.56000 2.807
36.58000 3.484
36.60000 -2.400
36.62000 1.545
36.64000 4.382
36.66000 3.153
36.68000 0.205
36.70000 1.496
36.72000 5.086
36.74000 6.211
36.76000 5.942
36.78000 5.363
36.80000 4.378
36.82000 2.811
36.84000 6.645
36.86000 3.783
36.88000 4.233
36.90000 5.723
36.92000 5.433
36.94000 3.834
36.96000 4.476
36.98000 3.963
37.00000 5.733
37.02000 5.018
37.04000 3.693
37.06000 -2.439
37.08000 2.847
37.10000 7.250
37.12000 5.394
37.14000 7.003
37.16000 3.929
37.18000 1.352
37.20000 2.587
37.22000 0.929
37.24000 -1.961
37.26000 -3.563
37.28000 -2.492
37.30000 -0.462
37.32000 4.337
37.34000 6.032
37.36000 2.786
37.38000 1.974
37.40000 -2.001
37.42000 0.504
37.44000 4.479
37.46000 0.732
37.48000 1.429
37.50000 -1.532
37.52000 4.873
37.54000 3.802
37.56000 0.929
37.58000 1.100
37.60000 0.622
37.62000 1.594
37.64000 2.660
37.66000 3.727
37.68000 4.163
37.70000 1.977
37.72000 4.319
37.74000 10.843
37.76000 8.945
37.78000 3.274
37.80000 3.069
37.82000 6.674
37.84000 7.872
37.86000 6.178
37.88000 5.163
37.90000 6.985
37.92000 9.055
37.94000 5.634
37.96000 10.678
37.98000 16.188
38.00000 11.033
38.02000 8.950
38.04000 10.923
38.06000 6.958
38.08000 5.570
38.10000 9.112
38.12000 13.834
38.14000 12.847
38.16000 14.707
38.18000 10.766
38.20000 10.020
38.22000 17.172
38.24000 16.055
38.26000 16.410
38.28000 14.930
38.30000 12.186
38.32000 14.291
38.34000 17.314
38.36000 15.069
38.38000 13.608
38.40000 18.783
38.42000 20.398
38.44000 17.216
38.46000 18.403
38.48000 21.323
38.50000 24.203
38.52000 22.649
38.54000 23.020
38.56000 21.274
38.58000 25.146
38.60000 21.766
38.62000 20.103
38.64000 20.101
38.66000 22.962
38.68000 23.176
38.70000 25.154
38.72000 25.355
38.74000 22.060
38.76000 22.797
38.78000 23.512
38.80000 27.333
38.82000 35.925
38.84000 35.150
38.86000 30.571
38.88000 32.965
38.90000 35.069
38.92000 34.891
38.94000 34.132
38.96000 34.410
38.98000 38.717
39.00000 40.835
39.02000 41.413
39.04000 39.899
39.06000 42.935
39.08000 47.875
39.10000 47.262
39.12000 45.852
39.14000 50.511
39.16000 51.863
39.18000 52.111
39.20000 56.987
39.22000 63.435
39.24000 68.636
39.26000 61.343
39.28000 63.738
39.30000 70.355
39.32000 76.029
39.34000 75.072
39.36000 76.843
39.38000 85.940
39.40000 85.465
39.42000 92.270
39.44000 98.495
39.46000 99.763
39.48000 106.183
39.50000 112.929
39.52000 115.261
39.54000 120.828
39.56000 132.666
39.58000 136.248
39.60000 138.224
39.62000 145.971
39.64000 151.670
39.66000 166.235
39.68000 173.131
39.70000 188.070
39.72000 197.285
39.74000 202.056
39.76000 217.889
39.78000 226.572
39.80000 236.187
39.82000 239.195
39.84000 254.475
39.86000 264.492
39.88000 279.687
39.90000 297.175
39.92000 309.997
39.94000 324.519
39.96000 335.278
39.98000 349.466
40.00000 362.053
40.02000 380.865
40.04000 397.778
40.06000 415.254
40.08000 420.438
40.10000 441.137
40.12000 452.466
40.14000 467.262
40.16000 487.216
40.18000 493.982
40.20000 504.873
40.22000 505.693
40.24000 515.747
40.26000 529.956
40.28000 535.873
40.30000 539.931
40.32000 534.365
40.34000 532.378
40.36000 535.625
40.38000 534.405
40.40000 543.127
40.42000 540.439
40.44000 533.183
40.46000 526.059
40.48000 506.695
40.50000 491.090
40.52000 477.031
40.54000 476.234
40.56000 465.066
40.58000 456.048
40.60000 439.942
40.62000 424.032
40.64000 405.561
40.66000 387.211
40.68000 370.215
40.70000 366.395
40.72000 345.680
40.74000 330.407
40.76000 317.990
40.78000 297.509
40.80000 287.806
40.82000 285.656
40.84000 266.367
40.86000 253.540
40.88000 237.469
40.90000 223.804
40.92000 217.232
40.94000 211.036
40.96000 192.542
40.98000 174.578
41.00000 169.069
41.02000 162.694
41.04000 151.706
41.06000 146.050
41.08000 137.753
41.10000 130.822
41.12000 128.376
41.14000 119.160
41.16000 114.745
41.18000 111.643
41.20000 104.577
41.22000 98.391
41.24000 95.446
41.26000 95.674
41.28000 88.587
41.30000 77.435
41.32000 72.017
41.34000 69.084
41.36000 65.923
41.38000 64.229
41.40000 61.136
41.42000 56.127
41.44000 60.720
41.46000 53.682
41.48000 52.988
41.50000 57.476
41.52000 49.144
41.54000 41.989
41.56000 43.981
41.58000 40.770
41.60000 36.437
41.62000 37.002
41.64000 35.901
41.66000 31.728
41.68000 31.290
41.70000 30.202
41.72000 25.446
41.74000 22.983
41.76000 19.556
41.78000 18.949
41.80000 19.371
41.82000 17.430
41.84000 18.801
41.86000 18.502
41.88000 20.126
41.90000 19.363
41.92000 17.156
41.94000 18.315
41.96000 14.695
41.98000 14.713
42.00000 9.404
42.02000 13.262
42.04000 11.133
42.06000 8.736
42.08000 9.965
42.10000 12.376
42.12000 11.544
42.14000 13.593
42.16000 9.347
42.18000 6.641
42.20000 8.190
42.22000 10.992
42.24000 8.289
42.26000 7.108
42.28000 6.159
42.30000 5.524
42.32000 3.860
42.34000 5.773
42.36000 7.526
42.38000 3.835
42.40000 5.328
42.42000 6.237
42.44000 3.433
42.46000 3.735
42.48000 4.412
42.50000 2.982
42.52000 1.514
42.54000 2.574
42.56000 0.437
42.58000 1.388
42.60000 0.140
42.62000 -0.789
42.64000 1.248
42.66000 4.031
42.68000 6.493
42.70000 5.618
42.72000 4.637
42.74000 2.078
42.76000 4.117
42.78000 1.324
42.80000 1.971
42.82000 0.482
42.84000 1.130
42.86000 1.502
42.88000 -1.447
42.90000 -1.513
42.92000 0.850
42.94000 2.215
42.96000 1.246
42.98000 1.550
43.00000 -1.533
43.02000 0.466
43.04000 0.775
43.06000 1.070
43.08000 -2.185
43.10000 -3.348
43.12000 -1.939
43.14000 -3.457
43.16000 -0.762
43.18000 1.429
43.20000 3.239
43.22000 3.881
43.24000 5.369
43.26000 5.549
43.28000 3.984
43.30000 -1.070
43.32000 -1.034
43.34000 -1.387
43.36000 -2.343
43.38000 0.324
43.40000 2.991
43.42000 3.935
43.44000 3.992
43.46000 4.842
43.48000 0.680
43.50000 2.934
43.52000 0.215
43.54000 0.796
43.56000 0.639
43.58000 0.219
43.60000 -0.425
43.62000 -1.453
43.64000 1.048
43.66000 5.933
43.68000 1.593
43.70000 -1.341
43.72000 -1.194
43.74000 0.313
43.76000 1.450
43.78000 2.630
43.80000 -0.237
43.82000 -0.380
43.84000 -1.077
43.86000 -0.864
43.88000 1.377
43.90000 0.053
43.92000 1.257
43.94000 -0.447
43.96000 1.460
43.98000 1.523
44.00000 -0.338
44.02000 -0.506
44.04000 5.059
44.06000 4.081
44.08000 -2.942
44.10000 -2.353
44.12000 -0.606
44.14000 0.787
44.16000 -0.082
44.18000 4.027
44.20000 6.690
44.22000 1.192
44.24000 1.163
44.26000 -1.511
44.28000 -3.355
44.30000 1.339
44.32000 2.299
44.34000 2.338
44.36000 2.542
44.38000 4.713
44.40000 -0.788
44.42000 0.848
44.44000 -0.327
44.46000 1.289
44.48000 3.406
44.50000 2.088
44.52000 4.840
44.54000 4.807
44.56000 2.875
44.58000 0.807
44.60000 -3.348
44.62000 -1.699
44.64000 1.495
44.66000 5.679
44.68000 6.876
44.70000 3.043
44.72000 1.981
44.74000 5.888
44.76000 6.539
44.78000 5.141
44.80000 0.856
44.82000 -3.118
44.84000 -0.230
44.86000 2.982
44.88000 5.075
44.90000 4.381
44.92000 3.836
44.94000 6.524
44.96000 0.134
44.98000 -1.585
45.00000 3.962
45.02000 8.912
45.04000 2.045
45.06000 0.972
45.08000 6.547
45.10000 3.795
45.12000 1.640
45.14000 6.468
45.16000 5.169
45.18000 4.459
45.20000 5.385
45.22000 2.456
45.24000 1.021
45.26000 5.547
45.28000 4.174
45.30000 6.998
45.32000 6.196
45.34000 6.012
45.36000 5.916
45.38000 10.400
45.40000 10.644
45.42000 10.601
45.44000 13.727
45.46000 12.755
45.48000 9.389
45.50000 10.048
45.52000 14.506
45.54000 15.571
45.56000 12.383
45.58000 9.034
45.60000 10.372
45.62000 11.635
45.64000 17.691
45.66000 19.377
45.68000 16.554
45.70000 12.265
45.72000 20.490
45.74000 25.296
45.76000 22.035
45.78000 21.930
45.80000 18.067
45.82000 20.248
45.84000 21.404
45.86000 21.940
45.88000 22.959
45.90000 26.115
45.92000 29.462
45.94000 27.309
45.96000 25.572
45.98000 25.059
46.00000 25.508
46.02000 26.166
46.04000 27.493
46.06000 29.871
46.08000 30.862
46.10000 35.860
46.12000 36.254
46.14000 41.565
46.16000 42.733
46.18000 40.556
46.20000 45.656
46.22000 43.548
46.24000 38.392
46.26000 37.504
46.28000 44.135
46.30000 49.083
46.32000 56.584
46.34000 54.818
46.36000 54.326
46.38000 54.589
46.40000 52.413
46.42000 54.498
46.44000 65.755
46.46000 63.955
46.48000 61.460
46.50000 63.062
46.52000 62.502
46.54000 68.957
46.56000 77.884
46.58000 73.828
46.60000 64.982
46.62000 70.910
46.64000 74.256
46.66000 69.860
46.68000 70.199
46.70000 73.282
46.72000 75.952
46.74000 74.463
46.76000 84.670
46.78000 83.372
46.80000 79.101
46.82000 82.699
46.84000 82.344
46.86000 81.382
46.88000 83.310
46.90000 85.128
46.92000 84.313
46.94000 90.684
46.96000 83.388
46.98000 85.072
47.00000 85.801
47.02000 84.944
47.04000 90.757
47.06000 96.632
47.08000 94.820
47.10000 89.936
47.12000 90.182
47.14000 90.101
47.16000 80.196
47.18000 79.728
47.20000 83.340
47.22000 86.624
47.24000 82.565
47.26000 76.502
47.28000 71.662
47.30000 74.576
47.32000 72.220
47.34000 68.710
47.36000 69.799
47.38000 68.794
47.40000 71.677
47.42000 68.890
47.44000 65.615
47.46000 65.799
47.48000 58.662
47.50000 58.344
47.52000 52.375
47.54000 48.396
47.56000 51.808
47.58000 53.670
47.60000 49.312
47.62000 44.813
47.64000 45.007
47.66000 48.450
47.68000 44.657
47.70000 37.849
47.72000 34.792
47.74000 33.462
47.76000 35.602
47.78000 35.452
47.80000 34.360
47.82000 33.628
47.84000 24.644
47.86000 26.625
47.88000 26.650
47.90000 28.405
47.92000 28.462
47.94000 22.276
47.96000 22.328
47.98000 19.796
48.00000 23.115
48.02000 20.749
48.04000 22.508
48.06000 20.536
48.08000 19.553
48.10000 15.551
48.12000 12.791
48.14000 12.108
48.16000 9.987
48.18000 15.075
48.20000 14.126
48.22000 13.478
48.24000 16.807
48.26000 14.284
48.28000 8.985
48.30000 8.278
48.32000 9.646
48.34000 8.361
48.36000 7.396
48.38000 9.938
48.40000 9.366
48.42000 7.526
48.44000 11.474
48.46000 11.249
48.48000 9.797
48.50000 9.266
48.52000 6.136
48.54000 5.738
48.56000 5.707
48.58000 -0.133
48.60000 2.279
48.62000 8.440
48.64000 6.979
48.66000 3.714
48.68000 4.621
48.70000 7.363
48.72000 10.469
48.74000 5.846
48.76000 2.760
48.78000 1.909
48.80000 2.882
48.82000 7.492
48.84000 5.003
48.86000 1.159
48.88000 7.005
48.90000 5.984
48.92000 0.639
48.94000 4.993
48.96000 5.207
48.98000 5.670
49.00000 2.201
49.02000 -1.381
49.04000 -2.943
49.06000 0.090
49.08000 3.129
49.10000 0.634
49.12000 0.331
49.14000 -1.316
49.16000 -1.322
49.18000 -0.834
49.20000 2.538
49.22000 1.809
49.24000 3.337
49.26000 6.825
49.28000 3.322
49.30000 4.845
49.32000 2.514
49.34000 5.945
49.36000 4.249
49.38000 0.725
49.40000 -2.072
49.42000 0.841
49.44000 2.329
49.46000 4.947
49.48000 6.832
49.50000 4.740
49.52000 0.161
49.54000 2.608
49.56000 6.969
49.58000 5.795
49.60000 2.015
49.62000 4.206
49.64000 2.683
49.66000 1.399
49.68000 3.720
49.70000 0.840
49.72000 3.337
49.74000 0.277
49.76000 0.338
49.78000 5.269
49.80000 7.128
49.82000 7.086
49.84000 5.568
49.86000 4.501
49.88000 1.363
49.90000 3.274
49.92000 1.771
49.94000 -2.231
49.96000 -0.183
49.98000 1.063
50.00000 2.524
50.02000 2.533
50.04000 0.558
50.06000 0.220
50.08000 1.714
50.10000 2.856
50.12000 3.305
50.14000 0.830
50.16000 4.558
50.18000 5.690
50.20000 5.068
50.22000 2.660
50.24000 2.342
50.26000 2.710
50.28000 1.929
50.30000 2.009
50.32000 1.665
50.34000 -0.991
50.36000 -2.806
50.38000 0.135
50.40000 5.773
50.42000 6.603
50.44000 6.163
50.46000 9.064
50.48000 10.405
50.50000 6.459
50.52000 4.145
50.54000 0.109
50.56000 1.259
50.58000 4.983
50.60000 3.116
50.62000 2.460
50.64000 2.812
50.66000 0.971
50.68000 3.400
50.70000 7.834
50.72000 5.403
50.74000 6.247
50.76000 6.159
50.78000 2.686
50.80000 2.099
50.82000 7.104
50.84000 9.026
50.86000 4.607
50.88000 -2.222
50.90000 -2.061
50.92000 -2.775
50.94000 0.857
50.96000 2.349
50.98000 5.198
51.00000 4.299
51.02000 3.123
51.04000 4.650
51.06000 0.285
51.08000 -2.239
51.10000 3.188
51.12000 3.172
51.14000 3.494
51.16000 8.020
51.18000 4.793
51.20000 3.019
51.22000 0.744
51.24000 1.660
51.26000 4.829
51.28000 1.537
51.30000 1.261
51.32000 1.036
51.34000 1.470
51.36000 1.536
51.38000 0.989
51.40000 2.025
51.42000 2.779
51.44000 3.886
51.46000 3.007
51.48000 4.380
51.50000 1.475
51.52000 0.318
51.54000 -1.198
51.56000 -0.100
51.58000 1.170
51.60000 4.609
51.62000 2.283
51.64000 1.583
51.66000 3.179
51.68000 4.076
51.70000 3.732
51.72000 4.099
51.74000 6.354
51.76000 5.028
51.78000 -1.238
51.80000 4.332
51.82000 6.076
51.84000 1.760
51.86000 -0.690
51.88000 2.806
51.90000 3.943
51.92000 3.594
51.94000 5.705
51.96000 0.028
51.98000 -2.752
52.00000 -2.467
52.02000 2.371
52.04000 5.008
52.06000 7.662
52.08000 6.418
52.10000 6.347
52.12000 0.879
52.14000 4.174
52.16000 4.385
52.18000 4.452
52.20000 2.443
52.22000 1.339
52.24000 6.857
52.26000 8.848
52.28000 4.857
52.30000 4.021
52.32000 6.573
52.34000 5.836
52.36000 3.214
52.38000 1.791
52.40000 2.620
52.42000 1.466
52.44000 2.178
52.46000 5.368
52.48000 3.483
52.50000 0.205
52.52000 1.903
52.54000 2.752
52.56000 3.537
52.58000 4.719
52.60000 5.080
52.62000 5.303
52.64000 2.037
52.66000 0.148
52.68000 2.152
52.70000 2.480
52.72000 3.372
52.74000 1.837
52.76000 4.612
52.78000 1.223
52.80000 1.452
52.82000 2.934
52.84000 4.147
52.86000 5.328
52.88000 2.559
52.90000 1.278
52.92000 8.189
52.94000 5.769
52.96000 5.800
52.98000 4.050
53.00000 0.374
53.02000 -0.880
53.04000 -2.681
53.06000 -2.581
53.08000 2.919
53.10000 7.482
53.12000 5.084
53.14000 3.098
53.16000 5.021
53.18000 6.674
53.20000 2.212
53.22000 6.297
53.24000 7.213
53.26000 3.234
53.28000 5.423
53.30000 5.786
53.32000 4.138
53.34000 1.148
53.36000 2.865
53.38000 4.379
53.40000 6.513
53.42000 9.101
53.44000 6.307
53.46000 2.600
53.48000 4.344
53.50000 4.111
53.52000 4.054
53.54000 3.698
53.56000 3.113
53.58000 4.322
53.60000 3.455
53.62000 6.182
53.64000 5.540
53.66000 9.254
53.68000 8.419
53.70000 8.615
53.72000 4.974
53.74000 -1.077
53.76000 1.749
53.78000 2.573
53.80000 4.788
53.82000 2.777
53.84000 3.505
53.86000 0.870
53.88000 -2.202
53.90000 -1.714
53.92000 2.417
53.94000 8.309
53.96000 7.209
53.98000 5.719
54.00000 7.998
54.02000 4.007
54.04000 1.094
54.06000 1.703
54.08000 3.934
54.10000 5.188
54.12000 4.524
54.14000 -0.144
54.16000 -2.648
54.18000 1.108
54.20000 4.402
54.22000 5.767
54.24000 11.636
54.26000 6.035
54.28000 -1.438
54.30000 2.357
54.32000 -1.585
54.34000 1.502
54.36000 2.223
54.38000 0.997
54.40000 -0.244
54.42000 2.287
54.44000 2.595
54.46000 3.547
54.48000 6.014
54.50000 4.425
54.52000 4.211
54.54000 4.135
54.56000 -0.298
54.58000 2.281
54.60000 1.973
54.62000 7.056
54.64000 -0.039
54.66000 3.060
54.68000 -0.352
54.70000 1.613
54.72000 2.159
54.74000 0.271
54.76000 3.936
54.78000 3.081
54.80000 6.562
54.82000 2.974
54.84000 2.880
54.86000 6.394
54.88000 1.564
54.90000 -0.389
54.92000 0.529
54.94000 4.337
54.96000 5.484
54.98000 3.034
55.00000 1.062
55.02000 1.045
55.04000 1.757
55.06000 3.627
55.08000 2.315
55.10000 -0.013
55.12000 -0.405
55.14000 3.712
55.16000 -0.453
55.18000 1.836
55.20000 4.470
55.22000 3.962
55.24000 0.248
55.26000 3.726
55.28000 3.317
55.30000 3.942
55.32000 3.973
55.34000 0.742
55.36000 -1.155
55.38000 -0.505
55.40000 -0.576
55.42000 1.390
55.44000 1.983
55.46000 3.917
55.48000 2.902
55.50000 -1.436
55.52000 0.449
55.54000 2.569
55.56000 1.184
55.58000 2.011
55.60000 0.524
55.62000 -0.251
55.64000 -0.863
55.66000 -0.442
55.68000 1.149
55.70000 0.203
55.72000 3.829
55.74000 -0.666
55.76000 -0.892
55.78000 -2.398
55.80000 -1.332
55.82000 1.393
55.84000 0.092
55.86000 1.305
55.88000 4.356
55.90000 4.745
55.92000 1.171
55.94000 6.671
55.96000 3.184
55.98000 2.890
56.00000 2.517
56.02000 -1.564
56.04000 -2.630
56.06000 0.175
56.08000 2.302
56.10000 6.019
56.12000 -1.649
56.14000 -2.627
56.16000 -0.267
56.18000 4.204
56.20000 -0.548
56.22000 2.828
56.24000 2.076
56.26000 2.737
56.28000 2.862
56.30000 2.776
56.32000 -0.813
56.34000 0.586
56.36000 2.369
56.38000 2.544
56.40000 3.720
56.42000 2.856
56.44000 0.703
56.46000 1.348
56.48000 3.897
56.50000 2.452
56.52000 1.467
56.54000 1.955
56.56000 0.467
56.58000 2.229
56.60000 4.400
56.62000 5.120
56.64000 2.379
56.66000 2.790
56.68000 2.947
56.70000 0.424
56.72000 -0.934
56.74000 -1.569
56.76000 -0.456
56.78000 0.785
56.80000 -1.053
56.82000 2.739
56.84000 3.673
56.86000 6.384
56.88000 8.659
56.90000 6.248
56.92000 8.214
56.94000 2.365
56.96000 1.726
56.98000 0.587
57.00000 3.802
57.02000 2.350
57.04000 3.863
57.06000 5.960
57.08000 2.820
57.10000 2.194
57.12000 2.628
57.14000 2.666
57.16000 1.578
57.18000 2.202
57.20000 1.456
57.22000 1.130
57.24000 4.563
57.26000 7.082
57.28000 5.026
57.30000 1.821
57.32000 -2.554
57.34000 3.308
57.36000 4.945
57.38000 0.988
57.40000 0.747
57.42000 0.470
57.44000 0.185
57.46000 4.906
57.48000 6.505
57.50000 9.290
57.52000 7.831
57.54000 7.595
57.56000 5.299
57.58000 1.663
57.60000 4.626
57.62000 6.823
57.64000 1.174
57.66000 -0.357
57.68000 2.162
57.70000 1.995
57.72000 4.330
57.74000 2.254
57.76000 5.122
57.78000 6.933
57.80000 7.410
57.82000 5.228
57.84000 3.242
57.86000 2.818
57.88000 4.200
57.90000 1.596
57.92000 1.324
57.94000 -1.378
57.96000 3.350
57.98000 5.153
58.00000 2.637
58.02000 4.112
58.04000 6.546
58.06000 2.795
58.08000 -1.305
58.10000 1.735
58.12000 5.744
58.14000 4.423
58.16000 6.170
58.18000 4.319
58.20000 2.728
58.22000 3.435
58.24000 3.334
58.26000 3.921
58.28000 2.185
58.30000 1.618
58.32000 5.628
58.34000 6.097
58.36000 3.637
58.38000 4.172
58.40000 4.097
58.42000 7.744
58.44000 4.381
58.46000 3.352
58.48000 2.519
58.50000 1.391
58.52000 0.760
58.54000 -1.299
58.56000 4.847
58.58000 9.587
58.60000 1.094
58.62000 -2.560
58.64000 0.433
58.66000 4.783
58.68000 2.512
58.70000 3.738
58.72000 -2.135
58.74000 -0.784
58.76000 -1.313
58.78000 4.610
58.80000 4.877
58.82000 6.148
58.84000 2.931
58.86000 1.601
58.88000 2.617
58.90000 3.526
58.92000 -2.554
58.94000 0.405
58.96000 1.569
58.98000 0.865
59.00000 1.430
59.02000 0.528
59.04000 2.233
59.06000 0.156
59.08000 -0.543
59.10000 3.277
59.12000 6.225
59.14000 4.461
59.16000 0.250
59.18000 2.184
59.20000 4.384
59.22000 1.612
59.24000 1.913
59.26000 0.791
59.28000 2.153
59.30000 4.515
59.32000 3.145
59.34000 1.760
59.36000 0.683
59.38000 4.789
59.40000 1.357
59.42000 1.561
59.44000 0.037
59.46000 -0.380
59.48000 -2.535
59.50000 0.922
59.52000 1.103
59.54000 5.236
59.56000 7.330
59.58000 4.205
59.60000 5.691
59.62000 5.665
59.64000 2.811
59.66000 0.104
59.68000 1.991
59.70000 2.108
59.72000 2.137
59.74000 -0.488
59.76000 -1.682
59.78000 2.220
59.80000 2.353
59.82000 -1.192
59.84000 -0.126
59.86000 -2.514
59.88000 -0.932
59.90000 5.115
59.92000 5.524
59.94000 4.668
59.96000 1.816
59.98000 2.173
60.00000 8.005
60.02000 2.497
60.04000 2.076
60.06000 4.216
60.08000 4.623
60.10000 8.383
60.12000 4.717
60.14000 0.939
60.16000 2.975
60.18000 2.107
60.20000 -2.499
60.22000 1.297
60.24000 -1.986
60.26000 -2.382
60.28000 1.451
60.30000 2.402
60.32000 -0.042
60.34000 2.346
60.36000 6.614
60.38000 5.112
60.40000 0.108
60.42000 0.855
60.44000 3.922
60.46000 3.084
60.48000 2.884
60.50000 3.614
60.52000 -0.243
60.54000 2.139
60.56000 3.028
60.58000 4.010
60.60000 4.654
60.62000 0.042
60.64000 -1.291
60.66000 1.889
60.68000 0.099
60.70000 -2.484
60.72000 -2.367
60.74000 2.984
60.76000 2.329
60.78000 3.691
60.80000 4.559
60.82000 2.317
60.84000 2.859
60.86000 6.458
60.88000 1.511
60.90000 2.250
60.92000 3.300
60.94000 3.025
60.96000 2.952
60.98000 4.095
61.00000 3.981
61.02000 3.202
61.04000 2.496
61.06000 0.927
61.08000 3.882
61.10000 5.328
61.12000 5.026
61.14000 4.557
61.16000 3.492
61.18000 -0.388
61.20000 -1.505
61.22000 2.996
61.24000 3.120
61.26000 4.015
61.28000 0.622
61.30000 2.260
61.32000 2.020
61.34000 3.723
61.36000 0.385
61.38000 -2.081
61.40000 -0.388
61.42000 3.381
61.44000 3.398
61.46000 6.947
61.48000 6.193
61.50000 3.841
61.52000 1.229
61.54000 0.397
61.56000 6.715
61.58000 2.702
61.60000 3.554
61.62000 2.093
61.64000 3.295
61.66000 6.097
61.68000 4.017
61.70000 3.080
61.72000 2.683
61.74000 -2.443
61.76000 0.317
61.78000 1.705
61.80000 -0.231
61.82000 -0.580
61.84000 2.612
61.86000 9.207
61.88000 9.633
61.90000 4.350
61.92000 -0.272
61.94000 0.945
61.96000 0.490
61.98000 -1.403
62.00000 4.481
62.02000 2.060
62.04000 2.347
62.06000 4.181
62.08000 0.384
62.10000 -1.333
62.12000 0.211
62.14000 3.258
62.16000 2.225
62.18000 4.053
62.20000 8.246
62.22000 3.336
62.24000 0.989
62.26000 0.322
62.28000 1.260
62.30000 -0.998
62.32000 -0.612
62.34000 4.129
62.36000 -1.472
62.38000 -0.529
62.40000 3.030
62.42000 1.346
62.44000 1.826
62.46000 2.907
62.48000 2.443
62.50000 1.010
62.52000 -1.056
62.54000 1.373
62.56000 3.960
62.58000 2.203
62.60000 1.528
62.62000 3.350
62.64000 4.805
62.66000 4.570
62.68000 4.794
62.70000 1.907
62.72000 3.579
62.74000 3.807
62.76000 1.017
62.78000 -1.278
62.80000 0.255
62.82000 2.592
62.84000 3.508
62.86000 -0.022
62.88000 1.356
62.90000 0.922
62.92000 8.007
62.94000 5.378
62.96000 4.001
62.98000 0.757
63.00000 1.713
63.02000 1.355
63.04000 -0.538
63.06000 -0.399
63.08000 3.206
63.10000 3.812
63.12000 1.976
63.14000 -1.004
63.16000 -2.409
63.18000 2.942
63.20000 7.670
63.22000 4.376
63.24000 3.041
63.26000 3.890
63.28000 4.472
63.30000 5.048
63.32000 -0.683
63.34000 1.192
63.36000 6.015
63.38000 4.387
63.40000 4.311
63.42000 5.383
63.44000 5.425
63.46000 2.922
63.48000 3.957
63.50000 2.635
63.52000 4.203
63.54000 4.389
63.56000 7.670
63.58000 8.329
63.60000 6.623
63.62000 5.374
63.64000 2.837
63.66000 4.969
63.68000 0.907
63.70000 -1.625
63.72000 1.439
63.74000 5.555
63.76000 -0.742
63.78000 -2.429
63.80000 -0.129
63.82000 3.431
63.84000 6.073
63.86000 5.604
63.88000 3.997
63.90000 3.305
63.92000 1.777
63.94000 2.046
63.96000 3.147
63.98000 3.802
64.00000 5.970
64.02000 3.914
64.04000 1.384
64.06000 3.913
64.08000 1.328
64.10000 0.694
64.12000 1.646
64.14000 0.499
64.16000 2.085
64.18000 -0.464
64.20000 0.637
64.22000 2.669
64.24000 1.602
64.26000 1.027
64.28000 3.143
64.30000 4.995
64.32000 0.079
64.34000 0.598
64.36000 3.422
64.38000 2.443
64.40000 3.671
64.42000 2.076
64.44000 2.369
64.46000 1.311
64.48000 0.550
64.50000 1.787
64.52000 3.885
64.54000 2.203
64.56000 3.835
64.58000 3.905
64.60000 -0.843
64.62000 -2.440
64.64000 1.369
64.66000 4.474
64.68000 1.140
64.70000 3.610
64.72000 3.219
64.74000 -0.307
64.76000 -0.071
64.78000 0.794
64.80000 -0.375
64.82000 -1.230
64.84000 1.354
64.86000 3.613
64.88000 5.296
64.90000 -0.103
64.92000 -1.007
64.94000 -0.029
64.96000 0.134
64.98000 5.737
65.00000 4.324
65.02000 -0.708
65.04000 -1.567
65.06000 -1.348
65.08000 0.659
65.10000 4.007
65.12000 1.645
65.14000 -0.139
65.16000 3.393
65.18000 5.340
65.20000 1.473
65.22000 0.150
65.24000 -1.610
65.26000 1.241
65.28000 2.548
65.30000 0.038
65.32000 -0.012
65.34000 -0.328
65.36000 0.620
65.38000 1.585
65.40000 3.015
65.42000 1.389
65.44000 3.434
65.46000 4.653
65.48000 0.678
65.50000 0.122
65.52000 -0.797
65.54000 0.416
65.56000 2.567
65.58000 0.429
65.60000 -1.956
65.62000 -2.465
65.64000 1.554
65.66000 4.596
65.68000 7.736
65.70000 3.883
65.72000 1.259
65.74000 1.017
65.76000 2.904
65.78000 0.719
65.80000 3.182
65.82000 0.888
65.84000 -0.217
65.86000 1.412
65.88000 -0.452
65.90000 -1.928
65.92000 -0.617
65.94000 -0.614
65.96000 2.971
65.98000 3.184
66.00000 0.136
66.02000 -1.224
66.04000 -2.494
66.06000 0.534
66.08000 3.936
66.10000 1.338
66.12000 0.033
66.14000 0.694
66.16000 0.564
66.18000 -1.694
66.20000 0.514
66.22000 -1.696
66.24000 0.656
66.26000 1.455
66.28000 1.526
66.30000 -0.085
66.32000 1.766
66.34000 0.396
66.36000 -2.067
66.38000 1.354
66.40000 2.914
66.42000 2.579
66.44000 -0.785
66.46000 -2.479
66.48000 -1.915
66.50000 -2.513
66.52000 0.129
66.54000 1.741
66.56000 2.798
66.58000 1.477
66.60000 -0.258
66.62000 1.605
66.64000 2.141
66.66000 -0.001
66.68000 -0.771
66.70000 0.487
66.72000 -0.160
66.74000 -1.540
66.76000 0.456
66.78000 -1.471
66.80000 -1.966
66.82000 -0.186
66.84000 -0.892
66.86000 -0.076
66.88000 -0.501
66.90000 0.158
66.92000 0.718
66.94000 0.608
66.96000 1.350
66.98000 1.275
67.00000 2.334
67.02000 1.553
67.04000 -2.555
67.06000 1.042
67.08000 4.923
67.10000 1.783
67.12000 2.479
67.14000 1.388
67.16000 1.912
67.18000 -1.153
67.20000 3.219
67.22000 2.168
67.24000 2.739
67.26000 1.902
67.28000 2.123
67.30000 -0.448
67.32000 -0.438
67.34000 2.387
67.36000 2.843
67.38000 3.753
67.40000 3.374
67.42000 4.188
67.44000 4.002
67.46000 4.406
67.48000 2.026
67.50000 1.395
67.52000 2.796
67.54000 2.592
67.56000 1.880
67.58000 1.990
67.60000 2.303
67.62000 5.678
67.64000 5.769
67.66000 7.490
67.68000 4.150
67.70000 4.770
67.72000 5.158
67.74000 6.518
67.76000 8.580
67.78000 3.915
67.80000 0.824
67.82000 3.026
67.84000 6.456
67.86000 15.270
67.88000 8.781
67.90000 7.735
67.92000 11.542
67.94000 13.136
67.96000 14.627
67.98000 11.515
68.00000 8.150
68.02000 8.128
68.04000 11.668
68.06000 14.268
68.08000 18.377
68.10000 14.270
68.12000 14.349
68.14000 15.718
68.16000 14.937
68.18000 14.694
68.20000 13.722
68.22000 14.197
68.24000 15.536
68.26000 16.701
68.28000 15.514
68.30000 16.454
68.32000 15.045
68.34000 18.654
68.36000 17.988
68.38000 16.061
68.40000 17.569
68.42000 21.889
68.44000 22.130
68.46000 21.022
68.48000 22.527
68.50000 22.767
68.52000 19.170
68.54000 19.567
68.56000 22.565
68.58000 23.213
68.60000 23.965
68.62000 21.515
68.64000 19.468
68.66000 19.795
68.68000 22.261
68.70000 22.086
68.72000 19.515
68.74000 18.315
68.76000 23.472
68.78000 23.572
68.80000 21.167
68.82000 17.181
68.84000 14.805
68.86000 13.986
68.88000 18.315
68.90000 19.457
68.92000 21.041
68.94000 18.574
68.96000 18.191
68.98000 15.767
69.00000 14.138
69.02000 15.085
69.04000 17.942
69.06000 15.538
69.08000 17.097
69.10000 13.665
69.12000 10.946
69.14000 12.248
69.16000 12.490
69.18000 11.009
69.20000 12.492
69.22000 8.288
69.24000 8.163
69.26000 9.818
69.28000 11.235
69.30000 10.910
69.32000 8.518
69.34000 5.469
69.36000 4.784
69.38000 6.749
69.40000 5.936
69.42000 5.867
69.44000 5.530
69.46000 6.280
69.48000 1.847
69.50000 1.489
69.52000 4.461
69.54000 1.329
69.56000 4.472
69.58000 4.127
69.60000 5.082
69.62000 2.628
69.64000 2.410
69.66000 1.296
69.68000 1.562
69.70000 3.840
69.72000 3.270
69.74000 4.782
69.76000 5.079
69.78000 2.272
69.80000 -0.186
69.82000 0.424
69.84000 0.438
69.86000 1.297
69.88000 -2.518
69.90000 -2.422
69.92000 0.268
69.94000 0.321
69.96000 0.616
69.98000 -0.284
70.00000 0.597
70.02000 2.058
70.04000 2.187
70.06000 -2.132
70.08000 -0.445
70.10000 0.360
70.12000 2.134
70.14000 -0.103
70.16000 -1.125
70.18000 0.305
70.20000 -1.946
70.22000 -2.482
70.24000 1.877
70.26000 3.203
70.28000 -0.175
70.30000 -2.170
70.32000 -2.401
70.34000 -0.113
70.36000 3.104
70.38000 3.103
70.40000 1.822
70.42000 3.190
70.44000 1.728
70.46000 2.177
70.48000 -0.138
70.50000 0.340
70.52000 3.789
70.54000 5.024
70.56000 1.994
70.58000 0.796
70.60000 0.376
70.62000 0.543
70.64000 -0.676
70.66000 -2.436
70.68000 -1.125
70.70000 1.736
70.72000 -0.863
70.74000 -2.106
70.76000 2.504
70.78000 -0.843
70.80000 -2.424
70.82000 -0.477
70.84000 1.120
70.86000 4.765
70.88000 2.432
70.90000 3.032
70.92000 6.435
70.94000 2.354
70.96000 -0.100
70.98000 0.300
71.00000 -1.386
71.02000 -1.661
71.04000 -0.106
71.06000 0.217
71.08000 0.306
71.10000 -0.012
71.12000 1.588
71.14000 -0.490
71.16000 0.423
71.18000 0.552
71.20000 -2.386
71.22000 2.224
71.24000 -0.171
71.26000 0.778
71.28000 4.141
71.30000 -0.045
71.32000 0.734
71.34000 0.231
71.36000 -0.356
71.38000 -0.165
71.40000 2.176
71.42000 0.061
71.44000 -2.363
71.46000 -2.317
71.48000 1.043
71.50000 4.794
71.52000 1.927
71.54000 -0.941
71.56000 0.291
71.58000 -0.380
71.60000 -1.339
71.62000 0.767
71.64000 4.211
71.66000 4.295
71.68000 0.866
71.70000 2.330
71.72000 3.592
71.74000 2.027
71.76000 0.351
71.78000 0.392
71.80000 1.571
71.82000 -0.212
71.84000 4.424
71.86000 2.563
71.88000 2.379
71.90000 3.621
71.92000 3.497
71.94000 -0.368
71.96000 3.612
71.98000 4.765
72.00000 3.431
72.02000 0.467
72.04000 -1.626
72.06000 3.083
72.08000 2.234
72.10000 2.529
72.12000 1.820
72.14000 -2.297
72.16000 1.635
72.18000 3.689
72.20000 2.031
72.22000 1.685
72.24000 2.700
72.26000 3.272
72.28000 4.840
72.30000 7.373
72.32000 8.403
72.34000 5.101
72.36000 1.679
72.38000 2.640
72.40000 0.954
72.42000 1.403
72.44000 3.109
72.46000 0.087
72.48000 0.919
72.50000 1.746
72.52000 -0.021
72.54000 2.364
72.56000 1.456
72.58000 2.563
72.60000 0.345
72.62000 1.410
72.64000 1.051
72.66000 1.331
72.68000 2.805
72.70000 1.461
72.72000 4.981
72.74000 1.346
72.76000 2.020
72.78000 2.154
72.80000 -2.289
72.82000 2.178
72.84000 5.630
72.86000 3.892
72.88000 0.748
72.90000 -1.473
72.92000 1.119
72.94000 2.002
72.96000 1.273
72.98000 2.265
73.00000 4.282
73.02000 3.829
73.04000 5.833
73.06000 2.743
73.08000 -1.335
73.10000 -1.296
73.12000 2.503
73.14000 4.937
73.16000 4.596
73.18000 0.489
73.20000 -1.643
73.22000 5.123
73.24000 3.453
73.26000 2.197
73.28000 -0.295
73.30000 1.514
73.32000 0.730
73.34000 -0.053
73.36000 0.019
73.38000 0.102
73.40000 2.737
73.42000 3.501
73.44000 1.616
73.46000 2.707
73.48000 4.676
73.50000 3.283
73.52000 2.820
73.54000 1.140
73.56000 -0.659
73.58000 1.233
73.60000 6.347
73.62000 8.472
73.64000 5.487
73.66000 1.384
73.68000 -0.772
73.70000 0.298
73.72000 2.746
73.74000 1.602
73.76000 2.988
73.78000 0.593
73.80000 -1.801
73.82000 -2.310
73.84000 2.187
73.86000 3.362
73.88000 2.962
73.90000 1.586
73.92000 -0.099
73.94000 3.411
73.96000 2.177
73.98000 -0.043
74.00000 -0.017
74.02000 1.028
74.04000 0.148
74.06000 1.303
74.08000 1.924
74.10000 -1.120
74.12000 0.112
74.14000 0.174
74.16000 3.630
74.18000 4.917
74.20000 2.007
74.22000 -1.002
74.24000 -0.251
74.26000 -0.028
74.28000 1.175
74.30000 3.425
74.32000 3.141
74.34000 2.661
74.36000 -0.511
74.38000 1.468
74.40000 2.742
74.42000 -0.271
74.44000 -2.020
74.46000 0.132
74.48000 2.073
74.50000 1.812
74.52000 2.094
74.54000 5.750
74.56000 3.201
74.58000 0.388
74.60000 -2.276
74.62000 -1.826
74.64000 0.938
74.66000 -0.234
74.68000 1.350
74.70000 2.735
74.72000 2.616
74.74000 -1.241
74.76000 -1.355
74.78000 2.286
74.80000 -2.276
74.82000 -0.970
74.84000 -0.108
74.86000 0.203
74.88000 2.397
74.90000 6.396
74.92000 3.162
74.94000 1.352
74.96000 0.126
74.98000 1.522
75.00000 3.290
75.02000 2.538
75.04000 6.430
75.06000 1.139
75.08000 4.227
75.10000 8.236
75.12000 8.628
75.14000 2.037
75.16000 1.433
75.18000 1.322
75.20000 1.785
75.22000 1.310
75.24000 -1.215
75.26000 2.340
75.28000 1.324
75.30000 0.348
75.32000 2.981
75.34000 0.558
75.36000 -0.086
75.38000 3.252
75.40000 4.719
75.42000 -1.245
75.44000 3.169
75.46000 3.177
75.48000 0.303
75.50000 3.172
75.52000 6.829
75.54000 6.243
75.56000 3.913
75.58000 1.284
75.60000 1.721
75.62000 2.477
75.64000 0.571
75.66000 0.273
75.68000 1.509
75.70000 2.296
75.72000 -1.417
75.74000 -0.107
75.76000 2.203
75.78000 6.077
75.80000 3.650
75.82000 -2.010
75.84000 -2.256
75.86000 -0.726
75.88000 4.554
75.90000 7.039
75.92000 6.377
75.94000 2.950
75.96000 3.178
75.98000 6.353
76.00000 3.715
76.02000 1.338
76.04000 0.854
76.06000 -1.334
76.08000 4.050
76.10000 4.415
76.12000 -0.968
76.14000 1.044
76.16000 4.590
76.18000 3.713
76.20000 -0.314
76.22000 1.400
76.24000 1.205
76.26000 3.610
76.28000 5.202
76.30000 6.145
76.32000 1.450
76.34000 2.593
76.36000 3.585
76.38000 5.877
76.40000 5.481
76.42000 2.794
76.44000 1.399
76.46000 1.330
76.48000 1.617
76.50000 -0.299
76.52000 -0.476
76.54000 -0.046
76.56000 3.425
76.58000 1.584
76.60000 1.823
76.62000 0.104
76.64000 0.788
76.66000 2.282
76.68000 -0.562
76.70000 2.073
76.72000 1.506
76.74000 1.229
76.76000 -0.772
76.78000 1.839
76.80000 5.749
76.82000 3.239
76.84000 2.276
76.86000 -0.040
76.88000 0.078
76.90000 -0.653
76.92000 2.418
76.94000 1.762
76.96000 -0.031
76.98000 5.470
77.00000 6.321
77.02000 1.396
77.04000 4.728
77.06000 7.757
77.08000 4.246
77.10000 2.790
77.12000 0.416
77.14000 -1.066
77.16000 1.471
77.18000 3.175
77.20000 3.547
77.22000 3.879
77.24000 2.422
77.26000 -0.819
77.28000 -0.498
77.30000 0.861
77.32000 2.135
77.34000 1.960
77.36000 -2.283
77.38000 1.061
77.40000 4.672
77.42000 1.382
77.44000 1.140
77.46000 6.182
77.48000 2.985
77.50000 2.877
77.52000 9.122
77.54000 4.656
77.56000 3.927
77.58000 3.207
77.60000 -0.022
77.62000 2.064
77.64000 -1.659
77.66000 4.791
77.68000 7.284
77.70000 2.826
77.72000 2.841
77.74000 3.059
77.76000 4.195
77.78000 0.278
77.80000 0.620
77.82000 2.299
77.84000 -1.922
77.86000 0.439
77.88000 -1.520
77.90000 2.132
77.92000 7.396
77.94000 5.648
77.96000 0.694
77.98000 4.006
78.00000 6.754
78.02000 6.825
78.04000 3.820
78.06000 1.394
78.08000 0.071
78.10000 2.273
78.12000 0.600
78.14000 0.242
78.16000 3.096
78.18000 2.932
78.20000 2.037
78.22000 1.711
78.24000 0.847
78.26000 4.728
78.28000 0.881
78.30000 0.770
78.32000 2.429
78.34000 4.170
78.36000 1.734
78.38000 0.101
78.40000 3.390
78.42000 4.006
78.44000 -0.326
78.46000 -0.879
78.48000 1.632
78.50000 3.300
78.52000 4.446
78.54000 6.254
78.56000 3.518
78.58000 6.538
78.60000 1.800
78.62000 3.992
78.64000 0.275
78.66000 1.534
78.68000 -0.636
78.70000 -2.314
78.72000 -0.424
78.74000 3.721
78.76000 3.287
78.78000 5.594
78.80000 3.078
78.82000 -0.909
78.84000 -0.029
78.86000 -0.307
78.88000 -0.428
78.90000 -0.084
78.92000 1.686
78.94000 0.808
78.96000 3.232
78.98000 4.775
79.00000 4.334
79.02000 3.837
79.04000 0.635
79.06000 2.752
79.08000 -0.935
79.10000 -2.092
79.12000 1.792
79.14000 0.021
79.16000 1.815
79.18000 4.164
79.20000 4.752
79.22000 5.034
79.24000 2.294
79.26000 1.254
79.28000 5.096
79.30000 3.962
79.32000 3.512
79.34000 4.373
79.36000 2.390
79.38000 -0.601
79.40000 -2.322
79.42000 2.057
79.44000 7.533
79.46000 6.624
79.48000 3.696
79.50000 1.796
79.52000 4.956
79.54000 3.238
79.56000 0.803
79.58000 5.305
79.60000 5.205
79.62000 1.973
79.64000 3.916
79.66000 -2.318
79.68000 -1.764
79.70000 6.249
79.72000 4.336
79.74000 -0.527
79.76000 0.149
79.78000 1.850
79.80000 5.375
79.82000 3.779
79.84000 4.012
79.86000 4.542
79.88000 2.437
79.90000 2.720
79.92000 4.108
79.94000 3.205
79.96000 -0.130
79.98000 1.976
80.00000 0.122
80.02000 1.722
80.04000 1.691
80.06000 0.703
80.08000 2.523
80.10000 6.148
80.12000 7.932
80.14000 6.078
80.16000 8.904
80.18000 6.754
80.20000 7.360
80.22000 4.961
80.24000 3.157
80.26000 1.635
80.28000 -1.519
80.30000 -0.475
80.32000 -2.362
80.34000 1.477
80.36000 1.212
80.38000 3.183
80.40000 5.365
80.42000 3.442
80.44000 4.139
80.46000 3.866
80.48000 5.091
80.50000 3.295
80.52000 4.226
80.54000 4.038
80.56000 0.498
80.58000 -2.399
80.60000 -0.958
80.62000 -1.901
80.64000 1.067
80.66000 4.291
80.68000 4.020
80.70000 2.348
80.72000 2.743
80.74000 0.394
80.76000 0.430
80.78000 0.946
80.80000 1.803
80.82000 2.771
80.84000 -1.220
80.86000 3.943
80.88000 6.029
80.90000 -0.796
80.92000 -0.972
80.94000 -1.300
80.96000 0.057
80.98000 1.157
81.00000 6.076
81.02000 2.344
81.04000 3.118
81.06000 4.425
81.08000 2.825
81.10000 1.772
81.12000 3.480
81.14000 2.236
81.16000 2.322
81.18000 3.650
81.20000 0.233
81.22000 3.517
81.24000 7.760
81.26000 6.631
81.28000 7.689
81.30000 3.822
81.32000 4.650
81.34000 8.153
81.36000 9.064
81.38000 4.322
81.40000 6.706
81.42000 6.308
81.44000 2.625
81.46000 2.461
81.48000 8.118
81.50000 5.714
81.52000 6.032
81.54000 7.270
81.56000 6.484
81.58000 5.406
81.60000 6.025
81.62000 9.970
81.64000 8.747
81.66000 2.877
81.68000 4.404
81.70000 5.853
81.72000 7.024
81.74000 8.619
81.76000 10.497
81.78000 14.210
81.80000 12.917
81.82000 11.674
81.84000 12.250
81.86000 9.555
81.88000 13.386
81.90000 12.992
81.92000 14.526
81.94000 9.100
81.96000 13.716
81.98000 14.630
82.00000 15.043
82.02000 18.495
82.04000 17.979
82.06000 13.268
82.08000 16.086
82.10000 17.695
82.12000 22.701
82.14000 16.441
82.16000 12.391
82.18000 12.718
82.20000 18.404
82.22000 20.941
82.24000 19.798
82.26000 22.428
82.28000 21.439
82.30000 23.526
82.32000 23.138
82.34000 18.900
82.36000 19.541
82.38000 22.269
82.40000 22.179
82.42000 25.412
82.44000 25.463
82.46000 24.436
82.48000 23.821
82.50000 31.074
82.52000 25.742
82.54000 24.017
82.56000 23.529
82.58000 22.761
82.60000 22.738
82.62000 21.325
82.64000 25.297
82.66000 27.972
82.68000 29.688
82.70000 28.122
82.72000 28.588
82.74000 27.469
82.76000 23.901
82.78000 29.324
82.80000 26.811
82.82000 29.196
82.84000 31.209
82.86000 31.347
82.88000 31.226
82.90000 25.144
82.92000 25.714
82.94000 28.064
82.96000 31.547
82.98000 35.244
83.00000 28.381
83.02000 22.808
83.04000 28.069
83.06000 22.181
83.08000 23.098
83.10000 25.881
83.12000 26.176
83.14000 25.582
83.16000 25.074
83.18000 21.082
83.20000 24.134
83.22000 26.995
83.24000 27.059
83.26000 26.533
83.28000 21.031
83.30000 20.132
83.32000 18.345
83.34000 18.171
83.36000 24.418
83.38000 21.567
83.40000 18.663
83.42000 18.817
83.44000 17.917
83.46000 21.146
83.48000 18.083
83.50000 16.979
83.52000 18.287
83.54000 16.878
83.56000 16.936
83.58000 17.636
83.60000 16.685
83.62000 11.568
83.64000 14.022
83.66000 13.136
83.68000 11.275
83.70000 12.581
83.72000 13.121
83.74000 9.010
83.76000 13.033
83.78000 9.139
83.80000 7.383
83.82000 9.347
83.84000 13.826
83.86000 10.721
83.88000 8.382
83.90000 7.194
83.92000 7.345
83.94000 5.480
83.96000 15.019
83.98000 16.018
84.00000 9.756
84.02000 7.656
84.04000 6.288
84.06000 5.606
84.08000 3.090
84.10000 -0.221
84.12000 0.167
84.14000 4.775
84.16000 4.319
84.18000 2.331
84.20000 0.180
84.22000 -0.074
84.24000 1.030
84.26000 2.840
84.28000 4.345
84.30000 5.424
84.32000 6.075
84.34000 7.522
84.36000 6.272
84.38000 0.974
84.40000 1.636
84.42000 -0.666
84.44000 1.796
84.46000 5.296
84.48000 4.042
84.50000 6.169
84.52000 5.257
84.54000 2.784
84.56000 4.381
84.58000 5.976
84.60000 1.765
84.62000 3.680
84.64000 0.813
84.66000 2.191
84.68000 7.297
84.70000 3.023
84.72000 1.906
84.74000 6.122
84.76000 8.338
84.78000 1.673
84.80000 -2.383
84.82000 -0.235
84.84000 -0.961
84.86000 -1.988
84.88000 -2.373
84.90000 1.723
84.92000 1.247
84.94000 0.336
84.96000 3.098
84.98000 2.435
85.00000 3.764
85.02000 1.963
85.04000 2.392
85.06000 5.549
85.08000 0.386
85.10000 1.651
85.12000 3.990
85.14000 5.014
85.16000 2.468
85.18000 5.422
85.20000 2.087
85.22000 2.941
85.24000 2.833
85.26000 3.124
85.28000 2.031
85.30000 0.697
85.32000 1.204
85.34000 -0.049
85.36000 0.548
85.38000 2.061
85.40000 0.946
85.42000 1.515
85.44000 3.192
85.46000 4.043
85.48000 7.425
85.50000 5.218
85.52000 -2.317
85.54000 0.871
85.56000 3.865
85.58000 6.422
85.60000 8.206
85.62000 6.205
85.64000 2.468
85.66000 2.273
85.68000 -1.499
85.70000 0.516
85.72000 3.342
85.74000 4.741
85.76000 1.834
85.78000 0.292
85.80000 2.420
85.82000 0.915
85.84000 0.925
85.86000 3.004
85.88000 4.445
85.90000 4.122
85.92000 4.368
85.94000 3.418
85.96000 4.160
85.98000 3.517
86.00000 1.884
86.02000 1.779
86.04000 -0.609
86.06000 0.693
86.08000 2.380
86.10000 4.620
86.12000 4.657
86.14000 2.865
86.16000 1.733
86.18000 2.054
86.20000 4.915
86.22000 3.008
86.24000 0.425
86.26000 3.148
86.28000 3.701
86.30000 3.572
86.32000 6.155
86.34000 4.045
86.36000 10.529
86.38000 4.953
86.40000 2.664
86.42000 4.022
86.44000 3.287
86.46000 9.497
86.48000 8.620
86.50000 6.879
86.52000 7.646
86.54000 6.815
86.56000 11.360
86.58000 9.126
86.60000 8.660
86.62000 8.769
86.64000 8.760
86.66000 4.513
86.68000 8.051
86.70000 15.605
86.72000 18.092
86.74000 12.515
86.76000 10.999
86.78000 14.165
86.80000 9.900
86.82000 12.158
86.84000 13.737
86.86000 14.566
86.88000 12.974
86.90000 15.704
86.92000 12.425
86.94000 17.721
86.96000 19.211
86.98000 19.626
87.00000 15.905
87.02000 13.401
87.04000 13.891
87.06000 12.996
87.08000 13.198
87.10000 15.000
87.12000 18.613
87.14000 19.633
87.16000 19.364
87.18000 12.575
87.20000 15.411
87.22000 21.506
87.24000 17.691
87.26000 15.686
87.28000 14.854
87.30000 13.727
87.32000 19.128
87.34000 17.452
87.36000 14.640
87.38000 19.613
87.40000 21.194
87.42000 22.737
87.44000 17.673
87.46000 15.074
87.48000 17.283
87.50000 18.366
87.52000 16.702
87.54000 18.756
87.56000 14.918
87.58000 12.533
87.60000 14.178
87.62000 19.287
87.64000 17.479
87.66000 11.924
87.68000 12.774
87.70000 13.821
87.72000 8.605
87.74000 7.768
87.76000 10.389
87.78000 11.282
87.80000 14.750
87.82000 12.643
87.84000 9.375
87.86000 9.978
87.88000 10.901
87.90000 7.009
87.92000 7.493
87.94000 10.368
87.96000 12.377
87.98000 10.787
88.00000 11.822
88.02000 8.324
88.04000 8.801
88.06000 9.618
88.08000 11.014
88.10000 13.751
88.12000 14.055
88.14000 10.218
88.16000 9.922
88.18000 9.977
88.20000 13.646
88.22000 9.168
88.24000 4.338
88.26000 9.271
88.28000 7.428
88.30000 5.439
88.32000 0.090
88.34000 1.885
88.36000 3.976
88.38000 1.634
88.40000 6.187
88.42000 3.873
88.44000 3.425
88.46000 3.055
88.48000 2.121
88.50000 3.113
88.52000 7.725
88.54000 4.726
88.56000 3.602
88.58000 1.892
88.60000 1.488
88.62000 2.993
88.64000 3.939
88.66000 6.336
88.68000 8.957
88.70000 4.090
88.72000 5.277
88.74000 0.134
88.76000 -0.492
88.78000 -0.098
88.80000 0.465
88.82000 -0.237
88.84000 0.957
88.86000 3.573
88.88000 9.876
88.90000 10.248
88.92000 4.997
88.94000 3.939
88.96000 3.215
88.98000 1.770
89.00000 3.445
89.02000 6.242
89.04000 7.616
89.06000 3.311
89.08000 0.723
89.10000 7.084
89.12000 3.745
89.14000 -2.149
89.16000 2.291
89.18000 3.427
89.20000 7.037
89.22000 6.970
89.24000 7.735
89.26000 4.588
89.28000 4.443
89.30000 3.322
89.32000 7.700
89.34000 1.174
89.36000 4.737
89.38000 6.764
89.40000 2.638
89.42000 0.108
89.44000 2.149
89.46000 6.643
89.48000 2.242
89.50000 2.662
89.52000 4.157
89.54000 2.566
89.56000 4.667
89.58000 6.227
89.60000 5.520
89.62000 5.172
89.64000 3.274
89.66000 0.981
89.68000 6.207
89.70000 8.820
89.72000 8.090
89.74000 6.478
89.76000 8.736
89.78000 5.267
89.80000 5.126
89.82000 7.634
89.84000 4.306
89.86000 6.248
89.88000 3.957
89.90000 -0.943
89.92000 -0.760
89.94000 -1.297
89.96000 -2.135
89.98000 1.317
90.00000 4.467
90.02000 2.904
90.04000 3.215
90.06000 6.836
90.08000 5.481
90.10000 4.891
90.12000 4.164
90.14000 3.415
90.16000 5.985
90.18000 2.251
90.20000 3.539
90.22000 -0.149
90.24000 3.055
90.26000 4.477
90.28000 4.945
90.30000 4.177
90.32000 1.733
90.34000 5.952
90.36000 4.428
90.38000 0.779
90.40000 0.614
90.42000 0.604
90.44000 -0.818
90.46000 2.684
90.48000 2.306
90.50000 3.250
90.52000 4.678
90.54000 5.868
90.56000 8.577
90.58000 7.850
90.60000 5.029
90.62000 -0.179
90.64000 -0.375
90.66000 1.286
90.68000 -0.059
90.70000 1.800
90.72000 3.242
90.74000 2.208
90.76000 -0.029
90.78000 4.600
90.80000 3.571
90.82000 -0.621
90.84000 -1.759
90.86000 0.772
90.88000 3.581
90.90000 3.486
90.92000 2.292
90.94000 3.198
90.96000 2.654
90.98000 4.196
91.00000 -1.187
91.02000 -1.334
91.04000 -0.805
91.06000 1.623
91.08000 3.469
91.10000 7.012
91.12000 5.378
91.14000 3.873
91.16000 6.869
91.18000 5.850
91.20000 0.639
91.22000 4.818
91.24000 6.895
91.26000 2.859
91.28000 2.152
91.30000 4.163
91.32000 9.504
91.34000 5.793
91.36000 5.979
91.38000 8.802
91.40000 7.751
91.42000 2.863
91.44000 2.869
91.46000 8.070
91.48000 7.523
91.50000 9.468
91.52000 1.228
91.54000 -2.078
91.56000 3.836
91.58000 5.210
91.60000 3.934
91.62000 1.215
91.64000 -0.806
91.66000 -0.211
91.68000 -0.436
91.70000 3.005
91.72000 5.790
91.74000 6.581
91.76000 11.580
91.78000 5.711
91.80000 7.088
91.82000 9.503
91.84000 6.024
91.86000 10.774
91.88000 10.619
91.90000 7.052
91.92000 4.535
91.94000 3.850
91.96000 4.899
91.98000 3.242
92.00000 2.828
92.02000 7.332
92.04000 3.986
92.06000 6.871
92.08000 5.532
92.10000 2.113
92.12000 5.987
92.14000 5.041
92.16000 7.325
92.18000 8.117
92.20000 2.016
92.22000 4.006
92.24000 2.563
92.26000 1.855
92.28000 1.078
92.30000 -0.888
92.32000 -0.011
92.34000 2.659
92.36000 4.041
92.38000 7.468
92.40000 2.141
92.42000 2.032
92.44000 1.824
92.46000 4.313
92.48000 7.576
92.50000 7.598
92.52000 1.542
92.54000 6.482
92.56000 4.990
92.58000 3.378
92.60000 0.463
92.62000 -2.148
92.64000 0.185
92.66000 1.976
92.68000 2.223
92.70000 -0.721
92.72000 -0.822
92.74000 3.922
92.76000 7.804
92.78000 5.520
92.80000 2.178
92.82000 2.783
92.84000 5.710
92.86000 6.571
92.88000 2.746
92.90000 3.819
92.92000 4.650
92.94000 3.861
92.96000 -0.111
92.98000 -0.912
93.00000 2.362
93.02000 1.985
93.04000 0.315
93.06000 0.617
93.08000 -0.760
93.10000 3.475
93.12000 4.278
93.14000 2.571
93.16000 4.027
93.18000 3.947
93.20000 0.667
93.22000 -0.063
93.24000 4.042
93.26000 4.623
93.28000 1.231
93.30000 0.726
93.32000 1.996
93.34000 2.401
93.36000 5.530
93.38000 2.624
93.40000 2.857
93.42000 4.458
93.44000 0.989
93.46000 0.929
93.48000 3.208
93.50000 3.197
93.52000 2.890
93.54000 2.876
93.56000 1.692
93.58000 -2.162
93.60000 2.171
93.62000 1.074
93.64000 5.996
93.66000 6.313
93.68000 7.015
93.70000 7.281
93.72000 4.365
93.74000 2.486
93.76000 2.674
93.78000 1.059
93.80000 -1.562
93.82000 3.840
93.84000 6.698
93.86000 6.859
93.88000 5.398
93.90000 3.334
93.92000 1.038
93.94000 4.425
93.96000 5.893
93.98000 1.611
94.00000 0.529
94.02000 0.316
94.04000 -2.169
94.06000 1.512
94.08000 1.545
94.10000 3.092
94.12000 6.377
94.14000 5.307
94.16000 3.079
94.18000 3.396
94.20000 2.364
94.22000 5.449
94.24000 3.340
94.26000 3.160
94.28000 4.708
94.30000 5.950
94.32000 3.768
94.34000 5.671
94.36000 8.393
94.38000 0.086
94.40000 0.443
94.42000 0.907
94.44000 0.239
94.46000 2.018
94.48000 5.063
94.50000 2.433
94.52000 0.337
94.54000 -1.153
94.56000 -1.710
94.58000 2.561
94.60000 6.629
94.62000 4.065
94.64000 1.919
94.66000 2.671
94.68000 4.818
94.70000 2.595
94.72000 6.554
94.74000 7.687
94.76000 6.827
94.78000 2.034
94.80000 4.632
94.82000 5.119
94.84000 2.891
94.86000 0.226
94.88000 -0.360
94.90000 4.439
94.92000 7.827
94.94000 0.299
94.96000 0.120
94.98000 5.144
95.00000 4.467
95.02000 4.446
95.04000 1.558
95.06000 -0.152
95.08000 1.454
95.10000 7.012
95.12000 8.943
95.14000 2.288
95.16000 2.420
95.18000 3.563
95.20000 8.422
95.22000 4.574
95.24000 -0.386
95.26000 3.602
95.28000 3.494
95.30000 2.433
95.32000 4.894
95.34000 -0.484
95.36000 0.003
95.38000 1.494
95.40000 3.237
95.42000 -0.154
95.44000 3.168
95.46000 2.216
95.48000 2.292
95.50000 7.302
95.52000 8.925
95.54000 6.168
95.56000 4.087
95.58000 3.673
95.60000 3.470
95.62000 3.133
95.64000 3.418
95.66000 2.811
95.68000 1.631
95.70000 1.352
95.72000 0.969
95.74000 3.028
95.76000 3.012
95.78000 0.075
95.80000 -2.142
95.82000 3.840
95.84000 9.952
95.86000 2.886
95.88000 -0.192
95.90000 5.792
95.92000 7.978
95.94000 5.771
95.96000 5.033
95.98000 6.830
96.00000 6.008
96.02000 8.907
96.04000 11.420
96.06000 5.042
96.08000 0.913
96.10000 5.203
96.12000 7.802
96.14000 4.599
96.16000 3.950
96.18000 2.531
96.20000 4.710
96.22000 4.556
96.24000 4.270
96.26000 5.647
96.28000 9.886
96.30000 2.093
96.32000 -1.008
96.34000 4.572
96.36000 5.834
96.38000 4.814
96.40000 8.718
96.42000 4.365
96.44000 3.201
96.46000 5.415
96.48000 6.772
96.50000 4.196
96.52000 4.575
96.54000 3.108
96.56000 6.504
96.58000 3.399
96.60000 -1.081
96.62000 2.106
96.64000 3.731
96.66000 5.244
96.68000 5.649
96.70000 5.804
96.72000 0.538
96.74000 9.479
96.76000 5.339
96.78000 1.897
96.80000 1.537
96.82000 1.335
96.84000 2.643
96.86000 6.486
96.88000 2.264
96.90000 5.281
96.92000 -0.839
96.94000 0.971
96.96000 4.752
96.98000 5.352
97.00000 3.733
97.02000 2.343
97.04000 5.932
97.06000 9.466
97.08000 8.222
97.10000 3.620
97.12000 2.745
97.14000 3.345
97.16000 5.644
97.18000 6.023
97.20000 1.272
97.22000 1.620
97.24000 2.123
97.26000 1.885
97.28000 7.371
97.30000 6.199
97.32000 -1.322
97.34000 2.563
97.36000 7.174
97.38000 5.221
97.40000 -0.337
97.42000 4.853
97.44000 -0.630
97.46000 1.092
97.48000 4.101
97.50000 5.506
97.52000 4.132
97.54000 1.718
97.56000 6.913
97.58000 5.116
97.60000 4.438
97.62000 1.437
97.64000 4.442
97.66000 7.717
97.68000 14.814
97.70000 6.564
97.72000 0.175
97.74000 -2.134
97.76000 4.857
97.78000 10.715
97.80000 4.364
97.82000 4.239
97.84000 3.707
97.86000 2.965
97.88000 4.169
97.90000 10.301
97.92000 5.610
97.94000 8.148
97.96000 5.632
97.98000 7.579
98.00000 2.511
98.02000 8.031
98.04000 10.253
98.06000 10.001
98.08000 7.691
98.10000 6.643
98.12000 4.255
98.14000 -1.899
98.16000 -2.073
98.18000 3.599
98.20000 2.687
98.22000 -2.091
98.24000 4.406
98.26000 7.019
98.28000 2.036
98.30000 1.250
98.32000 1.343
98.34000 -0.365
98.36000 6.660
98.38000 7.487
98.40000 9.279
98.42000 4.458
98.44000 6.154
98.46000 1.359
98.48000 6.416
98.50000 0.166
98.52000 -0.320
98.54000 2.044
98.56000 1.226
98.58000 7.257
98.60000 2.424
98.62000 6.595
98.64000 10.603
98.66000 8.145
98.68000 14.161
98.70000 2.529
98.72000 0.800
98.74000 5.131
98.76000 8.342
98.78000 10.268
98.80000 2.615
98.82000 3.835
98.84000 2.002
98.86000 5.398
98.88000 8.288
98.90000 6.214
98.92000 3.738
98.94000 6.989
98.96000 9.164
98.98000 9.164
99.00000 6.378
99.02000 8.275
99.04000 9.232
99.06000 10.623
99.08000 5.800
99.10000 5.964
99.12000 14.739
99.14000 9.906
99.16000 11.823
99.18000 6.347
99.20000 -4.623
99.22000 4.428
99.24000 6.517
99.26000 9.605
99.28000 2.970
99.30000 1.944
99.32000 5.497
99.34000 -1.469
99.36000 4.532
99.38000 4.475
99.40000 7.901
99.42000 1.812
99.44000 6.357
99.46000 3.157
99.48000 0.724
99.50000 -1.149
99.52000 -1.223
99.54000 0.210
99.56000 6.218
99.58000 4.476
99.60000 5.202
99.62000 7.558
99.64000 5.567
99.66000 4.521
99.68000 10.058
99.70000 4.622
99.72000 6.591
99.74000 -0.923
99.76000 6.300
99.78000 9.722
99.80000 7.613
99.82000 11.805
99.84000 14.173
99.86000 5.925
99.88000 4.605
99.90000 -2.126
99.92000 1.352
99.94000 5.139
99.96000 8.387
99.98000 0.000
