'Id: "0011387" Comment: "Integrate frame 0011387_Au-Ir-Rh_Rh-rich_XRD-Mapping-228-0000.gfrmwith cursor Wedge Cursor #5" Operator: "B?rgel" Anode: "Cu" Wavelength: "1.5406" Scantype: "2Theta (TwoTheta)" TimePerStep: "1" X: "-9" Y: "13.5" Z: "5.95" 
10.00000 0.000
10.02000 4.036
10.04000 18.764
10.06000 -4.987
10.08000 2.866
10.10000 21.502
10.12000 12.814
10.14000 7.629
10.16000 8.641
10.18000 10.641
10.20000 23.740
10.22000 37.411
10.24000 32.482
10.26000 18.251
10.28000 21.524
10.30000 29.178
10.32000 24.170
10.34000 15.376
10.36000 15.944
10.38000 10.396
10.40000 13.706
10.42000 22.035
10.44000 28.755
10.46000 22.906
10.48000 26.805
10.50000 17.669
10.52000 7.241
10.54000 4.800
10.56000 26.284
10.58000 30.720
10.60000 37.275
10.62000 39.172
10.64000 31.732
10.66000 28.201
10.68000 9.178
10.70000 5.621
10.72000 14.362
10.74000 32.792
10.76000 32.244
10.78000 11.533
10.80000 21.216
10.82000 15.939
10.84000 19.770
10.86000 20.627
10.88000 21.899
10.90000 18.476
10.92000 15.459
10.94000 20.914
10.96000 25.170
10.98000 18.926
11.00000 11.716
11.02000 21.935
11.04000 20.475
11.06000 15.341
11.08000 18.923
11.10000 21.556
11.12000 13.861
11.14000 2.563
11.16000 15.557
11.18000 15.739
11.20000 16.133
11.22000 19.240
11.24000 29.302
11.26000 26.005
11.28000 17.047
11.30000 23.671
11.32000 17.137
11.34000 -5.011
11.36000 3.735
11.38000 24.535
11.40000 28.520
11.42000 12.922
11.44000 7.189
11.46000 4.669
11.48000 22.076
11.50000 28.872
11.52000 20.886
11.54000 21.370
11.56000 12.554
11.58000 30.126
11.60000 31.280
11.62000 24.762
11.64000 19.311
11.66000 15.665
11.68000 23.153
11.70000 27.534
11.72000 20.154
11.74000 11.385
11.76000 11.154
11.78000 8.152
11.80000 10.031
11.82000 20.144
11.84000 24.496
11.86000 31.768
11.88000 25.277
11.90000 18.639
11.92000 29.526
11.94000 19.717
11.96000 16.764
11.98000 19.757
12.00000 19.040
12.02000 17.081
12.04000 20.904
12.06000 24.467
12.08000 19.817
12.10000 11.259
12.12000 13.923
12.14000 16.006
12.16000 17.799
12.18000 22.140
12.20000 16.227
12.22000 13.539
12.24000 14.646
12.26000 9.027
12.28000 9.777
12.30000 12.061
12.32000 15.096
12.34000 12.545
12.36000 14.452
12.38000 11.008
12.40000 13.761
12.42000 10.755
12.44000 15.111
12.46000 15.508
12.48000 24.891
12.50000 26.832
12.52000 17.205
12.54000 9.149
12.56000 18.579
12.58000 15.562
12.60000 17.678
12.62000 16.903
12.64000 17.862
12.66000 21.977
12.68000 9.989
12.70000 22.776
12.72000 24.427
12.74000 19.792
12.76000 16.413
12.78000 19.099
12.80000 15.058
12.82000 9.428
12.84000 15.013
12.86000 20.503
12.88000 26.159
12.90000 26.393
12.92000 25.498
12.94000 13.645
12.96000 1.344
12.98000 9.515
13.00000 6.639
13.02000 8.085
13.04000 10.988
13.06000 8.574
13.08000 12.347
13.10000 15.182
13.12000 2.471
13.14000 15.741
13.16000 15.081
13.18000 8.601
13.20000 10.711
13.22000 23.995
13.24000 19.596
13.26000 12.812
13.28000 11.765
13.30000 8.138
13.32000 14.870
13.34000 13.670
13.36000 9.806
13.38000 6.991
13.40000 12.717
13.42000 7.413
13.44000 3.588
13.46000 10.885
13.48000 10.076
13.50000 17.665
13.52000 8.678
13.54000 8.676
13.56000 18.036
13.58000 13.383
13.60000 9.378
13.62000 6.465
13.64000 2.318
13.66000 9.596
13.68000 19.548
13.70000 20.561
13.72000 21.238
13.74000 17.938
13.76000 19.612
13.78000 18.124
13.80000 5.817
13.82000 3.191
13.84000 8.298
13.86000 17.615
13.88000 14.293
13.90000 9.642
13.92000 13.995
13.94000 12.282
13.96000 15.697
13.98000 11.790
14.00000 10.573
14.02000 0.898
14.04000 12.485
14.06000 16.538
14.08000 8.394
14.10000 7.590
14.12000 12.073
14.14000 19.901
14.16000 9.748
14.18000 13.402
14.20000 23.616
14.22000 10.047
14.24000 7.136
14.26000 10.258
14.28000 12.711
14.30000 12.362
14.32000 16.256
14.34000 5.339
14.36000 2.669
14.38000 9.546
14.40000 6.464
14.42000 4.805
14.44000 16.495
14.46000 18.464
14.48000 14.252
14.50000 10.671
14.52000 13.361
14.54000 13.744
14.56000 11.533
14.58000 4.796
14.60000 8.772
14.62000 3.447
14.64000 2.616
14.66000 8.096
14.68000 6.368
14.70000 11.958
14.72000 11.160
14.74000 14.001
14.76000 14.125
14.78000 10.377
14.80000 11.571
14.82000 13.376
14.84000 14.698
14.86000 11.175
14.88000 11.355
14.90000 9.522
14.92000 17.295
14.94000 6.572
14.96000 7.989
14.98000 13.872
15.00000 12.371
15.02000 10.392
15.04000 13.962
15.06000 10.917
15.08000 11.650
15.10000 3.935
15.12000 -0.347
15.14000 -4.445
15.16000 -0.355
15.18000 7.186
15.20000 5.719
15.22000 13.275
15.24000 12.159
15.26000 0.439
15.28000 4.263
15.30000 5.634
15.32000 5.468
15.34000 3.535
15.36000 11.600
15.38000 8.442
15.40000 1.680
15.42000 13.080
15.44000 17.107
15.46000 14.127
15.48000 8.616
15.50000 7.883
15.52000 10.967
15.54000 7.358
15.56000 4.193
15.58000 6.276
15.60000 6.759
15.62000 4.699
15.64000 1.243
15.66000 8.650
15.68000 11.138
15.70000 7.451
15.72000 1.550
15.74000 7.813
15.76000 9.968
15.78000 11.170
15.80000 7.866
15.82000 -2.180
15.84000 4.246
15.86000 9.299
15.88000 5.210
15.90000 2.906
15.92000 13.990
15.94000 6.685
15.96000 3.072
15.98000 4.991
16.00000 2.879
16.02000 9.910
16.04000 13.537
16.06000 3.299
16.08000 6.642
16.10000 11.293
16.12000 4.225
16.14000 8.771
16.16000 9.793
16.18000 3.749
16.20000 2.996
16.22000 4.968
16.24000 11.074
16.26000 3.999
16.28000 9.584
16.30000 4.145
16.32000 2.528
16.34000 9.358
16.36000 14.240
16.38000 15.883
16.40000 3.547
16.42000 6.069
16.44000 -1.110
16.46000 3.337
16.48000 6.565
16.50000 7.000
16.52000 5.093
16.54000 4.936
16.56000 9.343
16.58000 10.515
16.60000 9.545
16.62000 7.834
16.64000 7.798
16.66000 9.482
16.68000 6.419
16.70000 0.317
16.72000 1.005
16.74000 3.259
16.76000 2.322
16.78000 6.535
16.80000 2.431
16.82000 9.986
16.84000 10.798
16.86000 14.806
16.88000 13.352
16.90000 16.673
16.92000 8.606
16.94000 1.789
16.96000 6.231
16.98000 6.083
17.00000 1.171
17.02000 6.973
17.04000 7.558
17.06000 3.487
17.08000 1.075
17.10000 10.847
17.12000 10.047
17.14000 4.010
17.16000 6.491
17.18000 8.217
17.20000 -4.364
17.22000 -0.288
17.24000 6.923
17.26000 15.591
17.28000 14.027
17.30000 15.138
17.32000 13.438
17.34000 6.574
17.36000 4.610
17.38000 7.982
17.40000 8.510
17.42000 14.235
17.44000 4.167
17.46000 4.846
17.48000 5.231
17.50000 4.983
17.52000 3.145
17.54000 1.938
17.56000 10.854
17.58000 8.334
17.60000 4.664
17.62000 4.249
17.64000 -2.759
17.66000 1.796
17.68000 -0.390
17.70000 -0.869
17.72000 7.653
17.74000 7.073
17.76000 11.997
17.78000 9.820
17.80000 8.764
17.82000 5.440
17.84000 -2.289
17.86000 -1.970
17.88000 5.457
17.90000 9.359
17.92000 3.755
17.94000 6.290
17.96000 7.005
17.98000 9.523
18.00000 -1.501
18.02000 -1.857
18.04000 9.415
18.06000 12.879
18.08000 14.133
18.10000 5.438
18.12000 2.950
18.14000 7.632
18.16000 -2.269
18.18000 1.707
18.20000 12.742
18.22000 19.775
18.24000 16.164
18.26000 7.626
18.28000 4.495
18.30000 9.356
18.32000 8.923
18.34000 -0.635
18.36000 -2.724
18.38000 2.992
18.40000 0.950
18.42000 -0.859
18.44000 -2.629
18.46000 6.862
18.48000 -3.122
18.50000 3.531
18.52000 12.805
18.54000 8.382
18.56000 1.920
18.58000 2.410
18.60000 7.256
18.62000 4.580
18.64000 0.152
18.66000 0.189
18.68000 3.085
18.70000 6.614
18.72000 3.786
18.74000 -0.507
18.76000 -4.303
18.78000 1.096
18.80000 8.823
18.82000 7.872
18.84000 7.555
18.86000 9.301
18.88000 -0.776
18.90000 -0.396
18.92000 5.154
18.94000 8.506
18.96000 7.643
18.98000 10.360
19.00000 6.736
19.02000 7.505
19.04000 -0.781
19.06000 0.549
19.08000 4.494
19.10000 -1.500
19.12000 -3.402
19.14000 3.315
19.16000 2.772
19.18000 -1.764
19.20000 4.788
19.22000 2.743
19.24000 2.209
19.26000 0.924
19.28000 -2.740
19.30000 7.636
19.32000 8.901
19.34000 9.117
19.36000 1.967
19.38000 0.067
19.40000 -1.334
19.42000 2.545
19.44000 10.743
19.46000 3.501
19.48000 -1.472
19.50000 -4.032
19.52000 0.589
19.54000 7.613
19.56000 5.520
19.58000 7.388
19.60000 7.602
19.62000 5.879
19.64000 6.809
19.66000 7.806
19.68000 8.563
19.70000 7.316
19.72000 1.895
19.74000 0.656
19.76000 7.209
19.78000 7.202
19.80000 2.746
19.82000 5.559
19.84000 7.200
19.86000 3.651
19.88000 -1.653
19.90000 0.036
19.92000 0.533
19.94000 0.005
19.96000 4.368
19.98000 5.967
20.00000 2.473
20.02000 -3.282
20.04000 -4.217
20.06000 0.241
20.08000 -1.991
20.10000 -2.854
20.12000 2.976
20.14000 0.562
20.16000 -1.182
20.18000 4.423
20.20000 7.881
20.22000 6.151
20.24000 7.114
20.26000 9.076
20.28000 4.152
20.30000 3.335
20.32000 0.718
20.34000 1.335
20.36000 0.169
20.38000 -2.309
20.40000 0.039
20.42000 0.874
20.44000 -0.999
20.46000 9.173
20.48000 16.086
20.50000 6.635
20.52000 5.565
20.54000 7.745
20.56000 8.245
20.58000 6.874
20.60000 4.606
20.62000 -0.905
20.64000 5.061
20.66000 7.159
20.68000 -1.416
20.70000 -0.650
20.72000 1.299
20.74000 3.854
20.76000 3.413
20.78000 0.810
20.80000 -3.088
20.82000 2.725
20.84000 3.046
20.86000 2.679
20.88000 -1.981
20.90000 -0.807
20.92000 7.632
20.94000 6.156
20.96000 2.490
20.98000 -3.042
21.00000 -3.024
21.02000 6.674
21.04000 2.423
21.06000 1.106
21.08000 3.226
21.10000 5.668
21.12000 -1.106
21.14000 -4.169
21.16000 -0.189
21.18000 3.319
21.20000 -1.064
21.22000 1.180
21.24000 7.479
21.26000 6.197
21.28000 4.745
21.30000 4.684
21.32000 4.864
21.34000 3.357
21.36000 9.016
21.38000 4.620
21.40000 5.155
21.42000 6.234
21.44000 9.437
21.46000 5.049
21.48000 3.978
21.50000 1.198
21.52000 4.724
21.54000 9.678
21.56000 10.185
21.58000 13.245
21.60000 5.642
21.62000 10.512
21.64000 12.310
21.66000 4.863
21.68000 1.128
21.70000 3.019
21.72000 0.095
21.74000 2.456
21.76000 -0.815
21.78000 2.192
21.80000 6.656
21.82000 3.459
21.84000 7.547
21.86000 11.136
21.88000 10.462
21.90000 3.289
21.92000 2.334
21.94000 1.681
21.96000 7.992
21.98000 8.180
22.00000 0.480
22.02000 -4.098
22.04000 -1.843
22.06000 -3.373
22.08000 -1.789
22.10000 5.591
22.12000 12.919
22.14000 8.842
22.16000 3.697
22.18000 2.460
22.20000 2.274
22.22000 6.560
22.24000 8.106
22.26000 7.204
22.28000 8.367
22.30000 8.096
22.32000 2.302
22.34000 -0.617
22.36000 8.953
22.38000 6.551
22.40000 3.259
22.42000 6.668
22.44000 5.817
22.46000 3.548
22.48000 5.224
22.50000 4.736
22.52000 8.768
22.54000 9.723
22.56000 3.308
22.58000 2.736
22.60000 7.719
22.62000 8.165
22.64000 8.708
22.66000 -0.007
22.68000 6.282
22.70000 8.975
22.72000 8.231
22.74000 7.048
22.76000 4.976
22.78000 10.843
22.80000 6.254
22.82000 3.118
22.84000 0.994
22.86000 7.902
22.88000 6.501
22.90000 6.704
22.92000 8.082
22.94000 8.745
22.96000 4.374
22.98000 -1.455
23.00000 -4.050
23.02000 3.131
23.04000 8.794
23.06000 9.004
23.08000 10.871
23.10000 7.920
23.12000 1.579
23.14000 2.164
23.16000 2.903
23.18000 0.052
23.20000 1.210
23.22000 4.882
23.24000 2.807
23.26000 4.448
23.28000 5.007
23.30000 3.499
23.32000 7.129
23.34000 2.550
23.36000 -3.364
23.38000 -0.216
23.40000 -1.382
23.42000 1.726
23.44000 1.734
23.46000 4.015
23.48000 11.882
23.50000 8.825
23.52000 6.138
23.54000 4.001
23.56000 2.508
23.58000 2.122
23.60000 5.861
23.62000 5.002
23.64000 7.523
23.66000 7.567
23.68000 7.948
23.70000 1.877
23.72000 3.453
23.74000 2.427
23.76000 2.295
23.78000 3.271
23.80000 6.169
23.82000 9.672
23.84000 9.020
23.86000 5.541
23.88000 -1.916
23.90000 -2.363
23.92000 1.941
23.94000 0.718
23.96000 7.324
23.98000 7.418
24.00000 1.592
24.02000 -1.267
24.04000 2.591
24.06000 3.624
24.08000 0.157
24.10000 1.356
24.12000 5.228
24.14000 10.988
24.16000 3.532
24.18000 -4.001
24.20000 -4.000
24.22000 -2.970
24.24000 5.936
24.26000 3.652
24.28000 8.054
24.30000 9.270
24.32000 4.564
24.34000 4.343
24.36000 2.828
24.38000 0.917
24.40000 -1.571
24.42000 -2.781
24.44000 4.178
24.46000 0.543
24.48000 -1.468
24.50000 -1.050
24.52000 1.722
24.54000 3.165
24.56000 0.143
24.58000 5.045
24.60000 13.725
24.62000 8.197
24.64000 1.897
24.66000 11.815
24.68000 15.199
24.70000 5.809
24.72000 5.892
24.74000 4.354
24.76000 -1.142
24.78000 0.381
24.80000 4.574
24.82000 4.059
24.84000 -0.361
24.86000 -1.920
24.88000 2.841
24.90000 6.044
24.92000 3.711
24.94000 1.371
24.96000 5.075
24.98000 9.967
25.00000 7.278
25.02000 1.239
25.04000 3.471
25.06000 2.647
25.08000 -2.932
25.10000 -0.171
25.12000 -1.383
25.14000 4.332
25.16000 -1.919
25.18000 -1.139
25.20000 1.923
25.22000 1.353
25.24000 -2.346
25.26000 1.176
25.28000 5.095
25.30000 -2.625
25.32000 -0.003
25.34000 -3.933
25.36000 -2.723
25.38000 0.564
25.40000 0.972
25.42000 2.080
25.44000 1.957
25.46000 -1.182
25.48000 -0.957
25.50000 -2.161
25.52000 4.840
25.54000 7.746
25.56000 5.234
25.58000 6.230
25.60000 6.060
25.62000 9.026
25.64000 2.882
25.66000 -0.390
25.68000 2.168
25.70000 1.032
25.72000 3.024
25.74000 0.564
25.76000 1.945
25.78000 4.809
25.80000 2.928
25.82000 -1.337
25.84000 -0.158
25.86000 2.685
25.88000 1.824
25.90000 -1.353
25.92000 -3.826
25.94000 0.953
25.96000 6.130
25.98000 -0.121
26.00000 -0.805
26.02000 -0.269
26.04000 3.766
26.06000 0.645
26.08000 -1.053
26.10000 -0.060
26.12000 -0.010
26.14000 -1.036
26.16000 -0.088
26.18000 1.160
26.20000 2.793
26.22000 1.472
26.24000 5.936
26.26000 5.935
26.28000 4.183
26.30000 2.880
26.32000 1.676
26.34000 5.477
26.36000 4.356
26.38000 -1.594
26.40000 -3.885
26.42000 1.833
26.44000 2.097
26.46000 2.238
26.48000 5.123
26.50000 7.543
26.52000 5.818
26.54000 5.579
26.56000 3.225
26.58000 3.131
26.60000 2.336
26.62000 5.614
26.64000 4.482
26.66000 3.577
26.68000 4.528
26.70000 5.038
26.72000 3.352
26.74000 -2.101
26.76000 2.770
26.78000 6.737
26.80000 1.532
26.82000 2.450
26.84000 3.341
26.86000 4.078
26.88000 3.491
26.90000 -0.736
26.92000 -1.537
26.94000 -1.233
26.96000 0.052
26.98000 -1.034
27.00000 -1.207
27.02000 1.630
27.04000 -0.336
27.06000 1.665
27.08000 -2.640
27.10000 -1.483
27.12000 -1.763
27.14000 0.276
27.16000 -0.616
27.18000 -1.886
27.20000 0.073
27.22000 5.531
27.24000 4.969
27.26000 0.658
27.28000 2.700
27.30000 3.676
27.32000 -0.060
27.34000 3.709
27.36000 -0.584
27.38000 0.922
27.40000 3.348
27.42000 8.847
27.44000 0.790
27.46000 -3.074
27.48000 3.032
27.50000 6.093
27.52000 5.441
27.54000 0.245
27.56000 -2.829
27.58000 -3.823
27.60000 0.339
27.62000 4.225
27.64000 -0.482
27.66000 0.514
27.68000 4.904
27.70000 1.015
27.72000 -0.161
27.74000 3.235
27.76000 -0.955
27.78000 0.351
27.80000 -0.069
27.82000 3.713
27.84000 5.850
27.86000 2.412
27.88000 -2.380
27.90000 -0.577
27.92000 2.240
27.94000 1.723
27.96000 6.476
27.98000 10.392
28.00000 3.368
28.02000 3.539
28.04000 1.431
28.06000 5.093
28.08000 7.108
28.10000 3.432
28.12000 -0.901
28.14000 -1.707
28.16000 1.158
28.18000 6.096
28.20000 6.767
28.22000 1.639
28.24000 2.351
28.26000 5.609
28.28000 1.924
28.30000 -0.911
28.32000 0.223
28.34000 7.086
28.36000 4.894
28.38000 2.945
28.40000 -0.509
28.42000 0.448
28.44000 -1.641
28.46000 -0.664
28.48000 -3.775
28.50000 0.471
28.52000 3.391
28.54000 6.008
28.56000 9.276
28.58000 0.563
28.60000 -0.791
28.62000 3.790
28.64000 6.295
28.66000 2.991
28.68000 3.627
28.70000 2.441
28.72000 -1.214
28.74000 7.506
28.76000 10.176
28.78000 9.311
28.80000 1.137
28.82000 4.015
28.84000 2.467
28.86000 3.240
28.88000 3.980
28.90000 8.603
28.92000 6.919
28.94000 1.399
28.96000 -1.847
28.98000 5.486
29.00000 6.397
29.02000 7.825
29.04000 2.893
29.06000 3.403
29.08000 4.415
29.10000 3.419
29.12000 0.198
29.14000 -3.391
29.16000 -2.986
29.18000 -2.769
29.20000 1.937
29.22000 3.051
29.24000 3.510
29.26000 -0.952
29.28000 4.613
29.30000 2.574
29.32000 2.184
29.34000 3.567
29.36000 5.829
29.38000 1.235
29.40000 -2.132
29.42000 1.318
29.44000 -2.188
29.46000 4.605
29.48000 4.783
29.50000 4.580
29.52000 5.115
29.54000 5.777
29.56000 5.876
29.58000 6.056
29.60000 1.514
29.62000 0.128
29.64000 5.369
29.66000 9.019
29.68000 5.552
29.70000 5.042
29.72000 -0.816
29.74000 1.721
29.76000 5.888
29.78000 -0.189
29.80000 4.385
29.82000 8.669
29.84000 2.823
29.86000 4.113
29.88000 5.544
29.90000 7.294
29.92000 7.721
29.94000 5.839
29.96000 3.924
29.98000 8.364
30.00000 6.518
30.02000 -1.142
30.04000 -2.872
30.06000 -1.169
30.08000 2.327
30.10000 6.214
30.12000 2.829
30.14000 6.019
30.16000 11.006
30.18000 10.368
30.20000 9.279
30.22000 7.293
30.24000 0.955
30.26000 5.536
30.28000 10.032
30.30000 5.566
30.32000 0.363
30.34000 -3.627
30.36000 -0.155
30.38000 5.433
30.40000 1.058
30.42000 1.567
30.44000 5.656
30.46000 8.993
30.48000 4.973
30.50000 -0.956
30.52000 4.800
30.54000 6.634
30.56000 7.363
30.58000 0.621
30.60000 0.064
30.62000 8.613
30.64000 9.017
30.66000 2.596
30.68000 1.468
30.70000 1.537
30.72000 2.470
30.74000 -0.398
30.76000 0.234
30.78000 5.100
30.80000 1.000
30.82000 1.917
30.84000 5.011
30.86000 5.270
30.88000 3.717
30.90000 3.824
30.92000 5.064
30.94000 9.556
30.96000 8.247
30.98000 7.078
31.00000 5.178
31.02000 -1.732
31.04000 -0.243
31.06000 5.485
31.08000 5.465
31.10000 6.907
31.12000 3.625
31.14000 4.399
31.16000 4.396
31.18000 4.386
31.20000 -1.150
31.22000 0.718
31.24000 3.519
31.26000 3.294
31.28000 4.172
31.30000 0.537
31.32000 -2.519
31.34000 3.250
31.36000 4.110
31.38000 1.504
31.40000 0.317
31.42000 5.448
31.44000 6.334
31.46000 5.157
31.48000 4.637
31.50000 6.626
31.52000 5.794
31.54000 4.678
31.56000 5.274
31.58000 8.379
31.60000 9.386
31.62000 2.784
31.64000 2.246
31.66000 -2.442
31.68000 -1.979
31.70000 -3.603
31.72000 -0.634
31.74000 8.387
31.76000 7.249
31.78000 4.194
31.80000 1.047
31.82000 -0.795
31.84000 3.722
31.86000 1.639
31.88000 2.855
31.90000 1.007
31.92000 -1.318
31.94000 0.001
31.96000 -1.336
31.98000 -3.595
32.00000 0.459
32.02000 -3.045
32.04000 -2.858
32.06000 2.958
32.08000 5.932
32.10000 4.199
32.12000 6.154
32.14000 9.386
32.16000 6.575
32.18000 5.643
32.20000 4.578
32.22000 3.138
32.24000 1.978
32.26000 2.140
32.28000 7.217
32.30000 4.492
32.32000 2.662
32.34000 5.694
32.36000 5.427
32.38000 1.694
32.40000 -0.749
32.42000 -3.143
32.44000 -1.000
32.46000 1.614
32.48000 0.901
32.50000 1.212
32.52000 6.814
32.54000 9.382
32.56000 10.781
32.58000 4.577
32.60000 0.829
32.62000 -0.341
32.64000 -3.575
32.66000 -3.575
32.68000 0.905
32.70000 4.734
32.72000 2.146
32.74000 1.319
32.76000 2.207
32.78000 0.788
32.80000 4.065
32.82000 4.233
32.84000 4.078
32.86000 0.472
32.88000 -0.121
32.90000 5.601
32.92000 3.849
32.94000 3.330
32.96000 5.033
32.98000 1.897
33.00000 -1.709
33.02000 4.514
33.04000 5.629
33.06000 -0.058
33.08000 -0.572
33.10000 0.033
33.12000 2.909
33.14000 0.710
33.16000 -0.038
33.18000 3.024
33.20000 5.695
33.22000 2.072
33.24000 -0.235
33.26000 -1.951
33.28000 -3.336
33.30000 -0.698
33.32000 0.051
33.34000 4.958
33.36000 -0.748
33.38000 -1.841
33.40000 -2.476
33.42000 -1.320
33.44000 2.196
33.46000 5.730
33.48000 6.549
33.50000 6.043
33.52000 6.259
33.54000 4.002
33.56000 1.556
33.58000 3.192
33.60000 2.081
33.62000 7.118
33.64000 3.208
33.66000 3.624
33.68000 6.945
33.70000 8.864
33.72000 6.941
33.74000 1.979
33.76000 5.492
33.78000 3.333
33.80000 -0.529
33.82000 0.408
33.84000 0.607
33.86000 -0.571
33.88000 3.859
33.90000 4.632
33.92000 3.666
33.94000 2.358
33.96000 2.656
33.98000 -1.677
34.00000 -3.569
34.02000 1.730
34.04000 0.716
34.06000 2.194
34.08000 5.537
34.10000 3.133
34.12000 1.545
34.14000 3.048
34.16000 4.777
34.18000 3.729
34.20000 3.632
34.22000 4.194
34.24000 0.716
34.26000 7.385
34.28000 9.138
34.30000 6.449
34.32000 5.941
34.34000 1.152
34.36000 -1.555
34.38000 1.897
34.40000 2.589
34.42000 0.028
34.44000 3.748
34.46000 9.623
34.48000 7.746
34.50000 2.732
34.52000 2.042
34.54000 1.674
34.56000 -0.005
34.58000 2.693
34.60000 3.246
34.62000 2.731
34.64000 1.590
34.66000 -3.540
34.68000 0.924
34.70000 2.649
34.72000 8.848
34.74000 7.453
34.76000 4.736
34.78000 4.354
34.80000 0.227
34.82000 -1.585
34.84000 1.853
34.86000 -0.755
34.88000 -0.033
34.90000 4.178
34.92000 1.841
34.94000 -0.319
34.96000 -2.916
34.98000 -2.208
35.00000 -3.450
35.02000 -3.087
35.04000 -2.873
35.06000 -0.118
35.08000 2.310
35.10000 -2.042
35.12000 -1.241
35.14000 1.984
35.16000 -0.256
35.18000 -0.455
35.20000 -0.095
35.22000 3.888
35.24000 2.200
35.26000 0.278
35.28000 5.541
35.30000 1.731
35.32000 -0.365
35.34000 0.465
35.36000 -1.353
35.38000 -3.337
35.40000 -0.432
35.42000 -1.269
35.44000 -2.438
35.46000 2.373
35.48000 7.862
35.50000 7.652
35.52000 6.676
35.54000 5.724
35.56000 1.550
35.58000 -3.497
35.60000 -1.138
35.62000 5.124
35.64000 10.844
35.66000 6.926
35.68000 8.746
35.70000 7.211
35.72000 0.917
35.74000 4.233
35.76000 2.463
35.78000 2.018
35.80000 4.594
35.82000 4.470
35.84000 2.987
35.86000 2.099
35.88000 3.502
35.90000 -1.132
35.92000 2.434
35.94000 5.355
35.96000 1.060
35.98000 1.215
36.00000 6.718
36.02000 1.807
36.04000 -2.065
36.06000 2.946
36.08000 0.656
36.10000 2.812
36.12000 0.518
36.14000 4.974
36.16000 6.094
36.18000 7.461
36.20000 10.084
36.22000 9.535
36.24000 7.867
36.26000 12.373
36.28000 5.426
36.30000 6.959
36.32000 7.186
36.34000 8.361
36.36000 9.397
36.38000 9.655
36.40000 13.091
36.42000 6.210
36.44000 7.093
36.46000 6.711
36.48000 2.091
36.50000 -3.472
36.52000 6.618
36.54000 9.439
36.56000 9.623
36.58000 15.585
36.60000 11.828
36.62000 10.305
36.64000 8.863
36.66000 6.859
36.68000 0.294
36.70000 6.300
36.72000 6.263
36.74000 11.348
36.76000 8.031
36.78000 0.913
36.80000 1.546
36.82000 4.321
36.84000 4.810
36.86000 6.090
36.88000 1.076
36.90000 5.918
36.92000 5.836
36.94000 3.568
36.96000 1.883
36.98000 4.043
37.00000 3.608
37.02000 -1.229
37.04000 -0.314
37.06000 0.077
37.08000 -1.238
37.10000 2.611
37.12000 -0.266
37.14000 -1.865
37.16000 2.265
37.18000 1.129
37.20000 0.142
37.22000 3.385
37.24000 3.358
37.26000 2.264
37.28000 1.119
37.30000 -0.176
37.32000 2.758
37.34000 1.375
37.36000 -0.447
37.38000 3.912
37.40000 1.580
37.42000 4.173
37.44000 2.912
37.46000 4.433
37.48000 6.589
37.50000 4.520
37.52000 -1.416
37.54000 -2.704
37.56000 1.432
37.58000 -1.103
37.60000 2.384
37.62000 7.313
37.64000 6.051
37.66000 5.411
37.68000 10.117
37.70000 2.500
37.72000 6.867
37.74000 8.998
37.76000 9.130
37.78000 10.083
37.80000 10.953
37.82000 9.155
37.84000 4.476
37.86000 1.679
37.88000 1.356
37.90000 5.063
37.92000 7.472
37.94000 10.196
37.96000 11.879
37.98000 2.993
38.00000 5.808
38.02000 13.001
38.04000 10.393
38.06000 6.797
38.08000 6.143
38.10000 5.869
38.12000 12.080
38.14000 18.231
38.16000 14.304
38.18000 13.652
38.20000 13.270
38.22000 13.746
38.24000 12.609
38.26000 13.116
38.28000 14.076
38.30000 11.999
38.32000 14.831
38.34000 10.690
38.36000 19.002
38.38000 23.820
38.40000 19.841
38.42000 18.238
38.44000 20.526
38.46000 19.589
38.48000 22.395
38.50000 24.522
38.52000 27.907
38.54000 27.876
38.56000 23.606
38.58000 27.773
38.60000 24.720
38.62000 25.179
38.64000 26.966
38.66000 31.276
38.68000 26.665
38.70000 28.297
38.72000 31.325
38.74000 37.565
38.76000 40.958
38.78000 35.641
38.80000 32.921
38.82000 36.548
38.84000 36.191
38.86000 36.277
38.88000 37.856
38.90000 39.886
38.92000 47.782
38.94000 53.893
38.96000 56.110
38.98000 59.507
39.00000 60.356
39.02000 64.839
39.04000 62.980
39.06000 61.804
39.08000 59.567
39.10000 69.508
39.12000 77.822
39.14000 72.222
39.16000 73.076
39.18000 73.083
39.20000 78.374
39.22000 84.923
39.24000 91.014
39.26000 96.130
39.28000 99.218
39.30000 100.734
39.32000 105.299
39.34000 108.926
39.36000 114.468
39.38000 126.810
39.40000 136.128
39.42000 141.726
39.44000 145.895
39.46000 148.701
39.48000 156.623
39.50000 163.462
39.52000 175.504
39.54000 180.670
39.56000 189.551
39.58000 197.109
39.60000 214.481
39.62000 236.590
39.64000 234.989
39.66000 247.982
39.68000 260.804
39.70000 272.992
39.72000 296.549
39.74000 310.535
39.76000 330.272
39.78000 342.844
39.80000 362.815
39.82000 379.368
39.84000 400.538
39.86000 420.298
39.88000 441.031
39.90000 467.073
39.92000 494.634
39.94000 518.399
39.96000 536.926
39.98000 552.189
40.00000 569.321
40.02000 591.860
40.04000 612.224
40.06000 635.591
40.08000 650.615
40.10000 669.642
40.12000 686.159
40.14000 710.042
40.16000 718.515
40.18000 725.484
40.20000 722.298
40.22000 738.184
40.24000 743.492
40.26000 734.693
40.28000 731.126
40.30000 721.820
40.32000 704.207
40.34000 706.678
40.36000 700.130
40.38000 694.604
40.40000 686.320
40.42000 658.706
40.44000 637.132
40.46000 625.515
40.48000 595.446
40.50000 582.975
40.52000 569.775
40.54000 539.553
40.56000 512.313
40.58000 497.269
40.60000 478.659
40.62000 449.971
40.64000 432.402
40.66000 412.688
40.68000 395.183
40.70000 381.456
40.72000 358.330
40.74000 343.629
40.76000 330.417
40.78000 312.972
40.80000 294.542
40.82000 271.973
40.84000 254.974
40.86000 247.098
40.88000 232.392
40.90000 220.319
40.92000 215.711
40.94000 202.131
40.96000 184.600
40.98000 178.993
41.00000 167.608
41.02000 156.312
41.04000 146.977
41.06000 139.366
41.08000 127.180
41.10000 122.009
41.12000 117.336
41.14000 107.605
41.16000 99.819
41.18000 96.594
41.20000 98.600
41.22000 94.072
41.24000 83.051
41.26000 75.016
41.28000 71.003
41.30000 67.911
41.32000 66.411
41.34000 64.792
41.36000 60.684
41.38000 58.638
41.40000 55.935
41.42000 54.376
41.44000 47.598
41.46000 47.708
41.48000 51.451
41.50000 44.499
41.52000 37.434
41.54000 39.091
41.56000 38.796
41.58000 37.930
41.60000 34.524
41.62000 32.581
41.64000 30.399
41.66000 30.669
41.68000 29.462
41.70000 25.517
41.72000 20.522
41.74000 20.706
41.76000 20.826
41.78000 23.259
41.80000 14.805
41.82000 19.739
41.84000 15.827
41.86000 15.881
41.88000 17.151
41.90000 15.776
41.92000 17.347
41.94000 12.445
41.96000 13.506
41.98000 7.564
42.00000 12.340
42.02000 12.210
42.04000 12.484
42.06000 14.687
42.08000 12.118
42.10000 9.234
42.12000 8.803
42.14000 11.419
42.16000 9.567
42.18000 8.587
42.20000 7.779
42.22000 5.745
42.24000 5.540
42.26000 2.198
42.28000 3.079
42.30000 4.058
42.32000 0.211
42.34000 1.221
42.36000 2.844
42.38000 3.288
42.40000 6.203
42.42000 3.906
42.44000 -3.565
42.46000 0.647
42.48000 0.345
42.50000 1.105
42.52000 3.623
42.54000 1.876
42.56000 -1.376
42.58000 0.573
42.60000 1.671
42.62000 -2.251
42.64000 2.403
42.66000 3.950
42.68000 2.858
42.70000 1.733
42.72000 3.146
42.74000 -1.283
42.76000 -2.871
42.78000 -1.966
42.80000 0.675
42.82000 0.395
42.84000 3.079
42.86000 0.042
42.88000 -1.286
42.90000 2.773
42.92000 2.611
42.94000 -0.209
42.96000 -0.603
42.98000 1.663
43.00000 2.173
43.02000 -0.637
43.04000 1.880
43.06000 3.899
43.08000 1.478
43.10000 -3.466
43.12000 -1.651
43.14000 0.381
43.16000 3.687
43.18000 1.946
43.20000 0.529
43.22000 2.519
43.24000 -0.478
43.26000 2.765
43.28000 0.859
43.30000 -0.313
43.32000 -0.045
43.34000 1.529
43.36000 1.641
43.38000 3.456
43.40000 4.018
43.42000 4.715
43.44000 -2.371
43.46000 -1.192
43.48000 -1.205
43.50000 1.742
43.52000 1.390
43.54000 -0.251
43.56000 0.482
43.58000 0.985
43.60000 0.426
43.62000 2.888
43.64000 3.869
43.66000 5.142
43.68000 7.776
43.70000 5.101
43.72000 7.826
43.74000 7.975
43.76000 3.071
43.78000 1.874
43.80000 -1.200
43.82000 -3.338
43.84000 -2.688
43.86000 3.395
43.88000 3.175
43.90000 2.024
43.92000 4.651
43.94000 2.791
43.96000 3.071
43.98000 1.627
44.00000 -2.387
44.02000 -0.246
44.04000 0.701
44.06000 5.754
44.08000 2.318
44.10000 0.252
44.12000 2.383
44.14000 1.242
44.16000 -0.467
44.18000 1.271
44.20000 0.373
44.22000 0.115
44.24000 -2.365
44.26000 -0.390
44.28000 -0.244
44.30000 3.856
44.32000 2.941
44.34000 -1.094
44.36000 -0.628
44.38000 0.684
44.40000 0.914
44.42000 1.097
44.44000 -1.708
44.46000 2.711
44.48000 -1.127
44.50000 0.627
44.52000 -0.713
44.54000 2.996
44.56000 2.690
44.58000 -0.399
44.60000 1.276
44.62000 4.575
44.64000 1.394
44.66000 -3.334
44.68000 1.009
44.70000 2.549
44.72000 3.293
44.74000 4.539
44.76000 6.959
44.78000 5.163
44.80000 2.837
44.82000 1.370
44.84000 2.067
44.86000 1.331
44.88000 1.124
44.90000 1.070
44.92000 2.015
44.94000 10.259
44.96000 10.278
44.98000 6.972
45.00000 3.978
45.02000 5.864
45.04000 5.890
45.06000 4.932
45.08000 6.719
45.10000 5.621
45.12000 6.716
45.14000 8.109
45.16000 6.486
45.18000 12.686
45.20000 9.335
45.22000 9.319
45.24000 9.689
45.26000 10.940
45.28000 7.104
45.30000 10.290
45.32000 12.755
45.34000 13.515
45.36000 13.185
45.38000 12.384
45.40000 13.286
45.42000 15.813
45.44000 14.068
45.46000 13.326
45.48000 15.207
45.50000 21.765
45.52000 21.851
45.54000 22.291
45.56000 21.690
45.58000 20.492
45.60000 22.665
45.62000 20.864
45.64000 26.362
45.66000 25.844
45.68000 28.966
45.70000 28.773
45.72000 28.465
45.74000 29.137
45.76000 28.711
45.78000 32.341
45.80000 34.034
45.82000 35.384
45.84000 33.406
45.86000 29.591
45.88000 37.914
45.90000 37.560
45.92000 34.969
45.94000 33.710
45.96000 42.732
45.98000 47.405
46.00000 47.198
46.02000 50.601
46.04000 55.334
46.06000 49.380
46.08000 49.067
46.10000 54.395
46.12000 58.436
46.14000 62.524
46.16000 62.366
46.18000 67.385
46.20000 65.896
46.22000 65.771
46.24000 65.499
46.26000 68.462
46.28000 69.916
46.30000 72.150
46.32000 79.147
46.34000 82.249
46.36000 89.486
46.38000 95.989
46.40000 92.439
46.42000 93.971
46.44000 97.463
46.46000 101.244
46.48000 102.765
46.50000 102.681
46.52000 109.423
46.54000 110.630
46.56000 114.017
46.58000 109.271
46.60000 113.956
46.62000 119.016
46.64000 124.736
46.66000 130.118
46.68000 125.217
46.70000 130.324
46.72000 128.745
46.74000 127.730
46.76000 133.914
46.78000 136.909
46.80000 140.752
46.82000 145.694
46.84000 145.101
46.86000 149.886
46.88000 142.816
46.90000 139.327
46.92000 138.274
46.94000 140.014
46.96000 138.597
46.98000 139.738
47.00000 136.330
47.02000 135.295
47.04000 136.248
47.06000 132.055
47.08000 134.971
47.10000 131.582
47.12000 127.982
47.14000 123.063
47.16000 120.588
47.18000 111.987
47.20000 113.532
47.22000 114.887
47.24000 107.277
47.26000 109.796
47.28000 101.307
47.30000 100.399
47.32000 101.099
47.34000 98.516
47.36000 92.444
47.38000 89.773
47.40000 90.565
47.42000 84.189
47.44000 80.389
47.46000 71.399
47.48000 66.671
47.50000 61.859
47.52000 66.289
47.54000 64.649
47.56000 58.384
47.58000 59.248
47.60000 57.283
47.62000 48.299
47.64000 48.612
47.66000 46.647
47.68000 46.078
47.70000 41.243
47.72000 35.755
47.74000 41.113
47.76000 37.082
47.78000 37.385
47.80000 33.046
47.82000 29.357
47.84000 29.028
47.86000 25.488
47.88000 26.494
47.90000 21.233
47.92000 24.379
47.94000 27.478
47.96000 22.263
47.98000 21.260
48.00000 21.007
48.02000 18.333
48.04000 19.705
48.06000 16.314
48.08000 16.719
48.10000 15.278
48.12000 13.082
48.14000 10.360
48.16000 9.323
48.18000 12.345
48.20000 10.361
48.22000 10.412
48.24000 15.267
48.26000 11.794
48.28000 6.806
48.30000 8.349
48.32000 4.525
48.34000 4.264
48.36000 6.000
48.38000 7.556
48.40000 5.542
48.42000 5.977
48.44000 5.110
48.46000 -1.331
48.48000 -0.149
48.50000 3.999
48.52000 5.107
48.54000 3.675
48.56000 4.294
48.58000 2.625
48.60000 -0.497
48.62000 0.707
48.64000 7.164
48.66000 11.316
48.68000 3.805
48.70000 -2.920
48.72000 -0.131
48.74000 2.527
48.76000 -0.990
48.78000 3.161
48.80000 2.413
48.82000 4.316
48.84000 7.282
48.86000 2.959
48.88000 6.721
48.90000 0.306
48.92000 1.447
48.94000 3.041
48.96000 4.040
48.98000 2.858
49.00000 4.020
49.02000 1.230
49.04000 7.235
49.06000 2.895
49.08000 6.127
49.10000 7.683
49.12000 7.474
49.14000 7.658
49.16000 2.650
49.18000 0.477
49.20000 0.066
49.22000 4.689
49.24000 2.482
49.26000 0.129
49.28000 0.490
49.30000 -0.418
49.32000 3.819
49.34000 5.114
49.36000 1.869
49.38000 1.634
49.40000 0.869
49.42000 -2.804
49.44000 2.221
49.46000 0.977
49.48000 3.064
49.50000 1.762
49.52000 3.190
49.54000 2.720
49.56000 6.320
49.58000 4.432
49.60000 0.772
49.62000 4.288
49.64000 6.485
49.66000 1.489
49.68000 3.745
49.70000 2.284
49.72000 1.387
49.74000 1.755
49.76000 3.845
49.78000 0.697
49.80000 3.147
49.82000 7.099
49.84000 7.936
49.86000 9.763
49.88000 7.055
49.90000 5.307
49.92000 0.376
49.94000 1.295
49.96000 -1.979
49.98000 -2.766
50.00000 2.615
50.02000 1.640
50.04000 1.819
50.06000 0.846
50.08000 0.902
50.10000 6.046
50.12000 7.544
50.14000 8.312
50.16000 7.942
50.18000 0.721
50.20000 1.149
50.22000 -1.176
50.24000 1.887
50.26000 1.684
50.28000 -0.096
50.30000 -0.273
50.32000 3.497
50.34000 5.730
50.36000 4.095
50.38000 -1.992
50.40000 1.623
50.42000 0.351
50.44000 -1.553
50.46000 1.253
50.48000 0.672
50.50000 2.163
50.52000 3.228
50.54000 5.294
50.56000 2.464
50.58000 -0.461
50.60000 2.299
50.62000 -0.403
50.64000 1.681
50.66000 0.989
50.68000 2.347
50.70000 3.777
50.72000 2.503
50.74000 5.453
50.76000 4.278
50.78000 5.556
50.80000 3.115
50.82000 -0.049
50.84000 1.793
50.86000 0.767
50.88000 2.667
50.90000 1.701
50.92000 5.179
50.94000 5.608
50.96000 4.529
50.98000 3.979
51.00000 4.311
51.02000 4.100
51.04000 0.675
51.06000 0.087
51.08000 3.617
51.10000 4.699
51.12000 -2.668
51.14000 -0.655
51.16000 3.869
51.18000 4.604
51.20000 3.805
51.22000 4.242
51.24000 4.240
51.26000 4.622
51.28000 6.117
51.30000 4.147
51.32000 5.148
51.34000 5.383
51.36000 4.612
51.38000 2.659
51.40000 3.639
51.42000 1.192
51.44000 1.663
51.46000 0.945
51.48000 -0.384
51.50000 -0.087
51.52000 -0.079
51.54000 4.342
51.56000 4.555
51.58000 4.744
51.60000 4.050
51.62000 3.929
51.64000 4.334
51.66000 2.571
51.68000 -2.302
51.70000 -1.733
51.72000 -0.766
51.74000 3.944
51.76000 4.775
51.78000 4.457
51.80000 0.651
51.82000 -0.784
51.84000 -0.910
51.86000 2.963
51.88000 6.416
51.90000 4.992
51.92000 4.466
51.94000 5.508
51.96000 4.166
51.98000 0.992
52.00000 3.795
52.02000 6.767
52.04000 2.687
52.06000 3.681
52.08000 1.201
52.10000 0.423
52.12000 0.621
52.14000 3.720
52.16000 3.519
52.18000 0.992
52.20000 0.727
52.22000 0.870
52.24000 3.560
52.26000 5.241
52.28000 4.784
52.30000 -0.070
52.32000 -2.618
52.34000 2.604
52.36000 6.530
52.38000 7.043
52.40000 6.412
52.42000 3.249
52.44000 4.456
52.46000 2.589
52.48000 0.092
52.50000 -0.187
52.52000 0.814
52.54000 -0.395
52.56000 2.788
52.58000 8.416
52.60000 8.400
52.62000 1.985
52.64000 2.791
52.66000 0.887
52.68000 -0.458
52.70000 -0.547
52.72000 2.668
52.74000 2.071
52.76000 0.001
52.78000 3.029
52.80000 5.797
52.82000 3.030
52.84000 6.214
52.86000 3.884
52.88000 4.288
52.90000 4.754
52.92000 0.221
52.94000 2.678
52.96000 2.763
52.98000 2.829
53.00000 2.115
53.02000 3.888
53.04000 1.828
53.06000 4.029
53.08000 -1.994
53.10000 1.712
53.12000 -0.457
53.14000 0.379
53.16000 1.853
53.18000 4.403
53.20000 3.720
53.22000 2.191
53.24000 -1.388
53.26000 -0.141
53.28000 0.463
53.30000 -0.029
53.32000 -2.301
53.34000 -0.850
53.36000 3.658
53.38000 3.466
53.40000 4.471
53.42000 6.983
53.44000 7.517
53.46000 1.704
53.48000 2.793
53.50000 0.449
53.52000 1.267
53.54000 -1.415
53.56000 2.426
53.58000 -0.347
53.60000 2.315
53.62000 4.239
53.64000 -1.925
53.66000 -1.601
53.68000 0.736
53.70000 0.614
53.72000 -0.519
53.74000 0.857
53.76000 -0.127
53.78000 -1.926
53.80000 0.421
53.82000 4.095
53.84000 1.417
53.86000 2.160
53.88000 3.119
53.90000 1.449
53.92000 1.432
53.94000 6.794
53.96000 -0.119
53.98000 -2.618
54.00000 1.719
54.02000 -0.452
54.04000 3.325
54.06000 3.921
54.08000 5.169
54.10000 4.925
54.12000 5.732
54.14000 1.965
54.16000 -0.731
54.18000 4.243
54.20000 4.582
54.22000 5.100
54.24000 8.264
54.26000 3.892
54.28000 0.733
54.30000 -0.245
54.32000 -0.591
54.34000 -1.077
54.36000 2.192
54.38000 -2.037
54.40000 -0.762
54.42000 3.204
54.44000 3.038
54.46000 4.291
54.48000 3.438
54.50000 0.056
54.52000 2.820
54.54000 0.064
54.56000 -1.808
54.58000 0.947
54.60000 2.938
54.62000 -0.669
54.64000 4.440
54.66000 1.465
54.68000 1.142
54.70000 1.708
54.72000 3.619
54.74000 1.904
54.76000 -2.564
54.78000 -1.821
54.80000 3.656
54.82000 5.525
54.84000 5.394
54.86000 1.402
54.88000 -0.328
54.90000 2.633
54.92000 2.578
54.94000 0.196
54.96000 -0.229
54.98000 2.403
55.00000 2.535
55.02000 -1.258
55.04000 3.404
55.06000 4.552
55.08000 4.904
55.10000 2.586
55.12000 -1.430
55.14000 0.456
55.16000 0.743
55.18000 4.147
55.20000 3.923
55.22000 2.165
55.24000 2.667
55.26000 3.174
55.28000 2.737
55.30000 3.458
55.32000 4.991
55.34000 3.711
55.36000 4.268
55.38000 8.597
55.40000 11.426
55.42000 7.000
55.44000 4.242
55.46000 2.639
55.48000 1.282
55.50000 2.630
55.52000 4.475
55.54000 4.458
55.56000 4.368
55.58000 1.107
55.60000 2.466
55.62000 2.576
55.64000 4.528
55.66000 3.217
55.68000 1.440
55.70000 -2.522
55.72000 1.555
55.74000 2.803
55.76000 1.518
55.78000 2.926
55.80000 4.153
55.82000 2.675
55.84000 2.118
55.86000 5.646
55.88000 4.886
55.90000 6.494
55.92000 3.528
55.94000 4.508
55.96000 1.379
55.98000 2.829
56.00000 2.149
56.02000 1.545
56.04000 0.536
56.06000 3.805
56.08000 2.881
56.10000 2.950
56.12000 2.546
56.14000 -0.134
56.16000 2.198
56.18000 1.262
56.20000 2.238
56.22000 2.627
56.24000 1.998
56.26000 1.947
56.28000 3.123
56.30000 0.199
56.32000 2.078
56.34000 1.517
56.36000 2.991
56.38000 3.080
56.40000 3.308
56.42000 2.703
56.44000 0.168
56.46000 -0.249
56.48000 2.079
56.50000 -0.108
56.52000 0.859
56.54000 4.958
56.56000 1.785
56.58000 3.138
56.60000 5.162
56.62000 2.356
56.64000 0.377
56.66000 3.108
56.68000 2.466
56.70000 0.237
56.72000 -1.653
56.74000 1.713
56.76000 1.006
56.78000 2.728
56.80000 2.073
56.82000 1.230
56.84000 2.911
56.86000 3.591
56.88000 1.792
56.90000 2.715
56.92000 5.309
56.94000 7.024
56.96000 4.563
56.98000 6.616
57.00000 1.774
57.02000 2.554
57.04000 2.358
57.06000 2.454
57.08000 2.379
57.10000 4.674
57.12000 0.699
57.14000 1.938
57.16000 0.603
57.18000 -0.277
57.20000 3.073
57.22000 4.361
57.24000 4.399
57.26000 3.791
57.28000 -0.873
57.30000 -1.795
57.32000 -2.495
57.34000 2.331
57.36000 5.277
57.38000 2.622
57.40000 0.731
57.42000 1.094
57.44000 3.849
57.46000 6.485
57.48000 1.330
57.50000 1.081
57.52000 2.275
57.54000 2.866
57.56000 2.544
57.58000 3.625
57.60000 1.250
57.62000 0.059
57.64000 1.234
57.66000 5.113
57.68000 2.767
57.70000 0.361
57.72000 0.056
57.74000 5.334
57.76000 4.423
57.78000 5.830
57.80000 2.804
57.82000 3.505
57.84000 6.135
57.86000 3.602
57.88000 1.313
57.90000 0.928
57.92000 4.329
57.94000 1.739
57.96000 0.637
57.98000 1.337
58.00000 -1.717
58.02000 1.911
58.04000 4.567
58.06000 -1.345
58.08000 3.427
58.10000 3.310
58.12000 0.314
58.14000 1.371
58.16000 0.682
58.18000 1.533
58.20000 5.201
58.22000 5.913
58.24000 5.600
58.26000 2.096
58.28000 0.582
58.30000 -1.290
58.32000 3.999
58.34000 3.598
58.36000 2.938
58.38000 1.278
58.40000 3.837
58.42000 1.914
58.44000 -1.825
58.46000 2.124
58.48000 1.380
58.50000 -2.470
58.52000 -1.429
58.54000 -0.681
58.56000 -1.222
58.58000 0.920
58.60000 2.092
58.62000 -2.466
58.64000 0.713
58.66000 3.304
58.68000 -0.211
58.70000 -0.891
58.72000 0.504
58.74000 3.684
58.76000 5.375
58.78000 -0.835
58.80000 -1.219
58.82000 3.431
58.84000 3.144
58.86000 0.464
58.88000 -0.353
58.90000 4.023
58.92000 4.790
58.94000 5.246
58.96000 1.906
58.98000 0.353
59.00000 0.751
59.02000 -0.155
59.04000 -1.070
59.06000 1.751
59.08000 2.171
59.10000 1.249
59.12000 -1.723
59.14000 -2.266
59.16000 3.044
59.18000 1.352
59.20000 0.961
59.22000 -1.162
59.24000 3.126
59.26000 2.815
59.28000 1.105
59.30000 0.291
59.32000 2.938
59.34000 4.110
59.36000 0.197
59.38000 -0.288
59.40000 0.790
59.42000 1.945
59.44000 4.374
59.46000 2.024
59.48000 0.929
59.50000 5.318
59.52000 -0.866
59.54000 0.767
59.56000 -0.463
59.58000 4.280
59.60000 2.767
59.62000 -0.307
59.64000 3.607
59.66000 4.463
59.68000 4.482
59.70000 -0.757
59.72000 0.820
59.74000 3.607
59.76000 2.777
59.78000 2.648
59.80000 2.827
59.82000 4.440
59.84000 4.642
59.86000 5.891
59.88000 1.517
59.90000 0.978
59.92000 2.676
59.94000 1.562
59.96000 6.341
59.98000 2.296
60.00000 -0.567
60.02000 -0.338
60.04000 1.291
60.06000 4.190
60.08000 1.682
60.10000 -0.024
60.12000 -2.417
60.14000 0.069
60.16000 2.024
60.18000 2.197
60.20000 1.664
60.22000 2.765
60.24000 3.930
60.26000 3.599
60.28000 4.015
60.30000 5.194
60.32000 4.417
60.34000 2.611
60.36000 -1.253
60.38000 -2.405
60.40000 2.052
60.42000 1.231
60.44000 3.345
60.46000 3.798
60.48000 0.285
60.50000 2.913
60.52000 6.313
60.54000 8.049
60.56000 6.799
60.58000 2.262
60.60000 3.996
60.62000 3.016
60.64000 -0.837
60.66000 -1.276
60.68000 -1.622
60.70000 2.612
60.72000 5.569
60.74000 0.351
60.76000 3.427
60.78000 2.586
60.80000 1.207
60.82000 2.985
60.84000 0.535
60.86000 1.915
60.88000 1.614
60.90000 1.199
60.92000 2.524
60.94000 -0.526
60.96000 0.742
60.98000 1.854
61.00000 3.185
61.02000 0.210
61.04000 2.135
61.06000 4.100
61.08000 5.427
61.10000 3.533
61.12000 1.624
61.14000 2.960
61.16000 0.609
61.18000 -0.481
61.20000 2.412
61.22000 1.103
61.24000 1.993
61.26000 2.128
61.28000 1.288
61.30000 -0.415
61.32000 -1.841
61.34000 -1.451
61.36000 3.338
61.38000 0.912
61.40000 -0.472
61.42000 2.784
61.44000 2.530
61.46000 -2.362
61.48000 2.218
61.50000 2.217
61.52000 1.294
61.54000 4.277
61.56000 4.865
61.58000 0.984
61.60000 1.716
61.62000 5.418
61.64000 4.057
61.66000 6.912
61.68000 6.012
61.70000 0.677
61.72000 1.893
61.74000 6.500
61.76000 3.538
61.78000 3.050
61.80000 1.805
61.82000 -0.586
61.84000 2.447
61.86000 3.616
61.88000 5.638
61.90000 1.888
61.92000 -0.843
61.94000 1.488
61.96000 4.207
61.98000 4.135
62.00000 2.272
62.02000 -0.613
62.04000 2.553
62.06000 0.121
62.08000 -1.241
62.10000 0.157
62.12000 4.330
62.14000 3.827
62.16000 3.301
62.18000 0.534
62.20000 1.452
62.22000 3.724
62.24000 2.477
62.26000 5.430
62.28000 7.059
62.30000 2.665
62.32000 -0.402
62.34000 -1.643
62.36000 2.211
62.38000 0.624
62.40000 0.782
62.42000 4.421
62.44000 5.196
62.46000 5.242
62.48000 2.074
62.50000 0.925
62.52000 0.425
62.54000 1.705
62.56000 5.967
62.58000 2.462
62.60000 -0.711
62.62000 -1.093
62.64000 0.090
62.66000 -0.995
62.68000 -1.408
62.70000 2.375
62.72000 2.774
62.74000 1.128
62.76000 -0.077
62.78000 -0.779
62.80000 1.253
62.82000 1.647
62.84000 3.307
62.86000 -1.106
62.88000 -2.365
62.90000 -0.647
62.92000 1.772
62.94000 2.597
62.96000 5.022
62.98000 2.271
63.00000 0.643
63.02000 2.785
63.04000 5.437
63.06000 6.014
63.08000 3.151
63.10000 0.479
63.12000 -0.080
63.14000 1.960
63.16000 3.812
63.18000 3.220
63.20000 1.837
63.22000 0.654
63.24000 2.897
63.26000 5.774
63.28000 6.152
63.30000 3.425
63.32000 4.461
63.34000 2.785
63.36000 0.580
63.38000 -2.340
63.40000 0.898
63.42000 3.762
63.44000 1.780
63.46000 0.940
63.48000 1.426
63.50000 1.266
63.52000 0.675
63.54000 3.404
63.56000 2.005
63.58000 2.480
63.60000 2.445
63.62000 2.268
63.64000 -0.698
63.66000 -0.835
63.68000 2.997
63.70000 3.898
63.72000 2.410
63.74000 1.879
63.76000 0.341
63.78000 -0.691
63.80000 3.376
63.82000 -0.298
63.84000 -0.739
63.86000 0.631
63.88000 -0.518
63.90000 1.756
63.92000 -0.997
63.94000 -0.268
63.96000 1.578
63.98000 1.923
64.00000 2.844
64.02000 2.682
64.04000 1.430
64.06000 -0.456
64.08000 0.047
64.10000 0.817
64.12000 1.491
64.14000 2.050
64.16000 2.391
64.18000 2.036
64.20000 1.767
64.22000 3.310
64.24000 3.471
64.26000 5.772
64.28000 3.579
64.30000 0.034
64.32000 2.519
64.34000 2.636
64.36000 3.469
64.38000 0.371
64.40000 1.910
64.42000 1.464
64.44000 -1.154
64.46000 -0.195
64.48000 3.535
64.50000 3.638
64.52000 1.019
64.54000 -0.613
64.56000 -2.373
64.58000 1.298
64.60000 3.125
64.62000 4.047
64.64000 4.110
64.66000 3.733
64.68000 0.390
64.70000 1.613
64.72000 1.695
64.74000 1.727
64.76000 2.047
64.78000 2.647
64.80000 0.941
64.82000 2.414
64.84000 1.088
64.86000 -0.298
64.88000 1.208
64.90000 1.909
64.92000 3.464
64.94000 3.238
64.96000 0.012
64.98000 2.778
65.00000 3.144
65.02000 1.494
65.04000 -1.214
65.06000 -0.974
65.08000 0.346
65.10000 2.319
65.12000 3.280
65.14000 1.234
65.16000 0.034
65.18000 0.103
65.20000 0.359
65.22000 -2.034
65.24000 1.037
65.26000 1.550
65.28000 -0.107
65.30000 1.454
65.32000 0.748
65.34000 0.904
65.36000 3.674
65.38000 1.463
65.40000 -0.212
65.42000 1.283
65.44000 -0.371
65.46000 -0.673
65.48000 -0.471
65.50000 -2.412
65.52000 0.889
65.54000 -1.747
65.56000 -2.186
65.58000 0.469
65.60000 1.759
65.62000 -0.935
65.64000 -2.268
65.66000 -2.279
65.68000 0.642
65.70000 0.189
65.72000 0.368
65.74000 1.196
65.76000 3.970
65.78000 2.643
65.80000 -1.241
65.82000 0.997
65.84000 2.287
65.86000 2.308
65.88000 1.580
65.90000 1.030
65.92000 -1.900
65.94000 0.549
65.96000 3.701
65.98000 2.390
66.00000 0.602
66.02000 1.788
66.04000 -0.558
66.06000 -2.435
66.08000 -0.990
66.10000 0.450
66.12000 0.873
66.14000 -0.502
66.16000 -0.163
66.18000 -1.335
66.20000 -0.694
66.22000 0.104
66.24000 -0.817
66.26000 0.037
66.28000 -1.331
66.30000 -0.488
66.32000 1.220
66.34000 0.147
66.36000 1.878
66.38000 1.354
66.40000 -0.326
66.42000 -2.461
66.44000 -1.136
66.46000 2.500
66.48000 2.436
66.50000 1.206
66.52000 1.020
66.54000 -0.679
66.56000 1.961
66.58000 -0.039
66.60000 -2.474
66.62000 -0.521
66.64000 0.455
66.66000 0.370
66.68000 0.308
66.70000 -0.940
66.72000 -0.254
66.74000 -0.569
66.76000 -1.143
66.78000 -2.490
66.80000 1.079
66.82000 3.195
66.84000 -0.952
66.86000 -2.336
66.88000 1.789
66.90000 1.347
66.92000 1.467
66.94000 -0.465
66.96000 2.073
66.98000 1.184
67.00000 -0.376
67.02000 3.112
67.04000 2.692
67.06000 0.346
67.08000 2.683
67.10000 -0.773
67.12000 0.551
67.14000 3.222
67.16000 5.405
67.18000 4.135
67.20000 6.043
67.22000 4.262
67.24000 6.106
67.26000 7.035
67.28000 4.439
67.30000 7.186
67.32000 5.600
67.34000 2.925
67.36000 4.644
67.38000 4.826
67.40000 2.893
67.42000 3.117
67.44000 2.718
67.46000 3.816
67.48000 5.709
67.50000 7.911
67.52000 9.041
67.54000 9.897
67.56000 7.126
67.58000 8.378
67.60000 9.097
67.62000 9.215
67.64000 8.691
67.66000 6.254
67.68000 8.386
67.70000 11.305
67.72000 11.814
67.74000 11.284
67.76000 12.333
67.78000 13.706
67.80000 10.744
67.82000 9.698
67.84000 10.772
67.86000 14.830
67.88000 13.932
67.90000 15.503
67.92000 15.995
67.94000 16.783
67.96000 20.448
67.98000 20.464
68.00000 18.875
68.02000 16.102
68.04000 19.096
68.06000 20.936
68.08000 21.568
68.10000 23.144
68.12000 23.503
68.14000 25.937
68.16000 24.115
68.18000 22.827
68.20000 24.629
68.22000 26.988
68.24000 30.208
68.26000 28.029
68.28000 29.836
68.30000 25.941
68.32000 21.122
68.34000 23.728
68.36000 28.007
68.38000 28.695
68.40000 26.496
68.42000 27.258
68.44000 30.415
68.46000 31.953
68.48000 32.981
68.50000 30.246
68.52000 30.353
68.54000 33.997
68.56000 31.608
68.58000 28.705
68.60000 29.468
68.62000 33.597
68.64000 30.607
68.66000 31.851
68.68000 34.745
68.70000 29.943
68.72000 22.506
68.74000 22.738
68.76000 25.937
68.78000 24.764
68.80000 25.660
68.82000 27.830
68.84000 22.304
68.86000 23.266
68.88000 25.137
68.90000 22.821
68.92000 22.249
68.94000 20.398
68.96000 17.383
68.98000 18.375
69.00000 20.373
69.02000 21.132
69.04000 17.303
69.06000 13.341
69.08000 16.937
69.10000 15.075
69.12000 12.539
69.14000 8.613
69.16000 13.737
69.18000 11.923
69.20000 9.115
69.22000 8.323
69.24000 7.646
69.26000 11.742
69.28000 8.752
69.30000 7.486
69.32000 6.694
69.34000 5.197
69.36000 5.828
69.38000 5.678
69.40000 5.485
69.42000 5.071
69.44000 5.680
69.46000 7.461
69.48000 3.605
69.50000 6.199
69.52000 6.297
69.54000 0.763
69.56000 0.579
69.58000 1.062
69.60000 3.484
69.62000 6.249
69.64000 1.841
69.66000 2.838
69.68000 4.946
69.70000 2.333
69.72000 2.703
69.74000 1.625
69.76000 5.506
69.78000 2.824
69.80000 -1.719
69.82000 0.087
69.84000 -2.421
69.86000 3.406
69.88000 2.731
69.90000 -0.967
69.92000 0.169
69.94000 -0.620
69.96000 -0.345
69.98000 6.032
70.00000 -0.547
70.02000 -0.690
70.04000 -0.117
70.06000 3.577
70.08000 3.328
70.10000 -0.110
70.12000 1.195
70.14000 0.190
70.16000 0.557
70.18000 -1.518
70.20000 -0.771
70.22000 0.331
70.24000 -0.108
70.26000 0.850
70.28000 0.143
70.30000 1.035
70.32000 -1.295
70.34000 0.025
70.36000 -0.569
70.38000 -1.424
70.40000 2.676
70.42000 3.609
70.44000 1.270
70.46000 2.734
70.48000 0.235
70.50000 -1.194
70.52000 -2.292
70.54000 0.254
70.56000 0.036
70.58000 0.490
70.60000 2.767
70.62000 5.372
70.64000 1.781
70.66000 2.605
70.68000 3.231
70.70000 2.976
70.72000 -0.826
70.74000 0.757
70.76000 2.856
70.78000 1.730
70.80000 -1.674
70.82000 -0.933
70.84000 0.192
70.86000 2.739
70.88000 3.781
70.90000 2.901
70.92000 0.359
70.94000 0.138
70.96000 2.881
70.98000 4.580
71.00000 2.872
71.02000 3.510
71.04000 1.296
71.06000 2.710
71.08000 -1.279
71.10000 -2.253
71.12000 -0.401
71.14000 0.284
71.16000 1.605
71.18000 2.280
71.20000 -1.895
71.22000 2.795
71.24000 1.077
71.26000 2.823
71.28000 3.863
71.30000 3.916
71.32000 5.413
71.34000 7.379
71.36000 6.076
71.38000 4.356
71.40000 0.432
71.42000 1.767
71.44000 3.945
71.46000 4.553
71.48000 0.913
71.50000 1.975
71.52000 1.620
71.54000 -1.577
71.56000 3.064
71.58000 2.359
71.60000 2.627
71.62000 1.465
71.64000 -0.112
71.66000 0.312
71.68000 -2.245
71.70000 -1.028
71.72000 -1.409
71.74000 3.064
71.76000 5.254
71.78000 4.592
71.80000 3.197
71.82000 1.597
71.84000 5.694
71.86000 3.691
71.88000 3.542
71.90000 5.625
71.92000 3.590
71.94000 4.197
71.96000 2.817
71.98000 1.915
72.00000 3.049
72.02000 5.428
72.04000 6.295
72.06000 2.243
72.08000 -1.105
72.10000 0.423
72.12000 -0.563
72.14000 1.129
72.16000 0.501
72.18000 1.575
72.20000 3.185
72.22000 1.407
72.24000 1.900
72.26000 2.697
72.28000 1.848
72.30000 0.554
72.32000 -1.474
72.34000 -0.520
72.36000 0.173
72.38000 2.772
72.40000 0.781
72.42000 0.684
72.44000 3.405
72.46000 4.214
72.48000 -0.149
72.50000 -1.946
72.52000 1.511
72.54000 1.492
72.56000 -1.082
72.58000 -0.507
72.60000 -2.241
72.62000 -0.427
72.64000 1.096
72.66000 1.558
72.68000 5.386
72.70000 0.668
72.72000 3.795
72.74000 1.874
72.76000 -0.273
72.78000 1.731
72.80000 0.125
72.82000 -1.590
72.84000 1.020
72.86000 2.345
72.88000 3.163
72.90000 0.810
72.92000 1.426
72.94000 1.729
72.96000 4.349
72.98000 2.144
73.00000 -1.011
73.02000 3.457
73.04000 0.727
73.06000 -0.337
73.08000 -2.015
73.10000 -1.209
73.12000 -1.021
73.14000 -0.305
73.16000 2.608
73.18000 4.125
73.20000 3.751
73.22000 1.376
73.24000 1.078
73.26000 4.890
73.28000 3.036
73.30000 2.337
73.32000 0.791
73.34000 -2.229
73.36000 0.048
73.38000 1.382
73.40000 2.507
73.42000 1.461
73.44000 0.849
73.46000 -0.145
73.48000 1.382
73.50000 2.176
73.52000 5.114
73.54000 2.608
73.56000 0.446
73.58000 -0.456
73.60000 1.096
73.62000 2.492
73.64000 2.217
73.66000 0.751
73.68000 0.615
73.70000 -0.411
73.72000 0.081
73.74000 -0.118
73.76000 -2.068
73.78000 -1.741
73.80000 0.217
73.82000 -0.044
73.84000 5.248
73.86000 1.589
73.88000 -1.101
73.90000 -1.813
73.92000 1.369
73.94000 4.713
73.96000 2.669
73.98000 5.328
74.00000 1.167
74.02000 -0.758
74.04000 3.042
74.06000 3.704
74.08000 4.726
74.10000 2.657
74.12000 4.188
74.14000 2.754
74.16000 3.584
74.18000 1.049
74.20000 -1.255
74.22000 1.909
74.24000 2.915
74.26000 2.637
74.28000 2.854
74.30000 2.319
74.32000 0.734
74.34000 -0.657
74.36000 -0.184
74.38000 3.551
74.40000 4.927
74.42000 1.928
74.44000 4.597
74.46000 5.241
74.48000 -0.317
74.50000 -2.188
74.52000 1.979
74.54000 4.603
74.56000 3.077
74.58000 2.138
74.60000 4.083
74.62000 7.508
74.64000 4.671
74.66000 -0.653
74.68000 -0.968
74.70000 5.064
74.72000 2.876
74.74000 1.378
74.76000 5.942
74.78000 7.539
74.80000 1.992
74.82000 -0.916
74.84000 -0.075
74.86000 -0.277
74.88000 -0.148
74.90000 3.482
74.92000 4.317
74.94000 0.128
74.96000 0.732
74.98000 3.728
75.00000 3.159
75.02000 -0.395
75.04000 1.172
75.06000 1.441
75.08000 0.234
75.10000 2.394
75.12000 1.166
75.14000 1.194
75.16000 5.263
75.18000 3.800
75.20000 3.200
75.22000 3.574
75.24000 2.933
75.26000 3.875
75.28000 5.612
75.30000 0.175
75.32000 -2.194
75.34000 2.067
75.36000 3.267
75.38000 5.676
75.40000 6.529
75.42000 2.105
75.44000 3.855
75.46000 6.172
75.48000 1.413
75.50000 2.225
75.52000 1.500
75.54000 5.490
75.56000 2.820
75.58000 -0.931
75.60000 -0.341
75.62000 4.107
75.64000 1.211
75.66000 3.999
75.68000 2.095
75.70000 1.999
75.72000 7.366
75.74000 5.999
75.76000 1.275
75.78000 3.391
75.80000 5.471
75.82000 2.535
75.84000 2.261
75.86000 1.118
75.88000 3.571
75.90000 2.717
75.92000 1.726
75.94000 3.236
75.96000 -0.828
75.98000 -2.216
76.00000 0.199
76.02000 -0.196
76.04000 6.424
76.06000 3.323
76.08000 2.630
76.10000 -0.471
76.12000 0.541
76.14000 2.469
76.16000 3.748
76.18000 1.833
76.20000 3.591
76.22000 -0.782
76.24000 -0.784
76.26000 2.931
76.28000 3.791
76.30000 1.901
76.32000 -1.459
76.34000 -2.135
76.36000 0.099
76.38000 0.336
76.40000 2.330
76.42000 2.094
76.44000 1.507
76.46000 1.896
76.48000 0.504
76.50000 -1.912
76.52000 2.356
76.54000 1.114
76.56000 2.500
76.58000 3.089
76.60000 1.116
76.62000 2.297
76.64000 4.663
76.66000 1.093
76.68000 5.527
76.70000 3.596
76.72000 -1.604
76.74000 -0.948
76.76000 0.415
76.78000 0.358
76.80000 2.313
76.82000 1.484
76.84000 0.839
76.86000 -0.145
76.88000 3.297
76.90000 -2.226
76.92000 0.622
76.94000 4.461
76.96000 5.818
76.98000 2.275
77.00000 1.351
77.02000 1.533
77.04000 2.633
77.06000 0.790
77.08000 0.367
77.10000 1.379
77.12000 5.248
77.14000 -0.538
77.16000 1.785
77.18000 5.401
77.20000 3.630
77.22000 1.904
77.24000 3.580
77.26000 1.632
77.28000 3.906
77.30000 3.291
77.32000 2.754
77.34000 4.325
77.36000 3.160
77.38000 0.639
77.40000 -2.244
77.42000 0.302
77.44000 3.109
77.46000 7.721
77.48000 3.751
77.50000 -0.690
77.52000 -1.566
77.54000 -0.432
77.56000 2.658
77.58000 1.478
77.60000 3.285
77.62000 2.326
77.64000 -0.686
77.66000 0.901
77.68000 1.063
77.70000 1.046
77.72000 2.864
77.74000 -0.175
77.76000 -0.747
77.78000 -1.430
77.80000 0.272
77.82000 -0.969
77.84000 0.841
77.86000 2.435
77.88000 2.863
77.90000 3.313
77.92000 2.275
77.94000 2.606
77.96000 0.175
77.98000 -0.219
78.00000 -1.456
78.02000 1.617
78.04000 3.052
78.06000 0.379
78.08000 -0.138
78.10000 1.172
78.12000 -1.843
78.14000 -0.973
78.16000 0.816
78.18000 -0.453
78.20000 0.607
78.22000 1.544
78.24000 0.349
78.26000 2.722
78.28000 2.105
78.30000 1.379
78.32000 -1.310
78.34000 3.233
78.36000 3.207
78.38000 4.267
78.40000 3.437
78.42000 -1.529
78.44000 -1.435
78.46000 0.974
78.48000 -1.796
78.50000 1.041
78.52000 -2.251
78.54000 -0.539
78.56000 2.604
78.58000 1.532
78.60000 -0.215
78.62000 0.574
78.64000 0.500
78.66000 0.895
78.68000 1.132
78.70000 2.978
78.72000 3.555
78.74000 1.348
78.76000 4.720
78.78000 7.554
78.80000 3.569
78.82000 1.277
78.84000 2.303
78.86000 1.410
78.88000 -2.260
78.90000 -1.084
78.92000 1.609
78.94000 2.838
78.96000 -0.180
78.98000 -2.166
79.00000 0.389
79.02000 2.874
79.04000 -0.615
79.06000 0.205
79.08000 -2.268
79.10000 0.701
79.12000 1.781
79.14000 3.250
79.16000 2.691
79.18000 3.105
79.20000 0.702
79.22000 3.066
79.24000 2.998
79.26000 -1.171
79.28000 -0.568
79.30000 -1.666
79.32000 -1.040
79.34000 0.311
79.36000 2.367
79.38000 0.020
79.40000 2.643
79.42000 0.809
79.44000 2.432
79.46000 0.833
79.48000 -0.161
79.50000 2.586
79.52000 1.635
79.54000 -1.340
79.56000 -2.186
79.58000 -1.890
79.60000 2.188
79.62000 4.612
79.64000 5.497
79.66000 2.198
79.68000 -1.149
79.70000 1.264
79.72000 -0.269
79.74000 -1.965
79.76000 -0.211
79.78000 -0.104
79.80000 -1.020
79.82000 2.879
79.84000 3.670
79.86000 -0.394
79.88000 2.070
79.90000 3.867
79.92000 1.514
79.94000 -1.323
79.96000 0.683
79.98000 4.810
80.00000 2.789
80.02000 0.228
80.04000 1.236
80.06000 4.796
80.08000 2.156
80.10000 -0.216
80.12000 1.247
80.14000 3.859
80.16000 5.539
80.18000 3.708
80.20000 3.886
80.22000 4.652
80.24000 2.741
80.26000 1.949
80.28000 4.497
80.30000 4.750
80.32000 6.016
80.34000 2.425
80.36000 0.976
80.38000 -0.291
80.40000 1.154
80.42000 1.374
80.44000 2.673
80.46000 -2.297
80.48000 2.393
80.50000 2.012
80.52000 3.780
80.54000 8.834
80.56000 6.978
80.58000 4.241
80.60000 3.730
80.62000 4.801
80.64000 5.866
80.66000 10.083
80.68000 10.351
80.70000 8.054
80.72000 5.053
80.74000 4.249
80.76000 6.059
80.78000 8.197
80.80000 5.219
80.82000 5.265
80.84000 6.889
80.86000 6.417
80.88000 9.266
80.90000 6.761
80.92000 7.427
80.94000 10.710
80.96000 11.786
80.98000 5.895
81.00000 4.427
81.02000 7.867
81.04000 6.316
81.06000 11.661
81.08000 8.598
81.10000 8.132
81.12000 7.310
81.14000 6.816
81.16000 7.763
81.18000 7.303
81.20000 5.756
81.22000 7.780
81.24000 11.398
81.26000 13.989
81.28000 9.152
81.30000 7.354
81.32000 6.135
81.34000 6.302
81.36000 9.916
81.38000 10.205
81.40000 13.735
81.42000 10.707
81.44000 14.872
81.46000 12.272
81.48000 12.886
81.50000 13.811
81.52000 15.896
81.54000 13.102
81.56000 10.423
81.58000 11.613
81.60000 14.191
81.62000 13.050
81.64000 12.866
81.66000 16.486
81.68000 16.244
81.70000 18.075
81.72000 18.121
81.74000 19.893
81.76000 20.093
81.78000 20.658
81.80000 20.790
81.82000 19.639
81.84000 22.283
81.86000 24.020
81.88000 23.429
81.90000 22.412
81.92000 21.142
81.94000 21.008
81.96000 23.540
81.98000 24.206
82.00000 25.865
82.02000 26.565
82.04000 26.103
82.06000 28.201
82.08000 28.012
82.10000 30.663
82.12000 32.305
82.14000 34.454
82.16000 32.189
82.18000 31.831
82.20000 34.240
82.22000 29.615
82.24000 32.549
82.26000 32.786
82.28000 29.648
82.30000 33.503
82.32000 32.422
82.34000 33.159
82.36000 36.374
82.38000 39.252
82.40000 36.150
82.42000 37.225
82.44000 33.582
82.46000 34.118
82.48000 34.165
82.50000 35.558
82.52000 39.486
82.54000 41.295
82.56000 45.098
82.58000 47.838
82.60000 44.877
82.62000 42.193
82.64000 41.600
82.66000 42.822
82.68000 39.055
82.70000 40.258
82.72000 40.464
82.74000 43.437
82.76000 43.444
82.78000 43.143
82.80000 40.200
82.82000 37.837
82.84000 39.353
82.86000 36.288
82.88000 36.665
82.90000 37.739
82.92000 37.141
82.94000 36.393
82.96000 36.308
82.98000 35.189
83.00000 37.531
83.02000 38.011
83.04000 37.536
83.06000 33.359
83.08000 31.543
83.10000 28.143
83.12000 25.508
83.14000 26.497
83.16000 29.647
83.18000 28.552
83.20000 29.728
83.22000 31.785
83.24000 25.817
83.26000 23.265
83.28000 24.678
83.30000 22.531
83.32000 26.206
83.34000 25.178
83.36000 23.302
83.38000 24.146
83.40000 27.300
83.42000 24.136
83.44000 24.076
83.46000 21.702
83.48000 16.699
83.50000 13.911
83.52000 12.053
83.54000 13.319
83.56000 15.602
83.58000 16.640
83.60000 12.858
83.62000 13.581
83.64000 14.175
83.66000 11.475
83.68000 10.431
83.70000 11.988
83.72000 12.790
83.74000 7.981
83.76000 9.459
83.78000 8.681
83.80000 8.086
83.82000 7.892
83.84000 11.283
83.86000 9.003
83.88000 5.268
83.90000 5.385
83.92000 7.645
83.94000 7.057
83.96000 5.522
83.98000 7.540
84.00000 11.915
84.02000 10.030
84.04000 6.779
84.06000 2.564
84.08000 2.219
84.10000 -1.538
84.12000 -2.199
84.14000 1.416
84.16000 3.524
84.18000 3.421
84.20000 3.993
84.22000 5.564
84.24000 5.336
84.26000 4.824
84.28000 2.450
84.30000 2.719
84.32000 1.071
84.34000 5.929
84.36000 5.355
84.38000 5.956
84.40000 6.261
84.42000 4.257
84.44000 3.410
84.46000 3.400
84.48000 5.330
84.50000 2.957
84.52000 3.770
84.54000 3.637
84.56000 1.553
84.58000 0.328
84.60000 -2.317
84.62000 2.937
84.64000 2.094
84.66000 4.313
84.68000 6.116
84.70000 6.039
84.72000 4.407
84.74000 4.158
84.76000 2.781
84.78000 1.296
84.80000 -1.236
84.82000 0.750
84.84000 4.776
84.86000 6.179
84.88000 5.082
84.90000 4.350
84.92000 3.331
84.94000 3.625
84.96000 3.620
84.98000 3.580
85.00000 -2.290
85.02000 -1.008
85.04000 0.633
85.06000 -0.895
85.08000 -0.813
85.10000 1.836
85.12000 0.737
85.14000 0.596
85.16000 1.956
85.18000 7.609
85.20000 5.509
85.22000 4.931
85.24000 6.014
85.26000 4.848
85.28000 2.484
85.30000 3.644
85.32000 2.452
85.34000 5.503
85.36000 4.863
85.38000 6.291
85.40000 4.094
85.42000 1.935
85.44000 1.751
85.46000 1.824
85.48000 -2.257
85.50000 3.270
85.52000 7.163
85.54000 7.037
85.56000 4.798
85.58000 2.363
85.60000 1.792
85.62000 7.023
85.64000 4.274
85.66000 3.642
85.68000 5.101
85.70000 3.062
85.72000 5.127
85.74000 3.650
85.76000 4.813
85.78000 2.390
85.80000 3.350
85.82000 2.827
85.84000 7.144
85.86000 8.479
85.88000 5.869
85.90000 3.492
85.92000 4.489
85.94000 2.964
85.96000 4.658
85.98000 6.290
86.00000 5.319
86.02000 7.580
86.04000 3.812
86.06000 4.553
86.08000 5.921
86.10000 7.158
86.12000 8.731
86.14000 6.475
86.16000 7.074
86.18000 5.934
86.20000 7.228
86.22000 6.016
86.24000 8.073
86.26000 10.587
86.28000 10.676
86.30000 11.889
86.32000 11.547
86.34000 10.815
86.36000 4.528
86.38000 6.004
86.40000 10.329
86.42000 14.904
86.44000 15.600
86.46000 14.510
86.48000 13.997
86.50000 17.058
86.52000 15.991
86.54000 17.520
86.56000 18.921
86.58000 22.943
86.60000 19.358
86.62000 16.731
86.64000 21.817
86.66000 20.855
86.68000 22.118
86.70000 24.167
86.72000 21.154
86.74000 21.930
86.76000 22.168
86.78000 27.268
86.80000 26.116
86.82000 26.909
86.84000 21.039
86.86000 18.179
86.88000 20.358
86.90000 23.899
86.92000 22.590
86.94000 20.037
86.96000 22.484
86.98000 22.695
87.00000 19.378
87.02000 22.828
87.04000 25.667
87.06000 27.507
87.08000 27.939
87.10000 26.824
87.12000 26.379
87.14000 20.112
87.16000 17.777
87.18000 16.779
87.20000 23.643
87.22000 23.955
87.24000 18.574
87.26000 17.438
87.28000 21.653
87.30000 21.637
87.32000 20.621
87.34000 20.905
87.36000 20.035
87.38000 22.115
87.40000 16.757
87.42000 11.837
87.44000 13.776
87.46000 11.192
87.48000 14.534
87.50000 17.405
87.52000 15.228
87.54000 13.390
87.56000 11.293
87.58000 14.031
87.60000 10.583
87.62000 14.613
87.64000 14.394
87.66000 7.714
87.68000 9.901
87.70000 10.275
87.72000 7.326
87.74000 7.890
87.76000 7.966
87.78000 12.565
87.80000 10.793
87.82000 7.223
87.84000 12.068
87.86000 12.324
87.88000 9.159
87.90000 8.756
87.92000 9.966
87.94000 7.145
87.96000 5.869
87.98000 4.997
88.00000 3.220
88.02000 2.073
88.04000 2.882
88.06000 5.693
88.08000 10.261
88.10000 6.452
88.12000 5.813
88.14000 2.248
88.16000 2.888
88.18000 4.648
88.20000 4.816
88.22000 4.108
88.24000 3.207
88.26000 7.216
88.28000 7.832
88.30000 6.999
88.32000 4.346
88.34000 -1.336
88.36000 1.393
88.38000 2.208
88.40000 -1.200
88.42000 -1.591
88.44000 -2.196
88.46000 -1.536
88.48000 -1.246
88.50000 1.904
88.52000 6.284
88.54000 3.231
88.56000 3.172
88.58000 0.709
88.60000 1.803
88.62000 3.217
88.64000 1.218
88.66000 3.474
88.68000 3.035
88.70000 1.068
88.72000 0.026
88.74000 0.371
88.76000 3.473
88.78000 0.447
88.80000 0.385
88.82000 5.731
88.84000 7.706
88.86000 4.444
88.88000 6.428
88.90000 1.880
88.92000 -1.153
88.94000 2.313
88.96000 4.633
88.98000 4.919
89.00000 0.336
89.02000 0.968
89.04000 5.575
89.06000 5.882
89.08000 6.784
89.10000 2.472
89.12000 -2.147
89.14000 1.310
89.16000 1.795
89.18000 -1.862
89.20000 -1.805
89.22000 0.342
89.24000 1.845
89.26000 -1.096
89.28000 -0.158
89.30000 1.395
89.32000 2.758
89.34000 2.963
89.36000 -0.019
89.38000 -1.208
89.40000 3.846
89.42000 3.683
89.44000 2.777
89.46000 0.792
89.48000 -0.123
89.50000 2.332
89.52000 2.200
89.54000 3.779
89.56000 3.385
89.58000 3.097
89.60000 1.283
89.62000 -0.609
89.64000 -1.996
89.66000 -1.107
89.68000 -0.466
89.70000 -1.468
89.72000 1.496
89.74000 2.366
89.76000 1.623
89.78000 0.487
89.80000 0.870
89.82000 -2.109
89.84000 1.585
89.86000 4.076
89.88000 1.282
89.90000 3.646
89.92000 2.809
89.94000 0.750
89.96000 3.161
89.98000 7.136
90.00000 4.365
90.02000 1.088
90.04000 3.806
90.06000 6.720
90.08000 8.062
90.10000 3.894
90.12000 1.167
90.14000 -0.348
90.16000 1.492
90.18000 0.708
90.20000 0.374
90.22000 -0.615
90.24000 -1.362
90.26000 3.762
90.28000 5.234
90.30000 3.006
90.32000 0.721
90.34000 0.890
90.36000 3.194
90.38000 5.275
90.40000 1.136
90.42000 0.567
90.44000 0.749
90.46000 0.873
90.48000 -1.472
90.50000 0.797
90.52000 3.588
90.54000 4.169
90.56000 4.214
90.58000 -1.891
90.60000 -1.899
90.62000 0.618
90.64000 0.472
90.66000 0.418
90.68000 0.377
90.70000 5.757
90.72000 3.353
90.74000 6.245
90.76000 4.460
90.78000 4.443
90.80000 8.012
90.82000 8.941
90.84000 2.858
90.86000 -2.108
90.88000 0.183
90.90000 0.814
90.92000 -1.730
90.94000 2.216
90.96000 1.814
90.98000 5.337
91.00000 2.414
91.02000 2.033
91.04000 1.218
91.06000 1.971
91.08000 -0.345
91.10000 3.028
91.12000 3.887
91.14000 2.205
91.16000 2.289
91.18000 8.116
91.20000 3.715
91.22000 -0.857
91.24000 4.477
91.26000 1.997
91.28000 5.328
91.30000 7.908
91.32000 4.349
91.34000 1.481
91.36000 1.985
91.38000 -0.858
91.40000 3.516
91.42000 -1.162
91.44000 -0.979
91.46000 1.905
91.48000 6.561
91.50000 9.381
91.52000 3.691
91.54000 3.871
91.56000 2.126
91.58000 0.852
91.60000 -0.844
91.62000 -2.095
91.64000 2.789
91.66000 1.180
91.68000 2.096
91.70000 4.957
91.72000 3.482
91.74000 3.151
91.76000 2.783
91.78000 3.182
91.80000 1.237
91.82000 8.156
91.84000 5.273
91.86000 -0.429
91.88000 1.509
91.90000 4.364
91.92000 2.760
91.94000 4.214
91.96000 2.059
91.98000 0.711
92.00000 4.734
92.02000 3.136
92.04000 3.988
92.06000 3.313
92.08000 1.766
92.10000 1.959
92.12000 2.146
92.14000 3.620
92.16000 3.189
92.18000 2.613
92.20000 1.799
92.22000 3.592
92.24000 4.244
92.26000 3.717
92.28000 1.946
92.30000 2.071
92.32000 2.907
92.34000 4.571
92.36000 6.576
92.38000 6.166
92.40000 -0.859
92.42000 0.589
92.44000 4.845
92.46000 4.384
92.48000 3.094
92.50000 5.377
92.52000 5.570
92.54000 5.737
92.56000 4.389
92.58000 0.891
92.60000 1.079
92.62000 2.030
92.64000 2.080
92.66000 4.089
92.68000 4.574
92.70000 4.301
92.72000 0.547
92.74000 -0.471
92.76000 -2.065
92.78000 1.229
92.80000 4.166
92.82000 6.727
92.84000 5.807
92.86000 4.172
92.88000 2.187
92.90000 1.952
92.92000 3.711
92.94000 5.920
92.96000 2.680
92.98000 2.109
93.00000 5.049
93.02000 7.419
93.04000 9.413
93.06000 5.858
93.08000 2.644
93.10000 1.450
93.12000 2.249
93.14000 5.369
93.16000 4.031
93.18000 3.919
93.20000 0.489
93.22000 2.156
93.24000 -1.231
93.26000 2.434
93.28000 6.022
93.30000 1.633
93.32000 -0.673
93.34000 -1.355
93.36000 0.006
93.38000 2.217
93.40000 4.583
93.42000 6.793
93.44000 7.939
93.46000 6.047
93.48000 7.764
93.50000 4.267
93.52000 2.542
93.54000 5.055
93.56000 1.339
93.58000 1.327
93.60000 1.333
93.62000 1.553
93.64000 0.540
93.66000 0.230
93.68000 2.862
93.70000 1.322
93.72000 0.504
93.74000 4.578
93.76000 3.498
93.78000 0.390
93.80000 3.151
93.82000 4.410
93.84000 1.271
93.86000 -0.611
93.88000 5.847
93.90000 4.365
93.92000 -2.113
93.94000 1.401
93.96000 -0.548
93.98000 4.354
94.00000 7.617
94.02000 2.997
94.04000 -1.223
94.06000 2.061
94.08000 -0.530
94.10000 0.567
94.12000 5.161
94.14000 3.441
94.16000 4.344
94.18000 2.661
94.20000 -0.020
94.22000 0.524
94.24000 0.796
94.26000 5.376
94.28000 5.652
94.30000 4.756
94.32000 3.261
94.34000 -0.415
94.36000 1.919
94.38000 2.266
94.40000 6.214
94.42000 4.753
94.44000 4.491
94.46000 2.139
94.48000 1.240
94.50000 3.638
94.52000 4.967
94.54000 3.345
94.56000 2.115
94.58000 1.264
94.60000 3.230
94.62000 6.761
94.64000 -0.541
94.66000 -0.172
94.68000 8.674
94.70000 6.588
94.72000 4.360
94.74000 3.611
94.76000 1.214
94.78000 0.768
94.80000 2.435
94.82000 1.800
94.84000 4.848
94.86000 5.031
94.88000 0.536
94.90000 -0.683
94.92000 0.378
94.94000 1.578
94.96000 -2.101
94.98000 -0.305
95.00000 1.812
95.02000 1.199
95.04000 2.758
95.06000 1.081
95.08000 1.156
95.10000 0.251
95.12000 2.646
95.14000 5.425
95.16000 -2.027
95.18000 4.820
95.20000 2.886
95.22000 -0.153
95.24000 1.376
95.26000 4.117
95.28000 3.704
95.30000 3.885
95.32000 3.742
95.34000 7.280
95.36000 4.339
95.38000 -1.431
95.40000 -2.107
95.42000 4.561
95.44000 9.058
95.46000 9.684
95.48000 8.114
95.50000 1.287
95.52000 1.181
95.54000 0.952
95.56000 0.144
95.58000 2.162
95.60000 1.683
95.62000 1.133
95.64000 8.971
95.66000 7.206
95.68000 5.582
95.70000 8.888
95.72000 4.651
95.74000 5.158
95.76000 6.481
95.78000 8.813
95.80000 3.861
95.82000 1.959
95.84000 6.397
95.86000 7.075
95.88000 3.857
95.90000 4.938
95.92000 -1.074
95.94000 1.994
95.96000 4.083
95.98000 9.493
96.00000 7.953
96.02000 4.195
96.04000 -1.206
96.06000 0.822
96.08000 -0.877
96.10000 -1.134
96.12000 -1.679
96.14000 1.802
96.16000 0.843
96.18000 4.764
96.20000 4.254
96.22000 3.324
96.24000 3.994
96.26000 -1.702
96.28000 3.061
96.30000 5.445
96.32000 5.593
96.34000 3.078
96.36000 8.886
96.38000 3.942
96.40000 4.366
96.42000 6.253
96.44000 6.006
96.46000 7.262
96.48000 8.906
96.50000 4.855
96.52000 6.911
96.54000 6.453
96.56000 7.770
96.58000 8.576
96.60000 1.133
96.62000 0.647
96.64000 1.947
96.66000 2.954
96.68000 6.162
96.70000 9.096
96.72000 5.778
96.74000 5.037
96.76000 7.317
96.78000 7.821
96.80000 7.485
96.82000 2.217
96.84000 1.334
96.86000 1.715
96.88000 0.542
96.90000 5.008
96.92000 2.501
96.94000 1.313
96.96000 0.331
96.98000 3.688
97.00000 5.456
97.02000 8.787
97.04000 5.352
97.06000 10.769
97.08000 3.366
97.10000 4.872
97.12000 -0.155
97.14000 3.036
97.16000 6.203
97.18000 8.673
97.20000 7.315
97.22000 6.899
97.24000 7.055
97.26000 7.357
97.28000 5.063
97.30000 3.916
97.32000 8.724
97.34000 7.456
97.36000 5.852
97.38000 8.409
97.40000 4.795
97.42000 4.563
97.44000 5.330
97.46000 1.324
97.48000 -2.018
97.50000 6.088
97.52000 10.818
97.54000 5.491
97.56000 3.241
97.58000 7.734
97.60000 6.665
97.62000 7.830
97.64000 6.751
97.66000 2.722
97.68000 8.579
97.70000 9.461
97.72000 9.821
97.74000 6.477
97.76000 7.303
97.78000 6.219
97.80000 4.232
97.82000 2.960
97.84000 6.651
97.86000 7.977
97.88000 8.968
97.90000 6.838
97.92000 -0.192
97.94000 -1.047
97.96000 5.150
97.98000 8.126
98.00000 4.851
98.02000 4.597
98.04000 6.016
98.06000 5.181
98.08000 4.345
98.10000 4.238
98.12000 4.513
98.14000 9.172
98.16000 10.912
98.18000 9.326
98.20000 3.885
98.22000 4.679
98.24000 9.779
98.26000 13.242
98.28000 8.102
98.30000 10.839
98.32000 18.050
98.34000 14.339
98.36000 11.020
98.38000 6.837
98.40000 -1.981
98.42000 1.318
98.44000 8.260
98.46000 8.070
98.48000 9.266
98.50000 8.526
98.52000 7.265
98.54000 7.095
98.56000 3.931
98.58000 4.742
98.60000 10.898
98.62000 13.205
98.64000 14.496
98.66000 13.995
98.68000 10.183
98.70000 7.363
98.72000 4.058
98.74000 7.894
98.76000 10.615
98.78000 13.486
98.80000 11.358
98.82000 11.941
98.84000 9.373
98.86000 7.684
98.88000 6.524
98.90000 8.406
98.92000 9.616
98.94000 11.421
98.96000 18.989
98.98000 15.682
99.00000 8.203
99.02000 5.281
99.04000 10.967
99.06000 5.537
99.08000 11.725
99.10000 15.105
99.12000 11.066
99.14000 13.381
99.16000 11.234
99.18000 12.961
99.20000 10.660
99.22000 6.689
99.24000 2.059
99.26000 7.750
99.28000 9.843
99.30000 7.109
99.32000 3.823
99.34000 6.292
99.36000 4.331
99.38000 3.051
99.40000 6.984
99.42000 12.029
99.44000 12.889
99.46000 9.203
99.48000 4.333
99.50000 7.508
99.52000 13.874
99.54000 6.216
99.56000 1.230
99.58000 -2.003
99.60000 8.140
99.62000 9.696
99.64000 11.799
99.66000 5.834
99.68000 7.061
99.70000 7.984
99.72000 7.285
99.74000 4.075
99.76000 6.389
99.78000 2.776
99.80000 13.911
99.82000 8.818
99.84000 5.650
99.86000 -2.099
99.88000 2.033
99.90000 -0.241
99.92000 3.352
99.94000 3.698
99.96000 2.058
99.98000 0.000
