'Id: "0011389" Comment: "Integrate frame 0011389_Au-Ir-Rh_Au-Rich_XRD_Mapping-057-0000.gfrmwith cursor Wedge Cursor #5" Operator: "B?rgel" Anode: "Cu" Wavelength: "1.5406" Scantype: "2Theta (TwoTheta)" TimePerStep: "1" X: "-36" Y: "-22.5" Z: "5.95" 
10.00000 0.000
10.02000 -4.601
10.04000 -4.569
10.06000 -3.984
10.08000 3.796
10.10000 8.753
10.12000 13.519
10.14000 6.221
10.16000 11.304
10.18000 7.666
10.20000 8.404
10.22000 12.197
10.24000 30.770
10.26000 25.440
10.28000 18.996
10.30000 17.028
10.32000 13.196
10.34000 14.468
10.36000 12.327
10.38000 4.833
10.40000 2.070
10.42000 -4.528
10.44000 -1.013
10.46000 20.909
10.48000 24.135
10.50000 24.146
10.52000 11.830
10.54000 10.564
10.56000 4.342
10.58000 12.894
10.60000 18.697
10.62000 24.120
10.64000 25.948
10.66000 27.579
10.68000 16.997
10.70000 8.740
10.72000 3.653
10.74000 24.389
10.76000 22.872
10.78000 25.904
10.80000 25.317
10.82000 19.986
10.84000 15.207
10.86000 10.669
10.88000 2.208
10.90000 13.231
10.92000 22.789
10.94000 19.472
10.96000 13.947
10.98000 2.732
11.00000 20.625
11.02000 27.692
11.04000 16.126
11.06000 -2.959
11.08000 6.049
11.10000 16.381
11.12000 16.389
11.14000 6.944
11.16000 12.809
11.18000 22.506
11.20000 10.270
11.22000 4.972
11.24000 8.489
11.26000 11.075
11.28000 9.402
11.30000 8.501
11.32000 16.501
11.34000 6.540
11.36000 11.817
11.38000 21.271
11.40000 13.347
11.42000 4.247
11.44000 12.763
11.46000 16.301
11.48000 24.274
11.50000 19.336
11.52000 5.479
11.54000 17.663
11.56000 12.832
11.58000 8.355
11.60000 13.164
11.62000 13.783
11.64000 -4.449
11.66000 2.127
11.68000 15.451
11.70000 17.027
11.72000 14.937
11.74000 18.301
11.76000 26.056
11.78000 6.564
11.80000 0.848
11.82000 12.545
11.84000 20.325
11.86000 14.320
11.88000 8.337
11.90000 26.093
11.92000 23.579
11.94000 22.366
11.96000 15.106
11.98000 1.456
12.00000 7.828
12.02000 15.525
12.04000 16.531
12.06000 25.270
12.08000 25.983
12.10000 26.214
12.12000 14.073
12.14000 19.647
12.16000 9.516
12.18000 4.388
12.20000 6.406
12.22000 9.964
12.24000 11.813
12.26000 13.161
12.28000 8.852
12.30000 7.507
12.32000 10.473
12.34000 12.908
12.36000 16.964
12.38000 11.859
12.40000 13.311
12.42000 18.345
12.44000 6.676
12.46000 6.513
12.48000 17.194
12.50000 5.670
12.52000 1.026
12.54000 7.587
12.56000 3.646
12.58000 2.035
12.60000 15.785
12.62000 17.762
12.64000 11.343
12.66000 16.613
12.68000 11.888
12.70000 7.524
12.72000 7.895
12.74000 6.477
12.76000 6.318
12.78000 10.079
12.80000 10.801
12.82000 12.200
12.84000 20.005
12.86000 19.457
12.88000 18.781
12.90000 22.816
12.92000 2.267
12.94000 6.761
12.96000 20.356
12.98000 8.569
13.00000 12.256
13.02000 8.440
13.04000 6.481
13.06000 12.774
13.08000 14.282
13.10000 9.498
13.12000 3.235
13.14000 5.981
13.16000 15.087
13.18000 19.801
13.20000 13.638
13.22000 15.527
13.24000 14.051
13.26000 16.921
13.28000 15.608
13.30000 15.942
13.32000 6.057
13.34000 4.606
13.36000 6.774
13.38000 6.656
13.40000 14.311
13.42000 7.808
13.44000 9.860
13.46000 14.099
13.48000 14.342
13.50000 9.325
13.52000 4.022
13.54000 1.178
13.56000 7.950
13.58000 13.291
13.60000 8.761
13.62000 7.910
13.64000 7.803
13.66000 8.281
13.68000 -2.971
13.70000 0.858
13.72000 9.684
13.74000 13.269
13.76000 18.396
13.78000 23.203
13.80000 17.496
13.82000 8.397
13.84000 10.725
13.86000 12.093
13.88000 12.252
13.90000 9.551
13.92000 13.557
13.94000 6.795
13.96000 0.545
13.98000 8.078
14.00000 8.804
14.02000 3.398
14.04000 6.846
14.06000 3.863
14.08000 10.224
14.10000 10.850
14.12000 4.844
14.14000 10.229
14.16000 12.346
14.18000 9.912
14.20000 3.749
14.22000 2.062
14.24000 7.540
14.26000 16.763
14.28000 22.905
14.30000 21.646
14.32000 21.893
14.34000 18.493
14.36000 10.728
14.38000 2.677
14.40000 -4.457
14.42000 0.120
14.44000 2.662
14.46000 7.268
14.48000 5.246
14.50000 18.599
14.52000 21.738
14.54000 8.559
14.56000 5.724
14.58000 11.306
14.60000 6.649
14.62000 6.250
14.64000 18.520
14.66000 22.021
14.68000 15.734
14.70000 5.805
14.72000 -0.701
14.74000 4.360
14.76000 10.096
14.78000 12.630
14.80000 9.748
14.82000 2.531
14.84000 7.634
14.86000 10.608
14.88000 10.524
14.90000 5.199
14.92000 5.369
14.94000 1.280
14.96000 8.363
14.98000 8.662
15.00000 21.402
15.02000 19.903
15.04000 17.717
15.06000 14.229
15.08000 13.020
15.10000 9.876
15.12000 10.248
15.14000 9.787
15.16000 13.850
15.18000 7.585
15.20000 2.080
15.22000 -4.402
15.24000 2.371
15.26000 9.302
15.28000 8.517
15.30000 10.401
15.32000 10.089
15.34000 6.657
15.36000 6.870
15.38000 12.828
15.40000 5.663
15.42000 4.493
15.44000 7.828
15.46000 5.724
15.48000 6.847
15.50000 9.016
15.52000 7.083
15.54000 -4.403
15.56000 0.704
15.58000 6.405
15.60000 13.498
15.62000 13.490
15.64000 11.006
15.66000 13.229
15.68000 12.052
15.70000 14.916
15.72000 17.369
15.74000 19.512
15.76000 8.515
15.78000 1.579
15.80000 -0.962
15.82000 4.396
15.84000 7.853
15.86000 8.346
15.88000 8.787
15.90000 7.458
15.92000 7.958
15.94000 3.595
15.96000 5.096
15.98000 11.312
16.00000 4.850
16.02000 11.023
16.04000 5.049
16.06000 1.592
16.08000 7.806
16.10000 7.149
16.12000 11.369
16.14000 4.215
16.16000 -1.874
16.18000 -2.682
16.20000 -1.246
16.22000 1.714
16.24000 6.162
16.26000 8.139
16.28000 11.616
16.30000 3.454
16.32000 4.079
16.34000 12.202
16.36000 18.794
16.38000 10.130
16.40000 2.408
16.42000 6.857
16.44000 4.170
16.46000 3.337
16.48000 9.372
16.50000 3.529
16.52000 4.017
16.54000 5.036
16.56000 17.195
16.58000 7.959
16.60000 9.069
16.62000 13.055
16.64000 11.452
16.66000 7.743
16.68000 3.553
16.70000 2.875
16.72000 5.810
16.74000 1.056
16.76000 2.520
16.78000 4.138
16.80000 0.119
16.82000 1.693
16.84000 6.478
16.86000 -0.527
16.88000 5.571
16.90000 5.881
16.92000 2.969
16.94000 4.218
16.96000 5.056
16.98000 9.673
17.00000 6.636
17.02000 1.278
17.04000 0.453
17.06000 8.201
17.08000 6.650
17.10000 4.656
17.12000 6.013
17.14000 10.006
17.16000 4.886
17.18000 2.816
17.20000 1.197
17.22000 -2.597
17.24000 -3.906
17.26000 6.857
17.28000 4.576
17.30000 -1.643
17.32000 9.605
17.34000 4.835
17.36000 3.417
17.38000 13.424
17.40000 10.990
17.42000 5.640
17.44000 7.610
17.46000 2.525
17.48000 4.402
17.50000 7.257
17.52000 7.842
17.54000 8.258
17.56000 5.139
17.58000 1.309
17.60000 1.673
17.62000 1.392
17.64000 6.796
17.66000 8.879
17.68000 3.677
17.70000 8.644
17.72000 0.176
17.74000 1.835
17.76000 2.050
17.78000 4.462
17.80000 2.671
17.82000 3.152
17.84000 4.785
17.86000 6.609
17.88000 11.979
17.90000 9.889
17.92000 4.981
17.94000 1.891
17.96000 10.174
17.98000 9.511
18.00000 -1.117
18.02000 -4.326
18.04000 3.920
18.06000 7.508
18.08000 6.559
18.10000 4.619
18.12000 -0.007
18.14000 -0.075
18.16000 3.589
18.18000 8.495
18.20000 8.692
18.22000 7.232
18.24000 1.586
18.26000 0.858
18.28000 6.857
18.30000 6.245
18.32000 5.513
18.34000 0.566
18.36000 2.797
18.38000 5.415
18.40000 5.484
18.42000 -2.861
18.44000 -2.966
18.46000 0.637
18.48000 10.349
18.50000 17.614
18.52000 15.321
18.54000 10.000
18.56000 4.473
18.58000 4.054
18.60000 10.777
18.62000 7.505
18.64000 2.679
18.66000 4.475
18.68000 1.278
18.70000 1.583
18.72000 1.991
18.74000 5.092
18.76000 2.726
18.78000 0.502
18.80000 1.403
18.82000 7.252
18.84000 12.799
18.86000 10.106
18.88000 2.349
18.90000 -1.996
18.92000 -0.859
18.94000 2.807
18.96000 0.320
18.98000 -1.627
19.00000 6.449
19.02000 1.227
19.04000 0.376
19.06000 5.362
19.08000 3.398
19.10000 4.430
19.12000 6.855
19.14000 7.813
19.16000 15.704
19.18000 11.927
19.20000 3.467
19.22000 4.763
19.24000 4.102
19.26000 -1.266
19.28000 -1.290
19.30000 4.110
19.32000 1.276
19.34000 3.096
19.36000 1.061
19.38000 8.454
19.40000 4.825
19.42000 2.431
19.44000 4.230
19.46000 2.488
19.48000 8.803
19.50000 8.291
19.52000 2.165
19.54000 4.410
19.56000 3.374
19.58000 9.230
19.60000 8.250
19.62000 5.694
19.64000 10.363
19.66000 5.307
19.68000 -2.950
19.70000 -4.208
19.72000 1.107
19.74000 8.525
19.76000 8.854
19.78000 -0.317
19.80000 1.331
19.82000 3.935
19.84000 5.912
19.86000 9.674
19.88000 13.945
19.90000 10.584
19.92000 6.650
19.94000 6.522
19.96000 4.335
19.98000 4.950
20.00000 8.269
20.02000 8.414
20.04000 6.245
20.06000 2.511
20.08000 3.428
20.10000 8.261
20.12000 11.906
20.14000 6.079
20.16000 -1.574
20.18000 -4.195
20.20000 2.721
20.22000 4.746
20.24000 3.621
20.26000 -1.305
20.28000 -2.494
20.30000 0.488
20.32000 2.773
20.34000 5.620
20.36000 3.407
20.38000 5.895
20.40000 1.702
20.42000 2.361
20.44000 4.531
20.46000 -1.178
20.48000 0.280
20.50000 -3.960
20.52000 -4.182
20.54000 -1.910
20.56000 -0.028
20.58000 3.092
20.60000 3.880
20.62000 3.971
20.64000 7.115
20.66000 1.395
20.68000 4.573
20.70000 7.082
20.72000 5.144
20.74000 3.037
20.76000 2.298
20.78000 6.826
20.80000 8.051
20.82000 3.310
20.84000 2.529
20.86000 -0.826
20.88000 1.958
20.90000 3.270
20.92000 4.525
20.94000 -2.765
20.96000 -2.807
20.98000 3.242
21.00000 -1.029
21.02000 -0.674
21.04000 5.797
21.06000 7.491
21.08000 6.927
21.10000 0.978
21.12000 1.349
21.14000 7.628
21.16000 11.246
21.18000 12.516
21.20000 6.387
21.22000 6.493
21.24000 -2.144
21.26000 -3.985
21.28000 -1.261
21.30000 1.085
21.32000 6.584
21.34000 2.779
21.36000 0.676
21.38000 4.241
21.40000 5.847
21.42000 2.826
21.44000 5.556
21.46000 8.588
21.48000 4.414
21.50000 2.787
21.52000 0.665
21.54000 -4.113
21.56000 -0.133
21.58000 4.490
21.60000 8.531
21.62000 6.766
21.64000 2.157
21.66000 -3.339
21.68000 1.102
21.70000 6.596
21.72000 6.332
21.74000 5.477
21.76000 1.730
21.78000 2.866
21.80000 10.832
21.82000 7.866
21.84000 11.575
21.86000 11.473
21.88000 8.141
21.90000 6.191
21.92000 0.634
21.94000 3.943
21.96000 5.240
21.98000 3.004
22.00000 1.732
22.02000 4.221
22.04000 4.262
22.06000 8.101
22.08000 3.545
22.10000 1.684
22.12000 3.375
22.14000 -2.626
22.16000 -3.131
22.18000 0.573
22.20000 4.698
22.22000 1.597
22.24000 0.854
22.26000 4.834
22.28000 4.701
22.30000 6.290
22.32000 0.781
22.34000 -3.847
22.36000 -1.815
22.38000 6.303
22.40000 3.269
22.42000 -0.895
22.44000 1.204
22.46000 7.899
22.48000 9.669
22.50000 10.422
22.52000 13.621
22.54000 7.481
22.56000 2.773
22.58000 3.025
22.60000 5.935
22.62000 6.233
22.64000 2.759
22.66000 2.622
22.68000 1.294
22.70000 -0.633
22.72000 1.371
22.74000 7.338
22.76000 10.630
22.78000 7.546
22.80000 -0.525
22.82000 -0.171
22.84000 3.464
22.86000 7.401
22.88000 6.048
22.90000 4.216
22.92000 -0.356
22.94000 1.641
22.96000 7.373
22.98000 0.554
23.00000 -0.276
23.02000 2.287
23.04000 -4.026
23.06000 -3.976
23.08000 4.717
23.10000 11.984
23.12000 8.724
23.14000 3.463
23.16000 -0.851
23.18000 3.743
23.20000 7.999
23.22000 7.532
23.24000 0.455
23.26000 4.206
23.28000 -3.282
23.30000 -2.297
23.32000 5.142
23.34000 5.876
23.36000 2.967
23.38000 0.995
23.40000 1.420
23.42000 0.527
23.44000 -0.768
23.46000 1.244
23.48000 2.957
23.50000 4.153
23.52000 0.039
23.54000 0.052
23.56000 3.895
23.58000 7.010
23.60000 -0.551
23.62000 0.579
23.64000 3.784
23.66000 2.037
23.68000 3.160
23.70000 2.620
23.72000 0.644
23.74000 3.479
23.76000 5.344
23.78000 1.102
23.80000 2.080
23.82000 8.520
23.84000 1.120
23.86000 -2.014
23.88000 -2.115
23.90000 -0.695
23.92000 2.372
23.94000 -0.308
23.96000 3.447
23.98000 1.790
24.00000 2.177
24.02000 -4.005
24.04000 5.069
24.06000 7.345
24.08000 0.592
24.10000 1.055
24.12000 0.366
24.14000 -2.930
24.16000 0.952
24.18000 2.244
24.20000 -3.307
24.22000 -0.921
24.24000 3.177
24.26000 -0.219
24.28000 -0.083
24.30000 -3.991
24.32000 4.382
24.34000 6.521
24.36000 0.810
24.38000 -2.275
24.40000 -1.450
24.42000 4.213
24.44000 0.017
24.46000 -1.350
24.48000 -1.255
24.50000 -2.632
24.52000 -2.675
24.54000 -1.065
24.56000 -0.612
24.58000 1.839
24.60000 2.600
24.62000 -0.479
24.64000 -1.407
24.66000 -2.020
24.68000 -0.080
24.70000 3.147
24.72000 9.914
24.74000 4.838
24.76000 1.723
24.78000 -0.436
24.80000 -2.641
24.82000 -3.021
24.84000 -3.420
24.86000 0.915
24.88000 6.309
24.90000 6.488
24.92000 7.063
24.94000 3.329
24.96000 1.313
24.98000 3.360
25.00000 1.336
25.02000 1.204
25.04000 1.790
25.06000 2.144
25.08000 2.413
25.10000 0.597
25.12000 -2.328
25.14000 -0.281
25.16000 2.304
25.18000 2.660
25.20000 1.428
25.22000 -3.922
25.24000 -0.279
25.26000 -0.055
25.28000 -1.367
25.30000 6.345
25.32000 6.212
25.34000 2.607
25.36000 3.489
25.38000 8.215
25.40000 3.580
25.42000 -3.911
25.44000 2.739
25.46000 5.127
25.48000 2.914
25.50000 -0.527
25.52000 1.555
25.54000 4.832
25.56000 4.452
25.58000 0.589
25.60000 6.631
25.62000 1.081
25.64000 0.441
25.66000 2.972
25.68000 2.583
25.70000 5.011
25.72000 6.198
25.74000 5.602
25.76000 5.377
25.78000 6.502
25.80000 1.991
25.82000 1.988
25.84000 2.999
25.86000 4.528
25.88000 10.164
25.90000 5.083
25.92000 1.609
25.94000 6.671
25.96000 8.067
25.98000 2.866
26.00000 3.230
26.02000 3.121
26.04000 4.509
26.06000 3.546
26.08000 1.126
26.10000 6.569
26.12000 5.059
26.14000 4.266
26.16000 3.641
26.18000 5.390
26.20000 5.534
26.22000 5.987
26.24000 4.644
26.26000 -0.628
26.28000 0.054
26.30000 1.058
26.32000 0.662
26.34000 3.881
26.36000 8.876
26.38000 9.081
26.40000 6.484
26.42000 3.017
26.44000 6.627
26.46000 1.676
26.48000 8.729
26.50000 9.748
26.52000 8.906
26.54000 10.817
26.56000 12.081
26.58000 11.952
26.60000 0.859
26.62000 -3.803
26.64000 -0.368
26.66000 0.647
26.68000 3.848
26.70000 4.178
26.72000 3.795
26.74000 3.784
26.76000 10.817
26.78000 13.149
26.80000 5.995
26.82000 4.270
26.84000 4.326
26.86000 5.172
26.88000 3.295
26.90000 4.456
26.92000 8.815
26.94000 7.993
26.96000 6.449
26.98000 2.390
27.00000 -1.235
27.02000 0.383
27.04000 8.533
27.06000 5.765
27.08000 3.037
27.10000 7.146
27.12000 5.645
27.14000 5.978
27.16000 5.640
27.18000 7.036
27.20000 6.017
27.22000 2.961
27.24000 4.713
27.26000 5.263
27.28000 4.496
27.30000 2.024
27.32000 0.969
27.34000 2.280
27.36000 3.403
27.38000 6.492
27.40000 7.137
27.42000 3.709
27.44000 5.734
27.46000 5.360
27.48000 3.105
27.50000 4.643
27.52000 1.467
27.54000 3.294
27.56000 9.276
27.58000 2.941
27.60000 -0.668
27.62000 -1.841
27.64000 1.324
27.66000 0.014
27.68000 1.243
27.70000 1.871
27.72000 2.455
27.74000 6.841
27.76000 4.075
27.78000 5.796
27.80000 5.543
27.82000 4.110
27.84000 0.017
27.86000 3.641
27.88000 5.306
27.90000 -1.833
27.92000 7.380
27.94000 8.602
27.96000 3.991
27.98000 1.215
28.00000 0.397
28.02000 -0.718
28.04000 -0.516
28.06000 -3.760
28.08000 1.412
28.10000 2.025
28.12000 5.287
28.14000 2.542
28.16000 -0.609
28.18000 4.400
28.20000 6.025
28.22000 7.923
28.24000 1.744
28.26000 -3.101
28.28000 0.146
28.30000 0.555
28.32000 2.708
28.34000 2.684
28.36000 1.720
28.38000 -0.034
28.40000 -0.910
28.42000 5.566
28.44000 0.527
28.46000 0.648
28.48000 1.542
28.50000 0.073
28.52000 2.284
28.54000 -2.795
28.56000 0.065
28.58000 5.167
28.60000 2.276
28.62000 4.115
28.64000 -2.875
28.66000 0.497
28.68000 4.330
28.70000 3.874
28.72000 4.817
28.74000 5.606
28.76000 4.253
28.78000 -3.337
28.80000 -0.960
28.82000 5.650
28.84000 2.110
28.86000 3.973
28.88000 3.802
28.90000 0.922
28.92000 2.898
28.94000 8.412
28.96000 4.755
28.98000 -1.415
29.00000 -0.665
29.02000 1.997
29.04000 0.080
29.06000 5.373
29.08000 5.234
29.10000 3.242
29.12000 -1.750
29.14000 0.572
29.16000 4.236
29.18000 3.453
29.20000 3.215
29.22000 2.002
29.24000 3.483
29.26000 4.976
29.28000 6.604
29.30000 7.618
29.32000 6.200
29.34000 2.926
29.36000 7.733
29.38000 7.552
29.40000 2.373
29.42000 0.006
29.44000 -3.682
29.46000 2.022
29.48000 -0.162
29.50000 4.637
29.52000 3.167
29.54000 3.108
29.56000 6.829
29.58000 2.663
29.60000 -0.080
29.62000 -1.969
29.64000 -1.602
29.66000 1.190
29.68000 2.149
29.70000 4.575
29.72000 0.523
29.74000 3.742
29.76000 8.745
29.78000 4.862
29.80000 1.608
29.82000 3.514
29.84000 4.538
29.86000 2.207
29.88000 5.467
29.90000 2.782
29.92000 -2.056
29.94000 0.370
29.96000 3.897
29.98000 8.923
30.00000 4.308
30.02000 5.520
30.04000 2.033
30.06000 0.575
30.08000 6.015
30.10000 2.499
30.12000 0.415
30.14000 3.745
30.16000 4.593
30.18000 3.084
30.20000 5.451
30.22000 2.647
30.24000 2.178
30.26000 0.772
30.28000 1.700
30.30000 -0.834
30.32000 1.761
30.34000 4.861
30.36000 6.823
30.38000 2.787
30.40000 0.387
30.42000 1.829
30.44000 0.626
30.46000 1.197
30.48000 2.440
30.50000 -3.638
30.52000 -1.172
30.54000 3.857
30.56000 2.526
30.58000 7.245
30.60000 8.567
30.62000 5.065
30.64000 4.445
30.66000 3.862
30.68000 2.960
30.70000 2.623
30.72000 2.584
30.74000 3.194
30.76000 -0.618
30.78000 -0.079
30.80000 4.665
30.82000 -0.024
30.84000 0.961
30.86000 2.860
30.88000 4.655
30.90000 1.531
30.92000 -0.033
30.94000 0.752
30.96000 3.698
30.98000 -3.034
31.00000 -3.632
31.02000 -0.109
31.04000 0.488
31.06000 3.825
31.08000 5.494
31.10000 1.679
31.12000 1.273
31.14000 2.372
31.16000 4.100
31.18000 1.602
31.20000 1.480
31.22000 2.290
31.24000 -1.362
31.26000 1.208
31.28000 -1.246
31.30000 -0.961
31.32000 1.421
31.34000 2.371
31.36000 2.028
31.38000 1.271
31.40000 -2.176
31.42000 1.226
31.44000 1.468
31.46000 -0.062
31.48000 -0.850
31.50000 2.949
31.52000 3.689
31.54000 5.161
31.56000 2.041
31.58000 2.383
31.60000 3.440
31.62000 3.120
31.64000 -0.099
31.66000 -0.105
31.68000 -0.030
31.70000 -2.267
31.72000 -3.434
31.74000 1.722
31.76000 5.752
31.78000 4.192
31.80000 1.409
31.82000 2.584
31.84000 4.215
31.86000 3.690
31.88000 4.463
31.90000 5.583
31.92000 1.106
31.94000 0.293
31.96000 -1.463
31.98000 -1.584
32.00000 1.426
32.02000 2.382
32.04000 2.854
32.06000 -0.169
32.08000 0.801
32.10000 2.910
32.12000 -2.075
32.14000 2.322
32.16000 5.553
32.18000 8.980
32.20000 6.347
32.22000 1.575
32.24000 3.786
32.26000 4.795
32.28000 4.118
32.30000 2.843
32.32000 5.943
32.34000 0.773
32.36000 -3.572
32.38000 -1.320
32.40000 5.704
32.42000 5.560
32.44000 3.273
32.46000 0.935
32.48000 -3.382
32.50000 1.726
32.52000 4.649
32.54000 4.842
32.56000 0.569
32.58000 0.972
32.60000 3.454
32.62000 -1.377
32.64000 3.427
32.66000 8.887
32.68000 6.805
32.70000 0.186
32.72000 -0.534
32.74000 0.099
32.76000 2.229
32.78000 4.978
32.80000 8.885
32.82000 13.936
32.84000 13.866
32.86000 9.055
32.88000 3.938
32.90000 4.059
32.92000 2.802
32.94000 1.050
32.96000 1.054
32.98000 0.242
33.00000 3.781
33.02000 7.867
33.04000 5.609
33.06000 5.776
33.08000 6.202
33.10000 0.968
33.12000 -3.556
33.14000 -0.074
33.16000 -1.291
33.18000 0.995
33.20000 1.169
33.22000 2.972
33.24000 9.444
33.26000 10.015
33.28000 6.366
33.30000 3.942
33.32000 1.681
33.34000 2.675
33.36000 3.245
33.38000 8.276
33.40000 5.473
33.42000 1.561
33.44000 0.340
33.46000 0.293
33.48000 3.771
33.50000 3.726
33.52000 5.813
33.54000 6.549
33.56000 9.409
33.58000 12.865
33.60000 8.129
33.62000 0.766
33.64000 0.323
33.66000 3.807
33.68000 3.428
33.70000 6.729
33.72000 8.385
33.74000 1.769
33.76000 -0.833
33.78000 5.968
33.80000 4.766
33.82000 3.772
33.84000 0.352
33.86000 2.076
33.88000 6.237
33.90000 7.315
33.92000 4.667
33.94000 0.225
33.96000 3.218
33.98000 5.911
34.00000 4.789
34.02000 6.289
34.04000 2.963
34.06000 1.951
34.08000 2.718
34.10000 -0.060
34.12000 6.524
34.14000 3.250
34.16000 2.694
34.18000 0.354
34.20000 1.707
34.22000 6.436
34.24000 4.757
34.26000 4.919
34.28000 7.122
34.30000 -0.475
34.32000 -1.800
34.34000 -0.043
34.36000 2.449
34.38000 1.784
34.40000 3.177
34.42000 4.026
34.44000 5.551
34.46000 4.477
34.48000 4.198
34.50000 2.207
34.52000 5.495
34.54000 2.782
34.56000 0.551
34.58000 0.123
34.60000 3.968
34.62000 5.642
34.64000 6.969
34.66000 2.773
34.68000 -0.090
34.70000 0.183
34.72000 -2.362
34.74000 0.592
34.76000 4.936
34.78000 -3.550
34.80000 2.393
34.82000 3.835
34.84000 1.466
34.86000 -0.944
34.88000 2.956
34.90000 0.182
34.92000 0.049
34.94000 0.422
34.96000 2.197
34.98000 3.229
35.00000 3.208
35.02000 3.409
35.04000 0.845
35.06000 2.449
35.08000 2.834
35.10000 3.445
35.12000 -0.020
35.14000 -1.024
35.16000 -1.488
35.18000 2.029
35.20000 1.189
35.22000 0.539
35.24000 1.909
35.26000 2.460
35.28000 0.683
35.30000 -0.466
35.32000 -2.770
35.34000 1.673
35.36000 3.373
35.38000 7.770
35.40000 6.225
35.42000 -0.197
35.44000 -2.028
35.46000 -0.799
35.48000 -1.264
35.50000 -3.558
35.52000 0.791
35.54000 0.982
35.56000 -0.485
35.58000 1.196
35.60000 2.731
35.62000 4.785
35.64000 -2.444
35.66000 2.715
35.68000 6.785
35.70000 4.858
35.72000 5.909
35.74000 5.737
35.76000 3.264
35.78000 6.197
35.80000 4.064
35.82000 4.725
35.84000 2.460
35.86000 -0.291
35.88000 2.039
35.90000 2.266
35.92000 6.642
35.94000 3.672
35.96000 -3.555
35.98000 -2.073
36.00000 3.730
36.02000 6.319
36.04000 4.321
36.06000 2.758
36.08000 4.300
36.10000 1.147
36.12000 0.410
36.14000 -1.168
36.16000 1.408
36.18000 2.909
36.20000 2.420
36.22000 3.207
36.24000 1.647
36.26000 0.893
36.28000 -3.097
36.30000 0.828
36.32000 1.702
36.34000 2.753
36.36000 2.554
36.38000 2.090
36.40000 2.634
36.42000 4.292
36.44000 2.152
36.46000 -0.531
36.48000 -0.145
36.50000 1.723
36.52000 2.547
36.54000 2.879
36.56000 5.295
36.58000 7.557
36.60000 6.622
36.62000 2.565
36.64000 -0.505
36.66000 -2.710
36.68000 -3.609
36.70000 -1.936
36.72000 1.165
36.74000 2.243
36.76000 4.876
36.78000 2.785
36.80000 -0.384
36.82000 2.629
36.84000 -0.458
36.86000 -3.070
36.88000 -3.350
36.90000 -0.469
36.92000 2.779
36.94000 4.532
36.96000 8.034
36.98000 7.521
37.00000 2.341
37.02000 1.658
37.04000 -1.629
37.06000 -3.635
37.08000 0.145
37.10000 -1.354
37.12000 6.787
37.14000 5.829
37.16000 7.309
37.18000 6.479
37.20000 6.162
37.22000 7.470
37.24000 0.369
37.26000 -1.019
37.28000 5.124
37.30000 9.666
37.32000 7.907
37.34000 8.651
37.36000 7.517
37.38000 8.613
37.40000 12.328
37.42000 8.872
37.44000 6.140
37.46000 7.862
37.48000 1.864
37.50000 5.477
37.52000 4.752
37.54000 10.114
37.56000 9.225
37.58000 14.047
37.60000 15.768
37.62000 16.480
37.64000 11.164
37.66000 15.227
37.68000 10.696
37.70000 11.719
37.72000 12.235
37.74000 16.727
37.76000 19.843
37.78000 19.863
37.80000 21.007
37.82000 18.412
37.84000 14.954
37.86000 15.532
37.88000 16.256
37.90000 16.221
37.92000 20.745
37.94000 26.284
37.96000 23.521
37.98000 24.899
38.00000 24.131
38.02000 15.861
38.04000 17.801
38.06000 23.977
38.08000 26.865
38.10000 28.838
38.12000 29.743
38.14000 32.495
38.16000 32.315
38.18000 33.042
38.20000 32.035
38.22000 32.091
38.24000 28.491
38.26000 34.135
38.28000 37.962
38.30000 34.674
38.32000 32.541
38.34000 36.032
38.36000 38.617
38.38000 43.015
38.40000 44.823
38.42000 51.041
38.44000 46.457
38.46000 45.886
38.48000 50.425
38.50000 47.989
38.52000 47.659
38.54000 52.221
38.56000 57.558
38.58000 66.015
38.60000 69.163
38.62000 71.868
38.64000 74.558
38.66000 78.582
38.68000 79.778
38.70000 84.953
38.72000 92.230
38.74000 95.659
38.76000 97.875
38.78000 105.914
38.80000 109.520
38.82000 113.693
38.84000 117.077
38.86000 125.850
38.88000 134.846
38.90000 140.989
38.92000 145.021
38.94000 149.615
38.96000 155.313
38.98000 165.122
39.00000 174.059
39.02000 190.404
39.04000 205.987
39.06000 217.182
39.08000 229.119
39.10000 245.120
39.12000 261.576
39.14000 279.933
39.16000 295.187
39.18000 311.944
39.20000 333.388
39.22000 355.256
39.24000 374.909
39.26000 392.135
39.28000 417.020
39.30000 430.849
39.32000 454.201
39.34000 483.731
39.36000 500.181
39.38000 507.678
39.40000 528.397
39.42000 547.957
39.44000 565.358
39.46000 586.186
39.48000 600.178
39.50000 610.094
39.52000 623.501
39.54000 638.353
39.56000 635.626
39.58000 644.346
39.60000 652.371
39.62000 643.125
39.64000 638.203
39.66000 627.778
39.68000 621.353
39.70000 619.934
39.72000 611.843
39.74000 597.323
39.76000 577.797
39.78000 557.195
39.80000 543.288
39.82000 520.825
39.84000 504.868
39.86000 480.646
39.88000 461.755
39.90000 448.201
39.92000 424.931
39.94000 398.471
39.96000 367.678
39.98000 350.831
40.00000 331.054
40.02000 313.002
40.04000 299.718
40.06000 277.574
40.08000 258.679
40.10000 240.173
40.12000 230.083
40.14000 210.761
40.16000 198.318
40.18000 183.449
40.20000 166.880
40.22000 158.113
40.24000 149.991
40.26000 146.002
40.28000 133.800
40.30000 118.139
40.32000 110.181
40.34000 111.091
40.36000 101.436
40.38000 94.380
40.40000 86.398
40.42000 79.275
40.44000 79.396
40.46000 77.497
40.48000 73.130
40.50000 66.082
40.52000 70.853
40.54000 64.438
40.56000 61.465
40.58000 57.262
40.60000 55.703
40.62000 52.881
40.64000 47.464
40.66000 47.245
40.68000 43.184
40.70000 40.410
40.72000 35.520
40.74000 38.452
40.76000 38.734
40.78000 34.909
40.80000 37.451
40.82000 36.769
40.84000 32.549
40.86000 28.347
40.88000 27.299
40.90000 32.167
40.92000 31.318
40.94000 29.783
40.96000 23.789
40.98000 21.929
41.00000 17.043
41.02000 18.298
41.04000 17.717
41.06000 16.174
41.08000 16.910
41.10000 17.751
41.12000 15.578
41.14000 14.094
41.16000 17.145
41.18000 16.565
41.20000 12.149
41.22000 14.952
41.24000 9.983
41.26000 10.069
41.28000 11.839
41.30000 10.802
41.32000 9.826
41.34000 10.843
41.36000 8.220
41.38000 7.859
41.40000 8.887
41.42000 6.211
41.44000 8.380
41.46000 7.838
41.48000 8.922
41.50000 9.384
41.52000 7.855
41.54000 7.427
41.56000 5.159
41.58000 2.688
41.60000 4.498
41.62000 4.652
41.64000 8.377
41.66000 5.976
41.68000 5.568
41.70000 5.186
41.72000 9.232
41.74000 9.904
41.76000 5.019
41.78000 1.386
41.80000 4.346
41.82000 4.708
41.84000 4.102
41.86000 2.201
41.88000 1.859
41.90000 3.632
41.92000 4.223
41.94000 2.534
41.96000 -3.075
41.98000 1.310
42.00000 4.494
42.02000 4.598
42.04000 5.804
42.06000 7.157
42.08000 6.690
42.10000 7.298
42.12000 7.353
42.14000 0.465
42.16000 -1.961
42.18000 -1.166
42.20000 2.600
42.22000 4.912
42.24000 1.502
42.26000 -3.361
42.28000 0.779
42.30000 5.959
42.32000 7.637
42.34000 6.544
42.36000 2.543
42.38000 3.030
42.40000 2.402
42.42000 -1.874
42.44000 -0.988
42.46000 -0.184
42.48000 2.126
42.50000 1.958
42.52000 2.709
42.54000 -0.407
42.56000 -0.728
42.58000 -2.527
42.60000 -1.888
42.62000 1.075
42.64000 0.122
42.66000 2.670
42.68000 2.559
42.70000 3.834
42.72000 -0.136
42.74000 -2.168
42.76000 2.258
42.78000 1.423
42.80000 7.263
42.82000 4.760
42.84000 3.273
42.86000 3.243
42.88000 3.521
42.90000 -2.357
42.92000 -1.472
42.94000 -0.937
42.96000 3.877
42.98000 6.017
43.00000 1.875
43.02000 -1.567
43.04000 -3.299
43.06000 0.645
43.08000 0.949
43.10000 -1.830
43.12000 -0.124
43.14000 1.846
43.16000 1.966
43.18000 0.307
43.20000 -2.645
43.22000 0.452
43.24000 4.031
43.26000 0.879
43.28000 -0.063
43.30000 2.146
43.32000 0.559
43.34000 0.931
43.36000 2.960
43.38000 2.376
43.40000 -0.591
43.42000 -3.143
43.44000 -1.428
43.46000 0.702
43.48000 2.047
43.50000 -1.250
43.52000 2.089
43.54000 1.505
43.56000 -1.099
43.58000 -3.247
43.60000 -1.295
43.62000 -0.234
43.64000 3.302
43.66000 0.335
43.68000 2.159
43.70000 1.426
43.72000 1.255
43.74000 -1.671
43.76000 -1.376
43.78000 -1.204
43.80000 1.404
43.82000 -0.336
43.84000 -0.526
43.86000 3.183
43.88000 1.568
43.90000 0.124
43.92000 0.652
43.94000 0.595
43.96000 -1.690
43.98000 -0.582
44.00000 2.614
44.02000 1.795
44.04000 0.720
44.06000 -1.901
44.08000 -2.122
44.10000 -2.018
44.12000 0.561
44.14000 -0.451
44.16000 4.136
44.18000 2.729
44.20000 6.335
44.22000 2.765
44.24000 0.091
44.26000 0.012
44.28000 1.746
44.30000 0.923
44.32000 1.863
44.34000 -0.722
44.36000 2.289
44.38000 0.728
44.40000 -0.391
44.42000 3.878
44.44000 3.668
44.46000 4.011
44.48000 6.112
44.50000 1.401
44.52000 1.939
44.54000 1.351
44.56000 -1.189
44.58000 -3.183
44.60000 -3.182
44.62000 0.376
44.64000 4.957
44.66000 5.688
44.68000 3.672
44.70000 2.286
44.72000 2.939
44.74000 5.823
44.76000 9.762
44.78000 9.830
44.80000 6.948
44.82000 6.403
44.84000 2.517
44.86000 7.529
44.88000 6.535
44.90000 4.791
44.92000 7.388
44.94000 9.069
44.96000 9.193
44.98000 6.708
45.00000 10.608
45.02000 12.200
45.04000 7.337
45.06000 6.946
45.08000 11.334
45.10000 9.850
45.12000 7.428
45.14000 5.450
45.16000 5.053
45.18000 9.853
45.20000 12.703
45.22000 11.833
45.24000 10.928
45.26000 14.812
45.28000 13.549
45.30000 17.709
45.32000 17.225
45.34000 17.134
45.36000 18.683
45.38000 16.830
45.40000 20.330
45.42000 22.948
45.44000 21.866
45.46000 20.431
45.48000 20.892
45.50000 23.252
45.52000 23.232
45.54000 26.284
45.56000 25.967
45.58000 25.021
45.60000 29.215
45.62000 33.402
45.64000 27.758
45.66000 30.332
45.68000 34.282
45.70000 34.470
45.72000 34.045
45.74000 41.932
45.76000 42.485
45.78000 41.393
45.80000 41.354
45.82000 43.732
45.84000 44.827
45.86000 45.474
45.88000 48.589
45.90000 53.912
45.92000 53.124
45.94000 60.593
45.96000 60.477
45.98000 57.843
46.00000 57.223
46.02000 62.062
46.04000 65.507
46.06000 65.543
46.08000 65.323
46.10000 62.456
46.12000 65.894
46.14000 68.811
46.16000 70.129
46.18000 74.477
46.20000 70.593
46.22000 75.520
46.24000 68.779
46.26000 68.150
46.28000 72.754
46.30000 72.896
46.32000 73.473
46.34000 75.871
46.36000 76.409
46.38000 78.491
46.40000 71.365
46.42000 65.536
46.44000 70.771
46.46000 70.058
46.48000 65.566
46.50000 63.092
46.52000 59.312
46.54000 57.333
46.56000 56.187
46.58000 58.300
46.60000 55.885
46.62000 49.396
46.64000 47.232
46.66000 43.532
46.68000 45.907
46.70000 45.873
46.72000 41.380
46.74000 38.833
46.76000 38.432
46.78000 35.005
46.80000 33.125
46.82000 32.675
46.84000 31.216
46.86000 25.916
46.88000 27.399
46.90000 27.935
46.92000 23.186
46.94000 22.180
46.96000 18.292
46.98000 15.542
47.00000 15.275
47.02000 13.759
47.04000 14.098
47.06000 14.380
47.08000 17.101
47.10000 11.494
47.12000 9.274
47.14000 12.987
47.16000 8.423
47.18000 11.373
47.20000 6.930
47.22000 6.354
47.24000 7.498
47.26000 3.990
47.28000 4.986
47.30000 4.788
47.32000 3.303
47.34000 6.802
47.36000 6.682
47.38000 5.981
47.40000 7.769
47.42000 5.566
47.44000 2.777
47.46000 1.464
47.48000 1.776
47.50000 3.705
47.52000 2.699
47.54000 2.084
47.56000 1.202
47.58000 3.523
47.60000 2.307
47.62000 3.094
47.64000 5.165
47.66000 7.100
47.68000 2.194
47.70000 0.438
47.72000 1.481
47.74000 3.152
47.76000 3.045
47.78000 4.971
47.80000 2.913
47.82000 -0.397
47.84000 2.607
47.86000 3.305
47.88000 -2.797
47.90000 -1.807
47.92000 3.426
47.94000 3.999
47.96000 0.755
47.98000 0.595
48.00000 0.790
48.02000 0.679
48.04000 5.422
48.06000 2.132
48.08000 1.897
48.10000 0.506
48.12000 0.862
48.14000 3.329
48.16000 4.243
48.18000 6.293
48.20000 1.519
48.22000 3.701
48.24000 8.715
48.26000 6.390
48.28000 2.547
48.30000 1.019
48.32000 2.072
48.34000 -1.348
48.36000 -2.649
48.38000 0.474
48.40000 1.855
48.42000 -0.602
48.44000 -1.722
48.46000 -0.616
48.48000 -1.987
48.50000 3.269
48.52000 6.348
48.54000 3.468
48.56000 -1.143
48.58000 1.769
48.60000 3.449
48.62000 3.553
48.64000 -0.869
48.66000 -2.195
48.68000 -2.605
48.70000 2.804
48.72000 4.055
48.74000 1.506
48.76000 2.653
48.78000 5.270
48.80000 4.957
48.82000 2.266
48.84000 3.106
48.86000 7.455
48.88000 4.218
48.90000 2.344
48.92000 -0.707
48.94000 -1.110
48.96000 -0.071
48.98000 5.588
49.00000 9.742
49.02000 4.724
49.04000 2.511
49.06000 4.151
49.08000 2.626
49.10000 2.199
49.12000 0.368
49.14000 3.804
49.16000 3.408
49.18000 5.819
49.20000 4.487
49.22000 5.479
49.24000 5.654
49.26000 3.776
49.28000 2.483
49.30000 2.815
49.32000 2.417
49.34000 7.937
49.36000 5.129
49.38000 2.796
49.40000 8.073
49.42000 8.598
49.44000 9.884
49.46000 4.055
49.48000 2.233
49.50000 -2.583
49.52000 5.519
49.54000 12.447
49.56000 6.410
49.58000 9.682
49.60000 6.402
49.62000 5.955
49.64000 7.328
49.66000 8.492
49.68000 5.868
49.70000 4.892
49.72000 7.310
49.74000 8.215
49.76000 6.203
49.78000 3.338
49.80000 6.225
49.82000 7.107
49.84000 8.462
49.86000 7.567
49.88000 5.642
49.90000 4.851
49.92000 -0.007
49.94000 3.367
49.96000 5.192
49.98000 6.466
50.00000 7.294
50.02000 3.311
50.04000 0.806
50.06000 2.781
50.08000 2.813
50.10000 0.603
50.12000 -1.223
50.14000 -0.485
50.16000 1.338
50.18000 4.642
50.20000 6.348
50.22000 4.686
50.24000 6.053
50.26000 2.633
50.28000 6.394
50.30000 7.681
50.32000 2.595
50.34000 6.046
50.36000 7.342
50.38000 6.357
50.40000 3.421
50.42000 5.769
50.44000 8.110
50.46000 4.287
50.48000 2.642
50.50000 3.774
50.52000 -0.587
50.54000 2.330
50.56000 0.838
50.58000 4.961
50.60000 1.625
50.62000 1.615
50.64000 4.618
50.66000 7.435
50.68000 4.409
50.70000 5.058
50.72000 1.922
50.74000 1.997
50.76000 1.323
50.78000 4.542
50.80000 6.433
50.82000 2.391
50.84000 -1.494
50.86000 -2.585
50.88000 3.105
50.90000 0.493
50.92000 2.700
50.94000 5.703
50.96000 6.449
50.98000 5.045
51.00000 5.625
51.02000 5.564
51.04000 4.537
51.06000 1.136
51.08000 1.137
51.10000 4.426
51.12000 5.948
51.14000 -0.007
51.16000 0.490
51.18000 3.032
51.20000 6.510
51.22000 7.480
51.24000 5.150
51.26000 6.867
51.28000 1.898
51.30000 5.843
51.32000 4.662
51.34000 1.464
51.36000 1.968
51.38000 2.391
51.40000 2.135
51.42000 5.980
51.44000 6.603
51.46000 8.107
51.48000 4.941
51.50000 2.642
51.52000 2.925
51.54000 1.000
51.56000 0.477
51.58000 2.181
51.60000 2.185
51.62000 -2.556
51.64000 -1.486
51.66000 1.602
51.68000 2.262
51.70000 3.821
51.72000 1.987
51.74000 0.642
51.76000 1.714
51.78000 3.653
51.80000 2.583
51.82000 0.290
51.84000 5.783
51.86000 4.765
51.88000 1.849
51.90000 1.334
51.92000 0.494
51.94000 0.864
51.96000 1.820
51.98000 1.077
52.00000 1.007
52.02000 2.637
52.04000 2.169
52.06000 1.560
52.08000 -2.555
52.10000 1.048
52.12000 0.257
52.14000 0.254
52.16000 3.798
52.18000 2.282
52.20000 1.758
52.22000 7.199
52.24000 2.401
52.26000 2.465
52.28000 1.409
52.30000 2.741
52.32000 -0.218
52.34000 3.975
52.36000 6.664
52.38000 2.627
52.40000 2.112
52.42000 1.616
52.44000 -0.817
52.46000 0.625
52.48000 0.609
52.50000 -2.556
52.52000 -0.668
52.54000 3.262
52.56000 3.040
52.58000 1.813
52.60000 4.959
52.62000 3.850
52.64000 1.261
52.66000 3.831
52.68000 2.219
52.70000 2.143
52.72000 0.007
52.74000 0.914
52.76000 -0.679
52.78000 -0.714
52.80000 0.523
52.82000 1.522
52.84000 2.337
52.86000 0.970
52.88000 2.842
52.90000 0.358
52.92000 1.881
52.94000 0.487
52.96000 0.346
52.98000 0.514
53.00000 1.682
53.02000 0.913
53.04000 3.471
53.06000 1.909
53.08000 -0.327
53.10000 -2.546
53.12000 0.763
53.14000 6.276
53.16000 5.540
53.18000 4.718
53.20000 2.938
53.22000 0.749
53.24000 2.123
53.26000 2.448
53.28000 0.788
53.30000 0.368
53.32000 3.535
53.34000 5.111
53.36000 4.620
53.38000 2.013
53.40000 3.180
53.42000 2.862
53.44000 0.534
53.46000 1.178
53.48000 0.834
53.50000 1.573
53.52000 2.715
53.54000 -0.506
53.56000 2.319
53.58000 0.142
53.60000 1.259
53.62000 1.727
53.64000 -0.977
53.66000 1.642
53.68000 1.488
53.70000 -0.173
53.72000 3.255
53.74000 4.852
53.76000 0.873
53.78000 -2.526
53.80000 1.179
53.82000 4.051
53.84000 5.254
53.86000 5.998
53.88000 3.438
53.90000 6.390
53.92000 5.034
53.94000 4.985
53.96000 2.435
53.98000 0.089
54.00000 -1.586
54.02000 1.008
54.04000 1.389
54.06000 0.770
54.08000 1.883
54.10000 3.103
54.12000 -2.434
54.14000 -1.542
54.16000 2.175
54.18000 3.025
54.20000 2.288
54.22000 -0.023
54.24000 -0.191
54.26000 1.309
54.28000 1.121
54.30000 3.704
54.32000 3.435
54.34000 1.235
54.36000 -1.893
54.38000 0.810
54.40000 3.045
54.42000 2.004
54.44000 1.204
54.46000 -0.625
54.48000 -2.511
54.50000 5.145
54.52000 5.089
54.54000 3.028
54.56000 2.115
54.58000 1.846
54.60000 3.926
54.62000 1.630
54.64000 2.385
54.66000 0.626
54.68000 2.153
54.70000 3.558
54.72000 2.036
54.74000 2.363
54.76000 3.222
54.78000 0.822
54.80000 1.623
54.82000 2.761
54.84000 -0.832
54.86000 -1.806
54.88000 -2.493
54.90000 -0.147
54.92000 -1.028
54.94000 3.288
54.96000 2.654
54.98000 4.938
55.00000 1.856
55.02000 0.829
55.04000 1.899
55.06000 1.278
55.08000 2.318
55.10000 6.015
55.12000 5.078
55.14000 2.074
55.16000 2.639
55.18000 0.805
55.20000 2.026
55.22000 0.876
55.24000 -1.151
55.26000 0.525
55.28000 4.713
55.30000 2.274
55.32000 -0.573
55.34000 -0.671
55.36000 1.099
55.38000 0.692
55.40000 -1.536
55.42000 0.265
55.44000 4.091
55.46000 3.230
55.48000 2.282
55.50000 0.382
55.52000 -0.074
55.54000 0.161
55.56000 0.674
55.58000 0.137
55.60000 1.624
55.62000 3.435
55.64000 3.261
55.66000 4.344
55.68000 5.456
55.70000 3.124
55.72000 2.133
55.74000 3.753
55.76000 2.488
55.78000 1.818
55.80000 0.504
55.82000 1.014
55.84000 1.708
55.86000 2.204
55.88000 0.860
55.90000 -0.254
55.92000 -1.342
55.94000 0.581
55.96000 -0.067
55.98000 3.785
56.00000 2.600
56.02000 -2.461
56.04000 -0.308
56.06000 1.166
56.08000 5.650
56.10000 5.051
56.12000 4.524
56.14000 1.316
56.16000 0.662
56.18000 1.796
56.20000 4.821
56.22000 4.423
56.24000 2.217
56.26000 -1.121
56.28000 0.528
56.30000 -1.433
56.32000 1.594
56.34000 1.484
56.36000 1.331
56.38000 3.042
56.40000 3.371
56.42000 2.843
56.44000 0.128
56.46000 -2.449
56.48000 -0.600
56.50000 -0.688
56.52000 1.478
56.54000 1.965
56.56000 5.334
56.58000 7.888
56.60000 4.731
56.62000 0.238
56.64000 0.271
56.66000 1.867
56.68000 -0.157
56.70000 0.759
56.72000 3.659
56.74000 1.650
56.76000 2.887
56.78000 4.077
56.80000 1.214
56.82000 3.649
56.84000 5.597
56.86000 4.914
56.88000 4.773
56.90000 7.123
56.92000 5.055
56.94000 0.479
56.96000 -1.167
56.98000 -2.286
57.00000 -0.658
57.02000 4.975
57.04000 1.695
57.06000 -1.109
57.08000 -1.739
57.10000 0.322
57.12000 0.720
57.14000 -0.446
57.16000 1.374
57.18000 0.932
57.20000 -0.386
57.22000 1.078
57.24000 -0.493
57.26000 1.317
57.28000 2.697
57.30000 1.204
57.32000 -1.739
57.34000 -1.622
57.36000 -1.042
57.38000 0.472
57.40000 -1.628
57.42000 -2.416
57.44000 0.734
57.46000 -1.281
57.48000 0.903
57.50000 2.941
57.52000 3.364
57.54000 2.418
57.56000 1.210
57.58000 2.842
57.60000 3.419
57.62000 1.730
57.64000 1.468
57.66000 3.772
57.68000 5.143
57.70000 4.979
57.72000 0.372
57.74000 1.612
57.76000 2.689
57.78000 2.790
57.80000 1.627
57.82000 3.846
57.84000 1.245
57.86000 3.407
57.88000 2.508
57.90000 3.896
57.92000 1.160
57.94000 -1.886
57.96000 0.052
57.98000 3.651
58.00000 4.627
58.02000 1.927
58.04000 2.148
58.06000 1.490
58.08000 2.783
58.10000 7.328
58.12000 6.059
58.14000 9.941
58.16000 7.831
58.18000 4.294
58.20000 4.744
58.22000 6.529
58.24000 4.543
58.26000 2.205
58.28000 2.806
58.30000 3.681
58.32000 3.557
58.34000 0.871
58.36000 2.113
58.38000 1.431
58.40000 0.504
58.42000 3.570
58.44000 5.030
58.46000 6.003
58.48000 2.417
58.50000 0.370
58.52000 6.303
58.54000 4.455
58.56000 1.817
58.58000 -2.346
58.60000 1.077
58.62000 1.057
58.64000 4.483
58.66000 4.154
58.68000 0.286
58.70000 1.682
58.72000 3.246
58.74000 5.718
58.76000 3.210
58.78000 5.455
58.80000 10.099
58.82000 7.837
58.84000 3.676
58.86000 2.610
58.88000 2.572
58.90000 5.179
58.92000 4.661
58.94000 3.069
58.96000 0.040
58.98000 3.538
59.00000 5.750
59.02000 4.402
59.04000 -0.015
59.06000 2.630
59.08000 3.930
59.10000 3.995
59.12000 1.400
59.14000 2.262
59.16000 1.523
59.18000 0.474
59.20000 -2.371
59.22000 -1.075
59.24000 1.096
59.26000 2.261
59.28000 2.066
59.30000 0.190
59.32000 2.205
59.34000 3.326
59.36000 2.768
59.38000 1.879
59.40000 4.119
59.42000 5.060
59.44000 3.456
59.46000 2.809
59.48000 2.150
59.50000 0.676
59.52000 5.122
59.54000 2.689
59.56000 0.842
59.58000 1.168
59.60000 1.637
59.62000 -0.121
59.64000 -2.261
59.66000 -2.032
59.68000 4.625
59.70000 4.429
59.72000 1.577
59.74000 2.634
59.76000 1.018
59.78000 -0.919
59.80000 -2.150
59.82000 -0.350
59.84000 2.566
59.86000 3.076
59.88000 1.891
59.90000 1.156
59.92000 3.511
59.94000 3.774
59.96000 4.326
59.98000 0.056
60.00000 0.965
60.02000 3.788
60.04000 2.481
60.06000 2.088
60.08000 3.516
60.10000 -0.761
60.12000 -0.875
60.14000 1.151
60.16000 -0.653
60.18000 1.821
60.20000 -0.604
60.22000 1.880
60.24000 4.458
60.26000 2.845
60.28000 0.893
60.30000 0.412
60.32000 1.225
60.34000 5.546
60.36000 5.102
60.38000 1.070
60.40000 -1.449
60.42000 0.357
60.44000 3.083
60.46000 2.512
60.48000 0.975
60.50000 0.438
60.52000 -2.328
60.54000 1.304
60.56000 1.517
60.58000 5.400
60.60000 5.683
60.62000 5.879
60.64000 3.118
60.66000 6.223
60.68000 2.079
60.70000 -2.318
60.72000 2.566
60.74000 5.018
60.76000 1.957
60.78000 1.462
60.80000 2.241
60.82000 -0.531
60.84000 2.681
60.86000 4.862
60.88000 2.461
60.90000 -2.028
60.92000 -0.203
60.94000 4.421
60.96000 -1.779
60.98000 -2.304
61.00000 2.052
61.02000 3.796
61.04000 4.100
61.06000 3.763
61.08000 2.161
61.10000 2.833
61.12000 4.033
61.14000 3.721
61.16000 3.770
61.18000 4.421
61.20000 2.180
61.22000 0.395
61.24000 2.878
61.26000 1.139
61.28000 1.656
61.30000 1.969
61.32000 0.842
61.34000 -0.332
61.36000 1.512
61.38000 5.447
61.40000 2.193
61.42000 0.438
61.44000 1.641
61.46000 1.710
61.48000 -0.234
61.50000 -0.061
61.52000 1.320
61.54000 1.190
61.56000 3.227
61.58000 1.423
61.60000 1.591
61.62000 -1.080
61.64000 -2.286
61.66000 3.755
61.68000 5.427
61.70000 0.877
61.72000 3.404
61.74000 1.242
61.76000 3.221
61.78000 2.891
61.80000 0.596
61.82000 -0.380
61.84000 4.406
61.86000 3.371
61.88000 1.986
61.90000 2.910
61.92000 1.501
61.94000 2.853
61.96000 3.775
61.98000 4.280
62.00000 3.132
62.02000 5.664
62.04000 4.518
62.06000 3.200
62.08000 5.321
62.10000 6.851
62.12000 5.220
62.14000 3.680
62.16000 -2.257
62.18000 -2.159
62.20000 -1.294
62.22000 5.912
62.24000 4.340
62.26000 3.937
62.28000 -0.613
62.30000 0.590
62.32000 2.732
62.34000 2.395
62.36000 -0.253
62.38000 2.012
62.40000 3.000
62.42000 4.513
62.44000 0.742
62.46000 0.708
62.48000 2.098
62.50000 3.175
62.52000 0.924
62.54000 -0.817
62.56000 0.951
62.58000 0.249
62.60000 -1.410
62.62000 0.625
62.64000 4.138
62.66000 2.696
62.68000 0.544
62.70000 3.859
62.72000 2.209
62.74000 1.055
62.76000 2.486
62.78000 0.904
62.80000 2.480
62.82000 5.380
62.84000 4.113
62.86000 0.827
62.88000 -0.539
62.90000 2.705
62.92000 2.848
62.94000 0.618
62.96000 5.497
62.98000 1.752
63.00000 0.387
63.02000 2.270
63.04000 5.936
63.06000 2.252
63.08000 1.880
63.10000 1.964
63.12000 3.826
63.14000 3.292
63.16000 1.321
63.18000 1.371
63.20000 0.807
63.22000 3.772
63.24000 1.637
63.26000 1.290
63.28000 -0.547
63.30000 0.359
63.32000 -0.576
63.34000 0.197
63.36000 1.266
63.38000 2.948
63.40000 6.358
63.42000 4.693
63.44000 2.468
63.46000 1.180
63.48000 5.003
63.50000 6.117
63.52000 4.605
63.54000 0.837
63.56000 3.295
63.58000 3.142
63.60000 1.800
63.62000 0.373
63.64000 0.505
63.66000 4.223
63.68000 4.640
63.70000 1.885
63.72000 3.885
63.74000 0.681
63.76000 0.546
63.78000 4.391
63.80000 -1.463
63.82000 -2.236
63.84000 1.331
63.86000 4.407
63.88000 0.652
63.90000 1.004
63.92000 0.591
63.94000 1.560
63.96000 3.381
63.98000 3.614
64.00000 5.872
64.02000 6.856
64.04000 4.914
64.06000 2.772
64.08000 3.929
64.10000 -0.108
64.12000 0.452
64.14000 3.362
64.16000 1.416
64.18000 0.976
64.20000 2.359
64.22000 4.525
64.24000 4.262
64.26000 6.882
64.28000 4.476
64.30000 0.887
64.32000 2.291
64.34000 3.543
64.36000 3.110
64.38000 3.928
64.40000 3.476
64.42000 -2.218
64.44000 0.344
64.46000 5.453
64.48000 5.165
64.50000 1.118
64.52000 1.483
64.54000 3.074
64.56000 3.331
64.58000 2.804
64.60000 4.737
64.62000 0.651
64.64000 2.299
64.66000 1.668
64.68000 -0.519
64.70000 0.785
64.72000 -1.545
64.74000 -1.952
64.76000 1.763
64.78000 2.270
64.80000 4.458
64.82000 6.493
64.84000 3.547
64.86000 3.485
64.88000 3.193
64.90000 5.054
64.92000 3.146
64.94000 5.243
64.96000 2.517
64.98000 2.671
65.00000 3.994
65.02000 2.930
65.04000 0.737
65.06000 2.262
65.08000 0.093
65.10000 -1.161
65.12000 -0.515
65.14000 -2.248
65.16000 -1.294
65.18000 2.359
65.20000 1.323
65.22000 0.300
65.24000 2.917
65.26000 2.701
65.28000 2.835
65.30000 0.178
65.32000 -1.713
65.34000 -0.591
65.36000 -0.394
65.38000 -1.832
65.40000 -1.346
65.42000 0.713
65.44000 1.640
65.46000 3.580
65.48000 2.840
65.50000 1.823
65.52000 3.749
65.54000 1.115
65.56000 -0.455
65.58000 1.649
65.60000 2.090
65.62000 1.494
65.64000 -1.415
65.66000 -0.413
65.68000 -1.890
65.70000 -0.133
65.72000 -0.072
65.74000 1.742
65.76000 2.031
65.78000 -0.230
65.80000 1.176
65.82000 0.551
65.84000 0.315
65.86000 -1.731
65.88000 -1.124
65.90000 -1.521
65.92000 0.884
65.94000 1.176
65.96000 0.874
65.98000 0.513
66.00000 -0.313
66.02000 0.294
66.04000 -1.353
66.06000 1.039
66.08000 1.596
66.10000 -1.711
66.12000 -2.246
66.14000 3.300
66.16000 4.636
66.18000 1.413
66.20000 3.410
66.22000 2.068
66.24000 -0.314
66.26000 2.298
66.28000 2.651
66.30000 1.450
66.32000 4.511
66.34000 2.900
66.36000 4.135
66.38000 1.114
66.40000 1.516
66.42000 2.791
66.44000 0.331
66.46000 -0.591
66.48000 -2.266
66.50000 -1.364
66.52000 1.240
66.54000 2.194
66.56000 3.977
66.58000 3.254
66.60000 3.754
66.62000 2.012
66.64000 4.112
66.66000 4.433
66.68000 0.179
66.70000 -1.617
66.72000 0.443
66.74000 5.310
66.76000 4.401
66.78000 1.034
66.80000 -2.100
66.82000 1.286
66.84000 4.474
66.86000 4.968
66.88000 2.047
66.90000 3.257
66.92000 2.787
66.94000 1.826
66.96000 3.117
66.98000 4.319
67.00000 3.375
67.02000 4.810
67.04000 5.577
67.06000 6.375
67.08000 7.522
67.10000 5.522
67.12000 5.707
67.14000 6.162
67.16000 3.759
67.18000 3.033
67.20000 5.836
67.22000 4.821
67.24000 7.595
67.26000 6.903
67.28000 7.580
67.30000 6.457
67.32000 6.603
67.34000 8.533
67.36000 6.085
67.38000 3.762
67.40000 7.024
67.42000 8.733
67.44000 8.931
67.46000 9.767
67.48000 7.756
67.50000 6.087
67.52000 6.744
67.54000 6.192
67.56000 5.921
67.58000 2.230
67.60000 2.859
67.62000 2.467
67.64000 5.437
67.66000 6.828
67.68000 4.031
67.70000 3.057
67.72000 2.363
67.74000 3.178
67.76000 4.931
67.78000 5.802
67.80000 6.138
67.82000 2.629
67.84000 0.845
67.86000 1.296
67.88000 1.647
67.90000 2.182
67.92000 4.355
67.94000 2.601
67.96000 0.868
67.98000 2.655
68.00000 5.272
68.02000 3.329
68.04000 2.687
68.06000 1.806
68.08000 1.063
68.10000 -1.335
68.12000 1.191
68.14000 2.901
68.16000 1.904
68.18000 2.454
68.20000 3.051
68.22000 1.459
68.24000 1.929
68.26000 2.503
68.28000 3.771
68.30000 0.216
68.32000 0.285
68.34000 0.325
68.36000 0.388
68.38000 -0.823
68.40000 -1.580
68.42000 1.207
68.44000 1.411
68.46000 -2.195
68.48000 -0.794
68.50000 -0.775
68.52000 -0.665
68.54000 -0.806
68.56000 0.838
68.58000 1.846
68.60000 -1.096
68.62000 -0.664
68.64000 -1.241
68.66000 -1.387
68.68000 -0.863
68.70000 1.212
68.72000 2.283
68.74000 -0.387
68.76000 -1.331
68.78000 -1.079
68.80000 -1.699
68.82000 2.484
68.84000 0.309
68.86000 -2.077
68.88000 -0.402
68.90000 0.668
68.92000 2.668
68.94000 3.045
68.96000 -0.284
68.98000 -1.083
69.00000 0.808
69.02000 1.220
69.04000 1.183
69.06000 -0.373
69.08000 -1.827
69.10000 -2.133
69.12000 -2.131
69.14000 0.810
69.16000 0.179
69.18000 2.666
69.20000 0.944
69.22000 2.371
69.24000 1.330
69.26000 1.177
69.28000 1.498
69.30000 1.341
69.32000 2.101
69.34000 -0.070
69.36000 0.913
69.38000 1.047
69.40000 1.013
69.42000 -0.053
69.44000 1.611
69.46000 1.779
69.48000 2.079
69.50000 0.199
69.52000 -1.456
69.54000 -0.060
69.56000 -1.063
69.58000 0.826
69.60000 1.064
69.62000 2.237
69.64000 4.042
69.66000 0.259
69.68000 -0.486
69.70000 1.653
69.72000 1.900
69.74000 0.543
69.76000 1.848
69.78000 4.098
69.80000 2.800
69.82000 0.749
69.84000 2.374
69.86000 0.523
69.88000 -2.073
69.90000 0.524
69.92000 -0.475
69.94000 -1.124
69.96000 0.457
69.98000 0.271
70.00000 1.673
70.02000 3.006
70.04000 0.051
70.06000 0.561
70.08000 2.187
70.10000 1.277
70.12000 2.795
70.14000 5.938
70.16000 5.064
70.18000 1.555
70.20000 1.957
70.22000 2.706
70.24000 3.122
70.26000 1.352
70.28000 0.181
70.30000 0.593
70.32000 3.918
70.34000 6.865
70.36000 4.341
70.38000 1.714
70.40000 0.701
70.42000 2.691
70.44000 3.735
70.46000 4.546
70.48000 0.971
70.50000 -0.107
70.52000 0.751
70.54000 -2.030
70.56000 -0.152
70.58000 2.729
70.60000 3.022
70.62000 2.936
70.64000 2.867
70.66000 3.483
70.68000 5.678
70.70000 3.346
70.72000 2.478
70.74000 2.645
70.76000 2.942
70.78000 2.743
70.80000 2.236
70.82000 2.269
70.84000 6.695
70.86000 4.922
70.88000 1.716
70.90000 -2.008
70.92000 0.500
70.94000 1.070
70.96000 -0.845
70.98000 0.323
71.00000 2.811
71.02000 3.698
71.04000 4.692
71.06000 2.633
71.08000 2.662
71.10000 3.346
71.12000 2.329
71.14000 0.296
71.16000 -1.116
71.18000 2.962
71.20000 2.116
71.22000 2.041
71.24000 2.637
71.26000 4.733
71.28000 2.761
71.30000 0.692
71.32000 2.540
71.34000 2.649
71.36000 1.040
71.38000 1.351
71.40000 2.277
71.42000 1.336
71.44000 1.789
71.46000 1.011
71.48000 2.031
71.50000 3.418
71.52000 3.245
71.54000 3.784
71.56000 1.599
71.58000 0.309
71.60000 -1.060
71.62000 -2.009
71.64000 1.569
71.66000 1.063
71.68000 2.919
71.70000 3.734
71.72000 3.026
71.74000 2.380
71.76000 1.380
71.78000 2.746
71.80000 -0.764
71.82000 0.512
71.84000 2.444
71.86000 2.749
71.88000 2.629
71.90000 -0.010
71.92000 0.475
71.94000 2.696
71.96000 1.985
71.98000 1.948
72.00000 1.606
72.02000 3.693
72.04000 2.069
72.06000 -1.988
72.08000 0.026
72.10000 2.100
72.12000 3.144
72.14000 3.094
72.16000 4.115
72.18000 2.771
72.20000 2.067
72.22000 3.169
72.24000 3.597
72.26000 0.104
72.28000 1.829
72.30000 2.791
72.32000 0.860
72.34000 -1.232
72.36000 0.532
72.38000 0.120
72.40000 2.096
72.42000 1.617
72.44000 -1.255
72.46000 1.984
72.48000 -0.848
72.50000 -0.093
72.52000 -0.002
72.54000 1.673
72.56000 1.343
72.58000 0.395
72.60000 -0.147
72.62000 1.277
72.64000 3.296
72.66000 -0.226
72.68000 -1.994
72.70000 0.346
72.72000 2.024
72.74000 -0.101
72.76000 -1.048
72.78000 1.070
72.80000 1.181
72.82000 -0.101
72.84000 1.308
72.86000 1.424
72.88000 0.242
72.90000 2.505
72.92000 2.684
72.94000 -0.443
72.96000 0.088
72.98000 2.378
73.00000 0.691
73.02000 -1.069
73.04000 3.401
73.06000 3.696
73.08000 2.977
73.10000 1.164
73.12000 2.309
73.14000 2.203
73.16000 3.835
73.18000 0.888
73.20000 2.233
73.22000 1.538
73.24000 -0.492
73.26000 1.937
73.28000 -0.059
73.30000 0.148
73.32000 -0.402
73.34000 -1.983
73.36000 -0.192
73.38000 0.123
73.40000 0.218
73.42000 -0.760
73.44000 1.116
73.46000 3.132
73.48000 1.607
73.50000 3.191
73.52000 1.121
73.54000 -0.598
73.56000 0.638
73.58000 -0.514
73.60000 -1.281
73.62000 -0.459
73.64000 1.539
73.66000 2.982
73.68000 5.852
73.70000 5.275
73.72000 4.016
73.74000 5.283
73.76000 -0.022
73.78000 0.471
73.80000 -0.265
73.82000 0.466
73.84000 4.412
73.86000 2.991
73.88000 0.334
73.90000 -1.427
73.92000 -1.963
73.94000 0.383
73.96000 0.583
73.98000 -1.034
74.00000 0.832
74.02000 1.417
74.04000 3.086
74.06000 1.652
74.08000 0.471
74.10000 3.103
74.12000 1.836
74.14000 2.042
74.16000 2.878
74.18000 2.713
74.20000 1.650
74.22000 2.144
74.24000 4.135
74.26000 1.950
74.28000 2.221
74.30000 0.440
74.32000 -0.617
74.34000 -0.444
74.36000 -1.948
74.38000 -0.079
74.40000 0.034
74.42000 1.507
74.44000 3.393
74.46000 5.151
74.48000 2.538
74.50000 -0.462
74.52000 -0.540
74.54000 -0.486
74.56000 -0.029
74.58000 0.786
74.60000 0.983
74.62000 1.490
74.64000 2.305
74.66000 0.344
74.68000 2.747
74.70000 4.985
74.72000 5.057
74.74000 1.642
74.76000 0.070
74.78000 -0.013
74.80000 -0.593
74.82000 0.766
74.84000 1.529
74.86000 3.638
74.88000 1.569
74.90000 1.936
74.92000 -0.817
74.94000 0.116
74.96000 0.386
74.98000 -1.962
75.00000 1.792
75.02000 0.143
75.04000 -1.962
75.06000 -0.784
75.08000 -0.893
75.10000 -0.506
75.12000 2.967
75.14000 4.218
75.16000 2.229
75.18000 0.978
75.20000 1.827
75.22000 1.475
75.24000 -0.199
75.26000 -0.299
75.28000 1.787
75.30000 1.632
75.32000 1.604
75.34000 0.902
75.36000 -0.703
75.38000 0.174
75.40000 2.043
75.42000 2.116
75.44000 4.218
75.46000 2.502
75.48000 1.874
75.50000 2.393
75.52000 2.822
75.54000 1.372
75.56000 3.443
75.58000 1.827
75.60000 2.454
75.62000 0.941
75.64000 1.159
75.66000 -1.950
75.68000 0.512
75.70000 2.230
75.72000 2.641
75.74000 4.864
75.76000 5.212
75.78000 1.537
75.80000 1.097
75.82000 0.936
75.84000 2.720
75.86000 2.299
75.88000 2.058
75.90000 1.386
75.92000 4.305
75.94000 3.834
75.96000 0.826
75.98000 -1.491
76.00000 -1.410
76.02000 0.088
76.04000 1.942
76.06000 0.249
76.08000 1.540
76.10000 2.141
76.12000 2.522
76.14000 1.750
76.16000 0.349
76.18000 3.792
76.20000 4.234
76.22000 5.973
76.24000 2.845
76.26000 -0.175
76.28000 -0.138
76.30000 -0.731
76.32000 2.212
76.34000 3.583
76.36000 1.979
76.38000 1.085
76.40000 0.932
76.42000 2.568
76.44000 0.949
76.46000 -1.294
76.48000 2.238
76.50000 3.976
76.52000 1.989
76.54000 -1.369
76.56000 -1.931
76.58000 3.874
76.60000 2.796
76.62000 0.859
76.64000 1.240
76.66000 -0.632
76.68000 1.584
76.70000 1.185
76.72000 1.604
76.74000 1.220
76.76000 0.482
76.78000 1.125
76.80000 -0.048
76.82000 1.372
76.84000 4.505
76.86000 1.326
76.88000 -1.322
76.90000 -0.746
76.92000 3.967
76.94000 2.214
76.96000 4.247
76.98000 0.941
77.00000 2.161
77.02000 1.189
77.04000 2.783
77.06000 -0.173
77.08000 0.983
77.10000 2.990
77.12000 4.509
77.14000 3.884
77.16000 3.960
77.18000 0.959
77.20000 -1.858
77.22000 -1.977
77.24000 1.018
77.26000 1.675
77.28000 2.110
77.30000 -1.059
77.32000 -0.941
77.34000 -0.185
77.36000 -1.359
77.38000 1.671
77.40000 2.011
77.42000 2.220
77.44000 0.214
77.46000 -0.042
77.48000 3.145
77.50000 5.636
77.52000 4.445
77.54000 1.886
77.56000 1.744
77.58000 1.714
77.60000 1.376
77.62000 1.294
77.64000 -2.002
77.66000 -0.720
77.68000 3.673
77.70000 4.277
77.72000 3.463
77.74000 3.021
77.76000 0.784
77.78000 -0.413
77.80000 0.489
77.82000 0.576
77.84000 4.227
77.86000 2.636
77.88000 1.428
77.90000 3.182
77.92000 0.031
77.94000 -0.474
77.96000 1.733
77.98000 -1.135
78.00000 0.058
78.02000 -0.496
78.04000 0.849
78.06000 3.284
78.08000 1.348
78.10000 -0.817
78.12000 1.443
78.14000 -0.151
78.16000 -2.039
78.18000 0.390
78.20000 3.319
78.22000 1.499
78.24000 -1.016
78.26000 -1.719
78.28000 0.960
78.30000 -1.161
78.32000 0.233
78.34000 -1.294
78.36000 1.362
78.38000 -0.822
78.40000 1.773
78.42000 6.008
78.44000 4.432
78.46000 4.621
78.48000 2.948
78.50000 0.247
78.52000 1.718
78.54000 1.798
78.56000 1.952
78.58000 1.128
78.60000 4.155
78.62000 -0.238
78.64000 -1.790
78.66000 0.794
78.68000 3.641
78.70000 0.936
78.72000 -0.247
78.74000 1.777
78.76000 1.588
78.78000 0.499
78.80000 -1.358
78.82000 -2.062
78.84000 -2.062
78.86000 -1.073
78.88000 1.419
78.90000 2.338
78.92000 2.231
78.94000 1.549
78.96000 -0.061
78.98000 -1.352
79.00000 1.601
79.02000 0.476
79.04000 -0.108
79.06000 -0.311
79.08000 0.249
79.10000 -1.134
79.12000 0.176
79.14000 4.182
79.16000 5.793
79.18000 6.588
79.20000 1.217
79.22000 4.965
79.24000 1.320
79.26000 0.663
79.28000 -0.033
79.30000 0.239
79.32000 -1.174
79.34000 0.507
79.36000 1.497
79.38000 0.200
79.40000 -0.744
79.42000 1.489
79.44000 4.198
79.46000 0.929
79.48000 -0.039
79.50000 -2.103
79.52000 1.202
79.54000 1.089
79.56000 0.488
79.58000 -2.049
79.60000 -1.129
79.62000 2.837
79.64000 5.221
79.66000 0.768
79.68000 0.088
79.70000 3.936
79.72000 0.958
79.74000 1.404
79.76000 2.700
79.78000 2.301
79.80000 2.102
79.82000 -1.741
79.84000 0.043
79.86000 1.588
79.88000 0.223
79.90000 -2.146
79.92000 -1.491
79.94000 0.592
79.96000 -0.755
79.98000 1.710
80.00000 1.587
80.02000 2.102
80.04000 4.683
80.06000 2.561
80.08000 2.690
80.10000 6.383
80.12000 5.712
80.14000 4.895
80.16000 4.821
80.18000 3.382
80.20000 1.661
80.22000 6.684
80.24000 11.479
80.26000 11.086
80.28000 9.701
80.30000 6.218
80.32000 6.677
80.34000 7.753
80.36000 7.669
80.38000 11.577
80.40000 13.495
80.42000 10.531
80.44000 11.722
80.46000 7.508
80.48000 8.841
80.50000 9.212
80.52000 10.154
80.54000 12.748
80.56000 10.444
80.58000 11.414
80.60000 13.884
80.62000 13.571
80.64000 13.435
80.66000 15.509
80.68000 18.574
80.70000 18.126
80.72000 16.839
80.74000 18.933
80.76000 18.478
80.78000 18.440
80.80000 18.591
80.82000 16.941
80.84000 15.289
80.86000 19.492
80.88000 18.010
80.90000 16.058
80.92000 18.205
80.94000 17.920
80.96000 18.778
80.98000 21.153
81.00000 19.580
81.02000 19.382
81.04000 19.832
81.06000 17.648
81.08000 22.080
81.10000 20.295
81.12000 25.573
81.14000 27.220
81.16000 22.799
81.18000 21.486
81.20000 27.552
81.22000 28.122
81.24000 21.682
81.26000 20.246
81.28000 17.826
81.30000 17.027
81.32000 19.366
81.34000 21.921
81.36000 21.135
81.38000 21.380
81.40000 19.488
81.42000 25.069
81.44000 25.057
81.46000 21.318
81.48000 20.895
81.50000 19.071
81.52000 23.031
81.54000 17.316
81.56000 13.288
81.58000 17.034
81.60000 16.910
81.62000 14.249
81.64000 15.452
81.66000 14.959
81.68000 11.413
81.70000 11.753
81.72000 11.608
81.74000 10.777
81.76000 12.123
81.78000 16.385
81.80000 12.144
81.82000 12.294
81.84000 13.651
81.86000 10.276
81.88000 9.910
81.90000 11.264
81.92000 8.700
81.94000 9.105
81.96000 9.017
81.98000 9.509
82.00000 9.139
82.02000 5.661
82.04000 6.262
82.06000 4.120
82.08000 5.578
82.10000 6.000
82.12000 7.001
82.14000 5.391
82.16000 2.286
82.18000 1.915
82.20000 5.047
82.22000 3.229
82.24000 2.071
82.26000 2.327
82.28000 -0.524
82.30000 -2.203
82.32000 -0.047
82.34000 3.887
82.36000 5.526
82.38000 3.014
82.40000 3.643
82.42000 3.041
82.44000 2.437
82.46000 5.467
82.48000 3.934
82.50000 5.711
82.52000 4.624
82.54000 2.187
82.56000 0.350
82.58000 -0.200
82.60000 2.553
82.62000 5.960
82.64000 4.846
82.66000 2.282
82.68000 -1.921
82.70000 0.526
82.72000 0.254
82.74000 3.445
82.76000 3.926
82.78000 3.378
82.80000 1.080
82.82000 -1.434
82.84000 -0.749
82.86000 -1.099
82.88000 -0.508
82.90000 -2.162
82.92000 1.516
82.94000 1.192
82.96000 1.926
82.98000 0.328
83.00000 -0.690
83.02000 0.607
83.04000 4.113
83.06000 2.070
83.08000 1.910
83.10000 -0.061
83.12000 1.791
83.14000 3.099
83.16000 4.397
83.18000 2.418
83.20000 -0.591
83.22000 -1.098
83.24000 4.820
83.26000 1.666
83.28000 -0.825
83.30000 -0.964
83.32000 -2.178
83.34000 -2.106
83.36000 0.149
83.38000 1.964
83.40000 3.130
83.42000 0.652
83.44000 -0.888
83.46000 -0.157
83.48000 -2.185
83.50000 -0.691
83.52000 1.679
83.54000 4.155
83.56000 1.769
83.58000 2.307
83.60000 -0.324
83.62000 0.720
83.64000 -1.110
83.66000 3.349
83.68000 6.636
83.70000 4.471
83.72000 5.647
83.74000 2.882
83.76000 4.068
83.78000 6.485
83.80000 5.908
83.82000 3.817
83.84000 2.872
83.86000 5.636
83.88000 7.426
83.90000 5.503
83.92000 7.085
83.94000 4.597
83.96000 4.500
83.98000 8.969
84.00000 4.878
84.02000 3.320
84.04000 5.059
84.06000 7.686
84.08000 9.261
84.10000 7.091
84.12000 10.202
84.14000 10.091
84.16000 10.456
84.18000 9.095
84.20000 12.434
84.22000 12.684
84.24000 14.278
84.26000 14.160
84.28000 11.992
84.30000 13.182
84.32000 12.074
84.34000 13.464
84.36000 14.415
84.38000 15.265
84.40000 16.442
84.42000 20.023
84.44000 19.717
84.46000 19.094
84.48000 19.008
84.50000 21.432
84.52000 18.744
84.54000 20.670
84.56000 22.263
84.58000 18.169
84.60000 19.121
84.62000 25.034
84.64000 25.712
84.66000 24.696
84.68000 26.801
84.70000 29.113
84.72000 26.942
84.74000 30.286
84.76000 32.749
84.78000 30.557
84.80000 31.015
84.82000 30.410
84.84000 30.906
84.86000 31.888
84.88000 35.678
84.90000 34.479
84.92000 32.640
84.94000 32.760
84.96000 37.554
84.98000 36.367
85.00000 34.490
85.02000 39.170
85.04000 40.287
85.06000 36.027
85.08000 32.494
85.10000 34.464
85.12000 37.097
85.14000 34.582
85.16000 31.453
85.18000 28.724
85.20000 31.398
85.22000 28.640
85.24000 32.874
85.26000 33.708
85.28000 30.634
85.30000 27.566
85.32000 31.432
85.34000 32.294
85.36000 30.609
85.38000 26.926
85.40000 25.046
85.42000 22.748
85.44000 31.888
85.46000 34.763
85.48000 28.416
85.50000 26.974
85.52000 29.504
85.54000 28.744
85.56000 26.061
85.58000 25.500
85.60000 21.063
85.62000 20.380
85.64000 18.351
85.66000 21.980
85.68000 21.300
85.70000 18.846
85.72000 17.795
85.74000 15.775
85.76000 15.669
85.78000 11.339
85.80000 11.925
85.82000 13.782
85.84000 12.369
85.86000 12.320
85.88000 10.828
85.90000 8.028
85.92000 8.033
85.94000 7.482
85.96000 6.607
85.98000 8.083
86.00000 8.728
86.02000 8.701
86.04000 9.364
86.06000 9.771
86.08000 6.477
86.10000 4.866
86.12000 4.109
86.14000 4.968
86.16000 5.169
86.18000 3.065
86.20000 4.709
86.22000 7.900
86.24000 4.664
86.26000 1.807
86.28000 0.344
86.30000 0.492
86.32000 2.173
86.34000 2.541
86.36000 2.303
86.38000 0.211
86.40000 -2.007
86.42000 2.717
86.44000 4.629
86.46000 4.635
86.48000 3.799
86.50000 4.741
86.52000 5.859
86.54000 3.739
86.56000 2.343
86.58000 2.265
86.60000 0.035
86.62000 1.662
86.64000 1.793
86.66000 2.693
86.68000 0.883
86.70000 1.657
86.72000 1.961
86.74000 3.036
86.76000 2.723
86.78000 1.747
86.80000 0.134
86.82000 -1.268
86.84000 2.770
86.86000 3.554
86.88000 -0.339
86.90000 -1.947
86.92000 -0.930
86.94000 2.635
86.96000 3.352
86.98000 2.930
87.00000 2.231
87.02000 0.350
87.04000 3.903
87.06000 3.538
87.08000 3.735
87.10000 1.840
87.12000 2.083
87.14000 2.718
87.16000 2.274
87.18000 1.772
87.20000 1.069
87.22000 1.148
87.24000 1.979
87.26000 1.618
87.28000 2.508
87.30000 0.618
87.32000 0.131
87.34000 1.147
87.36000 -0.095
87.38000 -1.582
87.40000 -1.902
87.42000 -0.304
87.44000 2.449
87.46000 1.950
87.48000 -0.095
87.50000 1.415
87.52000 2.567
87.54000 0.550
87.56000 -1.466
87.58000 0.097
87.60000 1.179
87.62000 0.091
87.64000 -0.780
87.66000 -1.896
87.68000 0.333
87.70000 2.868
87.72000 1.657
87.74000 3.557
87.76000 4.934
87.78000 1.448
87.80000 -0.536
87.82000 1.881
87.84000 2.894
87.86000 4.648
87.88000 3.107
87.90000 1.097
87.92000 1.697
87.94000 0.215
87.96000 0.694
87.98000 0.997
88.00000 1.769
88.02000 1.859
88.04000 1.881
88.06000 0.704
88.08000 0.716
88.10000 5.207
88.12000 4.866
88.14000 5.533
88.16000 5.023
88.18000 -0.279
88.20000 -0.944
88.22000 -1.864
88.24000 -0.141
88.26000 0.106
88.28000 0.562
88.30000 2.198
88.32000 1.237
88.34000 0.985
88.36000 1.831
88.38000 -1.263
88.40000 -1.094
88.42000 -1.283
88.44000 0.588
88.46000 2.323
88.48000 -0.001
88.50000 -1.030
88.52000 0.203
88.54000 0.430
88.56000 0.489
88.58000 0.553
88.60000 3.065
88.62000 3.415
88.64000 -0.915
88.66000 -0.063
88.68000 0.904
88.70000 -0.202
88.72000 1.006
88.74000 2.069
88.76000 4.380
88.78000 1.264
88.80000 1.553
88.82000 1.154
88.84000 -0.370
88.86000 0.790
88.88000 0.452
88.90000 0.970
88.92000 1.986
88.94000 -1.107
88.96000 -1.437
88.98000 -0.042
89.00000 1.227
89.02000 1.206
89.04000 -1.124
89.06000 -1.878
89.08000 0.901
89.10000 4.455
89.12000 2.132
89.14000 1.000
89.16000 2.708
89.18000 2.294
89.20000 3.711
89.22000 2.001
89.24000 1.176
89.26000 1.654
89.28000 1.093
89.30000 0.925
89.32000 0.661
89.34000 0.900
89.36000 2.668
89.38000 1.526
89.40000 3.310
89.42000 0.891
89.44000 0.597
89.46000 -0.106
89.48000 -1.317
89.50000 -0.173
89.52000 3.647
89.54000 4.359
89.56000 -0.684
89.58000 1.691
89.60000 0.297
89.62000 0.448
89.64000 0.054
89.66000 3.251
89.68000 0.108
89.70000 -1.125
89.72000 1.878
89.74000 3.175
89.76000 0.743
89.78000 2.510
89.80000 -1.079
89.82000 1.122
89.84000 0.301
89.86000 0.549
89.88000 0.216
89.90000 -0.872
89.92000 0.624
89.94000 1.584
89.96000 -0.480
89.98000 -0.449
90.00000 0.945
90.02000 1.405
90.04000 2.716
90.06000 2.714
90.08000 0.453
90.10000 1.431
90.12000 2.844
90.14000 1.308
90.16000 6.651
90.18000 0.656
90.20000 -1.819
90.22000 1.812
90.24000 1.476
90.26000 1.500
90.28000 2.351
90.30000 3.147
90.32000 1.393
90.34000 1.088
90.36000 1.652
90.38000 1.035
90.40000 0.560
90.42000 0.455
90.44000 2.379
90.46000 1.495
90.48000 -0.125
90.50000 -0.319
90.52000 0.708
90.54000 -0.265
90.56000 0.199
90.58000 3.080
90.60000 3.190
90.62000 2.764
90.64000 0.922
90.66000 0.274
90.68000 1.907
90.70000 1.156
90.72000 1.909
90.74000 -0.169
90.76000 1.345
90.78000 -1.747
90.80000 -1.863
90.82000 0.810
90.84000 1.378
90.86000 0.999
90.88000 1.073
90.90000 1.976
90.92000 2.476
90.94000 0.578
90.96000 -0.731
90.98000 -0.494
91.00000 0.003
91.02000 -0.463
91.04000 1.323
91.06000 -1.739
91.08000 -0.670
91.10000 0.463
91.12000 -0.192
91.14000 -0.765
91.16000 1.225
91.18000 -0.191
91.20000 2.253
91.22000 0.553
91.24000 4.539
91.26000 1.643
91.28000 0.547
91.30000 4.744
91.32000 3.254
91.34000 1.873
91.36000 0.519
91.38000 0.671
91.40000 0.344
91.42000 0.075
91.44000 0.318
91.46000 0.894
91.48000 -0.287
91.50000 1.261
91.52000 0.809
91.54000 -1.102
91.56000 -1.659
91.58000 -0.335
91.60000 1.418
91.62000 -1.877
91.64000 0.637
91.66000 3.341
91.68000 4.650
91.70000 3.779
91.72000 4.084
91.74000 3.877
91.76000 -0.048
91.78000 -1.032
91.80000 1.466
91.82000 2.367
91.84000 2.368
91.86000 3.271
91.88000 0.352
91.90000 -0.924
91.92000 -0.561
91.94000 -1.142
91.96000 -0.251
91.98000 -0.184
92.00000 1.427
92.02000 1.439
92.04000 1.575
92.06000 0.433
92.08000 2.983
92.10000 0.644
92.12000 1.280
92.14000 -0.731
92.16000 3.039
92.18000 4.259
92.20000 6.678
92.22000 3.409
92.24000 0.495
92.26000 -1.037
92.28000 2.222
92.30000 5.136
92.32000 2.613
92.34000 -0.175
92.36000 1.803
92.38000 5.542
92.40000 1.389
92.42000 -1.834
92.44000 4.184
92.46000 4.008
92.48000 3.636
92.50000 3.208
92.52000 4.922
92.54000 3.412
92.56000 3.874
92.58000 3.348
92.60000 1.745
92.62000 0.473
92.64000 1.005
92.66000 1.151
92.68000 0.344
92.70000 2.903
92.72000 3.664
92.74000 4.678
92.76000 4.662
92.78000 1.408
92.80000 0.736
92.82000 1.316
92.84000 -1.818
92.86000 2.009
92.88000 4.736
92.90000 0.706
92.92000 3.193
92.94000 6.979
92.96000 3.087
92.98000 1.736
93.00000 1.900
93.02000 -0.202
93.04000 2.030
93.06000 3.466
93.08000 1.523
93.10000 2.262
93.12000 3.060
93.14000 4.835
93.16000 1.678
93.18000 2.270
93.20000 2.733
93.22000 5.179
93.24000 0.412
93.26000 0.198
93.28000 0.479
93.30000 1.357
93.32000 4.224
93.34000 3.788
93.36000 7.245
93.38000 4.676
93.40000 1.279
93.42000 2.536
93.44000 -0.181
93.46000 1.546
93.48000 5.758
93.50000 5.777
93.52000 5.168
93.54000 3.517
93.56000 4.202
93.58000 3.446
93.60000 1.249
93.62000 0.611
93.64000 3.755
93.66000 3.019
93.68000 -0.353
93.70000 2.763
93.72000 2.498
93.74000 2.855
93.76000 0.709
93.78000 2.052
93.80000 1.069
93.82000 0.953
93.84000 3.932
93.86000 5.079
93.88000 4.707
93.90000 1.468
93.92000 -1.158
93.94000 -1.542
93.96000 -1.852
93.98000 2.120
94.00000 4.143
94.02000 3.056
94.04000 1.938
94.06000 2.948
94.08000 0.766
94.10000 1.596
94.12000 3.405
94.14000 2.150
94.16000 3.626
94.18000 3.032
94.20000 0.449
94.22000 -0.201
94.24000 -0.865
94.26000 -0.219
94.28000 1.450
94.30000 -0.571
94.32000 -0.122
94.34000 0.384
94.36000 -0.417
94.38000 0.354
94.40000 -1.875
94.42000 -0.772
94.44000 4.579
94.46000 3.684
94.48000 4.168
94.50000 4.212
94.52000 2.924
94.54000 1.055
94.56000 -0.214
94.58000 -0.817
94.60000 0.464
94.62000 2.853
94.64000 3.518
94.66000 2.959
94.68000 1.950
94.70000 1.812
94.72000 3.042
94.74000 3.234
94.76000 3.188
94.78000 1.871
94.80000 2.588
94.82000 1.625
94.84000 2.998
94.86000 3.045
94.88000 0.620
94.90000 2.773
94.92000 3.052
94.94000 2.464
94.96000 3.954
94.98000 3.681
95.00000 4.571
95.02000 0.231
95.04000 0.479
95.06000 5.047
95.08000 2.917
95.10000 3.105
95.12000 2.455
95.14000 1.581
95.16000 2.933
95.18000 3.938
95.20000 2.249
95.22000 2.960
95.24000 2.155
95.26000 2.669
95.28000 2.187
95.30000 2.001
95.32000 3.714
95.34000 2.712
95.36000 1.133
95.38000 -0.755
95.40000 -1.864
95.42000 3.127
95.44000 7.602
95.46000 3.972
95.48000 3.379
95.50000 -0.102
95.52000 2.037
95.54000 4.066
95.56000 5.505
95.58000 2.450
95.60000 3.247
95.62000 3.262
95.64000 1.936
95.66000 3.683
95.68000 1.172
95.70000 2.365
95.72000 2.568
95.74000 2.172
95.76000 -0.378
95.78000 3.028
95.80000 4.532
95.82000 1.740
95.84000 0.443
95.86000 -1.829
95.88000 0.844
95.90000 1.766
95.92000 3.300
95.94000 4.172
95.96000 0.772
95.98000 0.525
96.00000 3.030
96.02000 4.264
96.04000 5.571
96.06000 3.691
96.08000 3.699
96.10000 6.476
96.12000 2.754
96.14000 2.155
96.16000 3.041
96.18000 4.587
96.20000 9.628
96.22000 5.670
96.24000 -0.007
96.26000 -0.749
96.28000 3.255
96.30000 0.123
96.32000 2.065
96.34000 4.128
96.36000 3.211
96.38000 2.801
96.40000 3.226
96.42000 3.629
96.44000 2.105
96.46000 0.547
96.48000 0.918
96.50000 2.878
96.52000 1.645
96.54000 2.874
96.56000 3.880
96.58000 2.440
96.60000 2.064
96.62000 2.509
96.64000 6.267
96.66000 5.640
96.68000 1.985
96.70000 1.648
96.72000 2.639
96.74000 5.697
96.76000 5.902
96.78000 3.933
96.80000 2.734
96.82000 4.709
96.84000 0.289
96.86000 -1.115
96.88000 4.604
96.90000 5.501
96.92000 3.582
96.94000 2.930
96.96000 4.586
96.98000 4.404
97.00000 3.117
97.02000 -1.812
97.04000 2.894
97.06000 7.872
97.08000 6.293
97.10000 4.226
97.12000 3.113
97.14000 2.999
97.16000 4.310
97.18000 0.731
97.20000 2.577
97.22000 3.331
97.24000 3.989
97.26000 4.594
97.28000 2.223
97.30000 1.693
97.32000 3.835
97.34000 5.995
97.36000 7.387
97.38000 5.149
97.40000 0.409
97.42000 6.669
97.44000 3.884
97.46000 2.540
97.48000 0.006
97.50000 3.930
97.52000 4.480
97.54000 4.708
97.56000 5.161
97.58000 3.262
97.60000 2.088
97.62000 -0.793
97.64000 2.144
97.66000 6.886
97.68000 7.833
97.70000 12.881
97.72000 9.537
97.74000 5.761
97.76000 8.132
97.78000 3.890
97.80000 2.239
97.82000 4.675
97.84000 6.347
97.86000 4.572
97.88000 9.736
97.90000 10.587
97.92000 10.164
97.94000 4.149
97.96000 2.434
97.98000 -1.740
98.00000 0.203
98.02000 11.250
98.04000 10.660
98.06000 6.843
98.08000 1.924
98.10000 0.199
98.12000 3.334
98.14000 4.848
98.16000 3.815
98.18000 7.120
98.20000 7.989
98.22000 4.945
98.24000 5.458
98.26000 6.634
98.28000 5.067
98.30000 8.462
98.32000 7.733
98.34000 7.269
98.36000 -1.052
98.38000 0.912
98.40000 1.365
98.42000 7.124
98.44000 7.469
98.46000 6.524
98.48000 4.792
98.50000 1.276
98.52000 2.638
98.54000 3.187
98.56000 2.477
98.58000 3.682
98.60000 8.006
98.62000 8.861
98.64000 8.268
98.66000 4.194
98.68000 1.201
98.70000 -0.155
98.72000 0.148
98.74000 0.515
98.76000 1.040
98.78000 8.201
98.80000 8.387
98.82000 0.737
98.84000 -0.401
98.86000 0.297
98.88000 5.193
98.90000 1.732
98.92000 2.075
98.94000 5.273
98.96000 -0.708
98.98000 4.845
99.00000 10.406
99.02000 10.170
99.04000 3.907
99.06000 5.895
99.08000 8.062
99.10000 4.483
99.12000 2.375
99.14000 7.680
99.16000 7.057
99.18000 1.409
99.20000 -0.687
99.22000 6.939
99.24000 2.076
99.26000 7.343
99.28000 2.370
99.30000 3.916
99.32000 0.006
99.34000 4.523
99.36000 3.152
99.38000 -1.805
99.40000 0.098
99.42000 9.305
99.44000 6.982
99.46000 7.475
99.48000 6.769
99.50000 2.257
99.52000 3.205
99.54000 5.827
99.56000 1.631
99.58000 4.239
99.60000 1.726
99.62000 -0.291
99.64000 4.112
99.66000 5.905
99.68000 0.789
99.70000 0.526
99.72000 1.315
99.74000 -0.291
99.76000 -0.052
99.78000 7.331
99.80000 8.053
99.82000 4.877
99.84000 -2.452
99.86000 4.022
99.88000 0.202
99.90000 0.544
99.92000 13.571
99.94000 10.854
99.96000 0.414
99.98000 0.000
