'Id: "0011388" Comment: "Integrate frame 0011388_Au-Ir-Rh_Rh-rich_XRD-Mapping-297-0000.gfrmwith cursor Wedge Cursor #5" Operator: "B?rgel" Anode: "Cu" Wavelength: "1.5406" Scantype: "2Theta (TwoTheta)" TimePerStep: "1" X: "-27" Y: "31.5" Z: "5.95" 
10.00000 0.000
10.02000 -0.120
10.04000 5.874
10.06000 18.044
10.08000 12.727
10.10000 10.366
10.12000 29.767
10.14000 24.514
10.16000 13.885
10.18000 1.001
10.20000 -4.475
10.22000 16.103
10.24000 19.758
10.26000 29.402
10.28000 35.965
10.30000 35.174
10.32000 16.461
10.34000 2.249
10.36000 7.688
10.38000 20.012
10.40000 12.815
10.42000 21.240
10.44000 25.690
10.46000 21.609
10.48000 16.805
10.50000 15.010
10.52000 7.477
10.54000 11.760
10.56000 3.382
10.58000 -4.479
10.60000 16.740
10.62000 30.266
10.64000 28.542
10.66000 16.791
10.68000 4.946
10.70000 5.845
10.72000 11.881
10.74000 22.186
10.76000 23.025
10.78000 27.858
10.80000 24.345
10.82000 18.133
10.84000 6.958
10.86000 -4.482
10.88000 6.225
10.90000 14.206
10.92000 18.173
10.94000 24.046
10.96000 14.931
10.98000 24.005
11.00000 16.364
11.02000 1.560
11.04000 5.024
11.06000 19.069
11.08000 9.581
11.10000 11.368
11.12000 8.026
11.14000 16.158
11.16000 9.502
11.18000 7.437
11.20000 23.231
11.22000 15.360
11.24000 3.699
11.26000 17.590
11.28000 15.366
11.30000 11.738
11.32000 14.566
11.34000 22.856
11.36000 18.255
11.38000 14.250
11.40000 0.461
11.42000 21.147
11.44000 13.880
11.46000 6.611
11.48000 12.006
11.50000 7.109
11.52000 6.865
11.54000 10.711
11.56000 10.668
11.58000 4.983
11.60000 6.678
11.62000 10.099
11.64000 -0.629
11.66000 4.609
11.68000 16.281
11.70000 13.514
11.72000 14.763
11.74000 15.615
11.76000 12.214
11.78000 6.995
11.80000 12.946
11.82000 13.413
11.84000 8.852
11.86000 13.070
11.88000 18.006
11.90000 17.960
11.92000 21.833
11.94000 11.129
11.96000 21.458
11.98000 10.677
12.00000 8.718
12.02000 17.231
12.04000 19.600
12.06000 19.194
12.08000 12.355
12.10000 19.950
12.12000 22.760
12.14000 20.994
12.16000 15.089
12.18000 3.609
12.20000 -0.830
12.22000 -4.511
12.24000 -1.564
12.26000 5.330
12.28000 7.829
12.30000 8.961
12.32000 11.848
12.34000 10.931
12.36000 8.736
12.38000 6.436
12.40000 17.950
12.42000 27.862
12.44000 6.418
12.46000 -0.844
12.48000 6.531
12.50000 14.203
12.52000 9.773
12.54000 11.138
12.56000 10.976
12.58000 28.978
12.60000 21.850
12.62000 5.296
12.64000 8.858
12.66000 18.735
12.68000 16.544
12.70000 10.707
12.72000 0.717
12.74000 1.170
12.76000 13.554
12.78000 14.224
12.80000 11.451
12.82000 11.255
12.84000 14.517
12.86000 7.951
12.88000 3.292
12.90000 5.990
12.92000 8.614
12.94000 14.774
12.96000 14.378
12.98000 3.373
13.00000 5.160
13.02000 5.835
13.04000 1.108
13.06000 6.089
13.08000 8.857
13.10000 12.207
13.12000 17.539
13.14000 8.871
13.16000 11.657
13.18000 10.727
13.20000 6.320
13.22000 4.941
13.24000 5.245
13.26000 3.933
13.28000 5.840
13.30000 11.466
13.32000 9.388
13.34000 9.472
13.36000 14.274
13.38000 4.940
13.40000 8.117
13.42000 15.561
13.44000 15.551
13.46000 12.285
13.48000 6.292
13.50000 11.183
13.52000 12.055
13.54000 11.449
13.56000 0.241
13.58000 6.108
13.60000 4.454
13.62000 8.759
13.64000 5.848
13.66000 6.694
13.68000 7.730
13.70000 6.073
13.72000 -0.351
13.74000 4.455
13.76000 7.157
13.78000 6.992
13.80000 9.521
13.82000 11.233
13.84000 11.431
13.86000 15.390
13.88000 21.156
13.90000 14.869
13.92000 8.789
13.94000 5.716
13.96000 2.447
13.98000 3.018
14.00000 -0.717
14.02000 -2.397
14.04000 -2.401
14.06000 -4.534
14.08000 9.805
14.10000 6.953
14.12000 16.763
14.14000 17.888
14.16000 9.157
14.18000 11.211
14.20000 12.742
14.22000 10.838
14.24000 12.832
14.26000 22.751
14.28000 19.793
14.30000 3.000
14.32000 2.181
14.34000 3.070
14.36000 4.796
14.38000 5.195
14.40000 7.357
14.42000 8.935
14.44000 2.582
14.46000 6.689
14.48000 8.159
14.50000 3.587
14.52000 7.538
14.54000 15.439
14.56000 9.782
14.58000 1.632
14.60000 2.169
14.62000 3.575
14.64000 -1.258
14.66000 3.211
14.68000 6.364
14.70000 1.166
14.72000 5.800
14.74000 11.335
14.76000 16.197
14.78000 14.564
14.80000 11.961
14.82000 19.674
14.84000 14.075
14.86000 4.654
14.88000 9.896
14.90000 9.600
14.92000 1.302
14.94000 10.211
14.96000 5.473
14.98000 5.108
15.00000 4.418
15.02000 0.001
15.04000 0.541
15.06000 6.872
15.08000 9.580
15.10000 -1.709
15.12000 -0.221
15.14000 -4.496
15.16000 -0.133
15.18000 7.962
15.20000 8.996
15.22000 12.875
15.24000 4.139
15.26000 -0.673
15.28000 5.686
15.30000 15.419
15.32000 17.131
15.34000 11.270
15.36000 9.621
15.38000 7.097
15.40000 6.034
15.42000 2.950
15.44000 0.885
15.46000 9.405
15.48000 3.376
15.50000 6.947
15.52000 8.174
15.54000 5.958
15.56000 0.816
15.58000 -4.479
15.60000 1.335
15.62000 5.480
15.64000 1.733
15.66000 5.830
15.68000 1.897
15.70000 -2.839
15.72000 4.173
15.74000 14.234
15.76000 7.331
15.78000 6.083
15.80000 6.721
15.82000 3.906
15.84000 9.100
15.86000 6.128
15.88000 10.520
15.90000 8.732
15.92000 3.451
15.94000 4.509
15.96000 3.931
15.98000 9.136
16.00000 6.198
16.02000 -2.118
16.04000 -2.559
16.06000 2.179
16.08000 -2.373
16.10000 10.540
16.12000 15.770
16.14000 5.644
16.16000 10.608
16.18000 17.208
16.20000 5.226
16.22000 -3.992
16.24000 -1.575
16.26000 4.506
16.28000 13.082
16.30000 4.327
16.32000 0.203
16.34000 2.643
16.36000 -2.379
16.38000 -4.428
16.40000 4.037
16.42000 8.822
16.44000 5.123
16.46000 5.690
16.48000 4.659
16.50000 6.574
16.52000 14.741
16.54000 9.180
16.56000 4.914
16.58000 8.168
16.60000 10.642
16.62000 7.802
16.64000 2.605
16.66000 7.419
16.68000 9.865
16.70000 5.107
16.72000 5.105
16.74000 7.138
16.76000 7.801
16.78000 0.832
16.80000 3.779
16.82000 8.129
16.84000 11.009
16.86000 0.372
16.88000 0.723
16.90000 6.432
16.92000 5.740
16.94000 5.359
16.96000 2.116
16.98000 5.174
17.00000 13.233
17.02000 12.524
17.04000 1.890
17.06000 3.953
17.08000 2.903
17.10000 4.546
17.12000 6.853
17.14000 3.562
17.16000 3.484
17.18000 9.038
17.20000 13.374
17.22000 8.987
17.24000 8.600
17.26000 4.267
17.28000 13.510
17.30000 17.569
17.32000 15.495
17.34000 8.409
17.36000 4.910
17.38000 13.949
17.40000 11.483
17.42000 8.034
17.44000 2.587
17.46000 6.346
17.48000 10.740
17.50000 11.693
17.52000 8.133
17.54000 0.510
17.56000 -4.353
17.58000 4.858
17.60000 2.794
17.62000 6.628
17.64000 6.711
17.66000 12.542
17.68000 17.517
17.70000 12.290
17.72000 -0.324
17.74000 -0.115
17.76000 11.223
17.78000 10.673
17.80000 3.033
17.82000 -0.269
17.84000 0.305
17.86000 3.656
17.88000 11.062
17.90000 12.491
17.92000 9.276
17.94000 9.120
17.96000 11.538
17.98000 12.709
18.00000 10.867
18.02000 3.400
18.04000 1.376
18.06000 -1.863
18.08000 -2.033
18.10000 -3.899
18.12000 6.196
18.14000 0.946
18.16000 5.865
18.18000 2.965
18.20000 4.107
18.22000 4.637
18.24000 3.793
18.26000 5.360
18.28000 7.698
18.30000 5.708
18.32000 2.739
18.34000 2.446
18.36000 7.504
18.38000 2.476
18.40000 -3.648
18.42000 3.378
18.44000 1.777
18.46000 2.770
18.48000 1.937
18.50000 2.084
18.52000 1.817
18.54000 -3.268
18.56000 6.319
18.58000 13.092
18.60000 13.509
18.62000 8.412
18.64000 8.685
18.66000 11.672
18.68000 6.695
18.70000 5.044
18.72000 3.820
18.74000 5.170
18.76000 -1.024
18.78000 -0.871
18.80000 0.217
18.82000 0.534
18.84000 3.503
18.86000 -0.428
18.88000 -3.861
18.90000 -4.313
18.92000 0.608
18.94000 4.710
18.96000 7.160
18.98000 7.808
19.00000 0.152
19.02000 4.012
19.04000 7.386
19.06000 8.500
19.08000 13.068
19.10000 8.331
19.12000 6.960
19.14000 5.196
19.16000 6.674
19.18000 9.333
19.20000 5.304
19.22000 6.795
19.24000 13.000
19.26000 4.284
19.28000 3.744
19.30000 6.333
19.32000 10.979
19.34000 17.402
19.36000 7.302
19.38000 4.203
19.40000 1.258
19.42000 2.065
19.44000 -0.239
19.46000 1.483
19.48000 0.184
19.50000 0.730
19.52000 0.043
19.54000 -4.286
19.56000 3.162
19.58000 4.497
19.60000 5.442
19.62000 3.424
19.64000 3.271
19.66000 8.823
19.68000 8.120
19.70000 8.250
19.72000 5.074
19.74000 6.416
19.76000 7.922
19.78000 1.179
19.80000 0.720
19.82000 0.504
19.84000 1.307
19.86000 3.684
19.88000 7.651
19.90000 13.432
19.92000 13.193
19.94000 9.287
19.96000 7.484
19.98000 2.151
20.00000 7.200
20.02000 4.242
20.04000 -0.880
20.06000 -1.089
20.08000 2.705
20.10000 2.080
20.12000 0.521
20.14000 -0.499
20.16000 1.996
20.18000 6.027
20.20000 1.604
20.22000 3.168
20.24000 6.706
20.26000 4.793
20.28000 7.057
20.30000 0.688
20.32000 2.234
20.34000 4.140
20.36000 7.061
20.38000 5.083
20.40000 3.667
20.42000 10.379
20.44000 7.325
20.46000 1.931
20.48000 4.133
20.50000 7.488
20.52000 6.959
20.54000 9.327
20.56000 5.447
20.58000 -1.636
20.60000 -2.488
20.62000 -4.195
20.64000 7.564
20.66000 8.963
20.68000 1.711
20.70000 -1.427
20.72000 8.518
20.74000 12.162
20.76000 4.800
20.78000 12.246
20.80000 8.545
20.82000 4.851
20.84000 7.165
20.86000 1.868
20.88000 9.968
20.90000 10.951
20.92000 4.963
20.94000 7.263
20.96000 4.287
20.98000 9.629
21.00000 8.144
21.02000 11.116
21.04000 6.687
21.06000 -4.151
21.08000 5.398
21.10000 8.632
21.12000 4.809
21.14000 -0.326
21.16000 0.330
21.18000 7.196
21.20000 6.285
21.22000 1.302
21.24000 4.601
21.26000 9.630
21.28000 6.770
21.30000 5.057
21.32000 5.534
21.34000 -0.655
21.36000 -1.272
21.38000 5.321
21.40000 10.411
21.42000 4.146
21.44000 4.510
21.46000 7.265
21.48000 5.533
21.50000 10.651
21.52000 6.154
21.54000 7.807
21.56000 9.549
21.58000 12.789
21.60000 10.649
21.62000 9.418
21.64000 11.915
21.66000 7.500
21.68000 2.081
21.70000 7.177
21.72000 9.995
21.74000 11.313
21.76000 6.684
21.78000 -0.397
21.80000 6.485
21.82000 3.711
21.84000 4.603
21.86000 4.877
21.88000 -0.936
21.90000 2.920
21.92000 4.030
21.94000 4.595
21.96000 8.236
21.98000 0.384
22.00000 -2.334
22.02000 2.102
22.04000 -0.852
22.06000 0.715
22.08000 4.107
22.10000 2.700
22.12000 3.108
22.14000 -0.427
22.16000 5.974
22.18000 7.441
22.20000 4.848
22.22000 0.930
22.24000 4.448
22.26000 8.360
22.28000 2.652
22.30000 0.063
22.32000 -1.307
22.34000 -1.292
22.36000 -1.407
22.38000 2.886
22.40000 6.237
22.42000 4.847
22.44000 4.217
22.46000 7.826
22.48000 3.146
22.50000 2.197
22.52000 2.201
22.54000 1.349
22.56000 8.101
22.58000 3.476
22.60000 3.704
22.62000 7.746
22.64000 3.472
22.66000 0.577
22.68000 5.750
22.70000 1.554
22.72000 -2.388
22.74000 1.622
22.76000 -0.766
22.78000 -4.129
22.80000 -1.102
22.82000 5.306
22.84000 4.496
22.86000 3.876
22.88000 6.857
22.90000 0.037
22.92000 -3.181
22.94000 0.801
22.96000 2.085
22.98000 5.275
23.00000 3.845
23.02000 0.429
23.04000 2.954
23.06000 4.298
23.08000 8.886
23.10000 4.343
23.12000 0.443
23.14000 -1.586
23.16000 0.418
23.18000 -1.130
23.20000 1.099
23.22000 3.247
23.24000 -0.129
23.26000 0.508
23.28000 2.589
23.30000 -2.660
23.32000 2.323
23.34000 6.674
23.36000 2.728
23.38000 2.203
23.40000 0.819
23.42000 2.061
23.44000 -3.767
23.46000 1.009
23.48000 1.479
23.50000 -2.838
23.52000 1.910
23.54000 0.803
23.56000 -1.857
23.58000 1.357
23.60000 -0.617
23.62000 4.178
23.64000 3.698
23.66000 5.895
23.68000 5.788
23.70000 5.296
23.72000 3.978
23.74000 6.937
23.76000 6.470
23.78000 5.040
23.80000 -1.293
23.82000 0.453
23.84000 2.316
23.86000 2.218
23.88000 5.156
23.90000 0.721
23.92000 0.873
23.94000 0.924
23.96000 5.416
23.98000 5.262
24.00000 5.641
24.02000 0.628
24.04000 5.822
24.06000 8.213
24.08000 9.793
24.10000 2.877
24.12000 -0.114
24.14000 -1.980
24.16000 1.725
24.18000 1.468
24.20000 0.705
24.22000 4.004
24.24000 3.757
24.26000 4.872
24.28000 7.756
24.30000 2.564
24.32000 0.765
24.34000 1.244
24.36000 2.848
24.38000 4.020
24.40000 2.888
24.42000 3.578
24.44000 1.414
24.46000 0.856
24.48000 -3.998
24.50000 1.850
24.52000 4.633
24.54000 4.149
24.56000 3.204
24.58000 2.426
24.60000 7.860
24.62000 9.142
24.64000 9.184
24.66000 5.788
24.68000 5.818
24.70000 9.031
24.72000 7.494
24.74000 7.075
24.76000 9.438
24.78000 5.531
24.80000 3.079
24.82000 3.216
24.84000 2.365
24.86000 4.988
24.88000 2.344
24.90000 2.838
24.92000 7.429
24.94000 7.882
24.96000 6.528
24.98000 2.029
25.00000 -1.201
25.02000 2.299
25.04000 5.055
25.06000 3.813
25.08000 -2.740
25.10000 2.745
25.12000 7.686
25.14000 3.661
25.16000 5.818
25.18000 6.852
25.20000 7.877
25.22000 5.790
25.24000 0.567
25.26000 7.169
25.28000 7.511
25.30000 5.436
25.32000 6.077
25.34000 7.432
25.36000 1.849
25.38000 -3.930
25.40000 -3.327
25.42000 -1.777
25.44000 -0.527
25.46000 2.617
25.48000 1.532
25.50000 4.033
25.52000 6.619
25.54000 7.368
25.56000 9.647
25.58000 9.704
25.60000 8.441
25.62000 0.752
25.64000 2.773
25.66000 5.030
25.68000 4.070
25.70000 1.672
25.72000 -0.322
25.74000 1.171
25.76000 3.879
25.78000 2.827
25.80000 -1.517
25.82000 1.022
25.84000 2.686
25.86000 0.445
25.88000 7.689
25.90000 6.430
25.92000 2.551
25.94000 4.887
25.96000 6.579
25.98000 2.648
26.00000 -0.446
26.02000 -1.019
26.04000 2.671
26.06000 3.033
26.08000 4.740
26.10000 3.853
26.12000 4.503
26.14000 10.607
26.16000 7.287
26.18000 -1.370
26.20000 -2.460
26.22000 5.440
26.24000 10.544
26.26000 7.324
26.28000 5.269
26.30000 4.122
26.32000 0.999
26.34000 0.007
26.36000 -1.822
26.38000 2.205
26.40000 4.147
26.42000 0.784
26.44000 0.469
26.46000 1.537
26.48000 3.625
26.50000 6.793
26.52000 -2.609
26.54000 -2.517
26.56000 5.221
26.58000 2.007
26.60000 0.627
26.62000 2.365
26.64000 2.897
26.66000 3.685
26.68000 7.911
26.70000 4.109
26.72000 5.391
26.74000 11.616
26.76000 9.457
26.78000 5.831
26.80000 2.695
26.82000 -3.638
26.84000 -0.085
26.86000 2.413
26.88000 2.796
26.90000 6.379
26.92000 4.359
26.94000 4.079
26.96000 9.280
26.98000 12.094
27.00000 7.314
27.02000 5.153
27.04000 6.169
27.06000 3.184
27.08000 6.130
27.10000 6.090
27.12000 -0.484
27.14000 5.656
27.16000 7.025
27.18000 7.132
27.20000 4.882
27.22000 0.517
27.24000 0.380
27.26000 -3.841
27.28000 2.088
27.30000 7.432
27.32000 7.800
27.34000 3.360
27.36000 2.738
27.38000 1.795
27.40000 -0.022
27.42000 0.821
27.44000 -1.258
27.46000 2.193
27.48000 1.022
27.50000 0.220
27.52000 1.253
27.54000 3.320
27.56000 5.190
27.58000 5.118
27.60000 5.022
27.62000 -0.525
27.64000 0.500
27.66000 -0.930
27.68000 3.767
27.70000 3.180
27.72000 -1.329
27.74000 0.229
27.76000 2.472
27.78000 3.416
27.80000 2.584
27.82000 6.664
27.84000 7.188
27.86000 -1.700
27.88000 1.088
27.90000 0.177
27.92000 3.021
27.94000 1.850
27.96000 1.837
27.98000 2.307
28.00000 2.184
28.02000 0.003
28.04000 4.816
28.06000 -1.048
28.08000 -3.443
28.10000 4.685
28.12000 4.398
28.14000 2.225
28.16000 1.373
28.18000 -3.820
28.20000 -1.158
28.22000 1.489
28.24000 -1.163
28.26000 -0.344
28.28000 0.737
28.30000 2.435
28.32000 2.736
28.34000 1.892
28.36000 -0.676
28.38000 -2.190
28.40000 -0.656
28.42000 0.786
28.44000 -0.938
28.46000 1.530
28.48000 -0.992
28.50000 1.865
28.52000 0.013
28.54000 1.341
28.56000 2.629
28.58000 1.498
28.60000 -1.171
28.62000 2.253
28.64000 6.018
28.66000 6.662
28.68000 1.045
28.70000 -0.849
28.72000 3.448
28.74000 4.015
28.76000 1.681
28.78000 1.955
28.80000 2.934
28.82000 4.898
28.84000 4.866
28.86000 6.327
28.88000 4.204
28.90000 2.249
28.92000 -0.594
28.94000 -3.781
28.96000 -3.246
28.98000 3.843
29.00000 4.063
29.02000 1.764
29.04000 1.174
29.06000 3.168
29.08000 3.631
29.10000 -0.480
29.12000 0.189
29.14000 2.840
29.16000 4.617
29.18000 2.755
29.20000 0.679
29.22000 -0.209
29.24000 2.019
29.26000 0.053
29.28000 -3.778
29.30000 1.637
29.32000 7.465
29.34000 1.328
29.36000 5.191
29.38000 2.031
29.40000 2.685
29.42000 3.576
29.44000 4.408
29.46000 3.936
29.48000 1.496
29.50000 1.560
29.52000 4.019
29.54000 1.923
29.56000 1.530
29.58000 1.997
29.60000 3.235
29.62000 2.445
29.64000 0.563
29.66000 4.106
29.68000 7.541
29.70000 3.318
29.72000 -2.207
29.74000 1.770
29.76000 -1.195
29.78000 -0.470
29.80000 -3.400
29.82000 5.947
29.84000 1.760
29.86000 2.226
29.88000 0.502
29.90000 -2.398
29.92000 -2.583
29.94000 2.445
29.96000 2.706
29.98000 -3.734
30.00000 2.909
30.02000 4.449
30.04000 0.451
30.06000 -1.833
30.08000 3.763
30.10000 3.128
30.12000 2.286
30.14000 -0.612
30.16000 1.481
30.18000 3.266
30.20000 7.501
30.22000 5.051
30.24000 3.257
30.26000 8.128
30.28000 0.957
30.30000 -1.466
30.32000 2.438
30.34000 7.605
30.36000 3.996
30.38000 -2.374
30.40000 1.520
30.42000 0.305
30.44000 4.349
30.46000 4.866
30.48000 4.655
30.50000 3.483
30.52000 2.116
30.54000 4.462
30.56000 4.372
30.58000 4.959
30.60000 6.334
30.62000 1.523
30.64000 1.208
30.66000 0.219
30.68000 0.192
30.70000 0.689
30.72000 0.293
30.74000 2.661
30.76000 4.536
30.78000 0.396
30.80000 -3.682
30.82000 -2.843
30.84000 5.347
30.86000 4.941
30.88000 2.846
30.90000 5.033
30.92000 3.768
30.94000 -0.514
30.96000 0.924
30.98000 4.691
31.00000 5.137
31.02000 5.299
31.04000 7.296
31.06000 5.442
31.08000 3.954
31.10000 -1.289
31.12000 0.582
31.14000 2.127
31.16000 0.463
31.18000 0.721
31.20000 -0.278
31.22000 4.634
31.24000 2.415
31.26000 1.143
31.28000 0.603
31.30000 -0.216
31.32000 2.380
31.34000 5.922
31.36000 11.610
31.38000 4.048
31.40000 0.737
31.42000 3.797
31.44000 5.834
31.46000 4.115
31.48000 2.729
31.50000 2.405
31.52000 3.602
31.54000 5.228
31.56000 3.863
31.58000 1.302
31.60000 2.820
31.62000 4.607
31.64000 5.661
31.66000 5.658
31.68000 4.170
31.70000 4.134
31.72000 2.464
31.74000 5.661
31.76000 6.312
31.78000 1.361
31.80000 -1.537
31.82000 -0.716
31.84000 -3.622
31.86000 0.690
31.88000 10.524
31.90000 12.788
31.92000 5.482
31.94000 1.309
31.96000 2.971
31.98000 6.009
32.00000 0.288
32.02000 0.951
32.04000 4.325
32.06000 -3.029
32.08000 0.817
32.10000 4.311
32.12000 5.756
32.14000 8.539
32.16000 9.574
32.18000 6.319
32.20000 2.612
32.22000 -1.987
32.24000 2.713
32.26000 2.920
32.28000 0.121
32.30000 -3.604
32.32000 0.480
32.34000 1.269
32.36000 3.861
32.38000 4.629
32.40000 6.274
32.42000 7.911
32.44000 4.246
32.46000 -1.636
32.48000 2.680
32.50000 4.603
32.52000 5.773
32.54000 6.107
32.56000 4.708
32.58000 8.819
32.60000 1.697
32.62000 3.347
32.64000 9.077
32.66000 7.862
32.68000 0.915
32.70000 2.262
32.72000 6.964
32.74000 6.173
32.76000 5.664
32.78000 7.359
32.80000 4.896
32.82000 7.765
32.84000 -3.583
32.86000 1.837
32.88000 6.174
32.90000 7.379
32.92000 10.818
32.94000 7.234
32.96000 8.587
32.98000 8.267
33.00000 5.902
33.02000 -0.183
33.04000 1.227
33.06000 1.249
33.08000 2.442
33.10000 4.809
33.12000 3.978
33.14000 4.795
33.16000 3.694
33.18000 5.815
33.20000 3.364
33.22000 1.196
33.24000 5.522
33.26000 2.932
33.28000 7.874
33.30000 14.815
33.32000 9.043
33.34000 7.421
33.36000 8.161
33.38000 6.666
33.40000 5.244
33.42000 5.286
33.44000 3.049
33.46000 3.810
33.48000 0.627
33.50000 3.430
33.52000 3.819
33.54000 8.477
33.56000 3.599
33.58000 0.922
33.60000 1.861
33.62000 4.871
33.64000 1.891
33.66000 -0.036
33.68000 4.088
33.70000 5.406
33.72000 1.554
33.74000 3.938
33.76000 8.560
33.78000 7.646
33.80000 6.031
33.82000 4.926
33.84000 9.818
33.86000 6.210
33.88000 2.037
33.90000 2.743
33.92000 4.913
33.94000 5.391
33.96000 5.086
33.98000 6.534
34.00000 8.196
34.02000 3.271
34.04000 -0.479
34.06000 -3.604
34.08000 4.716
34.10000 8.686
34.12000 3.526
34.14000 2.584
34.16000 1.558
34.18000 3.023
34.20000 3.488
34.22000 3.480
34.24000 2.805
34.26000 3.630
34.28000 12.594
34.30000 11.028
34.32000 6.889
34.34000 8.077
34.36000 4.756
34.38000 4.300
34.40000 5.197
34.42000 1.745
34.44000 1.704
34.46000 3.336
34.48000 -1.587
34.50000 -0.469
34.52000 -1.664
34.54000 1.348
34.56000 3.927
34.58000 4.443
34.60000 4.760
34.62000 0.434
34.64000 8.210
34.66000 9.747
34.68000 8.658
34.70000 -0.098
34.72000 0.597
34.74000 4.040
34.76000 0.982
34.78000 1.145
34.80000 0.568
34.82000 0.630
34.84000 6.292
34.86000 7.991
34.88000 4.472
34.90000 4.827
34.92000 3.358
34.94000 2.875
34.96000 2.007
34.98000 5.779
35.00000 8.763
35.02000 3.938
35.04000 4.497
35.06000 6.911
35.08000 7.965
35.10000 7.655
35.12000 0.260
35.14000 -3.557
35.16000 2.187
35.18000 1.920
35.20000 3.487
35.22000 7.134
35.24000 3.596
35.26000 6.184
35.28000 11.101
35.30000 4.902
35.32000 0.531
35.34000 -1.006
35.36000 1.175
35.38000 4.418
35.40000 2.456
35.42000 2.983
35.44000 4.583
35.46000 5.296
35.48000 4.279
35.50000 3.601
35.52000 1.785
35.54000 1.024
35.56000 0.494
35.58000 2.380
35.60000 4.649
35.62000 0.425
35.64000 -1.997
35.66000 1.292
35.68000 5.073
35.70000 -1.026
35.72000 1.172
35.74000 1.304
35.76000 -1.011
35.78000 -0.278
35.80000 1.884
35.82000 0.555
35.84000 3.645
35.86000 5.465
35.88000 4.865
35.90000 3.188
35.92000 -0.712
35.94000 3.051
35.96000 1.429
35.98000 -0.059
36.00000 2.484
36.02000 2.674
36.04000 2.952
36.06000 4.336
36.08000 8.822
36.10000 1.804
36.12000 -0.154
36.14000 3.824
36.16000 7.227
36.18000 6.418
36.20000 9.271
36.22000 13.894
36.24000 2.885
36.26000 -0.795
36.28000 4.852
36.30000 -1.048
36.32000 -3.645
36.34000 -0.687
36.36000 2.223
36.38000 -0.912
36.40000 -0.621
36.42000 4.200
36.44000 1.872
36.46000 -3.236
36.48000 -3.176
36.50000 0.262
36.52000 1.998
36.54000 0.064
36.56000 -0.898
36.58000 2.414
36.60000 6.629
36.62000 7.601
36.64000 1.054
36.66000 3.467
36.68000 3.176
36.70000 -2.065
36.72000 -2.046
36.74000 1.124
36.76000 -3.678
36.78000 -2.835
36.80000 1.399
36.82000 1.891
36.84000 -0.506
36.86000 2.262
36.88000 7.239
36.90000 0.293
36.92000 3.056
36.94000 4.091
36.96000 5.064
36.98000 -3.700
37.00000 2.202
37.02000 3.136
37.04000 -0.310
37.06000 4.500
37.08000 3.346
37.10000 2.069
37.12000 4.928
37.14000 3.079
37.16000 0.512
37.18000 4.211
37.20000 7.572
37.22000 8.885
37.24000 5.079
37.26000 0.414
37.28000 1.273
37.30000 1.802
37.32000 4.446
37.34000 7.021
37.36000 10.158
37.38000 8.566
37.40000 4.980
37.42000 7.252
37.44000 7.220
37.46000 6.848
37.48000 10.492
37.50000 11.140
37.52000 3.373
37.54000 0.988
37.56000 7.909
37.58000 10.989
37.60000 8.170
37.62000 8.674
37.64000 10.816
37.66000 5.704
37.68000 6.060
37.70000 11.024
37.72000 13.527
37.74000 13.952
37.76000 11.068
37.78000 14.680
37.80000 16.254
37.82000 8.992
37.84000 13.949
37.86000 18.180
37.88000 19.093
37.90000 19.660
37.92000 14.257
37.94000 10.578
37.96000 17.736
37.98000 19.595
38.00000 16.383
38.02000 22.169
38.04000 24.382
38.06000 24.488
38.08000 22.400
38.10000 24.648
38.12000 22.099
38.14000 21.641
38.16000 27.692
38.18000 29.713
38.20000 28.541
38.22000 29.839
38.24000 28.153
38.26000 21.223
38.28000 27.147
38.30000 37.359
38.32000 39.750
38.34000 40.029
38.36000 37.866
38.38000 39.001
38.40000 39.646
38.42000 42.512
38.44000 46.901
38.46000 44.376
38.48000 45.778
38.50000 53.758
38.52000 52.022
38.54000 55.261
38.56000 55.422
38.58000 57.498
38.60000 58.762
38.62000 63.307
38.64000 62.530
38.66000 66.487
38.68000 66.198
38.70000 70.214
38.72000 72.381
38.74000 73.016
38.76000 79.038
38.78000 84.431
38.80000 89.887
38.82000 94.031
38.84000 91.528
38.86000 96.938
38.88000 107.162
38.90000 104.724
38.92000 107.370
38.94000 114.035
38.96000 120.342
38.98000 128.550
39.00000 126.642
39.02000 132.497
39.04000 143.926
39.06000 149.628
39.08000 161.976
39.10000 169.548
39.12000 180.184
39.14000 185.069
39.16000 187.284
39.18000 195.506
39.20000 206.896
39.22000 216.726
39.24000 227.666
39.26000 236.799
39.28000 245.951
39.30000 259.001
39.32000 269.806
39.34000 282.842
39.36000 298.662
39.38000 314.181
39.40000 339.541
39.42000 351.646
39.44000 368.357
39.46000 378.417
39.48000 392.995
39.50000 409.489
39.52000 428.033
39.54000 460.958
39.56000 484.045
39.58000 499.230
39.60000 528.522
39.62000 544.975
39.64000 559.897
39.66000 582.251
39.68000 614.965
39.70000 639.120
39.72000 659.230
39.74000 682.755
39.76000 699.317
39.78000 719.349
39.80000 733.177
39.82000 745.478
39.84000 756.085
39.86000 781.333
39.88000 808.457
39.90000 818.767
39.92000 822.297
39.94000 823.384
39.96000 829.031
39.98000 839.376
40.00000 828.290
40.02000 833.290
40.04000 823.233
40.06000 825.334
40.08000 826.288
40.10000 803.543
40.12000 768.413
40.14000 750.589
40.16000 731.518
40.18000 711.454
40.20000 695.832
40.22000 668.149
40.24000 658.543
40.26000 638.467
40.28000 614.599
40.30000 581.985
40.32000 550.573
40.34000 522.157
40.36000 498.759
40.38000 482.120
40.40000 464.504
40.42000 436.530
40.44000 410.110
40.46000 393.181
40.48000 366.111
40.50000 336.422
40.52000 320.784
40.54000 315.870
40.56000 292.860
40.58000 273.945
40.60000 257.953
40.62000 238.349
40.64000 237.336
40.66000 214.671
40.68000 198.361
40.70000 192.056
40.72000 183.457
40.74000 171.548
40.76000 159.603
40.78000 146.032
40.80000 139.516
40.82000 134.956
40.84000 127.767
40.86000 123.130
40.88000 107.212
40.90000 100.355
40.92000 99.097
40.94000 89.524
40.96000 83.903
40.98000 83.341
41.00000 75.615
41.02000 71.608
41.04000 66.137
41.06000 64.620
41.08000 59.706
41.10000 56.797
41.12000 57.128
41.14000 48.338
41.16000 47.840
41.18000 45.805
41.20000 40.728
41.22000 39.209
41.24000 36.873
41.26000 36.793
41.28000 33.271
41.30000 26.530
41.32000 32.223
41.34000 30.821
41.36000 29.312
41.38000 25.711
41.40000 21.370
41.42000 19.470
41.44000 22.125
41.46000 23.697
41.48000 21.409
41.50000 17.283
41.52000 13.767
41.54000 17.169
41.56000 17.498
41.58000 12.899
41.60000 13.331
41.62000 12.478
41.64000 11.318
41.66000 6.412
41.68000 5.501
41.70000 5.631
41.72000 7.156
41.74000 10.095
41.76000 7.406
41.78000 1.976
41.80000 4.041
41.82000 0.344
41.84000 3.040
41.86000 8.308
41.88000 4.750
41.90000 0.754
41.92000 1.402
41.94000 1.751
41.96000 3.618
41.98000 0.843
42.00000 -0.283
42.02000 -0.341
42.04000 -3.721
42.06000 2.374
42.08000 5.318
42.10000 4.390
42.12000 1.898
42.14000 2.813
42.16000 3.057
42.18000 5.293
42.20000 3.984
42.22000 -1.304
42.24000 -0.998
42.26000 0.518
42.28000 2.090
42.30000 -2.932
42.32000 -2.590
42.34000 3.881
42.36000 5.938
42.38000 3.225
42.40000 -1.077
42.42000 4.241
42.44000 0.930
42.46000 2.142
42.48000 0.453
42.50000 4.914
42.52000 3.483
42.54000 2.490
42.56000 3.704
42.58000 1.017
42.60000 -3.646
42.62000 1.298
42.64000 2.270
42.66000 4.250
42.68000 3.828
42.70000 1.331
42.72000 0.036
42.74000 1.154
42.76000 1.392
42.78000 0.704
42.80000 1.159
42.82000 2.455
42.84000 -1.379
42.86000 1.614
42.88000 2.739
42.90000 0.425
42.92000 -3.211
42.94000 2.097
42.96000 0.212
42.98000 -3.063
43.00000 4.336
43.02000 9.519
43.04000 8.214
43.06000 6.340
43.08000 3.113
43.10000 2.431
43.12000 5.623
43.14000 3.716
43.16000 0.682
43.18000 1.165
43.20000 6.183
43.22000 4.251
43.24000 6.370
43.26000 5.905
43.28000 6.020
43.30000 4.248
43.32000 2.289
43.34000 -3.534
43.36000 -1.182
43.38000 5.162
43.40000 3.508
43.42000 5.200
43.44000 9.716
43.46000 10.838
43.48000 11.796
43.50000 8.366
43.52000 7.866
43.54000 4.193
43.56000 5.453
43.58000 7.454
43.60000 3.729
43.62000 0.406
43.64000 -0.254
43.66000 5.124
43.68000 5.222
43.70000 0.645
43.72000 0.954
43.74000 7.113
43.76000 9.213
43.78000 11.090
43.80000 6.307
43.82000 6.126
43.84000 6.515
43.86000 0.697
43.88000 -3.505
43.90000 3.201
43.92000 8.961
43.94000 6.057
43.96000 8.325
43.98000 7.308
44.00000 6.215
44.02000 5.938
44.04000 3.493
44.06000 -0.232
44.08000 2.282
44.10000 8.024
44.12000 6.852
44.14000 7.684
44.16000 4.339
44.18000 2.492
44.20000 5.661
44.22000 4.647
44.24000 2.397
44.26000 7.447
44.28000 12.229
44.30000 9.858
44.32000 2.859
44.34000 2.242
44.36000 5.884
44.38000 5.969
44.40000 5.950
44.42000 1.144
44.44000 4.828
44.46000 7.641
44.48000 3.415
44.50000 1.415
44.52000 1.140
44.54000 5.798
44.56000 4.973
44.58000 0.110
44.60000 5.572
44.62000 7.974
44.64000 7.004
44.66000 7.408
44.68000 7.313
44.70000 8.228
44.72000 13.041
44.74000 14.107
44.76000 14.364
44.78000 0.117
44.80000 2.117
44.82000 9.801
44.84000 11.641
44.86000 13.174
44.88000 7.920
44.90000 8.138
44.92000 13.939
44.94000 13.842
44.96000 6.222
44.98000 6.474
45.00000 14.520
45.02000 17.695
45.04000 12.042
45.06000 8.793
45.08000 8.188
45.10000 12.790
45.12000 12.811
45.14000 9.888
45.16000 14.436
45.18000 17.988
45.20000 13.980
45.22000 16.597
45.24000 17.235
45.26000 16.187
45.28000 14.399
45.30000 16.288
45.32000 19.541
45.34000 20.088
45.36000 22.966
45.38000 28.320
45.40000 20.607
45.42000 23.487
45.44000 28.190
45.46000 27.958
45.48000 27.856
45.50000 30.665
45.52000 30.426
45.54000 27.986
45.56000 33.813
45.58000 35.473
45.60000 30.273
45.62000 34.621
45.64000 32.218
45.66000 34.605
45.68000 42.180
45.70000 42.357
45.72000 41.122
45.74000 39.110
45.76000 46.105
45.78000 45.836
45.80000 43.568
45.82000 39.628
45.84000 39.023
45.86000 42.306
45.88000 46.553
45.90000 44.796
45.92000 52.229
45.94000 54.549
45.96000 50.370
45.98000 53.068
46.00000 60.432
46.02000 56.695
46.04000 63.418
46.06000 63.575
46.08000 62.782
46.10000 62.630
46.12000 66.004
46.14000 63.349
46.16000 71.196
46.18000 70.763
46.20000 63.907
46.22000 60.547
46.24000 74.090
46.26000 75.897
46.28000 79.905
46.30000 75.152
46.32000 76.863
46.34000 77.384
46.36000 74.640
46.38000 78.563
46.40000 74.052
46.42000 66.644
46.44000 77.300
46.46000 76.832
46.48000 79.891
46.50000 84.592
46.52000 88.602
46.54000 94.005
46.56000 87.300
46.58000 75.151
46.60000 76.764
46.62000 81.225
46.64000 83.663
46.66000 76.833
46.68000 73.327
46.70000 75.267
46.72000 83.465
46.74000 80.168
46.76000 75.365
46.78000 75.089
46.80000 73.351
46.82000 80.052
46.84000 78.917
46.86000 65.318
46.88000 68.230
46.90000 73.494
46.92000 63.060
46.94000 67.655
46.96000 67.091
46.98000 62.664
47.00000 65.840
47.02000 64.752
47.04000 57.776
47.06000 54.468
47.08000 55.100
47.10000 44.605
47.12000 38.719
47.14000 41.622
47.16000 45.142
47.18000 41.072
47.20000 37.847
47.22000 43.282
47.24000 47.310
47.26000 38.932
47.28000 39.567
47.30000 34.204
47.32000 26.057
47.34000 30.279
47.36000 35.531
47.38000 34.145
47.40000 25.005
47.42000 25.969
47.44000 30.128
47.46000 30.976
47.48000 26.795
47.50000 22.551
47.52000 17.649
47.54000 23.791
47.56000 23.852
47.58000 26.776
47.60000 24.703
47.62000 22.620
47.64000 19.427
47.66000 19.028
47.68000 18.704
47.70000 14.942
47.72000 12.136
47.74000 14.386
47.76000 15.663
47.78000 16.296
47.80000 12.019
47.82000 8.405
47.84000 8.353
47.86000 11.795
47.88000 14.819
47.90000 8.976
47.92000 4.158
47.94000 5.259
47.96000 8.481
47.98000 12.284
48.00000 13.863
48.02000 6.856
48.04000 3.055
48.06000 2.000
48.08000 7.778
48.10000 8.137
48.12000 1.123
48.14000 7.159
48.16000 6.540
48.18000 8.129
48.20000 3.242
48.22000 2.345
48.24000 8.737
48.26000 5.167
48.28000 2.673
48.30000 3.922
48.32000 3.381
48.34000 6.378
48.36000 0.791
48.38000 -0.173
48.40000 6.611
48.42000 11.180
48.44000 4.155
48.46000 4.582
48.48000 4.564
48.50000 2.211
48.52000 0.075
48.54000 -0.475
48.56000 1.609
48.58000 0.470
48.60000 -3.246
48.62000 0.717
48.64000 3.677
48.66000 0.446
48.68000 0.492
48.70000 3.592
48.72000 -3.235
48.74000 2.660
48.76000 3.863
48.78000 6.260
48.80000 9.449
48.82000 0.982
48.84000 -3.224
48.86000 2.271
48.88000 3.951
48.90000 1.891
48.92000 -1.778
48.94000 -1.917
48.96000 -1.972
48.98000 2.290
49.00000 1.864
49.02000 5.801
49.04000 8.627
49.06000 0.714
49.08000 2.170
49.10000 3.307
49.12000 6.306
49.14000 2.364
49.16000 -0.933
49.18000 3.606
49.20000 3.843
49.22000 6.264
49.24000 9.323
49.26000 4.718
49.28000 14.173
49.30000 11.057
49.32000 1.998
49.34000 -2.374
49.36000 0.247
49.38000 1.674
49.40000 0.805
49.42000 1.385
49.44000 2.733
49.46000 -3.169
49.48000 4.403
49.50000 0.668
49.52000 -1.992
49.54000 -1.333
49.56000 6.316
49.58000 6.897
49.60000 0.768
49.62000 5.382
49.64000 0.922
49.66000 1.839
49.68000 7.180
49.70000 6.755
49.72000 5.491
49.74000 4.228
49.76000 3.358
49.78000 2.044
49.80000 3.819
49.82000 3.898
49.84000 2.387
49.86000 2.269
49.88000 2.460
49.90000 3.083
49.92000 0.805
49.94000 1.109
49.96000 0.589
49.98000 3.510
50.00000 5.301
50.02000 -0.425
50.04000 1.871
50.06000 1.626
50.08000 4.518
50.10000 0.775
50.12000 0.574
50.14000 0.026
50.16000 0.652
50.18000 3.382
50.20000 2.024
50.22000 4.283
50.24000 3.984
50.26000 1.950
50.28000 -0.370
50.30000 5.343
50.32000 12.303
50.34000 7.889
50.36000 0.209
50.38000 0.443
50.40000 3.562
50.42000 -3.089
50.44000 2.363
50.46000 4.819
50.48000 8.012
50.50000 2.538
50.52000 2.915
50.54000 3.090
50.56000 7.205
50.58000 7.300
50.60000 3.564
50.62000 0.585
50.64000 -0.637
50.66000 4.029
50.68000 1.994
50.70000 5.869
50.72000 8.520
50.74000 4.216
50.76000 3.291
50.78000 3.249
50.80000 7.690
50.82000 7.303
50.84000 1.863
50.86000 1.615
50.88000 0.657
50.90000 2.902
50.92000 8.302
50.94000 10.044
50.96000 9.387
50.98000 7.898
51.00000 7.243
51.02000 3.779
51.04000 4.545
51.06000 -3.067
51.08000 2.072
51.10000 1.377
51.12000 7.065
51.14000 4.256
51.16000 2.233
51.18000 3.118
51.20000 -0.863
51.22000 2.939
51.24000 -0.635
51.26000 3.116
51.28000 9.016
51.30000 1.034
51.32000 3.048
51.34000 4.714
51.36000 4.759
51.38000 3.661
51.40000 2.965
51.42000 2.711
51.44000 5.907
51.46000 1.913
51.48000 4.960
51.50000 6.064
51.52000 5.561
51.54000 3.972
51.56000 4.720
51.58000 1.844
51.60000 2.552
51.62000 -0.099
51.64000 3.066
51.66000 2.452
51.68000 6.250
51.70000 4.574
51.72000 2.221
51.74000 0.684
51.76000 4.574
51.78000 7.025
51.80000 -2.013
51.82000 -3.056
51.84000 2.509
51.86000 1.916
51.88000 5.283
51.90000 4.044
51.92000 3.702
51.94000 -0.675
51.96000 3.793
51.98000 2.285
52.00000 -0.881
52.02000 -0.823
52.04000 1.324
52.06000 -2.064
52.08000 0.900
52.10000 1.424
52.12000 4.102
52.14000 4.435
52.16000 6.822
52.18000 3.495
52.20000 1.574
52.22000 3.745
52.24000 0.908
52.26000 -2.753
52.28000 1.486
52.30000 1.951
52.32000 2.889
52.34000 4.775
52.36000 -2.876
52.38000 -0.265
52.40000 -2.463
52.42000 3.614
52.44000 0.418
52.46000 3.781
52.48000 4.742
52.50000 1.593
52.52000 8.800
52.54000 4.748
52.56000 -0.548
52.58000 -3.013
52.60000 2.066
52.62000 2.828
52.64000 4.938
52.66000 1.758
52.68000 2.845
52.70000 -0.182
52.72000 -1.024
52.74000 -2.391
52.76000 3.176
52.78000 5.962
52.80000 4.077
52.82000 3.812
52.84000 0.092
52.86000 -0.800
52.88000 1.525
52.90000 1.504
52.92000 2.648
52.94000 5.058
52.96000 2.523
52.98000 0.671
53.00000 5.809
53.02000 0.111
53.04000 3.484
53.06000 2.649
53.08000 -0.758
53.10000 -2.902
53.12000 -0.727
53.14000 2.499
53.16000 3.641
53.18000 4.198
53.20000 2.365
53.22000 5.623
53.24000 6.098
53.26000 4.501
53.28000 1.272
53.30000 3.448
53.32000 4.532
53.34000 4.021
53.36000 3.820
53.38000 4.604
53.40000 -3.004
53.42000 1.220
53.44000 -2.496
53.46000 2.549
53.48000 5.921
53.50000 6.530
53.52000 7.731
53.54000 3.635
53.56000 7.627
53.58000 7.821
53.60000 7.339
53.62000 8.050
53.64000 6.775
53.66000 2.131
53.68000 3.642
53.70000 0.104
53.72000 4.446
53.74000 4.001
53.76000 1.857
53.78000 5.647
53.80000 0.296
53.82000 -1.639
53.84000 1.496
53.86000 5.965
53.88000 2.141
53.90000 1.309
53.92000 6.064
53.94000 7.197
53.96000 4.161
53.98000 4.893
54.00000 6.205
54.02000 3.992
54.04000 7.283
54.06000 10.016
54.08000 10.888
54.10000 6.648
54.12000 6.251
54.14000 3.756
54.16000 -1.704
54.18000 -2.972
54.20000 1.964
54.22000 3.952
54.24000 5.294
54.26000 3.170
54.28000 3.523
54.30000 -0.482
54.32000 -2.965
54.34000 4.012
54.36000 2.406
54.38000 7.627
54.40000 4.521
54.42000 3.295
54.44000 5.997
54.46000 5.349
54.48000 0.575
54.50000 1.045
54.52000 1.803
54.54000 7.458
54.56000 6.288
54.58000 1.577
54.60000 5.926
54.62000 7.417
54.64000 5.547
54.66000 5.382
54.68000 -0.417
54.70000 -2.955
54.72000 -1.090
54.74000 0.540
54.76000 5.650
54.78000 2.749
54.80000 5.957
54.82000 5.298
54.84000 1.551
54.86000 8.015
54.88000 6.099
54.90000 0.838
54.92000 3.404
54.94000 7.737
54.96000 11.954
54.98000 3.979
55.00000 -0.423
55.02000 0.463
55.04000 1.322
55.06000 2.237
55.08000 3.729
55.10000 2.845
55.12000 -0.686
55.14000 0.199
55.16000 9.091
55.18000 11.995
55.20000 7.409
55.22000 5.277
55.24000 2.617
55.26000 2.214
55.28000 1.187
55.30000 5.592
55.32000 2.474
55.34000 1.492
55.36000 -2.918
55.38000 1.006
55.40000 3.118
55.42000 2.522
55.44000 3.417
55.46000 8.848
55.48000 10.108
55.50000 6.261
55.52000 7.475
55.54000 4.543
55.56000 3.084
55.58000 4.343
55.60000 5.105
55.62000 4.921
55.64000 3.941
55.66000 2.343
55.68000 0.943
55.70000 4.080
55.72000 5.296
55.74000 3.917
55.76000 5.847
55.78000 5.356
55.80000 -0.095
55.82000 5.784
55.84000 5.591
55.86000 1.776
55.88000 7.772
55.90000 7.033
55.92000 9.661
55.94000 4.046
55.96000 4.348
55.98000 -0.470
56.00000 3.422
56.02000 0.836
56.04000 7.968
56.06000 9.141
56.08000 2.793
56.10000 2.254
56.12000 4.322
56.14000 7.241
56.16000 5.903
56.18000 3.501
56.20000 4.426
56.22000 3.217
56.24000 0.854
56.26000 4.867
56.28000 9.615
56.30000 7.183
56.32000 2.454
56.34000 4.320
56.36000 4.317
56.38000 5.661
56.40000 6.524
56.42000 5.354
56.44000 5.825
56.46000 3.653
56.48000 2.372
56.50000 9.532
56.52000 6.336
56.54000 9.104
56.56000 10.150
56.58000 4.619
56.60000 -2.892
56.62000 1.795
56.64000 0.794
56.66000 2.128
56.68000 7.510
56.70000 5.928
56.72000 4.564
56.74000 4.615
56.76000 1.500
56.78000 3.988
56.80000 1.382
56.82000 0.283
56.84000 -0.703
56.86000 -1.427
56.88000 -2.881
56.90000 2.805
56.92000 4.687
56.94000 4.904
56.96000 -0.091
56.98000 1.951
57.00000 0.917
57.02000 -1.235
57.04000 2.616
57.06000 2.541
57.08000 7.680
57.10000 4.835
57.12000 -0.566
57.14000 -1.888
57.16000 1.017
57.18000 -0.139
57.20000 1.976
57.22000 2.868
57.24000 6.935
57.26000 3.400
57.28000 0.378
57.30000 5.184
57.32000 2.551
57.34000 -0.544
57.36000 -1.883
57.38000 2.227
57.40000 -0.338
57.42000 -2.877
57.44000 -0.422
57.46000 0.196
57.48000 4.330
57.50000 3.714
57.52000 7.718
57.54000 4.964
57.56000 4.525
57.58000 -1.263
57.60000 4.884
57.62000 4.424
57.64000 8.262
57.66000 2.802
57.68000 3.874
57.70000 8.284
57.72000 8.124
57.74000 6.184
57.76000 5.255
57.78000 4.859
57.80000 2.839
57.82000 0.478
57.84000 2.381
57.86000 6.219
57.88000 5.854
57.90000 3.430
57.92000 1.345
57.94000 3.987
57.96000 4.206
57.98000 0.240
58.00000 3.077
58.02000 4.656
58.04000 3.379
58.06000 -0.446
58.08000 -2.845
58.10000 3.422
58.12000 3.493
58.14000 2.769
58.16000 2.744
58.18000 -1.822
58.20000 4.112
58.22000 4.797
58.24000 6.235
58.26000 4.110
58.28000 2.365
58.30000 9.145
58.32000 4.369
58.34000 0.546
58.36000 2.811
58.38000 5.686
58.40000 4.889
58.42000 1.831
58.44000 7.486
58.46000 8.576
58.48000 5.583
58.50000 6.626
58.52000 8.603
58.54000 3.975
58.56000 8.552
58.58000 2.555
58.60000 1.642
58.62000 6.365
58.64000 5.308
58.66000 -2.825
58.68000 -2.502
58.70000 4.522
58.72000 9.050
58.74000 5.944
58.76000 7.547
58.78000 10.523
58.80000 3.636
58.82000 0.786
58.84000 2.945
58.86000 2.147
58.88000 0.269
58.90000 -0.303
58.92000 3.397
58.94000 4.521
58.96000 -1.219
58.98000 4.657
59.00000 3.733
59.02000 4.438
59.04000 4.724
59.06000 6.043
59.08000 5.065
59.10000 2.565
59.12000 -0.542
59.14000 3.223
59.16000 10.139
59.18000 7.538
59.20000 6.009
59.22000 3.996
59.24000 0.184
59.26000 1.010
59.28000 -0.367
59.30000 3.498
59.32000 4.090
59.34000 -1.354
59.36000 2.386
59.38000 1.316
59.40000 0.165
59.42000 3.733
59.44000 3.223
59.46000 1.723
59.48000 4.459
59.50000 8.383
59.52000 3.015
59.54000 1.713
59.56000 2.636
59.58000 -2.256
59.60000 0.485
59.62000 0.309
59.64000 4.756
59.66000 4.274
59.68000 5.330
59.70000 8.082
59.72000 7.054
59.74000 0.732
59.76000 0.798
59.78000 0.190
59.80000 1.125
59.82000 4.093
59.84000 7.973
59.86000 7.290
59.88000 2.547
59.90000 4.356
59.92000 4.191
59.94000 1.742
59.96000 2.509
59.98000 2.067
60.00000 6.297
60.02000 5.845
60.04000 7.758
60.06000 5.532
60.08000 6.085
60.10000 8.012
60.12000 10.869
60.14000 9.643
60.16000 1.600
60.18000 7.257
60.20000 9.628
60.22000 12.104
60.24000 11.203
60.26000 10.409
60.28000 12.714
60.30000 5.704
60.32000 2.962
60.34000 4.696
60.36000 8.163
60.38000 0.982
60.40000 4.762
60.42000 8.099
60.44000 3.835
60.46000 -1.865
60.48000 -2.735
60.50000 3.817
60.52000 4.506
60.54000 4.529
60.56000 3.980
60.58000 3.526
60.60000 2.256
60.62000 -0.387
60.64000 3.405
60.66000 6.844
60.68000 4.618
60.70000 1.822
60.72000 -1.143
60.74000 1.980
60.76000 4.106
60.78000 1.725
60.80000 4.995
60.82000 2.550
60.84000 6.304
60.86000 4.613
60.88000 2.179
60.90000 2.364
60.92000 6.461
60.94000 2.114
60.96000 -1.841
60.98000 1.773
61.00000 0.911
61.02000 5.226
61.04000 10.986
61.06000 7.595
61.08000 4.256
61.10000 5.526
61.12000 9.643
61.14000 10.950
61.16000 4.770
61.18000 4.483
61.20000 4.370
61.22000 -1.966
61.24000 -2.125
61.26000 2.832
61.28000 3.344
61.30000 -0.244
61.32000 0.665
61.34000 -0.463
61.36000 2.701
61.38000 3.231
61.40000 3.491
61.42000 2.986
61.44000 4.310
61.46000 -1.013
61.48000 -2.101
61.50000 0.868
61.52000 4.245
61.54000 3.712
61.56000 8.842
61.58000 3.904
61.60000 1.847
61.62000 2.994
61.64000 1.973
61.66000 3.911
61.68000 6.344
61.70000 4.123
61.72000 4.988
61.74000 3.577
61.76000 3.198
61.78000 7.449
61.80000 4.980
61.82000 -1.027
61.84000 0.847
61.86000 2.740
61.88000 1.427
61.90000 3.756
61.92000 6.168
61.94000 -0.114
61.96000 -0.223
61.98000 1.927
62.00000 1.079
62.02000 2.474
62.04000 0.254
62.06000 -2.724
62.08000 1.085
62.10000 1.011
62.12000 5.281
62.14000 4.177
62.16000 2.309
62.18000 1.304
62.20000 4.966
62.22000 2.739
62.24000 5.709
62.26000 7.891
62.28000 5.294
62.30000 6.650
62.32000 3.175
62.34000 5.586
62.36000 2.142
62.38000 1.695
62.40000 -2.730
62.42000 0.512
62.44000 5.613
62.46000 4.150
62.48000 3.004
62.50000 1.324
62.52000 5.193
62.54000 5.855
62.56000 5.834
62.58000 5.391
62.60000 1.900
62.62000 4.591
62.64000 2.670
62.66000 -1.207
62.68000 1.852
62.70000 4.680
62.72000 5.386
62.74000 1.373
62.76000 -2.077
62.78000 0.097
62.80000 5.080
62.82000 5.669
62.84000 5.416
62.86000 -0.984
62.88000 -1.918
62.90000 -1.175
62.92000 1.232
62.94000 3.957
62.96000 6.040
62.98000 5.009
63.00000 8.095
63.02000 8.806
63.04000 5.360
63.06000 1.874
63.08000 -2.725
63.10000 -0.748
63.12000 5.910
63.14000 5.718
63.16000 1.381
63.18000 4.063
63.20000 1.213
63.22000 -2.116
63.24000 0.526
63.26000 2.182
63.28000 1.373
63.30000 3.893
63.32000 1.481
63.34000 2.560
63.36000 2.186
63.38000 0.602
63.40000 -0.674
63.42000 -0.893
63.44000 3.521
63.46000 4.940
63.48000 -2.595
63.50000 1.606
63.52000 0.342
63.54000 -0.302
63.56000 -2.288
63.58000 0.816
63.60000 3.912
63.62000 3.797
63.64000 2.336
63.66000 0.632
63.68000 2.090
63.70000 -1.698
63.72000 -2.663
63.74000 0.608
63.76000 1.555
63.78000 0.314
63.80000 1.196
63.82000 -0.820
63.84000 -0.441
63.86000 2.787
63.88000 -1.006
63.90000 -1.888
63.92000 -2.180
63.94000 -2.302
63.96000 0.640
63.98000 1.156
64.00000 1.161
64.02000 -0.108
64.04000 4.706
64.06000 2.618
64.08000 -2.307
64.10000 -2.029
64.12000 0.313
64.14000 0.483
64.16000 0.411
64.18000 -0.952
64.20000 4.351
64.22000 5.337
64.24000 6.979
64.26000 8.148
64.28000 2.439
64.30000 3.763
64.32000 4.250
64.34000 0.440
64.36000 1.685
64.38000 2.696
64.40000 8.027
64.42000 5.292
64.44000 -2.201
64.46000 -2.750
64.48000 4.706
64.50000 4.139
64.52000 3.467
64.54000 5.343
64.56000 4.702
64.58000 5.667
64.60000 0.721
64.62000 -0.729
64.64000 0.425
64.66000 3.626
64.68000 1.202
64.70000 -0.646
64.72000 3.498
64.74000 0.487
64.76000 3.577
64.78000 0.973
64.80000 1.262
64.82000 3.173
64.84000 2.307
64.86000 0.614
64.88000 -0.504
64.90000 -1.664
64.92000 -2.757
64.94000 -0.014
64.96000 0.171
64.98000 -0.639
65.00000 -0.739
65.02000 0.044
65.04000 -0.634
65.06000 5.222
65.08000 6.695
65.10000 3.458
65.12000 -2.075
65.14000 -2.644
65.16000 1.584
65.18000 4.261
65.20000 1.173
65.22000 2.404
65.24000 6.479
65.26000 4.934
65.28000 3.457
65.30000 2.210
65.32000 2.365
65.34000 2.302
65.36000 3.262
65.38000 -0.245
65.40000 -1.578
65.42000 -2.250
65.44000 -0.951
65.46000 1.053
65.48000 0.584
65.50000 0.607
65.52000 -2.152
65.54000 -2.193
65.56000 0.546
65.58000 4.631
65.60000 5.009
65.62000 1.351
65.64000 3.507
65.66000 2.369
65.68000 -0.263
65.70000 -0.495
65.72000 -2.829
65.74000 -0.157
65.76000 2.175
65.78000 3.493
65.80000 1.046
65.82000 1.260
65.84000 -0.018
65.86000 4.521
65.88000 3.462
65.90000 -1.390
65.92000 -2.837
65.94000 0.339
65.96000 1.707
65.98000 5.466
66.00000 1.288
66.02000 -2.759
66.04000 0.579
66.06000 2.450
66.08000 2.279
66.10000 0.086
66.12000 1.080
66.14000 0.681
66.16000 1.591
66.18000 4.362
66.20000 1.826
66.22000 3.247
66.24000 3.571
66.26000 5.670
66.28000 4.645
66.30000 7.174
66.32000 6.576
66.34000 3.425
66.36000 3.629
66.38000 -1.510
66.40000 -1.613
66.42000 -0.090
66.44000 0.047
66.46000 3.559
66.48000 7.252
66.50000 4.059
66.52000 -0.572
66.54000 -1.063
66.56000 -0.293
66.58000 3.890
66.60000 3.729
66.62000 4.889
66.64000 2.762
66.66000 2.442
66.68000 3.095
66.70000 4.664
66.72000 7.973
66.74000 4.041
66.76000 2.735
66.78000 0.891
66.80000 1.507
66.82000 5.053
66.84000 9.146
66.86000 6.896
66.88000 3.598
66.90000 7.170
66.92000 12.036
66.94000 12.306
66.96000 10.275
66.98000 4.891
67.00000 6.465
67.02000 11.535
67.04000 10.007
67.06000 15.981
67.08000 16.042
67.10000 13.880
67.12000 11.382
67.14000 11.025
67.16000 9.146
67.18000 10.084
67.20000 12.829
67.22000 16.749
67.24000 13.416
67.26000 10.696
67.28000 9.616
67.30000 13.252
67.32000 17.190
67.34000 13.066
67.36000 13.618
67.38000 15.603
67.40000 17.290
67.42000 14.958
67.44000 15.852
67.46000 20.717
67.48000 22.617
67.50000 18.918
67.52000 19.024
67.54000 20.361
67.56000 20.721
67.58000 16.834
67.60000 18.691
67.62000 20.637
67.64000 19.432
67.66000 21.437
67.68000 24.851
67.70000 25.990
67.72000 27.045
67.74000 24.226
67.76000 22.751
67.78000 18.202
67.80000 18.142
67.82000 23.905
67.84000 22.909
67.86000 18.410
67.88000 22.878
67.90000 23.805
67.92000 29.921
67.94000 31.097
67.96000 26.709
67.98000 24.087
68.00000 21.015
68.02000 17.240
68.04000 21.133
68.06000 23.474
68.08000 21.541
68.10000 19.137
68.12000 21.608
68.14000 21.101
68.16000 20.602
68.18000 22.290
68.20000 18.179
68.22000 20.760
68.24000 22.922
68.26000 23.921
68.28000 19.738
68.30000 17.712
68.32000 15.828
68.34000 15.646
68.36000 13.578
68.38000 12.324
68.40000 12.978
68.42000 12.924
68.44000 15.466
68.46000 14.230
68.48000 16.567
68.50000 18.393
68.52000 17.737
68.54000 16.157
68.56000 13.058
68.58000 10.535
68.60000 9.482
68.62000 10.322
68.64000 9.980
68.66000 2.594
68.68000 4.551
68.70000 9.849
68.72000 8.603
68.74000 11.734
68.76000 7.789
68.78000 3.982
68.80000 3.030
68.82000 7.220
68.84000 7.136
68.86000 5.744
68.88000 6.453
68.90000 5.153
68.92000 5.420
68.94000 5.176
68.96000 2.667
68.98000 2.691
69.00000 0.457
69.02000 -0.069
69.04000 2.164
69.06000 3.068
69.08000 6.416
69.10000 4.316
69.12000 4.683
69.14000 2.661
69.16000 1.975
69.18000 2.119
69.20000 1.692
69.22000 3.457
69.24000 4.533
69.26000 -0.192
69.28000 -0.214
69.30000 -2.743
69.32000 -0.095
69.34000 0.908
69.36000 0.362
69.38000 -0.146
69.40000 2.500
69.42000 2.221
69.44000 -1.302
69.46000 0.438
69.48000 3.031
69.50000 2.412
69.52000 1.624
69.54000 -0.280
69.56000 2.558
69.58000 3.034
69.60000 2.737
69.62000 -0.693
69.64000 0.133
69.66000 0.325
69.68000 -1.590
69.70000 1.739
69.72000 2.660
69.74000 3.179
69.76000 3.262
69.78000 2.976
69.80000 3.350
69.82000 6.057
69.84000 6.196
69.86000 5.638
69.88000 1.348
69.90000 -0.636
69.92000 1.827
69.94000 1.630
69.96000 4.339
69.98000 1.389
70.00000 2.772
70.02000 5.291
70.04000 3.209
70.06000 3.553
70.08000 5.650
70.10000 3.815
70.12000 -2.663
70.14000 0.204
70.16000 -1.109
70.18000 2.106
70.20000 -2.601
70.22000 3.688
70.24000 7.251
70.26000 7.663
70.28000 4.206
70.30000 1.891
70.32000 0.959
70.34000 0.969
70.36000 2.469
70.38000 -0.275
70.40000 2.625
70.42000 6.276
70.44000 0.821
70.46000 -2.623
70.48000 1.127
70.50000 1.255
70.52000 4.410
70.54000 5.813
70.56000 -0.200
70.58000 -1.474
70.60000 2.192
70.62000 0.684
70.64000 5.652
70.66000 5.977
70.68000 2.837
70.70000 4.296
70.72000 2.882
70.74000 3.593
70.76000 4.399
70.78000 7.013
70.80000 7.283
70.82000 5.956
70.84000 2.038
70.86000 4.675
70.88000 2.903
70.90000 4.110
70.92000 -0.831
70.94000 0.924
70.96000 1.688
70.98000 0.396
71.00000 -2.615
71.02000 2.830
71.04000 -0.427
71.06000 1.579
71.08000 1.439
71.10000 1.571
71.12000 6.260
71.14000 0.529
71.16000 0.111
71.18000 -0.174
71.20000 0.807
71.22000 1.825
71.24000 5.662
71.26000 1.150
71.28000 1.139
71.30000 4.792
71.32000 5.218
71.34000 3.433
71.36000 1.889
71.38000 3.746
71.40000 9.513
71.42000 9.673
71.44000 4.513
71.46000 6.464
71.48000 3.536
71.50000 3.561
71.52000 3.687
71.54000 2.584
71.56000 3.827
71.58000 1.968
71.60000 -0.964
71.62000 -0.647
71.64000 2.818
71.66000 3.116
71.68000 3.164
71.70000 1.848
71.72000 1.348
71.74000 1.516
71.76000 -0.296
71.78000 2.865
71.80000 -2.587
71.82000 1.590
71.84000 1.756
71.86000 4.028
71.88000 8.251
71.90000 2.448
71.92000 1.512
71.94000 8.384
71.96000 2.233
71.98000 2.227
72.00000 3.574
72.02000 0.882
72.04000 -0.314
72.06000 5.925
72.08000 10.185
72.10000 4.742
72.12000 0.969
72.14000 2.352
72.16000 4.996
72.18000 7.458
72.20000 6.216
72.22000 2.976
72.24000 -2.103
72.26000 1.193
72.28000 4.856
72.30000 1.897
72.32000 -2.552
72.34000 -0.079
72.36000 0.664
72.38000 4.973
72.40000 3.464
72.42000 2.307
72.44000 2.927
72.46000 2.521
72.48000 2.652
72.50000 -1.585
72.52000 3.019
72.54000 2.825
72.56000 1.489
72.58000 2.809
72.60000 4.622
72.62000 5.657
72.64000 3.124
72.66000 5.430
72.68000 3.492
72.70000 3.805
72.72000 6.677
72.74000 7.570
72.76000 3.353
72.78000 1.912
72.80000 3.495
72.82000 2.082
72.84000 5.907
72.86000 6.129
72.88000 3.283
72.90000 4.437
72.92000 4.664
72.94000 6.016
72.96000 2.778
72.98000 2.938
73.00000 0.782
73.02000 3.068
73.04000 6.283
73.06000 9.959
73.08000 7.521
73.10000 0.692
73.12000 -0.228
73.14000 3.618
73.16000 11.014
73.18000 9.868
73.20000 7.059
73.22000 5.595
73.24000 6.031
73.26000 7.151
73.28000 12.553
73.30000 8.958
73.32000 10.703
73.34000 7.771
73.36000 6.894
73.38000 4.778
73.40000 0.911
73.42000 5.349
73.44000 9.649
73.46000 10.511
73.48000 7.134
73.50000 5.955
73.52000 8.472
73.54000 5.315
73.56000 8.247
73.58000 8.436
73.60000 8.391
73.62000 -0.316
73.64000 -2.462
73.66000 4.665
73.68000 5.892
73.70000 6.265
73.72000 7.063
73.74000 1.881
73.76000 6.792
73.78000 6.616
73.80000 8.530
73.82000 7.853
73.84000 5.790
73.86000 5.089
73.88000 7.269
73.90000 5.630
73.92000 2.692
73.94000 9.800
73.96000 11.800
73.98000 5.148
74.00000 4.519
74.02000 3.637
74.04000 4.919
74.06000 3.884
74.08000 10.180
74.10000 8.204
74.12000 3.930
74.14000 4.460
74.16000 8.774
74.18000 7.165
74.20000 1.631
74.22000 -0.605
74.24000 0.664
74.26000 0.457
74.28000 -0.045
74.30000 1.946
74.32000 5.956
74.34000 4.219
74.36000 4.845
74.38000 3.464
74.40000 -0.536
74.42000 -1.019
74.44000 3.327
74.46000 4.761
74.48000 1.738
74.50000 0.950
74.52000 4.589
74.54000 2.866
74.56000 1.494
74.58000 0.118
74.60000 0.837
74.62000 4.555
74.64000 6.697
74.66000 11.467
74.68000 7.907
74.70000 1.609
74.72000 -1.138
74.74000 -1.522
74.76000 2.870
74.78000 4.479
74.80000 3.442
74.82000 0.293
74.84000 2.604
74.86000 2.587
74.88000 4.404
74.90000 3.996
74.92000 0.508
74.94000 -1.883
74.96000 3.340
74.98000 -0.183
75.00000 -2.013
75.02000 -1.897
75.04000 6.335
75.06000 9.996
75.08000 7.167
75.10000 8.353
75.12000 1.269
75.14000 2.602
75.16000 0.422
75.18000 5.323
75.20000 2.119
75.22000 0.947
75.24000 3.654
75.26000 1.322
75.28000 0.437
75.30000 -0.648
75.32000 3.193
75.34000 3.113
75.36000 1.205
75.38000 0.497
75.40000 3.407
75.42000 1.380
75.44000 1.349
75.46000 2.164
75.48000 2.569
75.50000 4.990
75.52000 3.602
75.54000 4.080
75.56000 3.047
75.58000 3.996
75.60000 3.054
75.62000 0.126
75.64000 -2.564
75.66000 1.215
75.68000 2.318
75.70000 3.926
75.72000 -1.314
75.74000 0.301
75.76000 7.343
75.78000 8.103
75.80000 3.639
75.82000 0.087
75.84000 -0.128
75.86000 3.706
75.88000 4.457
75.90000 4.137
75.92000 5.980
75.94000 4.098
75.96000 4.943
75.98000 5.310
76.00000 3.057
76.02000 6.102
76.04000 5.354
76.06000 8.151
76.08000 1.336
76.10000 3.558
76.12000 0.402
76.14000 2.859
76.16000 2.034
76.18000 -1.221
76.20000 -1.120
76.22000 4.036
76.24000 3.254
76.26000 -0.113
76.28000 -1.658
76.30000 3.675
76.32000 6.758
76.34000 -2.020
76.36000 -2.556
76.38000 0.561
76.40000 1.817
76.42000 -0.135
76.44000 4.494
76.46000 5.741
76.48000 3.490
76.50000 3.910
76.52000 4.577
76.54000 3.847
76.56000 1.772
76.58000 3.378
76.60000 5.402
76.62000 6.515
76.64000 3.303
76.66000 0.128
76.68000 2.396
76.70000 1.379
76.72000 -1.704
76.74000 0.400
76.76000 2.890
76.78000 3.916
76.80000 -2.577
76.82000 -0.895
76.84000 -0.951
76.86000 -0.078
76.88000 0.221
76.90000 0.146
76.92000 3.379
76.94000 2.713
76.96000 3.370
76.98000 3.182
77.00000 7.620
77.02000 9.417
77.04000 6.758
77.06000 4.799
77.08000 -0.275
77.10000 -1.185
77.12000 -1.926
77.14000 -0.236
77.16000 3.717
77.18000 1.329
77.20000 2.552
77.22000 3.514
77.24000 5.640
77.26000 0.965
77.28000 1.339
77.30000 4.670
77.32000 2.127
77.34000 5.250
77.36000 6.376
77.38000 3.132
77.40000 2.173
77.42000 0.508
77.44000 0.191
77.46000 1.358
77.48000 0.519
77.50000 1.924
77.52000 2.012
77.54000 3.890
77.56000 4.647
77.58000 1.474
77.60000 3.015
77.62000 1.150
77.64000 -1.296
77.66000 0.017
77.68000 -0.200
77.70000 -0.530
77.72000 1.070
77.74000 8.626
77.76000 6.029
77.78000 -0.887
77.80000 5.441
77.82000 1.430
77.84000 2.917
77.86000 -0.283
77.88000 0.979
77.90000 1.884
77.92000 3.099
77.94000 4.854
77.96000 2.476
77.98000 0.173
78.00000 7.128
78.02000 4.561
78.04000 -2.573
78.06000 3.664
78.08000 3.248
78.10000 4.797
78.12000 1.729
78.14000 0.866
78.16000 3.418
78.18000 2.752
78.20000 5.799
78.22000 3.851
78.24000 5.033
78.26000 3.808
78.28000 1.857
78.30000 8.011
78.32000 7.617
78.34000 2.804
78.36000 0.905
78.38000 5.892
78.40000 4.983
78.42000 7.353
78.44000 5.633
78.46000 5.139
78.48000 5.161
78.50000 1.368
78.52000 0.452
78.54000 2.307
78.56000 4.345
78.58000 1.554
78.60000 -1.339
78.62000 3.134
78.64000 5.688
78.66000 5.763
78.68000 -0.471
78.70000 2.291
78.72000 2.076
78.74000 0.155
78.76000 0.855
78.78000 7.987
78.80000 4.553
78.82000 6.925
78.84000 7.289
78.86000 5.493
78.88000 2.625
78.90000 4.154
78.92000 7.208
78.94000 4.449
78.96000 3.378
78.98000 5.650
79.00000 7.182
79.02000 3.235
79.04000 -2.670
79.06000 -2.565
79.08000 -2.181
79.10000 1.520
79.12000 3.973
79.14000 -0.084
79.16000 -0.244
79.18000 1.173
79.20000 -1.857
79.22000 3.521
79.24000 1.285
79.26000 7.804
79.28000 6.883
79.30000 3.434
79.32000 2.445
79.34000 -1.111
79.36000 -0.023
79.38000 3.756
79.40000 5.853
79.42000 4.131
79.44000 1.317
79.46000 2.456
79.48000 4.562
79.50000 2.558
79.52000 1.745
79.54000 0.447
79.56000 2.465
79.58000 -0.645
79.60000 0.397
79.62000 1.871
79.64000 5.333
79.66000 5.976
79.68000 9.443
79.70000 6.725
79.72000 7.826
79.74000 9.959
79.76000 2.873
79.78000 5.758
79.80000 4.319
79.82000 1.322
79.84000 4.825
79.86000 5.219
79.88000 3.841
79.90000 8.712
79.92000 6.942
79.94000 5.612
79.96000 -2.691
79.98000 4.421
80.00000 5.948
80.02000 1.768
80.04000 4.892
80.06000 6.151
80.08000 7.901
80.10000 8.109
80.12000 14.073
80.14000 11.116
80.16000 12.182
80.18000 7.809
80.20000 5.050
80.22000 10.886
80.24000 13.587
80.26000 10.514
80.28000 11.825
80.30000 14.273
80.32000 10.103
80.34000 12.223
80.36000 9.389
80.38000 12.690
80.40000 11.891
80.42000 8.121
80.44000 6.947
80.46000 8.628
80.48000 6.307
80.50000 8.022
80.52000 14.075
80.54000 8.770
80.56000 17.601
80.58000 15.456
80.60000 10.785
80.62000 12.699
80.64000 8.630
80.66000 14.145
80.68000 11.941
80.70000 10.171
80.72000 14.862
80.74000 14.982
80.76000 7.911
80.78000 12.159
80.80000 14.637
80.82000 14.678
80.84000 17.746
80.86000 15.591
80.88000 15.925
80.90000 17.205
80.92000 14.582
80.94000 10.968
80.96000 11.404
80.98000 8.603
81.00000 10.573
81.02000 16.898
81.04000 14.933
81.06000 13.189
81.08000 10.168
81.10000 17.519
81.12000 21.048
81.14000 16.963
81.16000 11.357
81.18000 15.638
81.20000 15.173
81.22000 9.669
81.24000 11.347
81.26000 16.867
81.28000 23.008
81.30000 24.362
81.32000 18.636
81.34000 28.450
81.36000 24.661
81.38000 17.850
81.40000 15.951
81.42000 20.253
81.44000 21.550
81.46000 29.375
81.48000 36.041
81.50000 27.555
81.52000 27.499
81.54000 25.388
81.56000 26.811
81.58000 21.491
81.60000 22.631
81.62000 15.069
81.64000 13.263
81.66000 15.911
81.68000 23.663
81.70000 24.086
81.72000 22.678
81.74000 20.925
81.76000 21.132
81.78000 23.321
81.80000 25.889
81.82000 29.008
81.84000 29.568
81.86000 30.172
81.88000 21.812
81.90000 19.393
81.92000 26.677
81.94000 25.757
81.96000 29.110
81.98000 28.694
82.00000 33.668
82.02000 29.009
82.04000 26.416
82.06000 22.921
82.08000 21.810
82.10000 25.828
82.12000 25.783
82.14000 24.202
82.16000 20.097
82.18000 21.308
82.20000 24.620
82.22000 23.184
82.24000 24.005
82.26000 28.643
82.28000 22.174
82.30000 18.732
82.32000 22.536
82.34000 23.404
82.36000 21.623
82.38000 22.461
82.40000 24.894
82.42000 23.102
82.44000 21.523
82.46000 20.145
82.48000 18.180
82.50000 17.868
82.52000 14.727
82.54000 16.903
82.56000 16.057
82.58000 19.463
82.60000 18.594
82.62000 13.248
82.64000 11.379
82.66000 22.032
82.68000 20.924
82.70000 13.085
82.72000 17.822
82.74000 12.389
82.76000 13.002
82.78000 20.923
82.80000 21.320
82.82000 15.204
82.84000 13.645
82.86000 9.308
82.88000 9.533
82.90000 8.082
82.92000 12.443
82.94000 10.205
82.96000 12.425
82.98000 11.334
83.00000 6.744
83.02000 6.721
83.04000 8.543
83.06000 3.185
83.08000 8.580
83.10000 8.255
83.12000 5.489
83.14000 7.159
83.16000 7.475
83.18000 12.930
83.20000 9.439
83.22000 8.979
83.24000 7.091
83.26000 5.053
83.28000 2.403
83.30000 4.619
83.32000 6.765
83.34000 12.584
83.36000 11.454
83.38000 7.085
83.40000 6.692
83.42000 6.738
83.44000 5.202
83.46000 4.283
83.48000 5.754
83.50000 1.386
83.52000 4.230
83.54000 3.339
83.56000 -0.080
83.58000 3.641
83.60000 3.285
83.62000 5.328
83.64000 6.968
83.66000 4.963
83.68000 4.636
83.70000 -0.879
83.72000 -2.763
83.74000 -1.693
83.76000 -0.594
83.78000 1.892
83.80000 0.939
83.82000 3.913
83.84000 4.726
83.86000 6.922
83.88000 7.948
83.90000 7.940
83.92000 5.065
83.94000 -2.579
83.96000 -2.247
83.98000 2.200
84.00000 1.197
84.02000 7.082
84.04000 3.038
84.06000 3.838
84.08000 7.306
84.10000 5.421
84.12000 7.851
84.14000 7.759
84.16000 8.793
84.18000 4.138
84.20000 5.681
84.22000 4.594
84.24000 6.220
84.26000 6.297
84.28000 4.724
84.30000 -1.581
84.32000 -2.737
84.34000 9.308
84.36000 8.482
84.38000 5.779
84.40000 3.883
84.42000 5.129
84.44000 8.724
84.46000 3.509
84.48000 4.256
84.50000 2.690
84.52000 8.886
84.54000 7.584
84.56000 1.837
84.58000 0.258
84.60000 0.794
84.62000 3.827
84.64000 1.808
84.66000 8.933
84.68000 9.327
84.70000 5.908
84.72000 2.884
84.74000 5.532
84.76000 9.340
84.78000 6.332
84.80000 2.761
84.82000 6.982
84.84000 11.558
84.86000 5.888
84.88000 3.371
84.90000 8.046
84.92000 13.990
84.94000 8.616
84.96000 7.261
84.98000 8.577
85.00000 13.663
85.02000 13.779
85.04000 18.661
85.06000 14.511
85.08000 11.928
85.10000 15.062
85.12000 13.201
85.14000 12.239
85.16000 14.258
85.18000 17.739
85.20000 15.865
85.22000 15.328
85.24000 20.799
85.26000 21.115
85.28000 18.938
85.30000 21.750
85.32000 19.553
85.34000 22.820
85.36000 23.953
85.38000 22.647
85.40000 21.191
85.42000 19.300
85.44000 23.387
85.46000 19.585
85.48000 20.253
85.50000 21.580
85.52000 21.417
85.54000 29.708
85.56000 24.940
85.58000 27.674
85.60000 33.765
85.62000 35.084
85.64000 33.212
85.66000 36.968
85.68000 40.716
85.70000 37.699
85.72000 34.112
85.74000 37.245
85.76000 31.922
85.78000 27.612
85.80000 41.097
85.82000 42.436
85.84000 44.666
85.86000 46.055
85.88000 43.178
85.90000 41.511
85.92000 42.229
85.94000 38.514
85.96000 43.036
85.98000 44.594
86.00000 46.113
86.02000 48.439
86.04000 48.223
86.06000 43.523
86.08000 47.636
86.10000 51.719
86.12000 53.923
86.14000 52.194
86.16000 50.034
86.18000 50.815
86.20000 44.647
86.22000 50.068
86.24000 49.082
86.26000 48.991
86.28000 43.467
86.30000 46.173
86.32000 51.208
86.34000 49.130
86.36000 48.563
86.38000 51.569
86.40000 40.279
86.42000 44.495
86.44000 42.839
86.46000 41.214
86.48000 42.027
86.50000 40.717
86.52000 43.397
86.54000 41.103
86.56000 43.290
86.58000 43.804
86.60000 40.025
86.62000 39.299
86.64000 33.508
86.66000 24.768
86.68000 27.986
86.70000 30.288
86.72000 30.593
86.74000 34.164
86.76000 35.426
86.78000 29.076
86.80000 20.661
86.82000 25.693
86.84000 30.060
86.86000 25.091
86.88000 24.083
86.90000 22.272
86.92000 23.986
86.94000 24.404
86.96000 27.024
86.98000 25.193
87.00000 19.562
87.02000 19.854
87.04000 20.994
87.06000 19.774
87.08000 18.858
87.10000 16.591
87.12000 13.061
87.14000 18.131
87.16000 15.982
87.18000 14.266
87.20000 11.066
87.22000 8.097
87.24000 12.815
87.26000 14.078
87.28000 12.572
87.30000 13.072
87.32000 11.950
87.34000 10.275
87.36000 7.044
87.38000 6.416
87.40000 8.713
87.42000 10.129
87.44000 10.512
87.46000 10.581
87.48000 11.157
87.50000 5.394
87.52000 1.679
87.54000 3.776
87.56000 2.461
87.58000 3.889
87.60000 4.438
87.62000 3.615
87.64000 6.448
87.66000 2.719
87.68000 1.522
87.70000 7.675
87.72000 1.109
87.74000 0.729
87.76000 4.022
87.78000 4.502
87.80000 -0.970
87.82000 -0.568
87.84000 2.796
87.86000 4.096
87.88000 7.884
87.90000 7.368
87.92000 4.068
87.94000 6.454
87.96000 8.168
87.98000 2.636
88.00000 -1.627
88.02000 4.291
88.04000 0.792
88.06000 -2.021
88.08000 1.733
88.10000 0.063
88.12000 4.637
88.14000 6.812
88.16000 4.465
88.18000 -2.464
88.20000 2.940
88.22000 -1.519
88.24000 -1.601
88.26000 3.811
88.28000 7.792
88.30000 10.272
88.32000 5.676
88.34000 6.291
88.36000 7.222
88.38000 8.856
88.40000 3.972
88.42000 4.736
88.44000 2.776
88.46000 -2.454
88.48000 2.583
88.50000 4.368
88.52000 4.379
88.54000 2.873
88.56000 4.394
88.58000 8.509
88.60000 2.394
88.62000 -0.839
88.64000 2.653
88.66000 8.718
88.68000 9.103
88.70000 8.225
88.72000 6.048
88.74000 1.469
88.76000 2.821
88.78000 -2.423
88.80000 -1.904
88.82000 5.826
88.84000 11.051
88.86000 6.887
88.88000 3.091
88.90000 1.314
88.92000 3.055
88.94000 4.008
88.96000 2.587
88.98000 5.022
89.00000 1.703
89.02000 -0.904
89.04000 -0.116
89.06000 5.711
89.08000 9.543
89.10000 6.464
89.12000 7.198
89.14000 2.954
89.16000 -2.378
89.18000 4.595
89.20000 6.892
89.22000 5.076
89.24000 6.445
89.26000 5.903
89.28000 3.636
89.30000 9.726
89.32000 8.684
89.34000 1.800
89.36000 3.867
89.38000 9.466
89.40000 7.998
89.42000 7.533
89.44000 8.440
89.46000 3.995
89.48000 5.233
89.50000 2.599
89.52000 -0.078
89.54000 5.439
89.56000 -1.207
89.58000 1.482
89.60000 0.164
89.62000 2.031
89.64000 2.200
89.66000 0.913
89.68000 3.056
89.70000 3.891
89.72000 2.777
89.74000 -1.199
89.76000 0.426
89.78000 -0.584
89.80000 3.367
89.82000 2.008
89.84000 -0.770
89.86000 3.506
89.88000 6.008
89.90000 4.071
89.92000 4.891
89.94000 3.984
89.96000 4.486
89.98000 3.837
90.00000 1.184
90.02000 2.558
90.04000 5.089
90.06000 2.044
90.08000 0.545
90.10000 0.673
90.12000 -1.187
90.14000 6.364
90.16000 -1.900
90.18000 1.508
90.20000 4.748
90.22000 4.489
90.24000 4.244
90.26000 4.156
90.28000 0.589
90.30000 -1.307
90.32000 -0.914
90.34000 2.152
90.36000 8.596
90.38000 7.935
90.40000 5.991
90.42000 4.258
90.44000 3.706
90.46000 7.178
90.48000 3.157
90.50000 -0.053
90.52000 4.762
90.54000 9.959
90.56000 5.486
90.58000 5.653
90.60000 5.062
90.62000 -1.859
90.64000 -1.044
90.66000 -0.355
90.68000 0.532
90.70000 0.181
90.72000 -0.626
90.74000 2.115
90.76000 0.345
90.78000 -1.701
90.80000 -2.118
90.82000 0.190
90.84000 2.141
90.86000 3.716
90.88000 -0.202
90.90000 1.032
90.92000 3.220
90.94000 0.758
90.96000 -2.326
90.98000 -0.786
91.00000 0.038
91.02000 1.480
91.04000 3.800
91.06000 1.114
91.08000 -2.366
91.10000 -0.653
91.12000 1.997
91.14000 5.485
91.16000 6.375
91.18000 5.772
91.20000 1.225
91.22000 5.568
91.24000 9.294
91.26000 4.479
91.28000 6.420
91.30000 5.830
91.32000 9.033
91.34000 6.469
91.36000 1.188
91.38000 4.457
91.40000 5.072
91.42000 4.262
91.44000 0.475
91.46000 4.011
91.48000 9.432
91.50000 5.136
91.52000 4.384
91.54000 3.565
91.56000 2.552
91.58000 -0.324
91.60000 1.319
91.62000 2.294
91.64000 6.257
91.66000 1.785
91.68000 9.251
91.70000 12.976
91.72000 3.936
91.74000 0.280
91.76000 -1.731
91.78000 -0.354
91.80000 0.711
91.82000 4.576
91.84000 7.908
91.86000 9.223
91.88000 11.950
91.90000 11.196
91.92000 6.674
91.94000 1.593
91.96000 2.632
91.98000 1.621
92.00000 0.961
92.02000 1.619
92.04000 4.015
92.06000 2.913
92.08000 2.655
92.10000 2.769
92.12000 -1.126
92.14000 5.758
92.16000 4.169
92.18000 1.636
92.20000 2.174
92.22000 3.173
92.24000 3.073
92.26000 5.971
92.28000 4.261
92.30000 1.748
92.32000 5.588
92.34000 8.917
92.36000 5.767
92.38000 9.115
92.40000 2.751
92.42000 -2.393
92.44000 -0.463
92.46000 0.053
92.48000 2.750
92.50000 1.252
92.52000 2.917
92.54000 7.961
92.56000 8.713
92.58000 5.644
92.60000 7.707
92.62000 6.424
92.64000 0.360
92.66000 2.282
92.68000 5.763
92.70000 5.153
92.72000 6.681
92.74000 5.588
92.76000 9.176
92.78000 10.494
92.80000 9.377
92.82000 1.651
92.84000 5.696
92.86000 3.086
92.88000 0.987
92.90000 4.818
92.92000 4.888
92.94000 3.016
92.96000 4.511
92.98000 4.891
93.00000 9.967
93.02000 11.463
93.04000 9.944
93.06000 10.158
93.08000 7.899
93.10000 1.430
93.12000 6.660
93.14000 4.619
93.16000 3.924
93.18000 7.046
93.20000 10.954
93.22000 11.028
93.24000 4.779
93.26000 4.149
93.28000 4.432
93.30000 4.854
93.32000 4.716
93.34000 2.678
93.36000 3.434
93.38000 3.451
93.40000 5.949
93.42000 5.053
93.44000 5.188
93.46000 6.199
93.48000 6.119
93.50000 3.928
93.52000 0.144
93.54000 8.417
93.56000 8.072
93.58000 3.582
93.60000 2.338
93.62000 10.247
93.64000 10.433
93.66000 6.110
93.68000 3.993
93.70000 5.188
93.72000 6.018
93.74000 10.899
93.76000 10.009
93.78000 15.693
93.80000 12.296
93.82000 14.671
93.84000 13.771
93.86000 6.299
93.88000 -4.453
93.90000 5.279
93.92000 12.742
93.94000 16.342
93.96000 12.075
93.98000 8.030
94.00000 12.944
94.02000 17.078
94.04000 17.951
94.06000 11.250
94.08000 7.801
94.10000 3.418
94.12000 12.237
94.14000 14.084
94.16000 5.449
94.18000 15.451
94.20000 9.239
94.22000 3.321
94.24000 6.405
94.26000 9.461
94.28000 5.553
94.30000 4.614
94.32000 3.182
94.34000 1.807
94.36000 0.697
94.38000 4.826
94.40000 9.341
94.42000 5.976
94.44000 4.814
94.46000 7.818
94.48000 14.291
94.50000 13.713
94.52000 11.593
94.54000 5.471
94.56000 4.857
94.58000 7.578
94.60000 6.055
94.62000 5.204
94.64000 7.480
94.66000 6.097
94.68000 4.416
94.70000 13.201
94.72000 10.366
94.74000 9.086
94.76000 12.295
94.78000 5.902
94.80000 9.263
94.82000 7.974
94.84000 6.971
94.86000 3.460
94.88000 2.326
94.90000 1.267
94.92000 0.583
94.94000 0.755
94.96000 4.957
94.98000 5.584
95.00000 6.514
95.02000 8.336
95.04000 6.295
95.06000 6.356
95.08000 7.936
95.10000 5.986
95.12000 5.560
95.14000 7.961
95.16000 11.042
95.18000 9.635
95.20000 7.725
95.22000 3.280
95.24000 3.131
95.26000 5.897
95.28000 4.977
95.30000 6.286
95.32000 6.149
95.34000 10.785
95.36000 8.623
95.38000 10.133
95.40000 4.104
95.42000 2.582
95.44000 -0.716
95.46000 -1.501
95.48000 2.739
95.50000 6.044
95.52000 10.085
95.54000 12.010
95.56000 7.294
95.58000 5.197
95.60000 6.117
95.62000 7.074
95.64000 5.958
95.66000 1.186
95.68000 3.591
95.70000 5.100
95.72000 0.839
95.74000 9.314
95.76000 11.630
95.78000 3.774
95.80000 4.426
95.82000 8.397
95.84000 8.941
95.86000 10.263
95.88000 14.011
95.90000 9.105
95.92000 3.091
95.94000 4.777
95.96000 5.784
95.98000 7.093
96.00000 8.253
96.02000 6.745
96.04000 -2.361
96.06000 -1.388
96.08000 10.978
96.10000 13.388
96.12000 5.771
96.14000 4.487
96.16000 5.070
96.18000 13.419
96.20000 13.730
96.22000 15.228
96.24000 4.776
96.26000 3.746
96.28000 8.245
96.30000 13.348
96.32000 13.828
96.34000 9.005
96.36000 10.556
96.38000 10.265
96.40000 9.220
96.42000 4.615
96.44000 8.574
96.46000 3.980
96.48000 1.789
96.50000 12.008
96.52000 10.788
96.54000 12.982
96.56000 11.368
96.58000 5.050
96.60000 6.545
96.62000 8.025
96.64000 2.331
96.66000 -2.340
96.68000 1.533
96.70000 6.082
96.72000 11.427
96.74000 10.395
96.76000 11.389
96.78000 7.689
96.80000 7.425
96.82000 11.057
96.84000 13.278
96.86000 11.851
96.88000 12.890
96.90000 5.472
96.92000 5.384
96.94000 9.644
96.96000 7.963
96.98000 2.640
97.00000 -2.340
97.02000 2.292
97.04000 4.805
97.06000 10.527
97.08000 10.399
97.10000 6.399
97.12000 5.131
97.14000 8.536
97.16000 1.306
97.18000 2.740
97.20000 4.591
97.22000 7.470
97.24000 6.873
97.26000 5.104
97.28000 3.778
97.30000 8.070
97.32000 6.084
97.34000 4.985
97.36000 15.580
97.38000 16.988
97.40000 8.519
97.42000 5.509
97.44000 8.178
97.46000 4.531
97.48000 3.097
97.50000 7.477
97.52000 11.990
97.54000 10.626
97.56000 17.356
97.58000 14.675
97.60000 12.585
97.62000 6.684
97.64000 -2.810
97.66000 5.183
97.68000 11.772
97.70000 17.440
97.72000 11.256
97.74000 7.118
97.76000 6.829
97.78000 8.474
97.80000 10.965
97.82000 7.567
97.84000 9.181
97.86000 10.907
97.88000 4.088
97.90000 7.986
97.92000 4.629
97.94000 3.327
97.96000 7.374
97.98000 6.253
98.00000 5.662
98.02000 2.710
98.04000 4.817
98.06000 12.314
98.08000 7.131
98.10000 -0.932
98.12000 4.388
98.14000 5.345
98.16000 5.130
98.18000 6.677
98.20000 5.245
98.22000 1.323
98.24000 3.483
98.26000 5.031
98.28000 4.258
98.30000 9.744
98.32000 12.406
98.34000 5.658
98.36000 3.062
98.38000 5.784
98.40000 12.919
98.42000 12.386
98.44000 0.149
98.46000 -1.185
98.48000 5.633
98.50000 6.976
98.52000 8.827
98.54000 9.049
98.56000 9.038
98.58000 3.407
98.60000 8.480
98.62000 13.447
98.64000 10.130
98.66000 3.296
98.68000 3.281
98.70000 10.396
98.72000 17.419
98.74000 10.921
98.76000 10.249
98.78000 8.619
98.80000 4.664
98.82000 5.724
98.84000 11.886
98.86000 16.805
98.88000 12.024
98.90000 4.077
98.92000 7.303
98.94000 -2.334
98.96000 -1.603
98.98000 3.176
99.00000 10.830
99.02000 16.267
99.04000 9.471
99.06000 13.171
99.08000 8.102
99.10000 4.295
99.12000 15.889
99.14000 3.700
99.16000 -0.883
99.18000 7.145
99.20000 0.753
99.22000 5.200
99.24000 4.448
99.26000 11.544
99.28000 11.786
99.30000 12.288
99.32000 8.929
99.34000 10.633
99.36000 11.124
99.38000 6.351
99.40000 9.203
99.42000 1.451
99.44000 3.329
99.46000 2.474
99.48000 16.305
99.50000 10.112
99.52000 7.255
99.54000 2.844
99.56000 6.892
99.58000 12.367
99.60000 3.956
99.62000 11.548
99.64000 14.559
99.66000 15.730
99.68000 9.097
99.70000 18.331
99.72000 8.716
99.74000 12.331
99.76000 7.248
99.78000 11.131
99.80000 17.843
99.82000 26.683
99.84000 21.968
99.86000 5.241
99.88000 16.056
99.90000 6.321
99.92000 -5.295
99.94000 -0.503
99.96000 0.635
99.98000 0.000
