'Id: "0011387" Comment: "Integrate frame 0011387_Au-Ir-Rh_Rh-rich_XRD-Mapping-275-0000.gfrmwith cursor Wedge Cursor #5" Operator: "B?rgel" Anode: "Cu" Wavelength: "1.5406" Scantype: "2Theta (TwoTheta)" TimePerStep: "1" X: "27" Y: "22.5" Z: "5.95" 
10.00000 0.000
10.02000 -3.722
10.04000 -2.085
10.06000 0.548
10.08000 0.552
10.10000 -2.561
10.12000 3.222
10.14000 -1.234
10.16000 10.180
10.18000 10.892
10.20000 1.675
10.22000 4.806
10.24000 12.287
10.26000 -1.384
10.28000 -0.716
10.30000 0.216
10.32000 8.738
10.34000 3.757
10.36000 -3.140
10.38000 2.861
10.40000 11.246
10.42000 10.761
10.44000 18.899
10.46000 20.241
10.48000 -2.447
10.50000 -3.811
10.52000 8.904
10.54000 11.174
10.56000 20.064
10.58000 15.378
10.60000 14.218
10.62000 8.273
10.64000 -4.462
10.66000 10.663
10.68000 14.410
10.70000 17.071
10.72000 23.231
10.74000 19.335
10.76000 12.504
10.78000 16.676
10.80000 16.670
10.82000 10.678
10.84000 11.197
10.86000 15.934
10.88000 12.209
10.90000 13.044
10.92000 4.403
10.94000 9.615
10.96000 12.131
10.98000 10.657
11.00000 11.033
11.02000 5.175
11.04000 21.792
11.06000 25.090
11.08000 22.257
11.10000 10.459
11.12000 7.849
11.14000 15.411
11.16000 19.466
11.18000 13.774
11.20000 15.953
11.22000 23.045
11.24000 17.951
11.26000 -0.086
11.28000 9.052
11.30000 13.281
11.32000 10.609
11.34000 14.844
11.36000 19.870
11.38000 13.788
11.40000 15.269
11.42000 13.001
11.44000 10.261
11.46000 11.124
11.48000 19.315
11.50000 6.103
11.52000 16.102
11.54000 30.775
11.56000 31.245
11.58000 17.134
11.60000 17.905
11.62000 21.960
11.64000 24.402
11.66000 18.208
11.68000 26.992
11.70000 21.143
11.72000 4.186
11.74000 5.823
11.76000 18.552
11.78000 15.239
11.80000 25.125
11.82000 21.936
11.84000 16.768
11.86000 21.392
11.88000 16.712
11.90000 23.402
11.92000 17.242
11.94000 13.030
11.96000 21.943
11.98000 19.307
12.00000 22.247
12.02000 28.005
12.04000 35.048
12.06000 27.543
12.08000 22.658
12.10000 19.997
12.12000 20.094
12.14000 17.572
12.16000 9.292
12.18000 24.110
12.20000 30.837
12.22000 14.306
12.24000 15.976
12.26000 15.528
12.28000 23.380
12.30000 27.984
12.32000 26.118
12.34000 25.212
12.36000 25.978
12.38000 18.153
12.40000 21.520
12.42000 29.581
12.44000 42.488
12.46000 34.076
12.48000 40.983
12.50000 27.496
12.52000 28.685
12.54000 27.901
12.56000 26.978
12.58000 22.986
12.60000 27.249
12.62000 33.715
12.64000 34.930
12.66000 30.571
12.68000 32.683
12.70000 28.457
12.72000 20.508
12.74000 32.473
12.76000 20.731
12.78000 12.482
12.80000 20.675
12.82000 24.639
12.84000 17.299
12.86000 24.980
12.88000 33.582
12.90000 31.954
12.92000 25.292
12.94000 28.558
12.96000 20.929
12.98000 14.222
13.00000 19.749
13.02000 32.789
13.04000 35.643
13.06000 31.710
13.08000 18.903
13.10000 23.935
13.12000 17.843
13.14000 16.883
13.16000 25.012
13.18000 26.381
13.20000 20.993
13.22000 21.290
13.24000 25.696
13.26000 33.304
13.28000 30.791
13.30000 32.904
13.32000 27.644
13.34000 18.249
13.36000 17.381
13.38000 19.195
13.40000 22.313
13.42000 19.870
13.44000 19.376
13.46000 31.528
13.48000 25.489
13.50000 26.665
13.52000 21.752
13.54000 19.178
13.56000 25.516
13.58000 18.192
13.60000 19.650
13.62000 19.432
13.64000 19.931
13.66000 24.892
13.68000 20.320
13.70000 15.507
13.72000 15.609
13.74000 16.826
13.76000 15.091
13.78000 17.137
13.80000 22.986
13.82000 26.216
13.84000 12.975
13.86000 14.686
13.88000 14.301
13.90000 23.512
13.92000 22.309
13.94000 16.790
13.96000 24.245
13.98000 17.778
14.00000 11.791
14.02000 19.236
14.04000 23.096
14.06000 20.332
14.08000 25.897
14.10000 20.789
14.12000 15.972
14.14000 19.909
14.16000 19.525
14.18000 14.651
14.20000 12.846
14.22000 4.709
14.24000 14.670
14.26000 20.546
14.28000 16.627
14.30000 17.350
14.32000 10.761
14.34000 11.906
14.36000 22.222
14.38000 16.370
14.40000 19.729
14.42000 8.711
14.44000 14.312
14.46000 18.817
14.48000 16.761
14.50000 19.378
14.52000 20.313
14.54000 19.676
14.56000 9.335
14.58000 7.869
14.60000 15.363
14.62000 26.685
14.64000 21.116
14.66000 8.825
14.68000 6.638
14.70000 6.900
14.72000 16.107
14.74000 11.617
14.76000 17.516
14.78000 14.084
14.80000 7.410
14.82000 11.566
14.84000 14.620
14.86000 7.739
14.88000 7.782
14.90000 13.288
14.92000 13.343
14.94000 12.813
14.96000 4.483
14.98000 6.092
15.00000 14.297
15.02000 15.022
15.04000 12.564
15.06000 22.527
15.08000 15.225
15.10000 5.806
15.12000 10.677
15.14000 7.249
15.16000 13.263
15.18000 14.733
15.20000 18.656
15.22000 18.240
15.24000 17.023
15.26000 1.099
15.28000 2.847
15.30000 13.215
15.32000 9.954
15.34000 14.339
15.36000 12.942
15.38000 14.347
15.40000 3.898
15.42000 13.222
15.44000 20.941
15.46000 13.076
15.48000 8.614
15.50000 8.017
15.52000 13.987
15.54000 11.639
15.56000 13.116
15.58000 12.015
15.60000 9.983
15.62000 14.707
15.64000 12.056
15.66000 12.324
15.68000 13.123
15.70000 5.611
15.72000 14.096
15.74000 6.056
15.76000 8.899
15.78000 9.795
15.80000 8.159
15.82000 7.865
15.84000 -1.951
15.86000 2.364
15.88000 3.793
15.90000 8.353
15.92000 13.420
15.94000 5.479
15.96000 5.634
15.98000 13.581
16.00000 14.238
16.02000 18.264
16.04000 12.779
16.06000 6.578
16.08000 10.980
16.10000 6.041
16.12000 6.255
16.14000 16.981
16.16000 14.227
16.18000 11.359
16.20000 18.521
16.22000 8.679
16.24000 -0.851
16.26000 -2.766
16.28000 3.444
16.30000 5.988
16.32000 0.519
16.34000 4.142
16.36000 7.230
16.38000 6.303
16.40000 6.235
16.42000 14.474
16.44000 8.682
16.46000 3.204
16.48000 6.547
16.50000 11.982
16.52000 6.894
16.54000 14.130
16.56000 5.902
16.58000 0.287
16.60000 -2.956
16.62000 3.102
16.64000 3.632
16.66000 4.095
16.68000 6.708
16.70000 9.894
16.72000 5.350
16.74000 5.163
16.76000 10.003
16.78000 5.257
16.80000 4.371
16.82000 6.822
16.84000 11.762
16.86000 9.954
16.88000 9.187
16.90000 5.634
16.92000 0.376
16.94000 1.992
16.96000 11.278
16.98000 10.090
17.00000 8.439
17.02000 1.964
17.04000 6.295
17.06000 0.993
17.08000 2.734
17.10000 11.838
17.12000 8.884
17.14000 11.464
17.16000 8.423
17.18000 4.639
17.20000 3.137
17.22000 7.387
17.24000 6.536
17.26000 2.567
17.28000 7.583
17.30000 2.124
17.32000 -0.589
17.34000 4.202
17.36000 4.560
17.38000 4.242
17.40000 6.172
17.42000 0.075
17.44000 -2.572
17.46000 0.572
17.48000 3.309
17.50000 5.765
17.52000 5.286
17.54000 8.669
17.56000 6.188
17.58000 2.645
17.60000 -1.634
17.62000 -1.419
17.64000 -1.000
17.66000 0.293
17.68000 -2.481
17.70000 4.364
17.72000 5.803
17.74000 2.398
17.76000 4.982
17.78000 0.497
17.80000 -1.371
17.82000 4.108
17.84000 0.152
17.86000 -3.038
17.88000 7.178
17.90000 7.070
17.92000 -1.716
17.94000 -0.913
17.96000 7.223
17.98000 6.441
18.00000 -0.005
18.02000 1.902
18.04000 5.525
18.06000 1.300
18.08000 1.485
18.10000 3.810
18.12000 7.792
18.14000 11.089
18.16000 11.004
18.18000 1.055
18.20000 -2.872
18.22000 4.372
18.24000 15.790
18.26000 16.450
18.28000 10.456
18.30000 9.421
18.32000 11.793
18.34000 7.103
18.36000 3.988
18.38000 -0.699
18.40000 -4.329
18.42000 -0.017
18.44000 7.221
18.46000 8.014
18.48000 9.252
18.50000 5.581
18.52000 4.773
18.54000 2.492
18.56000 1.523
18.58000 3.485
18.60000 1.724
18.62000 5.354
18.64000 6.838
18.66000 10.697
18.68000 10.129
18.70000 7.431
18.72000 7.768
18.74000 4.128
18.76000 5.878
18.78000 3.001
18.80000 -0.357
18.82000 -0.959
18.84000 -1.385
18.86000 6.621
18.88000 4.680
18.90000 6.390
18.92000 5.213
18.94000 4.895
18.96000 10.661
18.98000 10.458
19.00000 -1.611
19.02000 -4.273
19.04000 2.518
19.06000 9.488
19.08000 12.009
19.10000 5.243
19.12000 6.279
19.14000 3.076
19.16000 4.348
19.18000 10.092
19.20000 12.183
19.22000 9.722
19.24000 11.592
19.26000 6.651
19.28000 2.852
19.30000 0.974
19.32000 -0.257
19.34000 0.956
19.36000 2.083
19.38000 8.583
19.40000 7.142
19.42000 1.743
19.44000 3.704
19.46000 3.419
19.48000 3.850
19.50000 9.838
19.52000 7.669
19.54000 10.260
19.56000 8.774
19.58000 6.353
19.60000 2.813
19.62000 3.183
19.64000 0.801
19.66000 3.497
19.68000 -0.331
19.70000 -4.241
19.72000 2.051
19.74000 1.900
19.76000 8.215
19.78000 5.189
19.80000 8.804
19.82000 9.182
19.84000 8.094
19.86000 3.991
19.88000 2.267
19.90000 2.489
19.92000 3.885
19.94000 4.852
19.96000 3.748
19.98000 1.905
20.00000 7.276
20.02000 2.231
20.04000 9.305
20.06000 2.082
20.08000 1.731
20.10000 9.261
20.12000 8.993
20.14000 7.806
20.16000 6.973
20.18000 4.428
20.20000 3.507
20.22000 5.271
20.24000 6.352
20.26000 7.919
20.28000 4.075
20.30000 3.507
20.32000 4.031
20.34000 0.485
20.36000 6.102
20.38000 7.271
20.40000 0.121
20.42000 4.724
20.44000 11.841
20.46000 9.294
20.48000 9.054
20.50000 0.450
20.52000 -1.047
20.54000 2.611
20.56000 5.762
20.58000 5.406
20.60000 2.436
20.62000 -0.339
20.64000 -1.425
20.66000 -3.780
20.68000 2.363
20.70000 0.692
20.72000 -2.108
20.74000 1.641
20.76000 4.421
20.78000 11.449
20.80000 10.342
20.82000 5.282
20.84000 5.360
20.86000 4.068
20.88000 4.758
20.90000 12.697
20.92000 15.891
20.94000 7.490
20.96000 2.994
20.98000 5.036
21.00000 11.267
21.02000 9.269
21.04000 3.263
21.06000 2.234
21.08000 1.048
21.10000 3.239
21.12000 10.946
21.14000 7.226
21.16000 7.915
21.18000 1.896
21.20000 -4.156
21.22000 3.322
21.24000 7.113
21.26000 9.189
21.28000 9.900
21.30000 11.787
21.32000 10.983
21.34000 2.287
21.36000 4.686
21.38000 0.817
21.40000 0.019
21.42000 3.863
21.44000 10.288
21.46000 10.727
21.48000 6.227
21.50000 6.715
21.52000 -1.379
21.54000 -2.452
21.56000 1.005
21.58000 2.425
21.60000 7.634
21.62000 6.266
21.64000 5.843
21.66000 3.072
21.68000 -2.256
21.70000 5.953
21.72000 6.533
21.74000 10.032
21.76000 9.871
21.78000 -0.274
21.80000 -4.129
21.82000 -1.025
21.84000 1.043
21.86000 6.882
21.88000 2.510
21.90000 2.127
21.92000 0.470
21.94000 -1.537
21.96000 6.811
21.98000 16.836
22.00000 7.266
22.02000 5.760
22.04000 7.448
22.06000 5.153
22.08000 5.381
22.10000 7.546
22.12000 4.498
22.14000 -1.433
22.16000 2.396
22.18000 3.355
22.20000 4.999
22.22000 -0.181
22.24000 2.395
22.26000 -0.546
22.28000 -1.009
22.30000 4.106
22.32000 8.375
22.34000 7.419
22.36000 8.521
22.38000 2.460
22.40000 -0.358
22.42000 0.150
22.44000 -1.545
22.46000 0.987
22.48000 0.694
22.50000 4.152
22.52000 5.153
22.54000 5.625
22.56000 1.603
22.58000 -1.031
22.60000 -1.770
22.62000 -0.517
22.64000 6.813
22.66000 -1.488
22.68000 -1.509
22.70000 1.124
22.72000 -2.325
22.74000 -3.329
22.76000 2.345
22.78000 4.610
22.80000 -2.210
22.82000 4.563
22.84000 7.361
22.86000 -0.507
22.88000 -2.541
22.90000 4.760
22.92000 3.299
22.94000 3.883
22.96000 1.036
22.98000 -1.856
23.00000 2.023
23.02000 9.591
23.04000 9.975
23.06000 4.357
23.08000 3.104
23.10000 3.186
23.12000 8.649
23.14000 11.847
23.16000 14.646
23.18000 9.794
23.20000 9.581
23.22000 10.438
23.24000 5.788
23.26000 -3.191
23.28000 -4.063
23.30000 0.038
23.32000 4.972
23.34000 4.363
23.36000 4.047
23.38000 1.034
23.40000 3.451
23.42000 4.293
23.44000 7.332
23.46000 8.008
23.48000 4.976
23.50000 1.642
23.52000 2.645
23.54000 1.793
23.56000 3.368
23.58000 2.695
23.60000 2.670
23.62000 -2.376
23.64000 2.110
23.66000 7.717
23.68000 6.460
23.70000 5.947
23.72000 2.784
23.74000 2.652
23.76000 8.989
23.78000 6.428
23.80000 4.241
23.82000 4.192
23.84000 8.211
23.86000 10.487
23.88000 7.069
23.90000 4.283
23.92000 2.366
23.94000 -4.005
23.96000 0.575
23.98000 7.350
24.00000 12.109
24.02000 11.464
24.04000 8.722
24.06000 8.395
24.08000 0.806
24.10000 3.660
24.12000 3.949
24.14000 9.692
24.16000 6.162
24.18000 1.625
24.20000 0.997
24.22000 6.572
24.24000 1.379
24.26000 2.091
24.28000 5.783
24.30000 2.408
24.32000 6.229
24.34000 5.888
24.36000 4.475
24.38000 3.868
24.40000 5.014
24.42000 10.377
24.44000 0.859
24.46000 1.653
24.48000 2.267
24.50000 -0.205
24.52000 -2.874
24.54000 4.062
24.56000 7.019
24.58000 3.729
24.60000 4.286
24.62000 0.679
24.64000 3.007
24.66000 2.858
24.68000 4.167
24.70000 6.567
24.72000 4.036
24.74000 2.637
24.76000 5.741
24.78000 0.995
24.80000 -0.519
24.82000 4.556
24.84000 8.578
24.86000 3.461
24.88000 3.784
24.90000 8.282
24.92000 3.387
24.94000 -0.560
24.96000 0.619
24.98000 6.763
25.00000 5.951
25.02000 2.201
25.04000 3.007
25.06000 5.899
25.08000 11.464
25.10000 10.796
25.12000 4.001
25.14000 4.480
25.16000 0.290
25.18000 3.748
25.20000 4.899
25.22000 0.821
25.24000 2.033
25.26000 4.110
25.28000 -1.676
25.30000 -0.098
25.32000 2.311
25.34000 2.618
25.36000 -3.435
25.38000 1.362
25.40000 5.586
25.42000 8.220
25.44000 9.340
25.46000 10.825
25.48000 4.672
25.50000 1.105
25.52000 -1.185
25.54000 -1.422
25.56000 -1.321
25.58000 -1.880
25.60000 -3.921
25.62000 1.831
25.64000 1.155
25.66000 2.795
25.68000 4.153
25.70000 8.206
25.72000 5.281
25.74000 4.700
25.76000 5.941
25.78000 5.547
25.80000 1.579
25.82000 1.521
25.84000 3.342
25.86000 1.638
25.88000 2.443
25.90000 0.721
25.92000 1.758
25.94000 0.885
25.96000 -0.902
25.98000 2.371
26.00000 1.581
26.02000 2.902
26.04000 5.706
26.06000 4.683
26.08000 5.379
26.10000 6.312
26.12000 3.572
26.14000 2.159
26.16000 2.941
26.18000 4.509
26.20000 10.109
26.22000 6.768
26.24000 0.066
26.26000 5.671
26.28000 5.009
26.30000 4.507
26.32000 3.853
26.34000 6.155
26.36000 3.475
26.38000 3.425
26.40000 2.776
26.42000 -2.659
26.44000 -0.523
26.46000 6.987
26.48000 4.213
26.50000 4.643
26.52000 2.466
26.54000 1.658
26.56000 0.061
26.58000 -0.494
26.60000 -3.867
26.62000 0.923
26.64000 1.557
26.66000 0.216
26.68000 3.944
26.70000 9.250
26.72000 6.697
26.74000 2.197
26.76000 1.028
26.78000 3.900
26.80000 3.572
26.82000 7.331
26.84000 6.424
26.86000 4.684
26.88000 6.783
26.90000 5.360
26.92000 2.258
26.94000 3.107
26.96000 6.269
26.98000 2.852
27.00000 2.937
27.02000 7.810
27.04000 9.643
27.06000 7.659
27.08000 8.480
27.10000 9.403
27.12000 3.724
27.14000 -2.150
27.16000 -0.276
27.18000 3.115
27.20000 6.105
27.22000 4.313
27.24000 4.290
27.26000 1.499
27.28000 3.000
27.30000 4.295
27.32000 4.982
27.34000 0.908
27.36000 -1.657
27.38000 3.303
27.40000 4.560
27.42000 2.712
27.44000 2.419
27.46000 4.053
27.48000 1.667
27.50000 3.724
27.52000 1.358
27.54000 5.231
27.56000 3.547
27.58000 2.661
27.60000 3.059
27.62000 1.734
27.64000 3.042
27.66000 4.955
27.68000 0.530
27.70000 1.595
27.72000 2.133
27.74000 3.533
27.76000 3.905
27.78000 7.316
27.80000 9.073
27.82000 8.134
27.84000 2.430
27.86000 0.024
27.88000 5.420
27.90000 6.919
27.92000 2.089
27.94000 2.112
27.96000 2.594
27.98000 5.281
28.00000 0.916
28.02000 -3.099
28.04000 -3.814
28.06000 3.707
28.08000 0.459
28.10000 1.799
28.12000 3.625
28.14000 1.866
28.16000 5.166
28.18000 5.616
28.20000 7.764
28.22000 5.958
28.24000 0.437
28.26000 1.570
28.28000 2.469
28.30000 4.411
28.32000 2.857
28.34000 -3.792
28.36000 -1.827
28.38000 2.123
28.40000 0.396
28.42000 2.211
28.44000 5.508
28.46000 2.669
28.48000 0.590
28.50000 0.210
28.52000 -1.512
28.54000 4.685
28.56000 5.179
28.58000 3.595
28.60000 -2.385
28.62000 -1.722
28.64000 3.506
28.66000 3.407
28.68000 -0.123
28.70000 3.674
28.72000 2.451
28.74000 -3.510
28.76000 -3.134
28.78000 -1.912
28.80000 -1.081
28.82000 0.178
28.84000 6.265
28.86000 7.915
28.88000 7.364
28.90000 1.446
28.92000 -1.701
28.94000 -0.940
28.96000 5.892
28.98000 3.807
29.00000 6.077
29.02000 5.622
29.04000 4.087
29.06000 1.450
29.08000 4.822
29.10000 2.172
29.12000 1.937
29.14000 4.965
29.16000 3.424
29.18000 5.324
29.20000 2.977
29.22000 1.021
29.24000 6.474
29.26000 7.833
29.28000 4.702
29.30000 3.820
29.32000 7.902
29.34000 5.236
29.36000 4.772
29.38000 5.736
29.40000 5.962
29.42000 2.761
29.44000 -1.279
29.46000 -3.720
29.48000 1.384
29.50000 6.835
29.52000 0.770
29.54000 4.999
29.56000 7.533
29.58000 4.437
29.60000 0.761
29.62000 3.980
29.64000 5.632
29.66000 4.042
29.68000 1.936
29.70000 0.036
29.72000 2.161
29.74000 7.419
29.76000 8.964
29.78000 5.831
29.80000 4.986
29.82000 5.117
29.84000 1.620
29.86000 2.966
29.88000 1.215
29.90000 -1.836
29.92000 -2.090
29.94000 -1.533
29.96000 2.399
29.98000 10.214
30.00000 7.090
30.02000 2.544
30.04000 -1.655
30.06000 -2.571
30.08000 0.535
30.10000 -0.238
30.12000 3.819
30.14000 7.902
30.16000 0.501
30.18000 4.383
30.20000 2.125
30.22000 1.575
30.24000 -0.139
30.26000 -0.199
30.28000 -0.704
30.30000 -1.828
30.32000 4.250
30.34000 3.880
30.36000 1.910
30.38000 0.247
30.40000 3.720
30.42000 -2.183
30.44000 -2.364
30.46000 -0.452
30.48000 2.750
30.50000 5.644
30.52000 2.237
30.54000 1.037
30.56000 3.667
30.58000 0.876
30.60000 1.953
30.62000 3.176
30.64000 0.814
30.66000 2.689
30.68000 7.855
30.70000 10.394
30.72000 7.952
30.74000 5.854
30.76000 5.224
30.78000 4.424
30.80000 -0.775
30.82000 0.669
30.84000 0.038
30.86000 -1.061
30.88000 2.521
30.90000 4.354
30.92000 -3.677
30.94000 1.713
30.96000 3.132
30.98000 2.079
31.00000 0.559
31.02000 0.297
31.04000 8.707
31.06000 8.592
31.08000 1.090
31.10000 0.320
31.12000 5.335
31.14000 6.795
31.16000 0.390
31.18000 1.701
31.20000 1.487
31.22000 0.364
31.24000 0.815
31.26000 1.130
31.28000 3.256
31.30000 5.635
31.32000 2.021
31.34000 -0.984
31.36000 -2.400
31.38000 1.890
31.40000 -0.831
31.42000 -1.582
31.44000 -1.161
31.46000 1.344
31.48000 6.909
31.50000 -3.663
31.52000 -2.171
31.54000 1.895
31.56000 1.304
31.58000 0.989
31.60000 0.522
31.62000 6.343
31.64000 6.869
31.66000 2.868
31.68000 -0.113
31.70000 -0.223
31.72000 2.971
31.74000 1.894
31.76000 0.719
31.78000 5.578
31.80000 3.463
31.82000 -0.908
31.84000 -0.026
31.86000 0.221
31.88000 -0.133
31.90000 -0.913
31.92000 1.066
31.94000 0.070
31.96000 0.806
31.98000 0.417
32.00000 -3.645
32.02000 -0.652
32.04000 0.175
32.06000 3.420
32.08000 2.466
32.10000 -0.775
32.12000 -2.820
32.14000 0.883
32.16000 1.662
32.18000 -0.624
32.20000 -1.715
32.22000 -2.169
32.24000 1.381
32.26000 -3.169
32.28000 -1.665
32.30000 0.808
32.32000 3.153
32.34000 3.206
32.36000 -0.772
32.38000 -2.439
32.40000 0.121
32.42000 2.200
32.44000 6.107
32.46000 -0.453
32.48000 -1.043
32.50000 4.000
32.52000 3.660
32.54000 -1.501
32.56000 1.893
32.58000 -2.269
32.60000 2.343
32.62000 4.776
32.64000 4.337
32.66000 2.073
32.68000 2.497
32.70000 0.908
32.72000 -3.049
32.74000 -2.787
32.76000 -3.595
32.78000 2.810
32.80000 1.871
32.82000 0.994
32.84000 2.721
32.86000 4.115
32.88000 2.265
32.90000 1.944
32.92000 6.588
32.94000 6.756
32.96000 4.616
32.98000 5.944
33.00000 6.938
33.02000 2.679
33.04000 1.848
33.06000 0.223
33.08000 -0.262
33.10000 8.491
33.12000 6.846
33.14000 6.708
33.16000 3.575
33.18000 1.476
33.20000 3.378
33.22000 4.455
33.24000 2.357
33.26000 -3.331
33.28000 5.050
33.30000 6.000
33.32000 -0.290
33.34000 2.581
33.36000 -1.984
33.38000 -0.759
33.40000 -0.526
33.42000 -2.166
33.44000 2.867
33.46000 5.892
33.48000 5.912
33.50000 0.402
33.52000 -1.125
33.54000 1.189
33.56000 1.359
33.58000 -0.686
33.60000 1.610
33.62000 -0.312
33.64000 1.053
33.66000 -0.462
33.68000 0.700
33.70000 -2.570
33.72000 -1.129
33.74000 2.337
33.76000 1.856
33.78000 1.466
33.80000 3.443
33.82000 5.750
33.84000 1.986
33.86000 -1.748
33.88000 -1.323
33.90000 0.222
33.92000 -1.247
33.94000 -1.553
33.96000 1.083
33.98000 1.183
34.00000 1.029
34.02000 -1.807
34.04000 -1.852
34.06000 1.924
34.08000 2.480
34.10000 3.603
34.12000 -0.869
34.14000 1.152
34.16000 2.453
34.18000 2.206
34.20000 5.071
34.22000 3.057
34.24000 -0.560
34.26000 -2.432
34.28000 2.463
34.30000 5.168
34.32000 3.908
34.34000 2.495
34.36000 3.689
34.38000 6.070
34.40000 2.747
34.42000 2.212
34.44000 0.039
34.46000 1.289
34.48000 2.694
34.50000 -2.683
34.52000 0.477
34.54000 3.509
34.56000 1.134
34.58000 2.023
34.60000 -1.215
34.62000 0.212
34.64000 -0.428
34.66000 3.023
34.68000 6.271
34.70000 6.414
34.72000 4.034
34.74000 3.056
34.76000 2.061
34.78000 0.961
34.80000 -0.739
34.82000 1.432
34.84000 4.656
34.86000 3.094
34.88000 -0.834
34.90000 -0.545
34.92000 2.187
34.94000 8.962
34.96000 7.600
34.98000 2.409
35.00000 0.139
35.02000 -2.320
35.04000 -0.053
35.06000 0.587
35.08000 4.819
35.10000 2.273
35.12000 0.724
35.14000 0.322
35.16000 -3.537
35.18000 1.670
35.20000 5.968
35.22000 0.213
35.24000 -0.608
35.26000 -0.250
35.28000 -0.491
35.30000 2.653
35.32000 3.972
35.34000 1.107
35.36000 0.542
35.38000 -1.634
35.40000 -1.093
35.42000 2.127
35.44000 7.413
35.46000 4.368
35.48000 1.062
35.50000 2.642
35.52000 2.007
35.54000 -0.597
35.56000 1.838
35.58000 1.256
35.60000 1.850
35.62000 1.417
35.64000 1.352
35.66000 3.263
35.68000 0.213
35.70000 -0.068
35.72000 -1.987
35.74000 1.916
35.76000 9.756
35.78000 9.105
35.80000 4.347
35.82000 3.446
35.84000 3.324
35.86000 -1.660
35.88000 3.346
35.90000 2.385
35.92000 -3.511
35.94000 2.611
35.96000 4.709
35.98000 1.712
36.00000 1.548
36.02000 5.155
36.04000 5.085
36.06000 4.723
36.08000 0.397
36.10000 5.203
36.12000 3.489
36.14000 3.448
36.16000 1.506
36.18000 1.420
36.20000 2.547
36.22000 5.213
36.24000 6.134
36.26000 4.885
36.28000 8.122
36.30000 5.455
36.32000 8.359
36.34000 6.946
36.36000 4.929
36.38000 2.298
36.40000 2.624
36.42000 1.312
36.44000 3.391
36.46000 0.835
36.48000 6.966
36.50000 6.256
36.52000 -1.200
36.54000 5.128
36.56000 3.360
36.58000 -0.791
36.60000 0.364
36.62000 2.346
36.64000 5.046
36.66000 3.584
36.68000 0.662
36.70000 2.395
36.72000 -3.535
36.74000 1.959
36.76000 2.899
36.78000 -2.422
36.80000 3.338
36.82000 6.190
36.84000 7.226
36.86000 8.412
36.88000 4.413
36.90000 4.366
36.92000 7.134
36.94000 6.346
36.96000 5.139
36.98000 5.425
37.00000 4.743
37.02000 0.823
37.04000 -2.848
37.06000 3.158
37.08000 -2.727
37.10000 0.706
37.12000 8.250
37.14000 2.031
37.16000 0.367
37.18000 -0.697
37.20000 1.332
37.22000 2.716
37.24000 -1.494
37.26000 0.179
37.28000 1.729
37.30000 4.184
37.32000 1.018
37.34000 4.244
37.36000 3.174
37.38000 0.076
37.40000 -2.217
37.42000 0.963
37.44000 0.175
37.46000 -3.619
37.48000 1.632
37.50000 0.126
37.52000 -1.558
37.54000 7.411
37.56000 7.621
37.58000 3.161
37.60000 2.911
37.62000 3.588
37.64000 3.534
37.66000 0.644
37.68000 3.395
37.70000 5.592
37.72000 -0.141
37.74000 0.236
37.76000 3.774
37.78000 5.542
37.80000 1.581
37.82000 3.426
37.84000 5.314
37.86000 6.791
37.88000 5.423
37.90000 7.659
37.92000 6.248
37.94000 3.339
37.96000 4.778
37.98000 5.582
38.00000 2.953
38.02000 2.305
38.04000 12.429
38.06000 9.435
38.08000 7.966
38.10000 12.159
38.12000 10.769
38.14000 8.243
38.16000 5.843
38.18000 11.654
38.20000 14.853
38.22000 15.281
38.24000 12.096
38.26000 9.193
38.28000 9.611
38.30000 12.544
38.32000 14.360
38.34000 18.014
38.36000 13.961
38.38000 15.175
38.40000 18.245
38.42000 16.296
38.44000 15.850
38.46000 20.676
38.48000 22.994
38.50000 16.285
38.52000 23.144
38.54000 21.325
38.56000 24.631
38.58000 27.016
38.60000 23.218
38.62000 21.868
38.64000 25.417
38.66000 27.723
38.68000 26.999
38.70000 27.218
38.72000 31.580
38.74000 31.680
38.76000 30.539
38.78000 28.994
38.80000 33.031
38.82000 35.911
38.84000 38.550
38.86000 35.561
38.88000 30.867
38.90000 35.362
38.92000 40.568
38.94000 42.608
38.96000 43.377
38.98000 50.460
39.00000 47.511
39.02000 50.489
39.04000 48.884
39.06000 52.107
39.08000 55.240
39.10000 56.069
39.12000 56.245
39.14000 60.313
39.16000 59.904
39.18000 63.741
39.20000 67.679
39.22000 71.750
39.24000 73.322
39.26000 78.813
39.28000 81.305
39.30000 79.531
39.32000 85.406
39.34000 86.967
39.36000 96.683
39.38000 103.735
39.40000 107.514
39.42000 111.989
39.44000 114.215
39.46000 114.159
39.48000 122.393
39.50000 125.098
39.52000 136.428
39.54000 147.610
39.56000 147.823
39.58000 157.993
39.60000 173.691
39.62000 179.370
39.64000 187.838
39.66000 195.916
39.68000 207.039
39.70000 219.843
39.72000 231.322
39.74000 233.908
39.76000 245.883
39.78000 263.583
39.80000 281.414
39.82000 287.036
39.84000 304.205
39.86000 313.358
39.88000 329.540
39.90000 346.043
39.92000 367.349
39.94000 370.185
39.96000 387.309
39.98000 411.519
40.00000 422.436
40.02000 442.878
40.04000 463.767
40.06000 472.286
40.08000 486.029
40.10000 498.332
40.12000 505.222
40.14000 514.883
40.16000 520.059
40.18000 529.646
40.20000 541.346
40.22000 549.665
40.24000 552.874
40.26000 550.264
40.28000 549.726
40.30000 549.577
40.32000 541.078
40.34000 534.291
40.36000 534.482
40.38000 538.679
40.40000 526.541
40.42000 516.613
40.44000 505.721
40.46000 493.224
40.48000 484.097
40.50000 470.045
40.52000 456.359
40.54000 438.386
40.56000 420.772
40.58000 415.470
40.60000 393.564
40.62000 381.531
40.64000 366.787
40.66000 343.850
40.68000 326.882
40.70000 318.940
40.72000 300.516
40.74000 289.844
40.76000 279.863
40.78000 266.723
40.80000 255.003
40.82000 241.434
40.84000 232.445
40.86000 220.354
40.88000 205.262
40.90000 193.664
40.92000 179.441
40.94000 170.717
40.96000 165.754
40.98000 157.047
41.00000 147.401
41.02000 140.069
41.04000 137.190
41.06000 128.376
41.08000 120.312
41.10000 111.796
41.12000 106.896
41.14000 99.887
41.16000 91.765
41.18000 85.591
41.20000 87.528
41.22000 83.412
41.24000 81.605
41.26000 73.292
41.28000 66.219
41.30000 66.101
41.32000 67.784
41.34000 64.108
41.36000 57.798
41.38000 50.462
41.40000 44.774
41.42000 47.366
41.44000 44.380
41.46000 40.414
41.48000 41.878
41.50000 39.638
41.52000 38.638
41.54000 41.606
41.56000 38.215
41.58000 35.488
41.60000 31.208
41.62000 24.710
41.64000 28.603
41.66000 25.110
41.68000 22.112
41.70000 21.203
41.72000 22.885
41.74000 23.296
41.76000 23.116
41.78000 18.882
41.80000 18.084
41.82000 18.144
41.84000 20.128
41.86000 14.768
41.88000 17.215
41.90000 16.830
41.92000 18.944
41.94000 18.830
41.96000 18.798
41.98000 11.258
42.00000 9.497
42.02000 15.240
42.04000 15.421
42.06000 9.077
42.08000 6.746
42.10000 9.932
42.12000 12.673
42.14000 13.326
42.16000 10.138
42.18000 7.642
42.20000 8.204
42.22000 7.602
42.24000 7.583
42.26000 6.290
42.28000 4.539
42.30000 5.266
42.32000 4.171
42.34000 2.687
42.36000 6.258
42.38000 2.948
42.40000 2.882
42.42000 5.215
42.44000 1.921
42.46000 4.241
42.48000 5.554
42.50000 8.270
42.52000 6.343
42.54000 6.389
42.56000 2.475
42.58000 -0.938
42.60000 0.111
42.62000 2.833
42.64000 0.032
42.66000 -3.500
42.68000 1.176
42.70000 1.923
42.72000 2.658
42.74000 4.663
42.76000 3.456
42.78000 3.740
42.80000 2.160
42.82000 1.787
42.84000 -0.070
42.86000 -0.453
42.88000 1.491
42.90000 2.748
42.92000 4.994
42.94000 7.288
42.96000 4.412
42.98000 3.364
43.00000 2.583
43.02000 1.580
43.04000 2.922
43.06000 5.938
43.08000 2.191
43.10000 1.730
43.12000 3.254
43.14000 0.291
43.16000 -1.640
43.18000 -2.245
43.20000 2.467
43.22000 7.036
43.24000 4.918
43.26000 -3.413
43.28000 -1.300
43.30000 1.697
43.32000 0.727
43.34000 2.492
43.36000 3.535
43.38000 3.447
43.40000 -0.070
43.42000 6.592
43.44000 6.890
43.46000 5.309
43.48000 5.058
43.50000 4.881
43.52000 2.264
43.54000 -1.922
43.56000 0.056
43.58000 -2.603
43.60000 -2.555
43.62000 0.621
43.64000 -0.949
43.66000 2.970
43.68000 1.719
43.70000 -0.349
43.72000 2.192
43.74000 4.100
43.76000 2.601
43.78000 2.560
43.80000 0.614
43.82000 -0.518
43.84000 -2.372
43.86000 -2.424
43.88000 1.376
43.90000 2.149
43.92000 -0.419
43.94000 0.943
43.96000 -0.675
43.98000 4.642
44.00000 2.584
44.02000 1.716
44.04000 -0.565
44.06000 0.367
44.08000 3.277
44.10000 -1.937
44.12000 -2.433
44.14000 -1.789
44.16000 0.500
44.18000 -1.875
44.20000 -0.240
44.22000 3.141
44.24000 0.764
44.26000 0.636
44.28000 5.362
44.30000 5.391
44.32000 3.605
44.34000 0.758
44.36000 -0.395
44.38000 0.694
44.40000 -2.679
44.42000 -3.352
44.44000 3.339
44.46000 0.643
44.48000 -2.429
44.50000 -0.999
44.52000 2.085
44.54000 3.449
44.56000 -3.285
44.58000 -1.141
44.60000 1.445
44.62000 -0.921
44.64000 -3.357
44.66000 2.972
44.68000 2.946
44.70000 3.387
44.72000 -0.738
44.74000 -0.193
44.76000 1.486
44.78000 3.969
44.80000 3.262
44.82000 3.860
44.84000 0.718
44.86000 3.523
44.88000 1.408
44.90000 -0.238
44.92000 3.362
44.94000 3.842
44.96000 8.006
44.98000 6.550
45.00000 4.149
45.02000 6.768
45.04000 9.969
45.06000 9.155
45.08000 6.226
45.10000 2.189
45.12000 7.214
45.14000 12.312
45.16000 11.604
45.18000 8.744
45.20000 6.584
45.22000 7.151
45.24000 9.219
45.26000 10.635
45.28000 10.827
45.30000 9.930
45.32000 13.543
45.34000 6.866
45.36000 7.615
45.38000 12.183
45.40000 14.313
45.42000 9.186
45.44000 9.773
45.46000 11.374
45.48000 13.714
45.50000 13.976
45.52000 15.713
45.54000 15.237
45.56000 17.059
45.58000 17.820
45.60000 21.960
45.62000 22.900
45.64000 17.685
45.66000 13.929
45.68000 17.834
45.70000 19.832
45.72000 13.020
45.74000 17.987
45.76000 30.180
45.78000 25.226
45.80000 21.229
45.82000 21.815
45.84000 23.971
45.86000 22.076
45.88000 26.236
45.90000 27.369
45.92000 25.943
45.94000 32.384
45.96000 32.335
45.98000 36.216
46.00000 40.069
46.02000 35.897
46.04000 38.736
46.06000 42.365
46.08000 36.359
46.10000 40.545
46.12000 42.457
46.14000 48.980
46.16000 50.253
46.18000 48.658
46.20000 48.552
46.22000 47.571
46.24000 48.886
46.26000 54.140
46.28000 54.905
46.30000 51.857
46.32000 55.952
46.34000 56.239
46.36000 53.521
46.38000 60.592
46.40000 62.466
46.42000 65.542
46.44000 68.576
46.46000 65.048
46.48000 65.640
46.50000 67.204
46.52000 72.597
46.54000 75.049
46.56000 78.499
46.58000 72.588
46.60000 72.408
46.62000 77.260
46.64000 78.841
46.66000 76.982
46.68000 85.753
46.70000 83.413
46.72000 78.157
46.74000 79.917
46.76000 83.576
46.78000 90.891
46.80000 91.393
46.82000 85.393
46.84000 91.084
46.86000 92.724
46.88000 90.939
46.90000 88.037
46.92000 95.214
46.94000 93.933
46.96000 90.539
46.98000 89.772
47.00000 89.625
47.02000 89.202
47.04000 93.335
47.06000 89.672
47.08000 87.847
47.10000 85.988
47.12000 81.424
47.14000 83.051
47.16000 79.425
47.18000 83.709
47.20000 84.314
47.22000 85.570
47.24000 80.221
47.26000 73.231
47.28000 69.423
47.30000 72.709
47.32000 73.061
47.34000 62.883
47.36000 61.075
47.38000 59.193
47.40000 61.924
47.42000 61.724
47.44000 62.181
47.46000 56.965
47.48000 53.098
47.50000 52.057
47.52000 51.948
47.54000 55.269
47.56000 51.524
47.58000 53.299
47.60000 52.923
47.62000 52.338
47.64000 44.935
47.66000 39.081
47.68000 40.181
47.70000 37.371
47.72000 40.148
47.74000 34.876
47.76000 28.135
47.78000 31.417
47.80000 35.031
47.82000 31.374
47.84000 24.533
47.86000 22.462
47.88000 20.613
47.90000 22.295
47.92000 20.687
47.94000 22.164
47.96000 19.366
47.98000 17.139
48.00000 14.987
48.02000 20.257
48.04000 16.529
48.06000 13.156
48.08000 12.979
48.10000 13.903
48.12000 12.003
48.14000 8.410
48.16000 8.044
48.18000 8.404
48.20000 9.981
48.22000 9.506
48.24000 6.639
48.26000 9.580
48.28000 14.096
48.30000 9.309
48.32000 6.113
48.34000 10.005
48.36000 7.123
48.38000 8.180
48.40000 6.438
48.42000 8.445
48.44000 2.875
48.46000 6.679
48.48000 0.176
48.50000 1.829
48.52000 6.041
48.54000 5.488
48.56000 4.757
48.58000 1.345
48.60000 2.976
48.62000 -0.791
48.64000 1.082
48.66000 5.830
48.68000 5.936
48.70000 5.817
48.72000 7.517
48.74000 6.590
48.76000 7.966
48.78000 10.322
48.80000 10.254
48.82000 4.453
48.84000 3.163
48.86000 -0.718
48.88000 0.452
48.90000 3.014
48.92000 7.279
48.94000 10.478
48.96000 4.787
48.98000 0.595
49.00000 2.320
49.02000 3.039
49.04000 3.246
49.06000 -0.623
49.08000 0.247
49.10000 6.860
49.12000 6.461
49.14000 1.751
49.16000 -2.921
49.18000 3.026
49.20000 4.048
49.22000 2.420
49.24000 4.271
49.26000 4.042
49.28000 5.436
49.30000 2.756
49.32000 4.804
49.34000 1.318
49.36000 0.479
49.38000 3.296
49.40000 5.440
49.42000 2.603
49.44000 1.847
49.46000 1.372
49.48000 8.928
49.50000 12.493
49.52000 6.388
49.54000 5.170
49.56000 7.754
49.58000 4.420
49.60000 2.064
49.62000 -1.604
49.64000 3.746
49.66000 6.575
49.68000 4.730
49.70000 -1.798
49.72000 2.142
49.74000 3.903
49.76000 -2.837
49.78000 2.918
49.80000 5.718
49.82000 4.847
49.84000 2.494
49.86000 -0.385
49.88000 3.434
49.90000 2.949
49.92000 3.317
49.94000 4.397
49.96000 2.432
49.98000 2.708
50.00000 0.796
50.02000 0.950
50.04000 2.089
50.06000 1.436
50.08000 2.587
50.10000 5.907
50.12000 1.188
50.14000 0.482
50.16000 4.239
50.18000 1.811
50.20000 4.328
50.22000 1.528
50.24000 0.953
50.26000 3.980
50.28000 5.300
50.30000 1.954
50.32000 -1.032
50.34000 -0.046
50.36000 0.659
50.38000 1.266
50.40000 1.546
50.42000 2.679
50.44000 0.343
50.46000 0.507
50.48000 1.969
50.50000 3.895
50.52000 4.650
50.54000 -2.398
50.56000 -0.860
50.58000 0.922
50.60000 0.199
50.62000 1.269
50.64000 3.303
50.66000 1.399
50.68000 -1.089
50.70000 -1.168
50.72000 1.854
50.74000 5.170
50.76000 3.977
50.78000 -1.836
50.80000 0.310
50.82000 1.517
50.84000 3.679
50.86000 3.687
50.88000 -0.120
50.90000 -0.166
50.92000 6.507
50.94000 3.806
50.96000 5.877
50.98000 7.253
51.00000 2.674
51.02000 2.158
51.04000 0.161
51.06000 0.486
51.08000 1.808
51.10000 -0.234
51.12000 -2.779
51.14000 -2.219
51.16000 -2.241
51.18000 4.844
51.20000 5.927
51.22000 4.252
51.24000 -2.092
51.26000 -1.919
51.28000 1.715
51.30000 2.054
51.32000 -1.378
51.34000 0.740
51.36000 3.234
51.38000 3.253
51.40000 -0.719
51.42000 1.392
51.44000 -0.382
51.46000 0.666
51.48000 -1.259
51.50000 -2.762
51.52000 -2.246
51.54000 0.452
51.56000 -0.591
51.58000 -0.421
51.60000 3.636
51.62000 0.668
51.64000 3.289
51.66000 4.055
51.68000 1.601
51.70000 2.456
51.72000 3.087
51.74000 3.415
51.76000 2.080
51.78000 -1.913
51.80000 0.725
51.82000 3.583
51.84000 2.568
51.86000 5.629
51.88000 2.419
51.90000 8.268
51.92000 5.107
51.94000 3.392
51.96000 4.788
51.98000 3.792
52.00000 1.452
52.02000 -2.610
52.04000 1.475
52.06000 4.111
52.08000 4.197
52.10000 1.899
52.12000 0.211
52.14000 1.737
52.16000 3.687
52.18000 4.813
52.20000 6.714
52.22000 2.458
52.24000 2.431
52.26000 0.057
52.28000 4.258
52.30000 0.883
52.32000 -2.720
52.34000 -0.263
52.36000 3.641
52.38000 3.491
52.40000 4.429
52.42000 4.240
52.44000 0.476
52.46000 2.736
52.48000 2.505
52.50000 0.935
52.52000 5.338
52.54000 4.145
52.56000 2.639
52.58000 2.235
52.60000 2.155
52.62000 4.125
52.64000 3.553
52.66000 3.190
52.68000 7.669
52.70000 11.033
52.72000 6.368
52.74000 8.530
52.76000 5.692
52.78000 3.411
52.80000 2.742
52.82000 2.790
52.84000 5.608
52.86000 7.046
52.88000 8.707
52.90000 6.286
52.92000 2.856
52.94000 5.917
52.96000 6.065
52.98000 4.540
53.00000 6.773
53.02000 3.263
53.04000 6.690
53.06000 6.109
53.08000 4.481
53.10000 7.737
53.12000 6.490
53.14000 1.394
53.16000 -2.648
53.18000 3.784
53.20000 9.323
53.22000 8.980
53.24000 5.583
53.26000 7.040
53.28000 6.121
53.30000 2.248
53.32000 6.538
53.34000 7.138
53.36000 2.376
53.38000 2.788
53.40000 3.107
53.42000 7.306
53.44000 6.845
53.46000 7.619
53.48000 1.619
53.50000 -0.224
53.52000 5.290
53.54000 10.140
53.56000 8.721
53.58000 1.513
53.60000 -1.125
53.62000 -0.744
53.64000 0.257
53.66000 2.662
53.68000 3.741
53.70000 4.552
53.72000 2.603
53.74000 0.588
53.76000 3.293
53.78000 1.278
53.80000 2.938
53.82000 6.436
53.84000 9.259
53.86000 0.686
53.88000 1.789
53.90000 2.346
53.92000 9.160
53.94000 6.417
53.96000 3.757
53.98000 1.645
54.00000 0.462
54.02000 6.971
54.04000 4.417
54.06000 2.444
54.08000 3.050
54.10000 1.627
54.12000 9.364
54.14000 9.985
54.16000 7.135
54.18000 3.499
54.20000 4.189
54.22000 1.307
54.24000 -2.650
54.26000 -1.123
54.28000 -1.656
54.30000 3.306
54.32000 5.170
54.34000 6.257
54.36000 6.827
54.38000 3.737
54.40000 1.414
54.42000 0.909
54.44000 3.476
54.46000 2.037
54.48000 3.089
54.50000 5.506
54.52000 4.996
54.54000 7.280
54.56000 3.698
54.58000 2.685
54.60000 2.910
54.62000 4.927
54.64000 0.200
54.66000 0.319
54.68000 4.560
54.70000 2.499
54.72000 3.484
54.74000 -0.313
54.76000 -0.924
54.78000 -1.431
54.80000 2.155
54.82000 2.408
54.84000 3.602
54.86000 5.247
54.88000 2.764
54.90000 2.417
54.92000 2.120
54.94000 1.623
54.96000 2.728
54.98000 1.413
55.00000 3.604
55.02000 0.367
55.04000 1.984
55.06000 5.731
55.08000 6.100
55.10000 5.975
55.12000 2.932
55.14000 -0.833
55.16000 -2.654
55.18000 0.658
55.20000 3.260
55.22000 6.830
55.24000 3.591
55.26000 1.441
55.28000 1.324
55.30000 2.066
55.32000 -0.537
55.34000 4.498
55.36000 5.245
55.38000 8.014
55.40000 8.412
55.42000 3.474
55.44000 3.002
55.46000 3.921
55.48000 2.518
55.50000 2.061
55.52000 -0.571
55.54000 6.329
55.56000 1.550
55.58000 -0.287
55.60000 3.150
55.62000 2.506
55.64000 -0.436
55.66000 -2.639
55.68000 -0.120
55.70000 2.800
55.72000 2.305
55.74000 3.373
55.76000 3.623
55.78000 1.284
55.80000 8.507
55.82000 5.286
55.84000 6.431
55.86000 1.223
55.88000 -0.807
55.90000 2.462
55.92000 2.304
55.94000 1.053
55.96000 0.568
55.98000 -0.993
56.00000 -0.189
56.02000 1.309
56.04000 1.202
56.06000 0.591
56.08000 2.192
56.10000 2.685
56.12000 1.856
56.14000 2.810
56.16000 4.642
56.18000 0.159
56.20000 -0.006
56.22000 0.492
56.24000 0.099
56.26000 3.206
56.28000 3.245
56.30000 3.765
56.32000 4.424
56.34000 2.921
56.36000 3.788
56.38000 5.826
56.40000 3.427
56.42000 -2.361
56.44000 0.207
56.46000 3.069
56.48000 -0.483
56.50000 2.453
56.52000 3.004
56.54000 4.986
56.56000 1.277
56.58000 -2.144
56.60000 4.519
56.62000 0.483
56.64000 -2.615
56.66000 1.080
56.68000 2.926
56.70000 2.118
56.72000 2.192
56.74000 4.441
56.76000 3.297
56.78000 -2.496
56.80000 1.856
56.82000 2.204
56.84000 2.383
56.86000 2.087
56.88000 -0.420
56.90000 -1.373
56.92000 3.396
56.94000 1.851
56.96000 2.455
56.98000 1.233
57.00000 -0.568
57.02000 1.580
57.04000 4.855
57.06000 3.741
57.08000 4.591
57.10000 4.321
57.12000 2.112
57.14000 1.172
57.16000 1.119
57.18000 2.868
57.20000 4.231
57.22000 1.030
57.24000 -2.079
57.26000 2.098
57.28000 1.735
57.30000 -1.286
57.32000 2.687
57.34000 3.281
57.36000 1.957
57.38000 2.506
57.40000 2.192
57.42000 3.317
57.44000 6.203
57.46000 2.304
57.48000 1.381
57.50000 2.886
57.52000 -0.085
57.54000 -2.589
57.56000 -1.216
57.58000 3.396
57.60000 4.700
57.62000 4.094
57.64000 1.118
57.66000 1.451
57.68000 2.637
57.70000 6.549
57.72000 3.869
57.74000 3.377
57.76000 4.481
57.78000 4.439
57.80000 1.334
57.82000 0.896
57.84000 2.221
57.86000 3.012
57.88000 5.702
57.90000 -1.849
57.92000 1.410
57.94000 3.751
57.96000 -0.369
57.98000 2.205
58.00000 2.474
58.02000 -2.335
58.04000 -2.301
58.06000 2.074
58.08000 1.692
58.10000 1.086
58.12000 2.657
58.14000 1.918
58.16000 0.685
58.18000 5.802
58.20000 9.043
58.22000 3.236
58.24000 -2.547
58.26000 -2.393
58.28000 2.296
58.30000 4.058
58.32000 2.026
58.34000 2.655
58.36000 1.358
58.38000 -0.316
58.40000 1.406
58.42000 3.079
58.44000 2.358
58.46000 2.313
58.48000 2.232
58.50000 1.520
58.52000 3.278
58.54000 3.560
58.56000 3.609
58.58000 2.098
58.60000 1.697
58.62000 -1.499
58.64000 -1.843
58.66000 2.041
58.68000 4.169
58.70000 3.719
58.72000 6.381
58.74000 0.355
58.76000 1.451
58.78000 2.774
58.80000 5.258
58.82000 9.454
58.84000 7.800
58.86000 3.988
58.88000 4.112
58.90000 4.832
58.92000 3.286
58.94000 0.040
58.96000 -2.020
58.98000 3.904
59.00000 3.423
59.02000 2.692
59.04000 3.096
59.06000 6.377
59.08000 6.603
59.10000 6.079
59.12000 7.020
59.14000 5.750
59.16000 4.138
59.18000 2.855
59.20000 5.603
59.22000 2.281
59.24000 1.281
59.26000 0.848
59.28000 2.075
59.30000 4.925
59.32000 5.729
59.34000 4.494
59.36000 5.314
59.38000 1.273
59.40000 2.492
59.42000 6.603
59.44000 7.049
59.46000 6.229
59.48000 -2.478
59.50000 1.087
59.52000 4.061
59.54000 4.622
59.56000 0.656
59.58000 4.762
59.60000 4.757
59.62000 5.119
59.64000 2.424
59.66000 2.316
59.68000 5.901
59.70000 7.980
59.72000 4.159
59.74000 3.159
59.76000 4.500
59.78000 5.073
59.80000 7.136
59.82000 6.823
59.84000 7.281
59.86000 4.657
59.88000 3.864
59.90000 4.188
59.92000 4.406
59.94000 1.645
59.96000 4.312
59.98000 -0.330
60.00000 0.886
60.02000 0.976
60.04000 2.299
60.06000 0.856
60.08000 2.330
60.10000 0.780
60.12000 -0.067
60.14000 -2.296
60.16000 1.549
60.18000 5.888
60.20000 4.553
60.22000 4.149
60.24000 3.034
60.26000 2.711
60.28000 0.238
60.30000 2.596
60.32000 3.357
60.34000 4.583
60.36000 5.918
60.38000 3.867
60.40000 0.451
60.42000 0.727
60.44000 3.306
60.46000 4.474
60.48000 3.833
60.50000 4.239
60.52000 2.449
60.54000 0.172
60.56000 4.451
60.58000 2.636
60.60000 6.907
60.62000 5.764
60.64000 3.885
60.66000 -0.785
60.68000 4.229
60.70000 4.534
60.72000 3.535
60.74000 1.775
60.76000 1.882
60.78000 4.143
60.80000 4.614
60.82000 1.670
60.84000 4.243
60.86000 8.125
60.88000 3.688
60.90000 -0.959
60.92000 -0.921
60.94000 0.933
60.96000 1.485
60.98000 3.650
61.00000 -2.461
61.02000 -1.169
61.04000 0.637
61.06000 3.582
61.08000 -0.931
61.10000 -2.455
61.12000 -1.249
61.14000 3.024
61.16000 1.529
61.18000 -2.029
61.20000 -0.130
61.22000 0.992
61.24000 5.215
61.26000 4.790
61.28000 3.201
61.30000 3.241
61.32000 2.985
61.34000 1.950
61.36000 0.516
61.38000 2.337
61.40000 1.068
61.42000 2.432
61.44000 1.937
61.46000 3.818
61.48000 7.421
61.50000 4.079
61.52000 0.628
61.54000 0.507
61.56000 2.748
61.58000 4.657
61.60000 2.619
61.62000 3.668
61.64000 4.691
61.66000 1.699
61.68000 4.159
61.70000 2.694
61.72000 0.746
61.74000 1.243
61.76000 1.632
61.78000 4.701
61.80000 4.017
61.82000 4.591
61.84000 0.934
61.86000 0.070
61.88000 -2.061
61.90000 3.516
61.92000 5.034
61.94000 1.538
61.96000 2.662
61.98000 4.757
62.00000 2.706
62.02000 3.039
62.04000 2.218
62.06000 1.302
62.08000 3.561
62.10000 4.987
62.12000 4.614
62.14000 3.622
62.16000 7.236
62.18000 6.180
62.20000 6.305
62.22000 6.806
62.24000 5.322
62.26000 5.248
62.28000 3.335
62.30000 1.332
62.32000 3.673
62.34000 2.707
62.36000 0.586
62.38000 2.120
62.40000 1.612
62.42000 3.065
62.44000 3.118
62.46000 2.351
62.48000 -1.858
62.50000 -1.837
62.52000 -2.418
62.54000 2.858
62.56000 4.810
62.58000 8.499
62.60000 7.957
62.62000 4.990
62.64000 3.907
62.66000 5.169
62.68000 3.815
62.70000 3.374
62.72000 5.058
62.74000 2.419
62.76000 3.062
62.78000 1.009
62.80000 0.712
62.82000 5.418
62.84000 6.751
62.86000 1.992
62.88000 0.254
62.90000 0.660
62.92000 5.590
62.94000 4.304
62.96000 1.911
62.98000 3.941
63.00000 4.527
63.02000 5.749
63.04000 4.781
63.06000 2.089
63.08000 3.686
63.10000 1.741
63.12000 -0.996
63.14000 0.283
63.16000 -0.336
63.18000 -0.083
63.20000 -1.065
63.22000 -1.717
63.24000 3.042
63.26000 2.040
63.28000 1.063
63.30000 0.056
63.32000 3.642
63.34000 2.567
63.36000 0.310
63.38000 3.770
63.40000 2.232
63.42000 -1.163
63.44000 0.012
63.46000 0.901
63.48000 1.074
63.50000 1.021
63.52000 3.734
63.54000 3.944
63.56000 -0.146
63.58000 -0.302
63.60000 -0.605
63.62000 0.262
63.64000 1.697
63.66000 2.205
63.68000 0.313
63.70000 2.316
63.72000 4.699
63.74000 0.814
63.76000 1.199
63.78000 -2.143
63.80000 -1.475
63.82000 5.983
63.84000 7.605
63.86000 3.378
63.88000 4.555
63.90000 5.262
63.92000 5.652
63.94000 0.392
63.96000 3.497
63.98000 1.212
64.00000 3.646
64.02000 5.177
64.04000 -0.120
64.06000 -2.418
64.08000 3.756
64.10000 6.671
64.12000 2.805
64.14000 3.795
64.16000 4.506
64.18000 5.460
64.20000 5.366
64.22000 3.380
64.24000 2.926
64.26000 6.887
64.28000 4.584
64.30000 1.475
64.32000 -0.577
64.34000 0.652
64.36000 0.683
64.38000 4.522
64.40000 2.392
64.42000 2.590
64.44000 2.817
64.46000 4.095
64.48000 3.500
64.50000 -1.030
64.52000 1.036
64.54000 0.373
64.56000 2.688
64.58000 5.079
64.60000 5.956
64.62000 3.452
64.64000 0.895
64.66000 2.733
64.68000 1.898
64.70000 7.322
64.72000 5.061
64.74000 1.562
64.76000 5.022
64.78000 2.930
64.80000 1.424
64.82000 -0.005
64.84000 0.082
64.86000 -0.641
64.88000 0.490
64.90000 4.824
64.92000 2.706
64.94000 2.600
64.96000 3.522
64.98000 3.185
65.00000 1.895
65.02000 1.534
65.04000 1.274
65.06000 2.492
65.08000 2.995
65.10000 2.029
65.12000 3.186
65.14000 3.972
65.16000 3.828
65.18000 2.391
65.20000 3.082
65.22000 2.613
65.24000 0.574
65.26000 -0.236
65.28000 2.452
65.30000 -2.445
65.32000 0.095
65.34000 2.921
65.36000 4.484
65.38000 5.148
65.40000 3.864
65.42000 0.538
65.44000 4.581
65.46000 5.203
65.48000 3.666
65.50000 2.435
65.52000 3.363
65.54000 2.745
65.56000 2.829
65.58000 1.653
65.60000 -0.024
65.62000 1.253
65.64000 1.331
65.66000 2.859
65.68000 3.071
65.70000 0.560
65.72000 2.539
65.74000 4.822
65.76000 3.442
65.78000 2.272
65.80000 2.732
65.82000 0.532
65.84000 1.476
65.86000 6.787
65.88000 2.261
65.90000 -0.771
65.92000 1.198
65.94000 0.480
65.96000 1.435
65.98000 2.777
66.00000 0.584
66.02000 1.559
66.04000 1.603
66.06000 3.809
66.08000 2.556
66.10000 5.081
66.12000 4.603
66.14000 6.202
66.16000 2.401
66.18000 0.519
66.20000 0.554
66.22000 0.812
66.24000 2.671
66.26000 0.898
66.28000 0.504
66.30000 -1.120
66.32000 -2.501
66.34000 -1.091
66.36000 0.026
66.38000 1.911
66.40000 0.630
66.42000 0.797
66.44000 0.635
66.46000 2.260
66.48000 2.786
66.50000 0.677
66.52000 0.607
66.54000 0.797
66.56000 -0.906
66.58000 1.314
66.60000 5.800
66.62000 3.692
66.64000 -0.398
66.66000 2.665
66.68000 1.439
66.70000 -0.585
66.72000 -0.831
66.74000 -0.293
66.76000 0.896
66.78000 1.768
66.80000 1.449
66.82000 1.023
66.84000 0.976
66.86000 -2.267
66.88000 -2.068
66.90000 0.941
66.92000 1.088
66.94000 1.622
66.96000 1.819
66.98000 3.844
67.00000 5.727
67.02000 -0.520
67.04000 2.729
67.06000 3.094
67.08000 2.645
67.10000 2.137
67.12000 0.464
67.14000 -0.918
67.16000 1.197
67.18000 0.261
67.20000 1.097
67.22000 3.748
67.24000 1.853
67.26000 2.461
67.28000 1.733
67.30000 2.511
67.32000 1.166
67.34000 0.943
67.36000 1.315
67.38000 6.843
67.40000 7.700
67.42000 3.986
67.44000 1.661
67.46000 3.644
67.48000 2.596
67.50000 4.648
67.52000 5.554
67.54000 7.625
67.56000 6.001
67.58000 3.598
67.60000 4.212
67.62000 4.510
67.64000 5.672
67.66000 6.990
67.68000 9.041
67.70000 9.195
67.72000 10.327
67.74000 9.137
67.76000 11.292
67.78000 9.426
67.80000 10.750
67.82000 12.876
67.84000 12.165
67.86000 12.021
67.88000 17.047
67.90000 15.751
67.92000 8.544
67.94000 9.098
67.96000 13.206
67.98000 12.376
68.00000 12.894
68.02000 16.323
68.04000 14.665
68.06000 15.181
68.08000 16.647
68.10000 17.339
68.12000 16.081
68.14000 20.023
68.16000 17.580
68.18000 17.801
68.20000 16.703
68.22000 16.950
68.24000 19.824
68.26000 21.277
68.28000 23.466
68.30000 24.432
68.32000 23.077
68.34000 23.348
68.36000 19.835
68.38000 20.415
68.40000 21.044
68.42000 23.615
68.44000 21.584
68.46000 20.592
68.48000 25.312
68.50000 27.857
68.52000 21.460
68.54000 21.446
68.56000 22.600
68.58000 21.652
68.60000 20.019
68.62000 21.033
68.64000 19.213
68.66000 19.047
68.68000 21.939
68.70000 20.841
68.72000 19.207
68.74000 20.819
68.76000 21.241
68.78000 17.155
68.80000 19.123
68.82000 21.860
68.84000 17.215
68.86000 17.186
68.88000 17.406
68.90000 18.419
68.92000 13.710
68.94000 10.128
68.96000 13.686
68.98000 12.037
69.00000 12.265
69.02000 15.046
69.04000 13.187
69.06000 14.213
69.08000 14.455
69.10000 12.272
69.12000 10.369
69.14000 12.415
69.16000 12.985
69.18000 13.140
69.20000 10.963
69.22000 11.132
69.24000 14.260
69.26000 12.635
69.28000 9.491
69.30000 9.189
69.32000 7.864
69.34000 8.959
69.36000 6.867
69.38000 7.627
69.40000 7.824
69.42000 6.477
69.44000 3.804
69.46000 1.681
69.48000 2.847
69.50000 5.463
69.52000 4.173
69.54000 6.991
69.56000 5.501
69.58000 2.117
69.60000 2.802
69.62000 6.377
69.64000 3.755
69.66000 -0.666
69.68000 0.943
69.70000 1.507
69.72000 5.006
69.74000 2.766
69.76000 3.681
69.78000 3.343
69.80000 2.686
69.82000 2.080
69.84000 4.156
69.86000 0.810
69.88000 0.644
69.90000 1.940
69.92000 3.060
69.94000 -2.476
69.96000 -0.020
69.98000 3.284
70.00000 0.355
70.02000 0.336
70.04000 0.921
70.06000 4.192
70.08000 2.532
70.10000 0.060
70.12000 -1.439
70.14000 1.288
70.16000 1.346
70.18000 2.173
70.20000 0.978
70.22000 -1.936
70.24000 2.351
70.26000 0.868
70.28000 -2.428
70.30000 1.491
70.32000 3.327
70.34000 6.954
70.36000 7.142
70.38000 3.689
70.40000 -0.045
70.42000 1.815
70.44000 3.611
70.46000 3.976
70.48000 0.996
70.50000 1.119
70.52000 1.026
70.54000 3.689
70.56000 2.530
70.58000 2.499
70.60000 -2.247
70.62000 0.247
70.64000 2.943
70.66000 2.864
70.68000 -0.272
70.70000 -1.513
70.72000 0.570
70.74000 -1.336
70.76000 -2.374
70.78000 -2.223
70.80000 4.115
70.82000 5.133
70.84000 4.589
70.86000 -0.299
70.88000 4.231
70.90000 1.999
70.92000 4.147
70.94000 2.571
70.96000 5.771
70.98000 2.965
71.00000 0.637
71.02000 3.684
71.04000 6.234
71.06000 7.745
71.08000 0.632
71.10000 -0.993
71.12000 -0.278
71.14000 1.803
71.16000 0.745
71.18000 0.931
71.20000 -1.858
71.22000 -0.104
71.24000 -1.242
71.26000 -0.272
71.28000 2.717
71.30000 1.764
71.32000 5.790
71.34000 4.221
71.36000 1.199
71.38000 1.828
71.40000 -0.551
71.42000 3.920
71.44000 5.775
71.46000 0.966
71.48000 0.102
71.50000 0.449
71.52000 3.089
71.54000 4.137
71.56000 -0.806
71.58000 2.472
71.60000 3.308
71.62000 0.688
71.64000 0.565
71.66000 0.452
71.68000 0.756
71.70000 6.012
71.72000 2.791
71.74000 3.229
71.76000 0.938
71.78000 -1.753
71.80000 0.053
71.82000 3.888
71.84000 6.028
71.86000 3.167
71.88000 1.362
71.90000 3.947
71.92000 3.240
71.94000 0.989
71.96000 1.531
71.98000 4.209
72.00000 0.535
72.02000 0.836
72.04000 1.922
72.06000 1.312
72.08000 1.266
72.10000 -1.098
72.12000 -0.767
72.14000 3.854
72.16000 3.712
72.18000 2.818
72.20000 1.938
72.22000 4.932
72.24000 5.103
72.26000 2.316
72.28000 -0.803
72.30000 0.502
72.32000 1.190
72.34000 0.882
72.36000 3.578
72.38000 4.989
72.40000 4.316
72.42000 2.639
72.44000 4.898
72.46000 4.885
72.48000 0.448
72.50000 1.446
72.52000 3.621
72.54000 5.127
72.56000 6.057
72.58000 -2.265
72.60000 2.731
72.62000 5.015
72.64000 2.874
72.66000 4.389
72.68000 4.127
72.70000 5.691
72.72000 5.791
72.74000 4.716
72.76000 6.583
72.78000 3.622
72.80000 7.043
72.82000 4.753
72.84000 8.171
72.86000 4.573
72.88000 2.428
72.90000 -2.276
72.92000 1.127
72.94000 3.666
72.96000 1.952
72.98000 3.134
73.00000 3.460
73.02000 0.925
73.04000 0.477
73.06000 1.158
73.08000 -0.467
73.10000 0.053
73.12000 -0.490
73.14000 -0.762
73.16000 1.153
73.18000 1.766
73.20000 1.156
73.22000 1.416
73.24000 3.794
73.26000 3.664
73.28000 2.285
73.30000 0.629
73.32000 0.787
73.34000 0.392
73.36000 3.990
73.38000 6.542
73.40000 4.255
73.42000 2.950
73.44000 5.725
73.46000 0.165
73.48000 4.002
73.50000 2.875
73.52000 5.570
73.54000 2.887
73.56000 1.945
73.58000 4.837
73.60000 2.746
73.62000 -2.274
73.64000 -0.341
73.66000 0.921
73.68000 5.258
73.70000 2.484
73.72000 3.739
73.74000 -0.749
73.76000 -0.730
73.78000 0.201
73.80000 0.871
73.82000 1.125
73.84000 0.901
73.86000 2.313
73.88000 2.659
73.90000 4.156
73.92000 4.797
73.94000 0.675
73.96000 -1.039
73.98000 -0.679
74.00000 -0.267
74.02000 3.257
74.04000 3.188
74.06000 -0.252
74.08000 0.439
74.10000 -2.113
74.12000 0.878
74.14000 3.648
74.16000 0.135
74.18000 -1.412
74.20000 1.691
74.22000 2.967
74.24000 3.206
74.26000 3.681
74.28000 3.830
74.30000 6.052
74.32000 6.534
74.34000 2.997
74.36000 -2.293
74.38000 1.202
74.40000 4.183
74.42000 -0.098
74.44000 6.162
74.46000 2.093
74.48000 0.186
74.50000 1.959
74.52000 3.254
74.54000 0.001
74.56000 -0.109
74.58000 0.537
74.60000 1.699
74.62000 0.794
74.64000 0.996
74.66000 0.400
74.68000 0.453
74.70000 1.889
74.72000 5.297
74.74000 2.469
74.76000 -0.471
74.78000 0.969
74.80000 4.225
74.82000 4.173
74.84000 3.504
74.86000 0.410
74.88000 -1.984
74.90000 0.158
74.92000 5.197
74.94000 2.043
74.96000 -0.294
74.98000 1.380
75.00000 3.638
75.02000 0.768
75.04000 4.576
75.06000 3.127
75.08000 -1.091
75.10000 -1.863
75.12000 0.421
75.14000 -0.115
75.16000 0.069
75.18000 4.416
75.20000 3.477
75.22000 -0.796
75.24000 0.194
75.26000 3.192
75.28000 6.776
75.30000 4.557
75.32000 3.806
75.34000 5.033
75.36000 -0.101
75.38000 1.715
75.40000 5.512
75.42000 4.419
75.44000 4.665
75.46000 5.965
75.48000 1.439
75.50000 0.927
75.52000 -2.249
75.54000 0.370
75.56000 2.694
75.58000 3.098
75.60000 2.379
75.62000 -0.603
75.64000 0.581
75.66000 5.683
75.68000 4.640
75.70000 4.287
75.72000 2.422
75.74000 2.327
75.76000 2.496
75.78000 2.974
75.80000 0.951
75.82000 2.630
75.84000 1.450
75.86000 0.770
75.88000 2.999
75.90000 7.139
75.92000 4.728
75.94000 1.587
75.96000 1.916
75.98000 -0.487
76.00000 0.978
76.02000 1.654
76.04000 0.413
76.06000 4.984
76.08000 5.381
76.10000 1.094
76.12000 3.530
76.14000 1.862
76.16000 -1.482
76.18000 1.870
76.20000 4.550
76.22000 4.651
76.24000 5.396
76.26000 3.337
76.28000 1.176
76.30000 1.422
76.32000 -0.891
76.34000 2.425
76.36000 1.456
76.38000 2.104
76.40000 2.203
76.42000 3.533
76.44000 0.470
76.46000 2.967
76.48000 2.837
76.50000 2.764
76.52000 1.713
76.54000 0.080
76.56000 -0.802
76.58000 1.747
76.60000 6.248
76.62000 5.409
76.64000 3.628
76.66000 2.593
76.68000 4.626
76.70000 3.052
76.72000 -1.136
76.74000 -1.080
76.76000 -0.458
76.78000 -0.023
76.80000 1.563
76.82000 0.106
76.84000 0.318
76.86000 0.585
76.88000 0.916
76.90000 2.004
76.92000 4.309
76.94000 5.808
76.96000 5.846
76.98000 3.591
77.00000 0.964
77.02000 -0.509
77.04000 4.309
77.06000 1.925
77.08000 0.274
77.10000 -2.264
77.12000 0.659
77.14000 5.584
77.16000 4.099
77.18000 1.509
77.20000 4.208
77.22000 2.475
77.24000 7.711
77.26000 4.789
77.28000 4.122
77.30000 7.183
77.32000 7.313
77.34000 5.802
77.36000 7.066
77.38000 9.222
77.40000 3.956
77.42000 2.913
77.44000 4.389
77.46000 2.159
77.48000 4.294
77.50000 1.158
77.52000 -1.502
77.54000 2.043
77.56000 4.941
77.58000 2.785
77.60000 3.186
77.62000 5.083
77.64000 2.764
77.66000 1.251
77.68000 3.543
77.70000 3.189
77.72000 -1.919
77.74000 0.180
77.76000 5.779
77.78000 3.488
77.80000 2.876
77.82000 0.745
77.84000 1.071
77.86000 4.217
77.88000 3.869
77.90000 0.627
77.92000 1.576
77.94000 1.739
77.96000 0.244
77.98000 0.555
78.00000 1.251
78.02000 4.960
78.04000 1.410
78.06000 4.430
78.08000 -0.041
78.10000 2.324
78.12000 2.120
78.14000 0.537
78.16000 4.709
78.18000 5.984
78.20000 4.486
78.22000 3.380
78.24000 5.727
78.26000 4.007
78.28000 1.265
78.30000 1.027
78.32000 -0.484
78.34000 2.903
78.36000 2.263
78.38000 4.462
78.40000 5.719
78.42000 4.223
78.44000 6.496
78.46000 7.179
78.48000 7.258
78.50000 3.495
78.52000 -0.277
78.54000 -0.611
78.56000 -2.308
78.58000 0.073
78.60000 0.463
78.62000 4.761
78.64000 6.611
78.66000 6.116
78.68000 1.978
78.70000 0.684
78.72000 1.043
78.74000 3.120
78.76000 3.049
78.78000 2.679
78.80000 5.468
78.82000 5.980
78.84000 3.922
78.86000 4.406
78.88000 2.085
78.90000 -1.704
78.92000 -0.226
78.94000 -1.098
78.96000 0.107
78.98000 1.883
79.00000 -0.121
79.02000 -1.272
79.04000 1.194
79.06000 2.372
79.08000 2.476
79.10000 0.461
79.12000 0.478
79.14000 4.127
79.16000 4.703
79.18000 -0.692
79.20000 -1.205
79.22000 1.489
79.24000 -0.855
79.26000 -1.686
79.28000 -1.346
79.30000 -1.087
79.32000 0.683
79.34000 -1.813
79.36000 -0.676
79.38000 -1.554
79.40000 2.098
79.42000 5.244
79.44000 1.852
79.46000 0.572
79.48000 -2.352
79.50000 -2.225
79.52000 1.769
79.54000 0.308
79.56000 0.845
79.58000 -2.176
79.60000 -1.268
79.62000 4.538
79.64000 4.181
79.66000 -1.142
79.68000 -2.030
79.70000 0.781
79.72000 2.889
79.74000 5.645
79.76000 6.980
79.78000 6.535
79.80000 4.398
79.82000 5.942
79.84000 3.543
79.86000 3.140
79.88000 0.492
79.90000 2.442
79.92000 0.514
79.94000 0.601
79.96000 3.383
79.98000 1.176
80.00000 3.007
80.02000 2.698
80.04000 3.488
80.06000 5.793
80.08000 4.101
80.10000 4.408
80.12000 3.929
80.14000 2.685
80.16000 1.324
80.18000 3.137
80.20000 1.130
80.22000 0.396
80.24000 3.572
80.26000 3.293
80.28000 6.000
80.30000 5.663
80.32000 4.843
80.34000 4.115
80.36000 3.097
80.38000 -2.374
80.40000 0.929
80.42000 2.111
80.44000 3.230
80.46000 1.814
80.48000 1.324
80.50000 6.618
80.52000 4.536
80.54000 5.046
80.56000 4.271
80.58000 6.124
80.60000 2.391
80.62000 4.942
80.64000 2.950
80.66000 8.108
80.68000 5.032
80.70000 6.901
80.72000 3.674
80.74000 4.148
80.76000 4.412
80.78000 2.269
80.80000 2.928
80.82000 2.523
80.84000 2.950
80.86000 3.090
80.88000 1.956
80.90000 0.946
80.92000 0.198
80.94000 4.300
80.96000 2.863
80.98000 6.191
81.00000 7.328
81.02000 4.128
81.04000 2.082
81.06000 1.891
81.08000 4.544
81.10000 9.007
81.12000 8.830
81.14000 6.944
81.16000 7.219
81.18000 5.678
81.20000 5.574
81.22000 6.638
81.24000 6.062
81.26000 5.663
81.28000 7.583
81.30000 7.080
81.32000 6.490
81.34000 7.367
81.36000 7.222
81.38000 11.381
81.40000 12.017
81.42000 10.977
81.44000 8.674
81.46000 5.235
81.48000 7.235
81.50000 4.909
81.52000 10.587
81.54000 11.864
81.56000 8.734
81.58000 8.258
81.60000 9.100
81.62000 6.369
81.64000 7.569
81.66000 10.950
81.68000 10.177
81.70000 6.032
81.72000 9.650
81.74000 16.196
81.76000 17.084
81.78000 17.442
81.80000 12.049
81.82000 12.532
81.84000 15.083
81.86000 19.263
81.88000 17.274
81.90000 15.324
81.92000 12.760
81.94000 13.185
81.96000 18.678
81.98000 21.894
82.00000 21.803
82.02000 19.191
82.04000 21.685
82.06000 20.073
82.08000 18.470
82.10000 20.755
82.12000 18.871
82.14000 20.309
82.16000 16.967
82.18000 20.596
82.20000 20.434
82.22000 22.795
82.24000 22.370
82.26000 22.865
82.28000 20.242
82.30000 25.119
82.32000 24.155
82.34000 24.865
82.36000 22.954
82.38000 21.306
82.40000 24.357
82.42000 27.400
82.44000 29.126
82.46000 23.796
82.48000 22.671
82.50000 26.779
82.52000 30.018
82.54000 26.605
82.56000 24.336
82.58000 25.037
82.60000 26.395
82.62000 27.475
82.64000 28.719
82.66000 26.714
82.68000 26.426
82.70000 31.817
82.72000 34.925
82.74000 33.853
82.76000 23.723
82.78000 24.133
82.80000 28.937
82.82000 29.810
82.84000 28.125
82.86000 27.593
82.88000 26.748
82.90000 27.465
82.92000 29.511
82.94000 25.180
82.96000 24.755
82.98000 29.783
83.00000 28.356
83.02000 28.657
83.04000 27.731
83.06000 29.535
83.08000 30.034
83.10000 21.501
83.12000 24.244
83.14000 22.252
83.16000 25.534
83.18000 28.711
83.20000 23.696
83.22000 25.316
83.24000 22.220
83.26000 20.761
83.28000 21.659
83.30000 26.885
83.32000 24.726
83.34000 19.607
83.36000 20.129
83.38000 15.983
83.40000 15.783
83.42000 17.538
83.44000 22.692
83.46000 22.354
83.48000 21.411
83.50000 10.831
83.52000 9.966
83.54000 13.788
83.56000 14.181
83.58000 16.270
83.60000 13.889
83.62000 14.413
83.64000 12.647
83.66000 10.180
83.68000 12.750
83.70000 13.454
83.72000 13.963
83.74000 10.829
83.76000 8.418
83.78000 12.521
83.80000 13.188
83.82000 11.984
83.84000 4.829
83.86000 7.870
83.88000 7.958
83.90000 5.872
83.92000 3.823
83.94000 2.877
83.96000 6.312
83.98000 5.529
84.00000 4.568
84.02000 4.730
84.04000 3.288
84.06000 2.679
84.08000 3.724
84.10000 1.817
84.12000 2.320
84.14000 3.816
84.16000 3.940
84.18000 5.662
84.20000 3.657
84.22000 3.779
84.24000 2.747
84.26000 4.716
84.28000 6.437
84.30000 3.191
84.32000 3.439
84.34000 -0.008
84.36000 1.353
84.38000 6.223
84.40000 7.441
84.42000 4.838
84.44000 3.880
84.46000 4.818
84.48000 3.231
84.50000 2.742
84.52000 0.998
84.54000 0.953
84.56000 7.010
84.58000 3.856
84.60000 -0.244
84.62000 2.425
84.64000 4.724
84.66000 5.770
84.68000 1.819
84.70000 6.966
84.72000 8.266
84.74000 4.083
84.76000 4.916
84.78000 6.639
84.80000 1.198
84.82000 1.238
84.84000 3.648
84.86000 2.099
84.88000 4.858
84.90000 7.438
84.92000 6.101
84.94000 3.892
84.96000 2.107
84.98000 1.372
85.00000 -2.322
85.02000 -0.047
85.04000 -0.237
85.06000 0.782
85.08000 2.164
85.10000 5.981
85.12000 2.836
85.14000 5.557
85.16000 5.945
85.18000 1.762
85.20000 0.172
85.22000 2.359
85.24000 4.827
85.26000 3.241
85.28000 -0.006
85.30000 2.788
85.32000 5.706
85.34000 7.481
85.36000 6.353
85.38000 5.360
85.40000 2.769
85.42000 3.666
85.44000 1.626
85.46000 1.520
85.48000 1.324
85.50000 2.056
85.52000 1.987
85.54000 5.633
85.56000 6.335
85.58000 4.627
85.60000 6.220
85.62000 6.065
85.64000 4.131
85.66000 5.912
85.68000 3.193
85.70000 4.593
85.72000 10.509
85.74000 9.464
85.76000 6.961
85.78000 5.704
85.80000 2.143
85.82000 -2.299
85.84000 2.627
85.86000 7.283
85.88000 7.240
85.90000 3.954
85.92000 6.059
85.94000 5.739
85.96000 6.631
85.98000 8.685
86.00000 9.625
86.02000 8.047
86.04000 12.684
86.06000 13.138
86.08000 12.350
86.10000 12.485
86.12000 8.560
86.14000 6.336
86.16000 6.227
86.18000 10.000
86.20000 11.609
86.22000 7.584
86.24000 4.941
86.26000 9.055
86.28000 10.527
86.30000 11.946
86.32000 14.760
86.34000 9.944
86.36000 5.124
86.38000 9.279
86.40000 12.892
86.42000 11.685
86.44000 13.195
86.46000 13.517
86.48000 11.970
86.50000 12.604
86.52000 12.899
86.54000 12.059
86.56000 9.417
86.58000 15.660
86.60000 15.177
86.62000 13.073
86.64000 14.651
86.66000 14.651
86.68000 14.147
86.70000 12.691
86.72000 15.130
86.74000 18.688
86.76000 13.357
86.78000 9.507
86.80000 17.036
86.82000 18.343
86.84000 24.262
86.86000 21.500
86.88000 20.025
86.90000 18.425
86.92000 18.535
86.94000 20.281
86.96000 21.285
86.98000 18.405
87.00000 16.817
87.02000 19.068
87.04000 13.919
87.06000 16.631
87.08000 16.860
87.10000 14.653
87.12000 19.465
87.14000 17.937
87.16000 17.021
87.18000 18.845
87.20000 18.239
87.22000 14.338
87.24000 16.563
87.26000 19.734
87.28000 19.741
87.30000 18.895
87.32000 17.948
87.34000 15.083
87.36000 15.735
87.38000 8.684
87.40000 11.707
87.42000 19.951
87.44000 17.609
87.46000 15.711
87.48000 17.473
87.50000 17.660
87.52000 16.410
87.54000 16.979
87.56000 16.783
87.58000 20.556
87.60000 15.753
87.62000 13.334
87.64000 9.853
87.66000 14.179
87.68000 15.614
87.70000 15.236
87.72000 12.219
87.74000 9.586
87.76000 8.218
87.78000 8.518
87.80000 10.551
87.82000 10.794
87.84000 9.119
87.86000 10.867
87.88000 14.628
87.90000 14.817
87.92000 10.913
87.94000 8.064
87.96000 7.089
87.98000 4.873
88.00000 4.358
88.02000 6.561
88.04000 8.135
88.06000 8.733
88.08000 10.986
88.10000 9.023
88.12000 9.674
88.14000 6.277
88.16000 4.751
88.18000 4.265
88.20000 4.928
88.22000 4.165
88.24000 3.968
88.26000 4.478
88.28000 3.186
88.30000 2.911
88.32000 6.219
88.34000 3.281
88.36000 1.226
88.38000 3.149
88.40000 0.824
88.42000 3.631
88.44000 9.722
88.46000 7.411
88.48000 2.959
88.50000 1.581
88.52000 4.608
88.54000 5.471
88.56000 4.148
88.58000 2.619
88.60000 1.943
88.62000 -1.373
88.64000 0.144
88.66000 1.232
88.68000 5.017
88.70000 4.878
88.72000 5.566
88.74000 4.614
88.76000 1.193
88.78000 -1.343
88.80000 1.393
88.82000 3.974
88.84000 1.330
88.86000 4.677
88.88000 7.298
88.90000 4.222
88.92000 6.340
88.94000 4.924
88.96000 0.754
88.98000 2.013
89.00000 -2.146
89.02000 7.288
89.04000 11.152
89.06000 9.814
89.08000 7.849
89.10000 2.966
89.12000 2.162
89.14000 -2.123
89.16000 3.612
89.18000 4.451
89.20000 4.508
89.22000 8.012
89.24000 5.895
89.26000 6.046
89.28000 4.756
89.30000 1.060
89.32000 2.380
89.34000 5.974
89.36000 4.212
89.38000 3.280
89.40000 3.325
89.42000 1.864
89.44000 3.187
89.46000 4.426
89.48000 5.085
89.50000 8.013
89.52000 8.346
89.54000 8.246
89.56000 5.416
89.58000 5.561
89.60000 7.195
89.62000 5.879
89.64000 5.616
89.66000 1.595
89.68000 5.028
89.70000 4.687
89.72000 6.631
89.74000 4.187
89.76000 2.761
89.78000 1.242
89.80000 0.812
89.82000 4.471
89.84000 4.367
89.86000 6.050
89.88000 0.940
89.90000 1.814
89.92000 4.146
89.94000 5.207
89.96000 3.328
89.98000 3.068
90.00000 2.861
90.02000 1.947
90.04000 3.607
90.06000 4.600
90.08000 4.465
90.10000 1.729
90.12000 3.349
90.14000 6.973
90.16000 6.028
90.18000 2.823
90.20000 2.305
90.22000 3.691
90.24000 7.950
90.26000 6.168
90.28000 4.723
90.30000 1.635
90.32000 1.941
90.34000 -1.444
90.36000 1.498
90.38000 4.629
90.40000 4.774
90.42000 6.376
90.44000 1.270
90.46000 2.951
90.48000 3.616
90.50000 7.406
90.52000 4.474
90.54000 4.692
90.56000 1.269
90.58000 -0.047
90.60000 5.716
90.62000 10.238
90.64000 5.009
90.66000 1.404
90.68000 -2.097
90.70000 3.289
90.72000 3.890
90.74000 0.910
90.76000 3.837
90.78000 4.009
90.80000 1.173
90.82000 -0.104
90.84000 5.051
90.86000 9.222
90.88000 6.033
90.90000 4.752
90.92000 6.197
90.94000 4.468
90.96000 1.404
90.98000 2.709
91.00000 4.471
91.02000 6.753
91.04000 7.566
91.06000 5.940
91.08000 3.843
91.10000 2.421
91.12000 0.777
91.14000 2.277
91.16000 4.926
91.18000 2.425
91.20000 0.266
91.22000 1.660
91.24000 4.246
91.26000 3.947
91.28000 4.661
91.30000 6.150
91.32000 3.870
91.34000 0.411
91.36000 -0.675
91.38000 2.608
91.40000 4.285
91.42000 4.372
91.44000 0.514
91.46000 1.991
91.48000 2.799
91.50000 3.184
91.52000 5.416
91.54000 6.432
91.56000 5.748
91.58000 2.615
91.60000 3.319
91.62000 -0.813
91.64000 -0.775
91.66000 1.579
91.68000 4.435
91.70000 6.944
91.72000 -2.136
91.74000 0.233
91.76000 1.343
91.78000 2.691
91.80000 0.632
91.82000 4.520
91.84000 7.518
91.86000 2.333
91.88000 -0.234
91.90000 1.362
91.92000 2.859
91.94000 1.652
91.96000 6.847
91.98000 8.738
92.00000 5.638
92.02000 3.753
92.04000 2.417
92.06000 1.920
92.08000 5.085
92.10000 7.260
92.12000 2.054
92.14000 1.725
92.16000 6.021
92.18000 3.289
92.20000 2.221
92.22000 4.570
92.24000 2.364
92.26000 5.429
92.28000 6.143
92.30000 2.538
92.32000 -2.133
92.34000 1.389
92.36000 7.238
92.38000 6.479
92.40000 5.911
92.42000 -0.307
92.44000 0.877
92.46000 -1.171
92.48000 4.518
92.50000 4.205
92.52000 5.391
92.54000 6.401
92.56000 1.801
92.58000 2.156
92.60000 2.112
92.62000 1.807
92.64000 3.230
92.66000 3.045
92.68000 0.160
92.70000 1.019
92.72000 1.684
92.74000 5.129
92.76000 4.176
92.78000 8.123
92.80000 2.162
92.82000 1.192
92.84000 -0.010
92.86000 0.693
92.88000 3.267
92.90000 2.261
92.92000 2.422
92.94000 1.795
92.96000 2.891
92.98000 2.192
93.00000 2.764
93.02000 1.633
93.04000 -2.150
93.06000 -1.276
93.08000 1.196
93.10000 -1.098
93.12000 5.100
93.14000 4.960
93.16000 5.106
93.18000 4.938
93.20000 3.720
93.22000 1.279
93.24000 -2.096
93.26000 -0.595
93.28000 3.835
93.30000 6.603
93.32000 0.230
93.34000 -2.149
93.36000 1.128
93.38000 3.496
93.40000 3.370
93.42000 4.643
93.44000 5.706
93.46000 3.933
93.48000 4.718
93.50000 3.863
93.52000 5.520
93.54000 6.283
93.56000 6.306
93.58000 6.611
93.60000 -1.249
93.62000 -1.666
93.64000 2.562
93.66000 2.761
93.68000 1.672
93.70000 1.392
93.72000 2.725
93.74000 3.635
93.76000 8.805
93.78000 8.964
93.80000 5.007
93.82000 4.562
93.84000 6.327
93.86000 2.337
93.88000 3.164
93.90000 -1.916
93.92000 3.444
93.94000 1.416
93.96000 -1.579
93.98000 2.389
94.00000 4.034
94.02000 5.734
94.04000 -0.660
94.06000 1.844
94.08000 2.017
94.10000 2.045
94.12000 2.354
94.14000 0.467
94.16000 0.422
94.18000 2.495
94.20000 5.435
94.22000 2.886
94.24000 4.556
94.26000 4.766
94.28000 4.092
94.30000 6.302
94.32000 1.801
94.34000 3.252
94.36000 1.743
94.38000 0.721
94.40000 -2.166
94.42000 0.857
94.44000 5.641
94.46000 4.615
94.48000 3.996
94.50000 5.249
94.52000 1.005
94.54000 4.005
94.56000 7.697
94.58000 3.250
94.60000 -2.130
94.62000 1.685
94.64000 9.024
94.66000 2.172
94.68000 -1.470
94.70000 3.945
94.72000 3.904
94.74000 -2.156
94.76000 -1.025
94.78000 1.713
94.80000 3.445
94.82000 8.021
94.84000 5.999
94.86000 7.560
94.88000 1.253
94.90000 3.845
94.92000 3.627
94.94000 3.364
94.96000 2.904
94.98000 3.184
95.00000 5.645
95.02000 1.456
95.04000 4.533
95.06000 6.357
95.08000 2.912
95.10000 2.539
95.12000 2.457
95.14000 5.482
95.16000 10.773
95.18000 8.445
95.20000 10.031
95.22000 6.596
95.24000 3.132
95.26000 2.886
95.28000 3.006
95.30000 3.047
95.32000 2.253
95.34000 7.011
95.36000 7.128
95.38000 2.757
95.40000 -2.168
95.42000 -1.091
95.44000 3.100
95.46000 6.022
95.48000 8.633
95.50000 5.575
95.52000 5.425
95.54000 6.516
95.56000 5.756
95.58000 7.239
95.60000 6.060
95.62000 3.346
95.64000 3.282
95.66000 4.336
95.68000 6.177
95.70000 5.148
95.72000 9.049
95.74000 6.485
95.76000 6.017
95.78000 5.130
95.80000 3.850
95.82000 7.190
95.84000 2.548
95.86000 6.522
95.88000 8.797
95.90000 4.631
95.92000 -0.748
95.94000 1.855
95.96000 6.773
95.98000 2.295
96.00000 -0.875
96.02000 1.330
96.04000 2.955
96.06000 1.061
96.08000 0.685
96.10000 6.188
96.12000 7.395
96.14000 7.982
96.16000 6.739
96.18000 4.585
96.20000 -1.165
96.22000 0.431
96.24000 6.550
96.26000 6.928
96.28000 8.338
96.30000 2.148
96.32000 2.501
96.34000 3.529
96.36000 -0.391
96.38000 2.978
96.40000 2.550
96.42000 5.575
96.44000 3.693
96.46000 2.319
96.48000 -1.599
96.50000 2.991
96.52000 7.403
96.54000 1.164
96.56000 2.994
96.58000 2.852
96.60000 9.248
96.62000 7.677
96.64000 3.197
96.66000 2.388
96.68000 2.393
96.70000 0.587
96.72000 -2.145
96.74000 8.604
96.76000 9.298
96.78000 2.660
96.80000 4.590
96.82000 6.002
96.84000 2.534
96.86000 -1.304
96.88000 4.057
96.90000 8.493
96.92000 8.224
96.94000 7.362
96.96000 5.188
96.98000 2.862
97.00000 6.454
97.02000 6.233
97.04000 4.558
97.06000 1.712
97.08000 1.129
97.10000 -2.143
97.12000 0.180
97.14000 1.884
97.16000 -0.647
97.18000 3.171
97.20000 7.309
97.22000 9.917
97.24000 8.633
97.26000 5.173
97.28000 4.767
97.30000 2.626
97.32000 4.781
97.34000 2.936
97.36000 4.476
97.38000 4.832
97.40000 3.629
97.42000 6.664
97.44000 11.362
97.46000 6.077
97.48000 -0.622
97.50000 5.848
97.52000 5.750
97.54000 5.980
97.56000 3.478
97.58000 3.146
97.60000 -0.469
97.62000 4.905
97.64000 4.667
97.66000 8.764
97.68000 6.477
97.70000 8.250
97.72000 8.592
97.74000 5.102
97.76000 2.788
97.78000 -1.045
97.80000 1.291
97.82000 7.286
97.84000 7.899
97.86000 6.927
97.88000 5.913
97.90000 1.247
97.92000 -1.188
97.94000 6.663
97.96000 7.059
97.98000 9.908
98.00000 9.338
98.02000 10.826
98.04000 9.985
98.06000 8.710
98.08000 5.444
98.10000 4.650
98.12000 2.045
98.14000 -0.013
98.16000 -0.261
98.18000 3.850
98.20000 5.925
98.22000 -0.003
98.24000 5.786
98.26000 6.391
98.28000 6.915
98.30000 8.263
98.32000 10.281
98.34000 9.415
98.36000 3.469
98.38000 8.905
98.40000 9.257
98.42000 2.825
98.44000 -2.083
98.46000 5.795
98.48000 12.509
98.50000 12.656
98.52000 11.965
98.54000 9.367
98.56000 7.717
98.58000 12.025
98.60000 6.272
98.62000 4.407
98.64000 5.147
98.66000 10.157
98.68000 10.145
98.70000 4.425
98.72000 5.055
98.74000 3.500
98.76000 5.288
98.78000 1.495
98.80000 7.086
98.82000 -1.062
98.84000 -0.386
98.86000 1.634
98.88000 3.390
98.90000 10.318
98.92000 15.843
98.94000 9.872
98.96000 11.148
98.98000 10.558
99.00000 15.802
99.02000 8.105
99.04000 6.870
99.06000 4.813
99.08000 9.740
99.10000 7.788
99.12000 0.177
99.14000 -2.067
99.16000 7.661
99.18000 5.113
99.20000 3.333
99.22000 11.780
99.24000 17.675
99.26000 6.991
99.28000 0.274
99.30000 5.133
99.32000 8.066
99.34000 5.867
99.36000 6.172
99.38000 8.793
99.40000 1.233
99.42000 -1.866
99.44000 7.556
99.46000 13.441
99.48000 10.804
99.50000 13.077
99.52000 5.968
99.54000 2.868
99.56000 6.742
99.58000 13.724
99.60000 9.746
99.62000 5.807
99.64000 4.421
99.66000 7.017
99.68000 -2.050
99.70000 -2.058
99.72000 -2.066
99.74000 -0.879
99.76000 4.096
99.78000 13.217
99.80000 23.161
99.82000 13.241
99.84000 -4.822
99.86000 -2.167
99.88000 -0.777
99.90000 3.691
99.92000 15.222
99.94000 -3.671
99.96000 -2.243
99.98000 0.000
