'Id: "0011389" Comment: "Integrate frame 0011389_Au-Ir-Rh_Au-Rich_XRD_Mapping-230-0000.gfrmwith cursor Wedge Cursor #5" Operator: "B?rgel" Anode: "Cu" Wavelength: "1.5406" Scantype: "2Theta (TwoTheta)" TimePerStep: "1" X: "0" Y: "13.5" Z: "5.95" 
10.00000 0.000
10.02000 2.698
10.04000 -4.284
10.06000 -4.258
10.08000 8.471
10.10000 9.697
10.12000 1.957
10.14000 19.107
10.16000 6.045
10.18000 9.342
10.20000 6.375
10.22000 19.201
10.24000 23.274
10.26000 17.521
10.28000 6.516
10.30000 4.362
10.32000 4.915
10.34000 21.580
10.36000 13.066
10.38000 6.035
10.40000 18.311
10.42000 32.162
10.44000 19.631
10.46000 14.674
10.48000 23.564
10.50000 3.115
10.52000 -4.163
10.54000 9.137
10.56000 12.465
10.58000 17.085
10.60000 12.483
10.62000 20.315
10.64000 25.259
10.66000 18.677
10.68000 11.721
10.70000 17.500
10.72000 17.451
10.74000 23.866
10.76000 15.499
10.78000 14.369
10.80000 19.462
10.82000 13.968
10.84000 12.435
10.86000 12.883
10.88000 18.964
10.90000 41.365
10.92000 37.940
10.94000 17.470
10.96000 19.598
10.98000 14.978
11.00000 10.404
11.02000 8.870
11.04000 4.271
11.06000 8.492
11.08000 12.701
11.10000 10.761
11.12000 20.276
11.14000 7.447
11.16000 10.180
11.18000 22.769
11.20000 18.351
11.22000 4.312
11.24000 7.804
11.26000 22.984
11.28000 34.122
11.30000 29.206
11.32000 29.131
11.34000 24.605
11.36000 18.920
11.38000 17.566
11.40000 19.681
11.42000 15.201
11.44000 13.941
11.46000 23.981
11.48000 12.730
11.50000 13.814
11.52000 9.458
11.54000 12.249
11.56000 25.345
11.58000 28.453
11.60000 18.490
11.62000 13.457
11.64000 14.551
11.66000 20.763
11.68000 12.343
11.70000 6.621
11.72000 9.677
11.74000 26.076
11.76000 28.778
11.78000 21.832
11.80000 21.259
11.82000 22.466
11.84000 18.501
11.86000 7.372
11.88000 14.381
11.90000 18.813
11.92000 21.964
11.94000 25.678
11.96000 21.977
11.98000 27.410
12.00000 24.978
12.02000 28.051
12.04000 30.144
12.06000 18.376
12.08000 10.431
12.10000 11.126
12.12000 9.310
12.14000 8.217
12.16000 9.838
12.18000 25.882
12.20000 29.270
12.22000 27.410
12.24000 22.080
12.26000 17.275
12.28000 14.598
12.30000 20.184
12.32000 9.204
12.34000 8.179
12.36000 11.896
12.38000 21.335
12.40000 31.298
12.42000 19.963
12.44000 21.404
12.46000 20.196
12.48000 21.739
12.50000 19.118
12.52000 11.526
12.54000 15.202
12.56000 5.407
12.58000 14.078
12.60000 19.675
12.62000 21.392
12.64000 26.310
12.66000 29.190
12.68000 21.757
12.70000 7.314
12.72000 7.746
12.74000 23.633
12.76000 29.365
12.78000 27.259
12.80000 7.157
12.82000 6.921
12.84000 19.175
12.86000 11.388
12.88000 13.542
12.90000 8.910
12.92000 11.000
12.94000 20.508
12.96000 21.070
12.98000 12.161
13.00000 14.711
13.02000 11.342
13.04000 20.545
13.06000 33.509
13.08000 29.307
13.10000 14.923
13.12000 8.502
13.14000 8.847
13.16000 13.061
13.18000 17.306
13.20000 10.002
13.22000 22.361
13.24000 24.673
13.26000 22.440
13.28000 12.470
13.30000 10.857
13.32000 10.329
13.34000 13.345
13.36000 18.519
13.38000 17.412
13.40000 16.510
13.42000 13.816
13.44000 20.569
13.46000 12.907
13.48000 13.065
13.50000 11.967
13.52000 16.592
13.54000 21.777
13.56000 29.386
13.58000 19.297
13.60000 13.523
13.62000 11.463
13.64000 17.474
13.66000 10.265
13.68000 0.163
13.70000 8.735
13.72000 11.001
13.74000 13.737
13.76000 13.636
13.78000 17.787
13.80000 20.151
13.82000 23.769
13.84000 22.592
13.86000 14.701
13.88000 15.956
13.90000 11.694
13.92000 21.741
13.94000 10.192
13.96000 13.288
13.98000 18.418
14.00000 13.127
14.02000 13.622
14.04000 6.443
14.06000 4.395
14.08000 11.111
14.10000 12.481
14.12000 13.605
14.14000 12.868
14.16000 11.112
14.18000 10.892
14.20000 13.807
14.22000 14.021
14.24000 21.695
14.26000 11.379
14.28000 6.276
14.30000 11.923
14.32000 19.154
14.34000 16.060
14.36000 8.931
14.38000 3.296
14.40000 4.635
14.42000 8.940
14.44000 15.582
14.46000 21.912
14.48000 16.168
14.50000 6.543
14.52000 4.472
14.54000 9.658
14.56000 17.523
14.58000 13.371
14.60000 11.779
14.62000 1.904
14.64000 6.906
14.66000 10.111
14.68000 9.820
14.70000 19.440
14.72000 21.526
14.74000 10.976
14.76000 2.865
14.78000 9.593
14.80000 13.863
14.82000 19.987
14.84000 16.900
14.86000 14.642
14.88000 6.251
14.90000 2.951
14.92000 -2.322
14.94000 5.766
14.96000 7.864
14.98000 5.790
15.00000 16.151
15.02000 19.570
15.04000 11.298
15.06000 13.836
15.08000 11.347
15.10000 13.734
15.12000 1.109
15.14000 6.558
15.16000 10.550
15.18000 13.269
15.20000 19.098
15.22000 13.776
15.24000 10.240
15.26000 4.793
15.28000 -3.943
15.30000 3.565
15.32000 7.966
15.34000 8.918
15.36000 10.804
15.38000 10.846
15.40000 10.604
15.42000 10.056
15.44000 7.760
15.46000 12.381
15.48000 14.358
15.50000 16.131
15.52000 13.301
15.54000 8.040
15.56000 3.412
15.58000 10.487
15.60000 5.030
15.62000 0.206
15.64000 2.772
15.66000 -0.455
15.68000 3.806
15.70000 6.656
15.72000 8.300
15.74000 13.838
15.76000 10.424
15.78000 10.959
15.80000 7.232
15.82000 10.032
15.84000 21.197
15.86000 17.499
15.88000 8.538
15.90000 12.216
15.92000 13.509
15.94000 13.586
15.96000 8.714
15.98000 14.423
16.00000 14.880
16.02000 4.098
16.04000 1.842
16.06000 2.579
16.08000 5.150
16.10000 4.374
16.12000 6.395
16.14000 4.900
16.16000 4.504
16.18000 3.861
16.20000 1.268
16.22000 8.138
16.24000 6.530
16.26000 -2.906
16.28000 0.239
16.30000 4.283
16.32000 2.863
16.34000 1.758
16.36000 5.475
16.38000 0.554
16.40000 2.991
16.42000 6.466
16.44000 0.363
16.46000 7.175
16.48000 13.580
16.50000 8.658
16.52000 6.791
16.54000 10.607
16.56000 10.470
16.58000 12.703
16.60000 7.808
16.62000 5.407
16.64000 5.055
16.66000 2.460
16.68000 4.127
16.70000 7.169
16.72000 11.888
16.74000 10.401
16.76000 6.930
16.78000 10.856
16.80000 7.965
16.82000 2.526
16.84000 0.048
16.86000 7.573
16.88000 10.572
16.90000 5.562
16.92000 2.672
16.94000 6.891
16.96000 7.274
16.98000 10.272
17.00000 4.360
17.02000 6.327
17.04000 5.442
17.06000 0.759
17.08000 9.943
17.10000 9.106
17.12000 -3.022
17.14000 -4.392
17.16000 8.043
17.18000 11.880
17.20000 12.475
17.22000 11.574
17.24000 12.831
17.26000 18.078
17.28000 10.874
17.30000 6.326
17.32000 7.955
17.34000 3.347
17.36000 1.559
17.38000 0.108
17.40000 6.250
17.42000 7.865
17.44000 9.180
17.46000 3.111
17.48000 -2.679
17.50000 2.034
17.52000 9.753
17.54000 9.619
17.56000 8.708
17.58000 8.696
17.60000 10.010
17.62000 9.461
17.64000 7.929
17.66000 12.813
17.68000 16.139
17.70000 8.780
17.72000 5.856
17.74000 5.909
17.76000 13.470
17.78000 17.402
17.80000 14.131
17.82000 8.459
17.84000 3.421
17.86000 -1.434
17.88000 8.859
17.90000 7.450
17.92000 7.949
17.94000 7.443
17.96000 7.330
17.98000 0.871
18.00000 1.240
18.02000 2.989
18.04000 7.129
18.06000 6.203
18.08000 11.522
18.10000 9.284
18.12000 14.609
18.14000 16.404
18.16000 6.413
18.18000 -4.324
18.20000 -0.813
18.22000 8.736
18.24000 7.475
18.26000 10.132
18.28000 9.807
18.30000 0.238
18.32000 3.567
18.34000 24.280
18.36000 18.738
18.38000 5.260
18.40000 4.098
18.42000 3.488
18.44000 9.263
18.46000 6.103
18.48000 5.827
18.50000 5.531
18.52000 2.377
18.54000 2.281
18.56000 1.308
18.58000 5.588
18.60000 1.858
18.62000 6.464
18.64000 6.822
18.66000 4.292
18.68000 13.514
18.70000 10.222
18.72000 7.938
18.74000 5.916
18.76000 5.120
18.78000 6.721
18.80000 3.093
18.82000 3.617
18.84000 11.288
18.86000 12.228
18.88000 9.113
18.90000 2.166
18.92000 7.330
18.94000 9.522
18.96000 4.129
18.98000 3.726
19.00000 8.494
19.02000 13.437
19.04000 10.971
19.06000 7.428
19.08000 3.297
19.10000 3.810
19.12000 2.081
19.14000 3.585
19.16000 7.019
19.18000 2.811
19.20000 8.474
19.22000 7.161
19.24000 5.935
19.26000 6.775
19.28000 6.274
19.30000 3.813
19.32000 -0.208
19.34000 5.992
19.36000 6.386
19.38000 4.232
19.40000 1.783
19.42000 5.099
19.44000 2.940
19.46000 2.275
19.48000 8.202
19.50000 5.432
19.52000 4.195
19.54000 5.463
19.56000 5.200
19.58000 9.412
19.60000 -0.456
19.62000 5.726
19.64000 4.697
19.66000 5.240
19.68000 7.931
19.70000 8.496
19.72000 12.184
19.74000 12.654
19.76000 8.394
19.78000 6.781
19.80000 4.810
19.82000 5.150
19.84000 8.302
19.86000 4.480
19.88000 1.695
19.90000 1.523
19.92000 2.844
19.94000 7.434
19.96000 -4.245
19.98000 -1.596
20.00000 0.498
20.02000 1.808
20.04000 -1.768
20.06000 -0.019
20.08000 3.311
20.10000 -2.800
20.12000 -4.232
20.14000 1.071
20.16000 3.543
20.18000 3.052
20.20000 0.335
20.22000 -0.691
20.24000 -0.774
20.26000 4.857
20.28000 6.679
20.30000 -0.010
20.32000 2.294
20.34000 4.520
20.36000 6.218
20.38000 3.635
20.40000 10.338
20.42000 11.314
20.44000 9.969
20.46000 8.762
20.48000 11.824
20.50000 6.805
20.52000 11.926
20.54000 3.418
20.56000 -3.110
20.58000 2.386
20.60000 3.712
20.62000 1.701
20.64000 3.614
20.66000 9.248
20.68000 8.843
20.70000 3.701
20.72000 4.348
20.74000 3.583
20.76000 1.810
20.78000 9.430
20.80000 10.431
20.82000 10.360
20.84000 7.853
20.86000 1.726
20.88000 0.805
20.90000 7.714
20.92000 8.329
20.94000 2.183
20.96000 5.899
20.98000 10.384
21.00000 8.068
21.02000 5.685
21.04000 9.697
21.06000 5.127
21.08000 -0.140
21.10000 4.482
21.12000 5.774
21.14000 6.086
21.16000 8.324
21.18000 5.221
21.20000 1.244
21.22000 0.097
21.24000 -3.030
21.26000 5.875
21.28000 8.815
21.30000 9.152
21.32000 0.981
21.34000 -2.259
21.36000 0.136
21.38000 3.996
21.40000 5.433
21.42000 5.803
21.44000 2.156
21.46000 -0.211
21.48000 -0.088
21.50000 2.796
21.52000 4.137
21.54000 7.977
21.56000 5.758
21.58000 3.746
21.60000 1.387
21.62000 4.620
21.64000 3.689
21.66000 9.954
21.68000 10.378
21.70000 11.496
21.72000 10.100
21.74000 9.377
21.76000 11.811
21.78000 3.539
21.80000 9.929
21.82000 5.604
21.84000 6.233
21.86000 6.425
21.88000 3.835
21.90000 3.202
21.92000 8.239
21.94000 9.309
21.96000 7.932
21.98000 8.344
22.00000 10.603
22.02000 9.985
22.04000 2.291
22.06000 -2.817
22.08000 -4.123
22.10000 0.039
22.12000 2.368
22.14000 5.429
22.16000 7.827
22.18000 6.467
22.20000 8.322
22.22000 4.507
22.24000 3.570
22.26000 6.183
22.28000 6.857
22.30000 5.390
22.32000 6.236
22.34000 5.119
22.36000 6.153
22.38000 5.344
22.40000 6.821
22.42000 5.949
22.44000 3.268
22.46000 1.473
22.48000 5.416
22.50000 2.350
22.52000 2.757
22.54000 1.641
22.56000 6.502
22.58000 7.717
22.60000 3.077
22.62000 0.225
22.64000 0.916
22.66000 1.593
22.68000 2.031
22.70000 5.994
22.72000 -2.082
22.74000 -2.255
22.76000 1.808
22.78000 7.320
22.80000 5.584
22.82000 1.923
22.84000 -0.621
22.86000 1.227
22.88000 4.926
22.90000 -0.708
22.92000 -0.830
22.94000 -0.214
22.96000 1.076
22.98000 0.748
23.00000 2.099
23.02000 9.626
23.04000 6.573
23.06000 5.628
23.08000 6.384
23.10000 1.476
23.12000 -1.733
23.14000 0.698
23.16000 1.024
23.18000 7.004
23.20000 5.163
23.22000 0.764
23.24000 1.507
23.26000 6.667
23.28000 8.354
23.30000 6.243
23.32000 5.401
23.34000 5.096
23.36000 -0.187
23.38000 3.319
23.40000 6.498
23.42000 9.373
23.44000 8.959
23.46000 -0.282
23.48000 2.669
23.50000 6.743
23.52000 5.475
23.54000 2.210
23.56000 7.975
23.58000 6.389
23.60000 6.484
23.62000 4.850
23.64000 -0.080
23.66000 -0.888
23.68000 0.086
23.70000 6.851
23.72000 -0.010
23.74000 -2.138
23.76000 0.032
23.78000 3.372
23.80000 7.600
23.82000 10.726
23.84000 3.809
23.86000 -2.926
23.88000 -4.038
23.90000 -0.601
23.92000 10.042
23.94000 2.988
23.96000 -4.001
23.98000 2.045
24.00000 1.503
24.02000 2.404
24.04000 4.272
24.06000 2.376
24.08000 7.876
24.10000 1.394
24.12000 1.680
24.14000 5.185
24.16000 5.617
24.18000 9.432
24.20000 12.920
24.22000 10.462
24.24000 6.084
24.26000 4.556
24.28000 0.450
24.30000 2.433
24.32000 4.107
24.34000 6.266
24.36000 9.658
24.38000 6.277
24.40000 3.824
24.42000 4.974
24.44000 0.908
24.46000 4.918
24.48000 6.095
24.50000 -0.722
24.52000 -0.403
24.54000 -0.427
24.56000 4.446
24.58000 3.063
24.60000 7.385
24.62000 8.291
24.64000 3.687
24.66000 -3.220
24.68000 -3.987
24.70000 2.001
24.72000 5.207
24.74000 0.580
24.76000 1.576
24.78000 4.708
24.80000 1.250
24.82000 -2.007
24.84000 8.520
24.86000 8.451
24.88000 6.431
24.90000 6.121
24.92000 6.500
24.94000 5.441
24.96000 8.909
24.98000 7.948
25.00000 7.825
25.02000 3.787
25.04000 1.134
25.06000 0.476
25.08000 -3.964
25.10000 5.527
25.12000 2.469
25.14000 1.723
25.16000 3.911
25.18000 6.682
25.20000 4.098
25.22000 1.532
25.24000 1.887
25.26000 -1.586
25.28000 4.487
25.30000 8.528
25.32000 4.055
25.34000 6.204
25.36000 8.126
25.38000 4.738
25.40000 6.636
25.42000 5.937
25.44000 6.823
25.46000 3.735
25.48000 9.985
25.50000 2.526
25.52000 3.125
25.54000 3.171
25.56000 11.414
25.58000 10.093
25.60000 6.771
25.62000 0.543
25.64000 -1.060
25.66000 5.331
25.68000 2.683
25.70000 4.773
25.72000 -1.016
25.74000 -2.298
25.76000 1.910
25.78000 2.680
25.80000 1.566
25.82000 2.832
25.84000 3.141
25.86000 8.980
25.88000 2.246
25.90000 6.280
25.92000 6.511
25.94000 3.070
25.96000 -3.731
25.98000 -3.950
26.00000 1.773
26.02000 3.850
26.04000 2.659
26.06000 6.815
26.08000 -0.569
26.10000 1.024
26.12000 -1.747
26.14000 -2.333
26.16000 -2.238
26.18000 3.545
26.20000 1.620
26.22000 1.427
26.24000 5.764
26.26000 5.792
26.28000 4.693
26.30000 4.276
26.32000 -1.722
26.34000 7.130
26.36000 9.096
26.38000 11.221
26.40000 2.873
26.42000 0.895
26.44000 3.229
26.46000 2.288
26.48000 5.139
26.50000 1.463
26.52000 -0.826
26.54000 1.104
26.56000 1.339
26.58000 3.072
26.60000 3.913
26.62000 9.099
26.64000 5.856
26.66000 3.537
26.68000 3.250
26.70000 -3.020
26.72000 -1.632
26.74000 0.997
26.76000 -1.407
26.78000 -1.023
26.80000 3.534
26.82000 5.927
26.84000 7.713
26.86000 2.644
26.88000 3.071
26.90000 4.043
26.92000 0.306
26.94000 -1.383
26.96000 4.849
26.98000 3.287
27.00000 9.288
27.02000 11.291
27.04000 7.569
27.06000 7.395
27.08000 9.823
27.10000 5.967
27.12000 -0.305
27.14000 -0.556
27.16000 -2.506
27.18000 -1.670
27.20000 1.696
27.22000 3.026
27.24000 2.830
27.26000 2.694
27.28000 5.125
27.30000 2.273
27.32000 -1.533
27.34000 -1.570
27.36000 0.248
27.38000 2.045
27.40000 -0.375
27.42000 -1.462
27.44000 2.774
27.46000 -1.505
27.48000 0.017
27.50000 4.183
27.52000 0.177
27.54000 1.160
27.56000 0.826
27.58000 -2.944
27.60000 2.640
27.62000 2.871
27.64000 3.129
27.66000 1.364
27.68000 1.617
27.70000 3.831
27.72000 2.464
27.74000 3.785
27.76000 5.311
27.78000 1.908
27.80000 0.774
27.82000 1.328
27.84000 -1.174
27.86000 2.746
27.88000 4.444
27.90000 4.659
27.92000 2.388
27.94000 0.487
27.96000 0.784
27.98000 5.386
28.00000 10.158
28.02000 8.132
28.04000 6.261
28.06000 5.463
28.08000 2.032
28.10000 -0.606
28.12000 0.167
28.14000 0.279
28.16000 0.515
28.18000 3.774
28.20000 4.222
28.22000 -3.074
28.24000 2.715
28.26000 8.393
28.28000 1.670
28.30000 0.988
28.32000 3.501
28.34000 7.927
28.36000 10.407
28.38000 4.998
28.40000 -0.899
28.42000 3.464
28.44000 10.601
28.46000 11.567
28.48000 8.505
28.50000 0.173
28.52000 2.926
28.54000 8.379
28.56000 4.313
28.58000 2.078
28.60000 7.108
28.62000 7.241
28.64000 7.269
28.66000 9.092
28.68000 8.453
28.70000 4.830
28.72000 6.647
28.74000 7.570
28.76000 8.474
28.78000 9.649
28.80000 9.045
28.82000 2.662
28.84000 -3.754
28.86000 -3.252
28.88000 2.213
28.90000 3.376
28.92000 2.253
28.94000 6.117
28.96000 11.401
28.98000 6.548
29.00000 9.860
29.02000 8.437
29.04000 8.924
29.06000 6.983
29.08000 2.756
29.10000 -0.557
29.12000 -3.738
29.14000 1.524
29.16000 3.834
29.18000 7.047
29.20000 11.784
29.22000 6.920
29.24000 3.228
29.26000 6.673
29.28000 6.293
29.30000 4.648
29.32000 4.205
29.34000 5.877
29.36000 11.276
29.38000 9.888
29.40000 7.876
29.42000 9.010
29.44000 3.719
29.46000 6.229
29.48000 9.404
29.50000 7.880
29.52000 7.994
29.54000 7.315
29.56000 4.991
29.58000 8.079
29.60000 6.354
29.62000 3.285
29.64000 0.345
29.66000 3.944
29.68000 6.257
29.70000 5.458
29.72000 4.799
29.74000 7.025
29.76000 2.369
29.78000 0.102
29.80000 -0.600
29.82000 6.421
29.84000 4.625
29.86000 6.173
29.88000 11.910
29.90000 14.020
29.92000 6.825
29.94000 3.423
29.96000 1.902
29.98000 -1.581
30.00000 0.846
30.02000 2.059
30.04000 1.214
30.06000 5.575
30.08000 2.915
30.10000 -0.176
30.12000 4.522
30.14000 3.999
30.16000 2.304
30.18000 3.141
30.20000 2.286
30.22000 5.537
30.24000 6.961
30.26000 3.518
30.28000 4.549
30.30000 -3.691
30.32000 -0.045
30.34000 5.573
30.36000 8.378
30.38000 7.172
30.40000 8.959
30.42000 8.682
30.44000 3.949
30.46000 1.169
30.48000 1.842
30.50000 -1.233
30.52000 3.196
30.54000 4.139
30.56000 4.793
30.58000 3.188
30.60000 4.196
30.62000 1.852
30.64000 0.386
30.66000 7.926
30.68000 9.192
30.70000 3.499
30.72000 5.535
30.74000 9.145
30.76000 5.593
30.78000 0.513
30.80000 3.835
30.82000 4.779
30.84000 1.495
30.86000 1.651
30.88000 1.632
30.90000 8.122
30.92000 4.348
30.94000 5.353
30.96000 6.820
30.98000 3.294
31.00000 6.909
31.02000 0.269
31.04000 0.352
31.06000 2.825
31.08000 3.776
31.10000 6.516
31.12000 3.893
31.14000 -1.603
31.16000 -0.729
31.18000 -2.180
31.20000 -1.141
31.22000 -3.690
31.24000 0.356
31.26000 -1.623
31.28000 2.808
31.30000 -0.934
31.32000 -0.537
31.34000 1.880
31.36000 5.942
31.38000 5.811
31.40000 0.182
31.42000 -1.154
31.44000 -1.959
31.46000 -0.730
31.48000 -0.677
31.50000 -0.539
31.52000 3.598
31.54000 3.545
31.56000 4.042
31.58000 3.691
31.60000 7.742
31.62000 9.442
31.64000 3.193
31.66000 3.414
31.68000 -1.924
31.70000 1.119
31.72000 2.069
31.74000 3.030
31.76000 -3.067
31.78000 -2.262
31.80000 -1.077
31.82000 6.767
31.84000 10.280
31.86000 0.772
31.88000 -1.393
31.90000 3.451
31.92000 -2.751
31.94000 -3.666
31.96000 4.557
31.98000 0.057
32.00000 -0.265
32.02000 2.066
32.04000 5.526
32.06000 0.874
32.08000 1.096
32.10000 -2.073
32.12000 -3.657
32.14000 3.244
32.16000 6.785
32.18000 2.986
32.20000 2.830
32.22000 5.476
32.24000 3.422
32.26000 -0.818
32.28000 1.738
32.30000 4.547
32.32000 0.058
32.34000 -1.159
32.36000 -1.577
32.38000 -0.148
32.40000 -3.381
32.42000 -3.657
32.44000 -1.866
32.46000 1.151
32.48000 4.592
32.50000 2.522
32.52000 -0.951
32.54000 0.052
32.56000 2.158
32.58000 -1.046
32.60000 0.710
32.62000 1.169
32.64000 4.501
32.66000 0.071
32.68000 -1.754
32.70000 1.404
32.72000 1.907
32.74000 -2.510
32.76000 3.140
32.78000 5.955
32.80000 6.488
32.82000 8.790
32.84000 3.512
32.86000 1.378
32.88000 2.393
32.90000 4.143
32.92000 6.038
32.94000 -1.109
32.96000 -1.137
32.98000 1.258
33.00000 -3.657
33.02000 2.003
33.04000 4.182
33.06000 3.795
33.08000 -2.313
33.10000 -2.929
33.12000 2.334
33.14000 2.117
33.16000 2.065
33.18000 -1.188
33.20000 -2.643
33.22000 -1.170
33.24000 -1.189
33.26000 0.054
33.28000 0.294
33.30000 1.751
33.32000 5.397
33.34000 3.567
33.36000 2.586
33.38000 2.961
33.40000 1.270
33.42000 -1.978
33.44000 -0.458
33.46000 0.322
33.48000 0.366
33.50000 0.606
33.52000 -1.334
33.54000 -2.762
33.56000 1.616
33.58000 2.131
33.60000 -0.058
33.62000 1.543
33.64000 0.306
33.66000 -2.599
33.68000 -1.435
33.70000 3.472
33.72000 3.488
33.74000 0.472
33.76000 -0.011
33.78000 3.533
33.80000 5.332
33.82000 5.986
33.84000 4.577
33.86000 2.701
33.88000 7.304
33.90000 6.467
33.92000 4.469
33.94000 4.980
33.96000 5.177
33.98000 0.699
34.00000 -3.639
34.02000 0.125
34.04000 8.478
34.06000 6.635
34.08000 0.238
34.10000 2.353
34.12000 1.675
34.14000 -1.853
34.16000 2.818
34.18000 4.232
34.20000 5.316
34.22000 0.763
34.24000 0.230
34.26000 3.500
34.28000 9.346
34.30000 8.549
34.32000 2.046
34.34000 3.487
34.36000 5.506
34.38000 1.769
34.40000 0.751
34.42000 -1.746
34.44000 2.575
34.46000 7.274
34.48000 6.154
34.50000 0.543
34.52000 0.670
34.54000 0.824
34.56000 1.542
34.58000 1.391
34.60000 4.671
34.62000 0.935
34.64000 0.233
34.66000 2.138
34.68000 0.538
34.70000 -1.445
34.72000 -3.434
34.74000 2.676
34.76000 3.748
34.78000 3.326
34.80000 -3.631
34.82000 -0.528
34.84000 -0.184
34.86000 -3.433
34.88000 -3.631
34.90000 1.989
34.92000 1.083
34.94000 -2.280
34.96000 0.342
34.98000 4.904
35.00000 3.953
35.02000 0.722
35.04000 -1.233
35.06000 3.222
35.08000 1.111
35.10000 -0.252
35.12000 -0.928
35.14000 -2.578
35.16000 -1.854
35.18000 -1.383
35.20000 -2.633
35.22000 0.735
35.24000 2.049
35.26000 -1.681
35.28000 -3.639
35.30000 1.964
35.32000 2.957
35.34000 5.387
35.36000 5.609
35.38000 0.530
35.40000 1.436
35.42000 2.416
35.44000 2.542
35.46000 3.305
35.48000 5.689
35.50000 5.924
35.52000 5.123
35.54000 3.876
35.56000 5.122
35.58000 3.651
35.60000 -0.545
35.62000 -1.255
35.64000 1.739
35.66000 0.859
35.68000 0.567
35.70000 5.858
35.72000 6.195
35.74000 6.494
35.76000 -1.789
35.78000 -1.949
35.80000 3.771
35.82000 1.160
35.84000 1.680
35.86000 -1.106
35.88000 -0.420
35.90000 0.589
35.92000 2.186
35.94000 2.822
35.96000 3.993
35.98000 0.125
36.00000 2.017
36.02000 0.957
36.04000 2.806
36.06000 1.496
36.08000 4.537
36.10000 -1.195
36.12000 -3.642
36.14000 0.048
36.16000 -0.300
36.18000 3.766
36.20000 6.488
36.22000 4.974
36.24000 11.566
36.26000 8.085
36.28000 4.060
36.30000 -2.848
36.32000 1.766
36.34000 4.994
36.36000 8.572
36.38000 7.184
36.40000 6.584
36.42000 6.111
36.44000 3.579
36.46000 12.424
36.48000 8.941
36.50000 3.898
36.52000 -3.035
36.54000 -3.643
36.56000 5.928
36.58000 4.960
36.60000 3.079
36.62000 3.570
36.64000 3.645
36.66000 6.399
36.68000 4.397
36.70000 5.521
36.72000 9.050
36.74000 9.532
36.76000 5.172
36.78000 4.812
36.80000 10.048
36.82000 10.660
36.84000 8.128
36.86000 13.230
36.88000 11.831
36.90000 9.417
36.92000 11.477
36.94000 8.119
36.96000 8.060
36.98000 10.405
37.00000 9.019
37.02000 11.161
37.04000 9.725
37.06000 10.329
37.08000 5.872
37.10000 9.822
37.12000 10.004
37.14000 8.126
37.16000 9.077
37.18000 16.946
37.20000 14.019
37.22000 11.052
37.24000 11.064
37.26000 13.277
37.28000 12.767
37.30000 12.149
37.32000 17.861
37.34000 17.108
37.36000 13.853
37.38000 13.402
37.40000 16.235
37.42000 20.151
37.44000 17.079
37.46000 16.654
37.48000 18.832
37.50000 17.897
37.52000 17.060
37.54000 18.273
37.56000 16.677
37.58000 14.530
37.60000 16.895
37.62000 21.041
37.64000 17.312
37.66000 18.954
37.68000 17.803
37.70000 22.232
37.72000 21.818
37.74000 23.135
37.76000 23.032
37.78000 22.219
37.80000 22.446
37.82000 23.978
37.84000 30.188
37.86000 31.153
37.88000 32.113
37.90000 32.997
37.92000 35.227
37.94000 37.276
37.96000 39.012
37.98000 36.356
38.00000 36.991
38.02000 43.889
38.04000 45.330
38.06000 42.054
38.08000 39.002
38.10000 36.521
38.12000 43.247
38.14000 45.692
38.16000 45.968
38.18000 54.418
38.20000 55.098
38.22000 55.706
38.24000 53.100
38.26000 53.927
38.28000 56.114
38.30000 59.868
38.32000 61.055
38.34000 65.128
38.36000 71.581
38.38000 72.125
38.40000 73.013
38.42000 78.407
38.44000 78.683
38.46000 84.720
38.48000 91.734
38.50000 91.836
38.52000 93.127
38.54000 100.166
38.56000 101.414
38.58000 106.354
38.60000 114.204
38.62000 122.728
38.64000 131.232
38.66000 141.263
38.68000 145.602
38.70000 153.087
38.72000 160.697
38.74000 172.252
38.76000 184.201
38.78000 196.738
38.80000 206.966
38.82000 220.391
38.84000 234.862
38.86000 240.711
38.88000 250.707
38.90000 269.842
38.92000 287.119
38.94000 296.228
38.96000 313.126
38.98000 329.814
39.00000 341.244
39.02000 350.423
39.04000 367.992
39.06000 382.982
39.08000 395.706
39.10000 407.597
39.12000 406.379
39.14000 411.519
39.16000 413.546
39.18000 417.089
39.20000 417.184
39.22000 417.910
39.24000 412.709
39.26000 408.815
39.28000 397.210
39.30000 394.707
39.32000 380.604
39.34000 371.461
39.36000 364.563
39.38000 356.906
39.40000 344.218
39.42000 326.625
39.44000 315.384
39.46000 302.958
39.48000 282.035
39.50000 264.012
39.52000 256.417
39.54000 241.451
39.56000 231.470
39.58000 212.032
39.60000 207.710
39.62000 196.574
39.64000 182.034
39.66000 168.562
39.68000 154.714
39.70000 145.613
39.72000 144.484
39.74000 134.054
39.76000 123.889
39.78000 115.153
39.80000 112.109
39.82000 104.635
39.84000 97.122
39.86000 95.190
39.88000 87.698
39.90000 84.006
39.92000 75.804
39.94000 68.817
39.96000 63.646
39.98000 59.486
40.00000 60.290
40.02000 59.071
40.04000 53.029
40.06000 49.731
40.08000 49.632
40.10000 51.109
40.12000 41.521
40.14000 41.202
40.16000 38.759
40.18000 36.276
40.20000 33.497
40.22000 35.779
40.24000 34.325
40.26000 27.881
40.28000 21.043
40.30000 26.125
40.32000 30.502
40.34000 26.878
40.36000 23.413
40.38000 25.285
40.40000 24.471
40.42000 24.134
40.44000 27.276
40.46000 26.524
40.48000 18.485
40.50000 16.582
40.52000 16.615
40.54000 13.168
40.56000 15.455
40.58000 21.302
40.60000 17.787
40.62000 14.861
40.64000 8.417
40.66000 9.641
40.68000 14.240
40.70000 15.066
40.72000 10.420
40.74000 10.083
40.76000 9.008
40.78000 11.793
40.80000 11.175
40.82000 8.195
40.84000 8.530
40.86000 11.276
40.88000 6.901
40.90000 9.236
40.92000 9.511
40.94000 5.797
40.96000 7.319
40.98000 9.460
41.00000 7.633
41.02000 9.228
41.04000 9.209
41.06000 7.863
41.08000 8.103
41.10000 9.272
41.12000 6.146
41.14000 2.769
41.16000 6.330
41.18000 3.736
41.20000 1.742
41.22000 4.801
41.24000 4.546
41.26000 4.262
41.28000 9.529
41.30000 7.042
41.32000 2.428
41.34000 1.408
41.36000 0.579
41.38000 2.424
41.40000 1.030
41.42000 0.917
41.44000 1.119
41.46000 5.049
41.48000 4.561
41.50000 2.610
41.52000 1.636
41.54000 3.297
41.56000 1.333
41.58000 6.955
41.60000 9.103
41.62000 4.298
41.64000 3.068
41.66000 4.419
41.68000 0.940
41.70000 -0.451
41.72000 -0.690
41.74000 -2.388
41.76000 0.208
41.78000 -0.703
41.80000 -3.419
41.82000 -2.817
41.84000 1.523
41.86000 1.703
41.88000 2.829
41.90000 -0.214
41.92000 -1.641
41.94000 -2.084
41.96000 -0.105
41.98000 3.385
42.00000 3.962
42.02000 3.428
42.04000 3.342
42.06000 0.723
42.08000 -2.334
42.10000 -1.082
42.12000 -0.629
42.14000 -0.398
42.16000 3.057
42.18000 -2.127
42.20000 -3.369
42.22000 -0.110
42.24000 -1.236
42.26000 2.152
42.28000 -0.217
42.30000 2.303
42.32000 1.350
42.34000 -2.888
42.36000 -2.698
42.38000 -2.225
42.40000 -0.424
42.42000 -3.341
42.44000 2.167
42.46000 5.891
42.48000 3.650
42.50000 -0.336
42.52000 0.653
42.54000 -0.237
42.56000 0.170
42.58000 -0.500
42.60000 -0.514
42.62000 2.075
42.64000 2.180
42.66000 -1.205
42.68000 0.393
42.70000 -0.679
42.72000 -0.255
42.74000 2.838
42.76000 6.843
42.78000 5.189
42.80000 2.654
42.82000 1.363
42.84000 -3.284
42.86000 -2.947
42.88000 1.260
42.90000 3.359
42.92000 2.775
42.94000 2.227
42.96000 5.200
42.98000 1.889
43.00000 3.355
43.02000 4.456
43.04000 3.780
43.06000 -1.438
43.08000 -1.314
43.10000 4.953
43.12000 6.412
43.14000 0.690
43.16000 -1.002
43.18000 -0.658
43.20000 1.054
43.22000 1.361
43.24000 1.169
43.26000 5.266
43.28000 7.710
43.30000 5.105
43.32000 5.155
43.34000 2.482
43.36000 0.357
43.38000 -2.053
43.40000 0.021
43.42000 0.515
43.44000 0.245
43.46000 2.521
43.48000 2.622
43.50000 3.401
43.52000 3.009
43.54000 3.229
43.56000 0.056
43.58000 -0.506
43.60000 -3.197
43.62000 -1.379
43.64000 0.797
43.66000 5.592
43.68000 7.904
43.70000 5.086
43.72000 5.508
43.74000 -1.202
43.76000 2.089
43.78000 3.526
43.80000 2.134
43.82000 2.921
43.84000 5.490
43.86000 4.969
43.88000 4.980
43.90000 -1.205
43.92000 -3.186
43.94000 -0.120
43.96000 -0.531
43.98000 0.295
44.00000 -1.484
44.02000 -1.556
44.04000 2.923
44.06000 2.609
44.08000 2.145
44.10000 1.386
44.12000 7.256
44.14000 6.138
44.16000 6.191
44.18000 3.051
44.20000 2.344
44.22000 1.072
44.24000 5.206
44.26000 -0.072
44.28000 -0.316
44.30000 5.037
44.32000 8.319
44.34000 4.649
44.36000 4.200
44.38000 5.001
44.40000 9.349
44.42000 7.326
44.44000 9.245
44.46000 5.230
44.48000 2.589
44.50000 10.703
44.52000 11.908
44.54000 7.846
44.56000 7.326
44.58000 5.301
44.60000 5.329
44.62000 5.206
44.64000 10.119
44.66000 10.620
44.68000 10.903
44.70000 13.445
44.72000 11.414
44.74000 11.612
44.76000 15.699
44.78000 12.353
44.80000 11.953
44.82000 9.077
44.84000 6.992
44.86000 10.823
44.88000 13.470
44.90000 14.618
44.92000 17.548
44.94000 21.532
44.96000 23.118
44.98000 21.238
45.00000 23.648
45.02000 23.994
45.04000 21.028
45.06000 21.917
45.08000 24.822
45.10000 29.038
45.12000 30.564
45.14000 28.991
45.16000 29.875
45.18000 34.147
45.20000 32.141
45.22000 35.566
45.24000 36.752
45.26000 41.997
45.28000 43.555
45.30000 44.748
45.32000 47.524
45.34000 51.334
45.36000 50.604
45.38000 49.761
45.40000 52.424
45.42000 56.739
45.44000 57.310
45.46000 59.958
45.48000 56.305
45.50000 59.478
45.52000 58.673
45.54000 65.850
45.56000 67.254
45.58000 66.709
45.60000 66.399
45.62000 75.447
45.64000 74.290
45.66000 74.581
45.68000 77.351
45.70000 75.879
45.72000 78.164
45.74000 76.563
45.76000 75.004
45.78000 79.528
45.80000 81.347
45.82000 78.512
45.84000 80.265
45.86000 83.055
45.88000 81.558
45.90000 76.359
45.92000 75.919
45.94000 77.032
45.96000 72.559
45.98000 71.136
46.00000 65.663
46.02000 64.256
46.04000 64.892
46.06000 62.345
46.08000 64.276
46.10000 61.873
46.12000 60.408
46.14000 56.582
46.16000 55.217
46.18000 56.774
46.20000 51.609
46.22000 48.828
46.24000 46.944
46.26000 43.580
46.28000 42.866
46.30000 38.908
46.32000 37.019
46.34000 32.516
46.36000 30.986
46.38000 33.124
46.40000 32.662
46.42000 26.965
46.44000 21.680
46.46000 25.474
46.48000 23.336
46.50000 22.385
46.52000 23.209
46.54000 19.408
46.56000 17.625
46.58000 17.720
46.60000 16.393
46.62000 17.625
46.64000 13.098
46.66000 14.528
46.68000 12.558
46.70000 11.779
46.72000 13.284
46.74000 10.996
46.76000 9.513
46.78000 5.183
46.80000 3.903
46.82000 6.388
46.84000 6.263
46.86000 3.892
46.88000 7.020
46.90000 3.388
46.92000 4.274
46.94000 8.743
46.96000 6.444
46.98000 1.229
47.00000 1.332
47.02000 1.245
47.04000 1.499
47.06000 4.487
47.08000 -0.046
47.10000 0.711
47.12000 1.880
47.14000 3.177
47.16000 3.251
47.18000 2.967
47.20000 1.379
47.22000 3.225
47.24000 -1.426
47.26000 0.318
47.28000 0.226
47.30000 0.452
47.32000 -1.514
47.34000 -0.035
47.36000 5.880
47.38000 4.364
47.40000 -0.189
47.42000 -2.792
47.44000 -2.768
47.46000 1.936
47.48000 -1.435
47.50000 0.850
47.52000 2.289
47.54000 1.680
47.56000 -0.467
47.58000 3.374
47.60000 4.794
47.62000 3.978
47.64000 3.881
47.66000 2.937
47.68000 0.206
47.70000 0.857
47.72000 5.285
47.74000 3.331
47.76000 2.151
47.78000 2.201
47.80000 0.435
47.82000 -2.748
47.84000 3.089
47.86000 4.512
47.88000 1.658
47.90000 3.763
47.92000 2.978
47.94000 2.098
47.96000 2.309
47.98000 4.673
48.00000 0.485
48.02000 4.502
48.04000 1.623
48.06000 -0.340
48.08000 1.948
48.10000 3.860
48.12000 4.328
48.14000 3.853
48.16000 3.883
48.18000 1.163
48.20000 2.461
48.22000 4.732
48.24000 -1.527
48.26000 -1.024
48.28000 0.068
48.30000 -2.706
48.32000 -1.815
48.34000 4.868
48.36000 1.934
48.38000 1.020
48.40000 0.714
48.42000 -0.173
48.44000 1.484
48.46000 1.079
48.48000 -0.008
48.50000 0.057
48.52000 2.125
48.54000 3.257
48.56000 2.947
48.58000 2.365
48.60000 5.536
48.62000 10.115
48.64000 9.241
48.66000 4.237
48.68000 0.801
48.70000 0.877
48.72000 1.829
48.74000 -0.386
48.76000 3.614
48.78000 4.817
48.80000 3.839
48.82000 1.014
48.84000 3.360
48.86000 4.667
48.88000 5.017
48.90000 1.691
48.92000 -2.577
48.94000 -0.443
48.96000 0.821
48.98000 -2.628
49.00000 3.610
49.02000 2.498
49.04000 2.813
49.06000 2.495
49.08000 6.638
49.10000 1.750
49.12000 -0.011
49.14000 1.173
49.16000 3.407
49.18000 10.162
49.20000 7.363
49.22000 5.800
49.24000 3.464
49.26000 3.310
49.28000 1.238
49.30000 0.016
49.32000 1.095
49.34000 3.370
49.36000 3.737
49.38000 3.019
49.40000 1.766
49.42000 4.910
49.44000 5.596
49.46000 8.369
49.48000 4.436
49.50000 -2.597
49.52000 1.412
49.54000 4.060
49.56000 4.949
49.58000 4.514
49.60000 3.812
49.62000 0.338
49.64000 3.243
49.66000 2.670
49.68000 8.186
49.70000 4.589
49.72000 4.574
49.74000 7.339
49.76000 4.684
49.78000 6.759
49.80000 7.368
49.82000 3.548
49.84000 7.508
49.86000 5.467
49.88000 -0.078
49.90000 -0.059
49.92000 -0.444
49.94000 -0.374
49.96000 7.408
49.98000 7.563
50.00000 5.186
50.02000 3.919
50.04000 1.193
50.06000 1.258
50.08000 3.945
50.10000 5.665
50.12000 2.451
50.14000 3.625
50.16000 3.440
50.18000 3.063
50.20000 -2.561
50.22000 0.999
50.24000 2.822
50.26000 3.595
50.28000 3.142
50.30000 2.329
50.32000 -0.755
50.34000 1.977
50.36000 2.849
50.38000 5.735
50.40000 7.462
50.42000 6.310
50.44000 3.531
50.46000 0.585
50.48000 3.986
50.50000 1.913
50.52000 4.174
50.54000 4.049
50.56000 7.449
50.58000 7.653
50.60000 4.105
50.62000 1.898
50.64000 1.508
50.66000 1.273
50.68000 3.984
50.70000 3.282
50.72000 2.083
50.74000 1.537
50.76000 0.807
50.78000 5.671
50.80000 4.559
50.82000 1.665
50.84000 1.046
50.86000 -1.315
50.88000 3.686
50.90000 5.441
50.92000 2.156
50.94000 2.205
50.96000 2.219
50.98000 2.358
51.00000 1.270
51.02000 6.109
51.04000 2.957
51.06000 1.007
51.08000 2.883
51.10000 3.921
51.12000 1.908
51.14000 -1.799
51.16000 0.778
51.18000 0.012
51.20000 0.676
51.22000 3.482
51.24000 7.193
51.26000 4.285
51.28000 1.172
51.30000 5.343
51.32000 2.884
51.34000 -1.435
51.36000 -0.756
51.38000 1.836
51.40000 3.806
51.42000 4.915
51.44000 6.472
51.46000 6.966
51.48000 7.024
51.50000 4.886
51.52000 5.692
51.54000 4.522
51.56000 3.567
51.58000 4.917
51.60000 1.111
51.62000 1.167
51.64000 1.105
51.66000 0.359
51.68000 3.844
51.70000 3.735
51.72000 -2.525
51.74000 0.916
51.76000 5.579
51.78000 2.893
51.80000 2.555
51.82000 5.824
51.84000 4.412
51.86000 6.566
51.88000 3.041
51.90000 0.071
51.92000 0.582
51.94000 1.481
51.96000 2.768
51.98000 2.664
52.00000 5.715
52.02000 8.519
52.04000 4.919
52.06000 5.301
52.08000 4.164
52.10000 1.350
52.12000 1.879
52.14000 6.498
52.16000 1.583
52.18000 4.400
52.20000 5.100
52.22000 3.610
52.24000 5.299
52.26000 5.958
52.28000 4.987
52.30000 7.535
52.32000 7.585
52.34000 5.323
52.36000 5.470
52.38000 4.707
52.40000 3.280
52.42000 1.550
52.44000 2.035
52.46000 2.336
52.48000 -1.928
52.50000 -2.508
52.52000 1.570
52.54000 0.880
52.56000 2.484
52.58000 2.618
52.60000 1.741
52.62000 2.725
52.64000 2.678
52.66000 1.436
52.68000 -0.635
52.70000 -1.587
52.72000 -1.140
52.74000 3.677
52.76000 4.450
52.78000 3.139
52.80000 1.040
52.82000 3.757
52.84000 5.002
52.86000 9.428
52.88000 6.170
52.90000 5.335
52.92000 4.902
52.94000 2.267
52.96000 1.905
52.98000 3.436
53.00000 1.723
53.02000 4.261
53.04000 6.024
53.06000 3.810
53.08000 5.296
53.10000 1.577
53.12000 5.854
53.14000 4.433
53.16000 6.508
53.18000 6.164
53.20000 6.671
53.22000 8.125
53.24000 4.647
53.26000 4.951
53.28000 2.429
53.30000 0.868
53.32000 7.508
53.34000 7.930
53.36000 1.661
53.38000 -2.449
53.40000 0.085
53.42000 0.154
53.44000 6.033
53.46000 12.168
53.48000 9.999
53.50000 6.407
53.52000 3.736
53.54000 1.773
53.56000 1.969
53.58000 4.825
53.60000 7.008
53.62000 8.502
53.64000 6.654
53.66000 6.259
53.68000 5.389
53.70000 5.571
53.72000 5.090
53.74000 1.941
53.76000 2.241
53.78000 3.237
53.80000 6.879
53.82000 2.928
53.84000 4.294
53.86000 4.230
53.88000 2.505
53.90000 7.225
53.92000 3.592
53.94000 0.813
53.96000 4.897
53.98000 6.885
54.00000 4.253
54.02000 2.716
54.04000 1.150
54.06000 5.060
54.08000 3.613
54.10000 5.503
54.12000 5.877
54.14000 2.997
54.16000 4.883
54.18000 2.892
54.20000 1.377
54.22000 0.478
54.24000 4.915
54.26000 0.648
54.28000 -0.046
54.30000 -0.644
54.32000 1.361
54.34000 1.234
54.36000 2.060
54.38000 3.547
54.40000 2.851
54.42000 4.410
54.44000 2.295
54.46000 1.303
54.48000 2.283
54.50000 7.583
54.52000 4.757
54.54000 4.041
54.56000 3.575
54.58000 4.845
54.60000 7.699
54.62000 6.240
54.64000 5.825
54.66000 5.101
54.68000 3.972
54.70000 3.263
54.72000 8.689
54.74000 6.732
54.76000 3.479
54.78000 5.245
54.80000 7.103
54.82000 5.312
54.84000 -2.434
54.86000 1.691
54.88000 7.299
54.90000 7.066
54.92000 4.455
54.94000 4.111
54.96000 4.875
54.98000 8.607
55.00000 8.415
55.02000 5.016
55.04000 1.869
55.06000 -0.556
55.08000 2.617
55.10000 1.624
55.12000 4.138
55.14000 1.519
55.16000 2.597
55.18000 4.603
55.20000 0.035
55.22000 -0.335
55.24000 1.689
55.26000 3.383
55.28000 4.765
55.30000 3.368
55.32000 5.873
55.34000 3.663
55.36000 0.582
55.38000 2.627
55.40000 5.109
55.42000 6.697
55.44000 5.299
55.46000 0.243
55.48000 -2.450
55.50000 2.939
55.52000 4.534
55.54000 4.461
55.56000 2.636
55.58000 0.357
55.60000 1.165
55.62000 2.087
55.64000 4.274
55.66000 0.637
55.68000 1.599
55.70000 4.697
55.72000 5.427
55.74000 2.682
55.76000 3.491
55.78000 2.499
55.80000 3.476
55.82000 5.191
55.84000 2.692
55.86000 0.282
55.88000 -0.362
55.90000 -0.572
55.92000 0.335
55.94000 2.802
55.96000 3.336
55.98000 0.960
56.00000 0.839
56.02000 -1.386
56.04000 0.894
56.06000 -0.170
56.08000 0.237
56.10000 1.130
56.12000 3.290
56.14000 1.761
56.16000 1.079
56.18000 2.207
56.20000 2.789
56.22000 6.366
56.24000 2.196
56.26000 0.678
56.28000 -1.896
56.30000 -1.385
56.32000 0.918
56.34000 3.638
56.36000 1.648
56.38000 1.997
56.40000 -0.479
56.42000 1.333
56.44000 1.205
56.46000 2.423
56.48000 3.206
56.50000 3.992
56.52000 5.131
56.54000 1.843
56.56000 0.247
56.58000 1.135
56.60000 2.180
56.62000 4.052
56.64000 0.492
56.66000 1.040
56.68000 2.216
56.70000 2.634
56.72000 4.431
56.74000 3.040
56.76000 1.920
56.78000 0.940
56.80000 3.302
56.82000 6.419
56.84000 6.652
56.86000 5.769
56.88000 3.094
56.90000 4.416
56.92000 1.135
56.94000 -1.237
56.96000 -0.650
56.98000 -1.554
57.00000 -1.082
57.02000 -2.403
57.04000 1.076
57.06000 2.865
57.08000 2.374
57.10000 1.572
57.12000 2.364
57.14000 5.980
57.16000 3.624
57.18000 2.159
57.20000 1.722
57.22000 1.344
57.24000 2.166
57.26000 6.380
57.28000 6.672
57.30000 4.130
57.32000 3.490
57.34000 2.607
57.36000 2.309
57.38000 1.939
57.40000 -0.524
57.42000 3.018
57.44000 5.342
57.46000 5.644
57.48000 3.234
57.50000 4.722
57.52000 1.276
57.54000 -1.924
57.56000 -2.375
57.58000 1.291
57.60000 1.843
57.62000 0.718
57.64000 -2.372
57.66000 3.225
57.68000 5.549
57.70000 4.233
57.72000 4.028
57.74000 4.911
57.76000 5.117
57.78000 3.516
57.80000 3.295
57.82000 5.837
57.84000 6.765
57.86000 2.323
57.88000 2.059
57.90000 1.784
57.92000 0.197
57.94000 -0.096
57.96000 2.582
57.98000 3.845
58.00000 1.693
58.02000 3.012
58.04000 4.414
58.06000 1.597
58.08000 3.445
58.10000 3.849
58.12000 1.056
58.14000 -2.362
58.16000 0.391
58.18000 1.769
58.20000 2.114
58.22000 1.616
58.24000 0.523
58.26000 2.218
58.28000 -0.873
58.30000 1.767
58.32000 3.440
58.34000 4.420
58.36000 4.579
58.38000 2.971
58.40000 2.329
58.42000 5.914
58.44000 4.051
58.46000 6.264
58.48000 7.219
58.50000 1.917
58.52000 -0.317
58.54000 1.397
58.56000 6.801
58.58000 0.927
58.60000 -2.354
58.62000 2.018
58.64000 6.430
58.66000 2.871
58.68000 2.202
58.70000 2.709
58.72000 -0.474
58.74000 1.395
58.76000 4.086
58.78000 4.016
58.80000 8.362
58.82000 4.123
58.84000 6.361
58.86000 4.081
58.88000 4.598
58.90000 6.095
58.92000 4.113
58.94000 1.761
58.96000 3.828
58.98000 0.875
59.00000 -0.480
59.02000 4.622
59.04000 4.511
59.06000 -0.938
59.08000 0.450
59.10000 1.504
59.12000 5.294
59.14000 2.834
59.16000 3.973
59.18000 4.994
59.20000 6.587
59.22000 4.260
59.24000 5.046
59.26000 1.789
59.28000 3.369
59.30000 5.008
59.32000 5.006
59.34000 3.172
59.36000 3.460
59.38000 2.774
59.40000 1.651
59.42000 3.955
59.44000 4.058
59.46000 3.898
59.48000 2.706
59.50000 4.034
59.52000 2.429
59.54000 3.898
59.56000 6.760
59.58000 7.558
59.60000 5.971
59.62000 1.580
59.64000 -2.293
59.66000 0.048
59.68000 2.647
59.70000 2.796
59.72000 2.107
59.74000 3.671
59.76000 4.351
59.78000 5.212
59.80000 5.284
59.82000 7.255
59.84000 4.387
59.86000 4.309
59.88000 2.373
59.90000 2.723
59.92000 1.669
59.94000 4.375
59.96000 0.157
59.98000 3.242
60.00000 5.981
60.02000 2.570
60.04000 -0.148
60.06000 -0.192
60.08000 2.340
60.10000 1.789
60.12000 1.909
60.14000 1.744
60.16000 4.732
60.18000 4.508
60.20000 1.497
60.22000 2.181
60.24000 2.156
60.26000 0.717
60.28000 3.776
60.30000 9.714
60.32000 6.011
60.34000 1.675
60.36000 2.066
60.38000 3.116
60.40000 4.971
60.42000 5.997
60.44000 2.854
60.46000 3.917
60.48000 4.732
60.50000 1.122
60.52000 0.817
60.54000 0.802
60.56000 4.284
60.58000 -1.482
60.60000 1.510
60.62000 2.652
60.64000 5.477
60.66000 5.961
60.68000 5.706
60.70000 7.186
60.72000 5.518
60.74000 5.187
60.76000 2.424
60.78000 -0.980
60.80000 2.374
60.82000 6.441
60.84000 2.902
60.86000 -0.042
60.88000 5.789
60.90000 5.723
60.92000 4.122
60.94000 0.689
60.96000 2.780
60.98000 2.572
61.00000 3.144
61.02000 1.316
61.04000 2.582
61.06000 4.317
61.08000 1.864
61.10000 0.214
61.12000 2.244
61.14000 3.490
61.16000 2.746
61.18000 2.018
61.20000 1.163
61.22000 2.338
61.24000 -2.234
61.26000 0.615
61.28000 5.046
61.30000 4.495
61.32000 4.345
61.34000 3.517
61.36000 4.051
61.38000 3.668
61.40000 -0.156
61.42000 2.974
61.44000 3.210
61.46000 5.140
61.48000 1.743
61.50000 0.488
61.52000 2.796
61.54000 3.622
61.56000 5.402
61.58000 6.129
61.60000 2.022
61.62000 3.501
61.64000 2.402
61.66000 -2.120
61.68000 -1.610
61.70000 5.130
61.72000 4.517
61.74000 0.675
61.76000 2.555
61.78000 3.405
61.80000 2.414
61.82000 0.330
61.84000 0.810
61.86000 3.246
61.88000 2.462
61.90000 0.555
61.92000 3.094
61.94000 2.670
61.96000 3.367
61.98000 3.204
62.00000 4.058
62.02000 4.616
62.04000 4.311
62.06000 -0.471
62.08000 1.162
62.10000 3.399
62.12000 5.302
62.14000 -0.329
62.16000 0.894
62.18000 4.092
62.20000 3.353
62.22000 0.530
62.24000 -0.915
62.26000 0.172
62.28000 -0.206
62.30000 -1.114
62.32000 2.967
62.34000 -1.527
62.36000 2.071
62.38000 2.990
62.40000 0.701
62.42000 2.088
62.44000 1.783
62.46000 -0.775
62.48000 -1.508
62.50000 0.398
62.52000 1.237
62.54000 1.188
62.56000 2.224
62.58000 -1.653
62.60000 -0.245
62.62000 1.416
62.64000 1.407
62.66000 1.804
62.68000 2.799
62.70000 -0.542
62.72000 0.479
62.74000 3.138
62.76000 0.181
62.78000 -0.745
62.80000 1.581
62.82000 1.873
62.84000 2.269
62.86000 1.372
62.88000 2.039
62.90000 2.749
62.92000 -0.615
62.94000 2.078
62.96000 -0.119
62.98000 -0.095
63.00000 0.058
63.02000 0.331
63.04000 -2.248
63.06000 -1.780
63.08000 0.810
63.10000 3.112
63.12000 2.426
63.14000 3.770
63.16000 1.321
63.18000 -2.244
63.20000 0.919
63.22000 1.096
63.24000 -0.421
63.26000 -1.651
63.28000 -1.366
63.30000 -1.148
63.32000 0.325
63.34000 1.586
63.36000 5.253
63.38000 5.647
63.40000 6.266
63.42000 6.096
63.44000 2.592
63.46000 0.202
63.48000 0.647
63.50000 -0.879
63.52000 0.626
63.54000 2.627
63.56000 -0.914
63.58000 2.718
63.60000 1.509
63.62000 0.572
63.64000 1.064
63.66000 1.710
63.68000 1.383
63.70000 -2.234
63.72000 -2.096
63.74000 2.304
63.76000 -0.224
63.78000 0.510
63.80000 1.235
63.82000 0.928
63.84000 4.173
63.86000 0.825
63.88000 2.215
63.90000 0.318
63.92000 0.003
63.94000 -0.586
63.96000 1.782
63.98000 1.143
64.00000 2.034
64.02000 3.252
64.04000 0.307
64.06000 2.155
64.08000 -0.089
64.10000 -1.283
64.12000 -2.250
64.14000 -0.442
64.16000 2.473
64.18000 1.017
64.20000 -0.563
64.22000 -0.570
64.24000 1.043
64.26000 1.819
64.28000 0.281
64.30000 -0.351
64.32000 -2.257
64.34000 -0.979
64.36000 -0.307
64.38000 -0.310
64.40000 -0.018
64.42000 -0.040
64.44000 0.420
64.46000 0.674
64.48000 -1.216
64.50000 -0.586
64.52000 1.324
64.54000 -0.455
64.56000 -0.105
64.58000 -1.614
64.60000 -0.370
64.62000 -0.862
64.64000 0.155
64.66000 0.535
64.68000 2.807
64.70000 0.677
64.72000 -0.100
64.74000 -1.044
64.76000 -1.695
64.78000 0.192
64.80000 0.887
64.82000 -0.108
64.84000 -1.448
64.86000 1.424
64.88000 0.285
64.90000 0.710
64.92000 -0.723
64.94000 -0.425
64.96000 -2.164
64.98000 -0.631
65.00000 0.136
65.02000 -0.663
65.04000 -0.452
65.06000 0.612
65.08000 -1.281
65.10000 1.316
65.12000 1.272
65.14000 -0.010
65.16000 -2.271
65.18000 -1.999
65.20000 1.403
65.22000 0.350
65.24000 -1.752
65.26000 -0.817
65.28000 1.932
65.30000 0.440
65.32000 1.174
65.34000 2.546
65.36000 4.263
65.38000 1.873
65.40000 2.092
65.42000 2.749
65.44000 1.151
65.46000 -1.619
65.48000 -1.576
65.50000 0.071
65.52000 0.382
65.54000 0.014
65.56000 -1.017
65.58000 -1.064
65.60000 0.780
65.62000 1.204
65.64000 -0.060
65.66000 -2.271
65.68000 -0.623
65.70000 -1.538
65.72000 0.389
65.74000 -0.086
65.76000 1.652
65.78000 1.029
65.80000 3.169
65.82000 3.575
65.84000 2.855
65.86000 2.301
65.88000 2.034
65.90000 0.627
65.92000 1.679
65.94000 2.054
65.96000 3.590
65.98000 3.885
66.00000 2.593
66.02000 4.187
66.04000 4.303
66.06000 4.107
66.08000 2.494
66.10000 1.758
66.12000 5.745
66.14000 6.342
66.16000 3.716
66.18000 3.791
66.20000 4.537
66.22000 3.168
66.24000 3.743
66.26000 3.901
66.28000 2.530
66.30000 3.520
66.32000 5.374
66.34000 5.447
66.36000 3.163
66.38000 3.324
66.40000 5.831
66.42000 5.907
66.44000 5.476
66.46000 6.344
66.48000 5.136
66.50000 5.187
66.52000 6.070
66.54000 5.578
66.56000 7.325
66.58000 6.594
66.60000 6.216
66.62000 7.673
66.64000 7.457
66.66000 5.099
66.68000 4.523
66.70000 6.536
66.72000 7.432
66.74000 6.771
66.76000 2.844
66.78000 3.623
66.80000 6.480
66.82000 5.864
66.84000 6.646
66.86000 2.988
66.88000 5.375
66.90000 4.592
66.92000 6.438
66.94000 3.684
66.96000 4.290
66.98000 4.361
67.00000 4.891
67.02000 4.724
67.04000 6.010
67.06000 5.951
67.08000 4.923
67.10000 2.066
67.12000 -0.241
67.14000 -2.241
67.16000 -0.152
67.18000 3.826
67.20000 3.123
67.22000 4.959
67.24000 3.006
67.26000 3.337
67.28000 0.449
67.30000 0.145
67.32000 1.223
67.34000 0.685
67.36000 0.425
67.38000 1.419
67.40000 3.007
67.42000 0.394
67.44000 1.102
67.46000 -0.784
67.48000 0.816
67.50000 2.765
67.52000 0.811
67.54000 -0.109
67.56000 -0.813
67.58000 0.767
67.60000 -2.054
67.62000 0.833
67.64000 -2.067
67.66000 -2.077
67.68000 -0.937
67.70000 -1.176
67.72000 1.019
67.74000 0.816
67.76000 0.470
67.78000 2.425
67.80000 2.139
67.82000 1.383
67.84000 -0.928
67.86000 -1.669
67.88000 -1.717
67.90000 1.311
67.92000 -0.281
67.94000 -1.291
67.96000 -0.953
67.98000 -0.427
68.00000 -0.766
68.02000 2.716
68.04000 2.045
68.06000 1.118
68.08000 0.733
68.10000 0.593
68.12000 -0.371
68.14000 -0.379
68.16000 -2.149
68.18000 -1.458
68.20000 1.833
68.22000 2.649
68.24000 0.220
68.26000 1.919
68.28000 2.398
68.30000 1.592
68.32000 0.692
68.34000 1.500
68.36000 3.732
68.38000 4.116
68.40000 0.522
68.42000 -1.377
68.44000 0.565
68.46000 2.682
68.48000 2.176
68.50000 2.412
68.52000 2.254
68.54000 0.787
68.56000 3.426
68.58000 -0.773
68.60000 -2.099
68.62000 -1.033
68.64000 0.177
68.66000 0.851
68.68000 1.075
68.70000 1.581
68.72000 1.823
68.74000 3.377
68.76000 3.755
68.78000 3.150
68.80000 2.633
68.82000 1.201
68.84000 -0.189
68.86000 -0.223
68.88000 0.705
68.90000 0.946
68.92000 0.318
68.94000 2.055
68.96000 0.991
68.98000 0.757
69.00000 1.511
69.02000 -0.361
69.04000 0.855
69.06000 1.009
69.08000 0.975
69.10000 0.547
69.12000 0.131
69.14000 3.409
69.16000 1.400
69.18000 0.524
69.20000 1.661
69.22000 0.393
69.24000 1.070
69.26000 1.571
69.28000 -0.138
69.30000 -2.084
69.32000 -1.277
69.34000 2.859
69.36000 1.052
69.38000 1.413
69.40000 -0.159
69.42000 0.879
69.44000 -0.921
69.46000 -0.038
69.48000 2.948
69.50000 -0.200
69.52000 -2.073
69.54000 -0.649
69.56000 0.347
69.58000 1.735
69.60000 1.627
69.62000 0.556
69.64000 2.248
69.66000 1.650
69.68000 1.677
69.70000 2.210
69.72000 1.708
69.74000 3.233
69.76000 1.836
69.78000 1.722
69.80000 2.858
69.82000 1.133
69.84000 0.566
69.86000 0.379
69.88000 2.176
69.90000 0.553
69.92000 -0.922
69.94000 4.099
69.96000 3.955
69.98000 1.810
70.00000 1.098
70.02000 1.170
70.04000 1.936
70.06000 1.919
70.08000 1.530
70.10000 0.256
70.12000 3.034
70.14000 1.668
70.16000 -0.143
70.18000 -0.214
70.20000 0.446
70.22000 2.504
70.24000 1.376
70.26000 -0.877
70.28000 1.534
70.30000 1.351
70.32000 -0.656
70.34000 -1.017
70.36000 0.514
70.38000 3.627
70.40000 2.333
70.42000 -0.388
70.44000 1.021
70.46000 1.549
70.48000 0.680
70.50000 -1.574
70.52000 -2.041
70.54000 1.498
70.56000 0.735
70.58000 1.955
70.60000 2.321
70.62000 2.714
70.64000 2.957
70.66000 3.850
70.68000 4.061
70.70000 0.904
70.72000 -1.096
70.74000 0.653
70.76000 -1.282
70.78000 1.248
70.80000 3.766
70.82000 3.512
70.84000 0.484
70.86000 3.131
70.88000 3.670
70.90000 0.686
70.92000 -0.138
70.94000 0.918
70.96000 2.604
70.98000 1.984
71.00000 0.511
71.02000 -0.855
71.04000 -0.587
71.06000 1.890
71.08000 0.112
71.10000 0.912
71.12000 -1.751
71.14000 -0.953
71.16000 -0.651
71.18000 -0.007
71.20000 -1.547
71.22000 1.420
71.24000 1.528
71.26000 0.038
71.28000 -1.104
71.30000 1.567
71.32000 -1.128
71.34000 -0.773
71.36000 0.207
71.38000 2.015
71.40000 2.736
71.42000 0.847
71.44000 2.201
71.46000 2.393
71.48000 -0.392
71.50000 0.960
71.52000 -0.927
71.54000 -1.032
71.56000 0.808
71.58000 0.923
71.60000 3.739
71.62000 0.771
71.64000 3.610
71.66000 2.303
71.68000 2.790
71.70000 2.099
71.72000 4.284
71.74000 3.186
71.76000 1.335
71.78000 -0.675
71.80000 0.056
71.82000 1.430
71.84000 2.161
71.86000 2.643
71.88000 2.407
71.90000 2.037
71.92000 2.007
71.94000 1.092
71.96000 1.281
71.98000 0.156
72.00000 0.026
72.02000 -1.567
72.04000 0.017
72.06000 1.914
72.08000 2.035
72.10000 -1.971
72.12000 0.213
72.14000 4.472
72.16000 3.428
72.18000 5.271
72.20000 4.009
72.22000 1.287
72.24000 2.421
72.26000 2.844
72.28000 1.974
72.30000 1.489
72.32000 1.148
72.34000 2.024
72.36000 1.975
72.38000 2.772
72.40000 1.740
72.42000 1.616
72.44000 0.642
72.46000 -0.616
72.48000 0.783
72.50000 1.072
72.52000 3.701
72.54000 2.669
72.56000 1.792
72.58000 0.270
72.60000 -1.721
72.62000 0.606
72.64000 0.596
72.66000 0.655
72.68000 1.712
72.70000 3.180
72.72000 1.527
72.74000 0.026
72.76000 1.952
72.78000 -0.455
72.80000 -0.203
72.82000 -1.967
72.84000 -0.781
72.86000 -0.187
72.88000 3.544
72.90000 0.983
72.92000 -0.275
72.94000 0.854
72.96000 1.945
72.98000 0.733
73.00000 -0.519
73.02000 0.498
73.04000 1.098
73.06000 -1.839
73.08000 1.036
73.10000 1.169
73.12000 3.694
73.14000 1.932
73.16000 0.952
73.18000 1.107
73.20000 -0.259
73.22000 1.420
73.24000 0.506
73.26000 1.532
73.28000 0.654
73.30000 -0.382
73.32000 0.060
73.34000 2.035
73.36000 -0.006
73.38000 -0.807
73.40000 -0.024
73.42000 2.064
73.44000 0.130
73.46000 0.178
73.48000 3.316
73.50000 1.283
73.52000 0.948
73.54000 -0.130
73.56000 -1.492
73.58000 0.650
73.60000 -1.357
73.62000 0.901
73.64000 0.354
73.66000 0.894
73.68000 -1.386
73.70000 0.775
73.72000 2.789
73.74000 1.708
73.76000 2.788
73.78000 1.652
73.80000 0.112
73.82000 2.779
73.84000 1.526
73.86000 1.369
73.88000 3.051
73.90000 2.963
73.92000 -0.984
73.94000 -1.960
73.96000 -1.084
73.98000 1.133
74.00000 -0.042
74.02000 3.130
74.04000 3.231
74.06000 0.554
74.08000 2.924
74.10000 1.219
74.12000 -1.617
74.14000 -0.155
74.16000 3.665
74.18000 3.814
74.20000 -0.842
74.22000 0.561
74.24000 1.089
74.26000 0.472
74.28000 0.601
74.30000 -0.409
74.32000 0.013
74.34000 -0.257
74.36000 -1.427
74.38000 1.048
74.40000 0.919
74.42000 1.812
74.44000 1.098
74.46000 1.938
74.48000 -1.730
74.50000 -1.245
74.52000 0.191
74.54000 1.355
74.56000 -0.523
74.58000 -1.109
74.60000 0.485
74.62000 3.289
74.64000 2.174
74.66000 3.283
74.68000 0.106
74.70000 1.263
74.72000 3.503
74.74000 1.517
74.76000 1.805
74.78000 3.128
74.80000 1.810
74.82000 0.222
74.84000 0.612
74.86000 0.412
74.88000 1.667
74.90000 -0.335
74.92000 1.783
74.94000 5.920
74.96000 3.574
74.98000 0.755
75.00000 0.807
75.02000 4.347
75.04000 4.340
75.06000 1.921
75.08000 2.235
75.10000 3.398
75.12000 3.079
75.14000 1.885
75.16000 4.024
75.18000 2.663
75.20000 1.900
75.22000 5.852
75.24000 3.924
75.26000 1.058
75.28000 2.281
75.30000 4.595
75.32000 3.610
75.34000 3.061
75.36000 4.647
75.38000 4.245
75.40000 4.129
75.42000 5.704
75.44000 4.090
75.46000 5.425
75.48000 4.754
75.50000 4.737
75.52000 0.883
75.54000 2.648
75.56000 0.551
75.58000 -1.913
75.60000 3.065
75.62000 4.853
75.64000 3.937
75.66000 0.225
75.68000 -0.166
75.70000 1.211
75.72000 2.174
75.74000 1.642
75.76000 2.477
75.78000 4.611
75.80000 4.091
75.82000 2.308
75.84000 1.586
75.86000 3.070
75.88000 6.408
75.90000 4.589
75.92000 0.920
75.94000 3.858
75.96000 4.368
75.98000 4.740
76.00000 0.155
76.02000 1.393
76.04000 1.495
76.06000 1.151
76.08000 3.502
76.10000 2.083
76.12000 0.562
76.14000 0.435
76.16000 -0.381
76.18000 0.024
76.20000 1.649
76.22000 4.806
76.24000 3.237
76.26000 0.125
76.28000 -0.985
76.30000 0.153
76.32000 -0.653
76.34000 1.745
76.36000 1.400
76.38000 1.800
76.40000 0.423
76.42000 0.644
76.44000 1.302
76.46000 -1.008
76.48000 -0.334
76.50000 -0.068
76.52000 1.825
76.54000 -0.920
76.56000 -1.220
76.58000 -0.044
76.60000 2.494
76.62000 1.773
76.64000 1.662
76.66000 1.727
76.68000 3.186
76.70000 2.006
76.72000 0.177
76.74000 0.565
76.76000 -0.585
76.78000 0.262
76.80000 0.413
76.82000 0.641
76.84000 -0.441
76.86000 -0.643
76.88000 2.239
76.90000 3.154
76.92000 2.719
76.94000 1.587
76.96000 1.057
76.98000 0.002
77.00000 2.021
77.02000 2.796
77.04000 -0.041
77.06000 1.290
77.08000 1.435
77.10000 0.820
77.12000 -0.362
77.14000 1.416
77.16000 1.248
77.18000 3.181
77.20000 3.726
77.22000 3.182
77.24000 0.416
77.26000 1.155
77.28000 0.632
77.30000 -2.004
77.32000 -0.486
77.34000 3.044
77.36000 3.797
77.38000 4.468
77.40000 6.358
77.42000 2.192
77.44000 0.583
77.46000 2.411
77.48000 2.086
77.50000 1.678
77.52000 1.631
77.54000 1.677
77.56000 2.829
77.58000 1.910
77.60000 2.214
77.62000 4.465
77.64000 3.256
77.66000 3.746
77.68000 4.978
77.70000 5.157
77.72000 4.060
77.74000 0.869
77.76000 -2.001
77.78000 2.526
77.80000 2.634
77.82000 3.786
77.84000 3.279
77.86000 4.510
77.88000 4.582
77.90000 3.061
77.92000 1.697
77.94000 0.601
77.96000 1.330
77.98000 4.111
78.00000 1.981
78.02000 -0.472
78.04000 -2.028
78.06000 2.238
78.08000 1.067
78.10000 2.488
78.12000 3.256
78.14000 3.568
78.16000 2.508
78.18000 3.276
78.20000 3.163
78.22000 2.928
78.24000 -1.957
78.26000 -1.886
78.28000 0.334
78.30000 2.688
78.32000 3.071
78.34000 0.461
78.36000 -0.217
78.38000 2.594
78.40000 2.929
78.42000 1.570
78.44000 3.135
78.46000 -0.924
78.48000 0.453
78.50000 0.157
78.52000 1.493
78.54000 2.571
78.56000 1.528
78.58000 2.556
78.60000 2.701
78.62000 -0.625
78.64000 2.742
78.66000 0.887
78.68000 3.036
78.70000 1.674
78.72000 1.974
78.74000 2.037
78.76000 1.177
78.78000 -0.570
78.80000 0.506
78.82000 1.531
78.84000 -2.127
78.86000 -1.985
78.88000 1.101
78.90000 -0.029
78.92000 2.307
78.94000 3.213
78.96000 3.858
78.98000 4.554
79.00000 3.082
79.02000 3.347
79.04000 1.226
79.06000 3.554
79.08000 4.903
79.10000 5.716
79.12000 2.345
79.14000 0.769
79.16000 -0.959
79.18000 1.509
79.20000 4.269
79.22000 3.929
79.24000 6.011
79.26000 5.728
79.28000 3.680
79.30000 3.219
79.32000 5.736
79.34000 7.972
79.36000 6.237
79.38000 3.236
79.40000 7.988
79.42000 6.398
79.44000 5.443
79.46000 7.582
79.48000 5.607
79.50000 4.433
79.52000 5.461
79.54000 7.205
79.56000 8.551
79.58000 5.563
79.60000 7.195
79.62000 10.005
79.64000 12.251
79.66000 12.883
79.68000 9.795
79.70000 14.160
79.72000 15.857
79.74000 16.051
79.76000 17.081
79.78000 15.555
79.80000 15.985
79.82000 15.297
79.84000 15.092
79.86000 13.316
79.88000 19.284
79.90000 18.250
79.92000 18.447
79.94000 17.433
79.96000 13.768
79.98000 17.221
80.00000 17.736
80.02000 17.412
80.04000 15.163
80.06000 15.428
80.08000 16.360
80.10000 16.782
80.12000 22.468
80.14000 20.356
80.16000 21.180
80.18000 18.138
80.20000 19.620
80.22000 19.224
80.24000 18.511
80.26000 25.365
80.28000 25.809
80.30000 23.885
80.32000 21.737
80.34000 21.651
80.36000 22.313
80.38000 19.757
80.40000 22.880
80.42000 24.107
80.44000 19.323
80.46000 20.355
80.48000 18.943
80.50000 20.457
80.52000 19.571
80.54000 21.700
80.56000 20.488
80.58000 20.894
80.60000 19.012
80.62000 20.232
80.64000 17.077
80.66000 15.981
80.68000 18.065
80.70000 18.742
80.72000 14.163
80.74000 11.704
80.76000 11.093
80.78000 13.782
80.80000 16.676
80.82000 12.487
80.84000 10.797
80.86000 11.828
80.88000 11.803
80.90000 8.343
80.92000 5.707
80.94000 8.384
80.96000 10.559
80.98000 6.913
81.00000 6.654
81.02000 9.862
81.04000 6.625
81.06000 7.256
81.08000 7.286
81.10000 5.772
81.12000 4.754
81.14000 5.352
81.16000 4.832
81.18000 5.388
81.20000 6.038
81.22000 4.198
81.24000 1.922
81.26000 2.540
81.28000 2.934
81.30000 -0.568
81.32000 3.996
81.34000 6.358
81.36000 8.521
81.38000 4.347
81.40000 4.615
81.42000 2.347
81.44000 2.919
81.46000 0.842
81.48000 -2.030
81.50000 4.426
81.52000 5.398
81.54000 4.496
81.56000 2.068
81.58000 -0.595
81.60000 -0.082
81.62000 1.221
81.64000 0.919
81.66000 1.155
81.68000 4.235
81.70000 4.762
81.72000 0.924
81.74000 -1.641
81.76000 -0.953
81.78000 -0.079
81.80000 0.118
81.82000 2.263
81.84000 0.966
81.86000 0.851
81.88000 3.575
81.90000 2.377
81.92000 -1.371
81.94000 1.760
81.96000 5.635
81.98000 3.519
82.00000 2.847
82.02000 4.722
82.04000 2.948
82.06000 3.816
82.08000 0.562
82.10000 -2.184
82.12000 -0.971
82.14000 1.895
82.16000 3.687
82.18000 3.007
82.20000 -0.655
82.22000 0.570
82.24000 3.177
82.26000 3.405
82.28000 4.593
82.30000 3.628
82.32000 0.719
82.34000 1.607
82.36000 0.869
82.38000 0.362
82.40000 1.700
82.42000 0.133
82.44000 -0.232
82.46000 0.751
82.48000 1.498
82.50000 2.387
82.52000 3.647
82.54000 4.390
82.56000 0.365
82.58000 -0.857
82.60000 -2.197
82.62000 0.371
82.64000 1.954
82.66000 4.076
82.68000 3.577
82.70000 0.997
82.72000 0.226
82.74000 -1.255
82.76000 0.693
82.78000 2.531
82.80000 4.542
82.82000 8.813
82.84000 7.148
82.86000 3.336
82.88000 5.641
82.90000 4.208
82.92000 2.973
82.94000 -0.002
82.96000 0.619
82.98000 3.400
83.00000 5.613
83.02000 7.427
83.04000 4.183
83.06000 4.161
83.08000 5.078
83.10000 6.777
83.12000 2.483
83.14000 5.881
83.16000 6.561
83.18000 6.784
83.20000 6.194
83.22000 6.150
83.24000 7.076
83.26000 8.705
83.28000 8.318
83.30000 7.698
83.32000 11.700
83.34000 8.704
83.36000 10.013
83.38000 11.713
83.40000 11.793
83.42000 13.030
83.44000 15.746
83.46000 14.583
83.48000 14.108
83.50000 11.232
83.52000 17.972
83.54000 16.996
83.56000 19.794
83.58000 17.658
83.60000 15.538
83.62000 19.363
83.64000 20.408
83.66000 25.191
83.68000 23.573
83.70000 20.639
83.72000 19.372
83.74000 19.344
83.76000 20.004
83.78000 20.265
83.80000 24.807
83.82000 28.566
83.84000 28.343
83.86000 27.318
83.88000 28.335
83.90000 28.901
83.92000 28.618
83.94000 25.818
83.96000 29.753
83.98000 30.783
84.00000 30.223
84.02000 30.407
84.04000 30.053
84.06000 33.236
84.08000 35.852
84.10000 33.485
84.12000 30.230
84.14000 30.183
84.16000 29.998
84.18000 36.050
84.20000 38.142
84.22000 32.225
84.24000 33.248
84.26000 33.576
84.28000 31.544
84.30000 32.475
84.32000 30.053
84.34000 32.126
84.36000 31.645
84.38000 32.142
84.40000 30.655
84.42000 30.409
84.44000 32.732
84.46000 29.368
84.48000 27.981
84.50000 28.351
84.52000 25.425
84.54000 24.813
84.56000 24.880
84.58000 23.604
84.60000 19.973
84.62000 22.312
84.64000 21.426
84.66000 20.160
84.68000 18.778
84.70000 16.432
84.72000 20.013
84.74000 17.697
84.76000 13.571
84.78000 15.197
84.80000 17.052
84.82000 17.381
84.84000 14.714
84.86000 12.900
84.88000 10.350
84.90000 10.023
84.92000 13.929
84.94000 10.972
84.96000 6.563
84.98000 6.196
85.00000 8.499
85.02000 8.685
85.04000 7.885
85.06000 9.458
85.08000 9.471
85.10000 8.866
85.12000 7.091
85.14000 8.573
85.16000 9.588
85.18000 5.870
85.20000 4.735
85.22000 5.270
85.24000 5.541
85.26000 3.678
85.28000 7.770
85.30000 4.837
85.32000 4.115
85.34000 1.562
85.36000 -1.067
85.38000 -1.351
85.40000 2.548
85.42000 1.813
85.44000 0.298
85.46000 0.895
85.48000 1.946
85.50000 3.780
85.52000 0.854
85.54000 1.841
85.56000 -0.046
85.58000 -0.934
85.60000 -0.841
85.62000 0.705
85.64000 1.803
85.66000 3.753
85.68000 4.824
85.70000 2.485
85.72000 4.353
85.74000 5.437
85.76000 -0.267
85.78000 0.313
85.80000 1.678
85.82000 3.193
85.84000 3.121
85.86000 4.517
85.88000 0.705
85.90000 -1.946
85.92000 2.543
85.94000 2.277
85.96000 3.088
85.98000 0.511
86.00000 1.729
86.02000 0.647
86.04000 0.030
86.06000 -1.317
86.08000 1.564
86.10000 1.988
86.12000 3.237
86.14000 0.252
86.16000 0.101
86.18000 1.984
86.20000 0.671
86.22000 -0.679
86.24000 -1.186
86.26000 2.284
86.28000 2.094
86.30000 2.461
86.32000 2.643
86.34000 1.193
86.36000 -0.626
86.38000 -0.213
86.40000 -1.416
86.42000 -1.854
86.44000 -1.508
86.46000 -0.428
86.48000 2.323
86.50000 3.765
86.52000 3.949
86.54000 1.147
86.56000 -1.410
86.58000 2.959
86.60000 3.379
86.62000 0.180
86.64000 1.960
86.66000 0.465
86.68000 1.533
86.70000 3.971
86.72000 3.749
86.74000 2.798
86.76000 1.059
86.78000 2.601
86.80000 1.661
86.82000 0.610
86.84000 1.115
86.86000 0.084
86.88000 4.561
86.90000 2.554
86.92000 -1.265
86.94000 -1.863
86.96000 0.469
86.98000 1.194
87.00000 3.204
87.02000 4.070
87.04000 3.020
87.06000 1.160
87.08000 -1.504
87.10000 -1.111
87.12000 0.109
87.14000 3.248
87.16000 1.307
87.18000 1.757
87.20000 1.725
87.22000 4.506
87.24000 3.413
87.26000 3.720
87.28000 2.314
87.30000 -0.148
87.32000 -0.701
87.34000 -0.763
87.36000 1.847
87.38000 0.713
87.40000 -0.275
87.42000 -1.219
87.44000 -0.041
87.46000 1.364
87.48000 -0.660
87.50000 -0.166
87.52000 0.832
87.54000 1.233
87.56000 0.766
87.58000 1.903
87.60000 0.442
87.62000 -0.496
87.64000 -0.507
87.66000 1.131
87.68000 -0.608
87.70000 0.653
87.72000 2.404
87.74000 2.175
87.76000 2.089
87.78000 2.461
87.80000 -0.689
87.82000 -0.596
87.84000 3.218
87.86000 2.608
87.88000 1.056
87.90000 0.103
87.92000 1.184
87.94000 1.161
87.96000 1.367
87.98000 -0.006
88.00000 -1.239
88.02000 -1.597
88.04000 0.540
88.06000 -0.446
88.08000 1.774
88.10000 3.527
88.12000 3.271
88.14000 4.122
88.16000 1.832
88.18000 0.368
88.20000 -0.008
88.22000 -1.144
88.24000 -0.695
88.26000 -1.812
88.28000 0.977
88.30000 1.466
88.32000 -0.327
88.34000 2.589
88.36000 5.148
88.38000 3.286
88.40000 2.599
88.42000 1.246
88.44000 1.841
88.46000 3.321
88.48000 5.423
88.50000 2.382
88.52000 -1.829
88.54000 0.392
88.56000 1.533
88.58000 -0.541
88.60000 1.134
88.62000 3.252
88.64000 2.707
88.66000 2.225
88.68000 4.494
88.70000 1.792
88.72000 1.415
88.74000 2.673
88.76000 2.368
88.78000 1.879
88.80000 0.913
88.82000 1.293
88.84000 0.235
88.86000 -1.823
88.88000 -0.556
88.90000 -0.460
88.92000 1.937
88.94000 0.733
88.96000 2.280
88.98000 3.306
89.00000 4.669
89.02000 5.231
89.04000 0.871
89.06000 0.708
89.08000 2.743
89.10000 1.754
89.12000 1.461
89.14000 2.240
89.16000 2.577
89.18000 3.553
89.20000 2.333
89.22000 0.009
89.24000 2.057
89.26000 1.879
89.28000 0.758
89.30000 4.445
89.32000 8.022
89.34000 3.752
89.36000 2.613
89.38000 3.748
89.40000 2.110
89.42000 0.371
89.44000 -0.295
89.46000 1.841
89.48000 1.052
89.50000 3.041
89.52000 2.499
89.54000 0.523
89.56000 2.481
89.58000 0.800
89.60000 -0.056
89.62000 2.700
89.64000 1.583
89.66000 1.078
89.68000 4.477
89.70000 6.186
89.72000 5.463
89.74000 3.913
89.76000 2.676
89.78000 3.529
89.80000 1.728
89.82000 1.279
89.84000 0.852
89.86000 -1.042
89.88000 -0.103
89.90000 2.873
89.92000 1.123
89.94000 -1.793
89.96000 -0.210
89.98000 1.844
90.00000 2.431
90.02000 1.710
90.04000 0.376
90.06000 2.838
90.08000 2.445
90.10000 3.864
90.12000 1.569
90.14000 2.531
90.16000 3.413
90.18000 4.812
90.20000 3.089
90.22000 0.578
90.24000 1.384
90.26000 1.352
90.28000 1.141
90.30000 1.360
90.32000 3.376
90.34000 3.248
90.36000 2.054
90.38000 3.760
90.40000 3.724
90.42000 1.141
90.44000 3.427
90.46000 3.196
90.48000 5.898
90.50000 5.135
90.52000 2.092
90.54000 1.705
90.56000 2.344
90.58000 2.266
90.60000 2.858
90.62000 2.702
90.64000 3.809
90.66000 2.812
90.68000 1.172
90.70000 0.546
90.72000 -0.556
90.74000 1.111
90.76000 2.931
90.78000 3.117
90.80000 2.590
90.82000 4.149
90.84000 4.815
90.86000 1.187
90.88000 0.602
90.90000 3.542
90.92000 5.065
90.94000 3.824
90.96000 1.915
90.98000 1.484
91.00000 4.026
91.02000 3.349
91.04000 1.228
91.06000 2.540
91.08000 5.392
91.10000 3.183
91.12000 2.361
91.14000 4.064
91.16000 1.492
91.18000 1.681
91.20000 0.134
91.22000 -0.907
91.24000 0.870
91.26000 -0.463
91.28000 0.121
91.30000 -1.809
91.32000 1.102
91.34000 3.533
91.36000 3.615
91.38000 0.198
91.40000 2.576
91.42000 1.878
91.44000 0.288
91.46000 0.886
91.48000 4.858
91.50000 4.290
91.52000 3.198
91.54000 6.701
91.56000 5.934
91.58000 0.915
91.60000 4.067
91.62000 7.356
91.64000 4.479
91.66000 3.734
91.68000 3.500
91.70000 2.556
91.72000 -0.308
91.74000 2.519
91.76000 -0.710
91.78000 0.940
91.80000 0.783
91.82000 4.108
91.84000 6.140
91.86000 7.013
91.88000 4.091
91.90000 1.462
91.92000 3.642
91.94000 4.256
91.96000 3.783
91.98000 1.585
92.00000 1.608
92.02000 3.270
92.04000 5.098
92.06000 2.878
92.08000 0.646
92.10000 1.365
92.12000 4.444
92.14000 5.106
92.16000 3.788
92.18000 2.186
92.20000 2.317
92.22000 2.930
92.24000 0.929
92.26000 2.297
92.28000 2.894
92.30000 2.689
92.32000 3.169
92.34000 3.943
92.36000 4.475
92.38000 6.161
92.40000 4.995
92.42000 6.500
92.44000 6.106
92.46000 2.622
92.48000 2.671
92.50000 3.389
92.52000 2.552
92.54000 0.062
92.56000 4.172
92.58000 3.988
92.60000 0.448
92.62000 -1.791
92.64000 1.422
92.66000 1.618
92.68000 -0.339
92.70000 3.268
92.72000 5.044
92.74000 4.030
92.76000 4.674
92.78000 2.193
92.80000 2.547
92.82000 1.844
92.84000 -0.046
92.86000 -1.554
92.88000 3.200
92.90000 6.426
92.92000 3.178
92.94000 3.025
92.96000 4.417
92.98000 2.096
93.00000 1.304
93.02000 2.137
93.04000 1.317
93.06000 1.276
93.08000 0.069
93.10000 0.834
93.12000 2.278
93.14000 1.460
93.16000 3.364
93.18000 6.715
93.20000 2.733
93.22000 3.005
93.24000 1.781
93.26000 3.679
93.28000 4.227
93.30000 0.470
93.32000 0.444
93.34000 2.432
93.36000 2.143
93.38000 -0.627
93.40000 -0.204
93.42000 0.379
93.44000 2.166
93.46000 1.573
93.48000 2.869
93.50000 2.100
93.52000 4.033
93.54000 2.161
93.56000 0.523
93.58000 1.949
93.60000 1.817
93.62000 2.040
93.64000 1.482
93.66000 -0.084
93.68000 1.995
93.70000 4.346
93.72000 4.310
93.74000 2.379
93.76000 1.615
93.78000 0.469
93.80000 3.540
93.82000 3.291
93.84000 2.376
93.86000 0.682
93.88000 4.032
93.90000 3.904
93.92000 5.213
93.94000 2.572
93.96000 3.160
93.98000 4.589
94.00000 7.980
94.02000 6.929
94.04000 3.207
94.06000 0.922
94.08000 1.398
94.10000 3.056
94.12000 2.998
94.14000 4.557
94.16000 5.783
94.18000 4.000
94.20000 1.668
94.22000 2.464
94.24000 1.502
94.26000 1.293
94.28000 -0.794
94.30000 -1.814
94.32000 0.346
94.34000 5.437
94.36000 5.828
94.38000 5.325
94.40000 1.511
94.42000 5.171
94.44000 3.661
94.46000 3.071
94.48000 4.219
94.50000 5.542
94.52000 3.627
94.54000 3.543
94.56000 3.611
94.58000 5.055
94.60000 5.513
94.62000 4.241
94.64000 1.076
94.66000 0.760
94.68000 4.515
94.70000 7.083
94.72000 5.240
94.74000 -0.005
94.76000 -0.130
94.78000 3.533
94.80000 2.660
94.82000 2.908
94.84000 4.684
94.86000 1.432
94.88000 3.956
94.90000 4.681
94.92000 1.695
94.94000 1.430
94.96000 5.510
94.98000 7.303
95.00000 8.114
95.02000 6.714
95.04000 4.383
95.06000 5.214
95.08000 2.308
95.10000 1.317
95.12000 3.434
95.14000 2.621
95.16000 3.340
95.18000 2.952
95.20000 2.838
95.22000 3.240
95.24000 1.354
95.26000 2.354
95.28000 2.261
95.30000 1.840
95.32000 2.301
95.34000 0.694
95.36000 -1.838
95.38000 -0.959
95.40000 2.157
95.42000 6.881
95.44000 7.277
95.46000 4.391
95.48000 0.852
95.50000 -0.255
95.52000 1.738
95.54000 2.879
95.56000 0.742
95.58000 0.786
95.60000 1.342
95.62000 2.123
95.64000 -1.849
95.66000 0.394
95.68000 1.830
95.70000 0.738
95.72000 4.686
95.74000 2.167
95.76000 2.884
95.78000 4.584
95.80000 4.359
95.82000 4.212
95.84000 3.947
95.86000 6.176
95.88000 4.608
95.90000 7.935
95.92000 3.822
95.94000 -1.831
95.96000 0.369
95.98000 0.259
96.00000 0.190
96.02000 2.067
96.04000 5.062
96.06000 2.867
96.08000 -1.290
96.10000 -1.835
96.12000 2.585
96.14000 1.439
96.16000 4.565
96.18000 4.238
96.20000 3.968
96.22000 3.792
96.24000 1.613
96.26000 2.893
96.28000 4.814
96.30000 5.310
96.32000 4.419
96.34000 1.716
96.36000 -0.077
96.38000 0.940
96.40000 2.603
96.42000 4.991
96.44000 3.660
96.46000 4.134
96.48000 -1.701
96.50000 0.433
96.52000 3.183
96.54000 1.500
96.56000 2.506
96.58000 0.268
96.60000 1.256
96.62000 2.115
96.64000 0.905
96.66000 -0.728
96.68000 0.285
96.70000 5.093
96.72000 4.916
96.74000 2.405
96.76000 4.015
96.78000 2.597
96.80000 1.629
96.82000 -0.312
96.84000 1.924
96.86000 3.600
96.88000 3.802
96.90000 4.210
96.92000 2.618
96.94000 0.146
96.96000 3.132
96.98000 4.967
97.00000 2.291
97.02000 2.932
97.04000 4.000
97.06000 -0.093
97.08000 -1.830
97.10000 0.975
97.12000 0.665
97.14000 1.960
97.16000 0.116
97.18000 0.044
97.20000 4.714
97.22000 2.330
97.24000 5.693
97.26000 6.271
97.28000 4.220
97.30000 -1.829
97.32000 0.581
97.34000 5.468
97.36000 6.218
97.38000 3.515
97.40000 3.715
97.42000 1.431
97.44000 1.579
97.46000 2.865
97.48000 -0.459
97.50000 0.944
97.52000 4.602
97.54000 3.756
97.56000 -1.321
97.58000 -0.872
97.60000 0.690
97.62000 1.951
97.64000 1.713
97.66000 0.900
97.68000 3.771
97.70000 5.804
97.72000 4.296
97.74000 6.341
97.76000 2.910
97.78000 0.323
97.80000 0.803
97.82000 5.100
97.84000 3.461
97.86000 4.721
97.88000 6.051
97.90000 10.026
97.92000 5.002
97.94000 0.260
97.96000 1.186
97.98000 3.928
98.00000 7.902
98.02000 5.871
98.04000 6.666
98.06000 4.414
98.08000 1.057
98.10000 5.295
98.12000 3.703
98.14000 2.591
98.16000 5.328
98.18000 0.198
98.20000 5.338
98.22000 6.183
98.24000 2.271
98.26000 2.198
98.28000 -0.092
98.30000 2.392
98.32000 1.251
98.34000 0.745
98.36000 -0.311
98.38000 3.645
98.40000 1.918
98.42000 1.783
98.44000 3.712
98.46000 1.924
98.48000 -1.824
98.50000 2.539
98.52000 4.201
98.54000 7.810
98.56000 1.406
98.58000 1.040
98.60000 -0.673
98.62000 4.250
98.64000 3.063
98.66000 4.434
98.68000 0.517
98.70000 1.898
98.72000 4.109
98.74000 3.999
98.76000 3.346
98.78000 3.478
98.80000 2.606
98.82000 -0.981
98.84000 6.650
98.86000 2.960
98.88000 1.193
98.90000 2.478
98.92000 7.314
98.94000 5.802
98.96000 5.959
98.98000 0.802
99.00000 -0.552
99.02000 4.126
99.04000 3.752
99.06000 1.307
99.08000 1.401
99.10000 4.397
99.12000 4.429
99.14000 4.399
99.16000 5.541
99.18000 -0.558
99.20000 -1.511
99.22000 4.467
99.24000 6.171
99.26000 5.489
99.28000 2.414
99.30000 1.881
99.32000 1.990
99.34000 -0.366
99.36000 -1.818
99.38000 5.352
99.40000 7.898
99.42000 9.030
99.44000 6.331
99.46000 4.716
99.48000 0.579
99.50000 -0.465
99.52000 0.691
99.54000 3.093
99.56000 7.126
99.58000 12.440
99.60000 12.414
99.62000 9.035
99.64000 2.405
99.66000 -1.811
99.68000 0.101
99.70000 5.264
99.72000 4.120
99.74000 1.886
99.76000 6.020
99.78000 1.720
99.80000 -0.963
99.82000 0.097
99.84000 -1.887
99.86000 3.137
99.88000 6.116
99.90000 2.724
99.92000 0.740
99.94000 -1.964
99.96000 2.184
99.98000 0.000
