'Id: "0011388" Comment: "Integrate frame 0011388_Au-Ir-Rh_Rh-rich_XRD-Mapping-128-0000.gfrmwith cursor Wedge Cursor #5" Operator: "B?rgel" Anode: "Cu" Wavelength: "1.5406" Scantype: "2Theta (TwoTheta)" TimePerStep: "1" X: "13.5" Y: "-9" Z: "5.95" 
10.00000 0.000
10.02000 8.015
10.04000 5.567
10.06000 15.694
10.08000 13.958
10.10000 16.347
10.12000 7.134
10.14000 13.233
10.16000 11.823
10.18000 15.743
10.20000 -0.107
10.22000 -1.428
10.24000 1.605
10.26000 -0.732
10.28000 -2.222
10.30000 5.442
10.32000 -3.941
10.34000 1.197
10.36000 15.081
10.38000 -2.784
10.40000 4.653
10.42000 17.638
10.44000 10.160
10.46000 15.109
10.48000 13.369
10.50000 14.527
10.52000 12.070
10.54000 -1.109
10.56000 8.486
10.58000 13.170
10.60000 7.551
10.62000 8.540
10.64000 7.654
10.66000 11.543
10.68000 5.423
10.70000 2.232
10.72000 9.912
10.74000 9.178
10.76000 6.160
10.78000 -1.012
10.80000 -2.241
10.82000 6.769
10.84000 7.432
10.86000 -0.477
10.88000 -1.866
10.90000 5.777
10.92000 6.026
10.94000 13.445
10.96000 16.488
10.98000 6.473
11.00000 4.042
11.02000 15.669
11.04000 20.607
11.06000 8.263
11.08000 7.829
11.10000 20.650
11.12000 17.766
11.14000 -4.082
11.16000 1.872
11.18000 11.176
11.20000 12.602
11.22000 20.365
11.24000 32.234
11.26000 31.760
11.28000 17.785
11.30000 16.658
11.32000 6.878
11.34000 2.570
11.36000 18.279
11.38000 20.076
11.40000 20.247
11.42000 23.577
11.44000 22.452
11.46000 25.950
11.48000 3.060
11.50000 6.805
11.52000 8.074
11.54000 10.285
11.56000 23.103
11.58000 21.593
11.60000 10.023
11.62000 5.591
11.64000 12.403
11.66000 9.291
11.68000 17.032
11.70000 21.356
11.72000 7.698
11.74000 16.465
11.76000 26.519
11.78000 16.449
11.80000 5.653
11.82000 4.403
11.84000 10.232
11.86000 15.935
11.88000 21.689
11.90000 23.237
11.92000 16.257
11.94000 9.424
11.96000 9.455
11.98000 16.781
12.00000 20.114
12.02000 7.966
12.04000 7.523
12.06000 10.416
12.08000 18.255
12.10000 15.488
12.12000 17.099
12.14000 11.886
12.16000 6.487
12.18000 13.012
12.20000 18.522
12.22000 23.316
12.24000 16.963
12.26000 6.860
12.28000 13.122
12.30000 24.066
12.32000 17.151
12.34000 25.448
12.36000 28.832
12.38000 21.049
12.40000 26.000
12.42000 26.099
12.44000 9.761
12.46000 12.586
12.48000 8.014
12.50000 10.428
12.52000 10.781
12.54000 22.704
12.56000 20.902
12.58000 12.184
12.60000 9.842
12.62000 10.476
12.64000 12.831
12.66000 17.456
12.68000 19.031
12.70000 23.874
12.72000 17.816
12.74000 18.543
12.76000 16.687
12.78000 11.424
12.80000 17.697
12.82000 22.397
12.84000 28.769
12.86000 25.671
12.88000 21.058
12.90000 17.112
12.92000 18.204
12.94000 18.209
12.96000 9.783
12.98000 19.175
13.00000 16.849
13.02000 12.461
13.04000 17.350
13.06000 27.016
13.08000 25.944
13.10000 18.767
13.12000 17.029
13.14000 24.978
13.16000 22.194
13.18000 14.963
13.20000 13.892
13.22000 22.692
13.24000 19.365
13.26000 21.871
13.28000 23.832
13.30000 20.232
13.32000 18.787
13.34000 23.047
13.36000 17.907
13.38000 18.047
13.40000 25.774
13.42000 17.189
13.44000 11.667
13.46000 2.578
13.48000 10.014
13.50000 9.298
13.52000 16.739
13.54000 18.451
13.56000 11.226
13.58000 13.769
13.60000 14.341
13.62000 13.229
13.64000 5.912
13.66000 20.904
13.68000 18.917
13.70000 15.975
13.72000 20.726
13.74000 20.697
13.76000 18.124
13.78000 23.478
13.80000 13.147
13.82000 14.463
13.84000 19.108
13.86000 22.864
13.88000 22.746
13.90000 17.359
13.92000 19.031
13.94000 21.593
13.96000 24.799
13.98000 28.023
14.00000 25.670
14.02000 19.725
14.04000 27.444
14.06000 28.637
14.08000 19.896
14.10000 12.397
14.12000 6.525
14.14000 13.220
14.16000 9.904
14.18000 6.172
14.20000 9.762
14.22000 17.693
14.24000 21.864
14.26000 18.232
14.28000 15.506
14.30000 13.039
14.32000 12.735
14.34000 10.178
14.36000 5.751
14.38000 -0.909
14.40000 -4.387
14.42000 9.213
14.44000 15.328
14.46000 18.624
14.48000 23.620
14.50000 23.727
14.52000 19.967
14.54000 15.917
14.56000 23.935
14.58000 15.281
14.60000 13.464
14.62000 18.110
14.64000 18.161
14.66000 14.527
14.68000 18.910
14.70000 10.391
14.72000 16.782
14.74000 11.007
14.76000 16.120
14.78000 21.223
14.80000 17.181
14.82000 15.117
14.84000 7.663
14.86000 11.490
14.88000 9.400
14.90000 11.270
14.92000 9.389
14.94000 0.223
14.96000 1.405
14.98000 2.120
15.00000 6.766
15.02000 18.693
15.04000 15.436
15.06000 14.830
15.08000 5.851
15.10000 5.151
15.12000 9.851
15.14000 24.577
15.16000 20.645
15.18000 22.248
15.20000 22.141
15.22000 9.956
15.24000 3.680
15.26000 2.979
15.28000 8.471
15.30000 9.920
15.32000 4.769
15.34000 5.368
15.36000 4.293
15.38000 9.849
15.40000 7.165
15.42000 6.187
15.44000 12.119
15.46000 4.585
15.48000 8.322
15.50000 13.722
15.52000 10.212
15.54000 9.630
15.56000 6.547
15.58000 9.360
15.60000 8.889
15.62000 11.784
15.64000 10.601
15.66000 6.483
15.68000 1.340
15.70000 5.081
15.72000 11.297
15.74000 14.045
15.76000 11.378
15.78000 6.119
15.80000 10.455
15.82000 9.982
15.84000 3.933
15.86000 7.902
15.88000 7.322
15.90000 8.425
15.92000 15.590
15.94000 13.180
15.96000 8.150
15.98000 10.305
16.00000 14.308
16.02000 11.854
16.04000 15.754
16.06000 11.388
16.08000 0.387
16.10000 3.759
16.12000 7.128
16.14000 9.058
16.16000 11.002
16.18000 12.240
16.20000 5.025
16.22000 5.618
16.24000 12.698
16.26000 12.520
16.28000 12.952
16.30000 8.717
16.32000 12.200
16.34000 16.977
16.36000 13.135
16.38000 1.912
16.40000 3.701
16.42000 6.252
16.44000 0.406
16.46000 0.840
16.48000 10.179
16.50000 8.463
16.52000 8.836
16.54000 11.986
16.56000 9.582
16.58000 5.088
16.60000 12.808
16.62000 17.686
16.64000 19.451
16.66000 15.672
16.68000 11.357
16.70000 19.683
16.72000 16.889
16.74000 14.943
16.76000 5.262
16.78000 -4.355
16.80000 8.014
16.82000 8.892
16.84000 3.916
16.86000 0.093
16.88000 4.399
16.90000 13.543
16.92000 8.308
16.94000 4.297
16.96000 5.270
16.98000 1.909
17.00000 5.721
17.02000 8.971
17.04000 6.358
17.06000 2.604
17.08000 2.140
17.10000 7.335
17.12000 11.195
17.14000 10.876
17.16000 9.973
17.18000 5.999
17.20000 2.162
17.22000 1.655
17.24000 4.792
17.26000 5.895
17.28000 8.201
17.30000 9.400
17.32000 14.082
17.34000 9.781
17.36000 3.967
17.38000 7.072
17.40000 7.050
17.42000 7.113
17.44000 7.845
17.46000 6.697
17.48000 10.610
17.50000 10.333
17.52000 3.352
17.54000 5.666
17.56000 11.843
17.58000 14.738
17.60000 10.808
17.62000 5.811
17.64000 5.840
17.66000 7.141
17.68000 4.237
17.70000 7.320
17.72000 2.889
17.74000 4.727
17.76000 5.663
17.78000 -1.633
17.80000 5.659
17.82000 9.649
17.84000 -1.143
17.86000 0.299
17.88000 5.613
17.90000 2.574
17.92000 4.686
17.94000 5.521
17.96000 15.279
17.98000 7.770
18.00000 -0.736
18.02000 5.600
18.04000 2.815
18.06000 3.466
18.08000 7.973
18.10000 6.078
18.12000 9.509
18.14000 4.872
18.16000 7.946
18.18000 11.591
18.20000 8.998
18.22000 4.387
18.24000 7.347
18.26000 6.786
18.28000 2.265
18.30000 1.488
18.32000 7.794
18.34000 3.866
18.36000 -2.112
18.38000 -0.194
18.40000 7.080
18.42000 8.168
18.44000 11.763
18.46000 11.458
18.48000 10.300
18.50000 15.499
18.52000 16.612
18.54000 14.022
18.56000 6.324
18.58000 4.915
18.60000 2.984
18.62000 3.783
18.64000 8.128
18.66000 3.952
18.68000 3.913
18.70000 10.470
18.72000 7.963
18.74000 6.863
18.76000 5.848
18.78000 7.581
18.80000 8.738
18.82000 12.754
18.84000 8.630
18.86000 10.143
18.88000 7.802
18.90000 7.788
18.92000 8.063
18.94000 8.169
18.96000 8.002
18.98000 7.984
19.00000 10.728
19.02000 8.272
19.04000 9.723
19.06000 12.280
19.08000 14.591
19.10000 10.118
19.12000 9.028
19.14000 6.000
19.16000 9.117
19.18000 7.478
19.20000 15.152
19.22000 11.673
19.24000 8.435
19.26000 1.302
19.28000 -4.224
19.30000 3.246
19.32000 16.328
19.34000 11.090
19.36000 4.507
19.38000 10.418
19.40000 13.142
19.42000 13.572
19.44000 10.630
19.46000 6.443
19.48000 1.955
19.50000 3.226
19.52000 12.374
19.54000 10.646
19.56000 9.328
19.58000 6.681
19.60000 4.670
19.62000 -1.112
19.64000 4.133
19.66000 14.098
19.68000 12.815
19.70000 12.169
19.72000 16.321
19.74000 13.054
19.76000 4.700
19.78000 6.859
19.80000 10.141
19.82000 6.235
19.84000 4.435
19.86000 2.504
19.88000 6.820
19.90000 9.132
19.92000 7.101
19.94000 1.654
19.96000 -4.178
19.98000 4.153
20.00000 3.185
20.02000 -0.892
20.04000 -1.048
20.06000 2.394
20.08000 4.104
20.10000 4.584
20.12000 8.930
20.14000 6.455
20.16000 5.231
20.18000 11.049
20.20000 8.544
20.22000 10.706
20.24000 6.280
20.26000 11.157
20.28000 10.176
20.30000 11.858
20.32000 10.583
20.34000 9.549
20.36000 0.736
20.38000 5.100
20.40000 3.605
20.42000 6.699
20.44000 6.214
20.46000 4.290
20.48000 5.619
20.50000 1.568
20.52000 -3.634
20.54000 -4.161
20.56000 -1.618
20.58000 -0.869
20.60000 1.053
20.62000 5.868
20.64000 12.116
20.66000 8.689
20.68000 8.439
20.70000 9.188
20.72000 7.396
20.74000 1.440
20.76000 3.477
20.78000 15.169
20.80000 13.837
20.82000 5.866
20.84000 9.889
20.86000 8.638
20.88000 7.489
20.90000 6.847
20.92000 9.383
20.94000 8.332
20.96000 10.496
20.98000 10.714
21.00000 3.416
21.02000 1.421
21.04000 0.773
21.06000 2.339
21.08000 3.173
21.10000 2.209
21.12000 4.862
21.14000 2.767
21.16000 -2.745
21.18000 -1.656
21.20000 1.528
21.22000 4.706
21.24000 3.612
21.26000 1.172
21.28000 4.447
21.30000 2.828
21.32000 1.524
21.34000 -0.266
21.36000 5.381
21.38000 7.104
21.40000 2.698
21.42000 3.213
21.44000 -3.863
21.46000 2.260
21.48000 7.225
21.50000 6.151
21.52000 10.735
21.54000 7.149
21.56000 3.708
21.58000 -0.128
21.60000 5.069
21.62000 2.546
21.64000 -3.846
21.66000 2.004
21.68000 6.830
21.70000 9.527
21.72000 7.903
21.74000 11.262
21.76000 10.374
21.78000 0.863
21.80000 0.744
21.82000 -1.060
21.84000 5.573
21.86000 6.153
21.88000 4.463
21.90000 5.765
21.92000 9.035
21.94000 4.062
21.96000 4.357
21.98000 3.897
22.00000 3.186
22.02000 0.913
22.04000 5.886
22.06000 0.138
22.08000 -1.264
22.10000 2.922
22.12000 4.377
22.14000 1.708
22.16000 2.829
22.18000 -1.873
22.20000 -0.012
22.22000 3.801
22.24000 1.433
22.26000 0.465
22.28000 2.124
22.30000 -1.519
22.32000 0.281
22.34000 -0.287
22.36000 5.141
22.38000 4.849
22.40000 -0.531
22.42000 1.241
22.44000 5.863
22.46000 5.322
22.48000 -0.611
22.50000 0.845
22.52000 0.991
22.54000 6.635
22.56000 4.512
22.58000 4.938
22.60000 2.965
22.62000 1.746
22.64000 8.234
22.66000 6.421
22.68000 2.885
22.70000 0.891
22.72000 0.360
22.74000 -3.831
22.76000 -1.748
22.78000 2.185
22.80000 2.451
22.82000 1.422
22.84000 0.017
22.86000 2.545
22.88000 9.251
22.90000 9.724
22.92000 7.519
22.94000 3.196
22.96000 2.042
22.98000 -4.071
23.00000 7.019
23.02000 6.437
23.04000 1.689
23.06000 1.689
23.08000 7.254
23.10000 3.849
23.12000 0.895
23.14000 1.081
23.16000 -1.691
23.18000 0.277
23.20000 0.444
23.22000 3.699
23.24000 6.961
23.26000 3.113
23.28000 -0.414
23.30000 4.797
23.32000 6.445
23.34000 5.124
23.36000 2.396
23.38000 4.694
23.40000 1.894
23.42000 0.785
23.44000 4.351
23.46000 4.912
23.48000 7.271
23.50000 4.112
23.52000 5.382
23.54000 5.251
23.56000 5.878
23.58000 2.671
23.60000 2.127
23.62000 6.091
23.64000 4.979
23.66000 0.694
23.68000 3.250
23.70000 6.267
23.72000 4.951
23.74000 4.887
23.76000 0.350
23.78000 4.865
23.80000 6.809
23.82000 4.654
23.84000 5.466
23.86000 -1.839
23.88000 -1.231
23.90000 4.943
23.92000 0.148
23.94000 -3.570
23.96000 -2.445
23.98000 2.379
24.00000 3.189
24.02000 2.493
24.04000 2.063
24.06000 2.057
24.08000 4.709
24.10000 6.801
24.12000 4.846
24.14000 2.687
24.16000 -1.677
24.18000 -1.072
24.20000 -1.064
24.22000 2.475
24.24000 0.596
24.26000 2.083
24.28000 2.891
24.30000 6.180
24.32000 4.496
24.34000 8.428
24.36000 10.389
24.38000 5.525
24.40000 -3.305
24.42000 -1.459
24.44000 0.900
24.46000 1.916
24.48000 6.312
24.50000 7.727
24.52000 8.955
24.54000 6.599
24.56000 6.118
24.58000 3.445
24.60000 7.443
24.62000 11.862
24.64000 11.095
24.66000 5.642
24.68000 8.302
24.70000 3.749
24.72000 0.516
24.74000 -0.560
24.76000 4.752
24.78000 2.155
24.80000 3.233
24.82000 10.320
24.84000 9.286
24.86000 11.691
24.88000 10.630
24.90000 3.868
24.92000 5.488
24.94000 7.647
24.96000 1.390
24.98000 1.650
25.00000 2.731
25.02000 2.410
25.04000 4.012
25.06000 0.006
25.08000 0.064
25.10000 3.379
25.12000 7.621
25.14000 9.821
25.16000 10.804
25.18000 5.633
25.20000 2.000
25.22000 2.619
25.24000 2.482
25.26000 -3.915
25.28000 1.470
25.30000 3.904
25.32000 5.454
25.34000 6.591
25.36000 8.402
25.38000 10.210
25.40000 1.641
25.42000 0.311
25.44000 5.352
25.46000 3.154
25.48000 -3.900
25.50000 -1.650
25.52000 -0.662
25.54000 -1.216
25.56000 -0.312
25.58000 4.079
25.60000 3.295
25.62000 4.772
25.64000 5.845
25.66000 2.267
25.68000 2.250
25.70000 3.516
25.72000 2.143
25.74000 5.807
25.76000 6.769
25.78000 2.693
25.80000 0.326
25.82000 0.836
25.84000 1.905
25.86000 2.547
25.88000 4.069
25.90000 2.924
25.92000 -2.007
25.94000 -1.373
25.96000 -3.653
25.98000 -3.214
26.00000 3.802
26.02000 7.466
26.04000 4.836
26.06000 -3.043
26.08000 -2.142
26.10000 7.122
26.12000 6.633
26.14000 5.902
26.16000 5.516
26.18000 5.716
26.20000 6.072
26.22000 2.791
26.24000 1.813
26.26000 3.243
26.28000 6.481
26.30000 3.305
26.32000 -0.879
26.34000 7.273
26.36000 3.340
26.38000 -0.768
26.40000 1.206
26.42000 3.023
26.44000 5.406
26.46000 6.588
26.48000 2.106
26.50000 0.373
26.52000 1.127
26.54000 -0.057
26.56000 -0.245
26.58000 0.320
26.60000 4.711
26.62000 5.111
26.64000 4.753
26.66000 2.127
26.68000 1.936
26.70000 0.544
26.72000 6.453
26.74000 0.856
26.76000 -0.457
26.78000 -2.909
26.80000 2.298
26.82000 3.167
26.84000 1.415
26.86000 4.065
26.88000 0.071
26.90000 -0.219
26.92000 -0.448
26.94000 0.628
26.96000 1.865
26.98000 1.869
27.00000 -3.864
27.02000 -0.779
27.04000 4.262
27.06000 3.276
27.08000 7.528
27.10000 5.198
27.12000 6.744
27.14000 2.808
27.16000 -3.824
27.18000 -2.903
27.20000 2.484
27.22000 -2.732
27.24000 -1.023
27.26000 0.622
27.28000 1.848
27.30000 5.381
27.32000 5.021
27.34000 3.354
27.36000 -0.886
27.38000 -3.697
27.40000 -3.286
27.42000 4.254
27.44000 5.457
27.46000 3.208
27.48000 -0.116
27.50000 -0.741
27.52000 0.767
27.54000 2.326
27.56000 2.419
27.58000 4.353
27.60000 0.062
27.62000 1.525
27.64000 -1.552
27.66000 1.420
27.68000 7.711
27.70000 6.000
27.72000 0.487
27.74000 1.606
27.76000 1.372
27.78000 3.321
27.80000 4.609
27.82000 6.122
27.84000 5.213
27.86000 4.247
27.88000 3.107
27.90000 3.292
27.92000 5.677
27.94000 -0.362
27.96000 -2.106
27.98000 -0.964
28.00000 0.697
28.02000 5.900
28.04000 10.522
28.06000 6.676
28.08000 3.281
28.10000 -1.034
28.12000 3.487
28.14000 5.117
28.16000 -0.582
28.18000 1.147
28.20000 5.149
28.22000 1.153
28.24000 0.742
28.26000 0.271
28.28000 8.318
28.30000 0.266
28.32000 -3.764
28.34000 -3.762
28.36000 -1.882
28.38000 4.362
28.40000 2.090
28.42000 5.002
28.44000 11.000
28.46000 9.797
28.48000 8.753
28.50000 2.740
28.52000 1.327
28.54000 2.348
28.56000 -2.760
28.58000 -3.243
28.60000 2.880
28.62000 -2.889
28.64000 -3.750
28.66000 -0.848
28.68000 -0.074
28.70000 1.259
28.72000 2.088
28.74000 4.353
28.76000 7.531
28.78000 -1.304
28.80000 -0.294
28.82000 5.967
28.84000 5.640
28.86000 3.076
28.88000 -2.370
28.90000 -1.878
28.92000 -0.748
28.94000 0.879
28.96000 0.094
28.98000 3.694
29.00000 5.668
29.02000 3.872
29.04000 0.045
29.06000 0.796
29.08000 -2.724
29.10000 -3.263
29.12000 0.420
29.14000 -2.143
29.16000 -2.203
29.18000 -1.772
29.20000 0.068
29.22000 0.578
29.24000 -0.540
29.26000 -3.579
29.28000 1.034
29.30000 1.156
29.32000 0.007
29.34000 -2.748
29.36000 -1.681
29.38000 -0.887
29.40000 0.299
29.42000 4.653
29.44000 4.994
29.46000 4.024
29.48000 1.056
29.50000 0.096
29.52000 4.608
29.54000 2.436
29.56000 3.735
29.58000 7.545
29.60000 8.206
29.62000 5.479
29.64000 2.922
29.66000 2.073
29.68000 -3.706
29.70000 -2.723
29.72000 1.063
29.74000 3.913
29.76000 3.034
29.78000 -1.694
29.80000 0.002
29.82000 5.556
29.84000 4.009
29.86000 2.398
29.88000 4.987
29.90000 6.251
29.92000 3.472
29.94000 3.863
29.96000 6.279
29.98000 1.646
30.00000 4.415
30.02000 1.631
30.04000 1.042
30.06000 0.342
30.08000 3.467
30.10000 6.263
30.12000 3.365
30.14000 1.049
30.16000 2.677
30.18000 3.143
30.20000 1.660
30.22000 3.850
30.24000 9.338
30.26000 8.257
30.28000 5.284
30.30000 -2.678
30.32000 -3.657
30.34000 3.960
30.36000 7.194
30.38000 3.645
30.40000 6.546
30.42000 3.845
30.44000 1.029
30.46000 1.655
30.48000 0.944
30.50000 4.317
30.52000 4.889
30.54000 4.415
30.56000 1.087
30.58000 4.459
30.60000 6.690
30.62000 7.325
30.64000 5.825
30.66000 6.252
30.68000 0.517
30.70000 -0.132
30.72000 0.380
30.74000 0.449
30.76000 3.431
30.78000 4.372
30.80000 0.225
30.82000 3.844
30.84000 7.127
30.86000 7.625
30.88000 6.679
30.90000 5.423
30.92000 1.376
30.94000 -0.934
30.96000 0.902
30.98000 8.152
31.00000 6.607
31.02000 4.389
31.04000 6.104
31.06000 8.352
31.08000 9.073
31.10000 4.034
31.12000 0.965
31.14000 1.542
31.16000 3.284
31.18000 8.588
31.20000 3.709
31.22000 3.395
31.24000 -1.024
31.26000 -0.510
31.28000 3.783
31.30000 4.282
31.32000 1.328
31.34000 4.010
31.36000 -1.118
31.38000 -3.619
31.40000 -2.559
31.42000 -0.459
31.44000 3.729
31.46000 6.167
31.48000 7.645
31.50000 7.235
31.52000 2.310
31.54000 -3.609
31.56000 -1.251
31.58000 3.812
31.60000 2.035
31.62000 7.394
31.64000 7.077
31.66000 8.694
31.68000 10.036
31.70000 7.566
31.72000 -3.599
31.74000 -0.980
31.76000 6.070
31.78000 8.026
31.80000 2.865
31.82000 5.694
31.84000 4.910
31.86000 -0.954
31.88000 -3.308
31.90000 0.121
31.92000 2.437
31.94000 2.798
31.96000 -0.314
31.98000 -0.773
32.00000 3.511
32.02000 7.912
32.04000 9.367
32.06000 1.489
32.08000 1.277
32.10000 2.362
32.12000 3.933
32.14000 9.060
32.16000 6.427
32.18000 6.297
32.20000 11.571
32.22000 8.497
32.24000 7.173
32.26000 -0.017
32.28000 -0.882
32.30000 -0.436
32.32000 0.527
32.34000 -0.886
32.36000 -2.746
32.38000 -3.574
32.40000 0.337
32.42000 0.194
32.44000 2.617
32.46000 2.351
32.48000 7.627
32.50000 9.306
32.52000 8.388
32.54000 3.564
32.56000 2.267
32.58000 3.042
32.60000 2.045
32.62000 -3.575
32.64000 -0.353
32.66000 -0.544
32.68000 1.285
32.70000 2.014
32.72000 0.045
32.74000 4.258
32.76000 0.434
32.78000 -1.487
32.80000 0.542
32.82000 3.617
32.84000 6.205
32.86000 0.394
32.88000 -0.222
32.90000 2.726
32.92000 4.519
32.94000 0.111
32.96000 -1.811
32.98000 -3.083
33.00000 0.023
33.02000 -0.310
33.04000 0.298
33.06000 3.741
33.08000 -1.510
33.10000 -1.213
33.12000 -0.151
33.14000 3.271
33.16000 4.895
33.18000 3.090
33.20000 3.958
33.22000 4.497
33.24000 3.344
33.26000 2.975
33.28000 0.687
33.30000 0.611
33.32000 -0.950
33.34000 4.959
33.36000 5.900
33.38000 -1.816
33.40000 -1.240
33.42000 0.150
33.44000 1.882
33.46000 2.332
33.48000 3.782
33.50000 2.470
33.52000 0.604
33.54000 -1.099
33.56000 5.659
33.58000 8.925
33.60000 -1.242
33.62000 -3.565
33.64000 1.297
33.66000 3.765
33.68000 0.040
33.70000 0.768
33.72000 5.325
33.74000 2.757
33.76000 -1.383
33.78000 6.489
33.80000 9.230
33.82000 6.927
33.84000 0.167
33.86000 0.634
33.88000 2.271
33.90000 4.900
33.92000 7.864
33.94000 4.764
33.96000 4.952
33.98000 7.092
34.00000 5.459
34.02000 3.680
34.04000 4.306
34.06000 9.183
34.08000 8.231
34.10000 2.565
34.12000 2.762
34.14000 2.286
34.16000 3.420
34.18000 6.700
34.20000 3.856
34.22000 6.194
34.24000 4.031
34.26000 1.928
34.28000 4.934
34.30000 0.641
34.32000 1.473
34.34000 3.941
34.36000 2.171
34.38000 8.098
34.40000 5.951
34.42000 6.441
34.44000 -0.743
34.46000 0.828
34.48000 4.367
34.50000 3.074
34.52000 5.193
34.54000 5.008
34.56000 6.368
34.58000 6.738
34.60000 1.208
34.62000 0.670
34.64000 4.861
34.66000 1.748
34.68000 -3.157
34.70000 -3.505
34.72000 0.956
34.74000 2.994
34.76000 4.963
34.78000 2.534
34.80000 3.263
34.82000 5.135
34.84000 4.487
34.86000 5.823
34.88000 1.220
34.90000 -3.045
34.92000 1.139
34.94000 4.026
34.96000 2.367
34.98000 2.049
35.00000 2.953
35.02000 3.202
35.04000 5.282
35.06000 2.690
35.08000 7.194
35.10000 5.895
35.12000 5.830
35.14000 5.779
35.16000 5.299
35.18000 -3.468
35.20000 -0.267
35.22000 0.069
35.24000 -3.501
35.26000 -0.202
35.28000 3.713
35.30000 3.095
35.32000 -1.922
35.34000 -0.245
35.36000 2.738
35.38000 4.939
35.40000 2.173
35.42000 1.399
35.44000 0.975
35.46000 0.763
35.48000 -1.577
35.50000 -0.081
35.52000 1.445
35.54000 2.847
35.56000 6.197
35.58000 7.350
35.60000 5.880
35.62000 2.359
35.64000 3.690
35.66000 3.968
35.68000 5.211
35.70000 2.674
35.72000 3.045
35.74000 2.854
35.76000 6.914
35.78000 1.316
35.80000 -3.489
35.82000 -0.755
35.84000 1.522
35.86000 2.137
35.88000 4.431
35.90000 8.030
35.92000 7.177
35.94000 5.032
35.96000 1.263
35.98000 1.522
36.00000 2.413
36.02000 1.729
36.04000 6.015
36.06000 5.815
36.08000 2.604
36.10000 4.073
36.12000 1.236
36.14000 -1.434
36.16000 1.362
36.18000 0.006
36.20000 1.223
36.22000 1.226
36.24000 3.190
36.26000 -1.126
36.28000 -0.801
36.30000 0.047
36.32000 0.541
36.34000 4.269
36.36000 2.627
36.38000 -3.336
36.40000 -2.126
36.42000 -0.562
36.44000 -0.404
36.46000 1.197
36.48000 2.292
36.50000 2.082
36.52000 5.065
36.54000 3.038
36.56000 1.259
36.58000 0.747
36.60000 3.529
36.62000 1.011
36.64000 4.170
36.66000 6.579
36.68000 2.033
36.70000 1.388
36.72000 -2.299
36.74000 -2.835
36.76000 0.876
36.78000 -3.524
36.80000 0.559
36.82000 4.767
36.84000 3.462
36.86000 3.826
36.88000 4.908
36.90000 6.401
36.92000 4.881
36.94000 5.406
36.96000 4.667
36.98000 4.042
37.00000 1.246
37.02000 -2.529
37.04000 1.537
37.06000 -0.544
37.08000 1.807
37.10000 2.176
37.12000 4.912
37.14000 5.569
37.16000 4.175
37.18000 6.176
37.20000 4.559
37.22000 3.313
37.24000 6.271
37.26000 2.631
37.28000 2.822
37.30000 2.371
37.32000 3.231
37.34000 1.043
37.36000 0.466
37.38000 -1.786
37.40000 -0.360
37.42000 2.399
37.44000 1.653
37.46000 4.568
37.48000 1.339
37.50000 -3.560
37.52000 3.218
37.54000 5.927
37.56000 4.200
37.58000 5.381
37.60000 5.838
37.62000 6.462
37.64000 4.763
37.66000 3.691
37.68000 0.228
37.70000 -2.186
37.72000 2.144
37.74000 1.543
37.76000 2.592
37.78000 0.948
37.80000 -1.401
37.82000 0.223
37.84000 -0.743
37.86000 1.668
37.88000 3.109
37.90000 5.558
37.92000 6.092
37.94000 6.478
37.96000 4.845
37.98000 5.435
38.00000 7.881
38.02000 5.851
38.04000 5.756
38.06000 4.757
38.08000 2.909
38.10000 4.635
38.12000 7.284
38.14000 8.867
38.16000 8.407
38.18000 6.799
38.20000 8.617
38.22000 11.052
38.24000 8.138
38.26000 9.637
38.28000 5.528
38.30000 6.985
38.32000 13.190
38.34000 11.038
38.36000 13.986
38.38000 12.771
38.40000 8.211
38.42000 13.304
38.44000 13.304
38.46000 11.020
38.48000 14.056
38.50000 14.030
38.52000 12.726
38.54000 12.129
38.56000 12.337
38.58000 13.178
38.60000 13.892
38.62000 18.750
38.64000 19.770
38.66000 18.617
38.68000 17.690
38.70000 20.832
38.72000 21.282
38.74000 19.257
38.76000 16.743
38.78000 14.749
38.80000 14.505
38.82000 14.740
38.84000 19.549
38.86000 25.404
38.88000 24.624
38.90000 27.651
38.92000 28.450
38.94000 27.782
38.96000 24.041
38.98000 26.046
39.00000 31.635
39.02000 27.394
39.04000 30.989
39.06000 36.777
39.08000 35.297
39.10000 28.806
39.12000 29.897
39.14000 28.747
39.16000 30.736
39.18000 34.847
39.20000 34.829
39.22000 39.062
39.24000 40.075
39.26000 42.739
39.28000 45.702
39.30000 43.020
39.32000 41.656
39.34000 42.595
39.36000 50.753
39.38000 52.203
39.40000 48.895
39.42000 56.780
39.44000 60.623
39.46000 66.587
39.48000 66.767
39.50000 66.054
39.52000 73.660
39.54000 74.992
39.56000 73.730
39.58000 76.619
39.60000 81.695
39.62000 82.708
39.64000 92.181
39.66000 95.536
39.68000 96.857
39.70000 100.138
39.72000 109.398
39.74000 116.270
39.76000 119.558
39.78000 118.260
39.80000 127.856
39.82000 136.712
39.84000 143.994
39.86000 151.023
39.88000 158.633
39.90000 164.059
39.92000 172.185
39.94000 181.881
39.96000 191.341
39.98000 196.149
40.00000 204.324
40.02000 212.127
40.04000 222.562
40.06000 239.131
40.08000 248.326
40.10000 263.800
40.12000 277.628
40.14000 288.962
40.16000 298.529
40.18000 305.513
40.20000 321.673
40.22000 338.902
40.24000 353.357
40.26000 368.257
40.28000 384.048
40.30000 393.519
40.32000 398.049
40.34000 416.762
40.36000 439.151
40.38000 452.488
40.40000 455.050
40.42000 465.176
40.44000 474.413
40.46000 494.088
40.48000 503.540
40.50000 512.007
40.52000 514.666
40.54000 518.921
40.56000 516.724
40.58000 527.926
40.60000 530.427
40.62000 536.660
40.64000 537.286
40.66000 534.014
40.68000 524.204
40.70000 530.449
40.72000 527.187
40.74000 518.911
40.76000 509.063
40.78000 499.255
40.80000 494.183
40.82000 476.404
40.84000 466.194
40.86000 457.135
40.88000 443.095
40.90000 427.383
40.92000 419.470
40.94000 408.042
40.96000 398.487
40.98000 375.847
41.00000 366.185
41.02000 357.365
41.04000 336.861
41.06000 309.916
41.08000 304.830
41.10000 291.232
41.12000 279.211
41.14000 266.978
41.16000 257.199
41.18000 246.831
41.20000 236.390
41.22000 224.899
41.24000 209.698
41.26000 199.842
41.28000 193.336
41.30000 190.830
41.32000 177.034
41.34000 161.204
41.36000 154.994
41.38000 144.641
41.40000 135.240
41.42000 129.378
41.44000 120.501
41.46000 120.541
41.48000 119.554
41.50000 107.674
41.52000 97.325
41.54000 94.561
41.56000 92.001
41.58000 89.223
41.60000 84.543
41.62000 76.746
41.64000 74.907
41.66000 74.543
41.68000 71.465
41.70000 67.328
41.72000 63.894
41.74000 49.969
41.76000 47.090
41.78000 55.192
41.80000 51.146
41.82000 47.384
41.84000 40.128
41.86000 40.594
41.88000 39.915
41.90000 38.640
41.92000 38.780
41.94000 38.128
41.96000 36.354
41.98000 32.939
42.00000 33.891
42.02000 31.140
42.04000 32.382
42.06000 26.863
42.08000 17.428
42.10000 19.663
42.12000 24.707
42.14000 28.903
42.16000 25.820
42.18000 21.231
42.20000 17.563
42.22000 18.533
42.24000 14.418
42.26000 16.256
42.28000 18.672
42.30000 16.198
42.32000 14.556
42.34000 12.952
42.36000 15.929
42.38000 16.620
42.40000 16.481
42.42000 14.169
42.44000 11.978
42.46000 6.914
42.48000 5.994
42.50000 10.169
42.52000 6.942
42.54000 7.835
42.56000 5.392
42.58000 4.386
42.60000 4.134
42.62000 3.719
42.64000 6.684
42.66000 7.495
42.68000 3.940
42.70000 -0.784
42.72000 -0.716
42.74000 3.056
42.76000 3.691
42.78000 2.676
42.80000 0.543
42.82000 -2.170
42.84000 1.101
42.86000 -2.297
42.88000 -1.395
42.90000 -2.095
42.92000 1.288
42.94000 3.735
42.96000 3.493
42.98000 0.034
43.00000 4.019
43.02000 5.397
43.04000 0.310
43.06000 6.359
43.08000 4.804
43.10000 2.816
43.12000 0.278
43.14000 -3.565
43.16000 -0.068
43.18000 1.018
43.20000 0.220
43.22000 -2.152
43.24000 -0.555
43.26000 3.440
43.28000 4.195
43.30000 2.253
43.32000 -1.117
43.34000 -1.206
43.36000 -0.973
43.38000 -2.121
43.40000 0.283
43.42000 0.895
43.44000 -1.737
43.46000 -1.904
43.48000 -0.576
43.50000 0.876
43.52000 0.036
43.54000 4.779
43.56000 3.230
43.58000 -1.033
43.60000 -3.319
43.62000 -3.507
43.64000 -1.624
43.66000 -1.632
43.68000 4.563
43.70000 2.648
43.72000 0.163
43.74000 -3.469
43.76000 0.299
43.78000 -0.298
43.80000 5.038
43.82000 0.577
43.84000 -1.182
43.86000 2.520
43.88000 4.327
43.90000 -0.608
43.92000 0.731
43.94000 3.207
43.96000 2.917
43.98000 0.348
44.00000 -0.957
44.02000 1.534
44.04000 3.663
44.06000 1.401
44.08000 -1.072
44.10000 0.797
44.12000 1.430
44.14000 1.255
44.16000 0.826
44.18000 0.424
44.20000 6.251
44.22000 7.831
44.24000 3.343
44.26000 1.384
44.28000 -1.220
44.30000 -0.395
44.32000 3.041
44.34000 1.288
44.36000 -3.457
44.38000 -2.335
44.40000 1.897
44.42000 5.604
44.44000 5.264
44.46000 1.177
44.48000 1.202
44.50000 3.438
44.52000 1.174
44.54000 2.762
44.56000 2.931
44.58000 3.624
44.60000 1.536
44.62000 -0.956
44.64000 2.217
44.66000 2.752
44.68000 -1.209
44.70000 1.147
44.72000 1.791
44.74000 -0.217
44.76000 -1.070
44.78000 1.336
44.80000 3.062
44.82000 4.744
44.84000 3.554
44.86000 3.817
44.88000 4.511
44.90000 6.992
44.92000 3.315
44.94000 -3.458
44.96000 -2.549
44.98000 6.160
45.00000 1.853
45.02000 5.366
45.04000 6.042
45.06000 4.166
45.08000 3.135
45.10000 2.855
45.12000 2.679
45.14000 -3.295
45.16000 -1.844
45.18000 -0.059
45.20000 3.803
45.22000 5.074
45.24000 2.592
45.26000 -0.727
45.28000 7.680
45.30000 5.144
45.32000 1.283
45.34000 4.143
45.36000 4.009
45.38000 2.234
45.40000 2.901
45.42000 2.545
45.44000 4.331
45.46000 4.773
45.48000 6.611
45.50000 6.101
45.52000 11.815
45.54000 8.381
45.56000 8.589
45.58000 11.007
45.60000 8.703
45.62000 5.414
45.64000 5.495
45.66000 5.904
45.68000 9.843
45.70000 11.812
45.72000 12.728
45.74000 19.101
45.76000 22.557
45.78000 15.000
45.80000 15.343
45.82000 10.319
45.84000 10.043
45.86000 15.326
45.88000 16.704
45.90000 9.473
45.92000 10.729
45.94000 14.108
45.96000 20.191
45.98000 19.436
46.00000 22.927
46.02000 22.694
46.04000 20.187
46.06000 14.828
46.08000 27.665
46.10000 25.549
46.12000 22.992
46.14000 22.434
46.16000 23.545
46.18000 17.447
46.20000 25.217
46.22000 24.339
46.24000 27.563
46.26000 31.025
46.28000 29.451
46.30000 29.202
46.32000 29.565
46.34000 34.424
46.36000 36.098
46.38000 38.085
46.40000 36.596
46.42000 35.965
46.44000 32.493
46.46000 36.071
46.48000 40.482
46.50000 46.938
46.52000 53.366
46.54000 51.959
46.56000 48.817
46.58000 41.743
46.60000 40.909
46.62000 45.472
46.64000 50.325
46.66000 46.296
46.68000 47.364
46.70000 48.765
46.72000 46.418
46.74000 51.576
46.76000 47.661
46.78000 58.876
46.80000 65.607
46.82000 57.388
46.84000 61.376
46.86000 63.899
46.88000 60.709
46.90000 62.639
46.92000 59.758
46.94000 67.320
46.96000 71.378
46.98000 70.125
47.00000 73.695
47.02000 70.238
47.04000 74.113
47.06000 73.786
47.08000 69.164
47.10000 66.049
47.12000 69.212
47.14000 73.727
47.16000 72.528
47.18000 67.662
47.20000 74.272
47.22000 81.070
47.24000 80.198
47.26000 70.730
47.28000 66.845
47.30000 65.373
47.32000 66.716
47.34000 64.043
47.36000 74.090
47.38000 75.301
47.40000 78.061
47.42000 63.845
47.44000 62.700
47.46000 66.323
47.48000 62.659
47.50000 67.494
47.52000 73.460
47.54000 69.005
47.56000 61.862
47.58000 57.379
47.60000 57.766
47.62000 59.551
47.64000 52.880
47.66000 56.062
47.68000 57.691
47.70000 44.920
47.72000 43.828
47.74000 43.163
47.76000 45.449
47.78000 39.924
47.80000 35.558
47.82000 36.899
47.84000 38.484
47.86000 37.905
47.88000 36.835
47.90000 41.628
47.92000 39.633
47.94000 36.013
47.96000 33.690
47.98000 33.936
48.00000 32.617
48.02000 30.739
48.04000 25.301
48.06000 27.488
48.08000 23.701
48.10000 29.310
48.12000 31.250
48.14000 27.210
48.16000 24.359
48.18000 22.243
48.20000 22.031
48.22000 23.267
48.24000 21.217
48.26000 15.059
48.28000 16.226
48.30000 21.241
48.32000 16.404
48.34000 13.681
48.36000 16.823
48.38000 11.736
48.40000 17.750
48.42000 17.456
48.44000 15.421
48.46000 9.881
48.48000 9.383
48.50000 8.413
48.52000 11.239
48.54000 10.033
48.56000 6.710
48.58000 7.263
48.60000 7.924
48.62000 9.219
48.64000 7.604
48.66000 0.573
48.68000 6.723
48.70000 4.564
48.72000 4.296
48.74000 1.919
48.76000 -3.196
48.78000 3.458
48.80000 7.141
48.82000 2.482
48.84000 0.416
48.86000 0.726
48.88000 -3.089
48.90000 4.123
48.92000 8.278
48.94000 7.075
48.96000 3.514
48.98000 4.850
49.00000 0.323
49.02000 3.846
49.04000 4.115
49.06000 2.254
49.08000 2.801
49.10000 7.049
49.12000 0.022
49.14000 -1.529
49.16000 -1.333
49.18000 -0.742
49.20000 -1.561
49.22000 2.776
49.24000 2.563
49.26000 3.936
49.28000 2.566
49.30000 1.193
49.32000 1.646
49.34000 -0.664
49.36000 0.645
49.38000 4.785
49.40000 1.589
49.42000 1.676
49.44000 3.542
49.46000 2.002
49.48000 6.000
49.50000 6.894
49.52000 4.549
49.54000 3.872
49.56000 2.114
49.58000 0.512
49.60000 2.263
49.62000 -0.731
49.64000 3.535
49.66000 5.735
49.68000 6.443
49.70000 -1.069
49.72000 0.530
49.74000 -1.051
49.76000 -0.311
49.78000 0.408
49.80000 0.001
49.82000 2.354
49.84000 4.044
49.86000 5.197
49.88000 3.723
49.90000 4.221
49.92000 4.072
49.94000 -1.591
49.96000 2.829
49.98000 -1.510
50.00000 -0.584
50.02000 -1.439
50.04000 0.068
50.06000 -3.016
50.08000 0.445
50.10000 2.508
50.12000 2.282
50.14000 3.646
50.16000 6.478
50.18000 1.133
50.20000 -2.144
50.22000 1.300
50.24000 7.407
50.26000 0.732
50.28000 0.419
50.30000 2.545
50.32000 1.161
50.34000 4.315
50.36000 4.762
50.38000 -0.629
50.40000 0.747
50.42000 1.773
50.44000 3.515
50.46000 1.909
50.48000 -2.969
50.50000 4.039
50.52000 3.247
50.54000 2.008
50.56000 0.239
50.58000 2.154
50.60000 -0.775
50.62000 3.644
50.64000 3.759
50.66000 3.018
50.68000 4.186
50.70000 6.179
50.72000 4.524
50.74000 4.393
50.76000 1.933
50.78000 5.399
50.80000 7.620
50.82000 5.460
50.84000 4.412
50.86000 4.896
50.88000 1.326
50.90000 0.759
50.92000 1.582
50.94000 4.987
50.96000 3.185
50.98000 2.946
51.00000 1.952
51.02000 3.711
51.04000 1.049
51.06000 0.650
51.08000 6.676
51.10000 9.551
51.12000 5.177
51.14000 3.182
51.16000 0.342
51.18000 2.898
51.20000 1.746
51.22000 -2.920
51.24000 -0.559
51.26000 -1.029
51.28000 4.296
51.30000 4.515
51.32000 3.822
51.34000 6.400
51.36000 6.747
51.38000 9.156
51.40000 5.646
51.42000 3.212
51.44000 4.915
51.46000 5.401
51.48000 7.118
51.50000 8.636
51.52000 9.595
51.54000 1.145
51.56000 2.389
51.58000 6.232
51.60000 2.615
51.62000 2.994
51.64000 5.911
51.66000 3.086
51.68000 2.278
51.70000 1.360
51.72000 3.103
51.74000 3.638
51.76000 2.196
51.78000 2.241
51.80000 0.987
51.82000 1.647
51.84000 8.259
51.86000 6.199
51.88000 1.914
51.90000 5.206
51.92000 4.995
51.94000 3.728
51.96000 5.721
51.98000 2.920
52.00000 -1.488
52.02000 3.877
52.04000 5.514
52.06000 -1.784
52.08000 -2.542
52.10000 3.245
52.12000 1.061
52.14000 4.570
52.16000 -0.471
52.18000 -1.376
52.20000 0.695
52.22000 4.523
52.24000 2.606
52.26000 -1.644
52.28000 -1.899
52.30000 3.683
52.32000 6.462
52.34000 6.271
52.36000 4.303
52.38000 1.773
52.40000 -2.871
52.42000 1.037
52.44000 6.589
52.46000 6.149
52.48000 5.917
52.50000 8.046
52.52000 5.241
52.54000 3.441
52.56000 2.078
52.58000 -1.590
52.60000 3.113
52.62000 5.747
52.64000 7.372
52.66000 6.923
52.68000 3.103
52.70000 1.624
52.72000 9.185
52.74000 7.677
52.76000 5.719
52.78000 7.078
52.80000 1.158
52.82000 2.005
52.84000 3.952
52.86000 2.390
52.88000 3.109
52.90000 6.179
52.92000 5.143
52.94000 1.730
52.96000 0.481
52.98000 3.829
53.00000 6.472
53.02000 6.578
53.04000 7.085
53.06000 6.803
53.08000 4.393
53.10000 3.204
53.12000 2.430
53.14000 0.990
53.16000 5.985
53.18000 5.763
53.20000 0.918
53.22000 6.372
53.24000 4.678
53.26000 7.183
53.28000 6.854
53.30000 6.080
53.32000 2.489
53.34000 1.715
53.36000 5.135
53.38000 1.193
53.40000 3.550
53.42000 0.387
53.44000 3.094
53.46000 2.980
53.48000 6.858
53.50000 3.332
53.52000 3.984
53.54000 8.927
53.56000 6.671
53.58000 4.966
53.60000 7.681
53.62000 4.286
53.64000 -2.827
53.66000 4.312
53.68000 2.044
53.70000 0.346
53.72000 2.472
53.74000 9.880
53.76000 6.904
53.78000 1.152
53.80000 4.853
53.82000 4.668
53.84000 2.403
53.86000 3.618
53.88000 4.058
53.90000 2.561
53.92000 4.261
53.94000 8.706
53.96000 12.736
53.98000 7.258
54.00000 5.402
54.02000 4.518
54.04000 1.043
54.06000 0.934
54.08000 3.143
54.10000 -0.753
54.12000 3.866
54.14000 5.711
54.16000 5.081
54.18000 5.772
54.20000 3.561
54.22000 -0.203
54.24000 5.030
54.26000 8.526
54.28000 8.058
54.30000 5.270
54.32000 7.318
54.34000 8.040
54.36000 6.726
54.38000 4.390
54.40000 6.606
54.42000 7.592
54.44000 8.212
54.46000 8.767
54.48000 4.683
54.50000 4.599
54.52000 4.327
54.54000 6.377
54.56000 1.482
54.58000 1.801
54.60000 6.872
54.62000 7.892
54.64000 10.618
54.66000 3.843
54.68000 5.959
54.70000 8.155
54.72000 7.123
54.74000 7.206
54.76000 4.420
54.78000 4.946
54.80000 5.096
54.82000 7.166
54.84000 6.512
54.86000 7.244
54.88000 12.566
54.90000 8.859
54.92000 8.145
54.94000 8.162
54.96000 7.521
54.98000 4.689
55.00000 -0.744
55.02000 -2.746
55.04000 4.796
55.06000 7.782
55.08000 7.944
55.10000 7.301
55.12000 7.951
55.14000 4.558
55.16000 4.919
55.18000 3.228
55.20000 8.308
55.22000 11.202
55.24000 10.364
55.26000 7.901
55.28000 5.991
55.30000 5.307
55.32000 10.699
55.34000 9.874
55.36000 4.331
55.38000 7.157
55.40000 9.663
55.42000 9.191
55.44000 6.128
55.46000 8.235
55.48000 4.866
55.50000 0.802
55.52000 0.126
55.54000 -2.642
55.56000 -0.174
55.58000 -1.829
55.60000 0.541
55.62000 2.319
55.64000 5.703
55.66000 2.860
55.68000 2.119
55.70000 1.554
55.72000 1.513
55.74000 -0.843
55.76000 1.074
55.78000 0.108
55.80000 3.663
55.82000 6.042
55.84000 1.009
55.86000 -0.403
55.88000 2.736
55.90000 0.332
55.92000 2.929
55.94000 4.390
55.96000 5.529
55.98000 3.150
56.00000 3.588
56.02000 5.008
56.04000 6.688
56.06000 4.983
56.08000 4.715
56.10000 5.995
56.12000 3.047
56.14000 3.532
56.16000 5.978
56.18000 2.290
56.20000 4.086
56.22000 3.200
56.24000 2.738
56.26000 3.354
56.28000 0.409
56.30000 1.925
56.32000 1.503
56.34000 2.470
56.36000 3.420
56.38000 3.013
56.40000 1.025
56.42000 -1.113
56.44000 -0.781
56.46000 1.290
56.48000 1.465
56.50000 1.260
56.52000 0.198
56.54000 2.825
56.56000 1.505
56.58000 3.326
56.60000 1.018
56.62000 1.786
56.64000 7.287
56.66000 4.728
56.68000 8.963
56.70000 8.144
56.72000 3.598
56.74000 0.525
56.76000 3.533
56.78000 2.394
56.80000 2.388
56.82000 1.769
56.84000 2.605
56.86000 7.092
56.88000 9.960
56.90000 6.003
56.92000 6.423
56.94000 2.807
56.96000 0.486
56.98000 -2.286
57.00000 0.216
57.02000 3.804
57.04000 2.903
57.06000 7.841
57.08000 1.689
57.10000 0.845
57.12000 -1.234
57.14000 -0.733
57.16000 2.092
57.18000 5.903
57.20000 1.306
57.22000 8.674
57.24000 11.074
57.26000 8.698
57.28000 1.650
57.30000 -2.426
57.32000 -1.027
57.34000 -0.860
57.36000 5.084
57.38000 8.714
57.40000 6.945
57.42000 2.484
57.44000 2.066
57.46000 1.061
57.48000 3.232
57.50000 2.186
57.52000 3.624
57.54000 3.754
57.56000 2.917
57.58000 5.215
57.60000 8.566
57.62000 7.585
57.64000 4.374
57.66000 5.105
57.68000 2.391
57.70000 2.185
57.72000 1.075
57.74000 2.247
57.76000 4.131
57.78000 2.363
57.80000 2.376
57.82000 2.781
57.84000 5.207
57.86000 10.513
57.88000 7.436
57.90000 6.371
57.92000 6.889
57.94000 6.147
57.96000 6.691
57.98000 6.446
58.00000 -2.662
58.02000 0.895
58.04000 4.068
58.06000 1.641
58.08000 0.746
58.10000 -0.715
58.12000 3.586
58.14000 6.687
58.16000 3.843
58.18000 -0.057
58.20000 6.092
58.22000 5.767
58.24000 4.120
58.26000 7.447
58.28000 11.022
58.30000 8.479
58.32000 6.814
58.34000 4.240
58.36000 4.980
58.38000 5.874
58.40000 6.898
58.42000 3.936
58.44000 0.597
58.46000 4.338
58.48000 4.675
58.50000 3.339
58.52000 7.155
58.54000 8.786
58.56000 9.300
58.58000 4.769
58.60000 1.613
58.62000 -0.631
58.64000 4.546
58.66000 5.019
58.68000 5.323
58.70000 8.601
58.72000 10.516
58.74000 9.053
58.76000 5.443
58.78000 3.461
58.80000 2.954
58.82000 6.361
58.84000 3.910
58.86000 3.990
58.88000 6.860
58.90000 5.625
58.92000 8.228
58.94000 4.704
58.96000 5.947
58.98000 3.703
59.00000 2.280
59.02000 2.951
59.04000 0.054
59.06000 0.950
59.08000 1.849
59.10000 1.456
59.12000 0.705
59.14000 5.485
59.16000 2.052
59.18000 2.423
59.20000 0.718
59.22000 2.916
59.24000 -0.267
59.26000 0.124
59.28000 2.065
59.30000 3.480
59.32000 5.366
59.34000 6.113
59.36000 4.447
59.38000 5.495
59.40000 8.072
59.42000 5.241
59.44000 3.264
59.46000 5.644
59.48000 4.353
59.50000 5.331
59.52000 3.970
59.54000 -1.088
59.56000 1.847
59.58000 7.467
59.60000 10.261
59.62000 11.595
59.64000 11.618
59.66000 6.619
59.68000 5.904
59.70000 11.280
59.72000 7.554
59.74000 7.346
59.76000 3.894
59.78000 6.454
59.80000 2.862
59.82000 -2.607
59.84000 0.768
59.86000 5.277
59.88000 8.150
59.90000 6.046
59.92000 -1.026
59.94000 7.321
59.96000 6.981
59.98000 5.002
60.00000 6.879
60.02000 2.919
60.04000 1.643
60.06000 0.654
60.08000 3.873
60.10000 2.833
60.12000 5.963
60.14000 3.527
60.16000 6.144
60.18000 6.387
60.20000 1.298
60.22000 0.028
60.24000 1.995
60.26000 5.076
60.28000 6.313
60.30000 0.204
60.32000 2.575
60.34000 1.460
60.36000 6.753
60.38000 2.661
60.40000 4.465
60.42000 4.774
60.44000 1.424
60.46000 3.252
60.48000 4.763
60.50000 2.767
60.52000 1.630
60.54000 -2.617
60.56000 -1.859
60.58000 2.917
60.60000 2.608
60.62000 4.600
60.64000 5.514
60.66000 3.356
60.68000 1.837
60.70000 4.361
60.72000 4.694
60.74000 2.599
60.76000 0.282
60.78000 0.118
60.80000 -0.335
60.82000 -2.618
60.84000 -0.084
60.86000 5.213
60.88000 2.785
60.90000 3.495
60.92000 0.424
60.94000 2.750
60.96000 6.300
60.98000 2.834
61.00000 4.058
61.02000 1.455
61.04000 1.275
61.06000 4.341
61.08000 1.607
61.10000 0.079
61.12000 0.108
61.14000 0.680
61.16000 2.443
61.18000 5.014
61.20000 2.835
61.22000 1.131
61.24000 2.187
61.26000 1.474
61.28000 4.271
61.30000 1.259
61.32000 -0.605
61.34000 -2.228
61.36000 3.989
61.38000 6.076
61.40000 10.352
61.42000 1.689
61.44000 2.138
61.46000 5.056
61.48000 4.874
61.50000 -0.547
61.52000 1.378
61.54000 2.594
61.56000 5.151
61.58000 1.020
61.60000 3.236
61.62000 4.181
61.64000 2.201
61.66000 -0.002
61.68000 0.320
61.70000 2.974
61.72000 3.162
61.74000 1.375
61.76000 0.901
61.78000 2.478
61.80000 4.846
61.82000 7.489
61.84000 3.766
61.86000 3.503
61.88000 4.682
61.90000 2.611
61.92000 0.689
61.94000 5.629
61.96000 5.648
61.98000 2.059
62.00000 2.659
62.02000 3.129
62.04000 -1.189
62.06000 -1.737
62.08000 -2.579
62.10000 -1.595
62.12000 3.190
62.14000 4.825
62.16000 6.385
62.18000 7.590
62.20000 0.863
62.22000 0.909
62.24000 3.877
62.26000 2.209
62.28000 1.397
62.30000 3.489
62.32000 5.474
62.34000 5.374
62.36000 3.269
62.38000 4.687
62.40000 6.653
62.42000 5.803
62.44000 4.665
62.46000 8.553
62.48000 5.765
62.50000 1.699
62.52000 0.589
62.54000 7.417
62.56000 9.730
62.58000 6.934
62.60000 6.304
62.62000 5.386
62.64000 5.677
62.66000 3.670
62.68000 1.916
62.70000 2.534
62.72000 1.144
62.74000 1.507
62.76000 -0.551
62.78000 0.780
62.80000 3.474
62.82000 1.398
62.84000 -0.854
62.86000 -2.563
62.88000 1.074
62.90000 3.919
62.92000 4.436
62.94000 2.049
62.96000 1.340
62.98000 3.538
63.00000 1.895
63.02000 4.849
63.04000 3.511
63.06000 2.104
63.08000 5.101
63.10000 2.218
63.12000 4.170
63.14000 1.647
63.16000 1.411
63.18000 4.255
63.20000 1.937
63.22000 0.509
63.24000 -2.583
63.26000 -1.885
63.28000 3.339
63.30000 2.144
63.32000 -0.597
63.34000 2.392
63.36000 7.510
63.38000 1.190
63.40000 3.181
63.42000 3.031
63.44000 2.187
63.46000 3.551
63.48000 4.455
63.50000 3.395
63.52000 4.332
63.54000 3.002
63.56000 -2.208
63.58000 3.723
63.60000 4.546
63.62000 1.866
63.64000 -2.594
63.66000 0.264
63.68000 3.007
63.70000 0.235
63.72000 3.851
63.74000 2.347
63.76000 1.244
63.78000 -1.313
63.80000 0.502
63.82000 4.261
63.84000 0.819
63.86000 -1.575
63.88000 1.527
63.90000 3.110
63.92000 3.223
63.94000 -1.512
63.96000 0.757
63.98000 -2.029
64.00000 -0.754
64.02000 -1.748
64.04000 -2.598
64.06000 -0.538
64.08000 -0.398
64.10000 -1.532
64.12000 4.957
64.14000 6.534
64.16000 4.208
64.18000 0.486
64.20000 0.640
64.22000 1.182
64.24000 0.461
64.26000 0.876
64.28000 2.960
64.30000 4.760
64.32000 5.485
64.34000 2.358
64.36000 -0.784
64.38000 0.473
64.40000 -0.270
64.42000 -0.569
64.44000 -1.280
64.46000 0.324
64.48000 1.229
64.50000 2.121
64.52000 -0.764
64.54000 -1.426
64.56000 0.242
64.58000 0.505
64.60000 0.541
64.62000 -2.593
64.64000 0.142
64.66000 4.568
64.68000 2.300
64.70000 3.548
64.72000 2.312
64.74000 2.557
64.76000 2.944
64.78000 3.440
64.80000 1.606
64.82000 1.625
64.84000 -0.664
64.86000 1.291
64.88000 0.882
64.90000 -0.113
64.92000 0.777
64.94000 0.673
64.96000 1.529
64.98000 2.214
65.00000 2.646
65.02000 2.153
65.04000 0.224
65.06000 -2.080
65.08000 1.311
65.10000 3.226
65.12000 -1.779
65.14000 -0.847
65.16000 0.378
65.18000 0.174
65.20000 1.529
65.22000 2.404
65.24000 2.962
65.26000 0.362
65.28000 5.102
65.30000 4.511
65.32000 0.400
65.34000 -2.586
65.36000 -0.716
65.38000 2.433
65.40000 -1.229
65.42000 5.691
65.44000 5.070
65.46000 -0.174
65.48000 1.795
65.50000 2.974
65.52000 4.204
65.54000 6.079
65.56000 5.712
65.58000 4.611
65.60000 2.934
65.62000 -0.059
65.64000 2.233
65.66000 3.394
65.68000 -1.620
65.70000 -0.654
65.72000 0.719
65.74000 0.397
65.76000 1.011
65.78000 4.416
65.80000 1.484
65.82000 0.283
65.84000 0.288
65.86000 -0.099
65.88000 1.935
65.90000 4.604
65.92000 1.712
65.94000 0.043
65.96000 -1.117
65.98000 0.210
66.00000 2.572
66.02000 4.025
66.04000 3.391
66.06000 1.994
66.08000 -2.594
66.10000 -0.261
66.12000 3.016
66.14000 1.397
66.16000 3.307
66.18000 1.227
66.20000 -2.606
66.22000 -2.029
66.24000 2.147
66.26000 0.916
66.28000 0.334
66.30000 1.931
66.32000 4.992
66.34000 6.421
66.36000 4.836
66.38000 2.783
66.40000 1.040
66.42000 -2.472
66.44000 -0.363
66.46000 -0.282
66.48000 1.943
66.50000 0.717
66.52000 -0.996
66.54000 -1.550
66.56000 -2.367
66.58000 0.026
66.60000 0.469
66.62000 0.830
66.64000 -1.196
66.66000 -2.247
66.68000 -0.450
66.70000 -1.404
66.72000 2.955
66.74000 2.711
66.76000 0.447
66.78000 -0.880
66.80000 0.887
66.82000 1.941
66.84000 3.383
66.86000 1.655
66.88000 2.265
66.90000 4.032
66.92000 0.496
66.94000 3.001
66.96000 2.417
66.98000 -0.021
67.00000 -1.809
67.02000 -2.089
67.04000 3.560
67.06000 0.286
67.08000 0.118
67.10000 -0.395
67.12000 1.569
67.14000 2.060
67.16000 1.406
67.18000 0.858
67.20000 2.352
67.22000 0.637
67.24000 2.718
67.26000 -1.350
67.28000 -2.062
67.30000 -2.678
67.32000 1.383
67.34000 1.654
67.36000 3.695
67.38000 6.047
67.40000 3.900
67.42000 -0.216
67.44000 0.660
67.46000 0.578
67.48000 0.101
67.50000 3.038
67.52000 5.023
67.54000 2.202
67.56000 -0.970
67.58000 2.824
67.60000 8.096
67.62000 5.521
67.64000 5.420
67.66000 2.927
67.68000 1.637
67.70000 1.431
67.72000 6.259
67.74000 4.615
67.76000 4.126
67.78000 4.960
67.80000 5.747
67.82000 4.574
67.84000 5.885
67.86000 2.783
67.88000 1.197
67.90000 2.952
67.92000 4.620
67.94000 1.589
67.96000 3.074
67.98000 4.639
68.00000 4.425
68.02000 2.513
68.04000 9.292
68.06000 7.625
68.08000 6.037
68.10000 5.708
68.12000 6.333
68.14000 10.246
68.16000 12.589
68.18000 12.459
68.20000 7.280
68.22000 5.771
68.24000 3.039
68.26000 6.021
68.28000 8.842
68.30000 10.854
68.32000 12.642
68.34000 14.891
68.36000 12.386
68.38000 11.780
68.40000 10.275
68.42000 13.237
68.44000 17.168
68.46000 21.350
68.48000 20.817
68.50000 17.669
68.52000 16.262
68.54000 14.131
68.56000 12.993
68.58000 15.013
68.60000 18.017
68.62000 17.096
68.64000 14.612
68.66000 15.724
68.68000 17.029
68.70000 18.384
68.72000 21.349
68.74000 24.036
68.76000 21.034
68.78000 22.721
68.80000 24.518
68.82000 29.485
68.84000 24.062
68.86000 24.265
68.88000 28.372
68.90000 29.385
68.92000 31.775
68.94000 28.782
68.96000 26.049
68.98000 24.784
69.00000 24.127
69.02000 28.524
69.04000 26.335
69.06000 21.464
69.08000 21.821
69.10000 22.795
69.12000 23.216
69.14000 24.198
69.16000 23.105
69.18000 24.209
69.20000 22.718
69.22000 17.364
69.24000 18.074
69.26000 19.234
69.28000 22.982
69.30000 19.707
69.32000 19.709
69.34000 18.825
69.36000 21.328
69.38000 20.119
69.40000 18.889
69.42000 20.786
69.44000 20.914
69.46000 16.378
69.48000 14.573
69.50000 15.919
69.52000 11.543
69.54000 14.296
69.56000 16.676
69.58000 14.879
69.60000 14.917
69.62000 14.851
69.64000 14.875
69.66000 12.315
69.68000 12.320
69.70000 10.760
69.72000 10.259
69.74000 9.838
69.76000 9.888
69.78000 9.216
69.80000 8.012
69.82000 5.439
69.84000 5.342
69.86000 7.202
69.88000 9.003
69.90000 9.084
69.92000 6.010
69.94000 3.653
69.96000 1.727
69.98000 5.191
70.00000 5.080
70.02000 4.686
70.04000 2.974
70.06000 3.560
70.08000 4.603
70.10000 4.683
70.12000 5.914
70.14000 6.750
70.16000 2.984
70.18000 2.605
70.20000 3.638
70.22000 5.619
70.24000 1.849
70.26000 -2.620
70.28000 -0.036
70.30000 2.314
70.32000 3.490
70.34000 -1.253
70.36000 -2.610
70.38000 3.905
70.40000 3.954
70.42000 4.361
70.44000 3.828
70.46000 3.279
70.48000 1.992
70.50000 4.736
70.52000 3.476
70.54000 -0.411
70.56000 -2.216
70.58000 0.902
70.60000 4.493
70.62000 2.630
70.64000 -0.167
70.66000 1.937
70.68000 1.816
70.70000 -0.730
70.72000 0.676
70.74000 4.310
70.76000 2.604
70.78000 1.639
70.80000 -0.960
70.82000 1.824
70.84000 4.299
70.86000 3.609
70.88000 -2.548
70.90000 0.120
70.92000 0.932
70.94000 3.653
70.96000 0.670
70.98000 1.174
71.00000 2.260
71.02000 2.674
71.04000 -0.151
71.06000 -0.672
71.08000 -0.213
71.10000 2.828
71.12000 3.793
71.14000 1.998
71.16000 0.828
71.18000 0.682
71.20000 3.224
71.22000 3.857
71.24000 4.184
71.26000 1.396
71.28000 0.687
71.30000 0.711
71.32000 2.747
71.34000 8.073
71.36000 9.413
71.38000 7.158
71.40000 1.197
71.42000 1.081
71.44000 -2.471
71.46000 -2.470
71.48000 2.714
71.50000 5.236
71.52000 1.858
71.54000 3.313
71.56000 2.410
71.58000 4.389
71.60000 5.938
71.62000 4.475
71.64000 5.998
71.66000 3.810
71.68000 4.518
71.70000 1.887
71.72000 1.872
71.74000 3.284
71.76000 3.506
71.78000 2.050
71.80000 4.068
71.82000 6.000
71.84000 1.210
71.86000 4.961
71.88000 4.353
71.90000 1.332
71.92000 5.232
71.94000 2.554
71.96000 2.028
71.98000 -2.443
72.00000 -1.580
72.02000 -1.633
72.04000 0.886
72.06000 4.405
72.08000 5.894
72.10000 5.407
72.12000 -2.436
72.14000 0.066
72.16000 2.799
72.18000 4.062
72.20000 3.163
72.22000 5.256
72.24000 4.917
72.26000 4.953
72.28000 7.871
72.30000 6.018
72.32000 2.814
72.34000 2.366
72.36000 2.262
72.38000 1.456
72.40000 -0.755
72.42000 2.067
72.44000 3.242
72.46000 3.505
72.48000 1.802
72.50000 3.700
72.52000 4.262
72.54000 -0.029
72.56000 4.125
72.58000 4.644
72.60000 5.911
72.62000 0.323
72.64000 4.949
72.66000 3.790
72.68000 2.970
72.70000 0.220
72.72000 5.281
72.74000 4.815
72.76000 -0.605
72.78000 4.051
72.80000 3.947
72.82000 1.812
72.84000 -0.633
72.86000 -0.660
72.88000 2.033
72.90000 0.983
72.92000 0.855
72.94000 2.508
72.96000 2.671
72.98000 -1.257
73.00000 -1.134
73.02000 3.865
73.04000 5.521
73.06000 -0.525
73.08000 -0.944
73.10000 0.594
73.12000 -0.539
73.14000 0.836
73.16000 3.863
73.18000 1.553
73.20000 -1.757
73.22000 1.268
73.24000 4.059
73.26000 4.009
73.28000 6.149
73.30000 5.705
73.32000 2.222
73.34000 0.364
73.36000 -1.065
73.38000 -0.368
73.40000 -2.404
73.42000 4.676
73.44000 -0.246
73.46000 0.475
73.48000 4.387
73.50000 -2.400
73.52000 -2.152
73.54000 3.376
73.56000 5.973
73.58000 1.120
73.60000 0.272
73.62000 0.374
73.64000 0.043
73.66000 2.255
73.68000 3.266
73.70000 2.817
73.72000 1.863
73.74000 2.058
73.76000 -1.546
73.78000 -2.208
73.80000 1.036
73.82000 2.837
73.84000 5.390
73.86000 4.611
73.88000 5.201
73.90000 2.930
73.92000 0.429
73.94000 0.225
73.96000 1.721
73.98000 1.175
74.00000 -1.387
74.02000 0.115
74.04000 -0.397
74.06000 -0.603
74.08000 1.146
74.10000 2.272
74.12000 -2.386
74.14000 1.410
74.16000 7.609
74.18000 7.099
74.20000 9.373
74.22000 5.321
74.24000 -0.393
74.26000 -1.028
74.28000 -0.012
74.30000 3.367
74.32000 6.218
74.34000 5.590
74.36000 6.237
74.38000 1.583
74.40000 2.864
74.42000 4.764
74.44000 3.628
74.46000 6.460
74.48000 7.230
74.50000 6.819
74.52000 0.003
74.54000 -0.503
74.56000 2.259
74.58000 0.833
74.60000 1.366
74.62000 -0.141
74.64000 -2.373
74.66000 0.008
74.68000 5.227
74.70000 3.446
74.72000 1.867
74.74000 -0.071
74.76000 1.379
74.78000 3.214
74.80000 0.169
74.82000 2.892
74.84000 4.537
74.86000 4.285
74.88000 -0.332
74.90000 -0.072
74.92000 6.205
74.94000 4.255
74.96000 2.751
74.98000 3.825
75.00000 5.319
75.02000 5.532
75.04000 4.847
75.06000 3.879
75.08000 4.995
75.10000 -0.635
75.12000 -1.235
75.14000 3.678
75.16000 5.060
75.18000 5.599
75.20000 7.690
75.22000 7.105
75.24000 5.732
75.26000 4.629
75.28000 7.355
75.30000 3.875
75.32000 2.063
75.34000 2.094
75.36000 2.393
75.38000 4.068
75.40000 3.274
75.42000 5.886
75.44000 2.067
75.46000 -1.563
75.48000 -2.380
75.50000 4.515
75.52000 8.813
75.54000 6.289
75.56000 -0.270
75.58000 -2.381
75.60000 3.489
75.62000 9.160
75.64000 5.208
75.66000 -1.887
75.68000 0.816
75.70000 3.292
75.72000 3.678
75.74000 4.692
75.76000 2.529
75.78000 6.543
75.80000 9.246
75.82000 4.623
75.84000 2.598
75.86000 0.629
75.88000 2.239
75.90000 6.781
75.92000 5.812
75.94000 0.159
75.96000 2.829
75.98000 6.071
76.00000 6.219
76.02000 1.670
76.04000 2.324
76.06000 6.755
76.08000 9.243
76.10000 5.461
76.12000 2.798
76.14000 5.157
76.16000 6.062
76.18000 1.672
76.20000 -1.262
76.22000 1.203
76.24000 0.743
76.26000 0.055
76.28000 1.172
76.30000 6.606
76.32000 6.800
76.34000 2.231
76.36000 -0.155
76.38000 6.047
76.40000 9.805
76.42000 11.020
76.44000 8.776
76.46000 7.370
76.48000 11.055
76.50000 4.031
76.52000 7.774
76.54000 6.762
76.56000 6.428
76.58000 3.224
76.60000 2.215
76.62000 4.050
76.64000 10.003
76.66000 4.774
76.68000 6.032
76.70000 9.743
76.72000 5.523
76.74000 0.620
76.76000 1.414
76.78000 0.852
76.80000 -2.359
76.82000 0.939
76.84000 8.237
76.86000 4.572
76.88000 4.888
76.90000 2.655
76.92000 1.520
76.94000 0.518
76.96000 2.096
76.98000 4.569
77.00000 0.093
77.02000 4.200
77.04000 4.543
77.06000 2.005
77.08000 4.888
77.10000 2.933
77.12000 0.439
77.14000 1.608
77.16000 1.514
77.18000 -0.043
77.20000 2.666
77.22000 4.402
77.24000 0.894
77.26000 4.205
77.28000 4.396
77.30000 3.844
77.32000 0.841
77.34000 0.898
77.36000 3.073
77.38000 -0.015
77.40000 1.018
77.42000 2.710
77.44000 4.074
77.46000 5.370
77.48000 4.297
77.50000 6.226
77.52000 2.176
77.54000 1.992
77.56000 0.989
77.58000 7.478
77.60000 6.446
77.62000 4.117
77.64000 2.665
77.66000 3.553
77.68000 3.929
77.70000 -0.945
77.72000 -2.231
77.74000 -0.449
77.76000 -1.787
77.78000 2.352
77.80000 6.783
77.82000 4.394
77.84000 2.758
77.86000 0.374
77.88000 -0.280
77.90000 2.066
77.92000 8.190
77.94000 9.962
77.96000 6.072
77.98000 9.316
78.00000 5.104
78.02000 8.586
78.04000 4.907
78.06000 3.406
78.08000 3.806
78.10000 1.871
78.12000 -0.012
78.14000 0.890
78.16000 1.840
78.18000 -2.412
78.20000 -1.975
78.22000 2.739
78.24000 3.707
78.26000 5.144
78.28000 3.575
78.30000 4.713
78.32000 0.851
78.34000 2.339
78.36000 1.821
78.38000 0.683
78.40000 2.447
78.42000 4.099
78.44000 0.358
78.46000 -2.411
78.48000 -0.022
78.50000 4.721
78.52000 1.989
78.54000 4.899
78.56000 2.552
78.58000 2.249
78.60000 4.168
78.62000 2.983
78.64000 5.965
78.66000 2.992
78.68000 -2.066
78.70000 0.635
78.72000 1.604
78.74000 2.889
78.76000 7.300
78.78000 8.155
78.80000 2.556
78.82000 -0.567
78.84000 2.674
78.86000 6.731
78.88000 7.115
78.90000 3.439
78.92000 5.493
78.94000 4.442
78.96000 0.687
78.98000 0.522
79.00000 3.692
79.02000 -2.413
79.04000 0.503
79.06000 3.633
79.08000 6.842
79.10000 3.807
79.12000 4.426
79.14000 1.772
79.16000 3.019
79.18000 6.169
79.20000 9.319
79.22000 6.684
79.24000 5.677
79.26000 0.966
79.28000 4.690
79.30000 5.839
79.32000 1.964
79.34000 3.306
79.36000 1.277
79.38000 4.622
79.40000 6.736
79.42000 4.094
79.44000 3.563
79.46000 3.024
79.48000 7.586
79.50000 8.308
79.52000 5.201
79.54000 5.414
79.56000 8.066
79.58000 7.896
79.60000 2.770
79.62000 2.435
79.64000 3.870
79.66000 8.787
79.68000 8.559
79.70000 10.351
79.72000 8.535
79.74000 9.030
79.76000 8.684
79.78000 3.535
79.80000 4.699
79.82000 5.658
79.84000 7.971
79.86000 5.943
79.88000 5.517
79.90000 4.062
79.92000 2.292
79.94000 3.571
79.96000 5.017
79.98000 4.305
80.00000 3.036
80.02000 -2.370
80.04000 1.589
80.06000 3.515
80.08000 9.409
80.10000 11.140
80.12000 9.212
80.14000 4.279
80.16000 8.110
80.18000 9.064
80.20000 2.417
80.22000 6.744
80.24000 10.292
80.26000 7.743
80.28000 1.711
80.30000 4.614
80.32000 5.264
80.34000 6.409
80.36000 7.077
80.38000 7.448
80.40000 7.922
80.42000 11.200
80.44000 7.924
80.46000 6.153
80.48000 7.010
80.50000 5.474
80.52000 3.049
80.54000 5.902
80.56000 4.244
80.58000 1.774
80.60000 0.510
80.62000 1.072
80.64000 3.300
80.66000 7.345
80.68000 5.854
80.70000 5.114
80.72000 1.695
80.74000 3.103
80.76000 2.465
80.78000 1.577
80.80000 1.439
80.82000 3.667
80.84000 4.540
80.86000 2.182
80.88000 3.037
80.90000 0.011
80.92000 -0.934
80.94000 -0.088
80.96000 -1.428
80.98000 1.920
81.00000 2.832
81.02000 0.193
81.04000 1.167
81.06000 -1.086
81.08000 0.986
81.10000 1.732
81.12000 -1.409
81.14000 0.441
81.16000 2.772
81.18000 2.921
81.20000 5.628
81.22000 3.932
81.24000 1.593
81.26000 0.422
81.28000 3.271
81.30000 4.565
81.32000 3.609
81.34000 8.342
81.36000 7.990
81.38000 4.198
81.40000 6.408
81.42000 5.955
81.44000 5.902
81.46000 3.484
81.48000 3.378
81.50000 -0.329
81.52000 2.154
81.54000 0.569
81.56000 0.395
81.58000 -1.081
81.60000 1.139
81.62000 0.051
81.64000 -0.238
81.66000 4.475
81.68000 3.460
81.70000 -0.890
81.72000 0.469
81.74000 2.308
81.76000 5.162
81.78000 2.412
81.80000 3.478
81.82000 6.748
81.84000 5.001
81.86000 4.814
81.88000 6.147
81.90000 1.581
81.92000 6.738
81.94000 5.555
81.96000 1.279
81.98000 1.917
82.00000 6.290
82.02000 8.560
82.04000 7.198
82.06000 4.388
82.08000 2.146
82.10000 7.705
82.12000 9.625
82.14000 10.609
82.16000 8.234
82.18000 5.144
82.20000 4.900
82.22000 5.915
82.24000 6.529
82.26000 3.252
82.28000 8.003
82.30000 14.004
82.32000 13.772
82.34000 12.977
82.36000 8.244
82.38000 13.141
82.40000 18.823
82.42000 12.625
82.44000 16.950
82.46000 13.514
82.48000 17.807
82.50000 13.530
82.52000 13.934
82.54000 15.299
82.56000 13.299
82.58000 16.249
82.60000 15.957
82.62000 18.813
82.64000 19.355
82.66000 16.619
82.68000 13.156
82.70000 14.677
82.72000 13.340
82.74000 18.778
82.76000 19.956
82.78000 17.441
82.80000 14.390
82.82000 15.987
82.84000 16.090
82.86000 18.214
82.88000 16.000
82.90000 18.946
82.92000 19.683
82.94000 15.732
82.96000 15.934
82.98000 21.956
83.00000 22.654
83.02000 25.165
83.04000 28.745
83.06000 24.653
83.08000 20.005
83.10000 19.721
83.12000 16.596
83.14000 21.806
83.16000 25.103
83.18000 27.055
83.20000 23.116
83.22000 30.455
83.24000 27.046
83.26000 24.848
83.28000 26.978
83.30000 26.012
83.32000 20.260
83.34000 18.331
83.36000 23.446
83.38000 24.118
83.40000 21.403
83.42000 22.771
83.44000 25.307
83.46000 26.810
83.48000 26.401
83.50000 25.532
83.52000 22.293
83.54000 30.264
83.56000 28.430
83.58000 26.998
83.60000 23.876
83.62000 23.938
83.64000 23.295
83.66000 25.729
83.68000 25.113
83.70000 22.620
83.72000 20.417
83.74000 18.799
83.76000 25.561
83.78000 21.505
83.80000 19.726
83.82000 24.402
83.84000 21.408
83.86000 23.417
83.88000 19.059
83.90000 18.236
83.92000 19.024
83.94000 17.442
83.96000 18.632
83.98000 15.053
84.00000 15.228
84.02000 21.291
84.04000 18.891
84.06000 19.668
84.08000 21.190
84.10000 17.491
84.12000 15.917
84.14000 14.674
84.16000 11.849
84.18000 14.012
84.20000 12.808
84.22000 11.990
84.24000 7.553
84.26000 9.044
84.28000 11.777
84.30000 14.741
84.32000 12.291
84.34000 12.689
84.36000 11.192
84.38000 4.587
84.40000 11.338
84.42000 11.886
84.44000 8.003
84.46000 12.454
84.48000 13.672
84.50000 8.452
84.52000 9.510
84.54000 11.610
84.56000 10.494
84.58000 9.245
84.60000 4.356
84.62000 4.759
84.64000 3.710
84.66000 2.173
84.68000 0.912
84.70000 3.358
84.72000 1.519
84.74000 1.914
84.76000 3.523
84.78000 9.567
84.80000 0.013
84.82000 -1.327
84.84000 -0.335
84.86000 1.407
84.88000 2.167
84.90000 0.564
84.92000 0.433
84.94000 3.394
84.96000 1.707
84.98000 0.435
85.00000 -1.082
85.02000 2.539
85.04000 2.782
85.06000 4.581
85.08000 3.609
85.10000 6.276
85.12000 1.487
85.14000 8.545
85.16000 5.884
85.18000 6.468
85.20000 1.495
85.22000 3.444
85.24000 4.713
85.26000 7.164
85.28000 5.466
85.30000 4.715
85.32000 4.828
85.34000 3.549
85.36000 2.304
85.38000 0.291
85.40000 1.025
85.42000 -2.454
85.44000 6.249
85.46000 1.717
85.48000 5.078
85.50000 7.140
85.52000 4.370
85.54000 7.282
85.56000 2.568
85.58000 -1.210
85.60000 0.831
85.62000 3.093
85.64000 2.854
85.66000 3.093
85.68000 -1.493
85.70000 0.113
85.72000 -0.697
85.74000 -0.828
85.76000 0.717
85.78000 0.896
85.80000 5.694
85.82000 4.197
85.84000 3.379
85.86000 -2.230
85.88000 -1.670
85.90000 3.942
85.92000 1.452
85.94000 -0.766
85.96000 1.545
85.98000 2.851
86.00000 -1.201
86.02000 4.285
86.04000 2.214
86.06000 2.726
86.08000 4.050
86.10000 3.731
86.12000 3.836
86.14000 4.227
86.16000 2.497
86.18000 5.430
86.20000 3.962
86.22000 4.307
86.24000 1.569
86.26000 6.821
86.28000 3.952
86.30000 4.133
86.32000 6.675
86.34000 1.798
86.36000 -0.577
86.38000 4.626
86.40000 4.522
86.42000 6.027
86.44000 3.464
86.46000 5.880
86.48000 3.767
86.50000 4.839
86.52000 3.676
86.54000 1.671
86.56000 -2.480
86.58000 1.797
86.60000 2.091
86.62000 2.917
86.64000 4.890
86.66000 3.768
86.68000 6.950
86.70000 8.396
86.72000 8.433
86.74000 3.949
86.76000 0.234
86.78000 3.723
86.80000 8.755
86.82000 8.089
86.84000 3.570
86.86000 4.381
86.88000 8.184
86.90000 8.244
86.92000 6.289
86.94000 3.981
86.96000 5.630
86.98000 8.681
87.00000 12.724
87.02000 7.633
87.04000 11.170
87.06000 11.231
87.08000 4.843
87.10000 3.920
87.12000 10.430
87.14000 13.979
87.16000 11.185
87.18000 10.017
87.20000 6.277
87.22000 13.617
87.24000 13.969
87.26000 9.958
87.28000 9.107
87.30000 8.632
87.32000 10.493
87.34000 10.328
87.36000 12.451
87.38000 11.019
87.40000 9.238
87.42000 7.900
87.44000 4.886
87.46000 13.062
87.48000 16.274
87.50000 12.167
87.52000 11.607
87.54000 17.408
87.56000 18.395
87.58000 14.823
87.60000 15.703
87.62000 14.581
87.64000 15.069
87.66000 21.339
87.68000 15.010
87.70000 14.174
87.72000 22.792
87.74000 20.497
87.76000 17.027
87.78000 19.240
87.80000 18.026
87.82000 19.790
87.84000 19.695
87.86000 19.776
87.88000 18.858
87.90000 16.701
87.92000 14.940
87.94000 19.534
87.96000 24.091
87.98000 20.052
88.00000 19.831
88.02000 18.567
88.04000 21.667
88.06000 22.252
88.08000 20.665
88.10000 17.857
88.12000 16.660
88.14000 18.146
88.16000 17.956
88.18000 17.912
88.20000 16.343
88.22000 18.332
88.24000 17.133
88.26000 19.498
88.28000 19.890
88.30000 16.236
88.32000 16.600
88.34000 21.138
88.36000 23.505
88.38000 16.808
88.40000 17.291
88.42000 15.192
88.44000 18.036
88.46000 15.310
88.48000 14.910
88.50000 13.464
88.52000 16.882
88.54000 14.770
88.56000 12.763
88.58000 13.792
88.60000 17.534
88.62000 10.677
88.64000 16.117
88.66000 16.296
88.68000 11.154
88.70000 6.079
88.72000 6.417
88.74000 6.213
88.76000 5.220
88.78000 13.687
88.80000 6.822
88.82000 10.079
88.84000 10.429
88.86000 8.449
88.88000 11.239
88.90000 6.828
88.92000 5.033
88.94000 4.086
88.96000 5.266
88.98000 7.072
89.00000 6.760
89.02000 5.669
89.04000 6.510
89.06000 8.603
89.08000 5.254
89.10000 8.675
89.12000 7.203
89.14000 5.109
89.16000 0.867
89.18000 1.739
89.20000 2.652
89.22000 8.707
89.24000 9.548
89.26000 5.978
89.28000 6.115
89.30000 4.537
89.32000 4.954
89.34000 4.441
89.36000 4.071
89.38000 1.583
89.40000 5.307
89.42000 7.577
89.44000 5.065
89.46000 -1.137
89.48000 -2.373
89.50000 3.363
89.52000 2.106
89.54000 1.846
89.56000 0.600
89.58000 0.924
89.60000 -1.577
89.62000 -1.754
89.64000 -0.759
89.66000 2.017
89.68000 4.525
89.70000 6.645
89.72000 3.610
89.74000 3.671
89.76000 -2.197
89.78000 0.549
89.80000 0.329
89.82000 1.742
89.84000 0.886
89.86000 -2.336
89.88000 -0.422
89.90000 -0.571
89.92000 2.641
89.94000 10.280
89.96000 10.088
89.98000 7.529
90.00000 7.523
90.02000 4.587
90.04000 -0.237
90.06000 -0.350
90.08000 -2.024
90.10000 -1.305
90.12000 4.011
90.14000 1.726
90.16000 0.517
90.18000 1.034
90.20000 -1.397
90.22000 -0.696
90.24000 1.254
90.26000 -0.762
90.28000 -2.294
90.30000 1.565
90.32000 5.870
90.34000 2.061
90.36000 4.301
90.38000 1.095
90.40000 -0.373
90.42000 3.001
90.44000 7.963
90.46000 10.034
90.48000 3.556
90.50000 4.117
90.52000 7.240
90.54000 9.565
90.56000 5.199
90.58000 -2.275
90.60000 -0.367
90.62000 0.440
90.64000 6.315
90.66000 5.171
90.68000 2.880
90.70000 4.230
90.72000 2.860
90.74000 3.892
90.76000 3.148
90.78000 2.294
90.80000 3.385
90.82000 2.247
90.84000 1.681
90.86000 5.065
90.88000 5.336
90.90000 0.743
90.92000 9.189
90.94000 11.889
90.96000 2.397
90.98000 0.495
91.00000 2.908
91.02000 2.640
91.04000 0.863
91.06000 3.111
91.08000 3.638
91.10000 4.383
91.12000 2.749
91.14000 0.877
91.16000 2.116
91.18000 6.470
91.20000 4.157
91.22000 1.125
91.24000 1.040
91.26000 5.166
91.28000 7.097
91.30000 9.661
91.32000 5.935
91.34000 7.787
91.36000 11.170
91.38000 9.184
91.40000 6.240
91.42000 1.551
91.44000 -2.232
91.46000 0.191
91.48000 1.152
91.50000 0.123
91.52000 3.540
91.54000 0.138
91.56000 4.104
91.58000 6.334
91.60000 1.604
91.62000 4.900
91.64000 7.008
91.66000 7.006
91.68000 6.605
91.70000 6.757
91.72000 8.475
91.74000 5.208
91.76000 7.673
91.78000 8.422
91.80000 3.973
91.82000 4.336
91.84000 5.629
91.86000 2.188
91.88000 4.546
91.90000 2.881
91.92000 5.620
91.94000 5.177
91.96000 2.535
91.98000 -1.232
92.00000 2.337
92.02000 5.885
92.04000 5.478
92.06000 1.083
92.08000 -0.181
92.10000 0.404
92.12000 5.493
92.14000 5.506
92.16000 7.429
92.18000 6.601
92.20000 8.373
92.22000 5.967
92.24000 3.074
92.26000 1.717
92.28000 5.869
92.30000 7.333
92.32000 7.232
92.34000 4.365
92.36000 4.630
92.38000 6.623
92.40000 7.650
92.42000 7.269
92.44000 1.623
92.46000 -0.909
92.48000 1.258
92.50000 -2.271
92.52000 1.417
92.54000 3.493
92.56000 4.841
92.58000 -0.946
92.60000 -2.253
92.62000 5.407
92.64000 4.308
92.66000 4.010
92.68000 7.370
92.70000 5.677
92.72000 1.410
92.74000 -0.088
92.76000 2.279
92.78000 5.180
92.80000 5.033
92.82000 5.881
92.84000 6.453
92.86000 9.096
92.88000 9.064
92.90000 7.190
92.92000 4.567
92.94000 7.064
92.96000 4.758
92.98000 -0.405
93.00000 2.558
93.02000 4.739
93.04000 4.392
93.06000 5.707
93.08000 5.400
93.10000 -1.436
93.12000 0.413
93.14000 3.287
93.16000 6.731
93.18000 8.884
93.20000 8.310
93.22000 5.336
93.24000 5.860
93.26000 5.504
93.28000 1.912
93.30000 2.714
93.32000 2.552
93.34000 -2.245
93.36000 -0.598
93.38000 5.022
93.40000 5.873
93.42000 8.247
93.44000 4.468
93.46000 3.974
93.48000 0.850
93.50000 4.319
93.52000 5.690
93.54000 3.198
93.56000 5.252
93.58000 0.745
93.60000 5.761
93.62000 6.839
93.64000 6.305
93.66000 6.949
93.68000 5.030
93.70000 3.928
93.72000 3.673
93.74000 2.959
93.76000 3.648
93.78000 3.863
93.80000 5.683
93.82000 3.399
93.84000 6.302
93.86000 12.035
93.88000 5.661
93.90000 3.574
93.92000 0.897
93.94000 5.210
93.96000 4.301
93.98000 4.359
94.00000 9.348
94.02000 10.833
94.04000 7.655
94.06000 0.689
94.08000 3.254
94.10000 1.564
94.12000 1.631
94.14000 7.437
94.16000 5.894
94.18000 8.423
94.20000 7.552
94.22000 7.181
94.24000 0.879
94.26000 3.126
94.28000 3.934
94.30000 10.975
94.32000 10.022
94.34000 0.434
94.36000 2.888
94.38000 4.421
94.40000 6.135
94.42000 2.913
94.44000 3.079
94.46000 7.518
94.48000 4.927
94.50000 4.419
94.52000 7.616
94.54000 7.604
94.56000 5.719
94.58000 5.976
94.60000 2.066
94.62000 4.364
94.64000 5.643
94.66000 4.676
94.68000 7.223
94.70000 4.983
94.72000 -0.888
94.74000 3.360
94.76000 10.271
94.78000 9.539
94.80000 9.729
94.82000 13.802
94.84000 6.782
94.86000 5.174
94.88000 8.261
94.90000 9.184
94.92000 4.573
94.94000 5.270
94.96000 5.044
94.98000 2.338
95.00000 -2.257
95.02000 5.858
95.04000 8.466
95.06000 3.840
95.08000 6.448
95.10000 4.548
95.12000 5.703
95.14000 4.533
95.16000 7.791
95.18000 5.772
95.20000 0.327
95.22000 4.070
95.24000 -0.125
95.26000 -0.864
95.28000 2.633
95.30000 3.505
95.32000 2.706
95.34000 8.100
95.36000 7.046
95.38000 6.970
95.40000 2.753
95.42000 -0.233
95.44000 -2.275
95.46000 -0.946
95.48000 2.242
95.50000 0.571
95.52000 3.532
95.54000 3.383
95.56000 4.824
95.58000 6.319
95.60000 4.706
95.62000 4.474
95.64000 5.518
95.66000 3.645
95.68000 4.180
95.70000 0.141
95.72000 7.370
95.74000 10.873
95.76000 6.104
95.78000 2.937
95.80000 2.625
95.82000 7.695
95.84000 8.723
95.86000 7.444
95.88000 6.649
95.90000 7.787
95.92000 5.795
95.94000 6.002
95.96000 3.626
95.98000 0.332
96.00000 4.059
96.02000 4.762
96.04000 7.230
96.06000 4.476
96.08000 0.955
96.10000 -0.023
96.12000 3.425
96.14000 2.561
96.16000 5.138
96.18000 2.437
96.20000 2.287
96.22000 -0.671
96.24000 9.139
96.26000 8.754
96.28000 3.717
96.30000 -0.790
96.32000 -0.596
96.34000 -0.555
96.36000 3.726
96.38000 3.645
96.40000 2.745
96.42000 4.282
96.44000 0.772
96.46000 -1.202
96.48000 0.127
96.50000 -2.256
96.52000 -1.672
96.54000 5.544
96.56000 5.342
96.58000 5.223
96.60000 3.085
96.62000 1.575
96.64000 5.900
96.66000 2.974
96.68000 6.061
96.70000 2.211
96.72000 0.190
96.74000 6.118
96.76000 0.298
96.78000 0.887
96.80000 0.781
96.82000 -0.496
96.84000 6.353
96.86000 4.889
96.88000 3.117
96.90000 7.869
96.92000 11.331
96.94000 2.933
96.96000 -0.534
96.98000 4.795
97.00000 8.710
97.02000 8.911
97.04000 8.356
97.06000 4.444
97.08000 4.531
97.10000 -0.484
97.12000 4.570
97.14000 3.614
97.16000 1.986
97.18000 -2.277
97.20000 3.593
97.22000 2.448
97.24000 -0.901
97.26000 0.402
97.28000 3.330
97.30000 -0.557
97.32000 2.290
97.34000 5.500
97.36000 8.304
97.38000 9.363
97.40000 8.069
97.42000 3.618
97.44000 2.747
97.46000 5.477
97.48000 5.681
97.50000 2.766
97.52000 1.832
97.54000 4.640
97.56000 3.014
97.58000 5.684
97.60000 8.590
97.62000 5.162
97.64000 0.655
97.66000 1.619
97.68000 3.942
97.70000 5.082
97.72000 9.608
97.74000 10.586
97.76000 5.087
97.78000 4.737
97.80000 9.623
97.82000 5.436
97.84000 4.845
97.86000 10.142
97.88000 4.121
97.90000 9.066
97.92000 7.089
97.94000 5.467
97.96000 5.790
97.98000 7.331
98.00000 8.953
98.02000 14.674
98.04000 9.465
98.06000 9.949
98.08000 8.167
98.10000 4.322
98.12000 6.719
98.14000 2.995
98.16000 8.399
98.18000 9.595
98.20000 11.280
98.22000 -0.550
98.24000 5.612
98.26000 7.785
98.28000 10.733
98.30000 11.631
98.32000 12.859
98.34000 13.208
98.36000 11.181
98.38000 15.134
98.40000 15.163
98.42000 9.216
98.44000 4.487
98.46000 10.380
98.48000 22.525
98.50000 12.817
98.52000 15.307
98.54000 22.338
98.56000 15.484
98.58000 7.382
98.60000 6.311
98.62000 5.845
98.64000 8.880
98.66000 9.685
98.68000 4.975
98.70000 4.465
98.72000 8.049
98.74000 13.910
98.76000 16.523
98.78000 13.764
98.80000 18.295
98.82000 21.026
98.84000 14.169
98.86000 3.392
98.88000 -2.186
98.90000 6.859
98.92000 8.859
98.94000 12.081
98.96000 11.147
98.98000 9.945
99.00000 15.691
99.02000 11.849
99.04000 10.971
99.06000 12.842
99.08000 16.160
99.10000 22.306
99.12000 17.707
99.14000 17.293
99.16000 17.031
99.18000 13.675
99.20000 7.777
99.22000 7.376
99.24000 8.643
99.26000 -0.395
99.28000 3.556
99.30000 16.147
99.32000 18.252
99.34000 11.897
99.36000 5.817
99.38000 0.775
99.40000 8.522
99.42000 7.853
99.44000 11.373
99.46000 9.877
99.48000 17.680
99.50000 20.762
99.52000 14.544
99.54000 9.255
99.56000 7.791
99.58000 9.827
99.60000 22.535
99.62000 32.331
99.64000 15.593
99.66000 8.706
99.68000 8.242
99.70000 7.136
99.72000 13.186
99.74000 5.277
99.76000 2.937
99.78000 -0.497
99.80000 2.057
99.82000 -2.229
99.84000 1.458
99.86000 4.960
99.88000 -2.711
99.90000 6.522
99.92000 0.774
99.94000 -2.511
99.96000 1.649
99.98000 0.000
