'Id: "0011387" Comment: "Integrate frame 0011387_Au-Ir-Rh_Rh-rich_XRD-Mapping-178-0000.gfrmwith cursor Wedge Cursor #5" Operator: "B?rgel" Anode: "Cu" Wavelength: "1.5406" Scantype: "2Theta (TwoTheta)" TimePerStep: "1" X: "-45" Y: "4.5" Z: "5.95" 
10.00000 0.000
10.02000 6.589
10.04000 10.437
10.06000 1.697
10.08000 -4.543
10.10000 5.926
10.12000 12.851
10.14000 25.085
10.16000 29.415
10.18000 19.224
10.20000 7.057
10.22000 0.684
10.24000 0.493
10.26000 11.404
10.28000 21.160
10.30000 16.276
10.32000 -5.845
10.34000 13.425
10.36000 19.823
10.38000 14.870
10.40000 20.074
10.42000 13.805
10.44000 16.428
10.46000 6.541
10.48000 -4.526
10.50000 2.346
10.52000 15.264
10.54000 3.053
10.56000 8.562
10.58000 6.719
10.60000 15.990
10.62000 20.762
10.64000 3.640
10.66000 1.951
10.68000 5.652
10.70000 5.265
10.72000 3.365
10.74000 1.266
10.76000 3.573
10.78000 14.726
10.80000 17.420
10.82000 8.007
10.84000 1.076
10.86000 15.364
10.88000 24.174
10.90000 16.638
10.92000 7.452
10.94000 19.756
10.96000 18.538
10.98000 8.584
11.00000 20.876
11.02000 5.199
11.04000 -0.782
11.06000 8.004
11.08000 5.494
11.10000 19.724
11.12000 10.677
11.14000 15.369
11.16000 9.124
11.18000 3.059
11.20000 -4.024
11.22000 -3.228
11.24000 11.450
11.26000 13.493
11.28000 5.598
11.30000 14.616
11.32000 3.817
11.34000 5.075
11.36000 2.371
11.38000 5.176
11.40000 19.813
11.42000 23.958
11.44000 10.254
11.46000 10.933
11.48000 12.750
11.50000 12.732
11.52000 16.070
11.54000 4.879
11.56000 18.581
11.58000 9.695
11.60000 4.536
11.62000 17.706
11.64000 14.076
11.66000 17.150
11.68000 11.054
11.70000 12.117
11.72000 11.057
11.74000 27.067
11.76000 19.991
11.78000 10.373
11.80000 4.964
11.82000 3.281
11.84000 2.345
11.86000 -2.730
11.88000 8.973
11.90000 29.336
11.92000 23.563
11.94000 10.299
11.96000 11.578
11.98000 12.943
12.00000 5.963
12.02000 6.700
12.04000 11.656
12.06000 14.781
12.08000 20.160
12.10000 24.363
12.12000 19.104
12.14000 18.368
12.16000 18.167
12.18000 13.161
12.20000 20.847
12.22000 6.141
12.24000 5.654
12.26000 8.410
12.28000 -4.464
12.30000 6.876
12.32000 13.672
12.34000 14.103
12.36000 18.283
12.38000 21.898
12.40000 23.347
12.42000 18.608
12.44000 18.423
12.46000 23.480
12.48000 21.824
12.50000 14.501
12.52000 19.733
12.54000 12.669
12.56000 11.809
12.58000 11.860
12.60000 9.424
12.62000 15.733
12.64000 9.093
12.66000 15.140
12.68000 15.097
12.70000 20.368
12.72000 13.166
12.74000 10.881
12.76000 9.783
12.78000 11.337
12.80000 12.243
12.82000 7.850
12.84000 15.733
12.86000 7.514
12.88000 6.951
12.90000 7.418
12.92000 3.233
12.94000 5.136
12.96000 6.168
12.98000 5.414
13.00000 12.569
13.02000 12.398
13.04000 11.723
13.06000 7.482
13.08000 6.597
13.10000 20.089
13.12000 15.880
13.14000 16.344
13.16000 19.577
13.18000 9.606
13.20000 9.986
13.22000 6.048
13.24000 7.099
13.26000 8.597
13.28000 13.242
13.30000 17.139
13.32000 14.834
13.34000 7.282
13.36000 9.016
13.38000 5.491
13.40000 -2.552
13.42000 1.699
13.44000 8.069
13.46000 8.724
13.48000 2.307
13.50000 6.357
13.52000 9.933
13.54000 22.245
13.56000 10.081
13.58000 0.011
13.60000 -2.188
13.62000 2.102
13.64000 7.388
13.66000 5.074
13.68000 7.278
13.70000 2.629
13.72000 6.840
13.74000 4.824
13.76000 5.260
13.78000 4.377
13.80000 2.019
13.82000 8.923
13.84000 13.881
13.86000 7.357
13.88000 8.218
13.90000 2.240
13.92000 2.672
13.94000 6.104
13.96000 10.359
13.98000 6.261
14.00000 10.244
14.02000 6.218
14.04000 2.052
14.06000 8.514
14.08000 10.056
14.10000 13.077
14.12000 8.221
14.14000 13.477
14.16000 12.196
14.18000 2.827
14.20000 1.183
14.22000 7.010
14.24000 4.225
14.26000 0.292
14.28000 0.311
14.30000 8.996
14.32000 4.941
14.34000 3.035
14.36000 11.732
14.38000 8.395
14.40000 12.541
14.42000 10.925
14.44000 14.540
14.46000 12.828
14.48000 5.005
14.50000 11.738
14.52000 5.130
14.54000 3.107
14.56000 11.146
14.58000 10.015
14.60000 7.747
14.62000 11.340
14.64000 9.145
14.66000 11.089
14.68000 9.613
14.70000 7.327
14.72000 -1.335
14.74000 -2.100
14.76000 10.121
14.78000 6.058
14.80000 6.516
14.82000 6.133
14.84000 8.356
14.86000 3.521
14.88000 7.422
14.90000 14.959
14.92000 7.859
14.94000 3.920
14.96000 7.528
14.98000 1.540
15.00000 12.576
15.02000 4.260
15.04000 5.569
15.06000 9.576
15.08000 22.114
15.10000 16.240
15.12000 11.613
15.14000 4.505
15.16000 0.554
15.18000 10.085
15.20000 12.257
15.22000 3.449
15.24000 6.760
15.26000 10.313
15.28000 12.595
15.30000 13.674
15.32000 10.354
15.34000 15.195
15.36000 14.989
15.38000 9.528
15.40000 10.164
15.42000 10.153
15.44000 9.831
15.46000 8.465
15.48000 12.695
15.50000 14.573
15.52000 11.745
15.54000 11.058
15.56000 4.520
15.58000 -4.381
15.60000 0.792
15.62000 10.659
15.64000 16.311
15.66000 16.308
15.68000 9.490
15.70000 5.204
15.72000 7.559
15.74000 11.878
15.76000 9.538
15.78000 9.228
15.80000 9.109
15.82000 13.485
15.84000 8.991
15.86000 8.577
15.88000 12.193
15.90000 6.139
15.92000 9.128
15.94000 6.958
15.96000 12.891
15.98000 6.530
16.00000 1.393
16.02000 6.756
16.04000 8.966
16.06000 -0.656
16.08000 3.928
16.10000 6.895
16.12000 6.474
16.14000 2.297
16.16000 2.075
16.18000 4.038
16.20000 12.870
16.22000 12.680
16.24000 9.759
16.26000 4.311
16.28000 5.778
16.30000 3.779
16.32000 4.311
16.34000 9.910
16.36000 8.708
16.38000 7.646
16.40000 6.451
16.42000 5.675
16.44000 6.534
16.46000 -2.691
16.48000 3.767
16.50000 13.038
16.52000 7.618
16.54000 -1.201
16.56000 2.678
16.58000 4.603
16.60000 0.468
16.62000 -2.013
16.64000 -3.881
16.66000 3.526
16.68000 -0.988
16.70000 -1.387
16.72000 1.383
16.74000 9.859
16.76000 6.994
16.78000 -3.903
16.80000 2.792
16.82000 10.619
16.84000 11.805
16.86000 6.517
16.88000 7.973
16.90000 6.823
16.92000 4.967
16.94000 5.315
16.96000 -1.314
16.98000 2.491
17.00000 7.351
17.02000 3.954
17.04000 1.673
17.06000 6.113
17.08000 5.093
17.10000 12.359
17.12000 3.442
17.14000 -2.701
17.16000 -3.702
17.18000 2.476
17.20000 5.857
17.22000 1.676
17.24000 0.399
17.26000 6.597
17.28000 5.838
17.30000 7.866
17.32000 9.168
17.34000 6.509
17.36000 2.530
17.38000 -0.254
17.40000 -4.235
17.42000 -2.077
17.44000 -1.379
17.46000 11.707
17.48000 20.592
17.50000 14.483
17.52000 13.074
17.54000 14.255
17.56000 7.295
17.58000 6.703
17.60000 8.664
17.62000 5.649
17.64000 -4.343
17.66000 -0.766
17.68000 0.942
17.70000 1.289
17.72000 9.738
17.74000 10.090
17.76000 7.583
17.78000 0.934
17.80000 5.889
17.82000 9.727
17.84000 3.865
17.86000 4.491
17.88000 5.803
17.90000 11.571
17.92000 8.534
17.94000 3.433
17.96000 7.824
17.98000 13.735
18.00000 8.470
18.02000 0.925
18.04000 -0.886
18.06000 -4.311
18.08000 3.608
18.10000 5.264
18.12000 6.329
18.14000 6.524
18.16000 9.829
18.18000 14.924
18.20000 11.056
18.22000 1.229
18.24000 5.461
18.26000 8.816
18.28000 8.989
18.30000 2.567
18.32000 2.614
18.34000 4.698
18.36000 5.965
18.38000 9.116
18.40000 8.790
18.42000 10.062
18.44000 0.170
18.46000 -0.943
18.48000 6.482
18.50000 8.131
18.52000 8.677
18.54000 5.115
18.56000 9.927
18.58000 5.995
18.60000 -2.302
18.62000 1.421
18.64000 7.805
18.66000 6.413
18.68000 1.595
18.70000 -2.044
18.72000 -0.102
18.74000 6.949
18.76000 2.755
18.78000 -0.243
18.80000 -4.258
18.82000 0.281
18.84000 4.138
18.86000 4.263
18.88000 0.430
18.90000 3.967
18.92000 7.310
18.94000 7.094
18.96000 3.032
18.98000 2.781
19.00000 2.726
19.02000 1.816
19.04000 4.987
19.06000 3.084
19.08000 2.251
19.10000 3.134
19.12000 7.263
19.14000 8.955
19.16000 10.325
19.18000 15.413
19.20000 9.746
19.22000 10.970
19.24000 7.878
19.26000 2.662
19.28000 0.034
19.30000 1.647
19.32000 5.169
19.34000 2.831
19.36000 4.259
19.38000 7.802
19.40000 8.376
19.42000 12.490
19.44000 8.614
19.46000 6.093
19.48000 7.637
19.50000 5.204
19.52000 13.783
19.54000 4.216
19.56000 -1.901
19.58000 -4.219
19.60000 -2.475
19.62000 6.939
19.64000 3.875
19.66000 1.610
19.68000 0.117
19.70000 0.687
19.72000 2.268
19.74000 5.939
19.76000 0.097
19.78000 -0.207
19.80000 5.777
19.82000 5.646
19.84000 4.570
19.86000 6.839
19.88000 4.466
19.90000 2.952
19.92000 2.899
19.94000 0.772
19.96000 1.269
19.98000 4.660
20.00000 6.664
20.02000 3.745
20.04000 2.919
20.06000 0.138
20.08000 6.266
20.10000 6.521
20.12000 7.490
20.14000 -2.438
20.16000 -4.180
20.18000 -0.430
20.20000 -1.152
20.22000 0.160
20.24000 8.111
20.26000 15.950
20.28000 4.042
20.30000 5.442
20.32000 3.779
20.34000 -2.082
20.36000 -0.080
20.38000 3.609
20.40000 4.042
20.42000 6.174
20.44000 3.778
20.46000 1.219
20.48000 8.297
20.50000 2.273
20.52000 -0.459
20.54000 -0.902
20.56000 -2.478
20.58000 10.045
20.60000 11.673
20.62000 7.603
20.64000 6.243
20.66000 3.939
20.68000 0.402
20.70000 -0.412
20.72000 1.109
20.74000 11.512
20.76000 7.337
20.78000 3.873
20.80000 7.878
20.82000 6.410
20.84000 1.545
20.86000 0.824
20.88000 7.342
20.90000 5.302
20.92000 5.199
20.94000 1.424
20.96000 5.243
20.98000 6.745
21.00000 4.675
21.02000 2.101
21.04000 -0.114
21.06000 4.606
21.08000 5.364
21.10000 4.910
21.12000 4.290
21.14000 7.085
21.16000 4.819
21.18000 -1.691
21.20000 4.142
21.22000 2.712
21.24000 3.072
21.26000 2.950
21.28000 -4.123
21.30000 1.217
21.32000 6.512
21.34000 11.518
21.36000 6.282
21.38000 -2.523
21.40000 0.731
21.42000 7.459
21.44000 5.037
21.46000 6.401
21.48000 4.530
21.50000 12.494
21.52000 6.901
21.54000 2.102
21.56000 1.645
21.58000 0.413
21.60000 1.049
21.62000 2.832
21.64000 6.166
21.66000 2.894
21.68000 6.175
21.70000 9.468
21.72000 4.616
21.74000 4.428
21.76000 4.017
21.78000 -0.566
21.80000 0.873
21.82000 -0.211
21.84000 -3.586
21.86000 0.106
21.88000 -2.003
21.90000 -1.141
21.92000 7.499
21.94000 7.413
21.96000 6.646
21.98000 6.895
22.00000 7.975
22.02000 6.870
22.04000 4.431
22.06000 0.059
22.08000 2.001
22.10000 3.091
22.12000 0.927
22.14000 2.651
22.16000 4.713
22.18000 5.054
22.20000 2.676
22.22000 3.504
22.24000 1.053
22.26000 1.448
22.28000 2.348
22.30000 3.320
22.32000 4.666
22.34000 -3.465
22.36000 1.429
22.38000 1.382
22.40000 4.151
22.42000 5.277
22.44000 -0.724
22.46000 4.625
22.48000 6.152
22.50000 1.461
22.52000 7.601
22.54000 3.846
22.56000 -1.424
22.58000 -4.059
22.60000 -1.188
22.62000 -0.484
22.64000 4.270
22.66000 12.534
22.68000 -0.046
22.70000 2.174
22.72000 -1.092
22.74000 -1.490
22.76000 1.953
22.78000 0.392
22.80000 -2.178
22.82000 3.286
22.84000 0.696
22.86000 4.759
22.88000 7.619
22.90000 0.704
22.92000 4.041
22.94000 -0.259
22.96000 1.523
22.98000 -0.234
23.00000 0.964
23.02000 6.403
23.04000 4.582
23.06000 0.520
23.08000 -0.824
23.10000 -2.384
23.12000 2.714
23.14000 3.688
23.16000 3.202
23.18000 2.601
23.20000 5.659
23.22000 10.085
23.24000 10.939
23.26000 6.671
23.28000 1.436
23.30000 -0.650
23.32000 5.609
23.34000 4.587
23.36000 -1.213
23.38000 -0.730
23.40000 1.703
23.42000 5.598
23.44000 4.743
23.46000 1.173
23.48000 -2.012
23.50000 1.148
23.52000 4.892
23.54000 6.853
23.56000 -2.938
23.58000 -4.006
23.60000 -2.093
23.62000 1.663
23.64000 -1.879
23.66000 -2.174
23.68000 9.870
23.70000 9.461
23.72000 4.676
23.74000 7.784
23.76000 7.539
23.78000 4.621
23.80000 0.419
23.82000 10.330
23.84000 9.504
23.86000 4.679
23.88000 -2.253
23.90000 -0.710
23.92000 2.615
23.94000 3.321
23.96000 8.328
23.98000 8.044
24.00000 1.446
24.02000 -3.366
24.04000 -0.218
24.06000 2.786
24.08000 3.155
24.10000 1.119
24.12000 -3.271
24.14000 -3.281
24.16000 0.667
24.18000 0.698
24.20000 -1.632
24.22000 0.429
24.24000 -0.662
24.26000 2.588
24.28000 4.676
24.30000 -1.974
24.32000 -0.315
24.34000 -0.010
24.36000 1.813
24.38000 8.898
24.40000 7.701
24.42000 8.622
24.44000 7.790
24.46000 5.818
24.48000 3.631
24.50000 -0.121
24.52000 1.303
24.54000 5.074
24.56000 0.689
24.58000 3.479
24.60000 2.711
24.62000 3.329
24.64000 -0.063
24.66000 -1.273
24.68000 2.832
24.70000 2.388
24.72000 2.496
24.74000 4.908
24.76000 6.413
24.78000 1.442
24.80000 5.761
24.82000 5.293
24.84000 3.400
24.86000 10.388
24.88000 7.631
24.90000 8.186
24.92000 2.030
24.94000 0.830
24.96000 -2.306
24.98000 -3.924
25.00000 1.714
25.02000 4.436
25.04000 5.828
25.06000 4.280
25.08000 0.984
25.10000 2.781
25.12000 4.579
25.14000 -0.946
25.16000 -1.952
25.18000 4.240
25.20000 2.902
25.22000 0.580
25.24000 7.722
25.26000 8.564
25.28000 4.128
25.30000 6.898
25.32000 6.196
25.34000 3.890
25.36000 2.341
25.38000 -1.091
25.40000 4.378
25.42000 10.192
25.44000 11.192
25.46000 5.719
25.48000 5.372
25.50000 -0.365
25.52000 1.421
25.54000 2.920
25.56000 1.242
25.58000 2.689
25.60000 4.421
25.62000 6.211
25.64000 11.841
25.66000 14.588
25.68000 8.361
25.70000 6.718
25.72000 6.377
25.74000 3.480
25.76000 1.205
25.78000 2.793
25.80000 4.562
25.82000 4.232
25.84000 3.449
25.86000 1.041
25.88000 -3.863
25.90000 0.106
25.92000 3.677
25.94000 -1.825
25.96000 4.348
25.98000 1.415
26.00000 1.596
26.02000 2.206
26.04000 5.582
26.06000 1.729
26.08000 -0.148
26.10000 -1.315
26.12000 1.198
26.14000 5.353
26.16000 0.093
26.18000 -1.097
26.20000 2.361
26.22000 6.487
26.24000 -0.703
26.26000 3.273
26.28000 7.857
26.30000 4.534
26.32000 -0.767
26.34000 -2.679
26.36000 -3.132
26.38000 2.097
26.40000 2.262
26.42000 -3.022
26.44000 -3.392
26.46000 0.633
26.48000 3.129
26.50000 0.107
26.52000 1.835
26.54000 3.466
26.56000 8.338
26.58000 11.076
26.60000 3.327
26.62000 3.296
26.64000 1.461
26.66000 0.600
26.68000 -0.240
26.70000 0.872
26.72000 -2.634
26.74000 0.890
26.76000 0.903
26.78000 -1.559
26.80000 3.007
26.82000 8.982
26.84000 4.217
26.86000 -3.823
26.88000 0.145
26.90000 2.076
26.92000 7.466
26.94000 13.328
26.96000 7.369
26.98000 5.002
27.00000 2.785
27.02000 1.991
27.04000 3.007
27.06000 5.135
27.08000 9.784
27.10000 6.532
27.12000 3.151
27.14000 6.428
27.16000 7.181
27.18000 1.621
27.20000 0.098
27.22000 2.214
27.24000 -0.658
27.26000 2.207
27.28000 9.191
27.30000 8.172
27.32000 4.527
27.34000 3.353
27.36000 3.456
27.38000 8.393
27.40000 7.541
27.42000 1.646
27.44000 6.169
27.46000 7.377
27.48000 4.088
27.50000 -2.695
27.52000 -3.594
27.54000 0.822
27.56000 2.585
27.58000 2.529
27.60000 5.219
27.62000 3.741
27.64000 2.569
27.66000 5.795
27.68000 7.580
27.70000 9.016
27.72000 11.048
27.74000 12.346
27.76000 4.868
27.78000 3.969
27.80000 4.434
27.82000 -0.827
27.84000 -3.764
27.86000 4.546
27.88000 13.328
27.90000 7.999
27.92000 -0.794
27.94000 2.925
27.96000 0.057
27.98000 -1.049
28.00000 2.814
28.02000 6.935
28.04000 3.133
28.06000 0.228
28.08000 4.397
28.10000 9.091
28.12000 1.871
28.14000 6.778
28.16000 12.286
28.18000 10.922
28.20000 9.287
28.22000 5.304
28.24000 2.286
28.26000 5.174
28.28000 2.758
28.30000 0.574
28.32000 -0.566
28.34000 4.530
28.36000 6.228
28.38000 -1.857
28.40000 -1.127
28.42000 5.431
28.44000 6.829
28.46000 6.207
28.48000 0.133
28.50000 0.250
28.52000 5.739
28.54000 8.304
28.56000 4.625
28.58000 4.245
28.60000 6.437
28.62000 2.440
28.64000 1.435
28.66000 2.085
28.68000 4.761
28.70000 4.923
28.72000 0.964
28.74000 4.865
28.76000 1.184
28.78000 -3.710
28.80000 0.624
28.82000 3.423
28.84000 2.369
28.86000 4.288
28.88000 5.167
28.90000 6.181
28.92000 9.575
28.94000 4.361
28.96000 -1.291
28.98000 5.137
29.00000 5.984
29.02000 4.590
29.04000 4.710
29.06000 3.149
29.08000 4.336
29.10000 7.775
29.12000 4.504
29.14000 2.830
29.16000 1.593
29.18000 -0.033
29.20000 2.551
29.22000 0.352
29.24000 5.184
29.26000 3.746
29.28000 9.273
29.30000 10.576
29.32000 6.801
29.34000 3.903
29.36000 3.768
29.38000 -0.441
29.40000 -2.088
29.42000 -0.938
29.44000 0.826
29.46000 4.810
29.48000 1.980
29.50000 6.401
29.52000 5.624
29.54000 2.551
29.56000 3.566
29.58000 -3.505
29.60000 -3.364
29.62000 3.183
29.64000 4.814
29.66000 7.046
29.68000 2.731
29.70000 1.895
29.72000 6.051
29.74000 6.281
29.76000 7.881
29.78000 10.595
29.80000 3.994
29.82000 2.101
29.84000 3.896
29.86000 2.608
29.88000 -0.448
29.90000 -3.643
29.92000 4.148
29.94000 9.959
29.96000 11.867
29.98000 6.312
30.00000 5.938
30.02000 5.048
30.04000 6.615
30.06000 7.653
30.08000 7.147
30.10000 7.380
30.12000 3.536
30.14000 7.349
30.16000 4.526
30.18000 6.651
30.20000 4.743
30.22000 4.229
30.24000 0.203
30.26000 0.145
30.28000 1.189
30.30000 3.269
30.32000 -0.675
30.34000 -0.324
30.36000 2.258
30.38000 3.500
30.40000 5.051
30.42000 6.174
30.44000 3.339
30.46000 2.134
30.48000 -0.932
30.50000 -2.087
30.52000 6.823
30.54000 4.701
30.56000 5.955
30.58000 4.963
30.60000 3.920
30.62000 2.615
30.64000 6.286
30.66000 3.705
30.68000 3.936
30.70000 2.943
30.72000 5.238
30.74000 3.024
30.76000 1.447
30.78000 3.758
30.80000 4.407
30.82000 3.983
30.84000 4.322
30.86000 -3.610
30.88000 -3.569
30.90000 1.341
30.92000 3.133
30.94000 4.646
30.96000 4.292
30.98000 -0.126
31.00000 1.547
31.02000 9.077
31.04000 4.491
31.06000 0.328
31.08000 2.155
31.10000 1.987
31.12000 -0.706
31.14000 1.551
31.16000 4.431
31.18000 0.225
31.20000 4.392
31.22000 4.397
31.24000 3.948
31.26000 5.469
31.28000 9.005
31.30000 6.065
31.32000 1.175
31.34000 -3.032
31.36000 -2.324
31.38000 3.610
31.40000 6.864
31.42000 6.955
31.44000 2.690
31.46000 3.229
31.48000 3.625
31.50000 1.665
31.52000 2.449
31.54000 7.278
31.56000 7.140
31.58000 6.163
31.60000 7.505
31.62000 4.604
31.64000 3.790
31.66000 3.365
31.68000 -0.868
31.70000 3.357
31.72000 3.872
31.74000 4.300
31.76000 2.041
31.78000 -2.863
31.80000 2.143
31.82000 2.106
31.84000 5.366
31.86000 8.484
31.88000 6.508
31.90000 6.816
31.92000 1.163
31.94000 6.661
31.96000 8.441
31.98000 4.870
32.00000 3.200
32.02000 0.757
32.04000 3.688
32.06000 -2.368
32.08000 4.021
32.10000 4.172
32.12000 3.509
32.14000 2.716
32.16000 4.273
32.18000 4.103
32.20000 -1.072
32.22000 3.819
32.24000 4.281
32.26000 4.326
32.28000 4.521
32.30000 -1.205
32.32000 -3.548
32.34000 -2.272
32.36000 0.610
32.38000 6.947
32.40000 3.168
32.42000 5.050
32.44000 2.948
32.46000 2.218
32.48000 6.100
32.50000 7.774
32.52000 -0.287
32.54000 1.075
32.56000 -3.546
32.58000 1.982
32.60000 2.209
32.62000 -0.382
32.64000 3.380
32.66000 2.647
32.68000 1.922
32.70000 3.390
32.72000 6.479
32.74000 5.229
32.76000 6.789
32.78000 6.607
32.80000 6.285
32.82000 3.818
32.84000 -0.259
32.86000 0.620
32.88000 -2.951
32.90000 0.640
32.92000 0.043
32.94000 -3.545
32.96000 -1.186
32.98000 2.969
33.00000 2.061
33.02000 -1.695
33.04000 -2.951
33.06000 -0.191
33.08000 2.476
33.10000 -1.600
33.12000 -0.216
33.14000 2.384
33.16000 -0.129
33.18000 0.238
33.20000 1.887
33.22000 -0.471
33.24000 0.583
33.26000 3.573
33.28000 5.089
33.30000 9.220
33.32000 5.794
33.34000 3.243
33.36000 2.331
33.38000 2.820
33.40000 5.591
33.42000 8.147
33.44000 4.642
33.46000 0.857
33.48000 8.681
33.50000 5.355
33.52000 9.759
33.54000 9.070
33.56000 3.122
33.58000 2.998
33.60000 1.962
33.62000 2.078
33.64000 6.793
33.66000 5.416
33.68000 0.381
33.70000 1.686
33.72000 0.694
33.74000 -1.861
33.76000 2.527
33.78000 7.384
33.80000 4.662
33.82000 2.351
33.84000 4.010
33.86000 5.590
33.88000 5.010
33.90000 2.860
33.92000 3.053
33.94000 -3.524
33.96000 -3.199
33.98000 3.580
34.00000 3.918
34.02000 -0.582
34.04000 5.025
34.06000 4.674
34.08000 9.343
34.10000 3.495
34.12000 -0.138
34.14000 2.191
34.16000 0.474
34.18000 -3.167
34.20000 0.353
34.22000 3.350
34.24000 5.961
34.26000 1.834
34.28000 0.536
34.30000 2.145
34.32000 4.571
34.34000 -1.160
34.36000 0.577
34.38000 3.334
34.40000 0.997
34.42000 -2.870
34.44000 -1.721
34.46000 0.763
34.48000 2.662
34.50000 3.007
34.52000 4.026
34.54000 -2.025
34.56000 -2.315
34.58000 4.217
34.60000 4.742
34.62000 0.834
34.64000 1.905
34.66000 6.682
34.68000 2.308
34.70000 4.182
34.72000 6.933
34.74000 8.863
34.76000 6.882
34.78000 0.169
34.80000 -3.227
34.82000 -1.818
34.84000 -0.979
34.86000 0.942
34.88000 1.168
34.90000 5.458
34.92000 1.573
34.94000 3.006
34.96000 3.322
34.98000 -1.232
35.00000 -0.233
35.02000 -1.063
35.04000 -1.419
35.06000 6.371
35.08000 8.935
35.10000 5.354
35.12000 6.476
35.14000 2.092
35.16000 -3.504
35.18000 -2.969
35.20000 0.175
35.22000 1.657
35.24000 1.732
35.26000 -0.528
35.28000 1.422
35.30000 1.990
35.32000 -1.354
35.34000 0.248
35.36000 0.996
35.38000 4.755
35.40000 9.144
35.42000 7.889
35.44000 4.077
35.46000 1.761
35.48000 -1.557
35.50000 -1.584
35.52000 0.604
35.54000 2.834
35.56000 5.915
35.58000 4.338
35.60000 3.870
35.62000 1.922
35.64000 3.476
35.66000 3.608
35.68000 2.249
35.70000 0.931
35.72000 1.681
35.74000 3.334
35.76000 1.553
35.78000 -3.475
35.80000 6.881
35.82000 9.941
35.84000 9.503
35.86000 9.029
35.88000 5.456
35.90000 0.276
35.92000 -2.040
35.94000 4.516
35.96000 3.659
35.98000 3.874
36.00000 4.283
36.02000 -0.977
36.04000 -1.309
36.06000 1.506
36.08000 6.484
36.10000 3.849
36.12000 4.187
36.14000 4.027
36.16000 0.066
36.18000 -3.002
36.20000 -0.534
36.22000 -0.049
36.24000 2.305
36.26000 6.109
36.28000 0.916
36.30000 -0.313
36.32000 1.376
36.34000 0.835
36.36000 -3.483
36.38000 1.676
36.40000 2.725
36.42000 4.867
36.44000 7.085
36.46000 5.748
36.48000 4.422
36.50000 -1.077
36.52000 -1.489
36.54000 2.940
36.56000 -0.199
36.58000 1.003
36.60000 2.493
36.62000 3.289
36.64000 1.983
36.66000 2.877
36.68000 4.221
36.70000 4.810
36.72000 5.259
36.74000 6.087
36.76000 6.979
36.78000 0.012
36.80000 -0.365
36.82000 1.304
36.84000 0.050
36.86000 -0.685
36.88000 2.453
36.90000 -0.726
36.92000 -0.088
36.94000 0.040
36.96000 -0.155
36.98000 -3.504
37.00000 0.409
37.02000 1.053
37.04000 -2.151
37.06000 0.416
37.08000 1.987
37.10000 4.457
37.12000 2.112
37.14000 0.959
37.16000 9.282
37.18000 8.920
37.20000 -0.652
37.22000 0.620
37.24000 2.868
37.26000 -0.165
37.28000 -3.518
37.30000 1.067
37.32000 1.413
37.34000 0.196
37.36000 -2.898
37.38000 0.299
37.40000 -0.629
37.42000 2.627
37.44000 4.310
37.46000 3.886
37.48000 4.843
37.50000 3.049
37.52000 0.355
37.54000 -0.245
37.56000 2.081
37.58000 6.746
37.60000 4.880
37.62000 5.402
37.64000 3.500
37.66000 4.516
37.68000 9.689
37.70000 7.317
37.72000 12.765
37.74000 11.133
37.76000 4.443
37.78000 3.886
37.80000 5.856
37.82000 9.899
37.84000 7.100
37.86000 2.220
37.88000 2.007
37.90000 3.648
37.92000 6.392
37.94000 6.459
37.96000 8.494
37.98000 4.315
38.00000 4.311
38.02000 7.072
38.04000 13.850
38.06000 17.220
38.08000 15.806
38.10000 12.968
38.12000 11.945
38.14000 5.657
38.16000 8.433
38.18000 10.754
38.20000 12.487
38.22000 11.096
38.24000 13.390
38.26000 16.131
38.28000 13.248
38.30000 11.719
38.32000 18.067
38.34000 18.397
38.36000 17.772
38.38000 12.780
38.40000 8.438
38.42000 16.957
38.44000 22.206
38.46000 19.955
38.48000 21.126
38.50000 19.883
38.52000 23.113
38.54000 20.086
38.56000 24.298
38.58000 27.590
38.60000 27.602
38.62000 33.230
38.64000 27.667
38.66000 26.254
38.68000 28.822
38.70000 28.117
38.72000 27.842
38.74000 28.536
38.76000 32.067
38.78000 35.387
38.80000 36.675
38.82000 38.012
38.84000 41.331
38.86000 40.645
38.88000 40.844
38.90000 38.418
38.92000 42.400
38.94000 48.427
38.96000 48.373
38.98000 43.645
39.00000 46.590
39.02000 49.576
39.04000 47.469
39.06000 51.434
39.08000 51.875
39.10000 55.206
39.12000 56.678
39.14000 60.824
39.16000 65.115
39.18000 67.085
39.20000 73.994
39.22000 71.560
39.24000 72.946
39.26000 76.720
39.28000 79.126
39.30000 89.214
39.32000 91.906
39.34000 99.077
39.36000 99.301
39.38000 104.997
39.40000 112.514
39.42000 116.002
39.44000 121.140
39.46000 125.316
39.48000 131.912
39.50000 142.491
39.52000 151.367
39.54000 158.398
39.56000 162.913
39.58000 175.720
39.60000 188.625
39.62000 198.793
39.64000 208.757
39.66000 218.643
39.68000 234.843
39.70000 250.725
39.72000 269.275
39.74000 289.667
39.76000 300.282
39.78000 312.822
39.80000 334.433
39.82000 358.698
39.84000 379.379
39.86000 405.525
39.88000 432.555
39.90000 452.725
39.92000 486.473
39.94000 517.628
39.96000 539.028
39.98000 572.961
40.00000 595.587
40.02000 636.737
40.04000 673.092
40.06000 714.191
40.08000 747.458
40.10000 776.016
40.12000 807.066
40.14000 834.149
40.16000 861.628
40.18000 891.229
40.20000 916.445
40.22000 933.909
40.24000 953.945
40.26000 962.277
40.28000 962.641
40.30000 966.434
40.32000 967.178
40.34000 966.608
40.36000 976.895
40.38000 974.987
40.40000 961.286
40.42000 947.496
40.44000 931.720
40.46000 918.219
40.48000 899.306
40.50000 882.220
40.52000 847.922
40.54000 821.243
40.56000 786.522
40.58000 763.000
40.60000 732.346
40.62000 700.083
40.64000 669.139
40.66000 633.142
40.68000 603.233
40.70000 577.079
40.72000 545.147
40.74000 523.683
40.76000 495.127
40.78000 473.041
40.80000 450.107
40.82000 426.472
40.84000 392.809
40.86000 366.302
40.88000 351.212
40.90000 327.999
40.92000 306.945
40.94000 297.583
40.96000 285.011
40.98000 265.129
41.00000 251.215
41.02000 227.581
41.04000 215.499
41.06000 201.701
41.08000 186.534
41.10000 174.599
41.12000 169.638
41.14000 162.309
41.16000 150.161
41.18000 146.690
41.20000 136.680
41.22000 128.372
41.24000 114.867
41.26000 103.002
41.28000 104.148
41.30000 108.306
41.32000 97.725
41.34000 92.379
41.36000 87.669
41.38000 87.459
41.40000 78.049
41.42000 73.075
41.44000 74.081
41.46000 67.926
41.48000 63.417
41.50000 68.274
41.52000 61.058
41.54000 57.029
41.56000 51.557
41.58000 45.986
41.60000 44.961
41.62000 44.555
41.64000 44.842
41.66000 43.332
41.68000 43.043
41.70000 38.175
41.72000 37.190
41.74000 36.527
41.76000 35.190
41.78000 28.248
41.80000 28.413
41.82000 31.422
41.84000 23.297
41.86000 21.198
41.88000 20.419
41.90000 21.647
41.92000 23.634
41.94000 21.636
41.96000 22.278
41.98000 26.931
42.00000 23.125
42.02000 18.867
42.04000 17.793
42.06000 16.849
42.08000 12.759
42.10000 11.088
42.12000 6.144
42.14000 9.177
42.16000 10.835
42.18000 7.954
42.20000 12.569
42.22000 10.750
42.24000 10.155
42.26000 10.050
42.28000 11.194
42.30000 8.283
42.32000 8.805
42.34000 5.208
42.36000 3.816
42.38000 6.596
42.40000 4.654
42.42000 2.337
42.44000 2.402
42.46000 7.765
42.48000 5.707
42.50000 1.322
42.52000 1.054
42.54000 2.448
42.56000 -0.558
42.58000 1.415
42.60000 0.673
42.62000 -0.547
42.64000 0.992
42.66000 -2.624
42.68000 0.229
42.70000 2.459
42.72000 4.548
42.74000 7.958
42.76000 1.966
42.78000 -2.828
42.80000 -2.640
42.82000 -0.729
42.84000 -0.700
42.86000 -0.795
42.88000 0.789
42.90000 3.696
42.92000 1.671
42.94000 1.470
42.96000 -0.305
42.98000 -0.041
43.00000 1.795
43.02000 4.028
43.04000 1.883
43.06000 1.397
43.08000 0.016
43.10000 -0.295
43.12000 -0.969
43.14000 -2.066
43.16000 -1.238
43.18000 -2.386
43.20000 3.351
43.22000 2.805
43.24000 1.066
43.26000 2.077
43.28000 2.213
43.30000 1.521
43.32000 -3.419
43.34000 -3.185
43.36000 1.445
43.38000 2.331
43.40000 -0.533
43.42000 1.348
43.44000 2.020
43.46000 -1.434
43.48000 -0.899
43.50000 -0.434
43.52000 -1.228
43.54000 -2.892
43.56000 -1.292
43.58000 1.270
43.60000 1.607
43.62000 0.522
43.64000 -0.622
43.66000 1.264
43.68000 3.585
43.70000 0.354
43.72000 -0.455
43.74000 -2.137
43.76000 0.117
43.78000 0.274
43.80000 -1.137
43.82000 1.692
43.84000 -3.343
43.86000 -2.139
43.88000 3.267
43.90000 1.846
43.92000 2.328
43.94000 6.565
43.96000 -0.022
43.98000 -1.872
44.00000 -2.871
44.02000 -3.334
44.04000 1.063
44.06000 1.378
44.08000 1.905
44.10000 3.131
44.12000 0.604
44.14000 1.968
44.16000 2.927
44.18000 0.579
44.20000 2.659
44.22000 -0.778
44.24000 3.039
44.26000 -0.995
44.28000 -0.844
44.30000 1.084
44.32000 -0.131
44.34000 5.759
44.36000 4.220
44.38000 2.546
44.40000 -3.313
44.42000 -1.362
44.44000 1.884
44.46000 2.597
44.48000 -0.802
44.50000 0.504
44.52000 -0.019
44.54000 1.759
44.56000 0.537
44.58000 3.937
44.60000 4.433
44.62000 3.877
44.64000 5.550
44.66000 3.874
44.68000 0.690
44.70000 1.285
44.72000 1.388
44.74000 1.028
44.76000 2.282
44.78000 6.188
44.80000 4.724
44.82000 2.490
44.84000 2.952
44.86000 2.172
44.88000 -3.304
44.90000 -0.432
44.92000 2.146
44.94000 2.024
44.96000 2.784
44.98000 4.161
45.00000 7.417
45.02000 2.064
45.04000 3.806
45.06000 3.105
45.08000 3.201
45.10000 2.046
45.12000 1.218
45.14000 2.792
45.16000 4.016
45.18000 7.529
45.20000 6.942
45.22000 3.798
45.24000 5.833
45.26000 5.868
45.28000 4.399
45.30000 7.879
45.32000 7.982
45.34000 11.378
45.36000 8.234
45.38000 8.465
45.40000 6.267
45.42000 10.492
45.44000 14.170
45.46000 15.108
45.48000 16.211
45.50000 9.421
45.52000 8.787
45.54000 14.116
45.56000 15.465
45.58000 13.681
45.60000 15.206
45.62000 14.989
45.64000 17.617
45.66000 21.571
45.68000 23.954
45.70000 22.413
45.72000 26.286
45.74000 27.019
45.76000 25.747
45.78000 24.345
45.80000 24.160
45.82000 26.117
45.84000 25.431
45.86000 25.919
45.88000 30.693
45.90000 36.110
45.92000 35.987
45.94000 35.497
45.96000 37.480
45.98000 40.524
46.00000 41.924
46.02000 41.308
46.04000 45.035
46.06000 45.900
46.08000 49.919
46.10000 52.831
46.12000 57.603
46.14000 59.156
46.16000 70.580
46.18000 68.990
46.20000 63.785
46.22000 67.813
46.24000 71.376
46.26000 77.063
46.28000 83.473
46.30000 81.643
46.32000 84.621
46.34000 82.336
46.36000 86.280
46.38000 97.193
46.40000 103.487
46.42000 108.220
46.44000 110.793
46.46000 107.093
46.48000 110.749
46.50000 118.990
46.52000 124.217
46.54000 136.733
46.56000 139.791
46.58000 138.498
46.60000 149.749
46.62000 152.725
46.64000 156.112
46.66000 158.620
46.68000 162.922
46.70000 174.995
46.72000 178.155
46.74000 180.065
46.76000 179.194
46.78000 190.403
46.80000 196.307
46.82000 199.098
46.84000 203.198
46.86000 201.541
46.88000 204.968
46.90000 210.704
46.92000 211.429
46.94000 209.144
46.96000 217.083
46.98000 210.813
47.00000 199.075
47.02000 200.152
47.04000 204.834
47.06000 199.170
47.08000 203.673
47.10000 196.165
47.12000 183.547
47.14000 186.342
47.16000 180.821
47.18000 181.741
47.20000 174.679
47.22000 168.689
47.24000 157.104
47.26000 158.231
47.28000 145.213
47.30000 139.058
47.32000 139.937
47.34000 132.788
47.36000 127.208
47.38000 128.280
47.40000 110.766
47.42000 107.166
47.44000 104.054
47.46000 90.613
47.48000 89.079
47.50000 89.045
47.52000 85.131
47.54000 80.251
47.56000 77.700
47.58000 67.622
47.60000 66.417
47.62000 66.802
47.64000 58.318
47.66000 58.809
47.68000 52.965
47.70000 52.840
47.72000 50.756
47.74000 40.618
47.76000 44.679
47.78000 43.028
47.80000 36.367
47.82000 38.743
47.84000 38.060
47.86000 36.544
47.88000 31.986
47.90000 28.456
47.92000 26.296
47.94000 22.909
47.96000 19.875
47.98000 19.082
48.00000 20.367
48.02000 23.669
48.04000 18.206
48.06000 16.154
48.08000 15.508
48.10000 13.921
48.12000 14.425
48.14000 16.980
48.16000 12.858
48.18000 15.792
48.20000 13.518
48.22000 7.790
48.24000 6.678
48.26000 4.566
48.28000 7.605
48.30000 7.528
48.32000 8.562
48.34000 6.392
48.36000 4.982
48.38000 2.775
48.40000 6.698
48.42000 7.396
48.44000 6.030
48.46000 0.668
48.48000 0.707
48.50000 5.160
48.52000 6.995
48.54000 3.907
48.56000 5.493
48.58000 0.363
48.60000 0.276
48.62000 6.471
48.64000 9.443
48.66000 5.182
48.68000 2.226
48.70000 3.805
48.72000 0.201
48.74000 1.401
48.76000 2.879
48.78000 3.168
48.80000 -2.859
48.82000 -0.918
48.84000 -1.693
48.86000 3.250
48.88000 4.628
48.90000 3.637
48.92000 4.572
48.94000 8.268
48.96000 4.787
48.98000 4.056
49.00000 7.040
49.02000 3.619
49.04000 1.618
49.06000 0.397
49.08000 2.241
49.10000 2.918
49.12000 2.417
49.14000 1.212
49.16000 -2.778
49.18000 -1.133
49.20000 2.555
49.22000 -1.102
49.24000 -1.001
49.26000 -0.970
49.28000 0.823
49.30000 2.168
49.32000 3.613
49.34000 4.104
49.36000 5.078
49.38000 1.987
49.40000 3.691
49.42000 1.467
49.44000 1.978
49.46000 -0.288
49.48000 4.595
49.50000 3.846
49.52000 3.472
49.54000 2.140
49.56000 -0.124
49.58000 1.143
49.60000 5.618
49.62000 3.176
49.64000 3.238
49.66000 4.002
49.68000 3.180
49.70000 5.687
49.72000 4.320
49.74000 0.532
49.76000 0.623
49.78000 -0.525
49.80000 3.006
49.82000 3.644
49.84000 6.025
49.86000 3.360
49.88000 2.522
49.90000 3.756
49.92000 -1.019
49.94000 -1.439
49.96000 -2.661
49.98000 1.168
50.00000 -0.669
50.02000 -0.420
50.04000 7.604
50.06000 1.774
50.08000 2.689
50.10000 3.678
50.12000 3.442
50.14000 2.461
50.16000 2.683
50.18000 2.507
50.20000 0.194
50.22000 1.034
50.24000 -0.722
50.26000 2.999
50.28000 0.553
50.30000 1.452
50.32000 -0.142
50.34000 3.847
50.36000 0.423
50.38000 2.796
50.40000 3.128
50.42000 3.347
50.44000 -2.608
50.46000 -1.058
50.48000 5.053
50.50000 3.284
50.52000 0.359
50.54000 1.222
50.56000 0.742
50.58000 -0.436
50.60000 -1.865
50.62000 2.057
50.64000 5.536
50.66000 8.455
50.68000 5.137
50.70000 -1.811
50.72000 0.902
50.74000 2.807
50.76000 1.671
50.78000 0.567
50.80000 1.529
50.82000 1.999
50.84000 -0.365
50.86000 -1.402
50.88000 -0.160
50.90000 2.574
50.92000 1.979
50.94000 -2.607
50.96000 -1.392
50.98000 2.805
51.00000 3.355
51.02000 -0.656
51.04000 -0.562
51.06000 -0.742
51.08000 3.976
51.10000 4.409
51.12000 5.479
51.14000 1.317
51.16000 -0.993
51.18000 0.837
51.20000 0.184
51.22000 0.388
51.24000 0.147
51.26000 2.628
51.28000 1.828
51.30000 0.683
51.32000 -0.027
51.34000 0.825
51.36000 2.776
51.38000 4.282
51.40000 8.361
51.42000 4.699
51.44000 5.777
51.46000 7.029
51.48000 5.356
51.50000 -1.094
51.52000 -2.546
51.54000 2.681
51.56000 3.250
51.58000 2.157
51.60000 0.616
51.62000 -0.032
51.64000 1.036
51.66000 0.179
51.68000 1.608
51.70000 4.484
51.72000 3.090
51.74000 3.645
51.76000 1.623
51.78000 1.423
51.80000 4.242
51.82000 -0.742
51.84000 2.188
51.86000 5.921
51.88000 4.301
51.90000 0.770
51.92000 -1.511
51.94000 -0.293
51.96000 4.851
51.98000 3.359
52.00000 6.414
52.02000 5.389
52.04000 1.455
52.06000 -2.537
52.08000 -2.536
52.10000 0.224
52.12000 0.587
52.14000 2.744
52.16000 3.564
52.18000 3.957
52.20000 1.733
52.22000 0.544
52.24000 -0.392
52.26000 0.562
52.28000 2.133
52.30000 5.044
52.32000 4.719
52.34000 2.978
52.36000 7.219
52.38000 8.882
52.40000 5.478
52.42000 6.913
52.44000 5.486
52.46000 3.071
52.48000 4.328
52.50000 3.529
52.52000 3.474
52.54000 4.684
52.56000 4.906
52.58000 5.688
52.60000 4.603
52.62000 3.238
52.64000 0.986
52.66000 2.111
52.68000 0.308
52.70000 -0.616
52.72000 -1.020
52.74000 1.200
52.76000 2.918
52.78000 4.272
52.80000 2.391
52.82000 2.131
52.84000 -0.034
52.86000 -2.508
52.88000 -0.546
52.90000 2.336
52.92000 3.177
52.94000 0.771
52.96000 -1.394
52.98000 -2.505
53.00000 -0.056
53.02000 0.371
53.04000 1.059
53.06000 0.793
53.08000 0.912
53.10000 3.425
53.12000 2.402
53.14000 2.363
53.16000 3.668
53.18000 5.050
53.20000 3.163
53.22000 6.675
53.24000 5.848
53.26000 6.529
53.28000 1.787
53.30000 1.770
53.32000 2.084
53.34000 0.786
53.36000 0.824
53.38000 6.296
53.40000 3.284
53.42000 1.565
53.44000 1.138
53.46000 0.157
53.48000 -1.160
53.50000 0.035
53.52000 1.559
53.54000 0.575
53.56000 0.714
53.58000 1.182
53.60000 1.556
53.62000 2.884
53.64000 2.263
53.66000 0.445
53.68000 -0.637
53.70000 3.101
53.72000 -2.169
53.74000 -2.493
53.76000 -0.216
53.78000 -1.355
53.80000 -0.313
53.82000 4.134
53.84000 2.988
53.86000 4.131
53.88000 5.775
53.90000 5.845
53.92000 5.453
53.94000 1.865
53.96000 1.359
53.98000 -0.941
54.00000 -0.889
54.02000 2.042
54.04000 1.438
54.06000 3.110
54.08000 6.220
54.10000 3.051
54.12000 1.949
54.14000 -0.780
54.16000 1.979
54.18000 2.789
54.20000 3.428
54.22000 0.882
54.24000 2.441
54.26000 1.443
54.28000 1.940
54.30000 -1.509
54.32000 1.522
54.34000 2.079
54.36000 2.736
54.38000 5.065
54.40000 3.855
54.42000 0.009
54.44000 4.831
54.46000 6.056
54.48000 5.836
54.50000 3.168
54.52000 0.821
54.54000 4.697
54.56000 6.154
54.58000 4.173
54.60000 2.571
54.62000 4.007
54.64000 3.682
54.66000 -0.435
54.68000 -2.463
54.70000 1.904
54.72000 5.438
54.74000 3.034
54.76000 0.832
54.78000 5.301
54.80000 2.865
54.82000 1.730
54.84000 1.432
54.86000 2.878
54.88000 3.897
54.90000 1.841
54.92000 2.985
54.94000 4.469
54.96000 6.474
54.98000 2.595
55.00000 1.165
55.02000 0.959
55.04000 -1.084
55.06000 -0.007
55.08000 1.087
55.10000 0.626
55.12000 3.492
55.14000 2.609
55.16000 5.061
55.18000 1.918
55.20000 1.396
55.22000 -1.063
55.24000 -2.461
55.26000 -0.681
55.28000 2.375
55.30000 -2.273
55.32000 -2.461
55.34000 1.235
55.36000 1.298
55.38000 -2.294
55.40000 -2.049
55.42000 -0.081
55.44000 2.592
55.46000 -0.544
55.48000 -1.526
55.50000 -2.163
55.52000 0.823
55.54000 1.097
55.56000 5.488
55.58000 2.888
55.60000 4.684
55.62000 2.454
55.64000 1.795
55.66000 6.673
55.68000 5.912
55.70000 3.622
55.72000 1.888
55.74000 2.526
55.76000 1.642
55.78000 -0.102
55.80000 3.043
55.82000 1.120
55.84000 -0.783
55.86000 1.305
55.88000 -0.087
55.90000 1.527
55.92000 -0.492
55.94000 0.391
55.96000 -0.038
55.98000 -0.504
56.00000 -1.677
56.02000 -1.774
56.04000 -0.680
56.06000 0.538
56.08000 -1.655
56.10000 -0.634
56.12000 -1.118
56.14000 0.118
56.16000 1.024
56.18000 1.771
56.20000 4.377
56.22000 0.762
56.24000 0.478
56.26000 -2.449
56.28000 0.872
56.30000 5.904
56.32000 0.056
56.34000 -2.060
56.36000 -0.826
56.38000 3.435
56.40000 4.267
56.42000 2.384
56.44000 -0.984
56.46000 -1.025
56.48000 -1.657
56.50000 0.501
56.52000 3.955
56.54000 2.563
56.56000 1.151
56.58000 1.504
56.60000 1.678
56.62000 2.547
56.64000 4.097
56.66000 0.298
56.68000 -1.114
56.70000 -1.479
56.72000 -1.771
56.74000 -1.954
56.76000 0.416
56.78000 3.733
56.80000 3.380
56.82000 2.911
56.84000 0.428
56.86000 3.782
56.88000 4.919
56.90000 2.467
56.92000 1.370
56.94000 3.322
56.96000 2.996
56.98000 1.892
57.00000 1.703
57.02000 1.714
57.04000 1.783
57.06000 1.432
57.08000 1.922
57.10000 5.322
57.12000 4.065
57.14000 3.479
57.16000 4.083
57.18000 4.555
57.20000 1.012
57.22000 0.567
57.24000 1.878
57.26000 1.591
57.28000 3.851
57.30000 5.341
57.32000 4.021
57.34000 3.502
57.36000 2.511
57.38000 2.565
57.40000 6.306
57.42000 3.420
57.44000 1.543
57.46000 -2.001
57.48000 0.217
57.50000 0.102
57.52000 -0.227
57.54000 -2.349
57.56000 -0.571
57.58000 1.059
57.60000 -0.828
57.62000 3.958
57.64000 3.999
57.66000 1.899
57.68000 0.017
57.70000 2.979
57.72000 3.242
57.74000 -0.535
57.76000 -0.251
57.78000 1.061
57.80000 2.558
57.82000 2.286
57.84000 2.476
57.86000 1.267
57.88000 5.381
57.90000 6.864
57.92000 6.341
57.94000 4.086
57.96000 6.683
57.98000 3.711
58.00000 4.171
58.02000 4.208
58.04000 7.289
58.06000 5.814
58.08000 4.934
58.10000 0.941
58.12000 -2.331
58.14000 -1.250
58.16000 0.689
58.18000 2.292
58.20000 1.765
58.22000 1.616
58.24000 -0.290
58.26000 -0.831
58.28000 1.365
58.30000 -1.500
58.32000 1.949
58.34000 3.199
58.36000 2.864
58.38000 0.367
58.40000 1.211
58.42000 2.544
58.44000 1.991
58.46000 3.128
58.48000 2.460
58.50000 3.703
58.52000 0.857
58.54000 2.274
58.56000 3.204
58.58000 3.435
58.60000 3.931
58.62000 6.427
58.64000 8.327
58.66000 7.271
58.68000 7.130
58.70000 7.375
58.72000 7.450
58.74000 8.085
58.76000 9.959
58.78000 8.928
58.80000 8.350
58.82000 4.320
58.84000 0.456
58.86000 -2.302
58.88000 2.959
58.90000 2.546
58.92000 5.418
58.94000 8.027
58.96000 6.933
58.98000 3.027
59.00000 2.709
59.02000 3.041
59.04000 3.078
59.06000 4.398
59.08000 4.727
59.10000 7.636
59.12000 8.212
59.14000 9.835
59.16000 4.560
59.18000 1.692
59.20000 3.330
59.22000 5.241
59.24000 3.778
59.26000 4.108
59.28000 3.238
59.30000 5.268
59.32000 7.369
59.34000 6.788
59.36000 7.146
59.38000 4.058
59.40000 2.346
59.42000 1.213
59.44000 1.987
59.46000 1.525
59.48000 2.308
59.50000 2.561
59.52000 8.299
59.54000 4.429
59.56000 6.494
59.58000 5.345
59.60000 1.600
59.62000 1.037
59.64000 2.992
59.66000 4.496
59.68000 4.237
59.70000 3.645
59.72000 1.586
59.74000 0.428
59.76000 2.536
59.78000 3.732
59.80000 1.813
59.82000 0.367
59.84000 1.472
59.86000 -1.908
59.88000 -1.342
59.90000 0.589
59.92000 -1.454
59.94000 0.097
59.96000 1.468
59.98000 3.374
60.00000 1.915
60.02000 0.423
60.04000 1.258
60.06000 1.980
60.08000 1.578
60.10000 3.200
60.12000 4.473
60.14000 1.906
60.16000 2.066
60.18000 0.826
60.20000 -0.208
60.22000 0.009
60.24000 0.069
60.26000 -0.173
60.28000 1.948
60.30000 2.492
60.32000 3.481
60.34000 6.340
60.36000 1.991
60.38000 -2.291
60.40000 1.500
60.42000 3.424
60.44000 0.506
60.46000 2.171
60.48000 2.392
60.50000 2.051
60.52000 1.294
60.54000 1.719
60.56000 -1.152
60.58000 0.074
60.60000 2.555
60.62000 6.765
60.64000 5.578
60.66000 1.489
60.68000 2.992
60.70000 1.263
60.72000 4.093
60.74000 3.969
60.76000 4.557
60.78000 0.571
60.80000 -1.858
60.82000 -0.077
60.84000 1.575
60.86000 1.486
60.88000 1.306
60.90000 5.113
60.92000 4.513
60.94000 3.173
60.96000 0.660
60.98000 -2.279
61.00000 -0.558
61.02000 0.052
61.04000 3.145
61.06000 7.048
61.08000 1.700
61.10000 0.615
61.12000 2.456
61.14000 -0.878
61.16000 -0.583
61.18000 2.088
61.20000 0.758
61.22000 -0.304
61.24000 -0.457
61.26000 0.412
61.28000 3.084
61.30000 3.718
61.32000 2.166
61.34000 0.214
61.36000 1.551
61.38000 1.334
61.40000 2.698
61.42000 1.899
61.44000 1.795
61.46000 -0.063
61.48000 -0.682
61.50000 0.457
61.52000 1.802
61.54000 1.830
61.56000 1.428
61.58000 -1.879
61.60000 -2.261
61.62000 -1.910
61.64000 1.311
61.66000 3.820
61.68000 4.598
61.70000 2.457
61.72000 -0.799
61.74000 -0.967
61.76000 2.184
61.78000 5.160
61.80000 4.212
61.82000 3.218
61.84000 4.308
61.86000 4.206
61.88000 3.012
61.90000 3.742
61.92000 0.288
61.94000 0.088
61.96000 -0.916
61.98000 0.248
62.00000 0.372
62.02000 4.953
62.04000 2.634
62.06000 2.759
62.08000 1.595
62.10000 1.190
62.12000 1.863
62.14000 0.848
62.16000 3.736
62.18000 2.263
62.20000 2.413
62.22000 2.719
62.24000 4.476
62.26000 3.145
62.28000 3.456
62.30000 1.060
62.32000 2.147
62.34000 2.748
62.36000 5.987
62.38000 3.530
62.40000 2.423
62.42000 2.536
62.44000 5.504
62.46000 3.860
62.48000 2.640
62.50000 4.913
62.52000 2.230
62.54000 1.580
62.56000 -1.054
62.58000 -2.225
62.60000 -0.176
62.62000 4.420
62.64000 6.634
62.66000 5.287
62.68000 3.329
62.70000 2.909
62.72000 5.771
62.74000 3.046
62.76000 0.691
62.78000 3.213
62.80000 4.586
62.82000 3.911
62.84000 1.182
62.86000 2.434
62.88000 1.149
62.90000 1.831
62.92000 1.769
62.94000 -1.882
62.96000 3.400
62.98000 8.467
63.00000 3.163
63.02000 1.418
63.04000 1.698
63.06000 0.166
63.08000 0.661
63.10000 -0.125
63.12000 4.828
63.14000 4.397
63.16000 0.566
63.18000 2.424
63.20000 1.034
63.22000 -2.233
63.24000 -1.082
63.26000 0.485
63.28000 0.108
63.30000 1.494
63.32000 0.131
63.34000 0.370
63.36000 2.279
63.38000 -0.508
63.40000 -0.034
63.42000 0.550
63.44000 -1.381
63.46000 -0.266
63.48000 0.939
63.50000 1.775
63.52000 2.176
63.54000 3.306
63.56000 1.904
63.58000 2.755
63.60000 1.963
63.62000 2.115
63.64000 4.371
63.66000 2.086
63.68000 0.795
63.70000 1.262
63.72000 2.051
63.74000 -2.243
63.76000 4.614
63.78000 4.337
63.80000 1.778
63.82000 1.038
63.84000 1.067
63.86000 0.558
63.88000 -0.283
63.90000 -2.236
63.92000 -0.946
63.94000 0.963
63.96000 3.119
63.98000 3.702
64.00000 0.038
64.02000 1.057
64.04000 2.130
64.06000 -0.487
64.08000 0.612
64.10000 1.344
64.12000 0.212
64.14000 1.537
64.16000 3.305
64.18000 1.415
64.20000 2.665
64.22000 3.775
64.24000 -1.764
64.26000 -1.674
64.28000 1.401
64.30000 0.487
64.32000 2.211
64.34000 3.581
64.36000 2.903
64.38000 4.552
64.40000 5.050
64.42000 3.338
64.44000 0.425
64.46000 1.580
64.48000 1.471
64.50000 0.918
64.52000 1.403
64.54000 1.422
64.56000 -0.945
64.58000 -1.687
64.60000 1.495
64.62000 2.199
64.64000 2.554
64.66000 2.067
64.68000 -0.715
64.70000 0.546
64.72000 1.798
64.74000 0.080
64.76000 -2.232
64.78000 0.797
64.80000 2.954
64.82000 2.577
64.84000 2.775
64.86000 4.039
64.88000 3.074
64.90000 1.672
64.92000 1.758
64.94000 0.103
64.96000 2.851
64.98000 4.607
65.00000 2.921
65.02000 -0.190
65.04000 1.908
65.06000 3.908
65.08000 2.828
65.10000 3.146
65.12000 2.688
65.14000 1.515
65.16000 2.983
65.18000 3.299
65.20000 2.148
65.22000 5.886
65.24000 4.878
65.26000 1.805
65.28000 2.489
65.30000 4.846
65.32000 0.650
65.34000 -2.238
65.36000 0.232
65.38000 3.152
65.40000 4.783
65.42000 4.902
65.44000 3.119
65.46000 3.793
65.48000 2.343
65.50000 2.191
65.52000 4.287
65.54000 4.379
65.56000 2.050
65.58000 1.614
65.60000 3.778
65.62000 -1.489
65.64000 1.769
65.66000 3.305
65.68000 2.468
65.70000 2.261
65.72000 2.479
65.74000 3.670
65.76000 1.781
65.78000 3.382
65.80000 3.815
65.82000 2.004
65.84000 3.006
65.86000 0.679
65.88000 -0.177
65.90000 -0.087
65.92000 -0.139
65.94000 0.706
65.96000 0.334
65.98000 1.577
66.00000 1.432
66.02000 1.254
66.04000 1.087
66.06000 -0.676
66.08000 -0.359
66.10000 -0.622
66.12000 -0.535
66.14000 3.020
66.16000 3.288
66.18000 1.062
66.20000 -0.924
66.22000 -0.548
66.24000 0.441
66.26000 2.157
66.28000 1.811
66.30000 0.363
66.32000 -2.255
66.34000 0.263
66.36000 2.922
66.38000 0.185
66.40000 0.191
66.42000 -1.302
66.44000 -1.835
66.46000 -0.896
66.48000 0.560
66.50000 0.665
66.52000 1.139
66.54000 2.770
66.56000 4.414
66.58000 3.434
66.60000 2.397
66.62000 3.149
66.64000 3.217
66.66000 0.038
66.68000 -2.282
66.70000 0.361
66.72000 0.580
66.74000 2.937
66.76000 0.595
66.78000 1.420
66.80000 2.284
66.82000 2.638
66.84000 3.526
66.86000 5.558
66.88000 3.716
66.90000 2.605
66.92000 2.069
66.94000 2.610
66.96000 1.014
66.98000 -0.285
67.00000 -1.362
67.02000 0.829
67.04000 4.015
67.06000 1.686
67.08000 4.639
67.10000 1.652
67.12000 2.613
67.14000 3.862
67.16000 4.416
67.18000 2.120
67.20000 1.851
67.22000 3.346
67.24000 2.386
67.26000 1.559
67.28000 3.340
67.30000 1.118
67.32000 1.698
67.34000 3.351
67.36000 5.858
67.38000 2.055
67.40000 4.811
67.42000 7.467
67.44000 2.594
67.46000 2.222
67.48000 1.190
67.50000 1.391
67.52000 4.459
67.54000 8.094
67.56000 8.092
67.58000 6.199
67.60000 6.279
67.62000 4.315
67.64000 7.365
67.66000 5.959
67.68000 3.310
67.70000 5.199
67.72000 7.315
67.74000 7.162
67.76000 5.796
67.78000 5.276
67.80000 8.279
67.82000 6.881
67.84000 7.974
67.86000 10.209
67.88000 12.098
67.90000 12.033
67.92000 10.044
67.94000 11.144
67.96000 13.289
67.98000 17.214
68.00000 15.422
68.02000 14.493
68.04000 15.886
68.06000 17.796
68.08000 19.177
68.10000 17.657
68.12000 14.766
68.14000 14.768
68.16000 20.149
68.18000 22.448
68.20000 19.919
68.22000 22.674
68.24000 21.333
68.26000 24.111
68.28000 23.257
68.30000 24.190
68.32000 22.829
68.34000 23.063
68.36000 25.249
68.38000 26.604
68.40000 23.995
68.42000 26.723
68.44000 29.880
68.46000 28.187
68.48000 26.377
68.50000 27.355
68.52000 26.545
68.54000 24.308
68.56000 29.847
68.58000 31.564
68.60000 26.438
68.62000 27.184
68.64000 28.893
68.66000 27.804
68.68000 26.368
68.70000 27.059
68.72000 27.703
68.74000 26.155
68.76000 26.102
68.78000 25.907
68.80000 23.741
68.82000 27.499
68.84000 26.263
68.86000 24.804
68.88000 23.274
68.90000 24.929
68.92000 21.777
68.94000 20.971
68.96000 18.613
68.98000 17.112
69.00000 18.265
69.02000 20.458
69.04000 17.466
69.06000 18.997
69.08000 18.112
69.10000 15.612
69.12000 14.463
69.14000 11.734
69.16000 12.890
69.18000 10.879
69.20000 14.856
69.22000 12.851
69.24000 10.171
69.26000 12.412
69.28000 12.963
69.30000 11.406
69.32000 6.610
69.34000 5.988
69.36000 8.372
69.38000 8.257
69.40000 8.336
69.42000 6.177
69.44000 5.991
69.46000 8.369
69.48000 5.799
69.50000 2.939
69.52000 2.809
69.54000 5.270
69.56000 0.631
69.58000 -1.097
69.60000 1.470
69.62000 5.095
69.64000 4.417
69.66000 4.525
69.68000 4.243
69.70000 4.012
69.72000 1.164
69.74000 3.589
69.76000 2.260
69.78000 2.322
69.80000 1.357
69.82000 1.730
69.84000 1.286
69.86000 2.850
69.88000 3.582
69.90000 2.567
69.92000 4.617
69.94000 2.037
69.96000 2.898
69.98000 6.640
70.00000 3.078
70.02000 -1.505
70.04000 1.426
70.06000 1.339
70.08000 0.155
70.10000 3.075
70.12000 3.229
70.14000 1.298
70.16000 -0.541
70.18000 0.458
70.20000 0.874
70.22000 -0.667
70.24000 -0.825
70.26000 2.714
70.28000 2.102
70.30000 3.075
70.32000 3.409
70.34000 4.563
70.36000 3.931
70.38000 -0.573
70.40000 -2.157
70.42000 0.646
70.44000 3.283
70.46000 3.660
70.48000 3.281
70.50000 3.360
70.52000 4.713
70.54000 6.828
70.56000 3.756
70.58000 0.273
70.60000 0.229
70.62000 1.612
70.64000 3.535
70.66000 2.534
70.68000 2.380
70.70000 3.065
70.72000 3.992
70.74000 2.116
70.76000 3.538
70.78000 0.479
70.80000 -1.956
70.82000 0.131
70.84000 0.440
70.86000 1.232
70.88000 4.222
70.90000 5.862
70.92000 1.229
70.94000 0.953
70.96000 1.813
70.98000 1.155
71.00000 -0.757
71.02000 0.925
71.04000 1.974
71.06000 2.196
71.08000 -0.334
71.10000 0.575
71.12000 2.375
71.14000 0.513
71.16000 -1.200
71.18000 2.020
71.20000 4.923
71.22000 2.022
71.24000 2.533
71.26000 4.131
71.28000 3.435
71.30000 -0.171
71.32000 1.239
71.34000 1.137
71.36000 -2.150
71.38000 -0.387
71.40000 1.843
71.42000 2.059
71.44000 2.048
71.46000 1.723
71.48000 1.250
71.50000 0.335
71.52000 0.526
71.54000 -0.864
71.56000 -0.465
71.58000 -1.271
71.60000 -1.265
71.62000 0.725
71.64000 5.024
71.66000 2.412
71.68000 1.607
71.70000 -0.179
71.72000 1.690
71.74000 0.738
71.76000 1.692
71.78000 0.292
71.80000 2.203
71.82000 2.513
71.84000 -1.549
71.86000 3.218
71.88000 3.460
71.90000 4.641
71.92000 2.511
71.94000 2.819
71.96000 4.746
71.98000 5.623
72.00000 -0.090
72.02000 1.783
72.04000 0.748
72.06000 3.492
72.08000 -1.320
72.10000 -1.208
72.12000 -2.102
72.14000 2.188
72.16000 5.228
72.18000 3.126
72.20000 2.127
72.22000 4.146
72.24000 3.052
72.26000 2.192
72.28000 4.470
72.30000 1.778
72.32000 3.459
72.34000 5.333
72.36000 4.572
72.38000 5.530
72.40000 4.033
72.42000 2.707
72.44000 5.922
72.46000 5.774
72.48000 2.495
72.50000 1.966
72.52000 0.879
72.54000 0.523
72.56000 2.056
72.58000 4.312
72.60000 4.916
72.62000 4.100
72.64000 0.458
72.66000 1.677
72.68000 3.427
72.70000 3.990
72.72000 4.060
72.74000 3.103
72.76000 3.762
72.78000 4.523
72.80000 3.224
72.82000 3.128
72.84000 4.484
72.86000 5.338
72.88000 4.619
72.90000 4.640
72.92000 5.468
72.94000 8.183
72.96000 4.179
72.98000 3.862
73.00000 6.306
73.02000 2.939
73.04000 -1.995
73.06000 -0.259
73.08000 5.117
73.10000 6.985
73.12000 8.691
73.14000 7.442
73.16000 3.869
73.18000 4.627
73.20000 3.866
73.22000 6.417
73.24000 2.049
73.26000 3.530
73.28000 2.797
73.30000 3.946
73.32000 6.506
73.34000 5.146
73.36000 4.819
73.38000 4.435
73.40000 4.648
73.42000 9.643
73.44000 8.328
73.46000 4.333
73.48000 2.782
73.50000 2.884
73.52000 3.145
73.54000 2.595
73.56000 4.187
73.58000 2.675
73.60000 0.708
73.62000 -1.684
73.64000 -1.327
73.66000 -1.358
73.68000 0.046
73.70000 1.215
73.72000 4.161
73.74000 5.096
73.76000 3.159
73.78000 3.355
73.80000 2.477
73.82000 1.692
73.84000 4.674
73.86000 4.433
73.88000 5.555
73.90000 2.465
73.92000 3.917
73.94000 5.289
73.96000 4.323
73.98000 5.451
74.00000 6.518
74.02000 2.969
74.04000 4.493
74.06000 2.933
74.08000 1.309
74.10000 2.621
74.12000 3.527
74.14000 -0.522
74.16000 -1.125
74.18000 1.477
74.20000 1.839
74.22000 0.290
74.24000 0.044
74.26000 5.006
74.28000 5.666
74.30000 3.865
74.32000 1.089
74.34000 0.663
74.36000 4.978
74.38000 5.112
74.40000 3.668
74.42000 -2.041
74.44000 1.894
74.46000 2.457
74.48000 1.539
74.50000 4.995
74.52000 1.724
74.54000 1.902
74.56000 1.543
74.58000 0.257
74.60000 1.716
74.62000 4.458
74.64000 3.825
74.66000 5.315
74.68000 3.468
74.70000 1.656
74.72000 2.917
74.74000 5.039
74.76000 4.521
74.78000 6.864
74.80000 4.862
74.82000 4.984
74.84000 4.018
74.86000 1.885
74.88000 -2.037
74.90000 3.860
74.92000 5.778
74.94000 3.591
74.96000 2.849
74.98000 3.134
75.00000 3.864
75.02000 4.055
75.04000 5.026
75.06000 7.343
75.08000 6.375
75.10000 7.227
75.12000 3.773
75.14000 5.023
75.16000 4.532
75.18000 5.400
75.20000 5.521
75.22000 3.799
75.24000 0.622
75.26000 1.059
75.28000 5.258
75.30000 1.548
75.32000 3.566
75.34000 4.689
75.36000 6.615
75.38000 7.143
75.40000 2.939
75.42000 2.943
75.44000 4.683
75.46000 1.976
75.48000 -0.388
75.50000 3.502
75.52000 4.622
75.54000 3.298
75.56000 1.753
75.58000 1.097
75.60000 -0.028
75.62000 -0.477
75.64000 -2.058
75.66000 -0.106
75.68000 3.429
75.70000 1.479
75.72000 2.153
75.74000 7.116
75.76000 4.948
75.78000 -0.747
75.80000 1.607
75.82000 2.609
75.84000 1.082
75.86000 6.966
75.88000 3.870
75.90000 2.545
75.92000 2.450
75.94000 3.121
75.96000 3.828
75.98000 4.058
76.00000 -2.075
76.02000 1.028
76.04000 5.112
76.06000 2.990
76.08000 -0.734
76.10000 3.868
76.12000 6.998
76.14000 2.009
76.16000 3.276
76.18000 1.480
76.20000 1.222
76.22000 1.258
76.24000 3.442
76.26000 5.301
76.28000 4.478
76.30000 1.453
76.32000 2.512
76.34000 4.188
76.36000 2.921
76.38000 0.049
76.40000 -0.631
76.42000 -1.681
76.44000 1.434
76.46000 4.190
76.48000 1.481
76.50000 2.738
76.52000 0.406
76.54000 0.213
76.56000 1.180
76.58000 3.647
76.60000 4.840
76.62000 6.788
76.64000 6.794
76.66000 1.927
76.68000 -0.980
76.70000 0.724
76.72000 4.064
76.74000 4.200
76.76000 5.195
76.78000 6.113
76.80000 4.139
76.82000 3.264
76.84000 1.428
76.86000 -0.570
76.88000 1.323
76.90000 0.457
76.92000 2.278
76.94000 -0.085
76.96000 2.563
76.98000 3.179
77.00000 5.300
77.02000 9.172
77.04000 5.163
77.06000 0.872
77.08000 1.507
77.10000 0.793
77.12000 0.317
77.14000 -2.072
77.16000 1.017
77.18000 0.906
77.20000 1.962
77.22000 4.088
77.24000 5.535
77.26000 3.137
77.28000 5.441
77.30000 6.883
77.32000 1.171
77.34000 2.072
77.36000 3.460
77.38000 2.968
77.40000 -0.794
77.42000 0.200
77.44000 1.857
77.46000 3.404
77.48000 -0.139
77.50000 0.991
77.52000 1.157
77.54000 3.905
77.56000 1.753
77.58000 0.404
77.60000 3.972
77.62000 4.002
77.64000 0.196
77.66000 1.922
77.68000 3.600
77.70000 2.364
77.72000 6.483
77.74000 4.874
77.76000 4.221
77.78000 1.769
77.80000 0.165
77.82000 5.472
77.84000 5.624
77.86000 7.284
77.88000 8.040
77.90000 5.029
77.92000 1.378
77.94000 -1.783
77.96000 -1.643
77.98000 0.480
78.00000 2.387
78.02000 2.200
78.04000 3.874
78.06000 3.118
78.08000 1.840
78.10000 2.070
78.12000 -0.290
78.14000 -2.104
78.16000 -1.980
78.18000 1.253
78.20000 4.373
78.22000 4.951
78.24000 3.077
78.26000 5.045
78.28000 0.683
78.30000 1.582
78.32000 1.800
78.34000 3.404
78.36000 7.011
78.38000 5.883
78.40000 -1.175
78.42000 0.357
78.44000 3.182
78.46000 2.548
78.48000 1.522
78.50000 0.815
78.52000 3.390
78.54000 1.113
78.56000 3.156
78.58000 8.138
78.60000 2.856
78.62000 2.791
78.64000 1.793
78.66000 1.872
78.68000 1.913
78.70000 2.374
78.72000 0.718
78.74000 1.689
78.76000 7.212
78.78000 4.871
78.80000 3.260
78.82000 0.348
78.84000 0.088
78.86000 -0.436
78.88000 2.693
78.90000 4.368
78.92000 4.188
78.94000 -0.436
78.96000 -2.133
78.98000 2.726
79.00000 0.900
79.02000 1.955
79.04000 5.678
79.06000 2.350
79.08000 -1.039
79.10000 1.167
79.12000 0.746
79.14000 2.759
79.16000 2.396
79.18000 1.976
79.20000 2.394
79.22000 4.062
79.24000 1.662
79.26000 1.177
79.28000 5.970
79.30000 3.080
79.32000 1.245
79.34000 0.810
79.36000 -0.483
79.38000 -2.148
79.40000 0.430
79.42000 -0.891
79.44000 -0.053
79.46000 -1.595
79.48000 -0.120
79.50000 0.636
79.52000 2.354
79.54000 4.005
79.56000 -0.044
79.58000 1.359
79.60000 6.357
79.62000 5.115
79.64000 5.732
79.66000 6.624
79.68000 6.117
79.70000 4.965
79.72000 3.697
79.74000 4.061
79.76000 4.663
79.78000 1.121
79.80000 -1.424
79.82000 -1.629
79.84000 -0.709
79.86000 -0.368
79.88000 -0.005
79.90000 -0.312
79.92000 -1.637
79.94000 1.661
79.96000 1.138
79.98000 3.701
80.00000 4.115
80.02000 1.286
80.04000 0.931
80.06000 2.229
80.08000 0.535
80.10000 1.577
80.12000 6.579
80.14000 2.283
80.16000 3.701
80.18000 3.427
80.20000 3.624
80.22000 2.987
80.24000 2.127
80.26000 2.412
80.28000 1.363
80.30000 3.195
80.32000 4.732
80.34000 4.726
80.36000 4.355
80.38000 1.562
80.40000 5.238
80.42000 5.279
80.44000 8.646
80.46000 6.545
80.48000 1.460
80.50000 -2.148
80.52000 -1.025
80.54000 1.542
80.56000 5.680
80.58000 2.768
80.60000 3.123
80.62000 4.833
80.64000 5.913
80.66000 6.089
80.68000 3.743
80.70000 4.108
80.72000 3.372
80.74000 3.036
80.76000 4.628
80.78000 7.387
80.80000 9.246
80.82000 6.265
80.84000 4.568
80.86000 7.429
80.88000 5.434
80.90000 0.629
80.92000 4.086
80.94000 4.285
80.96000 -0.262
80.98000 7.949
81.00000 10.471
81.02000 6.778
81.04000 5.084
81.06000 2.392
81.08000 2.115
81.10000 4.925
81.12000 -0.849
81.14000 3.359
81.16000 7.489
81.18000 7.959
81.20000 9.116
81.22000 7.374
81.24000 2.516
81.26000 2.197
81.28000 2.037
81.30000 0.918
81.32000 4.101
81.34000 11.434
81.36000 11.574
81.38000 9.494
81.40000 3.208
81.42000 8.145
81.44000 8.150
81.46000 8.513
81.48000 7.914
81.50000 8.438
81.52000 11.081
81.54000 9.124
81.56000 13.028
81.58000 11.236
81.60000 7.596
81.62000 8.054
81.64000 9.268
81.66000 9.042
81.68000 9.969
81.70000 12.776
81.72000 9.979
81.74000 11.103
81.76000 14.102
81.78000 13.175
81.80000 11.702
81.82000 10.305
81.84000 10.558
81.86000 14.044
81.88000 14.597
81.90000 18.886
81.92000 19.569
81.94000 16.073
81.96000 16.947
81.98000 19.197
82.00000 22.936
82.02000 22.478
82.04000 22.851
82.06000 19.991
82.08000 21.789
82.10000 19.964
82.12000 24.974
82.14000 22.444
82.16000 22.565
82.18000 27.337
82.20000 31.008
82.22000 25.069
82.24000 28.932
82.26000 32.597
82.28000 31.928
82.30000 31.131
82.32000 29.956
82.34000 29.277
82.36000 32.345
82.38000 31.347
82.40000 30.155
82.42000 35.528
82.44000 39.113
82.46000 40.495
82.48000 38.473
82.50000 40.450
82.52000 38.063
82.54000 37.665
82.56000 41.263
82.58000 40.540
82.60000 46.544
82.62000 46.227
82.64000 44.283
82.66000 40.047
82.68000 44.134
82.70000 44.636
82.72000 40.847
82.74000 42.408
82.76000 43.390
82.78000 43.427
82.80000 44.493
82.82000 46.309
82.84000 44.226
82.86000 40.368
82.88000 42.087
82.90000 39.258
82.92000 35.614
82.94000 37.910
82.96000 36.437
82.98000 41.673
83.00000 38.989
83.02000 41.412
83.04000 39.084
83.06000 37.094
83.08000 37.750
83.10000 35.722
83.12000 40.324
83.14000 41.061
83.16000 33.404
83.18000 34.764
83.20000 31.530
83.22000 31.618
83.24000 29.449
83.26000 25.078
83.28000 25.160
83.30000 25.237
83.32000 23.089
83.34000 27.439
83.36000 24.727
83.38000 21.223
83.40000 19.225
83.42000 19.156
83.44000 14.006
83.46000 17.488
83.48000 18.189
83.50000 17.271
83.52000 16.524
83.54000 15.023
83.56000 14.872
83.58000 11.393
83.60000 13.796
83.62000 13.381
83.64000 9.069
83.66000 10.609
83.68000 13.111
83.70000 12.597
83.72000 10.028
83.74000 6.438
83.76000 5.723
83.78000 9.390
83.80000 7.225
83.82000 5.951
83.84000 6.406
83.86000 6.934
83.88000 9.492
83.90000 6.714
83.92000 6.082
83.94000 3.951
83.96000 3.494
83.98000 3.941
84.00000 5.639
84.02000 9.713
84.04000 7.005
84.06000 5.389
84.08000 1.171
84.10000 -0.817
84.12000 1.305
84.14000 5.725
84.16000 0.549
84.18000 -0.949
84.20000 4.042
84.22000 2.886
84.24000 2.055
84.26000 1.761
84.28000 -2.040
84.30000 -0.124
84.32000 0.523
84.34000 1.040
84.36000 -0.280
84.38000 1.181
84.40000 1.817
84.42000 1.928
84.44000 -2.174
84.46000 -0.623
84.48000 1.407
84.50000 0.397
84.52000 2.072
84.54000 1.823
84.56000 5.304
84.58000 4.031
84.60000 3.153
84.62000 1.014
84.64000 2.284
84.66000 2.634
84.68000 2.504
84.70000 -2.227
84.72000 0.000
84.74000 5.698
84.76000 6.203
84.78000 2.681
84.80000 5.018
84.82000 2.024
84.84000 1.870
84.86000 1.445
84.88000 1.358
84.90000 3.426
84.92000 3.086
84.94000 6.022
84.96000 2.289
84.98000 2.999
85.00000 2.570
85.02000 3.295
85.04000 -1.018
85.06000 1.315
85.08000 3.654
85.10000 -1.492
85.12000 1.658
85.14000 3.505
85.16000 5.942
85.18000 4.612
85.20000 3.592
85.22000 2.670
85.24000 6.149
85.26000 8.878
85.28000 5.210
85.30000 4.487
85.32000 7.069
85.34000 -1.014
85.36000 -1.575
85.38000 -1.704
85.40000 -1.254
85.42000 3.749
85.44000 1.769
85.46000 1.354
85.48000 1.560
85.50000 1.236
85.52000 1.874
85.54000 -2.188
85.56000 1.446
85.58000 3.325
85.60000 -0.102
85.62000 4.191
85.64000 4.030
85.66000 6.037
85.68000 4.330
85.70000 5.196
85.72000 4.245
85.74000 0.237
85.76000 2.522
85.78000 3.028
85.80000 0.286
85.82000 1.269
85.84000 3.595
85.86000 1.763
85.88000 2.388
85.90000 0.069
85.92000 2.389
85.94000 6.011
85.96000 5.971
85.98000 4.768
86.00000 5.457
86.02000 6.324
86.04000 1.943
86.06000 4.099
86.08000 7.288
86.10000 9.630
86.12000 5.530
86.14000 4.145
86.16000 3.151
86.18000 4.902
86.20000 10.609
86.22000 8.887
86.24000 8.840
86.26000 10.390
86.28000 8.980
86.30000 9.264
86.32000 11.693
86.34000 10.219
86.36000 6.986
86.38000 11.134
86.40000 11.425
86.42000 15.448
86.44000 14.288
86.46000 10.244
86.48000 13.127
86.50000 19.144
86.52000 16.899
86.54000 18.733
86.56000 19.887
86.58000 19.833
86.60000 23.589
86.62000 23.344
86.64000 20.644
86.66000 21.789
86.68000 25.154
86.70000 25.793
86.72000 25.848
86.74000 24.951
86.76000 20.996
86.78000 27.440
86.80000 29.350
86.82000 27.192
86.84000 32.519
86.86000 33.518
86.88000 30.550
86.90000 30.095
86.92000 30.594
86.94000 34.206
86.96000 35.399
86.98000 33.782
87.00000 34.676
87.02000 36.328
87.04000 36.867
87.06000 33.634
87.08000 34.211
87.10000 33.585
87.12000 32.425
87.14000 32.051
87.16000 31.766
87.18000 32.218
87.20000 32.646
87.22000 34.775
87.24000 33.634
87.26000 35.376
87.28000 35.622
87.30000 34.963
87.32000 32.825
87.34000 31.745
87.36000 34.936
87.38000 33.804
87.40000 29.803
87.42000 29.360
87.44000 26.907
87.46000 23.218
87.48000 27.111
87.50000 26.110
87.52000 23.542
87.54000 24.319
87.56000 20.613
87.58000 22.346
87.60000 23.987
87.62000 21.843
87.64000 17.238
87.66000 17.364
87.68000 16.901
87.70000 18.472
87.72000 18.223
87.74000 17.543
87.76000 17.325
87.78000 13.947
87.80000 14.014
87.82000 14.937
87.84000 20.347
87.86000 16.050
87.88000 11.413
87.90000 8.453
87.92000 8.920
87.94000 8.600
87.96000 11.489
87.98000 9.793
88.00000 9.705
88.02000 10.819
88.04000 10.749
88.06000 13.447
88.08000 9.353
88.10000 7.577
88.12000 8.899
88.14000 3.371
88.16000 5.386
88.18000 5.809
88.20000 6.277
88.22000 8.149
88.24000 6.280
88.26000 6.304
88.28000 3.825
88.30000 1.718
88.32000 4.394
88.34000 4.508
88.36000 3.065
88.38000 5.692
88.40000 4.783
88.42000 2.019
88.44000 6.333
88.46000 7.309
88.48000 5.738
88.50000 4.921
88.52000 1.094
88.54000 0.364
88.56000 5.274
88.58000 8.045
88.60000 5.096
88.62000 5.336
88.64000 3.737
88.66000 6.936
88.68000 5.216
88.70000 5.374
88.72000 2.353
88.74000 3.000
88.76000 2.384
88.78000 4.338
88.80000 0.998
88.82000 -0.436
88.84000 2.711
88.86000 2.563
88.88000 0.887
88.90000 -2.048
88.92000 -0.693
88.94000 0.970
88.96000 2.118
88.98000 1.659
89.00000 0.150
89.02000 0.942
89.04000 4.367
89.06000 6.735
89.08000 3.919
89.10000 5.941
89.12000 4.652
89.14000 4.106
89.16000 3.093
89.18000 1.437
89.20000 0.959
89.22000 3.000
89.24000 1.479
89.26000 -0.886
89.28000 0.281
89.30000 2.069
89.32000 3.307
89.34000 3.573
89.36000 0.243
89.38000 0.160
89.40000 3.916
89.42000 4.281
89.44000 2.097
89.46000 1.499
89.48000 -0.780
89.50000 4.078
89.52000 2.980
89.54000 0.835
89.56000 4.329
89.58000 0.845
89.60000 -1.912
89.62000 3.127
89.64000 4.367
89.66000 1.036
89.68000 0.107
89.70000 2.825
89.72000 3.260
89.74000 3.729
89.76000 5.746
89.78000 4.157
89.80000 2.935
89.82000 4.567
89.84000 -2.010
89.86000 -0.190
89.88000 1.609
89.90000 3.173
89.92000 1.662
89.94000 0.126
89.96000 1.923
89.98000 4.275
90.00000 3.452
90.02000 4.846
90.04000 7.874
90.06000 5.940
90.08000 5.422
90.10000 0.401
90.12000 1.292
90.14000 2.483
90.16000 -0.110
90.18000 -0.114
90.20000 -0.442
90.22000 3.511
90.24000 2.927
90.26000 0.248
90.28000 -0.192
90.30000 2.140
90.32000 1.780
90.34000 1.495
90.36000 3.794
90.38000 -0.197
90.40000 -0.615
90.42000 -1.977
90.44000 0.493
90.46000 3.120
90.48000 6.360
90.50000 3.233
90.52000 0.498
90.54000 3.234
90.56000 6.200
90.58000 2.737
90.60000 3.162
90.62000 -1.984
90.64000 -0.164
90.66000 -1.463
90.68000 4.311
90.70000 4.810
90.72000 5.226
90.74000 0.972
90.76000 1.069
90.78000 1.487
90.80000 1.322
90.82000 0.265
90.84000 3.384
90.86000 1.731
90.88000 3.833
90.90000 2.894
90.92000 0.395
90.94000 -0.607
90.96000 -1.998
90.98000 -0.006
91.00000 1.143
91.02000 2.985
91.04000 1.822
91.06000 5.031
91.08000 2.311
91.10000 1.443
91.12000 3.361
91.14000 1.656
91.16000 3.939
91.18000 2.229
91.20000 1.846
91.22000 4.579
91.24000 5.975
91.26000 3.956
91.28000 3.485
91.30000 -0.318
91.32000 0.775
91.34000 1.945
91.36000 2.020
91.38000 0.373
91.40000 -1.278
91.42000 2.350
91.44000 3.397
91.46000 0.736
91.48000 -0.235
91.50000 4.007
91.52000 4.781
91.54000 4.413
91.56000 3.293
91.58000 4.700
91.60000 3.387
91.62000 3.075
91.64000 2.155
91.66000 0.778
91.68000 0.819
91.70000 2.426
91.72000 -0.596
91.74000 -0.296
91.76000 1.312
91.78000 4.788
91.80000 4.990
91.82000 6.032
91.84000 6.751
91.86000 7.592
91.88000 3.235
91.90000 1.169
91.92000 -1.975
91.94000 3.242
91.96000 6.149
91.98000 7.560
92.00000 2.239
92.02000 1.242
92.04000 2.540
92.06000 1.022
92.08000 -0.435
92.10000 1.330
92.12000 0.138
92.14000 -1.096
92.16000 -1.968
92.18000 1.680
92.20000 -0.825
92.22000 2.158
92.24000 3.331
92.26000 4.104
92.28000 5.974
92.30000 4.307
92.32000 3.894
92.34000 3.879
92.36000 1.503
92.38000 -0.163
92.40000 -0.694
92.42000 3.777
92.44000 1.802
92.46000 1.843
92.48000 -0.648
92.50000 -0.191
92.52000 5.633
92.54000 2.359
92.56000 0.325
92.58000 0.148
92.60000 2.753
92.62000 1.517
92.64000 -0.796
92.66000 1.143
92.68000 2.908
92.70000 4.985
92.72000 3.349
92.74000 2.892
92.76000 2.484
92.78000 4.169
92.80000 1.980
92.82000 3.013
92.84000 3.413
92.86000 4.071
92.88000 3.474
92.90000 3.210
92.92000 2.354
92.94000 1.126
92.96000 0.454
92.98000 3.135
93.00000 6.168
93.02000 4.892
93.04000 1.303
93.06000 1.644
93.08000 5.947
93.10000 2.616
93.12000 -1.978
93.14000 3.589
93.16000 0.222
93.18000 0.246
93.20000 3.050
93.22000 6.967
93.24000 6.667
93.26000 5.415
93.28000 0.938
93.30000 2.447
93.32000 -0.205
93.34000 0.127
93.36000 -1.154
93.38000 0.672
93.40000 0.126
93.42000 -1.995
93.44000 1.038
93.46000 1.270
93.48000 0.124
93.50000 2.721
93.52000 2.263
93.54000 2.109
93.56000 2.898
93.58000 1.012
93.60000 0.629
93.62000 3.536
93.64000 4.660
93.66000 4.079
93.68000 4.749
93.70000 3.599
93.72000 2.216
93.74000 -0.915
93.76000 -0.400
93.78000 -0.224
93.80000 -1.489
93.82000 1.493
93.84000 0.714
93.86000 3.794
93.88000 3.167
93.90000 -0.417
93.92000 1.518
93.94000 3.949
93.96000 6.369
93.98000 7.500
94.00000 4.820
94.02000 5.570
94.04000 0.390
94.06000 -1.531
94.08000 -0.130
94.10000 2.367
94.12000 3.906
94.14000 1.078
94.16000 0.752
94.18000 3.747
94.20000 5.930
94.22000 4.914
94.24000 1.184
94.26000 -1.065
94.28000 1.330
94.30000 1.123
94.32000 -1.988
94.34000 1.792
94.36000 5.836
94.38000 2.634
94.40000 3.199
94.42000 1.662
94.44000 1.224
94.46000 2.820
94.48000 5.406
94.50000 0.096
94.52000 2.361
94.54000 2.644
94.56000 1.552
94.58000 1.012
94.60000 3.548
94.62000 6.676
94.64000 5.502
94.66000 6.813
94.68000 5.529
94.70000 3.077
94.72000 0.714
94.74000 -0.725
94.76000 1.773
94.78000 3.645
94.80000 3.391
94.82000 1.838
94.84000 1.739
94.86000 2.557
94.88000 0.424
94.90000 0.727
94.92000 5.282
94.94000 3.783
94.96000 2.372
94.98000 2.595
95.00000 5.233
95.02000 8.259
95.04000 6.586
95.06000 4.620
95.08000 5.250
95.10000 3.976
95.12000 2.722
95.14000 2.358
95.16000 -1.950
95.18000 0.924
95.20000 2.477
95.22000 1.344
95.24000 6.683
95.26000 6.504
95.28000 3.680
95.30000 4.224
95.32000 5.005
95.34000 7.009
95.36000 11.183
95.38000 6.607
95.40000 5.291
95.42000 6.322
95.44000 5.372
95.46000 5.820
95.48000 7.272
95.50000 9.128
95.52000 5.022
95.54000 6.538
95.56000 4.391
95.58000 2.554
95.60000 5.845
95.62000 9.356
95.64000 6.074
95.66000 6.941
95.68000 7.648
95.70000 6.688
95.72000 6.397
95.74000 1.616
95.76000 2.972
95.78000 4.073
95.80000 2.711
95.82000 6.059
95.84000 7.046
95.86000 5.917
95.88000 2.878
95.90000 -1.938
95.92000 0.310
95.94000 3.585
95.96000 2.557
95.98000 6.294
96.00000 9.048
96.02000 4.376
96.04000 -0.600
96.06000 3.405
96.08000 1.802
96.10000 2.602
96.12000 6.737
96.14000 5.073
96.16000 5.359
96.18000 -1.406
96.20000 -0.437
96.22000 3.601
96.24000 7.169
96.26000 4.412
96.28000 2.118
96.30000 2.518
96.32000 -0.079
96.34000 2.811
96.36000 3.453
96.38000 7.263
96.40000 4.393
96.42000 1.593
96.44000 4.057
96.46000 4.561
96.48000 3.081
96.50000 3.635
96.52000 4.779
96.54000 3.702
96.56000 9.579
96.58000 3.809
96.60000 1.707
96.62000 0.358
96.64000 0.719
96.66000 -1.836
96.68000 -0.130
96.70000 -1.001
96.72000 -0.455
96.74000 2.894
96.76000 8.250
96.78000 10.038
96.80000 7.508
96.82000 3.442
96.84000 4.625
96.86000 2.489
96.88000 2.796
96.90000 8.406
96.92000 4.024
96.94000 7.341
96.96000 4.776
96.98000 2.601
97.00000 0.364
97.02000 -0.326
97.04000 4.816
97.06000 6.448
97.08000 4.759
97.10000 3.475
97.12000 3.558
97.14000 5.547
97.16000 1.975
97.18000 4.078
97.20000 3.635
97.22000 3.961
97.24000 6.682
97.26000 5.244
97.28000 2.269
97.30000 -0.277
97.32000 3.643
97.34000 2.330
97.36000 3.626
97.38000 4.336
97.40000 3.090
97.42000 6.693
97.44000 7.725
97.46000 7.120
97.48000 3.040
97.50000 2.490
97.52000 0.867
97.54000 6.326
97.56000 6.900
97.58000 7.381
97.60000 9.446
97.62000 5.445
97.64000 -2.809
97.66000 4.654
97.68000 4.685
97.70000 7.927
97.72000 8.028
97.74000 2.482
97.76000 3.219
97.78000 4.345
97.80000 5.533
97.82000 9.377
97.84000 8.999
97.86000 4.358
97.88000 4.746
97.90000 9.720
97.92000 9.110
97.94000 8.146
97.96000 2.409
97.98000 -1.808
98.00000 4.513
98.02000 4.282
98.04000 7.773
98.06000 10.208
98.08000 9.230
98.10000 3.784
98.12000 2.651
98.14000 3.479
98.16000 1.618
98.18000 -1.526
98.20000 7.490
98.22000 4.669
98.24000 7.033
98.26000 5.434
98.28000 3.096
98.30000 1.223
98.32000 6.400
98.34000 7.192
98.36000 5.968
98.38000 4.720
98.40000 4.598
98.42000 -1.902
98.44000 2.457
98.46000 5.371
98.48000 1.715
98.50000 4.918
98.52000 2.097
98.54000 3.413
98.56000 1.952
98.58000 7.651
98.60000 1.659
98.62000 1.459
98.64000 2.468
98.66000 12.782
98.68000 4.540
98.70000 8.432
98.72000 1.447
98.74000 0.932
98.76000 4.303
98.78000 2.822
98.80000 9.923
98.82000 3.798
98.84000 0.943
98.86000 5.660
98.88000 8.213
98.90000 4.563
98.92000 9.531
98.94000 11.257
98.96000 7.527
98.98000 8.422
99.00000 11.041
99.02000 9.516
99.04000 4.015
99.06000 -1.483
99.08000 1.449
99.10000 1.514
99.12000 3.790
99.14000 4.779
99.16000 8.151
99.18000 16.308
99.20000 8.201
99.22000 5.777
99.24000 1.997
99.26000 2.281
99.28000 3.440
99.30000 7.088
99.32000 2.907
99.34000 -1.780
99.36000 4.446
99.38000 5.198
99.40000 7.548
99.42000 5.618
99.44000 7.539
99.46000 10.316
99.48000 7.788
99.50000 6.521
99.52000 6.181
99.54000 4.252
99.56000 6.016
99.58000 7.962
99.60000 4.810
99.62000 2.738
99.64000 9.426
99.66000 12.182
99.68000 8.815
99.70000 8.603
99.72000 5.796
99.74000 2.896
99.76000 9.407
99.78000 20.370
99.80000 4.148
99.82000 6.372
99.84000 7.860
99.86000 -1.097
99.88000 5.448
99.90000 8.728
99.92000 3.026
99.94000 -4.716
99.96000 -0.189
99.98000 0.000
