'Id: "0011389" Comment: "Integrate frame 0011389_Au-Ir-Rh_Au-Rich_XRD_Mapping-160-0000.gfrmwith cursor Wedge Cursor #5" Operator: "B?rgel" Anode: "Cu" Wavelength: "1.5406" Scantype: "2Theta (TwoTheta)" TimePerStep: "1" X: "-31.5" Y: "0" Z: "5.95" 
10.00000 0.000
10.02000 3.276
10.04000 2.412
10.06000 -4.498
10.08000 -4.437
10.10000 -4.487
10.12000 -0.458
10.14000 23.366
10.16000 16.973
10.18000 -0.685
10.20000 -4.480
10.22000 10.424
10.24000 1.222
10.26000 -0.101
10.28000 3.758
10.30000 23.040
10.32000 37.048
10.34000 12.159
10.36000 3.183
10.38000 4.393
10.40000 13.151
10.42000 18.982
10.44000 18.841
10.46000 11.231
10.48000 8.495
10.50000 21.092
10.52000 25.378
10.54000 12.424
10.56000 1.849
10.58000 0.707
10.60000 -0.743
10.62000 19.246
10.64000 34.254
10.66000 14.246
10.68000 6.350
10.70000 3.730
10.72000 6.406
10.74000 19.762
10.76000 16.905
10.78000 15.536
10.80000 14.800
10.82000 10.000
10.84000 13.758
10.86000 18.753
10.88000 17.571
10.90000 13.086
10.92000 10.287
10.94000 17.255
10.96000 19.067
10.98000 11.968
11.00000 5.403
11.02000 19.300
11.04000 20.381
11.06000 10.755
11.08000 10.497
11.10000 18.525
11.12000 7.784
11.14000 9.276
11.16000 20.568
11.18000 11.883
11.20000 13.803
11.22000 14.455
11.24000 19.351
11.26000 18.040
11.28000 22.769
11.30000 11.304
11.32000 8.291
11.34000 11.170
11.36000 19.988
11.38000 25.679
11.40000 25.874
11.42000 29.863
11.44000 24.585
11.46000 25.454
11.48000 10.829
11.50000 -0.071
11.52000 4.418
11.54000 9.555
11.56000 17.770
11.58000 10.351
11.60000 19.588
11.62000 9.158
11.64000 -4.467
11.66000 8.229
11.68000 11.061
11.70000 10.861
11.72000 9.041
11.74000 17.802
11.76000 13.427
11.78000 14.695
11.80000 20.258
11.82000 23.881
11.84000 28.772
11.86000 19.885
11.88000 14.220
11.90000 10.164
11.92000 14.834
11.94000 18.249
11.96000 15.280
11.98000 4.949
12.00000 7.149
12.02000 8.590
12.04000 12.680
12.06000 20.455
12.08000 16.343
12.10000 14.092
12.12000 9.154
12.14000 23.644
12.16000 18.723
12.18000 9.102
12.20000 19.375
12.22000 17.811
12.24000 10.517
12.26000 12.235
12.28000 18.583
12.30000 15.766
12.32000 24.129
12.34000 20.479
12.36000 9.357
12.38000 18.924
12.40000 9.197
12.42000 4.541
12.44000 11.135
12.46000 11.818
12.48000 16.947
12.50000 16.318
12.52000 13.512
12.54000 13.016
12.56000 9.617
12.58000 8.403
12.60000 15.601
12.62000 13.038
12.64000 11.834
12.66000 16.669
12.68000 12.959
12.70000 10.067
12.72000 4.849
12.74000 5.455
12.76000 0.856
12.78000 6.369
12.80000 12.383
12.82000 15.213
12.84000 4.304
12.86000 11.330
12.88000 10.341
12.90000 16.405
12.92000 2.208
12.94000 9.602
12.96000 7.701
12.98000 12.464
13.00000 19.176
13.02000 17.386
13.04000 14.725
13.06000 19.866
13.08000 20.264
13.10000 7.905
13.12000 4.496
13.14000 9.921
13.16000 10.223
13.18000 19.028
13.20000 20.991
13.22000 23.422
13.24000 25.930
13.26000 12.382
13.28000 7.048
13.30000 -2.096
13.32000 2.469
13.34000 14.435
13.36000 25.547
13.38000 15.595
13.40000 7.908
13.42000 3.315
13.44000 -0.681
13.46000 -1.713
13.48000 -2.856
13.50000 14.398
13.52000 12.112
13.54000 10.605
13.56000 18.376
13.58000 15.585
13.60000 -2.333
13.62000 2.889
13.64000 14.895
13.66000 10.780
13.68000 -2.470
13.70000 -3.273
13.72000 10.305
13.74000 16.266
13.76000 15.180
13.78000 16.877
13.80000 11.488
13.82000 4.366
13.84000 10.859
13.86000 6.498
13.88000 6.124
13.90000 7.064
13.92000 13.699
13.94000 10.610
13.96000 7.158
13.98000 -4.483
14.00000 3.496
14.02000 2.432
14.04000 17.247
14.06000 25.646
14.08000 21.619
14.10000 11.640
14.12000 12.026
14.14000 10.932
14.16000 9.227
14.18000 22.909
14.20000 17.572
14.22000 4.407
14.24000 0.001
14.26000 12.915
14.28000 14.380
14.30000 15.436
14.32000 7.402
14.34000 10.510
14.36000 13.412
14.38000 9.842
14.40000 7.169
14.42000 20.014
14.44000 13.890
14.46000 13.062
14.48000 10.661
14.50000 19.155
14.52000 15.286
14.54000 7.863
14.56000 11.987
14.58000 6.911
14.60000 11.973
14.62000 12.435
14.64000 2.446
14.66000 -4.459
14.68000 6.061
14.70000 18.154
14.72000 13.575
14.74000 13.997
14.76000 19.836
14.78000 19.405
14.80000 15.348
14.82000 10.254
14.84000 13.012
14.86000 21.873
14.88000 15.664
14.90000 13.073
14.92000 16.617
14.94000 13.390
14.96000 7.782
14.98000 10.552
15.00000 12.918
15.02000 13.385
15.04000 10.234
15.06000 1.889
15.08000 14.062
15.10000 20.742
15.12000 15.187
15.14000 10.002
15.16000 5.909
15.18000 14.571
15.20000 18.615
15.22000 2.983
15.24000 7.241
15.26000 9.817
15.28000 13.284
15.30000 21.005
15.32000 9.098
15.34000 3.824
15.36000 12.372
15.38000 17.822
15.40000 16.262
15.42000 16.386
15.44000 19.713
15.46000 9.204
15.48000 3.986
15.50000 9.529
15.52000 6.032
15.54000 -1.628
15.56000 3.314
15.58000 3.926
15.60000 6.468
15.62000 1.189
15.64000 2.754
15.66000 12.064
15.68000 9.997
15.70000 5.001
15.72000 12.531
15.74000 11.715
15.76000 6.280
15.78000 10.816
15.80000 15.607
15.82000 8.453
15.84000 7.440
15.86000 17.476
15.88000 20.770
15.90000 16.223
15.92000 8.023
15.94000 10.967
15.96000 5.905
15.98000 4.948
16.00000 11.737
16.02000 3.256
16.04000 5.171
16.06000 6.408
16.08000 8.282
16.10000 12.476
16.12000 8.008
16.14000 8.123
16.16000 6.599
16.18000 8.501
16.20000 12.624
16.22000 1.606
16.24000 2.973
16.26000 7.283
16.28000 7.847
16.30000 13.075
16.32000 9.543
16.34000 20.728
16.36000 15.249
16.38000 3.781
16.40000 11.810
16.42000 11.753
16.44000 9.034
16.46000 7.197
16.48000 5.801
16.50000 3.854
16.52000 2.581
16.54000 11.770
16.56000 14.128
16.58000 5.980
16.60000 5.312
16.62000 6.790
16.64000 10.292
16.66000 11.529
16.68000 9.432
16.70000 8.907
16.72000 8.512
16.74000 10.736
16.76000 11.135
16.78000 10.868
16.80000 2.773
16.82000 -4.376
16.84000 4.828
16.86000 7.251
16.88000 15.482
16.90000 12.780
16.92000 2.696
16.94000 6.982
16.96000 6.076
16.98000 13.182
17.00000 10.189
17.02000 5.124
17.04000 6.191
17.06000 11.486
17.08000 14.331
17.10000 4.961
17.12000 3.382
17.14000 8.026
17.16000 1.259
17.18000 2.700
17.20000 3.614
17.22000 3.248
17.24000 5.173
17.26000 6.682
17.28000 5.597
17.30000 6.104
17.32000 8.900
17.34000 5.573
17.36000 3.684
17.38000 2.544
17.40000 6.042
17.42000 14.545
17.44000 10.378
17.46000 4.820
17.48000 5.939
17.50000 8.256
17.52000 9.937
17.54000 8.876
17.56000 6.288
17.58000 4.364
17.60000 13.507
17.62000 11.339
17.64000 8.437
17.66000 3.578
17.68000 1.515
17.70000 4.897
17.72000 10.618
17.74000 12.029
17.76000 8.050
17.78000 -3.792
17.80000 1.062
17.82000 0.391
17.84000 0.924
17.86000 2.306
17.88000 3.620
17.90000 4.774
17.92000 10.544
17.94000 11.851
17.96000 7.334
17.98000 1.606
18.00000 4.393
18.02000 6.792
18.04000 4.947
18.06000 6.240
18.08000 6.662
18.10000 -2.470
18.12000 -1.843
18.14000 5.239
18.16000 6.728
18.18000 4.952
18.20000 6.766
18.22000 8.733
18.24000 5.297
18.26000 7.236
18.28000 3.396
18.30000 7.716
18.32000 7.396
18.34000 5.128
18.36000 0.445
18.38000 0.730
18.40000 -1.292
18.42000 6.435
18.44000 8.317
18.46000 6.314
18.48000 1.912
18.50000 -1.943
18.52000 -0.159
18.54000 1.320
18.56000 5.494
18.58000 6.507
18.60000 -2.609
18.62000 -4.328
18.64000 -0.072
18.66000 4.008
18.68000 0.762
18.70000 3.018
18.72000 1.836
18.74000 3.295
18.76000 3.237
18.78000 2.466
18.80000 0.200
18.82000 2.391
18.84000 3.211
18.86000 2.251
18.88000 3.594
18.90000 6.067
18.92000 7.497
18.94000 4.281
18.96000 1.028
18.98000 3.352
19.00000 2.630
19.02000 1.332
19.04000 7.683
19.06000 8.684
19.08000 0.485
19.10000 -0.768
19.12000 5.566
19.14000 5.670
19.16000 3.309
19.18000 5.936
19.20000 -0.958
19.22000 2.678
19.24000 0.340
19.26000 -1.989
19.28000 5.370
19.30000 3.209
19.32000 1.278
19.34000 1.429
19.36000 4.834
19.38000 -1.267
19.40000 4.618
19.42000 16.025
19.44000 10.875
19.46000 -1.880
19.48000 0.834
19.50000 5.589
19.52000 6.963
19.54000 4.562
19.56000 4.619
19.58000 6.968
19.60000 7.521
19.62000 4.934
19.64000 2.824
19.66000 1.939
19.68000 6.783
19.70000 12.490
19.72000 9.021
19.74000 2.794
19.76000 2.481
19.78000 5.199
19.80000 3.467
19.82000 3.485
19.84000 -4.235
19.86000 4.536
19.88000 4.016
19.90000 3.236
19.92000 5.204
19.94000 -0.351
19.96000 2.863
19.98000 2.073
20.00000 3.125
20.02000 0.399
20.04000 6.122
20.06000 6.422
20.08000 9.464
20.10000 8.630
20.12000 2.853
20.14000 -0.687
20.16000 1.172
20.18000 1.946
20.20000 4.359
20.22000 5.754
20.24000 0.532
20.26000 3.930
20.28000 6.840
20.30000 4.644
20.32000 -4.218
20.34000 -2.397
20.36000 -4.020
20.38000 -1.286
20.40000 3.957
20.42000 4.712
20.44000 0.057
20.46000 1.450
20.48000 3.840
20.50000 6.430
20.52000 6.659
20.54000 0.092
20.56000 -1.923
20.58000 1.574
20.60000 3.625
20.62000 3.044
20.64000 1.999
20.66000 6.072
20.68000 6.569
20.70000 2.525
20.72000 7.873
20.74000 3.114
20.76000 1.896
20.78000 3.423
20.80000 -1.920
20.82000 1.575
20.84000 2.719
20.86000 1.466
20.88000 -0.943
20.90000 1.373
20.92000 6.340
20.94000 7.096
20.96000 7.294
20.98000 2.474
21.00000 0.361
21.02000 4.231
21.04000 0.852
21.06000 2.553
21.08000 3.995
21.10000 2.726
21.12000 0.087
21.14000 -0.319
21.16000 5.611
21.18000 10.230
21.20000 6.887
21.22000 0.286
21.24000 1.383
21.26000 -3.690
21.28000 -1.179
21.30000 6.661
21.32000 6.133
21.34000 -0.784
21.36000 -3.482
21.38000 -0.310
21.40000 6.163
21.42000 7.308
21.44000 0.352
21.46000 1.892
21.48000 -0.629
21.50000 7.413
21.52000 7.346
21.54000 3.260
21.56000 8.416
21.58000 6.790
21.60000 4.834
21.62000 1.622
21.64000 5.644
21.66000 0.274
21.68000 4.645
21.70000 3.073
21.72000 6.690
21.74000 10.406
21.76000 7.529
21.78000 2.004
21.80000 1.881
21.82000 5.683
21.84000 10.486
21.86000 6.122
21.88000 6.174
21.90000 11.670
21.92000 1.762
21.94000 3.739
21.96000 3.832
21.98000 -1.861
22.00000 -0.193
22.02000 4.143
22.04000 4.173
22.06000 5.525
22.08000 3.695
22.10000 4.853
22.12000 3.960
22.14000 8.674
22.16000 4.678
22.18000 6.230
22.20000 3.541
22.22000 3.048
22.24000 -0.170
22.26000 -2.351
22.28000 0.462
22.30000 7.402
22.32000 14.293
22.34000 4.600
22.36000 -0.034
22.38000 1.256
22.40000 6.070
22.42000 4.078
22.44000 7.920
22.46000 2.842
22.48000 -1.171
22.50000 6.021
22.52000 4.586
22.54000 5.199
22.56000 8.519
22.58000 12.169
22.60000 -2.912
22.62000 -4.072
22.64000 5.876
22.66000 8.102
22.68000 8.061
22.70000 7.438
22.72000 4.161
22.74000 6.053
22.76000 4.837
22.78000 2.443
22.80000 -2.076
22.82000 4.281
22.84000 -2.262
22.86000 2.592
22.88000 3.364
22.90000 8.811
22.92000 13.009
22.94000 11.419
22.96000 5.375
22.98000 -1.226
23.00000 0.962
23.02000 4.525
23.04000 -0.909
23.06000 1.012
23.08000 2.230
23.10000 2.284
23.12000 6.312
23.14000 7.282
23.16000 9.602
23.18000 7.051
23.20000 8.172
23.22000 7.706
23.24000 3.795
23.26000 -2.516
23.28000 5.610
23.30000 1.435
23.32000 2.422
23.34000 6.000
23.36000 0.831
23.38000 -1.696
23.40000 11.192
23.42000 6.906
23.44000 6.212
23.46000 6.943
23.48000 1.081
23.50000 4.189
23.52000 -2.866
23.54000 -2.062
23.56000 -1.172
23.58000 -1.722
23.60000 1.779
23.62000 3.695
23.64000 0.447
23.66000 1.188
23.68000 5.245
23.70000 1.690
23.72000 -1.933
23.74000 -1.252
23.76000 3.860
23.78000 1.644
23.80000 5.047
23.82000 2.869
23.84000 2.486
23.86000 4.708
23.88000 9.990
23.90000 11.803
23.92000 11.160
23.94000 4.138
23.96000 3.226
23.98000 4.921
24.00000 2.713
24.02000 6.183
24.04000 2.376
24.06000 0.772
24.08000 -2.968
24.10000 2.463
24.12000 1.923
24.14000 -1.189
24.16000 -2.666
24.18000 1.792
24.20000 0.443
24.22000 -2.852
24.24000 4.470
24.26000 1.671
24.28000 0.223
24.30000 3.772
24.32000 4.357
24.34000 -0.561
24.36000 1.573
24.38000 2.898
24.40000 10.336
24.42000 10.412
24.44000 0.671
24.46000 0.414
24.48000 0.466
24.50000 1.506
24.52000 -1.091
24.54000 -0.210
24.56000 -3.985
24.58000 -1.674
24.60000 -0.807
24.62000 -3.033
24.64000 -2.437
24.66000 5.127
24.68000 2.953
24.70000 7.518
24.72000 -0.673
24.74000 -1.473
24.76000 -1.410
24.78000 -1.415
24.80000 -2.160
24.82000 6.542
24.84000 5.790
24.86000 0.553
24.88000 3.655
24.90000 8.780
24.92000 5.459
24.94000 7.872
24.96000 5.695
24.98000 3.145
25.00000 3.975
25.02000 4.664
25.04000 9.642
25.06000 9.658
25.08000 3.555
25.10000 9.829
25.12000 11.710
25.14000 7.145
25.16000 4.388
25.18000 2.662
25.20000 -2.682
25.22000 -1.103
25.24000 1.586
25.26000 4.754
25.28000 6.291
25.30000 7.943
25.32000 0.723
25.34000 -0.150
25.36000 -3.925
25.38000 -1.964
25.40000 3.131
25.42000 5.187
25.44000 8.566
25.46000 10.573
25.48000 9.050
25.50000 2.351
25.52000 -0.831
25.54000 0.941
25.56000 3.080
25.58000 8.388
25.60000 9.901
25.62000 4.465
25.64000 3.138
25.66000 -1.482
25.68000 3.620
25.70000 4.444
25.72000 4.964
25.74000 1.924
25.76000 3.120
25.78000 3.137
25.80000 0.240
25.82000 -3.155
25.84000 -0.816
25.86000 2.501
25.88000 1.317
25.90000 -0.952
25.92000 -1.336
25.94000 4.488
25.96000 5.250
25.98000 0.325
26.00000 2.035
26.02000 -2.109
26.04000 2.725
26.06000 5.451
26.08000 3.626
26.10000 5.988
26.12000 1.526
26.14000 3.593
26.16000 5.426
26.18000 3.564
26.20000 1.511
26.22000 -1.254
26.24000 -2.004
26.26000 -3.894
26.28000 -0.340
26.30000 5.628
26.32000 2.897
26.34000 4.594
26.36000 2.943
26.38000 1.261
26.40000 7.799
26.42000 7.169
26.44000 1.521
26.46000 4.078
26.48000 2.605
26.50000 1.701
26.52000 3.261
26.54000 3.520
26.56000 6.111
26.58000 9.461
26.60000 3.593
26.62000 5.214
26.64000 6.011
26.66000 5.817
26.68000 5.963
26.70000 8.574
26.72000 3.515
26.74000 1.204
26.76000 -0.433
26.78000 3.992
26.80000 10.284
26.82000 8.438
26.84000 4.880
26.86000 4.156
26.88000 6.109
26.90000 -0.775
26.92000 2.473
26.94000 10.227
26.96000 -1.938
26.98000 -0.888
27.00000 4.598
27.02000 3.589
27.04000 4.484
27.06000 -0.976
27.08000 -2.308
27.10000 -2.555
27.12000 1.826
27.14000 2.604
27.16000 -1.583
27.18000 0.434
27.20000 -0.657
27.22000 -1.524
27.24000 -0.245
27.26000 -1.011
27.28000 -1.438
27.30000 7.951
27.32000 6.649
27.34000 2.392
27.36000 4.835
27.38000 6.623
27.40000 6.795
27.42000 2.544
27.44000 -0.471
27.46000 -1.163
27.48000 1.334
27.50000 2.071
27.52000 2.146
27.54000 9.154
27.56000 9.694
27.58000 3.203
27.60000 4.161
27.62000 5.365
27.64000 5.248
27.66000 -1.332
27.68000 4.988
27.70000 4.765
27.72000 -0.459
27.74000 0.370
27.76000 1.000
27.78000 -1.557
27.80000 0.148
27.82000 3.710
27.84000 2.109
27.86000 1.596
27.88000 4.615
27.90000 2.856
27.92000 -3.798
27.94000 -1.252
27.96000 3.999
27.98000 2.631
28.00000 -1.076
28.02000 3.124
28.04000 6.100
28.06000 5.089
28.08000 5.126
28.10000 0.747
28.12000 -3.789
28.14000 2.239
28.16000 6.474
28.18000 2.439
28.20000 0.634
28.22000 -2.001
28.24000 0.971
28.26000 3.372
28.28000 -0.113
28.30000 3.755
28.32000 4.318
28.34000 7.186
28.36000 2.417
28.38000 0.050
28.40000 3.115
28.42000 2.200
28.44000 0.667
28.46000 1.843
28.48000 2.714
28.50000 4.603
28.52000 8.480
28.54000 4.769
28.56000 2.811
28.58000 -2.234
28.60000 -3.328
28.62000 0.770
28.64000 -0.003
28.66000 4.747
28.68000 4.279
28.70000 3.479
28.72000 2.200
28.74000 0.122
28.76000 4.143
28.78000 6.200
28.80000 2.770
28.82000 -3.255
28.84000 -3.335
28.86000 1.210
28.88000 5.005
28.90000 5.976
28.92000 9.740
28.94000 6.056
28.96000 8.411
28.98000 3.935
29.00000 2.173
29.02000 4.579
29.04000 3.987
29.06000 0.858
29.08000 2.698
29.10000 1.152
29.12000 -3.744
29.14000 -3.743
29.16000 -3.055
29.18000 1.607
29.20000 5.271
29.22000 1.430
29.24000 1.798
29.26000 4.457
29.28000 -2.050
29.30000 0.642
29.32000 4.418
29.34000 6.895
29.36000 5.810
29.38000 3.547
29.40000 3.866
29.42000 -0.445
29.44000 -0.942
29.46000 3.674
29.48000 -0.494
29.50000 -0.234
29.52000 4.464
29.54000 2.119
29.56000 1.186
29.58000 7.418
29.60000 5.372
29.62000 0.565
29.64000 5.075
29.66000 8.790
29.68000 6.054
29.70000 2.117
29.72000 2.749
29.74000 -2.099
29.76000 3.556
29.78000 3.095
29.80000 2.978
29.82000 2.329
29.84000 1.550
29.86000 0.922
29.88000 0.479
29.90000 2.788
29.92000 6.807
29.94000 7.599
29.96000 9.786
29.98000 7.704
30.00000 1.671
30.02000 2.990
30.04000 0.941
30.06000 -0.398
30.08000 -1.016
30.10000 2.621
30.12000 1.631
30.14000 -1.829
30.16000 -1.969
30.18000 2.749
30.20000 4.969
30.22000 2.099
30.24000 -1.022
30.26000 1.354
30.28000 2.685
30.30000 3.966
30.32000 3.163
30.34000 3.375
30.36000 0.711
30.38000 1.590
30.40000 4.196
30.42000 1.184
30.44000 3.295
30.46000 2.579
30.48000 3.432
30.50000 0.061
30.52000 0.826
30.54000 4.148
30.56000 3.501
30.58000 -0.742
30.60000 1.548
30.62000 5.545
30.64000 3.346
30.66000 -1.633
30.68000 0.485
30.70000 5.758
30.72000 3.924
30.74000 1.071
30.76000 5.943
30.78000 4.315
30.80000 1.830
30.82000 3.157
30.84000 -0.929
30.86000 -3.653
30.88000 1.914
30.90000 3.223
30.92000 -1.606
30.94000 -2.500
30.96000 3.295
30.98000 5.109
31.00000 4.706
31.02000 7.707
31.04000 1.581
31.06000 3.332
31.08000 4.312
31.10000 4.062
31.12000 5.659
31.14000 4.737
31.16000 5.745
31.18000 4.390
31.20000 0.869
31.22000 0.079
31.24000 6.536
31.26000 4.565
31.28000 3.205
31.30000 5.307
31.32000 6.270
31.34000 8.183
31.36000 5.357
31.38000 2.990
31.40000 0.441
31.42000 -0.181
31.44000 3.886
31.46000 6.362
31.48000 3.623
31.50000 1.969
31.52000 2.813
31.54000 2.603
31.56000 3.862
31.58000 6.696
31.60000 -0.263
31.62000 -0.211
31.64000 4.718
31.66000 2.653
31.68000 1.308
31.70000 0.119
31.72000 -2.007
31.74000 -3.614
31.76000 -3.360
31.78000 6.252
31.80000 4.897
31.82000 2.985
31.84000 1.819
31.86000 3.354
31.88000 5.463
31.90000 10.767
31.92000 7.282
31.94000 4.521
31.96000 1.618
31.98000 4.503
32.00000 8.357
32.02000 8.966
32.04000 5.544
32.06000 2.890
32.08000 5.197
32.10000 0.955
32.12000 0.993
32.14000 0.390
32.16000 -3.620
32.18000 -2.014
32.20000 -1.029
32.22000 -0.722
32.24000 5.398
32.26000 4.088
32.28000 -1.739
32.30000 -1.082
32.32000 -0.716
32.34000 2.044
32.36000 5.635
32.38000 6.339
32.40000 5.819
32.42000 0.376
32.44000 -3.521
32.46000 0.944
32.48000 3.964
32.50000 1.207
32.52000 0.600
32.54000 1.670
32.56000 2.460
32.58000 0.362
32.60000 -1.159
32.62000 2.235
32.64000 2.464
32.66000 0.287
32.68000 4.748
32.70000 7.707
32.72000 3.986
32.74000 4.533
32.76000 5.036
32.78000 1.391
32.80000 -3.620
32.82000 -2.850
32.84000 2.269
32.86000 2.767
32.88000 -1.580
32.90000 1.343
32.92000 4.418
32.94000 3.583
32.96000 1.974
32.98000 7.219
33.00000 5.467
33.02000 3.710
33.04000 4.735
33.06000 3.389
33.08000 4.194
33.10000 5.572
33.12000 3.875
33.14000 2.864
33.16000 3.189
33.18000 3.687
33.20000 0.660
33.22000 -1.223
33.24000 3.478
33.26000 4.029
33.28000 2.102
33.30000 0.480
33.32000 -2.231
33.34000 -2.717
33.36000 -2.981
33.38000 -0.892
33.40000 1.548
33.42000 2.766
33.44000 5.051
33.46000 2.798
33.48000 3.159
33.50000 4.545
33.52000 -0.589
33.54000 0.109
33.56000 -2.410
33.58000 -2.406
33.60000 4.815
33.62000 8.646
33.64000 5.888
33.66000 0.982
33.68000 1.665
33.70000 4.041
33.72000 1.063
33.74000 2.770
33.76000 3.442
33.78000 5.862
33.80000 5.675
33.82000 3.881
33.84000 1.392
33.86000 1.839
33.88000 0.755
33.90000 -0.566
33.92000 2.169
33.94000 4.925
33.96000 6.672
33.98000 3.739
34.00000 4.906
34.02000 -0.976
34.04000 2.443
34.06000 4.743
34.08000 2.152
34.10000 -2.274
34.12000 -3.569
34.14000 1.058
34.16000 5.675
34.18000 5.462
34.20000 4.480
34.22000 5.143
34.24000 2.470
34.26000 2.810
34.28000 1.745
34.30000 -0.669
34.32000 0.522
34.34000 2.336
34.36000 0.676
34.38000 7.306
34.40000 0.935
34.42000 2.525
34.44000 3.281
34.46000 2.459
34.48000 1.517
34.50000 0.280
34.52000 7.537
34.54000 5.544
34.56000 6.959
34.58000 3.393
34.60000 1.246
34.62000 6.409
34.64000 7.296
34.66000 4.300
34.68000 1.166
34.70000 0.020
34.72000 -0.942
34.74000 -0.715
34.76000 1.441
34.78000 1.101
34.80000 2.548
34.82000 4.729
34.84000 -3.471
34.86000 -0.432
34.88000 4.403
34.90000 2.518
34.92000 2.563
34.94000 1.625
34.96000 0.350
34.98000 4.311
35.00000 0.698
35.02000 -2.441
35.04000 -1.587
35.06000 0.732
35.08000 -1.489
35.10000 0.471
35.12000 2.281
35.14000 0.896
35.16000 6.492
35.18000 2.362
35.20000 3.027
35.22000 4.004
35.24000 1.056
35.26000 3.398
35.28000 2.235
35.30000 -0.099
35.32000 3.921
35.34000 6.075
35.36000 0.233
35.38000 -0.417
35.40000 3.929
35.42000 4.886
35.44000 -0.530
35.46000 -0.967
35.48000 3.079
35.50000 -0.234
35.52000 -1.159
35.54000 2.032
35.56000 -0.270
35.58000 0.989
35.60000 6.296
35.62000 9.302
35.64000 6.583
35.66000 5.387
35.68000 0.709
35.70000 2.230
35.72000 4.388
35.74000 1.440
35.76000 4.198
35.78000 6.197
35.80000 11.106
35.82000 3.151
35.84000 -0.457
35.86000 0.402
35.88000 6.536
35.90000 4.859
35.92000 3.708
35.94000 0.871
35.96000 4.197
35.98000 4.944
36.00000 3.151
36.02000 0.828
36.04000 -3.586
36.06000 2.612
36.08000 1.007
36.10000 3.136
36.12000 4.150
36.14000 1.446
36.16000 4.033
36.18000 0.286
36.20000 3.758
36.22000 5.415
36.24000 0.732
36.26000 2.134
36.28000 0.876
36.30000 -3.608
36.32000 0.369
36.34000 0.712
36.36000 2.355
36.38000 5.858
36.40000 8.100
36.42000 3.944
36.44000 -0.831
36.46000 -0.749
36.48000 6.734
36.50000 5.544
36.52000 4.674
36.54000 7.686
36.56000 7.482
36.58000 4.399
36.60000 6.999
36.62000 5.573
36.64000 4.761
36.66000 5.120
36.68000 3.650
36.70000 4.567
36.72000 6.252
36.74000 7.557
36.76000 7.259
36.78000 4.115
36.80000 6.043
36.82000 6.456
36.84000 4.896
36.86000 2.357
36.88000 11.310
36.90000 10.676
36.92000 9.017
36.94000 5.909
36.96000 4.072
36.98000 0.665
37.00000 3.027
37.02000 3.928
37.04000 4.586
37.06000 7.346
37.08000 4.950
37.10000 7.054
37.12000 10.981
37.14000 11.823
37.16000 10.302
37.18000 14.075
37.20000 11.955
37.22000 8.057
37.24000 9.144
37.26000 6.830
37.28000 11.772
37.30000 13.802
37.32000 15.356
37.34000 14.609
37.36000 11.706
37.38000 10.388
37.40000 15.837
37.42000 13.242
37.44000 13.461
37.46000 18.631
37.48000 16.443
37.50000 22.753
37.52000 24.004
37.54000 21.647
37.56000 23.139
37.58000 21.883
37.60000 21.271
37.62000 19.111
37.64000 21.226
37.66000 22.292
37.68000 23.978
37.70000 26.348
37.72000 25.338
37.74000 21.556
37.76000 19.549
37.78000 25.564
37.80000 28.296
37.82000 27.033
37.84000 26.867
37.86000 26.807
37.88000 26.666
37.90000 29.889
37.92000 28.735
37.94000 30.885
37.96000 31.876
37.98000 31.149
38.00000 36.004
38.02000 40.515
38.04000 38.200
38.06000 37.068
38.08000 40.734
38.10000 44.203
38.12000 38.314
38.14000 41.787
38.16000 43.760
38.18000 45.298
38.20000 45.609
38.22000 47.470
38.24000 51.015
38.26000 51.548
38.28000 56.630
38.30000 55.827
38.32000 53.350
38.34000 57.653
38.36000 62.987
38.38000 64.716
38.40000 68.463
38.42000 74.304
38.44000 77.820
38.46000 79.703
38.48000 82.846
38.50000 89.779
38.52000 97.249
38.54000 98.590
38.56000 101.769
38.58000 100.586
38.60000 113.954
38.62000 124.353
38.64000 126.978
38.66000 135.897
38.68000 149.805
38.70000 152.864
38.72000 162.413
38.74000 175.406
38.76000 178.980
38.78000 193.594
38.80000 204.829
38.82000 218.862
38.84000 229.361
38.86000 237.171
38.88000 249.476
38.90000 265.930
38.92000 280.942
38.94000 287.570
38.96000 301.028
38.98000 313.979
39.00000 328.872
39.02000 342.181
39.04000 358.490
39.06000 365.830
39.08000 367.416
39.10000 373.548
39.12000 385.516
39.14000 390.362
39.16000 403.278
39.18000 396.055
39.20000 393.789
39.22000 388.309
39.24000 386.291
39.26000 380.087
39.28000 373.517
39.30000 361.717
39.32000 365.364
39.34000 356.231
39.36000 349.151
39.38000 337.370
39.40000 315.401
39.42000 306.885
39.44000 289.561
39.46000 285.236
39.48000 279.573
39.50000 257.006
39.52000 235.026
39.54000 226.404
39.56000 215.812
39.58000 206.543
39.60000 190.359
39.62000 169.958
39.64000 157.291
39.66000 147.046
39.68000 140.917
39.70000 134.461
39.72000 125.702
39.74000 125.896
39.76000 108.804
39.78000 101.463
39.80000 98.239
39.82000 93.032
39.84000 83.603
39.86000 83.120
39.88000 80.344
39.90000 78.949
39.92000 68.717
39.94000 65.823
39.96000 65.837
39.98000 62.461
40.00000 59.393
40.02000 52.263
40.04000 48.208
40.06000 43.806
40.08000 43.368
40.10000 42.782
40.12000 40.576
40.14000 39.396
40.16000 37.861
40.18000 34.548
40.20000 33.115
40.22000 30.690
40.24000 29.240
40.26000 30.957
40.28000 29.097
40.30000 29.428
40.32000 25.500
40.34000 24.345
40.36000 26.321
40.38000 28.659
40.40000 25.632
40.42000 24.507
40.44000 23.450
40.46000 22.484
40.48000 18.042
40.50000 18.847
40.52000 21.151
40.54000 21.105
40.56000 17.644
40.58000 14.636
40.60000 20.305
40.62000 15.296
40.64000 16.246
40.66000 14.985
40.68000 11.245
40.70000 9.558
40.72000 11.770
40.74000 14.146
40.76000 10.886
40.78000 14.778
40.80000 12.122
40.82000 8.763
40.84000 7.882
40.86000 10.715
40.88000 9.378
40.90000 5.342
40.92000 5.228
40.94000 7.738
40.96000 6.889
40.98000 8.607
41.00000 12.101
41.02000 8.507
41.04000 8.330
41.06000 6.223
41.08000 9.112
41.10000 8.820
41.12000 9.150
41.14000 10.329
41.16000 8.708
41.18000 4.460
41.20000 4.312
41.22000 2.586
41.24000 2.773
41.26000 1.030
41.28000 2.906
41.30000 6.236
41.32000 6.378
41.34000 0.650
41.36000 1.492
41.38000 3.201
41.40000 1.875
41.42000 -0.169
41.44000 0.791
41.46000 0.704
41.48000 1.184
41.50000 -1.222
41.52000 -0.566
41.54000 0.091
41.56000 -3.486
41.58000 -0.299
41.60000 -0.180
41.62000 -2.845
41.64000 -1.357
41.66000 -0.339
41.68000 4.692
41.70000 0.564
41.72000 -0.713
41.74000 1.275
41.76000 1.749
41.78000 4.211
41.80000 2.267
41.82000 -1.159
41.84000 -2.547
41.86000 0.014
41.88000 5.004
41.90000 0.851
41.92000 -1.006
41.94000 -1.102
41.96000 -0.189
41.98000 -2.209
42.00000 0.979
42.02000 2.684
42.04000 1.848
42.06000 -0.307
42.08000 1.756
42.10000 -0.214
42.12000 0.913
42.14000 0.091
42.16000 1.476
42.18000 2.070
42.20000 1.306
42.22000 1.145
42.24000 0.633
42.26000 -1.118
42.28000 1.000
42.30000 2.511
42.32000 0.997
42.34000 -2.172
42.36000 -2.412
42.38000 -1.795
42.40000 -0.729
42.42000 -2.255
42.44000 -1.687
42.46000 -0.228
42.48000 -0.539
42.50000 1.840
42.52000 2.319
42.54000 0.117
42.56000 0.281
42.58000 0.496
42.60000 1.550
42.62000 -3.338
42.64000 -0.655
42.66000 3.279
42.68000 6.789
42.70000 4.070
42.72000 2.666
42.74000 3.426
42.76000 1.018
42.78000 2.470
42.80000 5.549
42.82000 3.354
42.84000 -1.727
42.86000 -1.535
42.88000 2.330
42.90000 1.386
42.92000 -0.169
42.94000 -0.184
42.96000 0.142
42.98000 0.403
43.00000 2.155
43.02000 -0.802
43.04000 0.267
43.06000 -1.137
43.08000 -0.959
43.10000 -3.270
43.12000 1.382
43.14000 3.057
43.16000 2.372
43.18000 1.823
43.20000 3.122
43.22000 2.848
43.24000 3.990
43.26000 4.129
43.28000 1.665
43.30000 4.931
43.32000 2.150
43.34000 1.212
43.36000 5.466
43.38000 2.001
43.40000 1.672
43.42000 -0.395
43.44000 -0.247
43.46000 2.085
43.48000 5.282
43.50000 4.009
43.52000 2.375
43.54000 2.707
43.56000 2.177
43.58000 -1.139
43.60000 -3.238
43.62000 -1.530
43.64000 0.414
43.66000 0.972
43.68000 1.905
43.70000 0.079
43.72000 2.523
43.74000 2.519
43.76000 -1.869
43.78000 -1.137
43.80000 -0.397
43.82000 0.545
43.84000 3.284
43.86000 -1.553
43.88000 -1.233
43.90000 1.003
43.92000 4.282
43.94000 2.279
43.96000 3.178
43.98000 4.062
44.00000 2.498
44.02000 3.477
44.04000 4.052
44.06000 5.613
44.08000 2.868
44.10000 -1.855
44.12000 0.751
44.14000 2.377
44.16000 0.269
44.18000 1.894
44.20000 2.154
44.22000 2.558
44.24000 0.332
44.26000 1.523
44.28000 5.732
44.30000 5.948
44.32000 4.434
44.34000 3.093
44.36000 7.874
44.38000 7.476
44.40000 4.202
44.42000 6.130
44.44000 7.149
44.46000 2.160
44.48000 1.000
44.50000 2.627
44.52000 5.401
44.54000 9.865
44.56000 7.856
44.58000 4.119
44.60000 6.104
44.62000 7.757
44.64000 8.796
44.66000 10.112
44.68000 6.591
44.70000 6.533
44.72000 10.331
44.74000 10.238
44.76000 10.253
44.78000 11.376
44.80000 9.166
44.82000 12.863
44.84000 16.568
44.86000 14.980
44.88000 15.429
44.90000 17.056
44.92000 17.614
44.94000 15.417
44.96000 15.618
44.98000 19.031
45.00000 17.026
45.02000 22.209
45.04000 26.424
45.06000 26.896
45.08000 24.231
45.10000 21.919
45.12000 27.039
45.14000 32.452
45.16000 31.662
45.18000 34.272
45.20000 29.846
45.22000 34.852
45.24000 36.293
45.26000 40.850
45.28000 41.696
45.30000 42.275
45.32000 47.189
45.34000 44.552
45.36000 41.861
45.38000 45.180
45.40000 53.004
45.42000 57.320
45.44000 55.290
45.46000 51.873
45.48000 55.994
45.50000 58.697
45.52000 61.639
45.54000 62.786
45.56000 61.987
45.58000 62.012
45.60000 66.532
45.62000 68.722
45.64000 64.649
45.66000 63.852
45.68000 63.936
45.70000 67.699
45.72000 71.855
45.74000 72.575
45.76000 74.355
45.78000 71.672
45.80000 69.085
45.82000 63.098
45.84000 66.814
45.86000 63.920
45.88000 63.623
45.90000 62.152
45.92000 56.979
45.94000 64.066
45.96000 57.271
45.98000 59.606
46.00000 62.297
46.02000 55.332
46.04000 51.986
46.06000 54.251
46.08000 53.459
46.10000 50.970
46.12000 43.514
46.14000 47.046
46.16000 47.886
46.18000 42.451
46.20000 37.831
46.22000 33.780
46.24000 36.453
46.26000 33.555
46.28000 25.987
46.30000 25.145
46.32000 24.626
46.34000 23.629
46.36000 21.335
46.38000 20.512
46.40000 19.052
46.42000 19.157
46.44000 18.689
46.46000 16.585
46.48000 14.534
46.50000 11.915
46.52000 13.172
46.54000 9.328
46.56000 13.019
46.58000 13.457
46.60000 6.909
46.62000 7.759
46.64000 4.543
46.66000 5.383
46.68000 3.544
46.70000 3.071
46.72000 5.866
46.74000 3.461
46.76000 2.206
46.78000 -0.579
46.80000 4.093
46.82000 5.163
46.84000 3.673
46.86000 5.026
46.88000 3.308
46.90000 2.355
46.92000 -0.291
46.94000 2.023
46.96000 1.526
46.98000 -2.301
47.00000 -1.626
47.02000 2.401
47.04000 -0.449
47.06000 -1.319
47.08000 -0.137
47.10000 2.046
47.12000 4.140
47.14000 3.385
47.16000 5.367
47.18000 5.837
47.20000 4.301
47.22000 0.091
47.24000 0.930
47.26000 3.369
47.28000 -0.141
47.30000 0.511
47.32000 -2.295
47.34000 4.309
47.36000 8.828
47.38000 3.714
47.40000 2.993
47.42000 0.343
47.44000 5.411
47.46000 6.533
47.48000 3.219
47.50000 -2.819
47.52000 0.512
47.54000 1.508
47.56000 4.424
47.58000 2.705
47.60000 2.784
47.62000 3.021
47.64000 4.930
47.66000 4.267
47.68000 3.987
47.70000 2.405
47.72000 -0.444
47.74000 -1.658
47.76000 0.883
47.78000 3.325
47.80000 2.442
47.82000 3.172
47.84000 5.509
47.86000 4.232
47.88000 0.675
47.90000 3.330
47.92000 2.173
47.94000 -2.783
47.96000 2.340
47.98000 6.162
48.00000 4.042
48.02000 2.250
48.04000 2.782
48.06000 1.596
48.08000 2.812
48.10000 1.312
48.12000 0.607
48.14000 -1.184
48.16000 -0.937
48.18000 1.078
48.20000 2.856
48.22000 4.955
48.24000 3.520
48.26000 1.775
48.28000 2.638
48.30000 1.184
48.32000 -2.752
48.34000 0.000
48.36000 1.017
48.38000 1.426
48.40000 3.571
48.42000 1.467
48.44000 1.864
48.46000 2.118
48.48000 0.326
48.50000 0.610
48.52000 1.821
48.54000 -0.411
48.56000 2.524
48.58000 3.732
48.60000 -1.648
48.62000 2.184
48.64000 0.138
48.66000 1.399
48.68000 3.377
48.70000 1.159
48.72000 0.760
48.74000 0.760
48.76000 2.996
48.78000 0.112
48.80000 -1.468
48.82000 -1.714
48.84000 -0.810
48.86000 -2.722
48.88000 -1.996
48.90000 5.370
48.92000 4.741
48.94000 1.420
48.96000 2.177
48.98000 1.739
49.00000 -0.801
49.02000 -2.550
49.04000 0.725
49.06000 1.005
49.08000 -1.282
49.10000 5.951
49.12000 6.015
49.14000 1.318
49.16000 3.241
49.18000 2.571
49.20000 0.928
49.22000 1.689
49.24000 1.619
49.26000 2.126
49.28000 -0.695
49.30000 -1.560
49.32000 1.969
49.34000 2.102
49.36000 1.459
49.38000 4.456
49.40000 0.504
49.42000 2.019
49.44000 2.740
49.46000 3.568
49.48000 4.120
49.50000 4.944
49.52000 2.223
49.54000 -0.489
49.56000 -2.703
49.58000 -1.132
49.60000 1.258
49.62000 -1.569
49.64000 0.432
49.66000 0.780
49.68000 2.318
49.70000 5.421
49.72000 1.788
49.74000 -0.182
49.76000 2.120
49.78000 2.634
49.80000 1.326
49.82000 1.531
49.84000 -0.605
49.86000 0.502
49.88000 -1.746
49.90000 -0.537
49.92000 0.423
49.94000 0.429
49.96000 0.615
49.98000 1.867
50.00000 -1.096
50.02000 0.581
50.04000 -0.666
50.06000 -1.459
50.08000 3.289
50.10000 1.284
50.12000 1.352
50.14000 -0.919
50.16000 2.631
50.18000 2.157
50.20000 0.031
50.22000 -2.662
50.24000 -2.391
50.26000 1.705
50.28000 3.408
50.30000 0.391
50.32000 2.688
50.34000 4.249
50.36000 2.326
50.38000 1.285
50.40000 0.145
50.42000 -0.599
50.44000 3.134
50.46000 2.527
50.48000 3.273
50.50000 8.235
50.52000 3.742
50.54000 -0.658
50.56000 1.515
50.58000 4.770
50.60000 2.834
50.62000 4.481
50.64000 5.391
50.66000 3.724
50.68000 2.386
50.70000 1.645
50.72000 3.726
50.74000 3.781
50.76000 2.778
50.78000 3.281
50.80000 3.941
50.82000 -0.781
50.84000 1.614
50.86000 2.679
50.88000 -1.224
50.90000 2.568
50.92000 -1.618
50.94000 -1.401
50.96000 1.966
50.98000 2.735
51.00000 2.249
51.02000 2.631
51.04000 0.398
51.06000 1.928
51.08000 5.114
51.10000 4.209
51.12000 3.835
51.14000 9.170
51.16000 9.287
51.18000 0.086
51.20000 0.141
51.22000 -2.581
51.24000 0.764
51.26000 2.463
51.28000 3.584
51.30000 10.992
51.32000 7.796
51.34000 5.507
51.36000 2.495
51.38000 3.286
51.40000 3.960
51.42000 2.311
51.44000 4.005
51.46000 2.608
51.48000 1.105
51.50000 -0.985
51.52000 5.050
51.54000 4.874
51.56000 3.521
51.58000 6.350
51.60000 1.779
51.62000 3.384
51.64000 -0.382
51.66000 1.069
51.68000 3.720
51.70000 6.654
51.72000 3.195
51.74000 2.523
51.76000 2.490
51.78000 4.129
51.80000 5.647
51.82000 5.544
51.84000 3.898
51.86000 3.853
51.88000 6.124
51.90000 3.555
51.92000 5.138
51.94000 3.729
51.96000 4.533
51.98000 5.534
52.00000 1.298
52.02000 -2.353
52.04000 -1.119
52.06000 -0.766
52.08000 3.321
52.10000 1.862
52.12000 0.453
52.14000 -2.570
52.16000 -2.591
52.18000 2.066
52.20000 7.196
52.22000 3.671
52.24000 4.905
52.26000 3.083
52.28000 4.324
52.30000 1.867
52.32000 4.041
52.34000 3.569
52.36000 4.958
52.38000 1.429
52.40000 4.715
52.42000 7.057
52.44000 4.568
52.46000 5.889
52.48000 3.570
52.50000 4.972
52.52000 5.408
52.54000 1.489
52.56000 1.764
52.58000 2.668
52.60000 0.427
52.62000 -0.157
52.64000 2.093
52.66000 6.971
52.68000 5.878
52.70000 2.572
52.72000 1.575
52.74000 0.809
52.76000 3.543
52.78000 4.371
52.80000 4.580
52.82000 3.672
52.84000 3.923
52.86000 3.367
52.88000 2.067
52.90000 2.262
52.92000 0.888
52.94000 1.820
52.96000 2.411
52.98000 1.170
53.00000 1.246
53.02000 1.562
53.04000 2.067
53.06000 2.380
53.08000 -2.086
53.10000 0.240
53.12000 6.615
53.14000 7.215
53.16000 2.818
53.18000 3.099
53.20000 0.752
53.22000 3.264
53.24000 4.779
53.26000 0.258
53.28000 1.423
53.30000 -1.353
53.32000 3.620
53.34000 8.843
53.36000 7.138
53.38000 3.310
53.40000 4.157
53.42000 3.169
53.44000 3.159
53.46000 3.358
53.48000 4.701
53.50000 0.330
53.52000 0.770
53.54000 1.517
53.56000 0.444
53.58000 -2.542
53.60000 -1.435
53.62000 1.729
53.64000 5.100
53.66000 0.798
53.68000 -0.211
53.70000 2.664
53.72000 5.996
53.74000 4.026
53.76000 3.464
53.78000 1.280
53.80000 1.739
53.82000 4.827
53.84000 6.042
53.86000 4.428
53.88000 1.346
53.90000 -1.560
53.92000 2.071
53.94000 2.652
53.96000 6.141
53.98000 -0.318
54.00000 -2.305
54.02000 -1.635
54.04000 0.962
54.06000 2.758
54.08000 -2.066
54.10000 1.540
54.12000 1.185
54.14000 -2.534
54.16000 1.253
54.18000 2.400
54.20000 3.923
54.22000 3.889
54.24000 0.068
54.26000 -0.814
54.28000 0.003
54.30000 -0.301
54.32000 -0.393
54.34000 -0.359
54.36000 2.060
54.38000 2.505
54.40000 1.898
54.42000 2.749
54.44000 2.637
54.46000 3.828
54.48000 3.149
54.50000 -0.249
54.52000 -1.863
54.54000 1.606
54.56000 3.657
54.58000 4.641
54.60000 4.275
54.62000 7.154
54.64000 6.246
54.66000 8.571
54.68000 5.024
54.70000 0.981
54.72000 3.988
54.74000 4.536
54.76000 1.746
54.78000 1.496
54.80000 4.545
54.82000 5.954
54.84000 7.722
54.86000 7.049
54.88000 5.256
54.90000 1.491
54.92000 -1.049
54.94000 1.294
54.96000 5.681
54.98000 2.308
55.00000 4.597
55.02000 3.259
55.04000 6.673
55.06000 6.459
55.08000 2.593
55.10000 1.854
55.12000 2.464
55.14000 -0.182
55.16000 -0.722
55.18000 0.995
55.20000 -0.809
55.22000 -1.235
55.24000 2.924
55.26000 3.197
55.28000 4.485
55.30000 4.876
55.32000 0.950
55.34000 3.991
55.36000 2.881
55.38000 -2.487
55.40000 -0.163
55.42000 4.669
55.44000 2.862
55.46000 0.545
55.48000 -0.759
55.50000 2.814
55.52000 2.205
55.54000 2.300
55.56000 1.216
55.58000 0.768
55.60000 3.731
55.62000 4.477
55.64000 3.335
55.66000 1.028
55.68000 3.760
55.70000 5.018
55.72000 2.714
55.74000 2.547
55.76000 0.086
55.78000 2.302
55.80000 0.919
55.82000 1.287
55.84000 4.887
55.86000 7.099
55.88000 4.803
55.90000 5.285
55.92000 6.664
55.94000 4.224
55.96000 1.572
55.98000 1.856
56.00000 6.518
56.02000 3.344
56.04000 3.806
56.06000 2.457
56.08000 1.379
56.10000 -0.196
56.12000 1.422
56.14000 7.501
56.16000 5.678
56.18000 4.830
56.20000 2.441
56.22000 0.171
56.24000 2.494
56.26000 3.923
56.28000 0.392
56.30000 2.644
56.32000 2.651
56.34000 0.748
56.36000 0.322
56.38000 2.248
56.40000 4.417
56.42000 4.911
56.44000 3.359
56.46000 3.155
56.48000 1.421
56.50000 2.220
56.52000 3.220
56.54000 5.148
56.56000 1.752
56.58000 1.740
56.60000 2.818
56.62000 1.543
56.64000 2.410
56.66000 1.352
56.68000 0.867
56.70000 -2.236
56.72000 0.521
56.74000 2.563
56.76000 3.710
56.78000 5.874
56.80000 3.623
56.82000 4.172
56.84000 2.833
56.86000 -2.468
56.88000 -0.993
56.90000 2.354
56.92000 1.197
56.94000 0.563
56.96000 1.242
56.98000 2.264
57.00000 1.859
57.02000 -1.227
57.04000 0.382
57.06000 -0.708
57.08000 0.750
57.10000 0.052
57.12000 2.664
57.14000 2.476
57.16000 -0.389
57.18000 -0.241
57.20000 0.719
57.22000 -0.680
57.24000 -1.055
57.26000 -1.314
57.28000 -2.181
57.30000 -0.104
57.32000 2.321
57.34000 1.375
57.36000 0.320
57.38000 0.069
57.40000 -1.530
57.42000 0.847
57.44000 -0.686
57.46000 -2.177
57.48000 4.946
57.50000 5.365
57.52000 0.087
57.54000 1.392
57.56000 2.474
57.58000 1.136
57.60000 2.145
57.62000 1.721
57.64000 1.471
57.66000 1.978
57.68000 1.762
57.70000 -1.565
57.72000 0.482
57.74000 4.384
57.76000 1.262
57.78000 1.267
57.80000 1.990
57.82000 2.287
57.84000 1.716
57.86000 3.621
57.88000 2.547
57.90000 1.379
57.92000 0.010
57.94000 5.355
57.96000 5.198
57.98000 4.916
58.00000 4.317
58.02000 0.415
58.04000 0.290
58.06000 0.520
58.08000 -0.878
58.10000 0.867
58.12000 6.256
58.14000 6.886
58.16000 2.800
58.18000 0.214
58.20000 1.437
58.22000 2.679
58.24000 0.307
58.26000 4.384
58.28000 4.200
58.30000 1.504
58.32000 -1.598
58.34000 1.000
58.36000 2.006
58.38000 3.682
58.40000 4.765
58.42000 2.348
58.44000 3.628
58.46000 3.269
58.48000 1.807
58.50000 0.147
58.52000 4.736
58.54000 2.905
58.56000 1.408
58.58000 5.335
58.60000 4.349
58.62000 7.091
58.64000 6.445
58.66000 6.347
58.68000 1.771
58.70000 0.131
58.72000 3.240
58.74000 5.468
58.76000 6.668
58.78000 3.349
58.80000 -2.367
58.82000 3.354
58.84000 5.020
58.86000 4.747
58.88000 2.739
58.90000 1.936
58.92000 3.193
58.94000 5.461
58.96000 6.552
58.98000 3.999
59.00000 4.379
59.02000 3.784
59.04000 1.281
59.06000 3.437
59.08000 4.779
59.10000 2.609
59.12000 5.132
59.14000 7.004
59.16000 5.632
59.18000 4.382
59.20000 5.354
59.22000 3.980
59.24000 -1.784
59.26000 1.274
59.28000 4.545
59.30000 4.526
59.32000 -0.046
59.34000 2.501
59.36000 5.723
59.38000 0.715
59.40000 0.114
59.42000 1.360
59.44000 1.043
59.46000 -0.423
59.48000 5.502
59.50000 4.193
59.52000 6.013
59.54000 8.194
59.56000 5.945
59.58000 9.213
59.60000 4.493
59.62000 0.987
59.64000 3.920
59.66000 4.875
59.68000 4.499
59.70000 2.306
59.72000 1.264
59.74000 3.500
59.76000 2.333
59.78000 0.928
59.80000 3.530
59.82000 -0.684
59.84000 -0.777
59.86000 -1.327
59.88000 -0.251
59.90000 2.402
59.92000 4.900
59.94000 2.037
59.96000 4.122
59.98000 3.127
60.00000 5.117
60.02000 4.471
60.04000 5.021
60.06000 3.241
60.08000 3.120
60.10000 -1.714
60.12000 -0.469
60.14000 2.992
60.16000 3.246
60.18000 3.014
60.20000 1.523
60.22000 2.444
60.24000 3.453
60.26000 1.599
60.28000 4.793
60.30000 0.843
60.32000 2.199
60.34000 -1.621
60.36000 -2.343
60.38000 1.310
60.40000 2.792
60.42000 4.707
60.44000 2.711
60.46000 1.544
60.48000 2.214
60.50000 4.495
60.52000 4.746
60.54000 2.379
60.56000 0.316
60.58000 -1.097
60.60000 1.036
60.62000 8.220
60.64000 4.001
60.66000 2.231
60.68000 -1.192
60.70000 0.900
60.72000 1.618
60.74000 3.115
60.76000 3.939
60.78000 2.187
60.80000 0.141
60.82000 0.492
60.84000 -0.502
60.86000 -1.337
60.88000 1.950
60.90000 -1.186
60.92000 -1.837
60.94000 -2.314
60.96000 4.295
60.98000 5.507
61.00000 0.223
61.02000 -0.297
61.04000 4.248
61.06000 3.423
61.08000 1.324
61.10000 -1.454
61.12000 0.920
61.14000 3.248
61.16000 2.525
61.18000 3.878
61.20000 3.185
61.22000 5.031
61.24000 1.760
61.26000 3.203
61.28000 1.474
61.30000 -2.315
61.32000 -0.709
61.34000 1.615
61.36000 3.498
61.38000 5.543
61.40000 5.759
61.42000 1.624
61.44000 4.358
61.46000 3.490
61.48000 2.540
61.50000 2.223
61.52000 2.808
61.54000 0.883
61.56000 1.224
61.58000 3.687
61.60000 4.093
61.62000 2.660
61.64000 4.427
61.66000 3.458
61.68000 3.528
61.70000 -1.490
61.72000 1.093
61.74000 4.288
61.76000 6.797
61.78000 -0.638
61.80000 -0.278
61.82000 0.207
61.84000 -0.177
61.86000 1.005
61.88000 1.381
61.90000 0.028
61.92000 2.729
61.94000 4.310
61.96000 4.611
61.98000 0.710
62.00000 3.516
62.02000 2.577
62.04000 0.924
62.06000 2.572
62.08000 -0.619
62.10000 1.140
62.12000 -0.233
62.14000 0.272
62.16000 0.385
62.18000 2.898
62.20000 5.094
62.22000 1.772
62.24000 0.182
62.26000 -0.318
62.28000 2.589
62.30000 3.022
62.32000 3.524
62.34000 -1.280
62.36000 -0.850
62.38000 0.935
62.40000 2.513
62.42000 1.857
62.44000 -1.857
62.46000 0.931
62.48000 3.975
62.50000 2.377
62.52000 5.181
62.54000 8.453
62.56000 6.112
62.58000 4.290
62.60000 4.738
62.62000 0.916
62.64000 1.571
62.66000 1.466
62.68000 3.416
62.70000 3.626
62.72000 -0.702
62.74000 -0.020
62.76000 -0.025
62.78000 -2.277
62.80000 1.414
62.82000 1.623
62.84000 2.333
62.86000 2.584
62.88000 6.931
62.90000 4.680
62.92000 2.054
62.94000 1.174
62.96000 -1.141
62.98000 -0.094
63.00000 1.213
63.02000 -0.997
63.04000 0.057
63.06000 0.420
63.08000 -1.425
63.10000 2.403
63.12000 4.582
63.14000 3.603
63.16000 2.371
63.18000 5.677
63.20000 3.126
63.22000 3.406
63.24000 2.601
63.26000 2.513
63.28000 2.839
63.30000 3.328
63.32000 3.543
63.34000 4.155
63.36000 2.045
63.38000 1.523
63.40000 2.052
63.42000 4.413
63.44000 2.636
63.46000 0.071
63.48000 1.163
63.50000 1.197
63.52000 3.007
63.54000 0.724
63.56000 0.828
63.58000 -2.066
63.60000 -2.275
63.62000 2.079
63.64000 5.062
63.66000 1.968
63.68000 3.336
63.70000 1.990
63.72000 2.907
63.74000 2.382
63.76000 3.926
63.78000 4.218
63.80000 2.557
63.82000 3.242
63.84000 3.401
63.86000 2.952
63.88000 2.363
63.90000 0.754
63.92000 -0.975
63.94000 1.132
63.96000 0.619
63.98000 1.961
64.00000 0.087
64.02000 0.123
64.04000 -2.137
64.06000 -2.286
64.08000 2.467
64.10000 3.051
64.12000 0.419
64.14000 2.559
64.16000 0.452
64.18000 -1.008
64.20000 2.545
64.22000 4.228
64.24000 0.328
64.26000 -1.730
64.28000 -1.309
64.30000 -1.941
64.32000 -0.433
64.34000 3.190
64.36000 4.587
64.38000 1.907
64.40000 -0.172
64.42000 0.423
64.44000 0.956
64.46000 -0.797
64.48000 -0.323
64.50000 2.173
64.52000 -1.340
64.54000 -2.279
64.56000 2.352
64.58000 3.815
64.60000 2.796
64.62000 0.729
64.64000 1.007
64.66000 1.598
64.68000 2.421
64.70000 0.178
64.72000 3.061
64.74000 -1.527
64.76000 -0.285
64.78000 1.350
64.80000 3.223
64.82000 2.432
64.84000 3.573
64.86000 1.859
64.88000 -0.992
64.90000 1.114
64.92000 0.351
64.94000 0.659
64.96000 -1.008
64.98000 4.670
65.00000 3.995
65.02000 3.746
65.04000 4.751
65.06000 4.131
65.08000 2.075
65.10000 0.602
65.12000 1.122
65.14000 4.596
65.16000 4.362
65.18000 5.273
65.20000 0.497
65.22000 2.618
65.24000 4.144
65.26000 1.025
65.28000 0.298
65.30000 -2.277
65.32000 1.130
65.34000 3.664
65.36000 3.612
65.38000 2.195
65.40000 -1.361
65.42000 -1.838
65.44000 -0.161
65.46000 -0.755
65.48000 0.515
65.50000 0.413
65.52000 0.534
65.54000 4.852
65.56000 3.963
65.58000 2.892
65.60000 -0.868
65.62000 -0.702
65.64000 0.738
65.66000 0.707
65.68000 -1.109
65.70000 3.040
65.72000 1.905
65.74000 1.634
65.76000 2.063
65.78000 4.069
65.80000 4.304
65.82000 3.085
65.84000 1.367
65.86000 1.429
65.88000 0.050
65.90000 -2.287
65.92000 -1.572
65.94000 -0.180
65.96000 -1.560
65.98000 2.413
66.00000 3.007
66.02000 5.723
66.04000 4.650
66.06000 2.900
66.08000 2.073
66.10000 1.522
66.12000 2.041
66.14000 4.909
66.16000 4.223
66.18000 4.918
66.20000 4.345
66.22000 3.635
66.24000 5.934
66.26000 6.729
66.28000 4.763
66.30000 1.941
66.32000 3.040
66.34000 3.821
66.36000 2.743
66.38000 2.618
66.40000 5.566
66.42000 4.432
66.44000 5.391
66.46000 6.170
66.48000 3.827
66.50000 2.072
66.52000 0.462
66.54000 -0.178
66.56000 3.178
66.58000 2.854
66.60000 4.194
66.62000 2.437
66.64000 3.783
66.66000 5.095
66.68000 4.924
66.70000 4.294
66.72000 2.541
66.74000 3.365
66.76000 6.866
66.78000 2.504
66.80000 2.726
66.82000 6.008
66.84000 5.057
66.86000 3.571
66.88000 5.233
66.90000 2.516
66.92000 1.709
66.94000 0.701
66.96000 1.059
66.98000 3.536
67.00000 3.457
67.02000 3.477
67.04000 2.319
67.06000 -0.157
67.08000 2.314
67.10000 2.742
67.12000 0.426
67.14000 -2.246
67.16000 -0.331
67.18000 2.040
67.20000 2.587
67.22000 2.835
67.24000 1.307
67.26000 3.824
67.28000 0.665
67.30000 -0.813
67.32000 1.357
67.34000 2.104
67.36000 2.624
67.38000 -0.504
67.40000 -0.317
67.42000 -0.794
67.44000 -0.695
67.46000 -1.841
67.48000 0.017
67.50000 0.605
67.52000 -0.389
67.54000 2.041
67.56000 -0.524
67.58000 1.486
67.60000 0.976
67.62000 2.206
67.64000 3.230
67.66000 0.246
67.68000 -0.648
67.70000 -0.706
67.72000 -0.725
67.74000 0.216
67.76000 1.600
67.78000 3.431
67.80000 3.040
67.82000 -0.563
67.84000 -2.199
67.86000 -0.086
67.88000 -1.261
67.90000 0.189
67.92000 0.582
67.94000 0.610
67.96000 4.439
67.98000 5.209
68.00000 1.651
68.02000 -0.227
68.04000 1.470
68.06000 1.756
68.08000 0.079
68.10000 -2.185
68.12000 -0.335
68.14000 2.570
68.16000 0.358
68.18000 1.216
68.20000 0.588
68.22000 2.375
68.24000 2.114
68.26000 -0.675
68.28000 0.423
68.30000 2.265
68.32000 0.603
68.34000 -0.772
68.36000 -0.274
68.38000 0.716
68.40000 -0.277
68.42000 0.539
68.44000 1.685
68.46000 1.401
68.48000 2.330
68.50000 0.312
68.52000 1.734
68.54000 2.921
68.56000 0.490
68.58000 -1.051
68.60000 -1.813
68.62000 -1.914
68.64000 -0.619
68.66000 0.377
68.68000 -0.328
68.70000 2.438
68.72000 1.109
68.74000 -1.175
68.76000 -0.894
68.78000 -0.168
68.80000 3.115
68.82000 1.903
68.84000 0.516
68.86000 1.293
68.88000 0.382
68.90000 0.892
68.92000 0.694
68.94000 0.135
68.96000 2.812
68.98000 0.263
69.00000 -1.595
69.02000 -2.153
69.04000 -1.619
69.06000 -0.589
69.08000 -0.632
69.10000 -0.713
69.12000 -2.148
69.14000 -1.354
69.16000 -0.003
69.18000 -1.879
69.20000 0.281
69.22000 1.049
69.24000 1.368
69.26000 2.488
69.28000 -0.250
69.30000 -0.306
69.32000 0.059
69.34000 2.100
69.36000 0.071
69.38000 -0.257
69.40000 0.230
69.42000 3.083
69.44000 1.807
69.46000 2.343
69.48000 1.448
69.50000 0.930
69.52000 0.471
69.54000 -0.710
69.56000 0.060
69.58000 0.990
69.60000 3.037
69.62000 0.632
69.64000 1.006
69.66000 4.859
69.68000 4.746
69.70000 4.136
69.72000 2.656
69.74000 1.528
69.76000 1.880
69.78000 1.983
69.80000 -1.822
69.82000 -2.116
69.84000 -1.051
69.86000 -1.837
69.88000 -2.059
69.90000 0.683
69.92000 1.783
69.94000 2.158
69.96000 -0.362
69.98000 -0.790
70.00000 0.177
70.02000 1.835
70.04000 0.734
70.06000 -0.784
70.08000 1.534
70.10000 0.522
70.12000 -2.100
70.14000 0.786
70.16000 0.229
70.18000 0.798
70.20000 1.012
70.22000 1.473
70.24000 2.316
70.26000 -0.583
70.28000 2.366
70.30000 1.313
70.32000 -0.173
70.34000 0.099
70.36000 3.310
70.38000 3.148
70.40000 -0.499
70.42000 -1.669
70.44000 -1.770
70.46000 0.537
70.48000 2.829
70.50000 2.307
70.52000 1.348
70.54000 1.327
70.56000 -0.539
70.58000 1.221
70.60000 0.190
70.62000 0.888
70.64000 -0.449
70.66000 0.024
70.68000 1.376
70.70000 1.960
70.72000 1.622
70.74000 0.456
70.76000 -1.156
70.78000 2.950
70.80000 4.776
70.82000 2.668
70.84000 0.646
70.86000 2.130
70.88000 3.535
70.90000 2.204
70.92000 0.306
70.94000 2.155
70.96000 2.903
70.98000 -0.487
71.00000 1.879
71.02000 1.156
71.04000 -2.067
71.06000 -1.293
71.08000 1.204
71.10000 1.428
71.12000 4.561
71.14000 3.637
71.16000 1.660
71.18000 0.658
71.20000 2.942
71.22000 3.751
71.24000 0.631
71.26000 -0.938
71.28000 -1.119
71.30000 0.788
71.32000 2.787
71.34000 4.118
71.36000 0.390
71.38000 -0.284
71.40000 1.917
71.42000 -2.054
71.44000 -1.053
71.46000 1.341
71.48000 1.742
71.50000 4.617
71.52000 6.029
71.54000 3.134
71.56000 -0.398
71.58000 2.555
71.60000 1.698
71.62000 -0.202
71.64000 -0.819
71.66000 1.214
71.68000 0.918
71.70000 -2.041
71.72000 0.860
71.74000 2.221
71.76000 2.251
71.78000 -0.818
71.80000 -0.956
71.82000 0.051
71.84000 -0.247
71.86000 2.822
71.88000 3.167
71.90000 2.563
71.92000 1.950
71.94000 2.087
71.96000 1.867
71.98000 -0.700
72.00000 -0.062
72.02000 -0.328
72.04000 -1.217
72.06000 1.559
72.08000 1.538
72.10000 1.624
72.12000 2.897
72.14000 1.900
72.16000 2.270
72.18000 -0.456
72.20000 0.532
72.22000 3.299
72.24000 3.693
72.26000 -0.931
72.28000 -1.362
72.30000 3.213
72.32000 2.983
72.34000 3.311
72.36000 3.099
72.38000 3.287
72.40000 0.216
72.42000 1.567
72.44000 -0.542
72.46000 -0.041
72.48000 -2.010
72.50000 1.228
72.52000 2.045
72.54000 2.895
72.56000 2.186
72.58000 1.385
72.60000 1.790
72.62000 1.039
72.64000 -0.075
72.66000 -0.931
72.68000 1.866
72.70000 -0.930
72.72000 -0.647
72.74000 -1.675
72.76000 1.650
72.78000 2.348
72.80000 2.215
72.82000 2.814
72.84000 0.822
72.86000 0.203
72.88000 1.690
72.90000 1.567
72.92000 4.000
72.94000 2.560
72.96000 3.090
72.98000 4.671
73.00000 3.765
73.02000 2.703
73.04000 1.584
73.06000 3.400
73.08000 1.381
73.10000 0.316
73.12000 0.026
73.14000 1.963
73.16000 3.717
73.18000 2.017
73.20000 0.686
73.22000 5.254
73.24000 7.350
73.26000 5.388
73.28000 2.189
73.30000 0.000
73.32000 0.808
73.34000 0.431
73.36000 1.535
73.38000 5.015
73.40000 2.198
73.42000 1.509
73.44000 0.089
73.46000 -1.961
73.48000 0.107
73.50000 0.897
73.52000 1.393
73.54000 1.417
73.56000 0.448
73.58000 2.912
73.60000 4.919
73.62000 3.997
73.64000 3.822
73.66000 4.382
73.68000 3.530
73.70000 2.428
73.72000 0.626
73.74000 1.223
73.76000 0.378
73.78000 2.663
73.80000 1.682
73.82000 2.018
73.84000 3.985
73.86000 3.170
73.88000 2.931
73.90000 0.951
73.92000 0.625
73.94000 2.235
73.96000 0.972
73.98000 0.725
74.00000 -0.936
74.02000 2.872
74.04000 1.556
74.06000 1.887
74.08000 1.162
74.10000 4.130
74.12000 1.197
74.14000 -0.198
74.16000 3.291
74.18000 4.545
74.20000 3.435
74.22000 -1.994
74.24000 -1.338
74.26000 1.310
74.28000 2.479
74.30000 1.903
74.32000 1.894
74.34000 2.480
74.36000 3.692
74.38000 3.295
74.40000 2.107
74.42000 3.754
74.44000 5.158
74.46000 2.290
74.48000 -1.041
74.50000 2.037
74.52000 2.489
74.54000 -1.288
74.56000 0.059
74.58000 0.851
74.60000 1.510
74.62000 1.386
74.64000 1.060
74.66000 -0.730
74.68000 2.504
74.70000 2.591
74.72000 -1.690
74.74000 0.128
74.76000 -1.076
74.78000 -0.422
74.80000 -0.421
74.82000 -1.312
74.84000 0.746
74.86000 3.885
74.88000 4.590
74.90000 4.165
74.92000 2.752
74.94000 0.872
74.96000 0.102
74.98000 1.371
75.00000 1.977
75.02000 3.553
75.04000 1.926
75.06000 1.397
75.08000 0.171
75.10000 -1.305
75.12000 -1.566
75.14000 -0.396
75.16000 0.120
75.18000 0.952
75.20000 3.436
75.22000 2.686
75.24000 1.724
75.26000 0.465
75.28000 -2.018
75.30000 0.807
75.32000 2.200
75.34000 0.287
75.36000 2.311
75.38000 1.036
75.40000 4.941
75.42000 2.640
75.44000 0.980
75.46000 -2.017
75.48000 -1.793
75.50000 -2.006
75.52000 1.730
75.54000 1.291
75.56000 0.563
75.58000 1.902
75.60000 4.387
75.62000 2.709
75.64000 0.471
75.66000 -1.886
75.68000 -1.407
75.70000 0.788
75.72000 0.540
75.74000 3.324
75.76000 1.836
75.78000 3.824
75.80000 0.506
75.82000 -0.979
75.84000 -0.957
75.86000 4.285
75.88000 2.379
75.90000 -0.134
75.92000 1.987
75.94000 -0.942
75.96000 -0.537
75.98000 0.214
76.00000 0.616
76.02000 -1.107
76.04000 -1.974
76.06000 -1.224
76.08000 2.634
76.10000 1.447
76.12000 2.011
76.14000 0.450
76.16000 0.299
76.18000 -1.230
76.20000 2.096
76.22000 1.857
76.24000 1.105
76.26000 -0.028
76.28000 0.185
76.30000 1.892
76.32000 1.664
76.34000 0.119
76.36000 1.008
76.38000 0.755
76.40000 -1.441
76.42000 -0.345
76.44000 -0.611
76.46000 -0.143
76.48000 -1.999
76.50000 1.865
76.52000 4.103
76.54000 0.809
76.56000 1.929
76.58000 -0.218
76.60000 -1.402
76.62000 -1.665
76.64000 1.001
76.66000 -0.468
76.68000 -0.212
76.70000 0.226
76.72000 0.400
76.74000 0.944
76.76000 0.317
76.78000 -1.290
76.80000 1.866
76.82000 1.367
76.84000 2.645
76.86000 -0.805
76.88000 -0.891
76.90000 3.122
76.92000 3.061
76.94000 2.209
76.96000 2.942
76.98000 3.352
77.00000 2.704
77.02000 2.156
77.04000 0.767
77.06000 -2.038
77.08000 0.622
77.10000 5.764
77.12000 6.009
77.14000 5.818
77.16000 6.127
77.18000 3.007
77.20000 3.608
77.22000 1.244
77.24000 3.428
77.26000 4.110
77.28000 4.536
77.30000 -0.450
77.32000 -1.680
77.34000 2.759
77.36000 2.302
77.38000 3.843
77.40000 4.151
77.42000 3.444
77.44000 3.230
77.46000 4.825
77.48000 4.437
77.50000 1.833
77.52000 0.052
77.54000 -0.973
77.56000 2.197
77.58000 0.117
77.60000 1.364
77.62000 3.496
77.64000 6.785
77.66000 9.260
77.68000 4.761
77.70000 6.578
77.72000 3.959
77.74000 0.842
77.76000 2.152
77.78000 2.154
77.80000 1.711
77.82000 1.044
77.84000 -2.050
77.86000 1.678
77.88000 4.666
77.90000 5.650
77.92000 3.961
77.94000 2.356
77.96000 1.968
77.98000 5.363
78.00000 2.971
78.02000 1.752
78.04000 0.949
78.06000 1.032
78.08000 3.415
78.10000 1.403
78.12000 3.830
78.14000 3.422
78.16000 1.278
78.18000 1.790
78.20000 4.196
78.22000 5.509
78.24000 5.142
78.26000 1.828
78.28000 -2.079
78.30000 1.690
78.32000 4.745
78.34000 3.841
78.36000 2.622
78.38000 4.245
78.40000 5.070
78.42000 4.034
78.44000 1.854
78.46000 -2.034
78.48000 0.281
78.50000 3.266
78.52000 2.780
78.54000 0.262
78.56000 4.537
78.58000 5.023
78.60000 2.580
78.62000 5.902
78.64000 6.405
78.66000 -1.195
78.68000 -0.033
78.70000 3.266
78.72000 2.930
78.74000 1.830
78.76000 2.547
78.78000 2.228
78.80000 4.340
78.82000 1.449
78.84000 0.235
78.86000 4.365
78.88000 5.304
78.90000 5.977
78.92000 4.323
78.94000 2.326
78.96000 4.947
78.98000 2.469
79.00000 -2.182
79.02000 1.096
79.04000 1.437
79.06000 2.577
79.08000 5.523
79.10000 6.047
79.12000 6.285
79.14000 4.901
79.16000 2.405
79.18000 5.959
79.20000 6.896
79.22000 5.787
79.24000 3.859
79.26000 6.339
79.28000 7.901
79.30000 6.469
79.32000 3.431
79.34000 4.762
79.36000 8.891
79.38000 5.719
79.40000 4.880
79.42000 6.043
79.44000 5.120
79.46000 2.980
79.48000 5.391
79.50000 4.837
79.52000 7.157
79.54000 8.584
79.56000 10.938
79.58000 12.149
79.60000 13.675
79.62000 12.644
79.64000 12.193
79.66000 10.714
79.68000 14.612
79.70000 15.891
79.72000 16.756
79.74000 15.465
79.76000 16.026
79.78000 16.568
79.80000 14.419
79.82000 12.354
79.84000 11.493
79.86000 12.362
79.88000 11.388
79.90000 16.151
79.92000 16.197
79.94000 15.610
79.96000 9.634
79.98000 11.909
80.00000 13.569
80.02000 18.457
80.04000 18.759
80.06000 17.668
80.08000 14.314
80.10000 15.079
80.12000 13.591
80.14000 16.812
80.16000 16.696
80.18000 15.589
80.20000 13.438
80.22000 16.247
80.24000 16.384
80.26000 8.225
80.28000 12.663
80.30000 14.029
80.32000 13.153
80.34000 12.979
80.36000 14.651
80.38000 16.047
80.40000 13.399
80.42000 9.995
80.44000 13.488
80.46000 12.852
80.48000 12.214
80.50000 12.340
80.52000 10.112
80.54000 14.671
80.56000 13.955
80.58000 9.800
80.60000 10.747
80.62000 11.858
80.64000 12.300
80.66000 10.801
80.68000 8.098
80.70000 8.670
80.72000 8.406
80.74000 7.643
80.76000 6.012
80.78000 6.250
80.80000 9.192
80.82000 8.037
80.84000 8.509
80.86000 7.535
80.88000 6.860
80.90000 5.268
80.92000 4.806
80.94000 6.788
80.96000 7.597
80.98000 5.995
81.00000 4.171
81.02000 6.544
81.04000 6.538
81.06000 6.988
81.08000 3.589
81.10000 -0.083
81.12000 2.105
81.14000 1.524
81.16000 0.706
81.18000 3.204
81.20000 5.649
81.22000 3.094
81.24000 0.990
81.26000 2.564
81.28000 3.258
81.30000 3.798
81.32000 0.746
81.34000 -0.850
81.36000 0.704
81.38000 4.205
81.40000 0.903
81.42000 1.762
81.44000 4.468
81.46000 1.949
81.48000 4.327
81.50000 5.222
81.52000 0.269
81.54000 1.100
81.56000 0.378
81.58000 -0.856
81.60000 3.655
81.62000 2.089
81.64000 -0.068
81.66000 1.023
81.68000 0.074
81.70000 3.383
81.72000 4.008
81.74000 5.743
81.76000 4.031
81.78000 0.225
81.80000 1.453
81.82000 0.961
81.84000 2.168
81.86000 3.194
81.88000 3.557
81.90000 3.423
81.92000 3.688
81.94000 4.681
81.96000 1.174
81.98000 -2.223
82.00000 1.361
82.02000 2.639
82.04000 4.566
82.06000 1.890
82.08000 3.195
82.10000 4.089
82.12000 3.232
82.14000 3.465
82.16000 1.757
82.18000 3.487
82.20000 2.509
82.22000 1.906
82.24000 1.811
82.26000 2.988
82.28000 1.439
82.30000 1.224
82.32000 1.170
82.34000 2.501
82.36000 3.250
82.38000 5.762
82.40000 2.172
82.42000 0.968
82.44000 0.040
82.46000 4.802
82.48000 2.435
82.50000 3.792
82.52000 4.333
82.54000 4.239
82.56000 4.003
82.58000 7.395
82.60000 4.003
82.62000 6.748
82.64000 4.800
82.66000 5.925
82.68000 4.958
82.70000 3.995
82.72000 5.796
82.74000 8.529
82.76000 6.011
82.78000 4.674
82.80000 3.773
82.82000 6.077
82.84000 2.094
82.86000 1.650
82.88000 4.873
82.90000 8.513
82.92000 9.724
82.94000 5.786
82.96000 7.055
82.98000 11.174
83.00000 9.703
83.02000 6.619
83.04000 8.619
83.06000 8.672
83.08000 9.431
83.10000 10.006
83.12000 13.826
83.14000 12.310
83.16000 12.427
83.18000 13.584
83.20000 13.149
83.22000 15.284
83.24000 16.185
83.26000 16.448
83.28000 19.154
83.30000 20.326
83.32000 17.200
83.34000 15.484
83.36000 21.024
83.38000 24.617
83.40000 19.581
83.42000 21.150
83.44000 25.773
83.46000 26.323
83.48000 26.459
83.50000 25.647
83.52000 30.795
83.54000 32.103
83.56000 31.067
83.58000 27.395
83.60000 26.518
83.62000 32.645
83.64000 38.600
83.66000 34.411
83.68000 33.619
83.70000 36.867
83.72000 37.987
83.74000 36.046
83.76000 33.756
83.78000 37.264
83.80000 43.602
83.82000 48.188
83.84000 43.827
83.86000 44.214
83.88000 44.909
83.90000 43.726
83.92000 42.763
83.94000 40.051
83.96000 41.680
83.98000 44.561
84.00000 50.227
84.02000 47.638
84.04000 44.319
84.06000 44.534
84.08000 43.974
84.10000 47.686
84.12000 47.118
84.14000 47.142
84.16000 47.148
84.18000 43.619
84.20000 40.892
84.22000 42.038
84.24000 44.421
84.26000 37.049
84.28000 35.925
84.30000 43.207
84.32000 44.471
84.34000 40.540
84.36000 39.082
84.38000 31.896
84.40000 36.058
84.42000 32.202
84.44000 32.677
84.46000 27.046
84.48000 30.305
84.50000 30.867
84.52000 29.622
84.54000 27.188
84.56000 24.763
84.58000 23.890
84.60000 22.290
84.62000 25.023
84.64000 21.013
84.66000 20.575
84.68000 22.036
84.70000 19.144
84.72000 13.939
84.74000 13.756
84.76000 16.111
84.78000 16.653
84.80000 16.360
84.82000 21.265
84.84000 22.549
84.86000 15.244
84.88000 13.201
84.90000 11.931
84.92000 11.086
84.94000 6.024
84.96000 7.579
84.98000 6.980
85.00000 5.048
85.02000 5.331
85.04000 7.544
85.06000 9.407
85.08000 10.662
85.10000 8.407
85.12000 4.336
85.14000 5.086
85.16000 5.357
85.18000 3.701
85.20000 3.506
85.22000 1.112
85.24000 2.155
85.26000 -0.511
85.28000 -1.320
85.30000 -0.631
85.32000 2.220
85.34000 4.832
85.36000 1.057
85.38000 -2.104
85.40000 -0.748
85.42000 1.019
85.44000 3.443
85.46000 1.331
85.48000 1.972
85.50000 1.866
85.52000 4.839
85.54000 1.003
85.56000 -1.872
85.58000 1.518
85.60000 0.434
85.62000 -2.002
85.64000 0.473
85.66000 2.360
85.68000 2.371
85.70000 3.022
85.72000 3.593
85.74000 2.143
85.76000 3.036
85.78000 -0.272
85.80000 0.884
85.82000 0.883
85.84000 2.328
85.86000 -0.677
85.88000 -2.024
85.90000 -1.375
85.92000 2.625
85.94000 1.125
85.96000 -0.294
85.98000 0.137
86.00000 3.321
86.02000 2.955
86.04000 1.878
86.06000 0.489
86.08000 2.217
86.10000 1.236
86.12000 3.826
86.14000 -0.036
86.16000 -1.544
86.18000 -0.345
86.20000 1.833
86.22000 -0.557
86.24000 -1.977
86.26000 -0.535
86.28000 1.441
86.30000 1.339
86.32000 0.937
86.34000 0.552
86.36000 3.821
86.38000 6.051
86.40000 1.086
86.42000 0.928
86.44000 1.073
86.46000 0.878
86.48000 1.488
86.50000 1.416
86.52000 4.019
86.54000 1.613
86.56000 2.848
86.58000 1.204
86.60000 -1.610
86.62000 -0.679
86.64000 2.978
86.66000 0.557
86.68000 2.239
86.70000 3.598
86.72000 3.162
86.74000 3.362
86.76000 3.430
86.78000 2.200
86.80000 2.262
86.82000 2.940
86.84000 2.537
86.86000 -0.248
86.88000 -1.932
86.90000 -0.839
86.92000 2.997
86.94000 5.349
86.96000 4.548
86.98000 1.134
87.00000 1.928
87.02000 1.742
87.04000 -0.929
87.06000 -1.913
87.08000 1.985
87.10000 0.958
87.12000 2.374
87.14000 3.349
87.16000 1.323
87.18000 0.951
87.20000 1.589
87.22000 0.593
87.24000 1.029
87.26000 2.368
87.28000 5.973
87.30000 4.573
87.32000 -0.153
87.34000 0.279
87.36000 0.390
87.38000 0.184
87.40000 2.446
87.42000 1.934
87.44000 -0.768
87.46000 0.894
87.48000 4.030
87.50000 4.711
87.52000 4.976
87.54000 0.812
87.56000 0.459
87.58000 1.498
87.60000 2.901
87.62000 1.084
87.64000 0.520
87.66000 2.058
87.68000 0.871
87.70000 1.854
87.72000 2.345
87.74000 3.799
87.76000 3.543
87.78000 1.286
87.80000 1.876
87.82000 4.048
87.84000 2.744
87.86000 0.285
87.88000 1.535
87.90000 4.678
87.92000 7.073
87.94000 4.169
87.96000 -1.109
87.98000 1.252
88.00000 2.858
88.02000 2.405
88.04000 1.981
88.06000 1.037
88.08000 2.172
88.10000 0.583
88.12000 -0.021
88.14000 -1.613
88.16000 -0.237
88.18000 1.752
88.20000 2.912
88.22000 2.543
88.24000 2.479
88.26000 0.807
88.28000 2.657
88.30000 0.691
88.32000 -0.263
88.34000 -1.819
88.36000 -1.740
88.38000 1.407
88.40000 2.780
88.42000 -1.859
88.44000 0.834
88.46000 4.182
88.48000 4.975
88.50000 2.704
88.52000 0.915
88.54000 1.629
88.56000 1.825
88.58000 2.757
88.60000 3.719
88.62000 4.672
88.64000 0.378
88.66000 0.169
88.68000 0.150
88.70000 2.335
88.72000 1.444
88.74000 2.259
88.76000 5.058
88.78000 -0.229
88.80000 0.387
88.82000 1.140
88.84000 -0.009
88.86000 0.657
88.88000 2.693
88.90000 4.877
88.92000 4.689
88.94000 0.675
88.96000 0.806
88.98000 1.817
89.00000 -0.253
89.02000 2.664
89.04000 5.629
89.06000 2.208
89.08000 0.695
89.10000 0.724
89.12000 0.298
89.14000 1.616
89.16000 3.247
89.18000 5.242
89.20000 1.920
89.22000 -0.437
89.24000 2.011
89.26000 4.390
89.28000 2.076
89.30000 3.214
89.32000 3.339
89.34000 0.828
89.36000 0.921
89.38000 2.506
89.40000 2.990
89.42000 3.344
89.44000 0.606
89.46000 -0.879
89.48000 1.232
89.50000 3.832
89.52000 2.059
89.54000 1.811
89.56000 1.321
89.58000 0.798
89.60000 -0.491
89.62000 2.366
89.64000 1.154
89.66000 -0.205
89.68000 2.930
89.70000 4.435
89.72000 4.627
89.74000 6.169
89.76000 5.241
89.78000 0.383
89.80000 1.561
89.82000 0.227
89.84000 0.023
89.86000 2.533
89.88000 4.331
89.90000 4.993
89.92000 6.727
89.94000 6.929
89.96000 4.355
89.98000 1.867
90.00000 2.452
90.02000 3.429
90.04000 1.907
90.06000 2.703
90.08000 3.449
90.10000 0.962
90.12000 -0.129
90.14000 4.181
90.16000 1.566
90.18000 2.431
90.20000 3.548
90.22000 4.447
90.24000 5.273
90.26000 2.820
90.28000 1.044
90.30000 4.005
90.32000 4.371
90.34000 4.057
90.36000 4.002
90.38000 1.307
90.40000 -1.827
90.42000 5.126
90.44000 6.406
90.46000 7.191
90.48000 3.895
90.50000 3.377
90.52000 2.745
90.54000 -0.020
90.56000 2.129
90.58000 3.189
90.60000 7.301
90.62000 8.923
90.64000 5.268
90.66000 5.814
90.68000 3.383
90.70000 2.021
90.72000 1.148
90.74000 2.056
90.76000 3.510
90.78000 0.950
90.80000 -0.062
90.82000 1.074
90.84000 3.218
90.86000 2.346
90.88000 1.149
90.90000 0.957
90.92000 0.033
90.94000 5.247
90.96000 2.618
90.98000 2.234
91.00000 1.619
91.02000 1.811
91.04000 5.608
91.06000 2.934
91.08000 0.588
91.10000 2.038
91.12000 4.824
91.14000 3.681
91.16000 -1.866
91.18000 1.620
91.20000 0.407
91.22000 3.890
91.24000 4.831
91.26000 0.295
91.28000 -1.122
91.30000 1.664
91.32000 3.966
91.34000 2.010
91.36000 0.901
91.38000 -0.344
91.40000 -0.830
91.42000 1.581
91.44000 3.689
91.46000 2.915
91.48000 -0.272
91.50000 -0.846
91.52000 2.338
91.54000 0.782
91.56000 0.934
91.58000 0.952
91.60000 0.962
91.62000 4.312
91.64000 2.620
91.66000 -0.450
91.68000 1.553
91.70000 4.512
91.72000 1.404
91.74000 1.086
91.76000 0.897
91.78000 3.273
91.80000 0.801
91.82000 3.282
91.84000 3.452
91.86000 1.830
91.88000 3.032
91.90000 4.063
91.92000 1.790
91.94000 3.245
91.96000 7.374
91.98000 5.170
92.00000 5.932
92.02000 4.706
92.04000 4.531
92.06000 3.635
92.08000 2.403
92.10000 -0.091
92.12000 3.419
92.14000 1.707
92.16000 7.693
92.18000 5.805
92.20000 6.995
92.22000 4.549
92.24000 5.763
92.26000 8.885
92.28000 6.876
92.30000 5.880
92.32000 5.295
92.34000 2.559
92.36000 0.738
92.38000 1.615
92.40000 3.192
92.42000 5.923
92.44000 6.240
92.46000 4.616
92.48000 0.962
92.50000 -1.824
92.52000 1.797
92.54000 0.270
92.56000 3.875
92.58000 2.878
92.60000 4.854
92.62000 4.997
92.64000 2.753
92.66000 3.030
92.68000 6.730
92.70000 8.750
92.72000 4.994
92.74000 2.166
92.76000 1.608
92.78000 5.292
92.80000 4.580
92.82000 0.702
92.84000 1.854
92.86000 3.654
92.88000 6.267
92.90000 6.890
92.92000 5.101
92.94000 3.540
92.96000 6.361
92.98000 4.494
93.00000 0.665
93.02000 2.853
93.04000 0.603
93.06000 -0.603
93.08000 5.635
93.10000 1.940
93.12000 2.431
93.14000 1.833
93.16000 2.865
93.18000 0.640
93.20000 0.151
93.22000 3.674
93.24000 0.384
93.26000 0.252
93.28000 0.253
93.30000 -1.669
93.32000 0.961
93.34000 2.500
93.36000 2.393
93.38000 1.728
93.40000 -0.307
93.42000 1.525
93.44000 2.200
93.46000 -1.520
93.48000 1.217
93.50000 1.776
93.52000 1.109
93.54000 1.855
93.56000 0.902
93.58000 5.679
93.60000 4.511
93.62000 4.611
93.64000 6.110
93.66000 4.605
93.68000 3.069
93.70000 2.771
93.72000 3.519
93.74000 2.325
93.76000 3.636
93.78000 1.999
93.80000 1.412
93.82000 1.769
93.84000 2.208
93.86000 -1.330
93.88000 0.679
93.90000 4.774
93.92000 2.806
93.94000 3.525
93.96000 4.685
93.98000 4.924
94.00000 7.391
94.02000 5.390
94.04000 6.659
94.06000 3.744
94.08000 -1.891
94.10000 -1.379
94.12000 3.884
94.14000 3.260
94.16000 0.451
94.18000 -0.002
94.20000 1.666
94.22000 2.103
94.24000 2.414
94.26000 0.131
94.28000 -0.574
94.30000 0.371
94.32000 2.251
94.34000 1.453
94.36000 -0.214
94.38000 -0.645
94.40000 -0.143
94.42000 0.093
94.44000 1.637
94.46000 -0.631
94.48000 -1.881
94.50000 -0.004
94.52000 0.231
94.54000 1.387
94.56000 -0.295
94.58000 2.655
94.60000 4.072
94.62000 4.496
94.64000 4.136
94.66000 3.065
94.68000 4.590
94.70000 2.583
94.72000 0.502
94.74000 0.546
94.76000 1.963
94.78000 0.397
94.80000 4.250
94.82000 4.239
94.84000 4.391
94.86000 3.909
94.88000 4.478
94.90000 4.722
94.92000 6.359
94.94000 8.015
94.96000 4.080
94.98000 2.729
95.00000 7.248
95.02000 6.596
95.04000 6.703
95.06000 3.945
95.08000 6.446
95.10000 8.632
95.12000 5.425
95.14000 5.236
95.16000 5.325
95.18000 4.896
95.20000 2.675
95.22000 1.145
95.24000 3.159
95.26000 -1.827
95.28000 1.714
95.30000 7.247
95.32000 10.845
95.34000 7.168
95.36000 5.708
95.38000 4.646
95.40000 4.435
95.42000 4.279
95.44000 2.346
95.46000 5.096
95.48000 6.789
95.50000 6.806
95.52000 4.758
95.54000 3.984
95.56000 8.790
95.58000 7.048
95.60000 5.781
95.62000 4.920
95.64000 8.938
95.66000 7.206
95.68000 3.149
95.70000 2.477
95.72000 2.807
95.74000 6.687
95.76000 5.309
95.78000 4.508
95.80000 5.332
95.82000 4.452
95.84000 -1.832
95.86000 1.393
95.88000 3.309
95.90000 1.805
95.92000 6.062
95.94000 6.253
95.96000 5.498
95.98000 9.442
96.00000 7.127
96.02000 7.994
96.04000 8.527
96.06000 3.529
96.08000 2.602
96.10000 1.673
96.12000 5.037
96.14000 5.339
96.16000 3.283
96.18000 4.258
96.20000 7.481
96.22000 9.121
96.24000 7.321
96.26000 4.959
96.28000 5.361
96.30000 4.005
96.32000 4.226
96.34000 8.734
96.36000 10.246
96.38000 5.145
96.40000 2.749
96.42000 3.082
96.44000 2.858
96.46000 7.958
96.48000 8.975
96.50000 4.432
96.52000 3.925
96.54000 4.613
96.56000 6.178
96.58000 7.483
96.60000 4.803
96.62000 2.330
96.64000 3.480
96.66000 5.780
96.68000 5.088
96.70000 4.690
96.72000 3.573
96.74000 2.333
96.76000 2.251
96.78000 7.193
96.80000 5.724
96.82000 6.021
96.84000 6.859
96.86000 8.534
96.88000 10.454
96.90000 5.638
96.92000 6.067
96.94000 2.722
96.96000 -1.806
96.98000 0.948
97.00000 2.164
97.02000 9.282
97.04000 6.537
97.06000 3.614
97.08000 5.499
97.10000 4.397
97.12000 9.081
97.14000 10.127
97.16000 6.630
97.18000 3.508
97.20000 4.041
97.22000 6.495
97.24000 8.689
97.26000 6.726
97.28000 7.557
97.30000 4.123
97.32000 4.077
97.34000 7.247
97.36000 9.406
97.38000 3.005
97.40000 5.374
97.42000 8.382
97.44000 4.743
97.46000 0.532
97.48000 1.753
97.50000 2.806
97.52000 4.478
97.54000 5.769
97.56000 10.528
97.58000 8.205
97.60000 3.995
97.62000 4.335
97.64000 0.690
97.66000 1.714
97.68000 3.811
97.70000 5.856
97.72000 8.994
97.74000 3.328
97.76000 0.879
97.78000 0.305
97.80000 0.332
97.82000 2.409
97.84000 2.485
97.86000 5.537
97.88000 5.820
97.90000 7.238
97.92000 6.290
97.94000 4.022
97.96000 4.809
97.98000 4.517
98.00000 3.375
98.02000 4.976
98.04000 5.949
98.06000 7.889
98.08000 7.663
98.10000 4.981
98.12000 6.090
98.14000 5.990
98.16000 7.523
98.18000 8.518
98.20000 7.274
98.22000 3.106
98.24000 1.338
98.26000 -0.023
98.28000 0.404
98.30000 9.471
98.32000 6.869
98.34000 0.939
98.36000 -1.742
98.38000 3.680
98.40000 4.083
98.42000 -1.834
98.44000 2.325
98.46000 4.710
98.48000 3.588
98.50000 12.895
98.52000 8.524
98.54000 6.407
98.56000 5.720
98.58000 5.511
98.60000 1.772
98.62000 1.430
98.64000 4.118
98.66000 2.649
98.68000 9.187
98.70000 3.095
98.72000 0.128
98.74000 3.433
98.76000 2.354
98.78000 8.253
98.80000 2.619
98.82000 5.379
98.84000 4.089
98.86000 10.384
98.88000 5.870
98.90000 5.966
98.92000 6.750
98.94000 12.069
98.96000 11.283
98.98000 8.210
99.00000 3.773
99.02000 5.380
99.04000 7.799
99.06000 3.870
99.08000 0.240
99.10000 0.716
99.12000 6.157
99.14000 6.404
99.16000 2.531
99.18000 -1.784
99.20000 5.789
99.22000 5.663
99.24000 3.884
99.26000 3.372
99.28000 4.731
99.30000 8.378
99.32000 9.041
99.34000 7.307
99.36000 0.726
99.38000 3.788
99.40000 3.924
99.42000 7.826
99.44000 7.698
99.46000 2.864
99.48000 2.481
99.50000 -1.466
99.52000 1.092
99.54000 12.425
99.56000 10.938
99.58000 -4.549
99.60000 2.106
99.62000 5.932
99.64000 -0.753
99.66000 0.913
99.68000 4.990
99.70000 -1.814
99.72000 0.451
99.74000 7.896
99.76000 8.453
99.78000 6.813
99.80000 14.161
99.82000 13.315
99.84000 8.034
99.86000 -1.502
99.88000 3.926
99.90000 3.087
99.92000 -1.932
99.94000 1.663
99.96000 5.082
99.98000 0.000
