'Id: "0011389" Comment: "Integrate frame 0011389_Au-Ir-Rh_Au-Rich_XRD_Mapping-197-0000.gfrmwith cursor Wedge Cursor #5" Operator: "B?rgel" Anode: "Cu" Wavelength: "1.5406" Scantype: "2Theta (TwoTheta)" TimePerStep: "1" X: "40.5" Y: "4.5" Z: "5.95" 
10.00000 0.000
10.02000 4.921
10.04000 -3.011
10.06000 -2.773
10.08000 4.407
10.10000 6.229
10.12000 5.497
10.14000 3.988
10.16000 2.785
10.18000 0.845
10.20000 2.376
10.22000 13.479
10.24000 5.203
10.26000 5.256
10.28000 9.498
10.30000 16.836
10.32000 5.930
10.34000 5.765
10.36000 11.317
10.38000 10.969
10.40000 17.559
10.42000 19.030
10.44000 17.331
10.46000 15.061
10.48000 4.283
10.50000 -0.361
10.52000 8.337
10.54000 11.945
10.56000 12.529
10.58000 8.056
10.60000 18.908
10.62000 6.161
10.64000 5.577
10.66000 18.013
10.68000 11.151
10.70000 10.274
10.72000 15.852
10.74000 2.614
10.76000 12.404
10.78000 23.169
10.80000 26.678
10.82000 30.683
10.84000 19.413
10.86000 8.270
10.88000 19.457
10.90000 28.233
10.92000 32.765
10.94000 33.510
10.96000 31.680
10.98000 21.864
11.00000 20.474
11.02000 26.793
11.04000 29.830
11.06000 34.940
11.08000 24.736
11.10000 26.976
11.12000 32.412
11.14000 21.129
11.16000 24.263
11.18000 28.145
11.20000 26.863
11.22000 31.021
11.24000 30.386
11.26000 16.291
11.28000 25.875
11.30000 37.300
11.32000 24.987
11.34000 29.762
11.36000 46.091
11.38000 31.774
11.40000 25.498
11.42000 35.825
11.44000 35.802
11.46000 47.619
11.48000 33.711
11.50000 30.191
11.52000 35.725
11.54000 48.455
11.56000 49.109
11.58000 32.970
11.60000 27.942
11.62000 26.362
11.64000 29.729
11.66000 33.606
11.68000 38.585
11.70000 48.261
11.72000 38.856
11.74000 37.907
11.76000 38.532
11.78000 29.330
11.80000 35.931
11.82000 39.324
11.84000 26.216
11.86000 26.266
11.88000 45.213
11.90000 43.404
11.92000 41.024
11.94000 46.351
11.96000 37.766
11.98000 47.746
12.00000 46.159
12.02000 37.222
12.04000 47.486
12.06000 47.643
12.08000 45.134
12.10000 49.641
12.12000 45.445
12.14000 47.316
12.16000 43.200
12.18000 45.169
12.20000 41.610
12.22000 35.754
12.24000 43.404
12.26000 47.482
12.28000 48.568
12.30000 50.837
12.32000 39.979
12.34000 41.438
12.36000 59.869
12.38000 51.458
12.40000 46.856
12.42000 40.084
12.44000 37.299
12.46000 38.811
12.48000 42.894
12.50000 41.556
12.52000 50.185
12.54000 46.485
12.56000 46.040
12.58000 48.731
12.60000 55.762
12.62000 50.221
12.64000 52.258
12.66000 58.662
12.68000 54.577
12.70000 49.444
12.72000 44.954
12.74000 42.884
12.76000 48.748
12.78000 58.009
12.80000 55.513
12.82000 48.730
12.84000 53.423
12.86000 54.199
12.88000 46.483
12.90000 47.660
12.92000 52.522
12.94000 52.658
12.96000 47.687
12.98000 48.885
13.00000 43.500
13.02000 38.982
13.04000 37.929
13.06000 45.260
13.08000 49.593
13.10000 44.109
13.12000 43.561
13.14000 51.639
13.16000 51.076
13.18000 50.268
13.20000 50.260
13.22000 46.114
13.24000 44.785
13.26000 47.573
13.28000 46.372
13.30000 44.358
13.32000 42.012
13.34000 42.460
13.36000 49.854
13.38000 56.154
13.40000 49.307
13.42000 48.276
13.44000 41.733
13.46000 41.412
13.48000 47.035
13.50000 43.257
13.52000 45.272
13.54000 44.808
13.56000 46.804
13.58000 57.405
13.60000 51.090
13.62000 51.157
13.64000 43.930
13.66000 51.271
13.68000 46.853
13.70000 39.514
13.72000 37.327
13.74000 43.331
13.76000 39.444
13.78000 40.409
13.80000 42.095
13.82000 42.062
13.84000 35.974
13.86000 31.562
13.88000 37.364
13.90000 43.553
13.92000 45.879
13.94000 51.980
13.96000 45.606
13.98000 41.539
14.00000 36.189
14.02000 34.344
14.04000 28.121
14.06000 33.318
14.08000 41.157
14.10000 40.660
14.12000 49.079
14.14000 50.237
14.16000 46.827
14.18000 35.886
14.20000 45.570
14.22000 43.433
14.24000 46.108
14.26000 47.081
14.28000 36.300
14.30000 27.924
14.32000 30.796
14.34000 40.153
14.36000 37.953
14.38000 28.867
14.40000 37.217
14.42000 43.449
14.44000 37.718
14.46000 44.295
14.48000 36.135
14.50000 34.851
14.52000 41.257
14.54000 41.677
14.56000 36.954
14.58000 30.456
14.60000 33.500
14.62000 35.891
14.64000 39.905
14.66000 39.959
14.68000 39.539
14.70000 37.438
14.72000 28.083
14.74000 31.722
14.76000 32.912
14.78000 31.398
14.80000 26.866
14.82000 36.090
14.84000 36.337
14.86000 28.350
14.88000 31.083
14.90000 27.712
14.92000 27.133
14.94000 23.918
14.96000 28.677
14.98000 24.333
15.00000 23.978
15.02000 28.003
15.04000 29.501
15.06000 28.043
15.08000 31.652
15.10000 31.234
15.12000 29.770
15.14000 39.908
15.16000 28.672
15.18000 23.314
15.20000 33.453
15.22000 29.320
15.24000 21.274
15.26000 24.663
15.28000 18.509
15.30000 20.127
15.32000 29.137
15.34000 30.856
15.36000 34.615
15.38000 31.885
15.40000 23.682
15.42000 14.262
15.44000 25.725
15.46000 18.598
15.48000 16.058
15.50000 21.017
15.52000 24.980
15.54000 24.371
15.56000 26.593
15.58000 19.569
15.60000 23.624
15.62000 24.164
15.64000 22.034
15.66000 23.907
15.68000 23.594
15.70000 16.413
15.72000 10.073
15.74000 9.929
15.76000 19.430
15.78000 22.982
15.80000 30.046
15.82000 30.350
15.84000 29.353
15.86000 26.094
15.88000 23.718
15.90000 20.178
15.92000 18.330
15.94000 12.443
15.96000 8.239
15.98000 17.874
16.00000 18.457
16.02000 8.786
16.04000 17.593
16.06000 25.544
16.08000 25.159
16.10000 20.263
16.12000 19.461
16.14000 19.709
16.16000 18.306
16.18000 12.759
16.20000 13.995
16.22000 15.037
16.24000 20.183
16.26000 11.174
16.28000 6.456
16.30000 12.487
16.32000 9.578
16.34000 19.100
16.36000 14.839
16.38000 14.815
16.40000 17.098
16.42000 13.909
16.44000 12.566
16.46000 15.729
16.48000 15.069
16.50000 24.560
16.52000 17.706
16.54000 16.703
16.56000 14.112
16.58000 13.587
16.60000 13.778
16.62000 10.426
16.64000 14.921
16.66000 15.254
16.68000 14.422
16.70000 15.797
16.72000 10.564
16.74000 16.807
16.76000 19.438
16.78000 27.580
16.80000 25.689
16.82000 10.609
16.84000 11.079
16.86000 16.812
16.88000 14.409
16.90000 13.327
16.92000 12.872
16.94000 10.674
16.96000 15.558
16.98000 13.588
17.00000 21.760
17.02000 20.492
17.04000 23.605
17.06000 13.388
17.08000 11.944
17.10000 10.080
17.12000 14.556
17.14000 13.463
17.16000 8.973
17.18000 5.023
17.20000 4.699
17.22000 5.203
17.24000 5.526
17.26000 14.005
17.28000 13.415
17.30000 7.984
17.32000 14.499
17.34000 21.448
17.36000 19.238
17.38000 21.659
17.40000 14.156
17.42000 11.027
17.44000 13.334
17.46000 8.443
17.48000 12.104
17.50000 7.639
17.52000 11.082
17.54000 21.385
17.56000 20.744
17.58000 22.811
17.60000 13.835
17.62000 11.587
17.64000 9.554
17.66000 10.586
17.68000 14.148
17.70000 15.740
17.72000 15.412
17.74000 8.613
17.76000 6.133
17.78000 3.948
17.80000 2.452
17.82000 1.912
17.84000 5.042
17.86000 11.733
17.88000 13.865
17.90000 7.517
17.92000 4.962
17.94000 2.999
17.96000 3.683
17.98000 9.640
18.00000 12.991
18.02000 4.589
18.04000 7.354
18.06000 4.328
18.08000 4.119
18.10000 8.646
18.12000 14.224
18.14000 9.898
18.16000 5.079
18.18000 12.946
18.20000 4.610
18.22000 7.315
18.24000 10.846
18.26000 14.552
18.28000 6.694
18.30000 2.031
18.32000 3.005
18.34000 3.623
18.36000 6.677
18.38000 14.476
18.40000 0.097
18.42000 -0.238
18.44000 3.220
18.46000 3.588
18.48000 8.826
18.50000 10.455
18.52000 3.632
18.54000 -0.355
18.56000 0.270
18.58000 3.056
18.60000 4.109
18.62000 5.967
18.64000 0.299
18.66000 8.763
18.68000 10.226
18.70000 -1.069
18.72000 0.771
18.74000 0.698
18.76000 4.708
18.78000 4.767
18.80000 1.750
18.82000 3.322
18.84000 1.537
18.86000 3.784
18.88000 4.582
18.90000 7.906
18.92000 8.538
18.94000 12.232
18.96000 15.208
18.98000 7.112
19.00000 0.129
19.02000 2.166
19.04000 9.416
19.06000 8.839
19.08000 4.872
19.10000 5.277
19.12000 3.691
19.14000 8.750
19.16000 5.401
19.18000 2.792
19.20000 5.810
19.22000 0.826
19.24000 1.375
19.26000 7.812
19.28000 8.961
19.30000 6.248
19.32000 4.414
19.34000 8.163
19.36000 5.449
19.38000 3.711
19.40000 2.815
19.42000 1.102
19.44000 3.778
19.46000 8.987
19.48000 11.932
19.50000 10.821
19.52000 11.276
19.54000 13.580
19.56000 6.068
19.58000 3.029
19.60000 2.866
19.62000 4.200
19.64000 3.521
19.66000 3.484
19.68000 3.575
19.70000 5.198
19.72000 2.524
19.74000 6.408
19.76000 4.653
19.78000 8.210
19.80000 4.626
19.82000 5.255
19.84000 11.057
19.86000 6.954
19.88000 -4.228
19.90000 2.920
19.92000 7.931
19.94000 6.601
19.96000 1.500
19.98000 2.966
20.00000 5.273
20.02000 7.233
20.04000 4.065
20.06000 9.463
20.08000 15.702
20.10000 5.090
20.12000 2.252
20.14000 0.921
20.16000 8.529
20.18000 8.140
20.20000 9.046
20.22000 7.924
20.24000 6.322
20.26000 11.025
20.28000 10.695
20.30000 12.604
20.32000 5.786
20.34000 -1.307
20.36000 5.377
20.38000 -0.376
20.40000 -0.984
20.42000 4.587
20.44000 0.261
20.46000 1.499
20.48000 3.678
20.50000 2.211
20.52000 7.890
20.54000 4.151
20.56000 3.806
20.58000 0.562
20.60000 5.546
20.62000 3.632
20.64000 2.043
20.66000 5.098
20.68000 6.385
20.70000 8.687
20.72000 8.391
20.74000 12.952
20.76000 13.648
20.78000 2.653
20.80000 5.151
20.82000 7.204
20.84000 -0.277
20.86000 0.420
20.88000 0.335
20.90000 2.609
20.92000 6.099
20.94000 -1.136
20.96000 -1.851
20.98000 -4.206
21.00000 -1.684
21.02000 0.739
21.04000 4.614
21.06000 3.148
21.08000 0.472
21.10000 -0.201
21.12000 -0.296
21.14000 6.131
21.16000 5.368
21.18000 -0.555
21.20000 0.872
21.22000 4.509
21.24000 -0.263
21.26000 1.152
21.28000 5.360
21.30000 0.810
21.32000 -0.030
21.34000 2.573
21.36000 4.187
21.38000 -0.544
21.40000 6.467
21.42000 6.545
21.44000 6.851
21.46000 4.495
21.48000 0.028
21.50000 4.271
21.52000 6.743
21.54000 6.317
21.56000 1.199
21.58000 -0.306
21.60000 -1.944
21.62000 3.898
21.64000 5.888
21.66000 8.070
21.68000 2.828
21.70000 5.073
21.72000 3.960
21.74000 0.019
21.76000 3.791
21.78000 4.873
21.80000 -2.337
21.82000 4.555
21.84000 -0.092
21.86000 -2.323
21.88000 -3.268
21.90000 0.429
21.92000 4.925
21.94000 3.161
21.96000 2.309
21.98000 3.913
22.00000 6.574
22.02000 7.266
22.04000 5.431
22.06000 3.030
22.08000 0.258
22.10000 1.683
22.12000 4.490
22.14000 6.349
22.16000 2.553
22.18000 -3.874
22.20000 -1.359
22.22000 -4.122
22.24000 -3.704
22.26000 0.163
22.28000 -2.629
22.30000 2.998
22.32000 8.239
22.34000 8.197
22.36000 6.644
22.38000 7.546
22.40000 5.509
22.42000 3.817
22.44000 -2.894
22.46000 3.468
22.48000 -2.460
22.50000 -3.378
22.52000 -2.854
22.54000 6.337
22.56000 8.782
22.58000 5.183
22.60000 6.255
22.62000 7.193
22.64000 7.676
22.66000 5.223
22.68000 2.347
22.70000 5.839
22.72000 5.671
22.74000 9.030
22.76000 6.509
22.78000 5.522
22.80000 1.444
22.82000 0.965
22.84000 1.515
22.86000 -0.362
22.88000 3.474
22.90000 9.290
22.92000 8.376
22.94000 6.194
22.96000 9.456
22.98000 5.742
23.00000 8.936
23.02000 13.565
23.04000 11.309
23.06000 5.313
23.08000 3.510
23.10000 5.329
23.12000 5.378
23.14000 2.778
23.16000 2.934
23.18000 -1.369
23.20000 1.371
23.22000 2.568
23.24000 4.296
23.26000 1.404
23.28000 2.179
23.30000 5.148
23.32000 6.513
23.34000 2.107
23.36000 2.584
23.38000 3.252
23.40000 1.841
23.42000 -3.890
23.44000 1.105
23.46000 6.431
23.48000 3.178
23.50000 1.912
23.52000 4.188
23.54000 7.911
23.56000 6.647
23.58000 -0.003
23.60000 -4.067
23.62000 0.002
23.64000 2.931
23.66000 0.672
23.68000 3.664
23.70000 3.373
23.72000 6.276
23.74000 2.940
23.76000 4.940
23.78000 4.849
23.80000 5.300
23.82000 4.703
23.84000 6.068
23.86000 0.677
23.88000 -3.091
23.90000 5.952
23.92000 7.134
23.94000 6.586
23.96000 3.648
23.98000 10.243
24.00000 7.740
24.02000 2.500
24.04000 -3.765
24.06000 0.725
24.08000 1.748
24.10000 -2.264
24.12000 -0.689
24.14000 0.890
24.16000 0.000
24.18000 -1.086
24.20000 -2.107
24.22000 0.991
24.24000 4.649
24.26000 4.239
24.28000 5.656
24.30000 -1.291
24.32000 1.068
24.34000 5.484
24.36000 5.648
24.38000 5.794
24.40000 3.565
24.42000 9.680
24.44000 12.685
24.46000 7.205
24.48000 2.714
24.50000 2.512
24.52000 -1.115
24.54000 0.779
24.56000 7.886
24.58000 6.281
24.60000 0.976
24.62000 -0.115
24.64000 2.088
24.66000 7.560
24.68000 7.796
24.70000 -2.444
24.72000 -3.958
24.74000 -1.005
24.76000 5.314
24.78000 4.965
24.80000 4.017
24.82000 6.230
24.84000 4.304
24.86000 2.740
24.88000 7.171
24.90000 5.521
24.92000 4.840
24.94000 3.351
24.96000 5.268
24.98000 3.202
25.00000 -0.338
25.02000 -2.202
25.04000 4.868
25.06000 7.742
25.08000 8.291
25.10000 5.300
25.12000 2.664
25.14000 7.667
25.16000 3.616
25.18000 -3.955
25.20000 -0.569
25.22000 0.499
25.24000 -0.365
25.26000 1.638
25.28000 7.978
25.30000 6.084
25.32000 5.361
25.34000 3.929
25.36000 1.809
25.38000 3.075
25.40000 7.904
25.42000 11.022
25.44000 9.371
25.46000 3.754
25.48000 4.777
25.50000 -0.773
25.52000 -2.248
25.54000 -0.600
25.56000 2.706
25.58000 3.072
25.60000 3.783
25.62000 -1.442
25.64000 6.879
25.66000 6.109
25.68000 7.008
25.70000 9.009
25.72000 3.448
25.74000 3.437
25.76000 2.084
25.78000 3.898
25.80000 7.977
25.82000 9.608
25.84000 6.515
25.86000 0.857
25.88000 3.869
25.90000 6.029
25.92000 3.349
25.94000 3.397
25.96000 4.832
25.98000 6.444
26.00000 -0.201
26.02000 -2.703
26.04000 1.596
26.06000 4.298
26.08000 5.906
26.10000 5.836
26.12000 6.986
26.14000 2.133
26.16000 1.781
26.18000 0.232
26.20000 2.263
26.22000 2.231
26.24000 1.917
26.26000 3.255
26.28000 7.872
26.30000 4.570
26.32000 3.847
26.34000 7.477
26.36000 8.211
26.38000 5.074
26.40000 1.861
26.42000 3.964
26.44000 5.509
26.46000 4.825
26.48000 0.421
26.50000 6.305
26.52000 7.811
26.54000 4.835
26.56000 8.722
26.58000 6.544
26.60000 1.104
26.62000 -0.785
26.64000 0.055
26.66000 2.423
26.68000 5.746
26.70000 7.761
26.72000 7.790
26.74000 4.137
26.76000 -3.864
26.78000 1.930
26.80000 4.097
26.82000 4.247
26.84000 1.258
26.86000 3.115
26.88000 11.912
26.90000 12.413
26.92000 1.816
26.94000 -1.492
26.96000 4.369
26.98000 6.364
27.00000 4.918
27.02000 6.073
27.04000 8.661
27.06000 3.932
27.08000 0.598
27.10000 -1.410
27.12000 6.073
27.14000 3.626
27.16000 4.139
27.18000 1.714
27.20000 0.236
27.22000 2.665
27.24000 7.408
27.26000 10.836
27.28000 10.501
27.30000 6.582
27.32000 1.413
27.34000 0.584
27.36000 4.899
27.38000 3.554
27.40000 0.763
27.42000 4.068
27.44000 4.279
27.46000 5.290
27.48000 1.754
27.50000 4.178
27.52000 3.998
27.54000 3.036
27.56000 7.739
27.58000 6.245
27.60000 2.094
27.62000 -0.261
27.64000 3.019
27.66000 3.489
27.68000 5.434
27.70000 2.818
27.72000 0.749
27.74000 2.271
27.76000 2.619
27.78000 0.573
27.80000 4.432
27.82000 6.553
27.84000 4.100
27.86000 -1.694
27.88000 -2.780
27.90000 -1.476
27.92000 3.357
27.94000 6.505
27.96000 -0.024
27.98000 1.673
28.00000 4.402
28.02000 2.139
28.04000 -1.082
28.06000 3.723
28.08000 7.158
28.10000 3.581
28.12000 5.444
28.14000 2.377
28.16000 0.386
28.18000 1.749
28.20000 4.279
28.22000 -0.670
28.24000 -3.815
28.26000 -3.329
28.28000 3.739
28.30000 6.778
28.32000 3.705
28.34000 2.083
28.36000 0.738
28.38000 6.985
28.40000 14.058
28.42000 9.656
28.44000 9.727
28.46000 9.015
28.48000 4.411
28.50000 0.671
28.52000 -0.459
28.54000 0.859
28.56000 -2.024
28.58000 -2.656
28.60000 0.833
28.62000 0.750
28.64000 0.850
28.66000 -0.613
28.68000 4.938
28.70000 4.910
28.72000 6.148
28.74000 3.212
28.76000 5.108
28.78000 -3.781
28.80000 -1.706
28.82000 6.731
28.84000 2.390
28.86000 3.690
28.88000 5.192
28.90000 2.208
28.92000 -0.256
28.94000 2.660
28.96000 3.882
28.98000 3.101
29.00000 0.889
29.02000 -2.664
29.04000 2.343
29.06000 2.030
29.08000 3.036
29.10000 5.093
29.12000 7.242
29.14000 3.538
29.16000 -0.254
29.18000 -1.915
29.20000 1.232
29.22000 1.528
29.24000 1.292
29.26000 0.350
29.28000 2.627
29.30000 -0.887
29.32000 -2.113
29.34000 7.155
29.36000 5.079
29.38000 0.746
29.40000 -1.913
29.42000 2.077
29.44000 4.854
29.46000 8.418
29.48000 4.837
29.50000 2.444
29.52000 1.064
29.54000 -0.303
29.56000 -0.770
29.58000 5.500
29.60000 5.467
29.62000 5.980
29.64000 1.918
29.66000 2.614
29.68000 3.989
29.70000 5.896
29.72000 5.810
29.74000 1.386
29.76000 2.583
29.78000 2.979
29.80000 -0.356
29.82000 1.953
29.84000 2.403
29.86000 3.832
29.88000 7.403
29.90000 8.034
29.92000 2.249
29.94000 2.398
29.96000 -1.991
29.98000 -0.931
30.00000 6.051
30.02000 9.283
30.04000 5.029
30.06000 -0.031
30.08000 -3.126
30.10000 -0.024
30.12000 -0.070
30.14000 -2.306
30.16000 5.968
30.18000 3.458
30.20000 -1.777
30.22000 0.628
30.24000 2.453
30.26000 2.167
30.28000 5.227
30.30000 5.211
30.32000 3.708
30.34000 4.249
30.36000 0.329
30.38000 -2.385
30.40000 -1.976
30.42000 0.243
30.44000 -2.737
30.46000 -0.451
30.48000 4.293
30.50000 -3.698
30.52000 -0.480
30.54000 3.757
30.56000 -1.268
30.58000 -1.234
30.60000 0.688
30.62000 2.277
30.64000 1.531
30.66000 6.353
30.68000 11.484
30.70000 8.260
30.72000 -0.231
30.74000 1.444
30.76000 11.200
30.78000 12.537
30.80000 7.139
30.82000 2.802
30.84000 -1.698
30.86000 4.296
30.88000 4.144
30.90000 2.148
30.92000 2.862
30.94000 2.976
30.96000 -0.011
30.98000 -3.691
31.00000 -0.022
31.02000 2.092
31.04000 2.332
31.06000 8.987
31.08000 10.488
31.10000 5.180
31.12000 3.144
31.14000 2.110
31.16000 -1.569
31.18000 -1.984
31.20000 2.541
31.22000 4.103
31.24000 5.523
31.26000 -2.538
31.28000 -2.936
31.30000 -0.301
31.32000 5.991
31.34000 7.834
31.36000 6.598
31.38000 2.142
31.40000 0.712
31.42000 3.669
31.44000 7.353
31.46000 3.624
31.48000 0.828
31.50000 2.148
31.52000 2.676
31.54000 3.273
31.56000 0.033
31.58000 1.773
31.60000 -0.344
31.62000 -2.449
31.64000 -1.231
31.66000 5.382
31.68000 5.172
31.70000 4.825
31.72000 4.756
31.74000 6.595
31.76000 5.670
31.78000 9.332
31.80000 4.538
31.82000 3.266
31.84000 4.555
31.86000 5.231
31.88000 6.725
31.90000 4.234
31.92000 5.974
31.94000 6.593
31.96000 6.246
31.98000 2.089
32.00000 0.627
32.02000 2.309
32.04000 2.141
32.06000 -1.543
32.08000 -1.099
32.10000 -1.781
32.12000 -2.087
32.14000 1.232
32.16000 -2.065
32.18000 -3.655
32.20000 2.160
32.22000 1.694
32.24000 3.111
32.26000 -0.485
32.28000 2.335
32.30000 2.904
32.32000 2.582
32.34000 -1.221
32.36000 -3.135
32.38000 2.351
32.40000 4.991
32.42000 5.814
32.44000 6.599
32.46000 5.488
32.48000 3.274
32.50000 6.498
32.52000 2.606
32.54000 -3.631
32.56000 1.191
32.58000 5.300
32.60000 5.100
32.62000 4.975
32.64000 6.115
32.66000 1.526
32.68000 -1.264
32.70000 3.969
32.72000 5.979
32.74000 5.149
32.76000 0.513
32.78000 -1.666
32.80000 0.177
32.82000 2.791
32.84000 -2.850
32.86000 -1.345
32.88000 1.843
32.90000 1.813
32.92000 3.022
32.94000 -0.327
32.96000 2.169
32.98000 -0.129
33.00000 -0.443
33.02000 2.904
33.04000 3.382
33.06000 1.553
33.08000 0.807
33.10000 0.026
33.12000 -1.389
33.14000 4.748
33.16000 8.378
33.18000 1.792
33.20000 4.562
33.22000 3.253
33.24000 1.444
33.26000 6.107
33.28000 0.919
33.30000 -0.329
33.32000 3.360
33.34000 -0.326
33.36000 -1.387
33.38000 5.766
33.40000 -0.972
33.42000 1.943
33.44000 2.899
33.46000 3.184
33.48000 -2.890
33.50000 -2.049
33.52000 -0.164
33.54000 5.070
33.56000 0.883
33.58000 -0.774
33.60000 3.121
33.62000 3.189
33.64000 6.167
33.66000 2.025
33.68000 4.077
33.70000 7.233
33.72000 7.193
33.74000 1.235
33.76000 4.458
33.78000 -0.892
33.80000 1.288
33.82000 5.620
33.84000 5.896
33.86000 0.551
33.88000 -2.076
33.90000 2.498
33.92000 1.035
33.94000 1.003
33.96000 2.649
33.98000 4.057
34.00000 1.140
34.02000 -3.638
34.04000 1.715
34.06000 1.741
34.08000 0.481
34.10000 -0.464
34.12000 -1.505
34.14000 -0.407
34.16000 -0.837
34.18000 1.482
34.20000 5.329
34.22000 5.745
34.24000 3.249
34.26000 3.429
34.28000 4.683
34.30000 0.295
34.32000 -1.428
34.34000 3.161
34.36000 5.465
34.38000 0.900
34.40000 1.895
34.42000 0.580
34.44000 2.440
34.46000 5.063
34.48000 5.776
34.50000 5.568
34.52000 3.314
34.54000 1.343
34.56000 7.581
34.58000 1.868
34.60000 -1.946
34.62000 -1.466
34.64000 0.696
34.66000 0.588
34.68000 -0.139
34.70000 -0.181
34.72000 0.078
34.74000 -1.934
34.76000 3.579
34.78000 2.415
34.80000 1.341
34.82000 0.577
34.84000 -1.043
34.86000 2.873
34.88000 3.688
34.90000 0.858
34.92000 0.529
34.94000 4.170
34.96000 1.495
34.98000 1.193
35.00000 1.032
35.02000 -0.043
35.04000 0.697
35.06000 2.578
35.08000 2.217
35.10000 -3.611
35.12000 -1.224
35.14000 3.516
35.16000 -1.008
35.18000 -3.611
35.20000 -0.048
35.22000 -0.060
35.24000 4.691
35.26000 -0.043
35.28000 2.401
35.30000 5.897
35.32000 3.388
35.34000 0.722
35.36000 1.839
35.38000 -1.753
35.40000 0.340
35.42000 4.926
35.44000 2.945
35.46000 5.859
35.48000 4.105
35.50000 1.940
35.52000 3.301
35.54000 2.053
35.56000 -0.502
35.58000 3.929
35.60000 5.157
35.62000 1.973
35.64000 1.084
35.66000 0.048
35.68000 -1.368
35.70000 0.306
35.72000 -0.757
35.74000 -3.622
35.76000 3.162
35.78000 2.043
35.80000 2.238
35.82000 5.241
35.84000 0.140
35.86000 -1.172
35.88000 2.027
35.90000 -0.121
35.92000 2.583
35.94000 1.053
35.96000 2.004
35.98000 -1.349
36.00000 -1.787
36.02000 -0.040
36.04000 3.426
36.06000 6.643
36.08000 1.325
36.10000 4.332
36.12000 1.079
36.14000 2.512
36.16000 3.722
36.18000 -0.493
36.20000 -1.313
36.22000 -3.388
36.24000 -2.511
36.26000 1.476
36.28000 -3.434
36.30000 -2.246
36.32000 1.708
36.34000 -2.357
36.36000 -3.663
36.38000 1.885
36.40000 -1.975
36.42000 2.939
36.44000 3.920
36.46000 4.425
36.48000 3.692
36.50000 6.023
36.52000 1.281
36.54000 -0.013
36.56000 -1.458
36.58000 -3.684
36.60000 0.303
36.62000 2.959
36.64000 1.409
36.66000 1.746
36.68000 2.368
36.70000 2.792
36.72000 0.302
36.74000 0.612
36.76000 2.186
36.78000 2.903
36.80000 -0.689
36.82000 0.611
36.84000 -0.572
36.86000 -0.689
36.88000 2.527
36.90000 1.776
36.92000 -0.811
36.94000 3.007
36.96000 4.293
36.98000 3.888
37.00000 1.440
37.02000 1.739
37.04000 1.147
37.06000 1.913
37.08000 7.898
37.10000 7.001
37.12000 0.496
37.14000 1.124
37.16000 2.076
37.18000 4.852
37.20000 3.041
37.22000 3.288
37.24000 4.213
37.26000 4.023
37.28000 4.420
37.30000 1.995
37.32000 0.017
37.34000 -0.601
37.36000 5.044
37.38000 5.963
37.40000 1.662
37.42000 2.302
37.44000 4.238
37.46000 5.666
37.48000 5.068
37.50000 5.754
37.52000 4.035
37.54000 5.835
37.56000 2.277
37.58000 0.368
37.60000 2.595
37.62000 3.586
37.64000 4.081
37.66000 8.546
37.68000 9.344
37.70000 2.759
37.72000 7.710
37.74000 10.123
37.76000 7.877
37.78000 11.574
37.80000 15.348
37.82000 14.939
37.84000 8.338
37.86000 15.767
37.88000 14.026
37.90000 13.702
37.92000 15.003
37.94000 11.429
37.96000 16.536
37.98000 22.081
38.00000 19.124
38.02000 18.142
38.04000 18.617
38.06000 18.705
38.08000 18.716
38.10000 17.080
38.12000 20.366
38.14000 25.849
38.16000 23.506
38.18000 22.421
38.20000 25.941
38.22000 23.926
38.24000 26.577
38.26000 28.830
38.28000 34.935
38.30000 35.066
38.32000 39.484
38.34000 41.682
38.36000 42.795
38.38000 40.594
38.40000 43.590
38.42000 41.132
38.44000 44.953
38.46000 51.004
38.48000 51.935
38.50000 50.916
38.52000 50.462
38.54000 51.359
38.56000 53.827
38.58000 61.352
38.60000 64.926
38.62000 66.996
38.64000 72.526
38.66000 76.496
38.68000 75.744
38.70000 77.189
38.72000 78.899
38.74000 81.811
38.76000 83.598
38.78000 89.479
38.80000 92.496
38.82000 99.007
38.84000 106.848
38.86000 110.695
38.88000 116.599
38.90000 116.077
38.92000 126.340
38.94000 135.947
38.96000 135.471
38.98000 137.762
39.00000 148.137
39.02000 156.277
39.04000 168.785
39.06000 178.815
39.08000 189.995
39.10000 202.610
39.12000 214.173
39.14000 225.603
39.16000 233.210
39.18000 250.206
39.20000 260.684
39.22000 271.946
39.24000 293.199
39.26000 301.025
39.28000 309.885
39.30000 336.345
39.32000 358.818
39.34000 366.306
39.36000 385.275
39.38000 413.309
39.40000 434.048
39.42000 458.835
39.44000 482.920
39.46000 500.174
39.48000 524.909
39.50000 550.604
39.52000 560.378
39.54000 577.141
39.56000 608.211
39.58000 625.007
39.60000 641.893
39.62000 656.314
39.64000 674.258
39.66000 685.377
39.68000 692.201
39.70000 700.424
39.72000 702.894
39.74000 710.529
39.76000 713.724
39.78000 701.109
39.80000 700.578
39.82000 697.136
39.84000 689.732
39.86000 677.130
39.88000 666.549
39.90000 662.682
39.92000 632.894
39.94000 620.176
39.96000 604.586
39.98000 575.643
40.00000 559.356
40.02000 539.931
40.04000 520.042
40.06000 493.935
40.08000 476.013
40.10000 456.973
40.12000 434.164
40.14000 413.830
40.16000 383.172
40.18000 360.212
40.20000 348.523
40.22000 334.486
40.24000 313.698
40.26000 295.026
40.28000 268.116
40.30000 250.858
40.32000 234.613
40.34000 218.934
40.36000 211.000
40.38000 194.526
40.40000 183.003
40.42000 173.953
40.44000 167.789
40.46000 161.317
40.48000 143.624
40.50000 133.602
40.52000 126.830
40.54000 117.494
40.56000 114.486
40.58000 104.227
40.60000 99.354
40.62000 98.679
40.64000 91.845
40.66000 86.122
40.68000 74.771
40.70000 72.376
40.72000 72.662
40.74000 68.670
40.76000 59.784
40.78000 53.859
40.80000 55.172
40.82000 48.825
40.84000 49.623
40.86000 47.028
40.88000 49.543
40.90000 48.191
40.92000 40.274
40.94000 37.394
40.96000 34.289
40.98000 33.348
41.00000 37.739
41.02000 34.108
41.04000 29.955
41.06000 22.019
41.08000 22.731
41.10000 20.993
41.12000 19.944
41.14000 21.411
41.16000 16.699
41.18000 17.073
41.20000 18.299
41.22000 18.416
41.24000 17.970
41.26000 19.899
41.28000 20.072
41.30000 19.035
41.32000 18.637
41.34000 13.065
41.36000 11.896
41.38000 8.081
41.40000 9.568
41.42000 12.342
41.44000 14.036
41.46000 10.635
41.48000 11.993
41.50000 9.781
41.52000 7.470
41.54000 9.552
41.56000 6.696
41.58000 5.778
41.60000 5.653
41.62000 4.549
41.64000 5.121
41.66000 6.985
41.68000 8.567
41.70000 6.766
41.72000 4.024
41.74000 9.695
41.76000 5.845
41.78000 2.857
41.80000 3.387
41.82000 6.070
41.84000 5.462
41.86000 3.871
41.88000 3.914
41.90000 5.132
41.92000 4.319
41.94000 -0.664
41.96000 -0.056
41.98000 3.756
42.00000 1.751
42.02000 2.941
42.04000 1.929
42.06000 -3.438
42.08000 0.195
42.10000 1.705
42.12000 -0.413
42.14000 -0.073
42.16000 1.477
42.18000 3.933
42.20000 1.613
42.22000 1.061
42.24000 2.283
42.26000 4.413
42.28000 4.712
42.30000 5.681
42.32000 4.734
42.34000 3.612
42.36000 3.474
42.38000 0.258
42.40000 0.078
42.42000 -1.898
42.44000 -3.360
42.46000 1.362
42.48000 3.377
42.50000 4.432
42.52000 5.511
42.54000 0.756
42.56000 -0.116
42.58000 -0.350
42.60000 0.771
42.62000 1.440
42.64000 3.995
42.66000 -1.777
42.68000 -2.277
42.70000 1.855
42.72000 6.033
42.74000 3.639
42.76000 -1.818
42.78000 2.906
42.80000 4.941
42.82000 2.782
42.84000 -0.619
42.86000 0.608
42.88000 1.247
42.90000 1.858
42.92000 1.306
42.94000 -0.001
42.96000 -1.731
42.98000 1.778
43.00000 0.795
43.02000 2.935
43.04000 3.031
43.06000 2.670
43.08000 1.447
43.10000 -1.344
43.12000 2.895
43.14000 -1.181
43.16000 1.171
43.18000 4.119
43.20000 6.198
43.22000 5.070
43.24000 4.753
43.26000 5.132
43.28000 2.461
43.30000 1.852
43.32000 0.439
43.34000 -2.740
43.36000 -3.260
43.38000 -1.230
43.40000 -1.189
43.42000 3.812
43.44000 7.120
43.46000 6.959
43.48000 0.915
43.50000 0.507
43.52000 -1.884
43.54000 -0.266
43.56000 0.470
43.58000 4.623
43.60000 2.142
43.62000 1.749
43.64000 -2.317
43.66000 -1.831
43.68000 0.790
43.70000 1.649
43.72000 0.287
43.74000 -2.608
43.76000 -0.126
43.78000 -0.250
43.80000 0.532
43.82000 2.589
43.84000 2.716
43.86000 4.632
43.88000 7.102
43.90000 2.996
43.92000 5.897
43.94000 3.654
43.96000 -0.179
43.98000 2.710
44.00000 2.533
44.02000 1.181
44.04000 1.686
44.06000 6.062
44.08000 8.845
44.10000 2.199
44.12000 -3.198
44.14000 0.194
44.16000 1.066
44.18000 0.747
44.20000 3.674
44.22000 2.717
44.24000 -0.079
44.26000 0.024
44.28000 0.578
44.30000 -0.623
44.32000 -0.924
44.34000 4.358
44.36000 5.935
44.38000 6.819
44.40000 5.357
44.42000 4.400
44.44000 3.376
44.46000 2.169
44.48000 -1.090
44.50000 0.470
44.52000 0.838
44.54000 3.816
44.56000 2.922
44.58000 2.028
44.60000 1.431
44.62000 3.585
44.64000 6.692
44.66000 2.610
44.68000 1.592
44.70000 0.218
44.72000 1.271
44.74000 0.585
44.76000 3.098
44.78000 8.031
44.80000 10.530
44.82000 7.632
44.84000 7.294
44.86000 6.711
44.88000 9.524
44.90000 5.420
44.92000 4.866
44.94000 6.198
44.96000 3.932
44.98000 11.220
45.00000 5.874
45.02000 10.312
45.04000 10.750
45.06000 9.915
45.08000 8.068
45.10000 6.443
45.12000 7.293
45.14000 11.185
45.16000 8.375
45.18000 8.652
45.20000 9.735
45.22000 9.287
45.24000 10.204
45.26000 9.517
45.28000 12.986
45.30000 14.347
45.32000 12.336
45.34000 12.215
45.36000 11.970
45.38000 15.491
45.40000 13.217
45.42000 9.491
45.44000 12.599
45.46000 19.107
45.48000 22.394
45.50000 21.237
45.52000 23.004
45.54000 22.209
45.56000 21.097
45.58000 18.452
45.60000 21.406
45.62000 24.518
45.64000 23.773
45.66000 28.040
45.68000 26.823
45.70000 28.576
45.72000 35.185
45.74000 29.543
45.76000 30.841
45.78000 34.842
45.80000 34.262
45.82000 36.979
45.84000 40.301
45.86000 41.170
45.88000 37.042
45.90000 36.227
45.92000 36.625
45.94000 39.925
45.96000 45.453
45.98000 50.200
46.00000 48.924
46.02000 51.121
46.04000 51.894
46.06000 58.412
46.08000 58.470
46.10000 54.313
46.12000 57.948
46.14000 62.733
46.16000 62.944
46.18000 63.741
46.20000 63.129
46.22000 65.933
46.24000 64.256
46.26000 59.476
46.28000 65.555
46.30000 72.349
46.32000 65.860
46.34000 59.695
46.36000 67.159
46.38000 71.615
46.40000 68.424
46.42000 72.487
46.44000 71.489
46.46000 70.378
46.48000 67.996
46.50000 63.583
46.52000 67.070
46.54000 71.517
46.56000 71.569
46.58000 68.042
46.60000 66.732
46.62000 64.671
46.64000 67.077
46.66000 61.834
46.68000 60.836
46.70000 58.369
46.72000 59.312
46.74000 53.574
46.76000 50.658
46.78000 48.991
46.80000 53.869
46.82000 51.067
46.84000 53.638
46.86000 51.094
46.88000 42.550
46.90000 42.016
46.92000 43.709
46.94000 42.977
46.96000 37.119
46.98000 36.676
47.00000 34.743
47.02000 32.034
47.04000 32.708
47.06000 32.663
47.08000 26.000
47.10000 28.364
47.12000 27.744
47.14000 23.957
47.16000 19.340
47.18000 20.775
47.20000 27.340
47.22000 23.369
47.24000 23.657
47.26000 19.162
47.28000 16.564
47.30000 11.386
47.32000 12.237
47.34000 14.475
47.36000 12.480
47.38000 9.467
47.40000 11.055
47.42000 9.762
47.44000 11.401
47.46000 13.327
47.48000 10.599
47.50000 9.307
47.52000 11.054
47.54000 8.727
47.56000 9.507
47.58000 5.549
47.60000 4.052
47.62000 7.387
47.64000 5.680
47.66000 2.714
47.68000 0.099
47.70000 0.311
47.72000 4.467
47.74000 12.001
47.76000 6.169
47.78000 8.602
47.80000 8.341
47.82000 3.251
47.84000 -1.792
47.86000 -0.144
47.88000 3.552
47.90000 3.030
47.92000 1.737
47.94000 3.658
47.96000 0.912
47.98000 0.557
48.00000 -0.303
48.02000 0.671
48.04000 -0.313
48.06000 0.904
48.08000 3.712
48.10000 1.819
48.12000 -1.003
48.14000 -2.332
48.16000 1.844
48.18000 1.914
48.20000 6.635
48.22000 0.735
48.24000 -0.692
48.26000 1.820
48.28000 -1.015
48.30000 -2.839
48.32000 -1.909
48.34000 2.501
48.36000 0.794
48.38000 0.892
48.40000 0.634
48.42000 3.270
48.44000 2.074
48.46000 3.764
48.48000 -0.158
48.50000 0.855
48.52000 2.274
48.54000 2.489
48.56000 5.955
48.58000 4.814
48.60000 2.850
48.62000 2.979
48.64000 -2.814
48.66000 -1.024
48.68000 0.145
48.70000 3.395
48.72000 3.667
48.74000 -2.808
48.76000 -0.514
48.78000 -0.724
48.80000 2.668
48.82000 3.116
48.84000 2.171
48.86000 1.338
48.88000 -0.169
48.90000 2.133
48.92000 3.474
48.94000 0.202
48.96000 0.770
48.98000 -0.558
49.00000 -0.546
49.02000 0.881
49.04000 1.255
49.06000 2.121
49.08000 1.308
49.10000 0.836
49.12000 3.203
49.14000 2.790
49.16000 5.537
49.18000 4.225
49.20000 4.479
49.22000 3.307
49.24000 2.545
49.26000 6.050
49.28000 -0.113
49.30000 0.093
49.32000 0.953
49.34000 -0.525
49.36000 5.688
49.38000 1.197
49.40000 -1.621
49.42000 -2.758
49.44000 1.224
49.46000 1.862
49.48000 4.886
49.50000 4.215
49.52000 1.231
49.54000 2.643
49.56000 0.747
49.58000 1.653
49.60000 7.339
49.62000 8.530
49.64000 5.967
49.66000 0.352
49.68000 3.516
49.70000 6.840
49.72000 0.777
49.74000 0.135
49.76000 3.328
49.78000 4.350
49.80000 2.946
49.82000 4.647
49.84000 4.589
49.86000 4.845
49.88000 3.765
49.90000 1.354
49.92000 -0.111
49.94000 -2.706
49.96000 0.420
49.98000 -1.610
50.00000 0.287
50.02000 1.934
50.04000 0.738
50.06000 -2.693
50.08000 -0.532
50.10000 1.677
50.12000 0.810
50.14000 -0.175
50.16000 4.333
50.18000 5.205
50.20000 2.883
50.22000 2.908
50.24000 4.619
50.26000 7.176
50.28000 4.814
50.30000 4.472
50.32000 2.240
50.34000 4.819
50.36000 4.141
50.38000 2.575
50.40000 2.960
50.42000 7.013
50.44000 7.431
50.46000 1.991
50.48000 0.359
50.50000 1.108
50.52000 0.595
50.54000 3.836
50.56000 3.385
50.58000 0.360
50.60000 -1.923
50.62000 1.665
50.64000 3.164
50.66000 4.379
50.68000 0.802
50.70000 -0.072
50.72000 2.662
50.74000 1.787
50.76000 5.729
50.78000 3.642
50.80000 1.284
50.82000 -0.519
50.84000 -1.751
50.86000 2.831
50.88000 4.804
50.90000 7.818
50.92000 4.526
50.94000 2.426
50.96000 0.764
50.98000 1.863
51.00000 -2.648
51.02000 1.815
51.04000 4.458
51.06000 4.345
51.08000 5.379
51.10000 6.074
51.12000 5.377
51.14000 2.805
51.16000 4.645
51.18000 3.965
51.20000 4.126
51.22000 -1.022
51.24000 3.019
51.26000 5.472
51.28000 2.955
51.30000 5.303
51.32000 7.182
51.34000 8.959
51.36000 6.477
51.38000 -1.359
51.40000 0.831
51.42000 4.267
51.44000 5.661
51.46000 7.529
51.48000 13.103
51.50000 8.440
51.52000 -0.230
51.54000 0.211
51.56000 4.260
51.58000 2.380
51.60000 -0.348
51.62000 0.288
51.64000 4.734
51.66000 1.373
51.68000 2.772
51.70000 4.957
51.72000 4.932
51.74000 5.779
51.76000 8.446
51.78000 7.510
51.80000 9.570
51.82000 6.290
51.84000 4.793
51.86000 5.114
51.88000 4.041
51.90000 3.306
51.92000 4.517
51.94000 6.273
51.96000 4.612
51.98000 3.496
52.00000 5.714
52.02000 5.792
52.04000 4.876
52.06000 7.523
52.08000 10.699
52.10000 8.327
52.12000 8.068
52.14000 5.862
52.16000 2.760
52.18000 4.468
52.20000 4.328
52.22000 6.046
52.24000 2.665
52.26000 2.747
52.28000 -2.551
52.30000 3.069
52.32000 4.318
52.34000 5.253
52.36000 9.251
52.38000 7.976
52.40000 6.100
52.42000 5.832
52.44000 3.802
52.46000 3.302
52.48000 3.970
52.50000 9.436
52.52000 10.666
52.54000 8.263
52.56000 7.134
52.58000 7.238
52.60000 8.437
52.62000 9.781
52.64000 5.681
52.66000 5.857
52.68000 7.643
52.70000 6.394
52.72000 8.311
52.74000 6.894
52.76000 8.351
52.78000 5.165
52.80000 4.392
52.82000 4.448
52.84000 -0.268
52.86000 2.022
52.88000 10.684
52.90000 7.565
52.92000 5.799
52.94000 3.614
52.96000 1.351
52.98000 0.869
53.00000 1.079
53.02000 1.255
53.04000 2.434
53.06000 4.603
53.08000 3.225
53.10000 4.593
53.12000 5.763
53.14000 7.266
53.16000 5.509
53.18000 6.358
53.20000 4.843
53.22000 4.671
53.24000 6.588
53.26000 3.595
53.28000 5.922
53.30000 3.780
53.32000 5.134
53.34000 4.467
53.36000 1.994
53.38000 3.650
53.40000 0.896
53.42000 0.028
53.44000 -1.202
53.46000 -2.557
53.48000 1.404
53.50000 1.321
53.52000 0.426
53.54000 3.273
53.56000 1.082
53.58000 3.508
53.60000 1.117
53.62000 5.180
53.64000 5.078
53.66000 4.949
53.68000 2.098
53.70000 4.253
53.72000 3.687
53.74000 -1.246
53.76000 2.659
53.78000 2.373
53.80000 2.065
53.82000 3.049
53.84000 4.952
53.86000 3.875
53.88000 2.783
53.90000 3.683
53.92000 7.724
53.94000 8.605
53.96000 2.008
53.98000 2.897
54.00000 4.220
54.02000 0.627
54.04000 -0.646
54.06000 3.142
54.08000 4.549
54.10000 5.421
54.12000 5.267
54.14000 8.284
54.16000 6.055
54.18000 2.136
54.20000 -1.310
54.22000 2.096
54.24000 2.399
54.26000 2.508
54.28000 4.923
54.30000 1.761
54.32000 3.439
54.34000 3.530
54.36000 4.091
54.38000 0.279
54.40000 4.049
54.42000 2.311
54.44000 -2.305
54.46000 -0.957
54.48000 1.860
54.50000 2.458
54.52000 5.429
54.54000 6.116
54.56000 2.777
54.58000 -2.051
54.60000 -0.250
54.62000 -1.145
54.64000 3.423
54.66000 5.590
54.68000 6.294
54.70000 1.729
54.72000 -1.360
54.74000 3.185
54.76000 -0.200
54.78000 -1.768
54.80000 4.883
54.82000 5.224
54.84000 4.360
54.86000 2.947
54.88000 -1.237
54.90000 -2.093
54.92000 -1.352
54.94000 -1.782
54.96000 2.312
54.98000 -0.190
55.00000 -2.544
55.02000 -2.541
55.04000 4.227
55.06000 2.201
55.08000 3.115
55.10000 3.102
55.12000 2.658
55.14000 0.234
55.16000 3.080
55.18000 4.664
55.20000 2.063
55.22000 1.744
55.24000 -1.760
55.26000 0.953
55.28000 2.362
55.30000 4.932
55.32000 1.976
55.34000 2.141
55.36000 1.820
55.38000 2.294
55.40000 1.822
55.42000 6.745
55.44000 9.076
55.46000 8.829
55.48000 4.651
55.50000 2.449
55.52000 4.902
55.54000 1.306
55.56000 3.012
55.58000 3.065
55.60000 3.601
55.62000 3.758
55.64000 3.026
55.66000 -0.084
55.68000 4.888
55.70000 5.614
55.72000 4.458
55.74000 2.522
55.76000 -0.487
55.78000 1.058
55.80000 3.646
55.82000 6.292
55.84000 4.312
55.86000 0.381
55.88000 0.469
55.90000 1.211
55.92000 0.958
55.94000 1.534
55.96000 0.520
55.98000 2.757
56.00000 3.195
56.02000 1.892
56.04000 3.352
56.06000 2.608
56.08000 3.287
56.10000 1.799
56.12000 1.060
56.14000 2.691
56.16000 3.650
56.18000 3.663
56.20000 -1.415
56.22000 -1.632
56.24000 -2.529
56.26000 2.598
56.28000 4.907
56.30000 3.001
56.32000 2.163
56.34000 0.438
56.36000 0.854
56.38000 0.608
56.40000 3.434
56.42000 2.313
56.44000 0.141
56.46000 0.599
56.48000 -1.131
56.50000 -0.105
56.52000 2.676
56.54000 1.209
56.56000 -0.871
56.58000 -0.018
56.60000 1.314
56.62000 3.954
56.64000 2.384
56.66000 2.323
56.68000 0.358
56.70000 2.982
56.72000 2.003
56.74000 4.011
56.76000 3.926
56.78000 5.061
56.80000 3.857
56.82000 2.989
56.84000 3.976
56.86000 6.065
56.88000 -1.814
56.90000 -2.492
56.92000 5.975
56.94000 7.206
56.96000 3.633
56.98000 -0.992
57.00000 -2.210
57.02000 0.993
57.04000 -0.627
57.06000 3.868
57.08000 5.618
57.10000 8.421
57.12000 3.849
57.14000 2.257
57.16000 4.243
57.18000 5.096
57.20000 0.592
57.22000 1.444
57.24000 2.354
57.26000 2.659
57.28000 3.604
57.30000 5.413
57.32000 5.359
57.34000 1.973
57.36000 2.006
57.38000 0.344
57.40000 5.412
57.42000 2.362
57.44000 1.979
57.46000 2.573
57.48000 3.052
57.50000 4.644
57.52000 6.654
57.54000 2.818
57.56000 0.474
57.58000 3.484
57.60000 7.106
57.62000 1.432
57.64000 1.765
57.66000 3.692
57.68000 2.267
57.70000 1.613
57.72000 4.316
57.74000 2.341
57.76000 2.589
57.78000 3.222
57.80000 5.650
57.82000 3.296
57.84000 4.688
57.86000 5.040
57.88000 6.777
57.90000 5.296
57.92000 7.538
57.94000 5.685
57.96000 2.576
57.98000 0.751
58.00000 2.761
58.02000 3.664
58.04000 2.997
58.06000 -0.448
58.08000 0.527
58.10000 0.669
58.12000 4.885
58.14000 3.904
58.16000 6.184
58.18000 4.122
58.20000 0.684
58.22000 -1.157
58.24000 -2.079
58.26000 -0.167
58.28000 -2.416
58.30000 4.247
58.32000 8.743
58.34000 9.167
58.36000 4.670
58.38000 2.745
58.40000 1.069
58.42000 3.148
58.44000 4.335
58.46000 7.201
58.48000 8.242
58.50000 0.617
58.52000 -2.421
58.54000 0.940
58.56000 2.947
58.58000 0.705
58.60000 3.453
58.62000 3.153
58.64000 1.831
58.66000 2.820
58.68000 -0.567
58.70000 0.880
58.72000 4.935
58.74000 2.037
58.76000 3.362
58.78000 3.452
58.80000 2.273
58.82000 6.098
58.84000 7.139
58.86000 3.418
58.88000 2.379
58.90000 3.471
58.92000 9.122
58.94000 7.777
58.96000 2.251
58.98000 3.297
59.00000 1.669
59.02000 1.811
59.04000 2.776
59.06000 8.859
59.08000 9.422
59.10000 3.224
59.12000 1.917
59.14000 -1.253
59.16000 -0.493
59.18000 3.512
59.20000 1.958
59.22000 4.300
59.24000 4.104
59.26000 3.881
59.28000 4.165
59.30000 3.713
59.32000 3.726
59.34000 7.821
59.36000 5.820
59.38000 6.711
59.40000 9.161
59.42000 5.914
59.44000 2.629
59.46000 2.294
59.48000 1.606
59.50000 4.957
59.52000 4.788
59.54000 3.722
59.56000 3.610
59.58000 1.585
59.60000 1.692
59.62000 5.652
59.64000 6.349
59.66000 1.801
59.68000 -0.973
59.70000 -2.387
59.72000 -1.019
59.74000 3.623
59.76000 4.915
59.78000 4.229
59.80000 4.610
59.82000 6.925
59.84000 3.447
59.86000 1.011
59.88000 4.974
59.90000 7.770
59.92000 3.011
59.94000 3.297
59.96000 5.235
59.98000 -0.740
60.00000 4.252
60.02000 5.162
60.04000 3.393
60.06000 6.518
60.08000 2.126
60.10000 1.173
60.12000 1.885
60.14000 2.648
60.16000 5.771
60.18000 6.602
60.20000 4.827
60.22000 4.418
60.24000 6.075
60.26000 7.843
60.28000 3.872
60.30000 2.385
60.32000 3.703
60.34000 4.433
60.36000 4.877
60.38000 2.394
60.40000 0.112
60.42000 4.442
60.44000 5.457
60.46000 4.557
60.48000 6.013
60.50000 5.308
60.52000 9.605
60.54000 6.480
60.56000 5.133
60.58000 6.184
60.60000 7.490
60.62000 11.347
60.64000 10.314
60.66000 3.167
60.68000 -2.339
60.70000 1.205
60.72000 0.377
60.74000 0.517
60.76000 2.929
60.78000 5.156
60.80000 4.113
60.82000 1.988
60.84000 7.251
60.86000 5.705
60.88000 7.788
60.90000 9.647
60.92000 3.339
60.94000 4.595
60.96000 5.134
60.98000 1.491
61.00000 3.242
61.02000 0.373
61.04000 2.789
61.06000 1.545
61.08000 -0.510
61.10000 0.036
61.12000 -0.244
61.14000 1.661
61.16000 1.047
61.18000 0.878
61.20000 5.717
61.22000 6.934
61.24000 5.993
61.26000 6.682
61.28000 3.198
61.30000 2.721
61.32000 1.100
61.34000 -0.746
61.36000 -0.479
61.38000 2.412
61.40000 3.201
61.42000 4.076
61.44000 5.973
61.46000 5.875
61.48000 2.665
61.50000 -0.300
61.52000 2.507
61.54000 2.975
61.56000 2.703
61.58000 2.905
61.60000 6.956
61.62000 7.173
61.64000 2.143
61.66000 0.223
61.68000 1.214
61.70000 4.578
61.72000 8.436
61.74000 1.778
61.76000 5.123
61.78000 4.987
61.80000 0.555
61.82000 0.261
61.84000 2.090
61.86000 6.357
61.88000 4.581
61.90000 0.576
61.92000 1.478
61.94000 -2.356
61.96000 1.139
61.98000 3.687
62.00000 2.203
62.02000 3.215
62.04000 3.778
62.06000 4.245
62.08000 2.264
62.10000 4.011
62.12000 6.705
62.14000 5.958
62.16000 2.789
62.18000 1.206
62.20000 -1.195
62.22000 0.273
62.24000 1.862
62.26000 4.122
62.28000 4.600
62.30000 -1.353
62.32000 -1.361
62.34000 0.193
62.36000 -1.289
62.38000 0.086
62.40000 0.716
62.42000 1.710
62.44000 0.822
62.46000 1.302
62.48000 0.719
62.50000 1.076
62.52000 0.888
62.54000 0.865
62.56000 0.429
62.58000 -0.018
62.60000 3.019
62.62000 4.712
62.64000 3.651
62.66000 1.117
62.68000 -0.218
62.70000 -1.363
62.72000 -2.351
62.74000 -1.723
62.76000 2.005
62.78000 7.957
62.80000 4.626
62.82000 1.939
62.84000 2.132
62.86000 0.558
62.88000 0.353
62.90000 4.246
62.92000 0.557
62.94000 2.237
62.96000 4.360
62.98000 2.560
63.00000 0.673
63.02000 3.380
63.04000 -0.700
63.06000 -0.434
63.08000 2.934
63.10000 1.610
63.12000 -1.119
63.14000 1.824
63.16000 -1.881
63.18000 -1.096
63.20000 -1.052
63.22000 0.286
63.24000 5.758
63.26000 5.049
63.28000 2.474
63.30000 2.450
63.32000 1.073
63.34000 2.022
63.36000 -0.127
63.38000 0.858
63.40000 -0.346
63.42000 -0.522
63.44000 -1.413
63.46000 -0.597
63.48000 -1.009
63.50000 -1.196
63.52000 1.032
63.54000 2.880
63.56000 2.863
63.58000 0.215
63.60000 -0.835
63.62000 0.499
63.64000 1.320
63.66000 1.578
63.68000 -0.127
63.70000 -0.038
63.72000 4.881
63.74000 0.990
63.76000 -0.479
63.78000 1.366
63.80000 3.395
63.82000 0.793
63.84000 2.206
63.86000 5.781
63.88000 3.699
63.90000 -2.383
63.92000 -1.084
63.94000 0.727
63.96000 1.895
63.98000 0.468
64.00000 0.666
64.02000 0.900
64.04000 1.847
64.06000 1.800
64.08000 -0.546
64.10000 -0.392
64.12000 1.207
64.14000 3.241
64.16000 -2.386
64.18000 -1.157
64.20000 2.108
64.22000 0.228
64.24000 4.533
64.26000 2.695
64.28000 2.764
64.30000 1.452
64.32000 1.357
64.34000 -1.172
64.36000 2.209
64.38000 2.357
64.40000 1.937
64.42000 1.814
64.44000 0.389
64.46000 0.827
64.48000 2.646
64.50000 2.553
64.52000 0.973
64.54000 1.577
64.56000 0.073
64.58000 2.211
64.60000 0.455
64.62000 -0.281
64.64000 0.565
64.66000 1.987
64.68000 2.356
64.70000 3.860
64.72000 2.725
64.74000 1.458
64.76000 1.998
64.78000 3.573
64.80000 3.172
64.82000 2.656
64.84000 1.976
64.86000 3.313
64.88000 3.305
64.90000 1.691
64.92000 0.999
64.94000 -1.705
64.96000 2.964
64.98000 4.428
65.00000 1.840
65.02000 4.222
65.04000 3.855
65.06000 1.196
65.08000 -1.927
65.10000 -2.394
65.12000 -1.094
65.14000 1.682
65.16000 -0.721
65.18000 -0.051
65.20000 -2.393
65.22000 -1.440
65.24000 0.584
65.26000 1.061
65.28000 0.027
65.30000 0.965
65.32000 -0.685
65.34000 1.212
65.36000 3.157
65.38000 2.274
65.40000 0.281
65.42000 1.761
65.44000 2.697
65.46000 2.477
65.48000 3.284
65.50000 3.966
65.52000 0.750
65.54000 2.397
65.56000 4.835
65.58000 2.064
65.60000 5.032
65.62000 5.347
65.64000 6.166
65.66000 6.432
65.68000 4.060
65.70000 1.884
65.72000 0.046
65.74000 0.458
65.76000 1.623
65.78000 4.682
65.80000 5.909
65.82000 3.036
65.84000 2.453
65.86000 0.595
65.88000 -0.740
65.90000 -2.386
65.92000 1.006
65.94000 3.057
65.96000 2.684
65.98000 3.201
66.00000 4.737
66.02000 6.983
66.04000 4.781
66.06000 4.625
66.08000 3.517
66.10000 3.339
66.12000 2.457
66.14000 3.299
66.16000 5.562
66.18000 5.702
66.20000 3.936
66.22000 3.210
66.24000 5.018
66.26000 6.815
66.28000 7.096
66.30000 4.554
66.32000 6.313
66.34000 2.475
66.36000 1.451
66.38000 2.490
66.40000 2.850
66.42000 4.434
66.44000 6.350
66.46000 5.355
66.48000 4.017
66.50000 0.724
66.52000 -0.343
66.54000 5.688
66.56000 5.719
66.58000 6.092
66.60000 6.305
66.62000 4.856
66.64000 4.390
66.66000 4.875
66.68000 5.198
66.70000 5.655
66.72000 6.878
66.74000 9.641
66.76000 10.606
66.78000 8.753
66.80000 4.182
66.82000 3.943
66.84000 9.085
66.86000 7.155
66.88000 11.687
66.90000 11.491
66.92000 10.326
66.94000 9.623
66.96000 10.005
66.98000 11.129
67.00000 13.839
67.02000 12.465
67.04000 13.532
67.06000 12.998
67.08000 11.356
67.10000 14.916
67.12000 17.902
67.14000 14.553
67.16000 14.614
67.18000 16.895
67.20000 14.696
67.22000 14.028
67.24000 16.387
67.26000 16.152
67.28000 17.704
67.30000 17.059
67.32000 20.461
67.34000 14.182
67.36000 15.480
67.38000 18.035
67.40000 19.620
67.42000 21.074
67.44000 15.656
67.46000 16.866
67.48000 15.822
67.50000 16.948
67.52000 16.150
67.54000 21.636
67.56000 22.143
67.58000 20.679
67.60000 20.441
67.62000 21.572
67.64000 18.599
67.66000 13.850
67.68000 15.943
67.70000 19.199
67.72000 19.230
67.74000 23.049
67.76000 22.221
67.78000 21.184
67.80000 18.408
67.82000 16.592
67.84000 17.700
67.86000 13.889
67.88000 11.604
67.90000 14.656
67.92000 15.611
67.94000 13.688
67.96000 13.046
67.98000 12.020
68.00000 12.733
68.02000 13.736
68.04000 12.670
68.06000 15.451
68.08000 13.059
68.10000 9.482
68.12000 11.978
68.14000 9.949
68.16000 9.810
68.18000 9.493
68.20000 12.084
68.22000 12.619
68.24000 8.793
68.26000 7.813
68.28000 8.352
68.30000 7.814
68.32000 10.857
68.34000 11.706
68.36000 7.329
68.38000 3.749
68.40000 6.837
68.42000 6.412
68.44000 5.651
68.46000 4.459
68.48000 7.731
68.50000 5.337
68.52000 3.531
68.54000 4.325
68.56000 7.811
68.58000 4.194
68.60000 3.753
68.62000 4.608
68.64000 3.303
68.66000 1.378
68.68000 1.831
68.70000 2.425
68.72000 0.613
68.74000 -1.077
68.76000 1.002
68.78000 4.812
68.80000 5.368
68.82000 0.168
68.84000 0.388
68.86000 -1.445
68.88000 -2.375
68.90000 -1.460
68.92000 1.471
68.94000 5.940
68.96000 5.097
68.98000 1.944
69.00000 1.914
69.02000 3.051
69.04000 1.998
69.06000 0.853
69.08000 0.117
69.10000 1.318
69.12000 2.462
69.14000 4.977
69.16000 5.121
69.18000 1.152
69.20000 1.669
69.22000 0.927
69.24000 1.346
69.26000 2.545
69.28000 2.002
69.30000 3.146
69.32000 3.182
69.34000 1.806
69.36000 2.782
69.38000 3.598
69.40000 3.018
69.42000 0.725
69.44000 -2.304
69.46000 1.317
69.48000 6.040
69.50000 3.957
69.52000 1.239
69.54000 2.341
69.56000 2.446
69.58000 2.316
69.60000 -0.766
69.62000 1.565
69.64000 3.497
69.66000 4.055
69.68000 1.761
69.70000 0.240
69.72000 -0.129
69.74000 3.508
69.76000 5.434
69.78000 2.073
69.80000 1.545
69.82000 1.064
69.84000 4.004
69.86000 1.976
69.88000 1.089
69.90000 1.505
69.92000 -0.204
69.94000 -0.656
69.96000 -1.230
69.98000 1.095
70.00000 -2.308
70.02000 -0.025
70.04000 0.925
70.06000 0.311
70.08000 -0.067
70.10000 1.282
70.12000 0.127
70.14000 2.154
70.16000 1.148
70.18000 -1.129
70.20000 0.767
70.22000 2.154
70.24000 2.256
70.26000 2.096
70.28000 -0.612
70.30000 0.456
70.32000 0.415
70.34000 0.050
70.36000 2.060
70.38000 2.167
70.40000 2.496
70.42000 0.406
70.44000 0.448
70.46000 0.922
70.48000 2.695
70.50000 1.949
70.52000 -0.839
70.54000 -1.071
70.56000 -0.871
70.58000 1.809
70.60000 0.104
70.62000 -2.298
70.64000 -0.672
70.66000 -0.064
70.68000 1.665
70.70000 1.421
70.72000 0.853
70.74000 3.666
70.76000 3.183
70.78000 2.012
70.80000 -0.385
70.82000 1.140
70.84000 2.311
70.86000 1.834
70.88000 1.415
70.90000 0.077
70.92000 1.413
70.94000 2.667
70.96000 1.483
70.98000 -2.217
71.00000 0.451
71.02000 2.708
71.04000 3.770
71.06000 0.965
71.08000 -0.164
71.10000 3.962
71.12000 7.319
71.14000 4.080
71.16000 0.691
71.18000 -0.281
71.20000 -2.288
71.22000 -1.668
71.24000 -0.218
71.26000 -0.354
71.28000 1.828
71.30000 -0.881
71.32000 0.684
71.34000 -0.168
71.36000 -1.246
71.38000 2.264
71.40000 -0.119
71.42000 -0.124
71.44000 2.115
71.46000 -1.442
71.48000 1.151
71.50000 4.364
71.52000 1.347
71.54000 0.475
71.56000 -0.214
71.58000 1.538
71.60000 -1.925
71.62000 -2.266
71.64000 -0.108
71.66000 -1.834
71.68000 -1.764
71.70000 3.232
71.72000 4.377
71.74000 -0.410
71.76000 -2.257
71.78000 -1.039
71.80000 1.950
71.82000 4.717
71.84000 1.048
71.86000 1.472
71.88000 -0.196
71.90000 -1.411
71.92000 -1.280
71.94000 0.446
71.96000 2.080
71.98000 1.138
72.00000 1.257
72.02000 3.592
72.04000 2.382
72.06000 2.038
72.08000 1.390
72.10000 -1.016
72.12000 -0.523
72.14000 -0.076
72.16000 -2.236
72.18000 -0.080
72.20000 0.761
72.22000 0.138
72.24000 3.693
72.26000 1.425
72.28000 3.029
72.30000 3.084
72.32000 -0.225
72.34000 1.982
72.36000 5.512
72.38000 4.786
72.40000 4.661
72.42000 1.282
72.44000 0.023
72.46000 1.733
72.48000 1.177
72.50000 0.277
72.52000 1.048
72.54000 -2.219
72.56000 -0.421
72.58000 4.820
72.60000 0.924
72.62000 0.692
72.64000 3.166
72.66000 1.156
72.68000 -1.546
72.70000 2.592
72.72000 0.307
72.74000 -0.179
72.76000 -2.102
72.78000 -0.446
72.80000 -0.024
72.82000 1.187
72.84000 3.531
72.86000 2.501
72.88000 1.089
72.90000 0.442
72.92000 0.254
72.94000 2.629
72.96000 4.001
72.98000 5.522
73.00000 4.207
73.02000 1.885
73.04000 2.370
73.06000 -0.684
73.08000 -2.211
73.10000 -1.853
73.12000 0.553
73.14000 6.002
73.16000 3.109
73.18000 3.071
73.20000 2.158
73.22000 -1.101
73.24000 -1.306
73.26000 0.667
73.28000 2.247
73.30000 4.072
73.32000 3.894
73.34000 -0.420
73.36000 -0.086
73.38000 0.511
73.40000 -0.227
73.42000 1.339
73.44000 2.147
73.46000 -0.795
73.48000 0.734
73.50000 1.331
73.52000 5.044
73.54000 4.136
73.56000 2.373
73.58000 3.094
73.60000 3.826
73.62000 2.407
73.64000 3.487
73.66000 3.946
73.68000 -0.575
73.70000 1.960
73.72000 4.820
73.74000 6.408
73.76000 2.090
73.78000 2.351
73.80000 2.676
73.82000 2.760
73.84000 0.645
73.86000 -2.185
73.88000 0.933
73.90000 3.547
73.92000 1.303
73.94000 0.577
73.96000 4.543
73.98000 2.586
74.00000 0.762
74.02000 -1.688
74.04000 0.599
74.06000 -1.547
74.08000 1.270
74.10000 0.208
74.12000 2.254
74.14000 3.043
74.16000 1.955
74.18000 0.660
74.20000 2.125
74.22000 -0.160
74.24000 -0.743
74.26000 -1.714
74.28000 0.843
74.30000 2.850
74.32000 2.717
74.34000 1.563
74.36000 4.902
74.38000 4.846
74.40000 6.975
74.42000 2.145
74.44000 -0.195
74.46000 4.329
74.48000 4.178
74.50000 0.773
74.52000 -2.175
74.54000 1.287
74.56000 2.522
74.58000 1.138
74.60000 -0.179
74.62000 1.056
74.64000 2.787
74.66000 0.857
74.68000 3.439
74.70000 6.134
74.72000 1.963
74.74000 0.182
74.76000 4.521
74.78000 8.176
74.80000 5.345
74.82000 2.996
74.84000 2.589
74.86000 3.569
74.88000 6.094
74.90000 2.599
74.92000 2.445
74.94000 2.585
74.96000 3.158
74.98000 2.235
75.00000 6.250
75.02000 5.790
75.04000 8.039
75.06000 4.190
75.08000 1.471
75.10000 5.422
75.12000 3.851
75.14000 0.269
75.16000 5.750
75.18000 8.842
75.20000 7.614
75.22000 2.159
75.24000 -2.156
75.26000 1.193
75.28000 5.738
75.30000 7.532
75.32000 7.661
75.34000 6.463
75.36000 5.723
75.38000 1.805
75.40000 1.296
75.42000 3.829
75.44000 0.681
75.46000 -1.539
75.48000 4.264
75.50000 9.475
75.52000 3.561
75.54000 6.516
75.56000 5.672
75.58000 6.266
75.60000 6.289
75.62000 2.663
75.64000 5.603
75.66000 7.602
75.68000 5.687
75.70000 2.579
75.72000 3.767
75.74000 6.288
75.76000 4.794
75.78000 3.768
75.80000 8.730
75.82000 7.513
75.84000 3.510
75.86000 -1.261
75.88000 -1.461
75.90000 1.336
75.92000 8.034
75.94000 4.506
75.96000 4.118
75.98000 -0.277
76.00000 -0.053
76.02000 6.745
76.04000 6.460
76.06000 6.167
76.08000 3.869
76.10000 6.451
76.12000 1.442
76.14000 1.424
76.16000 2.402
76.18000 1.638
76.20000 0.540
76.22000 1.438
76.24000 4.671
76.26000 4.583
76.28000 1.973
76.30000 3.042
76.32000 1.575
76.34000 -1.781
76.36000 -1.295
76.38000 2.564
76.40000 0.194
76.42000 -2.214
76.44000 1.561
76.46000 0.756
76.48000 1.872
76.50000 1.667
76.52000 -0.326
76.54000 1.108
76.56000 2.136
76.58000 2.241
76.60000 4.155
76.62000 5.771
76.64000 1.720
76.66000 1.460
76.68000 2.054
76.70000 7.170
76.72000 4.997
76.74000 1.944
76.76000 1.857
76.78000 3.613
76.80000 9.149
76.82000 4.324
76.84000 1.152
76.86000 -0.665
76.88000 -1.030
76.90000 0.547
76.92000 0.888
76.94000 0.106
76.96000 1.123
76.98000 0.508
77.00000 0.247
77.02000 2.547
77.04000 1.140
77.06000 0.861
77.08000 0.535
77.10000 -0.675
77.12000 -1.055
77.14000 -0.421
77.16000 3.583
77.18000 -0.540
77.20000 -0.825
77.22000 1.265
77.24000 -0.614
77.26000 -1.667
77.28000 -1.214
77.30000 -1.185
77.32000 -0.232
77.34000 1.034
77.36000 3.101
77.38000 -0.318
77.40000 1.787
77.42000 0.710
77.44000 4.313
77.46000 3.010
77.48000 1.542
77.50000 -1.387
77.52000 -0.745
77.54000 -0.895
77.56000 0.039
77.58000 -2.249
77.60000 -0.400
77.62000 -0.538
77.64000 -0.814
77.66000 2.498
77.68000 5.471
77.70000 4.109
77.72000 3.160
77.74000 1.301
77.76000 1.076
77.78000 4.025
77.80000 3.511
77.82000 4.644
77.84000 3.590
77.86000 -0.323
77.88000 -0.728
77.90000 3.264
77.92000 1.379
77.94000 -1.718
77.96000 -1.151
77.98000 2.395
78.00000 -2.238
78.02000 0.666
78.04000 1.865
78.06000 3.328
78.08000 9.492
78.10000 1.441
78.12000 0.393
78.14000 1.452
78.16000 4.289
78.18000 9.649
78.20000 4.937
78.22000 5.096
78.24000 4.146
78.26000 3.262
78.28000 4.073
78.30000 0.561
78.32000 2.981
78.34000 1.062
78.36000 -2.174
78.38000 0.124
78.40000 -1.106
78.42000 1.337
78.44000 -0.117
78.46000 -0.904
78.48000 2.411
78.50000 4.473
78.52000 3.710
78.54000 4.425
78.56000 5.079
78.58000 7.630
78.60000 0.990
78.62000 1.099
78.64000 2.417
78.66000 3.752
78.68000 8.135
78.70000 4.884
78.72000 -1.545
78.74000 0.449
78.76000 1.524
78.78000 4.273
78.80000 2.840
78.82000 3.926
78.84000 4.687
78.86000 3.883
78.88000 4.517
78.90000 3.865
78.92000 2.318
78.94000 0.215
78.96000 -2.070
78.98000 -0.550
79.00000 2.292
79.02000 0.568
79.04000 -1.032
79.06000 2.438
79.08000 2.143
79.10000 -0.396
79.12000 0.887
79.14000 1.791
79.16000 3.979
79.18000 0.706
79.20000 -1.317
79.22000 0.023
79.24000 1.454
79.26000 2.498
79.28000 -0.416
79.30000 -1.177
79.32000 0.194
79.34000 3.472
79.36000 -0.775
79.38000 2.947
79.40000 6.791
79.42000 5.371
79.44000 2.848
79.46000 2.005
79.48000 3.859
79.50000 5.314
79.52000 -2.306
79.54000 -1.024
79.56000 3.583
79.58000 6.778
79.60000 0.746
79.62000 4.323
79.64000 3.575
79.66000 4.350
79.68000 2.892
79.70000 0.305
79.72000 -0.691
79.74000 3.775
79.76000 2.723
79.78000 1.923
79.80000 2.170
79.82000 3.138
79.84000 4.691
79.86000 5.046
79.88000 2.990
79.90000 9.336
79.92000 4.602
79.94000 -2.347
79.96000 -0.791
79.98000 5.524
80.00000 6.297
80.02000 5.625
80.04000 8.130
80.06000 9.063
80.08000 5.682
80.10000 5.480
80.12000 3.001
80.14000 5.519
80.16000 1.720
80.18000 -0.160
80.20000 1.253
80.22000 7.720
80.24000 5.967
80.26000 7.891
80.28000 9.187
80.30000 10.112
80.32000 8.358
80.34000 5.893
80.36000 7.078
80.38000 5.880
80.40000 4.621
80.42000 8.450
80.44000 9.053
80.46000 11.994
80.48000 13.255
80.50000 9.191
80.52000 11.353
80.54000 6.965
80.56000 4.699
80.58000 6.236
80.60000 8.341
80.62000 7.734
80.64000 10.973
80.66000 10.290
80.68000 10.678
80.70000 12.476
80.72000 11.010
80.74000 13.790
80.76000 15.124
80.78000 13.925
80.80000 14.288
80.82000 10.981
80.84000 14.470
80.86000 12.754
80.88000 13.808
80.90000 11.038
80.92000 15.137
80.94000 15.579
80.96000 17.501
80.98000 17.814
81.00000 13.009
81.02000 15.902
81.04000 20.419
81.06000 18.342
81.08000 21.137
81.10000 20.624
81.12000 19.134
81.14000 21.257
81.16000 21.175
81.18000 17.326
81.20000 19.334
81.22000 16.834
81.24000 17.097
81.26000 20.115
81.28000 22.728
81.30000 21.583
81.32000 24.584
81.34000 21.782
81.36000 20.450
81.38000 24.001
81.40000 25.031
81.42000 22.884
81.44000 24.177
81.46000 24.240
81.48000 24.855
81.50000 28.573
81.52000 26.289
81.54000 23.959
81.56000 24.613
81.58000 28.655
81.60000 29.075
81.62000 30.039
81.64000 24.698
81.66000 18.956
81.68000 21.695
81.70000 26.336
81.72000 26.643
81.74000 21.252
81.76000 23.520
81.78000 25.350
81.80000 25.631
81.82000 22.501
81.84000 19.864
81.86000 23.619
81.88000 20.432
81.90000 18.635
81.92000 23.050
81.94000 23.388
81.96000 17.231
81.98000 19.323
82.00000 20.276
82.02000 17.401
82.04000 21.885
82.06000 19.400
82.08000 19.927
82.10000 24.198
82.12000 18.418
82.14000 15.932
82.16000 16.241
82.18000 16.104
82.20000 14.949
82.22000 18.722
82.24000 14.433
82.26000 13.099
82.28000 12.566
82.30000 11.397
82.32000 12.290
82.34000 10.844
82.36000 15.940
82.38000 12.978
82.40000 11.096
82.42000 6.973
82.44000 7.861
82.46000 10.963
82.48000 12.245
82.50000 14.777
82.52000 11.417
82.54000 8.085
82.56000 7.738
82.58000 6.585
82.60000 7.664
82.62000 8.858
82.64000 10.154
82.66000 6.142
82.68000 5.448
82.70000 3.597
82.72000 -0.367
82.74000 -0.919
82.76000 2.489
82.78000 4.262
82.80000 8.494
82.82000 8.485
82.84000 6.306
82.86000 3.308
82.88000 2.824
82.90000 3.784
82.92000 6.389
82.94000 7.011
82.96000 5.239
82.98000 2.293
83.00000 0.954
83.02000 0.151
83.04000 0.773
83.06000 -2.406
83.08000 -0.399
83.10000 2.829
83.12000 4.417
83.14000 1.165
83.16000 1.090
83.18000 2.085
83.20000 3.451
83.22000 1.727
83.24000 0.896
83.26000 2.680
83.28000 2.478
83.30000 3.533
83.32000 4.099
83.34000 1.916
83.36000 -1.531
83.38000 1.244
83.40000 6.711
83.42000 1.615
83.44000 -1.484
83.46000 4.028
83.48000 7.241
83.50000 6.001
83.52000 5.553
83.54000 7.669
83.56000 6.123
83.58000 4.552
83.60000 1.180
83.62000 -2.352
83.64000 0.403
83.66000 1.623
83.68000 1.787
83.70000 2.024
83.72000 -0.634
83.74000 0.215
83.76000 2.532
83.78000 -0.659
83.80000 3.294
83.82000 1.771
83.84000 -2.345
83.86000 0.874
83.88000 2.323
83.90000 0.829
83.92000 2.926
83.94000 3.594
83.96000 6.405
83.98000 1.206
84.00000 2.393
84.02000 0.398
84.04000 5.302
84.06000 0.669
84.08000 3.088
84.10000 -1.226
84.12000 -2.347
84.14000 -0.062
84.16000 1.400
84.18000 2.312
84.20000 2.102
84.22000 5.786
84.24000 3.977
84.26000 6.550
84.28000 8.664
84.30000 4.499
84.32000 4.549
84.34000 3.207
84.36000 3.428
84.38000 6.347
84.40000 4.842
84.42000 8.470
84.44000 3.172
84.46000 4.699
84.48000 4.886
84.50000 4.161
84.52000 7.769
84.54000 5.396
84.56000 4.545
84.58000 5.976
84.60000 3.821
84.62000 6.670
84.64000 6.837
84.66000 6.001
84.68000 10.100
84.70000 9.732
84.72000 9.554
84.74000 8.944
84.76000 6.621
84.78000 6.713
84.80000 10.843
84.82000 11.765
84.84000 7.505
84.86000 8.277
84.88000 12.556
84.90000 11.019
84.92000 8.551
84.94000 7.078
84.96000 13.859
84.98000 15.457
85.00000 12.056
85.02000 12.405
85.04000 12.452
85.06000 13.454
85.08000 15.521
85.10000 14.802
85.12000 14.619
85.14000 18.741
85.16000 20.164
85.18000 17.665
85.20000 18.575
85.22000 17.079
85.24000 16.542
85.26000 25.918
85.28000 23.734
85.30000 21.666
85.32000 21.900
85.34000 19.498
85.36000 22.766
85.38000 23.298
85.40000 22.054
85.42000 19.132
85.44000 16.016
85.46000 18.588
85.48000 25.183
85.50000 25.999
85.52000 25.685
85.54000 23.558
85.56000 23.128
85.58000 24.081
85.60000 25.737
85.62000 24.815
85.64000 29.524
85.66000 28.787
85.68000 25.921
85.70000 25.849
85.72000 26.337
85.74000 27.284
85.76000 28.643
85.78000 27.504
85.80000 22.351
85.82000 27.960
85.84000 23.187
85.86000 20.813
85.88000 24.534
85.90000 26.069
85.92000 27.217
85.94000 26.563
85.96000 26.782
85.98000 25.472
86.00000 25.694
86.02000 25.082
86.04000 23.159
86.06000 21.027
86.08000 25.322
86.10000 27.246
86.12000 26.284
86.14000 24.025
86.16000 23.483
86.18000 20.113
86.20000 20.721
86.22000 21.026
86.24000 18.658
86.26000 16.583
86.28000 18.536
86.30000 17.993
86.32000 11.663
86.34000 11.473
86.36000 15.376
86.38000 15.952
86.40000 17.060
86.42000 15.830
86.44000 11.030
86.46000 12.851
86.48000 8.835
86.50000 8.878
86.52000 8.649
86.54000 10.661
86.56000 12.749
86.58000 10.263
86.60000 9.939
86.62000 9.705
86.64000 6.101
86.66000 4.931
86.68000 6.064
86.70000 7.908
86.72000 8.838
86.74000 8.878
86.76000 6.554
86.78000 4.089
86.80000 6.701
86.82000 10.780
86.84000 8.578
86.86000 6.656
86.88000 4.651
86.90000 6.948
86.92000 5.711
86.94000 -2.230
86.96000 -1.008
86.98000 3.167
87.00000 3.345
87.02000 0.231
87.04000 2.253
87.06000 2.809
87.08000 2.588
87.10000 4.090
87.12000 2.666
87.14000 2.129
87.16000 2.701
87.18000 3.229
87.20000 1.943
87.22000 2.257
87.24000 5.611
87.26000 6.932
87.28000 3.169
87.30000 1.251
87.32000 0.962
87.34000 4.334
87.36000 0.611
87.38000 1.527
87.40000 1.586
87.42000 0.015
87.44000 3.638
87.46000 5.273
87.48000 3.471
87.50000 2.000
87.52000 1.318
87.54000 3.020
87.56000 0.869
87.58000 -1.404
87.60000 -1.062
87.62000 0.493
87.64000 0.226
87.66000 2.404
87.68000 0.583
87.70000 -2.153
87.72000 1.698
87.74000 3.362
87.76000 3.032
87.78000 -2.146
87.80000 -1.277
87.82000 3.029
87.84000 1.927
87.86000 0.609
87.88000 2.895
87.90000 1.751
87.92000 1.874
87.94000 1.282
87.96000 4.554
87.98000 3.874
88.00000 4.965
88.02000 4.520
88.04000 2.602
88.06000 3.382
88.08000 -0.737
88.10000 -2.125
88.12000 -0.475
88.14000 0.165
88.16000 -0.093
88.18000 -2.124
88.20000 -0.740
88.22000 4.013
88.24000 5.089
88.26000 2.578
88.28000 2.119
88.30000 2.085
88.32000 1.048
88.34000 2.760
88.36000 1.840
88.38000 -0.070
88.40000 -1.727
88.42000 0.739
88.44000 1.469
88.46000 -0.712
88.48000 -1.763
88.50000 -0.723
88.52000 2.280
88.54000 -0.573
88.56000 4.939
88.58000 3.090
88.60000 2.019
88.62000 0.948
88.64000 5.241
88.66000 0.504
88.68000 -0.735
88.70000 0.897
88.72000 -2.099
88.74000 -1.054
88.76000 -0.707
88.78000 -1.118
88.80000 -0.415
88.82000 -0.841
88.84000 1.390
88.86000 2.520
88.88000 4.621
88.90000 -1.839
88.92000 1.622
88.94000 0.505
88.96000 -1.131
88.98000 -1.054
89.00000 1.870
89.02000 1.629
89.04000 1.646
89.06000 0.399
89.08000 1.320
89.10000 1.538
89.12000 -2.098
89.14000 -1.148
89.16000 1.930
89.18000 2.200
89.20000 2.106
89.22000 -0.567
89.24000 1.648
89.26000 3.196
89.28000 5.002
89.30000 4.557
89.32000 2.477
89.34000 0.393
89.36000 -1.057
89.38000 0.469
89.40000 -2.011
89.42000 -1.284
89.44000 -2.092
89.46000 0.989
89.48000 1.272
89.50000 2.163
89.52000 1.094
89.54000 2.962
89.56000 3.938
89.58000 0.664
89.60000 1.212
89.62000 4.509
89.64000 4.269
89.66000 0.799
89.68000 2.213
89.70000 2.370
89.72000 2.397
89.74000 3.823
89.76000 4.651
89.78000 2.406
89.80000 1.524
89.82000 -1.277
89.84000 -2.079
89.86000 -1.205
89.88000 -1.624
89.90000 1.761
89.92000 2.394
89.94000 0.600
89.96000 -0.649
89.98000 -0.159
90.00000 2.659
90.02000 4.638
90.04000 4.390
90.06000 4.997
90.08000 2.308
90.10000 -1.157
90.12000 -0.690
90.14000 -0.989
90.16000 0.841
90.18000 -2.076
90.20000 1.234
90.22000 -1.351
90.24000 0.262
90.26000 4.483
90.28000 3.753
90.30000 2.076
90.32000 -1.529
90.34000 -1.364
90.36000 -0.560
90.38000 0.716
90.40000 3.522
90.42000 0.572
90.44000 0.263
90.46000 4.479
90.48000 6.050
90.50000 1.576
90.52000 2.440
90.54000 0.396
90.56000 0.854
90.58000 1.617
90.60000 1.854
90.62000 2.946
90.64000 -0.046
90.66000 0.842
90.68000 0.932
90.70000 1.486
90.72000 -0.653
90.74000 -0.807
90.76000 3.228
90.78000 2.324
90.80000 2.929
90.82000 2.681
90.84000 -1.716
90.86000 2.087
90.88000 0.331
90.90000 -0.984
90.92000 -0.258
90.94000 3.026
90.96000 -0.381
90.98000 -2.086
91.00000 0.590
91.02000 1.498
91.04000 3.614
91.06000 4.099
91.08000 3.656
91.10000 3.600
91.12000 1.979
91.14000 0.208
91.16000 2.848
91.18000 1.536
91.20000 0.625
91.22000 2.468
91.24000 2.009
91.26000 1.243
91.28000 -0.037
91.30000 2.557
91.32000 2.651
91.34000 1.941
91.36000 6.068
91.38000 1.674
91.40000 -1.532
91.42000 -0.414
91.44000 4.894
91.46000 3.483
91.48000 2.998
91.50000 4.731
91.52000 5.719
91.54000 2.113
91.56000 -1.675
91.58000 2.180
91.60000 1.164
91.62000 -0.091
91.64000 1.190
91.66000 0.923
91.68000 4.414
91.70000 4.411
91.72000 0.212
91.74000 -0.423
91.76000 -2.076
91.78000 -1.703
91.80000 0.344
91.82000 1.177
91.84000 1.811
91.86000 4.965
91.88000 0.564
91.90000 -1.191
91.92000 0.676
91.94000 0.987
91.96000 3.170
91.98000 5.114
92.00000 2.046
92.02000 3.178
92.04000 0.458
92.06000 3.689
92.08000 2.760
92.10000 0.572
92.12000 7.333
92.14000 4.876
92.16000 1.365
92.18000 -0.167
92.20000 3.682
92.22000 3.327
92.24000 2.780
92.26000 2.478
92.28000 4.152
92.30000 0.584
92.32000 -1.735
92.34000 -0.856
92.36000 3.514
92.38000 5.604
92.40000 5.347
92.42000 0.287
92.44000 3.483
92.46000 2.261
92.48000 0.843
92.50000 -2.066
92.52000 -1.625
92.54000 3.329
92.56000 4.832
92.58000 0.655
92.60000 2.238
92.62000 4.374
92.64000 3.046
92.66000 2.288
92.68000 3.778
92.70000 0.832
92.72000 -2.074
92.74000 0.478
92.76000 4.996
92.78000 -0.237
92.80000 0.667
92.82000 0.738
92.84000 -0.565
92.86000 3.276
92.88000 6.123
92.90000 3.344
92.92000 2.530
92.94000 2.077
92.96000 2.245
92.98000 0.496
93.00000 3.211
93.02000 3.399
93.04000 2.442
93.06000 -1.026
93.08000 0.925
93.10000 -1.594
93.12000 2.817
93.14000 1.725
93.16000 3.962
93.18000 2.597
93.20000 -2.105
93.22000 0.356
93.24000 1.022
93.26000 2.061
93.28000 5.707
93.30000 4.197
93.32000 0.382
93.34000 0.847
93.36000 4.730
93.38000 2.204
93.40000 1.821
93.42000 1.484
93.44000 0.453
93.46000 2.452
93.48000 4.356
93.50000 2.384
93.52000 5.558
93.54000 6.791
93.56000 0.718
93.58000 -0.951
93.60000 3.312
93.62000 2.871
93.64000 0.463
93.66000 1.364
93.68000 3.229
93.70000 -0.786
93.72000 -2.032
93.74000 1.221
93.76000 4.363
93.78000 2.344
93.80000 -0.448
93.82000 -0.947
93.84000 1.414
93.86000 2.650
93.88000 0.244
93.90000 -1.670
93.92000 0.635
93.94000 -2.113
93.96000 3.896
93.98000 4.562
94.00000 4.201
94.02000 3.266
94.04000 2.581
94.06000 0.106
94.08000 1.270
94.10000 0.822
94.12000 -0.119
94.14000 1.840
94.16000 3.102
94.18000 1.649
94.20000 5.185
94.22000 5.752
94.24000 5.301
94.26000 3.798
94.28000 2.846
94.30000 2.839
94.32000 -0.140
94.34000 4.300
94.36000 9.504
94.38000 8.918
94.40000 -1.097
94.42000 -2.101
94.44000 1.497
94.46000 8.573
94.48000 6.055
94.50000 0.602
94.52000 0.779
94.54000 1.478
94.56000 3.994
94.58000 4.537
94.60000 6.570
94.62000 2.989
94.64000 -0.320
94.66000 2.517
94.68000 3.386
94.70000 3.709
94.72000 4.913
94.74000 1.906
94.76000 0.540
94.78000 2.564
94.80000 5.398
94.82000 2.954
94.84000 0.747
94.86000 3.180
94.88000 3.083
94.90000 3.644
94.92000 1.944
94.94000 1.336
94.96000 -0.647
94.98000 0.769
95.00000 2.868
95.02000 4.107
95.04000 2.880
95.06000 7.430
95.08000 8.205
95.10000 3.902
95.12000 -0.565
95.14000 -1.880
95.16000 1.681
95.18000 3.793
95.20000 4.349
95.22000 0.506
95.24000 -1.051
95.26000 -0.487
95.28000 0.311
95.30000 0.924
95.32000 5.700
95.34000 6.179
95.36000 2.608
95.38000 3.401
95.40000 4.501
95.42000 1.854
95.44000 1.415
95.46000 3.685
95.48000 4.991
95.50000 2.819
95.52000 -1.993
95.54000 -1.007
95.56000 0.001
95.58000 1.424
95.60000 5.925
95.62000 7.191
95.64000 7.009
95.66000 5.155
95.68000 3.842
95.70000 0.267
95.72000 -0.440
95.74000 -0.887
95.76000 -2.082
95.78000 0.450
95.80000 3.751
95.82000 2.973
95.84000 4.931
95.86000 1.130
95.88000 4.446
95.90000 4.222
95.92000 1.553
95.94000 3.136
95.96000 5.012
95.98000 4.169
96.00000 7.451
96.02000 6.670
96.04000 6.879
96.06000 3.798
96.08000 5.664
96.10000 4.444
96.12000 0.680
96.14000 3.128
96.16000 4.936
96.18000 5.647
96.20000 3.636
96.22000 5.737
96.24000 5.479
96.26000 6.767
96.28000 6.886
96.30000 2.079
96.32000 -1.286
96.34000 -1.536
96.36000 3.514
96.38000 0.687
96.40000 0.891
96.42000 3.478
96.44000 3.982
96.46000 0.885
96.48000 7.128
96.50000 5.878
96.52000 2.086
96.54000 2.260
96.56000 -1.305
96.58000 -0.722
96.60000 1.204
96.62000 4.960
96.64000 8.724
96.66000 3.193
96.68000 3.295
96.70000 4.663
96.72000 -2.094
96.74000 -1.678
96.76000 2.194
96.78000 6.801
96.80000 0.597
96.82000 -1.705
96.84000 0.516
96.86000 6.621
96.88000 5.361
96.90000 6.506
96.92000 8.159
96.94000 6.419
96.96000 3.887
96.98000 5.531
97.00000 1.679
97.02000 5.077
97.04000 5.293
97.06000 1.277
97.08000 0.993
97.10000 2.609
97.12000 8.638
97.14000 0.806
97.16000 -1.921
97.18000 3.554
97.20000 6.933
97.22000 5.974
97.24000 5.757
97.26000 5.453
97.28000 4.412
97.30000 5.257
97.32000 3.825
97.34000 4.849
97.36000 3.400
97.38000 5.065
97.40000 1.688
97.42000 2.470
97.44000 -2.069
97.46000 -0.732
97.48000 2.538
97.50000 2.898
97.52000 1.547
97.54000 1.323
97.56000 4.740
97.58000 5.753
97.60000 7.457
97.62000 2.861
97.64000 2.046
97.66000 -0.077
97.68000 3.552
97.70000 5.185
97.72000 8.759
97.74000 6.013
97.76000 4.690
97.78000 2.014
97.80000 6.427
97.82000 7.641
97.84000 9.098
97.86000 6.087
97.88000 8.695
97.90000 6.385
97.92000 4.025
97.94000 1.129
97.96000 2.690
97.98000 3.464
98.00000 4.469
98.02000 7.257
98.04000 3.950
98.06000 2.432
98.08000 4.766
98.10000 2.089
98.12000 -0.674
98.14000 0.878
98.16000 8.516
98.18000 8.699
98.20000 6.775
98.22000 7.019
98.24000 4.616
98.26000 4.342
98.28000 4.975
98.30000 7.404
98.32000 5.258
98.34000 0.097
98.36000 6.482
98.38000 6.617
98.40000 -0.204
98.42000 2.899
98.44000 0.447
98.46000 10.226
98.48000 8.114
98.50000 3.259
98.52000 4.297
98.54000 4.200
98.56000 1.276
98.58000 3.931
98.60000 4.758
98.62000 6.192
98.64000 7.676
98.66000 4.663
98.68000 5.316
98.70000 4.571
98.72000 1.168
98.74000 4.342
98.76000 8.614
98.78000 5.018
98.80000 1.705
98.82000 1.584
98.84000 -1.995
98.86000 -0.335
98.88000 8.373
98.90000 7.294
98.92000 8.302
98.94000 9.227
98.96000 5.902
98.98000 3.200
99.00000 5.495
99.02000 2.906
99.04000 6.827
99.06000 4.142
99.08000 -1.012
99.10000 4.388
99.12000 3.220
99.14000 9.321
99.16000 8.540
99.18000 2.359
99.20000 9.883
99.22000 10.531
99.24000 6.561
99.26000 13.813
99.28000 4.735
99.30000 5.125
99.32000 8.078
99.34000 7.522
99.36000 10.325
99.38000 8.441
99.40000 10.592
99.42000 13.165
99.44000 6.628
99.46000 -1.423
99.48000 6.146
99.50000 4.801
99.52000 -2.093
99.54000 5.557
99.56000 15.500
99.58000 10.257
99.60000 4.717
99.62000 3.626
99.64000 7.521
99.66000 11.246
99.68000 1.078
99.70000 3.688
99.72000 4.168
99.74000 10.431
99.76000 16.875
99.78000 15.756
99.80000 3.228
99.82000 5.466
99.84000 6.399
99.86000 1.349
99.88000 2.438
99.90000 11.308
99.92000 7.050
99.94000 6.608
99.96000 5.649
99.98000 0.000
