'Id: "0011389" Comment: "Integrate frame 0011389_Au-Ir-Rh_Au-Rich_XRD_Mapping-218-0000.gfrmwith cursor Wedge Cursor #5" Operator: "B?rgel" Anode: "Cu" Wavelength: "1.5406" Scantype: "2Theta (TwoTheta)" TimePerStep: "1" X: "40.5" Y: "9" Z: "5.95" 
10.00000 0.000
10.02000 2.073
10.04000 8.457
10.06000 -2.910
10.08000 -2.911
10.10000 12.748
10.12000 13.033
10.14000 8.440
10.16000 11.305
10.18000 11.919
10.20000 15.886
10.22000 19.596
10.24000 14.979
10.26000 15.693
10.28000 12.854
10.30000 9.722
10.32000 16.216
10.34000 21.244
10.36000 19.275
10.38000 18.932
10.40000 17.934
10.42000 25.209
10.44000 31.367
10.46000 22.011
10.48000 18.206
10.50000 27.437
10.52000 39.342
10.54000 33.576
10.56000 24.803
10.58000 35.836
10.60000 35.233
10.62000 33.105
10.64000 26.773
10.66000 26.111
10.68000 25.571
10.70000 27.079
10.72000 26.011
10.74000 32.709
10.76000 39.123
10.78000 35.492
10.80000 27.114
10.82000 28.537
10.84000 31.644
10.86000 27.054
10.88000 31.877
10.90000 39.561
10.92000 32.003
10.94000 34.808
10.96000 40.783
10.98000 32.955
11.00000 34.677
11.02000 39.118
11.04000 39.262
11.06000 42.812
11.08000 42.456
11.10000 38.227
11.12000 43.282
11.14000 37.593
11.16000 30.765
11.18000 41.269
11.20000 48.578
11.22000 50.838
11.24000 44.146
11.26000 43.860
11.28000 29.876
11.30000 36.596
11.32000 32.938
11.34000 30.146
11.36000 40.191
11.38000 42.439
11.40000 46.681
11.42000 45.097
11.44000 43.689
11.46000 37.002
11.48000 39.381
11.50000 36.181
11.52000 27.868
11.54000 36.360
11.56000 50.073
11.58000 44.794
11.60000 41.024
11.62000 40.674
11.64000 43.989
11.66000 37.420
11.68000 40.334
11.70000 51.746
11.72000 52.121
11.74000 39.998
11.76000 37.241
11.78000 50.886
11.80000 49.978
11.82000 46.720
11.84000 49.396
11.86000 57.290
11.88000 51.101
11.90000 36.013
11.92000 46.460
11.94000 55.233
11.96000 42.364
11.98000 43.866
12.00000 53.939
12.02000 64.007
12.04000 52.215
12.06000 49.105
12.08000 46.898
12.10000 49.408
12.12000 49.808
12.14000 51.867
12.16000 47.993
12.18000 50.170
12.20000 51.441
12.22000 56.373
12.24000 64.889
12.26000 57.453
12.28000 49.066
12.30000 50.396
12.32000 55.100
12.34000 47.135
12.36000 51.586
12.38000 45.630
12.40000 56.960
12.42000 54.546
12.44000 61.707
12.46000 59.747
12.48000 47.919
12.50000 56.962
12.52000 55.076
12.54000 59.270
12.56000 60.987
12.58000 54.205
12.60000 52.751
12.62000 60.770
12.64000 62.106
12.66000 56.314
12.68000 57.098
12.70000 62.105
12.72000 69.710
12.74000 57.352
12.76000 46.692
12.78000 59.433
12.80000 56.077
12.82000 60.289
12.84000 60.880
12.86000 52.252
12.88000 54.110
12.90000 56.602
12.92000 60.009
12.94000 56.637
12.96000 75.695
12.98000 60.445
13.00000 48.039
13.02000 42.344
13.04000 50.525
13.06000 62.076
13.08000 48.598
13.10000 39.334
13.12000 45.369
13.14000 58.161
13.16000 60.670
13.18000 54.110
13.20000 56.263
13.22000 61.154
13.24000 47.177
13.26000 39.477
13.28000 45.296
13.30000 49.031
13.32000 50.074
13.34000 52.657
13.36000 49.152
13.38000 44.652
13.40000 49.595
13.42000 59.354
13.44000 62.021
13.46000 48.421
13.48000 50.091
13.50000 48.268
13.52000 44.989
13.54000 47.420
13.56000 49.092
13.58000 46.613
13.60000 47.500
13.62000 58.859
13.64000 40.072
13.66000 48.217
13.68000 58.176
13.70000 52.764
13.72000 51.186
13.74000 53.871
13.76000 48.182
13.78000 49.848
13.80000 49.953
13.82000 47.781
13.84000 48.338
13.86000 38.802
13.88000 46.455
13.90000 47.867
13.92000 49.708
13.94000 44.074
13.96000 40.523
13.98000 40.476
14.00000 45.117
14.02000 45.187
14.04000 32.190
14.06000 33.951
14.08000 41.524
14.10000 45.958
14.12000 49.844
14.14000 46.188
14.16000 40.305
14.18000 43.728
14.20000 44.460
14.22000 42.525
14.24000 43.679
14.26000 45.957
14.28000 35.712
14.30000 39.791
14.32000 35.048
14.34000 36.751
14.36000 43.882
14.38000 40.282
14.40000 35.066
14.42000 35.645
14.44000 48.032
14.46000 52.812
14.48000 34.738
14.50000 35.737
14.52000 50.267
14.54000 39.956
14.56000 49.549
14.58000 39.098
14.60000 34.151
14.62000 35.069
14.64000 36.201
14.66000 36.852
14.68000 39.222
14.70000 35.646
14.72000 29.067
14.74000 31.560
14.76000 38.246
14.78000 44.459
14.80000 38.102
14.82000 31.850
14.84000 30.121
14.86000 41.857
14.88000 49.122
14.90000 40.450
14.92000 34.859
14.94000 43.452
14.96000 43.416
14.98000 34.639
15.00000 31.852
15.02000 36.230
15.04000 34.413
15.06000 32.198
15.08000 32.198
15.10000 35.778
15.12000 35.170
15.14000 36.245
15.16000 27.761
15.18000 25.209
15.20000 24.891
15.22000 23.688
15.24000 23.084
15.26000 30.710
15.28000 30.910
15.30000 32.569
15.32000 32.687
15.34000 27.826
15.36000 27.233
15.38000 35.320
15.40000 34.442
15.42000 36.225
15.44000 37.766
15.46000 28.544
15.48000 31.281
15.50000 26.554
15.52000 29.751
15.54000 21.372
15.56000 22.934
15.58000 31.721
15.60000 31.871
15.62000 23.791
15.64000 22.877
15.66000 26.639
15.68000 30.976
15.70000 33.376
15.72000 29.317
15.74000 24.661
15.76000 30.241
15.78000 35.056
15.80000 29.337
15.82000 28.234
15.84000 30.781
15.86000 23.993
15.88000 25.695
15.90000 25.695
15.92000 22.070
15.94000 25.128
15.96000 15.170
15.98000 19.815
16.00000 15.896
16.02000 14.532
16.04000 17.620
16.06000 23.680
16.08000 29.179
16.10000 25.803
16.12000 24.100
16.14000 18.535
16.16000 16.387
16.18000 22.994
16.20000 19.008
16.22000 18.216
16.24000 19.942
16.26000 25.720
16.28000 19.826
16.30000 13.218
16.32000 20.762
16.34000 18.756
16.36000 18.364
16.38000 11.913
16.40000 19.426
16.42000 17.802
16.44000 13.399
16.46000 17.141
16.48000 16.053
16.50000 15.356
16.52000 18.647
16.54000 25.197
16.56000 26.644
16.58000 27.344
16.60000 25.047
16.62000 25.889
16.64000 18.340
16.66000 11.294
16.68000 18.044
16.70000 16.457
16.72000 16.532
16.74000 20.135
16.76000 16.414
16.78000 10.446
16.80000 9.986
16.82000 9.549
16.84000 16.887
16.86000 16.787
16.88000 19.195
16.90000 27.307
16.92000 28.570
16.94000 20.020
16.96000 16.233
16.98000 20.645
17.00000 18.390
17.02000 15.761
17.04000 12.780
17.06000 6.934
17.08000 14.840
17.10000 13.363
17.12000 16.051
17.14000 21.608
17.16000 23.840
17.18000 15.967
17.20000 6.092
17.22000 9.670
17.24000 16.814
17.26000 17.584
17.28000 10.211
17.30000 12.917
17.32000 18.720
17.34000 23.346
17.36000 29.131
17.38000 17.712
17.40000 12.709
17.42000 7.920
17.44000 18.123
17.46000 18.867
17.48000 14.775
17.50000 7.862
17.52000 11.604
17.54000 15.380
17.56000 13.334
17.58000 7.440
17.60000 4.545
17.62000 7.970
17.64000 7.603
17.66000 8.756
17.68000 10.813
17.70000 14.490
17.72000 14.872
17.74000 11.490
17.76000 11.122
17.78000 10.482
17.80000 9.746
17.82000 10.757
17.84000 16.702
17.86000 15.565
17.88000 7.422
17.90000 5.088
17.92000 8.079
17.94000 8.689
17.96000 6.765
17.98000 4.536
18.00000 1.088
18.02000 6.172
18.04000 5.264
18.06000 3.203
18.08000 2.590
18.10000 11.098
18.12000 8.176
18.14000 8.134
18.16000 14.208
18.18000 20.894
18.20000 17.452
18.22000 6.355
18.24000 7.324
18.26000 4.693
18.28000 7.711
18.30000 7.915
18.32000 2.291
18.34000 0.397
18.36000 8.079
18.38000 6.136
18.40000 4.939
18.42000 7.330
18.44000 9.717
18.46000 11.020
18.48000 7.835
18.50000 10.942
18.52000 9.789
18.54000 6.119
18.56000 5.102
18.58000 2.798
18.60000 6.658
18.62000 3.817
18.64000 4.110
18.66000 9.312
18.68000 6.862
18.70000 1.960
18.72000 2.350
18.74000 5.577
18.76000 0.282
18.78000 2.904
18.80000 7.418
18.82000 14.208
18.84000 7.078
18.86000 5.467
18.88000 9.096
18.90000 13.138
18.92000 6.374
18.94000 13.839
18.96000 11.692
18.98000 11.883
19.00000 12.115
19.02000 10.112
19.04000 8.364
19.06000 4.928
19.08000 2.334
19.10000 0.668
19.12000 5.377
19.14000 11.318
19.16000 16.624
19.18000 12.893
19.20000 3.610
19.22000 2.198
19.24000 0.917
19.26000 9.567
19.28000 9.518
19.30000 6.879
19.32000 6.772
19.34000 3.861
19.36000 3.150
19.38000 6.825
19.40000 2.098
19.42000 6.149
19.44000 2.714
19.46000 5.523
19.48000 1.626
19.50000 7.012
19.52000 10.167
19.54000 9.587
19.56000 8.568
19.58000 4.445
19.60000 -1.061
19.62000 -4.251
19.64000 4.780
19.66000 10.390
19.68000 11.721
19.70000 10.026
19.72000 7.608
19.74000 5.949
19.76000 8.088
19.78000 2.909
19.80000 3.303
19.82000 -0.596
19.84000 1.860
19.86000 4.068
19.88000 -0.419
19.90000 3.167
19.92000 1.657
19.94000 9.204
19.96000 7.270
19.98000 6.501
20.00000 -1.984
20.02000 -3.074
20.04000 5.089
20.06000 6.442
20.08000 4.562
20.10000 5.529
20.12000 3.617
20.14000 1.238
20.16000 4.035
20.18000 8.909
20.20000 6.543
20.22000 1.877
20.24000 3.272
20.26000 -3.403
20.28000 1.403
20.30000 1.850
20.32000 5.087
20.34000 2.589
20.36000 3.025
20.38000 2.706
20.40000 -3.054
20.42000 0.326
20.44000 3.332
20.46000 4.701
20.48000 0.656
20.50000 4.167
20.52000 0.714
20.54000 -0.735
20.56000 -0.412
20.58000 0.382
20.60000 9.094
20.62000 7.618
20.64000 5.977
20.66000 7.063
20.68000 -0.500
20.70000 -2.012
20.72000 -4.221
20.74000 2.066
20.76000 6.709
20.78000 3.273
20.80000 5.818
20.82000 5.299
20.84000 4.330
20.86000 1.243
20.88000 5.127
20.90000 5.946
20.92000 3.470
20.94000 -2.027
20.96000 4.294
20.98000 6.751
21.00000 1.103
21.02000 -2.222
21.04000 2.683
21.06000 4.737
21.08000 5.870
21.10000 5.034
21.12000 5.321
21.14000 3.603
21.16000 0.209
21.18000 7.653
21.20000 1.210
21.22000 -3.631
21.24000 7.751
21.26000 2.975
21.28000 -2.428
21.30000 -2.884
21.32000 1.847
21.34000 0.268
21.36000 4.904
21.38000 6.631
21.40000 4.993
21.42000 0.827
21.44000 2.767
21.46000 4.916
21.48000 7.378
21.50000 -2.673
21.52000 0.728
21.54000 -4.195
21.56000 -1.074
21.58000 2.061
21.60000 -1.607
21.62000 -0.052
21.64000 5.109
21.66000 7.162
21.68000 11.473
21.70000 6.530
21.72000 -0.345
21.74000 -2.348
21.76000 -1.494
21.78000 -2.792
21.80000 0.221
21.82000 -1.184
21.84000 1.297
21.86000 6.024
21.88000 9.601
21.90000 1.786
21.92000 -2.509
21.94000 4.084
21.96000 2.948
21.98000 1.217
22.00000 1.520
22.02000 3.233
22.04000 -1.130
22.06000 0.715
22.08000 0.239
22.10000 2.332
22.12000 6.646
22.14000 10.537
22.16000 7.739
22.18000 2.660
22.20000 -1.783
22.22000 4.279
22.24000 3.925
22.26000 6.096
22.28000 -0.939
22.30000 -1.279
22.32000 7.750
22.34000 -1.094
22.36000 -0.879
22.38000 7.310
22.40000 3.869
22.42000 -1.578
22.44000 -1.599
22.46000 -0.098
22.48000 -1.679
22.50000 0.281
22.52000 -0.038
22.54000 2.287
22.56000 -1.537
22.58000 -3.038
22.60000 -4.132
22.62000 1.165
22.64000 8.453
22.66000 -1.527
22.68000 -3.813
22.70000 -0.829
22.72000 -0.848
22.74000 -0.706
22.76000 3.950
22.78000 5.878
22.80000 5.890
22.82000 8.042
22.84000 5.429
22.86000 6.278
22.88000 6.978
22.90000 2.345
22.92000 -1.052
22.94000 1.162
22.96000 -2.307
22.98000 4.843
23.00000 5.444
23.02000 5.396
23.04000 10.132
23.06000 0.668
23.08000 -2.266
23.10000 -0.564
23.12000 4.451
23.14000 4.165
23.16000 -1.286
23.18000 0.383
23.20000 4.537
23.22000 3.055
23.24000 10.038
23.26000 1.483
23.28000 -1.553
23.30000 -2.422
23.32000 -2.472
23.34000 2.057
23.36000 2.117
23.38000 0.305
23.40000 -3.111
23.42000 1.366
23.44000 3.434
23.46000 1.528
23.48000 -0.706
23.50000 4.084
23.52000 9.967
23.54000 3.666
23.56000 0.836
23.58000 0.625
23.60000 1.343
23.62000 6.619
23.64000 1.495
23.66000 7.403
23.68000 2.386
23.70000 2.495
23.72000 6.251
23.74000 1.067
23.76000 -0.035
23.78000 6.802
23.80000 8.770
23.82000 5.021
23.84000 3.804
23.86000 4.408
23.88000 4.517
23.90000 2.851
23.92000 4.466
23.94000 6.004
23.96000 7.130
23.98000 5.151
24.00000 4.073
24.02000 5.821
24.04000 -3.009
24.06000 -3.544
24.08000 -1.202
24.10000 2.153
24.12000 6.150
24.14000 1.059
24.16000 -4.024
24.18000 5.927
24.20000 8.717
24.22000 8.919
24.24000 6.305
24.26000 1.945
24.28000 3.322
24.30000 8.573
24.32000 7.240
24.34000 2.725
24.36000 1.681
24.38000 1.288
24.40000 1.609
24.42000 0.676
24.44000 0.723
24.46000 6.569
24.48000 7.049
24.50000 3.751
24.52000 0.697
24.54000 2.410
24.56000 -2.306
24.58000 4.107
24.60000 14.883
24.62000 10.395
24.64000 8.614
24.66000 6.223
24.68000 1.224
24.70000 1.723
24.72000 1.767
24.74000 7.853
24.76000 5.029
24.78000 4.652
24.80000 9.361
24.82000 9.244
24.84000 3.185
24.86000 6.096
24.88000 2.073
24.90000 -1.883
24.92000 -1.477
24.94000 6.254
24.96000 3.645
24.98000 2.387
25.00000 6.020
25.02000 0.572
25.04000 0.561
25.06000 6.381
25.08000 4.655
25.10000 1.729
25.12000 -0.615
25.14000 -2.670
25.16000 5.471
25.18000 6.843
25.20000 4.562
25.22000 4.816
25.24000 7.927
25.26000 -0.268
25.28000 -2.497
25.30000 -0.445
25.32000 3.526
25.34000 2.879
25.36000 -0.266
25.38000 1.936
25.40000 2.577
25.42000 -1.075
25.44000 1.457
25.46000 4.910
25.48000 6.723
25.50000 2.296
25.52000 -3.952
25.54000 0.787
25.56000 5.173
25.58000 4.295
25.60000 1.541
25.62000 2.680
25.64000 3.420
25.66000 2.027
25.68000 3.328
25.70000 4.275
25.72000 5.927
25.74000 4.870
25.76000 6.813
25.78000 6.479
25.80000 4.767
25.82000 0.998
25.84000 0.623
25.86000 1.539
25.88000 6.373
25.90000 8.233
25.92000 4.212
25.94000 7.708
25.96000 8.581
25.98000 6.291
26.00000 6.230
26.02000 4.362
26.04000 -0.513
26.06000 -0.886
26.08000 4.526
26.10000 3.976
26.12000 6.551
26.14000 8.026
26.16000 8.244
26.18000 3.515
26.20000 3.990
26.22000 4.235
26.24000 3.207
26.26000 7.264
26.28000 13.243
26.30000 7.950
26.32000 3.546
26.34000 4.365
26.36000 3.584
26.38000 3.612
26.40000 5.106
26.42000 6.313
26.44000 4.204
26.46000 7.120
26.48000 3.383
26.50000 -1.279
26.52000 -3.868
26.54000 5.533
26.56000 11.194
26.58000 5.493
26.60000 4.706
26.62000 3.765
26.64000 7.025
26.66000 5.798
26.68000 1.826
26.70000 0.344
26.72000 3.375
26.74000 9.175
26.76000 6.396
26.78000 8.189
26.80000 5.010
26.82000 5.904
26.84000 7.701
26.86000 4.231
26.88000 8.649
26.90000 3.133
26.92000 4.276
26.94000 7.376
26.96000 6.014
26.98000 0.908
27.00000 3.436
27.02000 0.785
27.04000 6.280
27.06000 10.198
27.08000 4.632
27.10000 7.947
27.12000 4.834
27.14000 0.676
27.16000 7.080
27.18000 5.103
27.20000 4.971
27.22000 11.031
27.24000 13.618
27.26000 10.415
27.28000 9.573
27.30000 7.051
27.32000 12.627
27.34000 12.749
27.36000 10.130
27.38000 4.528
27.40000 3.691
27.42000 2.172
27.44000 0.034
27.46000 5.861
27.48000 8.454
27.50000 10.135
27.52000 7.773
27.54000 3.801
27.56000 6.676
27.58000 8.519
27.60000 6.761
27.62000 6.904
27.64000 4.636
27.66000 4.018
27.68000 3.153
27.70000 0.786
27.72000 2.262
27.74000 7.928
27.76000 6.299
27.78000 2.420
27.80000 2.099
27.82000 8.143
27.84000 2.478
27.86000 5.877
27.88000 4.513
27.90000 3.457
27.92000 2.584
27.94000 0.305
27.96000 -1.896
27.98000 -1.779
28.00000 -1.965
28.02000 -1.016
28.04000 3.310
28.06000 1.001
28.08000 2.002
28.10000 6.417
28.12000 4.663
28.14000 3.993
28.16000 2.936
28.18000 1.979
28.20000 2.476
28.22000 5.967
28.24000 4.734
28.26000 -0.425
28.28000 9.990
28.30000 9.644
28.32000 2.115
28.34000 -2.536
28.36000 -3.800
28.38000 -2.783
28.40000 3.688
28.42000 6.299
28.44000 0.618
28.46000 -1.803
28.48000 1.712
28.50000 7.986
28.52000 2.278
28.54000 2.867
28.56000 6.810
28.58000 4.273
28.60000 2.182
28.62000 6.838
28.64000 2.054
28.66000 -3.150
28.68000 4.329
28.70000 8.462
28.72000 2.613
28.74000 3.858
28.76000 4.959
28.78000 4.217
28.80000 5.176
28.82000 3.140
28.84000 -2.282
28.86000 3.081
28.88000 7.238
28.90000 2.308
28.92000 1.138
28.94000 2.529
28.96000 -3.787
28.98000 -2.117
29.00000 1.331
29.02000 3.669
29.04000 4.071
29.06000 5.736
29.08000 4.071
29.10000 -0.991
29.12000 -1.300
29.14000 -0.165
29.16000 -0.214
29.18000 3.664
29.20000 -0.315
29.22000 0.535
29.24000 3.198
29.26000 2.950
29.28000 0.346
29.30000 2.219
29.32000 -1.853
29.34000 1.250
29.36000 7.001
29.38000 6.200
29.40000 4.471
29.42000 2.404
29.44000 5.267
29.46000 6.667
29.48000 4.630
29.50000 3.340
29.52000 2.113
29.54000 1.153
29.56000 0.375
29.58000 4.363
29.60000 1.296
29.62000 5.026
29.64000 4.428
29.66000 -0.914
29.68000 -1.931
29.70000 0.508
29.72000 0.243
29.74000 0.913
29.76000 3.608
29.78000 2.663
29.80000 0.250
29.82000 -2.467
29.84000 0.847
29.86000 -0.216
29.88000 1.421
29.90000 -2.066
29.92000 -2.648
29.94000 -0.145
29.96000 -0.207
29.98000 -0.243
30.00000 -3.738
30.02000 -1.636
30.04000 2.707
30.06000 1.429
30.08000 0.337
30.10000 -1.362
30.12000 1.770
30.14000 2.192
30.16000 5.775
30.18000 4.512
30.20000 -3.028
30.22000 -2.359
30.24000 3.710
30.26000 7.483
30.28000 3.892
30.30000 6.411
30.32000 7.557
30.34000 -0.083
30.36000 1.823
30.38000 5.787
30.40000 4.795
30.42000 1.413
30.44000 -1.082
30.46000 0.825
30.48000 3.729
30.50000 1.260
30.52000 2.245
30.54000 2.051
30.56000 0.373
30.58000 -0.855
30.60000 -1.822
30.62000 1.877
30.64000 -2.507
30.66000 2.620
30.68000 5.475
30.70000 1.704
30.72000 1.946
30.74000 5.128
30.76000 4.976
30.78000 3.003
30.80000 -0.570
30.82000 1.980
30.84000 2.512
30.86000 3.869
30.88000 -0.830
30.90000 -1.498
30.92000 -1.822
30.94000 4.709
30.96000 0.280
30.98000 -1.310
31.00000 0.857
31.02000 -0.532
31.04000 -3.253
31.06000 4.396
31.08000 4.117
31.10000 6.138
31.12000 9.757
31.14000 2.297
31.16000 0.396
31.18000 1.513
31.20000 5.853
31.22000 2.942
31.24000 1.603
31.26000 0.805
31.28000 1.558
31.30000 3.820
31.32000 1.679
31.34000 -0.532
31.36000 1.244
31.38000 -1.195
31.40000 -3.691
31.42000 -2.465
31.44000 -0.945
31.46000 0.792
31.48000 1.761
31.50000 0.466
31.52000 -0.553
31.54000 -1.113
31.56000 -3.616
31.58000 -3.272
31.60000 0.223
31.62000 -0.512
31.64000 4.851
31.66000 4.390
31.68000 5.841
31.70000 4.247
31.72000 -0.224
31.74000 -0.170
31.76000 1.488
31.78000 -1.464
31.80000 -2.384
31.82000 -0.177
31.84000 1.333
31.86000 1.311
31.88000 4.220
31.90000 0.064
31.92000 2.518
31.94000 0.659
31.96000 -2.733
31.98000 0.891
32.00000 0.863
32.02000 2.312
32.04000 1.077
32.06000 -0.124
32.08000 2.781
32.10000 -0.778
32.12000 0.976
32.14000 1.184
32.16000 1.902
32.18000 4.296
32.20000 1.654
32.22000 -1.609
32.24000 -1.794
32.26000 -2.780
32.28000 0.144
32.30000 3.702
32.32000 4.711
32.34000 4.535
32.36000 2.959
32.38000 -1.384
32.40000 1.547
32.42000 -0.456
32.44000 4.938
32.46000 6.976
32.48000 0.643
32.50000 -1.095
32.52000 0.397
32.54000 10.580
32.56000 8.567
32.58000 4.468
32.60000 2.794
32.62000 -3.659
32.64000 1.004
32.66000 4.352
32.68000 1.918
32.70000 1.692
32.72000 0.042
32.74000 -1.100
32.76000 -3.047
32.78000 -2.142
32.80000 2.814
32.82000 3.648
32.84000 1.831
32.86000 -0.950
32.88000 1.242
32.90000 -0.028
32.92000 1.771
32.94000 0.037
32.96000 0.559
32.98000 -0.940
33.00000 -3.286
33.02000 2.404
33.04000 1.542
33.06000 1.363
33.08000 2.459
33.10000 4.660
33.12000 -1.462
33.14000 0.131
33.16000 -1.343
33.18000 1.035
33.20000 2.425
33.22000 2.399
33.24000 -0.410
33.26000 -0.466
33.28000 2.875
33.30000 6.259
33.32000 5.587
33.34000 0.184
33.36000 -1.292
33.38000 1.028
33.40000 -3.655
33.42000 -1.604
33.44000 -0.589
33.46000 -0.538
33.48000 0.829
33.50000 2.790
33.52000 4.893
33.54000 4.883
33.56000 -0.760
33.58000 0.417
33.60000 3.437
33.62000 4.217
33.64000 8.884
33.66000 2.658
33.68000 3.990
33.70000 3.626
33.72000 3.781
33.74000 9.380
33.76000 4.492
33.78000 0.342
33.80000 6.426
33.82000 4.781
33.84000 7.851
33.86000 3.845
33.88000 0.624
33.90000 -1.014
33.92000 -0.060
33.94000 4.055
33.96000 3.085
33.98000 5.195
34.00000 3.781
34.02000 1.446
34.04000 3.128
34.06000 0.608
34.08000 -1.501
34.10000 4.313
34.12000 5.414
34.14000 -2.286
34.16000 -3.626
34.18000 0.819
34.20000 5.034
34.22000 0.670
34.24000 -1.552
34.26000 2.099
34.28000 2.980
34.30000 -0.067
34.32000 0.623
34.34000 3.369
34.36000 -0.580
34.38000 -1.409
34.40000 1.203
34.42000 1.965
34.44000 -0.258
34.46000 2.676
34.48000 2.191
34.50000 2.158
34.52000 7.083
34.54000 7.536
34.56000 7.339
34.58000 -0.918
34.60000 1.314
34.62000 1.542
34.64000 3.526
34.66000 2.100
34.68000 -0.874
34.70000 2.892
34.72000 3.881
34.74000 5.200
34.76000 3.840
34.78000 -0.749
34.80000 -1.068
34.82000 3.018
34.84000 -0.289
34.86000 0.395
34.88000 3.771
34.90000 0.536
34.92000 -0.548
34.94000 -3.006
34.96000 -3.625
34.98000 -2.865
35.00000 -1.933
35.02000 -3.377
35.04000 0.151
35.06000 1.491
35.08000 3.748
35.10000 2.378
35.12000 -0.254
35.14000 -2.481
35.16000 -2.757
35.18000 2.029
35.20000 -1.640
35.22000 -0.968
35.24000 -0.728
35.26000 -0.662
35.28000 1.537
35.30000 3.469
35.32000 0.825
35.34000 -0.133
35.36000 5.647
35.38000 5.129
35.40000 1.989
35.42000 2.142
35.44000 2.463
35.46000 5.468
35.48000 5.225
35.50000 -3.630
35.52000 -1.757
35.54000 2.197
35.56000 0.545
35.58000 -0.350
35.60000 -1.443
35.62000 4.080
35.64000 1.175
35.66000 -0.471
35.68000 1.269
35.70000 1.144
35.72000 0.174
35.74000 2.871
35.76000 -1.936
35.78000 -1.616
35.80000 -2.727
35.82000 -1.161
35.84000 -0.798
35.86000 -1.521
35.88000 -0.692
35.90000 2.703
35.92000 2.239
35.94000 1.363
35.96000 -1.411
35.98000 4.498
36.00000 4.829
36.02000 0.782
36.04000 -0.076
36.06000 1.330
36.08000 0.633
36.10000 4.295
36.12000 4.753
36.14000 0.221
36.16000 -3.657
36.18000 0.041
36.20000 0.464
36.22000 -0.479
36.24000 -0.197
36.26000 -0.010
36.28000 1.355
36.30000 0.608
36.32000 1.271
36.34000 -2.509
36.36000 -0.771
36.38000 2.091
36.40000 6.090
36.42000 0.161
36.44000 -3.662
36.46000 3.191
36.48000 7.364
36.50000 3.447
36.52000 1.681
36.54000 -1.503
36.56000 -3.667
36.58000 0.145
36.60000 8.527
36.62000 4.467
36.64000 6.152
36.66000 0.784
36.68000 -1.826
36.70000 0.806
36.72000 1.314
36.74000 5.125
36.76000 3.794
36.78000 0.818
36.80000 0.550
36.82000 3.894
36.84000 1.551
36.86000 10.022
36.88000 5.768
36.90000 -3.281
36.92000 -0.049
36.94000 -1.584
36.96000 1.096
36.98000 4.160
37.00000 2.317
37.02000 2.498
37.04000 3.807
37.06000 5.634
37.08000 5.055
37.10000 0.528
37.12000 3.620
37.14000 8.193
37.16000 6.953
37.18000 4.088
37.20000 3.671
37.22000 6.675
37.24000 4.288
37.26000 2.034
37.28000 6.271
37.30000 6.888
37.32000 2.014
37.34000 3.172
37.36000 4.663
37.38000 6.146
37.40000 6.142
37.42000 2.357
37.44000 0.287
37.46000 2.812
37.48000 3.324
37.50000 8.855
37.52000 8.339
37.54000 7.488
37.56000 10.183
37.58000 12.921
37.60000 12.341
37.62000 9.345
37.64000 9.635
37.66000 13.655
37.68000 10.683
37.70000 11.659
37.72000 8.626
37.74000 12.291
37.76000 13.081
37.78000 12.593
37.80000 11.371
37.82000 14.454
37.84000 16.549
37.86000 15.825
37.88000 20.257
37.90000 18.444
37.92000 17.708
37.94000 23.318
37.96000 25.821
37.98000 22.202
38.00000 20.164
38.02000 19.296
38.04000 20.312
38.06000 24.382
38.08000 23.544
38.10000 25.060
38.12000 19.961
38.14000 21.649
38.16000 26.732
38.18000 31.802
38.20000 35.581
38.22000 28.780
38.24000 22.839
38.26000 24.515
38.28000 30.634
38.30000 37.594
38.32000 38.244
38.34000 40.396
38.36000 43.439
38.38000 38.866
38.40000 38.885
38.42000 38.973
38.44000 46.475
38.46000 49.781
38.48000 49.598
38.50000 52.483
38.52000 54.177
38.54000 53.894
38.56000 64.070
38.58000 65.684
38.60000 62.568
38.62000 65.885
38.64000 70.960
38.66000 71.345
38.68000 77.115
38.70000 79.287
38.72000 80.009
38.74000 83.399
38.76000 85.984
38.78000 95.152
38.80000 97.445
38.82000 102.326
38.84000 111.997
38.86000 118.640
38.88000 121.361
38.90000 124.308
38.92000 128.874
38.94000 139.152
38.96000 141.800
38.98000 146.969
39.00000 162.737
39.02000 174.369
39.04000 185.348
39.06000 194.480
39.08000 202.709
39.10000 215.734
39.12000 229.582
39.14000 238.102
39.16000 253.084
39.18000 268.753
39.20000 288.003
39.22000 305.030
39.24000 311.722
39.26000 324.424
39.28000 349.564
39.30000 370.884
39.32000 393.735
39.34000 415.402
39.36000 435.137
39.38000 450.343
39.40000 459.765
39.42000 488.613
39.44000 518.897
39.46000 541.860
39.48000 554.903
39.50000 582.289
39.52000 604.832
39.54000 619.150
39.56000 634.921
39.58000 658.811
39.60000 663.234
39.62000 678.914
39.64000 697.604
39.66000 707.919
39.68000 718.380
39.70000 710.878
39.72000 709.401
39.74000 714.677
39.76000 712.411
39.78000 705.180
39.80000 689.251
39.82000 663.456
39.84000 666.784
39.86000 657.760
39.88000 640.826
39.90000 632.576
39.92000 606.355
39.94000 592.064
39.96000 563.231
39.98000 533.903
40.00000 516.772
40.02000 505.330
40.04000 480.856
40.06000 463.212
40.08000 443.191
40.10000 408.652
40.12000 385.469
40.14000 367.595
40.16000 353.652
40.18000 339.905
40.20000 314.864
40.22000 293.356
40.24000 275.876
40.26000 258.930
40.28000 242.406
40.30000 226.406
40.32000 205.199
40.34000 194.510
40.36000 185.303
40.38000 173.214
40.40000 158.808
40.42000 153.439
40.44000 137.416
40.46000 126.140
40.48000 126.483
40.50000 116.475
40.52000 110.920
40.54000 106.355
40.56000 93.728
40.58000 95.199
40.60000 89.074
40.62000 81.576
40.64000 76.138
40.66000 72.752
40.68000 68.407
40.70000 64.008
40.72000 62.535
40.74000 59.898
40.76000 50.968
40.78000 48.438
40.80000 51.223
40.82000 44.882
40.84000 40.746
40.86000 41.937
40.88000 41.698
40.90000 40.478
40.92000 38.162
40.94000 39.647
40.96000 36.104
40.98000 33.448
41.00000 31.904
41.02000 27.566
41.04000 24.831
41.06000 21.950
41.08000 21.345
41.10000 22.112
41.12000 22.153
41.14000 19.112
41.16000 20.114
41.18000 17.029
41.20000 15.643
41.22000 15.664
41.24000 15.915
41.26000 14.767
41.28000 14.565
41.30000 13.185
41.32000 12.172
41.34000 14.609
41.36000 11.777
41.38000 9.697
41.40000 9.524
41.42000 9.188
41.44000 10.423
41.46000 10.778
41.48000 10.711
41.50000 9.161
41.52000 12.493
41.54000 8.348
41.56000 8.665
41.58000 4.613
41.60000 2.628
41.62000 4.699
41.64000 4.708
41.66000 3.287
41.68000 7.533
41.70000 6.689
41.72000 4.364
41.74000 5.960
41.76000 3.559
41.78000 5.212
41.80000 9.725
41.82000 7.620
41.84000 3.067
41.86000 4.235
41.88000 5.951
41.90000 4.103
41.92000 -1.237
41.94000 -3.441
41.96000 0.416
41.98000 0.843
42.00000 3.813
42.02000 5.195
42.04000 3.077
42.06000 2.707
42.08000 0.225
42.10000 -0.592
42.12000 0.445
42.14000 -3.406
42.16000 -0.321
42.18000 7.453
42.20000 6.572
42.22000 2.120
42.24000 3.948
42.26000 5.680
42.28000 4.213
42.30000 5.837
42.32000 4.537
42.34000 2.545
42.36000 1.558
42.38000 4.402
42.40000 1.177
42.42000 1.721
42.44000 2.677
42.46000 3.055
42.48000 4.453
42.50000 3.017
42.52000 3.871
42.54000 2.485
42.56000 1.437
42.58000 0.125
42.60000 3.578
42.62000 5.689
42.64000 3.153
42.66000 0.693
42.68000 1.267
42.70000 -0.213
42.72000 1.685
42.74000 2.894
42.76000 0.472
42.78000 -0.351
42.80000 4.035
42.82000 2.011
42.84000 3.986
42.86000 2.115
42.88000 1.631
42.90000 5.587
42.92000 7.664
42.94000 6.449
42.96000 -0.825
42.98000 -0.558
43.00000 2.730
43.02000 6.051
43.04000 6.634
43.06000 5.334
43.08000 0.530
43.10000 -2.344
43.12000 3.365
43.14000 4.481
43.16000 4.528
43.18000 -2.307
43.20000 -3.230
43.22000 0.662
43.24000 5.669
43.26000 8.170
43.28000 10.470
43.30000 6.603
43.32000 2.089
43.34000 0.936
43.36000 3.972
43.38000 -2.138
43.40000 1.825
43.42000 4.393
43.44000 5.668
43.46000 2.824
43.48000 0.230
43.50000 2.219
43.52000 7.630
43.54000 7.129
43.56000 5.107
43.58000 1.913
43.60000 0.803
43.62000 -2.975
43.64000 -0.793
43.66000 -1.478
43.68000 -3.208
43.70000 -2.063
43.72000 0.794
43.74000 0.448
43.76000 0.324
43.78000 2.795
43.80000 3.177
43.82000 -2.271
43.84000 0.614
43.86000 1.742
43.88000 1.777
43.90000 -1.291
43.92000 -2.307
43.94000 -2.938
43.96000 1.902
43.98000 2.467
44.00000 4.146
44.02000 1.714
44.04000 0.627
44.06000 1.307
44.08000 0.760
44.10000 0.719
44.12000 0.204
44.14000 1.932
44.16000 3.370
44.18000 5.911
44.20000 4.531
44.22000 1.784
44.24000 -0.999
44.26000 -0.812
44.28000 -2.442
44.30000 -1.887
44.32000 -0.562
44.34000 -1.252
44.36000 -2.319
44.38000 1.832
44.40000 -1.661
44.42000 -1.523
44.44000 -3.227
44.46000 -2.563
44.48000 -1.574
44.50000 -2.463
44.52000 -0.504
44.54000 2.694
44.56000 0.579
44.58000 0.228
44.60000 1.405
44.62000 1.026
44.64000 -1.762
44.66000 2.148
44.68000 6.199
44.70000 2.305
44.72000 -0.950
44.74000 0.582
44.76000 6.256
44.78000 5.224
44.80000 4.055
44.82000 3.193
44.84000 0.807
44.86000 2.778
44.88000 3.647
44.90000 1.347
44.92000 2.916
44.94000 7.370
44.96000 5.084
44.98000 5.517
45.00000 5.223
45.02000 5.487
45.04000 4.153
45.06000 7.558
45.08000 6.179
45.10000 6.662
45.12000 5.929
45.14000 5.628
45.16000 11.318
45.18000 3.135
45.20000 2.593
45.22000 5.304
45.24000 9.084
45.26000 7.509
45.28000 10.138
45.30000 13.166
45.32000 10.589
45.34000 13.566
45.36000 14.080
45.38000 11.998
45.40000 13.552
45.42000 16.026
45.44000 17.930
45.46000 15.851
45.48000 15.048
45.50000 14.181
45.52000 16.679
45.54000 16.785
45.56000 18.003
45.58000 19.095
45.60000 24.289
45.62000 26.116
45.64000 25.271
45.66000 24.786
45.68000 26.017
45.70000 28.199
45.72000 36.100
45.74000 38.390
45.76000 36.679
45.78000 34.091
45.80000 37.103
45.82000 33.598
45.84000 32.506
45.86000 35.750
45.88000 37.702
45.90000 38.189
45.92000 39.036
45.94000 42.812
45.96000 46.612
45.98000 46.009
46.00000 48.899
46.02000 49.666
46.04000 56.246
46.06000 54.248
46.08000 52.270
46.10000 58.501
46.12000 61.355
46.14000 60.567
46.16000 65.311
46.18000 64.563
46.20000 60.610
46.22000 64.292
46.24000 66.958
46.26000 70.585
46.28000 69.668
46.30000 70.400
46.32000 72.233
46.34000 70.628
46.36000 72.226
46.38000 71.492
46.40000 74.027
46.42000 73.048
46.44000 70.801
46.46000 68.522
46.48000 65.450
46.50000 71.054
46.52000 64.512
46.54000 66.918
46.56000 68.342
46.58000 68.652
46.60000 64.126
46.62000 59.616
46.64000 60.439
46.66000 56.594
46.68000 55.992
46.70000 57.741
46.72000 52.318
46.74000 52.206
46.76000 51.145
46.78000 47.967
46.80000 51.885
46.82000 52.385
46.84000 42.919
46.86000 41.435
46.88000 38.788
46.90000 39.616
46.92000 38.765
46.94000 36.985
46.96000 34.254
46.98000 34.518
47.00000 34.213
47.02000 33.413
47.04000 30.377
47.06000 28.844
47.08000 29.912
47.10000 25.788
47.12000 27.927
47.14000 24.382
47.16000 21.437
47.18000 19.174
47.20000 15.012
47.22000 17.476
47.24000 18.050
47.26000 15.792
47.28000 16.390
47.30000 15.305
47.32000 12.387
47.34000 11.090
47.36000 15.631
47.38000 14.979
47.40000 12.169
47.42000 11.907
47.44000 9.189
47.46000 10.961
47.48000 7.889
47.50000 8.383
47.52000 7.074
47.54000 6.620
47.56000 4.236
47.58000 0.346
47.60000 5.348
47.62000 7.686
47.64000 3.818
47.66000 3.333
47.68000 1.890
47.70000 2.287
47.72000 6.141
47.74000 6.446
47.76000 -0.622
47.78000 3.411
47.80000 6.111
47.82000 3.659
47.84000 4.957
47.86000 2.999
47.88000 2.533
47.90000 -2.876
47.92000 -1.086
47.94000 -0.149
47.96000 2.832
47.98000 3.899
48.00000 -0.843
48.02000 1.285
48.04000 1.552
48.06000 1.692
48.08000 0.572
48.10000 0.983
48.12000 0.214
48.14000 0.210
48.16000 5.917
48.18000 6.167
48.20000 2.010
48.22000 6.825
48.24000 5.623
48.26000 2.072
48.28000 1.491
48.30000 3.414
48.32000 3.435
48.34000 2.037
48.36000 3.161
48.38000 4.198
48.40000 0.732
48.42000 -0.929
48.44000 1.238
48.46000 4.772
48.48000 5.292
48.50000 2.898
48.52000 4.384
48.54000 4.258
48.56000 -0.210
48.58000 -2.746
48.60000 -0.227
48.62000 2.917
48.64000 2.561
48.66000 3.609
48.68000 3.122
48.70000 -0.220
48.72000 0.883
48.74000 1.469
48.76000 1.245
48.78000 2.050
48.80000 5.744
48.82000 0.757
48.84000 3.386
48.86000 7.566
48.88000 1.451
48.90000 2.204
48.92000 2.455
48.94000 5.797
48.96000 1.780
48.98000 -1.276
49.00000 -0.201
49.02000 -0.384
49.04000 -1.931
49.06000 -0.126
49.08000 3.334
49.10000 0.564
49.12000 -2.696
49.14000 2.480
49.16000 5.359
49.18000 7.995
49.20000 0.977
49.22000 -0.138
49.24000 3.024
49.26000 2.151
49.28000 1.530
49.30000 2.499
49.32000 3.606
49.34000 5.623
49.36000 3.238
49.38000 2.845
49.40000 2.116
49.42000 7.114
49.44000 4.968
49.46000 4.745
49.48000 0.076
49.50000 3.907
49.52000 7.996
49.54000 1.590
49.56000 -0.071
49.58000 1.899
49.60000 1.666
49.62000 3.760
49.64000 6.098
49.66000 4.333
49.68000 6.768
49.70000 2.879
49.72000 7.435
49.74000 3.645
49.76000 4.210
49.78000 0.456
49.80000 -0.838
49.82000 2.084
49.84000 6.941
49.86000 7.631
49.88000 7.127
49.90000 4.188
49.92000 0.100
49.94000 3.447
49.96000 3.293
49.98000 1.220
50.00000 2.670
50.02000 3.564
50.04000 2.935
50.06000 1.793
50.08000 1.886
50.10000 4.546
50.12000 -0.017
50.14000 2.097
50.16000 1.000
50.18000 0.953
50.20000 3.860
50.22000 5.820
50.24000 -2.650
50.26000 -2.171
50.28000 3.145
50.30000 3.982
50.32000 4.628
50.34000 5.210
50.36000 2.751
50.38000 0.176
50.40000 0.867
50.42000 -0.370
50.44000 2.280
50.46000 2.221
50.48000 1.204
50.50000 0.497
50.52000 1.814
50.54000 -0.305
50.56000 3.315
50.58000 3.234
50.60000 3.450
50.62000 6.888
50.64000 9.035
50.66000 4.251
50.68000 6.600
50.70000 5.367
50.72000 7.284
50.74000 4.204
50.76000 5.424
50.78000 2.525
50.80000 1.749
50.82000 -2.498
50.84000 -2.615
50.86000 4.035
50.88000 6.082
50.90000 3.135
50.92000 5.044
50.94000 4.621
50.96000 1.399
50.98000 6.259
51.00000 2.074
51.02000 2.768
51.04000 5.275
51.06000 7.974
51.08000 8.380
51.10000 6.864
51.12000 3.522
51.14000 -1.873
51.16000 0.232
51.18000 1.351
51.20000 5.642
51.22000 2.815
51.24000 0.531
51.26000 3.384
51.28000 0.613
51.30000 2.234
51.32000 2.998
51.34000 4.327
51.36000 3.267
51.38000 0.123
51.40000 0.445
51.42000 -2.613
51.44000 -0.833
51.46000 -1.431
51.48000 1.500
51.50000 1.807
51.52000 4.768
51.54000 7.133
51.56000 4.212
51.58000 0.666
51.60000 2.973
51.62000 4.097
51.64000 1.187
51.66000 1.919
51.68000 4.311
51.70000 5.050
51.72000 6.777
51.74000 7.491
51.76000 3.189
51.78000 1.251
51.80000 3.004
51.82000 2.565
51.84000 3.146
51.86000 -2.164
51.88000 -2.596
51.90000 1.106
51.92000 5.780
51.94000 4.161
51.96000 3.385
51.98000 4.256
52.00000 7.262
52.02000 4.848
52.04000 0.321
52.06000 1.360
52.08000 0.916
52.10000 0.214
52.12000 1.590
52.14000 2.063
52.16000 2.674
52.18000 1.360
52.20000 -1.870
52.22000 1.367
52.24000 1.337
52.26000 0.947
52.28000 3.763
52.30000 5.468
52.32000 1.821
52.34000 0.639
52.36000 0.546
52.38000 5.642
52.40000 3.353
52.42000 1.140
52.44000 -0.142
52.46000 0.500
52.48000 0.758
52.50000 0.995
52.52000 0.582
52.54000 -0.618
52.56000 0.297
52.58000 5.051
52.60000 4.171
52.62000 0.845
52.64000 0.399
52.66000 3.855
52.68000 6.099
52.70000 4.171
52.72000 6.880
52.74000 5.722
52.76000 3.295
52.78000 -0.725
52.80000 -0.425
52.82000 2.824
52.84000 1.220
52.86000 5.739
52.88000 3.122
52.90000 4.199
52.92000 0.870
52.94000 0.933
52.96000 -0.852
52.98000 -0.977
53.00000 1.537
53.02000 0.901
53.04000 2.296
53.06000 4.349
53.08000 5.735
53.10000 3.033
53.12000 2.092
53.14000 4.825
53.16000 3.511
53.18000 2.779
53.20000 -0.720
53.22000 0.037
53.24000 -0.159
53.26000 1.275
53.28000 2.400
53.30000 4.460
53.32000 3.836
53.34000 4.948
53.36000 4.937
53.38000 4.719
53.40000 5.084
53.42000 2.736
53.44000 5.152
53.46000 3.550
53.48000 4.993
53.50000 6.743
53.52000 8.962
53.54000 3.307
53.56000 2.690
53.58000 2.760
53.60000 0.029
53.62000 -2.534
53.64000 3.539
53.66000 5.447
53.68000 6.454
53.70000 2.428
53.72000 0.080
53.74000 2.784
53.76000 2.850
53.78000 3.383
53.80000 2.521
53.82000 5.552
53.84000 3.049
53.86000 2.229
53.88000 0.443
53.90000 0.491
53.92000 1.292
53.94000 1.771
53.96000 0.473
53.98000 1.034
54.00000 2.062
54.02000 5.984
54.04000 4.257
54.06000 3.763
54.08000 3.048
54.10000 4.153
54.12000 5.835
54.14000 0.436
54.16000 1.395
54.18000 5.224
54.20000 1.835
54.22000 1.427
54.24000 6.418
54.26000 6.768
54.28000 3.995
54.30000 1.658
54.32000 -2.532
54.34000 0.516
54.36000 4.828
54.38000 4.197
54.40000 4.037
54.42000 4.445
54.44000 2.882
54.46000 2.413
54.48000 3.351
54.50000 -2.149
54.52000 0.009
54.54000 0.900
54.56000 6.471
54.58000 5.066
54.60000 1.170
54.62000 -2.159
54.64000 -1.906
54.66000 -2.543
54.68000 -1.128
54.70000 1.383
54.72000 2.709
54.74000 3.315
54.76000 -1.524
54.78000 -1.615
54.80000 2.067
54.82000 2.832
54.84000 -0.671
54.86000 -1.252
54.88000 2.435
54.90000 0.910
54.92000 0.150
54.94000 -0.916
54.96000 0.373
54.98000 0.608
55.00000 -0.511
55.02000 1.769
55.04000 3.267
55.06000 2.240
55.08000 0.003
55.10000 1.166
55.12000 1.828
55.14000 3.088
55.16000 0.262
55.18000 0.064
55.20000 -0.094
55.22000 0.067
55.24000 -1.187
55.26000 0.783
55.28000 3.720
55.30000 3.749
55.32000 4.641
55.34000 4.609
55.36000 2.059
55.38000 1.826
55.40000 0.441
55.42000 3.207
55.44000 3.927
55.46000 -1.954
55.48000 0.285
55.50000 0.589
55.52000 3.567
55.54000 2.352
55.56000 1.529
55.58000 -0.076
55.60000 -0.779
55.62000 -1.156
55.64000 2.161
55.66000 -0.486
55.68000 -2.077
55.70000 -0.545
55.72000 -0.725
55.74000 1.337
55.76000 2.971
55.78000 0.413
55.80000 2.810
55.82000 3.428
55.84000 -0.639
55.86000 2.883
55.88000 3.068
55.90000 1.300
55.92000 0.641
55.94000 -1.556
55.96000 -2.047
55.98000 1.384
56.00000 3.318
56.02000 2.474
56.04000 -0.228
56.06000 2.829
56.08000 1.640
56.10000 2.771
56.12000 2.765
56.14000 1.302
56.16000 2.986
56.18000 0.880
56.20000 3.456
56.22000 -0.731
56.24000 1.020
56.26000 3.021
56.28000 3.657
56.30000 -0.193
56.32000 0.286
56.34000 -0.677
56.36000 2.896
56.38000 4.652
56.40000 1.871
56.42000 -1.249
56.44000 0.453
56.46000 2.933
56.48000 1.101
56.50000 -2.484
56.52000 0.556
56.54000 2.602
56.56000 3.315
56.58000 -0.311
56.60000 2.531
56.62000 4.453
56.64000 1.778
56.66000 1.990
56.68000 -1.054
56.70000 0.704
56.72000 4.631
56.74000 0.885
56.76000 2.823
56.78000 5.619
56.80000 5.021
56.82000 1.835
56.84000 -1.365
56.86000 -0.394
56.88000 3.115
56.90000 1.087
56.92000 3.346
56.94000 5.662
56.96000 2.780
56.98000 1.892
57.00000 0.547
57.02000 2.246
57.04000 -0.658
57.06000 -0.953
57.08000 -0.495
57.10000 3.522
57.12000 1.024
57.14000 1.468
57.16000 2.168
57.18000 0.380
57.20000 0.425
57.22000 1.219
57.24000 0.857
57.26000 0.886
57.28000 -1.951
57.30000 -1.784
57.32000 0.056
57.34000 -1.248
57.36000 -2.458
57.38000 2.513
57.40000 1.754
57.42000 3.676
57.44000 -1.856
57.46000 -2.036
57.48000 0.376
57.50000 3.052
57.52000 5.657
57.54000 3.139
57.56000 1.816
57.58000 3.771
57.60000 1.448
57.62000 1.738
57.64000 3.446
57.66000 -2.340
57.68000 -2.438
57.70000 0.282
57.72000 3.050
57.74000 2.375
57.76000 2.269
57.78000 1.328
57.80000 5.125
57.82000 5.834
57.84000 2.857
57.86000 4.130
57.88000 1.100
57.90000 1.078
57.92000 7.592
57.94000 1.091
57.96000 -1.978
57.98000 1.102
58.00000 4.349
58.02000 6.646
58.04000 5.953
58.06000 3.629
58.08000 -0.334
58.10000 -0.883
58.12000 -1.015
58.14000 3.354
58.16000 3.957
58.18000 2.762
58.20000 2.782
58.22000 4.302
58.24000 3.992
58.26000 7.025
58.28000 3.850
58.30000 1.570
58.32000 -0.082
58.34000 2.441
58.36000 -0.115
58.38000 1.049
58.40000 0.639
58.42000 2.596
58.44000 2.955
58.46000 7.079
58.48000 3.436
58.50000 2.556
58.52000 -2.421
58.54000 -1.876
58.56000 1.390
58.58000 1.105
58.60000 1.039
58.62000 1.781
58.64000 0.283
58.66000 -0.118
58.68000 0.752
58.70000 0.272
58.72000 3.917
58.74000 6.299
58.76000 3.845
58.78000 5.790
58.80000 3.577
58.82000 0.770
58.84000 0.094
58.86000 3.887
58.88000 4.796
58.90000 3.266
58.92000 0.324
58.94000 2.450
58.96000 5.365
58.98000 1.210
59.00000 0.927
59.02000 0.167
59.04000 -0.520
59.06000 -1.396
59.08000 -0.703
59.10000 1.714
59.12000 5.087
59.14000 6.444
59.16000 4.403
59.18000 2.174
59.20000 1.913
59.22000 1.672
59.24000 1.644
59.26000 1.143
59.28000 4.556
59.30000 7.064
59.32000 2.495
59.34000 2.678
59.36000 2.854
59.38000 1.900
59.40000 0.747
59.42000 6.322
59.44000 7.019
59.46000 5.472
59.48000 4.422
59.50000 5.416
59.52000 4.974
59.54000 5.225
59.56000 4.336
59.58000 -0.519
59.60000 -2.308
59.62000 -1.231
59.64000 1.654
59.66000 4.660
59.68000 4.693
59.70000 3.170
59.72000 2.125
59.74000 3.927
59.76000 4.242
59.78000 3.926
59.80000 4.132
59.82000 0.360
59.84000 -1.371
59.86000 0.361
59.88000 0.978
59.90000 1.333
59.92000 -0.361
59.94000 -1.769
59.96000 -0.575
59.98000 -2.357
60.00000 1.885
60.02000 1.411
60.04000 3.108
60.06000 5.331
60.08000 5.035
60.10000 6.913
60.12000 6.862
60.14000 3.605
60.16000 2.771
60.18000 2.776
60.20000 4.462
60.22000 4.828
60.24000 3.793
60.26000 2.984
60.28000 -0.091
60.30000 -1.940
60.32000 1.465
60.34000 3.644
60.36000 1.764
60.38000 1.675
60.40000 2.358
60.42000 -0.323
60.44000 -1.098
60.46000 1.412
60.48000 1.970
60.50000 2.556
60.52000 4.785
60.54000 4.640
60.56000 2.857
60.58000 0.702
60.60000 -2.359
60.62000 -0.136
60.64000 1.995
60.66000 5.174
60.68000 6.651
60.70000 2.230
60.72000 0.127
60.74000 3.101
60.76000 2.888
60.78000 3.413
60.80000 4.474
60.82000 2.723
60.84000 3.677
60.86000 7.011
60.88000 3.437
60.90000 1.852
60.92000 1.859
60.94000 3.707
60.96000 2.568
60.98000 0.221
61.00000 0.481
61.02000 2.720
61.04000 3.248
61.06000 0.048
61.08000 -2.221
61.10000 0.507
61.12000 0.898
61.14000 -0.023
61.16000 0.418
61.18000 0.140
61.20000 0.862
61.22000 2.100
61.24000 2.096
61.26000 3.222
61.28000 2.966
61.30000 -2.357
61.32000 -2.046
61.34000 -0.740
61.36000 -0.161
61.38000 1.035
61.40000 1.506
61.42000 0.775
61.44000 4.717
61.46000 4.758
61.48000 6.610
61.50000 2.830
61.52000 1.044
61.54000 5.124
61.56000 3.700
61.58000 4.276
61.60000 1.143
61.62000 -1.198
61.64000 -0.358
61.66000 1.321
61.68000 6.073
61.70000 3.621
61.72000 0.964
61.74000 2.083
61.76000 3.500
61.78000 1.227
61.80000 -2.345
61.82000 0.365
61.84000 0.833
61.86000 0.620
61.88000 1.609
61.90000 1.551
61.92000 1.240
61.94000 3.484
61.96000 3.759
61.98000 3.624
62.00000 2.605
62.02000 0.467
62.04000 1.853
62.06000 4.456
62.08000 1.791
62.10000 1.418
62.12000 3.554
62.14000 4.181
62.16000 3.327
62.18000 1.743
62.20000 3.846
62.22000 1.282
62.24000 0.084
62.26000 0.728
62.28000 6.004
62.30000 3.393
62.32000 0.143
62.34000 -0.557
62.36000 -0.446
62.38000 -0.363
62.40000 3.503
62.42000 4.520
62.44000 1.268
62.46000 -1.083
62.48000 -1.335
62.50000 0.614
62.52000 0.279
62.54000 2.582
62.56000 3.673
62.58000 2.483
62.60000 -0.128
62.62000 -2.068
62.64000 -0.902
62.66000 2.846
62.68000 0.391
62.70000 -1.633
62.72000 2.244
62.74000 0.208
62.76000 -0.761
62.78000 3.094
62.80000 3.692
62.82000 1.901
62.84000 3.152
62.86000 2.837
62.88000 5.318
62.90000 2.839
62.92000 2.969
62.94000 0.741
62.96000 1.198
62.98000 -1.128
63.00000 0.522
63.02000 0.599
63.04000 0.758
63.06000 1.672
63.08000 -0.467
63.10000 -0.555
63.12000 1.591
63.14000 1.037
63.16000 0.865
63.18000 3.889
63.20000 4.209
63.22000 1.838
63.24000 -1.599
63.26000 -2.340
63.28000 0.505
63.30000 1.714
63.32000 -0.803
63.34000 2.330
63.36000 3.230
63.38000 4.295
63.40000 5.615
63.42000 4.501
63.44000 3.406
63.46000 -0.682
63.48000 -0.944
63.50000 -2.308
63.52000 -0.304
63.54000 0.057
63.56000 2.802
63.58000 3.321
63.60000 1.711
63.62000 -1.695
63.64000 -2.061
63.66000 0.915
63.68000 0.406
63.70000 0.023
63.72000 -0.992
63.74000 -1.265
63.76000 1.601
63.78000 0.603
63.80000 -0.333
63.82000 0.881
63.84000 1.459
63.86000 -2.354
63.88000 2.010
63.90000 2.072
63.92000 2.250
63.94000 6.846
63.96000 5.558
63.98000 3.227
64.00000 -0.362
64.02000 0.459
64.04000 2.689
64.06000 2.562
64.08000 1.608
64.10000 1.005
64.12000 0.621
64.14000 -0.761
64.16000 -0.498
64.18000 0.252
64.20000 0.788
64.22000 1.886
64.24000 2.176
64.26000 1.334
64.28000 1.089
64.30000 0.065
64.32000 -1.191
64.34000 3.274
64.36000 3.443
64.38000 5.617
64.40000 5.637
64.42000 0.050
64.44000 -0.475
64.46000 0.490
64.48000 -2.365
64.50000 -1.965
64.52000 -1.949
64.54000 1.456
64.56000 1.747
64.58000 2.874
64.60000 -0.006
64.62000 2.698
64.64000 3.375
64.66000 2.039
64.68000 1.145
64.70000 3.075
64.72000 3.124
64.74000 0.376
64.76000 0.095
64.78000 1.009
64.80000 -0.429
64.82000 -1.763
64.84000 2.032
64.86000 0.201
64.88000 -2.304
64.90000 2.962
64.92000 1.443
64.94000 -0.881
64.96000 -0.065
64.98000 0.658
65.00000 2.075
65.02000 0.761
65.04000 0.766
65.06000 3.527
65.08000 4.312
65.10000 2.837
65.12000 -1.307
65.14000 -2.356
65.16000 0.527
65.18000 1.049
65.20000 0.407
65.22000 1.961
65.24000 1.960
65.26000 1.188
65.28000 1.223
65.30000 -0.193
65.32000 0.679
65.34000 2.811
65.36000 2.551
65.38000 1.735
65.40000 0.409
65.42000 -1.715
65.44000 1.630
65.46000 3.577
65.48000 2.572
65.50000 2.005
65.52000 -2.379
65.54000 -0.329
65.56000 -0.750
65.58000 -1.176
65.60000 0.241
65.62000 -0.752
65.64000 0.506
65.66000 -1.980
65.68000 0.512
65.70000 1.169
65.72000 -0.942
65.74000 -1.587
65.76000 1.087
65.78000 2.768
65.80000 0.632
65.82000 0.307
65.84000 1.821
65.86000 -0.312
65.88000 1.583
65.90000 1.449
65.92000 -0.647
65.94000 1.396
65.96000 -1.037
65.98000 -0.915
66.00000 -0.863
66.02000 0.116
66.04000 3.207
66.06000 1.838
66.08000 1.365
66.10000 -0.042
66.12000 -0.670
66.14000 3.592
66.16000 1.801
66.18000 3.815
66.20000 2.773
66.22000 1.227
66.24000 -0.927
66.26000 3.378
66.28000 3.607
66.30000 -1.414
66.32000 -1.466
66.34000 0.208
66.36000 0.733
66.38000 -2.453
66.40000 -0.538
66.42000 0.337
66.44000 -2.293
66.46000 -1.170
66.48000 -1.000
66.50000 2.823
66.52000 5.628
66.54000 2.897
66.56000 1.127
66.58000 4.218
66.60000 6.611
66.62000 4.754
66.64000 2.021
66.66000 2.707
66.68000 3.931
66.70000 4.812
66.72000 5.076
66.74000 5.648
66.76000 5.140
66.78000 6.945
66.80000 5.772
66.82000 3.676
66.84000 3.022
66.86000 7.244
66.88000 7.307
66.90000 3.581
66.92000 6.531
66.94000 5.532
66.96000 5.827
66.98000 8.359
67.00000 8.784
67.02000 7.106
67.04000 10.012
67.06000 8.310
67.08000 8.119
67.10000 8.689
67.12000 12.581
67.14000 14.986
67.16000 12.850
67.18000 12.228
67.20000 12.785
67.22000 11.569
67.24000 13.245
67.26000 11.852
67.28000 13.394
67.30000 13.562
67.32000 11.017
67.34000 14.276
67.36000 16.900
67.38000 14.598
67.40000 16.058
67.42000 17.396
67.44000 18.548
67.46000 17.654
67.48000 15.468
67.50000 13.906
67.52000 14.250
67.54000 13.767
67.56000 14.215
67.58000 14.417
67.60000 15.055
67.62000 17.117
67.64000 15.029
67.66000 14.174
67.68000 11.995
67.70000 12.729
67.72000 14.882
67.74000 16.645
67.76000 12.579
67.78000 12.608
67.80000 15.966
67.82000 15.999
67.84000 15.033
67.86000 12.128
67.88000 8.552
67.90000 10.350
67.92000 12.155
67.94000 11.835
67.96000 10.861
67.98000 11.912
68.00000 12.482
68.02000 9.810
68.04000 9.038
68.06000 9.736
68.08000 9.089
68.10000 6.131
68.12000 5.306
68.14000 6.244
68.16000 6.876
68.18000 7.024
68.20000 5.635
68.22000 5.842
68.24000 4.423
68.26000 6.718
68.28000 2.319
68.30000 0.511
68.32000 2.305
68.34000 4.380
68.36000 3.264
68.38000 3.847
68.40000 4.638
68.42000 0.397
68.44000 1.813
68.46000 2.758
68.48000 1.467
68.50000 -0.134
68.52000 0.106
68.54000 0.573
68.56000 1.262
68.58000 2.479
68.60000 -2.396
68.62000 -1.369
68.64000 -0.311
68.66000 -0.289
68.68000 0.844
68.70000 3.175
68.72000 0.764
68.74000 1.840
68.76000 1.591
68.78000 1.591
68.80000 0.312
68.82000 -2.369
68.84000 -1.078
68.86000 0.504
68.88000 1.445
68.90000 -0.662
68.92000 -0.205
68.94000 1.952
68.96000 3.664
68.98000 1.070
69.00000 0.558
69.02000 0.059
69.04000 0.382
69.06000 0.758
69.08000 0.201
69.10000 -1.299
69.12000 -0.184
69.14000 -1.883
69.16000 -1.882
69.18000 -1.889
69.20000 0.795
69.22000 2.453
69.24000 -0.749
69.26000 -2.336
69.28000 -0.463
69.30000 2.296
69.32000 -0.691
69.34000 0.569
69.36000 1.171
69.38000 -1.108
69.40000 1.911
69.42000 1.121
69.44000 3.118
69.46000 0.071
69.48000 0.300
69.50000 0.675
69.52000 0.814
69.54000 0.323
69.56000 1.703
69.58000 1.490
69.60000 1.948
69.62000 -0.418
69.64000 -1.013
69.66000 -1.145
69.68000 -2.293
69.70000 -1.652
69.72000 -1.793
69.74000 1.549
69.76000 1.734
69.78000 -0.952
69.80000 0.837
69.82000 1.535
69.84000 0.294
69.86000 2.094
69.88000 -0.877
69.90000 0.337
69.92000 -0.425
69.94000 -0.137
69.96000 -0.342
69.98000 1.824
70.00000 1.976
70.02000 -0.567
70.04000 -2.269
70.06000 -1.242
70.08000 1.797
70.10000 1.592
70.12000 3.435
70.14000 2.036
70.16000 0.446
70.18000 0.188
70.20000 -0.835
70.22000 -1.321
70.24000 1.203
70.26000 1.745
70.28000 2.549
70.30000 0.846
70.32000 -0.432
70.34000 -0.622
70.36000 0.428
70.38000 0.506
70.40000 -1.579
70.42000 -1.111
70.44000 -2.245
70.46000 0.207
70.48000 0.422
70.50000 3.638
70.52000 2.142
70.54000 -0.493
70.56000 -1.644
70.58000 3.307
70.60000 3.453
70.62000 2.020
70.64000 0.214
70.66000 1.917
70.68000 3.376
70.70000 1.931
70.72000 1.655
70.74000 0.479
70.76000 0.014
70.78000 -0.262
70.80000 -0.751
70.82000 0.961
70.84000 -0.099
70.86000 -0.924
70.88000 2.313
70.90000 2.649
70.92000 6.792
70.94000 4.805
70.96000 4.976
70.98000 3.819
71.00000 1.084
71.02000 0.921
71.04000 0.912
71.06000 1.000
71.08000 -0.409
71.10000 -1.727
71.12000 3.446
71.14000 3.507
71.16000 0.281
71.18000 -1.157
71.20000 -0.669
71.22000 -2.231
71.24000 1.248
71.26000 0.899
71.28000 -2.105
71.30000 0.387
71.32000 3.273
71.34000 1.634
71.36000 3.589
71.38000 2.209
71.40000 -1.573
71.42000 2.588
71.44000 2.367
71.46000 2.573
71.48000 3.899
71.50000 2.765
71.52000 1.484
71.54000 2.652
71.56000 3.225
71.58000 2.849
71.60000 1.164
71.62000 1.741
71.64000 4.011
71.66000 3.993
71.68000 1.172
71.70000 1.450
71.72000 3.442
71.74000 1.971
71.76000 -1.995
71.78000 -0.394
71.80000 -0.471
71.82000 -2.207
71.84000 -0.172
71.86000 -1.686
71.88000 1.036
71.90000 3.718
71.92000 4.230
71.94000 3.946
71.96000 1.730
71.98000 2.250
72.00000 3.062
72.02000 5.330
72.04000 4.906
72.06000 2.206
72.08000 1.848
72.10000 2.179
72.12000 2.849
72.14000 1.749
72.16000 2.457
72.18000 2.265
72.20000 1.437
72.22000 1.156
72.24000 1.559
72.26000 1.082
72.28000 -2.175
72.30000 2.960
72.32000 4.699
72.34000 5.081
72.36000 4.209
72.38000 1.050
72.40000 0.300
72.42000 1.067
72.44000 4.108
72.46000 4.495
72.48000 4.177
72.50000 5.206
72.52000 1.562
72.54000 5.110
72.56000 7.185
72.58000 2.784
72.60000 4.944
72.62000 3.396
72.64000 2.121
72.66000 1.320
72.68000 3.295
72.70000 2.018
72.72000 -0.759
72.74000 -1.076
72.76000 2.092
72.78000 2.367
72.80000 1.424
72.82000 1.984
72.84000 -0.037
72.86000 1.772
72.88000 4.988
72.90000 3.368
72.92000 7.350
72.94000 5.784
72.96000 3.726
72.98000 3.440
73.00000 4.750
73.02000 0.880
73.04000 0.267
73.06000 3.381
73.08000 3.510
73.10000 -0.649
73.12000 -0.561
73.14000 -0.293
73.16000 -0.731
73.18000 -2.140
73.20000 2.574
73.22000 5.890
73.24000 6.625
73.26000 4.081
73.28000 5.031
73.30000 5.211
73.32000 4.430
73.34000 2.752
73.36000 3.582
73.38000 4.907
73.40000 3.802
73.42000 3.042
73.44000 1.769
73.46000 0.280
73.48000 2.710
73.50000 -0.872
73.52000 -0.520
73.54000 2.161
73.56000 6.111
73.58000 5.106
73.60000 4.143
73.62000 1.842
73.64000 3.114
73.66000 0.003
73.68000 3.254
73.70000 5.410
73.72000 5.752
73.74000 4.387
73.76000 2.932
73.78000 3.455
73.80000 5.083
73.82000 4.465
73.84000 -2.128
73.86000 0.139
73.88000 4.607
73.90000 8.099
73.92000 3.396
73.94000 6.149
73.96000 6.414
73.98000 3.550
74.00000 7.288
74.02000 5.427
74.04000 1.706
74.06000 -1.443
74.08000 0.034
74.10000 -0.953
74.12000 3.484
74.14000 0.712
74.16000 -1.444
74.18000 3.806
74.20000 2.118
74.22000 2.007
74.24000 2.778
74.26000 3.400
74.28000 1.243
74.30000 4.194
74.32000 2.978
74.34000 2.819
74.36000 5.421
74.38000 3.424
74.40000 1.760
74.42000 -0.006
74.44000 -0.277
74.46000 -2.151
74.48000 2.605
74.50000 4.158
74.52000 2.415
74.54000 3.113
74.56000 4.980
74.58000 5.139
74.60000 3.860
74.62000 2.743
74.64000 2.928
74.66000 7.239
74.68000 3.638
74.70000 2.950
74.72000 -0.436
74.74000 1.942
74.76000 4.074
74.78000 3.765
74.80000 6.048
74.82000 4.383
74.84000 1.692
74.86000 -0.250
74.88000 0.798
74.90000 1.103
74.92000 0.137
74.94000 3.582
74.96000 3.732
74.98000 -0.103
75.00000 2.089
75.02000 5.420
75.04000 4.451
75.06000 0.840
75.08000 -1.248
75.10000 0.013
75.12000 2.230
75.14000 0.712
75.16000 -0.184
75.18000 1.172
75.20000 3.474
75.22000 1.057
75.24000 1.969
75.26000 1.510
75.28000 1.075
75.30000 1.369
75.32000 3.943
75.34000 2.670
75.36000 1.901
75.38000 4.201
75.40000 2.500
75.42000 2.891
75.44000 6.485
75.46000 5.603
75.48000 0.169
75.50000 -2.149
75.52000 1.668
75.54000 -1.996
75.56000 -2.148
75.58000 3.285
75.60000 4.673
75.62000 1.551
75.64000 0.942
75.66000 3.855
75.68000 6.798
75.70000 4.326
75.72000 3.420
75.74000 5.427
75.76000 -0.987
75.78000 -0.989
75.80000 0.945
75.82000 1.354
75.84000 1.393
75.86000 2.311
75.88000 3.614
75.90000 0.972
75.92000 3.478
75.94000 1.613
75.96000 1.433
75.98000 -0.944
76.00000 -0.289
76.02000 2.260
76.04000 3.178
76.06000 3.875
76.08000 5.900
76.10000 4.356
76.12000 4.762
76.14000 3.008
76.16000 5.233
76.18000 4.894
76.20000 3.361
76.22000 2.392
76.24000 6.245
76.26000 3.119
76.28000 0.982
76.30000 -0.503
76.32000 -1.734
76.34000 -2.179
76.36000 -0.050
76.38000 -1.178
76.40000 -1.267
76.42000 -0.964
76.44000 4.346
76.46000 5.359
76.48000 4.916
76.50000 5.580
76.52000 2.219
76.54000 1.093
76.56000 -2.178
76.58000 2.428
76.60000 4.979
76.62000 1.499
76.64000 3.665
76.66000 0.976
76.68000 3.751
76.70000 -0.495
76.72000 1.980
76.74000 1.929
76.76000 2.472
76.78000 2.167
76.80000 3.639
76.82000 0.920
76.84000 3.197
76.86000 4.106
76.88000 4.541
76.90000 2.008
76.92000 0.587
76.94000 0.987
76.96000 -0.978
76.98000 -1.025
77.00000 3.667
77.02000 4.640
77.04000 3.125
77.06000 3.244
77.08000 2.097
77.10000 2.295
77.12000 3.425
77.14000 1.320
77.16000 2.218
77.18000 3.780
77.20000 3.425
77.22000 1.940
77.24000 0.761
77.26000 1.447
77.28000 3.483
77.30000 4.208
77.32000 2.807
77.34000 1.844
77.36000 1.729
77.38000 0.540
77.40000 2.464
77.42000 2.339
77.44000 1.277
77.46000 2.810
77.48000 7.637
77.50000 2.228
77.52000 -0.955
77.54000 4.131
77.56000 7.278
77.58000 0.675
77.60000 -2.189
77.62000 1.362
77.64000 6.289
77.66000 7.526
77.68000 9.200
77.70000 6.582
77.72000 6.362
77.74000 5.647
77.76000 4.244
77.78000 4.536
77.80000 1.740
77.82000 8.934
77.84000 7.527
77.86000 4.298
77.88000 2.479
77.90000 4.037
77.92000 2.618
77.94000 -2.177
77.96000 0.011
77.98000 -0.003
78.00000 -0.198
78.02000 1.790
78.04000 2.275
78.06000 6.321
78.08000 2.107
78.10000 2.039
78.12000 3.674
78.14000 3.926
78.16000 7.244
78.18000 8.828
78.20000 10.194
78.22000 7.103
78.24000 8.788
78.26000 7.347
78.28000 3.631
78.30000 1.935
78.32000 4.683
78.34000 8.121
78.36000 4.668
78.38000 5.990
78.40000 4.823
78.42000 6.421
78.44000 3.656
78.46000 3.195
78.48000 6.704
78.50000 6.817
78.52000 4.867
78.54000 7.754
78.56000 2.226
78.58000 3.441
78.60000 6.200
78.62000 8.087
78.64000 8.720
78.66000 8.196
78.68000 7.520
78.70000 0.665
78.72000 -2.201
78.74000 0.442
78.76000 2.903
78.78000 4.196
78.80000 7.220
78.82000 3.901
78.84000 0.888
78.86000 1.726
78.88000 5.133
78.90000 2.173
78.92000 2.539
78.94000 6.103
78.96000 6.320
78.98000 5.000
79.00000 2.737
79.02000 2.841
79.04000 0.865
79.06000 4.772
79.08000 5.140
79.10000 6.553
79.12000 2.247
79.14000 -0.455
79.16000 -1.689
79.18000 1.329
79.20000 3.409
79.22000 3.248
79.24000 3.562
79.26000 2.300
79.28000 0.922
79.30000 -1.758
79.32000 -1.791
79.34000 1.371
79.36000 1.014
79.38000 1.724
79.40000 5.570
79.42000 3.184
79.44000 4.177
79.46000 3.685
79.48000 0.400
79.50000 2.322
79.52000 2.391
79.54000 0.420
79.56000 -0.521
79.58000 -2.324
79.60000 -1.913
79.62000 -1.145
79.64000 0.590
79.66000 2.585
79.68000 0.128
79.70000 1.005
79.72000 3.160
79.74000 0.737
79.76000 -0.510
79.78000 -0.741
79.80000 0.154
79.82000 -1.960
79.84000 -0.610
79.86000 1.225
79.88000 -0.200
79.90000 0.836
79.92000 -0.735
79.94000 3.528
79.96000 2.165
79.98000 -0.027
80.00000 -2.364
80.02000 0.282
80.04000 3.951
80.06000 3.137
80.08000 5.273
80.10000 5.964
80.12000 4.754
80.14000 2.017
80.16000 4.592
80.18000 3.347
80.20000 4.018
80.22000 5.568
80.24000 3.614
80.26000 5.107
80.28000 1.792
80.30000 4.263
80.32000 5.796
80.34000 9.285
80.36000 9.812
80.38000 10.390
80.40000 7.796
80.42000 2.068
80.44000 6.890
80.46000 7.112
80.48000 5.614
80.50000 7.586
80.52000 5.344
80.54000 7.212
80.56000 8.897
80.58000 10.752
80.60000 6.111
80.62000 5.721
80.64000 6.061
80.66000 8.984
80.68000 7.470
80.70000 8.836
80.72000 13.546
80.74000 13.648
80.76000 16.801
80.78000 15.367
80.80000 13.763
80.82000 9.279
80.84000 13.669
80.86000 19.123
80.88000 12.690
80.90000 11.791
80.92000 10.331
80.94000 12.754
80.96000 14.521
80.98000 14.448
81.00000 14.084
81.02000 14.522
81.04000 17.963
81.06000 14.789
81.08000 14.242
81.10000 14.061
81.12000 10.972
81.14000 14.971
81.16000 15.134
81.18000 13.007
81.20000 16.298
81.22000 17.892
81.24000 16.314
81.26000 19.784
81.28000 17.821
81.30000 21.463
81.32000 24.796
81.34000 24.226
81.36000 30.759
81.38000 26.389
81.40000 25.017
81.42000 25.026
81.44000 26.475
81.46000 21.304
81.48000 20.497
81.50000 23.564
81.52000 25.683
81.54000 24.350
81.56000 20.464
81.58000 22.814
81.60000 23.385
81.62000 25.360
81.64000 24.346
81.66000 19.209
81.68000 18.080
81.70000 18.269
81.72000 18.036
81.74000 20.043
81.76000 21.091
81.78000 21.324
81.80000 14.008
81.82000 17.961
81.84000 18.165
81.86000 24.693
81.88000 19.868
81.90000 20.211
81.92000 21.571
81.94000 19.695
81.96000 17.895
81.98000 12.555
82.00000 13.768
82.02000 13.662
82.04000 12.811
82.06000 17.934
82.08000 15.162
82.10000 13.171
82.12000 11.615
82.14000 13.112
82.16000 16.240
82.18000 13.455
82.20000 14.551
82.22000 12.128
82.24000 11.349
82.26000 13.067
82.28000 15.596
82.30000 14.002
82.32000 13.683
82.34000 13.584
82.36000 8.564
82.38000 9.061
82.40000 7.578
82.42000 9.347
82.44000 7.865
82.46000 8.822
82.48000 6.786
82.50000 5.908
82.52000 5.337
82.54000 3.495
82.56000 10.816
82.58000 7.710
82.60000 4.993
82.62000 6.513
82.64000 2.651
82.66000 0.075
82.68000 3.190
82.70000 1.562
82.72000 2.229
82.74000 1.148
82.76000 3.482
82.78000 2.855
82.80000 3.404
82.82000 5.809
82.84000 7.702
82.86000 4.607
82.88000 -2.173
82.90000 -0.485
82.92000 1.820
82.94000 2.685
82.96000 1.781
82.98000 1.032
83.00000 2.104
83.02000 -2.385
83.04000 1.725
83.06000 0.070
83.08000 -0.908
83.10000 0.961
83.12000 3.148
83.14000 5.248
83.16000 5.478
83.18000 4.830
83.20000 0.843
83.22000 -1.046
83.24000 2.668
83.26000 2.718
83.28000 -0.109
83.30000 1.747
83.32000 1.149
83.34000 -1.002
83.36000 0.156
83.38000 0.244
83.40000 -1.322
83.42000 1.098
83.44000 1.978
83.46000 1.971
83.48000 1.622
83.50000 4.299
83.52000 2.154
83.54000 -2.339
83.56000 -0.105
83.58000 0.508
83.60000 2.321
83.62000 2.679
83.64000 2.297
83.66000 0.257
83.68000 -1.719
83.70000 -0.203
83.72000 0.611
83.74000 2.859
83.76000 1.376
83.78000 4.818
83.80000 3.429
83.82000 2.174
83.84000 2.473
83.86000 2.381
83.88000 3.448
83.90000 1.941
83.92000 2.080
83.94000 0.572
83.96000 5.096
83.98000 0.812
84.00000 -0.157
84.02000 0.326
84.04000 -2.341
84.06000 -2.137
84.08000 1.323
84.10000 4.927
84.12000 4.584
84.14000 4.522
84.16000 -0.480
84.18000 -0.222
84.20000 0.963
84.22000 2.946
84.24000 5.348
84.26000 3.865
84.28000 1.348
84.30000 0.127
84.32000 -1.453
84.34000 0.672
84.36000 3.541
84.38000 5.302
84.40000 3.139
84.42000 5.489
84.44000 5.385
84.46000 6.044
84.48000 3.014
84.50000 3.313
84.52000 2.941
84.54000 7.911
84.56000 9.644
84.58000 5.885
84.60000 2.055
84.62000 6.527
84.64000 6.648
84.66000 5.954
84.68000 6.966
84.70000 9.024
84.72000 11.301
84.74000 7.928
84.76000 8.622
84.78000 9.656
84.80000 12.861
84.82000 14.838
84.84000 12.240
84.86000 17.204
84.88000 16.795
84.90000 14.640
84.92000 9.315
84.94000 13.837
84.96000 19.883
84.98000 18.859
85.00000 20.515
85.02000 19.316
85.04000 19.919
85.06000 18.366
85.08000 18.014
85.10000 15.331
85.12000 19.991
85.14000 21.698
85.16000 19.369
85.18000 14.739
85.20000 14.353
85.22000 14.440
85.24000 18.277
85.26000 19.829
85.28000 16.512
85.30000 19.151
85.32000 17.825
85.34000 19.224
85.36000 22.060
85.38000 28.725
85.40000 23.818
85.42000 20.703
85.44000 21.343
85.46000 25.826
85.48000 24.438
85.50000 22.141
85.52000 23.256
85.54000 25.752
85.56000 27.099
85.58000 29.729
85.60000 28.386
85.62000 23.600
85.64000 21.902
85.66000 24.155
85.68000 24.317
85.70000 22.797
85.72000 17.266
85.74000 22.130
85.76000 25.765
85.78000 26.949
85.80000 20.814
85.82000 21.981
85.84000 19.370
85.86000 19.526
85.88000 21.849
85.90000 23.167
85.92000 22.928
85.94000 23.173
85.96000 22.232
85.98000 22.266
86.00000 20.695
86.02000 19.715
86.04000 17.735
86.06000 18.967
86.08000 18.935
86.10000 22.861
86.12000 19.297
86.14000 17.638
86.16000 18.110
86.18000 18.292
86.20000 15.930
86.22000 14.516
86.24000 14.923
86.26000 14.763
86.28000 13.083
86.30000 12.960
86.32000 11.323
86.34000 6.822
86.36000 7.945
86.38000 9.013
86.40000 8.178
86.42000 6.673
86.44000 9.309
86.46000 6.495
86.48000 13.315
86.50000 15.222
86.52000 9.471
86.54000 8.275
86.56000 6.048
86.58000 2.931
86.60000 1.620
86.62000 3.337
86.64000 3.457
86.66000 0.929
86.68000 2.003
86.70000 2.512
86.72000 4.350
86.74000 5.750
86.76000 3.931
86.78000 5.480
86.80000 5.252
86.82000 4.168
86.84000 3.671
86.86000 3.378
86.88000 3.824
86.90000 5.302
86.92000 5.114
86.94000 4.845
86.96000 -0.730
86.98000 -2.186
87.00000 2.390
87.02000 4.480
87.04000 2.206
87.06000 3.074
87.08000 1.980
87.10000 -0.257
87.12000 -0.114
87.14000 3.984
87.16000 4.972
87.18000 3.570
87.20000 -1.468
87.22000 -1.478
87.24000 -1.159
87.26000 -0.086
87.28000 2.670
87.30000 3.464
87.32000 2.479
87.34000 0.964
87.36000 0.950
87.38000 0.881
87.40000 0.375
87.42000 3.267
87.44000 -0.090
87.46000 1.177
87.48000 0.108
87.50000 0.511
87.52000 1.225
87.54000 0.841
87.56000 -0.300
87.58000 2.559
87.60000 1.202
87.62000 -0.921
87.64000 3.399
87.66000 8.272
87.68000 4.810
87.70000 0.819
87.72000 0.963
87.74000 5.129
87.76000 3.594
87.78000 1.424
87.80000 3.831
87.82000 3.097
87.84000 1.395
87.86000 -2.041
87.88000 2.341
87.90000 5.005
87.92000 5.459
87.94000 4.813
87.96000 2.393
87.98000 0.789
88.00000 3.521
88.02000 3.203
88.04000 2.417
88.06000 -1.146
88.08000 1.144
88.10000 2.928
88.12000 2.327
88.14000 5.960
88.16000 5.991
88.18000 4.164
88.20000 0.337
88.22000 -2.011
88.24000 0.553
88.26000 2.785
88.28000 5.213
88.30000 5.713
88.32000 2.281
88.34000 4.059
88.36000 4.354
88.38000 2.959
88.40000 1.838
88.42000 -0.723
88.44000 1.908
88.46000 4.230
88.48000 5.734
88.50000 5.866
88.52000 0.831
88.54000 -1.333
88.56000 -0.424
88.58000 5.427
88.60000 2.182
88.62000 4.547
88.64000 3.947
88.66000 0.797
88.68000 2.038
88.70000 5.600
88.72000 3.967
88.74000 4.713
88.76000 4.911
88.78000 3.689
88.80000 3.038
88.82000 1.002
88.84000 0.308
88.86000 2.685
88.88000 1.563
88.90000 3.636
88.92000 0.791
88.94000 3.970
88.96000 3.200
88.98000 1.505
89.00000 4.454
89.02000 4.202
89.04000 2.531
89.06000 6.050
89.08000 4.962
89.10000 2.377
89.12000 3.252
89.14000 2.816
89.16000 1.697
89.18000 2.071
89.20000 2.324
89.22000 5.219
89.24000 6.332
89.26000 8.290
89.28000 2.000
89.30000 -1.981
89.32000 0.239
89.34000 5.644
89.36000 5.449
89.38000 4.585
89.40000 6.716
89.42000 2.101
89.44000 1.953
89.46000 2.530
89.48000 4.421
89.50000 3.813
89.52000 5.454
89.54000 6.112
89.56000 4.644
89.58000 4.417
89.60000 8.192
89.62000 4.718
89.64000 3.247
89.66000 3.431
89.68000 3.539
89.70000 2.270
89.72000 3.242
89.74000 5.586
89.76000 5.466
89.78000 6.508
89.80000 2.781
89.82000 2.942
89.84000 2.294
89.86000 0.000
89.88000 4.189
89.90000 4.329
89.92000 4.753
89.94000 5.296
89.96000 2.924
89.98000 1.580
90.00000 3.118
90.02000 4.890
90.04000 2.453
90.06000 -1.983
90.08000 4.040
90.10000 6.923
90.12000 5.048
90.14000 1.353
90.16000 2.158
90.18000 4.342
90.20000 1.724
90.22000 -0.388
90.24000 5.445
90.26000 2.140
90.28000 0.920
90.30000 3.040
90.32000 2.903
90.34000 4.488
90.36000 5.100
90.38000 7.662
90.40000 5.414
90.42000 4.355
90.44000 3.435
90.46000 3.758
90.48000 4.212
90.50000 -0.157
90.52000 0.077
90.54000 2.015
90.56000 3.658
90.58000 3.537
90.60000 2.575
90.62000 4.387
90.64000 4.973
90.66000 5.476
90.68000 3.493
90.70000 5.690
90.72000 6.971
90.74000 6.002
90.76000 2.494
90.78000 -1.564
90.80000 -2.010
90.82000 2.337
90.84000 3.997
90.86000 3.626
90.88000 0.681
90.90000 1.380
90.92000 -1.524
90.94000 2.718
90.96000 6.144
90.98000 5.419
91.00000 6.909
91.02000 6.840
91.04000 5.123
91.06000 3.770
91.08000 0.498
91.10000 1.488
91.12000 1.292
91.14000 0.706
91.16000 2.054
91.18000 1.546
91.20000 3.760
91.22000 2.789
91.24000 0.947
91.26000 1.837
91.28000 1.456
91.30000 1.698
91.32000 2.329
91.34000 1.896
91.36000 -2.023
91.38000 -0.614
91.40000 3.604
91.42000 5.097
91.44000 0.493
91.46000 -1.193
91.48000 1.064
91.50000 4.026
91.52000 3.673
91.54000 7.472
91.56000 0.990
91.58000 -2.029
91.60000 0.431
91.62000 0.816
91.64000 1.245
91.66000 0.815
91.68000 2.479
91.70000 5.784
91.72000 4.775
91.74000 5.402
91.76000 4.726
91.78000 2.092
91.80000 0.127
91.82000 2.197
91.84000 5.145
91.86000 4.534
91.88000 6.792
91.90000 -0.094
91.92000 -0.054
91.94000 2.583
91.96000 -0.286
91.98000 -0.775
92.00000 2.180
92.02000 1.602
92.04000 2.883
92.06000 3.207
92.08000 3.358
92.10000 2.118
92.12000 -0.219
92.14000 -2.034
92.16000 1.440
92.18000 0.793
92.20000 2.753
92.22000 0.225
92.24000 1.530
92.26000 3.048
92.28000 2.465
92.30000 4.494
92.32000 4.471
92.34000 -0.238
92.36000 -1.680
92.38000 -2.028
92.40000 -0.504
92.42000 1.843
92.44000 2.432
92.46000 6.498
92.48000 5.852
92.50000 3.601
92.52000 1.066
92.54000 -1.011
92.56000 3.646
92.58000 5.530
92.60000 3.566
92.62000 -0.459
92.64000 1.475
92.66000 2.638
92.68000 -0.483
92.70000 -0.098
92.72000 2.023
92.74000 2.286
92.76000 3.541
92.78000 5.896
92.80000 -0.566
92.82000 -0.714
92.84000 6.712
92.86000 5.661
92.88000 6.126
92.90000 2.585
92.92000 -0.836
92.94000 0.966
92.96000 2.627
92.98000 3.311
93.00000 -1.290
93.02000 -2.027
93.04000 4.718
93.06000 4.865
93.08000 5.077
93.10000 4.843
93.12000 6.329
93.14000 4.352
93.16000 1.655
93.18000 9.400
93.20000 6.954
93.22000 5.261
93.24000 1.665
93.26000 6.117
93.28000 4.682
93.30000 4.356
93.32000 5.354
93.34000 4.656
93.36000 3.437
93.38000 4.316
93.40000 3.979
93.42000 5.370
93.44000 8.441
93.46000 3.924
93.48000 3.393
93.50000 5.345
93.52000 8.324
93.54000 3.569
93.56000 5.933
93.58000 2.493
93.60000 1.015
93.62000 0.853
93.64000 6.014
93.66000 3.493
93.68000 3.307
93.70000 3.071
93.72000 5.097
93.74000 2.607
93.76000 5.098
93.78000 5.078
93.80000 2.479
93.82000 6.206
93.84000 1.390
93.86000 1.093
93.88000 -2.014
93.90000 4.155
93.92000 10.496
93.94000 6.205
93.96000 4.169
93.98000 8.528
94.00000 6.480
94.02000 2.261
94.04000 3.760
94.06000 4.669
94.08000 6.341
94.10000 4.528
94.12000 2.543
94.14000 0.272
94.16000 1.032
94.18000 0.482
94.20000 2.985
94.22000 2.233
94.24000 1.286
94.26000 4.679
94.28000 5.922
94.30000 6.656
94.32000 5.124
94.34000 5.447
94.36000 3.377
94.38000 2.012
94.40000 1.855
94.42000 1.225
94.44000 3.217
94.46000 -0.359
94.48000 -1.872
94.50000 -1.136
94.52000 1.971
94.54000 -0.067
94.56000 1.972
94.58000 3.545
94.60000 5.076
94.62000 1.986
94.64000 0.580
94.66000 4.579
94.68000 5.607
94.70000 5.943
94.72000 4.067
94.74000 0.500
94.76000 5.918
94.78000 4.923
94.80000 3.016
94.82000 2.564
94.84000 3.211
94.86000 5.272
94.88000 1.799
94.90000 3.777
94.92000 3.350
94.94000 0.101
94.96000 -1.256
94.98000 -0.234
95.00000 2.038
95.02000 1.326
95.04000 3.691
95.06000 1.575
95.08000 4.076
95.10000 2.429
95.12000 1.808
95.14000 1.144
95.16000 0.059
95.18000 4.620
95.20000 1.005
95.22000 0.593
95.24000 0.273
95.26000 -2.086
95.28000 -1.138
95.30000 1.884
95.32000 3.953
95.34000 -0.187
95.36000 2.207
95.38000 3.981
95.40000 3.232
95.42000 1.009
95.44000 2.257
95.46000 3.691
95.48000 -0.258
95.50000 -0.782
95.52000 2.515
95.54000 0.843
95.56000 0.753
95.58000 -0.341
95.60000 -1.592
95.62000 2.187
95.64000 0.758
95.66000 -0.552
95.68000 -0.024
95.70000 5.943
95.72000 11.962
95.74000 2.269
95.76000 0.110
95.78000 -0.579
95.80000 1.571
95.82000 2.243
95.84000 3.628
95.86000 3.557
95.88000 3.443
95.90000 0.689
95.92000 3.201
95.94000 6.149
95.96000 2.023
95.98000 0.740
96.00000 2.416
96.02000 1.131
96.04000 3.873
96.06000 9.434
96.08000 2.111
96.10000 5.634
96.12000 5.448
96.14000 2.719
96.16000 2.960
96.18000 3.198
96.20000 7.671
96.22000 4.447
96.24000 -2.035
96.26000 1.485
96.28000 4.552
96.30000 8.638
96.32000 6.279
96.34000 4.014
96.36000 5.697
96.38000 4.312
96.40000 1.506
96.42000 4.320
96.44000 5.664
96.46000 0.962
96.48000 2.543
96.50000 1.830
96.52000 7.906
96.54000 5.456
96.56000 4.813
96.58000 4.314
96.60000 1.565
96.62000 0.287
96.64000 -0.536
96.66000 1.247
96.68000 4.031
96.70000 2.231
96.72000 3.028
96.74000 6.862
96.76000 3.856
96.78000 3.713
96.80000 6.792
96.82000 6.276
96.84000 2.687
96.86000 2.929
96.88000 5.562
96.90000 4.552
96.92000 1.801
96.94000 8.954
96.96000 7.707
96.98000 6.997
97.00000 8.736
97.02000 5.410
97.04000 3.197
97.06000 4.423
97.08000 5.459
97.10000 8.013
97.12000 8.138
97.14000 5.107
97.16000 4.843
97.18000 6.618
97.20000 2.401
97.22000 0.691
97.24000 3.430
97.26000 10.423
97.28000 11.176
97.30000 6.584
97.32000 0.213
97.34000 -0.613
97.36000 -2.017
97.38000 1.225
97.40000 2.584
97.42000 3.129
97.44000 0.800
97.46000 -0.814
97.48000 3.804
97.50000 1.622
97.52000 1.564
97.54000 2.374
97.56000 2.882
97.58000 5.243
97.60000 3.788
97.62000 5.770
97.64000 2.404
97.66000 6.820
97.68000 6.898
97.70000 7.865
97.72000 7.816
97.74000 8.904
97.76000 4.616
97.78000 3.364
97.80000 8.840
97.82000 7.088
97.84000 3.500
97.86000 5.838
97.88000 4.507
97.90000 6.310
97.92000 -1.196
97.94000 -2.002
97.96000 6.663
97.98000 10.916
98.00000 7.455
98.02000 4.461
98.04000 3.044
98.06000 5.537
98.08000 13.134
98.10000 9.045
98.12000 3.893
98.14000 1.141
98.16000 5.196
98.18000 8.113
98.20000 10.766
98.22000 3.157
98.24000 1.924
98.26000 0.060
98.28000 6.134
98.30000 6.494
98.32000 7.321
98.34000 7.446
98.36000 8.735
98.38000 12.054
98.40000 2.816
98.42000 6.805
98.44000 10.919
98.46000 11.030
98.48000 11.549
98.50000 11.121
98.52000 9.829
98.54000 2.516
98.56000 3.390
98.58000 5.655
98.60000 2.575
98.62000 7.728
98.64000 10.289
98.66000 3.164
98.68000 7.451
98.70000 8.665
98.72000 17.172
98.74000 16.504
98.76000 5.859
98.78000 -0.448
98.80000 2.318
98.82000 -0.718
98.84000 -1.981
98.86000 3.683
98.88000 9.938
98.90000 13.705
98.92000 4.771
98.94000 3.126
98.96000 8.975
98.98000 10.913
99.00000 8.765
99.02000 4.759
99.04000 4.499
99.06000 3.652
99.08000 5.074
99.10000 5.732
99.12000 7.052
99.14000 5.250
99.16000 4.228
99.18000 5.365
99.20000 4.944
99.22000 4.965
99.24000 -1.510
99.26000 4.699
99.28000 6.887
99.30000 1.605
99.32000 0.427
99.34000 7.573
99.36000 8.526
99.38000 5.385
99.40000 4.633
99.42000 4.603
99.44000 14.574
99.46000 8.592
99.48000 9.239
99.50000 14.312
99.52000 15.081
99.54000 5.047
99.56000 -0.094
99.58000 -1.987
99.60000 5.604
99.62000 1.544
99.64000 16.116
99.66000 8.702
99.68000 5.522
99.70000 0.670
99.72000 4.826
99.74000 12.285
99.76000 7.312
99.78000 8.706
99.80000 13.109
99.82000 14.857
99.84000 8.780
99.86000 8.662
99.88000 2.192
99.90000 -0.116
99.92000 -1.989
99.94000 -2.101
99.96000 -2.211
99.98000 0.000
