'Id: "0011387" Comment: "Integrate frame 0011387_Au-Ir-Rh_Rh-rich_XRD-Mapping-158-0000.gfrmwith cursor Wedge Cursor #5" Operator: "B?rgel" Anode: "Cu" Wavelength: "1.5406" Scantype: "2Theta (TwoTheta)" TimePerStep: "1" X: "-40.5" Y: "0" Z: "5.95" 
10.00000 0.000
10.02000 -4.603
10.04000 -2.711
10.06000 0.841
10.08000 5.425
10.10000 9.435
10.12000 18.559
10.14000 9.709
10.16000 14.494
10.18000 18.270
10.20000 17.052
10.22000 9.632
10.24000 24.438
10.26000 31.593
10.28000 29.141
10.30000 13.826
10.32000 -7.349
10.34000 8.250
10.36000 11.418
10.38000 4.438
10.40000 -2.848
10.42000 6.847
10.44000 1.756
10.46000 13.698
10.48000 2.756
10.50000 -4.472
10.52000 12.675
10.54000 13.553
10.56000 15.957
10.58000 8.996
10.60000 10.127
10.62000 10.769
10.64000 17.959
10.66000 12.323
10.68000 5.957
10.70000 15.790
10.72000 26.716
10.74000 23.272
10.76000 18.934
10.78000 12.622
10.80000 17.225
10.82000 23.366
10.84000 12.201
10.86000 14.743
10.88000 16.497
10.90000 26.392
10.92000 22.755
10.94000 9.338
10.96000 7.767
10.98000 2.589
11.00000 8.300
11.02000 9.778
11.04000 6.626
11.06000 12.249
11.08000 17.198
11.10000 20.526
11.12000 14.002
11.14000 19.725
11.16000 9.294
11.18000 7.053
11.20000 14.980
11.22000 24.283
11.24000 24.069
11.26000 10.896
11.28000 41.028
11.30000 33.453
11.32000 8.552
11.34000 6.160
11.36000 9.718
11.38000 25.816
11.40000 13.985
11.42000 3.704
11.44000 14.958
11.46000 15.255
11.48000 12.191
11.50000 9.723
11.52000 17.752
11.54000 14.423
11.56000 4.723
11.58000 17.456
11.60000 12.623
11.62000 12.176
11.64000 3.544
11.66000 5.842
11.68000 16.034
11.70000 10.680
11.72000 4.067
11.74000 3.727
11.76000 1.392
11.78000 1.095
11.80000 5.911
11.82000 3.050
11.84000 14.037
11.86000 15.113
11.88000 8.055
11.90000 4.500
11.92000 12.457
11.94000 6.895
11.96000 10.660
11.98000 12.388
12.00000 9.381
12.02000 17.871
12.04000 17.209
12.06000 9.344
12.08000 1.210
12.10000 -4.483
12.12000 2.565
12.14000 8.907
12.16000 20.586
12.18000 16.454
12.20000 11.071
12.22000 14.631
12.24000 12.418
12.26000 -2.024
12.28000 4.393
12.30000 9.533
12.32000 21.489
12.34000 2.069
12.36000 2.018
12.38000 14.695
12.40000 -1.141
12.42000 4.298
12.44000 3.009
12.46000 11.301
12.48000 22.978
12.50000 14.272
12.52000 9.864
12.54000 8.134
12.56000 17.974
12.58000 14.318
12.60000 1.090
12.62000 9.176
12.64000 8.636
12.66000 8.165
12.68000 13.980
12.70000 1.457
12.72000 -2.267
12.74000 -4.503
12.76000 1.439
12.78000 7.498
12.80000 10.111
12.82000 15.664
12.84000 4.324
12.86000 7.898
12.88000 19.968
12.90000 16.394
12.92000 6.481
12.94000 8.202
12.96000 15.790
12.98000 12.181
13.00000 5.810
13.02000 3.541
13.04000 13.219
13.06000 9.163
13.08000 3.084
13.10000 8.014
13.12000 13.839
13.14000 13.576
13.16000 -0.206
13.18000 4.306
13.20000 8.785
13.22000 6.825
13.24000 11.929
13.26000 5.799
13.28000 12.737
13.30000 13.117
13.32000 6.858
13.34000 -1.848
13.36000 7.831
13.38000 1.332
13.40000 0.525
13.42000 7.924
13.44000 10.774
13.46000 1.639
13.48000 6.421
13.50000 5.144
13.52000 6.940
13.54000 15.034
13.56000 6.842
13.58000 3.777
13.60000 -0.096
13.62000 7.618
13.64000 10.262
13.66000 6.974
13.68000 11.328
13.70000 17.986
13.72000 8.117
13.74000 1.689
13.76000 10.552
13.78000 16.893
13.80000 19.771
13.82000 -0.248
13.84000 -4.499
13.86000 11.289
13.88000 11.056
13.90000 7.912
13.92000 13.958
13.94000 16.239
13.96000 8.871
13.98000 5.359
14.00000 6.791
14.02000 3.864
14.04000 5.289
14.06000 6.319
14.08000 5.292
14.10000 5.128
14.12000 5.283
14.14000 -4.494
14.16000 1.011
14.18000 4.131
14.20000 4.240
14.22000 -3.842
14.24000 7.520
14.26000 11.440
14.28000 -1.072
14.30000 2.364
14.32000 9.080
14.34000 6.355
14.36000 8.677
14.38000 1.490
14.40000 7.008
14.42000 5.396
14.44000 10.410
14.46000 2.326
14.48000 8.947
14.50000 10.344
14.52000 12.602
14.54000 7.508
14.56000 4.981
14.58000 7.827
14.60000 6.209
14.62000 4.865
14.64000 0.379
14.66000 6.583
14.68000 10.174
14.70000 2.738
14.72000 1.054
14.74000 0.488
14.76000 -2.727
14.78000 -3.952
14.80000 1.308
14.82000 2.694
14.84000 0.143
14.86000 10.865
14.88000 9.232
14.90000 9.620
14.92000 11.291
14.94000 5.465
14.96000 4.276
14.98000 4.380
15.00000 10.007
15.02000 6.659
15.04000 6.595
15.06000 3.719
15.08000 2.626
15.10000 1.081
15.12000 8.469
15.14000 13.553
15.16000 13.716
15.18000 5.574
15.20000 5.237
15.22000 6.568
15.24000 11.504
15.26000 5.787
15.28000 -2.065
15.30000 0.637
15.32000 -2.532
15.34000 0.997
15.36000 2.649
15.38000 -0.898
15.40000 2.241
15.42000 6.700
15.44000 9.381
15.46000 9.748
15.48000 13.676
15.50000 14.035
15.52000 -1.110
15.54000 0.000
15.56000 -0.153
15.58000 0.568
15.60000 2.054
15.62000 4.957
15.64000 3.498
15.66000 6.667
15.68000 6.075
15.70000 13.053
15.72000 4.564
15.74000 -0.664
15.76000 7.896
15.78000 17.817
15.80000 6.207
15.82000 1.586
15.84000 0.184
15.86000 5.583
15.88000 4.544
15.90000 8.871
15.92000 13.355
15.94000 19.678
15.96000 15.147
15.98000 3.241
16.00000 1.146
16.02000 -4.401
16.04000 8.165
16.06000 11.751
16.08000 10.297
16.10000 0.064
16.12000 1.774
16.14000 -2.236
16.16000 7.301
16.18000 12.330
16.20000 8.306
16.22000 4.266
16.24000 6.747
16.26000 8.704
16.28000 7.947
16.30000 2.450
16.32000 4.874
16.34000 12.303
16.36000 10.828
16.38000 8.780
16.40000 4.093
16.42000 3.006
16.44000 3.398
16.46000 -1.475
16.48000 3.887
16.50000 12.929
16.52000 15.353
16.54000 6.868
16.56000 1.010
16.58000 6.977
16.60000 9.949
16.62000 3.005
16.64000 4.604
16.66000 7.462
16.68000 12.575
16.70000 2.925
16.72000 -2.710
16.74000 1.968
16.76000 1.759
16.78000 6.006
16.80000 6.904
16.82000 5.451
16.84000 5.110
16.86000 13.447
16.88000 8.415
16.90000 -0.273
16.92000 1.974
16.94000 7.310
16.96000 11.120
16.98000 8.189
17.00000 7.293
17.02000 9.929
17.04000 14.425
17.06000 7.121
17.08000 8.430
17.10000 10.358
17.12000 6.816
17.14000 6.954
17.16000 8.378
17.18000 8.649
17.20000 4.668
17.22000 5.659
17.24000 8.286
17.26000 16.026
17.28000 10.595
17.30000 6.621
17.32000 8.050
17.34000 12.618
17.36000 10.871
17.38000 6.519
17.40000 8.000
17.42000 8.942
17.44000 6.917
17.46000 1.472
17.48000 0.088
17.50000 -4.329
17.52000 0.686
17.54000 5.527
17.56000 6.655
17.58000 7.250
17.60000 4.120
17.62000 5.190
17.64000 4.681
17.66000 13.828
17.68000 7.507
17.70000 6.572
17.72000 5.929
17.74000 6.014
17.76000 5.462
17.78000 1.285
17.80000 0.012
17.82000 3.319
17.84000 7.047
17.86000 3.950
17.88000 5.830
17.90000 5.154
17.92000 6.134
17.94000 6.023
17.96000 1.848
17.98000 1.393
18.00000 5.373
18.02000 -0.335
18.04000 -0.850
18.06000 -0.081
18.08000 2.500
18.10000 9.295
18.12000 4.922
18.14000 2.538
18.16000 -3.304
18.18000 -2.686
18.20000 1.296
18.22000 0.495
18.24000 8.270
18.26000 12.210
18.28000 5.759
18.30000 -0.422
18.32000 -2.501
18.34000 -3.341
18.36000 2.651
18.38000 4.689
18.40000 1.845
18.42000 1.247
18.44000 -1.038
18.46000 4.437
18.48000 2.370
18.50000 7.367
18.52000 3.629
18.54000 -1.176
18.56000 -0.754
18.58000 5.510
18.60000 2.916
18.62000 1.763
18.64000 4.018
18.66000 5.671
18.68000 4.846
18.70000 5.643
18.72000 4.793
18.74000 4.606
18.76000 -0.057
18.78000 5.084
18.80000 6.953
18.82000 9.169
18.84000 5.812
18.86000 10.088
18.88000 10.169
18.90000 6.808
18.92000 3.249
18.94000 5.389
18.96000 2.477
18.98000 2.199
19.00000 3.524
19.02000 -1.818
19.04000 3.278
19.06000 2.482
19.08000 -1.145
19.10000 3.916
19.12000 8.819
19.14000 3.176
19.16000 3.621
19.18000 8.395
19.20000 5.961
19.22000 1.634
19.24000 7.265
19.26000 2.454
19.28000 -4.230
19.30000 4.359
19.32000 0.816
19.34000 -3.995
19.36000 -1.784
19.38000 2.092
19.40000 5.670
19.42000 8.431
19.44000 1.758
19.46000 0.898
19.48000 1.382
19.50000 -2.474
19.52000 2.846
19.54000 7.418
19.56000 11.346
19.58000 7.854
19.60000 0.958
19.62000 6.200
19.64000 6.953
19.66000 16.984
19.68000 14.446
19.70000 8.929
19.72000 6.092
19.74000 2.511
19.76000 8.454
19.78000 6.997
19.80000 9.552
19.82000 0.089
19.84000 1.076
19.86000 9.979
19.88000 11.057
19.90000 4.604
19.92000 10.167
19.94000 11.364
19.96000 7.615
19.98000 9.357
20.00000 5.737
20.02000 3.413
20.04000 1.541
20.06000 1.214
20.08000 6.809
20.10000 5.853
20.12000 9.790
20.14000 6.857
20.16000 -1.386
20.18000 1.043
20.20000 4.887
20.22000 -4.192
20.24000 1.761
20.26000 9.196
20.28000 9.455
20.30000 5.559
20.32000 2.131
20.34000 3.932
20.36000 2.777
20.38000 0.972
20.40000 0.955
20.42000 2.955
20.44000 8.077
20.46000 8.370
20.48000 6.369
20.50000 -0.481
20.52000 10.462
20.54000 13.138
20.56000 9.080
20.58000 6.128
20.60000 0.735
20.62000 4.347
20.64000 4.729
20.66000 3.735
20.68000 8.224
20.70000 10.213
20.72000 8.128
20.74000 15.183
20.76000 7.899
20.78000 0.306
20.80000 -0.655
20.82000 2.584
20.84000 6.634
20.86000 6.135
20.88000 4.150
20.90000 1.810
20.92000 5.941
20.94000 2.950
20.96000 5.851
20.98000 9.345
21.00000 8.496
21.02000 9.442
21.04000 10.835
21.06000 5.237
21.08000 7.631
21.10000 12.547
21.12000 8.353
21.14000 8.852
21.16000 9.895
21.18000 3.593
21.20000 7.069
21.22000 0.827
21.24000 -0.479
21.26000 -0.645
21.28000 2.530
21.30000 10.217
21.32000 14.384
21.34000 4.119
21.36000 -0.259
21.38000 2.075
21.40000 2.408
21.42000 0.564
21.44000 -4.118
21.46000 7.489
21.48000 4.771
21.50000 5.895
21.52000 6.341
21.54000 5.764
21.56000 2.463
21.58000 -1.935
21.60000 -4.109
21.62000 -3.962
21.64000 -1.161
21.66000 5.221
21.68000 6.243
21.70000 4.551
21.72000 8.846
21.74000 10.874
21.76000 8.231
21.78000 10.397
21.80000 8.831
21.82000 3.706
21.84000 8.897
21.86000 11.250
21.88000 8.283
21.90000 8.421
21.92000 0.338
21.94000 3.679
21.96000 4.289
21.98000 5.722
22.00000 6.108
22.02000 3.967
22.04000 -0.059
22.06000 6.178
22.08000 8.000
22.10000 5.183
22.12000 5.289
22.14000 0.985
22.16000 1.337
22.18000 -0.464
22.20000 2.497
22.22000 -0.058
22.24000 8.714
22.26000 11.187
22.28000 4.984
22.30000 5.597
22.32000 1.430
22.34000 1.280
22.36000 0.795
22.38000 -0.932
22.40000 7.670
22.42000 6.227
22.44000 4.381
22.46000 2.702
22.48000 5.286
22.50000 1.598
22.52000 2.265
22.54000 -0.675
22.56000 3.829
22.58000 6.852
22.60000 8.396
22.62000 6.935
22.64000 4.556
22.66000 11.241
22.68000 4.219
22.70000 -0.958
22.72000 5.075
22.74000 2.317
22.76000 1.533
22.78000 3.875
22.80000 3.127
22.82000 8.897
22.84000 8.483
22.86000 4.742
22.88000 5.565
22.90000 2.811
22.92000 2.673
22.94000 7.328
22.96000 11.419
22.98000 5.593
23.00000 10.198
23.02000 4.562
23.04000 0.871
23.06000 -0.337
23.08000 -4.020
23.10000 5.944
23.12000 9.311
23.14000 5.641
23.16000 6.294
23.18000 -3.463
23.20000 1.557
23.22000 0.779
23.24000 2.758
23.26000 2.004
23.28000 7.096
23.30000 1.958
23.32000 4.365
23.34000 3.036
23.36000 -1.738
23.38000 1.038
23.40000 2.502
23.42000 7.479
23.44000 6.047
23.46000 5.261
23.48000 10.620
23.50000 6.678
23.52000 9.167
23.54000 5.121
23.56000 -1.051
23.58000 -0.113
23.60000 6.851
23.62000 7.531
23.64000 6.284
23.66000 3.133
23.68000 11.232
23.70000 5.383
23.72000 9.211
23.74000 9.946
23.76000 3.852
23.78000 3.289
23.80000 8.161
23.82000 9.879
23.84000 7.359
23.86000 4.075
23.88000 8.243
23.90000 8.105
23.92000 10.806
23.94000 6.374
23.96000 7.223
23.98000 8.353
24.00000 0.033
24.02000 4.313
24.04000 3.994
24.06000 6.684
24.08000 12.188
24.10000 9.671
24.12000 3.461
24.14000 4.692
24.16000 6.811
24.18000 2.934
24.20000 4.105
24.22000 4.509
24.24000 -0.780
24.26000 -3.191
24.28000 0.894
24.30000 4.596
24.32000 4.670
24.34000 4.465
24.36000 5.357
24.38000 9.195
24.40000 9.646
24.42000 12.714
24.44000 11.565
24.46000 6.883
24.48000 4.328
24.50000 2.294
24.52000 1.129
24.54000 7.913
24.56000 2.428
24.58000 3.909
24.60000 8.869
24.62000 2.547
24.64000 6.246
24.66000 5.233
24.68000 4.238
24.70000 3.225
24.72000 7.082
24.74000 13.228
24.76000 11.556
24.78000 3.979
24.80000 -3.875
24.82000 4.408
24.84000 7.769
24.86000 10.713
24.88000 14.052
24.90000 15.637
24.92000 12.442
24.94000 10.679
24.96000 9.659
24.98000 12.309
25.00000 10.591
25.02000 4.697
25.04000 9.195
25.06000 9.652
25.08000 9.922
25.10000 7.441
25.12000 3.504
25.14000 5.026
25.16000 4.464
25.18000 -0.704
25.20000 8.662
25.22000 12.264
25.24000 4.762
25.26000 5.564
25.28000 4.394
25.30000 2.016
25.32000 -0.751
25.34000 4.631
25.36000 7.677
25.38000 3.491
25.40000 5.974
25.42000 2.856
25.44000 2.320
25.46000 6.559
25.48000 4.955
25.50000 8.208
25.52000 10.096
25.54000 4.778
25.56000 4.244
25.58000 11.580
25.60000 3.057
25.62000 0.999
25.64000 1.556
25.66000 4.266
25.68000 7.738
25.70000 2.794
25.72000 5.614
25.74000 3.514
25.76000 -1.210
25.78000 1.419
25.80000 2.286
25.82000 -1.973
25.84000 -1.882
25.86000 5.772
25.88000 8.858
25.90000 8.159
25.92000 4.077
25.94000 4.500
25.96000 6.192
25.98000 8.467
26.00000 5.239
26.02000 3.431
26.04000 2.119
26.06000 5.784
26.08000 7.241
26.10000 10.247
26.12000 3.393
26.14000 4.313
26.16000 2.919
26.18000 0.963
26.20000 -3.205
26.22000 -1.920
26.24000 6.167
26.26000 2.555
26.28000 2.299
26.30000 5.315
26.32000 8.882
26.34000 3.107
26.36000 0.296
26.38000 1.781
26.40000 7.968
26.42000 9.334
26.44000 4.881
26.46000 -3.656
26.48000 1.577
26.50000 3.226
26.52000 5.372
26.54000 7.746
26.56000 10.543
26.58000 3.543
26.60000 2.177
26.62000 0.475
26.64000 3.867
26.66000 2.939
26.68000 5.442
26.70000 3.369
26.72000 -3.832
26.74000 4.747
26.76000 3.640
26.78000 1.161
26.80000 2.730
26.82000 -0.600
26.84000 3.077
26.86000 4.527
26.88000 6.536
26.90000 5.482
26.92000 -2.478
26.94000 -0.386
26.96000 -1.550
26.98000 2.439
27.00000 1.484
27.02000 4.739
27.04000 10.329
27.06000 1.358
27.08000 -3.806
27.10000 2.951
27.12000 3.995
27.14000 -0.256
27.16000 0.095
27.18000 -0.161
27.20000 -3.802
27.22000 2.866
27.24000 7.814
27.26000 3.319
27.28000 4.829
27.30000 9.473
27.32000 5.653
27.34000 1.856
27.36000 0.805
27.38000 -0.780
27.40000 1.754
27.42000 8.271
27.44000 2.559
27.46000 0.320
27.48000 1.530
27.50000 5.956
27.52000 8.198
27.54000 7.697
27.56000 -1.513
27.58000 3.623
27.60000 0.415
27.62000 0.179
27.64000 -0.918
27.66000 -1.119
27.68000 -0.859
27.70000 1.412
27.72000 3.258
27.74000 2.159
27.76000 3.039
27.78000 5.594
27.80000 2.303
27.82000 5.365
27.84000 6.210
27.86000 3.130
27.88000 -0.501
27.90000 -2.625
27.92000 1.753
27.94000 5.545
27.96000 5.880
27.98000 4.198
28.00000 4.015
28.02000 5.428
28.04000 1.000
28.06000 6.574
28.08000 9.762
28.10000 6.408
28.12000 6.524
28.14000 0.792
28.16000 -1.547
28.18000 4.390
28.20000 11.394
28.22000 6.599
28.24000 7.021
28.26000 6.870
28.28000 1.567
28.30000 4.097
28.32000 7.414
28.34000 4.377
28.36000 2.541
28.38000 1.865
28.40000 6.484
28.42000 8.259
28.44000 12.613
28.46000 12.032
28.48000 3.019
28.50000 -2.480
28.52000 -3.702
28.54000 2.757
28.56000 4.934
28.58000 3.483
28.60000 2.744
28.62000 2.569
28.64000 5.938
28.66000 4.978
28.68000 4.295
28.70000 5.651
28.72000 6.310
28.74000 7.042
28.76000 12.141
28.78000 6.121
28.80000 0.014
28.82000 0.967
28.84000 0.360
28.86000 0.817
28.88000 5.986
28.90000 4.352
28.92000 5.531
28.94000 7.981
28.96000 3.910
28.98000 3.922
29.00000 9.145
29.02000 9.171
29.04000 3.465
29.06000 3.672
29.08000 5.434
29.10000 8.385
29.12000 7.440
29.14000 3.791
29.16000 4.274
29.18000 6.530
29.20000 5.983
29.22000 0.324
29.24000 1.208
29.26000 6.090
29.28000 -1.148
29.30000 2.007
29.32000 7.382
29.34000 9.302
29.36000 3.527
29.38000 -0.325
29.40000 3.203
29.42000 6.157
29.44000 4.072
29.46000 2.389
29.48000 1.238
29.50000 5.035
29.52000 5.026
29.54000 1.765
29.56000 3.567
29.58000 4.063
29.60000 2.361
29.62000 -0.714
29.64000 -1.429
29.66000 3.136
29.68000 0.513
29.70000 2.913
29.72000 4.453
29.74000 3.848
29.76000 6.443
29.78000 8.099
29.80000 7.667
29.82000 5.296
29.84000 12.299
29.86000 10.956
29.88000 10.793
29.90000 5.971
29.92000 1.208
29.94000 3.483
29.96000 4.108
29.98000 5.305
30.00000 3.920
30.02000 4.743
30.04000 8.281
30.06000 10.119
30.08000 6.606
30.10000 2.424
30.12000 2.037
30.14000 -3.628
30.16000 -1.258
30.18000 -0.107
30.20000 -0.084
30.22000 1.839
30.24000 0.238
30.26000 3.338
30.28000 5.549
30.30000 5.268
30.32000 5.834
30.34000 6.710
30.36000 4.961
30.38000 9.027
30.40000 7.017
30.42000 6.992
30.44000 6.521
30.46000 2.522
30.48000 6.110
30.50000 6.764
30.52000 1.279
30.54000 1.004
30.56000 4.681
30.58000 2.508
30.60000 3.405
30.62000 -2.254
30.64000 -0.307
30.66000 -3.533
30.68000 1.420
30.70000 4.447
30.72000 5.929
30.74000 1.802
30.76000 1.452
30.78000 4.936
30.80000 3.527
30.82000 2.580
30.84000 0.792
30.86000 -1.543
30.88000 -3.622
30.90000 2.568
30.92000 1.994
30.94000 8.445
30.96000 6.367
30.98000 7.173
31.00000 3.778
31.02000 4.559
31.04000 1.547
31.06000 2.115
31.08000 2.519
31.10000 -0.465
31.12000 0.843
31.14000 -1.673
31.16000 -0.767
31.18000 4.299
31.20000 1.257
31.22000 -3.612
31.24000 -2.039
31.26000 1.879
31.28000 4.367
31.30000 4.139
31.32000 -0.012
31.34000 -2.317
31.36000 -3.051
31.38000 1.652
31.40000 4.561
31.42000 -0.425
31.44000 2.863
31.46000 6.187
31.48000 7.573
31.50000 4.217
31.52000 -2.336
31.54000 -0.201
31.56000 0.367
31.58000 -1.545
31.60000 -3.425
31.62000 -0.016
31.64000 2.271
31.66000 2.804
31.68000 3.281
31.70000 4.369
31.72000 2.356
31.74000 -3.373
31.76000 -2.451
31.78000 -0.747
31.80000 -0.003
31.82000 2.660
31.84000 4.545
31.86000 4.964
31.88000 2.053
31.90000 -1.320
31.92000 0.628
31.94000 5.670
31.96000 0.334
31.98000 -0.668
32.00000 5.384
32.02000 4.617
32.04000 -1.978
32.06000 -1.314
32.08000 2.329
32.10000 3.137
32.12000 -0.160
32.14000 -1.019
32.16000 1.799
32.18000 4.347
32.20000 -0.009
32.22000 0.863
32.24000 -2.838
32.26000 1.637
32.28000 2.608
32.30000 0.646
32.32000 -2.609
32.34000 -0.029
32.36000 1.925
32.38000 4.052
32.40000 4.219
32.42000 1.205
32.44000 2.639
32.46000 4.909
32.48000 4.065
32.50000 3.243
32.52000 2.292
32.54000 0.979
32.56000 -3.561
32.58000 -2.904
32.60000 1.806
32.62000 4.800
32.64000 5.744
32.66000 4.615
32.68000 3.918
32.70000 6.504
32.72000 5.790
32.74000 3.170
32.76000 2.234
32.78000 0.358
32.80000 0.661
32.82000 -1.229
32.84000 -3.540
32.86000 5.418
32.88000 5.215
32.90000 6.964
32.92000 1.974
32.94000 -1.887
32.96000 -1.763
32.98000 0.368
33.00000 6.097
33.02000 5.974
33.04000 3.991
33.06000 6.595
33.08000 0.054
33.10000 -1.437
33.12000 1.410
33.14000 0.106
33.16000 -0.954
33.18000 0.799
33.20000 0.872
33.22000 3.073
33.24000 2.901
33.26000 0.780
33.28000 0.689
33.30000 4.798
33.32000 3.972
33.34000 -0.376
33.36000 1.460
33.38000 -0.078
33.40000 -3.544
33.42000 -0.729
33.44000 3.432
33.46000 2.335
33.48000 1.401
33.50000 -0.085
33.52000 5.586
33.54000 7.196
33.56000 4.964
33.58000 1.729
33.60000 4.127
33.62000 2.999
33.64000 -1.284
33.66000 4.667
33.68000 3.228
33.70000 3.032
33.72000 4.928
33.74000 3.983
33.76000 -0.864
33.78000 -1.238
33.80000 -0.693
33.82000 1.735
33.84000 1.870
33.86000 -0.008
33.88000 0.475
33.90000 -1.514
33.92000 2.284
33.94000 4.142
33.96000 4.969
33.98000 3.921
34.00000 7.950
34.02000 3.917
34.04000 0.260
34.06000 6.356
34.08000 3.642
34.10000 4.938
34.12000 5.485
34.14000 2.088
34.16000 4.438
34.18000 0.962
34.20000 0.308
34.22000 -2.967
34.24000 -2.683
34.26000 0.195
34.28000 -1.100
34.30000 3.284
34.32000 3.868
34.34000 6.082
34.36000 5.520
34.38000 1.468
34.40000 0.610
34.42000 -0.398
34.44000 0.454
34.46000 -3.526
34.48000 2.043
34.50000 0.455
34.52000 0.439
34.54000 1.801
34.56000 3.933
34.58000 3.730
34.60000 1.285
34.62000 -0.601
34.64000 -2.243
34.66000 4.689
34.68000 2.000
34.70000 -0.710
34.72000 0.796
34.74000 5.241
34.76000 3.876
34.78000 0.532
34.80000 -1.461
34.82000 -0.491
34.84000 0.716
34.86000 3.455
34.88000 -1.070
34.90000 0.953
34.92000 3.178
34.94000 1.492
34.96000 7.808
34.98000 4.686
35.00000 2.960
35.02000 7.135
35.04000 0.916
35.06000 -2.547
35.08000 -0.784
35.10000 3.116
35.12000 2.909
35.14000 5.045
35.16000 7.204
35.18000 5.996
35.20000 6.770
35.22000 7.943
35.24000 3.381
35.26000 2.585
35.28000 -3.032
35.30000 -3.465
35.32000 -0.368
35.34000 3.394
35.36000 4.457
35.38000 1.352
35.40000 2.182
35.42000 -0.440
35.44000 1.435
35.46000 0.345
35.48000 1.642
35.50000 4.704
35.52000 4.711
35.54000 0.893
35.56000 0.950
35.58000 4.332
35.60000 4.600
35.62000 3.508
35.64000 -1.417
35.66000 4.366
35.68000 5.246
35.70000 0.993
35.72000 3.146
35.74000 4.955
35.76000 5.421
35.78000 6.068
35.80000 7.048
35.82000 5.948
35.84000 2.223
35.86000 4.638
35.88000 3.488
35.90000 2.898
35.92000 3.453
35.94000 5.122
35.96000 -1.035
35.98000 -1.251
36.00000 0.968
36.02000 -0.049
36.04000 0.129
36.06000 1.474
36.08000 2.104
36.10000 4.212
36.12000 2.571
36.14000 -1.576
36.16000 -0.556
36.18000 -2.280
36.20000 -1.039
36.22000 0.493
36.24000 2.526
36.26000 4.336
36.28000 4.079
36.30000 0.503
36.32000 -1.082
36.34000 1.895
36.36000 3.820
36.38000 2.125
36.40000 1.589
36.42000 2.991
36.44000 4.154
36.46000 7.681
36.48000 2.252
36.50000 -1.112
36.52000 -0.600
36.54000 -1.883
36.56000 -2.865
36.58000 0.775
36.60000 2.903
36.62000 2.686
36.64000 1.899
36.66000 4.100
36.68000 1.598
36.70000 1.578
36.72000 1.864
36.74000 2.467
36.76000 0.544
36.78000 -0.964
36.80000 0.440
36.82000 5.286
36.84000 5.546
36.86000 2.900
36.88000 1.287
36.90000 7.143
36.92000 6.765
36.94000 3.545
36.96000 3.616
36.98000 5.370
37.00000 6.688
37.02000 3.021
37.04000 -3.501
37.06000 9.353
37.08000 10.051
37.10000 11.538
37.12000 4.292
37.14000 -1.905
37.16000 2.601
37.18000 3.771
37.20000 -0.040
37.22000 1.980
37.24000 1.516
37.26000 4.683
37.28000 7.197
37.30000 4.480
37.32000 4.971
37.34000 4.525
37.36000 4.607
37.38000 5.211
37.40000 1.096
37.42000 2.531
37.44000 2.919
37.46000 6.450
37.48000 2.858
37.50000 -0.844
37.52000 -3.549
37.54000 -1.444
37.56000 4.732
37.58000 6.296
37.60000 6.567
37.62000 6.369
37.64000 6.896
37.66000 4.283
37.68000 -1.556
37.70000 4.673
37.72000 5.130
37.74000 8.847
37.76000 5.960
37.78000 4.055
37.80000 1.790
37.82000 2.214
37.84000 2.098
37.86000 6.198
37.88000 6.824
37.90000 8.396
37.92000 9.480
37.94000 8.558
37.96000 10.138
37.98000 10.114
38.00000 7.199
38.02000 8.817
38.04000 7.896
38.06000 11.626
38.08000 14.874
38.10000 13.595
38.12000 12.075
38.14000 12.000
38.16000 12.462
38.18000 14.128
38.20000 10.433
38.22000 10.879
38.24000 14.780
38.26000 17.503
38.28000 18.622
38.30000 16.412
38.32000 17.889
38.34000 20.385
38.36000 15.469
38.38000 10.453
38.40000 14.557
38.42000 16.779
38.44000 19.971
38.46000 18.768
38.48000 21.400
38.50000 21.492
38.52000 23.893
38.54000 19.710
38.56000 21.423
38.58000 24.211
38.60000 22.552
38.62000 26.326
38.64000 29.232
38.66000 28.720
38.68000 28.619
38.70000 32.109
38.72000 31.786
38.74000 26.707
38.76000 25.842
38.78000 27.131
38.80000 24.185
38.82000 26.530
38.84000 27.232
38.86000 30.450
38.88000 34.777
38.90000 37.271
38.92000 40.314
38.94000 44.527
38.96000 44.735
38.98000 45.433
39.00000 44.207
39.02000 40.297
39.04000 41.379
39.06000 46.234
39.08000 50.077
39.10000 51.433
39.12000 53.498
39.14000 58.935
39.16000 61.499
39.18000 62.098
39.20000 58.837
39.22000 61.884
39.24000 70.373
39.26000 74.912
39.28000 74.217
39.30000 79.207
39.32000 79.086
39.34000 88.165
39.36000 91.487
39.38000 97.002
39.40000 103.629
39.42000 107.631
39.44000 112.655
39.46000 118.285
39.48000 116.092
39.50000 120.032
39.52000 130.158
39.54000 140.977
39.56000 141.727
39.58000 152.142
39.60000 163.146
39.62000 175.524
39.64000 186.459
39.66000 197.823
39.68000 204.262
39.70000 215.686
39.72000 231.003
39.74000 248.404
39.76000 264.072
39.78000 278.901
39.80000 293.577
39.82000 318.200
39.84000 330.494
39.86000 347.589
39.88000 373.284
39.90000 398.321
39.92000 423.783
39.94000 458.187
39.96000 485.574
39.98000 519.068
40.00000 547.221
40.02000 579.500
40.04000 606.028
40.06000 640.773
40.08000 690.831
40.10000 724.509
40.12000 753.999
40.14000 796.800
40.16000 832.574
40.18000 861.986
40.20000 892.162
40.22000 927.801
40.24000 958.000
40.26000 981.010
40.28000 978.428
40.30000 992.128
40.32000 1016.997
40.34000 1020.475
40.36000 1020.836
40.38000 1025.525
40.40000 1028.315
40.42000 1014.487
40.44000 999.312
40.46000 982.595
40.48000 969.501
40.50000 960.505
40.52000 937.826
40.54000 899.089
40.56000 872.483
40.58000 843.207
40.60000 820.588
40.62000 795.286
40.64000 759.058
40.66000 730.920
40.68000 687.770
40.70000 658.942
40.72000 628.519
40.74000 604.169
40.76000 573.856
40.78000 548.177
40.80000 520.386
40.82000 488.775
40.84000 462.388
40.86000 440.764
40.88000 415.888
40.90000 395.124
40.92000 374.663
40.94000 348.232
40.96000 328.834
40.98000 314.243
41.00000 289.162
41.02000 273.754
41.04000 255.721
41.06000 243.816
41.08000 228.778
41.10000 214.412
41.12000 205.482
41.14000 193.025
41.16000 180.666
41.18000 169.979
41.20000 158.857
41.22000 145.065
41.24000 137.474
41.26000 135.879
41.28000 133.984
41.30000 130.819
41.32000 116.984
41.34000 109.136
41.36000 103.499
41.38000 98.404
41.40000 97.242
41.42000 92.216
41.44000 85.089
41.46000 78.953
41.48000 68.367
41.50000 68.066
41.52000 67.012
41.54000 65.091
41.56000 61.485
41.58000 63.264
41.60000 58.607
41.62000 57.687
41.64000 53.540
41.66000 47.331
41.68000 45.573
41.70000 45.961
41.72000 42.635
41.74000 45.796
41.76000 45.895
41.78000 37.417
41.80000 35.845
41.82000 34.367
41.84000 37.028
41.86000 38.726
41.88000 30.959
41.90000 25.410
41.92000 25.284
41.94000 26.684
41.96000 23.588
41.98000 21.306
42.00000 22.230
42.02000 24.590
42.04000 18.637
42.06000 15.684
42.08000 16.938
42.10000 16.657
42.12000 17.351
42.14000 17.030
42.16000 15.513
42.18000 14.748
42.20000 18.906
42.22000 17.356
42.24000 13.300
42.26000 7.420
42.28000 13.139
42.30000 10.942
42.32000 8.309
42.34000 6.949
42.36000 7.809
42.38000 11.875
42.40000 9.172
42.42000 3.418
42.44000 4.545
42.46000 8.010
42.48000 5.334
42.50000 9.559
42.52000 6.678
42.54000 5.287
42.56000 3.224
42.58000 1.340
42.60000 1.031
42.62000 7.678
42.64000 8.850
42.66000 9.118
42.68000 5.622
42.70000 3.357
42.72000 0.378
42.74000 1.001
42.76000 5.297
42.78000 9.049
42.80000 1.327
42.82000 2.679
42.84000 -1.117
42.86000 0.733
42.88000 4.224
42.90000 2.932
42.92000 1.078
42.94000 -0.838
42.96000 2.576
42.98000 2.113
43.00000 -1.410
43.02000 -3.503
43.04000 -1.634
43.06000 1.393
43.08000 -0.948
43.10000 2.922
43.12000 6.469
43.14000 2.855
43.16000 -1.263
43.18000 -2.415
43.20000 -1.689
43.22000 0.588
43.24000 -2.434
43.26000 0.829
43.28000 0.366
43.30000 0.740
43.32000 0.557
43.34000 2.675
43.36000 0.375
43.38000 -0.641
43.40000 -0.872
43.42000 -2.778
43.44000 -3.443
43.46000 3.430
43.48000 5.388
43.50000 3.548
43.52000 2.471
43.54000 0.756
43.56000 -2.512
43.58000 -2.620
43.60000 -3.215
43.62000 -2.392
43.64000 -2.373
43.66000 1.232
43.68000 -0.265
43.70000 -2.073
43.72000 -3.406
43.74000 -1.666
43.76000 1.915
43.78000 1.894
43.80000 0.287
43.82000 -1.102
43.84000 -3.388
43.86000 -1.351
43.88000 2.726
43.90000 -2.204
43.92000 -2.189
43.94000 2.162
43.96000 3.018
43.98000 0.646
44.00000 2.174
44.02000 -2.547
44.04000 -0.762
44.06000 0.727
44.08000 1.986
44.10000 3.189
44.12000 -0.532
44.14000 1.350
44.16000 2.311
44.18000 2.574
44.20000 1.334
44.22000 -1.562
44.24000 -3.345
44.26000 -1.112
44.28000 1.373
44.30000 1.900
44.32000 0.193
44.34000 3.149
44.36000 2.126
44.38000 3.257
44.40000 2.647
44.42000 5.989
44.44000 2.213
44.46000 2.340
44.48000 3.011
44.50000 1.273
44.52000 1.280
44.54000 3.561
44.56000 1.752
44.58000 2.587
44.60000 -3.302
44.62000 -0.497
44.64000 0.805
44.66000 0.709
44.68000 6.946
44.70000 0.551
44.72000 -1.666
44.74000 6.108
44.76000 11.137
44.78000 5.638
44.80000 4.096
44.82000 -2.183
44.84000 -0.354
44.86000 0.783
44.88000 3.029
44.90000 0.945
44.92000 5.207
44.94000 1.799
44.96000 0.282
44.98000 1.441
45.00000 0.552
45.02000 -1.458
45.04000 1.600
45.06000 5.503
45.08000 5.847
45.10000 6.083
45.12000 5.308
45.14000 3.805
45.16000 2.877
45.18000 5.470
45.20000 -0.440
45.22000 1.205
45.24000 4.515
45.26000 6.060
45.28000 8.023
45.30000 5.929
45.32000 5.594
45.34000 3.926
45.36000 1.552
45.38000 3.457
45.40000 9.513
45.42000 5.833
45.44000 4.683
45.46000 7.147
45.48000 11.171
45.50000 9.756
45.52000 8.034
45.54000 8.346
45.56000 9.337
45.58000 11.627
45.60000 12.311
45.62000 11.188
45.64000 16.410
45.66000 16.294
45.68000 14.464
45.70000 18.717
45.72000 19.352
45.74000 16.617
45.76000 17.933
45.78000 16.536
45.80000 16.548
45.82000 21.013
45.84000 19.259
45.86000 19.810
45.88000 20.583
45.90000 24.354
45.92000 24.648
45.94000 34.739
45.96000 29.966
45.98000 30.941
46.00000 31.884
46.02000 37.406
46.04000 39.760
46.06000 38.801
46.08000 39.124
46.10000 39.047
46.12000 36.386
46.14000 38.677
46.16000 38.474
46.18000 46.914
46.20000 51.914
46.22000 53.135
46.24000 54.187
46.26000 64.334
46.28000 65.462
46.30000 68.096
46.32000 74.460
46.34000 73.407
46.36000 75.728
46.38000 80.329
46.40000 81.776
46.42000 84.937
46.44000 87.743
46.46000 86.690
46.48000 92.700
46.50000 102.582
46.52000 107.877
46.54000 113.012
46.56000 115.193
46.58000 115.126
46.60000 118.662
46.62000 127.368
46.64000 133.603
46.66000 137.325
46.68000 144.914
46.70000 152.123
46.72000 158.134
46.74000 159.945
46.76000 165.696
46.78000 174.930
46.80000 172.128
46.82000 171.678
46.84000 180.932
46.86000 190.063
46.88000 192.981
46.90000 195.953
46.92000 191.979
46.94000 197.578
46.96000 194.751
46.98000 198.254
47.00000 194.203
47.02000 196.887
47.04000 194.793
47.06000 196.797
47.08000 189.185
47.10000 183.351
47.12000 180.955
47.14000 185.125
47.16000 184.734
47.18000 177.871
47.20000 169.208
47.22000 159.737
47.24000 155.885
47.26000 149.595
47.28000 148.074
47.30000 141.999
47.32000 137.387
47.34000 135.524
47.36000 129.572
47.38000 121.847
47.40000 110.701
47.42000 110.088
47.44000 108.395
47.46000 98.594
47.48000 92.233
47.50000 87.411
47.52000 83.819
47.54000 81.091
47.56000 72.908
47.58000 68.547
47.60000 72.897
47.62000 68.168
47.64000 63.492
47.66000 61.836
47.68000 55.091
47.70000 50.384
47.72000 51.770
47.74000 47.682
47.76000 43.623
47.78000 36.398
47.80000 38.685
47.82000 38.788
47.84000 34.492
47.86000 32.025
47.88000 31.294
47.90000 23.573
47.92000 27.502
47.94000 25.635
47.96000 22.701
47.98000 24.549
48.00000 23.151
48.02000 17.764
48.04000 16.099
48.06000 17.434
48.08000 16.144
48.10000 12.069
48.12000 10.486
48.14000 9.003
48.16000 10.323
48.18000 11.327
48.20000 10.363
48.22000 9.289
48.24000 7.624
48.26000 12.793
48.28000 10.648
48.30000 5.124
48.32000 3.626
48.34000 2.160
48.36000 3.718
48.38000 5.695
48.40000 9.950
48.42000 9.869
48.44000 3.888
48.46000 -0.446
48.48000 2.628
48.50000 6.512
48.52000 6.575
48.54000 3.903
48.56000 0.020
48.58000 -1.310
48.60000 -1.239
48.62000 0.496
48.64000 1.808
48.66000 2.944
48.68000 3.621
48.70000 6.145
48.72000 1.843
48.74000 1.380
48.76000 1.771
48.78000 -0.689
48.80000 1.299
48.82000 4.007
48.84000 0.983
48.86000 -2.864
48.88000 -1.452
48.90000 2.141
48.92000 4.005
48.94000 5.353
48.96000 7.180
48.98000 7.198
49.00000 8.792
49.02000 0.960
49.04000 -0.726
49.06000 0.475
49.08000 4.660
49.10000 2.152
49.12000 -1.784
49.14000 0.105
49.16000 2.620
49.18000 4.672
49.20000 -0.116
49.22000 -2.797
49.24000 4.163
49.26000 5.459
49.28000 0.754
49.30000 -0.298
49.32000 0.528
49.34000 -1.031
49.36000 1.250
49.38000 3.673
49.40000 -2.667
49.42000 -2.529
49.44000 3.522
49.46000 2.200
49.48000 -1.821
49.50000 2.801
49.52000 4.599
49.54000 2.326
49.56000 0.844
49.58000 0.902
49.60000 2.361
49.62000 1.343
49.64000 5.057
49.66000 1.941
49.68000 -0.121
49.70000 1.412
49.72000 2.099
49.74000 5.454
49.76000 2.250
49.78000 1.464
49.80000 3.423
49.82000 3.899
49.84000 1.367
49.86000 0.836
49.88000 2.594
49.90000 0.117
49.92000 -2.535
49.94000 -2.682
49.96000 -0.688
49.98000 1.857
50.00000 4.285
50.02000 3.531
50.04000 2.523
50.06000 -0.723
50.08000 1.736
50.10000 5.038
50.12000 1.938
50.14000 3.256
50.16000 2.540
50.18000 6.283
50.20000 2.116
50.22000 1.737
50.24000 2.424
50.26000 -2.238
50.28000 0.451
50.30000 -1.935
50.32000 0.507
50.34000 4.223
50.36000 7.079
50.38000 1.241
50.40000 1.863
50.42000 4.531
50.44000 4.796
50.46000 3.204
50.48000 -0.299
50.50000 1.328
50.52000 2.087
50.54000 4.931
50.56000 0.135
50.58000 -2.512
50.60000 -1.454
50.62000 -0.089
50.64000 3.199
50.66000 3.332
50.68000 4.942
50.70000 1.074
50.72000 1.633
50.74000 3.250
50.76000 2.850
50.78000 3.218
50.80000 2.141
50.82000 0.108
50.84000 1.198
50.86000 2.427
50.88000 -1.191
50.90000 -0.092
50.92000 2.144
50.94000 1.372
50.96000 5.238
50.98000 8.166
51.00000 4.802
51.02000 2.995
51.04000 2.682
51.06000 2.844
51.08000 3.636
51.10000 5.713
51.12000 3.239
51.14000 -0.763
51.16000 3.101
51.18000 3.368
51.20000 3.654
51.22000 2.176
51.24000 2.705
51.26000 4.369
51.28000 0.966
51.30000 6.763
51.32000 11.102
51.34000 5.863
51.36000 4.556
51.38000 4.638
51.40000 3.614
51.42000 -0.391
51.44000 -2.550
51.46000 0.210
51.48000 0.817
51.50000 4.538
51.52000 5.784
51.54000 2.802
51.56000 1.680
51.58000 6.759
51.60000 5.155
51.62000 1.931
51.64000 3.869
51.66000 4.281
51.68000 4.468
51.70000 2.187
51.72000 2.978
51.74000 5.205
51.76000 3.036
51.78000 6.267
51.80000 3.899
51.82000 -1.830
51.84000 -2.153
51.86000 4.062
51.88000 4.841
51.90000 5.590
51.92000 4.222
51.94000 5.993
51.96000 4.360
51.98000 2.825
52.00000 6.840
52.02000 5.330
52.04000 3.461
52.06000 3.226
52.08000 5.228
52.10000 2.705
52.12000 -0.640
52.14000 0.410
52.16000 -1.432
52.18000 1.996
52.20000 6.041
52.22000 1.265
52.24000 1.693
52.26000 3.681
52.28000 2.886
52.30000 9.909
52.32000 5.496
52.34000 3.258
52.36000 2.090
52.38000 2.240
52.40000 0.546
52.42000 -2.560
52.44000 1.170
52.46000 2.354
52.48000 4.205
52.50000 -0.608
52.52000 0.442
52.54000 -0.967
52.56000 2.289
52.58000 4.357
52.60000 4.452
52.62000 0.511
52.64000 -0.444
52.66000 0.520
52.68000 -1.362
52.70000 2.057
52.72000 1.116
52.74000 -1.051
52.76000 -2.547
52.78000 2.436
52.80000 2.812
52.82000 -0.413
52.84000 0.372
52.86000 3.154
52.88000 2.230
52.90000 2.630
52.92000 0.615
52.94000 -1.376
52.96000 0.525
52.98000 0.547
53.00000 -0.738
53.02000 2.636
53.04000 4.084
53.06000 -0.449
53.08000 1.544
53.10000 0.935
53.12000 2.629
53.14000 1.816
53.16000 2.532
53.18000 2.762
53.20000 -1.606
53.22000 1.369
53.24000 -1.676
53.26000 -2.543
53.28000 0.075
53.30000 2.811
53.32000 0.723
53.34000 2.044
53.36000 4.332
53.38000 1.550
53.40000 1.377
53.42000 -0.970
53.44000 0.230
53.46000 1.241
53.48000 2.458
53.50000 4.380
53.52000 -2.537
53.54000 0.835
53.56000 1.790
53.58000 0.371
53.60000 2.214
53.62000 3.884
53.64000 2.681
53.66000 1.754
53.68000 0.765
53.70000 0.023
53.72000 1.132
53.74000 1.564
53.76000 1.592
53.78000 -2.402
53.80000 0.598
53.82000 0.234
53.84000 4.307
53.86000 6.924
53.88000 4.648
53.90000 4.088
53.92000 4.433
53.94000 0.932
53.96000 2.039
53.98000 2.527
54.00000 -0.509
54.02000 -1.149
54.04000 1.513
54.06000 -0.522
54.08000 -1.220
54.10000 0.628
54.12000 2.194
54.14000 -1.126
54.16000 -1.504
54.18000 -0.819
54.20000 0.769
54.22000 -0.551
54.24000 -0.446
54.26000 0.424
54.28000 0.652
54.30000 -1.050
54.32000 -0.850
54.34000 2.565
54.36000 2.828
54.38000 0.186
54.40000 1.470
54.42000 -0.153
54.44000 2.056
54.46000 -2.033
54.48000 2.745
54.50000 2.494
54.52000 1.935
54.54000 2.001
54.56000 3.393
54.58000 2.263
54.60000 -0.085
54.62000 -2.494
54.64000 1.209
54.66000 1.965
54.68000 5.579
54.70000 3.619
54.72000 4.754
54.74000 3.894
54.76000 3.937
54.78000 3.993
54.80000 1.019
54.82000 -2.488
54.84000 -1.730
54.86000 -1.118
54.88000 -0.600
54.90000 1.457
54.92000 -0.422
54.94000 0.609
54.96000 1.570
54.98000 4.653
55.00000 4.452
55.02000 1.253
55.04000 -0.672
55.06000 -0.552
55.08000 -1.046
55.10000 0.023
55.12000 -0.160
55.14000 1.831
55.16000 3.586
55.18000 4.402
55.20000 3.549
55.22000 4.088
55.24000 -0.741
55.26000 -2.480
55.28000 1.829
55.30000 4.854
55.32000 3.835
55.34000 3.565
55.36000 0.840
55.38000 0.855
55.40000 1.575
55.42000 2.633
55.44000 0.176
55.46000 2.652
55.48000 3.705
55.50000 0.969
55.52000 0.213
55.54000 0.122
55.56000 3.163
55.58000 6.387
55.60000 3.091
55.62000 -0.121
55.64000 -2.465
55.66000 1.767
55.68000 -0.853
55.70000 1.158
55.72000 2.835
55.74000 2.054
55.76000 2.823
55.78000 2.172
55.80000 0.054
55.82000 -0.263
55.84000 2.567
55.86000 1.021
55.88000 0.452
55.90000 0.525
55.92000 -0.968
55.94000 0.056
55.96000 -1.959
55.98000 2.534
56.00000 6.057
56.02000 5.826
56.04000 2.894
56.06000 2.120
56.08000 3.312
56.10000 0.202
56.12000 0.921
56.14000 0.647
56.16000 3.037
56.18000 2.324
56.20000 3.206
56.22000 3.682
56.24000 0.087
56.26000 0.568
56.28000 -0.076
56.30000 -1.166
56.32000 -0.208
56.34000 1.506
56.36000 3.882
56.38000 -1.164
56.40000 0.290
56.42000 1.492
56.44000 0.427
56.46000 4.201
56.48000 3.150
56.50000 1.670
56.52000 0.606
56.54000 1.706
56.56000 0.964
56.58000 1.109
56.60000 4.249
56.62000 5.536
56.64000 0.758
56.66000 -1.528
56.68000 0.648
56.70000 2.919
56.72000 2.623
56.74000 0.934
56.76000 -2.444
56.78000 -1.968
56.80000 1.226
56.82000 1.087
56.84000 0.055
56.86000 3.214
56.88000 6.438
56.90000 4.234
56.92000 2.302
56.94000 2.007
56.96000 -1.052
56.98000 2.159
57.00000 0.237
57.02000 0.201
57.04000 6.241
57.06000 4.251
57.08000 0.710
57.10000 4.117
57.12000 2.787
57.14000 2.279
57.16000 1.572
57.18000 3.560
57.20000 4.521
57.22000 2.000
57.24000 1.028
57.26000 0.252
57.28000 -1.028
57.30000 2.971
57.32000 2.140
57.34000 -0.242
57.36000 -0.401
57.38000 0.096
57.40000 1.297
57.42000 2.246
57.44000 4.682
57.46000 2.581
57.48000 0.674
57.50000 3.412
57.52000 1.254
57.54000 1.030
57.56000 3.489
57.58000 7.548
57.60000 2.873
57.62000 -2.399
57.64000 2.581
57.66000 3.619
57.68000 1.586
57.70000 1.312
57.72000 2.394
57.74000 2.460
57.76000 4.202
57.78000 2.298
57.80000 5.897
57.82000 6.540
57.84000 3.955
57.86000 1.101
57.88000 0.292
57.90000 2.353
57.92000 2.618
57.94000 7.092
57.96000 3.412
57.98000 2.408
58.00000 6.147
58.02000 4.519
58.04000 1.222
58.06000 -0.095
58.08000 -1.631
58.10000 2.502
58.12000 0.377
58.14000 -0.291
58.16000 1.508
58.18000 1.512
58.20000 1.569
58.22000 1.283
58.24000 0.798
58.26000 0.379
58.28000 0.796
58.30000 3.594
58.32000 -0.463
58.34000 3.391
58.36000 6.240
58.38000 7.986
58.40000 5.619
58.42000 4.231
58.44000 1.658
58.46000 -1.227
58.48000 -0.272
58.50000 1.821
58.52000 3.496
58.54000 0.064
58.56000 1.978
58.58000 4.089
58.60000 2.920
58.62000 4.159
58.64000 3.667
58.66000 6.289
58.68000 3.951
58.70000 2.426
58.72000 3.879
58.74000 4.666
58.76000 1.538
58.78000 2.135
58.80000 3.416
58.82000 -0.441
58.84000 -2.334
58.86000 0.302
58.88000 6.949
58.90000 6.439
58.92000 4.781
58.94000 4.003
58.96000 2.932
58.98000 5.453
59.00000 7.272
59.02000 6.724
59.04000 3.863
59.06000 5.019
59.08000 2.837
59.10000 2.836
59.12000 3.583
59.14000 6.997
59.16000 3.710
59.18000 4.042
59.20000 0.606
59.22000 2.559
59.24000 3.189
59.26000 3.903
59.28000 1.234
59.30000 -2.319
59.32000 1.623
59.34000 3.249
59.36000 1.335
59.38000 4.088
59.40000 6.136
59.42000 5.994
59.44000 4.153
59.46000 2.357
59.48000 1.494
59.50000 3.051
59.52000 5.016
59.54000 1.675
59.56000 5.142
59.58000 3.743
59.60000 0.563
59.62000 -0.239
59.64000 2.816
59.66000 1.808
59.68000 2.905
59.70000 2.665
59.72000 7.919
59.74000 3.764
59.76000 -0.174
59.78000 -2.323
59.80000 4.625
59.82000 4.674
59.84000 -0.348
59.86000 -0.783
59.88000 1.140
59.90000 1.774
59.92000 4.604
59.94000 5.363
59.96000 6.088
59.98000 2.193
60.00000 2.849
60.02000 -0.076
60.04000 1.864
60.06000 3.922
60.08000 4.841
60.10000 1.221
60.12000 0.125
60.14000 1.135
60.16000 2.301
60.18000 3.200
60.20000 3.977
60.22000 -0.713
60.24000 -1.945
60.26000 -0.676
60.28000 0.782
60.30000 2.935
60.32000 0.435
60.34000 4.207
60.36000 3.891
60.38000 2.656
60.40000 1.108
60.42000 1.373
60.44000 3.021
60.46000 1.473
60.48000 1.048
60.50000 -2.065
60.52000 0.975
60.54000 2.217
60.56000 -2.323
60.58000 -1.218
60.60000 -1.409
60.62000 0.038
60.64000 4.025
60.66000 4.532
60.68000 1.009
60.70000 1.131
60.72000 3.677
60.74000 2.399
60.76000 2.534
60.78000 2.262
60.80000 4.355
60.82000 3.727
60.84000 3.360
60.86000 3.684
60.88000 3.248
60.90000 0.728
60.92000 3.327
60.94000 5.523
60.96000 2.175
60.98000 -2.083
61.00000 -0.620
61.02000 0.106
61.04000 1.059
61.06000 0.450
61.08000 1.311
61.10000 2.064
61.12000 -1.261
61.14000 -2.290
61.16000 -1.607
61.18000 0.487
61.20000 4.138
61.22000 2.691
61.24000 0.898
61.26000 5.212
61.28000 4.111
61.30000 4.045
61.32000 4.184
61.34000 -1.524
61.36000 -1.485
61.38000 -1.438
61.40000 0.772
61.42000 0.798
61.44000 -0.678
61.46000 -0.378
61.48000 1.711
61.50000 1.974
61.52000 -0.115
61.54000 1.019
61.56000 4.401
61.58000 2.896
61.60000 3.273
61.62000 2.231
61.64000 1.347
61.66000 1.119
61.68000 -0.297
61.70000 1.368
61.72000 5.430
61.74000 3.700
61.76000 4.539
61.78000 3.224
61.80000 -1.148
61.82000 -1.583
61.84000 2.054
61.86000 2.451
61.88000 3.167
61.90000 5.974
61.92000 0.666
61.94000 0.012
61.96000 -2.252
61.98000 -0.426
62.00000 0.053
62.02000 1.141
62.04000 6.377
62.06000 3.963
62.08000 1.249
62.10000 3.255
62.12000 7.376
62.14000 1.900
62.16000 -2.245
62.18000 -0.548
62.20000 2.529
62.22000 8.446
62.24000 7.565
62.26000 1.562
62.28000 2.048
62.30000 -1.816
62.32000 2.483
62.34000 3.566
62.36000 1.563
62.38000 2.686
62.40000 4.513
62.42000 2.188
62.44000 1.554
62.46000 2.796
62.48000 -0.340
62.50000 -0.341
62.52000 0.330
62.54000 1.941
62.56000 2.339
62.58000 3.010
62.60000 1.468
62.62000 -0.855
62.64000 2.051
62.66000 1.170
62.68000 0.928
62.70000 0.812
62.72000 0.767
62.74000 2.363
62.76000 4.034
62.78000 3.578
62.80000 2.561
62.82000 4.628
62.84000 4.527
62.86000 1.515
62.88000 1.900
62.90000 3.691
62.92000 4.740
62.94000 1.056
62.96000 2.632
62.98000 2.357
63.00000 2.102
63.02000 2.236
63.04000 4.473
63.06000 4.339
63.08000 3.907
63.10000 6.153
63.12000 3.598
63.14000 1.394
63.16000 2.407
63.18000 3.108
63.20000 5.504
63.22000 3.427
63.24000 1.291
63.26000 2.278
63.28000 2.569
63.30000 1.315
63.32000 0.745
63.34000 1.899
63.36000 1.198
63.38000 2.933
63.40000 2.315
63.42000 -0.176
63.44000 -0.742
63.46000 -2.219
63.48000 -0.989
63.50000 2.301
63.52000 0.142
63.54000 4.755
63.56000 2.652
63.58000 -0.349
63.60000 -0.834
63.62000 0.007
63.64000 6.627
63.66000 3.476
63.68000 0.576
63.70000 -1.668
63.72000 1.678
63.74000 4.894
63.76000 2.028
63.78000 3.483
63.80000 4.638
63.82000 1.261
63.84000 0.790
63.86000 -0.382
63.88000 4.339
63.90000 5.567
63.92000 3.805
63.94000 3.432
63.96000 3.777
63.98000 3.760
64.00000 2.875
64.02000 3.615
64.04000 7.278
64.06000 4.490
64.08000 2.340
64.10000 -1.860
64.12000 -0.414
64.14000 -1.324
64.16000 0.849
64.18000 2.326
64.20000 1.056
64.22000 -1.708
64.24000 -2.220
64.26000 0.407
64.28000 -0.302
64.30000 3.626
64.32000 5.740
64.34000 6.396
64.36000 2.546
64.38000 0.176
64.40000 1.162
64.42000 -0.506
64.44000 -0.392
64.46000 2.609
64.48000 0.539
64.50000 -0.388
64.52000 -1.208
64.54000 2.584
64.56000 -1.847
64.58000 -0.220
64.60000 1.151
64.62000 -0.199
64.64000 0.063
64.66000 0.346
64.68000 2.420
64.70000 2.361
64.72000 -1.007
64.74000 1.040
64.76000 1.606
64.78000 2.949
64.80000 1.587
64.82000 0.319
64.84000 -0.519
64.86000 -1.169
64.88000 0.581
64.90000 -1.243
64.92000 -0.831
64.94000 0.009
64.96000 2.424
64.98000 -2.193
65.00000 2.585
65.02000 5.727
65.04000 0.781
65.06000 -0.783
65.08000 0.246
65.10000 0.013
65.12000 -0.350
65.14000 2.797
65.16000 4.723
65.18000 1.803
65.20000 0.165
65.22000 1.413
65.24000 3.282
65.26000 4.061
65.28000 1.092
65.30000 -1.854
65.32000 -1.035
65.34000 -0.462
65.36000 -0.466
65.38000 -2.221
65.40000 -0.271
65.42000 0.670
65.44000 0.013
65.46000 0.817
65.48000 1.274
65.50000 1.204
65.52000 -0.509
65.54000 -0.267
65.56000 0.038
65.58000 -0.380
65.60000 -1.163
65.62000 2.257
65.64000 1.911
65.66000 1.953
65.68000 4.441
65.70000 2.134
65.72000 0.554
65.74000 -1.467
65.76000 -0.069
65.78000 -1.526
65.80000 -1.822
65.82000 0.708
65.84000 2.216
65.86000 -0.792
65.88000 -1.171
65.90000 -0.858
65.92000 0.247
65.94000 0.979
65.96000 -0.154
65.98000 2.407
66.00000 0.379
66.02000 0.150
66.04000 0.656
66.06000 2.857
66.08000 1.932
66.10000 -1.032
66.12000 1.290
66.14000 1.480
66.16000 1.449
66.18000 -1.313
66.20000 -2.225
66.22000 -1.808
66.24000 2.134
66.26000 0.827
66.28000 1.420
66.30000 1.220
66.32000 0.907
66.34000 -0.040
66.36000 0.622
66.38000 -0.640
66.40000 1.098
66.42000 3.757
66.44000 0.544
66.46000 -0.751
66.48000 -1.225
66.50000 0.854
66.52000 0.818
66.54000 -0.316
66.56000 1.192
66.58000 0.688
66.60000 1.243
66.62000 2.402
66.64000 1.224
66.66000 1.369
66.68000 3.083
66.70000 3.298
66.72000 1.978
66.74000 3.438
66.76000 3.529
66.78000 2.731
66.80000 1.988
66.82000 1.789
66.84000 2.017
66.86000 4.216
66.88000 3.921
66.90000 0.611
66.92000 -2.183
66.94000 1.846
66.96000 3.957
66.98000 3.390
67.00000 6.491
67.02000 3.321
67.04000 1.873
67.06000 3.154
67.08000 3.115
67.10000 1.884
67.12000 0.402
67.14000 2.781
67.16000 4.572
67.18000 3.840
67.20000 2.931
67.22000 2.586
67.24000 4.382
67.26000 5.907
67.28000 5.262
67.30000 5.613
67.32000 5.904
67.34000 1.497
67.36000 1.756
67.38000 2.683
67.40000 3.399
67.42000 5.228
67.44000 4.318
67.46000 6.436
67.48000 5.150
67.50000 3.834
67.52000 5.700
67.54000 6.193
67.56000 4.055
67.58000 4.632
67.60000 5.811
67.62000 3.501
67.64000 4.975
67.66000 3.775
67.68000 6.878
67.70000 9.084
67.72000 8.314
67.74000 7.206
67.76000 4.812
67.78000 7.029
67.80000 8.905
67.82000 8.572
67.84000 8.546
67.86000 5.377
67.88000 8.605
67.90000 9.134
67.92000 11.262
67.94000 11.197
67.96000 12.951
67.98000 10.165
68.00000 12.691
68.02000 13.739
68.04000 12.626
68.06000 13.989
68.08000 14.973
68.10000 13.397
68.12000 16.386
68.14000 20.159
68.16000 17.372
68.18000 16.843
68.20000 16.082
68.22000 20.225
68.24000 22.570
68.26000 18.420
68.28000 18.472
68.30000 19.245
68.32000 22.402
68.34000 24.757
68.36000 23.731
68.38000 21.110
68.40000 22.202
68.42000 23.782
68.44000 29.473
68.46000 29.750
68.48000 30.061
68.50000 30.689
68.52000 31.119
68.54000 32.064
68.56000 28.963
68.58000 30.471
68.60000 30.451
68.62000 26.527
68.64000 29.294
68.66000 30.475
68.68000 28.831
68.70000 30.203
68.72000 28.522
68.74000 30.522
68.76000 31.366
68.78000 28.826
68.80000 29.806
68.82000 28.560
68.84000 27.561
68.86000 27.651
68.88000 27.189
68.90000 27.138
68.92000 27.121
68.94000 26.358
68.96000 26.126
68.98000 22.421
69.00000 24.522
69.02000 22.551
69.04000 18.648
69.06000 18.345
69.08000 17.303
69.10000 16.295
69.12000 15.651
69.14000 18.170
69.16000 20.089
69.18000 17.858
69.20000 15.995
69.22000 15.127
69.24000 13.304
69.26000 11.790
69.28000 10.879
69.30000 9.661
69.32000 9.658
69.34000 10.391
69.36000 10.195
69.38000 12.187
69.40000 9.382
69.42000 6.864
69.44000 6.411
69.46000 4.312
69.48000 4.912
69.50000 5.539
69.52000 3.508
69.54000 6.114
69.56000 3.273
69.58000 4.341
69.60000 3.859
69.62000 2.166
69.64000 1.790
69.66000 3.921
69.68000 4.012
69.70000 2.202
69.72000 -0.670
69.74000 1.149
69.76000 1.854
69.78000 1.565
69.80000 3.753
69.82000 4.179
69.84000 5.857
69.86000 2.177
69.88000 2.480
69.90000 5.492
69.92000 3.916
69.94000 2.519
69.96000 1.937
69.98000 1.703
70.00000 0.203
70.02000 0.288
70.04000 1.226
70.06000 0.138
70.08000 -0.791
70.10000 -0.474
70.12000 -1.516
70.14000 -0.541
70.16000 -2.117
70.18000 -2.014
70.20000 -1.214
70.22000 0.184
70.24000 0.254
70.26000 -0.844
70.28000 1.271
70.30000 0.383
70.32000 0.720
70.34000 0.851
70.36000 0.349
70.38000 0.420
70.40000 0.181
70.42000 -1.473
70.44000 -2.094
70.46000 1.235
70.48000 -1.029
70.50000 0.480
70.52000 2.619
70.54000 2.944
70.56000 1.079
70.58000 1.082
70.60000 -1.556
70.62000 0.123
70.64000 -1.798
70.66000 -0.076
70.68000 -0.305
70.70000 1.636
70.72000 -0.373
70.74000 -1.034
70.76000 -0.687
70.78000 0.422
70.80000 1.238
70.82000 1.602
70.84000 0.039
70.86000 0.546
70.88000 1.121
70.90000 -0.641
70.92000 -0.642
70.94000 -2.068
70.96000 -1.527
70.98000 -1.680
71.00000 -1.547
71.02000 0.689
71.04000 0.406
71.06000 1.774
71.08000 -1.400
71.10000 2.960
71.12000 3.232
71.14000 2.901
71.16000 0.626
71.18000 -1.236
71.20000 0.766
71.22000 1.422
71.24000 3.510
71.26000 0.036
71.28000 -1.020
71.30000 0.537
71.32000 4.978
71.34000 2.358
71.36000 1.251
71.38000 3.331
71.40000 3.249
71.42000 -0.174
71.44000 -2.016
71.46000 -2.014
71.48000 0.052
71.50000 3.509
71.52000 -0.138
71.54000 -0.144
71.56000 3.361
71.58000 1.867
71.60000 2.024
71.62000 0.781
71.64000 0.287
71.66000 1.088
71.68000 3.106
71.70000 0.819
71.72000 -1.098
71.74000 -0.338
71.76000 -0.627
71.78000 -1.140
71.80000 -0.063
71.82000 -0.740
71.84000 0.880
71.86000 1.530
71.88000 0.230
71.90000 -1.233
71.92000 0.697
71.94000 0.934
71.96000 -0.558
71.98000 0.143
72.00000 1.105
72.02000 0.485
72.04000 0.687
72.06000 1.817
72.08000 -0.198
72.10000 0.891
72.12000 1.302
72.14000 -1.998
72.16000 -0.597
72.18000 -1.963
72.20000 -1.590
72.22000 -1.333
72.24000 -1.439
72.26000 -1.002
72.28000 -0.583
72.30000 2.487
72.32000 2.534
72.34000 1.694
72.36000 3.553
72.38000 1.983
72.40000 0.464
72.42000 1.054
72.44000 2.914
72.46000 -1.267
72.48000 -0.258
72.50000 -1.146
72.52000 1.694
72.54000 2.936
72.56000 1.838
72.58000 0.540
72.60000 1.134
72.62000 3.039
72.64000 1.819
72.66000 1.483
72.68000 1.920
72.70000 0.769
72.72000 0.225
72.74000 -1.079
72.76000 -1.941
72.78000 1.392
72.80000 0.168
72.82000 -1.503
72.84000 0.302
72.86000 1.954
72.88000 2.042
72.90000 2.623
72.92000 2.940
72.94000 1.986
72.96000 3.621
72.98000 3.311
73.00000 2.359
73.02000 0.459
73.04000 -1.952
73.06000 -1.692
73.08000 0.461
73.10000 2.005
73.12000 1.752
73.14000 -1.486
73.16000 -1.956
73.18000 -1.827
73.20000 -1.245
73.22000 -1.111
73.24000 0.537
73.26000 2.304
73.28000 2.167
73.30000 1.034
73.32000 1.001
73.34000 -0.419
73.36000 -1.025
73.38000 -0.552
73.40000 1.259
73.42000 -1.057
73.44000 -0.145
73.46000 0.998
73.48000 -0.973
73.50000 -1.144
73.52000 -1.870
73.54000 0.168
73.56000 -0.280
73.58000 -0.192
73.60000 -1.939
73.62000 -0.470
73.64000 -1.605
73.66000 1.246
73.68000 0.352
73.70000 0.882
73.72000 1.117
73.74000 1.201
73.76000 1.208
73.78000 0.703
73.80000 -0.558
73.82000 -0.671
73.84000 -0.318
73.86000 1.638
73.88000 1.891
73.90000 -1.955
73.92000 -1.671
73.94000 -0.455
73.96000 0.894
73.98000 1.437
74.00000 2.448
74.02000 0.467
74.04000 -0.939
74.06000 -0.018
74.08000 1.939
74.10000 3.801
74.12000 4.535
74.14000 -0.171
74.16000 -0.787
74.18000 1.613
74.20000 0.493
74.22000 -1.783
74.24000 -1.350
74.26000 0.577
74.28000 1.298
74.30000 -0.101
74.32000 -1.515
74.34000 0.333
74.36000 1.354
74.38000 1.773
74.40000 2.382
74.42000 2.673
74.44000 3.547
74.46000 2.038
74.48000 0.580
74.50000 -0.973
74.52000 1.965
74.54000 1.848
74.56000 3.171
74.58000 3.178
74.60000 3.152
74.62000 1.826
74.64000 0.488
74.66000 -1.921
74.68000 -0.398
74.70000 3.081
74.72000 2.572
74.74000 -0.730
74.76000 0.759
74.78000 2.742
74.80000 2.457
74.82000 4.929
74.84000 4.394
74.86000 3.950
74.88000 2.639
74.90000 3.294
74.92000 3.784
74.94000 3.000
74.96000 2.887
74.98000 2.265
75.00000 2.778
75.02000 2.568
75.04000 2.516
75.06000 2.122
75.08000 2.672
75.10000 -0.341
75.12000 2.811
75.14000 0.556
75.16000 -0.161
75.18000 1.104
75.20000 1.323
75.22000 -0.476
75.24000 1.288
75.26000 2.084
75.28000 3.482
75.30000 1.378
75.32000 4.063
75.34000 1.845
75.36000 2.823
75.38000 4.812
75.40000 2.404
75.42000 1.628
75.44000 2.271
75.46000 2.956
75.48000 3.114
75.50000 -0.405
75.52000 -0.168
75.54000 2.323
75.56000 2.428
75.58000 6.157
75.60000 4.892
75.62000 0.693
75.64000 0.036
75.66000 -1.926
75.68000 2.141
75.70000 2.038
75.72000 0.225
75.74000 3.121
75.76000 4.474
75.78000 3.690
75.80000 4.172
75.82000 2.083
75.84000 0.822
75.86000 0.950
75.88000 1.255
75.90000 2.183
75.92000 3.548
75.94000 5.864
75.96000 -0.260
75.98000 -1.910
76.00000 -1.887
76.02000 -0.439
76.04000 0.820
76.06000 3.977
76.08000 1.357
76.10000 2.965
76.12000 0.723
76.14000 2.039
76.16000 -0.399
76.18000 -1.745
76.20000 -0.762
76.22000 1.694
76.24000 5.141
76.26000 1.854
76.28000 2.347
76.30000 2.340
76.32000 2.815
76.34000 2.736
76.36000 0.852
76.38000 -0.384
76.40000 -1.926
76.42000 -0.274
76.44000 3.392
76.46000 3.869
76.48000 4.914
76.50000 1.194
76.52000 1.624
76.54000 3.088
76.56000 4.706
76.58000 0.367
76.60000 0.814
76.62000 3.105
76.64000 1.903
76.66000 2.129
76.68000 4.432
76.70000 3.644
76.72000 4.110
76.74000 1.570
76.76000 0.576
76.78000 3.090
76.80000 3.201
76.82000 3.795
76.84000 1.154
76.86000 0.819
76.88000 2.183
76.90000 3.163
76.92000 3.474
76.94000 4.624
76.96000 1.113
76.98000 0.406
77.00000 3.808
77.02000 3.854
77.04000 0.752
77.06000 -1.931
77.08000 0.920
77.10000 0.767
77.12000 4.571
77.14000 6.444
77.16000 2.907
77.18000 2.822
77.20000 1.787
77.22000 1.722
77.24000 1.908
77.26000 2.445
77.28000 3.621
77.30000 5.605
77.32000 4.242
77.34000 2.160
77.36000 3.401
77.38000 4.947
77.40000 2.394
77.42000 2.580
77.44000 0.733
77.46000 0.730
77.48000 2.897
77.50000 1.132
77.52000 2.290
77.54000 3.151
77.56000 5.615
77.58000 2.191
77.60000 -0.173
77.62000 2.243
77.64000 1.607
77.66000 2.858
77.68000 -0.937
77.70000 0.618
77.72000 4.862
77.74000 1.294
77.76000 -1.912
77.78000 1.354
77.80000 3.558
77.82000 3.655
77.84000 2.506
77.86000 3.420
77.88000 3.700
77.90000 4.280
77.92000 1.491
77.94000 0.751
77.96000 1.069
77.98000 4.267
78.00000 3.113
78.02000 4.888
78.04000 1.007
78.06000 3.835
78.08000 3.246
78.10000 -1.920
78.12000 0.879
78.14000 1.708
78.16000 4.034
78.18000 4.804
78.20000 4.922
78.22000 6.240
78.24000 4.692
78.26000 5.372
78.28000 4.702
78.30000 3.583
78.32000 3.528
78.34000 3.825
78.36000 2.050
78.38000 1.511
78.40000 3.272
78.42000 3.318
78.44000 2.859
78.46000 3.497
78.48000 2.906
78.50000 2.232
78.52000 4.643
78.54000 1.221
78.56000 0.316
78.58000 1.863
78.60000 2.114
78.62000 0.936
78.64000 3.050
78.66000 1.230
78.68000 0.290
78.70000 1.301
78.72000 1.023
78.74000 3.527
78.76000 -0.319
78.78000 -0.353
78.80000 1.095
78.82000 0.676
78.84000 2.405
78.86000 2.585
78.88000 2.577
78.90000 2.312
78.92000 1.683
78.94000 4.910
78.96000 4.433
78.98000 5.568
79.00000 2.486
79.02000 2.224
79.04000 4.242
79.06000 5.973
79.08000 1.354
79.10000 3.425
79.12000 0.818
79.14000 2.535
79.16000 2.017
79.18000 -0.577
79.20000 -1.963
79.22000 2.389
79.24000 1.224
79.26000 0.930
79.28000 2.659
79.30000 0.960
79.32000 1.074
79.34000 -1.964
79.36000 0.520
79.38000 -0.092
79.40000 1.055
79.42000 2.720
79.44000 3.852
79.46000 5.548
79.48000 2.603
79.50000 1.351
79.52000 1.717
79.54000 2.096
79.56000 -1.854
79.58000 1.305
79.60000 2.905
79.62000 3.395
79.64000 1.347
79.66000 0.865
79.68000 1.363
79.70000 3.208
79.72000 2.541
79.74000 -0.592
79.76000 -0.873
79.78000 1.591
79.80000 1.567
79.82000 1.063
79.84000 2.099
79.86000 1.861
79.88000 1.434
79.90000 0.806
79.92000 -0.855
79.94000 -0.164
79.96000 -1.156
79.98000 -0.175
80.00000 1.279
80.02000 1.779
80.04000 1.054
80.06000 1.093
80.08000 1.042
80.10000 -0.211
80.12000 1.260
80.14000 2.265
80.16000 -0.609
80.18000 -1.804
80.20000 -0.952
80.22000 0.643
80.24000 -0.220
80.26000 -2.007
80.28000 1.274
80.30000 1.531
80.32000 -0.408
80.34000 -1.358
80.36000 -2.060
80.38000 0.281
80.40000 1.653
80.42000 4.703
80.44000 1.618
80.46000 2.226
80.48000 1.416
80.50000 2.487
80.52000 0.613
80.54000 -0.713
80.56000 -0.359
80.58000 1.147
80.60000 3.840
80.62000 -0.676
80.64000 0.898
80.66000 3.349
80.68000 2.518
80.70000 2.995
80.72000 2.915
80.74000 1.859
80.76000 -0.866
80.78000 0.103
80.80000 0.980
80.82000 0.359
80.84000 1.668
80.86000 2.578
80.88000 3.383
80.90000 1.623
80.92000 0.516
80.94000 0.698
80.96000 -1.596
80.98000 -2.100
81.00000 1.270
81.02000 0.359
81.04000 0.047
81.06000 0.830
81.08000 0.837
81.10000 -1.222
81.12000 1.792
81.14000 0.875
81.16000 0.198
81.18000 0.026
81.20000 1.306
81.22000 4.868
81.24000 3.047
81.26000 1.997
81.28000 3.906
81.30000 3.979
81.32000 0.356
81.34000 -2.001
81.36000 1.322
81.38000 1.869
81.40000 0.045
81.42000 6.827
81.44000 4.977
81.46000 1.553
81.48000 3.443
81.50000 1.222
81.52000 1.006
81.54000 0.634
81.56000 6.754
81.58000 5.170
81.60000 3.569
81.62000 7.021
81.64000 4.766
81.66000 1.935
81.68000 4.355
81.70000 6.459
81.72000 7.910
81.74000 9.517
81.76000 6.073
81.78000 7.513
81.80000 7.719
81.82000 7.579
81.84000 10.544
81.86000 12.372
81.88000 11.162
81.90000 10.068
81.92000 10.142
81.94000 13.555
81.96000 13.142
81.98000 12.161
82.00000 18.674
82.02000 18.612
82.04000 12.508
82.06000 14.575
82.08000 13.354
82.10000 14.911
82.12000 19.681
82.14000 19.775
82.16000 15.232
82.18000 16.865
82.20000 22.092
82.22000 24.057
82.24000 21.652
82.26000 20.090
82.28000 24.660
82.30000 22.521
82.32000 22.174
82.34000 25.142
82.36000 26.444
82.38000 32.147
82.40000 33.316
82.42000 27.028
82.44000 25.246
82.46000 27.159
82.48000 29.915
82.50000 34.316
82.52000 34.308
82.54000 31.113
82.56000 33.874
82.58000 35.038
82.60000 40.077
82.62000 40.026
82.64000 38.959
82.66000 38.950
82.68000 43.475
82.70000 44.412
82.72000 40.211
82.74000 42.515
82.76000 41.096
82.78000 45.034
82.80000 46.330
82.82000 52.775
82.84000 51.010
82.86000 45.821
82.88000 41.732
82.90000 37.383
82.92000 40.361
82.94000 39.943
82.96000 41.016
82.98000 42.644
83.00000 36.564
83.02000 33.286
83.04000 40.387
83.06000 35.406
83.08000 33.337
83.10000 37.737
83.12000 39.088
83.14000 38.004
83.16000 33.348
83.18000 29.479
83.20000 32.121
83.22000 37.120
83.24000 30.891
83.26000 26.842
83.28000 25.923
83.30000 29.856
83.32000 27.936
83.34000 27.137
83.36000 23.278
83.38000 23.989
83.40000 24.801
83.42000 23.069
83.44000 23.959
83.46000 21.163
83.48000 19.632
83.50000 18.711
83.52000 17.441
83.54000 14.831
83.56000 17.693
83.58000 16.328
83.60000 14.088
83.62000 14.841
83.64000 16.024
83.66000 14.651
83.68000 14.566
83.70000 11.701
83.72000 7.059
83.74000 6.626
83.76000 7.581
83.78000 6.756
83.80000 7.581
83.82000 7.577
83.84000 8.457
83.86000 5.468
83.88000 2.295
83.90000 4.670
83.92000 8.483
83.94000 8.724
83.96000 9.001
83.98000 10.531
84.00000 8.363
84.02000 4.726
84.04000 2.489
84.06000 5.047
84.08000 6.198
84.10000 0.368
84.12000 -1.907
84.14000 -0.082
84.16000 0.270
84.18000 -0.696
84.20000 -1.363
84.22000 0.722
84.24000 5.205
84.26000 3.492
84.28000 3.337
84.30000 3.275
84.32000 2.875
84.34000 4.531
84.36000 1.478
84.38000 1.915
84.40000 0.814
84.42000 2.238
84.44000 4.824
84.46000 4.206
84.48000 0.553
84.50000 0.108
84.52000 1.402
84.54000 -2.089
84.56000 -1.637
84.58000 0.066
84.60000 -0.455
84.62000 0.546
84.64000 1.612
84.66000 2.425
84.68000 2.073
84.70000 0.280
84.72000 3.176
84.74000 4.708
84.76000 1.817
84.78000 3.621
84.80000 3.557
84.82000 2.931
84.84000 1.619
84.86000 3.476
84.88000 3.661
84.90000 4.240
84.92000 5.549
84.94000 6.231
84.96000 2.858
84.98000 1.127
85.00000 3.694
85.02000 0.502
85.04000 1.380
85.06000 4.895
85.08000 1.195
85.10000 1.823
85.12000 0.277
85.14000 -0.019
85.16000 -0.346
85.18000 0.296
85.20000 0.658
85.22000 -0.712
85.24000 0.640
85.26000 4.546
85.28000 4.535
85.30000 0.602
85.32000 7.472
85.34000 6.585
85.36000 3.123
85.38000 2.369
85.40000 0.974
85.42000 1.101
85.44000 -0.380
85.46000 2.767
85.48000 1.468
85.50000 -1.989
85.52000 -0.839
85.54000 3.891
85.56000 4.550
85.58000 6.632
85.60000 6.601
85.62000 6.502
85.64000 3.238
85.66000 7.569
85.68000 8.211
85.70000 6.436
85.72000 6.278
85.74000 6.992
85.76000 5.059
85.78000 5.279
85.80000 6.897
85.82000 3.676
85.84000 2.409
85.86000 1.923
85.88000 -0.073
85.90000 2.110
85.92000 4.170
85.94000 3.506
85.96000 5.685
85.98000 1.472
86.00000 -1.414
86.02000 -2.046
86.04000 0.786
86.06000 3.382
86.08000 4.264
86.10000 2.110
86.12000 4.496
86.14000 3.482
86.16000 1.809
86.18000 4.611
86.20000 3.406
86.22000 6.448
86.24000 7.893
86.26000 7.186
86.28000 4.523
86.30000 3.991
86.32000 4.103
86.34000 6.320
86.36000 7.507
86.38000 9.545
86.40000 10.378
86.42000 7.558
86.44000 6.557
86.46000 5.944
86.48000 8.295
86.50000 8.974
86.52000 6.608
86.54000 11.029
86.56000 12.701
86.58000 10.973
86.60000 14.165
86.62000 16.081
86.64000 14.762
86.66000 15.895
86.68000 13.788
86.70000 16.664
86.72000 14.381
86.74000 15.698
86.76000 17.417
86.78000 20.482
86.80000 20.814
86.82000 22.324
86.84000 23.142
86.86000 24.133
86.88000 24.643
86.90000 24.848
86.92000 22.743
86.94000 24.394
86.96000 27.883
86.98000 24.013
87.00000 23.870
87.02000 27.079
87.04000 26.707
87.06000 28.235
87.08000 27.314
87.10000 27.425
87.12000 30.406
87.14000 30.437
87.16000 28.087
87.18000 27.706
87.20000 26.377
87.22000 28.296
87.24000 30.305
87.26000 27.980
87.28000 29.096
87.30000 27.959
87.32000 27.951
87.34000 31.661
87.36000 31.162
87.38000 24.183
87.40000 27.737
87.42000 25.679
87.44000 27.970
87.46000 30.221
87.48000 24.644
87.50000 22.962
87.52000 22.463
87.54000 25.079
87.56000 22.066
87.58000 21.600
87.60000 19.411
87.62000 17.318
87.64000 19.341
87.66000 18.498
87.68000 18.634
87.70000 17.384
87.72000 16.550
87.74000 15.933
87.76000 18.448
87.78000 16.205
87.80000 15.950
87.82000 13.939
87.84000 13.756
87.86000 11.519
87.88000 11.174
87.90000 12.075
87.92000 8.998
87.94000 11.215
87.96000 12.002
87.98000 11.116
88.00000 8.473
88.02000 7.946
88.04000 9.417
88.06000 9.737
88.08000 7.823
88.10000 8.434
88.12000 9.293
88.14000 7.551
88.16000 5.180
88.18000 7.784
88.20000 6.609
88.22000 4.137
88.24000 2.634
88.26000 3.201
88.28000 4.252
88.30000 3.749
88.32000 3.245
88.34000 0.889
88.36000 3.851
88.38000 3.230
88.40000 4.560
88.42000 0.210
88.44000 -1.583
88.46000 2.498
88.48000 5.248
88.50000 5.953
88.52000 4.394
88.54000 0.865
88.56000 0.976
88.58000 -1.995
88.60000 -1.265
88.62000 1.177
88.64000 2.261
88.66000 0.707
88.68000 2.164
88.70000 1.787
88.72000 3.989
88.74000 0.004
88.76000 -0.157
88.78000 1.533
88.80000 3.328
88.82000 2.211
88.84000 -1.004
88.86000 1.350
88.88000 1.370
88.90000 4.311
88.92000 3.263
88.94000 2.554
88.96000 3.194
88.98000 2.484
89.00000 1.792
89.02000 1.323
89.04000 -0.206
89.06000 -0.070
89.08000 -1.917
89.10000 1.593
89.12000 0.374
89.14000 1.142
89.16000 3.398
89.18000 1.360
89.20000 1.929
89.22000 1.226
89.24000 3.112
89.26000 2.376
89.28000 0.900
89.30000 1.129
89.32000 -1.873
89.34000 3.231
89.36000 2.006
89.38000 3.035
89.40000 4.110
89.42000 4.214
89.44000 1.870
89.46000 -1.350
89.48000 2.197
89.50000 3.681
89.52000 1.951
89.54000 1.132
89.56000 2.433
89.58000 0.928
89.60000 -1.212
89.62000 -1.459
89.64000 -1.644
89.66000 -0.838
89.68000 1.093
89.70000 1.703
89.72000 1.398
89.74000 3.239
89.76000 2.759
89.78000 -0.589
89.80000 0.953
89.82000 0.710
89.84000 -1.331
89.86000 1.112
89.88000 0.913
89.90000 -0.052
89.92000 0.436
89.94000 1.471
89.96000 3.444
89.98000 3.855
90.00000 1.997
90.02000 0.871
90.04000 1.542
90.06000 1.306
90.08000 -0.717
90.10000 1.932
90.12000 1.114
90.14000 0.462
90.16000 0.216
90.18000 0.280
90.20000 3.767
90.22000 0.816
90.24000 5.478
90.26000 4.130
90.28000 0.603
90.30000 2.295
90.32000 1.496
90.34000 1.540
90.36000 -1.839
90.38000 0.067
90.40000 1.692
90.42000 2.098
90.44000 6.449
90.46000 3.617
90.48000 4.117
90.50000 3.567
90.52000 2.704
90.54000 2.772
90.56000 3.045
90.58000 1.870
90.60000 7.290
90.62000 5.547
90.64000 0.424
90.66000 -1.838
90.68000 2.119
90.70000 5.320
90.72000 0.336
90.74000 0.237
90.76000 2.018
90.78000 1.354
90.80000 0.046
90.82000 2.911
90.84000 3.682
90.86000 3.604
90.88000 0.344
90.90000 2.820
90.92000 4.576
90.94000 3.508
90.96000 3.679
90.98000 4.306
91.00000 3.931
91.02000 1.088
91.04000 0.998
91.06000 3.360
91.08000 4.460
91.10000 4.481
91.12000 5.108
91.14000 3.806
91.16000 2.451
91.18000 2.163
91.20000 4.065
91.22000 1.274
91.24000 0.606
91.26000 2.253
91.28000 1.509
91.30000 -1.802
91.32000 1.867
91.34000 2.650
91.36000 3.320
91.38000 5.028
91.40000 1.194
91.42000 0.272
91.44000 1.314
91.46000 1.852
91.48000 3.742
91.50000 0.739
91.52000 2.369
91.54000 5.524
91.56000 6.687
91.58000 7.390
91.60000 2.388
91.62000 2.831
91.64000 1.966
91.66000 2.400
91.68000 1.333
91.70000 4.079
91.72000 6.061
91.74000 1.620
91.76000 2.207
91.78000 4.123
91.80000 5.800
91.82000 1.341
91.84000 5.696
91.86000 4.937
91.88000 2.424
91.90000 0.026
91.92000 0.532
91.94000 2.773
91.96000 1.252
91.98000 3.697
92.00000 2.028
92.02000 2.765
92.04000 3.570
92.06000 2.832
92.08000 2.274
92.10000 1.587
92.12000 -1.798
92.14000 1.269
92.16000 4.009
92.18000 2.432
92.20000 4.103
92.22000 1.540
92.24000 2.220
92.26000 2.334
92.28000 0.627
92.30000 2.995
92.32000 4.522
92.34000 4.169
92.36000 1.495
92.38000 0.779
92.40000 0.564
92.42000 0.244
92.44000 1.247
92.46000 1.698
92.48000 3.885
92.50000 1.793
92.52000 3.963
92.54000 4.133
92.56000 4.187
92.58000 1.726
92.60000 2.414
92.62000 3.720
92.64000 1.577
92.66000 -0.095
92.68000 2.014
92.70000 8.811
92.72000 1.568
92.74000 -1.841
92.76000 0.071
92.78000 1.979
92.80000 2.508
92.82000 2.407
92.84000 0.921
92.86000 3.213
92.88000 -0.164
92.90000 0.960
92.92000 2.865
92.94000 1.277
92.96000 3.593
92.98000 0.548
93.00000 2.753
93.02000 7.549
93.04000 6.203
93.06000 3.129
93.08000 1.853
93.10000 -0.240
93.12000 -0.676
93.14000 -1.186
93.16000 2.450
93.18000 2.854
93.20000 2.600
93.22000 1.083
93.24000 2.309
93.26000 1.539
93.28000 4.285
93.30000 2.137
93.32000 0.657
93.34000 2.277
93.36000 3.502
93.38000 1.625
93.40000 -0.015
93.42000 0.190
93.44000 5.174
93.46000 2.331
93.48000 0.635
93.50000 3.477
93.52000 1.418
93.54000 0.262
93.56000 0.953
93.58000 1.623
93.60000 2.607
93.62000 0.479
93.64000 -1.280
93.66000 -0.972
93.68000 0.067
93.70000 0.169
93.72000 0.216
93.74000 -0.423
93.76000 -0.055
93.78000 0.521
93.80000 -0.268
93.82000 1.368
93.84000 -1.211
93.86000 -1.699
93.88000 2.511
93.90000 1.645
93.92000 -0.743
93.94000 0.955
93.96000 0.841
93.98000 -0.633
94.00000 1.892
94.02000 4.837
94.04000 6.577
94.06000 3.975
94.08000 0.175
94.10000 -0.477
94.12000 -1.460
94.14000 0.681
94.16000 -0.414
94.18000 -0.034
94.20000 2.913
94.22000 1.970
94.24000 0.493
94.26000 1.229
94.28000 -1.857
94.30000 0.727
94.32000 4.180
94.34000 4.468
94.36000 3.870
94.38000 8.240
94.40000 3.005
94.42000 1.872
94.44000 3.819
94.46000 3.377
94.48000 3.793
94.50000 4.811
94.52000 2.853
94.54000 1.588
94.56000 1.868
94.58000 3.743
94.60000 2.321
94.62000 1.645
94.64000 2.657
94.66000 1.247
94.68000 3.749
94.70000 2.651
94.72000 3.098
94.74000 -0.727
94.76000 1.299
94.78000 1.000
94.80000 2.272
94.82000 -0.099
94.84000 2.863
94.86000 4.355
94.88000 4.047
94.90000 3.696
94.92000 2.065
94.94000 2.385
94.96000 4.496
94.98000 2.117
95.00000 1.625
95.02000 1.782
95.04000 2.862
95.06000 -0.017
95.08000 0.009
95.10000 -1.844
95.12000 -0.562
95.14000 2.828
95.16000 6.240
95.18000 3.300
95.20000 1.283
95.22000 1.627
95.24000 0.085
95.26000 -0.655
95.28000 1.911
95.30000 2.677
95.32000 1.186
95.34000 0.588
95.36000 1.203
95.38000 0.146
95.40000 1.910
95.42000 4.810
95.44000 1.756
95.46000 -1.828
95.48000 2.369
95.50000 5.914
95.52000 5.824
95.54000 4.255
95.56000 4.301
95.58000 4.417
95.60000 3.166
95.62000 1.823
95.64000 1.383
95.66000 3.713
95.68000 3.617
95.70000 4.188
95.72000 7.612
95.74000 5.134
95.76000 6.266
95.78000 1.165
95.80000 -0.921
95.82000 2.536
95.84000 1.892
95.86000 2.300
95.88000 1.275
95.90000 -1.359
95.92000 -1.834
95.94000 2.688
95.96000 -0.744
95.98000 2.052
96.00000 3.406
96.02000 4.349
96.04000 6.728
96.06000 7.595
96.08000 1.771
96.10000 1.957
96.12000 4.494
96.14000 -0.215
96.16000 3.617
96.18000 2.759
96.20000 1.512
96.22000 4.507
96.24000 1.003
96.26000 -0.195
96.28000 -0.334
96.30000 2.247
96.32000 5.305
96.34000 4.140
96.36000 3.098
96.38000 6.196
96.40000 1.855
96.42000 2.357
96.44000 2.375
96.46000 0.170
96.48000 1.627
96.50000 -1.828
96.52000 1.838
96.54000 3.598
96.56000 1.139
96.58000 4.642
96.60000 1.368
96.62000 1.683
96.64000 3.356
96.66000 1.443
96.68000 4.086
96.70000 5.188
96.72000 5.331
96.74000 6.453
96.76000 6.934
96.78000 4.647
96.80000 2.077
96.82000 -0.239
96.84000 -0.186
96.86000 -0.433
96.88000 4.834
96.90000 4.347
96.92000 1.683
96.94000 0.552
96.96000 2.244
96.98000 4.534
97.00000 4.307
97.02000 -1.827
97.04000 2.147
97.06000 3.769
97.08000 1.783
97.10000 2.783
97.12000 3.547
97.14000 -1.724
97.16000 -1.098
97.18000 1.375
97.20000 6.250
97.22000 4.105
97.24000 -0.406
97.26000 0.740
97.28000 1.126
97.30000 7.438
97.32000 2.148
97.34000 0.969
97.36000 2.540
97.38000 5.946
97.40000 5.633
97.42000 2.208
97.44000 -1.666
97.46000 -1.469
97.48000 2.783
97.50000 5.780
97.52000 6.496
97.54000 6.582
97.56000 1.638
97.58000 1.357
97.60000 -1.215
97.62000 2.143
97.64000 2.170
97.66000 0.389
97.68000 2.278
97.70000 2.463
97.72000 3.637
97.74000 0.977
97.76000 -1.824
97.78000 1.436
97.80000 1.725
97.82000 5.761
97.84000 4.000
97.86000 5.525
97.88000 3.417
97.90000 6.770
97.92000 1.493
97.94000 3.104
97.96000 3.893
97.98000 2.303
98.00000 4.066
98.02000 0.130
98.04000 2.374
98.06000 4.390
98.08000 4.963
98.10000 4.577
98.12000 1.450
98.14000 1.636
98.16000 3.325
98.18000 1.580
98.20000 -1.795
98.22000 -1.210
98.24000 -1.801
98.26000 3.848
98.28000 5.808
98.30000 6.904
98.32000 4.688
98.34000 7.897
98.36000 6.045
98.38000 6.586
98.40000 8.077
98.42000 2.252
98.44000 3.196
98.46000 7.162
98.48000 7.657
98.50000 5.087
98.52000 5.658
98.54000 2.842
98.56000 1.786
98.58000 3.014
98.60000 -0.519
98.62000 6.302
98.64000 3.059
98.66000 5.950
98.68000 2.241
98.70000 2.776
98.72000 6.174
98.74000 4.713
98.76000 3.951
98.78000 1.813
98.80000 5.016
98.82000 7.437
98.84000 5.055
98.86000 3.588
98.88000 1.624
98.90000 0.978
98.92000 1.947
98.94000 5.679
98.96000 3.307
98.98000 2.587
99.00000 4.434
99.02000 4.909
99.04000 11.391
99.06000 7.430
99.08000 4.594
99.10000 0.559
99.12000 -1.733
99.14000 5.973
99.16000 7.322
99.18000 5.727
99.20000 1.409
99.22000 4.101
99.24000 7.701
99.26000 4.426
99.28000 3.513
99.30000 6.121
99.32000 5.939
99.34000 2.939
99.36000 -1.783
99.38000 2.447
99.40000 9.519
99.42000 5.999
99.44000 5.962
99.46000 -0.496
99.48000 2.009
99.50000 7.010
99.52000 5.546
99.54000 3.232
99.56000 3.031
99.58000 9.119
99.60000 7.214
99.62000 3.716
99.64000 4.626
99.66000 1.455
99.68000 2.343
99.70000 2.229
99.72000 -1.854
99.74000 -0.295
99.76000 1.393
99.78000 3.385
99.80000 4.763
99.82000 9.963
99.84000 10.733
99.86000 4.773
99.88000 2.121
99.90000 4.437
99.92000 3.575
99.94000 1.107
99.96000 0.202
99.98000 0.000
