'Id: "0011388" Comment: "Integrate frame 0011388_Au-Ir-Rh_Rh-rich_XRD-Mapping-012-0000.gfrmwith cursor Wedge Cursor #5" Operator: "B?rgel" Anode: "Cu" Wavelength: "1.5406" Scantype: "2Theta (TwoTheta)" TimePerStep: "1" X: "-22.5" Y: "-36" Z: "5.95" 
10.00000 0.000
10.02000 7.513
10.04000 -4.507
10.06000 -4.469
10.08000 18.511
10.10000 8.395
10.12000 15.097
10.14000 19.309
10.16000 31.712
10.18000 31.267
10.20000 18.172
10.22000 17.156
10.24000 23.475
10.26000 31.406
10.28000 34.019
10.30000 25.723
10.32000 2.623
10.34000 11.793
10.36000 3.829
10.38000 20.085
10.40000 34.065
10.42000 17.567
10.44000 14.883
10.46000 10.419
10.48000 8.699
10.50000 6.808
10.52000 0.276
10.54000 -4.422
10.56000 13.017
10.58000 33.304
10.60000 31.201
10.62000 24.986
10.64000 21.160
10.66000 7.581
10.68000 1.754
10.70000 5.041
10.72000 4.243
10.74000 11.257
10.76000 9.467
10.78000 10.300
10.80000 8.681
10.82000 5.066
10.84000 19.812
10.86000 19.887
10.88000 13.382
10.90000 14.411
10.92000 27.989
10.94000 35.635
10.96000 21.065
10.98000 21.137
11.00000 15.286
11.02000 13.747
11.04000 18.850
11.06000 29.146
11.08000 28.329
11.10000 22.050
11.12000 27.724
11.14000 24.608
11.16000 -0.824
11.18000 5.109
11.20000 23.812
11.22000 22.422
11.24000 14.695
11.26000 14.097
11.28000 27.421
11.30000 33.429
11.32000 18.706
11.34000 13.385
11.36000 4.674
11.38000 24.936
11.40000 26.386
11.42000 17.715
11.44000 10.944
11.46000 10.732
11.48000 11.073
11.50000 14.109
11.52000 18.332
11.54000 7.213
11.56000 4.181
11.58000 18.589
11.60000 34.225
11.62000 25.376
11.64000 20.314
11.66000 13.187
11.68000 9.479
11.70000 17.102
11.72000 31.743
11.74000 21.819
11.76000 15.572
11.78000 14.899
11.80000 20.933
11.82000 12.373
11.84000 21.502
11.86000 15.111
11.88000 8.737
11.90000 21.629
11.92000 16.089
11.94000 21.282
11.96000 25.648
11.98000 20.191
12.00000 15.295
12.02000 17.294
12.04000 10.682
12.06000 -4.440
12.08000 5.085
12.10000 11.997
12.12000 13.930
12.14000 12.847
12.16000 11.524
12.18000 20.197
12.20000 19.753
12.22000 4.078
12.24000 3.298
12.26000 10.632
12.28000 18.240
12.30000 17.638
12.32000 7.764
12.34000 9.632
12.36000 6.457
12.38000 3.337
12.40000 11.281
12.42000 17.188
12.44000 20.333
12.46000 7.367
12.48000 14.438
12.50000 17.389
12.52000 10.364
12.54000 15.388
12.56000 24.024
12.58000 12.994
12.60000 10.452
12.62000 18.511
12.64000 15.731
12.66000 11.035
12.68000 8.004
12.70000 5.789
12.72000 14.938
12.74000 14.281
12.76000 12.846
12.78000 14.433
12.80000 8.952
12.82000 12.602
12.84000 14.272
12.86000 20.119
12.88000 13.874
12.90000 9.930
12.92000 10.482
12.94000 14.327
12.96000 15.769
12.98000 9.905
13.00000 17.130
13.02000 17.111
13.04000 6.532
13.06000 3.065
13.08000 10.137
13.10000 6.342
13.12000 12.439
13.14000 7.668
13.16000 11.796
13.18000 14.604
13.20000 4.166
13.22000 1.381
13.24000 3.574
13.26000 0.361
13.28000 11.182
13.30000 15.446
13.32000 19.353
13.34000 25.160
13.36000 13.266
13.38000 4.475
13.40000 11.035
13.42000 11.794
13.44000 14.928
13.46000 17.898
13.48000 14.278
13.50000 13.939
13.52000 15.543
13.54000 18.041
13.56000 15.648
13.58000 13.591
13.60000 5.894
13.62000 4.602
13.64000 1.485
13.66000 14.062
13.68000 15.173
13.70000 4.333
13.72000 6.180
13.74000 9.882
13.76000 15.440
13.78000 10.908
13.80000 9.081
13.82000 8.726
13.84000 8.979
13.86000 11.900
13.88000 7.704
13.90000 1.421
13.92000 6.938
13.94000 3.429
13.96000 7.597
13.98000 6.807
14.00000 10.078
14.02000 9.144
14.04000 7.205
14.06000 15.024
14.08000 17.832
14.10000 10.859
14.12000 4.215
14.14000 9.969
14.16000 5.931
14.18000 8.684
14.20000 8.713
14.22000 11.916
14.24000 15.664
14.26000 21.319
14.28000 19.463
14.30000 7.659
14.32000 -0.819
14.34000 17.064
14.36000 24.403
14.38000 15.113
14.40000 10.408
14.42000 7.369
14.44000 7.664
14.46000 11.716
14.48000 22.545
14.50000 17.717
14.52000 12.190
14.54000 8.453
14.56000 15.302
14.58000 14.488
14.60000 10.522
14.62000 6.307
14.64000 -3.808
14.66000 -4.415
14.68000 13.536
14.70000 12.620
14.72000 14.196
14.74000 14.013
14.76000 3.814
14.78000 4.007
14.80000 14.700
14.82000 18.375
14.84000 12.016
14.86000 10.684
14.88000 12.813
14.90000 10.409
14.92000 13.352
14.94000 16.047
14.96000 13.802
14.98000 9.966
15.00000 5.610
15.02000 6.996
15.04000 8.170
15.06000 11.007
15.08000 3.894
15.10000 10.262
15.12000 16.565
15.14000 11.551
15.16000 1.978
15.18000 1.156
15.20000 11.208
15.22000 14.399
15.24000 13.738
15.26000 17.601
15.28000 11.204
15.30000 6.619
15.32000 5.180
15.34000 3.181
15.36000 6.747
15.38000 13.579
15.40000 14.000
15.42000 9.217
15.44000 12.439
15.46000 17.521
15.48000 10.895
15.50000 8.332
15.52000 4.616
15.54000 9.038
15.56000 7.709
15.58000 0.324
15.60000 5.455
15.62000 -1.457
15.64000 -0.533
15.66000 13.091
15.68000 10.330
15.70000 4.787
15.72000 9.155
15.74000 1.842
15.76000 0.074
15.78000 12.505
15.80000 12.978
15.82000 8.604
15.84000 10.285
15.86000 10.431
15.88000 10.181
15.90000 6.423
15.92000 2.596
15.94000 -2.710
15.96000 4.570
15.98000 -0.238
16.00000 -2.617
16.02000 -4.397
16.04000 2.775
16.06000 2.376
16.08000 0.031
16.10000 3.817
16.12000 3.909
16.14000 11.845
16.16000 9.317
16.18000 4.807
16.20000 4.230
16.22000 10.270
16.24000 11.192
16.26000 8.485
16.28000 -1.961
16.30000 -1.473
16.32000 2.576
16.34000 1.476
16.36000 4.752
16.38000 -2.736
16.40000 1.697
16.42000 8.680
16.44000 9.620
16.46000 10.535
16.48000 0.463
16.50000 6.118
16.52000 6.965
16.54000 7.978
16.56000 3.357
16.58000 1.926
16.60000 0.838
16.62000 9.068
16.64000 4.131
16.66000 3.298
16.68000 4.713
16.70000 -1.004
16.72000 7.170
16.74000 10.631
16.76000 9.488
16.78000 3.145
16.80000 9.192
16.82000 8.582
16.84000 2.357
16.86000 10.853
16.88000 9.898
16.90000 0.302
16.92000 -3.314
16.94000 5.530
16.96000 13.227
16.98000 1.782
17.00000 -2.876
17.02000 4.817
17.04000 5.312
17.06000 7.379
17.08000 10.008
17.10000 4.049
17.12000 4.353
17.14000 0.647
17.16000 4.775
17.18000 3.886
17.20000 -4.370
17.22000 2.834
17.24000 3.450
17.26000 1.481
17.28000 5.219
17.30000 3.340
17.32000 -0.352
17.34000 3.396
17.36000 -2.438
17.38000 -0.418
17.40000 5.092
17.42000 11.977
17.44000 9.518
17.46000 10.456
17.48000 12.663
17.50000 5.302
17.52000 1.504
17.54000 5.260
17.56000 5.725
17.58000 1.790
17.60000 2.948
17.62000 1.980
17.64000 -0.893
17.66000 2.028
17.68000 0.286
17.70000 -3.828
17.72000 0.139
17.74000 -2.569
17.76000 -0.234
17.78000 5.980
17.80000 4.856
17.82000 0.090
17.84000 0.848
17.86000 7.357
17.88000 4.308
17.90000 -2.541
17.92000 0.684
17.94000 2.159
17.96000 -1.662
17.98000 1.841
18.00000 2.498
18.02000 2.429
18.04000 4.642
18.06000 6.940
18.08000 3.294
18.10000 0.095
18.12000 2.207
18.14000 -0.378
18.16000 1.498
18.18000 5.463
18.20000 5.749
18.22000 5.281
18.24000 3.463
18.26000 -0.267
18.28000 8.429
18.30000 6.171
18.32000 8.120
18.34000 5.173
18.36000 3.178
18.38000 -0.215
18.40000 4.925
18.42000 5.597
18.44000 -1.274
18.46000 -0.037
18.48000 1.015
18.50000 3.649
18.52000 12.828
18.54000 9.185
18.56000 3.983
18.58000 3.645
18.60000 0.725
18.62000 -1.531
18.64000 -4.265
18.66000 3.810
18.68000 5.345
18.70000 2.102
18.72000 1.867
18.74000 5.264
18.76000 1.671
18.78000 0.307
18.80000 -4.253
18.82000 -1.154
18.84000 1.058
18.86000 10.120
18.88000 11.736
18.90000 4.694
18.92000 2.987
18.94000 -1.111
18.96000 3.930
18.98000 0.976
19.00000 1.104
19.02000 4.529
19.04000 6.340
19.06000 8.920
19.08000 9.001
19.10000 3.390
19.12000 2.078
19.14000 3.318
19.16000 6.329
19.18000 3.964
19.20000 4.821
19.22000 0.625
19.24000 0.936
19.26000 1.915
19.28000 0.706
19.30000 -4.218
19.32000 2.063
19.34000 2.199
19.36000 1.888
19.38000 7.434
19.40000 0.634
19.42000 0.842
19.44000 0.838
19.46000 -0.529
19.48000 2.943
19.50000 12.846
19.52000 3.467
19.54000 2.419
19.56000 -0.716
19.58000 0.912
19.60000 2.248
19.62000 11.728
19.64000 10.761
19.66000 0.455
19.68000 -4.188
19.70000 -1.752
19.72000 3.666
19.74000 6.915
19.76000 6.886
19.78000 0.174
19.80000 4.175
19.82000 6.748
19.84000 1.666
19.86000 4.067
19.88000 10.033
19.90000 2.929
19.92000 -1.285
19.94000 3.173
19.96000 2.634
19.98000 3.659
20.00000 4.069
20.02000 4.280
20.04000 -1.404
20.06000 0.232
20.08000 2.143
20.10000 4.564
20.12000 0.961
20.14000 -0.493
20.16000 7.181
20.18000 3.418
20.20000 -0.936
20.22000 0.144
20.24000 -2.407
20.26000 2.569
20.28000 6.359
20.30000 1.575
20.32000 2.453
20.34000 -0.714
20.36000 -2.578
20.38000 2.361
20.40000 9.883
20.42000 13.641
20.44000 7.658
20.46000 0.312
20.48000 -2.539
20.50000 -2.836
20.52000 0.533
20.54000 0.241
20.56000 0.368
20.58000 1.216
20.60000 8.561
20.62000 14.277
20.64000 6.347
20.66000 -0.514
20.68000 -2.891
20.70000 1.900
20.72000 0.764
20.74000 -2.264
20.76000 -2.820
20.78000 5.506
20.80000 5.755
20.82000 11.869
20.84000 4.830
20.86000 2.060
20.88000 6.011
20.90000 1.180
20.92000 -3.054
20.94000 -2.831
20.96000 0.804
20.98000 -4.133
21.00000 -3.697
21.02000 1.253
21.04000 5.109
21.06000 4.083
21.08000 3.295
21.10000 0.494
21.12000 4.715
21.14000 9.995
21.16000 7.263
21.18000 1.929
21.20000 -2.976
21.22000 6.368
21.24000 2.349
21.26000 2.371
21.28000 2.252
21.30000 2.442
21.32000 0.658
21.34000 -0.730
21.36000 3.300
21.38000 4.581
21.40000 -0.389
21.42000 2.064
21.44000 -0.331
21.46000 0.012
21.48000 -1.780
21.50000 -1.501
21.52000 -4.037
21.54000 1.004
21.56000 4.146
21.58000 1.684
21.60000 -1.956
21.62000 -2.500
21.64000 3.255
21.66000 6.203
21.68000 5.141
21.70000 -0.870
21.72000 2.040
21.74000 2.341
21.76000 -1.720
21.78000 -3.183
21.80000 -4.076
21.82000 1.107
21.84000 -0.409
21.86000 -3.307
21.88000 -1.279
21.90000 8.185
21.92000 4.385
21.94000 0.781
21.96000 4.692
21.98000 8.748
22.00000 6.357
22.02000 10.961
22.04000 6.775
22.06000 4.387
22.08000 7.987
22.10000 3.974
22.12000 1.992
22.14000 3.816
22.16000 3.604
22.18000 1.164
22.20000 1.505
22.22000 4.114
22.24000 3.112
22.26000 10.135
22.28000 10.571
22.30000 5.819
22.32000 1.472
22.34000 -0.814
22.36000 3.989
22.38000 3.983
22.40000 1.231
22.42000 0.443
22.44000 2.565
22.46000 2.472
22.48000 -4.041
22.50000 -1.273
22.52000 4.366
22.54000 0.972
22.56000 -1.570
22.58000 -0.554
22.60000 0.389
22.62000 -3.252
22.64000 -2.620
22.66000 1.670
22.68000 -1.953
22.70000 -1.781
22.72000 2.044
22.74000 6.514
22.76000 0.705
22.78000 -2.419
22.80000 3.306
22.82000 5.726
22.84000 7.135
22.86000 4.713
22.88000 4.994
22.90000 -0.935
22.92000 2.898
22.94000 6.917
22.96000 0.888
22.98000 -1.749
23.00000 0.464
23.02000 3.963
23.04000 0.160
23.06000 -3.267
23.08000 -3.019
23.10000 -1.645
23.12000 -1.797
23.14000 2.765
23.16000 1.396
23.18000 3.721
23.20000 2.579
23.22000 -3.261
23.24000 4.119
23.26000 3.969
23.28000 7.442
23.30000 12.452
23.32000 3.195
23.34000 -2.273
23.36000 1.113
23.38000 1.009
23.40000 -0.920
23.42000 2.988
23.44000 0.534
23.46000 1.184
23.48000 3.904
23.50000 -0.695
23.52000 3.761
23.54000 0.649
23.56000 2.728
23.58000 8.069
23.60000 10.602
23.62000 6.554
23.64000 -2.107
23.66000 -0.145
23.68000 7.142
23.70000 8.576
23.72000 6.945
23.74000 4.955
23.76000 3.384
23.78000 1.478
23.80000 2.587
23.82000 8.115
23.84000 7.500
23.86000 -3.945
23.88000 -1.707
23.90000 0.960
23.92000 6.940
23.94000 7.348
23.96000 5.821
23.98000 8.718
24.00000 9.121
24.02000 1.223
24.04000 6.308
24.06000 5.709
24.08000 -2.621
24.10000 2.532
24.12000 1.970
24.14000 2.872
24.16000 4.431
24.18000 -1.454
24.20000 1.412
24.22000 0.702
24.24000 -1.960
24.26000 -2.843
24.28000 2.678
24.30000 -2.483
24.32000 4.043
24.34000 6.496
24.36000 6.509
24.38000 2.514
24.40000 3.761
24.42000 1.685
24.44000 -1.454
24.46000 2.361
24.48000 4.372
24.50000 0.806
24.52000 5.551
24.54000 1.290
24.56000 -0.702
24.58000 -3.460
24.60000 -2.790
24.62000 -0.073
24.64000 1.398
24.66000 6.486
24.68000 4.683
24.70000 8.714
24.72000 9.649
24.74000 2.951
24.76000 1.676
24.78000 -0.128
24.80000 1.353
24.82000 -3.910
24.84000 -1.445
24.86000 5.599
24.88000 4.121
24.90000 3.950
24.92000 3.415
24.94000 4.460
24.96000 0.096
24.98000 -2.119
25.00000 0.364
25.02000 1.099
25.04000 -1.802
25.06000 8.359
25.08000 3.437
25.10000 3.556
25.12000 3.712
25.14000 1.299
25.16000 3.148
25.18000 2.616
25.20000 0.921
25.22000 1.789
25.24000 0.753
25.26000 0.101
25.28000 0.519
25.30000 -0.509
25.32000 0.946
25.34000 -0.772
25.36000 1.327
25.38000 6.960
25.40000 10.719
25.42000 7.891
25.44000 8.173
25.46000 3.301
25.48000 6.460
25.50000 5.628
25.52000 2.642
25.54000 4.938
25.56000 2.395
25.58000 -3.871
25.60000 3.216
25.62000 5.966
25.64000 1.739
25.66000 -3.866
25.68000 -0.501
25.70000 2.193
25.72000 0.111
25.74000 -1.202
25.76000 -1.753
25.78000 -0.242
25.80000 4.341
25.82000 4.810
25.84000 -0.033
25.86000 -3.854
25.88000 -0.820
25.90000 1.532
25.92000 -0.502
25.94000 4.704
25.96000 7.897
25.98000 -1.335
26.00000 -0.892
26.02000 0.385
26.04000 3.901
26.06000 6.363
26.08000 7.394
26.10000 5.071
26.12000 1.907
26.14000 3.025
26.16000 4.299
26.18000 5.016
26.20000 1.408
26.22000 -2.261
26.24000 3.586
26.26000 7.484
26.28000 5.576
26.30000 10.156
26.32000 10.142
26.34000 6.592
26.36000 0.899
26.38000 0.737
26.40000 -1.581
26.42000 0.874
26.44000 3.793
26.46000 5.531
26.48000 -0.549
26.50000 0.347
26.52000 -0.802
26.54000 -2.673
26.56000 3.719
26.58000 5.849
26.60000 7.294
26.62000 0.808
26.64000 -2.884
26.66000 -3.825
26.68000 2.066
26.70000 4.331
26.72000 4.823
26.74000 0.555
26.76000 1.986
26.78000 -1.021
26.80000 -0.798
26.82000 -1.899
26.84000 1.664
26.86000 8.642
26.88000 7.190
26.90000 -0.196
26.92000 0.307
26.94000 0.930
26.96000 -3.581
26.98000 -1.139
27.00000 -1.131
27.02000 -0.809
27.04000 0.186
27.06000 4.650
27.08000 0.676
27.10000 5.115
27.12000 7.494
27.14000 1.920
27.16000 1.847
27.18000 5.932
27.20000 4.611
27.22000 1.830
27.24000 -0.108
27.26000 -1.493
27.28000 -3.797
27.30000 -1.083
27.32000 2.829
27.34000 3.082
27.36000 0.628
27.38000 1.082
27.40000 2.025
27.42000 0.823
27.44000 3.651
27.46000 3.492
27.48000 1.069
27.50000 -1.138
27.52000 -1.585
27.54000 -3.388
27.56000 -0.082
27.58000 1.935
27.60000 4.390
27.62000 3.284
27.64000 0.335
27.66000 0.176
27.68000 0.818
27.70000 -1.970
27.72000 3.414
27.74000 -0.338
27.76000 2.996
27.78000 6.444
27.80000 1.687
27.82000 1.738
27.84000 6.350
27.86000 3.922
27.88000 4.265
27.90000 2.726
27.92000 -3.550
27.94000 -2.451
27.96000 0.090
27.98000 4.341
28.00000 2.923
28.02000 1.551
28.04000 3.633
28.06000 5.253
28.08000 4.598
28.10000 5.690
28.12000 5.221
28.14000 0.940
28.16000 0.642
28.18000 2.375
28.20000 4.608
28.22000 -1.188
28.24000 2.244
28.26000 6.119
28.28000 0.914
28.30000 -0.853
28.32000 -0.142
28.34000 -0.580
28.36000 -1.141
28.38000 -3.471
28.40000 -0.825
28.42000 -1.631
28.44000 2.204
28.46000 4.454
28.48000 2.964
28.50000 7.694
28.52000 2.069
28.54000 5.702
28.56000 5.031
28.58000 1.882
28.60000 -0.392
28.62000 1.820
28.64000 -2.385
28.66000 -3.675
28.68000 5.019
28.70000 2.826
28.72000 3.280
28.74000 7.534
28.76000 6.616
28.78000 4.767
28.80000 3.085
28.82000 2.317
28.84000 -0.571
28.86000 -2.127
28.88000 4.030
28.90000 2.025
28.92000 -1.146
28.94000 -3.710
28.96000 -3.392
28.98000 -0.110
29.00000 2.150
29.02000 -2.552
29.04000 2.798
29.06000 4.777
29.08000 10.647
29.10000 7.298
29.12000 3.486
29.14000 -0.141
29.16000 1.570
29.18000 3.495
29.20000 0.480
29.22000 0.817
29.24000 0.675
29.26000 -2.059
29.28000 0.897
29.30000 -0.669
29.32000 -0.610
29.34000 -0.987
29.36000 -0.684
29.38000 1.859
29.40000 2.932
29.42000 4.760
29.44000 2.253
29.46000 -2.641
29.48000 -0.567
29.50000 0.229
29.52000 4.247
29.54000 3.661
29.56000 6.903
29.58000 -0.314
29.60000 -3.661
29.62000 -2.932
29.64000 3.597
29.66000 4.044
29.68000 3.586
29.70000 3.123
29.72000 2.574
29.74000 3.987
29.76000 -1.373
29.78000 -1.959
29.80000 0.260
29.82000 -1.740
29.84000 4.051
29.86000 5.605
29.88000 11.611
29.90000 12.154
29.92000 5.080
29.94000 4.181
29.96000 4.491
29.98000 2.895
30.00000 4.406
30.02000 5.329
30.04000 3.898
30.06000 3.903
30.08000 3.666
30.10000 5.207
30.12000 6.419
30.14000 0.126
30.16000 3.620
30.18000 3.905
30.20000 2.916
30.22000 4.050
30.24000 1.940
30.26000 3.953
30.28000 5.966
30.30000 1.765
30.32000 0.503
30.34000 6.189
30.36000 1.080
30.38000 -2.944
30.40000 -3.614
30.42000 4.820
30.44000 5.102
30.46000 7.435
30.48000 6.580
30.50000 2.179
30.52000 5.559
30.54000 9.935
30.56000 10.852
30.58000 6.901
30.60000 1.945
30.62000 1.248
30.64000 1.877
30.66000 1.905
30.68000 4.717
30.70000 7.023
30.72000 8.777
30.74000 1.919
30.76000 1.211
30.78000 -3.599
30.80000 2.278
30.82000 9.359
30.84000 7.079
30.86000 1.009
30.88000 0.399
30.90000 1.854
30.92000 4.347
30.94000 6.302
30.96000 2.358
30.98000 4.743
31.00000 6.378
31.02000 5.208
31.04000 3.771
31.06000 6.131
31.08000 4.327
31.10000 1.709
31.12000 -2.360
31.14000 1.616
31.16000 0.332
31.18000 0.396
31.20000 0.633
31.22000 1.162
31.24000 3.138
31.26000 4.369
31.28000 6.601
31.30000 1.740
31.32000 4.185
31.34000 6.338
31.36000 6.485
31.38000 5.187
31.40000 -2.123
31.42000 1.641
31.44000 2.298
31.46000 1.754
31.48000 -1.921
31.50000 -0.296
31.52000 -1.260
31.54000 -3.571
31.56000 3.261
31.58000 4.388
31.60000 2.359
31.62000 -2.718
31.64000 1.541
31.66000 3.672
31.68000 4.632
31.70000 4.667
31.72000 5.123
31.74000 3.215
31.76000 4.249
31.78000 5.329
31.80000 3.252
31.82000 0.556
31.84000 4.546
31.86000 1.030
31.88000 -3.561
31.90000 -3.561
31.92000 -1.410
31.94000 -0.843
31.96000 -2.152
31.98000 2.063
32.00000 4.289
32.02000 4.808
32.04000 0.826
32.06000 -1.277
32.08000 1.621
32.10000 1.131
32.12000 3.129
32.14000 5.748
32.16000 7.156
32.18000 7.175
32.20000 4.289
32.22000 6.344
32.24000 1.180
32.26000 0.856
32.28000 4.539
32.30000 7.809
32.32000 2.284
32.34000 1.546
32.36000 7.661
32.38000 10.089
32.40000 4.857
32.42000 1.224
32.44000 0.563
32.46000 0.955
32.48000 -3.545
32.50000 3.854
32.52000 6.764
32.54000 5.180
32.56000 2.493
32.58000 1.124
32.60000 4.143
32.62000 -0.119
32.64000 -1.799
32.66000 3.900
32.68000 1.451
32.70000 3.839
32.72000 0.678
32.74000 1.830
32.76000 2.613
32.78000 3.422
32.80000 -1.201
32.82000 1.276
32.84000 0.647
32.86000 0.198
32.88000 -1.187
32.90000 -2.163
32.92000 1.707
32.94000 0.661
32.96000 -3.530
32.98000 1.606
33.00000 3.207
33.02000 4.445
33.04000 1.307
33.06000 -2.686
33.08000 2.314
33.10000 2.456
33.12000 -0.288
33.14000 -0.227
33.16000 0.343
33.18000 1.760
33.20000 1.341
33.22000 -0.467
33.24000 0.812
33.26000 -0.508
33.28000 5.359
33.30000 6.340
33.32000 5.822
33.34000 9.672
33.36000 6.477
33.38000 6.236
33.40000 6.341
33.42000 6.034
33.44000 2.936
33.46000 9.443
33.48000 8.595
33.50000 6.169
33.52000 10.144
33.54000 8.740
33.56000 0.669
33.58000 6.726
33.60000 5.672
33.62000 7.263
33.64000 2.925
33.66000 0.570
33.68000 0.333
33.70000 0.477
33.72000 3.982
33.74000 5.171
33.76000 2.529
33.78000 -0.832
33.80000 1.656
33.82000 -0.006
33.84000 5.178
33.86000 8.670
33.88000 7.096
33.90000 3.330
33.92000 5.546
33.94000 1.605
33.96000 0.793
33.98000 5.799
34.00000 5.816
34.02000 2.407
34.04000 -0.766
34.06000 3.132
34.08000 3.673
34.10000 -3.478
34.12000 -0.247
34.14000 4.520
34.16000 0.870
34.18000 5.849
34.20000 4.644
34.22000 2.637
34.24000 -0.432
34.26000 2.227
34.28000 3.249
34.30000 11.217
34.32000 13.435
34.34000 3.508
34.36000 3.398
34.38000 6.020
34.40000 8.797
34.42000 8.746
34.44000 9.003
34.46000 1.641
34.48000 4.799
34.50000 4.286
34.52000 5.130
34.54000 5.238
34.56000 1.040
34.58000 3.995
34.60000 6.365
34.62000 1.004
34.64000 -2.039
34.66000 3.989
34.68000 5.547
34.70000 3.818
34.72000 3.500
34.74000 4.473
34.76000 6.926
34.78000 -0.311
34.80000 -2.603
34.82000 -0.917
34.84000 1.801
34.86000 3.869
34.88000 2.171
34.90000 0.552
34.92000 -1.761
34.94000 -1.114
34.96000 6.317
34.98000 5.338
35.00000 -0.294
35.02000 4.808
35.04000 5.929
35.06000 7.931
35.08000 3.654
35.10000 -0.385
35.12000 1.654
35.14000 0.195
35.16000 -3.456
35.18000 -3.229
35.20000 -0.211
35.22000 4.663
35.24000 5.677
35.26000 6.939
35.28000 2.813
35.30000 2.144
35.32000 7.849
35.34000 8.554
35.36000 7.399
35.38000 3.447
35.40000 0.183
35.42000 4.701
35.44000 3.467
35.46000 3.355
35.48000 1.623
35.50000 0.415
35.52000 -3.437
35.54000 -1.023
35.56000 1.470
35.58000 0.971
35.60000 5.127
35.62000 3.918
35.64000 5.559
35.66000 3.445
35.68000 2.577
35.70000 4.138
35.72000 0.238
35.74000 2.825
35.76000 4.744
35.78000 2.910
35.80000 3.541
35.82000 2.513
35.84000 4.163
35.86000 1.786
35.88000 0.201
35.90000 -3.428
35.92000 0.051
35.94000 5.618
35.96000 5.158
35.98000 1.789
36.00000 5.052
36.02000 -1.475
36.04000 -0.020
36.06000 -0.049
36.08000 5.384
36.10000 8.331
36.12000 7.924
36.14000 3.676
36.16000 7.306
36.18000 2.888
36.20000 0.092
36.22000 4.791
36.24000 0.664
36.26000 -3.436
36.28000 -0.999
36.30000 1.190
36.32000 8.475
36.34000 5.457
36.36000 4.896
36.38000 2.751
36.40000 6.863
36.42000 0.251
36.44000 0.508
36.46000 -0.417
36.48000 -3.145
36.50000 -1.214
36.52000 -2.880
36.54000 -2.059
36.56000 3.746
36.58000 5.844
36.60000 5.581
36.62000 3.224
36.64000 0.661
36.66000 1.327
36.68000 -3.460
36.70000 2.488
36.72000 7.334
36.74000 10.588
36.76000 6.055
36.78000 2.826
36.80000 6.407
36.82000 2.476
36.84000 0.051
36.86000 -0.456
36.88000 2.407
36.90000 5.441
36.92000 7.679
36.94000 5.727
36.96000 -1.624
36.98000 -0.923
37.00000 -3.301
37.02000 1.870
37.04000 3.994
37.06000 4.507
37.08000 3.253
37.10000 0.451
37.12000 1.561
37.14000 4.001
37.16000 1.891
37.18000 1.895
37.20000 3.257
37.22000 3.877
37.24000 0.814
37.26000 -0.489
37.28000 5.572
37.30000 4.036
37.32000 4.343
37.34000 5.116
37.36000 6.993
37.38000 5.130
37.40000 -0.059
37.42000 -3.480
37.44000 -0.408
37.46000 0.888
37.48000 5.031
37.50000 3.391
37.52000 3.925
37.54000 -3.060
37.56000 -2.676
37.58000 -2.664
37.60000 1.355
37.62000 2.863
37.64000 0.038
37.66000 1.115
37.68000 -0.363
37.70000 -1.876
37.72000 -2.375
37.74000 4.138
37.76000 9.115
37.78000 9.257
37.80000 4.206
37.82000 4.979
37.84000 4.572
37.86000 1.108
37.88000 -2.291
37.90000 1.368
37.92000 3.218
37.94000 6.369
37.96000 4.550
37.98000 1.724
38.00000 1.925
38.02000 4.789
38.04000 3.286
38.06000 5.977
38.08000 6.534
38.10000 5.749
38.12000 5.930
38.14000 3.214
38.16000 5.089
38.18000 7.756
38.20000 4.455
38.22000 7.226
38.24000 10.137
38.26000 10.451
38.28000 7.311
38.30000 4.716
38.32000 6.045
38.34000 6.055
38.36000 5.858
38.38000 10.943
38.40000 14.451
38.42000 11.455
38.44000 11.810
38.46000 11.889
38.48000 10.641
38.50000 8.536
38.52000 9.645
38.54000 11.272
38.56000 11.602
38.58000 13.649
38.60000 14.019
38.62000 11.087
38.64000 13.203
38.66000 14.267
38.68000 14.404
38.70000 9.098
38.72000 12.550
38.74000 16.764
38.76000 17.648
38.78000 14.568
38.80000 14.272
38.82000 19.454
38.84000 17.558
38.86000 15.990
38.88000 17.530
38.90000 19.971
38.92000 19.206
38.94000 17.021
38.96000 19.264
38.98000 20.409
39.00000 19.964
39.02000 21.933
39.04000 16.612
39.06000 24.980
39.08000 25.880
39.10000 27.561
39.12000 26.221
39.14000 26.636
39.16000 29.192
39.18000 26.955
39.20000 31.531
39.22000 33.461
39.24000 38.425
39.26000 41.053
39.28000 36.772
39.30000 37.300
39.32000 38.720
39.34000 38.804
39.36000 42.554
39.38000 43.618
39.40000 41.172
39.42000 48.565
39.44000 51.610
39.46000 55.585
39.48000 60.939
39.50000 53.865
39.52000 50.724
39.54000 62.518
39.56000 61.824
39.58000 59.420
39.60000 66.169
39.62000 73.993
39.64000 77.379
39.66000 76.873
39.68000 79.615
39.70000 88.824
39.72000 91.325
39.74000 98.653
39.76000 101.545
39.78000 103.574
39.80000 105.974
39.82000 107.208
39.84000 115.762
39.86000 125.505
39.88000 136.082
39.90000 140.965
39.92000 149.455
39.94000 161.321
39.96000 169.931
39.98000 171.831
40.00000 175.773
40.02000 189.573
40.04000 202.244
40.06000 213.309
40.08000 233.835
40.10000 244.154
40.12000 251.360
40.14000 262.773
40.16000 284.811
40.18000 300.006
40.20000 310.097
40.22000 328.000
40.24000 348.304
40.26000 373.649
40.28000 390.013
40.30000 400.640
40.32000 418.849
40.34000 432.942
40.36000 448.462
40.38000 477.951
40.40000 494.899
40.42000 517.553
40.44000 534.906
40.46000 543.361
40.48000 571.382
40.50000 584.715
40.52000 602.929
40.54000 605.727
40.56000 617.264
40.58000 635.012
40.60000 637.828
40.62000 631.693
40.64000 644.875
40.66000 646.917
40.68000 623.693
40.70000 623.555
40.72000 622.078
40.74000 612.104
40.76000 598.206
40.78000 587.689
40.80000 569.166
40.82000 560.119
40.84000 545.522
40.86000 525.753
40.88000 511.427
40.90000 490.540
40.92000 463.157
40.94000 450.899
40.96000 441.032
40.98000 415.611
41.00000 406.390
41.02000 389.820
41.04000 363.634
41.06000 342.519
41.08000 319.746
41.10000 304.074
41.12000 290.016
41.14000 276.466
41.16000 268.328
41.18000 248.787
41.20000 236.192
41.22000 219.983
41.24000 208.055
41.26000 200.425
41.28000 181.862
41.30000 177.397
41.32000 169.373
41.34000 159.146
41.36000 145.479
41.38000 135.943
41.40000 129.745
41.42000 122.589
41.44000 115.741
41.46000 108.526
41.48000 106.677
41.50000 99.721
41.52000 88.697
41.54000 89.491
41.56000 87.524
41.58000 84.142
41.60000 79.559
41.62000 74.902
41.64000 70.132
41.66000 65.927
41.68000 60.952
41.70000 61.740
41.72000 59.431
41.74000 57.859
41.76000 52.312
41.78000 47.649
41.80000 49.136
41.82000 49.938
41.84000 41.420
41.86000 40.144
41.88000 39.563
41.90000 38.498
41.92000 35.214
41.94000 30.568
41.96000 26.258
41.98000 27.875
42.00000 27.494
42.02000 29.828
42.04000 24.932
42.06000 23.403
42.08000 20.992
42.10000 17.079
42.12000 21.774
42.14000 18.456
42.16000 15.214
42.18000 16.931
42.20000 15.913
42.22000 17.744
42.24000 13.061
42.26000 9.642
42.28000 11.343
42.30000 10.434
42.32000 13.722
42.34000 14.993
42.36000 9.728
42.38000 10.758
42.40000 8.857
42.42000 14.072
42.44000 13.845
42.46000 7.784
42.48000 7.689
42.50000 7.860
42.52000 3.040
42.54000 3.798
42.56000 4.277
42.58000 4.915
42.60000 4.723
42.62000 5.303
42.64000 8.651
42.66000 7.745
42.68000 9.281
42.70000 8.604
42.72000 5.117
42.74000 2.496
42.76000 9.781
42.78000 6.323
42.80000 2.356
42.82000 1.974
42.84000 4.328
42.86000 1.816
42.88000 -1.414
42.90000 0.141
42.92000 -0.800
42.94000 -0.112
42.96000 3.255
42.98000 1.210
43.00000 2.247
43.02000 3.432
43.04000 1.950
43.06000 -0.688
43.08000 0.826
43.10000 2.032
43.12000 5.651
43.14000 0.868
43.16000 4.288
43.18000 3.041
43.20000 1.202
43.22000 -2.676
43.24000 0.199
43.26000 0.859
43.28000 4.206
43.30000 4.552
43.32000 -0.705
43.34000 0.926
43.36000 1.152
43.38000 1.202
43.40000 0.783
43.42000 -2.095
43.44000 -3.470
43.46000 -1.302
43.48000 -0.491
43.50000 -1.068
43.52000 1.868
43.54000 -1.547
43.56000 0.776
43.58000 1.659
43.60000 1.347
43.62000 -0.382
43.64000 -2.515
43.66000 -2.382
43.68000 0.187
43.70000 4.657
43.72000 1.424
43.74000 -3.422
43.76000 -1.168
43.78000 0.461
43.80000 4.061
43.82000 3.539
43.84000 1.911
43.86000 1.111
43.88000 0.061
43.90000 -3.307
43.92000 2.245
43.94000 1.208
43.96000 2.793
43.98000 2.394
44.00000 4.300
44.02000 3.334
44.04000 -0.403
44.06000 -1.775
44.08000 4.368
44.10000 6.990
44.12000 5.330
44.14000 3.345
44.16000 1.671
44.18000 3.374
44.20000 4.662
44.22000 5.751
44.24000 -1.211
44.26000 -0.623
44.28000 -3.347
44.30000 0.503
44.32000 4.599
44.34000 -0.386
44.36000 -2.255
44.38000 0.539
44.40000 1.263
44.42000 2.437
44.44000 3.565
44.46000 0.956
44.48000 -2.208
44.50000 0.415
44.52000 6.439
44.54000 8.667
44.56000 4.374
44.58000 1.671
44.60000 3.780
44.62000 4.769
44.64000 3.694
44.66000 3.501
44.68000 3.061
44.70000 2.334
44.72000 -0.519
44.74000 -1.202
44.76000 0.621
44.78000 -2.815
44.80000 -1.173
44.82000 1.425
44.84000 2.890
44.86000 -1.805
44.88000 0.461
44.90000 2.849
44.92000 1.285
44.94000 -0.402
44.96000 1.613
44.98000 1.379
45.00000 1.262
45.02000 -0.405
45.04000 -0.844
45.06000 -0.905
45.08000 1.646
45.10000 2.421
45.12000 -1.067
45.14000 -2.955
45.16000 -1.577
45.18000 1.643
45.20000 -1.530
45.22000 0.804
45.24000 2.909
45.26000 2.862
45.28000 5.063
45.30000 0.589
45.32000 -2.027
45.34000 1.162
45.36000 -0.289
45.38000 -3.339
45.40000 -0.047
45.42000 3.407
45.44000 -1.170
45.46000 1.005
45.48000 1.629
45.50000 1.690
45.52000 1.520
45.54000 6.377
45.56000 6.062
45.58000 5.293
45.60000 9.559
45.62000 6.070
45.64000 3.325
45.66000 1.181
45.68000 4.926
45.70000 10.007
45.72000 10.873
45.74000 6.051
45.76000 4.527
45.78000 7.495
45.80000 9.494
45.82000 4.104
45.84000 4.022
45.86000 5.487
45.88000 9.412
45.90000 3.770
45.92000 6.249
45.94000 9.236
45.96000 12.025
45.98000 10.242
46.00000 11.327
46.02000 12.908
46.04000 13.351
46.06000 13.188
46.08000 17.941
46.10000 18.280
46.12000 13.885
46.14000 16.298
46.16000 20.721
46.18000 17.157
46.20000 18.937
46.22000 22.232
46.24000 21.227
46.26000 21.445
46.28000 23.187
46.30000 30.124
46.32000 28.183
46.34000 26.261
46.36000 20.900
46.38000 28.216
46.40000 29.989
46.42000 34.930
46.44000 33.388
46.46000 33.102
46.48000 35.471
46.50000 30.942
46.52000 35.390
46.54000 32.202
46.56000 34.556
46.58000 35.996
46.60000 40.259
46.62000 42.499
46.64000 53.144
46.66000 46.179
46.68000 46.745
46.70000 42.882
46.72000 44.321
46.74000 45.171
46.76000 48.935
46.78000 53.866
46.80000 58.154
46.82000 57.277
46.84000 57.283
46.86000 57.555
46.88000 63.405
46.90000 64.918
46.92000 65.753
46.94000 67.477
46.96000 70.706
46.98000 71.709
47.00000 67.427
47.02000 67.962
47.04000 70.949
47.06000 65.958
47.08000 70.581
47.10000 74.751
47.12000 68.696
47.14000 76.797
47.16000 86.016
47.18000 84.003
47.20000 78.941
47.22000 72.328
47.24000 70.262
47.26000 77.517
47.28000 82.654
47.30000 79.876
47.32000 78.608
47.34000 75.658
47.36000 75.749
47.38000 74.071
47.40000 78.740
47.42000 71.368
47.44000 63.104
47.46000 66.638
47.48000 69.927
47.50000 67.489
47.52000 70.728
47.54000 70.881
47.56000 72.891
47.58000 61.314
47.60000 61.336
47.62000 64.608
47.64000 61.797
47.66000 61.136
47.68000 58.637
47.70000 52.049
47.72000 45.734
47.74000 43.578
47.76000 44.886
47.78000 46.828
47.80000 44.984
47.82000 40.184
47.84000 40.807
47.86000 37.057
47.88000 33.748
47.90000 32.918
47.92000 34.869
47.94000 33.473
47.96000 33.572
47.98000 28.487
48.00000 29.392
48.02000 25.536
48.04000 26.268
48.06000 26.966
48.08000 27.762
48.10000 23.895
48.12000 23.236
48.14000 19.883
48.16000 19.856
48.18000 23.007
48.20000 22.503
48.22000 15.803
48.24000 13.060
48.26000 17.742
48.28000 16.150
48.30000 17.315
48.32000 11.080
48.34000 9.509
48.36000 6.525
48.38000 6.503
48.40000 5.704
48.42000 8.193
48.44000 10.610
48.46000 5.314
48.48000 6.917
48.50000 9.656
48.52000 9.152
48.54000 17.552
48.56000 9.524
48.58000 11.119
48.60000 4.153
48.62000 4.536
48.64000 3.987
48.66000 2.594
48.68000 5.076
48.70000 3.736
48.72000 4.905
48.74000 3.244
48.76000 -2.559
48.78000 1.623
48.80000 -0.772
48.82000 -1.108
48.84000 4.000
48.86000 1.803
48.88000 0.588
48.90000 9.801
48.92000 8.130
48.94000 6.964
48.96000 4.008
48.98000 -1.550
49.00000 5.919
49.02000 8.364
49.04000 9.859
49.06000 7.854
49.08000 4.778
49.10000 0.888
49.12000 0.082
49.14000 0.473
49.16000 2.848
49.18000 4.274
49.20000 5.475
49.22000 0.506
49.24000 -0.149
49.26000 -0.330
49.28000 -2.934
49.30000 -2.930
49.32000 -0.524
49.34000 2.579
49.36000 1.849
49.38000 0.172
49.40000 -2.073
49.42000 2.174
49.44000 6.026
49.46000 2.946
49.48000 1.432
49.50000 3.949
49.52000 2.541
49.54000 0.607
49.56000 0.401
49.58000 1.302
49.60000 -0.567
49.62000 4.116
49.64000 6.897
49.66000 1.126
49.68000 2.397
49.70000 3.492
49.72000 5.872
49.74000 8.772
49.76000 4.338
49.78000 6.737
49.80000 10.731
49.82000 7.656
49.84000 2.558
49.86000 1.782
49.88000 0.591
49.90000 3.902
49.92000 1.805
49.94000 1.919
49.96000 3.517
49.98000 4.540
50.00000 5.389
50.02000 4.677
50.04000 3.641
50.06000 4.245
50.08000 1.218
50.10000 0.315
50.12000 4.792
50.14000 7.113
50.16000 5.369
50.18000 5.670
50.20000 5.303
50.22000 5.958
50.24000 -0.976
50.26000 3.745
50.28000 5.240
50.30000 9.208
50.32000 5.606
50.34000 4.385
50.36000 5.306
50.38000 4.889
50.40000 5.475
50.42000 4.205
50.44000 0.643
50.46000 4.242
50.48000 4.687
50.50000 5.083
50.52000 5.004
50.54000 1.003
50.56000 -0.835
50.58000 1.975
50.60000 2.395
50.62000 -2.746
50.64000 2.736
50.66000 6.984
50.68000 7.139
50.70000 4.064
50.72000 2.903
50.74000 3.769
50.76000 1.775
50.78000 5.346
50.80000 5.620
50.82000 5.590
50.84000 6.307
50.86000 9.061
50.88000 8.911
50.90000 5.260
50.92000 5.651
50.94000 7.663
50.96000 9.516
50.98000 3.299
51.00000 4.957
51.02000 6.594
51.04000 4.368
51.06000 1.599
51.08000 4.172
51.10000 3.354
51.12000 3.742
51.14000 7.545
51.16000 6.803
51.18000 4.963
51.20000 2.176
51.22000 1.581
51.24000 2.640
51.26000 4.759
51.28000 4.811
51.30000 6.590
51.32000 5.926
51.34000 4.149
51.36000 4.187
51.38000 4.702
51.40000 4.952
51.42000 3.048
51.44000 3.240
51.46000 2.255
51.48000 1.748
51.50000 2.381
51.52000 4.030
51.54000 3.288
51.56000 2.132
51.58000 3.655
51.60000 6.741
51.62000 6.522
51.64000 -0.753
51.66000 3.611
51.68000 7.037
51.70000 3.212
51.72000 5.447
51.74000 2.576
51.76000 -0.735
51.78000 0.586
51.80000 3.855
51.82000 5.852
51.84000 6.822
51.86000 3.936
51.88000 -1.163
51.90000 0.858
51.92000 1.657
51.94000 -2.737
51.96000 2.538
51.98000 8.988
52.00000 8.715
52.02000 5.502
52.04000 5.637
52.06000 0.977
52.08000 0.882
52.10000 0.668
52.12000 0.154
52.14000 -0.428
52.16000 1.991
52.18000 2.515
52.20000 6.256
52.22000 8.116
52.24000 6.194
52.26000 1.832
52.28000 1.250
52.30000 -1.174
52.32000 2.752
52.34000 4.302
52.36000 4.070
52.38000 5.509
52.40000 0.080
52.42000 2.820
52.44000 2.446
52.46000 -0.206
52.48000 1.049
52.50000 1.553
52.52000 -0.295
52.54000 2.708
52.56000 5.117
52.58000 2.445
52.60000 6.692
52.62000 3.107
52.64000 2.558
52.66000 1.043
52.68000 2.549
52.70000 4.070
52.72000 6.701
52.74000 8.435
52.76000 3.272
52.78000 -2.430
52.80000 1.914
52.82000 5.718
52.84000 3.432
52.86000 1.640
52.88000 3.853
52.90000 4.524
52.92000 -0.011
52.94000 2.285
52.96000 3.487
52.98000 -0.394
53.00000 1.091
53.02000 3.925
53.04000 6.466
53.06000 9.404
53.08000 6.226
53.10000 4.421
53.12000 0.072
53.14000 -2.688
53.16000 0.208
53.18000 2.827
53.20000 7.867
53.22000 6.030
53.24000 -0.791
53.26000 0.323
53.28000 4.767
53.30000 9.054
53.32000 5.855
53.34000 6.077
53.36000 6.472
53.38000 -1.483
53.40000 1.183
53.42000 5.455
53.44000 2.908
53.46000 0.764
53.48000 2.268
53.50000 1.365
53.52000 5.681
53.54000 6.311
53.56000 5.899
53.58000 2.630
53.60000 4.893
53.62000 6.737
53.64000 6.215
53.66000 5.245
53.68000 2.323
53.70000 0.980
53.72000 -1.313
53.74000 -2.673
53.76000 6.125
53.78000 4.713
53.80000 5.242
53.82000 1.115
53.84000 0.023
53.86000 3.323
53.88000 2.430
53.90000 1.941
53.92000 4.947
53.94000 5.753
53.96000 5.359
53.98000 7.021
54.00000 4.893
54.02000 1.929
54.04000 4.028
54.06000 2.274
54.08000 4.581
54.10000 2.451
54.12000 4.405
54.14000 4.719
54.16000 -2.685
54.18000 1.944
54.20000 5.502
54.22000 5.675
54.24000 2.688
54.26000 5.801
54.28000 8.909
54.30000 5.130
54.32000 4.178
54.34000 6.369
54.36000 6.553
54.38000 3.660
54.40000 0.582
54.42000 0.181
54.44000 0.137
54.46000 -1.028
54.48000 -0.887
54.50000 3.224
54.52000 2.685
54.54000 1.555
54.56000 0.667
54.58000 1.191
54.60000 2.178
54.62000 0.952
54.64000 2.324
54.66000 -1.649
54.68000 0.441
54.70000 3.301
54.72000 1.903
54.74000 -1.730
54.76000 4.946
54.78000 3.931
54.80000 3.704
54.82000 5.640
54.84000 2.700
54.86000 0.016
54.88000 0.007
54.90000 1.319
54.92000 1.082
54.94000 0.969
54.96000 -0.752
54.98000 -2.179
55.00000 1.744
55.02000 5.313
55.04000 1.566
55.06000 4.413
55.08000 0.228
55.10000 2.569
55.12000 4.371
55.14000 4.815
55.16000 1.636
55.18000 2.551
55.20000 -0.902
55.22000 -1.352
55.24000 1.381
55.26000 3.210
55.28000 3.932
55.30000 1.839
55.32000 0.362
55.34000 2.133
55.36000 0.571
55.38000 2.984
55.40000 0.458
55.42000 -1.692
55.44000 -1.786
55.46000 6.131
55.48000 -1.250
55.50000 0.695
55.52000 5.454
55.54000 8.371
55.56000 4.388
55.58000 5.122
55.60000 1.597
55.62000 4.430
55.64000 5.982
55.66000 5.084
55.68000 0.094
55.70000 2.424
55.72000 -2.631
55.74000 -1.279
55.76000 1.432
55.78000 5.121
55.80000 3.538
55.82000 3.559
55.84000 2.263
55.86000 0.305
55.88000 1.392
55.90000 -2.144
55.92000 2.012
55.94000 4.926
55.96000 8.100
55.98000 4.159
56.00000 2.967
56.02000 0.977
56.04000 3.317
56.06000 6.518
56.08000 3.811
56.10000 3.225
56.12000 2.698
56.14000 2.899
56.16000 1.020
56.18000 4.611
56.20000 2.949
56.22000 0.959
56.24000 2.324
56.26000 -0.826
56.28000 -0.749
56.30000 1.302
56.32000 -0.010
56.34000 0.179
56.36000 2.850
56.38000 2.525
56.40000 4.952
56.42000 4.551
56.44000 5.829
56.46000 1.388
56.48000 0.912
56.50000 1.887
56.52000 3.305
56.54000 4.807
56.56000 0.351
56.58000 0.102
56.60000 2.309
56.62000 4.937
56.64000 1.361
56.66000 2.089
56.68000 3.128
56.70000 2.996
56.72000 1.231
56.74000 -1.798
56.76000 4.972
56.78000 1.405
56.80000 3.262
56.82000 7.331
56.84000 6.089
56.86000 1.148
56.88000 1.634
56.90000 2.003
56.92000 0.785
56.94000 -2.594
56.96000 0.626
56.98000 1.453
57.00000 5.984
57.02000 3.168
57.04000 1.941
57.06000 4.815
57.08000 3.683
57.10000 4.505
57.12000 5.325
57.14000 3.113
57.16000 0.282
57.18000 0.095
57.20000 5.952
57.22000 6.645
57.24000 5.338
57.26000 2.840
57.28000 5.428
57.30000 7.545
57.32000 2.353
57.34000 4.084
57.36000 1.035
57.38000 0.140
57.40000 4.537
57.42000 2.848
57.44000 2.952
57.46000 2.270
57.48000 2.511
57.50000 0.196
57.52000 -1.112
57.54000 2.147
57.56000 3.805
57.58000 5.386
57.60000 3.110
57.62000 4.962
57.64000 3.695
57.66000 2.728
57.68000 5.936
57.70000 1.866
57.72000 -0.467
57.74000 6.036
57.76000 6.914
57.78000 5.277
57.80000 2.726
57.82000 0.453
57.84000 2.407
57.86000 6.843
57.88000 6.190
57.90000 4.273
57.92000 4.650
57.94000 2.848
57.96000 1.085
57.98000 0.133
58.00000 2.656
58.02000 4.537
58.04000 4.474
58.06000 -2.539
58.08000 0.091
58.10000 2.639
58.12000 3.680
58.14000 5.536
58.16000 4.051
58.18000 6.636
58.20000 6.405
58.22000 4.444
58.24000 4.786
58.26000 7.477
58.28000 5.723
58.30000 4.092
58.32000 3.802
58.34000 3.493
58.36000 2.917
58.38000 2.985
58.40000 3.068
58.42000 3.346
58.44000 4.739
58.46000 2.836
58.48000 3.420
58.50000 1.609
58.52000 1.393
58.54000 3.760
58.56000 6.941
58.58000 -0.888
58.60000 -2.165
58.62000 2.082
58.64000 2.711
58.66000 -0.605
58.68000 4.091
58.70000 2.058
58.72000 0.203
58.74000 0.342
58.76000 3.125
58.78000 4.155
58.80000 4.475
58.82000 3.847
58.84000 5.305
58.86000 4.946
58.88000 1.880
58.90000 0.322
58.92000 2.769
58.94000 2.239
58.96000 -0.141
58.98000 6.838
59.00000 3.477
59.02000 2.519
59.04000 2.852
59.06000 1.711
59.08000 -1.693
59.10000 -1.951
59.12000 3.862
59.14000 -0.185
59.16000 -0.150
59.18000 0.671
59.20000 1.612
59.22000 1.502
59.24000 0.600
59.26000 1.816
59.28000 1.607
59.30000 0.910
59.32000 2.395
59.34000 4.723
59.36000 4.068
59.38000 1.885
59.40000 0.745
59.42000 0.412
59.44000 -2.488
59.46000 -1.605
59.48000 0.513
59.50000 -1.346
59.52000 2.521
59.54000 2.235
59.56000 2.681
59.58000 4.600
59.60000 4.339
59.62000 3.835
59.64000 1.081
59.66000 2.954
59.68000 2.011
59.70000 1.701
59.72000 5.378
59.74000 5.583
59.76000 6.981
59.78000 5.890
59.80000 -0.495
59.82000 -0.517
59.84000 0.344
59.86000 1.176
59.88000 3.308
59.90000 1.756
59.92000 -1.465
59.94000 -0.056
59.96000 3.223
59.98000 2.404
60.00000 0.461
60.02000 1.486
60.04000 5.774
60.06000 1.841
60.08000 1.804
60.10000 3.446
60.12000 1.432
60.14000 4.837
60.16000 6.427
60.18000 1.697
60.20000 1.547
60.22000 0.864
60.24000 2.927
60.26000 1.335
60.28000 2.095
60.30000 -0.428
60.32000 4.168
60.34000 7.794
60.36000 4.719
60.38000 -0.298
60.40000 3.086
60.42000 7.021
60.44000 8.890
60.46000 1.720
60.48000 -2.475
60.50000 -2.434
60.52000 -2.140
60.54000 0.173
60.56000 -1.181
60.58000 0.426
60.60000 3.003
60.62000 0.148
60.64000 2.619
60.66000 4.694
60.68000 3.676
60.70000 1.517
60.72000 4.192
60.74000 2.739
60.76000 0.876
60.78000 1.655
60.80000 -0.390
60.82000 2.971
60.84000 1.126
60.86000 0.586
60.88000 0.273
60.90000 0.464
60.92000 0.502
60.94000 0.897
60.96000 1.880
60.98000 0.297
61.00000 0.962
61.02000 -0.590
61.04000 -0.682
61.06000 1.214
61.08000 -0.950
61.10000 3.701
61.12000 6.689
61.14000 1.454
61.16000 -1.080
61.18000 -1.465
61.20000 1.405
61.22000 0.262
61.24000 3.430
61.26000 5.821
61.28000 2.442
61.30000 2.355
61.32000 3.560
61.34000 6.035
61.36000 1.155
61.38000 1.260
61.40000 -0.412
61.42000 -1.060
61.44000 0.361
61.46000 4.969
61.48000 4.424
61.50000 3.972
61.52000 1.220
61.54000 -1.683
61.56000 -1.834
61.58000 -1.319
61.60000 1.980
61.62000 -1.756
61.64000 -2.002
61.66000 3.731
61.68000 5.966
61.70000 4.281
61.72000 2.018
61.74000 -1.045
61.76000 -2.434
61.78000 3.943
61.80000 4.502
61.82000 0.631
61.84000 -1.493
61.86000 0.732
61.88000 2.362
61.90000 2.625
61.92000 3.086
61.94000 0.476
61.96000 -1.817
61.98000 -0.814
62.00000 -1.936
62.02000 0.814
62.04000 2.880
62.06000 -0.978
62.08000 -0.315
62.10000 -2.434
62.12000 -1.983
62.14000 1.775
62.16000 1.773
62.18000 3.437
62.20000 5.191
62.22000 2.968
62.24000 -0.484
62.26000 3.154
62.28000 1.798
62.30000 2.067
62.32000 4.254
62.34000 1.379
62.36000 0.421
62.38000 1.234
62.40000 0.338
62.42000 6.111
62.44000 2.572
62.46000 0.817
62.48000 -1.727
62.50000 -2.427
62.52000 2.588
62.54000 4.989
62.56000 7.047
62.58000 3.044
62.60000 2.170
62.62000 4.738
62.64000 2.675
62.66000 -2.426
62.68000 0.165
62.70000 1.771
62.72000 4.956
62.74000 4.444
62.76000 1.146
62.78000 1.693
62.80000 1.880
62.82000 0.852
62.84000 -0.196
62.86000 -1.485
62.88000 -0.663
62.90000 1.121
62.92000 3.901
62.94000 6.190
62.96000 1.501
62.98000 0.159
63.00000 -0.705
63.02000 2.908
63.04000 3.263
63.06000 2.250
63.08000 0.058
63.10000 -1.294
63.12000 2.189
63.14000 1.257
63.16000 0.695
63.18000 -1.706
63.20000 -2.366
63.22000 -0.621
63.24000 0.237
63.26000 1.253
63.28000 0.241
63.30000 0.610
63.32000 2.267
63.34000 1.397
63.36000 3.033
63.38000 5.268
63.40000 2.473
63.42000 1.407
63.44000 -0.541
63.46000 0.411
63.48000 0.296
63.50000 1.976
63.52000 1.122
63.54000 2.690
63.56000 -0.168
63.58000 0.015
63.60000 -2.410
63.62000 2.054
63.64000 2.053
63.66000 2.280
63.68000 2.439
63.70000 5.140
63.72000 3.079
63.74000 2.235
63.76000 1.210
63.78000 0.941
63.80000 2.230
63.82000 1.866
63.84000 1.239
63.86000 0.365
63.88000 -0.626
63.90000 3.069
63.92000 1.864
63.94000 -1.577
63.96000 -0.062
63.98000 1.274
64.00000 3.317
64.02000 2.583
64.04000 0.984
64.06000 -1.517
64.08000 -2.410
64.10000 -1.254
64.12000 2.724
64.14000 4.195
64.16000 2.445
64.18000 1.762
64.20000 3.132
64.22000 2.978
64.24000 3.227
64.26000 1.083
64.28000 -0.601
64.30000 -0.705
64.32000 0.597
64.34000 7.116
64.36000 5.127
64.38000 5.214
64.40000 4.646
64.42000 2.209
64.44000 -1.960
64.46000 1.454
64.48000 -1.066
64.50000 0.154
64.52000 -2.186
64.54000 1.777
64.56000 3.373
64.58000 5.126
64.60000 1.614
64.62000 -1.048
64.64000 0.435
64.66000 0.719
64.68000 -1.242
64.70000 -1.813
64.72000 2.652
64.74000 4.862
64.76000 3.891
64.78000 1.298
64.80000 -2.262
64.82000 2.842
64.84000 2.213
64.86000 3.018
64.88000 2.638
64.90000 1.268
64.92000 4.264
64.94000 3.976
64.96000 4.860
64.98000 4.349
65.00000 2.527
65.02000 5.233
65.04000 1.993
65.06000 0.768
65.08000 1.795
65.10000 0.891
65.12000 2.223
65.14000 3.464
65.16000 2.183
65.18000 0.347
65.20000 -0.615
65.22000 -1.190
65.24000 2.116
65.26000 -0.448
65.28000 0.803
65.30000 0.055
65.32000 -1.456
65.34000 0.021
65.36000 -1.737
65.38000 2.589
65.40000 2.494
65.42000 3.732
65.44000 7.047
65.46000 6.315
65.48000 0.315
65.50000 -1.561
65.52000 1.439
65.54000 -0.310
65.56000 0.850
65.58000 -0.090
65.60000 -0.836
65.62000 -0.136
65.64000 0.141
65.66000 -0.929
65.68000 1.009
65.70000 2.573
65.72000 3.183
65.74000 1.766
65.76000 4.383
65.78000 4.487
65.80000 3.012
65.82000 1.543
65.84000 5.363
65.86000 2.853
65.88000 1.547
65.90000 3.265
65.92000 4.315
65.94000 3.998
65.96000 5.576
65.98000 5.014
66.00000 0.334
66.02000 1.396
66.04000 3.282
66.06000 3.537
66.08000 0.759
66.10000 -2.401
66.12000 -0.800
66.14000 5.717
66.16000 6.763
66.18000 11.488
66.20000 7.851
66.22000 4.693
66.24000 2.950
66.26000 6.823
66.28000 6.405
66.30000 3.854
66.32000 3.209
66.34000 3.691
66.36000 0.552
66.38000 1.858
66.40000 2.900
66.42000 0.492
66.44000 1.178
66.46000 -1.021
66.48000 -0.299
66.50000 3.849
66.52000 5.559
66.54000 -0.874
66.56000 2.299
66.58000 -0.622
66.60000 0.058
66.62000 1.438
66.64000 1.014
66.66000 1.109
66.68000 -0.676
66.70000 1.830
66.72000 2.328
66.74000 2.560
66.76000 0.694
66.78000 -0.096
66.80000 2.473
66.82000 3.457
66.84000 1.772
66.86000 1.916
66.88000 4.185
66.90000 1.008
66.92000 -0.707
66.94000 -2.104
66.96000 -1.568
66.98000 -0.990
67.00000 -1.154
67.02000 1.793
67.04000 1.538
67.06000 1.868
67.08000 2.261
67.10000 2.435
67.12000 1.365
67.14000 0.374
67.16000 -0.455
67.18000 -1.370
67.20000 -2.480
67.22000 0.523
67.24000 0.107
67.26000 0.104
67.28000 0.254
67.30000 1.808
67.32000 2.446
67.34000 0.021
67.36000 -1.937
67.38000 -2.004
67.40000 1.538
67.42000 -1.043
67.44000 0.465
67.46000 2.244
67.48000 1.643
67.50000 2.292
67.52000 3.271
67.54000 0.953
67.56000 0.527
67.58000 2.922
67.60000 1.536
67.62000 0.624
67.64000 2.002
67.66000 2.349
67.68000 -0.905
67.70000 -2.500
67.72000 0.089
67.74000 2.350
67.76000 2.886
67.78000 3.396
67.80000 4.758
67.82000 4.105
67.84000 3.253
67.86000 4.310
67.88000 -0.151
67.90000 -0.478
67.92000 -0.453
67.94000 -0.452
67.96000 2.358
67.98000 2.701
68.00000 2.978
68.02000 0.265
68.04000 3.904
68.06000 4.179
68.08000 6.310
68.10000 2.902
68.12000 5.505
68.14000 3.881
68.16000 5.251
68.18000 9.126
68.20000 7.091
68.22000 8.125
68.24000 6.921
68.26000 4.659
68.28000 4.493
68.30000 5.759
68.32000 12.118
68.34000 12.079
68.36000 6.283
68.38000 4.992
68.40000 12.587
68.42000 10.421
68.44000 10.854
68.46000 7.359
68.48000 8.463
68.50000 9.460
68.52000 7.649
68.54000 8.789
68.56000 10.145
68.58000 11.896
68.60000 10.349
68.62000 12.847
68.64000 10.452
68.66000 13.460
68.68000 17.698
68.70000 18.932
68.72000 23.218
68.74000 18.402
68.76000 16.343
68.78000 14.114
68.80000 14.520
68.82000 17.788
68.84000 19.097
68.86000 18.573
68.88000 16.631
68.90000 21.286
68.92000 20.159
68.94000 19.818
68.96000 18.247
68.98000 18.487
69.00000 15.079
69.02000 18.500
69.04000 18.867
69.06000 21.595
69.08000 17.437
69.10000 19.298
69.12000 20.024
69.14000 18.878
69.16000 20.929
69.18000 21.031
69.20000 16.612
69.22000 13.764
69.24000 17.134
69.26000 18.526
69.28000 17.196
69.30000 18.302
69.32000 16.246
69.34000 16.624
69.36000 17.310
69.38000 16.124
69.40000 14.082
69.42000 8.608
69.44000 9.845
69.46000 12.980
69.48000 13.239
69.50000 9.965
69.52000 7.326
69.54000 9.833
69.56000 14.197
69.58000 8.565
69.60000 5.559
69.62000 8.241
69.64000 12.519
69.66000 11.719
69.68000 10.517
69.70000 11.948
69.72000 8.733
69.74000 3.709
69.76000 3.432
69.78000 6.073
69.80000 7.784
69.82000 4.588
69.84000 5.379
69.86000 8.721
69.88000 8.658
69.90000 4.683
69.92000 3.288
69.94000 0.905
69.96000 3.156
69.98000 6.981
70.00000 3.885
70.02000 1.490
70.04000 5.287
70.06000 3.308
70.08000 -0.112
70.10000 0.208
70.12000 0.525
70.14000 1.624
70.16000 -2.250
70.18000 -1.437
70.20000 4.141
70.22000 5.007
70.24000 3.555
70.26000 0.977
70.28000 0.055
70.30000 -1.170
70.32000 3.770
70.34000 6.302
70.36000 5.076
70.38000 3.613
70.40000 5.070
70.42000 3.062
70.44000 0.564
70.46000 -2.084
70.48000 -1.326
70.50000 0.627
70.52000 1.739
70.54000 0.808
70.56000 2.206
70.58000 1.587
70.60000 -1.007
70.62000 0.997
70.64000 -0.038
70.66000 3.456
70.68000 5.928
70.70000 2.319
70.72000 -1.027
70.74000 3.534
70.76000 4.441
70.78000 1.706
70.80000 -1.271
70.82000 2.127
70.84000 3.245
70.86000 3.121
70.88000 4.802
70.90000 3.256
70.92000 2.714
70.94000 4.613
70.96000 1.064
70.98000 1.244
71.00000 0.603
71.02000 -1.851
71.04000 -2.331
71.06000 0.330
71.08000 -0.845
71.10000 0.479
71.12000 3.321
71.14000 3.791
71.16000 5.930
71.18000 4.742
71.20000 2.902
71.22000 3.436
71.24000 1.343
71.26000 3.911
71.28000 1.758
71.30000 3.113
71.32000 5.917
71.34000 9.080
71.36000 7.342
71.38000 6.104
71.40000 1.900
71.42000 -1.493
71.44000 -1.494
71.46000 -0.438
71.48000 -2.289
71.50000 1.943
71.52000 2.397
71.54000 1.544
71.56000 2.961
71.58000 0.904
71.60000 3.487
71.62000 7.666
71.64000 7.116
71.66000 4.202
71.68000 3.577
71.70000 2.378
71.72000 2.770
71.74000 8.063
71.76000 7.015
71.78000 2.634
71.80000 1.663
71.82000 4.587
71.84000 4.020
71.86000 3.870
71.88000 3.680
71.90000 4.456
71.92000 -2.247
71.94000 -0.452
71.96000 2.106
71.98000 3.802
72.00000 3.029
72.02000 2.365
72.04000 3.176
72.06000 5.259
72.08000 5.127
72.10000 5.977
72.12000 3.817
72.14000 0.453
72.16000 -0.183
72.18000 1.472
72.20000 4.341
72.22000 -1.055
72.24000 -2.241
72.26000 2.684
72.28000 3.238
72.30000 0.586
72.32000 -0.131
72.34000 4.187
72.36000 3.134
72.38000 3.975
72.40000 4.021
72.42000 -1.599
72.44000 1.483
72.46000 6.338
72.48000 4.453
72.50000 0.331
72.52000 -2.236
72.54000 -1.883
72.56000 -0.478
72.58000 0.492
72.60000 0.054
72.62000 2.696
72.64000 2.252
72.66000 4.565
72.68000 4.192
72.70000 4.630
72.72000 4.119
72.74000 7.176
72.76000 2.748
72.78000 3.986
72.80000 4.620
72.82000 0.538
72.84000 1.696
72.86000 7.160
72.88000 4.658
72.90000 2.036
72.92000 0.614
72.94000 2.830
72.96000 5.970
72.98000 4.593
73.00000 3.266
73.02000 1.269
73.04000 0.004
73.06000 1.075
73.08000 0.927
73.10000 0.807
73.12000 -0.864
73.14000 -0.669
73.16000 3.580
73.18000 1.466
73.20000 -0.464
73.22000 -0.852
73.24000 0.725
73.26000 3.837
73.28000 0.231
73.30000 -0.537
73.32000 0.756
73.34000 1.224
73.36000 -2.257
73.38000 -1.778
73.40000 -1.854
73.42000 0.525
73.44000 4.287
73.46000 2.940
73.48000 3.278
73.50000 -1.446
73.52000 -1.947
73.54000 -0.661
73.56000 -2.050
73.58000 -0.156
73.60000 3.336
73.62000 6.535
73.64000 1.693
73.66000 0.384
73.68000 -0.444
73.70000 1.507
73.72000 0.158
73.74000 -1.002
73.76000 0.066
73.78000 -1.504
73.80000 -0.040
73.82000 0.308
73.84000 3.812
73.86000 -1.426
73.88000 1.213
73.90000 -1.104
73.92000 0.548
73.94000 6.560
73.96000 1.864
73.98000 -0.113
74.00000 4.286
74.02000 4.167
74.04000 5.793
74.06000 4.722
74.08000 4.564
74.10000 7.070
74.12000 5.570
74.14000 0.632
74.16000 0.883
74.18000 2.815
74.20000 2.692
74.22000 4.463
74.24000 7.798
74.26000 5.078
74.28000 2.315
74.30000 2.620
74.32000 4.260
74.34000 1.825
74.36000 3.093
74.38000 5.428
74.40000 6.098
74.42000 2.422
74.44000 -0.100
74.46000 -2.207
74.48000 -1.812
74.50000 0.761
74.52000 1.434
74.54000 2.264
74.56000 1.073
74.58000 1.736
74.60000 0.894
74.62000 -2.217
74.64000 1.952
74.66000 4.995
74.68000 0.594
74.70000 0.605
74.72000 4.323
74.74000 6.253
74.76000 4.105
74.78000 1.335
74.80000 1.847
74.82000 3.041
74.84000 -0.059
74.86000 -0.355
74.88000 0.943
74.90000 -1.659
74.92000 5.617
74.94000 4.595
74.96000 3.126
74.98000 3.416
75.00000 3.985
75.02000 1.862
75.04000 1.540
75.06000 2.303
75.08000 3.509
75.10000 0.339
75.12000 0.901
75.14000 2.615
75.16000 0.626
75.18000 2.150
75.20000 2.220
75.22000 1.429
75.24000 1.730
75.26000 2.697
75.28000 2.366
75.30000 0.327
75.32000 1.745
75.34000 3.434
75.36000 4.410
75.38000 4.010
75.40000 3.464
75.42000 3.515
75.44000 1.152
75.46000 -0.864
75.48000 -0.279
75.50000 0.530
75.52000 4.638
75.54000 2.996
75.56000 1.536
75.58000 3.560
75.60000 4.867
75.62000 6.205
75.64000 7.155
75.66000 3.072
75.68000 3.418
75.70000 3.964
75.72000 6.523
75.74000 9.773
75.76000 5.254
75.78000 4.547
75.80000 0.896
75.82000 -2.228
75.84000 3.520
75.86000 4.724
75.88000 6.520
75.90000 6.714
75.92000 6.571
75.94000 5.105
75.96000 5.338
75.98000 1.926
76.00000 -1.327
76.02000 -2.232
76.04000 0.868
76.06000 2.205
76.08000 2.007
76.10000 1.118
76.12000 0.515
76.14000 1.687
76.16000 1.632
76.18000 4.196
76.20000 2.463
76.22000 -0.906
76.24000 1.050
76.26000 3.468
76.28000 2.470
76.30000 -1.341
76.32000 -0.924
76.34000 0.115
76.36000 1.869
76.38000 4.316
76.40000 5.373
76.42000 5.302
76.44000 4.465
76.46000 5.272
76.48000 3.979
76.50000 1.166
76.52000 3.571
76.54000 3.862
76.56000 1.129
76.58000 1.984
76.60000 0.944
76.62000 1.406
76.64000 4.282
76.66000 4.306
76.68000 4.486
76.70000 1.317
76.72000 1.613
76.74000 1.500
76.76000 2.104
76.78000 1.781
76.80000 3.503
76.82000 4.750
76.84000 0.877
76.86000 1.955
76.88000 4.901
76.90000 1.553
76.92000 4.215
76.94000 2.613
76.96000 1.783
76.98000 4.206
77.00000 -0.205
77.02000 -1.541
77.04000 2.565
77.06000 1.234
77.08000 -2.245
77.10000 0.456
77.12000 3.840
77.14000 4.084
77.16000 1.378
77.18000 1.849
77.20000 2.459
77.22000 3.185
77.24000 3.024
77.26000 4.645
77.28000 8.248
77.30000 8.337
77.32000 4.050
77.34000 2.960
77.36000 -1.796
77.38000 3.121
77.40000 5.223
77.42000 5.047
77.44000 2.098
77.46000 3.346
77.48000 2.572
77.50000 4.231
77.52000 1.275
77.54000 4.580
77.56000 5.185
77.58000 1.057
77.60000 5.089
77.62000 6.484
77.64000 -0.889
77.66000 0.506
77.68000 2.937
77.70000 5.366
77.72000 2.177
77.74000 1.783
77.76000 0.234
77.78000 -1.116
77.80000 -0.480
77.82000 -0.632
77.84000 1.511
77.86000 1.029
77.88000 3.158
77.90000 3.277
77.92000 2.098
77.94000 2.802
77.96000 4.827
77.98000 2.445
78.00000 4.777
78.02000 6.076
78.04000 4.490
78.06000 5.346
78.08000 4.465
78.10000 3.638
78.12000 1.029
78.14000 0.610
78.16000 2.951
78.18000 -1.232
78.20000 3.959
78.22000 4.294
78.24000 5.604
78.26000 4.059
78.28000 4.081
78.30000 4.268
78.32000 -2.234
78.34000 0.062
78.36000 5.224
78.38000 5.889
78.40000 4.578
78.42000 4.431
78.44000 4.985
78.46000 5.130
78.48000 2.400
78.50000 2.449
78.52000 2.531
78.54000 2.461
78.56000 3.930
78.58000 2.383
78.60000 3.519
78.62000 7.447
78.64000 7.254
78.66000 5.568
78.68000 2.804
78.70000 2.016
78.72000 1.261
78.74000 4.184
78.76000 4.220
78.78000 2.120
78.80000 2.700
78.82000 0.150
78.84000 -2.274
78.86000 2.629
78.88000 2.557
78.90000 3.228
78.92000 5.110
78.94000 2.928
78.96000 4.699
78.98000 1.754
79.00000 5.506
79.02000 3.810
79.04000 4.309
79.06000 7.698
79.08000 5.742
79.10000 3.294
79.12000 -2.089
79.14000 -1.947
79.16000 -0.656
79.18000 3.680
79.20000 3.463
79.22000 4.933
79.24000 4.132
79.26000 1.209
79.28000 0.477
79.30000 0.844
79.32000 -1.558
79.34000 1.438
79.36000 1.286
79.38000 5.851
79.40000 5.091
79.42000 3.249
79.44000 0.801
79.46000 -0.860
79.48000 0.211
79.50000 3.902
79.52000 1.606
79.54000 2.740
79.56000 3.956
79.58000 2.601
79.60000 1.248
79.62000 -1.326
79.64000 0.421
79.66000 1.623
79.68000 4.099
79.70000 3.766
79.72000 3.458
79.74000 2.447
79.76000 1.025
79.78000 2.722
79.80000 5.207
79.82000 1.643
79.84000 2.057
79.86000 4.974
79.88000 2.331
79.90000 2.715
79.92000 3.687
79.94000 0.498
79.96000 2.459
79.98000 2.133
80.00000 2.862
80.02000 2.912
80.04000 6.195
80.06000 4.841
80.08000 0.581
80.10000 3.186
80.12000 4.043
80.14000 4.175
80.16000 5.237
80.18000 6.725
80.20000 3.480
80.22000 4.087
80.24000 2.801
80.26000 2.003
80.28000 1.141
80.30000 6.692
80.32000 7.638
80.34000 5.835
80.36000 2.175
80.38000 0.608
80.40000 3.690
80.42000 1.921
80.44000 -2.294
80.46000 1.102
80.48000 2.864
80.50000 1.032
80.52000 4.374
80.54000 3.820
80.56000 2.175
80.58000 2.372
80.60000 5.992
80.62000 3.239
80.64000 3.099
80.66000 -2.290
80.68000 -0.445
80.70000 2.788
80.72000 -0.559
80.74000 0.295
80.76000 3.506
80.78000 4.427
80.80000 3.706
80.82000 -0.881
80.84000 -0.310
80.86000 0.346
80.88000 -0.966
80.90000 2.333
80.92000 4.146
80.94000 2.063
80.96000 3.574
80.98000 4.505
81.00000 5.189
81.02000 4.751
81.04000 8.263
81.06000 4.571
81.08000 3.014
81.10000 5.268
81.12000 6.230
81.14000 0.018
81.16000 1.985
81.18000 3.014
81.20000 9.047
81.22000 4.137
81.24000 4.927
81.26000 3.288
81.28000 5.033
81.30000 4.942
81.32000 4.743
81.34000 -0.252
81.36000 -0.640
81.38000 -2.374
81.40000 -0.887
81.42000 4.027
81.44000 4.817
81.46000 4.321
81.48000 0.115
81.50000 3.366
81.52000 10.671
81.54000 6.389
81.56000 5.196
81.58000 6.175
81.60000 4.593
81.62000 0.567
81.64000 -0.739
81.66000 2.734
81.68000 10.033
81.70000 7.841
81.72000 7.531
81.74000 4.386
81.76000 5.643
81.78000 4.753
81.80000 1.420
81.82000 1.347
81.84000 2.296
81.86000 2.869
81.88000 2.204
81.90000 3.278
81.92000 5.712
81.94000 3.958
81.96000 7.031
81.98000 4.994
82.00000 1.253
82.02000 1.017
82.04000 3.423
82.06000 7.666
82.08000 8.513
82.10000 6.166
82.12000 3.543
82.14000 4.084
82.16000 2.659
82.18000 5.282
82.20000 6.319
82.22000 7.696
82.24000 6.590
82.26000 3.026
82.28000 4.889
82.30000 8.043
82.32000 4.605
82.34000 7.137
82.36000 12.004
82.38000 8.488
82.40000 9.305
82.42000 12.063
82.44000 10.402
82.46000 12.327
82.48000 13.244
82.50000 15.822
82.52000 15.450
82.54000 12.852
82.56000 16.985
82.58000 15.076
82.60000 16.917
82.62000 13.243
82.64000 14.471
82.66000 13.187
82.68000 13.975
82.70000 16.464
82.72000 18.246
82.74000 17.316
82.76000 14.032
82.78000 15.483
82.80000 23.059
82.82000 21.457
82.84000 21.076
82.86000 22.181
82.88000 27.924
82.90000 26.351
82.92000 25.972
82.94000 20.939
82.96000 26.516
82.98000 36.911
83.00000 35.372
83.02000 32.969
83.04000 32.385
83.06000 25.790
83.08000 33.344
83.10000 32.820
83.12000 31.526
83.14000 30.327
83.16000 29.837
83.18000 33.828
83.20000 32.428
83.22000 34.260
83.24000 33.996
83.26000 37.611
83.28000 32.703
83.30000 33.361
83.32000 32.108
83.34000 27.169
83.36000 24.984
83.38000 26.188
83.40000 34.907
83.42000 34.570
83.44000 28.652
83.46000 32.428
83.48000 38.436
83.50000 32.291
83.52000 30.688
83.54000 27.854
83.56000 27.300
83.58000 30.153
83.60000 33.934
83.62000 26.037
83.64000 22.241
83.66000 27.115
83.68000 31.275
83.70000 30.299
83.72000 29.315
83.74000 27.100
83.76000 24.817
83.78000 26.448
83.80000 23.857
83.82000 22.965
83.84000 21.651
83.86000 20.460
83.88000 17.448
83.90000 21.053
83.92000 19.991
83.94000 19.138
83.96000 19.128
83.98000 17.829
84.00000 16.629
84.02000 15.700
84.04000 21.273
84.06000 25.016
84.08000 19.123
84.10000 15.692
84.12000 15.911
84.14000 9.996
84.16000 11.836
84.18000 14.586
84.20000 14.974
84.22000 16.102
84.24000 12.476
84.26000 11.080
84.28000 8.023
84.30000 5.494
84.32000 7.093
84.34000 9.819
84.36000 8.138
84.38000 10.590
84.40000 10.722
84.42000 11.467
84.44000 7.079
84.46000 5.047
84.48000 4.198
84.50000 3.265
84.52000 7.722
84.54000 9.360
84.56000 7.600
84.58000 8.492
84.60000 7.272
84.62000 10.341
84.64000 6.680
84.66000 3.318
84.68000 5.812
84.70000 4.373
84.72000 5.605
84.74000 6.648
84.76000 8.744
84.78000 6.036
84.80000 4.032
84.82000 0.468
84.84000 -1.181
84.86000 2.663
84.88000 2.664
84.90000 3.252
84.92000 1.029
84.94000 1.000
84.96000 4.525
84.98000 11.738
85.00000 6.881
85.02000 3.938
85.04000 0.917
85.06000 2.673
85.08000 3.637
85.10000 2.554
85.12000 1.754
85.14000 4.529
85.16000 1.086
85.18000 0.243
85.20000 -2.332
85.22000 1.339
85.24000 2.464
85.26000 5.176
85.28000 4.620
85.30000 5.649
85.32000 2.819
85.34000 4.253
85.36000 5.681
85.38000 4.166
85.40000 3.403
85.42000 -2.332
85.44000 -1.909
85.46000 4.236
85.48000 6.948
85.50000 5.787
85.52000 1.266
85.54000 0.989
85.56000 3.610
85.58000 3.415
85.60000 1.071
85.62000 1.421
85.64000 0.488
85.66000 0.491
85.68000 2.510
85.70000 3.207
85.72000 4.226
85.74000 3.009
85.76000 3.492
85.78000 -1.643
85.80000 -1.231
85.82000 3.113
85.84000 1.374
85.86000 -0.768
85.88000 2.087
85.90000 4.910
85.92000 6.233
85.94000 4.128
85.96000 -0.539
85.98000 1.052
86.00000 -2.334
86.02000 -1.657
86.04000 -0.811
86.06000 1.031
86.08000 2.161
86.10000 0.767
86.12000 2.115
86.14000 3.399
86.16000 4.466
86.18000 1.951
86.20000 -0.751
86.22000 1.488
86.24000 -0.069
86.26000 -1.344
86.28000 1.849
86.30000 2.442
86.32000 1.665
86.34000 0.838
86.36000 1.570
86.38000 0.107
86.40000 2.540
86.42000 2.942
86.44000 -1.059
86.46000 -1.350
86.48000 -0.390
86.50000 -1.818
86.52000 0.110
86.54000 2.480
86.56000 -0.762
86.58000 -1.232
86.60000 1.083
86.62000 -0.011
86.64000 -1.357
86.66000 -1.861
86.68000 1.288
86.70000 4.220
86.72000 3.530
86.74000 2.750
86.76000 3.148
86.78000 5.489
86.80000 7.322
86.82000 6.093
86.84000 4.871
86.86000 4.990
86.88000 8.180
86.90000 7.181
86.92000 8.542
86.94000 11.183
86.96000 11.865
86.98000 10.672
87.00000 10.270
87.02000 7.930
87.04000 7.044
87.06000 8.491
87.08000 14.021
87.10000 15.288
87.12000 11.771
87.14000 13.229
87.16000 14.168
87.18000 15.043
87.20000 15.205
87.22000 11.865
87.24000 14.358
87.26000 15.784
87.28000 18.358
87.30000 20.179
87.32000 19.137
87.34000 21.983
87.36000 19.039
87.38000 20.948
87.40000 17.729
87.42000 24.528
87.44000 27.271
87.46000 31.863
87.48000 30.645
87.50000 29.191
87.52000 23.923
87.54000 26.717
87.56000 28.392
87.58000 27.327
87.60000 25.146
87.62000 30.176
87.64000 32.730
87.66000 30.611
87.68000 35.229
87.70000 32.639
87.72000 30.917
87.74000 30.583
87.76000 29.098
87.78000 29.712
87.80000 27.232
87.82000 27.930
87.84000 27.764
87.86000 25.793
87.88000 32.469
87.90000 32.000
87.92000 28.880
87.94000 29.020
87.96000 32.400
87.98000 27.268
88.00000 26.734
88.02000 26.884
88.04000 22.373
88.06000 22.938
88.08000 26.024
88.10000 30.940
88.12000 31.639
88.14000 28.334
88.16000 22.774
88.18000 25.581
88.20000 22.277
88.22000 24.604
88.24000 26.672
88.26000 21.740
88.28000 21.058
88.30000 21.158
88.32000 19.199
88.34000 17.596
88.36000 18.324
88.38000 18.162
88.40000 14.140
88.42000 14.378
88.44000 16.625
88.46000 19.131
88.48000 15.606
88.50000 16.276
88.52000 13.716
88.54000 14.246
88.56000 16.604
88.58000 13.554
88.60000 12.233
88.62000 12.130
88.64000 9.494
88.66000 8.883
88.68000 11.223
88.70000 6.984
88.72000 9.427
88.74000 8.746
88.76000 6.481
88.78000 7.745
88.80000 7.775
88.82000 1.844
88.84000 9.801
88.86000 9.797
88.88000 9.765
88.90000 9.718
88.92000 5.882
88.94000 3.938
88.96000 3.773
88.98000 5.133
89.00000 5.603
89.02000 7.896
89.04000 6.901
89.06000 5.503
89.08000 6.402
89.10000 7.363
89.12000 10.737
89.14000 9.127
89.16000 6.015
89.18000 6.004
89.20000 5.488
89.22000 5.419
89.24000 6.914
89.26000 9.767
89.28000 5.778
89.30000 2.200
89.32000 5.316
89.34000 9.203
89.36000 5.398
89.38000 1.315
89.40000 3.129
89.42000 6.098
89.44000 7.651
89.46000 6.165
89.48000 4.638
89.50000 -0.186
89.52000 -2.134
89.54000 4.654
89.56000 4.807
89.58000 7.317
89.60000 10.472
89.62000 7.892
89.64000 6.397
89.66000 3.497
89.68000 5.572
89.70000 5.822
89.72000 5.449
89.74000 7.487
89.76000 7.840
89.78000 2.711
89.80000 5.976
89.82000 8.101
89.84000 5.406
89.86000 0.101
89.88000 -0.655
89.90000 4.950
89.92000 6.819
89.94000 4.179
89.96000 2.520
89.98000 2.017
90.00000 1.750
90.02000 2.479
90.04000 1.572
90.06000 0.679
90.08000 4.203
90.10000 6.376
90.12000 3.964
90.14000 0.985
90.16000 2.661
90.18000 7.118
90.20000 1.668
90.22000 -1.846
90.24000 1.645
90.26000 2.130
90.28000 3.948
90.30000 4.287
90.32000 -1.074
90.34000 -1.222
90.36000 -0.090
90.38000 -1.851
90.40000 1.403
90.42000 -2.136
90.44000 0.789
90.46000 3.224
90.48000 4.724
90.50000 2.993
90.52000 -0.427
90.54000 0.546
90.56000 0.111
90.58000 1.953
90.60000 2.754
90.62000 -0.541
90.64000 1.223
90.66000 2.113
90.68000 1.644
90.70000 7.953
90.72000 6.171
90.74000 4.638
90.76000 5.228
90.78000 7.345
90.80000 5.955
90.82000 4.386
90.84000 8.051
90.86000 7.938
90.88000 5.754
90.90000 9.403
90.92000 10.101
90.94000 3.866
90.96000 -2.108
90.98000 -0.521
91.00000 3.715
91.02000 4.166
91.04000 5.968
91.06000 7.425
91.08000 7.337
91.10000 2.630
91.12000 -1.261
91.14000 1.672
91.16000 4.880
91.18000 8.362
91.20000 6.918
91.22000 6.269
91.24000 3.508
91.26000 3.570
91.28000 5.850
91.30000 3.152
91.32000 1.444
91.34000 -1.355
91.36000 1.249
91.38000 2.192
91.40000 3.746
91.42000 5.344
91.44000 1.004
91.46000 2.787
91.48000 -0.901
91.50000 3.995
91.52000 4.180
91.54000 2.884
91.56000 -0.244
91.58000 1.079
91.60000 5.503
91.62000 3.836
91.64000 4.555
91.66000 3.887
91.68000 5.594
91.70000 2.607
91.72000 2.217
91.74000 1.951
91.76000 4.330
91.78000 5.558
91.80000 1.391
91.82000 1.088
91.84000 1.984
91.86000 1.411
91.88000 5.704
91.90000 7.938
91.92000 6.410
91.94000 4.761
91.96000 0.608
91.98000 3.825
92.00000 0.057
92.02000 0.244
92.04000 6.547
92.06000 2.099
92.08000 6.689
92.10000 9.002
92.12000 1.677
92.14000 1.916
92.16000 5.978
92.18000 5.728
92.20000 4.838
92.22000 4.781
92.24000 0.498
92.26000 -1.505
92.28000 -2.152
92.30000 1.842
92.32000 3.376
92.34000 4.827
92.36000 7.182
92.38000 3.664
92.40000 -0.445
92.42000 -1.189
92.44000 2.775
92.46000 0.792
92.48000 -0.189
92.50000 4.594
92.52000 7.039
92.54000 -1.891
92.56000 -1.317
92.58000 1.421
92.60000 3.608
92.62000 3.884
92.64000 2.178
92.66000 0.444
92.68000 0.228
92.70000 0.276
92.72000 0.232
92.74000 0.877
92.76000 1.698
92.78000 3.507
92.80000 2.094
92.82000 2.095
92.84000 4.286
92.86000 8.999
92.88000 7.084
92.90000 3.644
92.92000 5.067
92.94000 0.947
92.96000 1.956
92.98000 2.698
93.00000 2.714
93.02000 0.283
93.04000 1.454
93.06000 6.186
93.08000 3.803
93.10000 6.105
93.12000 4.774
93.14000 -2.146
93.16000 -0.400
93.18000 5.354
93.20000 4.839
93.22000 3.530
93.24000 3.682
93.26000 3.009
93.28000 6.963
93.30000 6.269
93.32000 1.600
93.34000 1.838
93.36000 0.274
93.38000 -1.413
93.40000 0.870
93.42000 3.255
93.44000 4.817
93.46000 5.438
93.48000 7.008
93.50000 5.654
93.52000 4.067
93.54000 1.513
93.56000 4.114
93.58000 5.479
93.60000 7.510
93.62000 3.684
93.64000 -0.535
93.66000 -2.129
93.68000 5.685
93.70000 5.118
93.72000 3.233
93.74000 -0.764
93.76000 -0.197
93.78000 1.248
93.80000 3.316
93.82000 8.420
93.84000 3.625
93.86000 3.999
93.88000 2.547
93.90000 1.544
93.92000 0.523
93.94000 3.153
93.96000 10.479
93.98000 5.138
94.00000 3.940
94.02000 2.740
94.04000 7.316
94.06000 2.925
94.08000 -0.167
94.10000 8.048
94.12000 4.965
94.14000 5.184
94.16000 4.813
94.18000 4.640
94.20000 0.966
94.22000 -2.170
94.24000 0.874
94.26000 4.977
94.28000 2.553
94.30000 7.039
94.32000 5.023
94.34000 -1.383
94.36000 -2.184
94.38000 -0.377
94.40000 0.995
94.42000 -0.627
94.44000 -0.897
94.46000 1.300
94.48000 3.532
94.50000 1.420
94.52000 4.193
94.54000 3.555
94.56000 0.955
94.58000 -2.015
94.60000 3.368
94.62000 3.441
94.64000 -1.162
94.66000 -1.201
94.68000 4.711
94.70000 2.079
94.72000 -0.596
94.74000 2.998
94.76000 2.669
94.78000 -0.020
94.80000 1.870
94.82000 0.550
94.84000 4.766
94.86000 1.525
94.88000 4.483
94.90000 6.575
94.92000 3.992
94.94000 -0.134
94.96000 3.518
94.98000 5.908
95.00000 10.728
95.02000 4.612
95.04000 3.715
95.06000 -0.632
95.08000 -0.262
95.10000 0.430
95.12000 6.171
95.14000 6.483
95.16000 6.144
95.18000 2.086
95.20000 3.103
95.22000 3.493
95.24000 3.418
95.26000 3.643
95.28000 5.074
95.30000 8.188
95.32000 2.305
95.34000 1.702
95.36000 3.428
95.38000 4.192
95.40000 8.240
95.42000 6.983
95.44000 5.473
95.46000 1.570
95.48000 -0.946
95.50000 0.333
95.52000 0.833
95.54000 0.575
95.56000 1.101
95.58000 -0.322
95.60000 5.646
95.62000 6.712
95.64000 3.214
95.66000 -2.191
95.68000 1.274
95.70000 -0.712
95.72000 0.877
95.74000 1.797
95.76000 -0.182
95.78000 4.096
95.80000 5.103
95.82000 1.885
95.84000 2.809
95.86000 0.992
95.88000 -0.171
95.90000 4.875
95.92000 3.861
95.94000 5.429
95.96000 9.104
95.98000 3.885
96.00000 -2.177
96.02000 -1.674
96.04000 7.189
96.06000 8.921
96.08000 8.044
96.10000 7.461
96.12000 6.210
96.14000 5.397
96.16000 4.194
96.18000 6.229
96.20000 6.021
96.22000 2.918
96.24000 4.133
96.26000 0.952
96.28000 -1.051
96.30000 3.754
96.32000 4.715
96.34000 4.413
96.36000 4.504
96.38000 4.799
96.40000 10.241
96.42000 7.412
96.44000 5.006
96.46000 5.835
96.48000 5.351
96.50000 5.896
96.52000 3.722
96.54000 5.236
96.56000 8.552
96.58000 8.964
96.60000 8.208
96.62000 5.927
96.64000 6.100
96.66000 3.794
96.68000 0.010
96.70000 2.762
96.72000 9.033
96.74000 7.089
96.76000 10.837
96.78000 8.387
96.80000 1.215
96.82000 4.723
96.84000 4.711
96.86000 10.367
96.88000 8.143
96.90000 10.208
96.92000 7.466
96.94000 4.465
96.96000 3.859
96.98000 3.379
97.00000 5.479
97.02000 7.370
97.04000 4.077
97.06000 9.170
97.08000 9.074
97.10000 3.952
97.12000 6.635
97.14000 6.621
97.16000 7.661
97.18000 6.945
97.20000 4.160
97.22000 8.784
97.24000 7.813
97.26000 11.405
97.28000 9.433
97.30000 6.679
97.32000 11.442
97.34000 11.491
97.36000 14.017
97.38000 5.769
97.40000 3.496
97.42000 5.544
97.44000 3.500
97.46000 4.486
97.48000 5.067
97.50000 6.520
97.52000 8.736
97.54000 8.998
97.56000 10.739
97.58000 10.120
97.60000 4.041
97.62000 -2.055
97.64000 4.161
97.66000 9.009
97.68000 17.035
97.70000 13.557
97.72000 5.247
97.74000 6.651
97.76000 9.824
97.78000 2.997
97.80000 4.985
97.82000 7.196
97.84000 9.776
97.86000 3.929
97.88000 4.008
97.90000 7.312
97.92000 5.411
97.94000 9.036
97.96000 6.668
97.98000 1.514
98.00000 5.357
98.02000 5.274
98.04000 11.339
98.06000 10.125
98.08000 5.050
98.10000 2.929
98.12000 3.030
98.14000 9.302
98.16000 14.185
98.18000 15.256
98.20000 7.024
98.22000 1.145
98.24000 -0.310
98.26000 5.084
98.28000 12.603
98.30000 8.076
98.32000 10.153
98.34000 13.316
98.36000 14.048
98.38000 11.127
98.40000 8.109
98.42000 4.475
98.44000 10.489
98.46000 8.728
98.48000 4.568
98.50000 3.584
98.52000 1.045
98.54000 6.698
98.56000 10.539
98.58000 4.325
98.60000 -0.116
98.62000 3.193
98.64000 1.875
98.66000 3.901
98.68000 1.908
98.70000 -0.763
98.72000 5.023
98.74000 3.901
98.76000 3.029
98.78000 3.417
98.80000 7.501
98.82000 7.234
98.84000 -0.623
98.86000 5.264
98.88000 1.008
98.90000 -1.933
98.92000 4.187
98.94000 14.186
98.96000 13.411
98.98000 13.707
99.00000 0.252
99.02000 7.285
99.04000 8.896
99.06000 13.117
99.08000 8.266
99.10000 2.148
99.12000 3.493
99.14000 -1.272
99.16000 -1.672
99.18000 3.947
99.20000 8.051
99.22000 2.936
99.24000 -0.945
99.26000 -2.095
99.28000 1.217
99.30000 5.353
99.32000 4.052
99.34000 4.845
99.36000 4.991
99.38000 -1.186
99.40000 7.305
99.42000 3.604
99.44000 10.375
99.46000 9.149
99.48000 9.952
99.50000 7.207
99.52000 5.315
99.54000 7.178
99.56000 10.959
99.58000 10.258
99.60000 3.488
99.62000 6.580
99.64000 14.985
99.66000 10.095
99.68000 6.472
99.70000 -2.101
99.72000 3.511
99.74000 1.440
99.76000 0.398
99.78000 14.521
99.80000 18.776
99.82000 13.699
99.84000 3.776
99.86000 -2.006
99.88000 9.048
99.90000 12.144
99.92000 -5.737
99.94000 -2.198
99.96000 7.796
99.98000 0.000
