'Id: "0011388" Comment: "Integrate frame 0011388_Au-Ir-Rh_Rh-rich_XRD-Mapping-034-0000.gfrmwith cursor Wedge Cursor #5" Operator: "B?rgel" Anode: "Cu" Wavelength: "1.5406" Scantype: "2Theta (TwoTheta)" TimePerStep: "1" X: "13.5" Y: "-31.5" Z: "5.95" 
10.00000 0.000
10.02000 -4.051
10.04000 6.041
10.06000 4.987
10.08000 2.151
10.10000 12.868
10.12000 19.434
10.14000 25.019
10.16000 18.333
10.18000 -1.894
10.20000 -3.994
10.22000 11.010
10.24000 12.338
10.26000 8.409
10.28000 4.465
10.30000 1.205
10.32000 5.482
10.34000 6.844
10.36000 -2.780
10.38000 9.016
10.40000 10.664
10.42000 11.941
10.44000 20.064
10.46000 3.879
10.48000 4.345
10.50000 24.486
10.52000 12.800
10.54000 6.252
10.56000 11.606
10.58000 18.147
10.60000 16.434
10.62000 9.207
10.64000 10.154
10.66000 10.222
10.68000 4.299
10.70000 11.618
10.72000 15.377
10.74000 10.568
10.76000 13.730
10.78000 23.886
10.80000 15.375
10.82000 20.932
10.84000 30.162
10.86000 27.216
10.88000 18.628
10.90000 30.208
10.92000 25.566
10.94000 9.984
10.96000 4.309
10.98000 9.298
11.00000 25.672
11.02000 14.393
11.04000 11.213
11.06000 8.301
11.08000 14.603
11.10000 11.161
11.12000 14.309
11.14000 16.657
11.16000 12.638
11.18000 15.947
11.20000 17.329
11.22000 11.046
11.24000 12.711
11.26000 17.611
11.28000 20.652
11.30000 22.044
11.32000 14.020
11.34000 15.530
11.36000 18.878
11.38000 7.330
11.40000 8.201
11.42000 13.639
11.44000 22.415
11.46000 26.459
11.48000 12.569
11.50000 17.597
11.52000 9.421
11.54000 12.425
11.56000 22.892
11.58000 31.404
11.60000 26.992
11.62000 28.304
11.64000 19.446
11.66000 13.756
11.68000 15.942
11.70000 14.999
11.72000 17.463
11.74000 24.185
11.76000 26.192
11.78000 19.978
11.80000 6.114
11.82000 9.202
11.84000 21.841
11.86000 20.522
11.88000 10.840
11.90000 14.092
11.92000 13.532
11.94000 11.824
11.96000 14.008
11.98000 8.544
12.00000 3.575
12.02000 18.930
12.04000 23.308
12.06000 21.775
12.08000 19.682
12.10000 19.158
12.12000 11.320
12.14000 20.770
12.16000 18.287
12.18000 22.584
12.20000 26.950
12.22000 31.432
12.24000 29.057
12.26000 26.949
12.28000 23.450
12.30000 15.025
12.32000 19.831
12.34000 26.364
12.36000 18.785
12.38000 11.030
12.40000 22.145
12.42000 24.900
12.44000 22.212
12.46000 23.084
12.48000 16.283
12.50000 16.531
12.52000 17.911
12.54000 22.099
12.56000 30.896
12.58000 33.443
12.60000 28.188
12.62000 25.242
12.64000 25.041
12.66000 22.354
12.68000 14.591
12.70000 11.986
12.72000 18.756
12.74000 11.852
12.76000 11.167
12.78000 17.977
12.80000 25.383
12.82000 24.245
12.84000 19.694
12.86000 16.127
12.88000 13.271
12.90000 18.184
12.92000 16.439
12.94000 15.780
12.96000 11.897
12.98000 15.109
13.00000 9.652
13.02000 19.985
13.04000 19.997
13.06000 19.257
13.08000 9.744
13.10000 14.011
13.12000 28.628
13.14000 32.129
13.16000 24.320
13.18000 23.772
13.20000 21.472
13.22000 13.882
13.24000 16.805
13.26000 15.841
13.28000 17.048
13.30000 11.077
13.32000 8.837
13.34000 13.832
13.36000 8.870
13.38000 22.190
13.40000 32.137
13.42000 24.865
13.44000 15.331
13.46000 7.639
13.48000 13.982
13.50000 12.522
13.52000 13.160
13.54000 14.564
13.56000 19.664
13.58000 13.004
13.60000 3.849
13.62000 9.555
13.64000 14.282
13.66000 24.721
13.68000 17.672
13.70000 9.332
13.72000 4.889
13.74000 18.504
13.76000 12.463
13.78000 19.063
13.80000 21.417
13.82000 23.722
13.84000 19.636
13.86000 22.024
13.88000 25.132
13.90000 18.849
13.92000 10.558
13.94000 20.811
13.96000 12.700
13.98000 6.544
14.00000 6.440
14.02000 11.562
14.04000 20.518
14.06000 19.077
14.08000 14.240
14.10000 17.227
14.12000 18.360
14.14000 21.249
14.16000 22.038
14.18000 18.242
14.20000 9.018
14.22000 13.274
14.24000 14.552
14.26000 19.855
14.28000 28.596
14.30000 20.054
14.32000 17.432
14.34000 15.143
14.36000 12.198
14.38000 14.700
14.40000 12.843
14.42000 24.347
14.44000 18.927
14.46000 7.709
14.48000 7.401
14.50000 11.258
14.52000 20.850
14.54000 11.274
14.56000 8.734
14.58000 8.063
14.60000 16.637
14.62000 14.583
14.64000 8.240
14.66000 11.303
14.68000 14.036
14.70000 17.909
14.72000 19.421
14.74000 16.467
14.76000 6.817
14.78000 10.655
14.80000 10.651
14.82000 8.251
14.84000 6.569
14.86000 9.344
14.88000 17.803
14.90000 20.658
14.92000 9.871
14.94000 11.752
14.96000 10.715
14.98000 11.398
15.00000 24.045
15.02000 13.481
15.04000 6.173
15.06000 14.556
15.08000 8.774
15.10000 9.685
15.12000 11.079
15.14000 8.735
15.16000 15.190
15.18000 15.497
15.20000 11.873
15.22000 1.260
15.24000 3.746
15.26000 6.817
15.28000 10.273
15.30000 12.555
15.32000 16.372
15.34000 23.441
15.36000 22.995
15.38000 17.982
15.40000 7.481
15.42000 2.533
15.44000 11.723
15.46000 14.999
15.48000 26.243
15.50000 15.649
15.52000 6.446
15.54000 4.859
15.56000 7.478
15.58000 9.291
15.60000 15.398
15.62000 14.642
15.64000 14.537
15.66000 18.090
15.68000 21.749
15.70000 14.750
15.72000 3.543
15.74000 4.991
15.76000 13.295
15.78000 14.244
15.80000 14.881
15.82000 17.125
15.84000 9.916
15.86000 13.958
15.88000 17.263
15.90000 13.462
15.92000 10.157
15.94000 10.142
15.96000 8.165
15.98000 12.681
16.00000 8.352
16.02000 11.450
16.04000 12.044
16.06000 9.843
16.08000 10.686
16.10000 14.145
16.12000 13.546
16.14000 4.466
16.16000 11.497
16.18000 18.877
16.20000 16.079
16.22000 12.345
16.24000 16.977
16.26000 15.562
16.28000 14.169
16.30000 13.636
16.32000 17.290
16.34000 14.175
16.36000 8.749
16.38000 16.558
16.40000 9.272
16.42000 9.789
16.44000 8.887
16.46000 14.002
16.48000 11.558
16.50000 13.154
16.52000 15.367
16.54000 13.643
16.56000 11.609
16.58000 3.779
16.60000 -0.445
16.62000 -4.322
16.64000 3.649
16.66000 12.717
16.68000 13.434
16.70000 5.002
16.72000 13.023
16.74000 18.107
16.76000 12.754
16.78000 5.199
16.80000 9.411
16.82000 10.076
16.84000 10.834
16.86000 16.551
16.88000 8.701
16.90000 7.481
16.92000 7.738
16.94000 11.549
16.96000 21.577
16.98000 17.848
17.00000 13.127
17.02000 23.379
17.04000 15.271
17.06000 6.389
17.08000 7.283
17.10000 4.877
17.12000 9.722
17.14000 9.277
17.16000 10.172
17.18000 14.049
17.20000 17.780
17.22000 6.987
17.24000 8.322
17.26000 11.539
17.28000 20.853
17.30000 12.916
17.32000 10.087
17.34000 16.225
17.36000 18.844
17.38000 17.969
17.40000 10.934
17.42000 8.659
17.44000 8.486
17.46000 13.028
17.48000 15.161
17.50000 10.797
17.52000 3.465
17.54000 2.510
17.56000 4.841
17.58000 5.643
17.60000 9.933
17.62000 11.934
17.64000 5.907
17.66000 3.723
17.68000 1.888
17.70000 1.525
17.72000 6.610
17.74000 10.913
17.76000 7.756
17.78000 4.988
17.80000 4.237
17.82000 2.629
17.84000 -0.208
17.86000 2.451
17.88000 9.373
17.90000 5.636
17.92000 15.350
17.94000 13.795
17.96000 18.013
17.98000 6.336
18.00000 5.537
18.02000 2.425
18.04000 6.449
18.06000 7.029
18.08000 7.352
18.10000 2.956
18.12000 6.588
18.14000 8.011
18.16000 0.014
18.18000 -2.424
18.20000 3.973
18.22000 8.581
18.24000 10.940
18.26000 12.990
18.28000 10.026
18.30000 0.514
18.32000 1.042
18.34000 4.278
18.36000 0.327
18.38000 7.971
18.40000 4.793
18.42000 -0.840
18.44000 3.097
18.46000 9.895
18.48000 8.640
18.50000 10.119
18.52000 10.114
18.54000 11.895
18.56000 16.181
18.58000 10.421
18.60000 1.576
18.62000 7.135
18.64000 13.707
18.66000 12.043
18.68000 9.381
18.70000 3.662
18.72000 3.030
18.74000 -4.248
18.76000 2.624
18.78000 5.849
18.80000 6.730
18.82000 9.016
18.84000 8.913
18.86000 8.883
18.88000 16.566
18.90000 7.233
18.92000 3.305
18.94000 6.038
18.96000 3.506
18.98000 8.242
19.00000 8.571
19.02000 5.323
19.04000 3.947
19.06000 7.016
19.08000 6.297
19.10000 0.695
19.12000 4.168
19.14000 6.158
19.16000 8.278
19.18000 10.374
19.20000 13.940
19.22000 11.735
19.24000 3.314
19.26000 -0.946
19.28000 4.449
19.30000 2.803
19.32000 9.227
19.34000 10.164
19.36000 0.989
19.38000 -0.251
19.40000 -1.147
19.42000 0.736
19.44000 -0.982
19.46000 2.088
19.48000 3.853
19.50000 2.908
19.52000 0.782
19.54000 4.014
19.56000 3.981
19.58000 2.599
19.60000 4.590
19.62000 5.614
19.64000 8.662
19.66000 4.320
19.68000 -3.307
19.70000 -0.993
19.72000 0.187
19.74000 2.066
19.76000 9.761
19.78000 9.288
19.80000 4.297
19.82000 -0.058
19.84000 0.969
19.86000 -4.066
19.88000 -3.321
19.90000 -4.216
19.92000 2.531
19.94000 8.765
19.96000 5.781
19.98000 6.687
20.00000 1.991
20.02000 4.248
20.04000 1.427
20.06000 11.969
20.08000 8.742
20.10000 0.289
20.12000 3.572
20.14000 6.414
20.16000 0.812
20.18000 -0.549
20.20000 4.520
20.22000 6.388
20.24000 5.744
20.26000 4.605
20.28000 8.289
20.30000 0.521
20.32000 1.389
20.34000 1.790
20.36000 4.623
20.38000 3.290
20.40000 -2.912
20.42000 4.026
20.44000 5.008
20.46000 5.092
20.48000 4.616
20.50000 1.985
20.52000 -0.720
20.54000 -0.388
20.56000 -4.198
20.58000 -0.372
20.60000 5.016
20.62000 4.597
20.64000 1.388
20.66000 3.077
20.68000 1.148
20.70000 5.359
20.72000 1.238
20.74000 -3.223
20.76000 -2.290
20.78000 -0.319
20.80000 -1.598
20.82000 -0.413
20.84000 9.181
20.86000 7.857
20.88000 1.690
20.90000 6.036
20.92000 2.914
20.94000 4.256
20.96000 -1.497
20.98000 2.127
21.00000 1.421
21.02000 6.542
21.04000 8.252
21.06000 -4.173
21.08000 -3.127
21.10000 3.592
21.12000 4.121
21.14000 -1.322
21.16000 -0.499
21.18000 5.234
21.20000 9.730
21.22000 4.565
21.24000 3.955
21.26000 -1.932
21.28000 0.626
21.30000 2.329
21.32000 2.342
21.34000 4.329
21.36000 3.376
21.38000 -0.026
21.40000 -2.259
21.42000 -1.772
21.44000 1.701
21.46000 3.668
21.48000 9.169
21.50000 3.193
21.52000 0.278
21.54000 -0.058
21.56000 0.421
21.58000 -0.935
21.60000 3.730
21.62000 4.988
21.64000 5.542
21.66000 2.717
21.68000 3.444
21.70000 3.006
21.72000 -1.183
21.74000 -4.122
21.76000 3.774
21.78000 5.200
21.80000 2.151
21.82000 0.024
21.84000 2.022
21.86000 6.026
21.88000 5.817
21.90000 0.204
21.92000 5.490
21.94000 4.667
21.96000 5.287
21.98000 7.991
22.00000 2.335
22.02000 1.594
22.04000 9.648
22.06000 5.802
22.08000 -0.123
22.10000 0.799
22.12000 3.861
22.14000 -2.782
22.16000 -1.523
22.18000 8.158
22.20000 9.545
22.22000 4.832
22.24000 -1.394
22.26000 4.754
22.28000 2.357
22.30000 -3.329
22.32000 -4.071
22.34000 3.496
22.36000 4.333
22.38000 -0.131
22.40000 2.501
22.42000 6.252
22.44000 1.601
22.46000 0.439
22.48000 -3.061
22.50000 -0.409
22.52000 11.192
22.54000 14.525
22.56000 5.999
22.58000 -4.056
22.60000 2.166
22.62000 4.379
22.64000 -1.155
22.66000 3.543
22.68000 8.330
22.70000 11.706
22.72000 4.638
22.74000 2.397
22.76000 2.389
22.78000 -1.915
22.80000 -3.742
22.82000 -2.263
22.84000 1.641
22.86000 4.022
22.88000 9.831
22.90000 12.015
22.92000 10.739
22.94000 5.203
22.96000 7.716
22.98000 1.389
23.00000 -0.588
23.02000 0.043
23.04000 -2.597
23.06000 -4.039
23.08000 -0.230
23.10000 5.437
23.12000 8.253
23.14000 5.065
23.16000 2.737
23.18000 -2.489
23.20000 3.163
23.22000 4.848
23.24000 6.299
23.26000 7.229
23.28000 14.713
23.30000 10.485
23.32000 6.920
23.34000 3.678
23.36000 1.288
23.38000 2.846
23.40000 2.541
23.42000 0.966
23.44000 1.778
23.46000 5.215
23.48000 7.133
23.50000 4.193
23.52000 -0.854
23.54000 -0.864
23.56000 -3.397
23.58000 -3.387
23.60000 -1.998
23.62000 -0.042
23.64000 3.444
23.66000 2.570
23.68000 9.905
23.70000 9.944
23.72000 2.661
23.74000 2.178
23.76000 2.809
23.78000 0.840
23.80000 -0.304
23.82000 -3.993
23.84000 2.213
23.86000 5.986
23.88000 8.420
23.90000 2.880
23.92000 0.841
23.94000 0.232
23.96000 -1.764
23.98000 5.830
24.00000 5.415
24.02000 0.785
24.04000 -1.061
24.06000 1.770
24.08000 -2.563
24.10000 -2.478
24.12000 1.091
24.14000 6.727
24.16000 9.845
24.18000 2.946
24.20000 -1.984
24.22000 5.839
24.24000 3.582
24.26000 0.861
24.28000 2.577
24.30000 1.968
24.32000 -0.591
24.34000 -3.577
24.36000 1.947
24.38000 4.579
24.40000 1.333
24.42000 1.678
24.44000 1.234
24.46000 -3.963
24.48000 5.138
24.50000 6.380
24.52000 2.060
24.54000 5.428
24.56000 5.310
24.58000 2.952
24.60000 2.608
24.62000 -2.354
24.64000 -2.786
24.66000 0.682
24.68000 13.437
24.70000 3.579
24.72000 -3.835
24.74000 -3.943
24.76000 -2.176
24.78000 -0.855
24.80000 0.409
24.82000 3.378
24.84000 3.149
24.86000 3.289
24.88000 -0.760
24.90000 -3.422
24.92000 -2.434
24.94000 -2.995
24.96000 -3.243
24.98000 1.416
25.00000 4.823
25.02000 -1.723
25.04000 -2.385
25.06000 0.536
25.08000 1.343
25.10000 3.237
25.12000 3.882
25.14000 -0.904
25.16000 3.068
25.18000 7.188
25.20000 9.109
25.22000 2.590
25.24000 -3.109
25.26000 -1.522
25.28000 -1.890
25.30000 -1.214
25.32000 4.425
25.34000 6.410
25.36000 -1.436
25.38000 -3.026
25.40000 0.873
25.42000 -1.639
25.44000 1.763
25.46000 7.786
25.48000 8.768
25.50000 4.707
25.52000 2.498
25.54000 0.835
25.56000 0.622
25.58000 -3.157
25.60000 3.145
25.62000 -0.955
25.64000 -3.155
25.66000 -2.742
25.68000 1.135
25.70000 -0.529
25.72000 -0.555
25.74000 0.213
25.76000 1.857
25.78000 0.240
25.80000 1.347
25.82000 6.995
25.84000 7.215
25.86000 3.701
25.88000 1.094
25.90000 4.381
25.92000 2.351
25.94000 1.694
25.96000 1.102
25.98000 -3.415
26.00000 1.051
26.02000 6.804
26.04000 3.372
26.06000 4.145
26.08000 2.037
26.10000 1.573
26.12000 3.768
26.14000 -0.846
26.16000 -0.841
26.18000 3.612
26.20000 3.219
26.22000 3.857
26.24000 6.433
26.26000 2.781
26.28000 2.630
26.30000 2.470
26.32000 -0.843
26.34000 1.641
26.36000 9.415
26.38000 10.506
26.40000 6.072
26.42000 2.726
26.44000 2.586
26.46000 2.261
26.48000 1.249
26.50000 3.534
26.52000 2.548
26.54000 6.748
26.56000 8.005
26.58000 -2.652
26.60000 -3.829
26.62000 1.556
26.64000 6.760
26.66000 5.120
26.68000 -0.337
26.70000 0.265
26.72000 0.184
26.74000 0.157
26.76000 -0.262
26.78000 2.744
26.80000 2.676
26.82000 8.099
26.84000 3.582
26.86000 2.564
26.88000 4.334
26.90000 4.312
26.92000 -1.713
26.94000 -1.157
26.96000 6.439
26.98000 8.417
27.00000 7.079
27.02000 8.059
27.04000 5.108
27.06000 2.006
27.08000 1.730
27.10000 6.492
27.12000 3.845
27.14000 0.958
27.16000 1.293
27.18000 -1.145
27.20000 4.660
27.22000 6.193
27.24000 1.998
27.26000 4.368
27.28000 8.070
27.30000 5.245
27.32000 -0.045
27.34000 -2.871
27.36000 -2.519
27.38000 1.727
27.40000 4.395
27.42000 4.015
27.44000 2.815
27.46000 5.703
27.48000 8.204
27.50000 3.950
27.52000 4.054
27.54000 6.888
27.56000 6.623
27.58000 0.138
27.60000 -0.551
27.62000 -1.195
27.64000 -1.555
27.66000 2.670
27.68000 4.965
27.70000 6.216
27.72000 3.333
27.74000 2.981
27.76000 0.741
27.78000 1.552
27.80000 -1.155
27.82000 -0.110
27.84000 5.159
27.86000 3.973
27.88000 7.183
27.90000 5.051
27.92000 4.013
27.94000 3.191
27.96000 2.115
27.98000 7.566
28.00000 3.313
28.02000 4.053
28.04000 5.013
28.06000 2.127
28.08000 2.818
28.10000 3.238
28.12000 2.998
28.14000 3.899
28.16000 2.112
28.18000 2.210
28.20000 3.771
28.22000 1.909
28.24000 -0.480
28.26000 1.479
28.28000 8.065
28.30000 7.713
28.32000 2.623
28.34000 -3.719
28.36000 -0.014
28.38000 4.829
28.40000 3.965
28.42000 5.893
28.44000 6.267
28.46000 2.599
28.48000 3.237
28.50000 4.238
28.52000 3.222
28.54000 8.204
28.56000 7.599
28.58000 5.805
28.60000 5.745
28.62000 4.343
28.64000 2.779
28.66000 3.260
28.68000 8.654
28.70000 9.650
28.72000 10.333
28.74000 4.646
28.76000 5.027
28.78000 4.274
28.80000 2.344
28.82000 5.587
28.84000 3.432
28.86000 1.025
28.88000 1.179
28.90000 8.776
28.92000 4.758
28.94000 7.668
28.96000 6.914
28.98000 2.144
29.00000 6.136
29.02000 0.493
29.04000 -0.015
29.06000 -3.239
29.08000 1.395
29.10000 2.257
29.12000 -1.271
29.14000 -0.024
29.16000 -0.234
29.18000 3.397
29.20000 3.419
29.22000 2.289
29.24000 3.234
29.26000 4.418
29.28000 2.402
29.30000 5.804
29.32000 7.105
29.34000 6.954
29.36000 5.009
29.38000 2.460
29.40000 9.644
29.42000 10.725
29.44000 7.538
29.46000 3.551
29.48000 0.067
29.50000 5.195
29.52000 6.322
29.54000 0.939
29.56000 -0.152
29.58000 0.580
29.60000 7.585
29.62000 8.840
29.64000 3.797
29.66000 2.588
29.68000 6.266
29.70000 5.590
29.72000 6.738
29.74000 2.302
29.76000 1.844
29.78000 4.260
29.80000 7.208
29.82000 7.465
29.84000 3.729
29.86000 0.246
29.88000 -3.639
29.90000 -0.167
29.92000 5.261
29.94000 3.429
29.96000 0.060
29.98000 4.039
30.00000 1.050
30.02000 -0.922
30.04000 1.978
30.06000 5.096
30.08000 2.072
30.10000 -0.016
30.12000 -1.400
30.14000 2.096
30.16000 0.621
30.18000 0.642
30.20000 0.622
30.22000 -3.598
30.24000 1.280
30.26000 4.454
30.28000 4.379
30.30000 0.938
30.32000 2.834
30.34000 1.390
30.36000 3.957
30.38000 3.503
30.40000 4.209
30.42000 6.361
30.44000 7.012
30.46000 5.392
30.48000 0.697
30.50000 -2.876
30.52000 2.089
30.54000 3.689
30.56000 0.277
30.58000 -3.637
30.60000 3.318
30.62000 3.030
30.64000 -0.580
30.66000 -0.152
30.68000 -1.554
30.70000 4.148
30.72000 -1.436
30.74000 1.071
30.76000 6.903
30.78000 5.443
30.80000 8.641
30.82000 6.046
30.84000 4.631
30.86000 9.851
30.88000 10.401
30.90000 3.829
30.92000 1.360
30.94000 4.286
30.96000 -1.109
30.98000 2.003
31.00000 6.706
31.02000 6.827
31.04000 2.728
31.06000 2.805
31.08000 1.775
31.10000 0.335
31.12000 -0.709
31.14000 1.558
31.16000 -3.623
31.18000 -0.683
31.20000 1.555
31.22000 4.447
31.24000 5.518
31.26000 -0.103
31.28000 0.918
31.30000 1.133
31.32000 2.193
31.34000 6.759
31.36000 6.019
31.38000 4.950
31.40000 7.643
31.42000 3.841
31.44000 -2.932
31.46000 -3.615
31.48000 7.712
31.50000 5.803
31.52000 1.517
31.54000 0.662
31.56000 3.574
31.58000 -1.696
31.60000 -2.164
31.62000 0.210
31.64000 1.540
31.66000 4.142
31.68000 2.459
31.70000 -2.817
31.72000 1.249
31.74000 0.033
31.76000 -1.463
31.78000 -1.031
31.80000 -1.594
31.82000 0.443
31.84000 2.241
31.86000 -0.138
31.88000 -0.878
31.90000 -0.200
31.92000 3.828
31.94000 -1.293
31.96000 3.701
31.98000 2.521
32.00000 3.212
32.02000 1.030
32.04000 -1.341
32.06000 -3.602
32.08000 3.646
32.10000 3.940
32.12000 0.293
32.14000 -1.087
32.16000 -1.515
32.18000 1.406
32.20000 -1.578
32.22000 -3.062
32.24000 0.520
32.26000 1.837
32.28000 2.215
32.30000 0.580
32.32000 -0.525
32.34000 -1.115
32.36000 6.242
32.38000 6.589
32.40000 -0.804
32.42000 -0.060
32.44000 1.775
32.46000 4.502
32.48000 10.261
32.50000 4.608
32.52000 0.318
32.54000 -1.193
32.56000 -1.397
32.58000 -3.583
32.60000 -0.978
32.62000 -1.740
32.64000 0.446
32.66000 1.888
32.68000 6.363
32.70000 1.706
32.72000 -1.695
32.74000 -2.285
32.76000 0.388
32.78000 1.757
32.80000 4.655
32.82000 5.228
32.84000 2.526
32.86000 2.165
32.88000 -1.996
32.90000 -3.135
32.92000 -2.377
32.94000 2.167
32.96000 4.124
32.98000 -0.709
33.00000 -1.972
33.02000 -3.000
33.04000 2.746
33.06000 5.195
33.08000 -2.160
33.10000 0.260
33.12000 3.375
33.14000 0.726
33.16000 0.650
33.18000 2.884
33.20000 5.278
33.22000 3.984
33.24000 2.141
33.26000 2.130
33.28000 -1.345
33.30000 1.024
33.32000 0.553
33.34000 1.266
33.36000 1.473
33.38000 4.405
33.40000 3.433
33.42000 3.499
33.44000 5.871
33.46000 8.438
33.48000 4.904
33.50000 -0.960
33.52000 -0.399
33.54000 3.662
33.56000 5.888
33.58000 8.545
33.60000 6.315
33.62000 8.148
33.64000 1.243
33.66000 -0.815
33.68000 0.147
33.70000 1.233
33.72000 3.723
33.74000 -2.835
33.76000 -2.097
33.78000 3.259
33.80000 6.936
33.82000 7.386
33.84000 3.711
33.86000 5.378
33.88000 1.799
33.90000 4.968
33.92000 3.738
33.94000 5.307
33.96000 9.101
33.98000 6.435
34.00000 2.927
34.02000 6.077
34.04000 7.393
34.06000 1.749
34.08000 0.665
34.10000 -3.505
34.12000 -3.504
34.14000 5.692
34.16000 2.671
34.18000 -0.768
34.20000 1.703
34.22000 -0.454
34.24000 0.113
34.26000 4.152
34.28000 4.508
34.30000 8.649
34.32000 6.997
34.34000 4.190
34.36000 2.458
34.38000 8.174
34.40000 2.804
34.42000 -0.291
34.44000 1.655
34.46000 6.770
34.48000 7.622
34.50000 6.377
34.52000 6.188
34.54000 7.506
34.56000 10.533
34.58000 8.298
34.60000 4.292
34.62000 3.073
34.64000 7.512
34.66000 7.477
34.68000 6.403
34.70000 2.375
34.72000 1.860
34.74000 3.741
34.76000 5.927
34.78000 4.554
34.80000 3.389
34.82000 -0.192
34.84000 0.846
34.86000 1.956
34.88000 1.412
34.90000 5.819
34.92000 11.407
34.94000 10.262
34.96000 3.566
34.98000 1.042
35.00000 -0.723
35.02000 4.549
35.04000 1.922
35.06000 -1.566
35.08000 -1.400
35.10000 2.823
35.12000 5.125
35.14000 2.660
35.16000 -1.657
35.18000 0.154
35.20000 -1.081
35.22000 -1.932
35.24000 -3.472
35.26000 -0.627
35.28000 6.334
35.30000 2.730
35.32000 -2.270
35.34000 1.494
35.36000 -0.935
35.38000 -1.607
35.40000 3.770
35.42000 1.480
35.44000 5.089
35.46000 7.657
35.48000 4.024
35.50000 0.436
35.52000 2.688
35.54000 6.947
35.56000 7.134
35.58000 8.658
35.60000 3.353
35.62000 -3.214
35.64000 1.845
35.66000 3.969
35.68000 1.629
35.70000 2.305
35.72000 1.670
35.74000 0.399
35.76000 -2.145
35.78000 0.230
35.80000 -0.320
35.82000 7.402
35.84000 6.850
35.86000 6.137
35.88000 4.750
35.90000 5.849
35.92000 1.260
35.94000 3.198
35.96000 -0.225
35.98000 0.515
36.00000 2.302
36.02000 6.125
36.04000 2.231
36.06000 7.469
36.08000 7.032
36.10000 -1.126
36.12000 0.759
36.14000 6.132
36.16000 2.443
36.18000 2.290
36.20000 1.520
36.22000 7.617
36.24000 7.016
36.26000 4.580
36.28000 0.954
36.30000 -3.468
36.32000 -0.562
36.34000 0.348
36.36000 0.845
36.38000 3.027
36.40000 5.110
36.42000 2.997
36.44000 2.647
36.46000 3.050
36.48000 2.252
36.50000 2.499
36.52000 5.303
36.54000 3.248
36.56000 -2.681
36.58000 -1.522
36.60000 0.472
36.62000 1.421
36.64000 4.290
36.66000 -0.327
36.68000 -0.243
36.70000 1.232
36.72000 -3.472
36.74000 0.193
36.76000 4.729
36.78000 3.490
36.80000 0.453
36.82000 4.617
36.84000 6.827
36.86000 0.699
36.88000 0.037
36.90000 1.922
36.92000 1.208
36.94000 -0.169
36.96000 -1.143
36.98000 -2.458
37.00000 -0.390
37.02000 4.700
37.04000 0.430
37.06000 -2.445
37.08000 0.270
37.10000 -2.263
37.12000 0.651
37.14000 -0.130
37.16000 -0.286
37.18000 1.569
37.20000 -0.274
37.22000 -0.224
37.24000 0.071
37.26000 1.405
37.28000 2.584
37.30000 2.800
37.32000 -1.111
37.34000 -0.172
37.36000 1.178
37.38000 -0.176
37.40000 -1.920
37.42000 -3.553
37.44000 -3.195
37.46000 -2.657
37.48000 -3.470
37.50000 -0.849
37.52000 -0.825
37.54000 -1.907
37.56000 -0.111
37.58000 -0.548
37.60000 1.152
37.62000 2.647
37.64000 0.375
37.66000 1.379
37.68000 1.624
37.70000 1.464
37.72000 -0.883
37.74000 1.932
37.76000 2.823
37.78000 0.157
37.80000 -3.595
37.82000 -3.336
37.84000 0.901
37.86000 1.377
37.88000 -1.580
37.90000 -1.209
37.92000 -0.272
37.94000 1.862
37.96000 4.751
37.98000 0.776
38.00000 0.886
38.02000 1.772
38.04000 2.449
38.06000 -0.441
38.08000 -1.413
38.10000 -2.069
38.12000 2.198
38.14000 3.262
38.16000 7.460
38.18000 4.603
38.20000 6.328
38.22000 6.916
38.24000 7.761
38.26000 10.468
38.28000 8.224
38.30000 6.564
38.32000 4.672
38.34000 3.744
38.36000 8.898
38.38000 10.642
38.40000 5.221
38.42000 6.650
38.44000 9.752
38.46000 6.720
38.48000 9.429
38.50000 9.315
38.52000 8.050
38.54000 11.549
38.56000 8.229
38.58000 13.957
38.60000 12.528
38.62000 11.972
38.64000 14.873
38.66000 14.247
38.68000 14.884
38.70000 11.995
38.72000 10.646
38.74000 9.819
38.76000 13.613
38.78000 14.275
38.80000 13.929
38.82000 10.092
38.84000 8.660
38.86000 14.448
38.88000 22.863
38.90000 16.995
38.92000 13.585
38.94000 12.480
38.96000 14.008
38.98000 14.127
39.00000 17.655
39.02000 18.033
39.04000 21.035
39.06000 23.767
39.08000 22.329
39.10000 27.455
39.12000 27.430
39.14000 29.382
39.16000 25.188
39.18000 22.711
39.20000 28.849
39.22000 30.171
39.24000 31.598
39.26000 27.821
39.28000 28.409
39.30000 32.767
39.32000 36.395
39.34000 32.957
39.36000 39.709
39.38000 45.697
39.40000 42.022
39.42000 41.153
39.44000 41.624
39.46000 46.656
39.48000 46.456
39.50000 46.737
39.52000 51.651
39.54000 57.029
39.56000 52.878
39.58000 58.371
39.60000 63.064
39.62000 67.103
39.64000 71.451
39.66000 76.834
39.68000 78.898
39.70000 75.800
39.72000 87.522
39.74000 89.195
39.76000 96.495
39.78000 97.139
39.80000 100.265
39.82000 111.566
39.84000 117.717
39.86000 112.932
39.88000 117.710
39.90000 133.081
39.92000 136.357
39.94000 135.856
39.96000 141.350
39.98000 144.508
40.00000 152.249
40.02000 167.737
40.04000 177.544
40.06000 191.652
40.08000 196.449
40.10000 203.197
40.12000 212.149
40.14000 217.935
40.16000 233.231
40.18000 244.297
40.20000 258.375
40.22000 275.795
40.24000 289.466
40.26000 298.232
40.28000 309.992
40.30000 327.615
40.32000 333.436
40.34000 340.688
40.36000 361.849
40.38000 382.699
40.40000 403.375
40.42000 415.593
40.44000 429.053
40.46000 443.435
40.48000 450.407
40.50000 466.296
40.52000 473.860
40.54000 485.647
40.56000 497.142
40.58000 509.542
40.60000 516.053
40.62000 523.937
40.64000 540.928
40.66000 550.677
40.68000 546.133
40.70000 550.203
40.72000 549.426
40.74000 550.074
40.76000 550.685
40.78000 554.302
40.80000 551.495
40.82000 532.165
40.84000 522.122
40.86000 511.155
40.88000 491.979
40.90000 490.414
40.92000 488.523
40.94000 473.765
40.96000 461.259
40.98000 450.280
41.00000 435.186
41.02000 412.473
41.04000 395.231
41.06000 377.266
41.08000 362.049
41.10000 353.350
41.12000 343.265
41.14000 322.695
41.16000 311.410
41.18000 301.674
41.20000 286.793
41.22000 268.797
41.24000 259.220
41.26000 254.577
41.28000 236.706
41.30000 225.979
41.32000 214.588
41.34000 200.480
41.36000 186.991
41.38000 185.542
41.40000 182.636
41.42000 163.939
41.44000 158.757
41.46000 150.302
41.48000 142.194
41.50000 138.182
41.52000 128.583
41.54000 116.885
41.56000 114.217
41.58000 105.575
41.60000 106.065
41.62000 103.279
41.64000 93.422
41.66000 91.101
41.68000 79.195
41.70000 76.703
41.72000 74.809
41.74000 73.197
41.76000 67.085
41.78000 66.559
41.80000 65.178
41.82000 60.365
41.84000 56.186
41.86000 55.852
41.88000 49.120
41.90000 43.662
41.92000 48.368
41.94000 42.951
41.96000 39.426
41.98000 39.109
42.00000 39.416
42.02000 34.885
42.04000 35.272
42.06000 34.975
42.08000 34.738
42.10000 26.467
42.12000 20.141
42.14000 21.449
42.16000 22.656
42.18000 23.656
42.20000 23.183
42.22000 19.790
42.24000 21.097
42.26000 20.917
42.28000 18.200
42.30000 18.264
42.32000 18.783
42.34000 19.586
42.36000 16.499
42.38000 14.163
42.40000 17.207
42.42000 15.305
42.44000 11.020
42.46000 12.130
42.48000 13.376
42.50000 11.118
42.52000 6.551
42.54000 8.563
42.56000 11.850
42.58000 14.010
42.60000 11.501
42.62000 5.347
42.64000 3.673
42.66000 5.764
42.68000 6.681
42.70000 5.149
42.72000 9.298
42.74000 8.142
42.76000 4.565
42.78000 1.824
42.80000 0.869
42.82000 2.722
42.84000 4.779
42.86000 4.727
42.88000 5.000
42.90000 0.435
42.92000 -2.352
42.94000 -2.350
42.96000 0.324
42.98000 5.749
43.00000 0.273
43.02000 -1.532
43.04000 2.438
43.06000 0.460
43.08000 0.898
43.10000 2.187
43.12000 -0.242
43.14000 -1.636
43.16000 0.571
43.18000 1.151
43.20000 5.264
43.22000 4.011
43.24000 3.148
43.26000 0.661
43.28000 -1.652
43.30000 1.330
43.32000 -0.436
43.34000 4.126
43.36000 2.424
43.38000 2.044
43.40000 -0.304
43.42000 0.734
43.44000 3.388
43.46000 1.061
43.48000 -0.669
43.50000 -1.209
43.52000 1.281
43.54000 -0.223
43.56000 0.042
43.58000 1.658
43.60000 3.040
43.62000 4.625
43.64000 0.310
43.66000 -3.465
43.68000 0.770
43.70000 1.713
43.72000 4.207
43.74000 4.928
43.76000 2.086
43.78000 -1.605
43.80000 1.492
43.82000 2.617
43.84000 4.396
43.86000 4.716
43.88000 3.466
43.90000 0.323
43.92000 -0.843
43.94000 -2.874
43.96000 -0.769
43.98000 6.145
44.00000 4.840
44.02000 8.012
44.04000 7.757
44.06000 3.843
44.08000 2.052
44.10000 1.185
44.12000 1.458
44.14000 6.742
44.16000 0.032
44.18000 -1.313
44.20000 2.133
44.22000 6.267
44.24000 6.170
44.26000 7.890
44.28000 6.976
44.30000 6.191
44.32000 3.098
44.34000 -1.194
44.36000 -1.552
44.38000 1.684
44.40000 3.752
44.42000 5.327
44.44000 4.110
44.46000 6.702
44.48000 7.850
44.50000 9.543
44.52000 6.677
44.54000 3.990
44.56000 0.627
44.58000 -3.363
44.60000 2.544
44.62000 5.081
44.64000 2.421
44.66000 6.067
44.68000 3.096
44.70000 9.503
44.72000 6.945
44.74000 2.337
44.76000 4.186
44.78000 7.899
44.80000 1.218
44.82000 2.976
44.84000 8.406
44.86000 6.165
44.88000 2.773
44.90000 4.064
44.92000 5.995
44.94000 0.664
44.96000 4.210
44.98000 5.784
45.00000 7.701
45.02000 5.680
45.04000 1.625
45.06000 0.642
45.08000 0.133
45.10000 0.114
45.12000 6.181
45.14000 4.534
45.16000 5.993
45.18000 4.283
45.20000 5.363
45.22000 7.604
45.24000 7.434
45.26000 8.524
45.28000 8.554
45.30000 4.203
45.32000 -1.636
45.34000 2.073
45.36000 7.129
45.38000 5.428
45.40000 4.486
45.42000 2.727
45.44000 5.407
45.46000 5.521
45.48000 2.012
45.50000 1.719
45.52000 9.942
45.54000 8.890
45.56000 6.767
45.58000 7.762
45.60000 5.366
45.62000 5.004
45.64000 7.258
45.66000 6.734
45.68000 4.882
45.70000 4.986
45.72000 11.541
45.74000 10.742
45.76000 5.848
45.78000 12.646
45.80000 9.588
45.82000 10.446
45.84000 9.141
45.86000 4.735
45.88000 4.557
45.90000 9.838
45.92000 12.167
45.94000 9.525
45.96000 15.083
45.98000 20.753
46.00000 20.621
46.02000 17.519
46.04000 16.589
46.06000 18.738
46.08000 23.448
46.10000 17.546
46.12000 15.112
46.14000 17.682
46.16000 17.548
46.18000 18.590
46.20000 28.194
46.22000 26.247
46.24000 22.237
46.26000 23.422
46.28000 28.362
46.30000 26.313
46.32000 25.765
46.34000 25.937
46.36000 27.758
46.38000 32.070
46.40000 32.540
46.42000 33.653
46.44000 27.461
46.46000 29.192
46.48000 28.211
46.50000 26.645
46.52000 33.141
46.54000 39.259
46.56000 42.675
46.58000 40.065
46.60000 39.457
46.62000 38.124
46.64000 37.014
46.66000 37.747
46.68000 42.996
46.70000 45.714
46.72000 52.482
46.74000 46.289
46.76000 46.333
46.78000 48.879
46.80000 52.858
46.82000 54.494
46.84000 50.045
46.86000 48.670
46.88000 50.783
46.90000 55.228
46.92000 54.415
46.94000 48.583
46.96000 52.011
46.98000 60.782
47.00000 58.598
47.02000 56.859
47.04000 62.851
47.06000 59.492
47.08000 57.999
47.10000 60.462
47.12000 59.797
47.14000 58.349
47.16000 60.881
47.18000 63.948
47.20000 66.516
47.22000 67.850
47.24000 63.653
47.26000 62.016
47.28000 63.473
47.30000 64.406
47.32000 60.079
47.34000 64.621
47.36000 68.550
47.38000 58.464
47.40000 59.377
47.42000 64.168
47.44000 66.504
47.46000 66.250
47.48000 63.031
47.50000 59.432
47.52000 60.912
47.54000 60.855
47.56000 57.124
47.58000 59.002
47.60000 53.551
47.62000 53.289
47.64000 56.386
47.66000 56.550
47.68000 51.972
47.70000 49.527
47.72000 46.430
47.74000 46.754
47.76000 44.806
47.78000 45.996
47.80000 44.432
47.82000 40.614
47.84000 43.230
47.86000 42.743
47.88000 34.324
47.90000 31.111
47.92000 33.554
47.94000 33.695
47.96000 28.709
47.98000 25.504
48.00000 29.194
48.02000 29.712
48.04000 31.633
48.06000 30.251
48.08000 26.422
48.10000 25.071
48.12000 23.588
48.14000 26.405
48.16000 26.770
48.18000 16.982
48.20000 15.758
48.22000 15.527
48.24000 20.516
48.26000 22.748
48.28000 12.878
48.30000 9.112
48.32000 9.548
48.34000 16.252
48.36000 20.139
48.38000 13.326
48.40000 1.624
48.42000 6.479
48.44000 14.323
48.46000 11.639
48.48000 9.969
48.50000 5.594
48.52000 11.433
48.54000 14.981
48.56000 6.449
48.58000 2.281
48.60000 7.841
48.62000 5.886
48.64000 4.712
48.66000 2.117
48.68000 5.348
48.70000 5.014
48.72000 7.700
48.74000 4.755
48.76000 5.940
48.78000 5.527
48.80000 6.474
48.82000 7.312
48.84000 8.949
48.86000 11.069
48.88000 11.161
48.90000 5.768
48.92000 0.396
48.94000 4.515
48.96000 6.841
48.98000 5.518
49.00000 2.556
49.02000 2.266
49.04000 7.732
49.06000 4.380
49.08000 6.782
49.10000 6.216
49.12000 0.316
49.14000 0.568
49.16000 0.248
49.18000 -0.414
49.20000 -3.065
49.22000 5.072
49.24000 5.160
49.26000 4.368
49.28000 0.442
49.30000 2.775
49.32000 2.968
49.34000 -0.343
49.36000 -1.630
49.38000 0.719
49.40000 3.440
49.42000 3.717
49.44000 1.637
49.46000 0.128
49.48000 2.073
49.50000 1.901
49.52000 -0.438
49.54000 -1.492
49.56000 1.146
49.58000 4.516
49.60000 1.525
49.62000 2.339
49.64000 1.049
49.66000 4.966
49.68000 3.798
49.70000 7.398
49.72000 2.463
49.74000 2.363
49.76000 3.422
49.78000 3.746
49.80000 2.465
49.82000 5.478
49.84000 5.500
49.86000 1.650
49.88000 4.163
49.90000 3.985
49.92000 -0.273
49.94000 -2.979
49.96000 -2.977
49.98000 2.719
50.00000 5.588
50.02000 4.517
50.04000 3.385
50.06000 3.440
50.08000 8.208
50.10000 4.880
50.12000 0.056
50.14000 -1.761
50.16000 1.384
50.18000 -0.478
50.20000 0.318
50.22000 1.613
50.24000 4.155
50.26000 8.214
50.28000 7.174
50.30000 0.117
50.32000 -0.301
50.34000 4.542
50.36000 4.232
50.38000 -0.205
50.40000 -2.927
50.42000 -1.338
50.44000 2.704
50.46000 5.688
50.48000 5.546
50.50000 -0.642
50.52000 -1.058
50.54000 -0.352
50.56000 3.664
50.58000 0.518
50.60000 4.361
50.62000 1.414
50.64000 3.820
50.66000 3.000
50.68000 -1.585
50.70000 -2.358
50.72000 -1.704
50.74000 -2.916
50.76000 1.902
50.78000 2.568
50.80000 -0.581
50.82000 -2.177
50.84000 0.893
50.86000 0.853
50.88000 4.859
50.90000 6.908
50.92000 2.771
50.94000 1.190
50.96000 3.678
50.98000 2.472
51.00000 3.580
51.02000 5.310
51.04000 2.216
51.06000 0.795
51.08000 2.910
51.10000 3.667
51.12000 3.978
51.14000 6.790
51.16000 8.697
51.18000 2.023
51.20000 -0.939
51.22000 -0.442
51.24000 0.325
51.26000 5.248
51.28000 5.283
51.30000 6.350
51.32000 6.593
51.34000 4.428
51.36000 0.086
51.38000 1.564
51.40000 -2.876
51.42000 1.984
51.44000 3.302
51.46000 3.244
51.48000 4.370
51.50000 3.731
51.52000 -0.484
51.54000 1.378
51.56000 0.398
51.58000 3.751
51.60000 2.277
51.62000 1.418
51.64000 4.267
51.66000 5.314
51.68000 1.156
51.70000 0.406
51.72000 -2.864
51.74000 -2.486
51.76000 1.007
51.78000 1.833
51.80000 6.778
51.82000 1.863
51.84000 3.430
51.86000 6.439
51.88000 4.700
51.90000 8.688
51.92000 5.434
51.94000 1.948
51.96000 3.542
51.98000 2.500
52.00000 3.109
52.02000 0.811
52.04000 3.428
52.06000 7.091
52.08000 3.065
52.10000 0.680
52.12000 5.043
52.14000 7.792
52.16000 8.107
52.18000 6.288
52.20000 7.009
52.22000 2.352
52.24000 0.598
52.26000 0.420
52.28000 0.551
52.30000 3.748
52.32000 5.485
52.34000 4.958
52.36000 4.250
52.38000 4.541
52.40000 4.006
52.42000 1.286
52.44000 2.407
52.46000 4.309
52.48000 4.417
52.50000 5.074
52.52000 4.423
52.54000 0.145
52.56000 3.534
52.58000 4.761
52.60000 4.324
52.62000 -1.377
52.64000 1.755
52.66000 5.755
52.68000 5.666
52.70000 1.629
52.72000 3.291
52.74000 7.734
52.76000 4.828
52.78000 -2.581
52.80000 0.194
52.82000 1.864
52.84000 -2.783
52.86000 0.083
52.88000 5.316
52.90000 6.075
52.92000 7.646
52.94000 9.776
52.96000 4.587
52.98000 2.462
53.00000 0.100
53.02000 1.833
53.04000 5.820
53.06000 3.425
53.08000 2.080
53.10000 0.661
53.12000 4.285
53.14000 3.191
53.16000 2.064
53.18000 4.216
53.20000 3.398
53.22000 3.916
53.24000 1.173
53.26000 4.079
53.28000 0.485
53.30000 4.298
53.32000 3.358
53.34000 2.442
53.36000 5.740
53.38000 4.154
53.40000 3.323
53.42000 5.458
53.44000 4.457
53.46000 8.272
53.48000 7.619
53.50000 8.271
53.52000 9.073
53.54000 6.281
53.56000 6.803
53.58000 6.108
53.60000 4.556
53.62000 -1.262
53.64000 1.294
53.66000 5.742
53.68000 10.396
53.70000 10.911
53.72000 6.710
53.74000 6.136
53.76000 -0.061
53.78000 0.424
53.80000 7.473
53.82000 5.906
53.84000 -0.220
53.86000 1.163
53.88000 6.463
53.90000 8.560
53.92000 1.500
53.94000 -2.745
53.96000 0.080
53.98000 5.634
54.00000 11.206
54.02000 8.259
54.04000 4.373
54.06000 1.263
54.08000 -0.628
54.10000 7.439
54.12000 8.068
54.14000 2.361
54.16000 2.429
54.18000 5.131
54.20000 3.572
54.22000 1.755
54.24000 5.376
54.26000 1.351
54.28000 -0.883
54.30000 0.721
54.32000 0.360
54.34000 0.263
54.36000 2.775
54.38000 7.245
54.40000 8.893
54.42000 1.471
54.44000 1.861
54.46000 4.175
54.48000 5.343
54.50000 8.979
54.52000 7.384
54.54000 5.116
54.56000 4.272
54.58000 -0.356
54.60000 0.239
54.62000 6.095
54.64000 3.923
54.66000 3.096
54.68000 5.700
54.70000 0.679
54.72000 -2.762
54.74000 -2.309
54.76000 4.738
54.78000 10.319
54.80000 3.437
54.82000 3.929
54.84000 5.584
54.86000 4.168
54.88000 2.267
54.90000 0.611
54.92000 7.122
54.94000 6.935
54.96000 2.149
54.98000 2.639
55.00000 3.616
55.02000 4.785
55.04000 1.129
55.06000 0.231
55.08000 3.827
55.10000 7.323
55.12000 4.858
55.14000 8.069
55.16000 8.355
55.18000 5.221
55.20000 3.511
55.22000 1.071
55.24000 2.483
55.26000 3.740
55.28000 -1.682
55.30000 0.695
55.32000 1.633
55.34000 -2.759
55.36000 0.838
55.38000 2.372
55.40000 2.309
55.42000 2.456
55.44000 -2.069
55.46000 2.777
55.48000 5.187
55.50000 3.885
55.52000 3.739
55.54000 -1.989
55.56000 2.470
55.58000 8.909
55.60000 6.907
55.62000 6.665
55.64000 3.454
55.66000 0.566
55.68000 3.502
55.70000 6.367
55.72000 3.391
55.74000 3.155
55.76000 -1.847
55.78000 -0.344
55.80000 1.991
55.82000 3.782
55.84000 2.311
55.86000 0.783
55.88000 -1.892
55.90000 1.170
55.92000 3.534
55.94000 4.745
55.96000 5.741
55.98000 1.612
56.00000 1.243
56.02000 1.710
56.04000 2.385
56.06000 1.013
56.08000 -0.352
56.10000 -2.098
56.12000 0.067
56.14000 -1.403
56.16000 0.954
56.18000 3.746
56.20000 -0.999
56.22000 -2.342
56.24000 5.220
56.26000 1.210
56.28000 6.094
56.30000 3.667
56.32000 9.010
56.34000 6.070
56.36000 -0.123
56.38000 -2.731
56.40000 -0.950
56.42000 4.172
56.44000 2.323
56.46000 -0.978
56.48000 3.769
56.50000 3.150
56.52000 3.430
56.54000 0.050
56.56000 -1.984
56.58000 3.444
56.60000 4.684
56.62000 7.462
56.64000 6.932
56.66000 7.272
56.68000 1.347
56.70000 0.872
56.72000 3.875
56.74000 6.778
56.76000 4.620
56.78000 1.840
56.80000 2.919
56.82000 3.191
56.84000 0.795
56.86000 -0.261
56.88000 -0.394
56.90000 0.192
56.92000 5.806
56.94000 5.529
56.96000 7.641
56.98000 2.554
57.00000 0.313
57.02000 2.662
57.04000 0.638
57.06000 1.853
57.08000 3.392
57.10000 4.078
57.12000 0.242
57.14000 -0.113
57.16000 4.352
57.18000 0.979
57.20000 2.299
57.22000 5.194
57.24000 3.517
57.26000 4.608
57.28000 3.533
57.30000 4.375
57.32000 5.043
57.34000 2.429
57.36000 5.340
57.38000 10.122
57.40000 8.968
57.42000 7.607
57.44000 4.223
57.46000 4.419
57.48000 -0.409
57.50000 -2.654
57.52000 -0.515
57.54000 1.692
57.56000 3.389
57.58000 3.566
57.60000 3.903
57.62000 4.725
57.64000 7.079
57.66000 4.064
57.68000 -0.271
57.70000 2.095
57.72000 3.156
57.74000 4.954
57.76000 6.415
57.78000 4.457
57.80000 0.109
57.82000 1.665
57.84000 -0.157
57.86000 -1.156
57.88000 0.669
57.90000 2.870
57.92000 5.535
57.94000 1.968
57.96000 2.479
57.98000 2.805
58.00000 0.619
58.02000 -1.608
58.04000 -0.848
58.06000 3.272
58.08000 5.255
58.10000 2.900
58.12000 0.737
58.14000 3.080
58.16000 3.864
58.18000 4.390
58.20000 6.154
58.22000 1.670
58.24000 2.517
58.26000 3.736
58.28000 8.499
58.30000 2.583
58.32000 2.815
58.34000 5.853
58.36000 4.113
58.38000 2.061
58.40000 1.584
58.42000 -0.083
58.44000 4.508
58.46000 1.756
58.48000 8.814
58.50000 3.788
58.52000 6.478
58.54000 -2.647
58.56000 0.336
58.58000 2.871
58.60000 2.232
58.62000 1.007
58.64000 3.744
58.66000 0.922
58.68000 3.870
58.70000 6.539
58.72000 5.797
58.74000 7.347
58.76000 7.832
58.78000 4.698
58.80000 2.917
58.82000 4.941
58.84000 5.671
58.86000 4.358
58.88000 3.001
58.90000 3.019
58.92000 0.640
58.94000 3.544
58.96000 0.478
58.98000 0.444
59.00000 2.630
59.02000 -0.270
59.04000 1.976
59.06000 3.732
59.08000 1.560
59.10000 -0.267
59.12000 1.239
59.14000 0.905
59.16000 5.099
59.18000 1.288
59.20000 -1.104
59.22000 0.483
59.24000 -0.211
59.26000 1.136
59.28000 2.883
59.30000 3.016
59.32000 0.971
59.34000 0.190
59.36000 1.687
59.38000 1.233
59.40000 4.769
59.42000 4.468
59.44000 1.947
59.46000 -1.191
59.48000 1.286
59.50000 3.993
59.52000 2.461
59.54000 -1.736
59.56000 2.342
59.58000 5.936
59.60000 1.967
59.62000 0.679
59.64000 3.497
59.66000 3.320
59.68000 2.807
59.70000 3.470
59.72000 4.915
59.74000 4.063
59.76000 4.094
59.78000 4.220
59.80000 2.927
59.82000 1.451
59.84000 -0.691
59.86000 -2.597
59.88000 -1.420
59.90000 2.876
59.92000 1.058
59.94000 0.358
59.96000 5.539
59.98000 5.972
60.00000 5.279
60.02000 0.230
60.04000 1.721
60.06000 1.172
60.08000 -0.732
60.10000 2.577
60.12000 -0.577
60.14000 0.894
60.16000 2.956
60.18000 2.057
60.20000 0.611
60.22000 -0.710
60.24000 1.757
60.26000 2.130
60.28000 2.595
60.30000 1.958
60.32000 2.085
60.34000 1.145
60.36000 4.210
60.38000 1.553
60.40000 0.631
60.42000 3.840
60.44000 5.899
60.46000 0.820
60.48000 0.823
60.50000 -1.296
60.52000 2.957
60.54000 4.767
60.56000 5.707
60.58000 5.222
60.60000 2.471
60.62000 -0.176
60.64000 -1.617
60.66000 3.572
60.68000 2.426
60.70000 2.817
60.72000 0.254
60.74000 3.509
60.76000 4.692
60.78000 4.005
60.80000 -1.185
60.82000 2.346
60.84000 5.120
60.86000 4.640
60.88000 6.589
60.90000 2.547
60.92000 4.806
60.94000 4.231
60.96000 4.669
60.98000 3.593
61.00000 3.204
61.02000 4.931
61.04000 2.033
61.06000 6.424
61.08000 4.879
61.10000 5.278
61.12000 3.949
61.14000 4.889
61.16000 2.649
61.18000 2.049
61.20000 5.948
61.22000 7.465
61.24000 7.045
61.26000 3.688
61.28000 3.339
61.30000 2.813
61.32000 3.675
61.34000 4.154
61.36000 5.612
61.38000 3.226
61.40000 3.720
61.42000 8.147
61.44000 6.482
61.46000 5.844
61.48000 -2.516
61.50000 -0.989
61.52000 2.523
61.54000 -0.994
61.56000 3.875
61.58000 0.036
61.60000 1.922
61.62000 10.612
61.64000 3.720
61.66000 -1.067
61.68000 2.941
61.70000 4.798
61.72000 3.038
61.74000 -0.418
61.76000 4.318
61.78000 5.837
61.80000 6.407
61.82000 4.975
61.84000 4.340
61.86000 2.231
61.88000 3.005
61.90000 4.863
61.92000 4.248
61.94000 3.872
61.96000 4.354
61.98000 1.613
62.00000 1.764
62.02000 5.042
62.04000 1.405
62.06000 1.624
62.08000 1.679
62.10000 2.926
62.12000 2.602
62.14000 5.782
62.16000 5.077
62.18000 2.565
62.20000 3.170
62.22000 0.452
62.24000 4.578
62.26000 4.298
62.28000 2.532
62.30000 2.836
62.32000 3.591
62.34000 3.690
62.36000 4.081
62.38000 2.867
62.40000 -1.825
62.42000 5.967
62.44000 3.231
62.46000 2.139
62.48000 3.971
62.50000 -0.871
62.52000 0.354
62.54000 1.857
62.56000 -0.963
62.58000 0.374
62.60000 0.434
62.62000 -2.512
62.64000 0.517
62.66000 5.876
62.68000 4.178
62.70000 0.677
62.72000 1.202
62.74000 3.728
62.76000 4.090
62.78000 3.177
62.80000 5.996
62.82000 3.805
62.84000 6.171
62.86000 -0.771
62.88000 1.985
62.90000 4.554
62.92000 6.258
62.94000 4.028
62.96000 1.046
62.98000 1.471
63.00000 -0.907
63.02000 3.496
63.04000 2.641
63.06000 -1.822
63.08000 -0.978
63.10000 4.342
63.12000 3.627
63.14000 1.677
63.16000 0.947
63.18000 4.573
63.20000 2.364
63.22000 2.912
63.24000 5.579
63.26000 7.931
63.28000 2.594
63.30000 2.780
63.32000 2.716
63.34000 1.224
63.36000 -0.185
63.38000 -1.002
63.40000 0.781
63.42000 1.464
63.44000 0.784
63.46000 2.027
63.48000 4.911
63.50000 5.528
63.52000 1.532
63.54000 -2.512
63.56000 0.503
63.58000 4.154
63.60000 2.600
63.62000 1.261
63.64000 0.462
63.66000 0.002
63.68000 -2.317
63.70000 -1.940
63.72000 -1.980
63.74000 1.082
63.76000 3.878
63.78000 2.201
63.80000 8.618
63.82000 3.863
63.84000 0.269
63.86000 -1.313
63.88000 1.333
63.90000 -0.453
63.92000 -2.285
63.94000 -1.224
63.96000 -0.698
63.98000 2.170
64.00000 4.279
64.02000 6.309
64.04000 0.627
64.06000 2.264
64.08000 1.769
64.10000 2.103
64.12000 0.879
64.14000 -1.945
64.16000 2.503
64.18000 3.324
64.20000 0.908
64.22000 2.957
64.24000 7.049
64.26000 6.623
64.28000 2.394
64.30000 2.743
64.32000 4.282
64.34000 5.222
64.36000 5.319
64.38000 6.932
64.40000 4.518
64.42000 4.491
64.44000 2.274
64.46000 5.247
64.48000 6.681
64.50000 3.396
64.52000 3.499
64.54000 2.598
64.56000 -2.506
64.58000 2.620
64.60000 1.662
64.62000 -1.303
64.64000 2.488
64.66000 6.097
64.68000 2.675
64.70000 4.006
64.72000 2.537
64.74000 4.767
64.76000 7.424
64.78000 4.538
64.80000 4.767
64.82000 3.498
64.84000 4.037
64.86000 5.891
64.88000 7.704
64.90000 2.717
64.92000 3.192
64.94000 3.287
64.96000 6.861
64.98000 7.380
65.00000 4.578
65.02000 3.188
65.04000 3.780
65.06000 5.914
65.08000 5.411
65.10000 5.138
65.12000 4.186
65.14000 5.034
65.16000 6.097
65.18000 4.080
65.20000 4.218
65.22000 3.995
65.24000 6.360
65.26000 4.431
65.28000 3.576
65.30000 5.185
65.32000 4.450
65.34000 5.393
65.36000 5.387
65.38000 -2.469
65.40000 -0.448
65.42000 3.942
65.44000 5.549
65.46000 4.980
65.48000 3.250
65.50000 7.909
65.52000 6.161
65.54000 4.622
65.56000 6.027
65.58000 5.302
65.60000 4.684
65.62000 6.595
65.64000 4.136
65.66000 5.056
65.68000 8.646
65.70000 5.890
65.72000 5.690
65.74000 5.210
65.76000 6.574
65.78000 7.441
65.80000 2.461
65.82000 0.563
65.84000 4.272
65.86000 3.279
65.88000 2.110
65.90000 3.889
65.92000 3.596
65.94000 3.152
65.96000 1.542
65.98000 3.325
66.00000 6.665
66.02000 4.214
66.04000 3.061
66.06000 3.162
66.08000 5.600
66.10000 5.430
66.12000 4.242
66.14000 4.170
66.16000 4.114
66.18000 2.457
66.20000 4.053
66.22000 8.487
66.24000 3.664
66.26000 1.693
66.28000 1.681
66.30000 4.834
66.32000 1.798
66.34000 2.181
66.36000 2.838
66.38000 3.266
66.40000 3.531
66.42000 3.674
66.44000 2.688
66.46000 1.471
66.48000 1.630
66.50000 5.337
66.52000 5.520
66.54000 4.900
66.56000 0.468
66.58000 -0.891
66.60000 -2.512
66.62000 -0.704
66.64000 -1.306
66.66000 3.227
66.68000 3.821
66.70000 0.282
66.72000 1.061
66.74000 5.135
66.76000 1.961
66.78000 0.161
66.80000 3.805
66.82000 4.362
66.84000 2.877
66.86000 1.575
66.88000 3.388
66.90000 0.784
66.92000 -1.033
66.94000 0.008
66.96000 1.174
66.98000 -1.922
67.00000 0.665
67.02000 7.341
67.04000 5.677
67.06000 2.483
67.08000 1.998
67.10000 -1.421
67.12000 -1.561
67.14000 -0.887
67.16000 -2.425
67.18000 1.211
67.20000 1.779
67.22000 3.427
67.24000 2.129
67.26000 -0.176
67.28000 -1.657
67.30000 -0.691
67.32000 -2.589
67.34000 0.105
67.36000 1.760
67.38000 1.323
67.40000 -0.247
67.42000 0.599
67.44000 -1.224
67.46000 -1.859
67.48000 0.054
67.50000 2.718
67.52000 -1.328
67.54000 2.728
67.56000 2.047
67.58000 -2.348
67.60000 -2.445
67.62000 -0.438
67.64000 2.735
67.66000 1.671
67.68000 -1.956
67.70000 0.532
67.72000 1.163
67.74000 0.871
67.76000 2.201
67.78000 2.804
67.80000 3.346
67.82000 1.673
67.84000 -2.108
67.86000 -0.415
67.88000 0.113
67.90000 0.718
67.92000 4.132
67.94000 0.487
67.96000 1.543
67.98000 -0.760
68.00000 4.261
68.02000 2.356
68.04000 3.309
68.06000 1.660
68.08000 4.732
68.10000 5.743
68.12000 5.230
68.14000 3.614
68.16000 6.578
68.18000 5.303
68.20000 3.104
68.22000 4.165
68.24000 2.733
68.26000 3.778
68.28000 7.653
68.30000 7.914
68.32000 3.315
68.34000 1.885
68.36000 6.074
68.38000 5.690
68.40000 5.294
68.42000 2.204
68.44000 1.256
68.46000 5.795
68.48000 7.281
68.50000 8.108
68.52000 8.307
68.54000 6.058
68.56000 10.950
68.58000 11.190
68.60000 9.892
68.62000 12.741
68.64000 12.630
68.66000 12.661
68.68000 15.384
68.70000 17.580
68.72000 16.079
68.74000 14.696
68.76000 14.452
68.78000 11.856
68.80000 10.854
68.82000 13.891
68.84000 14.682
68.86000 16.393
68.88000 15.710
68.90000 17.745
68.92000 14.154
68.94000 16.244
68.96000 15.347
68.98000 16.544
69.00000 15.888
69.02000 15.439
69.04000 17.080
69.06000 15.645
69.08000 19.593
69.10000 26.120
69.12000 23.772
69.14000 19.997
69.16000 20.117
69.18000 19.176
69.20000 15.055
69.22000 18.477
69.24000 23.666
69.26000 20.988
69.28000 22.754
69.30000 22.783
69.32000 18.469
69.34000 20.874
69.36000 22.594
69.38000 22.932
69.40000 22.845
69.42000 22.291
69.44000 17.294
69.46000 17.531
69.48000 14.460
69.50000 15.152
69.52000 16.392
69.54000 12.247
69.56000 11.555
69.58000 13.034
69.60000 13.363
69.62000 16.745
69.64000 17.016
69.66000 15.650
69.68000 8.395
69.70000 6.532
69.72000 11.023
69.74000 8.801
69.76000 11.378
69.78000 12.508
69.80000 8.264
69.82000 8.148
69.84000 9.806
69.86000 9.315
69.88000 7.127
69.90000 7.367
69.92000 9.877
69.94000 7.173
69.96000 5.441
69.98000 5.880
70.00000 7.487
70.02000 6.019
70.04000 5.228
70.06000 4.194
70.08000 1.722
70.10000 3.897
70.12000 2.838
70.14000 5.040
70.16000 -0.202
70.18000 0.449
70.20000 3.551
70.22000 4.987
70.24000 1.440
70.26000 4.088
70.28000 2.659
70.30000 1.975
70.32000 2.091
70.34000 1.528
70.36000 -0.542
70.38000 0.170
70.40000 -1.549
70.42000 0.647
70.44000 4.465
70.46000 2.302
70.48000 0.260
70.50000 1.854
70.52000 7.475
70.54000 0.854
70.56000 4.069
70.58000 5.851
70.60000 6.372
70.62000 4.194
70.64000 4.113
70.66000 3.156
70.68000 1.621
70.70000 2.560
70.72000 3.196
70.74000 1.995
70.76000 0.058
70.78000 -1.376
70.80000 2.882
70.82000 1.352
70.84000 2.346
70.86000 0.022
70.88000 -0.473
70.90000 1.237
70.92000 -0.826
70.94000 2.755
70.96000 6.704
70.98000 2.359
71.00000 2.110
71.02000 1.572
71.04000 -1.774
71.06000 0.627
71.08000 5.408
71.10000 3.815
71.12000 1.817
71.14000 0.698
71.16000 0.576
71.18000 5.340
71.20000 7.873
71.22000 6.875
71.24000 3.982
71.26000 -0.240
71.28000 0.433
71.30000 -2.426
71.32000 -0.237
71.34000 1.974
71.36000 3.205
71.38000 4.719
71.40000 2.693
71.42000 1.901
71.44000 0.614
71.46000 2.275
71.48000 0.161
71.50000 -1.590
71.52000 -0.836
71.54000 2.562
71.56000 1.140
71.58000 -0.673
71.60000 -0.727
71.62000 -0.650
71.64000 3.568
71.66000 6.668
71.68000 5.134
71.70000 6.480
71.72000 5.732
71.74000 -2.400
71.76000 -1.522
71.78000 4.653
71.80000 0.464
71.82000 -0.411
71.84000 0.105
71.86000 1.560
71.88000 3.430
71.90000 1.454
71.92000 2.339
71.94000 0.928
71.96000 2.358
71.98000 3.987
72.00000 4.332
72.02000 0.028
72.04000 4.216
72.06000 0.050
72.08000 1.928
72.10000 3.020
72.12000 1.661
72.14000 1.843
72.16000 -0.709
72.18000 3.408
72.20000 6.408
72.22000 5.162
72.24000 8.215
72.26000 3.367
72.28000 1.650
72.30000 0.747
72.32000 1.993
72.34000 2.669
72.36000 0.758
72.38000 -1.022
72.40000 3.516
72.42000 3.095
72.44000 0.004
72.46000 4.101
72.48000 3.401
72.50000 3.823
72.52000 2.853
72.54000 2.324
72.56000 0.246
72.58000 4.386
72.60000 4.038
72.62000 6.708
72.64000 3.616
72.66000 3.166
72.68000 1.027
72.70000 5.320
72.72000 1.815
72.74000 4.026
72.76000 4.743
72.78000 4.558
72.80000 0.086
72.82000 -2.323
72.84000 -0.036
72.86000 2.088
72.88000 4.546
72.90000 7.342
72.92000 3.610
72.94000 0.852
72.96000 6.266
72.98000 2.959
73.00000 2.201
73.02000 3.733
73.04000 5.869
73.06000 3.932
73.08000 1.283
73.10000 7.021
73.12000 6.414
73.14000 4.342
73.16000 3.469
73.18000 -1.103
73.20000 1.249
73.22000 0.439
73.24000 0.327
73.26000 2.862
73.28000 1.693
73.30000 2.144
73.32000 -0.494
73.34000 1.480
73.36000 3.396
73.38000 7.193
73.40000 3.882
73.42000 1.800
73.44000 1.374
73.46000 -0.286
73.48000 -0.102
73.50000 3.397
73.52000 -1.210
73.54000 -2.325
73.56000 0.015
73.58000 3.730
73.60000 4.353
73.62000 5.289
73.64000 2.776
73.66000 4.119
73.68000 0.100
73.70000 4.366
73.72000 6.732
73.74000 4.706
73.76000 0.801
73.78000 2.570
73.80000 2.217
73.82000 -1.499
73.84000 0.527
73.86000 1.702
73.88000 5.228
73.90000 7.390
73.92000 3.467
73.94000 4.803
73.96000 3.599
73.98000 3.747
74.00000 3.441
74.02000 5.947
74.04000 7.695
74.06000 7.266
74.08000 6.012
74.10000 1.006
74.12000 -2.317
74.14000 1.850
74.16000 6.285
74.18000 6.750
74.20000 5.368
74.22000 1.158
74.24000 1.025
74.26000 0.134
74.28000 1.068
74.30000 -1.365
74.32000 5.077
74.34000 4.372
74.36000 2.875
74.38000 2.740
74.40000 3.031
74.42000 2.395
74.44000 -0.449
74.46000 -0.294
74.48000 -0.333
74.50000 4.425
74.52000 3.878
74.54000 3.899
74.56000 6.170
74.58000 5.053
74.60000 4.259
74.62000 2.523
74.64000 1.176
74.66000 2.250
74.68000 5.237
74.70000 3.896
74.72000 5.291
74.74000 5.106
74.76000 5.992
74.78000 2.591
74.80000 0.429
74.82000 0.563
74.84000 5.378
74.86000 6.139
74.88000 6.169
74.90000 4.415
74.92000 5.905
74.94000 3.677
74.96000 1.092
74.98000 0.367
75.00000 -1.070
75.02000 -2.294
75.04000 0.247
75.06000 -0.359
75.08000 3.372
75.10000 1.640
75.12000 3.911
75.14000 0.770
75.16000 -0.522
75.18000 7.106
75.20000 3.740
75.22000 -0.350
75.24000 2.417
75.26000 0.855
75.28000 1.689
75.30000 6.264
75.32000 4.792
75.34000 3.684
75.36000 2.713
75.38000 5.649
75.40000 5.194
75.42000 1.307
75.44000 0.767
75.46000 0.714
75.48000 -0.578
75.50000 1.199
75.52000 6.101
75.54000 6.587
75.56000 4.403
75.58000 4.430
75.60000 2.582
75.62000 0.063
75.64000 0.010
75.66000 -2.312
75.68000 6.784
75.70000 3.201
75.72000 2.638
75.74000 8.139
75.76000 5.315
75.78000 2.947
75.80000 5.027
75.82000 3.099
75.84000 -1.667
75.86000 1.097
75.88000 2.584
75.90000 4.210
75.92000 7.796
75.94000 1.894
75.96000 -0.305
75.98000 -0.706
76.00000 1.459
76.02000 -2.321
76.04000 -0.304
76.06000 -0.634
76.08000 0.825
76.10000 1.566
76.12000 5.422
76.14000 5.413
76.16000 1.271
76.18000 4.179
76.20000 2.957
76.22000 6.285
76.24000 3.194
76.26000 0.895
76.28000 2.532
76.30000 5.312
76.32000 2.194
76.34000 1.693
76.36000 6.109
76.38000 9.301
76.40000 3.482
76.42000 2.907
76.44000 0.070
76.46000 1.491
76.48000 -2.155
76.50000 -1.622
76.52000 1.762
76.54000 -1.145
76.56000 1.766
76.58000 -2.345
76.60000 -1.933
76.62000 0.307
76.64000 5.597
76.66000 6.369
76.68000 5.882
76.70000 0.676
76.72000 1.443
76.74000 1.608
76.76000 -0.021
76.78000 2.020
76.80000 2.642
76.82000 4.901
76.84000 4.632
76.86000 3.548
76.88000 2.747
76.90000 3.708
76.92000 -1.025
76.94000 -1.298
76.96000 -0.825
76.98000 4.529
77.00000 7.797
77.02000 8.229
77.04000 6.672
77.06000 1.531
77.08000 0.341
77.10000 -1.360
77.12000 1.474
77.14000 3.304
77.16000 3.004
77.18000 2.787
77.20000 3.269
77.22000 5.236
77.24000 5.964
77.26000 5.443
77.28000 -1.494
77.30000 -1.542
77.32000 2.087
77.34000 4.436
77.36000 6.694
77.38000 2.184
77.40000 3.979
77.42000 6.138
77.44000 3.437
77.46000 1.542
77.48000 4.859
77.50000 4.996
77.52000 5.627
77.54000 7.651
77.56000 5.166
77.58000 3.740
77.60000 -0.788
77.62000 1.701
77.64000 0.634
77.66000 -0.572
77.68000 -2.326
77.70000 1.637
77.72000 5.483
77.74000 5.606
77.76000 5.162
77.78000 5.092
77.80000 0.853
77.82000 6.790
77.84000 7.005
77.86000 7.795
77.88000 7.629
77.90000 4.279
77.92000 -1.456
77.94000 0.248
77.96000 -2.343
77.98000 -2.061
78.00000 4.365
78.02000 6.422
78.04000 -0.378
78.06000 5.905
78.08000 5.653
78.10000 2.154
78.12000 -0.336
78.14000 0.660
78.16000 0.789
78.18000 -0.772
78.20000 1.104
78.22000 7.842
78.24000 5.784
78.26000 2.562
78.28000 4.041
78.30000 3.585
78.32000 3.163
78.34000 0.518
78.36000 -0.611
78.38000 3.467
78.40000 3.445
78.42000 2.815
78.44000 2.635
78.46000 0.735
78.48000 1.684
78.50000 2.510
78.52000 2.237
78.54000 5.337
78.56000 9.084
78.58000 2.103
78.60000 1.182
78.62000 4.430
78.64000 6.442
78.66000 4.386
78.68000 1.305
78.70000 -2.166
78.72000 -0.731
78.74000 1.228
78.76000 2.345
78.78000 5.432
78.80000 1.636
78.82000 0.779
78.84000 -2.361
78.86000 1.855
78.88000 3.944
78.90000 4.325
78.92000 1.239
78.94000 -2.239
78.96000 0.054
78.98000 -2.369
79.00000 1.316
79.02000 1.272
79.04000 3.677
79.06000 5.052
79.08000 6.136
79.10000 5.413
79.12000 4.230
79.14000 3.685
79.16000 1.544
79.18000 -1.778
79.20000 0.686
79.22000 -1.678
79.24000 -2.324
79.26000 0.946
79.28000 3.710
79.30000 6.054
79.32000 1.837
79.34000 1.926
79.36000 4.485
79.38000 0.724
79.40000 -2.389
79.42000 1.512
79.44000 1.668
79.46000 -1.161
79.48000 -1.667
79.50000 -0.267
79.52000 2.944
79.54000 1.107
79.56000 -0.727
79.58000 0.307
79.60000 4.670
79.62000 6.553
79.64000 4.206
79.66000 1.948
79.68000 7.232
79.70000 2.655
79.72000 1.549
79.74000 -0.403
79.76000 1.602
79.78000 2.232
79.80000 1.438
79.82000 1.943
79.84000 1.310
79.86000 3.383
79.88000 -0.777
79.90000 4.581
79.92000 3.782
79.94000 2.989
79.96000 -1.197
79.98000 -0.173
80.00000 0.266
80.02000 2.465
80.04000 -2.414
80.06000 -1.135
80.08000 -0.838
80.10000 0.039
80.12000 2.390
80.14000 2.469
80.16000 4.386
80.18000 -0.815
80.20000 0.707
80.22000 1.083
80.24000 3.464
80.26000 4.549
80.28000 2.759
80.30000 -1.407
80.32000 -1.809
80.34000 -0.781
80.36000 1.202
80.38000 3.520
80.40000 0.542
80.42000 0.467
80.44000 5.381
80.46000 1.999
80.48000 -0.079
80.50000 -2.424
80.52000 2.460
80.54000 4.253
80.56000 2.948
80.58000 -0.455
80.60000 2.561
80.62000 1.327
80.64000 2.991
80.66000 1.999
80.68000 4.757
80.70000 7.754
80.72000 7.296
80.74000 5.426
80.76000 6.499
80.78000 7.244
80.80000 2.888
80.82000 -1.965
80.84000 2.796
80.86000 5.958
80.88000 3.658
80.90000 2.211
80.92000 2.971
80.94000 5.530
80.96000 3.703
80.98000 2.530
81.00000 -1.936
81.02000 2.223
81.04000 0.185
81.06000 2.237
81.08000 7.403
81.10000 3.058
81.12000 4.790
81.14000 1.355
81.16000 0.743
81.18000 5.677
81.20000 6.824
81.22000 4.363
81.24000 3.750
81.26000 6.439
81.28000 9.949
81.30000 6.319
81.32000 5.732
81.34000 2.901
81.36000 2.117
81.38000 0.447
81.40000 4.191
81.42000 3.758
81.44000 7.471
81.46000 6.026
81.48000 2.672
81.50000 -1.437
81.52000 -2.445
81.54000 0.536
81.56000 5.188
81.58000 3.873
81.60000 1.205
81.62000 5.657
81.64000 7.146
81.66000 1.887
81.68000 2.801
81.70000 2.291
81.72000 2.319
81.74000 1.221
81.76000 1.375
81.78000 4.604
81.80000 5.080
81.82000 4.179
81.84000 4.722
81.86000 11.248
81.88000 7.939
81.90000 3.961
81.92000 5.302
81.94000 8.536
81.96000 9.127
81.98000 8.748
82.00000 7.460
82.02000 6.338
82.04000 3.032
82.06000 9.298
82.08000 9.391
82.10000 8.820
82.12000 10.098
82.14000 7.268
82.16000 6.874
82.18000 8.169
82.20000 4.544
82.22000 7.661
82.24000 6.008
82.26000 6.696
82.28000 5.784
82.30000 5.047
82.32000 5.674
82.34000 7.662
82.36000 7.930
82.38000 6.638
82.40000 10.902
82.42000 10.096
82.44000 7.806
82.46000 3.271
82.48000 7.120
82.50000 5.798
82.52000 4.826
82.54000 10.976
82.56000 9.899
82.58000 11.202
82.60000 9.217
82.62000 4.433
82.64000 6.926
82.66000 11.723
82.68000 14.707
82.70000 12.433
82.72000 13.295
82.74000 13.840
82.76000 19.507
82.78000 12.720
82.80000 7.964
82.82000 12.573
82.84000 16.042
82.86000 14.890
82.88000 14.497
82.90000 17.551
82.92000 20.364
82.94000 16.455
82.96000 19.064
82.98000 12.460
83.00000 11.983
83.02000 18.619
83.04000 25.503
83.06000 20.091
83.08000 17.150
83.10000 15.830
83.12000 16.428
83.14000 20.772
83.16000 20.157
83.18000 16.406
83.20000 19.714
83.22000 26.530
83.24000 24.201
83.26000 19.840
83.28000 23.783
83.30000 30.778
83.32000 29.056
83.34000 28.739
83.36000 24.915
83.38000 21.297
83.40000 23.104
83.42000 24.751
83.44000 23.044
83.46000 14.974
83.48000 19.855
83.50000 25.964
83.52000 22.221
83.54000 22.782
83.56000 23.256
83.58000 24.321
83.60000 21.959
83.62000 22.028
83.64000 25.135
83.66000 21.114
83.68000 21.469
83.70000 21.792
83.72000 20.131
83.74000 24.729
83.76000 23.588
83.78000 22.844
83.80000 20.931
83.82000 20.473
83.84000 22.515
83.86000 25.234
83.88000 21.552
83.90000 21.863
83.92000 18.705
83.94000 18.889
83.96000 19.874
83.98000 17.716
84.00000 18.226
84.02000 18.008
84.04000 18.276
84.06000 13.260
84.08000 15.936
84.10000 19.119
84.12000 16.689
84.14000 18.337
84.16000 14.893
84.18000 12.120
84.20000 13.509
84.22000 7.190
84.24000 8.643
84.26000 11.082
84.28000 11.557
84.30000 12.313
84.32000 11.743
84.34000 12.727
84.36000 11.819
84.38000 9.592
84.40000 8.996
84.42000 11.372
84.44000 9.202
84.46000 11.513
84.48000 4.605
84.50000 6.644
84.52000 4.791
84.54000 6.072
84.56000 11.243
84.58000 7.029
84.60000 4.874
84.62000 6.768
84.64000 10.080
84.66000 5.546
84.68000 4.989
84.70000 6.050
84.72000 8.073
84.74000 6.389
84.76000 13.708
84.78000 8.529
84.80000 8.558
84.82000 6.873
84.84000 3.715
84.86000 -0.692
84.88000 3.958
84.90000 6.458
84.92000 5.236
84.94000 2.705
84.96000 1.416
84.98000 2.954
85.00000 2.750
85.02000 0.421
85.04000 5.450
85.06000 8.283
85.08000 6.107
85.10000 4.839
85.12000 0.820
85.14000 1.126
85.16000 -0.584
85.18000 0.870
85.20000 1.825
85.22000 3.085
85.24000 4.458
85.26000 3.355
85.28000 6.558
85.30000 4.624
85.32000 7.870
85.34000 5.477
85.36000 4.609
85.38000 4.051
85.40000 4.378
85.42000 1.912
85.44000 1.221
85.46000 -1.218
85.48000 -2.411
85.50000 1.289
85.52000 3.998
85.54000 8.009
85.56000 4.558
85.58000 1.148
85.60000 1.363
85.62000 -0.561
85.64000 -2.404
85.66000 1.452
85.68000 2.438
85.70000 6.570
85.72000 5.977
85.74000 4.687
85.76000 3.961
85.78000 2.364
85.80000 4.616
85.82000 2.662
85.84000 0.734
85.86000 5.437
85.88000 5.402
85.90000 2.377
85.92000 1.833
85.94000 3.196
85.96000 6.601
85.98000 5.233
86.00000 2.016
86.02000 2.897
86.04000 2.633
86.06000 2.227
86.08000 6.145
86.10000 6.266
86.12000 1.600
86.14000 -2.384
86.16000 0.644
86.18000 2.074
86.20000 4.668
86.22000 6.315
86.24000 1.078
86.26000 1.067
86.28000 6.103
86.30000 4.954
86.32000 -0.573
86.34000 3.145
86.36000 3.433
86.38000 2.183
86.40000 1.499
86.42000 2.970
86.44000 2.898
86.46000 5.269
86.48000 5.534
86.50000 4.423
86.52000 0.686
86.54000 -0.282
86.56000 -2.366
86.58000 1.443
86.60000 2.342
86.62000 1.696
86.64000 6.158
86.66000 8.566
86.68000 6.073
86.70000 9.256
86.72000 7.114
86.74000 5.646
86.76000 7.028
86.78000 3.903
86.80000 3.212
86.82000 1.966
86.84000 7.939
86.86000 5.673
86.88000 6.702
86.90000 7.145
86.92000 8.207
86.94000 5.819
86.96000 5.424
86.98000 0.815
87.00000 6.498
87.02000 10.785
87.04000 6.078
87.06000 10.937
87.08000 9.117
87.10000 9.320
87.12000 7.772
87.14000 8.537
87.16000 6.773
87.18000 7.156
87.20000 6.155
87.22000 7.387
87.24000 8.132
87.26000 7.617
87.28000 12.090
87.30000 16.669
87.32000 18.665
87.34000 13.033
87.36000 15.775
87.38000 18.389
87.40000 14.475
87.42000 12.888
87.44000 12.548
87.46000 11.661
87.48000 14.958
87.50000 15.624
87.52000 13.592
87.54000 13.065
87.56000 14.971
87.58000 18.137
87.60000 18.314
87.62000 19.318
87.64000 17.714
87.66000 15.972
87.68000 17.961
87.70000 14.796
87.72000 16.056
87.74000 17.416
87.76000 13.993
87.78000 19.319
87.80000 18.500
87.82000 13.253
87.84000 20.974
87.86000 20.055
87.88000 21.889
87.90000 23.727
87.92000 16.903
87.94000 16.014
87.96000 18.671
87.98000 23.203
88.00000 23.600
88.02000 21.903
88.04000 24.745
88.06000 23.895
88.08000 19.955
88.10000 20.342
88.12000 20.570
88.14000 23.550
88.16000 25.642
88.18000 23.113
88.20000 22.530
88.22000 22.549
88.24000 18.378
88.26000 19.206
88.28000 21.365
88.30000 17.632
88.32000 13.036
88.34000 15.040
88.36000 21.635
88.38000 19.997
88.40000 20.217
88.42000 24.179
88.44000 20.245
88.46000 21.340
88.48000 23.998
88.50000 21.008
88.52000 13.616
88.54000 12.143
88.56000 12.409
88.58000 12.783
88.60000 21.360
88.62000 20.803
88.64000 19.353
88.66000 18.068
88.68000 13.002
88.70000 11.301
88.72000 12.187
88.74000 8.788
88.76000 12.867
88.78000 14.457
88.80000 12.973
88.82000 9.818
88.84000 12.961
88.86000 11.853
88.88000 7.328
88.90000 7.361
88.92000 8.093
88.94000 7.415
88.96000 4.803
88.98000 11.565
89.00000 10.696
89.02000 9.678
89.04000 8.341
89.06000 8.110
89.08000 4.681
89.10000 3.176
89.12000 6.281
89.14000 5.694
89.16000 4.320
89.18000 4.415
89.20000 6.997
89.22000 9.055
89.24000 6.803
89.26000 7.451
89.28000 4.303
89.30000 5.231
89.32000 3.464
89.34000 3.948
89.36000 7.795
89.38000 7.573
89.40000 10.093
89.42000 11.835
89.44000 7.114
89.46000 0.253
89.48000 -0.011
89.50000 -0.556
89.52000 1.193
89.54000 1.830
89.56000 2.505
89.58000 4.638
89.60000 4.838
89.62000 1.176
89.64000 -2.327
89.66000 2.102
89.68000 5.688
89.70000 4.904
89.72000 2.994
89.74000 3.258
89.76000 5.453
89.78000 1.145
89.80000 -0.640
89.82000 -2.308
89.84000 0.278
89.86000 2.127
89.88000 2.281
89.90000 0.640
89.92000 4.882
89.94000 2.315
89.96000 3.259
89.98000 4.231
90.00000 1.118
90.02000 -1.234
90.04000 -1.191
90.06000 1.519
90.08000 1.558
90.10000 3.314
90.12000 1.935
90.14000 3.337
90.16000 -0.696
90.18000 -1.011
90.20000 4.638
90.22000 3.981
90.24000 3.440
90.26000 5.404
90.28000 -0.308
90.30000 -1.399
90.32000 2.753
90.34000 4.720
90.36000 2.815
90.38000 -0.668
90.40000 6.412
90.42000 3.921
90.44000 1.900
90.46000 -1.905
90.48000 -0.536
90.50000 1.996
90.52000 1.576
90.54000 6.488
90.56000 6.663
90.58000 4.296
90.60000 4.344
90.62000 7.970
90.64000 5.827
90.66000 6.606
90.68000 2.062
90.70000 3.287
90.72000 7.079
90.74000 3.381
90.76000 4.394
90.78000 4.425
90.80000 3.370
90.82000 5.195
90.84000 6.604
90.86000 3.975
90.88000 3.294
90.90000 4.057
90.92000 7.883
90.94000 8.770
90.96000 4.401
90.98000 3.879
91.00000 2.905
91.02000 -1.372
91.04000 4.922
91.06000 3.859
91.08000 7.056
91.10000 3.006
91.12000 -2.186
91.14000 -0.681
91.16000 5.084
91.18000 8.630
91.20000 3.252
91.22000 3.859
91.24000 0.733
91.26000 4.520
91.28000 7.998
91.30000 5.601
91.32000 1.671
91.34000 2.473
91.36000 7.452
91.38000 8.570
91.40000 4.467
91.42000 5.874
91.44000 0.185
91.46000 -2.193
91.48000 1.496
91.50000 7.062
91.52000 8.104
91.54000 3.254
91.56000 5.634
91.58000 7.379
91.60000 3.972
91.62000 2.868
91.64000 4.820
91.66000 5.412
91.68000 0.108
91.70000 1.467
91.72000 5.385
91.74000 2.908
91.76000 6.604
91.78000 4.857
91.80000 -2.203
91.82000 3.001
91.84000 7.126
91.86000 4.946
91.88000 -0.307
91.90000 -0.377
91.92000 3.181
91.94000 1.203
91.96000 1.874
91.98000 3.061
92.00000 4.549
92.02000 4.146
92.04000 5.451
92.06000 3.991
92.08000 2.962
92.10000 4.472
92.12000 0.881
92.14000 1.197
92.16000 1.672
92.18000 5.992
92.20000 1.440
92.22000 0.683
92.24000 1.359
92.26000 0.062
92.28000 0.643
92.30000 3.612
92.32000 -2.225
92.34000 -0.200
92.36000 -0.260
92.38000 1.246
92.40000 4.730
92.42000 9.158
92.44000 5.436
92.46000 8.650
92.48000 2.120
92.50000 4.502
92.52000 3.117
92.54000 0.228
92.56000 -1.153
92.58000 -1.430
92.60000 0.843
92.62000 3.389
92.64000 -0.952
92.66000 -1.683
92.68000 1.695
92.70000 -0.112
92.72000 -1.249
92.74000 -0.770
92.76000 4.991
92.78000 2.701
92.80000 1.166
92.82000 4.139
92.84000 7.493
92.86000 2.399
92.88000 -0.132
92.90000 7.140
92.92000 9.646
92.94000 11.946
92.96000 6.396
92.98000 4.819
93.00000 2.416
93.02000 5.101
93.04000 5.882
93.06000 -2.253
93.08000 3.467
93.10000 2.447
93.12000 3.588
93.14000 4.315
93.16000 1.480
93.18000 2.017
93.20000 1.642
93.22000 4.950
93.24000 1.690
93.26000 3.169
93.28000 3.122
93.30000 1.967
93.32000 0.065
93.34000 1.347
93.36000 2.669
93.38000 6.863
93.40000 3.814
93.42000 -0.549
93.44000 4.510
93.46000 7.338
93.48000 4.976
93.50000 1.829
93.52000 1.658
93.54000 -0.671
93.56000 1.319
93.58000 2.350
93.60000 5.828
93.62000 2.767
93.64000 3.653
93.66000 7.827
93.68000 2.788
93.70000 4.011
93.72000 1.834
93.74000 4.825
93.76000 7.947
93.78000 2.852
93.80000 1.558
93.82000 4.784
93.84000 5.291
93.86000 1.487
93.88000 -0.237
93.90000 0.770
93.92000 3.370
93.94000 3.956
93.96000 -2.235
93.98000 4.976
94.00000 7.454
94.02000 6.892
94.04000 2.173
94.06000 6.017
94.08000 2.942
94.10000 0.534
94.12000 5.248
94.14000 9.008
94.16000 10.345
94.18000 7.155
94.20000 0.503
94.22000 5.911
94.24000 9.709
94.26000 8.102
94.28000 3.138
94.30000 2.613
94.32000 3.790
94.34000 5.586
94.36000 4.430
94.38000 0.672
94.40000 4.132
94.42000 7.633
94.44000 5.876
94.46000 6.740
94.48000 10.304
94.50000 11.955
94.52000 6.528
94.54000 -2.195
94.56000 -0.272
94.58000 7.003
94.60000 9.401
94.62000 7.214
94.64000 5.616
94.66000 9.596
94.68000 10.685
94.70000 8.834
94.72000 7.340
94.74000 7.657
94.76000 -1.363
94.78000 7.796
94.80000 9.667
94.82000 7.694
94.84000 7.058
94.86000 5.880
94.88000 3.079
94.90000 4.480
94.92000 9.346
94.94000 10.253
94.96000 9.839
94.98000 5.615
95.00000 7.769
95.02000 6.829
95.04000 -0.392
95.06000 2.339
95.08000 3.457
95.10000 5.916
95.12000 3.500
95.14000 3.052
95.16000 4.787
95.18000 5.991
95.20000 8.072
95.22000 2.190
95.24000 4.419
95.26000 9.466
95.28000 2.236
95.30000 4.899
95.32000 8.395
95.34000 5.197
95.36000 7.151
95.38000 6.677
95.40000 5.262
95.42000 3.141
95.44000 3.492
95.46000 2.813
95.48000 2.362
95.50000 -0.817
95.52000 3.006
95.54000 5.564
95.56000 3.902
95.58000 -0.447
95.60000 0.582
95.62000 3.441
95.64000 5.277
95.66000 2.732
95.68000 6.963
95.70000 9.933
95.72000 7.802
95.74000 2.241
95.76000 2.547
95.78000 4.470
95.80000 3.720
95.82000 2.718
95.84000 2.987
95.86000 4.631
95.88000 3.230
95.90000 -1.124
95.92000 5.975
95.94000 5.173
95.96000 4.138
95.98000 0.728
96.00000 0.269
96.02000 2.784
96.04000 -0.735
96.06000 8.776
96.08000 5.668
96.10000 4.759
96.12000 9.154
96.14000 7.421
96.16000 5.590
96.18000 3.133
96.20000 1.270
96.22000 2.579
96.24000 -0.537
96.26000 -2.241
96.28000 4.707
96.30000 5.092
96.32000 5.187
96.34000 6.934
96.36000 3.807
96.38000 1.953
96.40000 4.469
96.42000 4.193
96.44000 4.611
96.46000 5.772
96.48000 4.541
96.50000 2.107
96.52000 3.219
96.54000 4.618
96.56000 5.148
96.58000 5.136
96.60000 3.838
96.62000 4.863
96.64000 4.204
96.66000 0.394
96.68000 2.146
96.70000 2.421
96.72000 3.156
96.74000 8.025
96.76000 7.014
96.78000 8.418
96.80000 6.135
96.82000 2.332
96.84000 3.220
96.86000 6.879
96.88000 3.740
96.90000 11.282
96.92000 6.874
96.94000 10.064
96.96000 11.918
96.98000 4.057
97.00000 1.173
97.02000 4.992
97.04000 6.127
97.06000 4.147
97.08000 8.742
97.10000 6.980
97.12000 3.966
97.14000 1.613
97.16000 1.404
97.18000 5.393
97.20000 8.069
97.22000 8.440
97.24000 8.035
97.26000 2.320
97.28000 -2.190
97.30000 1.821
97.32000 4.949
97.34000 9.281
97.36000 7.673
97.38000 8.229
97.40000 7.694
97.42000 9.381
97.44000 9.732
97.46000 8.569
97.48000 8.056
97.50000 5.973
97.52000 4.848
97.54000 5.762
97.56000 8.133
97.58000 8.119
97.60000 4.522
97.62000 1.772
97.64000 -0.393
97.66000 4.676
97.68000 4.338
97.70000 4.834
97.72000 2.632
97.74000 4.284
97.76000 6.754
97.78000 8.397
97.80000 7.417
97.82000 9.751
97.84000 3.089
97.86000 2.956
97.88000 4.085
97.90000 8.940
97.92000 1.549
97.94000 -2.175
97.96000 3.006
97.98000 6.585
98.00000 5.151
98.02000 1.030
98.04000 6.409
98.06000 12.564
98.08000 10.956
98.10000 9.792
98.12000 6.332
98.14000 3.301
98.16000 1.466
98.18000 12.940
98.20000 10.606
98.22000 7.447
98.24000 3.544
98.26000 5.846
98.28000 5.747
98.30000 3.944
98.32000 2.643
98.34000 6.130
98.36000 6.921
98.38000 7.055
98.40000 1.782
98.42000 6.516
98.44000 1.307
98.46000 5.772
98.48000 -0.312
98.50000 1.022
98.52000 5.941
98.54000 9.489
98.56000 1.701
98.58000 2.840
98.60000 3.152
98.62000 3.834
98.64000 8.118
98.66000 15.085
98.68000 6.172
98.70000 2.925
98.72000 8.251
98.74000 3.977
98.76000 4.429
98.78000 4.367
98.80000 5.921
98.82000 4.053
98.84000 5.215
98.86000 -0.044
98.88000 -2.123
98.90000 0.129
98.92000 8.217
98.94000 4.697
98.96000 12.662
98.98000 13.630
99.00000 13.855
99.02000 11.360
99.04000 8.564
99.06000 7.130
99.08000 8.758
99.10000 24.545
99.12000 16.836
99.14000 10.672
99.16000 5.032
99.18000 4.408
99.20000 5.653
99.22000 9.217
99.24000 4.036
99.26000 13.933
99.28000 12.486
99.30000 5.709
99.32000 1.098
99.34000 -2.121
99.36000 4.401
99.38000 0.718
99.40000 6.707
99.42000 13.241
99.44000 12.222
99.46000 9.980
99.48000 -0.722
99.50000 0.171
99.52000 -1.815
99.54000 6.000
99.56000 9.558
99.58000 6.695
99.60000 8.145
99.62000 -0.290
99.64000 0.206
99.66000 0.957
99.68000 0.954
99.70000 -2.170
99.72000 1.178
99.74000 1.416
99.76000 9.973
99.78000 5.290
99.80000 3.898
99.82000 6.259
99.84000 8.935
99.86000 6.595
99.88000 9.291
99.90000 8.145
99.92000 7.680
99.94000 7.081
99.96000 6.029
99.98000 0.000
