'Id: "0011389" Comment: "Integrate frame 0011389_Au-Ir-Rh_Au-Rich_XRD_Mapping-225-0000.gfrmwith cursor Wedge Cursor #5" Operator: "B?rgel" Anode: "Cu" Wavelength: "1.5406" Scantype: "2Theta (TwoTheta)" TimePerStep: "1" X: "-22.5" Y: "13.5" Z: "5.95" 
10.00000 0.000
10.02000 10.119
10.04000 14.694
10.06000 -17.002
10.08000 8.279
10.10000 11.369
10.12000 0.477
10.14000 2.025
10.16000 12.991
10.18000 1.037
10.20000 -4.384
10.22000 4.912
10.24000 13.567
10.26000 26.337
10.28000 19.004
10.30000 18.191
10.32000 7.949
10.34000 9.139
10.36000 7.083
10.38000 20.756
10.40000 16.101
10.42000 23.103
10.44000 34.888
10.46000 21.062
10.48000 9.322
10.50000 13.735
10.52000 12.507
10.54000 20.560
10.56000 19.802
10.58000 8.674
10.60000 22.143
10.62000 38.333
10.64000 19.148
10.66000 26.008
10.68000 23.344
10.70000 15.806
10.72000 4.011
10.74000 6.639
10.76000 13.651
10.78000 17.454
10.80000 26.220
10.82000 12.385
10.84000 14.352
10.86000 16.542
10.88000 16.988
10.90000 14.157
10.92000 10.893
10.94000 14.811
10.96000 7.221
10.98000 5.769
11.00000 11.481
11.02000 25.207
11.04000 16.719
11.06000 13.123
11.08000 13.133
11.10000 20.456
11.12000 12.202
11.14000 8.002
11.16000 11.628
11.18000 18.941
11.20000 11.889
11.22000 14.114
11.24000 20.839
11.26000 9.985
11.28000 9.632
11.30000 10.642
11.32000 15.473
11.34000 24.391
11.36000 16.385
11.38000 17.251
11.40000 13.472
11.42000 14.070
11.44000 20.225
11.46000 16.286
11.48000 12.623
11.50000 24.769
11.52000 15.273
11.54000 13.733
11.56000 15.144
11.58000 7.035
11.60000 11.852
11.62000 12.369
11.64000 9.830
11.66000 12.417
11.68000 12.046
11.70000 7.394
11.72000 3.875
11.74000 7.299
11.76000 12.030
11.78000 9.606
11.80000 19.619
11.82000 25.437
11.84000 27.329
11.86000 23.790
11.88000 10.193
11.90000 3.917
11.92000 12.550
11.94000 11.306
11.96000 7.150
11.98000 6.539
12.00000 -1.999
12.02000 1.126
12.04000 8.865
12.06000 20.098
12.08000 18.610
12.10000 13.152
12.12000 13.973
12.14000 8.261
12.16000 6.779
12.18000 8.134
12.20000 10.112
12.22000 4.188
12.24000 21.287
12.26000 22.373
12.28000 9.079
12.30000 19.035
12.32000 22.560
12.34000 -0.802
12.36000 -4.485
12.38000 0.851
12.40000 21.383
12.42000 25.281
12.44000 18.019
12.46000 15.900
12.48000 15.619
12.50000 14.888
12.52000 16.206
12.54000 21.764
12.56000 30.209
12.58000 17.829
12.60000 9.388
12.62000 12.976
12.64000 11.217
12.66000 9.570
12.68000 7.462
12.70000 22.451
12.72000 14.746
12.74000 19.032
12.76000 21.208
12.78000 16.292
12.80000 18.417
12.82000 23.756
12.84000 18.425
12.86000 7.613
12.88000 2.474
12.90000 -0.104
12.92000 8.983
12.94000 9.826
12.96000 11.636
12.98000 12.378
13.00000 11.843
13.02000 11.944
13.04000 17.742
13.06000 18.901
13.08000 19.834
13.10000 28.034
13.12000 18.323
13.14000 6.895
13.16000 10.961
13.18000 7.868
13.20000 1.592
13.22000 13.230
13.24000 10.791
13.26000 10.697
13.28000 4.459
13.30000 11.044
13.32000 10.931
13.34000 13.929
13.36000 2.935
13.38000 4.391
13.40000 17.079
13.42000 18.858
13.44000 15.846
13.46000 7.203
13.48000 12.821
13.50000 -3.770
13.52000 3.018
13.54000 23.961
13.56000 23.642
13.58000 16.176
13.60000 7.440
13.62000 5.044
13.64000 15.385
13.66000 16.300
13.68000 13.939
13.70000 9.971
13.72000 9.354
13.74000 16.808
13.76000 25.395
13.78000 13.870
13.80000 8.890
13.82000 13.467
13.84000 12.197
13.86000 11.545
13.88000 28.255
13.90000 13.351
13.92000 1.818
13.94000 5.701
13.96000 8.029
13.98000 4.071
14.00000 13.551
14.02000 14.578
14.04000 13.364
14.06000 10.216
14.08000 4.247
14.10000 6.467
14.12000 10.916
14.14000 20.746
14.16000 4.711
14.18000 3.044
14.20000 10.158
14.22000 7.499
14.24000 5.916
14.26000 11.124
14.28000 13.398
14.30000 4.908
14.32000 2.138
14.34000 8.044
14.36000 10.215
14.38000 -1.944
14.40000 9.977
14.42000 9.913
14.44000 7.389
14.46000 11.629
14.48000 8.244
14.50000 5.514
14.52000 2.129
14.54000 1.730
14.56000 -4.510
14.58000 -2.117
14.60000 8.149
14.62000 0.845
14.64000 8.130
14.66000 14.800
14.68000 4.720
14.70000 0.343
14.72000 3.083
14.74000 7.448
14.76000 12.063
14.78000 12.507
14.80000 11.162
14.82000 3.978
14.84000 -0.182
14.86000 -2.969
14.88000 1.414
14.90000 9.977
14.92000 14.250
14.94000 21.307
14.96000 7.740
14.98000 8.323
15.00000 10.175
15.02000 10.617
15.04000 11.688
15.06000 5.550
15.08000 9.761
15.10000 16.693
15.12000 10.538
15.14000 7.189
15.16000 3.520
15.18000 2.589
15.20000 -2.664
15.22000 1.503
15.24000 4.374
15.26000 7.041
15.28000 9.570
15.30000 2.386
15.32000 3.678
15.34000 4.002
15.36000 4.899
15.38000 9.539
15.40000 5.299
15.42000 5.317
15.44000 3.454
15.46000 3.583
15.48000 6.794
15.50000 5.257
15.52000 14.098
15.54000 8.600
15.56000 9.254
15.58000 7.524
15.60000 5.932
15.62000 3.514
15.64000 10.188
15.66000 9.369
15.68000 6.043
15.70000 14.472
15.72000 17.910
15.74000 17.774
15.76000 6.753
15.78000 -1.954
15.80000 -4.460
15.82000 4.370
15.84000 5.688
15.86000 5.686
15.88000 8.830
15.90000 12.996
15.92000 8.567
15.94000 12.048
15.96000 10.418
15.98000 9.575
16.00000 9.686
16.02000 10.482
16.04000 13.603
16.06000 10.979
16.08000 10.363
16.10000 5.020
16.12000 1.420
16.14000 -0.565
16.16000 3.734
16.18000 3.751
16.20000 3.189
16.22000 3.735
16.24000 2.597
16.26000 -0.952
16.28000 4.905
16.30000 3.177
16.32000 8.892
16.34000 7.124
16.36000 4.302
16.38000 0.790
16.40000 9.670
16.42000 10.594
16.44000 8.290
16.46000 7.435
16.48000 7.888
16.50000 3.651
16.52000 6.601
16.54000 11.844
16.56000 3.202
16.58000 2.831
16.60000 6.282
16.62000 7.552
16.64000 6.921
16.66000 4.787
16.68000 -2.908
16.70000 1.495
16.72000 10.847
16.74000 10.547
16.76000 7.594
16.78000 4.226
16.80000 4.523
16.82000 7.526
16.84000 5.086
16.86000 5.742
16.88000 10.110
16.90000 6.370
16.92000 4.866
16.94000 8.476
16.96000 9.507
16.98000 5.561
17.00000 1.987
17.02000 3.030
17.04000 5.543
17.06000 1.025
17.08000 1.243
17.10000 10.617
17.12000 12.242
17.14000 8.432
17.16000 10.656
17.18000 6.333
17.20000 -2.170
17.22000 5.320
17.24000 6.909
17.26000 7.654
17.28000 4.153
17.30000 7.831
17.32000 10.263
17.34000 9.034
17.36000 9.023
17.38000 -0.220
17.40000 -3.163
17.42000 4.936
17.44000 7.255
17.46000 7.931
17.48000 2.156
17.50000 -4.110
17.52000 -4.403
17.54000 1.767
17.56000 1.420
17.58000 -0.713
17.60000 1.198
17.62000 3.659
17.64000 0.593
17.66000 11.757
17.68000 8.712
17.70000 7.938
17.72000 11.657
17.74000 1.966
17.76000 1.985
17.78000 8.162
17.80000 6.636
17.82000 10.682
17.84000 4.025
17.86000 3.570
17.88000 5.226
17.90000 1.921
17.92000 2.572
17.94000 -0.698
17.96000 3.160
17.98000 1.602
18.00000 -0.277
18.02000 -0.191
18.04000 4.318
18.06000 8.030
18.08000 0.873
18.10000 4.906
18.12000 6.738
18.14000 6.551
18.16000 3.353
18.18000 -2.749
18.20000 -2.912
18.22000 9.662
18.24000 8.442
18.26000 5.126
18.28000 7.998
18.30000 3.420
18.32000 1.230
18.34000 -2.292
18.36000 -3.004
18.38000 -0.491
18.40000 -0.358
18.42000 8.043
18.44000 5.964
18.46000 -2.451
18.48000 0.874
18.50000 3.867
18.52000 6.487
18.54000 7.637
18.56000 4.937
18.58000 6.966
18.60000 4.943
18.62000 0.603
18.64000 -1.811
18.66000 -1.462
18.68000 1.469
18.70000 3.372
18.72000 3.974
18.74000 5.557
18.76000 1.533
18.78000 0.891
18.80000 5.699
18.82000 8.675
18.84000 6.807
18.86000 5.252
18.88000 0.559
18.90000 5.795
18.92000 3.697
18.94000 2.701
18.96000 2.827
18.98000 4.124
19.00000 13.925
19.02000 13.888
19.04000 1.533
19.06000 0.947
19.08000 1.766
19.10000 -0.229
19.12000 0.541
19.14000 2.369
19.16000 2.218
19.18000 6.131
19.20000 9.749
19.22000 8.319
19.24000 4.431
19.26000 -4.265
19.28000 2.188
19.30000 6.911
19.32000 8.032
19.34000 5.787
19.36000 3.136
19.38000 0.639
19.40000 -3.128
19.42000 1.427
19.44000 3.688
19.46000 2.157
19.48000 5.257
19.50000 2.849
19.52000 8.248
19.54000 12.789
19.56000 8.586
19.58000 3.990
19.60000 -2.688
19.62000 0.048
19.64000 6.875
19.66000 5.375
19.68000 3.131
19.70000 0.987
19.72000 6.570
19.74000 6.379
19.76000 4.455
19.78000 0.003
19.80000 9.870
19.82000 6.280
19.84000 4.120
19.86000 -1.845
19.88000 -3.746
19.90000 5.214
19.92000 11.927
19.94000 3.918
19.96000 4.246
19.98000 1.565
20.00000 6.570
20.02000 4.149
20.04000 8.635
20.06000 10.754
20.08000 5.750
20.10000 3.076
20.12000 0.426
20.14000 -3.149
20.16000 -1.713
20.18000 1.614
20.20000 1.259
20.22000 4.343
20.24000 8.697
20.26000 7.166
20.28000 4.194
20.30000 3.024
20.32000 3.266
20.34000 4.048
20.36000 2.071
20.38000 1.238
20.40000 6.250
20.42000 4.817
20.44000 6.086
20.46000 8.531
20.48000 3.503
20.50000 -4.064
20.52000 -1.006
20.54000 4.788
20.56000 5.556
20.58000 5.451
20.60000 7.047
20.62000 7.727
20.64000 10.511
20.66000 6.838
20.68000 -3.444
20.70000 -0.202
20.72000 6.168
20.74000 2.374
20.76000 4.381
20.78000 4.114
20.80000 5.430
20.82000 5.537
20.84000 -1.181
20.86000 0.627
20.88000 -1.270
20.90000 1.322
20.92000 3.961
20.94000 -1.896
20.96000 4.026
20.98000 0.859
21.00000 -1.957
21.02000 -1.070
21.04000 8.600
21.06000 0.479
21.08000 1.179
21.10000 1.504
21.12000 -0.411
21.14000 3.288
21.16000 7.881
21.18000 7.330
21.20000 -2.525
21.22000 -0.640
21.24000 0.141
21.26000 6.958
21.28000 5.794
21.30000 3.224
21.32000 0.731
21.34000 -4.169
21.36000 -4.010
21.38000 2.372
21.40000 11.812
21.42000 15.940
21.44000 9.857
21.46000 11.254
21.48000 11.167
21.50000 5.357
21.52000 4.888
21.54000 12.253
21.56000 5.496
21.58000 8.166
21.60000 8.854
21.62000 6.529
21.64000 5.008
21.66000 3.105
21.68000 4.518
21.70000 8.096
21.72000 5.008
21.74000 2.069
21.76000 2.849
21.78000 1.976
21.80000 6.912
21.82000 10.077
21.84000 9.885
21.86000 3.580
21.88000 -0.367
21.90000 2.716
21.92000 -0.727
21.94000 -3.335
21.96000 -1.262
21.98000 6.196
22.00000 0.827
22.02000 3.082
22.04000 -1.479
22.06000 -3.298
22.08000 -4.113
22.10000 5.184
22.12000 11.056
22.14000 6.938
22.16000 3.925
22.18000 7.538
22.20000 12.675
22.22000 7.879
22.24000 3.370
22.26000 3.381
22.28000 2.124
22.30000 2.246
22.32000 3.233
22.34000 -0.129
22.36000 -2.112
22.38000 4.155
22.40000 1.009
22.42000 5.307
22.44000 7.927
22.46000 6.687
22.48000 3.259
22.50000 3.130
22.52000 2.471
22.54000 2.985
22.56000 6.480
22.58000 4.122
22.60000 0.148
22.62000 1.059
22.64000 6.699
22.66000 2.539
22.68000 -1.140
22.70000 1.557
22.72000 3.919
22.74000 9.595
22.76000 2.451
22.78000 -0.187
22.80000 2.543
22.82000 -1.505
22.84000 2.889
22.86000 7.415
22.88000 3.294
22.90000 6.711
22.92000 5.395
22.94000 3.438
22.96000 2.464
22.98000 2.692
23.00000 0.987
23.02000 -1.355
23.04000 4.515
23.06000 0.952
23.08000 7.614
23.10000 9.984
23.12000 4.321
23.14000 3.005
23.16000 1.686
23.18000 2.142
23.20000 8.067
23.22000 12.390
23.24000 11.114
23.26000 2.037
23.28000 -1.868
23.30000 -2.874
23.32000 1.924
23.34000 2.754
23.36000 6.802
23.38000 10.107
23.40000 0.553
23.42000 -2.319
23.44000 5.185
23.46000 11.275
23.48000 1.855
23.50000 4.082
23.52000 7.368
23.54000 5.563
23.56000 -0.290
23.58000 4.681
23.60000 4.155
23.62000 3.801
23.64000 7.247
23.66000 8.017
23.68000 9.645
23.70000 7.837
23.72000 1.844
23.74000 -4.017
23.76000 1.273
23.78000 6.447
23.80000 8.707
23.82000 8.078
23.84000 5.601
23.86000 8.231
23.88000 6.165
23.90000 5.450
23.92000 6.640
23.94000 8.679
23.96000 10.235
23.98000 14.803
24.00000 12.937
24.02000 6.963
24.04000 3.426
24.06000 5.351
24.08000 7.760
24.10000 10.621
24.12000 5.035
24.14000 4.984
24.16000 6.067
24.18000 7.520
24.20000 6.398
24.22000 2.534
24.24000 6.931
24.26000 6.645
24.28000 5.159
24.30000 7.155
24.32000 5.456
24.34000 6.067
24.36000 7.947
24.38000 1.446
24.40000 -3.962
24.42000 0.591
24.44000 6.950
24.46000 11.794
24.48000 9.374
24.50000 8.750
24.52000 5.586
24.54000 7.058
24.56000 9.359
24.58000 6.823
24.60000 4.733
24.62000 2.536
24.64000 -1.159
24.66000 2.587
24.68000 0.696
24.70000 -1.549
24.72000 4.443
24.74000 -0.470
24.76000 0.830
24.78000 -0.293
24.80000 2.011
24.82000 4.308
24.84000 6.632
24.86000 5.554
24.88000 5.732
24.90000 -0.411
24.92000 -0.931
24.94000 0.900
24.96000 7.534
24.98000 8.083
25.00000 3.746
25.02000 -0.809
25.04000 0.526
25.06000 2.768
25.08000 2.212
25.10000 5.798
25.12000 1.366
25.14000 5.176
25.16000 3.513
25.18000 2.744
25.20000 7.719
25.22000 5.200
25.24000 3.678
25.26000 2.751
25.28000 1.570
25.30000 1.830
25.32000 6.608
25.34000 8.896
25.36000 5.859
25.38000 1.719
25.40000 -0.941
25.42000 6.420
25.44000 7.474
25.46000 7.394
25.48000 3.034
25.50000 -1.561
25.52000 -2.728
25.54000 -2.413
25.56000 -0.072
25.58000 4.689
25.60000 5.732
25.62000 2.841
25.64000 4.714
25.66000 7.483
25.68000 7.842
25.70000 7.094
25.72000 3.118
25.74000 1.987
25.76000 2.631
25.78000 7.085
25.80000 6.256
25.82000 5.738
25.84000 4.679
25.86000 1.844
25.88000 1.880
25.90000 2.939
25.92000 0.473
25.94000 5.614
25.96000 6.636
25.98000 0.114
26.00000 -0.116
26.02000 3.860
26.04000 2.168
26.06000 -0.280
26.08000 1.917
26.10000 0.675
26.12000 2.752
26.14000 1.655
26.16000 5.167
26.18000 5.508
26.20000 2.287
26.22000 0.997
26.24000 -3.687
26.26000 -3.090
26.28000 -0.107
26.30000 1.275
26.32000 6.126
26.34000 7.679
26.36000 1.179
26.38000 -1.391
26.40000 -0.935
26.42000 -1.930
26.44000 1.949
26.46000 3.458
26.48000 3.806
26.50000 6.644
26.52000 6.582
26.54000 1.063
26.56000 6.071
26.58000 1.490
26.60000 -3.891
26.62000 -1.549
26.64000 -0.272
26.66000 -0.961
26.68000 2.183
26.70000 2.723
26.72000 6.015
26.74000 8.619
26.76000 2.463
26.78000 2.422
26.80000 4.352
26.82000 7.794
26.84000 3.481
26.86000 1.885
26.88000 4.446
26.90000 1.790
26.92000 2.016
26.94000 3.923
26.96000 8.269
26.98000 2.974
27.00000 2.560
27.02000 2.280
27.04000 1.682
27.06000 7.650
27.08000 8.250
27.10000 1.816
27.12000 -2.446
27.14000 0.465
27.16000 0.219
27.18000 0.177
27.20000 -0.779
27.22000 3.108
27.24000 4.734
27.26000 -0.355
27.28000 -3.284
27.30000 0.243
27.32000 4.026
27.34000 4.668
27.36000 7.763
27.38000 5.188
27.40000 7.728
27.42000 7.358
27.44000 1.260
27.46000 2.507
27.48000 5.214
27.50000 4.474
27.52000 0.878
27.54000 1.840
27.56000 6.824
27.58000 7.980
27.60000 -0.754
27.62000 0.803
27.64000 -2.442
27.66000 2.046
27.68000 7.669
27.70000 3.241
27.72000 0.044
27.74000 4.344
27.76000 5.372
27.78000 5.530
27.80000 2.239
27.82000 3.624
27.84000 1.511
27.86000 1.540
27.88000 7.902
27.90000 8.922
27.92000 4.674
27.94000 -0.293
27.96000 4.647
27.98000 5.484
28.00000 1.802
28.02000 1.802
28.04000 0.551
28.06000 -2.870
28.08000 0.761
28.10000 6.326
28.12000 0.259
28.14000 -3.798
28.16000 1.431
28.18000 2.986
28.20000 3.161
28.22000 3.708
28.24000 0.861
28.26000 3.737
28.28000 6.599
28.30000 4.653
28.32000 7.063
28.34000 3.713
28.36000 4.413
28.38000 -0.393
28.40000 -3.110
28.42000 2.319
28.44000 5.981
28.46000 -1.048
28.48000 -0.091
28.50000 8.584
28.52000 5.353
28.54000 1.088
28.56000 0.496
28.58000 3.194
28.60000 6.174
28.62000 7.732
28.64000 1.654
28.66000 3.231
28.68000 4.271
28.70000 1.858
28.72000 2.845
28.74000 0.380
28.76000 -1.089
28.78000 3.657
28.80000 0.082
28.82000 5.326
28.84000 2.961
28.86000 -1.149
28.88000 0.541
28.90000 3.166
28.92000 -3.670
28.94000 -3.083
28.96000 -3.779
28.98000 0.020
29.00000 2.182
29.02000 -1.199
29.04000 -0.478
29.06000 4.639
29.08000 4.386
29.10000 4.696
29.12000 2.424
29.14000 1.764
29.16000 2.433
29.18000 0.163
29.20000 -0.045
29.22000 2.724
29.24000 4.703
29.26000 10.336
29.28000 -2.112
29.30000 -2.070
29.32000 -3.595
29.34000 2.047
29.36000 4.920
29.38000 2.848
29.40000 3.817
29.42000 5.779
29.44000 1.238
29.46000 1.181
29.48000 -2.021
29.50000 2.941
29.52000 -0.763
29.54000 -0.621
29.56000 2.183
29.58000 2.269
29.60000 1.206
29.62000 2.959
29.64000 4.687
29.66000 4.541
29.68000 2.839
29.70000 1.366
29.72000 2.035
29.74000 -0.688
29.76000 2.807
29.78000 3.027
29.80000 0.230
29.82000 -0.372
29.84000 0.413
29.86000 0.087
29.88000 -1.247
29.90000 -3.731
29.92000 -0.728
29.94000 3.172
29.96000 7.836
29.98000 2.949
30.00000 -0.967
30.02000 3.196
30.04000 4.218
30.06000 1.355
30.08000 -1.235
30.10000 2.298
30.12000 8.129
30.14000 2.613
30.16000 5.636
30.18000 5.691
30.20000 5.922
30.22000 5.106
30.24000 3.050
30.26000 4.784
30.28000 -1.875
30.30000 -0.664
30.32000 -3.698
30.34000 0.691
30.36000 7.355
30.38000 3.058
30.40000 -0.449
30.42000 -0.528
30.44000 -1.479
30.46000 -0.687
30.48000 0.340
30.50000 5.664
30.52000 5.977
30.54000 0.295
30.56000 2.977
30.58000 0.346
30.60000 -3.680
30.62000 -0.017
30.64000 4.508
30.66000 -1.220
30.68000 -1.215
30.70000 7.383
30.72000 8.975
30.74000 8.605
30.76000 4.954
30.78000 3.783
30.80000 -1.367
30.82000 0.481
30.84000 6.025
30.86000 9.293
30.88000 4.786
30.90000 5.330
30.92000 5.407
30.94000 1.542
30.96000 2.520
30.98000 5.897
31.00000 2.766
31.02000 5.246
31.04000 3.609
31.06000 4.760
31.08000 5.134
31.10000 0.298
31.12000 2.909
31.14000 2.626
31.16000 1.422
31.18000 1.824
31.20000 8.122
31.22000 9.058
31.24000 2.864
31.26000 5.556
31.28000 10.312
31.30000 8.766
31.32000 6.202
31.34000 7.080
31.36000 1.005
31.38000 1.098
31.40000 -1.210
31.42000 1.575
31.44000 3.410
31.46000 10.617
31.48000 5.969
31.50000 0.501
31.52000 4.416
31.54000 3.058
31.56000 -0.052
31.58000 -0.333
31.60000 -3.633
31.62000 -1.628
31.64000 3.814
31.66000 5.595
31.68000 7.068
31.70000 3.639
31.72000 1.958
31.74000 2.917
31.76000 4.541
31.78000 7.001
31.80000 6.631
31.82000 6.390
31.84000 1.320
31.86000 4.278
31.88000 5.310
31.90000 6.661
31.92000 4.069
31.94000 0.396
31.96000 2.427
31.98000 7.259
32.00000 5.722
32.02000 7.956
32.04000 7.921
32.06000 8.784
32.08000 10.086
32.10000 4.585
32.12000 -1.966
32.14000 -3.601
32.16000 -2.275
32.18000 3.876
32.20000 5.677
32.22000 5.879
32.24000 8.280
32.26000 7.398
32.28000 8.703
32.30000 8.389
32.32000 3.612
32.34000 4.017
32.36000 6.536
32.38000 9.651
32.40000 7.614
32.42000 4.410
32.44000 9.676
32.46000 2.217
32.48000 2.364
32.50000 7.340
32.52000 2.081
32.54000 2.779
32.56000 0.580
32.58000 4.022
32.60000 4.906
32.62000 7.547
32.64000 2.790
32.66000 -3.527
32.68000 2.203
32.70000 5.694
32.72000 4.791
32.74000 5.738
32.76000 1.203
32.78000 1.155
32.80000 0.115
32.82000 -0.434
32.84000 -0.325
32.86000 -2.185
32.88000 2.734
32.90000 5.689
32.92000 2.419
32.94000 1.648
32.96000 6.338
32.98000 5.931
33.00000 4.460
33.02000 2.937
33.04000 0.207
33.06000 3.363
33.08000 0.583
33.10000 0.510
33.12000 1.208
33.14000 5.145
33.16000 5.220
33.18000 11.564
33.20000 7.194
33.22000 -0.633
33.24000 -3.297
33.26000 -0.274
33.28000 0.378
33.30000 6.648
33.32000 10.279
33.34000 4.745
33.36000 3.430
33.38000 1.107
33.40000 5.680
33.42000 1.875
33.44000 -3.619
33.46000 1.494
33.48000 4.430
33.50000 1.894
33.52000 1.916
33.54000 7.557
33.56000 4.393
33.58000 3.836
33.60000 7.759
33.62000 5.906
33.64000 1.501
33.66000 3.208
33.68000 4.607
33.70000 -0.171
33.72000 5.220
33.74000 5.647
33.76000 3.326
33.78000 4.556
33.80000 5.476
33.82000 1.857
33.84000 1.412
33.86000 4.616
33.88000 9.160
33.90000 6.683
33.92000 7.041
33.94000 7.391
33.96000 7.309
33.98000 5.312
34.00000 4.875
34.02000 1.160
34.04000 4.170
34.06000 10.100
34.08000 7.800
34.10000 -0.873
34.12000 2.246
34.14000 6.652
34.16000 7.410
34.18000 4.356
34.20000 6.610
34.22000 5.715
34.24000 5.071
34.26000 3.886
34.28000 4.783
34.30000 4.686
34.32000 7.426
34.34000 3.621
34.36000 1.614
34.38000 -3.590
34.40000 -1.485
34.42000 1.447
34.44000 0.452
34.46000 -1.001
34.48000 -0.157
34.50000 2.037
34.52000 2.363
34.54000 3.792
34.56000 1.513
34.58000 -3.483
34.60000 -0.956
34.62000 2.615
34.64000 1.136
34.66000 -1.274
34.68000 0.779
34.70000 2.294
34.72000 2.185
34.74000 5.949
34.76000 3.312
34.78000 5.749
34.80000 3.995
34.82000 0.108
34.84000 -1.009
34.86000 5.461
34.88000 4.404
34.90000 2.010
34.92000 2.395
34.94000 1.521
34.96000 -0.616
34.98000 0.502
35.00000 1.806
35.02000 -0.562
35.04000 -2.766
35.06000 -2.346
35.08000 3.128
35.10000 1.595
35.12000 5.303
35.14000 3.266
35.16000 -0.521
35.18000 1.762
35.20000 0.323
35.22000 1.741
35.24000 2.687
35.26000 -0.830
35.28000 0.090
35.30000 2.436
35.32000 -0.009
35.34000 2.021
35.36000 2.869
35.38000 -3.625
35.40000 -1.097
35.42000 -3.627
35.44000 -2.372
35.46000 -0.152
35.48000 3.181
35.50000 4.880
35.52000 4.866
35.54000 1.126
35.56000 0.842
35.58000 4.239
35.60000 3.504
35.62000 6.348
35.64000 6.648
35.66000 -1.121
35.68000 -3.621
35.70000 -3.639
35.72000 -3.538
35.74000 4.521
35.76000 2.594
35.78000 -0.225
35.80000 -1.035
35.82000 0.293
35.84000 3.433
35.86000 -0.673
35.88000 -3.413
35.90000 0.815
35.92000 3.049
35.94000 3.774
35.96000 2.986
35.98000 -0.010
36.00000 0.822
36.02000 -0.688
36.04000 1.165
36.06000 2.262
36.08000 4.919
36.10000 2.668
36.12000 -0.218
36.14000 2.197
36.16000 -0.467
36.18000 1.504
36.20000 2.485
36.22000 3.003
36.24000 -2.990
36.26000 -3.674
36.28000 -2.295
36.30000 0.572
36.32000 1.151
36.34000 -2.418
36.36000 3.560
36.38000 1.969
36.40000 -1.559
36.42000 2.079
36.44000 2.065
36.46000 2.851
36.48000 8.938
36.50000 6.922
36.52000 3.505
36.54000 0.909
36.56000 -1.009
36.58000 2.433
36.60000 2.505
36.62000 1.964
36.64000 7.982
36.66000 3.326
36.68000 -3.268
36.70000 1.385
36.72000 4.362
36.74000 4.868
36.76000 5.824
36.78000 0.599
36.80000 0.133
36.82000 3.501
36.84000 8.289
36.86000 8.336
36.88000 5.619
36.90000 6.195
36.92000 7.374
36.94000 1.671
36.96000 -2.217
36.98000 -0.650
37.00000 2.705
37.02000 3.018
37.04000 4.720
37.06000 9.696
37.08000 9.552
37.10000 12.256
37.12000 10.157
37.14000 9.413
37.16000 9.114
37.18000 7.639
37.20000 8.178
37.22000 3.750
37.24000 5.683
37.26000 11.889
37.28000 13.160
37.30000 14.873
37.32000 16.104
37.34000 13.727
37.36000 15.294
37.38000 12.797
37.40000 15.908
37.42000 19.048
37.44000 19.995
37.46000 19.819
37.48000 18.755
37.50000 18.402
37.52000 15.521
37.54000 15.480
37.56000 16.676
37.58000 16.504
37.60000 18.797
37.62000 24.418
37.64000 23.905
37.66000 25.442
37.68000 23.510
37.70000 23.093
37.72000 18.156
37.74000 20.735
37.76000 25.660
37.78000 29.962
37.80000 28.863
37.82000 27.377
37.84000 29.132
37.86000 21.938
37.88000 28.587
37.90000 33.987
37.92000 34.787
37.94000 37.016
37.96000 34.031
37.98000 39.821
38.00000 43.063
38.02000 45.247
38.04000 40.612
38.06000 43.894
38.08000 46.775
38.10000 44.523
38.12000 47.674
38.14000 50.791
38.16000 55.233
38.18000 58.677
38.20000 59.798
38.22000 58.220
38.24000 64.385
38.26000 68.265
38.28000 71.038
38.30000 75.126
38.32000 79.729
38.34000 80.433
38.36000 81.471
38.38000 89.765
38.40000 87.528
38.42000 86.479
38.44000 90.419
38.46000 99.438
38.48000 110.311
38.50000 118.380
38.52000 122.965
38.54000 128.927
38.56000 135.018
38.58000 136.502
38.60000 149.034
38.62000 162.811
38.64000 173.041
38.66000 182.750
38.68000 194.446
38.70000 205.464
38.72000 218.019
38.74000 232.728
38.76000 243.104
38.78000 255.075
38.80000 269.673
38.82000 280.258
38.84000 296.199
38.86000 307.277
38.88000 308.584
38.90000 320.493
38.92000 323.574
38.94000 336.241
38.96000 339.829
38.98000 346.051
39.00000 353.881
39.02000 357.102
39.04000 348.872
39.06000 339.998
39.08000 342.245
39.10000 339.871
39.12000 335.359
39.14000 325.119
39.16000 318.375
39.18000 305.783
39.20000 292.469
39.22000 287.847
39.24000 274.553
39.26000 268.214
39.28000 256.637
39.30000 245.118
39.32000 233.427
39.34000 215.661
39.36000 215.874
39.38000 195.714
39.40000 183.326
39.42000 169.548
39.44000 163.926
39.46000 155.484
39.48000 145.550
39.50000 133.690
39.52000 128.210
39.54000 116.461
39.56000 118.978
39.58000 109.701
39.60000 105.662
39.62000 96.487
39.64000 82.399
39.66000 82.122
39.68000 83.427
39.70000 78.333
39.72000 69.966
39.74000 65.636
39.76000 61.985
39.78000 58.634
39.80000 52.906
39.82000 53.438
39.84000 50.584
39.86000 51.887
39.88000 48.249
39.90000 45.504
39.92000 42.194
39.94000 38.136
39.96000 37.933
39.98000 32.946
40.00000 32.440
40.02000 38.571
40.04000 31.882
40.06000 34.358
40.08000 33.883
40.10000 29.819
40.12000 26.702
40.14000 30.088
40.16000 24.475
40.18000 25.489
40.20000 22.569
40.22000 24.713
40.24000 24.056
40.26000 21.488
40.28000 18.542
40.30000 18.557
40.32000 24.175
40.34000 23.100
40.36000 17.609
40.38000 16.398
40.40000 16.566
40.42000 19.857
40.44000 22.844
40.46000 18.541
40.48000 16.322
40.50000 16.600
40.52000 16.206
40.54000 13.737
40.56000 10.795
40.58000 12.519
40.60000 10.748
40.62000 12.025
40.64000 10.700
40.66000 9.629
40.68000 6.662
40.70000 7.232
40.72000 12.183
40.74000 12.744
40.76000 11.367
40.78000 10.886
40.80000 8.925
40.82000 8.754
40.84000 7.459
40.86000 12.069
40.88000 11.248
40.90000 4.393
40.92000 6.389
40.94000 6.763
40.96000 1.788
40.98000 3.934
41.00000 7.964
41.02000 7.119
41.04000 9.389
41.06000 8.135
41.08000 6.469
41.10000 5.958
41.12000 9.041
41.14000 10.182
41.16000 9.506
41.18000 7.056
41.20000 6.386
41.22000 8.827
41.24000 6.999
41.26000 4.214
41.28000 1.283
41.30000 5.067
41.32000 1.895
41.34000 5.715
41.36000 3.668
41.38000 2.507
41.40000 1.162
41.42000 1.952
41.44000 2.221
41.46000 -2.161
41.48000 2.016
41.50000 2.576
41.52000 1.681
41.54000 -0.341
41.56000 4.003
41.58000 0.422
41.60000 0.658
41.62000 2.092
41.64000 1.552
41.66000 3.860
41.68000 6.128
41.70000 3.985
41.72000 3.497
41.74000 4.338
41.76000 2.890
41.78000 1.052
41.80000 1.516
41.82000 0.762
41.84000 -0.003
41.86000 1.998
41.88000 1.487
41.90000 4.794
41.92000 3.350
41.94000 3.758
41.96000 2.813
41.98000 3.266
42.00000 3.276
42.02000 2.103
42.04000 0.627
42.06000 2.834
42.08000 1.666
42.10000 -3.293
42.12000 -3.368
42.14000 -0.932
42.16000 -0.684
42.18000 -1.143
42.20000 1.670
42.22000 2.540
42.24000 3.218
42.26000 1.092
42.28000 -0.397
42.30000 -0.404
42.32000 -2.398
42.34000 -0.262
42.36000 0.026
42.38000 -0.630
42.40000 6.429
42.42000 2.952
42.44000 4.590
42.46000 4.290
42.48000 2.153
42.50000 3.292
42.52000 6.211
42.54000 8.184
42.56000 6.955
42.58000 4.239
42.60000 3.132
42.62000 2.284
42.64000 0.912
42.66000 -2.776
42.68000 -3.312
42.70000 -1.686
42.72000 0.143
42.74000 1.914
42.76000 5.943
42.78000 7.029
42.80000 3.515
42.82000 1.527
42.84000 0.934
42.86000 2.389
42.88000 3.075
42.90000 2.566
42.92000 -0.481
42.94000 -1.249
42.96000 -0.570
42.98000 -1.535
43.00000 -3.298
43.02000 -1.144
43.04000 0.366
43.06000 3.108
43.08000 1.485
43.10000 1.446
43.12000 -2.055
43.14000 0.042
43.16000 3.919
43.18000 1.355
43.20000 4.551
43.22000 2.579
43.24000 1.492
43.26000 0.307
43.28000 2.116
43.30000 5.581
43.32000 0.708
43.34000 -0.132
43.36000 -1.247
43.38000 3.022
43.40000 2.784
43.42000 4.716
43.44000 0.577
43.46000 -1.301
43.48000 1.318
43.50000 3.658
43.52000 5.345
43.54000 3.479
43.56000 2.936
43.58000 1.185
43.60000 0.392
43.62000 -0.138
43.64000 3.109
43.66000 1.320
43.68000 1.354
43.70000 1.927
43.72000 2.235
43.74000 6.442
43.76000 2.878
43.78000 2.294
43.80000 3.881
43.82000 2.398
43.84000 2.915
43.86000 0.555
43.88000 3.175
43.90000 4.537
43.92000 3.167
43.94000 5.990
43.96000 4.893
43.98000 2.422
44.00000 0.393
44.02000 2.174
44.04000 -3.227
44.06000 -2.878
44.08000 2.069
44.10000 3.265
44.12000 2.676
44.14000 3.740
44.16000 4.154
44.18000 8.440
44.20000 9.379
44.22000 4.526
44.24000 2.272
44.26000 2.730
44.28000 5.256
44.30000 6.078
44.32000 6.961
44.34000 7.688
44.36000 7.557
44.38000 9.430
44.40000 9.391
44.42000 9.742
44.44000 8.336
44.46000 9.123
44.48000 13.966
44.50000 11.888
44.52000 11.247
44.54000 11.896
44.56000 12.440
44.58000 14.981
44.60000 13.486
44.62000 13.469
44.64000 12.409
44.66000 15.708
44.68000 16.532
44.70000 14.098
44.72000 16.854
44.74000 22.240
44.76000 21.578
44.78000 26.115
44.80000 26.582
44.82000 24.450
44.84000 30.720
44.86000 29.776
44.88000 30.024
44.90000 34.329
44.92000 35.872
44.94000 39.070
44.96000 34.781
44.98000 36.146
45.00000 44.736
45.02000 44.453
45.04000 47.417
45.06000 47.009
45.08000 53.418
45.10000 57.199
45.12000 54.559
45.14000 56.289
45.16000 62.612
45.18000 65.445
45.20000 68.726
45.22000 68.009
45.24000 67.477
45.26000 65.176
45.28000 68.691
45.30000 77.300
45.32000 80.975
45.34000 80.724
45.36000 82.258
45.38000 87.920
45.40000 89.370
45.42000 87.677
45.44000 87.138
45.46000 90.345
45.48000 89.721
45.50000 85.742
45.52000 88.434
45.54000 92.956
45.56000 95.442
45.58000 93.526
45.60000 92.697
45.62000 89.068
45.64000 85.221
45.66000 86.919
45.68000 83.421
45.70000 78.003
45.72000 79.331
45.74000 73.920
45.76000 75.709
45.78000 77.062
45.80000 69.250
45.82000 61.523
45.84000 64.454
45.86000 61.530
45.88000 60.559
45.90000 58.039
45.92000 56.329
45.94000 52.001
45.96000 50.511
45.98000 45.548
46.00000 46.125
46.02000 45.621
46.04000 42.648
46.06000 39.455
46.08000 33.482
46.10000 35.777
46.12000 36.882
46.14000 34.978
46.16000 30.620
46.18000 27.145
46.20000 28.652
46.22000 28.442
46.24000 24.087
46.26000 18.176
46.28000 15.137
46.30000 15.474
46.32000 18.224
46.34000 19.796
46.36000 15.661
46.38000 14.337
46.40000 12.133
46.42000 10.024
46.44000 10.892
46.46000 10.394
46.48000 8.093
46.50000 6.978
46.52000 5.944
46.54000 5.495
46.56000 9.013
46.58000 12.957
46.60000 12.033
46.62000 6.817
46.64000 3.231
46.66000 5.191
46.68000 3.807
46.70000 3.662
46.72000 7.060
46.74000 4.803
46.76000 4.063
46.78000 3.422
46.80000 3.774
46.82000 4.143
46.84000 3.360
46.86000 3.158
46.88000 3.313
46.90000 2.408
46.92000 4.398
46.94000 1.784
46.96000 4.495
46.98000 2.946
47.00000 2.018
47.02000 3.593
47.04000 3.684
47.06000 5.067
47.08000 3.522
47.10000 0.509
47.12000 1.196
47.14000 -0.476
47.16000 -2.841
47.18000 4.486
47.20000 4.334
47.22000 2.716
47.24000 3.415
47.26000 2.869
47.28000 -0.238
47.30000 3.622
47.32000 0.803
47.34000 -1.633
47.36000 -1.590
47.38000 2.311
47.40000 2.426
47.42000 0.253
47.44000 5.376
47.46000 6.139
47.48000 2.856
47.50000 1.520
47.52000 2.677
47.54000 2.880
47.56000 1.590
47.58000 -2.813
47.60000 0.329
47.62000 4.031
47.64000 5.565
47.66000 3.674
47.68000 6.694
47.70000 3.912
47.72000 5.615
47.74000 5.033
47.76000 2.051
47.78000 3.657
47.80000 1.254
47.82000 4.128
47.84000 5.845
47.86000 5.678
47.88000 1.787
47.90000 1.770
47.92000 4.596
47.94000 4.326
47.96000 1.923
47.98000 3.941
48.00000 4.700
48.02000 7.650
48.04000 4.983
48.06000 4.828
48.08000 1.429
48.10000 -1.548
48.12000 0.752
48.14000 0.118
48.16000 6.088
48.18000 5.768
48.20000 4.174
48.22000 -1.575
48.24000 -2.441
48.26000 0.155
48.28000 1.094
48.30000 2.496
48.32000 4.169
48.34000 1.541
48.36000 0.587
48.38000 3.814
48.40000 2.763
48.42000 1.004
48.44000 1.164
48.46000 -0.552
48.48000 -2.739
48.50000 -0.243
48.52000 -1.019
48.54000 -1.707
48.56000 -0.187
48.58000 -0.195
48.60000 2.365
48.62000 4.758
48.64000 4.923
48.66000 4.661
48.68000 -2.493
48.70000 -0.071
48.72000 0.163
48.74000 0.794
48.76000 4.177
48.78000 6.699
48.80000 4.804
48.82000 4.548
48.84000 4.504
48.86000 2.671
48.88000 -2.249
48.90000 -2.699
48.92000 -0.089
48.94000 -2.678
48.96000 -0.486
48.98000 -1.044
49.00000 1.195
49.02000 0.896
49.04000 2.003
49.06000 5.259
49.08000 9.099
49.10000 0.985
49.12000 -0.312
49.14000 -0.259
49.16000 -1.057
49.18000 -1.258
49.20000 -0.775
49.22000 2.049
49.24000 6.091
49.26000 6.412
49.28000 3.160
49.30000 4.423
49.32000 3.875
49.34000 5.561
49.36000 4.470
49.38000 2.374
49.40000 3.573
49.42000 5.319
49.44000 4.763
49.46000 1.671
49.48000 4.272
49.50000 3.998
49.52000 3.925
49.54000 7.365
49.56000 5.703
49.58000 -2.654
49.60000 -0.171
49.62000 3.027
49.64000 4.525
49.66000 3.631
49.68000 -2.647
49.70000 2.840
49.72000 3.054
49.74000 2.615
49.76000 5.931
49.78000 2.094
49.80000 2.385
49.82000 4.409
49.84000 2.616
49.86000 4.140
49.88000 4.218
49.90000 3.100
49.92000 2.876
49.94000 1.205
49.96000 0.976
49.98000 2.979
50.00000 -0.513
50.02000 0.159
50.04000 0.473
50.06000 1.601
50.08000 4.010
50.10000 3.019
50.12000 2.722
50.14000 8.140
50.16000 6.535
50.18000 3.777
50.20000 1.018
50.22000 0.673
50.24000 3.258
50.26000 4.832
50.28000 4.988
50.30000 3.218
50.32000 4.918
50.34000 4.826
50.36000 2.189
50.38000 0.690
50.40000 4.331
50.42000 5.489
50.44000 7.542
50.46000 6.871
50.48000 8.170
50.50000 5.856
50.52000 -0.518
50.54000 -2.627
50.56000 4.446
50.58000 4.470
50.60000 0.878
50.62000 3.970
50.64000 4.925
50.66000 4.062
50.68000 6.486
50.70000 5.868
50.72000 7.197
50.74000 4.824
50.76000 0.709
50.78000 1.066
50.80000 4.428
50.82000 1.543
50.84000 3.551
50.86000 2.818
50.88000 3.438
50.90000 2.485
50.92000 0.771
50.94000 3.136
50.96000 -0.813
50.98000 -0.308
51.00000 2.325
51.02000 6.101
51.04000 5.776
51.06000 5.540
51.08000 3.760
51.10000 4.388
51.12000 3.803
51.14000 1.743
51.16000 4.583
51.18000 1.446
51.20000 -1.860
51.22000 -2.153
51.24000 -2.312
51.26000 -2.618
51.28000 -1.892
51.30000 1.482
51.32000 5.102
51.34000 5.551
51.36000 6.799
51.38000 4.354
51.40000 6.076
51.42000 1.029
51.44000 -0.842
51.46000 -2.613
51.48000 -0.576
51.50000 -0.613
51.52000 0.401
51.54000 -2.612
51.56000 2.487
51.58000 6.365
51.60000 2.070
51.62000 4.203
51.64000 1.698
51.66000 1.144
51.68000 -2.520
51.70000 -0.138
51.72000 1.190
51.74000 2.145
51.76000 0.750
51.78000 1.672
51.80000 1.026
51.82000 0.692
51.84000 3.086
51.86000 1.292
51.88000 1.015
51.90000 1.633
51.92000 3.946
51.94000 0.290
51.96000 -0.766
51.98000 -2.619
52.00000 -0.587
52.02000 0.179
52.04000 -1.289
52.06000 -0.861
52.08000 2.069
52.10000 1.148
52.12000 -1.694
52.14000 -0.768
52.16000 -0.209
52.18000 -0.863
52.20000 5.075
52.22000 7.780
52.24000 -1.575
52.26000 1.027
52.28000 1.159
52.30000 2.974
52.32000 -1.057
52.34000 2.290
52.36000 3.253
52.38000 -0.733
52.40000 -0.840
52.42000 3.876
52.44000 1.774
52.46000 0.446
52.48000 1.325
52.50000 -0.741
52.52000 -0.967
52.54000 -1.379
52.56000 -0.563
52.58000 2.838
52.60000 2.507
52.62000 1.940
52.64000 -2.301
52.66000 -0.821
52.68000 0.933
52.70000 -1.437
52.72000 -0.263
52.74000 0.840
52.76000 2.230
52.78000 1.020
52.80000 -1.204
52.82000 1.652
52.84000 2.043
52.86000 1.073
52.88000 2.530
52.90000 4.136
52.92000 5.832
52.94000 2.080
52.96000 1.906
52.98000 2.857
53.00000 -1.599
53.02000 -1.049
53.04000 2.238
53.06000 2.656
53.08000 -2.598
53.10000 1.385
53.12000 3.635
53.14000 0.004
53.16000 -2.593
53.18000 0.385
53.20000 -1.058
53.22000 0.158
53.24000 -1.845
53.26000 1.210
53.28000 1.087
53.30000 0.919
53.32000 1.856
53.34000 3.814
53.36000 2.446
53.38000 3.403
53.40000 2.518
53.42000 4.395
53.44000 6.066
53.46000 -0.144
53.48000 -0.390
53.50000 4.667
53.52000 3.177
53.54000 5.624
53.56000 4.186
53.58000 5.678
53.60000 -0.048
53.62000 2.008
53.64000 2.319
53.66000 4.225
53.68000 0.008
53.70000 -1.556
53.72000 -0.357
53.74000 0.988
53.76000 -0.487
53.78000 0.564
53.80000 -0.352
53.82000 3.939
53.84000 2.545
53.86000 0.024
53.88000 3.030
53.90000 4.403
53.92000 0.037
53.94000 0.704
53.96000 -1.321
53.98000 -0.892
54.00000 2.294
54.02000 5.094
54.04000 2.278
54.06000 2.765
54.08000 4.876
54.10000 7.629
54.12000 5.757
54.14000 1.502
54.16000 -0.992
54.18000 1.375
54.20000 4.326
54.22000 5.556
54.24000 3.570
54.26000 -1.632
54.28000 -2.534
54.30000 -0.743
54.32000 3.375
54.34000 3.271
54.36000 3.296
54.38000 0.936
54.40000 -0.071
54.42000 1.203
54.44000 2.570
54.46000 1.755
54.48000 3.046
54.50000 2.250
54.52000 3.368
54.54000 0.614
54.56000 -0.289
54.58000 2.395
54.60000 2.378
54.62000 0.935
54.64000 0.235
54.66000 0.490
54.68000 1.658
54.70000 7.516
54.72000 4.686
54.74000 0.195
54.76000 -0.477
54.78000 -0.414
54.80000 2.263
54.82000 3.741
54.84000 2.910
54.86000 3.489
54.88000 1.325
54.90000 3.437
54.92000 -2.517
54.94000 0.296
54.96000 4.542
54.98000 5.661
55.00000 2.238
55.02000 1.430
55.04000 -0.655
55.06000 1.475
55.08000 5.415
55.10000 5.358
55.12000 3.083
55.14000 0.632
55.16000 -0.229
55.18000 0.658
55.20000 2.519
55.22000 4.292
55.24000 6.028
55.26000 3.002
55.28000 2.241
55.30000 -0.504
55.32000 -1.340
55.34000 0.616
55.36000 4.236
55.38000 2.771
55.40000 1.957
55.42000 2.560
55.44000 3.616
55.46000 0.720
55.48000 2.960
55.50000 7.592
55.52000 4.890
55.54000 -0.532
55.56000 3.759
55.58000 4.302
55.60000 1.649
55.62000 0.469
55.64000 -1.847
55.66000 -0.238
55.68000 2.933
55.70000 0.145
55.72000 -0.191
55.74000 -0.333
55.76000 -1.076
55.78000 1.463
55.80000 1.152
55.82000 3.866
55.84000 3.077
55.86000 5.372
55.88000 5.795
55.90000 3.368
55.92000 -2.489
55.94000 -1.009
55.96000 1.163
55.98000 -0.677
56.00000 1.604
56.02000 0.128
56.04000 4.021
56.06000 4.017
56.08000 3.583
56.10000 3.418
56.12000 1.663
56.14000 0.721
56.16000 2.475
56.18000 1.688
56.20000 2.573
56.22000 3.765
56.24000 5.634
56.26000 4.430
56.28000 3.408
56.30000 2.104
56.32000 1.104
56.34000 3.127
56.36000 2.296
56.38000 2.646
56.40000 7.084
56.42000 3.767
56.44000 0.667
56.46000 1.600
56.48000 1.531
56.50000 3.909
56.52000 -0.109
56.54000 -0.618
56.56000 2.805
56.58000 5.981
56.60000 3.876
56.62000 1.258
56.64000 1.945
56.66000 1.516
56.68000 1.684
56.70000 2.819
56.72000 1.635
56.74000 2.543
56.76000 4.457
56.78000 6.803
56.80000 4.848
56.82000 -0.386
56.84000 -0.755
56.86000 0.439
56.88000 2.354
56.90000 1.895
56.92000 1.199
56.94000 -1.567
56.96000 0.109
56.98000 2.389
57.00000 3.046
57.02000 1.953
57.04000 1.816
57.06000 0.998
57.08000 -2.461
57.10000 -2.253
57.12000 1.323
57.14000 2.651
57.16000 5.782
57.18000 7.155
57.20000 2.504
57.22000 -1.382
57.24000 0.978
57.26000 1.229
57.28000 2.414
57.30000 2.051
57.32000 -0.373
57.34000 -0.908
57.36000 2.349
57.38000 5.363
57.40000 5.594
57.42000 3.541
57.44000 2.209
57.46000 4.642
57.48000 4.654
57.50000 4.116
57.52000 3.839
57.54000 6.316
57.56000 5.215
57.58000 8.423
57.60000 5.761
57.62000 3.449
57.64000 4.021
57.66000 5.763
57.68000 4.627
57.70000 5.344
57.72000 4.743
57.74000 7.734
57.76000 3.515
57.78000 2.011
57.80000 3.545
57.82000 3.709
57.84000 -1.119
57.86000 1.622
57.88000 0.681
57.90000 -0.230
57.92000 -0.910
57.94000 1.310
57.96000 4.045
57.98000 3.868
58.00000 3.171
58.02000 0.351
58.04000 -2.433
58.06000 1.594
58.08000 4.185
58.10000 5.022
58.12000 4.232
58.14000 4.639
58.16000 2.160
58.18000 -2.435
58.20000 -0.574
58.22000 2.991
58.24000 2.993
58.26000 2.302
58.28000 -1.513
58.30000 3.816
58.32000 3.727
58.34000 2.544
58.36000 1.399
58.38000 1.173
58.40000 -0.788
58.42000 0.511
58.44000 2.126
58.46000 -0.349
58.48000 -2.440
58.50000 -1.059
58.52000 -0.050
58.54000 -0.886
58.56000 1.333
58.58000 -0.278
58.60000 2.821
58.62000 4.145
58.64000 2.713
58.66000 3.081
58.68000 0.773
58.70000 1.761
58.72000 -0.374
58.74000 -0.111
58.76000 1.358
58.78000 1.455
58.80000 4.274
58.82000 1.854
58.84000 2.337
58.86000 -0.033
58.88000 1.259
58.90000 2.278
58.92000 -0.453
58.94000 0.313
58.96000 1.919
58.98000 1.047
59.00000 -2.022
59.02000 -2.007
59.04000 -1.272
59.06000 0.341
59.08000 0.887
59.10000 1.950
59.12000 0.391
59.14000 2.416
59.16000 4.471
59.18000 1.185
59.20000 -0.019
59.22000 1.279
59.24000 2.951
59.26000 2.837
59.28000 -0.082
59.30000 1.996
59.32000 5.263
59.34000 1.418
59.36000 2.172
59.38000 1.399
59.40000 -0.170
59.42000 -1.909
59.44000 -2.403
59.46000 0.053
59.48000 1.665
59.50000 -0.396
59.52000 0.560
59.54000 -1.608
59.56000 -1.457
59.58000 3.542
59.60000 4.973
59.62000 2.460
59.64000 3.113
59.66000 2.811
59.68000 -0.330
59.70000 -0.714
59.72000 -0.896
59.74000 -0.582
59.76000 0.186
59.78000 -2.401
59.80000 0.191
59.82000 1.756
59.84000 4.787
59.86000 6.560
59.88000 5.601
59.90000 0.327
59.92000 -2.163
59.94000 0.325
59.96000 3.377
59.98000 1.697
60.00000 0.973
60.02000 6.303
60.04000 5.651
60.06000 3.099
60.08000 0.858
60.10000 -0.825
60.12000 -2.377
60.14000 -1.607
60.16000 -2.374
60.18000 0.332
60.20000 -0.082
60.22000 0.591
60.24000 -1.390
60.26000 -1.881
60.28000 1.393
60.30000 4.180
60.32000 -0.571
60.34000 -1.356
60.36000 0.729
60.38000 3.714
60.40000 3.737
60.42000 4.008
60.44000 1.641
60.46000 -0.140
60.48000 2.613
60.50000 6.066
60.52000 5.982
60.54000 1.738
60.56000 2.006
60.58000 2.998
60.60000 4.069
60.62000 5.293
60.64000 0.991
60.66000 1.590
60.68000 0.402
60.70000 0.463
60.72000 -0.196
60.74000 2.549
60.76000 3.152
60.78000 3.576
60.80000 4.884
60.82000 -0.530
60.84000 -2.337
60.86000 0.273
60.88000 5.619
60.90000 3.646
60.92000 2.372
60.94000 -1.461
60.96000 -1.443
60.98000 1.555
61.00000 4.265
61.02000 0.672
61.04000 2.079
61.06000 2.730
61.08000 3.640
61.10000 3.946
61.12000 6.417
61.14000 5.684
61.16000 0.425
61.18000 0.514
61.20000 3.678
61.22000 1.614
61.24000 1.875
61.26000 1.902
61.28000 1.679
61.30000 -1.048
61.32000 -0.037
61.34000 -0.796
61.36000 0.229
61.38000 1.194
61.40000 3.997
61.42000 -1.225
61.44000 0.787
61.46000 0.837
61.48000 0.269
61.50000 0.980
61.52000 1.660
61.54000 0.817
61.56000 0.061
61.58000 -2.337
61.60000 0.003
61.62000 -0.909
61.64000 0.625
61.66000 4.513
61.68000 1.656
61.70000 2.055
61.72000 -1.697
61.74000 1.673
61.76000 3.583
61.78000 1.292
61.80000 -0.390
61.82000 1.593
61.84000 3.328
61.86000 2.626
61.88000 2.300
61.90000 0.945
61.92000 0.045
61.94000 1.448
61.96000 0.666
61.98000 2.026
62.00000 2.585
62.02000 2.317
62.04000 4.009
62.06000 2.726
62.08000 3.019
62.10000 1.492
62.12000 -2.209
62.14000 -0.648
62.16000 0.538
62.18000 7.279
62.20000 2.083
62.22000 -2.142
62.24000 0.575
62.26000 5.969
62.28000 2.364
62.30000 -2.311
62.32000 2.116
62.34000 1.400
62.36000 3.324
62.38000 0.838
62.40000 1.325
62.42000 4.163
62.44000 5.342
62.46000 2.259
62.48000 1.313
62.50000 3.789
62.52000 -1.305
62.54000 1.379
62.56000 1.699
62.58000 1.375
62.60000 2.781
62.62000 1.985
62.64000 -0.584
62.66000 -0.121
62.68000 -2.306
62.70000 -0.436
62.72000 -1.558
62.74000 2.777
62.76000 1.643
62.78000 -1.646
62.80000 0.994
62.82000 3.044
62.84000 3.373
62.86000 1.493
62.88000 0.827
62.90000 3.865
62.92000 0.168
62.94000 2.896
62.96000 2.788
62.98000 1.915
63.00000 -0.759
63.02000 0.885
63.04000 -0.713
63.06000 -1.409
63.08000 -0.115
63.10000 0.948
63.12000 2.111
63.14000 0.768
63.16000 -0.529
63.18000 2.360
63.20000 -0.334
63.22000 3.110
63.24000 0.505
63.26000 -0.353
63.28000 1.399
63.30000 3.437
63.32000 2.590
63.34000 1.602
63.36000 -0.669
63.38000 0.594
63.40000 2.797
63.42000 0.396
63.44000 -2.290
63.46000 2.717
63.48000 3.070
63.50000 3.680
63.52000 7.479
63.54000 2.618
63.56000 0.177
63.58000 -0.859
63.60000 1.735
63.62000 2.395
63.64000 2.637
63.66000 3.175
63.68000 0.255
63.70000 0.085
63.72000 1.717
63.74000 0.133
63.76000 -0.762
63.78000 -1.193
63.80000 0.386
63.82000 3.285
63.84000 1.692
63.86000 -0.201
63.88000 -0.476
63.90000 -0.152
63.92000 -1.865
63.94000 1.745
63.96000 1.501
63.98000 1.624
64.00000 2.392
64.02000 4.489
64.04000 2.839
64.06000 3.765
64.08000 5.594
64.10000 3.360
64.12000 0.237
64.14000 0.471
64.16000 0.245
64.18000 2.371
64.20000 3.269
64.22000 -0.263
64.24000 -1.631
64.26000 0.402
64.28000 0.551
64.30000 0.061
64.32000 3.549
64.34000 1.514
64.36000 1.143
64.38000 1.127
64.40000 0.334
64.42000 0.969
64.44000 0.146
64.46000 -0.581
64.48000 1.818
64.50000 0.719
64.52000 0.943
64.54000 3.401
64.56000 1.291
64.58000 4.091
64.60000 3.433
64.62000 -2.304
64.64000 -1.698
64.66000 2.222
64.68000 4.905
64.70000 3.130
64.72000 0.707
64.74000 -0.430
64.76000 5.351
64.78000 2.087
64.80000 2.477
64.82000 2.381
64.84000 2.903
64.86000 0.988
64.88000 0.938
64.90000 0.955
64.92000 1.362
64.94000 3.420
64.96000 2.593
64.98000 -0.659
65.00000 -1.043
65.02000 0.221
65.04000 2.558
65.06000 2.750
65.08000 0.872
65.10000 1.802
65.12000 2.584
65.14000 1.577
65.16000 0.156
65.18000 -2.294
65.20000 1.215
65.22000 1.649
65.24000 1.128
65.26000 4.466
65.28000 2.187
65.30000 1.082
65.32000 4.306
65.34000 2.531
65.36000 0.137
65.38000 0.008
65.40000 0.189
65.42000 -0.320
65.44000 0.424
65.46000 -2.297
65.48000 0.621
65.50000 0.769
65.52000 2.562
65.54000 1.490
65.56000 5.505
65.58000 6.672
65.60000 3.499
65.62000 2.855
65.64000 0.374
65.66000 1.192
65.68000 3.968
65.70000 3.958
65.72000 2.104
65.74000 0.952
65.76000 2.885
65.78000 0.251
65.80000 3.146
65.82000 3.951
65.84000 3.620
65.86000 2.610
65.88000 1.395
65.90000 1.077
65.92000 4.813
65.94000 7.465
65.96000 4.927
65.98000 1.298
66.00000 0.848
66.02000 3.762
66.04000 3.451
66.06000 4.790
66.08000 5.772
66.10000 2.319
66.12000 7.672
66.14000 8.782
66.16000 6.362
66.18000 6.832
66.20000 6.804
66.22000 5.196
66.24000 4.574
66.26000 5.259
66.28000 5.654
66.30000 8.162
66.32000 9.345
66.34000 7.764
66.36000 8.068
66.38000 3.763
66.40000 2.110
66.42000 3.263
66.44000 3.015
66.46000 3.654
66.48000 6.215
66.50000 6.776
66.52000 4.989
66.54000 2.092
66.56000 2.416
66.58000 -0.036
66.60000 4.342
66.62000 6.116
66.64000 2.441
66.66000 1.013
66.68000 2.484
66.70000 4.810
66.72000 2.786
66.74000 3.628
66.76000 3.176
66.78000 -0.554
66.80000 2.536
66.82000 3.319
66.84000 0.603
66.86000 2.375
66.88000 0.200
66.90000 0.393
66.92000 -0.122
66.94000 0.659
66.96000 1.802
66.98000 0.509
67.00000 0.746
67.02000 1.479
67.04000 1.718
67.06000 3.199
67.08000 1.042
67.10000 1.776
67.12000 1.951
67.14000 -0.520
67.16000 1.956
67.18000 3.046
67.20000 -0.258
67.22000 -0.413
67.24000 2.231
67.26000 1.918
67.28000 -0.483
67.30000 1.092
67.32000 0.705
67.34000 1.377
67.36000 -0.224
67.38000 0.024
67.40000 1.766
67.42000 0.093
67.44000 -1.896
67.46000 0.691
67.48000 2.703
67.50000 1.461
67.52000 1.202
67.54000 1.779
67.56000 1.891
67.58000 2.530
67.60000 0.526
67.62000 0.273
67.64000 2.564
67.66000 1.329
67.68000 1.180
67.70000 1.429
67.72000 4.023
67.74000 1.405
67.76000 0.851
67.78000 0.696
67.80000 0.324
67.82000 -1.503
67.84000 -2.166
67.86000 -1.042
67.88000 1.527
67.90000 1.415
67.92000 0.541
67.94000 1.920
67.96000 1.210
67.98000 3.110
68.00000 1.079
68.02000 -0.184
68.04000 1.423
68.06000 3.740
68.08000 6.170
68.10000 5.938
68.12000 3.122
68.14000 0.378
68.16000 -1.576
68.18000 -1.210
68.20000 1.648
68.22000 2.350
68.24000 3.152
68.26000 0.790
68.28000 0.592
68.30000 0.211
68.32000 0.604
68.34000 3.331
68.36000 4.541
68.38000 4.453
68.40000 -1.138
68.42000 -0.955
68.44000 -1.200
68.46000 -1.482
68.48000 0.762
68.50000 0.607
68.52000 2.600
68.54000 2.823
68.56000 0.166
68.58000 -0.160
68.60000 0.042
68.62000 4.014
68.64000 3.146
68.66000 -0.200
68.68000 0.293
68.70000 2.329
68.72000 0.142
68.74000 0.554
68.76000 0.725
68.78000 -0.441
68.80000 -0.704
68.82000 0.233
68.84000 -0.424
68.86000 -0.990
68.88000 -0.566
68.90000 -0.149
68.92000 0.417
68.94000 1.099
68.96000 1.084
68.98000 0.467
69.00000 1.243
69.02000 1.960
69.04000 3.358
69.06000 1.986
69.08000 1.397
69.10000 2.969
69.12000 2.337
69.14000 2.264
69.16000 -0.099
69.18000 -2.130
69.20000 -0.600
69.22000 4.655
69.24000 3.381
69.26000 1.599
69.28000 1.480
69.30000 0.362
69.32000 1.443
69.34000 0.547
69.36000 -0.200
69.38000 0.469
69.40000 0.597
69.42000 1.951
69.44000 2.907
69.46000 1.633
69.48000 -0.026
69.50000 -1.091
69.52000 0.225
69.54000 -0.441
69.56000 1.118
69.58000 1.017
69.60000 3.168
69.62000 1.471
69.64000 1.673
69.66000 0.096
69.68000 0.753
69.70000 1.876
69.72000 3.851
69.74000 1.822
69.76000 1.031
69.78000 2.219
69.80000 3.796
69.82000 3.562
69.84000 3.024
69.86000 3.196
69.88000 3.464
69.90000 0.450
69.92000 0.288
69.94000 2.381
69.96000 2.991
69.98000 2.794
70.00000 4.597
70.02000 1.382
70.04000 -1.033
70.06000 -0.470
70.08000 -0.868
70.10000 -1.805
70.12000 2.178
70.14000 1.933
70.16000 -0.195
70.18000 2.982
70.20000 0.586
70.22000 1.597
70.24000 1.184
70.26000 1.418
70.28000 0.044
70.30000 -1.405
70.32000 -0.007
70.34000 -0.510
70.36000 -1.194
70.38000 -0.534
70.40000 -0.003
70.42000 -1.238
70.44000 -2.108
70.46000 -0.973
70.48000 0.575
70.50000 0.002
70.52000 0.008
70.54000 0.771
70.56000 1.440
70.58000 1.024
70.60000 1.948
70.62000 0.708
70.64000 0.723
70.66000 3.131
70.68000 1.928
70.70000 1.574
70.72000 2.604
70.74000 3.271
70.76000 0.213
70.78000 0.471
70.80000 1.219
70.82000 1.851
70.84000 2.086
70.86000 1.868
70.88000 0.281
70.90000 0.137
70.92000 3.126
70.94000 2.514
70.96000 3.174
70.98000 1.908
71.00000 0.856
71.02000 4.419
71.04000 1.641
71.06000 0.614
71.08000 1.767
71.10000 0.586
71.12000 0.105
71.14000 2.590
71.16000 3.177
71.18000 1.463
71.20000 1.646
71.22000 0.254
71.24000 -2.050
71.26000 -0.286
71.28000 1.499
71.30000 2.863
71.32000 1.154
71.34000 -0.140
71.36000 1.092
71.38000 2.671
71.40000 1.385
71.42000 1.545
71.44000 1.837
71.46000 -1.645
71.48000 1.031
71.50000 2.160
71.52000 2.328
71.54000 -0.024
71.56000 0.124
71.58000 3.609
71.60000 1.567
71.62000 1.698
71.64000 2.178
71.66000 1.194
71.68000 0.801
71.70000 1.346
71.72000 0.486
71.74000 -0.104
71.76000 -0.056
71.78000 2.463
71.80000 3.971
71.82000 1.483
71.84000 -0.720
71.86000 -0.633
71.88000 -1.097
71.90000 1.099
71.92000 2.109
71.94000 1.477
71.96000 1.340
71.98000 1.936
72.00000 -0.056
72.02000 1.420
72.04000 2.670
72.06000 3.205
72.08000 1.992
72.10000 0.627
72.12000 1.110
72.14000 3.270
72.16000 1.403
72.18000 1.107
72.20000 3.076
72.22000 1.127
72.24000 1.437
72.26000 -0.843
72.28000 1.676
72.30000 2.284
72.32000 0.602
72.34000 -1.353
72.36000 -2.036
72.38000 0.631
72.40000 0.745
72.42000 0.378
72.44000 2.248
72.46000 -1.559
72.48000 -2.029
72.50000 -0.873
72.52000 -0.281
72.54000 -0.591
72.56000 -1.255
72.58000 1.527
72.60000 1.469
72.62000 2.309
72.64000 1.488
72.66000 1.280
72.68000 1.218
72.70000 3.820
72.72000 2.126
72.74000 -1.528
72.76000 2.294
72.78000 3.075
72.80000 2.510
72.82000 3.522
72.84000 3.520
72.86000 2.206
72.88000 -0.118
72.90000 2.740
72.92000 4.226
72.94000 1.769
72.96000 -0.181
72.98000 0.327
73.00000 1.633
73.02000 3.111
73.04000 2.538
73.06000 3.885
73.08000 3.525
73.10000 4.060
73.12000 3.651
73.14000 -0.574
73.16000 -2.015
73.18000 0.285
73.20000 2.358
73.22000 3.994
73.24000 0.455
73.26000 -0.245
73.28000 -0.873
73.30000 2.782
73.32000 -1.040
73.34000 0.814
73.36000 2.260
73.38000 3.700
73.40000 -0.065
73.42000 0.921
73.44000 0.809
73.46000 -1.243
73.48000 1.447
73.50000 1.281
73.52000 2.802
73.54000 0.772
73.56000 -2.016
73.58000 -1.873
73.60000 0.064
73.62000 3.090
73.64000 3.056
73.66000 2.019
73.68000 3.801
73.70000 0.000
73.72000 -0.040
73.74000 -0.433
73.76000 0.083
73.78000 -2.014
73.80000 1.187
73.82000 3.411
73.84000 1.691
73.86000 1.341
73.88000 1.989
73.90000 1.394
73.92000 -0.492
73.94000 0.816
73.96000 3.235
73.98000 3.515
74.00000 2.528
74.02000 0.497
74.04000 1.366
74.06000 1.100
74.08000 2.691
74.10000 0.282
74.12000 -0.024
74.14000 -0.949
74.16000 0.420
74.18000 1.053
74.20000 0.187
74.22000 0.193
74.24000 1.222
74.26000 -1.768
74.28000 -0.380
74.30000 -1.198
74.32000 -0.203
74.34000 -1.724
74.36000 0.310
74.38000 3.084
74.40000 1.424
74.42000 -0.836
74.44000 0.400
74.46000 0.702
74.48000 -1.398
74.50000 0.362
74.52000 3.455
74.54000 0.152
74.56000 2.537
74.58000 2.309
74.60000 1.262
74.62000 -0.010
74.64000 3.676
74.66000 2.470
74.68000 1.819
74.70000 1.613
74.72000 2.140
74.74000 -1.072
74.76000 0.305
74.78000 0.298
74.80000 -0.136
74.82000 0.110
74.84000 -1.041
74.86000 -1.368
74.88000 0.942
74.90000 1.762
74.92000 0.069
74.94000 -0.416
74.96000 0.858
74.98000 2.637
75.00000 2.275
75.02000 2.488
75.04000 -1.367
75.06000 0.891
75.08000 0.331
75.10000 0.426
75.12000 -0.042
75.14000 -1.659
75.16000 -1.990
75.18000 -0.314
75.20000 1.265
75.22000 5.104
75.24000 3.906
75.26000 5.089
75.28000 4.178
75.30000 0.821
75.32000 3.024
75.34000 1.884
75.36000 0.461
75.38000 -0.121
75.40000 3.053
75.42000 0.867
75.44000 2.165
75.46000 1.857
75.48000 2.849
75.50000 2.461
75.52000 5.241
75.54000 2.622
75.56000 2.503
75.58000 0.871
75.60000 1.161
75.62000 -0.081
75.64000 -1.580
75.66000 0.890
75.68000 -2.001
75.70000 2.162
75.72000 5.154
75.74000 4.206
75.76000 3.305
75.78000 5.591
75.80000 0.830
75.82000 1.062
75.84000 1.557
75.86000 3.883
75.88000 2.453
75.90000 2.528
75.92000 2.409
75.94000 -0.456
75.96000 1.901
75.98000 3.565
76.00000 1.404
76.02000 2.816
76.04000 1.687
76.06000 0.432
76.08000 -2.021
76.10000 0.868
76.12000 4.058
76.14000 4.350
76.16000 2.230
76.18000 1.676
76.20000 3.000
76.22000 4.038
76.24000 4.421
76.26000 2.470
76.28000 2.338
76.30000 0.712
76.32000 0.892
76.34000 1.384
76.36000 1.896
76.38000 1.664
76.40000 5.776
76.42000 4.117
76.44000 3.060
76.46000 1.899
76.48000 2.386
76.50000 1.525
76.52000 3.696
76.54000 2.591
76.56000 0.167
76.58000 4.096
76.60000 -0.021
76.62000 0.813
76.64000 0.149
76.66000 0.887
76.68000 1.462
76.70000 0.431
76.72000 0.456
76.74000 -0.546
76.76000 0.071
76.78000 4.212
76.80000 1.765
76.82000 4.259
76.84000 3.474
76.86000 -0.149
76.88000 -1.062
76.90000 0.195
76.92000 0.809
76.94000 2.994
76.96000 4.982
76.98000 4.769
77.00000 1.749
77.02000 0.466
77.04000 2.444
77.06000 1.308
77.08000 1.542
77.10000 -1.177
77.12000 -2.075
77.14000 0.299
77.16000 0.239
77.18000 1.120
77.20000 1.992
77.22000 0.465
77.24000 -0.565
77.26000 3.103
77.28000 2.833
77.30000 4.329
77.32000 4.657
77.34000 3.838
77.36000 -0.939
77.38000 -0.281
77.40000 2.515
77.42000 5.205
77.44000 2.031
77.46000 1.301
77.48000 0.997
77.50000 3.413
77.52000 5.515
77.54000 6.697
77.56000 6.437
77.58000 5.148
77.60000 4.512
77.62000 5.011
77.64000 8.768
77.66000 5.115
77.68000 2.914
77.70000 3.982
77.72000 4.290
77.74000 4.473
77.76000 7.549
77.78000 9.082
77.80000 5.451
77.82000 4.433
77.84000 4.732
77.86000 4.943
77.88000 1.929
77.90000 2.554
77.92000 4.386
77.94000 2.206
77.96000 5.344
77.98000 4.728
78.00000 6.314
78.02000 3.442
78.04000 -2.066
78.06000 4.459
78.08000 4.665
78.10000 2.268
78.12000 0.864
78.14000 4.937
78.16000 6.904
78.18000 5.474
78.20000 3.707
78.22000 3.453
78.24000 5.200
78.26000 5.146
78.28000 6.237
78.30000 4.559
78.32000 7.711
78.34000 8.699
78.36000 5.688
78.38000 8.917
78.40000 8.109
78.42000 4.712
78.44000 4.481
78.46000 3.654
78.48000 5.467
78.50000 2.842
78.52000 4.215
78.54000 2.419
78.56000 3.321
78.58000 3.877
78.60000 4.882
78.62000 3.568
78.64000 2.620
78.66000 2.133
78.68000 4.904
78.70000 5.452
78.72000 6.487
78.74000 5.125
78.76000 6.416
78.78000 4.112
78.80000 8.524
78.82000 8.525
78.84000 5.465
78.86000 3.971
78.88000 8.984
78.90000 10.205
78.92000 10.083
78.94000 9.223
78.96000 12.228
78.98000 10.088
79.00000 4.585
79.02000 5.752
79.04000 13.833
79.06000 15.733
79.08000 15.797
79.10000 8.432
79.12000 13.833
79.14000 15.304
79.16000 9.108
79.18000 9.352
79.20000 14.407
79.22000 14.784
79.24000 18.148
79.26000 21.575
79.28000 19.356
79.30000 19.952
79.32000 18.439
79.34000 15.429
79.36000 16.200
79.38000 12.550
79.40000 15.595
79.42000 17.494
79.44000 17.583
79.46000 16.505
79.48000 20.370
79.50000 20.789
79.52000 22.077
79.54000 21.275
79.56000 23.490
79.58000 20.895
79.60000 23.037
79.62000 21.500
79.64000 23.763
79.66000 22.139
79.68000 24.201
79.70000 25.934
79.72000 25.487
79.74000 23.838
79.76000 24.300
79.78000 20.600
79.80000 22.644
79.82000 21.602
79.84000 18.964
79.86000 20.551
79.88000 21.767
79.90000 21.326
79.92000 22.733
79.94000 21.008
79.96000 16.055
79.98000 18.429
80.00000 19.394
80.02000 20.410
80.04000 21.917
80.06000 18.368
80.08000 15.282
80.10000 16.777
80.12000 17.207
80.14000 14.067
80.16000 13.088
80.18000 16.422
80.20000 16.967
80.22000 17.639
80.24000 14.062
80.26000 11.293
80.28000 7.829
80.30000 8.632
80.32000 10.238
80.34000 10.267
80.36000 10.252
80.38000 10.847
80.40000 8.512
80.42000 10.896
80.44000 11.062
80.46000 7.203
80.48000 8.908
80.50000 7.548
80.52000 5.751
80.54000 6.421
80.56000 2.043
80.58000 1.871
80.60000 3.008
80.62000 3.966
80.64000 3.809
80.66000 7.545
80.68000 6.722
80.70000 9.310
80.72000 5.893
80.74000 2.535
80.76000 2.863
80.78000 2.979
80.80000 4.933
80.82000 2.098
80.84000 1.375
80.86000 1.145
80.88000 1.684
80.90000 5.732
80.92000 2.228
80.94000 3.595
80.96000 2.459
80.98000 3.475
81.00000 2.699
81.02000 2.542
81.04000 2.073
81.06000 1.127
81.08000 0.854
81.10000 0.467
81.12000 1.170
81.14000 3.692
81.16000 4.516
81.18000 3.276
81.20000 2.059
81.22000 -2.266
81.24000 0.884
81.26000 3.782
81.28000 3.085
81.30000 -1.373
81.32000 -2.018
81.34000 1.454
81.36000 2.638
81.38000 4.218
81.40000 0.440
81.42000 1.446
81.44000 2.955
81.46000 -0.614
81.48000 4.768
81.50000 1.982
81.52000 2.585
81.54000 -0.781
81.56000 0.462
81.58000 -1.431
81.60000 -1.303
81.62000 0.232
81.64000 1.667
81.66000 1.047
81.68000 -0.569
81.70000 2.882
81.72000 3.904
81.74000 0.394
81.76000 -0.851
81.78000 -1.096
81.80000 -0.380
81.82000 5.895
81.84000 4.883
81.86000 -0.027
81.88000 2.402
81.90000 5.581
81.92000 2.466
81.94000 3.634
81.96000 5.964
81.98000 5.050
82.00000 7.206
82.02000 7.630
82.04000 4.646
82.06000 2.278
82.08000 4.237
82.10000 5.342
82.12000 6.275
82.14000 5.230
82.16000 6.822
82.18000 4.756
82.20000 5.412
82.22000 3.923
82.24000 5.738
82.26000 3.147
82.28000 3.519
82.30000 2.211
82.32000 0.804
82.34000 2.306
82.36000 2.099
82.38000 2.474
82.40000 2.339
82.42000 8.399
82.44000 7.558
82.46000 5.030
82.48000 2.518
82.50000 2.578
82.52000 7.469
82.54000 8.526
82.56000 4.396
82.58000 8.459
82.60000 4.508
82.62000 5.167
82.64000 7.955
82.66000 7.103
82.68000 6.965
82.70000 7.515
82.72000 8.284
82.74000 13.153
82.76000 15.105
82.78000 13.810
82.80000 17.413
82.82000 19.713
82.84000 18.575
82.86000 16.154
82.88000 13.080
82.90000 11.570
82.92000 13.250
82.94000 12.539
82.96000 19.697
82.98000 21.229
83.00000 18.642
83.02000 22.159
83.04000 19.621
83.06000 22.494
83.08000 25.695
83.10000 25.369
83.12000 24.977
83.14000 27.478
83.16000 32.686
83.18000 32.780
83.20000 27.561
83.22000 32.680
83.24000 31.614
83.26000 37.444
83.28000 42.886
83.30000 36.783
83.32000 40.667
83.34000 41.476
83.36000 43.601
83.38000 46.360
83.40000 42.570
83.42000 41.413
83.44000 45.442
83.46000 51.044
83.48000 55.257
83.50000 48.849
83.52000 50.140
83.54000 53.502
83.56000 49.666
83.58000 54.919
83.60000 53.833
83.62000 54.417
83.64000 57.290
83.66000 55.997
83.68000 57.738
83.70000 58.344
83.72000 57.564
83.74000 53.873
83.76000 56.653
83.78000 57.602
83.80000 57.170
83.82000 54.348
83.84000 52.250
83.86000 52.470
83.88000 53.583
83.90000 51.399
83.92000 49.194
83.94000 53.425
83.96000 49.562
83.98000 47.212
84.00000 43.820
84.02000 41.575
84.04000 42.091
84.06000 39.477
84.08000 35.329
84.10000 36.642
84.12000 37.263
84.14000 32.442
84.16000 29.971
84.18000 29.377
84.20000 31.563
84.22000 27.776
84.24000 30.677
84.26000 27.781
84.28000 21.989
84.30000 21.930
84.32000 17.072
84.34000 14.808
84.36000 17.785
84.38000 16.840
84.40000 16.348
84.42000 15.514
84.44000 13.186
84.46000 14.786
84.48000 12.372
84.50000 11.965
84.52000 11.252
84.54000 10.791
84.56000 14.170
84.58000 12.296
84.60000 13.322
84.62000 9.668
84.64000 5.661
84.66000 7.238
84.68000 8.768
84.70000 6.294
84.72000 6.453
84.74000 8.218
84.76000 9.377
84.78000 2.440
84.80000 4.402
84.82000 4.752
84.84000 4.980
84.86000 4.117
84.88000 3.602
84.90000 1.571
84.92000 4.868
84.94000 2.124
84.96000 2.578
84.98000 2.339
85.00000 3.835
85.02000 0.017
85.04000 0.787
85.06000 -0.091
85.08000 1.131
85.10000 -0.807
85.12000 -1.017
85.14000 0.970
85.16000 3.359
85.18000 1.027
85.20000 2.443
85.22000 1.347
85.24000 0.817
85.26000 0.755
85.28000 1.448
85.30000 2.574
85.32000 1.086
85.34000 -1.746
85.36000 -0.855
85.38000 2.304
85.40000 -0.970
85.42000 -1.765
85.44000 1.080
85.46000 1.311
85.48000 0.837
85.50000 -1.651
85.52000 -0.664
85.54000 -2.042
85.56000 0.586
85.58000 1.845
85.60000 2.681
85.62000 0.587
85.64000 1.212
85.66000 2.591
85.68000 3.074
85.70000 3.619
85.72000 3.092
85.74000 2.444
85.76000 0.567
85.78000 -0.354
85.80000 -0.391
85.82000 2.980
85.84000 3.078
85.86000 0.135
85.88000 1.194
85.90000 -1.983
85.92000 -0.225
85.94000 2.138
85.96000 4.299
85.98000 3.351
86.00000 3.330
86.02000 1.667
86.04000 3.075
86.06000 1.202
86.08000 1.256
86.10000 5.228
86.12000 4.558
86.14000 4.234
86.16000 3.863
86.18000 3.639
86.20000 2.648
86.22000 2.641
86.24000 -0.739
86.26000 1.176
86.28000 -1.174
86.30000 0.616
86.32000 4.014
86.34000 2.457
86.36000 1.761
86.38000 -0.493
86.40000 1.489
86.42000 0.950
86.44000 1.777
86.46000 3.106
86.48000 1.922
86.50000 1.479
86.52000 3.044
86.54000 0.277
86.56000 -0.225
86.58000 3.365
86.60000 1.455
86.62000 -0.302
86.64000 1.252
86.66000 1.935
86.68000 3.299
86.70000 -0.147
86.72000 1.441
86.74000 2.044
86.76000 0.543
86.78000 -0.187
86.80000 -0.275
86.82000 1.092
86.84000 2.310
86.86000 1.967
86.88000 -0.261
86.90000 1.139
86.92000 2.323
86.94000 3.410
86.96000 1.162
86.98000 1.991
87.00000 2.502
87.02000 2.958
87.04000 2.791
87.06000 -1.915
87.08000 0.385
87.10000 3.313
87.12000 0.487
87.14000 1.327
87.16000 1.468
87.18000 2.320
87.20000 0.763
87.22000 0.756
87.24000 1.468
87.26000 1.539
87.28000 2.010
87.30000 1.051
87.32000 2.354
87.34000 0.607
87.36000 0.823
87.38000 1.017
87.40000 3.005
87.42000 1.836
87.44000 -0.794
87.46000 0.669
87.48000 -0.130
87.50000 0.396
87.52000 1.536
87.54000 0.615
87.56000 2.599
87.58000 1.892
87.60000 0.541
87.62000 1.712
87.64000 2.911
87.66000 1.770
87.68000 1.801
87.70000 3.278
87.72000 2.047
87.74000 0.846
87.76000 0.742
87.78000 -1.754
87.80000 0.715
87.82000 3.150
87.84000 5.873
87.86000 3.933
87.88000 2.669
87.90000 -0.401
87.92000 3.808
87.94000 3.437
87.96000 2.185
87.98000 0.496
88.00000 -1.898
88.02000 0.923
88.04000 3.742
88.06000 0.303
88.08000 1.652
88.10000 0.781
88.12000 -0.153
88.14000 0.090
88.16000 -0.588
88.18000 2.494
88.20000 1.996
88.22000 1.384
88.24000 0.268
88.26000 -0.524
88.28000 3.630
88.30000 3.308
88.32000 3.374
88.34000 0.265
88.36000 1.726
88.38000 2.995
88.40000 2.245
88.42000 1.804
88.44000 5.123
88.46000 3.017
88.48000 0.727
88.50000 0.879
88.52000 -0.192
88.54000 1.520
88.56000 -0.653
88.58000 0.017
88.60000 -0.169
88.62000 2.461
88.64000 4.587
88.66000 3.465
88.68000 1.849
88.70000 0.867
88.72000 -0.090
88.74000 -0.442
88.76000 0.673
88.78000 0.374
88.80000 3.478
88.82000 2.697
88.84000 1.177
88.86000 0.747
88.88000 -0.871
88.90000 -0.627
88.92000 -1.876
88.94000 0.640
88.96000 2.093
88.98000 1.939
89.00000 5.377
89.02000 2.972
89.04000 2.322
89.06000 0.630
89.08000 3.122
89.10000 2.092
89.12000 1.060
89.14000 6.089
89.16000 2.534
89.18000 0.394
89.20000 -1.857
89.22000 0.248
89.24000 3.269
89.26000 2.652
89.28000 5.739
89.30000 3.304
89.32000 0.004
89.34000 0.934
89.36000 1.685
89.38000 2.685
89.40000 1.995
89.42000 -0.554
89.44000 0.586
89.46000 4.691
89.48000 7.751
89.50000 5.708
89.52000 2.977
89.54000 -0.685
89.56000 0.116
89.58000 -0.410
89.60000 1.965
89.62000 1.347
89.64000 3.220
89.66000 6.367
89.68000 4.477
89.70000 1.719
89.72000 0.324
89.74000 3.851
89.76000 3.385
89.78000 3.314
89.80000 1.424
89.82000 4.045
89.84000 -0.132
89.86000 3.492
89.88000 2.802
89.90000 2.118
89.92000 2.679
89.94000 2.126
89.96000 2.919
89.98000 3.299
90.00000 2.114
90.02000 -0.203
90.04000 -1.826
90.06000 0.936
90.08000 3.520
90.10000 4.104
90.12000 3.413
90.14000 1.102
90.16000 3.384
90.18000 1.795
90.20000 4.005
90.22000 7.358
90.24000 5.863
90.26000 2.116
90.28000 1.975
90.30000 3.022
90.32000 1.657
90.34000 2.526
90.36000 2.941
90.38000 1.119
90.40000 -0.396
90.42000 0.608
90.44000 1.061
90.46000 2.071
90.48000 0.318
90.50000 -0.879
90.52000 1.521
90.54000 4.067
90.56000 3.046
90.58000 2.606
90.60000 3.727
90.62000 3.901
90.64000 4.239
90.66000 3.159
90.68000 1.556
90.70000 0.618
90.72000 -0.882
90.74000 -0.161
90.76000 1.927
90.78000 3.048
90.80000 0.410
90.82000 0.950
90.84000 2.610
90.86000 1.929
90.88000 -1.586
90.90000 0.285
90.92000 0.025
90.94000 1.341
90.96000 1.863
90.98000 2.240
91.00000 2.371
91.02000 0.221
91.04000 -0.844
91.06000 -0.781
91.08000 -0.396
91.10000 2.580
91.12000 2.934
91.14000 1.583
91.16000 3.020
91.18000 1.083
91.20000 -0.326
91.22000 1.026
91.24000 3.644
91.26000 2.953
91.28000 0.767
91.30000 1.646
91.32000 2.030
91.34000 0.086
91.36000 2.607
91.38000 1.661
91.40000 1.698
91.42000 2.544
91.44000 -0.101
91.46000 -1.879
91.48000 0.789
91.50000 2.557
91.52000 2.641
91.54000 3.807
91.56000 2.935
91.58000 1.268
91.60000 1.277
91.62000 0.736
91.64000 0.702
91.66000 1.069
91.68000 4.023
91.70000 4.158
91.72000 0.735
91.74000 1.841
91.76000 1.120
91.78000 3.157
91.80000 3.346
91.82000 2.303
91.84000 3.202
91.86000 1.962
91.88000 4.912
91.90000 3.385
91.92000 1.097
91.94000 -0.613
91.96000 3.770
91.98000 9.118
92.00000 3.198
92.02000 1.326
92.04000 3.300
92.06000 1.241
92.08000 0.391
92.10000 -1.234
92.12000 0.500
92.14000 2.002
92.16000 4.542
92.18000 2.629
92.20000 0.649
92.22000 2.362
92.24000 1.821
92.26000 2.295
92.28000 1.715
92.30000 2.472
92.32000 2.342
92.34000 3.057
92.36000 2.740
92.38000 5.782
92.40000 7.934
92.42000 4.208
92.44000 4.350
92.46000 3.307
92.48000 1.522
92.50000 -1.884
92.52000 0.452
92.54000 1.825
92.56000 -0.718
92.58000 -0.238
92.60000 3.971
92.62000 3.582
92.64000 3.431
92.66000 1.998
92.68000 0.475
92.70000 -1.704
92.72000 1.768
92.74000 3.280
92.76000 3.224
92.78000 1.093
92.80000 1.346
92.82000 0.927
92.84000 0.855
92.86000 3.273
92.88000 4.344
92.90000 5.885
92.92000 4.628
92.94000 1.744
92.96000 2.503
92.98000 -0.464
93.00000 -1.328
93.02000 -1.902
93.04000 -1.433
93.06000 1.114
93.08000 2.659
93.10000 1.168
93.12000 -0.164
93.14000 0.346
93.16000 -1.399
93.18000 -1.472
93.20000 0.151
93.22000 -0.780
93.24000 -1.209
93.26000 -0.922
93.28000 2.564
93.30000 1.451
93.32000 0.958
93.34000 0.591
93.36000 0.317
93.38000 -0.187
93.40000 -1.440
93.42000 -0.596
93.44000 3.699
93.46000 -0.282
93.48000 0.682
93.50000 0.212
93.52000 2.539
93.54000 -0.836
93.56000 3.815
93.58000 4.674
93.60000 1.381
93.62000 1.986
93.64000 1.025
93.66000 -0.159
93.68000 3.252
93.70000 5.180
93.72000 3.031
93.74000 2.055
93.76000 3.191
93.78000 0.300
93.80000 2.757
93.82000 9.273
93.84000 4.662
93.86000 1.697
93.88000 3.641
93.90000 1.343
93.92000 -0.347
93.94000 -1.893
93.96000 0.515
93.98000 1.872
94.00000 2.970
94.02000 0.516
94.04000 0.435
94.06000 2.947
94.08000 3.330
94.10000 4.654
94.12000 0.836
94.14000 2.901
94.16000 -0.251
94.18000 2.369
94.20000 1.460
94.22000 0.540
94.24000 -0.443
94.26000 4.421
94.28000 5.105
94.30000 2.077
94.32000 -1.879
94.34000 -0.171
94.36000 4.640
94.38000 2.059
94.40000 3.172
94.42000 3.515
94.44000 4.536
94.46000 3.620
94.48000 4.793
94.50000 3.393
94.52000 2.978
94.54000 4.864
94.56000 1.923
94.58000 0.178
94.60000 2.174
94.62000 5.311
94.64000 6.274
94.66000 4.189
94.68000 2.122
94.70000 0.269
94.72000 1.381
94.74000 6.621
94.76000 5.766
94.78000 3.279
94.80000 5.598
94.82000 7.285
94.84000 7.088
94.86000 5.889
94.88000 4.182
94.90000 3.412
94.92000 2.359
94.94000 0.538
94.96000 1.369
94.98000 1.304
95.00000 0.558
95.02000 2.007
95.04000 1.888
95.06000 2.418
95.08000 4.081
95.10000 7.456
95.12000 7.331
95.14000 5.936
95.16000 4.851
95.18000 3.439
95.20000 -0.863
95.22000 -0.342
95.24000 1.049
95.26000 1.719
95.28000 1.565
95.30000 1.388
95.32000 0.350
95.34000 3.162
95.36000 1.776
95.38000 1.303
95.40000 3.684
95.42000 4.424
95.44000 2.532
95.46000 -0.320
95.48000 -1.092
95.50000 4.129
95.52000 7.522
95.54000 6.090
95.56000 0.370
95.58000 -0.901
95.60000 0.672
95.62000 2.357
95.64000 2.614
95.66000 2.863
95.68000 2.399
95.70000 4.226
95.72000 4.965
95.74000 0.773
95.76000 -0.014
95.78000 -0.686
95.80000 0.892
95.82000 2.203
95.84000 4.052
95.86000 5.321
95.88000 2.327
95.90000 4.655
95.92000 1.265
95.94000 0.588
95.96000 3.197
95.98000 1.011
96.00000 2.860
96.02000 3.571
96.04000 1.903
96.06000 4.133
96.08000 2.169
96.10000 1.879
96.12000 3.926
96.14000 1.680
96.16000 4.015
96.18000 6.347
96.20000 2.703
96.22000 2.558
96.24000 1.789
96.26000 1.253
96.28000 4.807
96.30000 9.341
96.32000 4.242
96.34000 5.534
96.36000 8.071
96.38000 4.844
96.40000 0.985
96.42000 -1.183
96.44000 -0.721
96.46000 -1.871
96.48000 -1.854
96.50000 2.824
96.52000 4.544
96.54000 3.943
96.56000 4.497
96.58000 3.847
96.60000 5.699
96.62000 7.096
96.64000 5.605
96.66000 4.640
96.68000 5.194
96.70000 2.489
96.72000 3.700
96.74000 8.938
96.76000 4.281
96.78000 -0.369
96.80000 3.127
96.82000 0.537
96.84000 1.756
96.86000 4.843
96.88000 4.626
96.90000 6.266
96.92000 2.217
96.94000 2.053
96.96000 4.440
96.98000 5.951
97.00000 4.065
97.02000 3.128
97.04000 5.252
97.06000 3.686
97.08000 8.478
97.10000 2.650
97.12000 4.980
97.14000 6.695
97.16000 2.137
97.18000 2.785
97.20000 4.327
97.22000 4.644
97.24000 4.022
97.26000 3.168
97.28000 4.926
97.30000 8.668
97.32000 5.172
97.34000 4.094
97.36000 6.927
97.38000 6.367
97.40000 6.570
97.42000 6.287
97.44000 5.755
97.46000 2.539
97.48000 0.138
97.50000 1.536
97.52000 2.283
97.54000 4.012
97.56000 2.802
97.58000 1.026
97.60000 -1.459
97.62000 -1.825
97.64000 2.654
97.66000 5.521
97.68000 5.563
97.70000 8.193
97.72000 9.328
97.74000 4.531
97.76000 1.030
97.78000 1.877
97.80000 1.018
97.82000 0.988
97.84000 5.828
97.86000 8.893
97.88000 4.558
97.90000 2.039
97.92000 2.995
97.94000 1.846
97.96000 2.947
97.98000 -0.105
98.00000 3.378
98.02000 2.775
98.04000 5.855
98.06000 2.876
98.08000 1.645
98.10000 4.754
98.12000 2.554
98.14000 4.675
98.16000 5.941
98.18000 -0.768
98.20000 1.268
98.22000 7.649
98.24000 3.399
98.26000 2.560
98.28000 2.082
98.30000 6.964
98.32000 6.343
98.34000 1.338
98.36000 6.793
98.38000 10.453
98.40000 10.516
98.42000 5.059
98.44000 -1.812
98.46000 3.598
98.48000 5.212
98.50000 8.120
98.52000 4.883
98.54000 7.756
98.56000 7.222
98.58000 7.884
98.60000 7.710
98.62000 11.852
98.64000 4.729
98.66000 6.589
98.68000 2.533
98.70000 0.516
98.72000 1.648
98.74000 3.469
98.76000 5.853
98.78000 11.623
98.80000 8.831
98.82000 9.346
98.84000 6.549
98.86000 4.550
98.88000 3.342
98.90000 7.717
98.92000 4.040
98.94000 4.114
98.96000 2.724
98.98000 7.410
99.00000 5.761
99.02000 2.108
99.04000 6.083
99.06000 6.798
99.08000 2.174
99.10000 3.686
99.12000 12.007
99.14000 10.024
99.16000 3.653
99.18000 2.567
99.20000 2.959
99.22000 3.786
99.24000 11.202
99.26000 5.729
99.28000 3.354
99.30000 2.422
99.32000 11.743
99.34000 4.785
99.36000 4.458
99.38000 3.746
99.40000 5.333
99.42000 3.311
99.44000 6.309
99.46000 10.642
99.48000 10.635
99.50000 8.533
99.52000 8.738
99.54000 7.462
99.56000 10.201
99.58000 6.775
99.60000 6.718
99.62000 3.682
99.64000 7.676
99.66000 7.892
99.68000 4.020
99.70000 -1.811
99.72000 -0.676
99.74000 1.278
99.76000 3.946
99.78000 3.030
99.80000 7.113
99.82000 2.969
99.84000 5.544
99.86000 8.287
99.88000 8.795
99.90000 4.573
99.92000 8.068
99.94000 11.774
99.96000 10.409
99.98000 0.000
