'Id: "0011389" Comment: "Integrate frame 0011389_Au-Ir-Rh_Au-Rich_XRD_Mapping-116-0000.gfrmwith cursor Wedge Cursor #5" Operator: "B?rgel" Anode: "Cu" Wavelength: "1.5406" Scantype: "2Theta (TwoTheta)" TimePerStep: "1" X: "-40.5" Y: "-9" Z: "5.95" 
10.00000 0.000
10.02000 4.885
10.04000 5.340
10.06000 -4.519
10.08000 6.440
10.10000 7.010
10.12000 10.434
10.14000 26.507
10.16000 31.429
10.18000 25.506
10.20000 21.275
10.22000 14.684
10.24000 10.731
10.26000 9.140
10.28000 -7.545
10.30000 12.866
10.32000 8.194
10.34000 8.995
10.36000 10.659
10.38000 6.349
10.40000 8.454
10.42000 26.309
10.44000 27.688
10.46000 27.097
10.48000 22.639
10.50000 14.145
10.52000 26.742
10.54000 13.663
10.56000 5.781
10.58000 15.559
10.60000 15.552
10.62000 37.279
10.64000 35.861
10.66000 7.102
10.68000 16.217
10.70000 12.213
10.72000 16.361
10.74000 8.730
10.76000 3.926
10.78000 19.036
10.80000 11.277
10.82000 2.779
10.84000 -4.526
10.86000 2.382
10.88000 -2.645
10.90000 17.689
10.92000 16.455
10.94000 5.302
10.96000 10.831
10.98000 5.607
11.00000 -1.082
11.02000 1.428
11.04000 11.050
11.06000 7.181
11.08000 16.259
11.10000 11.803
11.12000 12.160
11.14000 10.476
11.16000 12.695
11.18000 6.814
11.20000 8.336
11.22000 7.911
11.24000 2.861
11.26000 14.803
11.28000 16.975
11.30000 9.895
11.32000 5.139
11.34000 3.848
11.36000 -2.433
11.38000 2.760
11.40000 17.301
11.42000 10.643
11.44000 3.173
11.46000 4.821
11.48000 2.955
11.50000 5.143
11.52000 2.890
11.54000 4.124
11.56000 9.257
11.58000 -4.526
11.60000 4.897
11.62000 12.468
11.64000 17.932
11.66000 12.303
11.68000 1.723
11.70000 6.286
11.72000 -0.401
11.74000 9.907
11.76000 17.411
11.78000 18.789
11.80000 7.945
11.82000 7.568
11.84000 2.290
11.86000 4.147
11.88000 13.278
11.90000 7.019
11.92000 3.921
11.94000 7.393
11.96000 8.098
11.98000 9.494
12.00000 9.428
12.02000 -0.594
12.04000 3.083
12.06000 16.278
12.08000 15.313
12.10000 12.468
12.12000 8.298
12.14000 1.426
12.16000 -1.698
12.18000 -1.998
12.20000 1.465
12.22000 14.422
12.24000 4.987
12.26000 5.113
12.28000 10.498
12.30000 -2.596
12.32000 3.278
12.34000 5.507
12.36000 5.378
12.38000 10.737
12.40000 21.589
12.42000 13.810
12.44000 13.372
12.46000 3.979
12.48000 1.010
12.50000 3.346
12.52000 11.711
12.54000 5.049
12.56000 5.581
12.58000 7.914
12.60000 9.216
12.62000 12.590
12.64000 10.277
12.66000 13.495
12.68000 19.142
12.70000 10.045
12.72000 7.743
12.74000 12.364
12.76000 9.008
12.78000 16.323
12.80000 13.398
12.82000 20.182
12.84000 4.858
12.86000 3.360
12.88000 4.214
12.90000 10.015
12.92000 10.588
12.94000 0.809
12.96000 -4.517
12.98000 12.852
13.00000 8.381
13.02000 11.718
13.04000 8.243
13.06000 9.271
13.08000 16.982
13.10000 16.783
13.12000 5.568
13.14000 4.767
13.16000 6.889
13.18000 3.902
13.20000 -2.783
13.22000 -3.043
13.24000 13.413
13.26000 5.511
13.28000 6.371
13.30000 12.872
13.32000 22.516
13.34000 21.309
13.36000 12.825
13.38000 8.074
13.40000 6.296
13.42000 11.601
13.44000 16.561
13.46000 4.901
13.48000 5.661
13.50000 12.141
13.52000 4.765
13.54000 4.781
13.56000 11.924
13.58000 15.448
13.60000 13.811
13.62000 7.007
13.64000 12.056
13.66000 18.168
13.68000 16.941
13.70000 10.897
13.72000 11.797
13.74000 8.559
13.76000 15.540
13.78000 16.779
13.80000 8.605
13.82000 2.977
13.84000 6.919
13.86000 16.102
13.88000 19.048
13.90000 10.145
13.92000 9.144
13.94000 18.499
13.96000 15.073
13.98000 13.223
14.00000 14.120
14.02000 6.557
14.04000 8.361
14.06000 2.320
14.08000 -4.472
14.10000 3.128
14.12000 5.126
14.14000 5.646
14.16000 7.592
14.18000 11.167
14.20000 11.947
14.22000 20.257
14.24000 22.425
14.26000 14.218
14.28000 10.831
14.30000 7.355
14.32000 18.394
14.34000 16.837
14.36000 17.971
14.38000 17.421
14.40000 15.796
14.42000 19.277
14.44000 17.017
14.46000 11.153
14.48000 12.724
14.50000 16.615
14.52000 1.450
14.54000 1.030
14.56000 17.751
14.58000 14.405
14.60000 6.490
14.62000 6.900
14.64000 14.439
14.66000 13.279
14.68000 8.505
14.70000 3.137
14.72000 -4.433
14.74000 -0.630
14.76000 12.104
14.78000 7.822
14.80000 6.489
14.82000 7.778
14.84000 13.109
14.86000 13.362
14.88000 9.712
14.90000 13.323
14.92000 10.462
14.94000 8.700
14.96000 8.480
14.98000 1.675
15.00000 10.295
15.02000 7.171
15.04000 13.305
15.06000 14.498
15.08000 13.563
15.10000 5.708
15.12000 11.900
15.14000 9.198
15.16000 10.212
15.18000 14.962
15.20000 11.633
15.22000 9.057
15.24000 6.854
15.26000 10.136
15.28000 22.540
15.30000 13.332
15.32000 8.759
15.34000 9.184
15.36000 17.009
15.38000 18.767
15.40000 6.901
15.42000 5.905
15.44000 14.387
15.46000 16.479
15.48000 10.163
15.50000 9.243
15.52000 9.213
15.54000 10.076
15.56000 13.303
15.58000 17.036
15.60000 13.467
15.62000 7.664
15.64000 9.309
15.66000 10.932
15.68000 12.500
15.70000 17.080
15.72000 8.098
15.74000 0.129
15.76000 -4.420
15.78000 4.088
15.80000 1.977
15.82000 0.364
15.84000 2.577
15.86000 1.414
15.88000 14.873
15.90000 18.406
15.92000 17.877
15.94000 14.566
15.96000 2.354
15.98000 7.812
16.00000 11.478
16.02000 15.724
16.04000 12.285
16.06000 12.027
16.08000 4.865
16.10000 -0.292
16.12000 7.699
16.14000 5.611
16.16000 10.853
16.18000 14.502
16.20000 8.287
16.22000 6.725
16.24000 7.355
16.26000 9.136
16.28000 13.313
16.30000 13.154
16.32000 2.504
16.34000 4.883
16.36000 11.042
16.38000 3.004
16.40000 2.686
16.42000 2.488
16.44000 5.740
16.46000 6.381
16.48000 -1.450
16.50000 0.929
16.52000 0.930
16.54000 8.070
16.56000 5.077
16.58000 -4.399
16.60000 2.322
16.62000 7.668
16.64000 -0.020
16.66000 2.017
16.68000 6.863
16.70000 10.695
16.72000 6.083
16.74000 0.034
16.76000 4.814
16.78000 3.118
16.80000 5.006
16.82000 6.345
16.84000 7.277
16.86000 2.719
16.88000 -1.841
16.90000 6.652
16.92000 4.174
16.94000 8.720
16.96000 10.729
16.98000 8.158
17.00000 9.438
17.02000 12.211
17.04000 6.356
17.06000 11.885
17.08000 11.831
17.10000 3.449
17.12000 1.186
17.14000 11.160
17.16000 8.684
17.18000 11.663
17.20000 3.383
17.22000 -2.029
17.24000 -3.635
17.26000 3.675
17.28000 6.523
17.30000 8.292
17.32000 9.247
17.34000 2.156
17.36000 4.295
17.38000 10.360
17.40000 10.509
17.42000 9.995
17.44000 9.552
17.46000 0.169
17.48000 2.311
17.50000 6.507
17.52000 8.121
17.54000 9.814
17.56000 18.851
17.58000 15.347
17.60000 10.019
17.62000 6.095
17.64000 4.054
17.66000 -0.925
17.68000 2.293
17.70000 -0.782
17.72000 4.804
17.74000 6.653
17.76000 3.810
17.78000 7.815
17.80000 -0.122
17.82000 -2.925
17.84000 -4.334
17.86000 9.169
17.88000 11.475
17.90000 6.839
17.92000 1.465
17.94000 1.295
17.96000 5.005
17.98000 1.029
18.00000 11.384
18.02000 10.911
18.04000 6.802
18.06000 11.048
18.08000 7.536
18.10000 6.820
18.12000 3.377
18.14000 1.632
18.16000 5.683
18.18000 0.422
18.20000 3.266
18.22000 4.154
18.24000 -1.801
18.26000 2.062
18.28000 -2.142
18.30000 5.004
18.32000 13.234
18.34000 14.944
18.36000 10.942
18.38000 3.306
18.40000 -0.272
18.42000 1.917
18.44000 8.299
18.46000 11.743
18.48000 10.805
18.50000 7.190
18.52000 10.776
18.54000 5.997
18.56000 4.835
18.58000 7.763
18.60000 6.135
18.62000 5.740
18.64000 5.134
18.66000 0.310
18.68000 -3.037
18.70000 3.172
18.72000 2.652
18.74000 1.611
18.76000 8.197
18.78000 2.649
18.80000 4.490
18.82000 6.774
18.84000 4.116
18.86000 5.374
18.88000 3.447
18.90000 8.057
18.92000 2.299
18.94000 3.702
18.96000 6.993
18.98000 6.410
19.00000 3.789
19.02000 9.146
19.04000 5.200
19.06000 -1.532
19.08000 0.809
19.10000 -0.447
19.12000 6.763
19.14000 11.511
19.16000 5.858
19.18000 4.458
19.20000 5.974
19.22000 4.370
19.24000 1.354
19.26000 2.684
19.28000 1.458
19.30000 -1.922
19.32000 3.574
19.34000 11.679
19.36000 4.984
19.38000 5.434
19.40000 8.992
19.42000 10.631
19.44000 7.405
19.46000 -3.153
19.48000 -4.226
19.50000 5.374
19.52000 10.295
19.54000 1.152
19.56000 1.076
19.58000 -0.532
19.60000 -0.807
19.62000 1.803
19.64000 2.217
19.66000 4.122
19.68000 -2.836
19.70000 -1.428
19.72000 2.443
19.74000 5.024
19.76000 2.281
19.78000 5.243
19.80000 8.590
19.82000 9.477
19.84000 7.427
19.86000 6.866
19.88000 7.881
19.90000 8.747
19.92000 9.465
19.94000 5.901
19.96000 6.743
19.98000 9.840
20.00000 4.260
20.02000 4.905
20.04000 6.413
20.06000 2.896
20.08000 5.963
20.10000 5.064
20.12000 7.581
20.14000 3.266
20.16000 3.239
20.18000 0.628
20.20000 5.770
20.22000 9.664
20.24000 10.267
20.26000 -3.039
20.28000 5.257
20.30000 9.033
20.32000 8.522
20.34000 4.661
20.36000 3.281
20.38000 6.700
20.40000 7.586
20.42000 6.273
20.44000 5.566
20.46000 -1.181
20.48000 -2.201
20.50000 -4.184
20.52000 2.607
20.54000 3.352
20.56000 0.551
20.58000 5.204
20.60000 1.280
20.62000 -2.256
20.64000 11.754
20.66000 6.047
20.68000 -0.924
20.70000 0.275
20.72000 6.769
20.74000 4.624
20.76000 2.801
20.78000 10.871
20.80000 5.403
20.82000 5.426
20.84000 4.442
20.86000 0.916
20.88000 9.263
20.90000 7.096
20.92000 1.673
20.94000 -1.732
20.96000 -1.662
20.98000 -3.373
21.00000 3.262
21.02000 3.739
21.04000 2.522
21.06000 3.240
21.08000 7.459
21.10000 2.101
21.12000 2.246
21.14000 0.248
21.16000 -1.329
21.18000 -2.400
21.20000 1.423
21.22000 1.306
21.24000 -1.665
21.26000 4.131
21.28000 5.470
21.30000 4.374
21.32000 3.294
21.34000 2.000
21.36000 -0.228
21.38000 4.628
21.40000 4.929
21.42000 3.270
21.44000 4.686
21.46000 9.165
21.48000 10.899
21.50000 6.797
21.52000 -2.147
21.54000 -0.974
21.56000 -1.200
21.58000 2.743
21.60000 -0.952
21.62000 -0.176
21.64000 0.205
21.66000 2.709
21.68000 0.890
21.70000 2.590
21.72000 3.668
21.74000 6.485
21.76000 3.438
21.78000 -1.185
21.80000 2.583
21.82000 -3.904
21.84000 0.034
21.86000 4.775
21.88000 5.706
21.90000 -4.133
21.92000 -0.876
21.94000 -1.856
21.96000 -2.201
21.98000 -1.242
22.00000 -1.794
22.02000 4.371
22.04000 4.869
22.06000 1.876
22.08000 -2.464
22.10000 -2.514
22.12000 4.861
22.14000 10.447
22.16000 6.230
22.18000 -2.293
22.20000 -1.246
22.22000 -0.397
22.24000 -2.520
22.26000 -1.834
22.28000 4.528
22.30000 4.224
22.32000 5.268
22.34000 4.960
22.36000 4.592
22.38000 0.139
22.40000 -3.648
22.42000 -0.373
22.44000 1.362
22.46000 1.621
22.48000 -0.976
22.50000 3.662
22.52000 -0.405
22.54000 0.131
22.56000 2.083
22.58000 -2.830
22.60000 2.219
22.62000 9.490
22.64000 2.410
22.66000 2.231
22.68000 7.043
22.70000 7.941
22.72000 5.245
22.74000 4.641
22.76000 6.790
22.78000 9.600
22.80000 1.922
22.82000 -0.145
22.84000 4.332
22.86000 -1.769
22.88000 -3.908
22.90000 1.075
22.92000 11.459
22.94000 6.399
22.96000 2.987
22.98000 -2.426
23.00000 2.418
23.02000 -4.046
23.04000 3.149
23.06000 8.574
23.08000 4.144
23.10000 1.373
23.12000 4.398
23.14000 3.521
23.16000 0.241
23.18000 4.253
23.20000 7.675
23.22000 8.008
23.24000 6.413
23.26000 0.708
23.28000 0.937
23.30000 -0.754
23.32000 2.723
23.34000 3.011
23.36000 -3.736
23.38000 -4.026
23.40000 6.217
23.42000 3.808
23.44000 3.228
23.46000 3.221
23.48000 4.510
23.50000 0.859
23.52000 0.542
23.54000 4.673
23.56000 5.499
23.58000 4.026
23.60000 8.103
23.62000 5.818
23.64000 6.326
23.66000 6.418
23.68000 8.272
23.70000 7.964
23.72000 7.673
23.74000 5.873
23.76000 0.468
23.78000 4.188
23.80000 7.360
23.82000 2.777
23.84000 2.269
23.86000 6.214
23.88000 3.605
23.90000 -0.612
23.92000 2.318
23.94000 -0.190
23.96000 -2.431
23.98000 2.027
24.00000 4.344
24.02000 2.063
24.04000 5.615
24.06000 6.730
24.08000 4.149
24.10000 0.433
24.12000 0.206
24.14000 0.646
24.16000 0.634
24.18000 1.189
24.20000 1.849
24.22000 7.532
24.24000 5.259
24.26000 6.686
24.28000 4.117
24.30000 5.277
24.32000 4.733
24.34000 6.188
24.36000 7.497
24.38000 6.708
24.40000 3.161
24.42000 2.628
24.44000 1.925
24.46000 1.905
24.48000 1.640
24.50000 4.062
24.52000 1.828
24.54000 3.260
24.56000 5.325
24.58000 6.354
24.60000 7.868
24.62000 4.844
24.64000 5.153
24.66000 -0.589
24.68000 -3.931
24.70000 1.137
24.72000 5.591
24.74000 7.369
24.76000 3.739
24.78000 5.751
24.80000 8.221
24.82000 11.811
24.84000 7.318
24.86000 4.967
24.88000 10.143
24.90000 7.704
24.92000 6.907
24.94000 9.154
24.96000 3.393
24.98000 -0.583
25.00000 3.419
25.02000 6.004
25.04000 3.578
25.06000 3.007
25.08000 8.458
25.10000 12.739
25.12000 8.766
25.14000 6.535
25.16000 6.907
25.18000 7.789
25.20000 2.307
25.22000 1.350
25.24000 8.734
25.26000 3.933
25.28000 4.090
25.30000 3.554
25.32000 0.543
25.34000 5.077
25.36000 9.070
25.38000 6.570
25.40000 3.897
25.42000 -2.458
25.44000 -0.225
25.46000 3.292
25.48000 5.174
25.50000 7.108
25.52000 2.737
25.54000 3.842
25.56000 1.618
25.58000 -2.090
25.60000 9.407
25.62000 10.777
25.64000 7.165
25.66000 12.318
25.68000 8.519
25.70000 6.562
25.72000 9.021
25.74000 7.184
25.76000 5.786
25.78000 2.804
25.80000 5.165
25.82000 7.946
25.84000 8.561
25.86000 9.695
25.88000 8.484
25.90000 0.242
25.92000 -3.859
25.94000 0.661
25.96000 4.998
25.98000 5.779
26.00000 10.086
26.02000 13.949
26.04000 9.195
26.06000 8.229
26.08000 11.123
26.10000 9.661
26.12000 -0.315
26.14000 -0.977
26.16000 -2.239
26.18000 3.009
26.20000 4.810
26.22000 6.976
26.24000 6.699
26.26000 6.141
26.28000 8.161
26.30000 5.557
26.32000 1.949
26.34000 2.020
26.36000 7.705
26.38000 5.429
26.40000 8.151
26.42000 6.032
26.44000 3.425
26.46000 -2.935
26.48000 2.968
26.50000 4.847
26.52000 6.874
26.54000 8.162
26.56000 10.274
26.58000 5.653
26.60000 6.262
26.62000 -0.867
26.64000 -1.496
26.66000 6.085
26.68000 11.716
26.70000 13.168
26.72000 7.091
26.74000 2.704
26.76000 -0.269
26.78000 5.786
26.80000 8.630
26.82000 6.516
26.84000 4.443
26.86000 10.505
26.88000 6.203
26.90000 -1.099
26.92000 4.292
26.94000 7.068
26.96000 6.925
26.98000 3.844
27.00000 0.937
27.02000 0.712
27.04000 6.448
27.06000 1.916
27.08000 -2.887
27.10000 -1.239
27.12000 1.176
27.14000 5.577
27.16000 2.918
27.18000 3.252
27.20000 3.605
27.22000 -2.694
27.24000 1.033
27.26000 4.705
27.28000 7.380
27.30000 10.222
27.32000 6.958
27.34000 5.431
27.36000 4.759
27.38000 3.784
27.40000 3.126
27.42000 1.651
27.44000 1.636
27.46000 8.267
27.48000 7.754
27.50000 4.381
27.52000 0.967
27.54000 2.923
27.56000 3.184
27.58000 0.870
27.60000 2.112
27.62000 0.952
27.64000 3.723
27.66000 -0.240
27.68000 -0.276
27.70000 -1.495
27.72000 -1.781
27.74000 3.762
27.76000 3.341
27.78000 4.584
27.80000 1.896
27.82000 10.467
27.84000 6.046
27.86000 2.265
27.88000 -1.171
27.90000 -2.673
27.92000 -0.867
27.94000 9.105
27.96000 5.553
27.98000 6.613
28.00000 8.958
28.02000 7.103
28.04000 1.318
28.06000 3.613
28.08000 4.901
28.10000 1.870
28.12000 5.539
28.14000 4.212
28.16000 7.180
28.18000 6.514
28.20000 8.511
28.22000 0.811
28.24000 -3.748
28.26000 -0.146
28.28000 5.708
28.30000 6.072
28.32000 7.714
28.34000 8.177
28.36000 3.058
28.38000 -0.635
28.40000 3.529
28.42000 3.306
28.44000 7.286
28.46000 5.940
28.48000 6.899
28.50000 5.829
28.52000 6.915
28.54000 7.476
28.56000 4.036
28.58000 -2.167
28.60000 -1.648
28.62000 2.436
28.64000 5.119
28.66000 8.605
28.68000 6.271
28.70000 0.694
28.72000 -1.810
28.74000 5.164
28.76000 4.793
28.78000 5.414
28.80000 4.722
28.82000 4.233
28.84000 5.212
28.86000 -1.250
28.88000 -0.653
28.90000 5.467
28.92000 4.723
28.94000 5.471
28.96000 -0.218
28.98000 0.604
29.00000 3.044
29.02000 -1.555
29.04000 -2.258
29.06000 0.893
29.08000 -0.508
29.10000 1.282
29.12000 3.733
29.14000 4.717
29.16000 5.677
29.18000 5.783
29.20000 5.018
29.22000 3.954
29.24000 3.126
29.26000 1.738
29.28000 2.361
29.30000 4.481
29.32000 7.006
29.34000 4.503
29.36000 7.662
29.38000 3.994
29.40000 4.833
29.42000 4.203
29.44000 5.229
29.46000 0.426
29.48000 -0.987
29.50000 -3.710
29.52000 0.555
29.54000 -0.137
29.56000 0.823
29.58000 1.564
29.60000 0.302
29.62000 2.580
29.64000 -1.057
29.66000 3.116
29.68000 -0.715
29.70000 1.966
29.72000 7.751
29.74000 5.955
29.76000 5.614
29.78000 1.766
29.80000 -0.087
29.82000 1.613
29.84000 5.781
29.86000 5.203
29.88000 0.753
29.90000 1.615
29.92000 5.455
29.94000 -0.428
29.96000 0.311
29.98000 2.755
30.00000 -0.866
30.02000 2.222
30.04000 1.839
30.06000 -0.122
30.08000 -2.592
30.10000 -0.118
30.12000 2.771
30.14000 1.632
30.16000 0.189
30.18000 2.238
30.20000 1.782
30.22000 -2.679
30.24000 -0.576
30.26000 -2.039
30.28000 -2.269
30.30000 -1.521
30.32000 6.357
30.34000 4.420
30.36000 -2.692
30.38000 0.622
30.40000 6.297
30.42000 2.943
30.44000 -0.764
30.46000 1.328
30.48000 4.297
30.50000 5.297
30.52000 6.025
30.54000 2.529
30.56000 0.404
30.58000 0.382
30.60000 -0.862
30.62000 -1.580
30.64000 3.959
30.66000 0.451
30.68000 -0.587
30.70000 2.618
30.72000 6.279
30.74000 5.040
30.76000 6.303
30.78000 7.001
30.80000 6.441
30.82000 3.479
30.84000 0.766
30.86000 -0.156
30.88000 0.948
30.90000 2.391
30.92000 6.561
30.94000 8.756
30.96000 4.266
30.98000 -2.188
31.00000 1.366
31.02000 -0.812
31.04000 1.039
31.06000 7.456
31.08000 4.291
31.10000 1.384
31.12000 6.097
31.14000 5.496
31.16000 5.743
31.18000 6.022
31.20000 0.599
31.22000 0.470
31.24000 1.152
31.26000 1.077
31.28000 -2.082
31.30000 4.012
31.32000 4.191
31.34000 5.672
31.36000 2.388
31.38000 -1.238
31.40000 -3.609
31.42000 3.846
31.44000 2.239
31.46000 3.599
31.48000 7.273
31.50000 6.259
31.52000 7.635
31.54000 5.920
31.56000 4.998
31.58000 3.009
31.60000 -1.117
31.62000 4.624
31.64000 5.337
31.66000 9.499
31.68000 10.690
31.70000 8.914
31.72000 5.797
31.74000 4.025
31.76000 3.343
31.78000 10.746
31.80000 9.031
31.82000 2.554
31.84000 0.034
31.86000 -2.001
31.88000 -1.468
31.90000 3.538
31.92000 10.035
31.94000 6.668
31.96000 1.541
31.98000 1.739
32.00000 5.517
32.02000 0.838
32.04000 0.773
32.06000 -0.397
32.08000 4.508
32.10000 5.007
32.12000 4.126
32.14000 2.969
32.16000 8.885
32.18000 3.110
32.20000 3.998
32.22000 -1.787
32.24000 1.313
32.26000 6.338
32.28000 3.363
32.30000 1.695
32.32000 5.324
32.34000 1.112
32.36000 2.214
32.38000 2.918
32.40000 2.651
32.42000 -0.953
32.44000 5.378
32.46000 5.726
32.48000 2.480
32.50000 5.276
32.52000 4.489
32.54000 -2.652
32.56000 1.014
32.58000 7.260
32.60000 3.336
32.62000 -0.641
32.64000 -1.859
32.66000 0.046
32.68000 -0.254
32.70000 -2.677
32.72000 -1.762
32.74000 1.000
32.76000 -1.788
32.78000 -3.579
32.80000 -1.594
32.82000 -0.566
32.84000 1.926
32.86000 1.954
32.88000 2.956
32.90000 5.194
32.92000 1.697
32.94000 0.230
32.96000 4.485
32.98000 2.713
33.00000 0.540
33.02000 2.826
33.04000 4.648
33.06000 5.358
33.08000 1.426
33.10000 0.724
33.12000 3.059
33.14000 3.742
33.16000 2.687
33.18000 0.746
33.20000 5.867
33.22000 7.319
33.24000 6.860
33.26000 4.521
33.28000 4.119
33.30000 4.999
33.32000 3.435
33.34000 3.287
33.36000 -1.038
33.38000 -0.852
33.40000 -2.501
33.42000 4.548
33.44000 5.876
33.46000 4.737
33.48000 4.186
33.50000 5.413
33.52000 3.538
33.54000 6.054
33.56000 2.523
33.58000 3.750
33.60000 3.713
33.62000 6.935
33.64000 6.732
33.66000 -0.448
33.68000 3.081
33.70000 4.831
33.72000 8.027
33.74000 3.306
33.76000 2.854
33.78000 6.081
33.80000 5.806
33.82000 0.587
33.84000 0.612
33.86000 -0.241
33.88000 0.221
33.90000 1.505
33.92000 -0.415
33.94000 5.977
33.96000 2.876
33.98000 5.174
34.00000 7.657
34.02000 4.681
34.04000 5.175
34.06000 3.033
34.08000 6.076
34.10000 0.261
34.12000 2.933
34.14000 4.929
34.16000 0.435
34.18000 5.026
34.20000 6.339
34.22000 8.688
34.24000 10.746
34.26000 8.606
34.28000 2.378
34.30000 -1.447
34.32000 -3.582
34.34000 7.160
34.36000 4.373
34.38000 1.390
34.40000 3.286
34.42000 4.589
34.44000 0.077
34.46000 2.041
34.48000 -3.262
34.50000 0.259
34.52000 2.058
34.54000 3.708
34.56000 2.990
34.58000 0.696
34.60000 0.968
34.62000 2.162
34.64000 3.195
34.66000 2.835
34.68000 4.092
34.70000 2.312
34.72000 5.696
34.74000 5.361
34.76000 2.780
34.78000 5.048
34.80000 -3.564
34.82000 0.543
34.84000 2.501
34.86000 4.683
34.88000 2.825
34.90000 1.312
34.92000 2.366
34.94000 2.817
34.96000 5.770
34.98000 2.965
35.00000 2.820
35.02000 2.238
35.04000 1.017
35.06000 4.624
35.08000 3.338
35.10000 0.823
35.12000 4.597
35.14000 6.557
35.16000 4.943
35.18000 0.752
35.20000 0.300
35.22000 -3.555
35.24000 -2.766
35.26000 1.089
35.28000 1.932
35.30000 2.720
35.32000 5.719
35.34000 3.662
35.36000 3.249
35.38000 -1.649
35.40000 2.837
35.42000 2.757
35.44000 -0.685
35.46000 2.118
35.48000 0.837
35.50000 4.998
35.52000 8.382
35.54000 9.697
35.56000 6.019
35.58000 7.476
35.60000 4.086
35.62000 -0.987
35.64000 -2.541
35.66000 3.472
35.68000 4.732
35.70000 -1.678
35.72000 5.647
35.74000 8.974
35.76000 5.295
35.78000 3.437
35.80000 -0.882
35.82000 -3.558
35.84000 -0.011
35.86000 2.097
35.88000 2.602
35.90000 4.969
35.92000 8.147
35.94000 4.237
35.96000 5.473
35.98000 2.272
36.00000 5.514
36.02000 7.439
36.04000 4.674
36.06000 2.224
36.08000 3.221
36.10000 5.309
36.12000 8.527
36.14000 6.461
36.16000 0.778
36.18000 1.478
36.20000 4.182
36.22000 5.463
36.24000 5.618
36.26000 4.300
36.28000 4.053
36.30000 3.414
36.32000 3.841
36.34000 4.515
36.36000 7.429
36.38000 7.719
36.40000 8.373
36.42000 6.831
36.44000 0.063
36.46000 4.648
36.48000 3.824
36.50000 7.277
36.52000 5.327
36.54000 4.140
36.56000 4.473
36.58000 2.414
36.60000 1.733
36.62000 4.384
36.64000 3.048
36.66000 3.188
36.68000 6.431
36.70000 2.215
36.72000 -3.111
36.74000 0.445
36.76000 3.791
36.78000 7.399
36.80000 2.781
36.82000 -3.644
36.84000 1.243
36.86000 3.851
36.88000 6.012
36.90000 6.558
36.92000 4.508
36.94000 6.954
36.96000 7.021
36.98000 6.390
37.00000 7.281
37.02000 9.165
37.04000 6.235
37.06000 5.843
37.08000 7.450
37.10000 4.628
37.12000 5.005
37.14000 4.397
37.16000 4.363
37.18000 7.852
37.20000 11.105
37.22000 8.677
37.24000 10.930
37.26000 11.914
37.28000 9.921
37.30000 8.809
37.32000 11.521
37.34000 9.757
37.36000 8.212
37.38000 11.263
37.40000 12.790
37.42000 10.778
37.44000 9.476
37.46000 9.350
37.48000 12.204
37.50000 11.351
37.52000 11.219
37.54000 17.706
37.56000 20.908
37.58000 21.041
37.60000 20.854
37.62000 16.917
37.64000 15.796
37.66000 18.217
37.68000 20.548
37.70000 24.319
37.72000 19.225
37.74000 18.143
37.76000 23.382
37.78000 25.228
37.80000 20.511
37.82000 20.411
37.84000 23.368
37.86000 22.578
37.88000 23.466
37.90000 24.723
37.92000 26.821
37.94000 27.109
37.96000 26.161
37.98000 26.252
38.00000 31.390
38.02000 34.667
38.04000 36.120
38.06000 37.629
38.08000 40.089
38.10000 40.956
38.12000 38.012
38.14000 39.803
38.16000 45.650
38.18000 45.523
38.20000 42.547
38.22000 45.423
38.24000 50.231
38.26000 45.504
38.28000 48.696
38.30000 51.924
38.32000 57.902
38.34000 54.594
38.36000 61.929
38.38000 65.214
38.40000 63.369
38.42000 64.400
38.44000 68.736
38.46000 76.863
38.48000 79.527
38.50000 76.586
38.52000 81.699
38.54000 85.691
38.56000 91.921
38.58000 95.214
38.60000 107.015
38.62000 110.269
38.64000 115.718
38.66000 120.845
38.68000 128.369
38.70000 135.580
38.72000 145.217
38.74000 155.048
38.76000 166.785
38.78000 171.928
38.80000 177.622
38.82000 194.264
38.84000 201.544
38.86000 220.454
38.88000 226.857
38.90000 236.853
38.92000 252.123
38.94000 264.998
38.96000 284.577
38.98000 297.758
39.00000 315.610
39.02000 335.855
39.04000 358.100
39.06000 374.252
39.08000 384.260
39.10000 406.855
39.12000 424.497
39.14000 440.278
39.16000 450.668
39.18000 453.796
39.20000 470.358
39.22000 475.920
39.24000 482.894
39.26000 484.524
39.28000 492.289
39.30000 496.677
39.32000 493.966
39.34000 490.860
39.36000 498.632
39.38000 500.410
39.40000 483.987
39.42000 470.242
39.44000 454.807
39.46000 441.088
39.48000 426.210
39.50000 410.081
39.52000 396.231
39.54000 385.214
39.56000 370.720
39.58000 348.232
39.60000 329.724
39.62000 313.820
39.64000 303.464
39.66000 291.616
39.68000 274.873
39.70000 258.412
39.72000 246.183
39.74000 224.646
39.76000 208.799
39.78000 195.085
39.80000 182.649
39.82000 174.812
39.84000 162.795
39.86000 143.416
39.88000 136.922
39.90000 130.807
39.92000 124.088
39.94000 119.928
39.96000 111.839
39.98000 104.906
40.00000 93.256
40.02000 90.289
40.04000 90.707
40.06000 88.825
40.08000 78.482
40.10000 73.597
40.12000 68.091
40.14000 66.265
40.16000 61.416
40.18000 59.922
40.20000 53.894
40.22000 51.602
40.24000 52.346
40.26000 46.486
40.28000 42.314
40.30000 43.054
40.32000 41.923
40.34000 40.524
40.36000 37.815
40.38000 34.191
40.40000 33.633
40.42000 31.281
40.44000 29.403
40.46000 32.853
40.48000 34.180
40.50000 32.740
40.52000 33.252
40.54000 31.040
40.56000 28.322
40.58000 24.952
40.60000 22.899
40.62000 24.156
40.64000 22.714
40.66000 24.381
40.68000 19.533
40.70000 17.766
40.72000 19.325
40.74000 19.291
40.76000 11.227
40.78000 11.797
40.80000 17.507
40.82000 17.071
40.84000 18.164
40.86000 11.779
40.88000 8.140
40.90000 11.462
40.92000 11.091
40.94000 13.108
40.96000 12.155
40.98000 10.798
41.00000 11.996
41.02000 10.588
41.04000 6.304
41.06000 9.252
41.08000 12.054
41.10000 5.715
41.12000 7.475
41.14000 7.290
41.16000 5.608
41.18000 6.056
41.20000 2.464
41.22000 3.863
41.24000 8.212
41.26000 11.835
41.28000 7.620
41.30000 3.414
41.32000 2.440
41.34000 2.416
41.36000 7.110
41.38000 8.174
41.40000 7.724
41.42000 3.988
41.44000 3.138
41.46000 1.278
41.48000 3.288
41.50000 1.517
41.52000 -2.332
41.54000 0.444
41.56000 2.648
41.58000 1.993
41.60000 1.831
41.62000 4.278
41.64000 3.449
41.66000 -0.846
41.68000 0.129
41.70000 3.595
41.72000 6.332
41.74000 1.685
41.76000 0.065
41.78000 2.471
41.80000 1.552
41.82000 2.385
41.84000 4.105
41.86000 3.202
41.88000 0.937
41.90000 1.991
41.92000 4.215
41.94000 7.611
41.96000 3.944
41.98000 2.437
42.00000 5.206
42.02000 4.352
42.04000 4.420
42.06000 4.390
42.08000 5.510
42.10000 -0.767
42.12000 -0.287
42.14000 4.784
42.16000 7.767
42.18000 2.443
42.20000 -2.544
42.22000 -0.024
42.24000 0.698
42.26000 1.540
42.28000 -1.929
42.30000 -3.360
42.32000 4.797
42.34000 6.574
42.36000 2.603
42.38000 0.646
42.40000 2.855
42.42000 1.626
42.44000 3.507
42.46000 -0.768
42.48000 -2.537
42.50000 -0.308
42.52000 0.973
42.54000 1.603
42.56000 2.269
42.58000 2.284
42.60000 4.852
42.62000 8.496
42.64000 8.959
42.66000 2.953
42.68000 -0.851
42.70000 2.086
42.72000 5.737
42.74000 5.899
42.76000 5.005
42.78000 4.799
42.80000 -1.348
42.82000 -3.281
42.84000 2.803
42.86000 4.168
42.88000 5.143
42.90000 3.793
42.92000 5.005
42.94000 6.221
42.96000 2.303
42.98000 4.317
43.00000 1.430
43.02000 -0.338
43.04000 3.527
43.06000 3.171
43.08000 2.114
43.10000 4.360
43.12000 5.912
43.14000 3.004
43.16000 2.382
43.18000 1.418
43.20000 2.181
43.22000 8.300
43.24000 1.836
43.26000 1.288
43.28000 5.686
43.30000 6.118
43.32000 2.171
43.34000 3.886
43.36000 3.343
43.38000 2.286
43.40000 2.685
43.42000 3.922
43.44000 5.702
43.46000 1.911
43.48000 3.405
43.50000 4.797
43.52000 6.734
43.54000 4.259
43.56000 0.532
43.58000 1.399
43.60000 2.752
43.62000 1.221
43.64000 -3.237
43.66000 -3.041
43.68000 -2.269
43.70000 1.355
43.72000 0.316
43.74000 -0.481
43.76000 1.035
43.78000 2.234
43.80000 1.563
43.82000 3.672
43.84000 2.955
43.86000 0.884
43.88000 -3.076
43.90000 -0.304
43.92000 0.472
43.94000 2.481
43.96000 3.278
43.98000 0.278
44.00000 -1.410
44.02000 0.135
44.04000 0.224
44.06000 -1.839
44.08000 0.829
44.10000 -0.374
44.12000 1.633
44.14000 7.179
44.16000 6.072
44.18000 -1.541
44.20000 -1.474
44.22000 0.447
44.24000 1.698
44.26000 5.018
44.28000 0.964
44.30000 -0.053
44.32000 -2.202
44.34000 -1.905
44.36000 -2.314
44.38000 -0.103
44.40000 4.901
44.42000 7.241
44.44000 4.122
44.46000 -0.688
44.48000 0.891
44.50000 1.620
44.52000 3.313
44.54000 0.445
44.56000 -2.620
44.58000 1.805
44.60000 8.611
44.62000 1.207
44.64000 2.444
44.66000 3.657
44.68000 2.081
44.70000 4.967
44.72000 8.433
44.74000 7.610
44.76000 5.217
44.78000 7.584
44.80000 6.611
44.82000 7.828
44.84000 13.634
44.86000 14.084
44.88000 6.837
44.90000 8.089
44.92000 6.041
44.94000 9.728
44.96000 13.972
44.98000 13.037
45.00000 15.597
45.02000 15.032
45.04000 14.827
45.06000 13.663
45.08000 10.695
45.10000 13.269
45.12000 12.896
45.14000 20.050
45.16000 23.859
45.18000 24.713
45.20000 23.087
45.22000 24.675
45.24000 26.520
45.26000 21.737
45.28000 20.808
45.30000 25.527
45.32000 34.387
45.34000 33.717
45.36000 34.603
45.38000 34.321
45.40000 36.372
45.42000 40.567
45.44000 38.244
45.46000 39.183
45.48000 44.518
45.50000 46.990
45.52000 48.382
45.54000 50.448
45.56000 50.795
45.58000 47.707
45.60000 52.642
45.62000 58.639
45.64000 59.024
45.66000 58.337
45.68000 59.972
45.70000 59.227
45.72000 61.499
45.74000 63.999
45.76000 63.064
45.78000 63.887
45.80000 64.438
45.82000 63.663
45.84000 57.078
45.86000 59.317
45.88000 64.245
45.90000 67.259
45.92000 65.995
45.94000 57.594
45.96000 59.328
45.98000 60.808
46.00000 58.028
46.02000 60.436
46.04000 60.568
46.06000 58.780
46.08000 59.447
46.10000 58.500
46.12000 55.161
46.14000 53.184
46.16000 52.471
46.18000 52.492
46.20000 49.753
46.22000 50.100
46.24000 48.735
46.26000 43.077
46.28000 43.558
46.30000 39.530
46.32000 39.959
46.34000 39.422
46.36000 36.072
46.38000 36.949
46.40000 36.111
46.42000 33.224
46.44000 28.182
46.46000 26.293
46.48000 27.338
46.50000 28.669
46.52000 24.664
46.54000 22.108
46.56000 18.953
46.58000 21.657
46.60000 19.108
46.62000 17.890
46.64000 19.503
46.66000 17.656
46.68000 14.748
46.70000 11.657
46.72000 10.982
46.74000 7.324
46.76000 6.086
46.78000 10.897
46.80000 14.006
46.82000 8.519
46.84000 8.623
46.86000 4.964
46.88000 6.451
46.90000 4.427
46.92000 6.550
46.94000 0.784
46.96000 -2.453
46.98000 2.772
47.00000 5.261
47.02000 4.737
47.04000 1.814
47.06000 6.589
47.08000 3.590
47.10000 3.735
47.12000 3.037
47.14000 -0.189
47.16000 -1.464
47.18000 2.746
47.20000 7.353
47.22000 3.387
47.24000 2.635
47.26000 -2.863
47.28000 0.323
47.30000 3.616
47.32000 0.541
47.34000 5.315
47.36000 4.174
47.38000 4.035
47.40000 5.891
47.42000 5.059
47.44000 4.465
47.46000 1.971
47.48000 3.148
47.50000 2.816
47.52000 9.198
47.54000 11.300
47.56000 4.341
47.58000 2.559
47.60000 1.547
47.62000 1.649
47.64000 3.946
47.66000 -1.104
47.68000 -0.676
47.70000 3.104
47.72000 1.146
47.74000 3.182
47.76000 2.333
47.78000 -1.479
47.80000 -0.367
47.82000 2.568
47.84000 2.214
47.86000 1.031
47.88000 0.933
47.90000 1.267
47.92000 4.094
47.94000 1.128
47.96000 1.994
47.98000 2.229
48.00000 1.613
48.02000 -0.505
48.04000 -0.678
48.06000 -2.778
48.08000 1.820
48.10000 7.553
48.12000 -1.785
48.14000 -1.506
48.16000 -1.084
48.18000 -0.428
48.20000 1.733
48.22000 1.080
48.24000 -1.257
48.26000 -1.102
48.28000 -2.248
48.30000 3.486
48.32000 3.788
48.34000 4.226
48.36000 6.766
48.38000 7.170
48.40000 6.982
48.42000 7.450
48.44000 7.098
48.46000 6.100
48.48000 0.988
48.50000 1.124
48.52000 -0.294
48.54000 0.308
48.56000 3.086
48.58000 5.828
48.60000 4.340
48.62000 3.997
48.64000 1.877
48.66000 7.578
48.68000 2.137
48.70000 1.906
48.72000 2.282
48.74000 1.320
48.76000 1.565
48.78000 -0.610
48.80000 1.771
48.82000 0.417
48.84000 -0.156
48.86000 -2.713
48.88000 -1.991
48.90000 2.424
48.92000 3.391
48.94000 6.980
48.96000 2.582
48.98000 1.257
49.00000 5.581
49.02000 8.294
49.04000 2.052
49.06000 1.546
49.08000 4.803
49.10000 9.249
49.12000 8.003
49.14000 3.394
49.16000 3.964
49.18000 3.575
49.20000 5.378
49.22000 6.889
49.24000 6.242
49.26000 0.995
49.28000 6.492
49.30000 1.951
49.32000 -2.671
49.34000 -0.060
49.36000 1.348
49.38000 2.557
49.40000 7.940
49.42000 6.673
49.44000 4.697
49.46000 0.718
49.48000 2.828
49.50000 4.431
49.52000 3.358
49.54000 1.346
49.56000 1.968
49.58000 -0.007
49.60000 2.807
49.62000 4.354
49.64000 0.015
49.66000 4.014
49.68000 4.691
49.70000 1.497
49.72000 0.700
49.74000 1.112
49.76000 4.768
49.78000 2.585
49.80000 -0.349
49.82000 2.680
49.84000 4.251
49.86000 5.326
49.88000 4.336
49.90000 3.969
49.92000 2.884
49.94000 1.460
49.96000 3.725
49.98000 1.282
50.00000 1.654
50.02000 -2.276
50.04000 -0.399
50.06000 4.705
50.08000 4.613
50.10000 5.906
50.12000 3.714
50.14000 3.048
50.16000 3.209
50.18000 -0.208
50.20000 3.520
50.22000 0.974
50.24000 1.681
50.26000 4.235
50.28000 4.342
50.30000 5.540
50.32000 1.027
50.34000 1.171
50.36000 1.114
50.38000 3.762
50.40000 3.801
50.42000 1.095
50.44000 3.508
50.46000 1.472
50.48000 2.987
50.50000 0.708
50.52000 -2.210
50.54000 -1.342
50.56000 1.558
50.58000 3.583
50.60000 1.326
50.62000 1.135
50.64000 -0.834
50.66000 1.389
50.68000 1.053
50.70000 3.308
50.72000 3.854
50.74000 5.497
50.76000 1.993
50.78000 3.355
50.80000 10.243
50.82000 6.628
50.84000 3.890
50.86000 7.926
50.88000 6.397
50.90000 4.831
50.92000 2.531
50.94000 0.721
50.96000 4.386
50.98000 7.333
51.00000 7.101
51.02000 5.421
51.04000 2.975
51.06000 4.422
51.08000 3.271
51.10000 0.531
51.12000 -2.606
51.14000 1.531
51.16000 5.183
51.18000 2.466
51.20000 3.986
51.22000 5.077
51.24000 3.927
51.26000 4.354
51.28000 3.493
51.30000 1.206
51.32000 2.316
51.34000 4.515
51.36000 6.058
51.38000 5.584
51.40000 1.859
51.42000 1.002
51.44000 2.554
51.46000 2.423
51.48000 4.352
51.50000 6.017
51.52000 3.186
51.54000 0.410
51.56000 2.149
51.58000 4.335
51.60000 3.077
51.62000 2.870
51.64000 1.764
51.66000 2.177
51.68000 -1.900
51.70000 3.306
51.72000 4.932
51.74000 2.900
51.76000 -0.285
51.78000 1.138
51.80000 0.245
51.82000 2.069
51.84000 5.483
51.86000 3.285
51.88000 7.089
51.90000 7.475
51.92000 2.585
51.94000 3.494
51.96000 1.009
51.98000 0.807
52.00000 -0.353
52.02000 2.172
52.04000 -0.422
52.06000 -0.494
52.08000 -0.627
52.10000 0.378
52.12000 0.010
52.14000 -1.437
52.16000 5.623
52.18000 11.046
52.20000 4.642
52.22000 2.148
52.24000 2.337
52.26000 -0.309
52.28000 0.784
52.30000 -2.593
52.32000 1.531
52.34000 4.053
52.36000 0.657
52.38000 3.581
52.40000 3.547
52.42000 -0.237
52.44000 2.576
52.46000 0.536
52.48000 0.834
52.50000 3.246
52.52000 4.233
52.54000 2.125
52.56000 1.740
52.58000 0.693
52.60000 0.621
52.62000 -0.204
52.64000 1.379
52.66000 0.430
52.68000 0.056
52.70000 -0.386
52.72000 0.183
52.74000 0.508
52.76000 4.663
52.78000 4.238
52.80000 3.935
52.82000 4.035
52.84000 2.601
52.86000 1.616
52.88000 1.436
52.90000 4.988
52.92000 5.059
52.94000 6.514
52.96000 0.928
52.98000 3.458
53.00000 -0.809
53.02000 -0.628
53.04000 5.078
53.06000 5.129
53.08000 1.512
53.10000 -1.819
53.12000 0.845
53.14000 1.000
53.16000 0.774
53.18000 5.412
53.20000 1.623
53.22000 -0.045
53.24000 0.687
53.26000 0.159
53.28000 2.337
53.30000 0.418
53.32000 1.876
53.34000 1.664
53.36000 -0.615
53.38000 3.694
53.40000 6.174
53.42000 -0.730
53.44000 -2.569
53.46000 2.967
53.48000 1.844
53.50000 -0.582
53.52000 -1.003
53.54000 1.813
53.56000 1.794
53.58000 0.510
53.60000 0.556
53.62000 3.649
53.64000 4.909
53.66000 1.847
53.68000 -0.009
53.70000 -0.514
53.72000 -0.901
53.74000 -1.977
53.76000 5.785
53.78000 9.599
53.80000 2.676
53.82000 2.682
53.84000 1.181
53.86000 0.177
53.88000 1.574
53.90000 4.153
53.92000 -0.613
53.94000 -1.831
53.96000 0.447
53.98000 -0.854
54.00000 3.701
54.02000 1.371
54.04000 0.805
54.06000 -1.978
54.08000 -1.649
54.10000 -0.350
54.12000 2.718
54.14000 4.421
54.16000 1.864
54.18000 2.447
54.20000 3.954
54.22000 4.886
54.24000 4.919
54.26000 4.360
54.28000 3.582
54.30000 -2.546
54.32000 2.125
54.34000 3.448
54.36000 2.420
54.38000 6.101
54.40000 5.158
54.42000 2.107
54.44000 4.747
54.46000 2.469
54.48000 -2.256
54.50000 0.982
54.52000 -0.661
54.54000 -2.324
54.56000 -2.302
54.58000 -1.121
54.60000 1.023
54.62000 2.040
54.64000 2.360
54.66000 3.321
54.68000 4.294
54.70000 4.448
54.72000 3.828
54.74000 2.481
54.76000 1.320
54.78000 5.921
54.80000 2.819
54.82000 1.428
54.84000 -0.724
54.86000 0.308
54.88000 0.197
54.90000 0.027
54.92000 2.405
54.94000 2.877
54.96000 2.880
54.98000 2.271
55.00000 1.779
55.02000 -0.494
55.04000 2.461
55.06000 -0.933
55.08000 -2.543
55.10000 -0.301
55.12000 2.950
55.14000 2.717
55.16000 0.132
55.18000 0.999
55.20000 2.538
55.22000 4.291
55.24000 3.036
55.26000 1.390
55.28000 5.377
55.30000 5.529
55.32000 1.832
55.34000 0.629
55.36000 0.092
55.38000 0.562
55.40000 3.387
55.42000 4.533
55.44000 7.597
55.46000 3.919
55.48000 4.125
55.50000 5.762
55.52000 4.684
55.54000 3.179
55.56000 0.148
55.58000 2.943
55.60000 4.081
55.62000 3.076
55.64000 2.630
55.66000 0.730
55.68000 -0.015
55.70000 -1.744
55.72000 -0.150
55.74000 2.300
55.76000 1.380
55.78000 0.479
55.80000 0.003
55.82000 5.747
55.84000 0.739
55.86000 -2.507
55.88000 0.206
55.90000 3.147
55.92000 0.189
55.94000 1.613
55.96000 1.787
55.98000 0.997
56.00000 -1.473
56.02000 -2.499
56.04000 5.055
56.06000 5.659
56.08000 3.625
56.10000 4.021
56.12000 2.516
56.14000 0.223
56.16000 2.953
56.18000 6.027
56.20000 6.198
56.22000 2.700
56.24000 0.851
56.26000 3.464
56.28000 4.868
56.30000 2.877
56.32000 2.893
56.34000 3.408
56.36000 5.809
56.38000 3.229
56.40000 1.573
56.42000 1.415
56.44000 2.183
56.46000 -1.736
56.48000 -0.827
56.50000 5.509
56.52000 1.926
56.54000 -0.297
56.56000 6.461
56.58000 0.853
56.60000 2.537
56.62000 0.088
56.64000 -2.485
56.66000 0.443
56.68000 4.402
56.70000 2.731
56.72000 0.717
56.74000 -2.236
56.76000 -1.091
56.78000 0.932
56.80000 1.743
56.82000 0.414
56.84000 2.456
56.86000 2.855
56.88000 3.622
56.90000 3.596
56.92000 4.947
56.94000 1.022
56.96000 0.244
56.98000 -2.120
57.00000 -2.477
57.02000 0.527
57.04000 1.874
57.06000 0.893
57.08000 0.326
57.10000 2.495
57.12000 2.813
57.14000 -0.807
57.16000 2.177
57.18000 2.567
57.20000 3.264
57.22000 0.876
57.24000 -0.069
57.26000 -2.470
57.28000 -1.595
57.30000 2.926
57.32000 6.010
57.34000 0.274
57.36000 2.808
57.38000 4.481
57.40000 2.205
57.42000 3.289
57.44000 -0.868
57.46000 -1.775
57.48000 2.329
57.50000 1.742
57.52000 1.006
57.54000 2.174
57.56000 1.800
57.58000 2.226
57.60000 -2.461
57.62000 -0.305
57.64000 4.351
57.66000 2.555
57.68000 3.712
57.70000 0.137
57.72000 3.006
57.74000 2.641
57.76000 1.501
57.78000 1.602
57.80000 0.957
57.82000 0.547
57.84000 0.495
57.86000 -0.025
57.88000 4.541
57.90000 2.885
57.92000 -1.402
57.94000 -0.095
57.96000 1.350
57.98000 0.449
58.00000 2.123
58.02000 2.727
58.04000 0.861
58.06000 2.380
58.08000 -0.172
58.10000 -2.346
58.12000 -0.002
58.14000 4.383
58.16000 4.900
58.18000 1.567
58.20000 3.701
58.22000 3.455
58.24000 2.662
58.26000 0.461
58.28000 0.585
58.30000 5.355
58.32000 1.991
58.34000 -0.469
58.36000 0.833
58.38000 3.621
58.40000 1.295
58.42000 -2.099
58.44000 -2.408
58.46000 1.555
58.48000 5.414
58.50000 6.685
58.52000 5.197
58.54000 -0.012
58.56000 2.522
58.58000 2.079
58.60000 3.292
58.62000 0.398
58.64000 0.186
58.66000 -0.598
58.68000 2.966
58.70000 1.192
58.72000 0.762
58.74000 5.719
58.76000 3.927
58.78000 1.117
58.80000 2.501
58.82000 0.791
58.84000 3.806
58.86000 6.683
58.88000 2.236
58.90000 1.165
58.92000 1.402
58.94000 -1.230
58.96000 0.069
58.98000 0.937
59.00000 2.088
59.02000 1.003
59.04000 3.438
59.06000 5.879
59.08000 6.741
59.10000 2.085
59.12000 2.065
59.14000 0.542
59.16000 3.012
59.18000 1.417
59.20000 1.334
59.22000 3.023
59.24000 3.480
59.26000 -0.785
59.28000 5.321
59.30000 2.333
59.32000 -1.668
59.34000 -2.406
59.36000 1.349
59.38000 4.838
59.40000 4.075
59.42000 0.997
59.44000 -1.538
59.46000 -2.267
59.48000 2.518
59.50000 4.061
59.52000 5.732
59.54000 3.950
59.56000 2.535
59.58000 4.612
59.60000 -0.121
59.62000 -1.039
59.64000 -0.996
59.66000 1.705
59.68000 2.318
59.70000 2.952
59.72000 1.184
59.74000 2.890
59.76000 1.038
59.78000 -0.053
59.80000 2.018
59.82000 1.355
59.84000 1.639
59.86000 3.032
59.88000 -0.716
59.90000 1.773
59.92000 -0.308
59.94000 0.350
59.96000 0.302
59.98000 3.220
60.00000 4.078
60.02000 2.478
60.04000 2.412
60.06000 -0.237
60.08000 1.162
60.10000 6.983
60.12000 5.885
60.14000 2.110
60.16000 1.914
60.18000 3.381
60.20000 4.278
60.22000 4.024
60.24000 3.104
60.26000 3.398
60.28000 -0.362
60.30000 -0.382
60.32000 1.050
60.34000 1.441
60.36000 1.532
60.38000 1.070
60.40000 1.028
60.42000 1.043
60.44000 1.798
60.46000 -0.269
60.48000 1.710
60.50000 0.097
60.52000 -1.104
60.54000 0.174
60.56000 -2.372
60.58000 2.682
60.60000 7.233
60.62000 0.865
60.64000 -1.947
60.66000 1.701
60.68000 4.123
60.70000 0.332
60.72000 -1.130
60.74000 5.189
60.76000 3.917
60.78000 3.323
60.80000 3.955
60.82000 5.053
60.84000 1.000
60.86000 2.629
60.88000 1.201
60.90000 -1.606
60.92000 1.187
60.94000 0.275
60.96000 -0.343
60.98000 2.917
61.00000 5.730
61.02000 4.936
61.04000 2.237
61.06000 2.325
61.08000 0.736
61.10000 2.743
61.12000 1.898
61.14000 2.409
61.16000 0.721
61.18000 2.461
61.20000 5.687
61.22000 1.616
61.24000 0.996
61.26000 4.545
61.28000 3.497
61.30000 -0.108
61.32000 -2.328
61.34000 -2.133
61.36000 0.056
61.38000 -1.281
61.40000 0.893
61.42000 0.085
61.44000 -1.017
61.46000 2.584
61.48000 0.347
61.50000 0.968
61.52000 5.557
61.54000 5.540
61.56000 0.820
61.58000 1.053
61.60000 2.369
61.62000 3.028
61.64000 1.235
61.66000 -0.187
61.68000 0.793
61.70000 3.675
61.72000 -0.082
61.74000 -0.510
61.76000 0.125
61.78000 0.242
61.80000 -2.166
61.82000 -2.220
61.84000 2.698
61.86000 3.768
61.88000 3.384
61.90000 3.960
61.92000 0.859
61.94000 0.754
61.96000 -0.168
61.98000 -0.861
62.00000 -0.650
62.02000 5.245
62.04000 2.820
62.06000 0.479
62.08000 -1.568
62.10000 -0.782
62.12000 -2.118
62.14000 -1.069
62.16000 -1.578
62.18000 0.154
62.20000 -0.800
62.22000 -0.505
62.24000 -2.321
62.26000 1.951
62.28000 4.337
62.30000 -0.439
62.32000 -2.212
62.34000 2.404
62.36000 1.189
62.38000 3.480
62.40000 2.745
62.42000 -0.015
62.44000 -1.635
62.46000 2.981
62.48000 3.756
62.50000 5.921
62.52000 5.928
62.54000 2.465
62.56000 1.172
62.58000 1.594
62.60000 2.992
62.62000 3.631
62.64000 -0.061
62.66000 1.065
62.68000 5.109
62.70000 2.273
62.72000 -0.627
62.74000 3.319
62.76000 3.441
62.78000 3.362
62.80000 0.426
62.82000 -0.973
62.84000 2.379
62.86000 7.811
62.88000 7.616
62.90000 3.931
62.92000 0.846
62.94000 -0.693
62.96000 -2.279
62.98000 2.241
63.00000 0.441
63.02000 3.577
63.04000 1.767
63.06000 1.184
63.08000 3.155
63.10000 1.866
63.12000 4.629
63.14000 2.937
63.16000 1.528
63.18000 1.727
63.20000 3.285
63.22000 7.446
63.24000 1.435
63.26000 1.689
63.28000 4.615
63.30000 1.488
63.32000 -0.526
63.34000 4.047
63.36000 2.712
63.38000 1.920
63.40000 2.729
63.42000 1.982
63.44000 2.900
63.46000 3.804
63.48000 2.912
63.50000 -2.286
63.52000 -0.419
63.54000 0.547
63.56000 2.933
63.58000 2.074
63.60000 -0.538
63.62000 3.535
63.64000 0.988
63.66000 -1.311
63.68000 -0.251
63.70000 0.132
63.72000 1.523
63.74000 2.781
63.76000 1.851
63.78000 -0.171
63.80000 -0.063
63.82000 1.380
63.84000 -0.589
63.86000 1.913
63.88000 2.448
63.90000 0.694
63.92000 0.293
63.94000 0.832
63.96000 -1.624
63.98000 1.709
64.00000 2.694
64.02000 4.193
64.04000 1.462
64.06000 2.050
64.08000 0.308
64.10000 0.379
64.12000 2.133
64.14000 3.414
64.16000 3.511
64.18000 4.984
64.20000 2.001
64.22000 3.689
64.24000 0.564
64.26000 1.182
64.28000 2.696
64.30000 2.647
64.32000 3.524
64.34000 4.127
64.36000 0.706
64.38000 1.659
64.40000 0.615
64.42000 0.839
64.44000 3.345
64.46000 2.606
64.48000 1.856
64.50000 2.522
64.52000 -0.690
64.54000 -1.987
64.56000 0.291
64.58000 0.536
64.60000 0.205
64.62000 2.427
64.64000 3.002
64.66000 0.653
64.68000 0.554
64.70000 5.954
64.72000 5.623
64.74000 5.262
64.76000 2.915
64.78000 2.703
64.80000 -0.519
64.82000 -2.259
64.84000 -0.757
64.86000 4.155
64.88000 4.679
64.90000 4.402
64.92000 0.877
64.94000 4.085
64.96000 4.615
64.98000 3.005
65.00000 1.987
65.02000 -0.212
65.04000 3.455
65.06000 3.174
65.08000 3.778
65.10000 4.517
65.12000 4.827
65.14000 0.639
65.16000 -2.239
65.18000 1.251
65.20000 1.700
65.22000 3.658
65.24000 2.194
65.26000 4.352
65.28000 4.019
65.30000 1.237
65.32000 3.170
65.34000 4.180
65.36000 4.038
65.38000 2.424
65.40000 3.268
65.42000 4.579
65.44000 4.010
65.46000 1.534
65.48000 1.113
65.50000 2.223
65.52000 1.394
65.54000 2.946
65.56000 0.595
65.58000 1.029
65.60000 3.174
65.62000 2.515
65.64000 2.520
65.66000 3.087
65.68000 1.128
65.70000 -0.247
65.72000 1.421
65.74000 0.737
65.76000 2.595
65.78000 0.954
65.80000 2.673
65.82000 3.132
65.84000 0.665
65.86000 0.588
65.88000 1.474
65.90000 2.707
65.92000 3.218
65.94000 7.022
65.96000 3.075
65.98000 1.668
66.00000 1.084
66.02000 -0.918
66.04000 -0.028
66.06000 -0.410
66.08000 1.216
66.10000 2.818
66.12000 0.696
66.14000 1.346
66.16000 3.987
66.18000 3.094
66.20000 0.454
66.22000 -0.113
66.24000 -1.052
66.26000 0.323
66.28000 4.305
66.30000 2.947
66.32000 1.691
66.34000 4.280
66.36000 3.630
66.38000 2.846
66.40000 2.240
66.42000 0.183
66.44000 3.301
66.46000 5.421
66.48000 4.157
66.50000 6.467
66.52000 6.171
66.54000 4.130
66.56000 3.662
66.58000 4.449
66.60000 1.556
66.62000 5.356
66.64000 5.836
66.66000 5.801
66.68000 3.660
66.70000 2.930
66.72000 4.257
66.74000 4.375
66.76000 1.732
66.78000 3.488
66.80000 4.522
66.82000 5.784
66.84000 7.077
66.86000 2.144
66.88000 1.625
66.90000 5.991
66.92000 7.880
66.94000 8.069
66.96000 4.673
66.98000 7.830
67.00000 8.154
67.02000 3.926
67.04000 4.658
67.06000 4.410
67.08000 3.638
67.10000 4.506
67.12000 1.906
67.14000 5.822
67.16000 3.990
67.18000 5.019
67.20000 5.101
67.22000 1.541
67.24000 1.139
67.26000 4.624
67.28000 2.468
67.30000 4.007
67.32000 5.449
67.34000 1.909
67.36000 1.161
67.38000 4.733
67.40000 2.966
67.42000 -2.223
67.44000 -2.248
67.46000 0.899
67.48000 2.082
67.50000 3.581
67.52000 4.272
67.54000 -0.232
67.56000 1.288
67.58000 0.835
67.60000 3.331
67.62000 2.246
67.64000 -2.232
67.66000 -0.673
67.68000 -0.232
67.70000 0.349
67.72000 0.898
67.74000 2.804
67.76000 4.532
67.78000 4.042
67.80000 3.339
67.82000 4.888
67.84000 5.175
67.86000 2.415
67.88000 0.511
67.90000 0.240
67.92000 -0.248
67.94000 -2.209
67.96000 -1.400
67.98000 0.703
68.00000 0.798
68.02000 -1.059
68.04000 2.369
68.06000 3.279
68.08000 2.915
68.10000 -0.136
68.12000 1.479
68.14000 4.741
68.16000 2.349
68.18000 1.510
68.20000 0.723
68.22000 -0.639
68.24000 -0.130
68.26000 0.632
68.28000 0.851
68.30000 0.452
68.32000 0.523
68.34000 0.561
68.36000 1.944
68.38000 0.226
68.40000 -0.360
68.42000 -1.538
68.44000 -0.225
68.46000 0.499
68.48000 1.167
68.50000 1.584
68.52000 2.276
68.54000 2.871
68.56000 0.118
68.58000 -0.396
68.60000 1.195
68.62000 -1.965
68.64000 -1.104
68.66000 -0.344
68.68000 -0.609
68.70000 2.357
68.72000 1.802
68.74000 1.562
68.76000 -0.365
68.78000 -0.909
68.80000 1.168
68.82000 1.981
68.84000 0.261
68.86000 0.806
68.88000 1.649
68.90000 1.165
68.92000 0.863
68.94000 -1.203
68.96000 1.026
68.98000 1.807
69.00000 -0.507
69.02000 -0.209
69.04000 0.320
69.06000 2.574
69.08000 2.294
69.10000 0.487
69.12000 -2.152
69.14000 0.922
69.16000 1.640
69.18000 0.414
69.20000 1.765
69.22000 2.053
69.24000 3.937
69.26000 4.064
69.28000 2.182
69.30000 -0.408
69.32000 -1.747
69.34000 1.016
69.36000 -1.213
69.38000 -1.351
69.40000 -1.118
69.42000 0.816
69.44000 1.460
69.46000 -0.807
69.48000 0.166
69.50000 3.026
69.52000 0.545
69.54000 -1.339
69.56000 -0.543
69.58000 -1.610
69.60000 1.348
69.62000 2.160
69.64000 -0.106
69.66000 -0.231
69.68000 -1.120
69.70000 -1.103
69.72000 2.383
69.74000 2.955
69.76000 0.757
69.78000 1.048
69.80000 4.006
69.82000 4.341
69.84000 4.227
69.86000 3.418
69.88000 2.539
69.90000 0.907
69.92000 2.412
69.94000 2.866
69.96000 3.379
69.98000 1.630
70.00000 0.922
70.02000 3.221
70.04000 0.455
70.06000 -2.081
70.08000 2.634
70.10000 4.627
70.12000 2.239
70.14000 3.426
70.16000 3.358
70.18000 1.960
70.20000 0.190
70.22000 0.975
70.24000 -0.522
70.26000 -0.622
70.28000 1.566
70.30000 2.181
70.32000 2.174
70.34000 4.040
70.36000 2.975
70.38000 1.526
70.40000 0.285
70.42000 -1.778
70.44000 -0.177
70.46000 -0.039
70.48000 2.038
70.50000 1.081
70.52000 -0.172
70.54000 -0.497
70.56000 0.329
70.58000 1.201
70.60000 -0.090
70.62000 2.380
70.64000 3.778
70.66000 4.562
70.68000 2.268
70.70000 0.188
70.72000 0.400
70.74000 1.660
70.76000 2.526
70.78000 1.684
70.80000 0.412
70.82000 1.905
70.84000 1.595
70.86000 0.919
70.88000 2.532
70.90000 1.635
70.92000 2.271
70.94000 1.360
70.96000 0.495
70.98000 0.273
71.00000 1.904
71.02000 5.660
71.04000 3.300
71.06000 1.284
71.08000 3.608
71.10000 3.961
71.12000 3.275
71.14000 4.236
71.16000 4.567
71.18000 2.646
71.20000 -0.662
71.22000 4.394
71.24000 3.891
71.26000 -0.829
71.28000 0.099
71.30000 1.542
71.32000 0.554
71.34000 1.783
71.36000 -2.038
71.38000 -0.405
71.40000 2.052
71.42000 3.452
71.44000 4.097
71.46000 2.211
71.48000 1.146
71.50000 2.663
71.52000 2.199
71.54000 1.051
71.56000 2.170
71.58000 2.033
71.60000 1.992
71.62000 4.120
71.64000 3.112
71.66000 0.779
71.68000 1.855
71.70000 2.252
71.72000 2.579
71.74000 2.871
71.76000 3.552
71.78000 2.584
71.80000 1.426
71.82000 1.915
71.84000 1.386
71.86000 3.093
71.88000 2.446
71.90000 0.703
71.92000 3.239
71.94000 0.764
71.96000 2.166
71.98000 4.487
72.00000 5.277
72.02000 3.168
72.04000 3.021
72.06000 0.576
72.08000 3.002
72.10000 2.592
72.12000 3.124
72.14000 1.954
72.16000 0.532
72.18000 -0.431
72.20000 -0.018
72.22000 1.138
72.24000 1.608
72.26000 -2.025
72.28000 -0.686
72.30000 0.796
72.32000 4.010
72.34000 1.515
72.36000 0.918
72.38000 0.343
72.40000 0.212
72.42000 3.588
72.44000 2.886
72.46000 4.455
72.48000 3.597
72.50000 1.498
72.52000 1.168
72.54000 2.570
72.56000 3.087
72.58000 0.329
72.60000 0.821
72.62000 -0.285
72.64000 0.004
72.66000 0.170
72.68000 -0.923
72.70000 -0.540
72.72000 2.156
72.74000 4.175
72.76000 5.781
72.78000 0.644
72.80000 -0.005
72.82000 2.670
72.84000 3.044
72.86000 1.699
72.88000 1.767
72.90000 4.029
72.92000 2.588
72.94000 0.302
72.96000 0.998
72.98000 2.828
73.00000 3.411
73.02000 2.424
73.04000 1.461
73.06000 -1.415
73.08000 -0.257
73.10000 -0.079
73.12000 1.091
73.14000 1.178
73.16000 -0.344
73.18000 0.739
73.20000 0.289
73.22000 -0.314
73.24000 -0.946
73.26000 -0.790
73.28000 -1.072
73.30000 0.098
73.32000 -0.800
73.34000 -0.230
73.36000 0.156
73.38000 2.312
73.40000 0.173
73.42000 2.626
73.44000 0.945
73.46000 2.576
73.48000 1.114
73.50000 0.287
73.52000 3.350
73.54000 2.113
73.56000 4.201
73.58000 1.169
73.60000 -2.009
73.62000 -0.513
73.64000 1.476
73.66000 2.177
73.68000 3.948
73.70000 3.276
73.72000 2.215
73.74000 3.269
73.76000 1.869
73.78000 1.353
73.80000 -0.249
73.82000 0.228
73.84000 3.908
73.86000 1.796
73.88000 0.057
73.90000 1.624
73.92000 1.582
73.94000 -0.422
73.96000 -1.996
73.98000 -0.611
74.00000 0.326
74.02000 0.089
74.04000 -1.136
74.06000 2.067
74.08000 1.918
74.10000 0.978
74.12000 1.449
74.14000 3.873
74.16000 1.348
74.18000 -2.002
74.20000 -1.074
74.22000 -0.179
74.24000 -0.708
74.26000 0.419
74.28000 0.982
74.30000 0.864
74.32000 0.513
74.34000 -0.081
74.36000 -1.212
74.38000 1.472
74.40000 0.795
74.42000 0.833
74.44000 3.032
74.46000 2.922
74.48000 1.201
74.50000 0.864
74.52000 1.434
74.54000 -0.544
74.56000 0.614
74.58000 1.125
74.60000 3.437
74.62000 4.789
74.64000 3.786
74.66000 0.722
74.68000 -0.106
74.70000 0.796
74.72000 0.124
74.74000 2.259
74.76000 -0.002
74.78000 0.028
74.80000 -0.246
74.82000 -0.122
74.84000 1.956
74.86000 4.129
74.88000 5.469
74.90000 3.515
74.92000 -1.824
74.94000 -1.783
74.96000 0.645
74.98000 1.470
75.00000 0.366
75.02000 2.893
75.04000 3.769
75.06000 0.331
75.08000 3.295
75.10000 -0.031
75.12000 -0.093
75.14000 0.056
75.16000 0.703
75.18000 0.638
75.20000 1.645
75.22000 3.303
75.24000 2.689
75.26000 4.491
75.28000 1.029
75.30000 -1.222
75.32000 0.463
75.34000 3.467
75.36000 2.645
75.38000 2.363
75.40000 3.526
75.42000 2.367
75.44000 -0.168
75.46000 -2.003
75.48000 0.750
75.50000 4.395
75.52000 2.269
75.54000 2.216
75.56000 2.231
75.58000 1.451
75.60000 3.474
75.62000 2.304
75.64000 1.837
75.66000 2.940
75.68000 -0.207
75.70000 -0.419
75.72000 1.335
75.74000 -0.067
75.76000 1.831
75.78000 2.915
75.80000 2.076
75.82000 2.153
75.84000 1.144
75.86000 2.086
75.88000 -0.552
75.90000 -2.008
75.92000 -0.056
75.94000 4.918
75.96000 0.083
75.98000 -0.821
76.00000 1.442
76.02000 3.836
76.04000 3.519
76.06000 5.589
76.08000 3.984
76.10000 3.414
76.12000 3.565
76.14000 -1.282
76.16000 1.040
76.18000 3.402
76.20000 4.367
76.22000 2.299
76.24000 2.682
76.26000 2.682
76.28000 3.316
76.30000 3.259
76.32000 3.260
76.34000 1.669
76.36000 6.591
76.38000 4.561
76.40000 1.773
76.42000 3.107
76.44000 1.968
76.46000 -0.251
76.48000 0.486
76.50000 2.017
76.52000 5.604
76.54000 4.993
76.56000 3.366
76.58000 2.951
76.60000 1.769
76.62000 1.338
76.64000 -0.447
76.66000 -1.299
76.68000 -0.713
76.70000 -0.122
76.72000 3.015
76.74000 0.099
76.76000 -2.028
76.78000 0.115
76.80000 -0.286
76.82000 0.626
76.84000 2.383
76.86000 2.926
76.88000 1.280
76.90000 0.708
76.92000 -1.404
76.94000 -0.027
76.96000 1.818
76.98000 0.246
77.00000 2.249
77.02000 3.182
77.04000 1.442
77.06000 1.547
77.08000 1.723
77.10000 3.168
77.12000 3.231
77.14000 2.817
77.16000 6.216
77.18000 5.811
77.20000 1.024
77.22000 2.555
77.24000 1.281
77.26000 -0.034
77.28000 1.019
77.30000 0.954
77.32000 1.247
77.34000 4.183
77.36000 2.884
77.38000 2.084
77.40000 2.734
77.42000 4.311
77.44000 3.772
77.46000 5.163
77.48000 3.602
77.50000 2.001
77.52000 2.358
77.54000 3.274
77.56000 5.630
77.58000 5.288
77.60000 3.974
77.62000 2.870
77.64000 -2.024
77.66000 1.408
77.68000 2.087
77.70000 3.450
77.72000 3.293
77.74000 2.614
77.76000 1.678
77.78000 1.330
77.80000 2.813
77.82000 4.037
77.84000 2.570
77.86000 0.039
77.88000 3.147
77.90000 2.914
77.92000 3.802
77.94000 3.023
77.96000 2.067
77.98000 -1.625
78.00000 -0.532
78.02000 1.907
78.04000 3.047
78.06000 5.924
78.08000 4.164
78.10000 1.056
78.12000 2.364
78.14000 1.954
78.16000 3.605
78.18000 2.998
78.20000 4.179
78.22000 6.580
78.24000 2.837
78.26000 4.948
78.28000 3.847
78.30000 2.218
78.32000 2.264
78.34000 2.765
78.36000 2.928
78.38000 3.411
78.40000 1.206
78.42000 -2.080
78.44000 -0.291
78.46000 4.143
78.48000 2.477
78.50000 1.269
78.52000 2.994
78.54000 2.548
78.56000 5.332
78.58000 2.999
78.60000 3.333
78.62000 3.316
78.64000 2.400
78.66000 3.440
78.68000 5.576
78.70000 4.348
78.72000 0.509
78.74000 -1.030
78.76000 0.681
78.78000 2.564
78.80000 4.375
78.82000 4.130
78.84000 0.652
78.86000 3.717
78.88000 2.095
78.90000 3.211
78.92000 3.937
78.94000 1.310
78.96000 0.288
78.98000 -0.049
79.00000 2.308
79.02000 2.145
79.04000 2.293
79.06000 -0.135
79.08000 2.496
79.10000 1.359
79.12000 0.373
79.14000 1.145
79.16000 4.257
79.18000 4.681
79.20000 3.858
79.22000 7.313
79.24000 4.878
79.26000 3.482
79.28000 1.966
79.30000 -2.189
79.32000 2.299
79.34000 5.839
79.36000 4.745
79.38000 1.712
79.40000 1.069
79.42000 1.103
79.44000 2.475
79.46000 4.436
79.48000 4.516
79.50000 2.167
79.52000 4.698
79.54000 5.550
79.56000 2.306
79.58000 3.714
79.60000 6.609
79.62000 5.930
79.64000 7.234
79.66000 5.909
79.68000 9.153
79.70000 9.459
79.72000 6.026
79.74000 5.727
79.76000 6.773
79.78000 9.497
79.80000 9.269
79.82000 8.036
79.84000 7.533
79.86000 9.797
79.88000 11.656
79.90000 12.959
79.92000 13.115
79.94000 15.196
79.96000 13.293
79.98000 15.290
80.00000 15.140
80.02000 16.120
80.04000 14.316
80.06000 13.189
80.08000 10.993
80.10000 14.675
80.12000 15.251
80.14000 11.200
80.16000 11.235
80.18000 19.503
80.20000 22.619
80.22000 18.237
80.24000 21.061
80.26000 20.397
80.28000 19.648
80.30000 20.271
80.32000 15.615
80.34000 14.313
80.36000 13.596
80.38000 19.901
80.40000 22.409
80.42000 16.494
80.44000 12.017
80.46000 11.325
80.48000 14.173
80.50000 18.479
80.52000 19.295
80.54000 12.946
80.56000 11.245
80.58000 15.680
80.60000 16.665
80.62000 16.947
80.64000 15.822
80.66000 12.169
80.68000 14.090
80.70000 16.637
80.72000 14.727
80.74000 13.732
80.76000 17.046
80.78000 10.284
80.80000 9.064
80.82000 12.701
80.84000 12.229
80.86000 11.278
80.88000 9.741
80.90000 12.756
80.92000 12.642
80.94000 10.767
80.96000 7.820
80.98000 7.884
81.00000 8.081
81.02000 9.479
81.04000 7.376
81.06000 4.897
81.08000 5.588
81.10000 8.960
81.12000 9.243
81.14000 5.058
81.16000 6.504
81.18000 8.554
81.20000 8.089
81.22000 4.254
81.24000 3.484
81.26000 5.834
81.28000 3.486
81.30000 0.180
81.32000 0.685
81.34000 3.444
81.36000 1.408
81.38000 4.741
81.40000 4.340
81.42000 -0.328
81.44000 -2.264
81.46000 -1.208
81.48000 1.692
81.50000 2.977
81.52000 0.382
81.54000 0.377
81.56000 1.769
81.58000 0.683
81.60000 2.294
81.62000 -0.262
81.64000 -2.255
81.66000 -1.475
81.68000 2.741
81.70000 1.831
81.72000 1.793
81.74000 0.173
81.76000 -0.687
81.78000 -1.263
81.80000 2.167
81.82000 1.848
81.84000 2.603
81.86000 -1.225
81.88000 -0.455
81.90000 4.369
81.92000 1.902
81.94000 1.412
81.96000 1.342
81.98000 0.833
82.00000 2.989
82.02000 3.374
82.04000 1.087
82.06000 2.372
82.08000 0.882
82.10000 1.020
82.12000 0.497
82.14000 2.237
82.16000 -0.215
82.18000 2.918
82.20000 -1.070
82.22000 -2.230
82.24000 -0.956
82.26000 -0.678
82.28000 2.922
82.30000 3.588
82.32000 4.574
82.34000 2.039
82.36000 4.189
82.38000 3.100
82.40000 1.831
82.42000 3.938
82.44000 3.618
82.46000 4.155
82.48000 0.826
82.50000 4.043
82.52000 6.249
82.54000 1.239
82.56000 1.325
82.58000 2.216
82.60000 1.721
82.62000 6.414
82.64000 5.963
82.66000 3.290
82.68000 0.755
82.70000 2.317
82.72000 3.163
82.74000 2.975
82.76000 3.414
82.78000 6.138
82.80000 3.982
82.82000 3.353
82.84000 2.309
82.86000 3.833
82.88000 1.777
82.90000 2.943
82.92000 4.377
82.94000 2.518
82.96000 2.204
82.98000 0.479
83.00000 2.183
83.02000 2.371
83.04000 5.029
83.06000 6.379
83.08000 6.228
83.10000 6.650
83.12000 4.599
83.14000 5.193
83.16000 3.147
83.18000 3.834
83.20000 2.121
83.22000 6.015
83.24000 6.812
83.26000 7.669
83.28000 4.589
83.30000 3.009
83.32000 8.192
83.34000 9.976
83.36000 10.172
83.38000 9.957
83.40000 9.556
83.42000 13.662
83.44000 14.220
83.46000 12.856
83.48000 16.671
83.50000 15.911
83.52000 16.552
83.54000 14.096
83.56000 15.931
83.58000 19.022
83.60000 16.161
83.62000 16.787
83.64000 20.085
83.66000 25.780
83.68000 28.039
83.70000 24.419
83.72000 25.500
83.74000 26.570
83.76000 23.430
83.78000 29.778
83.80000 31.302
83.82000 32.161
83.84000 33.613
83.86000 32.621
83.88000 33.408
83.90000 36.033
83.92000 34.101
83.94000 36.364
83.96000 32.989
83.98000 35.607
84.00000 36.226
84.02000 34.238
84.04000 37.199
84.06000 42.820
84.08000 43.834
84.10000 42.933
84.12000 41.913
84.14000 44.264
84.16000 45.498
84.18000 49.546
84.20000 51.231
84.22000 45.415
84.24000 45.465
84.26000 45.586
84.28000 48.516
84.30000 45.821
84.32000 51.680
84.34000 53.557
84.36000 54.084
84.38000 51.117
84.40000 46.873
84.42000 45.991
84.44000 44.913
84.46000 43.372
84.48000 42.654
84.50000 41.990
84.52000 40.500
84.54000 42.828
84.56000 44.722
84.58000 43.677
84.60000 39.447
84.62000 37.225
84.64000 37.172
84.66000 32.600
84.68000 32.064
84.70000 32.137
84.72000 34.160
84.74000 34.608
84.76000 34.533
84.78000 28.294
84.80000 26.800
84.82000 28.331
84.84000 29.991
84.86000 27.643
84.88000 26.165
84.90000 25.724
84.92000 25.538
84.94000 18.928
84.96000 20.596
84.98000 23.847
85.00000 25.483
85.02000 19.466
85.04000 12.746
85.06000 15.975
85.08000 18.127
85.10000 16.750
85.12000 13.513
85.14000 12.717
85.16000 9.188
85.18000 6.995
85.20000 10.357
85.22000 9.842
85.24000 9.761
85.26000 13.744
85.28000 13.128
85.30000 9.456
85.32000 9.800
85.34000 8.796
85.36000 6.217
85.38000 4.249
85.40000 4.689
85.42000 6.130
85.44000 6.646
85.46000 5.204
85.48000 3.670
85.50000 3.340
85.52000 1.880
85.54000 0.168
85.56000 3.690
85.58000 2.689
85.60000 0.648
85.62000 -1.792
85.64000 0.295
85.66000 3.756
85.68000 1.191
85.70000 0.728
85.72000 -2.094
85.74000 2.455
85.76000 2.277
85.78000 5.043
85.80000 1.989
85.82000 1.121
85.84000 -0.791
85.86000 -1.016
85.88000 0.807
85.90000 1.346
85.92000 2.179
85.94000 1.236
85.96000 1.575
85.98000 4.013
86.00000 0.537
86.02000 -0.421
86.04000 -0.890
86.06000 1.195
86.08000 4.897
86.10000 4.345
86.12000 2.510
86.14000 0.317
86.16000 -1.050
86.18000 -0.833
86.20000 1.295
86.22000 0.732
86.24000 1.509
86.26000 2.215
86.28000 3.626
86.30000 3.394
86.32000 4.135
86.34000 -0.209
86.36000 -0.930
86.38000 -1.980
86.40000 -1.291
86.42000 0.536
86.44000 0.614
86.46000 0.524
86.48000 0.916
86.50000 2.639
86.52000 -0.268
86.54000 2.737
86.56000 2.793
86.58000 1.910
86.60000 0.882
86.62000 0.080
86.64000 3.856
86.66000 4.605
86.68000 3.440
86.70000 2.187
86.72000 1.456
86.74000 -0.048
86.76000 0.011
86.78000 5.150
86.80000 4.178
86.82000 3.303
86.84000 4.022
86.86000 1.375
86.88000 -1.940
86.90000 -0.372
86.92000 0.204
86.94000 1.951
86.96000 3.889
86.98000 4.141
87.00000 1.375
87.02000 0.428
87.04000 0.028
87.06000 1.382
87.08000 2.524
87.10000 0.810
87.12000 -0.868
87.14000 0.235
87.16000 -0.575
87.18000 0.338
87.20000 4.169
87.22000 4.491
87.24000 4.285
87.26000 3.957
87.28000 1.145
87.30000 0.756
87.32000 0.622
87.34000 1.924
87.36000 1.947
87.38000 2.510
87.40000 3.064
87.42000 3.464
87.44000 2.091
87.46000 2.659
87.48000 4.289
87.50000 3.751
87.52000 -0.277
87.54000 -1.937
87.56000 1.701
87.58000 4.806
87.60000 2.628
87.62000 1.696
87.64000 -0.706
87.66000 0.769
87.68000 0.820
87.70000 3.000
87.72000 4.408
87.74000 0.789
87.76000 0.727
87.78000 2.599
87.80000 -1.928
87.82000 0.430
87.84000 -0.725
87.86000 1.151
87.88000 2.081
87.90000 1.546
87.92000 -0.503
87.94000 0.329
87.96000 2.863
87.98000 0.228
88.00000 0.973
88.02000 0.008
88.04000 1.031
88.06000 0.346
88.08000 0.045
88.10000 0.790
88.12000 2.608
88.14000 0.324
88.16000 3.196
88.18000 2.684
88.20000 -1.909
88.22000 -1.463
88.24000 -0.601
88.26000 -0.302
88.28000 2.088
88.30000 0.321
88.32000 1.264
88.34000 0.770
88.36000 2.202
88.38000 0.159
88.40000 -1.899
88.42000 0.570
88.44000 1.860
88.46000 0.747
88.48000 4.363
88.50000 4.707
88.52000 4.069
88.54000 0.594
88.56000 -0.294
88.58000 2.897
88.60000 3.151
88.62000 0.932
88.64000 1.153
88.66000 -0.697
88.68000 -0.036
88.70000 2.131
88.72000 4.358
88.74000 4.899
88.76000 3.643
88.78000 2.149
88.80000 -0.191
88.82000 2.298
88.84000 2.049
88.86000 4.506
88.88000 0.310
88.90000 3.135
88.92000 -1.883
88.94000 0.988
88.96000 1.725
88.98000 -0.373
89.00000 0.403
89.02000 -0.059
89.04000 -0.531
89.06000 0.266
89.08000 0.713
89.10000 -1.889
89.12000 0.838
89.14000 -1.716
89.16000 0.002
89.18000 -0.447
89.20000 1.940
89.22000 3.103
89.24000 3.365
89.26000 1.605
89.28000 0.843
89.30000 -1.530
89.32000 2.570
89.34000 3.485
89.36000 4.358
89.38000 1.426
89.40000 3.331
89.42000 3.162
89.44000 0.290
89.46000 -1.493
89.48000 -1.855
89.50000 0.510
89.52000 0.828
89.54000 0.119
89.56000 1.656
89.58000 -0.113
89.60000 3.237
89.62000 1.973
89.64000 0.147
89.66000 -0.398
89.68000 -1.889
89.70000 1.362
89.72000 2.614
89.74000 2.030
89.76000 1.803
89.78000 0.644
89.80000 0.446
89.82000 2.937
89.84000 -0.628
89.86000 2.819
89.88000 0.058
89.90000 1.006
89.92000 0.994
89.94000 1.444
89.96000 -0.194
89.98000 1.896
90.00000 3.119
90.02000 2.892
90.04000 3.299
90.06000 0.661
90.08000 3.058
90.10000 0.668
90.12000 2.442
90.14000 1.485
90.16000 -1.893
90.18000 1.915
90.20000 2.086
90.22000 2.763
90.24000 2.236
90.26000 0.115
90.28000 -0.400
90.30000 -0.699
90.32000 -1.080
90.34000 -0.751
90.36000 -0.468
90.38000 3.164
90.40000 2.783
90.42000 2.751
90.44000 4.122
90.46000 2.541
90.48000 0.611
90.50000 3.258
90.52000 2.804
90.54000 2.765
90.56000 5.600
90.58000 3.398
90.60000 -1.083
90.62000 -0.587
90.64000 0.899
90.66000 0.573
90.68000 2.333
90.70000 2.752
90.72000 0.398
90.74000 -0.265
90.76000 2.480
90.78000 2.153
90.80000 1.187
90.82000 0.749
90.84000 4.195
90.86000 4.628
90.88000 2.089
90.90000 1.087
90.92000 0.731
90.94000 -0.216
90.96000 -1.186
90.98000 -1.863
91.00000 -0.689
91.02000 1.064
91.04000 2.699
91.06000 3.233
91.08000 1.084
91.10000 2.371
91.12000 1.531
91.14000 3.321
91.16000 4.648
91.18000 1.860
91.20000 2.379
91.22000 3.452
91.24000 3.589
91.26000 -0.093
91.28000 -1.746
91.30000 0.920
91.32000 3.106
91.34000 1.055
91.36000 4.710
91.38000 4.107
91.40000 1.962
91.42000 1.766
91.44000 2.725
91.46000 3.449
91.48000 5.962
91.50000 4.101
91.52000 0.756
91.54000 2.802
91.56000 3.533
91.58000 0.231
91.60000 2.745
91.62000 4.885
91.64000 2.973
91.66000 4.647
91.68000 1.866
91.70000 0.494
91.72000 -0.828
91.74000 0.551
91.76000 2.574
91.78000 2.307
91.80000 2.584
91.82000 1.559
91.84000 1.847
91.86000 -1.875
91.88000 4.030
91.90000 3.153
91.92000 1.250
91.94000 1.080
91.96000 0.970
91.98000 1.654
92.00000 8.324
92.02000 7.040
92.04000 3.776
92.06000 1.816
92.08000 0.432
92.10000 2.554
92.12000 3.803
92.14000 1.882
92.16000 4.594
92.18000 2.323
92.20000 2.341
92.22000 0.973
92.24000 1.889
92.26000 2.898
92.28000 1.270
92.30000 1.670
92.32000 3.266
92.34000 3.575
92.36000 5.773
92.38000 5.561
92.40000 4.437
92.42000 4.813
92.44000 5.757
92.46000 5.289
92.48000 4.592
92.50000 2.249
92.52000 0.400
92.54000 0.292
92.56000 -1.865
92.58000 1.678
92.60000 4.181
92.62000 5.073
92.64000 6.216
92.66000 3.987
92.68000 3.958
92.70000 5.801
92.72000 5.785
92.74000 4.131
92.76000 2.005
92.78000 4.576
92.80000 2.147
92.82000 1.891
92.84000 3.988
92.86000 2.375
92.88000 2.045
92.90000 0.392
92.92000 0.996
92.94000 0.775
92.96000 0.611
92.98000 -0.644
93.00000 -0.057
93.02000 0.751
93.04000 5.177
93.06000 7.758
93.08000 6.036
93.10000 0.261
93.12000 -0.485
93.14000 1.042
93.16000 0.434
93.18000 1.319
93.20000 4.079
93.22000 1.237
93.24000 1.992
93.26000 3.499
93.28000 2.765
93.30000 3.071
93.32000 5.731
93.34000 4.191
93.36000 3.166
93.38000 2.653
93.40000 2.716
93.42000 0.174
93.44000 0.963
93.46000 1.569
93.48000 4.155
93.50000 1.137
93.52000 -1.277
93.54000 3.163
93.56000 3.629
93.58000 3.137
93.60000 0.927
93.62000 0.534
93.64000 1.110
93.66000 1.761
93.68000 0.935
93.70000 3.247
93.72000 5.733
93.74000 4.179
93.76000 0.041
93.78000 1.804
93.80000 3.137
93.82000 5.989
93.84000 3.630
93.86000 0.521
93.88000 5.205
93.90000 5.544
93.92000 1.679
93.94000 4.594
93.96000 2.816
93.98000 2.063
94.00000 3.003
94.02000 5.549
94.04000 0.665
94.06000 4.362
94.08000 6.321
94.10000 -1.277
94.12000 -1.865
94.14000 3.736
94.16000 2.515
94.18000 -0.742
94.20000 0.200
94.22000 3.686
94.24000 4.670
94.26000 0.969
94.28000 1.877
94.30000 -1.261
94.32000 4.237
94.34000 3.002
94.36000 0.612
94.38000 3.653
94.40000 4.012
94.42000 4.177
94.44000 0.076
94.46000 2.286
94.48000 2.830
94.50000 4.817
94.52000 1.700
94.54000 -0.031
94.56000 -0.004
94.58000 -0.891
94.60000 3.429
94.62000 4.867
94.64000 2.079
94.66000 5.258
94.68000 5.843
94.70000 -1.038
94.72000 1.468
94.74000 2.107
94.76000 0.922
94.78000 2.068
94.80000 6.683
94.82000 3.429
94.84000 3.140
94.86000 4.258
94.88000 2.573
94.90000 2.716
94.92000 3.765
94.94000 1.080
94.96000 1.187
94.98000 -1.093
95.00000 0.191
95.02000 1.310
95.04000 -1.474
95.06000 2.676
95.08000 1.936
95.10000 3.862
95.12000 2.346
95.14000 4.958
95.16000 3.264
95.18000 2.245
95.20000 1.380
95.22000 4.781
95.24000 2.795
95.26000 -1.083
95.28000 3.448
95.30000 3.585
95.32000 -0.523
95.34000 1.813
95.36000 4.882
95.38000 6.255
95.40000 3.367
95.42000 -1.427
95.44000 -1.540
95.46000 -1.733
95.48000 -0.295
95.50000 0.727
95.52000 3.249
95.54000 3.126
95.56000 2.736
95.58000 1.586
95.60000 3.923
95.62000 4.020
95.64000 3.067
95.66000 0.478
95.68000 -0.398
95.70000 2.317
95.72000 4.831
95.74000 4.319
95.76000 4.681
95.78000 6.898
95.80000 2.608
95.82000 4.301
95.84000 3.112
95.86000 3.872
95.88000 1.299
95.90000 1.467
95.92000 1.298
95.94000 3.916
95.96000 2.933
95.98000 3.746
96.00000 3.387
96.02000 3.267
96.04000 1.404
96.06000 5.316
96.08000 9.787
96.10000 5.957
96.12000 5.897
96.14000 1.641
96.16000 -1.853
96.18000 3.503
96.20000 8.903
96.22000 4.543
96.24000 5.037
96.26000 1.801
96.28000 -1.659
96.30000 2.931
96.32000 5.748
96.34000 3.571
96.36000 5.292
96.38000 2.401
96.40000 3.394
96.42000 6.093
96.44000 4.173
96.46000 3.291
96.48000 3.206
96.50000 5.235
96.52000 3.917
96.54000 3.939
96.56000 0.934
96.58000 3.741
96.60000 1.546
96.62000 1.318
96.64000 -0.007
96.66000 -0.443
96.68000 3.100
96.70000 4.015
96.72000 1.545
96.74000 -0.094
96.76000 4.953
96.78000 4.659
96.80000 2.325
96.82000 2.855
96.84000 0.764
96.86000 3.251
96.88000 4.594
96.90000 0.108
96.92000 1.233
96.94000 3.741
96.96000 3.978
96.98000 7.596
97.00000 0.197
97.02000 -0.051
97.04000 0.927
97.06000 0.237
97.08000 2.403
97.10000 0.928
97.12000 3.475
97.14000 1.781
97.16000 1.950
97.18000 1.807
97.20000 -1.670
97.22000 -0.270
97.24000 3.036
97.26000 1.164
97.28000 1.067
97.30000 2.009
97.32000 5.998
97.34000 3.448
97.36000 4.023
97.38000 6.063
97.40000 3.595
97.42000 5.692
97.44000 5.089
97.46000 0.508
97.48000 1.938
97.50000 1.844
97.52000 0.838
97.54000 -0.470
97.56000 1.065
97.58000 5.376
97.60000 1.063
97.62000 1.056
97.64000 -0.811
97.66000 0.361
97.68000 0.302
97.70000 7.382
97.72000 4.723
97.74000 4.462
97.76000 6.225
97.78000 4.975
97.80000 2.426
97.82000 -1.879
97.84000 3.401
97.86000 4.968
97.88000 4.875
97.90000 3.505
97.92000 1.707
97.94000 1.989
97.96000 1.816
97.98000 2.855
98.00000 0.040
98.02000 3.145
98.04000 1.477
98.06000 -0.784
98.08000 -1.259
98.10000 -0.549
98.12000 2.218
98.14000 2.605
98.16000 6.754
98.18000 11.835
98.20000 6.849
98.22000 0.958
98.24000 -1.024
98.26000 3.391
98.28000 0.619
98.30000 6.048
98.32000 9.932
98.34000 9.510
98.36000 5.679
98.38000 2.639
98.40000 0.551
98.42000 -1.857
98.44000 -0.508
98.46000 0.105
98.48000 3.379
98.50000 2.379
98.52000 0.456
98.54000 3.323
98.56000 6.356
98.58000 10.444
98.60000 4.964
98.62000 1.614
98.64000 1.363
98.66000 2.069
98.68000 4.205
98.70000 6.546
98.72000 4.194
98.74000 6.325
98.76000 6.910
98.78000 9.684
98.80000 8.009
98.82000 4.624
98.84000 1.801
98.86000 -1.559
98.88000 9.881
98.90000 6.871
98.92000 2.849
98.94000 9.237
98.96000 16.514
98.98000 5.193
99.00000 8.486
99.02000 1.646
99.04000 2.491
99.06000 2.359
99.08000 0.587
99.10000 -1.181
99.12000 -0.764
99.14000 5.886
99.16000 7.104
99.18000 5.162
99.20000 8.079
99.22000 11.616
99.24000 8.971
99.26000 1.546
99.28000 3.599
99.30000 9.017
99.32000 8.451
99.34000 4.658
99.36000 11.653
99.38000 8.218
99.40000 0.840
99.42000 2.363
99.44000 7.043
99.46000 8.337
99.48000 7.125
99.50000 6.906
99.52000 13.023
99.54000 5.403
99.56000 -1.760
99.58000 1.546
99.60000 2.174
99.62000 6.967
99.64000 9.448
99.66000 7.593
99.68000 5.984
99.70000 4.289
99.72000 3.726
99.74000 -1.801
99.76000 -0.489
99.78000 8.540
99.80000 3.807
99.82000 6.576
99.84000 5.174
99.86000 -1.872
99.88000 2.196
99.90000 -1.240
99.92000 4.806
99.94000 2.084
99.96000 1.163
99.98000 0.000
