'Id: "0011387" Comment: "Integrate frame 0011387_Au-Ir-Rh_Rh-rich_XRD-Mapping-110-0000.gfrmwith cursor Wedge Cursor #5" Operator: "B?rgel" Anode: "Cu" Wavelength: "1.5406" Scantype: "2Theta (TwoTheta)" TimePerStep: "1" X: "27" Y: "-13.5" Z: "5.95" 
10.00000 0.000
10.02000 2.842
10.04000 5.268
10.06000 -3.550
10.08000 0.518
10.10000 8.887
10.12000 8.266
10.14000 4.993
10.16000 17.238
10.18000 8.704
10.20000 -3.556
10.22000 4.373
10.24000 10.397
10.26000 9.675
10.28000 10.626
10.30000 14.830
10.32000 21.888
10.34000 6.800
10.36000 25.615
10.38000 12.540
10.40000 15.479
10.42000 15.680
10.44000 14.440
10.46000 3.988
10.48000 12.665
10.50000 24.048
10.52000 4.552
10.54000 -0.473
10.56000 0.043
10.58000 10.132
10.60000 20.327
10.62000 22.703
10.64000 12.366
10.66000 10.610
10.68000 17.811
10.70000 19.995
10.72000 15.801
10.74000 18.977
10.76000 13.766
10.78000 19.565
10.80000 20.774
10.82000 19.615
10.84000 24.229
10.86000 24.610
10.88000 28.672
10.90000 23.700
10.92000 14.724
10.94000 14.273
10.96000 12.705
10.98000 3.634
11.00000 18.364
11.02000 14.249
11.04000 15.643
11.06000 10.450
11.08000 29.063
11.10000 21.967
11.12000 15.659
11.14000 9.298
11.16000 3.540
11.18000 11.432
11.20000 19.788
11.22000 16.502
11.24000 25.823
11.26000 24.622
11.28000 21.664
11.30000 17.280
11.32000 36.374
11.34000 33.371
11.36000 25.810
11.38000 9.994
11.40000 21.597
11.42000 23.814
11.44000 15.546
11.46000 13.407
11.48000 16.821
11.50000 21.862
11.52000 24.345
11.54000 20.895
11.56000 27.318
11.58000 29.064
11.60000 18.799
11.62000 23.332
11.64000 28.826
11.66000 26.477
11.68000 26.512
11.70000 25.379
11.72000 20.884
11.74000 19.062
11.76000 9.490
11.78000 21.647
11.80000 24.613
11.82000 23.449
11.84000 29.781
11.86000 25.915
11.88000 30.759
11.90000 34.156
11.92000 32.057
11.94000 26.515
11.96000 25.131
11.98000 23.623
12.00000 15.776
12.02000 15.820
12.04000 19.708
12.06000 30.025
12.08000 38.091
12.10000 29.409
12.12000 24.598
12.14000 22.674
12.16000 25.418
12.18000 22.562
12.20000 20.404
12.22000 19.560
12.24000 22.413
12.26000 27.323
12.28000 24.408
12.30000 35.460
12.32000 25.404
12.34000 17.345
12.36000 28.591
12.38000 23.664
12.40000 32.935
12.42000 27.546
12.44000 27.097
12.46000 33.456
12.48000 29.507
12.50000 31.674
12.52000 37.222
12.54000 29.265
12.56000 11.976
12.58000 13.854
12.60000 20.156
12.62000 27.547
12.64000 23.551
12.66000 24.445
12.68000 34.233
12.70000 24.990
12.72000 20.930
12.74000 36.400
12.76000 31.511
12.78000 31.916
12.80000 22.464
12.82000 31.792
12.84000 45.421
12.86000 37.421
12.88000 29.685
12.90000 30.838
12.92000 27.222
12.94000 10.152
12.96000 13.350
12.98000 16.385
13.00000 27.882
13.02000 27.862
13.04000 33.537
13.06000 30.463
13.08000 19.058
13.10000 29.036
13.12000 30.292
13.14000 34.392
13.16000 37.675
13.18000 31.317
13.20000 27.537
13.22000 20.930
13.24000 22.009
13.26000 29.679
13.28000 18.284
13.30000 27.606
13.32000 30.118
13.34000 29.664
13.36000 31.187
13.38000 31.890
13.40000 23.183
13.42000 24.827
13.44000 35.203
13.46000 27.013
13.48000 26.150
13.50000 37.267
13.52000 27.430
13.54000 27.503
13.56000 28.747
13.58000 26.890
13.60000 27.730
13.62000 29.882
13.64000 27.223
13.66000 22.719
13.68000 23.051
13.70000 26.164
13.72000 23.123
13.74000 17.524
13.76000 19.349
13.78000 30.568
13.80000 28.363
13.82000 25.135
13.84000 23.920
13.86000 20.612
13.88000 22.914
13.90000 27.179
13.92000 31.561
13.94000 27.721
13.96000 23.302
13.98000 21.138
14.00000 24.946
14.02000 20.324
14.04000 20.734
14.06000 16.890
14.08000 20.116
14.10000 24.575
14.12000 20.806
14.14000 18.024
14.16000 21.907
14.18000 19.555
14.20000 19.568
14.22000 24.598
14.24000 16.086
14.26000 22.545
14.28000 32.139
14.30000 25.716
14.32000 30.798
14.34000 17.698
14.36000 7.120
14.38000 15.519
14.40000 17.118
14.42000 17.315
14.44000 16.658
14.46000 13.573
14.48000 17.157
14.50000 14.969
14.52000 12.836
14.54000 22.656
14.56000 24.928
14.58000 12.994
14.60000 14.879
14.62000 24.614
14.64000 13.415
14.66000 13.214
14.68000 17.478
14.70000 25.574
14.72000 23.792
14.74000 21.984
14.76000 18.270
14.78000 14.061
14.80000 20.170
14.82000 23.783
14.84000 22.510
14.86000 14.579
14.88000 14.733
14.90000 8.542
14.92000 17.639
14.94000 27.611
14.96000 22.328
14.98000 14.486
15.00000 15.738
15.02000 15.393
15.04000 12.239
15.06000 6.430
15.08000 6.036
15.10000 5.387
15.12000 16.968
15.14000 16.265
15.16000 14.182
15.18000 9.675
15.20000 14.213
15.22000 17.466
15.24000 18.051
15.26000 14.849
15.28000 9.174
15.30000 8.751
15.32000 12.446
15.34000 18.537
15.36000 18.145
15.38000 20.217
15.40000 20.953
15.42000 14.705
15.44000 16.054
15.46000 22.911
15.48000 28.498
15.50000 21.111
15.52000 14.569
15.54000 14.453
15.56000 23.645
15.58000 18.548
15.60000 14.668
15.62000 24.149
15.64000 23.857
15.66000 19.915
15.68000 20.182
15.70000 10.737
15.72000 10.142
15.74000 8.978
15.76000 15.703
15.78000 14.342
15.80000 12.454
15.82000 8.513
15.84000 8.702
15.86000 7.456
15.88000 8.409
15.90000 5.578
15.92000 7.493
15.94000 5.197
15.96000 20.026
15.98000 16.818
16.00000 15.683
16.02000 11.926
16.04000 11.313
16.06000 5.552
16.08000 11.602
16.10000 13.925
16.12000 8.154
16.14000 15.064
16.16000 18.009
16.18000 4.818
16.20000 3.703
16.22000 5.728
16.24000 -3.894
16.26000 -4.074
16.28000 -0.648
16.30000 4.527
16.32000 10.675
16.34000 10.920
16.36000 13.953
16.38000 7.012
16.40000 8.033
16.42000 3.992
16.44000 9.864
16.46000 11.292
16.48000 17.370
16.50000 14.087
16.52000 15.298
16.54000 10.496
16.56000 17.225
16.58000 19.544
16.60000 2.019
16.62000 -1.565
16.64000 8.087
16.66000 13.106
16.68000 15.275
16.70000 17.232
16.72000 11.169
16.74000 6.224
16.76000 9.933
16.78000 8.308
16.80000 8.453
16.82000 14.097
16.84000 13.810
16.86000 8.787
16.88000 15.888
16.90000 25.693
16.92000 20.108
16.94000 7.395
16.96000 7.828
16.98000 11.490
17.00000 12.668
17.02000 9.489
17.04000 6.136
17.06000 4.286
17.08000 6.512
17.10000 7.629
17.12000 10.702
17.14000 4.890
17.16000 6.215
17.18000 15.916
17.20000 15.028
17.22000 4.641
17.24000 9.887
17.26000 10.474
17.28000 6.676
17.30000 10.801
17.32000 14.543
17.34000 8.397
17.36000 13.881
17.38000 14.196
17.40000 7.948
17.42000 13.735
17.44000 2.725
17.46000 -4.310
17.48000 2.467
17.50000 5.216
17.52000 3.782
17.54000 5.346
17.56000 3.435
17.58000 0.754
17.60000 7.417
17.62000 7.516
17.64000 3.950
17.66000 13.097
17.68000 14.459
17.70000 9.557
17.72000 3.433
17.74000 5.198
17.76000 8.385
17.78000 11.362
17.80000 6.272
17.82000 9.595
17.84000 11.315
17.86000 -0.172
17.88000 -2.059
17.90000 6.386
17.92000 8.365
17.94000 4.586
17.96000 2.270
17.98000 2.290
18.00000 7.447
18.02000 16.100
18.04000 8.080
18.06000 7.365
18.08000 7.987
18.10000 -2.826
18.12000 -4.285
18.14000 3.129
18.16000 10.148
18.18000 6.288
18.20000 -0.515
18.22000 2.185
18.24000 13.165
18.26000 18.937
18.28000 6.470
18.30000 5.821
18.32000 4.049
18.34000 9.246
18.36000 8.268
18.38000 9.850
18.40000 0.424
18.42000 -2.417
18.44000 6.359
18.46000 9.484
18.48000 5.685
18.50000 5.920
18.52000 6.479
18.54000 -0.905
18.56000 0.420
18.58000 0.141
18.60000 2.626
18.62000 2.474
18.64000 3.150
18.66000 0.185
18.68000 -2.011
18.70000 2.461
18.72000 3.939
18.74000 0.169
18.76000 4.702
18.78000 5.189
18.80000 1.340
18.82000 -2.811
18.84000 2.426
18.86000 12.775
18.88000 14.411
18.90000 9.251
18.92000 9.220
18.94000 11.631
18.96000 5.010
18.98000 11.211
19.00000 13.116
19.02000 6.523
19.04000 5.607
19.06000 5.026
19.08000 0.981
19.10000 1.313
19.12000 7.594
19.14000 10.338
19.16000 10.974
19.18000 8.963
19.20000 9.908
19.22000 11.020
19.24000 5.844
19.26000 6.461
19.28000 6.200
19.30000 10.459
19.32000 6.791
19.34000 7.794
19.36000 6.755
19.38000 5.641
19.40000 12.019
19.42000 7.487
19.44000 7.336
19.46000 10.709
19.48000 8.142
19.50000 4.753
19.52000 4.927
19.54000 6.753
19.56000 7.174
19.58000 10.814
19.60000 9.830
19.62000 9.853
19.64000 9.322
19.66000 11.389
19.68000 8.138
19.70000 9.295
19.72000 9.218
19.74000 11.061
19.76000 8.197
19.78000 5.769
19.80000 1.893
19.82000 3.823
19.84000 8.991
19.86000 8.885
19.88000 8.236
19.90000 7.633
19.92000 8.648
19.94000 -4.174
19.96000 -3.118
19.98000 2.479
20.00000 7.235
20.02000 12.592
20.04000 11.516
20.06000 5.107
20.08000 13.691
20.10000 18.400
20.12000 12.895
20.14000 7.560
20.16000 11.238
20.18000 9.689
20.20000 7.353
20.22000 9.713
20.24000 3.830
20.26000 6.736
20.28000 7.135
20.30000 10.150
20.32000 7.910
20.34000 6.639
20.36000 10.330
20.38000 11.278
20.40000 14.845
20.42000 7.876
20.44000 6.714
20.46000 7.599
20.48000 5.541
20.50000 3.289
20.52000 3.953
20.54000 7.151
20.56000 6.604
20.58000 2.295
20.60000 -0.300
20.62000 0.091
20.64000 3.744
20.66000 7.606
20.68000 11.694
20.70000 8.887
20.72000 1.104
20.74000 2.100
20.76000 7.563
20.78000 9.346
20.80000 5.175
20.82000 1.702
20.84000 5.048
20.86000 4.795
20.88000 5.314
20.90000 8.118
20.92000 8.059
20.94000 7.517
20.96000 8.951
20.98000 2.806
21.00000 6.375
21.02000 6.904
21.04000 6.127
21.06000 1.794
21.08000 4.844
21.10000 1.318
21.12000 7.189
21.14000 8.931
21.16000 7.639
21.18000 2.035
21.20000 5.514
21.22000 10.702
21.24000 6.040
21.26000 4.461
21.28000 5.959
21.30000 5.637
21.32000 4.291
21.34000 5.618
21.36000 7.859
21.38000 5.668
21.40000 5.792
21.42000 8.171
21.44000 3.824
21.46000 8.864
21.48000 5.653
21.50000 10.284
21.52000 4.834
21.54000 -1.400
21.56000 -0.445
21.58000 -2.141
21.60000 1.195
21.62000 4.090
21.64000 -4.109
21.66000 0.346
21.68000 3.662
21.70000 7.323
21.72000 7.136
21.74000 4.789
21.76000 0.963
21.78000 2.002
21.80000 5.570
21.82000 4.766
21.84000 -0.071
21.86000 5.322
21.88000 1.335
21.90000 -0.353
21.92000 6.330
21.94000 -3.424
21.96000 0.267
21.98000 3.848
22.00000 -0.409
22.02000 -1.535
22.04000 0.389
22.06000 5.516
22.08000 6.536
22.10000 3.225
22.12000 2.422
22.14000 2.808
22.16000 3.184
22.18000 2.607
22.20000 6.574
22.22000 2.216
22.24000 1.430
22.26000 2.712
22.28000 3.917
22.30000 0.224
22.32000 0.693
22.34000 -0.953
22.36000 -0.488
22.38000 2.264
22.40000 3.514
22.42000 0.425
22.44000 1.600
22.46000 2.932
22.48000 -1.183
22.50000 2.989
22.52000 5.346
22.54000 2.525
22.56000 7.716
22.58000 2.078
22.60000 3.141
22.62000 0.641
22.64000 3.760
22.66000 2.317
22.68000 -1.937
22.70000 1.480
22.72000 5.241
22.74000 6.758
22.76000 0.273
22.78000 -2.570
22.80000 1.539
22.82000 5.090
22.84000 1.647
22.86000 -4.071
22.88000 0.743
22.90000 -1.091
22.92000 -2.937
22.94000 4.867
22.96000 -0.627
22.98000 0.402
23.00000 2.438
23.02000 2.332
23.04000 4.985
23.06000 7.375
23.08000 9.076
23.10000 14.890
23.12000 -2.880
23.14000 -4.060
23.16000 4.833
23.18000 -0.119
23.20000 7.391
23.22000 12.142
23.24000 9.971
23.26000 1.097
23.28000 -1.753
23.30000 3.391
23.32000 9.056
23.34000 6.895
23.36000 -1.080
23.38000 -2.427
23.40000 -0.119
23.42000 -1.996
23.44000 3.699
23.46000 1.040
23.48000 -0.783
23.50000 0.863
23.52000 2.554
23.54000 5.997
23.56000 3.774
23.58000 -1.364
23.60000 1.525
23.62000 3.321
23.64000 2.978
23.66000 -3.244
23.68000 -4.029
23.70000 -1.336
23.72000 3.269
23.74000 2.901
23.76000 0.883
23.78000 -1.916
23.80000 -0.149
23.82000 1.025
23.84000 -0.127
23.86000 -2.862
23.88000 -2.650
23.90000 2.154
23.92000 -0.402
23.94000 0.662
23.96000 1.590
23.98000 -3.477
24.00000 -4.009
24.02000 -1.458
24.04000 0.037
24.06000 -1.097
24.08000 -2.703
24.10000 0.855
24.12000 3.156
24.14000 -0.309
24.16000 -2.190
24.18000 0.726
24.20000 -0.980
24.22000 0.136
24.24000 1.620
24.26000 4.284
24.28000 2.035
24.30000 2.563
24.32000 2.007
24.34000 2.198
24.36000 2.618
24.38000 1.151
24.40000 4.336
24.42000 1.461
24.44000 -0.300
24.46000 -3.797
24.48000 -3.178
24.50000 3.978
24.52000 7.646
24.54000 7.573
24.56000 9.205
24.58000 -0.321
24.60000 0.667
24.62000 9.350
24.64000 -0.021
24.66000 -1.241
24.68000 2.402
24.70000 3.039
24.72000 -1.279
24.74000 -3.925
24.76000 -1.110
24.78000 -1.757
24.80000 -0.881
24.82000 0.714
24.84000 -3.949
24.86000 0.075
24.88000 2.367
24.90000 2.584
24.92000 1.438
24.94000 6.201
24.96000 3.651
24.98000 0.950
25.00000 -1.084
25.02000 -1.723
25.04000 -0.826
25.06000 1.281
25.08000 4.112
25.10000 3.565
25.12000 4.983
25.14000 6.289
25.16000 4.718
25.18000 -0.961
25.20000 -3.930
25.22000 -3.404
25.24000 2.209
25.26000 3.013
25.28000 -0.265
25.30000 2.778
25.32000 0.704
25.34000 -3.226
25.36000 -0.926
25.38000 4.131
25.40000 6.861
25.42000 0.118
25.44000 0.153
25.46000 2.231
25.48000 1.693
25.50000 2.255
25.52000 5.217
25.54000 5.935
25.56000 1.348
25.58000 2.652
25.60000 2.291
25.62000 3.170
25.64000 4.370
25.66000 -0.811
25.68000 -3.084
25.70000 2.157
25.72000 5.110
25.74000 5.667
25.76000 1.974
25.78000 -0.448
25.80000 4.358
25.82000 2.003
25.84000 2.132
25.86000 1.808
25.88000 4.374
25.90000 4.519
25.92000 2.111
25.94000 -0.793
25.96000 3.959
25.98000 7.815
26.00000 5.424
26.02000 4.046
26.04000 0.308
26.06000 3.080
26.08000 2.482
26.10000 4.581
26.12000 0.003
26.14000 -1.847
26.16000 2.909
26.18000 2.946
26.20000 -3.868
26.22000 2.475
26.24000 4.431
26.26000 3.734
26.28000 4.507
26.30000 5.973
26.32000 3.856
26.34000 10.064
26.36000 6.799
26.38000 4.051
26.40000 3.333
26.42000 0.786
26.44000 0.432
26.46000 5.411
26.48000 5.796
26.50000 -0.487
26.52000 1.272
26.54000 -3.007
26.56000 -1.875
26.58000 -3.854
26.60000 2.642
26.62000 1.628
26.64000 -1.684
26.66000 1.110
26.68000 0.734
26.70000 -2.274
26.72000 -0.157
26.74000 1.904
26.76000 1.298
26.78000 -1.188
26.80000 -3.642
26.82000 -2.866
26.84000 5.631
26.86000 6.127
26.88000 2.783
26.90000 3.544
26.92000 1.248
26.94000 2.381
26.96000 -2.385
26.98000 1.576
27.00000 3.403
27.02000 -1.461
27.04000 1.688
27.06000 -0.464
27.08000 0.384
27.10000 0.042
27.12000 -3.525
27.14000 -3.775
27.16000 -0.041
27.18000 0.745
27.20000 4.983
27.22000 4.073
27.24000 5.097
27.26000 -0.126
27.28000 3.029
27.30000 6.185
27.32000 3.794
27.34000 4.915
27.36000 5.264
27.38000 3.863
27.40000 1.724
27.42000 0.476
27.44000 -1.311
27.46000 1.694
27.48000 3.159
27.50000 5.738
27.52000 3.163
27.54000 2.132
27.56000 4.445
27.58000 2.941
27.60000 4.851
27.62000 1.895
27.64000 0.855
27.66000 -3.801
27.68000 -1.892
27.70000 2.330
27.72000 2.648
27.74000 5.523
27.76000 4.904
27.78000 4.709
27.80000 2.965
27.82000 -2.035
27.84000 1.553
27.86000 4.127
27.88000 5.200
27.90000 9.412
27.92000 5.065
27.94000 4.750
27.96000 0.562
27.98000 1.029
28.00000 -0.415
28.02000 3.626
28.04000 6.946
28.06000 1.604
28.08000 0.497
28.10000 -1.396
28.12000 1.146
28.14000 2.062
28.16000 -0.073
28.18000 2.732
28.20000 4.805
28.22000 1.961
28.24000 5.146
28.26000 0.142
28.28000 1.675
28.30000 3.392
28.32000 0.124
28.34000 1.314
28.36000 1.304
28.38000 1.570
28.40000 -0.790
28.42000 -3.555
28.44000 -2.247
28.46000 -1.158
28.48000 -1.141
28.50000 3.454
28.52000 5.331
28.54000 0.492
28.56000 1.291
28.58000 5.602
28.60000 6.385
28.62000 6.236
28.64000 5.047
28.66000 5.783
28.68000 4.163
28.70000 5.890
28.72000 4.629
28.74000 6.903
28.76000 -1.079
28.78000 -3.697
28.80000 2.286
28.82000 8.816
28.84000 10.451
28.86000 4.021
28.88000 0.727
28.90000 -0.040
28.92000 1.001
28.94000 2.426
28.96000 1.138
28.98000 5.471
29.00000 4.478
29.02000 7.895
29.04000 11.382
29.06000 7.805
29.08000 2.004
29.10000 1.807
29.12000 -0.820
29.14000 -0.451
29.16000 3.805
29.18000 2.374
29.20000 1.252
29.22000 0.658
29.24000 0.518
29.26000 -0.324
29.28000 2.084
29.30000 6.059
29.32000 1.168
29.34000 0.571
29.36000 8.753
29.38000 10.691
29.40000 6.100
29.42000 1.596
29.44000 6.096
29.46000 3.871
29.48000 1.885
29.50000 7.446
29.52000 6.048
29.54000 3.497
29.56000 1.930
29.58000 -0.546
29.60000 -0.129
29.62000 0.833
29.64000 0.096
29.66000 4.080
29.68000 2.199
29.70000 7.043
29.72000 6.878
29.74000 2.245
29.76000 8.403
29.78000 2.389
29.80000 -0.033
29.82000 1.172
29.84000 4.663
29.86000 4.420
29.88000 5.076
29.90000 4.230
29.92000 0.447
29.94000 3.385
29.96000 4.630
29.98000 5.932
30.00000 8.138
30.02000 2.441
30.04000 1.884
30.06000 -1.611
30.08000 -1.994
30.10000 0.750
30.12000 8.989
30.14000 5.214
30.16000 0.680
30.18000 4.034
30.20000 4.451
30.22000 0.755
30.24000 3.202
30.26000 2.625
30.28000 -3.655
30.30000 -0.295
30.32000 0.152
30.34000 3.491
30.36000 3.646
30.38000 4.296
30.40000 1.001
30.42000 1.661
30.44000 3.289
30.46000 2.094
30.48000 -0.112
30.50000 -0.091
30.52000 3.424
30.54000 4.865
30.56000 1.784
30.58000 3.170
30.60000 2.834
30.62000 5.712
30.64000 6.753
30.66000 -0.865
30.68000 1.539
30.70000 2.319
30.72000 3.545
30.74000 1.813
30.76000 2.980
30.78000 1.621
30.80000 3.564
30.82000 9.115
30.84000 5.387
30.86000 4.110
30.88000 2.751
30.90000 2.915
30.92000 -0.661
30.94000 -1.200
30.96000 2.649
30.98000 -0.006
31.00000 -3.608
31.02000 -0.184
31.04000 5.194
31.06000 4.452
31.08000 5.434
31.10000 1.225
31.12000 5.384
31.14000 5.176
31.16000 1.806
31.18000 -1.194
31.20000 -2.012
31.22000 -2.439
31.24000 2.304
31.26000 -0.237
31.28000 0.534
31.30000 4.274
31.32000 4.995
31.34000 -0.453
31.36000 -3.587
31.38000 2.506
31.40000 0.598
31.42000 0.159
31.44000 3.065
31.46000 2.755
31.48000 5.050
31.50000 8.219
31.52000 3.207
31.54000 2.558
31.56000 8.826
31.58000 6.606
31.60000 4.209
31.62000 0.664
31.64000 4.509
31.66000 5.907
31.68000 5.698
31.70000 0.584
31.72000 3.089
31.74000 3.299
31.76000 2.957
31.78000 2.835
31.80000 -0.165
31.82000 -1.482
31.84000 2.512
31.86000 3.639
31.88000 2.388
31.90000 1.756
31.92000 -0.832
31.94000 0.965
31.96000 3.325
31.98000 1.673
32.00000 -0.707
32.02000 5.081
32.04000 -0.239
32.06000 0.556
32.08000 0.766
32.10000 -1.829
32.12000 1.238
32.14000 1.439
32.16000 7.518
32.18000 3.510
32.20000 0.140
32.22000 -0.717
32.24000 -3.244
32.26000 -0.349
32.28000 3.036
32.30000 1.064
32.32000 1.945
32.34000 5.685
32.36000 0.639
32.38000 0.113
32.40000 -0.578
32.42000 1.921
32.44000 2.138
32.46000 0.180
32.48000 1.252
32.50000 1.644
32.52000 0.840
32.54000 2.318
32.56000 6.737
32.58000 6.922
32.60000 6.257
32.62000 6.067
32.64000 5.504
32.66000 3.227
32.68000 3.319
32.70000 -0.948
32.72000 0.154
32.74000 6.854
32.76000 5.894
32.78000 3.820
32.80000 0.705
32.82000 -1.182
32.84000 -0.727
32.86000 0.358
32.88000 2.567
32.90000 1.933
32.92000 -1.231
32.94000 -3.552
32.96000 -1.953
32.98000 -1.670
33.00000 5.611
33.02000 2.943
33.04000 0.580
33.06000 5.136
33.08000 6.395
33.10000 2.824
33.12000 -1.477
33.14000 1.189
33.16000 4.829
33.18000 3.958
33.20000 1.471
33.22000 3.375
33.24000 4.226
33.26000 6.434
33.28000 0.346
33.30000 4.868
33.32000 5.237
33.34000 2.096
33.36000 1.907
33.38000 1.217
33.40000 0.456
33.42000 2.720
33.44000 3.588
33.46000 4.579
33.48000 3.206
33.50000 0.417
33.52000 -0.458
33.54000 0.110
33.56000 2.034
33.58000 3.140
33.60000 8.134
33.62000 3.849
33.64000 -1.497
33.66000 -2.183
33.68000 2.391
33.70000 3.827
33.72000 3.181
33.74000 -0.192
33.76000 -1.324
33.78000 6.115
33.80000 7.511
33.82000 1.631
33.84000 2.116
33.86000 2.161
33.88000 1.393
33.90000 1.956
33.92000 -1.019
33.94000 0.040
33.96000 2.351
33.98000 5.030
34.00000 10.393
34.02000 1.915
34.04000 -0.457
34.06000 4.603
34.08000 1.590
34.10000 1.184
34.12000 4.204
34.14000 1.547
34.16000 -0.260
34.18000 3.274
34.20000 9.000
34.22000 6.381
34.24000 -3.535
34.26000 1.737
34.28000 2.896
34.30000 5.651
34.32000 0.668
34.34000 0.297
34.36000 6.721
34.38000 3.140
34.40000 0.192
34.42000 2.271
34.44000 2.965
34.46000 -1.012
34.48000 2.377
34.50000 2.751
34.52000 1.155
34.54000 1.508
34.56000 1.396
34.58000 0.213
34.60000 3.258
34.62000 4.762
34.64000 3.447
34.66000 3.695
34.68000 -3.515
34.70000 -2.863
34.72000 0.158
34.74000 2.924
34.76000 2.373
34.78000 2.081
34.80000 -0.660
34.82000 -2.468
34.84000 4.357
34.86000 2.563
34.88000 6.110
34.90000 2.071
34.92000 5.435
34.94000 6.895
34.96000 1.612
34.98000 -1.207
35.00000 0.451
35.02000 1.923
35.04000 -0.709
35.06000 -0.307
35.08000 3.784
35.10000 0.388
35.12000 -0.805
35.14000 3.032
35.16000 2.183
35.18000 -0.796
35.20000 -2.024
35.22000 -1.962
35.24000 -0.747
35.26000 1.701
35.28000 0.427
35.30000 2.883
35.32000 6.191
35.34000 4.755
35.36000 3.741
35.38000 3.481
35.40000 3.460
35.42000 9.963
35.44000 9.318
35.46000 7.195
35.48000 4.196
35.50000 0.071
35.52000 2.453
35.54000 4.620
35.56000 2.982
35.58000 4.943
35.60000 3.364
35.62000 -0.454
35.64000 -3.450
35.66000 1.984
35.68000 6.595
35.70000 2.830
35.72000 2.992
35.74000 4.005
35.76000 6.132
35.78000 6.510
35.80000 7.042
35.82000 3.866
35.84000 5.000
35.86000 3.924
35.88000 4.552
35.90000 4.395
35.92000 4.427
35.94000 4.520
35.96000 3.291
35.98000 2.135
36.00000 6.041
36.02000 2.903
36.04000 -1.379
36.06000 0.977
36.08000 5.690
36.10000 8.319
36.12000 6.687
36.14000 3.424
36.16000 3.375
36.18000 1.064
36.20000 -0.195
36.22000 4.462
36.24000 -0.715
36.26000 0.304
36.28000 0.645
36.30000 1.551
36.32000 4.093
36.34000 4.665
36.36000 5.936
36.38000 2.880
36.40000 -2.944
36.42000 3.090
36.44000 1.240
36.46000 0.925
36.48000 -0.427
36.50000 -1.238
36.52000 -3.482
36.54000 -0.399
36.56000 2.286
36.58000 -0.103
36.60000 3.114
36.62000 2.292
36.64000 0.403
36.66000 5.226
36.68000 1.437
36.70000 1.146
36.72000 2.180
36.74000 1.362
36.76000 5.289
36.78000 3.142
36.80000 1.855
36.82000 5.770
36.84000 4.456
36.86000 0.443
36.88000 -3.487
36.90000 -3.490
36.92000 -0.388
36.94000 1.011
36.96000 1.144
36.98000 1.245
37.00000 2.312
37.02000 -0.507
37.04000 0.241
37.06000 -2.529
37.08000 -0.824
37.10000 -0.178
37.12000 -1.769
37.14000 1.080
37.16000 0.970
37.18000 3.148
37.20000 -0.977
37.22000 0.172
37.24000 0.661
37.26000 0.165
37.28000 -1.067
37.30000 1.494
37.32000 -3.543
37.34000 -2.976
37.36000 -1.430
37.38000 -0.015
37.40000 -2.498
37.42000 -1.756
37.44000 0.664
37.46000 0.887
37.48000 0.155
37.50000 -0.456
37.52000 -0.799
37.54000 -3.283
37.56000 0.013
37.58000 4.721
37.60000 2.781
37.62000 -0.804
37.64000 0.967
37.66000 5.334
37.68000 3.901
37.70000 -0.774
37.72000 -1.120
37.74000 0.685
37.76000 0.422
37.78000 3.023
37.80000 -0.798
37.82000 2.007
37.84000 5.275
37.86000 0.962
37.88000 2.317
37.90000 3.902
37.92000 5.277
37.94000 4.404
37.96000 0.687
37.98000 1.589
38.00000 5.000
38.02000 1.414
38.04000 1.269
38.06000 4.578
38.08000 4.946
38.10000 6.680
38.12000 4.887
38.14000 1.072
38.16000 2.647
38.18000 5.225
38.20000 5.558
38.22000 8.007
38.24000 8.365
38.26000 8.544
38.28000 8.627
38.30000 10.580
38.32000 12.037
38.34000 12.675
38.36000 9.470
38.38000 9.939
38.40000 11.595
38.42000 10.957
38.44000 13.018
38.46000 15.815
38.48000 15.063
38.50000 16.152
38.52000 16.006
38.54000 12.621
38.56000 16.770
38.58000 16.833
38.60000 18.719
38.62000 12.681
38.64000 11.360
38.66000 13.683
38.68000 14.403
38.70000 14.400
38.72000 13.570
38.74000 12.299
38.76000 13.882
38.78000 15.554
38.80000 19.873
38.82000 17.084
38.84000 14.960
38.86000 16.664
38.88000 17.662
38.90000 21.613
38.92000 24.755
38.94000 26.352
38.96000 24.181
38.98000 22.966
39.00000 20.610
39.02000 26.446
39.04000 32.290
39.06000 35.598
39.08000 33.646
39.10000 27.258
39.12000 26.980
39.14000 30.711
39.16000 34.983
39.18000 30.976
39.20000 38.410
39.22000 34.540
39.24000 39.012
39.26000 43.179
39.28000 43.242
39.30000 40.028
39.32000 37.407
39.34000 36.728
39.36000 39.178
39.38000 48.696
39.40000 51.599
39.42000 52.245
39.44000 58.354
39.46000 63.763
39.48000 61.350
39.50000 61.125
39.52000 66.542
39.54000 71.760
39.56000 73.859
39.58000 77.499
39.60000 82.421
39.62000 83.311
39.64000 90.577
39.66000 95.889
39.68000 101.259
39.70000 116.279
39.72000 124.877
39.74000 118.847
39.76000 124.270
39.78000 132.369
39.80000 139.585
39.82000 151.461
39.84000 159.881
39.86000 165.006
39.88000 175.713
39.90000 187.120
39.92000 196.524
39.94000 216.656
39.96000 228.435
39.98000 238.923
40.00000 248.687
40.02000 264.139
40.04000 278.649
40.06000 291.099
40.08000 316.016
40.10000 344.834
40.12000 360.274
40.14000 372.520
40.16000 394.268
40.18000 417.936
40.20000 446.961
40.22000 468.998
40.24000 494.205
40.26000 516.364
40.28000 543.100
40.30000 563.121
40.32000 582.625
40.34000 603.832
40.36000 615.600
40.38000 629.687
40.40000 653.535
40.42000 665.756
40.44000 688.300
40.46000 698.693
40.48000 702.300
40.50000 711.262
40.52000 707.521
40.54000 708.135
40.56000 706.472
40.58000 694.371
40.60000 689.833
40.62000 695.421
40.64000 679.206
40.66000 650.239
40.68000 638.813
40.70000 624.826
40.72000 615.587
40.74000 591.166
40.76000 574.112
40.78000 554.823
40.80000 542.194
40.82000 524.832
40.84000 499.164
40.86000 469.313
40.88000 451.426
40.90000 432.466
40.92000 416.202
40.94000 392.636
40.96000 374.397
40.98000 352.867
41.00000 332.580
41.02000 322.449
41.04000 306.554
41.06000 291.213
41.08000 270.453
41.10000 258.677
41.12000 249.374
41.14000 232.429
41.16000 223.010
41.18000 210.052
41.20000 197.181
41.22000 184.048
41.24000 174.435
41.26000 167.591
41.28000 152.431
41.30000 143.304
41.32000 139.939
41.34000 134.278
41.36000 127.497
41.38000 119.840
41.40000 113.077
41.42000 111.588
41.44000 109.900
41.46000 96.279
41.48000 93.416
41.50000 89.531
41.52000 84.843
41.54000 78.199
41.56000 76.524
41.58000 75.990
41.60000 72.489
41.62000 64.127
41.64000 60.539
41.66000 59.076
41.68000 57.659
41.70000 52.466
41.72000 54.959
41.74000 53.191
41.76000 48.494
41.78000 44.363
41.80000 41.750
41.82000 42.270
41.84000 40.676
41.86000 42.331
41.88000 33.941
41.90000 35.478
41.92000 32.199
41.94000 25.372
41.96000 25.418
41.98000 31.146
42.00000 28.493
42.02000 26.695
42.04000 24.053
42.06000 24.284
42.08000 23.105
42.10000 24.681
42.12000 24.756
42.14000 17.413
42.16000 18.792
42.18000 14.786
42.20000 17.815
42.22000 14.869
42.24000 16.418
42.26000 20.996
42.28000 18.318
42.30000 12.690
42.32000 13.263
42.34000 12.403
42.36000 12.554
42.38000 17.079
42.40000 10.301
42.42000 8.419
42.44000 6.956
42.46000 5.064
42.48000 3.274
42.50000 9.218
42.52000 13.567
42.54000 12.495
42.56000 11.406
42.58000 13.582
42.60000 9.507
42.62000 3.884
42.64000 -1.607
42.66000 4.459
42.68000 7.838
42.70000 6.479
42.72000 5.975
42.74000 4.915
42.76000 2.275
42.78000 4.855
42.80000 6.393
42.82000 5.713
42.84000 5.321
42.86000 3.257
42.88000 4.714
42.90000 1.691
42.92000 3.429
42.94000 3.745
42.96000 5.347
42.98000 1.137
43.00000 -0.671
43.02000 -0.704
43.04000 5.254
43.06000 5.065
43.08000 1.760
43.10000 0.691
43.12000 2.832
43.14000 -2.610
43.16000 -0.746
43.18000 -1.355
43.20000 3.035
43.22000 1.543
43.24000 2.180
43.26000 5.553
43.28000 0.073
43.30000 -2.356
43.32000 -0.209
43.34000 1.316
43.36000 1.554
43.38000 1.710
43.40000 2.630
43.42000 0.628
43.44000 2.882
43.46000 2.905
43.48000 6.237
43.50000 8.463
43.52000 2.731
43.54000 -2.880
43.56000 -0.161
43.58000 2.500
43.60000 1.664
43.62000 1.045
43.64000 2.358
43.66000 6.614
43.68000 8.312
43.70000 3.542
43.72000 2.281
43.74000 3.216
43.76000 -0.424
43.78000 -3.342
43.80000 -2.359
43.82000 1.324
43.84000 4.425
43.86000 4.106
43.88000 4.924
43.90000 5.346
43.92000 2.192
43.94000 2.281
43.96000 2.972
43.98000 4.721
44.00000 4.358
44.02000 4.606
44.04000 3.297
44.06000 2.147
44.08000 2.747
44.10000 4.361
44.12000 4.820
44.14000 3.520
44.16000 -0.533
44.18000 0.444
44.20000 -1.222
44.22000 -0.080
44.24000 2.373
44.26000 -0.015
44.28000 -2.604
44.30000 -2.768
44.32000 -1.617
44.34000 -1.934
44.36000 -0.620
44.38000 3.685
44.40000 3.634
44.42000 1.130
44.44000 -0.178
44.46000 -1.064
44.48000 1.021
44.50000 0.510
44.52000 5.479
44.54000 4.219
44.56000 2.968
44.58000 0.240
44.60000 -3.283
44.62000 -0.871
44.64000 3.127
44.66000 2.443
44.68000 -2.612
44.70000 -2.827
44.72000 2.307
44.74000 2.010
44.76000 -2.585
44.78000 0.387
44.80000 -0.040
44.82000 1.036
44.84000 2.466
44.86000 2.528
44.88000 2.258
44.90000 1.149
44.92000 4.109
44.94000 1.741
44.96000 2.907
44.98000 4.911
45.00000 2.089
45.02000 2.636
45.04000 1.124
45.06000 -0.318
45.08000 -1.953
45.10000 -0.072
45.12000 1.087
45.14000 1.307
45.16000 -0.101
45.18000 2.264
45.20000 0.485
45.22000 0.444
45.24000 1.993
45.26000 3.763
45.28000 5.089
45.30000 3.305
45.32000 3.513
45.34000 0.233
45.36000 -1.012
45.38000 3.338
45.40000 1.998
45.42000 3.179
45.44000 2.131
45.46000 -0.500
45.48000 5.080
45.50000 5.813
45.52000 7.081
45.54000 9.489
45.56000 6.862
45.58000 5.142
45.60000 8.251
45.62000 9.464
45.64000 10.003
45.66000 7.687
45.68000 7.843
45.70000 5.150
45.72000 8.580
45.74000 9.066
45.76000 10.868
45.78000 6.815
45.80000 10.713
45.82000 13.308
45.84000 14.059
45.86000 9.418
45.88000 9.957
45.90000 11.870
45.92000 15.907
45.94000 13.786
45.96000 8.097
45.98000 8.930
46.00000 14.810
46.02000 13.202
46.04000 16.939
46.06000 21.213
46.08000 18.629
46.10000 16.042
46.12000 17.633
46.14000 24.372
46.16000 21.536
46.18000 27.248
46.20000 27.980
46.22000 23.913
46.24000 26.474
46.26000 31.793
46.28000 32.474
46.30000 29.742
46.32000 29.384
46.34000 30.313
46.36000 32.319
46.38000 33.089
46.40000 35.882
46.42000 38.720
46.44000 39.053
46.46000 44.719
46.48000 45.348
46.50000 38.907
46.52000 44.761
46.54000 50.619
46.56000 54.450
46.58000 50.180
46.60000 55.321
46.62000 57.230
46.64000 55.471
46.66000 60.389
46.68000 63.239
46.70000 64.612
46.72000 72.400
46.74000 77.407
46.76000 76.090
46.78000 75.419
46.80000 82.013
46.82000 80.981
46.84000 81.916
46.86000 86.450
46.88000 87.637
46.90000 92.247
46.92000 94.451
46.94000 89.348
46.96000 87.579
46.98000 92.148
47.00000 92.763
47.02000 101.444
47.04000 99.517
47.06000 100.289
47.08000 101.918
47.10000 102.075
47.12000 104.552
47.14000 102.416
47.16000 109.897
47.18000 106.802
47.20000 101.279
47.22000 105.775
47.24000 107.143
47.26000 102.242
47.28000 98.494
47.30000 99.887
47.32000 92.486
47.34000 93.373
47.36000 92.439
47.38000 88.881
47.40000 88.135
47.42000 78.545
47.44000 80.590
47.46000 87.017
47.48000 84.020
47.50000 76.295
47.52000 79.526
47.54000 77.089
47.56000 77.337
47.58000 73.795
47.60000 71.681
47.62000 65.493
47.64000 60.366
47.66000 62.890
47.68000 58.446
47.70000 56.586
47.72000 53.131
47.74000 46.789
47.76000 42.514
47.78000 44.173
47.80000 41.911
47.82000 41.556
47.84000 43.968
47.86000 42.529
47.88000 37.475
47.90000 28.983
47.92000 32.728
47.94000 32.066
47.96000 24.684
47.98000 30.804
48.00000 24.693
48.02000 20.041
48.04000 22.242
48.06000 24.856
48.08000 22.528
48.10000 24.523
48.12000 22.151
48.14000 20.127
48.16000 17.240
48.18000 17.971
48.20000 18.625
48.22000 17.806
48.24000 18.241
48.26000 11.305
48.28000 9.114
48.30000 14.441
48.32000 14.590
48.34000 14.647
48.36000 12.180
48.38000 8.476
48.40000 6.245
48.42000 6.806
48.44000 4.901
48.46000 0.675
48.48000 2.153
48.50000 5.934
48.52000 9.075
48.54000 7.601
48.56000 7.320
48.58000 9.967
48.60000 5.206
48.62000 4.177
48.64000 5.559
48.66000 8.994
48.68000 4.091
48.70000 2.443
48.72000 4.243
48.74000 3.242
48.76000 0.696
48.78000 1.238
48.80000 -1.511
48.82000 0.416
48.84000 -0.040
48.86000 4.926
48.88000 2.219
48.90000 2.978
48.92000 0.240
48.94000 0.921
48.96000 -1.222
48.98000 5.580
49.00000 7.101
49.02000 3.535
49.04000 3.406
49.06000 -0.123
49.08000 2.384
49.10000 -1.231
49.12000 -2.830
49.14000 0.861
49.16000 2.656
49.18000 1.053
49.20000 0.451
49.22000 -0.867
49.24000 -1.630
49.26000 0.870
49.28000 -0.107
49.30000 0.059
49.32000 0.209
49.34000 2.064
49.36000 3.417
49.38000 0.027
49.40000 1.538
49.42000 5.028
49.44000 7.321
49.46000 3.394
49.48000 0.429
49.50000 0.080
49.52000 1.930
49.54000 4.457
49.56000 6.122
49.58000 4.703
49.60000 5.470
49.62000 6.092
49.64000 3.028
49.66000 6.596
49.68000 6.920
49.70000 2.054
49.72000 1.580
49.74000 3.808
49.76000 7.235
49.78000 10.708
49.80000 4.670
49.82000 -0.674
49.84000 -1.548
49.86000 3.649
49.88000 3.257
49.90000 8.315
49.92000 3.973
49.94000 3.103
49.96000 4.159
49.98000 3.295
50.00000 -0.945
50.02000 3.020
50.04000 6.472
50.06000 4.732
50.08000 4.562
50.10000 2.528
50.12000 5.857
50.14000 3.127
50.16000 3.224
50.18000 4.281
50.20000 2.885
50.22000 -2.678
50.24000 -1.600
50.26000 4.316
50.28000 5.343
50.30000 6.846
50.32000 8.138
50.34000 8.484
50.36000 2.760
50.38000 -1.249
50.40000 3.576
50.42000 4.136
50.44000 3.308
50.46000 1.890
50.48000 4.809
50.50000 4.360
50.52000 0.896
50.54000 -0.552
50.56000 3.847
50.58000 4.880
50.60000 4.076
50.62000 2.907
50.64000 1.828
50.66000 -1.065
50.68000 0.567
50.70000 1.726
50.72000 3.625
50.74000 4.078
50.76000 2.584
50.78000 3.526
50.80000 1.656
50.82000 -0.721
50.84000 1.969
50.86000 1.956
50.88000 -0.283
50.90000 1.240
50.92000 4.751
50.94000 2.745
50.96000 4.441
50.98000 2.480
51.00000 -1.290
51.02000 -1.961
51.04000 -2.072
51.06000 0.830
51.08000 -1.677
51.10000 -2.673
51.12000 0.133
51.14000 0.176
51.16000 0.231
51.18000 4.485
51.20000 2.094
51.22000 2.174
51.24000 4.479
51.26000 3.280
51.28000 -0.900
51.30000 -0.973
51.32000 1.114
51.34000 1.252
51.36000 -1.563
51.38000 -1.586
51.40000 0.376
51.42000 1.762
51.44000 -1.372
51.46000 -1.356
51.48000 1.072
51.50000 2.023
51.52000 0.866
51.54000 0.970
51.56000 0.564
51.58000 0.559
51.60000 3.491
51.62000 -1.194
51.64000 -1.313
51.66000 -2.626
51.68000 1.509
51.70000 2.876
51.72000 -0.815
51.74000 2.517
51.76000 1.463
51.78000 2.621
51.80000 2.414
51.82000 0.604
51.84000 -1.499
51.86000 -2.237
51.88000 0.170
51.90000 -0.267
51.92000 -0.658
51.94000 -0.954
51.96000 -0.676
51.98000 3.825
52.00000 0.813
52.02000 -0.323
52.04000 3.524
52.06000 3.301
52.08000 0.056
52.10000 1.535
52.12000 -1.428
52.14000 3.832
52.16000 3.635
52.18000 3.424
52.20000 2.853
52.22000 2.000
52.24000 3.026
52.26000 0.684
52.28000 2.885
52.30000 2.475
52.32000 1.145
52.34000 1.163
52.36000 0.405
52.38000 2.621
52.40000 -2.354
52.42000 -0.218
52.44000 -0.135
52.46000 -1.788
52.48000 5.015
52.50000 5.464
52.52000 5.674
52.54000 3.456
52.56000 3.120
52.58000 3.198
52.60000 4.455
52.62000 1.356
52.64000 -2.587
52.66000 -1.889
52.68000 -0.157
52.70000 -0.386
52.72000 5.587
52.74000 3.420
52.76000 2.454
52.78000 -0.120
52.80000 -1.546
52.82000 0.839
52.84000 3.250
52.86000 2.703
52.88000 4.068
52.90000 2.922
52.92000 0.498
52.94000 0.351
52.96000 2.083
52.98000 -0.370
53.00000 -1.504
53.02000 -2.575
53.04000 0.166
53.06000 3.292
53.08000 7.450
53.10000 8.485
53.12000 4.613
53.14000 3.779
53.16000 6.061
53.18000 5.369
53.20000 5.434
53.22000 -0.463
53.24000 1.899
53.26000 3.757
53.28000 5.349
53.30000 3.118
53.32000 4.849
53.34000 3.224
53.36000 4.850
53.38000 3.402
53.40000 2.058
53.42000 3.413
53.44000 2.232
53.46000 3.240
53.48000 1.475
53.50000 0.326
53.52000 -0.639
53.54000 0.148
53.56000 -0.693
53.58000 4.763
53.60000 5.673
53.62000 5.173
53.64000 0.471
53.66000 -2.529
53.68000 -2.158
53.70000 2.918
53.72000 1.501
53.74000 0.690
53.76000 -0.208
53.78000 -2.389
53.80000 -1.930
53.82000 -1.350
53.84000 2.207
53.86000 3.057
53.88000 2.025
53.90000 0.120
53.92000 1.401
53.94000 2.380
53.96000 1.084
53.98000 1.112
54.00000 5.776
54.02000 3.454
54.04000 3.116
54.06000 0.416
54.08000 0.225
54.10000 0.708
54.12000 2.200
54.14000 0.871
54.16000 1.916
54.18000 3.172
54.20000 2.479
54.22000 1.025
54.24000 -2.172
54.26000 -0.772
54.28000 -2.355
54.30000 -1.882
54.32000 0.439
54.34000 0.479
54.36000 -0.206
54.38000 -0.233
54.40000 3.171
54.42000 1.369
54.44000 -1.961
54.46000 0.288
54.48000 2.641
54.50000 -0.027
54.52000 -1.501
54.54000 0.601
54.56000 3.898
54.58000 1.457
54.60000 -1.254
54.62000 2.155
54.64000 0.731
54.66000 1.329
54.68000 1.788
54.70000 1.660
54.72000 -0.539
54.74000 4.524
54.76000 0.326
54.78000 -1.576
54.80000 -0.727
54.82000 3.483
54.84000 2.940
54.86000 1.009
54.88000 -1.673
54.90000 -2.331
54.92000 3.606
54.94000 5.157
54.96000 5.586
54.98000 7.660
55.00000 7.879
55.02000 5.951
55.04000 1.917
55.06000 1.464
55.08000 2.370
55.10000 2.828
55.12000 -2.532
55.14000 -1.830
55.16000 -0.245
55.18000 0.043
55.20000 2.455
55.22000 1.870
55.24000 -1.372
55.26000 1.432
55.28000 3.235
55.30000 2.122
55.32000 1.921
55.34000 1.655
55.36000 2.057
55.38000 3.559
55.40000 2.806
55.42000 5.869
55.44000 3.723
55.46000 3.529
55.48000 2.668
55.50000 1.605
55.52000 3.002
55.54000 0.692
55.56000 7.615
55.58000 4.330
55.60000 -1.163
55.62000 -0.338
55.64000 3.601
55.66000 4.636
55.68000 2.886
55.70000 -0.309
55.72000 0.687
55.74000 4.661
55.76000 7.962
55.78000 5.809
55.80000 5.335
55.82000 1.984
55.84000 0.770
55.86000 1.756
55.88000 2.541
55.90000 3.203
55.92000 -2.065
55.94000 -2.498
55.96000 -0.864
55.98000 -1.039
56.00000 -0.838
56.02000 0.839
56.04000 -0.510
56.06000 1.045
56.08000 0.285
56.10000 -1.664
56.12000 -0.396
56.14000 1.976
56.16000 4.523
56.18000 2.321
56.20000 4.119
56.22000 4.784
56.24000 1.368
56.26000 0.233
56.28000 6.241
56.30000 7.077
56.32000 3.911
56.34000 5.940
56.36000 3.278
56.38000 3.257
56.40000 6.350
56.42000 3.572
56.44000 3.431
56.46000 -0.130
56.48000 -0.564
56.50000 2.170
56.52000 2.988
56.54000 2.623
56.56000 2.853
56.58000 3.074
56.60000 -0.244
56.62000 -0.715
56.64000 1.260
56.66000 3.825
56.68000 3.819
56.70000 2.421
56.72000 2.102
56.74000 3.784
56.76000 1.702
56.78000 4.805
56.80000 1.018
56.82000 -1.495
56.84000 0.429
56.86000 -0.118
56.88000 4.397
56.90000 6.694
56.92000 5.402
56.94000 3.485
56.96000 2.650
56.98000 -0.181
57.00000 2.101
57.02000 3.588
57.04000 3.239
57.06000 3.168
57.08000 6.650
57.10000 3.835
57.12000 2.142
57.14000 -2.445
57.16000 2.781
57.18000 2.696
57.20000 2.852
57.22000 0.351
57.24000 4.248
57.26000 1.524
57.28000 3.015
57.30000 5.797
57.32000 4.823
57.34000 2.388
57.36000 0.708
57.38000 3.758
57.40000 1.113
57.42000 8.294
57.44000 0.393
57.46000 -1.489
57.48000 0.535
57.50000 -0.715
57.52000 2.406
57.54000 3.034
57.56000 3.774
57.58000 2.294
57.60000 0.488
57.62000 0.680
57.64000 -0.631
57.66000 -0.288
57.68000 2.638
57.70000 1.256
57.72000 1.863
57.74000 3.511
57.76000 1.637
57.78000 0.055
57.80000 3.655
57.82000 3.456
57.84000 4.306
57.86000 3.700
57.88000 1.121
57.90000 0.984
57.92000 2.571
57.94000 0.759
57.96000 3.221
57.98000 2.022
58.00000 0.537
58.02000 3.092
58.04000 1.570
58.06000 4.206
58.08000 3.883
58.10000 3.707
58.12000 5.972
58.14000 0.187
58.16000 5.234
58.18000 2.549
58.20000 1.099
58.22000 1.826
58.24000 3.113
58.26000 5.214
58.28000 3.723
58.30000 4.385
58.32000 2.916
58.34000 2.079
58.36000 2.089
58.38000 6.130
58.40000 5.228
58.42000 4.351
58.44000 2.748
58.46000 3.108
58.48000 3.814
58.50000 0.422
58.52000 0.243
58.54000 2.283
58.56000 5.012
58.58000 -1.010
58.60000 -0.615
58.62000 4.463
58.64000 3.651
58.66000 -0.173
58.68000 -2.418
58.70000 2.305
58.72000 1.871
58.74000 3.683
58.76000 4.088
58.78000 3.333
58.80000 3.242
58.82000 2.970
58.84000 3.511
58.86000 3.778
58.88000 6.534
58.90000 5.419
58.92000 1.585
58.94000 3.966
58.96000 7.259
58.98000 5.209
59.00000 5.020
59.02000 3.598
59.04000 4.696
59.06000 0.287
59.08000 1.948
59.10000 3.121
59.12000 3.955
59.14000 4.141
59.16000 0.512
59.18000 1.177
59.20000 3.140
59.22000 6.739
59.24000 8.403
59.26000 3.774
59.28000 -1.514
59.30000 2.472
59.32000 7.856
59.34000 1.886
59.36000 3.374
59.38000 3.756
59.40000 1.625
59.42000 -0.742
59.44000 1.709
59.46000 2.060
59.48000 1.248
59.50000 3.705
59.52000 -0.358
59.54000 -2.392
59.56000 2.990
59.58000 4.509
59.60000 2.376
59.62000 -0.876
59.64000 -2.389
59.66000 1.106
59.68000 0.563
59.70000 -2.035
59.72000 0.444
59.74000 3.067
59.76000 2.833
59.78000 0.594
59.80000 1.632
59.82000 0.635
59.84000 1.528
59.86000 4.285
59.88000 3.820
59.90000 1.964
59.92000 0.375
59.94000 4.880
59.96000 -0.221
59.98000 0.520
60.00000 2.772
60.02000 2.346
60.04000 3.260
60.06000 3.655
60.08000 4.881
60.10000 -1.355
60.12000 0.693
60.14000 1.457
60.16000 -0.747
60.18000 -0.419
60.20000 -1.652
60.22000 -2.318
60.24000 -2.378
60.26000 -2.141
60.28000 -2.273
60.30000 0.741
60.32000 -0.018
60.34000 -1.181
60.36000 1.069
60.38000 3.629
60.40000 -2.398
60.42000 -0.270
60.44000 0.764
60.46000 -1.512
60.48000 1.000
60.50000 0.625
60.52000 -0.298
60.54000 -1.083
60.56000 -0.791
60.58000 -0.342
60.60000 4.158
60.62000 2.168
60.64000 3.758
60.66000 3.349
60.68000 0.958
60.70000 1.323
60.72000 1.605
60.74000 3.622
60.76000 0.963
60.78000 -0.949
60.80000 -1.286
60.82000 2.476
60.84000 -0.097
60.86000 0.907
60.88000 2.993
60.90000 0.787
60.92000 1.761
60.94000 -2.380
60.96000 -1.615
60.98000 -2.380
61.00000 -1.327
61.02000 2.830
61.04000 1.717
61.06000 3.988
61.08000 1.338
61.10000 2.378
61.12000 -0.080
61.14000 0.826
61.16000 0.793
61.18000 0.792
61.20000 3.465
61.22000 1.542
61.24000 -1.099
61.26000 -0.423
61.28000 1.283
61.30000 1.289
61.32000 0.490
61.34000 2.232
61.36000 4.514
61.38000 1.583
61.40000 -0.001
61.42000 -0.375
61.44000 -0.008
61.46000 -0.507
61.48000 1.420
61.50000 3.205
61.52000 2.657
61.54000 0.211
61.56000 1.572
61.58000 0.266
61.60000 -2.252
61.62000 1.546
61.64000 0.801
61.66000 1.513
61.68000 1.027
61.70000 3.618
61.72000 3.644
61.74000 -2.279
61.76000 -2.358
61.78000 4.090
61.80000 -0.093
61.82000 1.352
61.84000 1.208
61.86000 1.367
61.88000 4.967
61.90000 3.750
61.92000 2.268
61.94000 -0.234
61.96000 -1.200
61.98000 2.431
62.00000 1.387
62.02000 3.300
62.04000 1.349
62.06000 1.173
62.08000 2.786
62.10000 2.176
62.12000 3.255
62.14000 0.220
62.16000 -1.572
62.18000 -1.499
62.20000 -0.287
62.22000 1.402
62.24000 0.511
62.26000 -0.715
62.28000 0.895
62.30000 0.265
62.32000 1.516
62.34000 4.679
62.36000 1.235
62.38000 -0.323
62.40000 -1.110
62.42000 3.475
62.44000 5.263
62.46000 0.890
62.48000 -2.335
62.50000 -0.210
62.52000 0.267
62.54000 0.028
62.56000 -0.756
62.58000 0.660
62.60000 2.067
62.62000 1.487
62.64000 1.915
62.66000 1.814
62.68000 0.311
62.70000 2.365
62.72000 1.558
62.74000 1.705
62.76000 -0.891
62.78000 0.304
62.80000 -0.984
62.82000 -1.809
62.84000 -1.412
62.86000 2.487
62.88000 5.345
62.90000 4.060
62.92000 4.361
62.94000 2.945
62.96000 0.588
62.98000 1.117
63.00000 1.718
63.02000 1.403
63.04000 0.381
63.06000 1.752
63.08000 4.543
63.10000 4.798
63.12000 2.449
63.14000 4.677
63.16000 3.763
63.18000 -0.565
63.20000 -2.317
63.22000 -1.410
63.24000 -0.430
63.26000 0.714
63.28000 1.463
63.30000 3.724
63.32000 5.309
63.34000 7.239
63.36000 4.733
63.38000 0.273
63.40000 1.389
63.42000 -0.366
63.44000 0.499
63.46000 2.079
63.48000 -1.780
63.50000 -0.284
63.52000 -1.708
63.54000 0.226
63.56000 1.907
63.58000 6.624
63.60000 2.463
63.62000 -0.791
63.64000 -0.034
63.66000 5.221
63.68000 3.663
63.70000 2.181
63.72000 2.325
63.74000 0.805
63.76000 3.626
63.78000 4.263
63.80000 1.168
63.82000 0.243
63.84000 1.305
63.86000 1.471
63.88000 1.341
63.90000 -0.025
63.92000 0.998
63.94000 1.310
63.96000 -2.328
63.98000 1.863
64.00000 6.327
64.02000 3.669
64.04000 -1.177
64.06000 -1.689
64.08000 1.909
64.10000 3.051
64.12000 -0.817
64.14000 -0.648
64.16000 0.812
64.18000 2.268
64.20000 4.115
64.22000 0.628
64.24000 0.507
64.26000 0.248
64.28000 -0.297
64.30000 -0.518
64.32000 0.415
64.34000 -1.853
64.36000 -1.585
64.38000 6.802
64.40000 2.992
64.42000 2.654
64.44000 0.330
64.46000 2.154
64.48000 3.920
64.50000 1.393
64.52000 -0.959
64.54000 0.969
64.56000 4.353
64.58000 0.437
64.60000 1.074
64.62000 2.442
64.64000 0.850
64.66000 1.765
64.68000 2.573
64.70000 0.692
64.72000 0.169
64.74000 -0.955
64.76000 -0.670
64.78000 0.540
64.80000 2.379
64.82000 1.484
64.84000 -1.473
64.86000 0.110
64.88000 1.197
64.90000 2.828
64.92000 1.731
64.94000 1.387
64.96000 -1.123
64.98000 -2.321
65.00000 -1.140
65.02000 -0.056
65.04000 3.445
65.06000 3.132
65.08000 2.661
65.10000 2.841
65.12000 2.508
65.14000 -1.808
65.16000 2.616
65.18000 0.265
65.20000 -0.477
65.22000 0.695
65.24000 -0.081
65.26000 0.758
65.28000 2.800
65.30000 0.830
65.32000 1.992
65.34000 3.386
65.36000 1.409
65.38000 -0.743
65.40000 0.549
65.42000 3.580
65.44000 2.535
65.46000 2.468
65.48000 3.426
65.50000 0.331
65.52000 1.427
65.54000 1.065
65.56000 2.449
65.58000 -1.173
65.60000 -2.240
65.62000 -0.686
65.64000 -1.201
65.66000 0.060
65.68000 3.479
65.70000 3.135
65.72000 2.805
65.74000 2.439
65.76000 2.043
65.78000 1.964
65.80000 0.044
65.82000 -0.454
65.84000 -0.833
65.86000 -1.068
65.88000 -1.238
65.90000 -0.528
65.92000 -1.481
65.94000 1.372
65.96000 0.876
65.98000 -0.831
66.00000 0.185
66.02000 0.297
66.04000 0.151
66.06000 0.778
66.08000 3.915
66.10000 4.254
66.12000 -1.137
66.14000 0.843
66.16000 0.472
66.18000 -2.322
66.20000 0.745
66.22000 -0.456
66.24000 -0.108
66.26000 0.053
66.28000 -0.095
66.30000 0.502
66.32000 0.259
66.34000 1.475
66.36000 0.116
66.38000 0.494
66.40000 0.334
66.42000 4.044
66.44000 -0.450
66.46000 -0.367
66.48000 0.909
66.50000 -2.320
66.52000 -1.835
66.54000 1.616
66.56000 3.445
66.58000 2.868
66.60000 1.454
66.62000 2.611
66.64000 2.472
66.66000 2.962
66.68000 0.366
66.70000 3.635
66.72000 -0.197
66.74000 3.550
66.76000 1.542
66.78000 1.250
66.80000 -0.316
66.82000 0.169
66.84000 2.071
66.86000 1.683
66.88000 3.085
66.90000 1.726
66.92000 2.665
66.94000 0.810
66.96000 -1.599
66.98000 0.507
67.00000 1.729
67.02000 2.252
67.04000 3.511
67.06000 2.178
67.08000 -0.133
67.10000 0.639
67.12000 1.508
67.14000 2.235
67.16000 -0.326
67.18000 -2.375
67.20000 -0.673
67.22000 -0.817
67.24000 1.212
67.26000 2.150
67.28000 3.980
67.30000 0.273
67.32000 -0.445
67.34000 -0.228
67.36000 -0.703
67.38000 -0.629
67.40000 1.447
67.42000 1.690
67.44000 2.097
67.46000 1.346
67.48000 2.006
67.50000 1.043
67.52000 -1.285
67.54000 -2.036
67.56000 0.865
67.58000 1.105
67.60000 0.638
67.62000 -1.636
67.64000 0.560
67.66000 4.499
67.68000 0.815
67.70000 1.255
67.72000 0.796
67.74000 -0.678
67.76000 1.242
67.78000 1.589
67.80000 1.038
67.82000 2.512
67.84000 3.356
67.86000 5.820
67.88000 5.571
67.90000 0.659
67.92000 2.038
67.94000 3.899
67.96000 3.231
67.98000 1.851
68.00000 3.245
68.02000 1.987
68.04000 3.682
68.06000 4.901
68.08000 3.480
68.10000 6.138
68.12000 9.611
68.14000 7.625
68.16000 7.550
68.18000 7.755
68.20000 6.388
68.22000 6.242
68.24000 6.082
68.26000 7.846
68.28000 7.748
68.30000 8.682
68.32000 8.523
68.34000 9.154
68.36000 12.760
68.38000 11.045
68.40000 13.358
68.42000 14.227
68.44000 13.916
68.46000 14.141
68.48000 18.612
68.50000 16.805
68.52000 12.837
68.54000 14.729
68.56000 16.946
68.58000 18.782
68.60000 18.152
68.62000 23.014
68.64000 23.678
68.66000 22.723
68.68000 26.250
68.70000 26.555
68.72000 27.109
68.74000 27.371
68.76000 27.553
68.78000 22.714
68.80000 23.820
68.82000 26.535
68.84000 26.297
68.86000 23.559
68.88000 23.517
68.90000 23.607
68.92000 27.996
68.94000 28.142
68.96000 29.643
68.98000 25.941
69.00000 25.651
69.02000 25.564
69.04000 26.553
69.06000 26.324
69.08000 27.343
69.10000 25.368
69.12000 21.918
69.14000 22.827
69.16000 23.670
69.18000 22.524
69.20000 24.116
69.22000 25.137
69.24000 23.729
69.26000 19.430
69.28000 21.822
69.30000 21.125
69.32000 19.509
69.34000 16.802
69.36000 14.056
69.38000 16.208
69.40000 14.718
69.42000 13.792
69.44000 14.876
69.46000 14.741
69.48000 13.134
69.50000 14.590
69.52000 13.427
69.54000 13.581
69.56000 11.077
69.58000 11.211
69.60000 8.916
69.62000 7.618
69.64000 8.705
69.66000 10.697
69.68000 8.153
69.70000 6.659
69.72000 5.073
69.74000 4.725
69.76000 3.134
69.78000 6.053
69.80000 7.666
69.82000 7.508
69.84000 6.736
69.86000 1.752
69.88000 3.260
69.90000 4.477
69.92000 4.858
69.94000 5.003
69.96000 5.030
69.98000 5.056
70.00000 3.826
70.02000 3.610
70.04000 0.049
70.06000 1.819
70.08000 0.980
70.10000 3.146
70.12000 4.021
70.14000 2.827
70.16000 1.702
70.18000 4.794
70.20000 4.554
70.22000 3.891
70.24000 4.670
70.26000 2.387
70.28000 0.613
70.30000 -2.326
70.32000 0.779
70.34000 5.370
70.36000 4.151
70.38000 1.055
70.40000 -0.805
70.42000 3.884
70.44000 4.619
70.46000 0.524
70.48000 -0.756
70.50000 0.848
70.52000 1.619
70.54000 2.796
70.56000 2.139
70.58000 5.542
70.60000 5.653
70.62000 4.058
70.64000 1.077
70.66000 -0.557
70.68000 -0.289
70.70000 1.733
70.72000 3.032
70.74000 1.497
70.76000 -2.288
70.78000 -1.025
70.80000 2.677
70.82000 3.091
70.84000 3.886
70.86000 1.423
70.88000 -2.275
70.90000 -0.186
70.92000 0.391
70.94000 1.615
70.96000 5.233
70.98000 6.787
71.00000 3.630
71.02000 2.811
71.04000 -1.204
71.06000 -2.085
71.08000 -2.065
71.10000 -0.941
71.12000 1.283
71.14000 0.051
71.16000 -0.703
71.18000 0.326
71.20000 1.297
71.22000 1.510
71.24000 1.671
71.26000 2.826
71.28000 3.530
71.30000 5.195
71.32000 2.403
71.34000 1.890
71.36000 2.991
71.38000 1.967
71.40000 3.670
71.42000 -1.122
71.44000 0.002
71.46000 1.604
71.48000 0.900
71.50000 3.385
71.52000 1.132
71.54000 0.115
71.56000 0.139
71.58000 0.657
71.60000 -0.487
71.62000 -2.019
71.64000 -0.854
71.66000 1.454
71.68000 1.253
71.70000 -0.982
71.72000 -0.330
71.74000 2.647
71.76000 -1.533
71.78000 -0.460
71.80000 0.793
71.82000 -2.195
71.84000 -0.577
71.86000 5.433
71.88000 3.905
71.90000 2.942
71.92000 3.396
71.94000 3.639
71.96000 2.817
71.98000 3.151
72.00000 3.898
72.02000 3.550
72.04000 0.572
72.06000 -2.188
72.08000 -0.845
72.10000 -2.076
72.12000 2.690
72.14000 3.938
72.16000 3.523
72.18000 2.145
72.20000 1.916
72.22000 3.184
72.24000 6.493
72.26000 2.402
72.28000 3.226
72.30000 0.685
72.32000 -0.376
72.34000 1.517
72.36000 4.698
72.38000 2.096
72.40000 1.599
72.42000 -0.731
72.44000 0.874
72.46000 0.996
72.48000 -0.546
72.50000 0.954
72.52000 -2.119
72.54000 2.352
72.56000 1.200
72.58000 3.958
72.60000 3.521
72.62000 3.005
72.64000 4.414
72.66000 4.556
72.68000 6.591
72.70000 3.970
72.72000 2.797
72.74000 1.413
72.76000 1.704
72.78000 2.136
72.80000 3.743
72.82000 -0.595
72.84000 2.628
72.86000 1.213
72.88000 -0.360
72.90000 4.053
72.92000 5.604
72.94000 2.606
72.96000 2.583
72.98000 3.299
73.00000 3.339
73.02000 1.851
73.04000 3.202
73.06000 4.489
73.08000 2.142
73.10000 2.424
73.12000 3.003
73.14000 5.559
73.16000 2.736
73.18000 0.966
73.20000 2.295
73.22000 3.245
73.24000 4.546
73.26000 3.428
73.28000 3.094
73.30000 3.747
73.32000 1.813
73.34000 3.435
73.36000 3.806
73.38000 0.689
73.40000 0.775
73.42000 -2.116
73.44000 4.934
73.46000 8.403
73.48000 5.104
73.50000 4.344
73.52000 7.704
73.54000 4.445
73.56000 1.790
73.58000 2.063
73.60000 1.473
73.62000 2.061
73.64000 4.273
73.66000 5.208
73.68000 4.972
73.70000 7.151
73.72000 1.962
73.74000 2.894
73.76000 1.594
73.78000 -1.019
73.80000 0.359
73.82000 1.873
73.84000 2.747
73.86000 2.523
73.88000 1.587
73.90000 0.790
73.92000 3.850
73.94000 5.702
73.96000 0.197
73.98000 0.657
74.00000 2.597
74.02000 2.416
74.04000 2.770
74.06000 0.256
74.08000 3.125
74.10000 4.545
74.12000 3.953
74.14000 2.039
74.16000 3.843
74.18000 2.008
74.20000 -0.816
74.22000 5.122
74.24000 4.639
74.26000 1.911
74.28000 2.612
74.30000 3.188
74.32000 3.820
74.34000 5.207
74.36000 2.468
74.38000 1.820
74.40000 0.462
74.42000 4.436
74.44000 6.451
74.46000 3.831
74.48000 0.994
74.50000 0.901
74.52000 -0.235
74.54000 2.243
74.56000 4.198
74.58000 5.344
74.60000 2.154
74.62000 -1.388
74.64000 -2.113
74.66000 1.259
74.68000 1.283
74.70000 0.389
74.72000 3.567
74.74000 8.124
74.76000 6.230
74.78000 8.291
74.80000 5.159
74.82000 3.704
74.84000 3.694
74.86000 2.705
74.88000 1.972
74.90000 7.243
74.92000 5.657
74.94000 3.772
74.96000 -2.117
74.98000 -0.413
75.00000 0.133
75.02000 1.056
75.04000 2.186
75.06000 3.885
75.08000 5.686
75.10000 7.072
75.12000 5.267
75.14000 1.563
75.16000 2.118
75.18000 7.677
75.20000 7.487
75.22000 7.424
75.24000 8.638
75.26000 5.966
75.28000 2.431
75.30000 0.312
75.32000 1.095
75.34000 0.701
75.36000 1.153
75.38000 4.210
75.40000 6.966
75.42000 3.957
75.44000 3.290
75.46000 5.500
75.48000 3.999
75.50000 1.437
75.52000 3.401
75.54000 4.372
75.56000 1.276
75.58000 1.525
75.60000 3.404
75.62000 1.073
75.64000 3.297
75.66000 2.810
75.68000 0.123
75.70000 1.609
75.72000 -2.129
75.74000 1.221
75.76000 2.407
75.78000 2.994
75.80000 2.033
75.82000 1.232
75.84000 2.806
75.86000 3.334
75.88000 1.556
75.90000 3.105
75.92000 3.633
75.94000 6.254
75.96000 8.530
75.98000 3.722
76.00000 0.847
76.02000 -0.641
76.04000 0.966
76.06000 1.572
76.08000 0.000
76.10000 4.076
76.12000 5.900
76.14000 0.897
76.16000 -2.132
76.18000 0.223
76.20000 1.769
76.22000 1.700
76.24000 2.190
76.26000 1.673
76.28000 4.903
76.30000 8.777
76.32000 1.974
76.34000 -1.640
76.36000 -0.774
76.38000 1.268
76.40000 0.650
76.42000 -0.367
76.44000 -0.863
76.46000 3.199
76.48000 3.875
76.50000 0.738
76.52000 -2.154
76.54000 -1.569
76.56000 -1.219
76.58000 1.759
76.60000 2.906
76.62000 1.925
76.64000 3.516
76.66000 5.053
76.68000 2.725
76.70000 1.183
76.72000 5.526
76.74000 5.742
76.76000 6.529
76.78000 0.913
76.80000 -1.732
76.82000 3.503
76.84000 -0.884
76.86000 1.166
76.88000 1.030
76.90000 2.023
76.92000 -1.503
76.94000 2.055
76.96000 4.500
76.98000 2.855
77.00000 -1.142
77.02000 -1.997
77.04000 1.964
77.06000 3.359
77.08000 1.008
77.10000 -0.186
77.12000 0.541
77.14000 4.874
77.16000 2.593
77.18000 2.755
77.20000 4.343
77.22000 1.496
77.24000 -1.131
77.26000 -1.356
77.28000 -2.164
77.30000 1.032
77.32000 1.460
77.34000 3.010
77.36000 0.446
77.38000 1.204
77.40000 2.305
77.42000 4.097
77.44000 0.534
77.46000 0.257
77.48000 0.223
77.50000 3.719
77.52000 3.981
77.54000 3.666
77.56000 0.309
77.58000 -0.709
77.60000 -1.325
77.62000 1.056
77.64000 1.452
77.66000 -1.138
77.68000 -0.017
77.70000 1.169
77.72000 0.889
77.74000 3.540
77.76000 1.968
77.78000 -1.008
77.80000 0.043
77.82000 3.614
77.84000 3.054
77.86000 4.785
77.88000 3.667
77.90000 2.120
77.92000 0.190
77.94000 -1.649
77.96000 -0.612
77.98000 0.882
78.00000 1.249
78.02000 0.242
78.04000 2.556
78.06000 -2.077
78.08000 0.069
78.10000 0.500
78.12000 -1.271
78.14000 5.710
78.16000 6.961
78.18000 4.765
78.20000 0.685
78.22000 0.316
78.24000 0.381
78.26000 2.338
78.28000 3.401
78.30000 1.495
78.32000 1.430
78.34000 1.858
78.36000 1.530
78.38000 -0.795
78.40000 -1.560
78.42000 2.880
78.44000 5.582
78.46000 2.803
78.48000 3.082
78.50000 4.702
78.52000 2.620
78.54000 4.189
78.56000 3.161
78.58000 2.123
78.60000 2.883
78.62000 0.131
78.64000 -2.184
78.66000 0.167
78.68000 1.632
78.70000 5.283
78.72000 2.461
78.74000 -1.352
78.76000 5.854
78.78000 3.682
78.80000 1.518
78.82000 4.485
78.84000 6.529
78.86000 2.600
78.88000 3.503
78.90000 7.020
78.92000 4.746
78.94000 6.583
78.96000 2.458
78.98000 -2.175
79.00000 3.774
79.02000 7.209
79.04000 1.233
79.06000 1.316
79.08000 3.951
79.10000 4.722
79.12000 2.113
79.14000 -0.150
79.16000 0.675
79.18000 1.915
79.20000 -0.344
79.22000 2.482
79.24000 -1.442
79.26000 -0.260
79.28000 -0.418
79.30000 -0.381
79.32000 2.743
79.34000 3.900
79.36000 -0.705
79.38000 1.796
79.40000 0.607
79.42000 -0.241
79.44000 2.874
79.46000 2.956
79.48000 4.691
79.50000 6.202
79.52000 9.476
79.54000 6.921
79.56000 4.964
79.58000 1.733
79.60000 0.649
79.62000 -0.329
79.64000 -2.205
79.66000 1.157
79.68000 3.535
79.70000 4.888
79.72000 1.985
79.74000 0.474
79.76000 -0.686
79.78000 -0.697
79.80000 0.953
79.82000 -1.475
79.84000 -1.500
79.86000 0.883
79.88000 0.654
79.90000 1.328
79.92000 0.391
79.94000 1.383
79.96000 4.121
79.98000 3.819
80.00000 2.306
80.02000 2.330
80.04000 4.349
80.06000 5.159
80.08000 7.698
80.10000 5.185
80.12000 4.314
80.14000 2.999
80.16000 2.507
80.18000 2.092
80.20000 5.183
80.22000 3.733
80.24000 4.050
80.26000 5.563
80.28000 2.167
80.30000 2.334
80.32000 -0.575
80.34000 -0.052
80.36000 1.288
80.38000 3.205
80.40000 3.698
80.42000 2.681
80.44000 -1.033
80.46000 0.409
80.48000 0.158
80.50000 -2.209
80.52000 2.335
80.54000 3.536
80.56000 5.113
80.58000 2.262
80.60000 2.862
80.62000 2.241
80.64000 1.335
80.66000 1.899
80.68000 3.800
80.70000 6.212
80.72000 4.648
80.74000 2.920
80.76000 0.821
80.78000 -0.254
80.80000 0.580
80.82000 3.002
80.84000 -0.249
80.86000 -0.961
80.88000 3.688
80.90000 1.268
80.92000 2.789
80.94000 7.165
80.96000 2.503
80.98000 2.990
81.00000 4.793
81.02000 0.953
81.04000 -1.018
81.06000 -0.924
81.08000 -2.280
81.10000 -0.744
81.12000 1.062
81.14000 2.518
81.16000 6.266
81.18000 3.596
81.20000 2.613
81.22000 4.524
81.24000 2.918
81.26000 -1.182
81.28000 4.310
81.30000 -0.203
81.32000 -1.903
81.34000 0.774
81.36000 -0.068
81.38000 2.028
81.40000 0.640
81.42000 3.507
81.44000 0.642
81.46000 -1.548
81.48000 4.359
81.50000 3.209
81.52000 0.511
81.54000 3.018
81.56000 4.488
81.58000 0.640
81.60000 0.487
81.62000 1.517
81.64000 0.770
81.66000 -1.449
81.68000 -0.073
81.70000 -0.093
81.72000 1.245
81.74000 1.690
81.76000 -2.334
81.78000 0.689
81.80000 5.715
81.82000 5.465
81.84000 0.436
81.86000 0.790
81.88000 4.768
81.90000 6.186
81.92000 1.167
81.94000 1.801
81.96000 0.076
81.98000 6.201
82.00000 7.263
82.02000 6.888
82.04000 8.144
82.06000 5.154
82.08000 7.886
82.10000 10.504
82.12000 13.093
82.14000 10.187
82.16000 6.990
82.18000 9.129
82.20000 6.620
82.22000 8.723
82.24000 6.001
82.26000 8.181
82.28000 8.987
82.30000 7.299
82.32000 9.789
82.34000 15.805
82.36000 15.983
82.38000 16.932
82.40000 14.839
82.42000 9.250
82.44000 11.140
82.46000 20.259
82.48000 20.137
82.50000 17.336
82.52000 18.483
82.54000 17.650
82.56000 17.296
82.58000 19.132
82.60000 22.966
82.62000 22.173
82.64000 20.265
82.66000 23.816
82.68000 22.996
82.70000 23.660
82.72000 27.601
82.74000 29.297
82.76000 26.684
82.78000 27.021
82.80000 28.439
82.82000 33.426
82.84000 29.641
82.86000 29.951
82.88000 31.563
82.90000 33.079
82.92000 33.928
82.94000 38.305
82.96000 36.168
82.98000 34.269
83.00000 32.378
83.02000 38.562
83.04000 42.801
83.06000 43.136
83.08000 34.978
83.10000 33.922
83.12000 39.727
83.14000 40.285
83.16000 44.251
83.18000 37.037
83.20000 37.759
83.22000 41.476
83.24000 38.111
83.26000 33.405
83.28000 35.795
83.30000 46.294
83.32000 49.821
83.34000 44.382
83.36000 45.811
83.38000 39.861
83.40000 39.250
83.42000 37.977
83.44000 36.871
83.46000 36.890
83.48000 37.894
83.50000 38.418
83.52000 37.149
83.54000 35.754
83.56000 39.986
83.58000 40.607
83.60000 31.380
83.62000 30.794
83.64000 31.323
83.66000 30.584
83.68000 34.174
83.70000 27.260
83.72000 23.745
83.74000 28.190
83.76000 28.622
83.78000 23.457
83.80000 25.792
83.82000 24.815
83.84000 22.506
83.86000 17.910
83.88000 18.045
83.90000 20.829
83.92000 14.559
83.94000 14.694
83.96000 17.964
83.98000 18.460
84.00000 19.070
84.02000 21.090
84.04000 18.416
84.06000 19.964
84.08000 15.070
84.10000 9.886
84.12000 9.837
84.14000 9.192
84.16000 10.747
84.18000 9.043
84.20000 8.043
84.22000 9.623
84.24000 10.365
84.26000 4.440
84.28000 4.891
84.30000 7.102
84.32000 7.778
84.34000 5.952
84.36000 3.099
84.38000 8.098
84.40000 2.549
84.42000 0.617
84.44000 0.515
84.46000 0.582
84.48000 3.733
84.50000 5.434
84.52000 8.103
84.54000 4.126
84.56000 5.359
84.58000 4.580
84.60000 -0.772
84.62000 -1.333
84.64000 1.443
84.66000 1.386
84.68000 4.151
84.70000 5.324
84.72000 3.869
84.74000 2.979
84.76000 4.087
84.78000 4.705
84.80000 2.958
84.82000 7.095
84.84000 6.285
84.86000 3.216
84.88000 2.603
84.90000 1.106
84.92000 4.414
84.94000 4.457
84.96000 3.876
84.98000 5.881
85.00000 2.317
85.02000 2.921
85.04000 7.731
85.06000 8.010
85.08000 5.955
85.10000 2.690
85.12000 -2.251
85.14000 2.555
85.16000 2.957
85.18000 4.143
85.20000 0.085
85.22000 0.730
85.24000 2.498
85.26000 3.458
85.28000 3.073
85.30000 0.897
85.32000 -1.065
85.34000 -2.223
85.36000 1.747
85.38000 5.749
85.40000 2.614
85.42000 -2.157
85.44000 0.888
85.46000 1.394
85.48000 2.994
85.50000 5.020
85.52000 1.413
85.54000 0.806
85.56000 3.839
85.58000 3.081
85.60000 1.262
85.62000 -1.007
85.64000 0.366
85.66000 6.243
85.68000 5.440
85.70000 3.827
85.72000 -0.545
85.74000 2.094
85.76000 0.118
85.78000 0.006
85.80000 1.028
85.82000 2.723
85.84000 1.882
85.86000 1.420
85.88000 2.033
85.90000 3.404
85.92000 2.930
85.94000 1.253
85.96000 1.213
85.98000 -1.543
86.00000 -2.136
86.02000 2.138
86.04000 1.073
86.06000 -0.112
86.08000 -0.231
86.10000 1.286
86.12000 3.658
86.14000 4.732
86.16000 0.032
86.18000 5.620
86.20000 3.401
86.22000 3.502
86.24000 6.331
86.26000 5.760
86.28000 4.438
86.30000 2.948
86.32000 -2.203
86.34000 -1.359
86.36000 0.957
86.38000 2.310
86.40000 4.491
86.42000 6.431
86.44000 4.069
86.46000 5.024
86.48000 3.004
86.50000 2.691
86.52000 3.825
86.54000 7.503
86.56000 3.892
86.58000 2.684
86.60000 6.001
86.62000 5.451
86.64000 4.598
86.66000 9.028
86.68000 7.326
86.70000 6.514
86.72000 3.732
86.74000 2.028
86.76000 1.417
86.78000 3.649
86.80000 6.343
86.82000 7.247
86.84000 8.263
86.86000 6.242
86.88000 7.466
86.90000 6.950
86.92000 5.420
86.94000 8.292
86.96000 8.128
86.98000 8.698
87.00000 10.712
87.02000 9.906
87.04000 8.757
87.06000 5.643
87.08000 7.610
87.10000 11.842
87.12000 11.532
87.14000 8.515
87.16000 9.698
87.18000 12.544
87.20000 12.409
87.22000 8.195
87.24000 10.244
87.26000 12.306
87.28000 14.194
87.30000 12.922
87.32000 15.410
87.34000 17.142
87.36000 21.417
87.38000 23.430
87.40000 19.508
87.42000 18.818
87.44000 21.398
87.46000 20.833
87.48000 19.392
87.50000 24.516
87.52000 21.338
87.54000 17.106
87.56000 23.005
87.58000 22.346
87.60000 21.865
87.62000 19.203
87.64000 22.508
87.66000 25.914
87.68000 23.474
87.70000 22.588
87.72000 20.597
87.74000 22.380
87.76000 26.811
87.78000 23.228
87.80000 24.273
87.82000 23.203
87.84000 20.774
87.86000 20.774
87.88000 22.973
87.90000 18.209
87.92000 21.331
87.94000 20.543
87.96000 21.420
87.98000 19.532
88.00000 19.209
88.02000 14.807
88.04000 17.969
88.06000 15.942
88.08000 11.870
88.10000 15.290
88.12000 22.697
88.14000 22.492
88.16000 17.670
88.18000 9.167
88.20000 12.827
88.22000 13.917
88.24000 14.177
88.26000 12.555
88.28000 13.933
88.30000 11.513
88.32000 11.265
88.34000 8.369
88.36000 10.778
88.38000 14.608
88.40000 10.952
88.42000 7.841
88.44000 11.120
88.46000 9.724
88.48000 9.834
88.50000 6.871
88.52000 3.531
88.54000 2.352
88.56000 5.118
88.58000 7.387
88.60000 2.195
88.62000 3.391
88.64000 5.048
88.66000 3.465
88.68000 0.676
88.70000 1.881
88.72000 1.924
88.74000 5.599
88.76000 3.127
88.78000 2.360
88.80000 -0.494
88.82000 2.609
88.84000 3.075
88.86000 -0.585
88.88000 4.989
88.90000 2.702
88.92000 3.493
88.94000 2.324
88.96000 -1.307
88.98000 0.358
89.00000 -0.377
89.02000 1.191
89.04000 3.829
89.06000 3.745
89.08000 3.247
89.10000 1.227
89.12000 4.391
89.14000 0.024
89.16000 -2.161
89.18000 -1.238
89.20000 -0.426
89.22000 -0.782
89.24000 -0.010
89.26000 4.902
89.28000 1.234
89.30000 -2.144
89.32000 1.076
89.34000 4.381
89.36000 3.647
89.38000 3.488
89.40000 3.029
89.42000 0.708
89.44000 -0.628
89.46000 -0.810
89.48000 0.015
89.50000 3.283
89.52000 1.945
89.54000 0.145
89.56000 3.514
89.58000 2.667
89.60000 3.386
89.62000 1.234
89.64000 1.626
89.66000 1.528
89.68000 1.673
89.70000 1.042
89.72000 4.294
89.74000 3.692
89.76000 2.977
89.78000 4.078
89.80000 3.602
89.82000 1.023
89.84000 -0.900
89.86000 -2.080
89.88000 0.415
89.90000 3.471
89.92000 1.835
89.94000 1.864
89.96000 2.523
89.98000 0.552
90.00000 -1.559
90.02000 0.009
90.04000 3.229
90.06000 5.260
90.08000 3.795
90.10000 3.584
90.12000 1.960
90.14000 3.697
90.16000 2.585
90.18000 7.654
90.20000 2.461
90.22000 0.147
90.24000 0.650
90.26000 1.033
90.28000 -0.023
90.30000 0.045
90.32000 4.555
90.34000 8.653
90.36000 6.402
90.38000 0.087
90.40000 0.912
90.42000 0.174
90.44000 1.126
90.46000 0.505
90.48000 1.257
90.50000 1.697
90.52000 2.108
90.54000 4.162
90.56000 7.084
90.58000 4.715
90.60000 3.708
90.62000 0.747
90.64000 0.987
90.66000 0.474
90.68000 -0.958
90.70000 -2.061
90.72000 0.950
90.74000 2.162
90.76000 4.675
90.78000 2.957
90.80000 -0.031
90.82000 0.943
90.84000 2.929
90.86000 3.398
90.88000 2.344
90.90000 0.410
90.92000 4.156
90.94000 4.430
90.96000 1.839
90.98000 2.502
91.00000 1.379
91.02000 3.551
91.04000 4.922
91.06000 3.892
91.08000 2.677
91.10000 6.572
91.12000 4.130
91.14000 3.592
91.16000 2.316
91.18000 0.697
91.20000 -0.764
91.22000 0.399
91.24000 2.944
91.26000 7.398
91.28000 5.201
91.30000 3.909
91.32000 5.815
91.34000 5.168
91.36000 2.341
91.38000 -0.894
91.40000 -2.029
91.42000 2.861
91.44000 4.639
91.46000 4.390
91.48000 1.880
91.50000 5.069
91.52000 3.174
91.54000 4.324
91.56000 8.596
91.58000 4.760
91.60000 1.045
91.62000 2.421
91.64000 2.979
91.66000 1.485
91.68000 1.322
91.70000 5.168
91.72000 7.911
91.74000 6.366
91.76000 -2.028
91.78000 2.736
91.80000 -0.728
91.82000 3.713
91.84000 6.470
91.86000 5.703
91.88000 4.568
91.90000 2.044
91.92000 1.811
91.94000 3.558
91.96000 2.227
91.98000 -0.342
92.00000 3.305
92.02000 5.010
92.04000 0.457
92.06000 -0.480
92.08000 -0.674
92.10000 -1.435
92.12000 1.419
92.14000 6.181
92.16000 5.496
92.18000 5.239
92.20000 4.012
92.22000 0.699
92.24000 2.333
92.26000 3.802
92.28000 1.180
92.30000 2.541
92.32000 4.526
92.34000 2.433
92.36000 1.183
92.38000 2.448
92.40000 -1.664
92.42000 1.601
92.44000 1.305
92.46000 1.854
92.48000 0.582
92.50000 0.767
92.52000 5.769
92.54000 3.170
92.56000 3.464
92.58000 7.634
92.60000 5.318
92.62000 0.926
92.64000 0.893
92.66000 -0.248
92.68000 1.750
92.70000 1.667
92.72000 -0.521
92.74000 -2.054
92.76000 3.212
92.78000 4.274
92.80000 1.702
92.82000 -1.136
92.84000 3.353
92.86000 5.509
92.88000 7.614
92.90000 1.321
92.92000 -0.157
92.94000 1.504
92.96000 4.800
92.98000 0.666
93.00000 1.174
93.02000 2.846
93.04000 2.139
93.06000 -0.219
93.08000 1.635
93.10000 4.292
93.12000 0.940
93.14000 -0.110
93.16000 1.404
93.18000 -0.801
93.20000 -0.874
93.22000 -2.012
93.24000 1.661
93.26000 -1.350
93.28000 -1.782
93.30000 -0.007
93.32000 -0.844
93.34000 2.542
93.36000 0.137
93.38000 -0.792
93.40000 -0.354
93.42000 0.720
93.44000 1.342
93.46000 -1.811
93.48000 -0.252
93.50000 2.967
93.52000 0.769
93.54000 3.090
93.56000 1.048
93.58000 -1.672
93.60000 -1.769
93.62000 2.492
93.64000 7.075
93.66000 3.911
93.68000 -0.812
93.70000 3.314
93.72000 2.865
93.74000 0.176
93.76000 3.021
93.78000 3.686
93.80000 5.209
93.82000 3.712
93.84000 2.315
93.86000 2.546
93.88000 0.285
93.90000 0.067
93.92000 4.400
93.94000 8.126
93.96000 8.642
93.98000 3.036
94.00000 3.690
94.02000 0.763
94.04000 -0.453
94.06000 1.171
94.08000 -0.933
94.10000 2.169
94.12000 2.570
94.14000 1.798
94.16000 2.121
94.18000 1.320
94.20000 -1.169
94.22000 -1.371
94.24000 2.885
94.26000 2.653
94.28000 2.802
94.30000 0.284
94.32000 3.231
94.34000 4.291
94.36000 4.232
94.38000 1.182
94.40000 0.465
94.42000 2.817
94.44000 3.308
94.46000 6.566
94.48000 2.899
94.50000 0.393
94.52000 3.709
94.54000 3.208
94.56000 0.987
94.58000 -0.648
94.60000 2.186
94.62000 5.613
94.64000 2.173
94.66000 2.530
94.68000 4.916
94.70000 2.658
94.72000 1.314
94.74000 2.728
94.76000 3.139
94.78000 -2.053
94.80000 -0.300
94.82000 7.940
94.84000 5.316
94.86000 4.326
94.88000 5.604
94.90000 6.869
94.92000 5.914
94.94000 5.324
94.96000 4.291
94.98000 2.398
95.00000 3.955
95.02000 3.339
95.04000 1.578
95.06000 1.841
95.08000 4.222
95.10000 2.686
95.12000 -0.745
95.14000 -2.030
95.16000 2.095
95.18000 3.108
95.20000 0.835
95.22000 3.131
95.24000 4.532
95.26000 1.892
95.28000 4.025
95.30000 7.083
95.32000 4.893
95.34000 3.589
95.36000 4.348
95.38000 5.278
95.40000 3.208
95.42000 3.357
95.44000 2.553
95.46000 5.725
95.48000 9.955
95.50000 8.150
95.52000 7.024
95.54000 5.489
95.56000 5.019
95.58000 5.708
95.60000 7.782
95.62000 5.613
95.64000 4.807
95.66000 1.872
95.68000 5.429
95.70000 4.818
95.72000 5.452
95.74000 7.494
95.76000 2.150
95.78000 -2.037
95.80000 0.043
95.82000 1.869
95.84000 7.112
95.86000 6.186
95.88000 4.068
95.90000 0.589
95.92000 1.981
95.94000 3.265
95.96000 2.842
95.98000 1.376
96.00000 2.314
96.02000 6.084
96.04000 5.627
96.06000 5.989
96.08000 4.947
96.10000 2.419
96.12000 7.873
96.14000 5.016
96.16000 3.436
96.18000 7.997
96.20000 5.504
96.22000 4.482
96.24000 10.105
96.26000 9.181
96.28000 8.424
96.30000 3.604
96.32000 -0.127
96.34000 1.196
96.36000 0.960
96.38000 2.998
96.40000 5.972
96.42000 6.420
96.44000 2.585
96.46000 1.825
96.48000 3.895
96.50000 5.211
96.52000 4.771
96.54000 6.001
96.56000 7.175
96.58000 4.669
96.60000 0.149
96.62000 0.263
96.64000 1.570
96.66000 6.683
96.68000 5.970
96.70000 6.028
96.72000 10.743
96.74000 11.172
96.76000 8.373
96.78000 6.752
96.80000 0.744
96.82000 7.705
96.84000 8.051
96.86000 3.436
96.88000 -2.012
96.90000 5.528
96.92000 4.388
96.94000 7.420
96.96000 5.630
96.98000 5.104
97.00000 4.116
97.02000 4.890
97.04000 3.413
97.06000 7.573
97.08000 12.755
97.10000 7.586
97.12000 4.400
97.14000 6.699
97.16000 9.570
97.18000 7.310
97.20000 8.417
97.22000 4.567
97.24000 7.223
97.26000 7.848
97.28000 10.298
97.30000 8.807
97.32000 7.062
97.34000 3.047
97.36000 2.701
97.38000 6.110
97.40000 16.082
97.42000 12.625
97.44000 7.740
97.46000 4.889
97.48000 4.127
97.50000 6.567
97.52000 7.488
97.54000 5.888
97.56000 5.379
97.58000 7.051
97.60000 14.158
97.62000 4.776
97.64000 3.357
97.66000 4.262
97.68000 4.313
97.70000 6.850
97.72000 10.472
97.74000 7.107
97.76000 6.187
97.78000 6.032
97.80000 1.095
97.82000 -1.799
97.84000 4.154
97.86000 10.953
97.88000 6.165
97.90000 2.441
97.92000 5.654
97.94000 9.425
97.96000 11.849
97.98000 8.858
98.00000 11.042
98.02000 4.566
98.04000 4.826
98.06000 1.700
98.08000 -0.512
98.10000 -1.778
98.12000 -1.981
98.14000 4.019
98.16000 7.146
98.18000 4.952
98.20000 3.207
98.22000 14.324
98.24000 8.358
98.26000 3.954
98.28000 4.794
98.30000 7.041
98.32000 8.618
98.34000 7.463
98.36000 12.255
98.38000 11.984
98.40000 13.163
98.42000 2.766
98.44000 2.864
98.46000 7.814
98.48000 10.745
98.50000 10.778
98.52000 7.018
98.54000 2.253
98.56000 5.185
98.58000 11.396
98.60000 9.734
98.62000 9.474
98.64000 4.393
98.66000 6.117
98.68000 5.279
98.70000 10.587
98.72000 8.394
98.74000 10.104
98.76000 10.427
98.78000 11.872
98.80000 11.512
98.82000 11.846
98.84000 5.203
98.86000 10.784
98.88000 15.739
98.90000 8.400
98.92000 9.447
98.94000 7.897
98.96000 9.441
98.98000 4.489
99.00000 8.660
99.02000 7.284
99.04000 6.574
99.06000 3.125
99.08000 10.529
99.10000 14.836
99.12000 9.469
99.14000 4.902
99.16000 7.880
99.18000 8.508
99.20000 13.525
99.22000 11.552
99.24000 10.718
99.26000 10.918
99.28000 9.035
99.30000 6.663
99.32000 2.882
99.34000 11.100
99.36000 11.368
99.38000 8.604
99.40000 11.837
99.42000 6.177
99.44000 -1.860
99.46000 0.228
99.48000 10.610
99.50000 16.242
99.52000 12.825
99.54000 2.515
99.56000 4.477
99.58000 6.822
99.60000 11.446
99.62000 11.417
99.64000 11.269
99.66000 11.914
99.68000 5.404
99.70000 5.408
99.72000 1.818
99.74000 4.251
99.76000 15.115
99.78000 16.843
99.80000 7.812
99.82000 -0.103
99.84000 -2.008
99.86000 3.287
99.88000 1.503
99.90000 -2.035
99.92000 3.274
99.94000 8.956
99.96000 1.368
99.98000 0.000
