'Id: "0011387" Comment: "Integrate frame 0011387_Au-Ir-Rh_Rh-rich_XRD-Mapping-268-0000.gfrmwith cursor Wedge Cursor #5" Operator: "B?rgel" Anode: "Cu" Wavelength: "1.5406" Scantype: "2Theta (TwoTheta)" TimePerStep: "1" X: "-4.5" Y: "22.5" Z: "5.95" 
10.00000 0.000
10.02000 3.994
10.04000 -0.576
10.06000 8.676
10.08000 -5.766
10.10000 9.881
10.12000 16.968
10.14000 16.175
10.16000 19.004
10.18000 9.438
10.20000 -10.551
10.22000 9.499
10.24000 16.331
10.26000 17.715
10.28000 23.393
10.30000 41.634
10.32000 38.067
10.34000 16.920
10.36000 16.487
10.38000 28.271
10.40000 35.173
10.42000 37.111
10.44000 14.281
10.46000 11.686
10.48000 17.828
10.50000 14.739
10.52000 21.398
10.54000 20.313
10.56000 14.260
10.58000 9.330
10.60000 15.104
10.62000 16.578
10.64000 16.685
10.66000 21.614
10.68000 11.491
10.70000 7.607
10.72000 9.169
10.74000 18.091
10.76000 20.065
10.78000 16.664
10.80000 15.445
10.82000 8.632
10.84000 0.073
10.86000 8.102
10.88000 7.672
10.90000 23.983
10.92000 24.371
10.94000 20.775
10.96000 23.698
10.98000 31.356
11.00000 16.235
11.02000 16.946
11.04000 14.759
11.06000 15.073
11.08000 23.667
11.10000 26.971
11.12000 27.029
11.14000 15.817
11.16000 13.228
11.18000 16.455
11.20000 22.152
11.22000 42.033
11.24000 20.076
11.26000 2.883
11.28000 8.422
11.30000 -1.715
11.32000 6.590
11.34000 10.816
11.36000 5.117
11.38000 17.929
11.40000 13.214
11.42000 10.623
11.44000 20.356
11.46000 16.165
11.48000 3.654
11.50000 5.330
11.52000 5.544
11.54000 14.914
11.56000 11.497
11.58000 14.481
11.60000 17.357
11.62000 26.393
11.64000 22.334
11.66000 17.834
11.68000 19.187
11.70000 11.917
11.72000 8.536
11.74000 16.362
11.76000 16.675
11.78000 16.827
11.80000 8.702
11.82000 14.117
11.84000 18.127
11.86000 19.801
11.88000 16.948
11.90000 8.696
11.92000 11.829
11.94000 28.655
11.96000 22.568
11.98000 21.896
12.00000 26.418
12.02000 21.932
12.04000 9.074
12.06000 4.596
12.08000 -0.260
12.10000 -3.054
12.12000 3.824
12.14000 6.853
12.16000 14.777
12.18000 14.275
12.20000 16.803
12.22000 26.468
12.24000 25.263
12.26000 20.088
12.28000 17.853
12.30000 15.909
12.32000 14.292
12.34000 19.280
12.36000 16.441
12.38000 11.965
12.40000 12.946
12.42000 20.387
12.44000 17.555
12.46000 15.308
12.48000 22.731
12.50000 24.674
12.52000 8.448
12.54000 6.559
12.56000 14.417
12.58000 14.402
12.60000 20.006
12.62000 27.077
12.64000 20.690
12.66000 16.536
12.68000 14.700
12.70000 19.062
12.72000 15.118
12.74000 9.597
12.76000 10.082
12.78000 13.378
12.80000 10.616
12.82000 13.739
12.84000 17.983
12.86000 11.355
12.88000 9.034
12.90000 23.367
12.92000 30.424
12.94000 10.585
12.96000 7.026
12.98000 -1.364
13.00000 2.178
13.02000 8.677
13.04000 14.936
13.06000 24.864
13.08000 16.938
13.10000 9.393
13.12000 6.310
13.14000 18.082
13.16000 24.350
13.18000 12.102
13.20000 10.079
13.22000 11.552
13.24000 13.301
13.26000 16.861
13.28000 23.870
13.30000 18.551
13.32000 19.248
13.34000 16.153
13.36000 11.654
13.38000 16.602
13.40000 16.228
13.42000 10.461
13.44000 11.683
13.46000 6.732
13.48000 8.604
13.50000 14.473
13.52000 4.092
13.54000 7.039
13.56000 7.001
13.58000 18.756
13.60000 29.390
13.62000 17.977
13.64000 17.461
13.66000 12.024
13.68000 9.718
13.70000 6.378
13.72000 4.569
13.74000 10.757
13.76000 14.492
13.78000 7.055
13.80000 8.684
13.82000 4.356
13.84000 1.106
13.86000 8.138
13.88000 8.312
13.90000 -2.333
13.92000 1.520
13.94000 5.715
13.96000 5.568
13.98000 10.834
14.00000 8.673
14.02000 13.767
14.04000 10.927
14.06000 9.834
14.08000 13.713
14.10000 8.954
14.12000 12.547
14.14000 8.324
14.16000 4.039
14.18000 8.834
14.20000 10.072
14.22000 16.625
14.24000 14.976
14.26000 14.686
14.28000 2.587
14.30000 3.814
14.32000 4.608
14.34000 0.002
14.36000 3.579
14.38000 -0.772
14.40000 -4.479
14.42000 6.068
14.44000 0.190
14.46000 2.341
14.48000 10.684
14.50000 17.134
14.52000 9.287
14.54000 8.761
14.56000 11.430
14.58000 9.011
14.60000 11.352
14.62000 14.878
14.64000 9.924
14.66000 -3.616
14.68000 6.701
14.70000 8.767
14.72000 15.027
14.74000 13.827
14.76000 5.238
14.78000 -1.486
14.80000 -3.788
14.82000 -3.175
14.84000 5.807
14.86000 2.700
14.88000 10.891
14.90000 15.702
14.92000 14.380
14.94000 15.061
14.96000 12.314
14.98000 14.650
15.00000 10.716
15.02000 4.657
15.04000 -4.481
15.06000 4.137
15.08000 13.093
15.10000 7.655
15.12000 2.268
15.14000 1.907
15.16000 5.215
15.18000 13.758
15.20000 6.216
15.22000 -0.691
15.24000 8.735
15.26000 11.704
15.28000 5.749
15.30000 -1.012
15.32000 2.914
15.34000 8.823
15.36000 11.958
15.38000 12.425
15.40000 8.840
15.42000 0.601
15.44000 13.411
15.46000 19.117
15.48000 20.364
15.50000 13.362
15.52000 12.908
15.54000 5.898
15.56000 2.118
15.58000 3.294
15.60000 2.841
15.62000 7.190
15.64000 8.039
15.66000 11.867
15.68000 11.329
15.70000 9.107
15.72000 8.714
15.74000 11.072
15.76000 10.054
15.78000 10.496
15.80000 7.593
15.82000 3.779
15.84000 0.274
15.86000 1.033
15.88000 4.430
15.90000 3.949
15.92000 5.873
15.94000 6.222
15.96000 5.116
15.98000 8.684
16.00000 8.320
16.02000 5.973
16.04000 2.656
16.06000 -1.405
16.08000 -0.603
16.10000 -0.633
16.12000 7.399
16.14000 5.326
16.16000 4.667
16.18000 5.536
16.20000 6.326
16.22000 0.799
16.24000 5.664
16.26000 12.485
16.28000 5.634
16.30000 5.430
16.32000 1.235
16.34000 5.792
16.36000 15.080
16.38000 11.193
16.40000 5.354
16.42000 1.181
16.44000 10.213
16.46000 4.410
16.48000 2.173
16.50000 -4.428
16.52000 -1.160
16.54000 -3.682
16.56000 2.145
16.58000 4.641
16.60000 8.385
16.62000 5.216
16.64000 0.898
16.66000 1.706
16.68000 10.121
16.70000 17.657
16.72000 16.418
16.74000 12.498
16.76000 3.880
16.78000 5.214
16.80000 -1.224
16.82000 -1.571
16.84000 -1.823
16.86000 5.340
16.88000 7.850
16.90000 2.722
16.92000 -0.334
16.94000 5.359
16.96000 4.471
16.98000 11.040
17.00000 3.911
17.02000 7.588
17.04000 4.252
17.06000 4.685
17.08000 6.339
17.10000 17.082
17.12000 14.717
17.14000 8.377
17.16000 13.732
17.18000 17.205
17.20000 15.284
17.22000 11.980
17.24000 1.804
17.26000 3.325
17.28000 6.779
17.30000 10.172
17.32000 8.290
17.34000 0.241
17.36000 4.922
17.38000 18.765
17.40000 16.249
17.42000 14.162
17.44000 9.657
17.46000 7.447
17.48000 6.487
17.50000 7.056
17.52000 6.897
17.54000 10.107
17.56000 15.795
17.58000 14.708
17.60000 11.856
17.62000 11.795
17.64000 11.888
17.66000 11.858
17.68000 8.716
17.70000 10.144
17.72000 7.416
17.74000 3.101
17.76000 7.989
17.78000 8.269
17.80000 5.037
17.82000 0.984
17.84000 1.754
17.86000 -4.316
17.88000 7.199
17.90000 6.222
17.92000 10.014
17.94000 15.062
17.96000 5.682
17.98000 4.551
18.00000 9.568
18.02000 5.275
18.04000 5.519
18.06000 6.546
18.08000 9.569
18.10000 8.133
18.12000 11.318
18.14000 15.236
18.16000 11.263
18.18000 8.052
18.20000 9.843
18.22000 7.040
18.24000 11.981
18.26000 9.061
18.28000 0.042
18.30000 0.292
18.32000 2.880
18.34000 8.734
18.36000 10.337
18.38000 10.863
18.40000 13.271
18.42000 9.789
18.44000 6.869
18.46000 10.341
18.48000 7.502
18.50000 6.050
18.52000 0.406
18.54000 -1.278
18.56000 7.659
18.58000 7.095
18.60000 0.451
18.62000 3.011
18.64000 4.503
18.66000 4.666
18.68000 3.209
18.70000 5.058
18.72000 -0.462
18.74000 2.800
18.76000 -1.204
18.78000 3.170
18.80000 7.601
18.82000 6.370
18.84000 6.064
18.86000 0.661
18.88000 2.290
18.90000 5.687
18.92000 5.589
18.94000 6.576
18.96000 3.748
18.98000 5.979
19.00000 3.267
19.02000 3.341
19.04000 3.326
19.06000 4.724
19.08000 -0.173
19.10000 -4.285
19.12000 -2.368
19.14000 5.937
19.16000 13.333
19.18000 12.281
19.20000 5.198
19.22000 3.357
19.24000 3.355
19.26000 3.909
19.28000 5.842
19.30000 3.294
19.32000 2.718
19.34000 7.159
19.36000 7.925
19.38000 -2.561
19.40000 -4.272
19.42000 -1.621
19.44000 8.023
19.46000 6.571
19.48000 2.922
19.50000 6.758
19.52000 5.153
19.54000 10.655
19.56000 11.595
19.58000 9.291
19.60000 4.225
19.62000 3.782
19.64000 6.609
19.66000 4.941
19.68000 3.186
19.70000 -2.896
19.72000 2.033
19.74000 2.703
19.76000 -2.449
19.78000 -3.954
19.80000 -0.211
19.82000 4.656
19.84000 5.451
19.86000 3.879
19.88000 3.461
19.90000 0.596
19.92000 3.091
19.94000 9.072
19.96000 9.441
19.98000 -3.183
20.00000 -3.469
20.02000 1.778
20.04000 2.424
20.06000 -1.789
20.08000 1.260
20.10000 5.835
20.12000 3.078
20.14000 -2.000
20.16000 2.311
20.18000 6.089
20.20000 7.734
20.22000 3.813
20.24000 2.802
20.26000 0.806
20.28000 -0.983
20.30000 1.235
20.32000 -1.810
20.34000 2.346
20.36000 -0.381
20.38000 -2.791
20.40000 3.648
20.42000 3.808
20.44000 7.263
20.46000 1.831
20.48000 2.449
20.50000 1.890
20.52000 -1.528
20.54000 -4.052
20.56000 -1.859
20.58000 4.496
20.60000 8.625
20.62000 6.900
20.64000 1.601
20.66000 2.927
20.68000 1.270
20.70000 6.665
20.72000 10.031
20.74000 10.571
20.76000 3.681
20.78000 0.668
20.80000 -0.458
20.82000 4.883
20.84000 2.891
20.86000 1.215
20.88000 2.633
20.90000 7.004
20.92000 2.672
20.94000 2.218
20.96000 5.338
20.98000 2.633
21.00000 2.144
21.02000 1.380
21.04000 3.945
21.06000 8.358
21.08000 12.549
21.10000 4.118
21.12000 1.114
21.14000 3.722
21.16000 3.315
21.18000 3.491
21.20000 3.574
21.22000 6.397
21.24000 3.104
21.26000 0.390
21.28000 1.051
21.30000 8.011
21.32000 8.152
21.34000 -0.493
21.36000 -2.263
21.38000 2.962
21.40000 0.614
21.42000 6.585
21.44000 0.809
21.46000 -4.146
21.48000 1.719
21.50000 5.531
21.52000 3.703
21.54000 1.101
21.56000 2.489
21.58000 2.349
21.60000 1.542
21.62000 4.269
21.64000 5.732
21.66000 0.955
21.68000 2.725
21.70000 -0.414
21.72000 3.675
21.74000 6.161
21.76000 8.572
21.78000 2.746
21.80000 4.827
21.82000 5.008
21.84000 2.087
21.86000 3.594
21.88000 7.871
21.90000 7.877
21.92000 -0.752
21.94000 -0.413
21.96000 10.737
21.98000 5.143
22.00000 -3.146
22.02000 -0.941
22.04000 5.069
22.06000 10.142
22.08000 1.678
22.10000 3.173
22.12000 7.925
22.14000 7.523
22.16000 7.571
22.18000 6.594
22.20000 6.693
22.22000 6.348
22.24000 5.895
22.26000 8.125
22.28000 1.381
22.30000 0.983
22.32000 -1.588
22.34000 -2.417
22.36000 -0.134
22.38000 -1.131
22.40000 1.360
22.42000 1.333
22.44000 0.897
22.46000 5.398
22.48000 0.103
22.50000 0.423
22.52000 0.677
22.54000 3.500
22.56000 7.302
22.58000 7.824
22.60000 0.752
22.62000 2.035
22.64000 3.846
22.66000 0.043
22.68000 5.916
22.70000 3.441
22.72000 6.963
22.74000 5.623
22.76000 1.165
22.78000 2.829
22.80000 0.857
22.82000 4.089
22.84000 7.065
22.86000 1.538
22.88000 0.730
22.90000 -0.390
22.92000 -3.748
22.94000 -1.337
22.96000 0.231
22.98000 0.707
23.00000 1.924
23.02000 9.654
23.04000 16.890
23.06000 10.523
23.08000 5.950
23.10000 4.608
23.12000 7.580
23.14000 10.334
23.16000 7.270
23.18000 6.896
23.20000 7.020
23.22000 5.780
23.24000 5.638
23.26000 1.130
23.28000 -0.162
23.30000 2.063
23.32000 3.969
23.34000 -1.691
23.36000 1.111
23.38000 4.973
23.40000 3.520
23.42000 1.604
23.44000 -4.020
23.46000 -1.418
23.48000 3.928
23.50000 6.916
23.52000 5.388
23.54000 4.962
23.56000 -2.103
23.58000 4.850
23.60000 5.991
23.62000 2.006
23.64000 6.889
23.66000 7.362
23.68000 7.821
23.70000 8.103
23.72000 7.961
23.74000 1.368
23.76000 -3.407
23.78000 -2.927
23.80000 1.858
23.82000 4.670
23.84000 -0.412
23.86000 0.713
23.88000 1.020
23.90000 4.156
23.92000 5.880
23.94000 1.594
23.96000 3.239
23.98000 10.435
24.00000 9.258
24.02000 0.510
24.04000 0.317
24.06000 8.029
24.08000 10.593
24.10000 5.158
24.12000 0.297
24.14000 4.685
24.16000 2.065
24.18000 2.465
24.20000 4.994
24.22000 9.128
24.24000 8.243
24.26000 8.305
24.28000 2.491
24.30000 2.366
24.32000 -3.269
24.34000 -1.501
24.36000 4.890
24.38000 7.350
24.40000 5.308
24.42000 5.225
24.44000 0.601
24.46000 2.495
24.48000 1.323
24.50000 3.875
24.52000 11.234
24.54000 4.199
24.56000 2.696
24.58000 0.097
24.60000 0.290
24.62000 2.658
24.64000 0.116
24.66000 -2.609
24.68000 1.642
24.70000 0.059
24.72000 2.908
24.74000 2.137
24.76000 -0.063
24.78000 4.830
24.80000 4.248
24.82000 -0.359
24.84000 5.593
24.86000 11.925
24.88000 11.462
24.90000 6.131
24.92000 -1.789
24.94000 -3.364
24.96000 0.122
24.98000 3.345
25.00000 1.359
25.02000 -0.782
25.04000 2.408
25.06000 3.523
25.08000 2.993
25.10000 2.867
25.12000 -0.652
25.14000 1.984
25.16000 2.117
25.18000 -1.335
25.20000 -2.312
25.22000 1.937
25.24000 3.504
25.26000 3.033
25.28000 3.464
25.30000 2.151
25.32000 2.574
25.34000 2.366
25.36000 1.225
25.38000 3.400
25.40000 -0.496
25.42000 1.120
25.44000 9.755
25.46000 7.824
25.48000 7.507
25.50000 3.712
25.52000 1.625
25.54000 4.042
25.56000 7.219
25.58000 -1.161
25.60000 3.709
25.62000 10.159
25.64000 3.648
25.66000 -1.298
25.68000 -3.911
25.70000 -1.569
25.72000 0.285
25.74000 0.999
25.76000 1.619
25.78000 5.463
25.80000 8.938
25.82000 4.682
25.84000 1.969
25.86000 9.467
25.88000 5.431
25.90000 2.795
25.92000 1.615
25.94000 2.196
25.96000 7.732
25.98000 10.477
26.00000 11.936
26.02000 2.694
26.04000 -0.448
26.06000 1.396
26.08000 1.410
26.10000 4.649
26.12000 1.344
26.14000 3.254
26.16000 7.056
26.18000 4.478
26.20000 -1.833
26.22000 -1.563
26.24000 2.271
26.26000 3.999
26.28000 3.355
26.30000 1.731
26.32000 -0.500
26.34000 0.379
26.36000 7.236
26.38000 9.160
26.40000 1.542
26.42000 -3.889
26.44000 -0.343
26.46000 7.509
26.48000 5.488
26.50000 3.178
26.52000 3.551
26.54000 4.527
26.56000 3.531
26.58000 6.555
26.60000 11.486
26.62000 8.583
26.64000 0.556
26.66000 -1.121
26.68000 2.048
26.70000 1.803
26.72000 3.845
26.74000 2.612
26.76000 3.279
26.78000 5.895
26.80000 3.200
26.82000 -0.403
26.84000 -2.766
26.86000 3.891
26.88000 4.487
26.90000 1.255
26.92000 3.018
26.94000 2.635
26.96000 3.791
26.98000 7.179
27.00000 4.925
27.02000 3.918
27.04000 9.372
27.06000 9.137
27.08000 0.297
27.10000 -3.853
27.12000 -2.127
27.14000 0.452
27.16000 4.936
27.18000 0.555
27.20000 -2.860
27.22000 -3.846
27.24000 -1.281
27.26000 -1.837
27.28000 4.019
27.30000 3.661
27.32000 5.438
27.34000 4.084
27.36000 6.230
27.38000 2.864
27.40000 3.078
27.42000 4.757
27.44000 1.725
27.46000 -0.570
27.48000 0.313
27.50000 0.095
27.52000 -1.705
27.54000 -1.969
27.56000 -2.215
27.58000 -0.027
27.60000 1.226
27.62000 0.826
27.64000 0.815
27.66000 4.858
27.68000 9.393
27.70000 9.941
27.72000 8.893
27.74000 5.026
27.76000 5.136
27.78000 5.379
27.80000 1.716
27.82000 0.993
27.84000 0.472
27.86000 4.125
27.88000 4.467
27.90000 9.099
27.92000 2.389
27.94000 1.749
27.96000 1.653
27.98000 -1.158
28.00000 0.025
28.02000 3.554
28.04000 6.323
28.06000 9.184
28.08000 4.423
28.10000 3.873
28.12000 6.863
28.14000 3.877
28.16000 -0.838
28.18000 2.945
28.20000 3.323
28.22000 -1.119
28.24000 -2.610
28.26000 -2.381
28.28000 4.749
28.30000 5.654
28.32000 2.537
28.34000 -0.404
28.36000 1.192
28.38000 1.156
28.40000 4.224
28.42000 3.424
28.44000 -0.122
28.46000 2.030
28.48000 -0.079
28.50000 0.538
28.52000 4.319
28.54000 3.857
28.56000 1.644
28.58000 -2.470
28.60000 2.420
28.62000 2.860
28.64000 -3.763
28.66000 1.216
28.68000 6.837
28.70000 2.228
28.72000 -1.178
28.74000 2.000
28.76000 2.074
28.78000 -1.520
28.80000 0.841
28.82000 5.114
28.84000 -0.390
28.86000 5.168
28.88000 -1.651
28.90000 -2.796
28.92000 -3.749
28.94000 -3.372
28.96000 2.376
28.98000 3.390
29.00000 3.532
29.02000 2.597
29.04000 1.533
29.06000 5.749
29.08000 1.256
29.10000 3.886
29.12000 1.986
29.14000 0.940
29.16000 0.808
29.18000 0.438
29.20000 1.016
29.22000 3.041
29.24000 0.248
29.26000 2.748
29.28000 2.298
29.30000 0.118
29.32000 1.066
29.34000 0.370
29.36000 -0.629
29.38000 -0.976
29.40000 4.725
29.42000 0.991
29.44000 2.255
29.46000 6.867
29.48000 2.796
29.50000 0.825
29.52000 1.575
29.54000 1.142
29.56000 0.167
29.58000 4.492
29.60000 6.904
29.62000 9.157
29.64000 1.981
29.66000 2.889
29.68000 2.238
29.70000 -0.736
29.72000 0.806
29.74000 -1.851
29.76000 -1.352
29.78000 0.372
29.80000 1.379
29.82000 0.220
29.84000 3.066
29.86000 2.604
29.88000 1.751
29.90000 1.020
29.92000 2.368
29.94000 4.891
29.96000 2.275
29.98000 2.818
30.00000 4.885
30.02000 -1.129
30.04000 -0.213
30.06000 3.188
30.08000 4.340
30.10000 3.675
30.12000 4.685
30.14000 5.931
30.16000 5.771
30.18000 1.134
30.20000 6.955
30.22000 0.830
30.24000 -3.611
30.26000 2.701
30.28000 -1.053
30.30000 -2.864
30.32000 -0.519
30.34000 1.557
30.36000 -1.105
30.38000 3.908
30.40000 8.287
30.42000 9.743
30.44000 4.245
30.46000 -1.984
30.48000 1.112
30.50000 4.108
30.52000 4.901
30.54000 3.508
30.56000 -2.228
30.58000 -3.306
30.60000 -2.892
30.62000 -3.654
30.64000 3.965
30.66000 5.300
30.68000 -0.787
30.70000 4.126
30.72000 3.910
30.74000 1.746
30.76000 -2.074
30.78000 7.690
30.80000 1.013
30.82000 0.212
30.84000 7.801
30.86000 11.488
30.88000 5.472
30.90000 4.075
30.92000 1.438
30.94000 4.003
30.96000 6.415
30.98000 4.608
31.00000 3.082
31.02000 4.434
31.04000 -0.439
31.06000 0.766
31.08000 0.338
31.10000 -1.636
31.12000 1.132
31.14000 1.580
31.16000 1.731
31.18000 2.620
31.20000 2.692
31.22000 9.079
31.24000 7.496
31.26000 2.449
31.28000 0.160
31.30000 3.000
31.32000 8.030
31.34000 3.986
31.36000 -2.515
31.38000 -0.587
31.40000 0.915
31.42000 6.060
31.44000 4.029
31.46000 2.531
31.48000 -3.630
31.50000 0.338
31.52000 -1.449
31.54000 -3.398
31.56000 -1.351
31.58000 -0.129
31.60000 0.876
31.62000 -0.684
31.64000 0.572
31.66000 1.604
31.68000 1.299
31.70000 3.046
31.72000 4.984
31.74000 7.396
31.76000 6.796
31.78000 7.697
31.80000 3.354
31.82000 -2.451
31.84000 -0.745
31.86000 0.630
31.88000 1.799
31.90000 0.084
31.92000 1.123
31.94000 5.148
31.96000 2.257
31.98000 4.136
32.00000 2.760
32.02000 -0.940
32.04000 -0.709
32.06000 1.011
32.08000 0.067
32.10000 -0.084
32.12000 7.308
32.14000 5.156
32.16000 0.372
32.18000 3.743
32.20000 5.602
32.22000 1.700
32.24000 1.350
32.26000 0.249
32.28000 3.011
32.30000 0.672
32.32000 -0.914
32.34000 4.256
32.36000 2.399
32.38000 1.389
32.40000 2.291
32.42000 2.168
32.44000 -2.154
32.46000 0.625
32.48000 0.090
32.50000 -0.729
32.52000 -1.500
32.54000 3.017
32.56000 1.802
32.58000 2.264
32.60000 1.145
32.62000 -3.373
32.64000 -1.410
32.66000 -0.737
32.68000 2.100
32.70000 -1.196
32.72000 -2.191
32.74000 -0.116
32.76000 1.711
32.78000 2.291
32.80000 2.158
32.82000 2.317
32.84000 -0.932
32.86000 1.974
32.88000 1.179
32.90000 2.301
32.92000 0.322
32.94000 -3.607
32.96000 -0.865
32.98000 2.341
33.00000 0.116
33.02000 -3.220
33.04000 -1.176
33.06000 -0.840
33.08000 2.936
33.10000 2.894
33.12000 -2.018
33.14000 -2.260
33.16000 2.742
33.18000 -0.966
33.20000 -1.344
33.22000 4.562
33.24000 2.082
33.26000 0.855
33.28000 -3.600
33.30000 -1.053
33.32000 -0.396
33.34000 1.360
33.36000 6.135
33.38000 7.163
33.40000 9.723
33.42000 5.094
33.44000 1.848
33.46000 1.445
33.48000 2.934
33.50000 2.453
33.52000 -2.613
33.54000 -0.792
33.56000 1.379
33.58000 -0.048
33.60000 4.477
33.62000 7.691
33.64000 3.567
33.66000 -1.377
33.68000 2.488
33.70000 2.597
33.72000 1.202
33.74000 0.743
33.76000 1.523
33.78000 2.207
33.80000 4.369
33.82000 3.207
33.84000 1.318
33.86000 0.906
33.88000 -2.836
33.90000 2.023
33.92000 3.245
33.94000 -1.767
33.96000 -2.561
33.98000 1.633
34.00000 0.099
34.02000 1.841
34.04000 2.635
34.06000 3.635
34.08000 1.499
34.10000 0.958
34.12000 0.707
34.14000 0.873
34.16000 1.402
34.18000 3.094
34.20000 1.073
34.22000 0.607
34.24000 1.865
34.26000 4.435
34.28000 3.697
34.30000 -2.862
34.32000 1.780
34.34000 8.003
34.36000 0.879
34.38000 -1.976
34.40000 0.679
34.42000 2.814
34.44000 -0.846
34.46000 1.902
34.48000 1.130
34.50000 -3.012
34.52000 -1.834
34.54000 -0.725
34.56000 4.200
34.58000 5.031
34.60000 0.305
34.62000 -0.814
34.64000 1.887
34.66000 4.079
34.68000 1.828
34.70000 -3.225
34.72000 3.278
34.74000 4.728
34.76000 2.565
34.78000 -0.137
34.80000 0.410
34.82000 -2.085
34.84000 -1.369
34.86000 -0.101
34.88000 0.225
34.90000 6.647
34.92000 4.043
34.94000 6.354
34.96000 3.292
34.98000 3.062
35.00000 0.506
35.02000 3.118
35.04000 -2.800
35.06000 1.165
35.08000 2.130
35.10000 4.402
35.12000 5.163
35.14000 2.548
35.16000 0.801
35.18000 -2.403
35.20000 1.774
35.22000 1.731
35.24000 1.919
35.26000 4.527
35.28000 4.101
35.30000 6.317
35.32000 9.620
35.34000 7.673
35.36000 -1.314
35.38000 -3.517
35.40000 -2.256
35.42000 0.158
35.44000 2.359
35.46000 0.430
35.48000 1.257
35.50000 2.497
35.52000 3.548
35.54000 4.056
35.56000 4.569
35.58000 5.462
35.60000 6.850
35.62000 9.531
35.64000 4.079
35.66000 5.698
35.68000 4.702
35.70000 2.188
35.72000 5.549
35.74000 6.737
35.76000 5.767
35.78000 2.114
35.80000 3.241
35.82000 -0.488
35.84000 1.873
35.86000 3.279
35.88000 0.804
35.90000 -1.272
35.92000 1.254
35.94000 2.622
35.96000 0.397
35.98000 2.428
36.00000 4.628
36.02000 3.687
36.04000 2.593
36.06000 3.088
36.08000 -1.921
36.10000 2.640
36.12000 0.674
36.14000 -0.199
36.16000 2.932
36.18000 2.292
36.20000 3.414
36.22000 5.599
36.24000 3.017
36.26000 0.636
36.28000 1.220
36.30000 1.815
36.32000 5.915
36.34000 6.942
36.36000 6.669
36.38000 5.942
36.40000 7.185
36.42000 -0.398
36.44000 -3.534
36.46000 0.444
36.48000 5.482
36.50000 5.455
36.52000 0.957
36.54000 2.832
36.56000 3.642
36.58000 9.597
36.60000 3.917
36.62000 -0.801
36.64000 1.038
36.66000 3.993
36.68000 1.190
36.70000 3.662
36.72000 3.059
36.74000 2.151
36.76000 2.237
36.78000 2.384
36.80000 2.355
36.82000 0.161
36.84000 0.641
36.86000 1.521
36.88000 -0.641
36.90000 -2.533
36.92000 -0.961
36.94000 0.864
36.96000 4.820
36.98000 0.065
37.00000 -0.761
37.02000 -1.545
37.04000 0.187
37.06000 -3.595
37.08000 -1.647
37.10000 -1.667
37.12000 -0.509
37.14000 -2.713
37.16000 1.289
37.18000 3.945
37.20000 1.823
37.22000 -2.816
37.24000 0.468
37.26000 5.793
37.28000 1.184
37.30000 -1.035
37.32000 -0.579
37.34000 0.754
37.36000 1.278
37.38000 3.374
37.40000 2.269
37.42000 4.859
37.44000 5.504
37.46000 7.418
37.48000 5.283
37.50000 0.127
37.52000 0.085
37.54000 1.172
37.56000 0.660
37.58000 0.362
37.60000 0.394
37.62000 2.086
37.64000 6.353
37.66000 4.071
37.68000 -2.697
37.70000 5.268
37.72000 11.941
37.74000 8.038
37.76000 8.599
37.78000 9.842
37.80000 6.420
37.82000 9.204
37.84000 11.133
37.86000 11.885
37.88000 9.395
37.90000 4.490
37.92000 6.624
37.94000 9.195
37.96000 12.171
37.98000 15.355
38.00000 14.104
38.02000 10.407
38.04000 7.599
38.06000 7.634
38.08000 9.819
38.10000 12.131
38.12000 16.439
38.14000 17.565
38.16000 16.921
38.18000 15.375
38.20000 17.206
38.22000 19.617
38.24000 20.894
38.26000 19.346
38.28000 21.922
38.30000 27.422
38.32000 20.857
38.34000 19.391
38.36000 18.284
38.38000 24.376
38.40000 25.397
38.42000 24.946
38.44000 28.228
38.46000 29.178
38.48000 26.705
38.50000 30.198
38.52000 24.645
38.54000 28.574
38.56000 32.320
38.58000 32.703
38.60000 31.012
38.62000 30.854
38.64000 34.783
38.66000 32.920
38.68000 39.715
38.70000 37.325
38.72000 37.427
38.74000 40.883
38.76000 40.319
38.78000 46.009
38.80000 48.872
38.82000 45.721
38.84000 47.928
38.86000 51.364
38.88000 54.238
38.90000 56.597
38.92000 57.633
38.94000 59.678
38.96000 60.525
38.98000 63.455
39.00000 71.669
39.02000 69.978
39.04000 75.435
39.06000 74.739
39.08000 76.730
39.10000 84.452
39.12000 90.308
39.14000 90.736
39.16000 93.123
39.18000 101.242
39.20000 106.437
39.22000 110.536
39.24000 115.968
39.26000 118.663
39.28000 125.030
39.30000 133.354
39.32000 134.635
39.34000 140.516
39.36000 144.209
39.38000 160.769
39.40000 170.426
39.42000 174.634
39.44000 180.381
39.46000 194.888
39.48000 205.616
39.50000 214.936
39.52000 234.304
39.54000 247.664
39.56000 249.982
39.58000 266.297
39.60000 281.237
39.62000 296.308
39.64000 303.567
39.66000 318.164
39.68000 336.644
39.70000 361.444
39.72000 380.188
39.74000 390.577
39.76000 407.122
39.78000 431.227
39.80000 448.677
39.82000 465.377
39.84000 490.864
39.86000 507.436
39.88000 528.081
39.90000 558.875
39.92000 576.059
39.94000 594.169
39.96000 607.989
39.98000 623.254
40.00000 633.742
40.02000 645.121
40.04000 653.433
40.06000 665.980
40.08000 674.333
40.10000 680.803
40.12000 681.649
40.14000 673.417
40.16000 678.072
40.18000 667.070
40.20000 663.217
40.22000 668.192
40.24000 662.151
40.26000 654.143
40.28000 643.434
40.30000 632.954
40.32000 615.311
40.34000 593.535
40.36000 578.255
40.38000 559.361
40.40000 543.466
40.42000 533.911
40.44000 511.798
40.46000 491.151
40.48000 462.159
40.50000 437.010
40.52000 422.040
40.54000 409.758
40.56000 393.922
40.58000 367.708
40.60000 353.823
40.62000 336.835
40.64000 319.303
40.66000 311.160
40.68000 298.700
40.70000 278.515
40.72000 254.714
40.74000 243.968
40.76000 236.818
40.78000 223.293
40.80000 211.302
40.82000 198.323
40.84000 192.025
40.86000 174.680
40.88000 163.514
40.90000 160.108
40.92000 154.394
40.94000 147.408
40.96000 138.498
40.98000 127.612
41.00000 120.425
41.02000 110.215
41.04000 105.582
41.06000 99.613
41.08000 93.383
41.10000 86.047
41.12000 79.116
41.14000 77.434
41.16000 76.269
41.18000 74.547
41.20000 70.071
41.22000 70.758
41.24000 59.596
41.26000 49.223
41.28000 45.348
41.30000 48.371
41.32000 49.773
41.34000 50.927
41.36000 46.362
41.38000 39.768
41.40000 35.169
41.42000 33.348
41.44000 37.225
41.46000 30.093
41.48000 28.218
41.50000 31.910
41.52000 34.495
41.54000 22.434
41.56000 25.495
41.58000 22.121
41.60000 18.683
41.62000 15.555
41.64000 20.575
41.66000 24.136
41.68000 22.692
41.70000 21.386
41.72000 19.435
41.74000 15.920
41.76000 14.151
41.78000 14.109
41.80000 11.404
41.82000 14.052
41.84000 11.907
41.86000 11.989
41.88000 11.119
41.90000 14.321
41.92000 11.642
41.94000 5.646
41.96000 6.581
41.98000 1.839
42.00000 3.326
42.02000 4.211
42.04000 3.941
42.06000 5.906
42.08000 5.072
42.10000 3.414
42.12000 3.141
42.14000 5.635
42.16000 5.049
42.18000 3.762
42.20000 4.531
42.22000 4.810
42.24000 1.468
42.26000 1.429
42.28000 1.436
42.30000 0.278
42.32000 1.194
42.34000 1.203
42.36000 -2.126
42.38000 0.979
42.40000 -0.390
42.42000 0.639
42.44000 1.165
42.46000 1.092
42.48000 2.950
42.50000 -0.623
42.52000 -0.445
42.54000 1.687
42.56000 1.715
42.58000 2.164
42.60000 3.111
42.62000 1.407
42.64000 -1.515
42.66000 1.321
42.68000 2.597
42.70000 2.012
42.72000 3.562
42.74000 0.251
42.76000 0.714
42.78000 2.833
42.80000 2.352
42.82000 3.417
42.84000 0.979
42.86000 -0.736
42.88000 -3.464
42.90000 -2.296
42.92000 1.147
42.94000 1.822
42.96000 0.351
42.98000 0.818
43.00000 0.911
43.02000 -2.006
43.04000 -0.303
43.06000 1.400
43.08000 -1.886
43.10000 -3.431
43.12000 -2.945
43.14000 -1.882
43.16000 2.694
43.18000 0.301
43.20000 1.627
43.22000 -2.705
43.24000 -0.344
43.26000 2.927
43.28000 3.628
43.30000 2.390
43.32000 2.838
43.34000 0.578
43.36000 2.976
43.38000 1.266
43.40000 -3.389
43.42000 -0.213
43.44000 1.289
43.46000 -0.901
43.48000 1.767
43.50000 0.815
43.52000 0.316
43.54000 -1.170
43.56000 -0.227
43.58000 3.272
43.60000 0.631
43.62000 0.540
43.64000 -0.788
43.66000 1.699
43.68000 0.878
43.70000 2.679
43.72000 4.748
43.74000 6.205
43.76000 2.295
43.78000 0.269
43.80000 -0.173
43.82000 2.463
43.84000 -1.954
43.86000 0.155
43.88000 0.691
43.90000 0.100
43.92000 -3.368
43.94000 -2.363
43.96000 -1.927
43.98000 1.522
44.00000 0.123
44.02000 4.372
44.04000 5.564
44.06000 1.420
44.08000 0.432
44.10000 2.092
44.12000 -2.618
44.14000 -3.362
44.16000 1.342
44.18000 0.001
44.20000 -0.373
44.22000 0.796
44.24000 0.652
44.26000 -1.042
44.28000 -1.165
44.30000 -0.137
44.32000 -2.808
44.34000 0.233
44.36000 -0.234
44.38000 -0.265
44.40000 0.581
44.42000 2.916
44.44000 1.442
44.46000 1.617
44.48000 -3.358
44.50000 0.118
44.52000 2.016
44.54000 0.458
44.56000 0.176
44.58000 5.630
44.60000 2.641
44.62000 4.948
44.64000 5.651
44.66000 1.783
44.68000 0.811
44.70000 0.870
44.72000 2.759
44.74000 3.311
44.76000 3.112
44.78000 4.823
44.80000 5.247
44.82000 3.301
44.84000 1.708
44.86000 3.442
44.88000 5.487
44.90000 4.125
44.92000 6.601
44.94000 2.939
44.96000 5.164
44.98000 6.951
45.00000 5.403
45.02000 6.937
45.04000 11.037
45.06000 7.189
45.08000 6.284
45.10000 5.806
45.12000 3.280
45.14000 5.607
45.16000 12.441
45.18000 15.463
45.20000 11.742
45.22000 10.451
45.24000 14.259
45.26000 11.487
45.28000 8.957
45.30000 7.693
45.32000 7.506
45.34000 8.159
45.36000 13.473
45.38000 14.463
45.40000 16.310
45.42000 15.954
45.44000 14.471
45.46000 14.556
45.48000 15.040
45.50000 15.007
45.52000 15.982
45.54000 22.293
45.56000 21.291
45.58000 23.348
45.60000 26.464
45.62000 29.248
45.64000 28.541
45.66000 25.453
45.68000 26.584
45.70000 28.230
45.72000 33.654
45.74000 36.525
45.76000 38.661
45.78000 28.786
45.80000 33.181
45.82000 32.191
45.84000 34.359
45.86000 35.843
45.88000 36.117
45.90000 35.440
45.92000 38.450
45.94000 46.835
45.96000 45.042
45.98000 41.887
46.00000 46.694
46.02000 52.793
46.04000 54.667
46.06000 57.370
46.08000 66.158
46.10000 66.270
46.12000 61.590
46.14000 60.081
46.16000 64.820
46.18000 68.035
46.20000 67.848
46.22000 69.914
46.24000 73.374
46.26000 75.327
46.28000 74.823
46.30000 79.433
46.32000 80.415
46.34000 82.775
46.36000 87.044
46.38000 90.226
46.40000 94.179
46.42000 102.899
46.44000 100.083
46.46000 102.235
46.48000 103.422
46.50000 103.444
46.52000 104.886
46.54000 104.575
46.56000 102.540
46.58000 104.410
46.60000 105.897
46.62000 111.272
46.64000 119.444
46.66000 113.679
46.68000 115.901
46.70000 124.862
46.72000 123.308
46.74000 123.101
46.76000 123.956
46.78000 125.449
46.80000 119.256
46.82000 121.798
46.84000 123.294
46.86000 119.823
46.88000 118.533
46.90000 120.010
46.92000 124.904
46.94000 122.118
46.96000 117.872
46.98000 124.168
47.00000 117.891
47.02000 115.199
47.04000 110.332
47.06000 106.640
47.08000 112.932
47.10000 107.418
47.12000 107.781
47.14000 105.019
47.16000 101.302
47.18000 99.004
47.20000 98.482
47.22000 92.737
47.24000 86.140
47.26000 80.210
47.28000 80.561
47.30000 76.871
47.32000 77.460
47.34000 77.560
47.36000 76.046
47.38000 69.729
47.40000 65.213
47.42000 56.031
47.44000 57.049
47.46000 51.266
47.48000 48.183
47.50000 50.111
47.52000 52.317
47.54000 53.007
47.56000 52.216
47.58000 47.278
47.60000 43.045
47.62000 36.776
47.64000 39.845
47.66000 35.099
47.68000 33.282
47.70000 33.197
47.72000 29.068
47.74000 24.639
47.76000 19.188
47.78000 20.831
47.80000 24.483
47.82000 23.182
47.84000 21.235
47.86000 22.493
47.88000 18.850
47.90000 12.912
47.92000 11.562
47.94000 14.835
47.96000 14.848
47.98000 16.492
48.00000 17.896
48.02000 16.456
48.04000 11.982
48.06000 12.905
48.08000 13.320
48.10000 10.715
48.12000 10.820
48.14000 8.701
48.16000 11.868
48.18000 7.232
48.20000 5.887
48.22000 7.292
48.24000 6.113
48.26000 3.474
48.28000 4.109
48.30000 1.922
48.32000 0.706
48.34000 5.689
48.36000 7.325
48.38000 3.346
48.40000 -1.182
48.42000 -1.378
48.44000 3.554
48.46000 2.386
48.48000 4.717
48.50000 -2.061
48.52000 -1.003
48.54000 4.490
48.56000 6.471
48.58000 -1.310
48.60000 2.553
48.62000 4.659
48.64000 1.027
48.66000 0.018
48.68000 -1.800
48.70000 -1.148
48.72000 -2.397
48.74000 -1.306
48.76000 1.927
48.78000 5.313
48.80000 7.214
48.82000 0.382
48.84000 -1.612
48.86000 -1.648
48.88000 1.007
48.90000 -2.086
48.92000 -2.916
48.94000 -2.436
48.96000 -0.204
48.98000 2.519
49.00000 2.823
49.02000 3.058
49.04000 3.592
49.06000 4.479
49.08000 5.283
49.10000 2.774
49.12000 -0.858
49.14000 3.552
49.16000 2.378
49.18000 1.024
49.20000 0.248
49.22000 -0.789
49.24000 -2.532
49.26000 -2.868
49.28000 -1.482
49.30000 -2.440
49.32000 -1.231
49.34000 4.746
49.36000 4.909
49.38000 5.736
49.40000 2.395
49.42000 -0.406
49.44000 2.591
49.46000 0.533
49.48000 1.471
49.50000 -1.670
49.52000 -0.754
49.54000 0.766
49.56000 1.026
49.58000 3.566
49.60000 -0.025
49.62000 1.824
49.64000 5.354
49.66000 4.046
49.68000 3.717
49.70000 2.870
49.72000 0.542
49.74000 1.222
49.76000 -2.461
49.78000 1.282
49.80000 4.191
49.82000 4.250
49.84000 2.527
49.86000 2.287
49.88000 5.207
49.90000 3.077
49.92000 1.112
49.94000 4.673
49.96000 6.162
49.98000 5.911
50.00000 10.063
50.02000 4.522
50.04000 -0.877
50.06000 0.975
50.08000 3.627
50.10000 0.175
50.12000 -0.979
50.14000 5.027
50.16000 6.678
50.18000 2.498
50.20000 1.904
50.22000 9.352
50.24000 11.012
50.26000 3.616
50.28000 -0.025
50.30000 0.996
50.32000 4.305
50.34000 8.088
50.36000 9.707
50.38000 6.913
50.40000 8.384
50.42000 1.327
50.44000 -2.670
50.46000 2.888
50.48000 4.215
50.50000 1.544
50.52000 3.595
50.54000 3.367
50.56000 7.600
50.58000 9.674
50.60000 13.601
50.62000 9.401
50.64000 5.339
50.66000 6.567
50.68000 2.042
50.70000 2.756
50.72000 6.841
50.74000 5.801
50.76000 6.183
50.78000 10.131
50.80000 8.316
50.82000 7.801
50.84000 2.510
50.86000 -0.023
50.88000 3.403
50.90000 7.560
50.92000 8.289
50.94000 6.520
50.96000 6.815
50.98000 9.490
51.00000 8.733
51.02000 8.641
51.04000 7.515
51.06000 5.714
51.08000 5.794
51.10000 2.557
51.12000 6.133
51.14000 4.952
51.16000 5.082
51.18000 4.796
51.20000 5.809
51.22000 1.601
51.24000 2.255
51.26000 3.005
51.28000 0.954
51.30000 4.207
51.32000 6.662
51.34000 3.500
51.36000 3.705
51.38000 4.967
51.40000 6.510
51.42000 2.986
51.44000 2.951
51.46000 5.497
51.48000 4.251
51.50000 8.094
51.52000 4.142
51.54000 2.409
51.56000 2.029
51.58000 1.728
51.60000 1.936
51.62000 4.971
51.64000 10.037
51.66000 8.755
51.68000 7.581
51.70000 4.817
51.72000 4.398
51.74000 -0.405
51.76000 3.865
51.78000 3.791
51.80000 4.802
51.82000 8.068
51.84000 9.860
51.86000 6.142
51.88000 3.900
51.90000 1.484
51.92000 0.627
51.94000 2.377
51.96000 -0.414
51.98000 1.004
52.00000 8.164
52.02000 6.780
52.04000 1.593
52.06000 2.882
52.08000 1.752
52.10000 -2.661
52.12000 -0.363
52.14000 -0.301
52.16000 0.790
52.18000 3.667
52.20000 6.385
52.22000 6.508
52.24000 5.464
52.26000 4.259
52.28000 2.415
52.30000 4.112
52.32000 8.015
52.34000 7.262
52.36000 6.063
52.38000 6.272
52.40000 4.385
52.42000 1.169
52.44000 4.308
52.46000 7.515
52.48000 5.477
52.50000 7.004
52.52000 3.550
52.54000 6.438
52.56000 5.544
52.58000 1.670
52.60000 5.134
52.62000 5.694
52.64000 1.557
52.66000 5.410
52.68000 3.680
52.70000 2.963
52.72000 5.166
52.74000 4.798
52.76000 4.959
52.78000 5.039
52.80000 5.202
52.82000 3.837
52.84000 3.103
52.86000 5.413
52.88000 6.198
52.90000 8.922
52.92000 5.232
52.94000 1.160
52.96000 0.139
52.98000 5.635
53.00000 8.003
53.02000 3.789
53.04000 -0.662
53.06000 5.586
53.08000 5.453
53.10000 0.520
53.12000 5.285
53.14000 7.585
53.16000 8.644
53.18000 6.834
53.20000 10.426
53.22000 10.633
53.24000 7.677
53.26000 1.376
53.28000 -2.541
53.30000 0.831
53.32000 4.599
53.34000 7.012
53.36000 7.418
53.38000 7.637
53.40000 7.858
53.42000 7.799
53.44000 8.215
53.46000 12.523
53.48000 9.405
53.50000 9.994
53.52000 10.167
53.54000 10.716
53.56000 7.079
53.58000 5.596
53.60000 7.700
53.62000 4.676
53.64000 7.135
53.66000 7.933
53.68000 7.451
53.70000 7.001
53.72000 5.498
53.74000 7.364
53.76000 6.844
53.78000 6.748
53.80000 4.777
53.82000 3.733
53.84000 5.723
53.86000 5.014
53.88000 4.955
53.90000 6.295
53.92000 4.022
53.94000 6.252
53.96000 5.437
53.98000 7.733
54.00000 5.153
54.02000 4.116
54.04000 2.437
54.06000 4.368
54.08000 6.204
54.10000 5.347
54.12000 5.206
54.14000 1.806
54.16000 0.668
54.18000 0.441
54.20000 4.796
54.22000 6.388
54.24000 0.961
54.26000 1.416
54.28000 2.958
54.30000 6.406
54.32000 0.831
54.34000 -0.064
54.36000 3.576
54.38000 6.084
54.40000 7.477
54.42000 7.749
54.44000 6.302
54.46000 5.850
54.48000 6.253
54.50000 6.151
54.52000 2.794
54.54000 2.034
54.56000 2.299
54.58000 5.179
54.60000 3.391
54.62000 2.983
54.64000 1.352
54.66000 -2.584
54.68000 -0.456
54.70000 5.903
54.72000 2.694
54.74000 0.707
54.76000 2.820
54.78000 4.399
54.80000 3.917
54.82000 3.242
54.84000 4.480
54.86000 5.549
54.88000 5.418
54.90000 3.450
54.92000 2.999
54.94000 -2.055
54.96000 1.306
54.98000 -0.752
55.00000 -0.446
55.02000 -2.200
55.04000 -2.484
55.06000 1.098
55.08000 3.116
55.10000 3.537
55.12000 5.050
55.14000 6.147
55.16000 5.274
55.18000 4.001
55.20000 2.117
55.22000 1.777
55.24000 0.498
55.26000 4.095
55.28000 6.927
55.30000 1.424
55.32000 0.987
55.34000 0.888
55.36000 1.355
55.38000 3.462
55.40000 5.242
55.42000 2.283
55.44000 -1.705
55.46000 -1.551
55.48000 0.807
55.50000 0.742
55.52000 0.206
55.54000 1.175
55.56000 0.556
55.58000 1.676
55.60000 1.945
55.62000 3.680
55.64000 5.215
55.66000 4.128
55.68000 -1.484
55.70000 1.910
55.72000 4.811
55.74000 6.439
55.76000 4.337
55.78000 4.545
55.80000 3.938
55.82000 3.276
55.84000 2.128
55.86000 0.389
55.88000 0.105
55.90000 -2.097
55.92000 0.336
55.94000 4.952
55.96000 6.520
55.98000 9.071
56.00000 6.671
56.02000 3.288
56.04000 2.041
56.06000 2.862
56.08000 2.417
56.10000 2.301
56.12000 3.013
56.14000 3.478
56.16000 0.236
56.18000 4.296
56.20000 10.141
56.22000 6.086
56.24000 4.556
56.26000 1.057
56.28000 0.920
56.30000 -1.401
56.32000 -2.537
56.34000 1.026
56.36000 4.414
56.38000 6.952
56.40000 3.740
56.42000 3.885
56.44000 5.157
56.46000 2.524
56.48000 1.697
56.50000 -0.520
56.52000 1.051
56.54000 1.359
56.56000 2.684
56.58000 2.540
56.60000 3.822
56.62000 1.425
56.64000 0.775
56.66000 -0.718
56.68000 0.755
56.70000 3.185
56.72000 1.491
56.74000 6.250
56.76000 5.727
56.78000 3.333
56.80000 0.367
56.82000 2.248
56.84000 2.346
56.86000 3.642
56.88000 5.744
56.90000 2.614
56.92000 2.871
56.94000 6.259
56.96000 6.027
56.98000 3.353
57.00000 2.203
57.02000 1.498
57.04000 1.624
57.06000 5.934
57.08000 1.936
57.10000 -1.379
57.12000 -0.669
57.14000 3.355
57.16000 5.903
57.18000 5.979
57.20000 2.996
57.22000 -2.496
57.24000 -0.444
57.26000 0.371
57.28000 2.764
57.30000 1.286
57.32000 2.870
57.34000 1.598
57.36000 0.402
57.38000 2.142
57.40000 3.230
57.42000 3.462
57.44000 4.240
57.46000 5.431
57.48000 4.669
57.50000 5.237
57.52000 5.650
57.54000 4.570
57.56000 3.624
57.58000 4.666
57.60000 1.142
57.62000 1.751
57.64000 4.695
57.66000 6.889
57.68000 7.917
57.70000 5.546
57.72000 2.364
57.74000 2.669
57.76000 4.802
57.78000 1.783
57.80000 2.690
57.82000 3.420
57.84000 3.720
57.86000 5.045
57.88000 5.094
57.90000 6.869
57.92000 8.197
57.94000 10.607
57.96000 11.576
57.98000 8.553
58.00000 4.331
58.02000 6.700
58.04000 7.742
58.06000 8.158
58.08000 8.051
58.10000 6.303
58.12000 5.094
58.14000 1.309
58.16000 4.458
58.18000 9.184
58.20000 6.697
58.22000 6.937
58.24000 3.209
58.26000 5.757
58.28000 6.663
58.30000 4.996
58.32000 4.430
58.34000 10.930
58.36000 9.881
58.38000 2.422
58.40000 -2.409
58.42000 4.674
58.44000 8.780
58.46000 10.366
58.48000 10.949
58.50000 6.782
58.52000 6.313
58.54000 2.727
58.56000 6.076
58.58000 6.392
58.60000 4.584
58.62000 5.530
58.64000 9.827
58.66000 8.845
58.68000 5.965
58.70000 6.009
58.72000 6.254
58.74000 9.227
58.76000 2.325
58.78000 3.523
58.80000 0.573
58.82000 0.811
58.84000 4.175
58.86000 4.916
58.88000 8.475
58.90000 5.519
58.92000 7.740
58.94000 9.677
58.96000 3.621
58.98000 1.627
59.00000 1.830
59.02000 2.162
59.04000 8.184
59.06000 5.409
59.08000 4.215
59.10000 5.047
59.12000 4.050
59.14000 5.236
59.16000 6.768
59.18000 3.250
59.20000 1.697
59.22000 2.827
59.24000 1.535
59.26000 3.224
59.28000 0.813
59.30000 0.946
59.32000 5.615
59.34000 1.949
59.36000 0.559
59.38000 0.278
59.40000 1.885
59.42000 5.060
59.44000 6.270
59.46000 4.619
59.48000 1.506
59.50000 1.300
59.52000 2.460
59.54000 6.127
59.56000 5.791
59.58000 1.385
59.60000 2.538
59.62000 3.667
59.64000 5.307
59.66000 2.043
59.68000 8.139
59.70000 6.282
59.72000 3.194
59.74000 1.420
59.76000 2.849
59.78000 1.108
59.80000 0.410
59.82000 1.072
59.84000 6.612
59.86000 5.317
59.88000 4.273
59.90000 5.573
59.92000 2.390
59.94000 1.306
59.96000 1.495
59.98000 5.972
60.00000 -0.103
60.02000 1.495
60.04000 0.157
60.06000 0.933
60.08000 -1.524
60.10000 0.061
60.12000 4.387
60.14000 1.345
60.16000 0.101
60.18000 -0.982
60.20000 -0.862
60.22000 1.095
60.24000 4.724
60.26000 7.199
60.28000 2.185
60.30000 1.663
60.32000 5.859
60.34000 7.335
60.36000 9.024
60.38000 6.027
60.40000 7.608
60.42000 5.629
60.44000 1.103
60.46000 1.968
60.48000 2.138
60.50000 1.577
60.52000 -1.473
60.54000 -2.400
60.56000 -0.348
60.58000 3.089
60.60000 3.677
60.62000 1.976
60.64000 2.631
60.66000 3.156
60.68000 2.981
60.70000 5.191
60.72000 3.228
60.74000 2.813
60.76000 2.557
60.78000 4.340
60.80000 3.931
60.82000 0.493
60.84000 1.706
60.86000 6.412
60.88000 0.139
60.90000 -2.398
60.92000 -1.157
60.94000 2.077
60.96000 4.668
60.98000 4.715
61.00000 1.156
61.02000 2.261
61.04000 4.042
61.06000 5.300
61.08000 4.210
61.10000 4.240
61.12000 4.108
61.14000 3.948
61.16000 3.854
61.18000 4.176
61.20000 2.528
61.22000 1.857
61.24000 4.552
61.26000 1.294
61.28000 -1.626
61.30000 0.934
61.32000 4.500
61.34000 3.948
61.36000 4.968
61.38000 3.799
61.40000 0.888
61.42000 3.198
61.44000 4.723
61.46000 7.657
61.48000 4.955
61.50000 4.900
61.52000 3.214
61.54000 6.718
61.56000 4.704
61.58000 -0.320
61.60000 -0.515
61.62000 0.874
61.64000 1.744
61.66000 5.132
61.68000 1.587
61.70000 1.584
61.72000 5.098
61.74000 0.549
61.76000 -0.201
61.78000 4.860
61.80000 8.847
61.82000 4.343
61.84000 3.185
61.86000 4.927
61.88000 5.861
61.90000 7.477
61.92000 6.970
61.94000 4.625
61.96000 2.855
61.98000 3.427
62.00000 4.670
62.02000 4.420
62.04000 6.204
62.06000 7.435
62.08000 5.981
62.10000 3.578
62.12000 2.048
62.14000 3.997
62.16000 2.535
62.18000 4.558
62.20000 6.573
62.22000 4.259
62.24000 -0.470
62.26000 -2.347
62.28000 -0.156
62.30000 5.049
62.32000 4.936
62.34000 4.616
62.36000 8.653
62.38000 6.180
62.40000 3.229
62.42000 0.923
62.44000 1.526
62.46000 1.618
62.48000 1.316
62.50000 -0.427
62.52000 2.878
62.54000 3.643
62.56000 4.636
62.58000 4.622
62.60000 3.056
62.62000 4.355
62.64000 3.927
62.66000 4.414
62.68000 3.762
62.70000 3.750
62.72000 1.562
62.74000 1.292
62.76000 1.994
62.78000 3.202
62.80000 6.454
62.82000 3.766
62.84000 1.035
62.86000 0.440
62.88000 1.007
62.90000 -1.567
62.92000 2.300
62.94000 0.325
62.96000 1.070
62.98000 2.290
63.00000 1.930
63.02000 1.452
63.04000 4.670
63.06000 2.571
63.08000 2.068
63.10000 3.380
63.12000 2.954
63.14000 3.125
63.16000 1.781
63.18000 3.374
63.20000 -0.049
63.22000 0.411
63.24000 0.325
63.26000 3.071
63.28000 1.445
63.30000 0.466
63.32000 1.113
63.34000 0.306
63.36000 -2.144
63.38000 0.432
63.40000 3.479
63.42000 3.535
63.44000 3.080
63.46000 -1.594
63.48000 -0.217
63.50000 3.490
63.52000 0.925
63.54000 0.430
63.56000 1.667
63.58000 -0.827
63.60000 1.181
63.62000 -1.194
63.64000 1.918
63.66000 2.664
63.68000 3.051
63.70000 2.778
63.72000 1.755
63.74000 2.642
63.76000 2.293
63.78000 3.228
63.80000 1.810
63.82000 0.815
63.84000 2.425
63.86000 -1.021
63.88000 -2.389
63.90000 -1.609
63.92000 -0.127
63.94000 2.463
63.96000 3.140
63.98000 2.253
64.00000 1.906
64.02000 2.507
64.04000 1.037
64.06000 0.113
64.08000 -0.311
64.10000 -0.449
64.12000 -2.266
64.14000 4.089
64.16000 3.742
64.18000 4.207
64.20000 2.773
64.22000 2.075
64.24000 1.372
64.26000 -1.552
64.28000 -0.270
64.30000 3.124
64.32000 3.478
64.34000 1.841
64.36000 0.993
64.38000 1.944
64.40000 -0.541
64.42000 0.563
64.44000 2.440
64.46000 4.055
64.48000 1.966
64.50000 3.086
64.52000 6.421
64.54000 4.623
64.56000 2.876
64.58000 4.357
64.60000 2.037
64.62000 -2.384
64.64000 -1.262
64.66000 4.747
64.68000 6.218
64.70000 4.154
64.72000 2.033
64.74000 2.412
64.76000 1.582
64.78000 1.858
64.80000 0.617
64.82000 -1.139
64.84000 -0.484
64.86000 1.982
64.88000 3.492
64.90000 3.015
64.92000 4.069
64.94000 0.239
64.96000 -0.059
64.98000 6.709
65.00000 7.285
65.02000 3.922
65.04000 1.124
65.06000 -2.386
65.08000 1.919
65.10000 3.230
65.12000 2.556
65.14000 4.457
65.16000 3.249
65.18000 4.286
65.20000 3.999
65.22000 3.760
65.24000 -0.613
65.26000 -0.014
65.28000 1.334
65.30000 3.826
65.32000 4.426
65.34000 -1.510
65.36000 -1.026
65.38000 1.607
65.40000 3.491
65.42000 5.882
65.44000 6.596
65.46000 4.400
65.48000 5.858
65.50000 5.620
65.52000 1.494
65.54000 -2.270
65.56000 1.836
65.58000 5.083
65.60000 -0.958
65.62000 -2.408
65.64000 1.725
65.66000 1.723
65.68000 1.311
65.70000 2.091
65.72000 2.115
65.74000 -0.002
65.76000 -1.021
65.78000 -2.399
65.80000 -0.743
65.82000 0.282
65.84000 0.602
65.86000 2.083
65.88000 0.869
65.90000 1.607
65.92000 -0.036
65.94000 -0.905
65.96000 0.760
65.98000 2.475
66.00000 0.307
66.02000 -1.494
66.04000 -0.527
66.06000 0.695
66.08000 1.615
66.10000 1.373
66.12000 5.468
66.14000 2.568
66.16000 1.887
66.18000 0.888
66.20000 0.367
66.22000 -1.012
66.24000 0.019
66.26000 -1.720
66.28000 0.631
66.30000 2.492
66.32000 1.985
66.34000 0.769
66.36000 1.187
66.38000 -0.174
66.40000 -0.526
66.42000 -1.197
66.44000 -1.864
66.46000 -1.107
66.48000 -1.946
66.50000 0.748
66.52000 1.868
66.54000 2.216
66.56000 0.786
66.58000 2.494
66.60000 2.943
66.62000 3.580
66.64000 3.916
66.66000 3.895
66.68000 -0.326
66.70000 3.674
66.72000 2.354
66.74000 1.209
66.76000 1.172
66.78000 0.285
66.80000 4.220
66.82000 4.656
66.84000 4.158
66.86000 0.103
66.88000 -1.156
66.90000 -0.438
66.92000 0.752
66.94000 0.836
66.96000 2.161
66.98000 1.870
67.00000 4.762
67.02000 2.973
67.04000 0.699
67.06000 -1.482
67.08000 1.670
67.10000 3.302
67.12000 2.372
67.14000 4.355
67.16000 7.195
67.18000 4.011
67.20000 2.125
67.22000 8.305
67.24000 9.080
67.26000 13.065
67.28000 11.652
67.30000 4.245
67.32000 4.099
67.34000 7.076
67.36000 4.282
67.38000 5.757
67.40000 7.695
67.42000 9.370
67.44000 7.142
67.46000 12.261
67.48000 9.191
67.50000 11.071
67.52000 12.668
67.54000 8.607
67.56000 11.264
67.58000 9.531
67.60000 13.694
67.62000 11.988
67.64000 8.868
67.66000 12.100
67.68000 11.802
67.70000 9.973
67.72000 12.051
67.74000 10.859
67.76000 12.642
67.78000 17.742
67.80000 17.907
67.82000 16.768
67.84000 16.637
67.86000 16.880
67.88000 17.291
67.90000 19.068
67.92000 19.181
67.94000 17.620
67.96000 20.428
67.98000 21.959
68.00000 21.166
68.02000 20.045
68.04000 21.610
68.06000 21.663
68.08000 22.695
68.10000 22.098
68.12000 23.052
68.14000 20.008
68.16000 19.739
68.18000 24.229
68.20000 27.309
68.22000 25.302
68.24000 23.503
68.26000 26.171
68.28000 28.438
68.30000 25.993
68.32000 25.062
68.34000 24.922
68.36000 29.618
68.38000 29.495
68.40000 31.475
68.42000 30.512
68.44000 29.683
68.46000 23.977
68.48000 26.645
68.50000 27.673
68.52000 25.433
68.54000 23.120
68.56000 25.503
68.58000 27.041
68.60000 22.485
68.62000 21.306
68.64000 24.148
68.66000 21.596
68.68000 20.266
68.70000 19.061
68.72000 22.990
68.74000 21.352
68.76000 21.652
68.78000 15.864
68.80000 13.330
68.82000 15.671
68.84000 17.335
68.86000 14.882
68.88000 19.083
68.90000 17.320
68.92000 14.678
68.94000 16.321
68.96000 14.096
68.98000 15.443
69.00000 13.170
69.02000 10.281
69.04000 12.755
69.06000 13.873
69.08000 11.409
69.10000 8.637
69.12000 7.162
69.14000 7.903
69.16000 4.868
69.18000 6.620
69.20000 5.868
69.22000 9.617
69.24000 9.601
69.26000 3.827
69.28000 1.945
69.30000 5.792
69.32000 5.494
69.34000 3.350
69.36000 3.287
69.38000 5.841
69.40000 6.049
69.42000 4.626
69.44000 -0.101
69.46000 3.047
69.48000 5.606
69.50000 1.611
69.52000 2.402
69.54000 3.511
69.56000 4.116
69.58000 3.399
69.60000 1.210
69.62000 2.651
69.64000 3.671
69.66000 1.982
69.68000 -0.667
69.70000 2.925
69.72000 4.895
69.74000 4.160
69.76000 2.733
69.78000 3.919
69.80000 1.548
69.82000 2.825
69.84000 3.527
69.86000 0.781
69.88000 1.597
69.90000 3.375
69.92000 0.981
69.94000 2.199
69.96000 3.256
69.98000 1.118
70.00000 -2.371
70.02000 1.175
70.04000 3.503
70.06000 2.300
70.08000 1.762
70.10000 2.103
70.12000 2.343
70.14000 4.759
70.16000 4.444
70.18000 2.718
70.20000 4.922
70.22000 3.226
70.24000 2.771
70.26000 1.872
70.28000 2.363
70.30000 1.392
70.32000 0.771
70.34000 0.844
70.36000 -2.137
70.38000 -1.410
70.40000 1.957
70.42000 1.357
70.44000 4.091
70.46000 5.297
70.48000 -0.719
70.50000 0.262
70.52000 1.522
70.54000 -2.293
70.56000 -0.368
70.58000 1.188
70.60000 3.162
70.62000 4.705
70.64000 5.513
70.66000 5.971
70.68000 6.619
70.70000 5.591
70.72000 2.871
70.74000 2.297
70.76000 6.466
70.78000 6.813
70.80000 4.120
70.82000 3.314
70.84000 5.246
70.86000 4.442
70.88000 5.594
70.90000 2.739
70.92000 -1.440
70.94000 -2.268
70.96000 3.821
70.98000 4.953
71.00000 1.067
71.02000 1.719
71.04000 4.010
71.06000 4.659
71.08000 7.835
71.10000 7.461
71.12000 4.559
71.14000 1.566
71.16000 2.475
71.18000 1.182
71.20000 2.175
71.22000 3.364
71.24000 5.408
71.26000 2.685
71.28000 4.068
71.30000 5.805
71.32000 6.793
71.34000 5.343
71.36000 2.738
71.38000 5.428
71.40000 5.081
71.42000 7.218
71.44000 7.263
71.46000 8.747
71.48000 5.995
71.50000 5.147
71.52000 2.435
71.54000 -2.209
71.56000 -0.983
71.58000 0.793
71.60000 0.803
71.62000 3.877
71.64000 8.370
71.66000 6.087
71.68000 4.596
71.70000 3.996
71.72000 5.143
71.74000 8.260
71.76000 10.522
71.78000 4.807
71.80000 5.793
71.82000 6.908
71.84000 4.606
71.86000 2.855
71.88000 4.613
71.90000 5.896
71.92000 5.657
71.94000 5.697
71.96000 3.982
71.98000 3.815
72.00000 -0.322
72.02000 1.529
72.04000 5.307
72.06000 2.632
72.08000 3.525
72.10000 5.371
72.12000 4.849
72.14000 5.266
72.16000 4.778
72.18000 6.824
72.20000 4.756
72.22000 1.668
72.24000 1.942
72.26000 2.982
72.28000 1.850
72.30000 3.220
72.32000 0.067
72.34000 4.818
72.36000 6.650
72.38000 8.712
72.40000 3.130
72.42000 3.925
72.44000 4.215
72.46000 2.134
72.48000 0.821
72.50000 2.552
72.52000 3.296
72.54000 4.808
72.56000 3.464
72.58000 4.889
72.60000 1.217
72.62000 5.898
72.64000 6.544
72.66000 3.091
72.68000 4.959
72.70000 3.385
72.72000 8.023
72.74000 6.969
72.76000 7.799
72.78000 5.851
72.80000 1.471
72.82000 -2.193
72.84000 1.332
72.86000 3.598
72.88000 2.545
72.90000 0.854
72.92000 1.027
72.94000 0.865
72.96000 0.191
72.98000 1.625
73.00000 2.891
73.02000 3.006
73.04000 2.143
73.06000 3.350
73.08000 1.876
73.10000 4.077
73.12000 3.622
73.14000 2.429
73.16000 2.398
73.18000 -1.873
73.20000 -0.612
73.22000 0.557
73.24000 2.457
73.26000 0.472
73.28000 1.763
73.30000 4.051
73.32000 -0.748
73.34000 0.088
73.36000 0.279
73.38000 3.096
73.40000 1.489
73.42000 4.221
73.44000 2.219
73.46000 2.670
73.48000 3.299
73.50000 1.502
73.52000 2.153
73.54000 0.575
73.56000 4.570
73.58000 3.719
73.60000 1.707
73.62000 0.496
73.64000 4.210
73.66000 0.462
73.68000 2.099
73.70000 3.396
73.72000 2.114
73.74000 -0.456
73.76000 -0.430
73.78000 -2.228
73.80000 1.799
73.82000 5.255
73.84000 3.421
73.86000 1.415
73.88000 1.031
73.90000 3.026
73.92000 2.432
73.94000 0.105
73.96000 -0.550
73.98000 -2.187
74.00000 0.370
74.02000 1.860
74.04000 2.876
74.06000 1.567
74.08000 2.876
74.10000 1.694
74.12000 4.721
74.14000 5.050
74.16000 -0.033
74.18000 1.387
74.20000 2.872
74.22000 2.453
74.24000 1.963
74.26000 -0.231
74.28000 0.449
74.30000 -1.646
74.32000 -1.758
74.34000 3.863
74.36000 2.534
74.38000 1.854
74.40000 0.327
74.42000 -2.223
74.44000 0.309
74.46000 1.344
74.48000 5.151
74.50000 2.148
74.52000 1.235
74.54000 3.654
74.56000 3.086
74.58000 3.786
74.60000 0.075
74.62000 1.767
74.64000 -1.108
74.66000 4.815
74.68000 6.772
74.70000 4.859
74.72000 4.721
74.74000 3.373
74.76000 0.745
74.78000 -1.792
74.80000 2.460
74.82000 5.951
74.84000 2.839
74.86000 1.011
74.88000 0.916
74.90000 -0.871
74.92000 1.237
74.94000 5.629
74.96000 0.335
74.98000 -2.069
75.00000 0.233
75.02000 1.665
75.04000 2.211
75.06000 0.516
75.08000 4.717
75.10000 2.523
75.12000 2.732
75.14000 -1.529
75.16000 0.632
75.18000 1.362
75.20000 1.965
75.22000 1.637
75.24000 3.542
75.26000 -0.360
75.28000 0.407
75.30000 -1.252
75.32000 -1.204
75.34000 3.183
75.36000 5.701
75.38000 4.305
75.40000 3.892
75.42000 2.964
75.44000 3.327
75.46000 -0.240
75.48000 -2.236
75.50000 0.975
75.52000 6.560
75.54000 6.605
75.56000 5.324
75.58000 6.439
75.60000 5.568
75.62000 2.748
75.64000 3.360
75.66000 3.024
75.68000 0.207
75.70000 1.285
75.72000 1.915
75.74000 6.155
75.76000 -0.843
75.78000 -1.590
75.80000 1.192
75.82000 1.437
75.84000 2.042
75.86000 2.462
75.88000 1.664
75.90000 4.151
75.92000 1.577
75.94000 -0.527
75.96000 1.104
75.98000 1.184
76.00000 1.828
76.02000 -1.284
76.04000 -2.171
76.06000 -0.745
76.08000 0.020
76.10000 2.086
76.12000 1.162
76.14000 -0.803
76.16000 -2.141
76.18000 0.791
76.20000 0.600
76.22000 0.133
76.24000 -1.446
76.26000 -0.105
76.28000 0.468
76.30000 1.888
76.32000 -0.268
76.34000 -2.116
76.36000 -1.130
76.38000 -0.333
76.40000 0.844
76.42000 1.911
76.44000 6.335
76.46000 3.394
76.48000 2.355
76.50000 0.027
76.52000 3.190
76.54000 4.888
76.56000 2.537
76.58000 -2.239
76.60000 3.274
76.62000 6.149
76.64000 6.103
76.66000 6.845
76.68000 2.356
76.70000 2.195
76.72000 4.335
76.74000 0.951
76.76000 5.392
76.78000 3.963
76.80000 7.692
76.82000 4.094
76.84000 2.996
76.86000 4.110
76.88000 0.961
76.90000 0.066
76.92000 3.793
76.94000 1.982
76.96000 -0.343
76.98000 4.518
77.00000 4.204
77.02000 1.277
77.04000 4.018
77.06000 1.934
77.08000 2.519
77.10000 1.568
77.12000 4.571
77.14000 5.736
77.16000 2.358
77.18000 2.356
77.20000 6.438
77.22000 7.096
77.24000 4.829
77.26000 7.518
77.28000 7.071
77.30000 5.826
77.32000 4.205
77.34000 3.191
77.36000 -1.075
77.38000 1.096
77.40000 0.616
77.42000 3.419
77.44000 2.030
77.46000 2.185
77.48000 3.021
77.50000 0.109
77.52000 2.751
77.54000 3.708
77.56000 6.382
77.58000 4.028
77.60000 -0.608
77.62000 1.148
77.64000 -0.992
77.66000 5.976
77.68000 6.079
77.70000 4.928
77.72000 -0.096
77.74000 -2.189
77.76000 -0.757
77.78000 1.130
77.80000 5.296
77.82000 3.784
77.84000 4.321
77.86000 1.114
77.88000 1.557
77.90000 4.718
77.92000 4.188
77.94000 2.400
77.96000 1.713
77.98000 5.812
78.00000 6.000
78.02000 8.391
78.04000 3.746
78.06000 6.961
78.08000 6.298
78.10000 2.949
78.12000 1.866
78.14000 -0.860
78.16000 3.014
78.18000 4.051
78.20000 7.060
78.22000 3.518
78.24000 1.610
78.26000 0.626
78.28000 3.000
78.30000 4.168
78.32000 6.055
78.34000 4.090
78.36000 5.531
78.38000 2.059
78.40000 0.967
78.42000 -1.115
78.44000 -0.509
78.46000 1.159
78.48000 6.695
78.50000 3.218
78.52000 1.771
78.54000 2.783
78.56000 4.046
78.58000 4.407
78.60000 3.703
78.62000 3.037
78.64000 4.027
78.66000 1.161
78.68000 3.293
78.70000 2.785
78.72000 3.410
78.74000 5.755
78.76000 6.072
78.78000 6.681
78.80000 4.364
78.82000 2.622
78.84000 1.694
78.86000 2.896
78.88000 6.302
78.90000 0.869
78.92000 -0.199
78.94000 0.447
78.96000 1.185
78.98000 3.626
79.00000 1.207
79.02000 -0.636
79.04000 -2.291
79.06000 -1.070
79.08000 0.188
79.10000 2.095
79.12000 2.215
79.14000 -0.696
79.16000 -1.225
79.18000 -1.449
79.20000 -1.726
79.22000 -0.526
79.24000 -1.775
79.26000 -2.307
79.28000 0.201
79.30000 0.492
79.32000 2.587
79.34000 5.374
79.36000 3.515
79.38000 2.043
79.40000 1.633
79.42000 -2.304
79.44000 2.481
79.46000 4.047
79.48000 1.886
79.50000 1.428
79.52000 0.479
79.54000 -0.267
79.56000 0.788
79.58000 1.213
79.60000 -1.757
79.62000 -2.334
79.64000 1.439
79.66000 1.334
79.68000 1.762
79.70000 2.392
79.72000 3.349
79.74000 3.047
79.76000 2.748
79.78000 3.904
79.80000 6.261
79.82000 4.376
79.84000 4.172
79.86000 -0.726
79.88000 1.139
79.90000 0.351
79.92000 -0.667
79.94000 -2.251
79.96000 0.002
79.98000 1.230
80.00000 3.526
80.02000 4.163
80.04000 1.943
80.06000 5.600
80.08000 4.592
80.10000 2.526
80.12000 1.071
80.14000 1.148
80.16000 -0.482
80.18000 1.464
80.20000 -0.148
80.22000 1.676
80.24000 5.175
80.26000 1.944
80.28000 5.094
80.30000 1.324
80.32000 4.539
80.34000 4.282
80.36000 3.924
80.38000 4.076
80.40000 0.786
80.42000 -1.248
80.44000 -0.626
80.46000 1.855
80.48000 -0.482
80.50000 -2.423
80.52000 0.247
80.54000 1.121
80.56000 -0.386
80.58000 1.963
80.60000 7.691
80.62000 9.111
80.64000 6.773
80.66000 4.649
80.68000 1.011
80.70000 3.115
80.72000 4.372
80.74000 3.070
80.76000 2.534
80.78000 1.792
80.80000 0.484
80.82000 2.881
80.84000 5.568
80.86000 3.705
80.88000 2.015
80.90000 1.450
80.92000 0.297
80.94000 0.614
80.96000 2.921
80.98000 0.677
81.00000 2.818
81.02000 5.207
81.04000 -0.343
81.06000 2.658
81.08000 8.547
81.10000 8.615
81.12000 12.143
81.14000 7.469
81.16000 7.789
81.18000 5.543
81.20000 6.256
81.22000 12.703
81.24000 13.465
81.26000 12.620
81.28000 10.309
81.30000 3.433
81.32000 5.160
81.34000 9.218
81.36000 10.986
81.38000 7.684
81.40000 5.314
81.42000 9.978
81.44000 10.547
81.46000 15.500
81.48000 12.499
81.50000 8.888
81.52000 6.970
81.54000 12.614
81.56000 15.994
81.58000 16.414
81.60000 16.823
81.62000 15.440
81.64000 18.422
81.66000 18.883
81.68000 17.646
81.70000 17.545
81.72000 19.859
81.74000 18.713
81.76000 15.256
81.78000 14.269
81.80000 20.762
81.82000 21.649
81.84000 17.194
81.86000 22.216
81.88000 25.452
81.90000 24.907
81.92000 25.132
81.94000 24.913
81.96000 21.411
81.98000 18.287
82.00000 18.153
82.02000 18.736
82.04000 20.746
82.06000 20.398
82.08000 22.937
82.10000 24.281
82.12000 26.072
82.14000 27.630
82.16000 30.847
82.18000 28.518
82.20000 30.794
82.22000 32.598
82.24000 30.441
82.26000 32.541
82.28000 30.643
82.30000 23.162
82.32000 28.340
82.34000 33.339
82.36000 33.438
82.38000 27.296
82.40000 31.412
82.42000 30.429
82.44000 34.384
82.46000 37.736
82.48000 36.385
82.50000 30.023
82.52000 28.802
82.54000 26.300
82.56000 29.623
82.58000 27.819
82.60000 29.261
82.62000 32.192
82.64000 30.178
82.66000 29.926
82.68000 28.337
82.70000 28.348
82.72000 26.005
82.74000 25.404
82.76000 27.816
82.78000 22.515
82.80000 22.275
82.82000 25.696
82.84000 20.949
82.86000 23.551
82.88000 23.283
82.90000 23.059
82.92000 23.475
82.94000 19.129
82.96000 22.929
82.98000 24.929
83.00000 19.181
83.02000 17.727
83.04000 18.578
83.06000 16.715
83.08000 18.555
83.10000 16.732
83.12000 21.175
83.14000 22.742
83.16000 13.741
83.18000 17.520
83.20000 19.442
83.22000 14.190
83.24000 14.687
83.26000 10.088
83.28000 6.204
83.30000 3.569
83.32000 12.369
83.34000 12.805
83.36000 8.759
83.38000 8.482
83.40000 12.921
83.42000 12.768
83.44000 12.769
83.46000 9.469
83.48000 9.775
83.50000 8.044
83.52000 6.558
83.54000 6.213
83.56000 8.126
83.58000 4.897
83.60000 1.616
83.62000 1.591
83.64000 1.080
83.66000 4.795
83.68000 5.394
83.70000 5.845
83.72000 1.194
83.74000 2.746
83.76000 2.796
83.78000 2.768
83.80000 4.753
83.82000 4.197
83.84000 3.190
83.86000 6.365
83.88000 3.125
83.90000 0.348
83.92000 -2.153
83.94000 0.239
83.96000 -2.263
83.98000 1.925
84.00000 0.687
84.02000 3.493
84.04000 2.493
84.06000 -1.627
84.08000 -0.307
84.10000 0.983
84.12000 1.777
84.14000 -0.112
84.16000 2.326
84.18000 1.520
84.20000 1.342
84.22000 1.720
84.24000 1.274
84.26000 1.182
84.28000 -0.489
84.30000 -1.973
84.32000 1.939
84.34000 -0.533
84.36000 -0.818
84.38000 0.287
84.40000 3.560
84.42000 -0.789
84.44000 -2.382
84.46000 -1.114
84.48000 1.389
84.50000 2.571
84.52000 1.854
84.54000 2.516
84.56000 8.744
84.58000 4.850
84.60000 0.413
84.62000 -2.300
84.64000 -2.352
84.66000 1.190
84.68000 3.050
84.70000 1.713
84.72000 1.776
84.74000 3.958
84.76000 2.335
84.78000 -0.528
84.80000 0.415
84.82000 -1.237
84.84000 -2.348
84.86000 -1.555
84.88000 -0.433
84.90000 0.225
84.92000 4.355
84.94000 4.378
84.96000 0.704
84.98000 1.743
85.00000 0.181
85.02000 -0.703
85.04000 -0.852
85.06000 1.218
85.08000 4.951
85.10000 3.443
85.12000 -0.483
85.14000 -0.717
85.16000 3.119
85.18000 -0.273
85.20000 0.342
85.22000 2.436
85.24000 4.226
85.26000 5.490
85.28000 0.543
85.30000 0.566
85.32000 1.963
85.34000 4.774
85.36000 4.213
85.38000 3.747
85.40000 4.340
85.42000 2.054
85.44000 -1.504
85.46000 -2.342
85.48000 2.555
85.50000 7.646
85.52000 3.714
85.54000 4.341
85.56000 2.213
85.58000 5.411
85.60000 1.944
85.62000 1.479
85.64000 1.951
85.66000 7.405
85.68000 3.657
85.70000 3.265
85.72000 3.164
85.74000 10.511
85.76000 6.187
85.78000 3.552
85.80000 7.009
85.82000 5.295
85.84000 6.262
85.86000 6.015
85.88000 1.368
85.90000 3.631
85.92000 7.558
85.94000 8.644
85.96000 11.390
85.98000 12.636
86.00000 6.764
86.02000 5.581
86.04000 7.280
86.06000 8.002
86.08000 10.991
86.10000 9.534
86.12000 10.458
86.14000 5.641
86.16000 6.558
86.18000 12.028
86.20000 12.788
86.22000 12.068
86.24000 12.923
86.26000 15.288
86.28000 19.220
86.30000 18.441
86.32000 12.913
86.34000 10.719
86.36000 13.646
86.38000 21.624
86.40000 22.374
86.42000 18.481
86.44000 19.245
86.46000 18.202
86.48000 21.356
86.50000 20.001
86.52000 24.679
86.54000 22.258
86.56000 18.994
86.58000 21.409
86.60000 19.132
86.62000 22.076
86.64000 22.979
86.66000 21.025
86.68000 19.944
86.70000 20.030
86.72000 22.562
86.74000 20.353
86.76000 19.449
86.78000 22.538
86.80000 17.485
86.82000 16.221
86.84000 18.992
86.86000 14.197
86.88000 12.355
86.90000 16.590
86.92000 20.736
86.94000 18.777
86.96000 20.838
86.98000 18.462
87.00000 14.165
87.02000 12.053
87.04000 16.125
87.06000 19.649
87.08000 16.428
87.10000 17.735
87.12000 15.416
87.14000 13.700
87.16000 13.902
87.18000 16.218
87.20000 17.249
87.22000 14.743
87.24000 12.418
87.26000 11.940
87.28000 11.498
87.30000 13.402
87.32000 13.309
87.34000 7.547
87.36000 9.115
87.38000 12.593
87.40000 11.064
87.42000 6.481
87.44000 10.816
87.46000 9.706
87.48000 11.462
87.50000 8.700
87.52000 4.113
87.54000 8.068
87.56000 13.129
87.58000 10.937
87.60000 12.840
87.62000 7.999
87.64000 5.229
87.66000 6.804
87.68000 6.991
87.70000 5.944
87.72000 8.175
87.74000 6.930
87.76000 4.165
87.78000 5.766
87.80000 2.808
87.82000 5.838
87.84000 5.385
87.86000 5.689
87.88000 0.552
87.90000 1.368
87.92000 4.470
87.94000 4.771
87.96000 3.278
87.98000 3.079
88.00000 4.170
88.02000 5.121
88.04000 4.113
88.06000 3.673
88.08000 3.330
88.10000 3.753
88.12000 5.408
88.14000 3.786
88.16000 0.349
88.18000 4.336
88.20000 4.674
88.22000 2.978
88.24000 3.794
88.26000 2.383
88.28000 0.793
88.30000 0.932
88.32000 -0.332
88.34000 -0.071
88.36000 2.584
88.38000 7.005
88.40000 -0.503
88.42000 -2.150
88.44000 3.647
88.46000 6.456
88.48000 3.540
88.50000 4.036
88.52000 0.829
88.54000 3.934
88.56000 5.347
88.58000 3.381
88.60000 1.221
88.62000 3.284
88.64000 5.891
88.66000 2.623
88.68000 1.300
88.70000 5.256
88.72000 6.441
88.74000 1.098
88.76000 -0.649
88.78000 4.340
88.80000 6.587
88.82000 4.495
88.84000 2.021
88.86000 5.304
88.88000 2.186
88.90000 0.799
88.92000 2.501
88.94000 3.766
88.96000 1.972
88.98000 1.615
89.00000 2.681
89.02000 1.897
89.04000 0.742
89.06000 2.422
89.08000 -0.946
89.10000 3.648
89.12000 1.924
89.14000 2.244
89.16000 2.691
89.18000 7.339
89.20000 3.247
89.22000 2.466
89.24000 -1.468
89.26000 0.115
89.28000 0.091
89.30000 -2.087
89.32000 -2.087
89.34000 2.127
89.36000 4.758
89.38000 6.419
89.40000 5.583
89.42000 5.667
89.44000 3.958
89.46000 1.660
89.48000 0.390
89.50000 -0.615
89.52000 3.131
89.54000 2.547
89.56000 -0.369
89.58000 6.067
89.60000 7.345
89.62000 4.702
89.64000 1.068
89.66000 3.861
89.68000 -0.494
89.70000 0.691
89.72000 4.423
89.74000 3.937
89.76000 3.318
89.78000 2.894
89.80000 2.085
89.82000 1.333
89.84000 3.606
89.86000 3.117
89.88000 7.426
89.90000 0.669
89.92000 0.976
89.94000 1.172
89.96000 3.996
89.98000 4.745
90.00000 3.755
90.02000 2.483
90.04000 1.250
90.06000 2.476
90.08000 3.527
90.10000 5.104
90.12000 5.970
90.14000 0.193
90.16000 4.417
90.18000 1.364
90.20000 -0.243
90.22000 1.436
90.24000 4.167
90.26000 2.563
90.28000 1.282
90.30000 0.658
90.32000 -1.058
90.34000 -0.092
90.36000 4.413
90.38000 3.112
90.40000 -0.294
90.42000 2.686
90.44000 5.451
90.46000 6.731
90.48000 4.876
90.50000 5.776
90.52000 6.739
90.54000 5.572
90.56000 4.275
90.58000 -1.516
90.60000 1.283
90.62000 2.965
90.64000 3.623
90.66000 4.393
90.68000 6.339
90.70000 7.001
90.72000 6.566
90.74000 5.700
90.76000 0.540
90.78000 4.568
90.80000 7.708
90.82000 7.651
90.84000 2.632
90.86000 1.416
90.88000 2.168
90.90000 1.722
90.92000 0.429
90.94000 -2.060
90.96000 3.984
90.98000 3.221
91.00000 2.405
91.02000 4.872
91.04000 3.585
91.06000 2.534
91.08000 1.820
91.10000 2.188
91.12000 3.382
91.14000 3.684
91.16000 4.598
91.18000 4.322
91.20000 6.422
91.22000 4.022
91.24000 2.614
91.26000 5.288
91.28000 3.344
91.30000 4.687
91.32000 10.594
91.34000 8.173
91.36000 3.230
91.38000 1.590
91.40000 5.271
91.42000 5.486
91.44000 3.533
91.46000 -1.071
91.48000 -1.405
91.50000 1.756
91.52000 3.893
91.54000 2.115
91.56000 2.906
91.58000 3.892
91.60000 2.214
91.62000 2.133
91.64000 6.417
91.66000 7.682
91.68000 4.791
91.70000 3.440
91.72000 6.032
91.74000 1.562
91.76000 -2.056
91.78000 1.487
91.80000 5.585
91.82000 1.341
91.84000 4.074
91.86000 4.572
91.88000 1.802
91.90000 2.139
91.92000 2.406
91.94000 4.972
91.96000 3.883
91.98000 2.464
92.00000 5.697
92.02000 8.642
92.04000 6.329
92.06000 5.364
92.08000 5.116
92.10000 4.550
92.12000 2.094
92.14000 1.286
92.16000 0.957
92.18000 5.175
92.20000 3.780
92.22000 6.373
92.24000 7.854
92.26000 6.978
92.28000 2.667
92.30000 2.762
92.32000 1.794
92.34000 3.935
92.36000 6.589
92.38000 0.417
92.40000 0.381
92.42000 1.786
92.44000 0.075
92.46000 -1.107
92.48000 0.903
92.50000 2.492
92.52000 3.664
92.54000 4.476
92.56000 3.212
92.58000 6.387
92.60000 1.722
92.62000 -1.685
92.64000 -0.672
92.66000 6.090
92.68000 3.284
92.70000 2.324
92.72000 4.580
92.74000 1.057
92.76000 -2.099
92.78000 0.346
92.80000 2.868
92.82000 1.425
92.84000 3.710
92.86000 5.049
92.88000 2.534
92.90000 1.669
92.92000 -0.550
92.94000 4.489
92.96000 7.211
92.98000 4.933
93.00000 3.894
93.02000 3.911
93.04000 0.306
93.06000 2.677
93.08000 8.881
93.10000 0.384
93.12000 -2.093
93.14000 -0.604
93.16000 1.363
93.18000 3.963
93.20000 2.066
93.22000 3.507
93.24000 3.435
93.26000 -0.183
93.28000 6.595
93.30000 6.872
93.32000 1.927
93.34000 1.422
93.36000 3.315
93.38000 5.130
93.40000 2.973
93.42000 2.339
93.44000 2.083
93.46000 -2.086
93.48000 0.070
93.50000 5.740
93.52000 6.857
93.54000 3.280
93.56000 1.178
93.58000 -0.533
93.60000 -0.301
93.62000 -0.993
93.64000 -0.710
93.66000 3.352
93.68000 3.249
93.70000 4.923
93.72000 3.045
93.74000 6.232
93.76000 5.006
93.78000 3.964
93.80000 4.133
93.82000 5.162
93.84000 4.220
93.86000 4.481
93.88000 3.047
93.90000 0.077
93.92000 4.540
93.94000 5.041
93.96000 1.728
93.98000 5.599
94.00000 4.117
94.02000 4.207
94.04000 3.894
94.06000 3.998
94.08000 5.020
94.10000 6.702
94.12000 5.000
94.14000 3.384
94.16000 4.691
94.18000 7.153
94.20000 6.594
94.22000 -1.430
94.24000 -1.651
94.26000 -0.085
94.28000 3.848
94.30000 8.508
94.32000 10.094
94.34000 5.750
94.36000 2.128
94.38000 0.381
94.40000 4.245
94.42000 3.029
94.44000 3.750
94.46000 2.047
94.48000 -2.124
94.50000 -1.511
94.52000 0.332
94.54000 -0.369
94.56000 -1.098
94.58000 -0.474
94.60000 3.165
94.62000 -1.421
94.64000 1.482
94.66000 -0.559
94.68000 2.717
94.70000 3.490
94.72000 2.307
94.74000 1.112
94.76000 5.605
94.78000 3.147
94.80000 5.934
94.82000 6.285
94.84000 6.579
94.86000 3.675
94.88000 0.230
94.90000 1.265
94.92000 3.850
94.94000 5.511
94.96000 7.791
94.98000 3.734
95.00000 5.077
95.02000 3.610
95.04000 7.048
95.06000 6.201
95.08000 2.014
95.10000 0.682
95.12000 -0.042
95.14000 1.339
95.16000 2.388
95.18000 3.770
95.20000 5.097
95.22000 5.748
95.24000 3.543
95.26000 7.106
95.28000 6.123
95.30000 2.399
95.32000 0.754
95.34000 -2.102
95.36000 2.458
95.38000 5.131
95.40000 6.714
95.42000 7.256
95.44000 6.715
95.46000 7.026
95.48000 7.509
95.50000 1.819
95.52000 1.382
95.54000 3.327
95.56000 7.500
95.58000 7.529
95.60000 7.735
95.62000 3.088
95.64000 3.953
95.66000 4.073
95.68000 1.787
95.70000 0.939
95.72000 5.836
95.74000 4.633
95.76000 3.859
95.78000 4.382
95.80000 1.650
95.82000 7.332
95.84000 5.142
95.86000 0.024
95.88000 1.774
95.90000 1.393
95.92000 -0.438
95.94000 -0.292
95.96000 -1.555
95.98000 2.859
96.00000 4.202
96.02000 6.333
96.04000 5.076
96.06000 2.813
96.08000 2.008
96.10000 0.148
96.12000 4.524
96.14000 4.871
96.16000 4.388
96.18000 6.519
96.20000 3.065
96.22000 0.508
96.24000 3.949
96.26000 4.350
96.28000 -1.062
96.30000 2.098
96.32000 3.497
96.34000 4.039
96.36000 4.675
96.38000 4.559
96.40000 5.794
96.42000 9.240
96.44000 7.318
96.46000 5.416
96.48000 2.946
96.50000 -2.090
96.52000 6.799
96.54000 9.853
96.56000 4.874
96.58000 0.991
96.60000 3.321
96.62000 1.264
96.64000 0.939
96.66000 4.995
96.68000 -0.068
96.70000 -0.626
96.72000 0.546
96.74000 3.024
96.76000 -0.549
96.78000 4.911
96.80000 6.327
96.82000 4.918
96.84000 0.141
96.86000 3.039
96.88000 6.502
96.90000 4.951
96.92000 7.169
96.94000 6.720
96.96000 4.775
96.98000 4.522
97.00000 5.096
97.02000 0.472
97.04000 -0.466
97.06000 3.213
97.08000 5.916
97.10000 6.945
97.12000 7.633
97.14000 4.315
97.16000 6.379
97.18000 13.307
97.20000 8.029
97.22000 10.609
97.24000 11.330
97.26000 12.920
97.28000 9.947
97.30000 2.557
97.32000 3.957
97.34000 3.696
97.36000 10.380
97.38000 7.497
97.40000 3.479
97.42000 5.419
97.44000 0.685
97.46000 6.024
97.48000 -0.121
97.50000 -2.078
97.52000 5.104
97.54000 8.031
97.56000 7.241
97.58000 7.096
97.60000 4.921
97.62000 4.460
97.64000 4.281
97.66000 10.680
97.68000 13.416
97.70000 3.336
97.72000 3.937
97.74000 5.521
97.76000 4.822
97.78000 3.954
97.80000 2.340
97.82000 1.275
97.84000 4.154
97.86000 5.212
97.88000 7.854
97.90000 10.579
97.92000 5.488
97.94000 5.955
97.96000 3.630
97.98000 -0.784
98.00000 7.106
98.02000 7.440
98.04000 3.927
98.06000 5.626
98.08000 8.401
98.10000 1.656
98.12000 -2.052
98.14000 2.748
98.16000 2.411
98.18000 1.930
98.20000 4.231
98.22000 1.741
98.24000 7.454
98.26000 8.063
98.28000 6.317
98.30000 4.239
98.32000 5.891
98.34000 9.329
98.36000 9.162
98.38000 6.854
98.40000 5.190
98.42000 2.093
98.44000 1.643
98.46000 9.268
98.48000 6.654
98.50000 9.169
98.52000 6.120
98.54000 7.474
98.56000 8.357
98.58000 10.914
98.60000 6.361
98.62000 9.708
98.64000 12.750
98.66000 6.238
98.68000 0.576
98.70000 5.844
98.72000 1.655
98.74000 -2.041
98.76000 8.143
98.78000 2.422
98.80000 8.913
98.82000 6.457
98.84000 3.362
98.86000 -0.303
98.88000 5.198
98.90000 13.738
98.92000 12.252
98.94000 5.616
98.96000 3.852
98.98000 1.480
99.00000 11.689
99.02000 1.910
99.04000 -0.045
99.06000 9.467
99.08000 7.165
99.10000 0.543
99.12000 10.114
99.14000 5.517
99.16000 4.245
99.18000 -0.021
99.20000 4.009
99.22000 13.250
99.24000 7.824
99.26000 7.386
99.28000 3.391
99.30000 4.755
99.32000 4.308
99.34000 4.717
99.36000 0.436
99.38000 1.080
99.40000 2.608
99.42000 6.627
99.44000 3.791
99.46000 -0.119
99.48000 3.517
99.50000 7.662
99.52000 6.266
99.54000 -2.051
99.56000 3.050
99.58000 9.088
99.60000 4.703
99.62000 5.633
99.64000 4.580
99.66000 2.048
99.68000 4.474
99.70000 8.037
99.72000 2.177
99.74000 -0.837
99.76000 -3.962
99.78000 11.327
99.80000 7.774
99.82000 12.837
99.84000 10.831
99.86000 9.086
99.88000 10.813
99.90000 8.488
99.92000 20.677
99.94000 10.101
99.96000 1.470
99.98000 0.000
