'Id: "0011389" Comment: "Integrate frame 0011389_Au-Ir-Rh_Au-Rich_XRD_Mapping-065-0000.gfrmwith cursor Wedge Cursor #5" Operator: "B?rgel" Anode: "Cu" Wavelength: "1.5406" Scantype: "2Theta (TwoTheta)" TimePerStep: "1" X: "0" Y: "-22.5" Z: "5.95" 
10.00000 0.000
10.02000 4.576
10.04000 -4.221
10.06000 -0.582
10.08000 9.050
10.10000 6.898
10.12000 -4.174
10.14000 3.042
10.16000 17.650
10.18000 14.038
10.20000 -4.155
10.22000 -2.171
10.24000 11.221
10.26000 28.784
10.28000 25.422
10.30000 20.541
10.32000 23.084
10.34000 4.393
10.36000 -0.989
10.38000 2.880
10.40000 6.647
10.42000 13.279
10.44000 11.881
10.46000 11.612
10.48000 6.942
10.50000 -4.049
10.52000 0.247
10.54000 20.597
10.56000 28.586
10.58000 29.723
10.60000 29.599
10.62000 18.396
10.64000 13.200
10.66000 9.563
10.68000 7.286
10.70000 11.648
10.72000 3.310
10.74000 15.325
10.76000 14.738
10.78000 12.326
10.80000 20.642
10.82000 18.046
10.84000 14.660
10.86000 6.381
10.88000 15.012
10.90000 12.544
10.92000 17.340
10.94000 16.731
10.96000 19.445
10.98000 11.416
11.00000 9.776
11.02000 4.027
11.04000 1.004
11.06000 13.897
11.08000 18.311
11.10000 14.941
11.12000 14.546
11.14000 12.119
11.16000 7.194
11.18000 12.478
11.20000 20.422
11.22000 17.517
11.24000 9.604
11.26000 3.897
11.28000 10.944
11.30000 9.487
11.32000 15.288
11.34000 15.358
11.36000 4.213
11.38000 -4.290
11.40000 7.028
11.42000 11.260
11.44000 13.236
11.46000 5.718
11.48000 11.035
11.50000 7.929
11.52000 13.119
11.54000 13.138
11.56000 15.241
11.58000 20.166
11.60000 17.098
11.62000 13.734
11.64000 21.105
11.66000 16.908
11.68000 23.738
11.70000 9.665
11.72000 1.828
11.74000 15.220
11.76000 0.917
11.78000 10.828
11.80000 16.832
11.82000 28.622
11.84000 19.547
11.86000 5.009
11.88000 19.938
11.90000 18.667
11.92000 14.927
11.94000 23.146
11.96000 21.831
11.98000 17.842
12.00000 10.613
12.02000 13.575
12.04000 15.848
12.06000 19.779
12.08000 10.467
12.10000 10.309
12.12000 4.451
12.14000 0.521
12.16000 5.587
12.18000 13.377
12.20000 13.609
12.22000 14.200
12.24000 18.347
12.26000 13.121
12.28000 13.998
12.30000 16.158
12.32000 16.745
12.34000 21.660
12.36000 21.325
12.38000 14.745
12.40000 6.741
12.42000 9.088
12.44000 3.089
12.46000 14.815
12.48000 10.101
12.50000 8.234
12.52000 9.538
12.54000 7.358
12.56000 14.370
12.58000 16.122
12.60000 34.518
12.62000 15.166
12.64000 8.324
12.66000 12.915
12.68000 12.553
12.70000 13.443
12.72000 18.848
12.74000 12.039
12.76000 23.017
12.78000 11.340
12.80000 11.336
12.82000 14.808
12.84000 11.171
12.86000 14.747
12.88000 19.431
12.90000 20.182
12.92000 14.698
12.94000 10.939
12.96000 8.607
12.98000 6.997
13.00000 9.068
13.02000 14.763
13.04000 14.785
13.06000 7.749
13.08000 18.457
13.10000 13.736
13.12000 10.398
13.14000 11.714
13.16000 14.584
13.18000 14.874
13.20000 8.823
13.22000 6.224
13.24000 12.459
13.26000 11.162
13.28000 8.573
13.30000 15.860
13.32000 10.518
13.34000 7.105
13.36000 3.176
13.38000 5.758
13.40000 14.257
13.42000 9.327
13.44000 -2.872
13.46000 -4.378
13.48000 7.575
13.50000 19.468
13.52000 17.685
13.54000 13.042
13.56000 9.109
13.58000 11.184
13.60000 11.970
13.62000 9.861
13.64000 9.325
13.66000 8.081
13.68000 13.765
13.70000 16.980
13.72000 15.537
13.74000 14.219
13.76000 14.033
13.78000 10.958
13.80000 16.499
13.82000 11.454
13.84000 12.500
13.86000 10.393
13.88000 9.016
13.90000 11.665
13.92000 6.293
13.94000 -0.373
13.96000 3.114
13.98000 15.213
14.00000 6.237
14.02000 6.042
14.04000 8.776
14.06000 11.936
14.08000 12.918
14.10000 7.149
14.12000 3.023
14.14000 5.209
14.16000 17.288
14.18000 13.805
14.20000 11.393
14.22000 16.299
14.24000 22.058
14.26000 13.108
14.28000 13.972
14.30000 18.477
14.32000 10.200
14.34000 4.923
14.36000 3.982
14.38000 -1.162
14.40000 2.984
14.42000 10.378
14.44000 6.353
14.46000 3.769
14.48000 5.075
14.50000 2.346
14.52000 1.692
14.54000 -1.600
14.56000 4.122
14.58000 9.845
14.60000 7.924
14.62000 9.336
14.64000 12.412
14.66000 13.295
14.68000 -4.447
14.70000 6.595
14.72000 8.699
14.74000 4.875
14.76000 1.590
14.78000 14.953
14.80000 13.410
14.82000 4.736
14.84000 8.190
14.86000 9.583
14.88000 13.405
14.90000 13.960
14.92000 9.861
14.94000 7.561
14.96000 2.099
14.98000 0.047
15.00000 7.734
15.02000 1.387
15.04000 -0.090
15.06000 -2.682
15.08000 9.042
15.10000 9.450
15.12000 5.216
15.14000 8.392
15.16000 13.490
15.18000 12.298
15.20000 9.818
15.22000 6.418
15.24000 3.392
15.26000 2.797
15.28000 -4.430
15.30000 5.314
15.32000 9.513
15.34000 9.479
15.36000 6.052
15.38000 12.374
15.40000 12.625
15.42000 8.767
15.44000 8.876
15.46000 7.621
15.48000 14.547
15.50000 7.923
15.52000 4.130
15.54000 7.701
15.56000 1.313
15.58000 5.205
15.60000 11.348
15.62000 4.013
15.64000 -4.414
15.66000 2.824
15.68000 1.296
15.70000 14.198
15.72000 20.276
15.74000 5.930
15.76000 -3.889
15.78000 3.658
15.80000 8.944
15.82000 7.376
15.84000 5.865
15.86000 8.460
15.88000 12.596
15.90000 11.537
15.92000 3.017
15.94000 1.786
15.96000 0.340
15.98000 3.199
16.00000 3.528
16.02000 -1.403
16.04000 1.562
16.06000 8.931
16.08000 10.402
16.10000 9.386
16.12000 6.268
16.14000 5.716
16.16000 9.683
16.18000 5.210
16.20000 6.623
16.22000 5.229
16.24000 7.929
16.26000 12.550
16.28000 13.500
16.30000 5.781
16.32000 4.251
16.34000 15.556
16.36000 15.955
16.38000 0.866
16.40000 4.544
16.42000 12.394
16.44000 8.171
16.46000 11.050
16.48000 3.830
16.50000 7.606
16.52000 8.913
16.54000 8.491
16.56000 2.766
16.58000 -0.430
16.60000 -0.866
16.62000 0.435
16.64000 10.553
16.66000 18.555
16.68000 17.423
16.70000 14.645
16.72000 5.834
16.74000 3.911
16.76000 3.170
16.78000 0.626
16.80000 -4.366
16.82000 -2.008
16.84000 2.140
16.86000 1.743
16.88000 4.826
16.90000 3.433
16.92000 1.588
16.94000 4.786
16.96000 12.328
16.98000 4.165
17.00000 9.970
17.02000 15.062
17.04000 7.360
17.06000 6.387
17.08000 3.025
17.10000 2.771
17.12000 7.138
17.14000 3.212
17.16000 5.720
17.18000 9.025
17.20000 15.384
17.22000 9.942
17.24000 10.065
17.26000 5.416
17.28000 -0.556
17.30000 6.742
17.32000 4.176
17.34000 2.651
17.36000 4.645
17.38000 10.508
17.40000 11.973
17.42000 11.722
17.44000 1.348
17.46000 4.450
17.48000 7.294
17.50000 3.856
17.52000 11.099
17.54000 13.469
17.56000 6.708
17.58000 2.909
17.60000 -4.105
17.62000 3.574
17.64000 16.022
17.66000 12.922
17.68000 4.726
17.70000 2.696
17.72000 14.024
17.74000 17.601
17.76000 14.168
17.78000 3.830
17.80000 4.176
17.82000 6.942
17.84000 8.308
17.86000 5.165
17.88000 4.444
17.90000 6.816
17.92000 10.371
17.94000 10.264
17.96000 8.732
17.98000 9.115
18.00000 3.086
18.02000 6.728
18.04000 6.814
18.06000 0.811
18.08000 3.270
18.10000 11.373
18.12000 2.741
18.14000 2.301
18.16000 0.663
18.18000 -1.648
18.20000 5.213
18.22000 8.585
18.24000 11.718
18.26000 5.199
18.28000 4.842
18.30000 12.001
18.32000 17.447
18.34000 8.789
18.36000 4.255
18.38000 1.728
18.40000 6.988
18.42000 10.409
18.44000 1.588
18.46000 0.525
18.48000 6.055
18.50000 3.442
18.52000 4.813
18.54000 5.140
18.56000 3.512
18.58000 8.934
18.60000 13.935
18.62000 9.502
18.64000 -2.605
18.66000 -4.272
18.68000 0.271
18.70000 -0.487
18.72000 6.383
18.74000 9.841
18.76000 4.890
18.78000 2.582
18.80000 4.083
18.82000 -1.428
18.84000 0.610
18.86000 4.826
18.88000 3.105
18.90000 0.857
18.92000 4.263
18.94000 8.405
18.96000 5.427
18.98000 0.719
19.00000 1.426
19.02000 5.669
19.04000 0.494
19.06000 -0.310
19.08000 2.792
19.10000 9.722
19.12000 9.673
19.14000 7.399
19.16000 9.067
19.18000 9.496
19.20000 10.517
19.22000 2.620
19.24000 3.533
19.26000 2.134
19.28000 8.034
19.30000 10.018
19.32000 12.925
19.34000 9.246
19.36000 -0.255
19.38000 -1.169
19.40000 8.770
19.42000 3.981
19.44000 -2.310
19.46000 2.563
19.48000 15.757
19.50000 10.238
19.52000 6.043
19.54000 15.799
19.56000 15.677
19.58000 6.907
19.60000 8.165
19.62000 8.017
19.64000 5.330
19.66000 9.380
19.68000 6.013
19.70000 -4.212
19.72000 1.043
19.74000 6.153
19.76000 6.164
19.78000 5.785
19.80000 6.719
19.82000 6.387
19.84000 6.207
19.86000 1.885
19.88000 5.861
19.90000 4.883
19.92000 2.449
19.94000 7.035
19.96000 5.676
19.98000 4.498
20.00000 8.220
20.02000 6.011
20.04000 8.574
20.06000 8.808
20.08000 5.310
20.10000 7.900
20.12000 9.688
20.14000 4.152
20.16000 -2.131
20.18000 -0.077
20.20000 0.485
20.22000 2.438
20.24000 3.561
20.26000 7.191
20.28000 8.038
20.30000 8.174
20.32000 4.653
20.34000 7.532
20.36000 9.006
20.38000 3.413
20.40000 6.381
20.42000 11.885
20.44000 7.763
20.46000 1.206
20.48000 1.641
20.50000 2.239
20.52000 11.047
20.54000 11.062
20.56000 5.499
20.58000 1.500
20.60000 6.587
20.62000 10.162
20.64000 2.526
20.66000 0.218
20.68000 9.472
20.70000 3.121
20.72000 2.885
20.74000 8.761
20.76000 7.031
20.78000 11.459
20.80000 10.998
20.82000 10.757
20.84000 8.306
20.86000 9.386
20.88000 9.499
20.90000 13.686
20.92000 11.352
20.94000 6.406
20.96000 4.496
20.98000 8.356
21.00000 11.074
21.02000 7.549
21.04000 5.141
21.06000 -2.455
21.08000 -4.116
21.10000 -1.096
21.12000 8.634
21.14000 10.168
21.16000 11.519
21.18000 9.317
21.20000 5.770
21.22000 6.090
21.24000 7.758
21.26000 9.243
21.28000 6.386
21.30000 10.198
21.32000 12.169
21.34000 4.747
21.36000 1.479
21.38000 6.724
21.40000 7.138
21.42000 11.574
21.44000 10.805
21.46000 11.844
21.48000 6.035
21.50000 3.047
21.52000 0.501
21.54000 -1.121
21.56000 6.772
21.58000 0.107
21.60000 0.306
21.62000 5.243
21.64000 13.132
21.66000 9.889
21.68000 6.788
21.70000 7.372
21.72000 2.780
21.74000 1.258
21.76000 4.131
21.78000 3.795
21.80000 3.314
21.82000 2.818
21.84000 5.373
21.86000 9.147
21.88000 7.314
21.90000 12.461
21.92000 13.517
21.94000 5.335
21.96000 -1.726
21.98000 0.899
22.00000 -1.905
22.02000 0.846
22.04000 1.037
22.06000 2.533
22.08000 3.967
22.10000 1.366
22.12000 -0.264
22.14000 -3.681
22.16000 0.836
22.18000 0.155
22.20000 0.892
22.22000 -1.691
22.24000 2.814
22.26000 3.056
22.28000 4.879
22.30000 7.120
22.32000 5.995
22.34000 10.565
22.36000 4.056
22.38000 -4.065
22.40000 -3.568
22.42000 -1.440
22.44000 2.282
22.46000 6.237
22.48000 6.003
22.50000 5.426
22.52000 2.748
22.54000 -1.649
22.56000 0.486
22.58000 1.087
22.60000 4.760
22.62000 6.718
22.64000 5.209
22.66000 1.382
22.68000 1.122
22.70000 8.671
22.72000 4.235
22.74000 4.382
22.76000 7.409
22.78000 3.536
22.80000 5.730
22.82000 5.026
22.84000 -0.546
22.86000 -0.906
22.88000 0.189
22.90000 3.898
22.92000 4.026
22.94000 -0.562
22.96000 1.627
22.98000 0.326
23.00000 -1.426
23.02000 2.651
23.04000 9.754
23.06000 6.939
23.08000 5.752
23.10000 4.836
23.12000 1.963
23.14000 5.195
23.16000 4.245
23.18000 5.104
23.20000 4.904
23.22000 7.689
23.24000 3.420
23.26000 2.988
23.28000 2.238
23.30000 1.824
23.32000 0.478
23.34000 2.980
23.36000 -0.678
23.38000 3.107
23.40000 4.079
23.42000 6.860
23.44000 2.330
23.46000 7.242
23.48000 8.880
23.50000 6.083
23.52000 0.973
23.54000 0.995
23.56000 0.258
23.58000 5.689
23.60000 3.671
23.62000 6.088
23.64000 5.757
23.66000 4.744
23.68000 5.459
23.70000 7.567
23.72000 2.997
23.74000 -3.489
23.76000 -2.155
23.78000 1.810
23.80000 3.922
23.82000 3.393
23.84000 3.345
23.86000 1.738
23.88000 3.158
23.90000 0.190
23.92000 2.259
23.94000 2.925
23.96000 2.622
23.98000 -2.833
24.00000 -2.069
24.02000 -1.779
24.04000 -3.494
24.06000 -3.008
24.08000 -0.999
24.10000 5.137
24.12000 8.287
24.14000 4.018
24.16000 2.275
24.18000 -1.551
24.20000 -3.979
24.22000 0.923
24.24000 3.336
24.26000 3.881
24.28000 1.956
24.30000 0.308
24.32000 3.063
24.34000 4.914
24.36000 2.423
24.38000 5.090
24.40000 -0.630
24.42000 1.421
24.44000 1.209
24.46000 2.674
24.48000 -0.909
24.50000 3.548
24.52000 1.672
24.54000 -2.567
24.56000 6.458
24.58000 2.913
24.60000 1.161
24.62000 -1.729
24.64000 4.120
24.66000 6.652
24.68000 8.679
24.70000 -1.959
24.72000 -1.921
24.74000 -0.231
24.76000 4.849
24.78000 2.612
24.80000 0.472
24.82000 1.856
24.84000 3.941
24.86000 -2.164
24.88000 -2.559
24.90000 -2.310
24.92000 0.080
24.94000 8.324
24.96000 12.276
24.98000 9.817
25.00000 2.003
25.02000 1.455
25.04000 0.777
25.06000 -2.299
25.08000 -2.517
25.10000 3.804
25.12000 4.219
25.14000 1.216
25.16000 -1.332
25.18000 -3.101
25.20000 1.783
25.22000 2.954
25.24000 3.464
25.26000 0.005
25.28000 -2.592
25.30000 -1.123
25.32000 5.125
25.34000 5.198
25.36000 3.045
25.38000 4.986
25.40000 4.227
25.42000 4.522
25.44000 -0.817
25.46000 -0.529
25.48000 0.604
25.50000 3.706
25.52000 7.206
25.54000 5.641
25.56000 7.831
25.58000 5.185
25.60000 3.668
25.62000 11.567
25.64000 6.252
25.66000 1.788
25.68000 2.757
25.70000 1.462
25.72000 -1.691
25.74000 -0.095
25.76000 -0.046
25.78000 -3.902
25.80000 0.728
25.82000 3.547
25.84000 7.320
25.86000 8.007
25.88000 3.632
25.90000 5.887
25.92000 7.776
25.94000 6.265
25.96000 4.271
25.98000 6.245
26.00000 8.408
26.02000 1.846
26.04000 -0.997
26.06000 3.533
26.08000 7.651
26.10000 8.124
26.12000 4.440
26.14000 1.039
26.16000 -2.907
26.18000 1.810
26.20000 1.621
26.22000 3.170
26.24000 -1.339
26.26000 -0.953
26.28000 2.035
26.30000 3.336
26.32000 3.270
26.34000 1.135
26.36000 -1.832
26.38000 2.214
26.40000 7.197
26.42000 7.440
26.44000 6.629
26.46000 3.045
26.48000 -0.034
26.50000 -3.848
26.52000 2.848
26.54000 4.558
26.56000 8.427
26.58000 5.502
26.60000 4.425
26.62000 4.807
26.64000 3.147
26.66000 2.658
26.68000 6.504
26.70000 4.876
26.72000 6.146
26.74000 8.773
26.76000 0.897
26.78000 -3.841
26.80000 -1.729
26.82000 2.155
26.84000 3.089
26.86000 0.775
26.88000 -1.176
26.90000 3.738
26.92000 -0.162
26.94000 -1.266
26.96000 -1.447
26.98000 -0.556
27.00000 -0.502
27.02000 -3.429
27.04000 3.085
27.06000 2.176
27.08000 3.953
27.10000 4.490
27.12000 1.938
27.14000 2.664
27.16000 0.808
27.18000 -1.201
27.20000 -2.211
27.22000 2.313
27.24000 6.426
27.26000 3.884
27.28000 -0.044
27.30000 2.638
27.32000 4.461
27.34000 1.158
27.36000 3.918
27.38000 3.164
27.40000 -0.076
27.42000 4.561
27.44000 4.090
27.46000 2.687
27.48000 6.242
27.50000 2.887
27.52000 2.774
27.54000 1.630
27.56000 3.680
27.58000 3.566
27.60000 1.434
27.62000 2.239
27.64000 4.496
27.66000 7.006
27.68000 -0.093
27.70000 -1.485
27.72000 -1.904
27.74000 0.378
27.76000 -1.144
27.78000 1.878
27.80000 4.277
27.82000 4.498
27.84000 -0.023
27.86000 -1.634
27.88000 2.747
27.90000 0.722
27.92000 2.850
27.94000 5.487
27.96000 -0.489
27.98000 -0.847
28.00000 -3.792
28.02000 0.250
28.04000 2.568
28.06000 3.044
28.08000 3.334
28.10000 3.155
28.12000 1.014
28.14000 -1.564
28.16000 -0.528
28.18000 2.603
28.20000 -1.712
28.22000 -1.121
28.24000 3.066
28.26000 4.808
28.28000 -3.497
28.30000 3.388
28.32000 4.813
28.34000 2.274
28.36000 3.104
28.38000 2.092
28.40000 3.488
28.42000 3.592
28.44000 2.987
28.46000 2.084
28.48000 -2.630
28.50000 -1.330
28.52000 2.832
28.54000 5.368
28.56000 2.430
28.58000 -0.827
28.60000 0.247
28.62000 3.106
28.64000 3.260
28.66000 2.602
28.68000 6.579
28.70000 2.711
28.72000 3.029
28.74000 8.692
28.76000 4.529
28.78000 3.022
28.80000 -2.579
28.82000 -1.988
28.84000 2.606
28.86000 1.909
28.88000 0.927
28.90000 5.029
28.92000 3.719
28.94000 4.504
28.96000 5.869
28.98000 5.838
29.00000 3.842
29.02000 7.508
29.04000 7.765
29.06000 6.224
29.08000 5.985
29.10000 5.960
29.12000 4.757
29.14000 3.915
29.16000 1.960
29.18000 3.139
29.20000 7.976
29.22000 6.208
29.24000 2.170
29.26000 0.490
29.28000 -2.156
29.30000 0.462
29.32000 4.673
29.34000 3.688
29.36000 -0.179
29.38000 -2.433
29.40000 -3.702
29.42000 0.783
29.44000 1.851
29.46000 2.846
29.48000 -3.219
29.50000 1.894
29.52000 6.604
29.54000 11.184
29.56000 7.879
29.58000 3.420
29.60000 1.959
29.62000 4.682
29.64000 5.321
29.66000 5.592
29.68000 1.028
29.70000 2.042
29.72000 4.872
29.74000 1.902
29.76000 4.656
29.78000 3.104
29.80000 2.928
29.82000 3.936
29.84000 2.602
29.86000 -0.392
29.88000 -0.154
29.90000 2.180
29.92000 3.463
29.94000 0.448
29.96000 1.075
29.98000 -0.535
30.00000 4.152
30.02000 5.072
30.04000 -0.992
30.06000 -1.753
30.08000 -0.451
30.10000 8.066
30.12000 9.794
30.14000 5.387
30.16000 4.546
30.18000 4.483
30.20000 3.949
30.22000 6.269
30.24000 3.874
30.26000 3.508
30.28000 -2.717
30.30000 -3.658
30.32000 0.370
30.34000 4.762
30.36000 1.637
30.38000 -1.394
30.40000 4.709
30.42000 4.763
30.44000 6.017
30.46000 7.877
30.48000 10.163
30.50000 7.788
30.52000 3.748
30.54000 4.943
30.56000 7.825
30.58000 9.226
30.60000 6.997
30.62000 6.654
30.64000 6.483
30.66000 2.083
30.68000 -1.348
30.70000 4.073
30.72000 2.810
30.74000 -0.894
30.76000 4.893
30.78000 1.008
30.80000 -0.084
30.82000 6.538
30.84000 6.895
30.86000 9.391
30.88000 9.711
30.90000 3.893
30.92000 1.864
30.94000 1.468
30.96000 5.595
30.98000 3.282
31.00000 4.091
31.02000 10.670
31.04000 1.487
31.06000 -3.618
31.08000 2.417
31.10000 5.052
31.12000 1.288
31.14000 2.893
31.16000 2.369
31.18000 0.832
31.20000 4.215
31.22000 7.966
31.24000 4.935
31.26000 5.229
31.28000 1.566
31.30000 -0.238
31.32000 2.406
31.34000 5.673
31.36000 -0.171
31.38000 -3.605
31.40000 -0.550
31.42000 0.274
31.44000 2.903
31.46000 1.012
31.48000 3.638
31.50000 -0.929
31.52000 -1.118
31.54000 3.704
31.56000 1.336
31.58000 6.832
31.60000 3.794
31.62000 4.415
31.64000 6.286
31.66000 10.076
31.68000 7.865
31.70000 2.567
31.72000 3.490
31.74000 5.098
31.76000 6.118
31.78000 3.946
31.80000 -2.881
31.82000 0.293
31.84000 2.753
31.86000 2.177
31.88000 5.994
31.90000 2.449
31.92000 9.438
31.94000 7.426
31.96000 5.108
31.98000 2.753
32.00000 4.783
32.02000 0.501
32.04000 0.036
32.06000 4.557
32.08000 4.702
32.10000 0.668
32.12000 1.118
32.14000 8.290
32.16000 7.605
32.18000 4.295
32.20000 3.057
32.22000 8.460
32.24000 7.242
32.26000 6.475
32.28000 4.156
32.30000 1.107
32.32000 2.038
32.34000 3.134
32.36000 2.437
32.38000 1.825
32.40000 8.479
32.42000 4.465
32.44000 7.012
32.46000 7.376
32.48000 7.914
32.50000 5.560
32.52000 2.776
32.54000 5.666
32.56000 9.203
32.58000 6.239
32.60000 1.023
32.62000 -2.073
32.64000 -0.813
32.66000 1.492
32.68000 -0.724
32.70000 -3.564
32.72000 0.173
32.74000 4.001
32.76000 3.922
32.78000 5.248
32.80000 2.780
32.82000 7.434
32.84000 6.674
32.86000 1.561
32.88000 4.169
32.90000 3.101
32.92000 2.132
32.94000 6.042
32.96000 3.726
32.98000 0.209
33.00000 2.937
33.02000 2.882
33.04000 2.997
33.06000 2.865
33.08000 1.555
33.10000 1.916
33.12000 0.850
33.14000 3.080
33.16000 1.478
33.18000 5.348
33.20000 6.066
33.22000 3.396
33.24000 5.686
33.26000 4.397
33.28000 1.329
33.30000 0.837
33.32000 5.528
33.34000 0.945
33.36000 1.523
33.38000 2.192
33.40000 2.070
33.42000 -1.749
33.44000 0.053
33.46000 -1.259
33.48000 -0.160
33.50000 -1.177
33.52000 -1.815
33.54000 0.348
33.56000 0.471
33.58000 -0.716
33.60000 2.981
33.62000 5.879
33.64000 1.476
33.66000 1.981
33.68000 7.382
33.70000 6.958
33.72000 2.286
33.74000 1.905
33.76000 1.018
33.78000 1.420
33.80000 4.371
33.82000 1.449
33.84000 0.505
33.86000 3.455
33.88000 6.567
33.90000 5.938
33.92000 4.221
33.94000 4.389
33.96000 5.846
33.98000 5.653
34.00000 -0.805
34.02000 -2.391
34.04000 3.046
34.06000 7.702
34.08000 5.556
34.10000 5.833
34.12000 6.664
34.14000 3.674
34.16000 0.380
34.18000 0.568
34.20000 0.939
34.22000 -0.547
34.24000 -1.617
34.26000 -0.229
34.28000 -3.153
34.30000 1.009
34.32000 2.196
34.34000 0.892
34.36000 3.326
34.38000 3.197
34.40000 4.219
34.42000 1.494
34.44000 -2.060
34.46000 -3.360
34.48000 -0.783
34.50000 0.323
34.52000 1.035
34.54000 -1.737
34.56000 -3.551
34.58000 1.687
34.60000 10.490
34.62000 3.242
34.64000 7.608
34.66000 3.238
34.68000 3.300
34.70000 5.784
34.72000 3.170
34.74000 0.968
34.76000 2.043
34.78000 3.221
34.80000 6.817
34.82000 7.391
34.84000 11.202
34.86000 11.237
34.88000 5.736
34.90000 -2.243
34.92000 -1.682
34.94000 -1.327
34.96000 -3.549
34.98000 -0.991
35.00000 4.234
35.02000 4.214
35.04000 3.042
35.06000 2.979
35.08000 -0.140
35.10000 1.409
35.12000 3.060
35.14000 5.687
35.16000 4.405
35.18000 -1.643
35.20000 -1.375
35.22000 0.486
35.24000 3.923
35.26000 -3.549
35.28000 -3.202
35.30000 4.102
35.32000 2.503
35.34000 4.034
35.36000 5.448
35.38000 6.119
35.40000 1.533
35.42000 0.764
35.44000 1.079
35.46000 7.388
35.48000 3.350
35.50000 3.883
35.52000 -1.371
35.54000 -3.547
35.56000 3.929
35.58000 4.531
35.60000 8.529
35.62000 12.213
35.64000 4.220
35.66000 5.632
35.68000 0.450
35.70000 -1.212
35.72000 -2.077
35.74000 -1.212
35.76000 1.499
35.78000 4.206
35.80000 1.940
35.82000 1.773
35.84000 1.757
35.86000 1.399
35.88000 3.035
35.90000 4.344
35.92000 5.911
35.94000 3.806
35.96000 1.607
35.98000 4.685
36.00000 4.335
36.02000 1.773
36.04000 2.602
36.06000 1.007
36.08000 1.304
36.10000 4.648
36.12000 4.899
36.14000 2.383
36.16000 2.379
36.18000 1.070
36.20000 1.578
36.22000 2.079
36.24000 3.199
36.26000 1.186
36.28000 0.983
36.30000 2.223
36.32000 3.094
36.34000 -1.170
36.36000 1.473
36.38000 2.198
36.40000 -0.088
36.42000 -0.318
36.44000 0.431
36.46000 -2.005
36.48000 -3.588
36.50000 -1.315
36.52000 1.245
36.54000 -0.014
36.56000 0.006
36.58000 1.525
36.60000 1.871
36.62000 4.271
36.64000 4.774
36.66000 0.543
36.68000 -1.466
36.70000 -0.705
36.72000 1.977
36.74000 -3.604
36.76000 -2.454
36.78000 1.834
36.80000 4.692
36.82000 6.087
36.84000 3.068
36.86000 2.507
36.88000 2.661
36.90000 3.498
36.92000 1.430
36.94000 -0.459
36.96000 0.224
36.98000 0.435
37.00000 -1.524
37.02000 0.099
37.04000 1.932
37.06000 1.635
37.08000 1.607
37.10000 1.631
37.12000 -0.635
37.14000 2.046
37.16000 3.094
37.18000 4.212
37.20000 4.441
37.22000 8.672
37.24000 5.907
37.26000 5.715
37.28000 2.892
37.30000 5.125
37.32000 3.681
37.34000 1.383
37.36000 1.121
37.38000 1.390
37.40000 1.591
37.42000 3.889
37.44000 7.668
37.46000 8.254
37.48000 6.080
37.50000 9.294
37.52000 14.019
37.54000 7.894
37.56000 8.444
37.58000 12.180
37.60000 14.195
37.62000 12.117
37.64000 8.914
37.66000 11.620
37.68000 9.834
37.70000 10.631
37.72000 14.803
37.74000 12.431
37.76000 12.402
37.78000 7.617
37.80000 8.293
37.82000 15.689
37.84000 15.453
37.86000 10.132
37.88000 11.135
37.90000 13.772
37.92000 12.592
37.94000 16.124
37.96000 14.867
37.98000 15.236
38.00000 19.706
38.02000 20.717
38.04000 23.773
38.06000 26.063
38.08000 25.086
38.10000 26.747
38.12000 29.251
38.14000 28.446
38.16000 25.452
38.18000 25.865
38.20000 29.153
38.22000 28.042
38.24000 25.873
38.26000 28.582
38.28000 30.556
38.30000 28.205
38.32000 28.120
38.34000 32.793
38.36000 34.247
38.38000 36.424
38.40000 35.708
38.42000 41.524
38.44000 42.544
38.46000 49.288
38.48000 45.741
38.50000 47.248
38.52000 55.009
38.54000 50.802
38.56000 57.155
38.58000 57.036
38.60000 50.044
38.62000 61.163
38.64000 63.804
38.66000 68.514
38.68000 72.321
38.70000 68.699
38.72000 70.036
38.74000 73.648
38.76000 76.228
38.78000 88.516
38.80000 92.036
38.82000 95.612
38.84000 94.564
38.86000 99.107
38.88000 108.592
38.90000 110.754
38.92000 114.525
38.94000 123.473
38.96000 130.647
38.98000 138.102
39.00000 143.541
39.02000 152.029
39.04000 159.133
39.06000 166.921
39.08000 174.442
39.10000 189.392
39.12000 202.327
39.14000 217.265
39.16000 226.191
39.18000 243.908
39.20000 258.225
39.22000 276.336
39.24000 291.984
39.26000 309.460
39.28000 326.597
39.30000 342.454
39.32000 359.953
39.34000 376.639
39.36000 397.234
39.38000 419.902
39.40000 443.071
39.42000 472.301
39.44000 492.909
39.46000 513.848
39.48000 535.437
39.50000 554.225
39.52000 583.972
39.54000 611.368
39.56000 627.373
39.58000 648.069
39.60000 668.241
39.62000 681.901
39.64000 691.870
39.66000 690.601
39.68000 702.051
39.70000 717.615
39.72000 715.053
39.74000 714.886
39.76000 718.269
39.78000 708.490
39.80000 694.526
39.82000 687.508
39.84000 679.092
39.86000 658.194
39.88000 640.315
39.90000 624.723
39.92000 603.335
39.94000 592.779
39.96000 580.668
39.98000 553.964
40.00000 523.573
40.02000 504.154
40.04000 483.282
40.06000 457.249
40.08000 442.944
40.10000 419.050
40.12000 392.885
40.14000 376.717
40.16000 353.744
40.18000 331.913
40.20000 311.319
40.22000 287.969
40.24000 272.449
40.26000 258.397
40.28000 249.234
40.30000 229.741
40.32000 206.292
40.34000 193.928
40.36000 191.450
40.38000 177.232
40.40000 164.751
40.42000 146.638
40.44000 140.495
40.46000 130.014
40.48000 123.581
40.50000 115.210
40.52000 109.756
40.54000 110.279
40.56000 106.290
40.58000 97.625
40.60000 87.909
40.62000 82.380
40.64000 77.035
40.66000 69.148
40.68000 61.021
40.70000 59.761
40.72000 59.006
40.74000 53.359
40.76000 53.269
40.78000 50.891
40.80000 45.295
40.82000 43.619
40.84000 44.523
40.86000 41.378
40.88000 34.911
40.90000 33.095
40.92000 28.733
40.94000 30.389
40.96000 32.367
40.98000 27.258
41.00000 27.664
41.02000 26.042
41.04000 23.030
41.06000 22.709
41.08000 23.973
41.10000 21.166
41.12000 22.671
41.14000 19.954
41.16000 17.748
41.18000 12.835
41.20000 16.729
41.22000 17.293
41.24000 17.099
41.26000 18.013
41.28000 15.417
41.30000 12.410
41.32000 13.563
41.34000 12.991
41.36000 12.661
41.38000 11.458
41.40000 9.859
41.42000 7.461
41.44000 7.143
41.46000 8.650
41.48000 8.109
41.50000 8.770
41.52000 8.811
41.54000 3.738
41.56000 3.619
41.58000 3.795
41.60000 4.509
41.62000 8.118
41.64000 6.977
41.66000 7.339
41.68000 3.684
41.70000 3.167
41.72000 0.905
41.74000 1.002
41.76000 3.656
41.78000 2.200
41.80000 0.352
41.82000 -0.212
41.84000 6.110
41.86000 5.866
41.88000 5.718
41.90000 3.989
41.92000 2.257
41.94000 3.081
41.96000 3.990
41.98000 4.274
42.00000 3.982
42.02000 5.660
42.04000 6.839
42.06000 1.519
42.08000 1.032
42.10000 2.177
42.12000 2.134
42.14000 2.614
42.16000 1.579
42.18000 3.032
42.20000 7.606
42.22000 0.869
42.24000 -0.154
42.26000 -3.355
42.28000 0.646
42.30000 2.969
42.32000 4.248
42.34000 1.520
42.36000 -2.204
42.38000 0.243
42.40000 -0.539
42.42000 0.906
42.44000 1.580
42.46000 3.260
42.48000 4.552
42.50000 -0.253
42.52000 0.948
42.54000 2.496
42.56000 -1.222
42.58000 0.966
42.60000 4.539
42.62000 4.083
42.64000 -0.054
42.66000 -1.949
42.68000 -0.964
42.70000 -3.136
42.72000 -1.538
42.74000 0.628
42.76000 -1.134
42.78000 0.114
42.80000 -2.487
42.82000 -3.272
42.84000 -0.802
42.86000 1.071
42.88000 4.073
42.90000 2.620
42.92000 1.422
42.94000 0.234
42.96000 3.517
42.98000 3.398
43.00000 2.664
43.02000 -0.598
43.04000 -0.160
43.06000 2.553
43.08000 2.666
43.10000 2.331
43.12000 1.898
43.14000 0.553
43.16000 -1.107
43.18000 -2.566
43.20000 -2.117
43.22000 -3.196
43.24000 -0.424
43.26000 -2.740
43.28000 -1.265
43.30000 2.564
43.32000 0.944
43.34000 3.042
43.36000 -0.287
43.38000 -3.213
43.40000 0.353
43.42000 -0.546
43.44000 -1.879
43.46000 -0.937
43.48000 -2.787
43.50000 -0.267
43.52000 0.087
43.54000 -1.740
43.56000 1.379
43.58000 3.496
43.60000 -0.856
43.62000 -1.065
43.64000 0.085
43.66000 -0.907
43.68000 -3.152
43.70000 -0.992
43.72000 -0.780
43.74000 2.719
43.76000 3.670
43.78000 1.447
43.80000 -1.315
43.82000 0.901
43.84000 0.583
43.86000 3.258
43.88000 1.091
43.90000 5.025
43.92000 5.021
43.94000 5.490
43.96000 4.031
43.98000 2.832
44.00000 0.433
44.02000 -1.936
44.04000 -1.052
44.06000 -0.491
44.08000 5.784
44.10000 2.056
44.12000 -2.736
44.14000 -1.043
44.16000 1.986
44.18000 0.331
44.20000 2.218
44.22000 2.375
44.24000 -0.839
44.26000 -0.651
44.28000 -0.273
44.30000 0.070
44.32000 2.949
44.34000 3.274
44.36000 2.440
44.38000 -3.125
44.40000 -1.359
44.42000 0.739
44.44000 4.560
44.46000 6.076
44.48000 5.280
44.50000 4.655
44.52000 4.252
44.54000 4.969
44.56000 1.629
44.58000 2.083
44.60000 3.362
44.62000 -0.313
44.64000 0.777
44.66000 1.812
44.68000 -0.215
44.70000 1.303
44.72000 -0.447
44.74000 3.758
44.76000 3.438
44.78000 2.901
44.80000 1.124
44.82000 3.153
44.84000 2.578
44.86000 4.092
44.88000 3.633
44.90000 5.008
44.92000 4.167
44.94000 6.125
44.96000 7.816
44.98000 3.225
45.00000 2.752
45.02000 4.979
45.04000 7.349
45.06000 6.741
45.08000 5.730
45.10000 6.335
45.12000 4.933
45.14000 6.794
45.16000 7.429
45.18000 9.552
45.20000 10.241
45.22000 6.551
45.24000 3.905
45.26000 2.918
45.28000 9.463
45.30000 9.222
45.32000 10.067
45.34000 16.278
45.36000 16.779
45.38000 12.064
45.40000 16.145
45.42000 15.314
45.44000 14.651
45.46000 12.360
45.48000 13.330
45.50000 15.205
45.52000 19.085
45.54000 20.159
45.56000 20.522
45.58000 22.164
45.60000 19.551
45.62000 16.018
45.64000 22.782
45.66000 26.690
45.68000 27.401
45.70000 28.163
45.72000 25.847
45.74000 22.267
45.76000 30.256
45.78000 33.284
45.80000 32.321
45.82000 33.223
45.84000 32.810
45.86000 32.920
45.88000 31.008
45.90000 35.318
45.92000 40.997
45.94000 41.217
45.96000 42.928
45.98000 46.774
46.00000 46.751
46.02000 48.921
46.04000 46.987
46.06000 50.262
46.08000 55.341
46.10000 53.884
46.12000 55.574
46.14000 56.476
46.16000 53.656
46.18000 62.422
46.20000 62.372
46.22000 65.522
46.24000 70.170
46.26000 68.190
46.28000 70.684
46.30000 70.523
46.32000 70.691
46.34000 67.880
46.36000 71.647
46.38000 69.472
46.40000 71.921
46.42000 74.238
46.44000 70.867
46.46000 72.379
46.48000 76.243
46.50000 73.780
46.52000 72.153
46.54000 73.196
46.56000 68.940
46.58000 66.333
46.60000 69.795
46.62000 63.624
46.64000 64.869
46.66000 62.835
46.68000 65.379
46.70000 64.192
46.72000 56.193
46.74000 57.095
46.76000 56.992
46.78000 54.915
46.80000 53.830
46.82000 43.379
46.84000 39.655
46.86000 38.874
46.88000 46.954
46.90000 43.586
46.92000 42.462
46.94000 36.508
46.96000 32.174
46.98000 27.998
47.00000 33.619
47.02000 30.619
47.04000 27.540
47.06000 24.076
47.08000 25.487
47.10000 24.368
47.12000 21.573
47.14000 24.825
47.16000 19.382
47.18000 18.099
47.20000 15.982
47.22000 19.935
47.24000 19.273
47.26000 13.339
47.28000 13.056
47.30000 10.693
47.32000 13.639
47.34000 12.395
47.36000 11.414
47.38000 9.315
47.40000 8.259
47.42000 6.309
47.44000 6.692
47.46000 6.001
47.48000 1.506
47.50000 4.186
47.52000 4.477
47.54000 5.728
47.56000 8.207
47.58000 6.050
47.60000 5.152
47.62000 4.918
47.64000 5.052
47.66000 3.793
47.68000 2.301
47.70000 0.142
47.72000 0.039
47.74000 1.549
47.76000 -0.331
47.78000 0.668
47.80000 3.444
47.82000 2.685
47.84000 4.713
47.86000 4.749
47.88000 2.939
47.90000 5.079
47.92000 7.528
47.94000 4.284
47.96000 7.786
47.98000 2.117
48.00000 -1.995
48.02000 -1.664
48.04000 -1.260
48.06000 -2.478
48.08000 1.449
48.10000 -1.934
48.12000 0.939
48.14000 2.209
48.16000 5.130
48.18000 2.767
48.20000 3.546
48.22000 1.203
48.24000 3.904
48.26000 4.852
48.28000 4.253
48.30000 1.075
48.32000 1.400
48.34000 3.853
48.36000 2.655
48.38000 5.886
48.40000 2.453
48.42000 5.983
48.44000 8.078
48.46000 2.704
48.48000 -0.536
48.50000 -2.672
48.52000 -1.122
48.54000 2.043
48.56000 2.916
48.58000 -0.398
48.60000 -2.626
48.62000 -0.695
48.64000 1.675
48.66000 2.222
48.68000 2.329
48.70000 4.557
48.72000 2.629
48.74000 -1.636
48.76000 0.977
48.78000 1.731
48.80000 3.685
48.82000 7.852
48.84000 6.157
48.86000 5.701
48.88000 2.135
48.90000 3.467
48.92000 2.782
48.94000 3.426
48.96000 -0.022
48.98000 1.777
49.00000 1.582
49.02000 0.723
49.04000 0.351
49.06000 2.799
49.08000 5.627
49.10000 2.306
49.12000 2.070
49.14000 0.926
49.16000 1.864
49.18000 -1.512
49.20000 -1.751
49.22000 3.145
49.24000 1.309
49.26000 0.808
49.28000 2.762
49.30000 7.040
49.32000 4.453
49.34000 2.795
49.36000 2.618
49.38000 0.524
49.40000 2.058
49.42000 0.165
49.44000 2.514
49.46000 4.317
49.48000 3.303
49.50000 6.174
49.52000 6.002
49.54000 6.241
49.56000 0.908
49.58000 -1.416
49.60000 -0.173
49.62000 2.633
49.64000 0.123
49.66000 5.451
49.68000 2.082
49.70000 2.904
49.72000 1.081
49.74000 3.315
49.76000 1.103
49.78000 0.483
49.80000 -0.086
49.82000 -1.328
49.84000 1.676
49.86000 4.897
49.88000 3.480
49.90000 0.485
49.92000 -0.495
49.94000 3.059
49.96000 -1.045
49.98000 0.224
50.00000 1.721
50.02000 3.898
50.04000 2.853
50.06000 -2.564
50.08000 -1.324
50.10000 5.033
50.12000 6.127
50.14000 1.063
50.16000 0.203
50.18000 2.490
50.20000 5.819
50.22000 5.196
50.24000 2.351
50.26000 1.422
50.28000 1.873
50.30000 2.753
50.32000 0.770
50.34000 3.977
50.36000 2.058
50.38000 -0.261
50.40000 0.634
50.42000 4.875
50.44000 5.845
50.46000 2.775
50.48000 -0.975
50.50000 1.006
50.52000 2.757
50.54000 2.250
50.56000 6.992
50.58000 5.088
50.60000 1.063
50.62000 3.725
50.64000 5.116
50.66000 3.633
50.68000 2.545
50.70000 1.351
50.72000 -0.274
50.74000 2.045
50.76000 3.948
50.78000 3.869
50.80000 5.163
50.82000 5.316
50.84000 6.226
50.86000 7.997
50.88000 4.525
50.90000 4.943
50.92000 4.945
50.94000 2.423
50.96000 2.005
50.98000 5.100
51.00000 2.429
51.02000 0.399
51.04000 4.170
51.06000 2.609
51.08000 3.210
51.10000 3.572
51.12000 8.507
51.14000 6.354
51.16000 3.375
51.18000 0.940
51.20000 2.962
51.22000 5.526
51.24000 4.367
51.26000 4.785
51.28000 4.018
51.30000 7.034
51.32000 7.667
51.34000 1.837
51.36000 -2.498
51.38000 -0.153
51.40000 3.016
51.42000 3.458
51.44000 8.418
51.46000 7.829
51.48000 5.454
51.50000 2.621
51.52000 2.945
51.54000 5.010
51.56000 5.676
51.58000 5.040
51.60000 0.955
51.62000 1.835
51.64000 5.715
51.66000 2.629
51.68000 1.696
51.70000 0.618
51.72000 1.383
51.74000 0.980
51.76000 3.259
51.78000 4.437
51.80000 3.520
51.82000 -1.105
51.84000 0.936
51.86000 -0.565
51.88000 -0.372
51.90000 1.668
51.92000 5.159
51.94000 4.244
51.96000 5.598
51.98000 6.927
52.00000 3.474
52.02000 1.355
52.04000 3.594
52.06000 4.698
52.08000 2.708
52.10000 3.135
52.12000 3.554
52.14000 2.957
52.16000 3.100
52.18000 3.292
52.20000 4.527
52.22000 3.583
52.24000 2.619
52.26000 3.455
52.28000 3.466
52.30000 4.434
52.32000 2.603
52.34000 1.354
52.36000 1.242
52.38000 5.841
52.40000 2.971
52.42000 -0.889
52.44000 3.101
52.46000 7.854
52.48000 4.277
52.50000 0.186
52.52000 1.598
52.54000 0.158
52.56000 -0.862
52.58000 -2.467
52.60000 -1.019
52.62000 -1.474
52.64000 0.684
52.66000 2.050
52.68000 4.731
52.70000 5.235
52.72000 6.269
52.74000 6.608
52.76000 4.757
52.78000 7.924
52.80000 7.339
52.82000 6.187
52.84000 4.345
52.86000 3.378
52.88000 7.489
52.90000 5.768
52.92000 5.106
52.94000 4.591
52.96000 2.205
52.98000 3.076
53.00000 -2.010
53.02000 -0.922
53.04000 1.832
53.06000 1.279
53.08000 3.947
53.10000 2.464
53.12000 4.635
53.14000 6.668
53.16000 2.788
53.18000 -2.456
53.20000 2.533
53.22000 6.443
53.24000 5.945
53.26000 4.262
53.28000 0.786
53.30000 1.318
53.32000 1.780
53.34000 2.014
53.36000 1.543
53.38000 1.016
53.40000 1.126
53.42000 1.311
53.44000 1.534
53.46000 6.201
53.48000 4.153
53.50000 1.825
53.52000 2.632
53.54000 1.959
53.56000 1.740
53.58000 2.825
53.60000 3.226
53.62000 2.375
53.64000 2.839
53.66000 1.479
53.68000 -1.849
53.70000 -0.460
53.72000 -2.029
53.74000 0.357
53.76000 2.421
53.78000 4.206
53.80000 3.460
53.82000 -1.279
53.84000 0.078
53.86000 3.890
53.88000 1.271
53.90000 5.742
53.92000 4.602
53.94000 0.668
53.96000 2.982
53.98000 4.955
54.00000 4.575
54.02000 2.844
54.04000 0.967
54.06000 2.102
54.08000 -0.284
54.10000 -1.591
54.12000 -0.553
54.14000 2.062
54.16000 2.626
54.18000 1.643
54.20000 -0.092
54.22000 2.347
54.24000 4.455
54.26000 1.684
54.28000 2.692
54.30000 0.941
54.32000 2.236
54.34000 4.591
54.36000 4.064
54.38000 4.319
54.40000 1.315
54.42000 -0.087
54.44000 -1.791
54.46000 0.462
54.48000 3.016
54.50000 2.427
54.52000 2.298
54.54000 0.778
54.56000 2.055
54.58000 1.819
54.60000 2.813
54.62000 2.414
54.64000 0.948
54.66000 0.059
54.68000 -0.935
54.70000 -0.779
54.72000 2.490
54.74000 -0.669
54.76000 -1.677
54.78000 2.846
54.80000 3.145
54.82000 2.257
54.84000 0.451
54.86000 -1.140
54.88000 1.505
54.90000 -2.448
54.92000 -0.540
54.94000 0.863
54.96000 1.754
54.98000 2.436
55.00000 3.012
55.02000 2.138
55.04000 1.255
55.06000 1.438
55.08000 -1.974
55.10000 -1.007
55.12000 1.630
55.14000 1.073
55.16000 0.322
55.18000 3.002
55.20000 2.014
55.22000 -0.572
55.24000 -1.145
55.26000 -1.455
55.28000 0.648
55.30000 3.748
55.32000 2.254
55.34000 -1.938
55.36000 -0.666
55.38000 2.393
55.40000 1.254
55.42000 1.177
55.44000 3.243
55.46000 1.640
55.48000 3.233
55.50000 4.263
55.52000 1.392
55.54000 3.085
55.56000 1.737
55.58000 0.471
55.60000 0.617
55.62000 5.047
55.64000 6.282
55.66000 3.043
55.68000 3.010
55.70000 6.189
55.72000 9.126
55.74000 6.475
55.76000 2.029
55.78000 1.187
55.80000 1.606
55.82000 5.902
55.84000 3.604
55.86000 1.544
55.88000 2.958
55.90000 2.876
55.92000 4.884
55.94000 4.981
55.96000 0.738
55.98000 -2.402
56.00000 0.908
56.02000 2.995
56.04000 2.498
56.06000 2.986
56.08000 8.059
56.10000 7.366
56.12000 4.088
56.14000 2.410
56.16000 0.532
56.18000 4.526
56.20000 2.744
56.22000 4.148
56.24000 5.897
56.26000 3.491
56.28000 4.411
56.30000 5.160
56.32000 0.982
56.34000 -0.474
56.36000 3.980
56.38000 4.037
56.40000 1.177
56.42000 0.542
56.44000 -0.009
56.46000 4.554
56.48000 2.734
56.50000 0.722
56.52000 0.852
56.54000 1.395
56.56000 2.012
56.58000 2.226
56.60000 -0.930
56.62000 1.315
56.64000 4.187
56.66000 2.029
56.68000 2.561
56.70000 2.105
56.72000 5.205
56.74000 5.803
56.76000 3.337
56.78000 2.012
56.80000 -1.405
56.82000 -2.387
56.84000 -0.879
56.86000 0.873
56.88000 1.311
56.90000 1.287
56.92000 -1.087
56.94000 1.554
56.96000 3.283
56.98000 3.825
57.00000 0.905
57.02000 4.371
57.04000 -0.149
57.06000 3.011
57.08000 4.024
57.10000 7.323
57.12000 4.691
57.14000 -0.792
57.16000 -1.781
57.18000 0.901
57.20000 2.338
57.22000 4.056
57.24000 4.601
57.26000 1.041
57.28000 1.390
57.30000 1.006
57.32000 -2.352
57.34000 3.206
57.36000 4.220
57.38000 4.947
57.40000 4.539
57.42000 0.182
57.44000 5.565
57.46000 3.437
57.48000 -0.803
57.50000 3.024
57.52000 1.071
57.54000 1.431
57.56000 2.847
57.58000 2.029
57.60000 2.244
57.62000 2.493
57.64000 4.162
57.66000 2.209
57.68000 2.203
57.70000 4.038
57.72000 2.000
57.74000 3.889
57.76000 3.902
57.78000 4.853
57.80000 5.287
57.82000 4.658
57.84000 4.053
57.86000 1.973
57.88000 3.202
57.90000 5.864
57.92000 2.805
57.94000 0.990
57.96000 5.410
57.98000 3.576
58.00000 3.669
58.02000 0.877
58.04000 5.010
58.06000 3.217
58.08000 2.992
58.10000 1.414
58.12000 3.533
58.14000 3.955
58.16000 1.362
58.18000 0.359
58.20000 0.208
58.22000 3.217
58.24000 1.124
58.26000 0.454
58.28000 2.408
58.30000 2.008
58.32000 -0.721
58.34000 2.141
58.36000 2.473
58.38000 -0.529
58.40000 0.771
58.42000 1.844
58.44000 1.487
58.46000 2.256
58.48000 3.235
58.50000 2.122
58.52000 3.121
58.54000 4.821
58.56000 6.305
58.58000 1.387
58.60000 0.077
58.62000 5.391
58.64000 2.457
58.66000 2.400
58.68000 0.358
58.70000 2.118
58.72000 3.778
58.74000 2.938
58.76000 3.624
58.78000 5.844
58.80000 3.536
58.82000 1.545
58.84000 2.804
58.86000 3.559
58.88000 0.474
58.90000 2.332
58.92000 3.938
58.94000 1.772
58.96000 2.820
58.98000 2.237
59.00000 -0.300
59.02000 1.196
59.04000 1.013
59.06000 1.112
59.08000 5.153
59.10000 7.299
59.12000 6.293
59.14000 2.305
59.16000 5.149
59.18000 1.065
59.20000 -1.958
59.22000 -2.279
59.24000 -1.749
59.26000 1.384
59.28000 2.913
59.30000 4.610
59.32000 4.308
59.34000 4.027
59.36000 3.685
59.38000 0.615
59.40000 1.460
59.42000 3.350
59.44000 3.648
59.46000 2.933
59.48000 0.054
59.50000 2.020
59.52000 2.424
59.54000 1.539
59.56000 2.225
59.58000 5.332
59.60000 3.880
59.62000 2.834
59.64000 0.935
59.66000 0.513
59.68000 3.922
59.70000 5.529
59.72000 4.106
59.74000 4.218
59.76000 4.510
59.78000 6.269
59.80000 4.564
59.82000 4.137
59.84000 4.307
59.86000 1.684
59.88000 -0.892
59.90000 2.177
59.92000 3.625
59.94000 2.257
59.96000 1.378
59.98000 2.545
60.00000 1.787
60.02000 2.926
60.04000 3.831
60.06000 3.944
60.08000 5.162
60.10000 5.643
60.12000 4.780
60.14000 2.954
60.16000 2.341
60.18000 2.686
60.20000 -0.390
60.22000 1.740
60.24000 6.029
60.26000 4.576
60.28000 5.112
60.30000 6.085
60.32000 2.994
60.34000 -0.757
60.36000 0.394
60.38000 1.828
60.40000 4.033
60.42000 6.153
60.44000 5.589
60.46000 5.066
60.48000 2.745
60.50000 3.751
60.52000 3.469
60.54000 -1.246
60.56000 0.367
60.58000 -2.276
60.60000 -0.311
60.62000 1.981
60.64000 1.632
60.66000 2.952
60.68000 0.073
60.70000 -0.843
60.72000 5.358
60.74000 6.631
60.76000 4.888
60.78000 4.067
60.80000 2.063
60.82000 0.386
60.84000 0.046
60.86000 -0.214
60.88000 0.965
60.90000 -0.282
60.92000 0.903
60.94000 3.462
60.96000 2.185
60.98000 0.490
61.00000 2.668
61.02000 2.347
61.04000 1.215
61.06000 -0.594
61.08000 1.151
61.10000 0.351
61.12000 -0.104
61.14000 -0.047
61.16000 -0.862
61.18000 0.568
61.20000 0.303
61.22000 -0.376
61.24000 -0.431
61.26000 1.839
61.28000 1.421
61.30000 1.348
61.32000 1.276
61.34000 0.449
61.36000 -2.214
61.38000 0.193
61.40000 0.682
61.42000 2.525
61.44000 3.576
61.46000 0.876
61.48000 0.056
61.50000 2.999
61.52000 0.309
61.54000 0.062
61.56000 2.447
61.58000 1.354
61.60000 -1.698
61.62000 -2.255
61.64000 2.336
61.66000 4.022
61.68000 2.969
61.70000 1.510
61.72000 2.600
61.74000 1.543
61.76000 1.342
61.78000 0.697
61.80000 -1.694
61.82000 -1.433
61.84000 0.911
61.86000 0.651
61.88000 2.936
61.90000 2.528
61.92000 4.716
61.94000 2.113
61.96000 1.565
61.98000 1.384
62.00000 -1.587
62.02000 2.423
62.04000 0.182
62.06000 -0.342
62.08000 1.613
62.10000 1.289
62.12000 3.532
62.14000 1.063
62.16000 2.263
62.18000 3.315
62.20000 0.621
62.22000 0.288
62.24000 1.091
62.26000 3.136
62.28000 2.516
62.30000 2.777
62.32000 2.214
62.34000 -1.355
62.36000 -1.263
62.38000 1.658
62.40000 5.221
62.42000 5.771
62.44000 3.485
62.46000 0.664
62.48000 -2.233
62.50000 -0.950
62.52000 0.229
62.54000 0.639
62.56000 -0.151
62.58000 -1.591
62.60000 0.619
62.62000 1.726
62.64000 -0.413
62.66000 1.934
62.68000 4.903
62.70000 1.949
62.72000 -0.431
62.74000 1.678
62.76000 3.232
62.78000 4.914
62.80000 4.600
62.82000 1.696
62.84000 -0.500
62.86000 0.895
62.88000 2.042
62.90000 3.593
62.92000 2.104
62.94000 3.332
62.96000 2.569
62.98000 1.545
63.00000 4.014
63.02000 4.971
63.04000 3.310
63.06000 1.917
63.08000 0.581
63.10000 -1.716
63.12000 0.738
63.14000 3.171
63.16000 2.153
63.18000 0.630
63.20000 4.055
63.22000 2.435
63.24000 3.330
63.26000 0.467
63.28000 -2.027
63.30000 -0.199
63.32000 0.921
63.34000 -1.375
63.36000 0.554
63.38000 4.285
63.40000 6.511
63.42000 5.392
63.44000 2.335
63.46000 -1.891
63.48000 -2.211
63.50000 1.538
63.52000 0.626
63.54000 3.497
63.56000 7.577
63.58000 3.965
63.60000 1.353
63.62000 0.374
63.64000 -0.358
63.66000 0.749
63.68000 3.083
63.70000 3.332
63.72000 5.703
63.74000 3.483
63.76000 3.094
63.78000 1.801
63.80000 4.705
63.82000 3.732
63.84000 1.380
63.86000 -1.279
63.88000 0.866
63.90000 1.553
63.92000 0.586
63.94000 1.189
63.96000 -1.334
63.98000 -0.951
64.00000 -0.200
64.02000 1.313
64.04000 1.357
64.06000 4.544
64.08000 1.765
64.10000 -0.487
64.12000 -2.124
64.14000 1.557
64.16000 3.210
64.18000 4.098
64.20000 2.770
64.22000 2.910
64.24000 4.261
64.26000 3.852
64.28000 1.518
64.30000 -0.345
64.32000 1.011
64.34000 2.322
64.36000 0.669
64.38000 0.694
64.40000 4.247
64.42000 3.193
64.44000 3.800
64.46000 5.847
64.48000 2.183
64.50000 3.049
64.52000 4.989
64.54000 7.484
64.56000 8.115
64.58000 4.389
64.60000 0.633
64.62000 3.196
64.64000 2.043
64.66000 -0.606
64.68000 -2.203
64.70000 1.280
64.72000 5.457
64.74000 3.952
64.76000 2.148
64.78000 -0.369
64.80000 -1.058
64.82000 0.599
64.84000 5.028
64.86000 3.209
64.88000 2.963
64.90000 4.338
64.92000 0.769
64.94000 1.105
64.96000 3.834
64.98000 2.854
65.00000 1.547
65.02000 3.958
65.04000 5.711
65.06000 3.385
65.08000 2.104
65.10000 3.942
65.12000 2.636
65.14000 1.765
65.16000 1.500
65.18000 0.188
65.20000 -0.032
65.22000 0.253
65.24000 2.170
65.26000 2.862
65.28000 2.491
65.30000 2.293
65.32000 1.371
65.34000 2.529
65.36000 2.740
65.38000 2.019
65.40000 3.510
65.42000 3.688
65.44000 2.277
65.46000 4.242
65.48000 2.988
65.50000 2.184
65.52000 1.148
65.54000 0.140
65.56000 -2.208
65.58000 -0.050
65.60000 1.845
65.62000 3.459
65.64000 2.054
65.66000 3.968
65.68000 2.451
65.70000 1.225
65.72000 2.040
65.74000 1.640
65.76000 2.334
65.78000 2.660
65.80000 1.914
65.82000 2.045
65.84000 1.708
65.86000 1.305
65.88000 0.367
65.90000 1.008
65.92000 0.964
65.94000 0.166
65.96000 1.439
65.98000 0.217
66.00000 1.551
66.02000 2.538
66.04000 0.916
66.06000 2.045
66.08000 3.560
66.10000 1.185
66.12000 -0.106
66.14000 -2.213
66.16000 1.885
66.18000 4.523
66.20000 4.032
66.22000 1.234
66.24000 2.362
66.26000 1.789
66.28000 3.271
66.30000 0.524
66.32000 -1.246
66.34000 0.850
66.36000 1.739
66.38000 -1.090
66.40000 -0.694
66.42000 2.139
66.44000 2.506
66.46000 3.895
66.48000 2.257
66.50000 3.807
66.52000 3.519
66.54000 3.592
66.56000 2.098
66.58000 2.807
66.60000 3.130
66.62000 3.730
66.64000 4.287
66.66000 5.669
66.68000 6.773
66.70000 5.970
66.72000 1.820
66.74000 1.248
66.76000 3.523
66.78000 3.065
66.80000 0.857
66.82000 1.505
66.84000 2.645
66.86000 1.343
66.88000 3.106
66.90000 2.358
66.92000 3.409
66.94000 5.390
66.96000 6.541
66.98000 4.603
67.00000 8.307
67.02000 8.740
67.04000 5.312
67.06000 5.318
67.08000 7.744
67.10000 6.948
67.12000 6.605
67.14000 6.462
67.16000 8.851
67.18000 5.817
67.20000 6.448
67.22000 10.441
67.24000 8.633
67.26000 9.243
67.28000 6.955
67.30000 8.436
67.32000 9.101
67.34000 10.524
67.36000 9.972
67.38000 7.513
67.40000 10.336
67.42000 10.907
67.44000 7.364
67.46000 6.490
67.48000 11.930
67.50000 13.744
67.52000 14.963
67.54000 14.870
67.56000 10.014
67.58000 9.909
67.60000 12.601
67.62000 12.075
67.64000 11.734
67.66000 9.276
67.68000 9.494
67.70000 12.817
67.72000 11.985
67.74000 10.735
67.76000 10.489
67.78000 9.071
67.80000 10.982
67.82000 11.381
67.84000 11.183
67.86000 12.556
67.88000 11.816
67.90000 13.840
67.92000 12.060
67.94000 10.868
67.96000 11.910
67.98000 10.475
68.00000 8.325
68.02000 7.094
68.04000 7.057
68.06000 6.567
68.08000 6.984
68.10000 4.401
68.12000 6.546
68.14000 6.089
68.16000 4.087
68.18000 2.646
68.20000 3.068
68.22000 4.054
68.24000 4.756
68.26000 1.029
68.28000 0.304
68.30000 4.019
68.32000 4.098
68.34000 2.897
68.36000 2.438
68.38000 0.682
68.40000 0.266
68.42000 1.089
68.44000 2.951
68.46000 0.609
68.48000 1.320
68.50000 2.065
68.52000 2.081
68.54000 0.926
68.56000 2.951
68.58000 2.633
68.60000 0.172
68.62000 0.233
68.64000 -1.740
68.66000 -1.987
68.68000 -0.636
68.70000 -1.466
68.72000 0.588
68.74000 0.413
68.76000 0.791
68.78000 1.577
68.80000 3.029
68.82000 1.480
68.84000 -0.222
68.86000 2.360
68.88000 0.163
68.90000 -2.132
68.92000 -1.523
68.94000 -1.964
68.96000 -1.213
68.98000 -0.087
69.00000 0.012
69.02000 1.745
69.04000 0.687
69.06000 3.205
69.08000 0.142
69.10000 -1.773
69.12000 -1.580
69.14000 -1.078
69.16000 1.261
69.18000 1.934
69.20000 2.044
69.22000 -0.447
69.24000 -0.368
69.26000 0.626
69.28000 2.031
69.30000 0.100
69.32000 -0.590
69.34000 -0.924
69.36000 -1.915
69.38000 0.526
69.40000 0.797
69.42000 1.035
69.44000 0.871
69.46000 0.209
69.48000 0.773
69.50000 1.033
69.52000 1.259
69.54000 -0.126
69.56000 -1.646
69.58000 -2.069
69.60000 0.384
69.62000 0.782
69.64000 5.799
69.66000 2.687
69.68000 3.669
69.70000 3.905
69.72000 2.120
69.74000 0.988
69.76000 2.061
69.78000 0.004
69.80000 -1.029
69.82000 1.137
69.84000 0.643
69.86000 2.138
69.88000 1.511
69.90000 -1.050
69.92000 -2.043
69.94000 2.676
69.96000 2.546
69.98000 2.208
70.00000 -1.059
70.02000 3.731
70.04000 4.469
70.06000 -0.692
70.08000 -0.351
70.10000 2.164
70.12000 1.800
70.14000 3.059
70.16000 4.707
70.18000 2.719
70.20000 -0.724
70.22000 0.697
70.24000 -0.708
70.26000 -2.011
70.28000 1.258
70.30000 1.604
70.32000 3.406
70.34000 1.327
70.36000 1.356
70.38000 2.700
70.40000 3.616
70.42000 2.211
70.44000 1.671
70.46000 -0.378
70.48000 0.536
70.50000 -1.156
70.52000 0.302
70.54000 4.085
70.56000 1.370
70.58000 0.413
70.60000 1.175
70.62000 0.096
70.64000 1.556
70.66000 3.487
70.68000 3.268
70.70000 -0.789
70.72000 -1.379
70.74000 0.711
70.76000 0.588
70.78000 -0.337
70.80000 0.378
70.82000 1.257
70.84000 2.905
70.86000 1.058
70.88000 1.411
70.90000 1.656
70.92000 -1.491
70.94000 -0.772
70.96000 -0.982
70.98000 1.560
71.00000 2.096
71.02000 -0.403
71.04000 -2.005
71.06000 -0.355
71.08000 1.095
71.10000 3.395
71.12000 2.115
71.14000 -0.878
71.16000 0.566
71.18000 -0.111
71.20000 3.104
71.22000 5.112
71.24000 2.757
71.26000 3.144
71.28000 2.652
71.30000 1.676
71.32000 0.211
71.34000 -0.586
71.36000 1.116
71.38000 1.440
71.40000 2.520
71.42000 -1.113
71.44000 1.649
71.46000 1.001
71.48000 0.164
71.50000 2.014
71.52000 2.197
71.54000 1.079
71.56000 0.372
71.58000 -1.140
71.60000 1.237
71.62000 1.022
71.64000 3.138
71.66000 2.070
71.68000 -1.968
71.70000 0.269
71.72000 2.298
71.74000 1.540
71.76000 0.474
71.78000 1.515
71.80000 3.276
71.82000 0.017
71.84000 0.351
71.86000 0.365
71.88000 2.090
71.90000 0.897
71.92000 -0.496
71.94000 1.388
71.96000 -0.437
71.98000 2.527
72.00000 1.693
72.02000 2.547
72.04000 3.165
72.06000 1.605
72.08000 1.498
72.10000 1.260
72.12000 1.680
72.14000 1.260
72.16000 -0.061
72.18000 -0.079
72.20000 5.432
72.22000 1.033
72.24000 -0.792
72.26000 0.510
72.28000 3.228
72.30000 1.411
72.32000 0.352
72.34000 0.792
72.36000 1.080
72.38000 3.963
72.40000 2.081
72.42000 1.197
72.44000 1.363
72.46000 4.476
72.48000 5.752
72.50000 3.417
72.52000 3.065
72.54000 3.305
72.56000 0.266
72.58000 -1.927
72.60000 0.264
72.62000 4.725
72.64000 3.543
72.66000 2.931
72.68000 5.052
72.70000 2.647
72.72000 1.296
72.74000 2.378
72.76000 1.215
72.78000 -0.503
72.80000 1.950
72.82000 0.480
72.84000 1.361
72.86000 3.052
72.88000 3.698
72.90000 4.995
72.92000 1.812
72.94000 2.701
72.96000 1.249
72.98000 1.390
73.00000 1.180
73.02000 0.311
73.04000 1.281
73.06000 1.093
73.08000 4.949
73.10000 4.336
73.12000 2.745
73.14000 3.520
73.16000 2.278
73.18000 3.331
73.20000 5.793
73.22000 3.616
73.24000 1.615
73.26000 2.847
73.28000 2.980
73.30000 1.216
73.32000 -0.187
73.34000 -0.246
73.36000 0.303
73.38000 2.283
73.40000 3.716
73.42000 0.388
73.44000 1.763
73.46000 4.483
73.48000 0.453
73.50000 0.961
73.52000 1.869
73.54000 2.548
73.56000 3.371
73.58000 4.580
73.60000 5.211
73.62000 3.864
73.64000 5.920
73.66000 3.930
73.68000 3.742
73.70000 4.835
73.72000 5.883
73.74000 4.123
73.76000 1.821
73.78000 1.365
73.80000 1.831
73.82000 2.857
73.84000 3.502
73.86000 -0.780
73.88000 -1.858
73.90000 -0.198
73.92000 -0.160
73.94000 1.934
73.96000 4.174
73.98000 4.595
74.00000 3.371
74.02000 4.281
74.04000 5.451
74.06000 4.806
74.08000 1.211
74.10000 2.550
74.12000 2.171
74.14000 3.020
74.16000 3.717
74.18000 4.765
74.20000 1.050
74.22000 1.255
74.24000 1.934
74.26000 4.195
74.28000 4.297
74.30000 4.397
74.32000 3.755
74.34000 2.993
74.36000 3.815
74.38000 4.138
74.40000 5.019
74.42000 2.977
74.44000 3.530
74.46000 2.478
74.48000 3.797
74.50000 5.256
74.52000 3.108
74.54000 3.208
74.56000 3.929
74.58000 5.895
74.60000 2.960
74.62000 3.405
74.64000 3.355
74.66000 2.000
74.68000 3.703
74.70000 4.763
74.72000 3.554
74.74000 -0.777
74.76000 -1.872
74.78000 4.926
74.80000 2.218
74.82000 0.390
74.84000 2.656
74.86000 3.351
74.88000 2.523
74.90000 -0.198
74.92000 2.808
74.94000 1.759
74.96000 4.364
74.98000 5.225
75.00000 3.645
75.02000 5.100
75.04000 4.856
75.06000 5.359
75.08000 2.767
75.10000 3.890
75.12000 3.764
75.14000 3.598
75.16000 5.487
75.18000 5.456
75.20000 1.790
75.22000 0.329
75.24000 -0.881
75.26000 0.251
75.28000 -0.034
75.30000 -1.838
75.32000 0.981
75.34000 3.878
75.36000 2.343
75.38000 -0.727
75.40000 0.432
75.42000 1.625
75.44000 0.312
75.46000 2.798
75.48000 2.534
75.50000 1.397
75.52000 5.741
75.54000 5.595
75.56000 2.847
75.58000 1.697
75.60000 1.742
75.62000 3.830
75.64000 1.269
75.66000 1.589
75.68000 2.861
75.70000 2.303
75.72000 3.262
75.74000 4.570
75.76000 3.241
75.78000 1.169
75.80000 0.086
75.82000 -1.914
75.84000 0.846
75.86000 2.012
75.88000 1.947
75.90000 2.989
75.92000 4.560
75.94000 2.085
75.96000 2.825
75.98000 3.822
76.00000 2.760
76.02000 1.560
76.04000 -1.461
76.06000 0.094
76.08000 -0.513
76.10000 0.380
76.12000 1.533
76.14000 3.185
76.16000 1.902
76.18000 3.257
76.20000 3.549
76.22000 4.692
76.24000 1.617
76.26000 2.643
76.28000 4.283
76.30000 1.922
76.32000 0.401
76.34000 0.315
76.36000 0.392
76.38000 -0.019
76.40000 0.712
76.42000 0.034
76.44000 1.452
76.46000 1.646
76.48000 0.689
76.50000 -1.155
76.52000 0.886
76.54000 2.102
76.56000 0.113
76.58000 -0.022
76.60000 -1.111
76.62000 -0.586
76.64000 -1.391
76.66000 -1.933
76.68000 -1.250
76.70000 0.846
76.72000 0.056
76.74000 3.300
76.76000 4.693
76.78000 1.535
76.80000 -0.626
76.82000 -1.959
76.84000 1.645
76.86000 3.159
76.88000 2.415
76.90000 0.476
76.92000 -0.779
76.94000 -1.964
76.96000 -0.624
76.98000 2.672
77.00000 3.625
77.02000 4.184
77.04000 0.790
77.06000 -0.667
77.08000 -1.472
77.10000 -0.380
77.12000 -0.334
77.14000 -1.237
77.16000 -0.878
77.18000 -0.009
77.20000 1.487
77.22000 1.500
77.24000 -0.327
77.26000 0.058
77.28000 1.915
77.30000 -1.822
77.32000 0.496
77.34000 1.180
77.36000 3.816
77.38000 -0.313
77.40000 -1.091
77.42000 0.422
77.44000 -1.755
77.46000 -1.623
77.48000 1.456
77.50000 2.099
77.52000 -0.080
77.54000 0.418
77.56000 2.762
77.58000 3.880
77.60000 4.272
77.62000 2.329
77.64000 1.711
77.66000 3.372
77.68000 1.907
77.70000 1.422
77.72000 0.939
77.74000 -0.209
77.76000 0.407
77.78000 2.063
77.80000 2.005
77.82000 -0.689
77.84000 -0.767
77.86000 -0.191
77.88000 -1.964
77.90000 1.391
77.92000 -0.074
77.94000 -0.234
77.96000 2.769
77.98000 1.933
78.00000 3.251
78.02000 1.078
78.04000 0.844
78.06000 -0.754
78.08000 -1.842
78.10000 -0.173
78.12000 3.606
78.14000 1.766
78.16000 1.524
78.18000 -0.112
78.20000 1.521
78.22000 1.484
78.24000 -0.665
78.26000 1.436
78.28000 1.939
78.30000 2.507
78.32000 0.934
78.34000 2.385
78.36000 1.929
78.38000 -0.536
78.40000 2.509
78.42000 2.771
78.44000 3.976
78.46000 2.849
78.48000 1.510
78.50000 2.157
78.52000 1.284
78.54000 1.642
78.56000 3.073
78.58000 -0.280
78.60000 -1.962
78.62000 -0.875
78.64000 1.542
78.66000 1.604
78.68000 3.318
78.70000 1.174
78.72000 1.267
78.74000 -0.868
78.76000 0.273
78.78000 4.839
78.80000 2.739
78.82000 1.175
78.84000 1.856
78.86000 1.588
78.88000 0.337
78.90000 1.032
78.92000 1.357
78.94000 1.244
78.96000 -0.713
78.98000 1.703
79.00000 1.921
79.02000 1.335
79.04000 0.658
79.06000 -0.602
79.08000 0.517
79.10000 0.178
79.12000 0.183
79.14000 2.061
79.16000 1.008
79.18000 1.034
79.20000 3.512
79.22000 3.354
79.24000 2.321
79.26000 1.339
79.28000 0.886
79.30000 0.510
79.32000 0.013
79.34000 -0.601
79.36000 -1.140
79.38000 -0.086
79.40000 2.837
79.42000 1.597
79.44000 -2.057
79.46000 -0.071
79.48000 1.806
79.50000 2.572
79.52000 1.047
79.54000 -1.410
79.56000 -1.574
79.58000 1.486
79.60000 1.921
79.62000 0.964
79.64000 0.204
79.66000 -0.925
79.68000 -0.510
79.70000 -0.633
79.72000 2.401
79.74000 3.633
79.76000 2.863
79.78000 5.309
79.80000 0.739
79.82000 -0.968
79.84000 -0.634
79.86000 -0.508
79.88000 2.014
79.90000 -0.391
79.92000 -0.417
79.94000 -0.722
79.96000 -1.568
79.98000 -1.854
80.00000 0.661
80.02000 -2.111
80.04000 1.326
80.06000 2.742
80.08000 2.008
80.10000 2.871
80.12000 3.537
80.14000 0.839
80.16000 -0.737
80.18000 1.040
80.20000 -0.588
80.22000 1.135
80.24000 -0.494
80.26000 -1.958
80.28000 0.264
80.30000 0.088
80.32000 0.618
80.34000 2.035
80.36000 2.027
80.38000 2.401
80.40000 3.219
80.42000 0.774
80.44000 1.077
80.46000 2.896
80.48000 1.359
80.50000 1.652
80.52000 2.735
80.54000 1.770
80.56000 3.685
80.58000 2.904
80.60000 3.724
80.62000 7.115
80.64000 4.279
80.66000 6.995
80.68000 2.172
80.70000 5.158
80.72000 6.364
80.74000 4.961
80.76000 6.140
80.78000 6.010
80.80000 5.834
80.82000 9.220
80.84000 8.664
80.86000 9.433
80.88000 10.801
80.90000 6.412
80.92000 7.243
80.94000 9.591
80.96000 11.878
80.98000 9.658
81.00000 12.228
81.02000 13.253
81.04000 11.872
81.06000 11.059
81.08000 11.280
81.10000 14.498
81.12000 9.592
81.14000 13.281
81.16000 18.750
81.18000 20.089
81.20000 15.308
81.22000 16.341
81.24000 17.817
81.26000 12.342
81.28000 15.541
81.30000 16.583
81.32000 15.728
81.34000 19.280
81.36000 17.964
81.38000 18.684
81.40000 20.919
81.42000 22.934
81.44000 21.963
81.46000 18.132
81.48000 18.441
81.50000 19.690
81.52000 21.642
81.54000 21.809
81.56000 21.586
81.58000 20.809
81.60000 19.994
81.62000 20.770
81.64000 23.248
81.66000 23.705
81.68000 23.845
81.70000 26.494
81.72000 23.987
81.74000 18.227
81.76000 19.480
81.78000 17.377
81.80000 18.077
81.82000 18.182
81.84000 16.526
81.86000 14.977
81.88000 14.201
81.90000 15.634
81.92000 14.981
81.94000 14.657
81.96000 16.699
81.98000 19.275
82.00000 21.669
82.02000 20.313
82.04000 17.781
82.06000 15.844
82.08000 13.747
82.10000 13.144
82.12000 11.445
82.14000 6.701
82.16000 7.163
82.18000 6.787
82.20000 6.891
82.22000 9.866
82.24000 8.357
82.26000 6.777
82.28000 7.270
82.30000 5.689
82.32000 6.103
82.34000 4.148
82.36000 3.618
82.38000 3.453
82.40000 6.230
82.42000 8.858
82.44000 6.221
82.46000 7.591
82.48000 4.829
82.50000 2.710
82.52000 3.862
82.54000 2.751
82.56000 5.629
82.58000 2.623
82.60000 1.859
82.62000 4.081
82.64000 4.580
82.66000 0.262
82.68000 -1.534
82.70000 1.133
82.72000 -1.915
82.74000 -1.992
82.76000 2.987
82.78000 5.436
82.80000 1.123
82.82000 0.682
82.84000 0.816
82.86000 2.401
82.88000 1.920
82.90000 0.730
82.92000 -0.665
82.94000 -1.936
82.96000 -0.941
82.98000 -0.019
83.00000 -0.030
83.02000 -1.933
83.04000 0.769
83.06000 1.014
83.08000 0.273
83.10000 -1.564
83.12000 -1.477
83.14000 1.706
83.16000 1.600
83.18000 2.951
83.20000 -2.108
83.22000 -0.668
83.24000 0.186
83.26000 -1.889
83.28000 1.330
83.30000 0.449
83.32000 2.904
83.34000 2.900
83.36000 0.477
83.38000 0.242
83.40000 -2.085
83.42000 -1.641
83.44000 1.141
83.46000 3.675
83.48000 2.130
83.50000 2.101
83.52000 0.536
83.54000 -2.082
83.56000 0.078
83.58000 4.850
83.60000 2.851
83.62000 2.057
83.64000 -0.321
83.66000 0.914
83.68000 2.319
83.70000 0.067
83.72000 2.302
83.74000 0.824
83.76000 0.700
83.78000 2.711
83.80000 2.487
83.82000 -0.273
83.84000 1.858
83.86000 1.868
83.88000 1.064
83.90000 -1.206
83.92000 0.254
83.94000 -0.038
83.96000 1.201
83.98000 2.092
84.00000 -0.645
84.02000 -1.805
84.04000 2.335
84.06000 5.786
84.08000 4.815
84.10000 0.380
84.12000 1.863
84.14000 -0.927
84.16000 1.636
84.18000 8.345
84.20000 3.425
84.22000 1.481
84.24000 3.851
84.26000 -0.109
84.28000 -1.186
84.30000 1.564
84.32000 -1.662
84.34000 -2.116
84.36000 -0.029
84.38000 3.885
84.40000 3.398
84.42000 4.068
84.44000 5.020
84.46000 5.881
84.48000 4.782
84.50000 3.263
84.52000 1.029
84.54000 2.141
84.56000 5.558
84.58000 6.721
84.60000 5.150
84.62000 5.037
84.64000 3.502
84.66000 5.009
84.68000 5.057
84.70000 7.211
84.72000 6.906
84.74000 8.905
84.76000 8.381
84.78000 7.783
84.80000 6.588
84.82000 6.372
84.84000 8.050
84.86000 8.864
84.88000 4.485
84.90000 9.047
84.92000 10.250
84.94000 10.281
84.96000 11.910
84.98000 12.544
85.00000 10.321
85.02000 11.906
85.04000 12.943
85.06000 14.068
85.08000 13.678
85.10000 13.252
85.12000 14.572
85.14000 14.626
85.16000 16.391
85.18000 16.621
85.20000 17.654
85.22000 17.324
85.24000 15.776
85.26000 17.293
85.28000 22.253
85.30000 19.472
85.32000 17.457
85.34000 14.796
85.36000 17.726
85.38000 20.485
85.40000 19.673
85.42000 22.550
85.44000 17.131
85.46000 15.642
85.48000 16.774
85.50000 15.710
85.52000 17.692
85.54000 20.275
85.56000 23.606
85.58000 26.291
85.60000 19.759
85.62000 16.640
85.64000 20.177
85.66000 23.350
85.68000 19.248
85.70000 17.517
85.72000 15.281
85.74000 16.543
85.76000 19.743
85.78000 22.182
85.80000 22.047
85.82000 21.205
85.84000 21.150
85.86000 19.884
85.88000 21.152
85.90000 20.491
85.92000 12.841
85.94000 12.324
85.96000 14.499
85.98000 13.816
86.00000 16.082
86.02000 14.691
86.04000 12.725
86.06000 9.545
86.08000 9.363
86.10000 14.635
86.12000 15.468
86.14000 16.234
86.16000 13.594
86.18000 9.769
86.20000 6.165
86.22000 2.889
86.24000 4.959
86.26000 6.320
86.28000 10.663
86.30000 8.652
86.32000 7.995
86.34000 8.318
86.36000 6.026
86.38000 7.823
86.40000 6.887
86.42000 7.413
86.44000 4.098
86.46000 2.179
86.48000 2.308
86.50000 2.589
86.52000 2.574
86.54000 0.831
86.56000 0.830
86.58000 0.741
86.60000 3.958
86.62000 4.036
86.64000 3.448
86.66000 3.545
86.68000 0.330
86.70000 -1.093
86.72000 1.894
86.74000 3.188
86.76000 3.922
86.78000 3.020
86.80000 -0.818
86.82000 0.941
86.84000 0.300
86.86000 0.428
86.88000 0.180
86.90000 0.639
86.92000 2.467
86.94000 -1.126
86.96000 -0.417
86.98000 0.032
87.00000 -0.051
87.02000 1.141
87.04000 1.890
87.06000 -1.331
87.08000 0.937
87.10000 2.297
87.12000 2.267
87.14000 1.136
87.16000 -1.628
87.18000 -1.388
87.20000 0.432
87.22000 3.008
87.24000 0.458
87.26000 0.810
87.28000 0.041
87.30000 1.455
87.32000 0.283
87.34000 -0.713
87.36000 -1.706
87.38000 -1.875
87.40000 2.939
87.42000 3.162
87.44000 3.092
87.46000 4.772
87.48000 3.215
87.50000 2.934
87.52000 0.359
87.54000 0.001
87.56000 2.083
87.58000 -0.193
87.60000 1.484
87.62000 2.977
87.64000 1.954
87.66000 2.814
87.68000 2.266
87.70000 -0.064
87.72000 1.790
87.74000 -0.840
87.76000 -1.170
87.78000 0.241
87.80000 0.008
87.82000 0.603
87.84000 3.087
87.86000 3.726
87.88000 2.473
87.90000 -1.412
87.92000 -1.846
87.94000 1.474
87.96000 5.121
87.98000 7.105
88.00000 6.461
88.02000 3.671
88.04000 -1.734
88.06000 0.033
88.08000 1.603
88.10000 0.585
88.12000 -1.318
88.14000 0.615
88.16000 1.746
88.18000 1.354
88.20000 2.499
88.22000 4.023
88.24000 5.278
88.26000 4.581
88.28000 3.780
88.30000 1.310
88.32000 -1.841
88.34000 -1.222
88.36000 0.742
88.38000 -1.657
88.40000 2.390
88.42000 2.472
88.44000 2.284
88.46000 1.253
88.48000 0.115
88.50000 2.635
88.52000 3.859
88.54000 0.204
88.56000 -0.789
88.58000 1.137
88.60000 2.504
88.62000 -1.828
88.64000 -1.058
88.66000 0.817
88.68000 2.446
88.70000 4.818
88.72000 1.989
88.74000 1.010
88.76000 0.492
88.78000 5.803
88.80000 5.190
88.82000 0.249
88.84000 0.019
88.86000 2.596
88.88000 -0.214
88.90000 0.849
88.92000 3.896
88.94000 5.009
88.96000 2.275
88.98000 1.880
89.00000 4.711
89.02000 4.602
89.04000 -0.493
89.06000 -1.025
89.08000 1.905
89.10000 -1.780
89.12000 -0.464
89.14000 0.814
89.16000 0.371
89.18000 2.215
89.20000 0.846
89.22000 0.826
89.24000 -0.453
89.26000 -1.436
89.28000 1.826
89.30000 3.087
89.32000 0.256
89.34000 -1.807
89.36000 3.278
89.38000 3.751
89.40000 3.786
89.42000 0.683
89.44000 0.376
89.46000 0.297
89.48000 -0.996
89.50000 1.943
89.52000 0.386
89.54000 2.334
89.56000 4.548
89.58000 2.955
89.60000 -0.442
89.62000 -0.250
89.64000 0.212
89.66000 3.520
89.68000 0.124
89.70000 0.795
89.72000 1.702
89.74000 1.893
89.76000 1.302
89.78000 1.069
89.80000 0.393
89.82000 1.532
89.84000 1.936
89.86000 0.830
89.88000 1.370
89.90000 1.028
89.92000 0.952
89.94000 0.470
89.96000 0.196
89.98000 0.651
90.00000 -0.067
90.02000 0.059
90.04000 2.203
90.06000 1.979
90.08000 0.759
90.10000 1.790
90.12000 -0.867
90.14000 0.896
90.16000 4.721
90.18000 3.483
90.20000 -0.772
90.22000 0.626
90.24000 2.563
90.26000 2.135
90.28000 -1.410
90.30000 -1.283
90.32000 0.844
90.34000 1.066
90.36000 3.244
90.38000 -1.527
90.40000 -0.626
90.42000 -0.111
90.44000 1.781
90.46000 -1.817
90.48000 1.956
90.50000 4.811
90.52000 4.996
90.54000 1.929
90.56000 1.296
90.58000 -0.140
90.60000 0.182
90.62000 1.672
90.64000 -1.433
90.66000 2.228
90.68000 1.457
90.70000 0.903
90.72000 -0.650
90.74000 0.768
90.76000 0.631
90.78000 0.155
90.80000 1.262
90.82000 -1.799
90.84000 0.334
90.86000 2.053
90.88000 4.242
90.90000 4.068
90.92000 -0.434
90.94000 1.683
90.96000 2.850
90.98000 3.117
91.00000 -1.724
91.02000 -1.374
91.04000 -1.464
91.06000 2.407
91.08000 6.293
91.10000 3.517
91.12000 0.806
91.14000 0.978
91.16000 1.114
91.18000 2.015
91.20000 3.281
91.22000 5.149
91.24000 2.954
91.26000 0.582
91.28000 3.282
91.30000 4.658
91.32000 3.439
91.34000 3.052
91.36000 1.548
91.38000 3.259
91.40000 2.320
91.42000 2.365
91.44000 0.375
91.46000 -1.784
91.48000 0.780
91.50000 2.927
91.52000 4.220
91.54000 6.147
91.56000 3.017
91.58000 1.512
91.60000 2.204
91.62000 2.438
91.64000 6.485
91.66000 6.893
91.68000 -0.147
91.70000 -1.693
91.72000 0.618
91.74000 -0.135
91.76000 1.063
91.78000 2.266
91.80000 0.714
91.82000 1.023
91.84000 0.719
91.86000 3.678
91.88000 0.566
91.90000 1.192
91.92000 0.889
91.94000 0.361
91.96000 2.383
91.98000 4.616
92.00000 5.337
92.02000 1.260
92.04000 0.296
92.06000 -0.219
92.08000 -0.793
92.10000 -0.282
92.12000 1.254
92.14000 0.292
92.16000 5.953
92.18000 4.782
92.20000 6.571
92.22000 1.951
92.24000 3.237
92.26000 4.877
92.28000 3.483
92.30000 3.320
92.32000 4.399
92.34000 5.090
92.36000 4.994
92.38000 6.162
92.40000 4.990
92.42000 1.182
92.44000 0.519
92.46000 1.225
92.48000 1.055
92.50000 -1.783
92.52000 1.876
92.54000 6.635
92.56000 4.642
92.58000 1.301
92.60000 -0.512
92.62000 0.886
92.64000 1.922
92.66000 1.433
92.68000 2.431
92.70000 7.135
92.72000 8.353
92.74000 3.722
92.76000 4.807
92.78000 3.760
92.80000 1.817
92.82000 3.668
92.84000 2.882
92.86000 3.779
92.88000 4.593
92.90000 4.723
92.92000 3.548
92.94000 4.737
92.96000 6.137
92.98000 2.629
93.00000 -1.770
93.02000 3.374
93.04000 6.504
93.06000 2.862
93.08000 3.643
93.10000 1.102
93.12000 1.778
93.14000 5.691
93.16000 3.156
93.18000 0.870
93.20000 1.258
93.22000 4.402
93.24000 4.753
93.26000 3.177
93.28000 4.480
93.30000 6.240
93.32000 6.287
93.34000 2.991
93.36000 0.409
93.38000 5.366
93.40000 5.717
93.42000 1.360
93.44000 3.131
93.46000 2.321
93.48000 0.517
93.50000 -0.430
93.52000 3.022
93.54000 1.364
93.56000 1.529
93.58000 0.763
93.60000 3.062
93.62000 -0.559
93.64000 0.585
93.66000 2.452
93.68000 2.987
93.70000 -1.145
93.72000 -0.668
93.74000 -1.835
93.76000 -1.071
93.78000 3.883
93.80000 4.754
93.82000 1.869
93.84000 1.920
93.86000 0.167
93.88000 0.570
93.90000 1.266
93.92000 1.701
93.94000 0.669
93.96000 0.062
93.98000 0.726
94.00000 2.455
94.02000 -1.799
94.04000 -0.993
94.06000 -1.669
94.08000 0.925
94.10000 1.227
94.12000 0.349
94.14000 3.579
94.16000 1.927
94.18000 0.862
94.20000 -0.291
94.22000 -1.108
94.24000 -1.847
94.26000 0.351
94.28000 2.215
94.30000 1.205
94.32000 -1.490
94.34000 -0.560
94.36000 -0.777
94.38000 2.951
94.40000 2.531
94.42000 2.463
94.44000 0.003
94.46000 1.137
94.48000 1.348
94.50000 1.440
94.52000 3.655
94.54000 3.147
94.56000 0.817
94.58000 1.935
94.60000 2.275
94.62000 4.340
94.64000 3.412
94.66000 0.424
94.68000 1.063
94.70000 1.265
94.72000 1.120
94.74000 -0.983
94.76000 0.876
94.78000 -0.979
94.80000 1.530
94.82000 2.986
94.84000 1.948
94.86000 3.549
94.88000 6.878
94.90000 4.841
94.92000 2.077
94.94000 2.486
94.96000 0.875
94.98000 -0.080
95.00000 1.661
95.02000 3.210
95.04000 -1.827
95.06000 0.876
95.08000 0.582
95.10000 2.948
95.12000 3.835
95.14000 7.782
95.16000 2.504
95.18000 1.144
95.20000 1.377
95.22000 -0.870
95.24000 -0.427
95.26000 3.480
95.28000 2.188
95.30000 2.082
95.32000 1.863
95.34000 3.037
95.36000 2.695
95.38000 3.871
95.40000 5.455
95.42000 4.344
95.44000 2.531
95.46000 -0.334
95.48000 0.597
95.50000 2.103
95.52000 5.880
95.54000 5.980
95.56000 0.971
95.58000 -1.824
95.60000 2.473
95.62000 1.603
95.64000 2.132
95.66000 3.355
95.68000 4.461
95.70000 1.606
95.72000 2.592
95.74000 5.888
95.76000 2.569
95.78000 -1.720
95.80000 -0.554
95.82000 3.137
95.84000 4.428
95.86000 2.631
95.88000 1.846
95.90000 3.441
95.92000 6.259
95.94000 3.509
95.96000 0.663
95.98000 0.917
96.00000 -0.454
96.02000 0.251
96.04000 1.226
96.06000 4.793
96.08000 4.917
96.10000 2.590
96.12000 -1.700
96.14000 3.876
96.16000 4.528
96.18000 2.800
96.20000 4.407
96.22000 5.822
96.24000 0.058
96.26000 2.725
96.28000 2.163
96.30000 -1.650
96.32000 -1.221
96.34000 -0.384
96.36000 0.689
96.38000 1.027
96.40000 4.409
96.42000 0.433
96.44000 2.302
96.46000 2.767
96.48000 3.043
96.50000 5.114
96.52000 2.294
96.54000 -1.821
96.56000 1.456
96.58000 1.386
96.60000 4.799
96.62000 2.794
96.64000 2.536
96.66000 -0.060
96.68000 -0.836
96.70000 0.810
96.72000 1.740
96.74000 6.336
96.76000 6.123
96.78000 4.703
96.80000 2.892
96.82000 1.485
96.84000 4.083
96.86000 1.889
96.88000 4.004
96.90000 2.246
96.92000 1.001
96.94000 2.462
96.96000 1.000
96.98000 1.184
97.00000 0.876
97.02000 5.656
97.04000 9.113
97.06000 5.299
97.08000 1.191
97.10000 2.417
97.12000 4.329
97.14000 5.078
97.16000 4.881
97.18000 4.411
97.20000 4.202
97.22000 3.117
97.24000 3.558
97.26000 2.286
97.28000 2.192
97.30000 3.473
97.32000 3.007
97.34000 1.432
97.36000 -1.136
97.38000 1.116
97.40000 1.796
97.42000 1.635
97.44000 0.261
97.46000 1.544
97.48000 2.860
97.50000 0.311
97.52000 -0.692
97.54000 3.965
97.56000 5.487
97.58000 2.797
97.60000 -1.778
97.62000 0.829
97.64000 4.242
97.66000 2.771
97.68000 7.906
97.70000 7.989
97.72000 3.777
97.74000 0.306
97.76000 2.940
97.78000 5.068
97.80000 2.874
97.82000 4.507
97.84000 5.749
97.86000 7.364
97.88000 7.579
97.90000 1.155
97.92000 -1.196
97.94000 -0.916
97.96000 4.068
97.98000 5.952
98.00000 2.374
98.02000 5.925
98.04000 9.545
98.06000 3.720
98.08000 0.580
98.10000 0.780
98.12000 5.111
98.14000 0.777
98.16000 2.543
98.18000 4.535
98.20000 3.088
98.22000 -1.776
98.24000 -0.520
98.26000 2.006
98.28000 4.120
98.30000 6.793
98.32000 6.797
98.34000 5.943
98.36000 4.152
98.38000 5.230
98.40000 3.922
98.42000 6.149
98.44000 2.311
98.46000 3.128
98.48000 3.370
98.50000 5.309
98.52000 8.181
98.54000 -2.079
98.56000 1.028
98.58000 3.822
98.60000 2.346
98.62000 5.762
98.64000 8.714
98.66000 3.343
98.68000 0.470
98.70000 -0.924
98.72000 4.775
98.74000 3.366
98.76000 3.256
98.78000 1.082
98.80000 5.111
98.82000 5.024
98.84000 1.126
98.86000 3.785
98.88000 2.227
98.90000 0.811
98.92000 1.076
98.94000 1.296
98.96000 2.412
98.98000 4.083
99.00000 4.289
99.02000 2.383
99.04000 4.398
99.06000 0.462
99.08000 -0.353
99.10000 4.302
99.12000 11.437
99.14000 6.415
99.16000 3.542
99.18000 4.137
99.20000 3.189
99.22000 0.393
99.24000 3.452
99.26000 2.746
99.28000 -1.785
99.30000 -1.103
99.32000 1.143
99.34000 0.811
99.36000 1.334
99.38000 0.093
99.40000 0.942
99.42000 -0.433
99.44000 2.208
99.46000 6.092
99.48000 2.887
99.50000 4.264
99.52000 2.655
99.54000 3.335
99.56000 2.582
99.58000 1.431
99.60000 6.984
99.62000 7.339
99.64000 7.811
99.66000 2.192
99.68000 6.642
99.70000 6.016
99.72000 5.501
99.74000 -0.055
99.76000 1.740
99.78000 5.020
99.80000 3.247
99.82000 0.616
99.84000 -1.786
99.86000 7.282
99.88000 2.308
99.90000 -0.099
99.92000 5.105
99.94000 8.878
99.96000 -1.937
99.98000 0.000
