'Id: "0011387" Comment: "Integrate frame 0011387_Au-Ir-Rh_Rh-rich_XRD-Mapping-043-0000.gfrmwith cursor Wedge Cursor #5" Operator: "B?rgel" Anode: "Cu" Wavelength: "1.5406" Scantype: "2Theta (TwoTheta)" TimePerStep: "1" X: "-18" Y: "-27" Z: "5.95" 
10.00000 0.000
10.02000 8.852
10.04000 16.623
10.06000 25.346
10.08000 13.474
10.10000 24.732
10.12000 9.612
10.14000 13.778
10.16000 29.202
10.18000 14.555
10.20000 20.941
10.22000 21.231
10.24000 17.354
10.26000 32.616
10.28000 23.181
10.30000 12.937
10.32000 4.636
10.34000 8.267
10.36000 16.277
10.38000 26.906
10.40000 21.445
10.42000 29.175
10.44000 23.623
10.46000 9.437
10.48000 15.789
10.50000 27.084
10.52000 17.831
10.54000 22.523
10.56000 15.088
10.58000 7.827
10.60000 7.217
10.62000 19.130
10.64000 11.700
10.66000 1.448
10.68000 7.458
10.70000 7.245
10.72000 10.991
10.74000 24.999
10.76000 35.837
10.78000 23.246
10.80000 26.796
10.82000 16.052
10.84000 -1.790
10.86000 5.898
10.88000 18.810
10.90000 12.389
10.92000 19.721
10.94000 29.044
10.96000 24.885
10.98000 12.081
11.00000 19.839
11.02000 10.116
11.04000 7.763
11.06000 21.642
11.08000 14.805
11.10000 17.901
11.12000 17.267
11.14000 2.837
11.16000 -4.442
11.18000 11.391
11.20000 28.233
11.22000 19.289
11.24000 18.072
11.26000 22.808
11.28000 24.252
11.30000 21.033
11.32000 21.859
11.34000 30.934
11.36000 27.700
11.38000 20.436
11.40000 21.833
11.42000 15.572
11.44000 6.693
11.46000 2.956
11.48000 1.578
11.50000 10.094
11.52000 7.606
11.54000 9.446
11.56000 12.806
11.58000 20.256
11.60000 16.139
11.62000 7.296
11.64000 2.114
11.66000 5.627
11.68000 8.091
11.70000 14.228
11.72000 11.294
11.74000 10.967
11.76000 2.040
11.78000 1.068
11.80000 2.253
11.82000 3.655
11.84000 9.272
11.86000 12.133
11.88000 17.069
11.90000 8.271
11.92000 4.582
11.94000 24.278
11.96000 18.879
11.98000 9.195
12.00000 2.612
12.02000 8.108
12.04000 10.763
12.06000 15.151
12.08000 14.759
12.10000 7.275
12.12000 7.427
12.14000 18.470
12.16000 17.469
12.18000 16.973
12.20000 24.811
12.22000 21.855
12.24000 4.947
12.26000 -3.018
12.28000 2.607
12.30000 11.465
12.32000 6.195
12.34000 17.599
12.36000 10.337
12.38000 5.740
12.40000 13.950
12.42000 17.697
12.44000 13.532
12.46000 15.902
12.48000 18.567
12.50000 13.431
12.52000 3.085
12.54000 5.004
12.56000 3.341
12.58000 2.641
12.60000 2.801
12.62000 16.173
12.64000 16.387
12.66000 16.569
12.68000 6.352
12.70000 12.355
12.72000 10.987
12.74000 14.504
12.76000 16.596
12.78000 2.516
12.80000 2.813
12.82000 2.112
12.84000 7.726
12.86000 7.557
12.88000 6.239
12.90000 5.282
12.92000 0.316
12.94000 0.357
12.96000 -4.521
12.98000 8.963
13.00000 21.843
13.02000 20.856
13.04000 7.052
13.06000 3.699
13.08000 -2.495
13.10000 7.324
13.12000 14.094
13.14000 23.286
13.16000 19.015
13.18000 21.019
13.20000 24.273
13.22000 17.864
13.24000 19.837
13.26000 16.872
13.28000 18.115
13.30000 8.438
13.32000 10.529
13.34000 10.969
13.36000 6.252
13.38000 16.680
13.40000 14.927
13.42000 14.858
13.44000 8.228
13.46000 8.842
13.48000 5.724
13.50000 20.880
13.52000 18.532
13.54000 14.265
13.56000 11.831
13.58000 9.999
13.60000 7.142
13.62000 4.792
13.64000 15.157
13.66000 28.055
13.68000 22.724
13.70000 17.324
13.72000 10.128
13.74000 13.252
13.76000 14.656
13.78000 15.358
13.80000 17.688
13.82000 13.379
13.84000 12.875
13.86000 3.092
13.88000 10.481
13.90000 6.829
13.92000 -1.004
13.94000 3.287
13.96000 2.620
13.98000 10.979
14.00000 11.955
14.02000 19.765
14.04000 9.669
14.06000 18.946
14.08000 26.136
14.10000 15.787
14.12000 15.837
14.14000 3.811
14.16000 4.309
14.18000 10.149
14.20000 13.120
14.22000 12.263
14.24000 17.548
14.26000 20.123
14.28000 23.701
14.30000 22.573
14.32000 3.014
14.34000 -2.463
14.36000 -4.479
14.38000 10.738
14.40000 13.700
14.42000 10.456
14.44000 11.259
14.46000 16.156
14.48000 24.681
14.50000 24.693
14.52000 14.012
14.54000 0.520
14.56000 9.494
14.58000 15.530
14.60000 6.735
14.62000 0.946
14.64000 9.617
14.66000 12.056
14.68000 12.368
14.70000 7.826
14.72000 2.446
14.74000 3.985
14.76000 7.909
14.78000 10.846
14.80000 11.476
14.82000 7.633
14.84000 4.394
14.86000 9.130
14.88000 -1.803
14.90000 5.551
14.92000 8.888
14.94000 17.554
14.96000 21.948
14.98000 11.689
15.00000 10.655
15.02000 9.077
15.04000 9.358
15.06000 8.604
15.08000 15.834
15.10000 10.300
15.12000 19.812
15.14000 20.449
15.16000 12.076
15.18000 1.119
15.20000 1.675
15.22000 10.746
15.24000 6.809
15.26000 9.850
15.28000 8.905
15.30000 2.327
15.32000 6.204
15.34000 7.164
15.36000 12.369
15.38000 4.205
15.40000 10.750
15.42000 12.905
15.44000 6.763
15.46000 4.782
15.48000 3.498
15.50000 7.232
15.52000 7.841
15.54000 8.854
15.56000 0.053
15.58000 -4.458
15.60000 -0.240
15.62000 3.658
15.64000 6.532
15.66000 9.225
15.68000 10.120
15.70000 8.622
15.72000 5.759
15.74000 2.225
15.76000 3.940
15.78000 8.950
15.80000 13.195
15.82000 12.065
15.84000 7.073
15.86000 8.033
15.88000 15.480
15.90000 7.840
15.92000 7.057
15.94000 7.655
15.96000 8.127
15.98000 5.135
16.00000 6.346
16.02000 11.809
16.04000 9.886
16.06000 15.625
16.08000 13.427
16.10000 11.920
16.12000 8.427
16.14000 7.293
16.16000 5.559
16.18000 7.173
16.20000 11.543
16.22000 20.975
16.24000 9.178
16.26000 3.807
16.28000 4.056
16.30000 9.609
16.32000 14.838
16.34000 7.130
16.36000 3.059
16.38000 2.976
16.40000 -4.430
16.42000 -1.858
16.44000 -1.901
16.46000 0.427
16.48000 6.291
16.50000 8.759
16.52000 12.345
16.54000 8.102
16.56000 11.866
16.58000 2.985
16.60000 2.859
16.62000 9.970
16.64000 20.668
16.66000 15.368
16.68000 6.908
16.70000 5.019
16.72000 3.455
16.74000 6.412
16.76000 8.228
16.78000 14.882
16.80000 17.510
16.82000 14.678
16.84000 9.754
16.86000 2.407
16.88000 11.012
16.90000 1.428
16.92000 0.548
16.94000 6.912
16.96000 9.470
16.98000 8.140
17.00000 4.115
17.02000 5.364
17.04000 10.446
17.06000 6.709
17.08000 6.428
17.10000 9.215
17.12000 11.901
17.14000 5.619
17.16000 4.710
17.18000 4.644
17.20000 -2.197
17.22000 -1.699
17.24000 0.657
17.26000 4.524
17.28000 4.861
17.30000 11.614
17.32000 5.602
17.34000 2.783
17.36000 1.353
17.38000 -2.475
17.40000 0.767
17.42000 6.274
17.44000 0.127
17.46000 -0.051
17.48000 6.870
17.50000 6.802
17.52000 18.654
17.54000 13.065
17.56000 12.644
17.58000 11.863
17.60000 1.011
17.62000 0.763
17.64000 8.731
17.66000 8.705
17.68000 11.462
17.70000 1.928
17.72000 -0.459
17.74000 -4.349
17.76000 5.701
17.78000 10.967
17.80000 7.807
17.82000 11.766
17.84000 12.933
17.86000 7.432
17.88000 2.629
17.90000 2.037
17.92000 3.241
17.94000 5.563
17.96000 3.809
17.98000 10.360
18.00000 7.017
18.02000 3.705
18.04000 6.273
18.06000 8.477
18.08000 8.858
18.10000 4.104
18.12000 6.339
18.14000 4.726
18.16000 6.901
18.18000 0.232
18.20000 -0.293
18.22000 6.910
18.24000 8.010
18.26000 12.012
18.28000 3.985
18.30000 4.185
18.32000 -1.276
18.34000 1.781
18.36000 2.855
18.38000 2.008
18.40000 4.570
18.42000 -0.614
18.44000 5.998
18.46000 5.807
18.48000 7.799
18.50000 1.258
18.52000 -4.049
18.54000 3.317
18.56000 4.542
18.58000 -3.564
18.60000 -0.522
18.62000 0.668
18.64000 4.147
18.66000 4.387
18.68000 6.032
18.70000 8.530
18.72000 4.114
18.74000 -4.319
18.76000 -3.534
18.78000 -2.449
18.80000 0.680
18.82000 4.833
18.84000 3.443
18.86000 0.219
18.88000 8.753
18.90000 9.614
18.92000 2.875
18.94000 6.215
18.96000 2.055
18.98000 -1.706
19.00000 -0.143
19.02000 1.855
19.04000 4.643
19.06000 7.386
19.08000 6.942
19.10000 12.330
19.12000 2.236
19.14000 1.904
19.16000 1.279
19.18000 5.622
19.20000 7.324
19.22000 7.414
19.24000 2.447
19.26000 4.499
19.28000 8.682
19.30000 9.829
19.32000 -1.416
19.34000 -1.440
19.36000 -2.314
19.38000 -4.276
19.40000 -1.041
19.42000 8.752
19.44000 1.539
19.46000 -1.111
19.48000 0.130
19.50000 2.940
19.52000 6.771
19.54000 4.625
19.56000 0.808
19.58000 1.782
19.60000 3.885
19.62000 9.711
19.64000 10.250
19.66000 13.860
19.68000 8.601
19.70000 4.929
19.72000 6.494
19.74000 4.686
19.76000 8.469
19.78000 5.391
19.80000 -1.451
19.82000 1.335
19.84000 4.349
19.86000 4.000
19.88000 2.290
19.90000 10.314
19.92000 4.294
19.94000 4.613
19.96000 9.322
19.98000 10.179
20.00000 11.535
20.02000 9.670
20.04000 3.636
20.06000 5.609
20.08000 -0.699
20.10000 1.466
20.12000 9.885
20.14000 7.015
20.16000 11.361
20.18000 7.886
20.20000 2.574
20.22000 -4.203
20.24000 7.492
20.26000 8.131
20.28000 2.646
20.30000 5.869
20.32000 4.850
20.34000 5.092
20.36000 10.980
20.38000 8.420
20.40000 6.997
20.42000 9.770
20.44000 5.123
20.46000 4.474
20.48000 12.682
20.50000 6.656
20.52000 3.097
20.54000 7.315
20.56000 4.913
20.58000 5.031
20.60000 7.723
20.62000 6.003
20.64000 3.185
20.66000 3.768
20.68000 -0.021
20.70000 1.726
20.72000 7.178
20.74000 9.132
20.76000 8.454
20.78000 7.417
20.80000 8.163
20.82000 4.763
20.84000 7.165
20.86000 12.000
20.88000 10.616
20.90000 3.734
20.92000 -1.342
20.94000 3.410
20.96000 6.184
20.98000 10.310
21.00000 -2.315
21.02000 0.199
21.04000 7.179
21.06000 6.361
21.08000 14.266
21.10000 7.576
21.12000 5.760
21.14000 4.477
21.16000 9.160
21.18000 9.731
21.20000 16.777
21.22000 7.172
21.24000 3.133
21.26000 -3.662
21.28000 -1.637
21.30000 0.190
21.32000 3.121
21.34000 2.766
21.36000 4.630
21.38000 -1.159
21.40000 0.188
21.42000 1.978
21.44000 10.700
21.46000 10.202
21.48000 3.124
21.50000 1.208
21.52000 2.223
21.54000 0.234
21.56000 -4.163
21.58000 0.338
21.60000 4.177
21.62000 6.465
21.64000 7.060
21.66000 5.817
21.68000 -0.046
21.70000 6.162
21.72000 12.311
21.74000 7.985
21.76000 6.532
21.78000 0.130
21.80000 -0.218
21.82000 0.155
21.84000 0.357
21.86000 0.136
21.88000 0.377
21.90000 -3.589
21.92000 -1.422
21.94000 4.945
21.96000 3.568
21.98000 4.044
22.00000 7.481
22.02000 2.933
22.04000 -2.928
22.06000 5.869
22.08000 6.815
22.10000 8.531
22.12000 7.928
22.14000 11.839
22.16000 11.775
22.18000 11.622
22.20000 4.688
22.22000 1.303
22.24000 -4.106
22.26000 3.278
22.28000 3.601
22.30000 0.112
22.32000 4.427
22.34000 6.011
22.36000 4.012
22.38000 3.950
22.40000 6.152
22.42000 1.084
22.44000 1.169
22.46000 3.609
22.48000 4.000
22.50000 6.600
22.52000 7.354
22.54000 7.978
22.56000 5.935
22.58000 6.700
22.60000 4.578
22.62000 0.225
22.64000 -3.279
22.66000 2.394
22.68000 4.802
22.70000 4.870
22.72000 1.863
22.74000 3.032
22.76000 4.444
22.78000 -0.144
22.80000 0.599
22.82000 4.313
22.84000 1.139
22.86000 1.009
22.88000 1.722
22.90000 3.010
22.92000 1.408
22.94000 1.442
22.96000 3.251
22.98000 -3.498
23.00000 -3.572
23.02000 2.070
23.04000 3.900
23.06000 5.492
23.08000 0.619
23.10000 -4.054
23.12000 2.152
23.14000 11.085
23.16000 13.098
23.18000 6.511
23.20000 12.151
23.22000 11.334
23.24000 5.818
23.26000 2.313
23.28000 -2.029
23.30000 -1.553
23.32000 6.178
23.34000 3.656
23.36000 11.919
23.38000 13.583
23.40000 3.864
23.42000 4.227
23.44000 7.440
23.46000 8.230
23.48000 6.463
23.50000 8.954
23.52000 9.582
23.54000 3.877
23.56000 -1.919
23.58000 5.603
23.60000 12.163
23.62000 5.785
23.64000 -2.535
23.66000 -0.933
23.68000 1.946
23.70000 1.420
23.72000 1.413
23.74000 3.179
23.76000 1.352
23.78000 1.289
23.80000 5.427
23.82000 3.697
23.84000 -0.730
23.86000 0.095
23.88000 3.056
23.90000 2.271
23.92000 0.652
23.94000 12.002
23.96000 9.481
23.98000 8.078
24.00000 3.236
24.02000 3.969
24.04000 5.204
24.06000 2.242
24.08000 6.067
24.10000 9.080
24.12000 10.416
24.14000 4.554
24.16000 9.489
24.18000 9.432
24.20000 3.614
24.22000 3.566
24.24000 10.180
24.26000 11.505
24.28000 7.979
24.30000 10.232
24.32000 5.254
24.34000 8.298
24.36000 8.315
24.38000 9.163
24.40000 7.268
24.42000 12.436
24.44000 12.674
24.46000 9.923
24.48000 6.386
24.50000 11.612
24.52000 6.797
24.54000 4.530
24.56000 6.522
24.58000 10.540
24.60000 4.912
24.62000 6.828
24.64000 8.588
24.66000 9.716
24.68000 8.967
24.70000 10.555
24.72000 18.574
24.74000 15.101
24.76000 5.831
24.78000 -0.826
24.80000 -3.923
24.82000 3.159
24.84000 5.479
24.86000 11.113
24.88000 11.608
24.90000 14.389
24.92000 10.719
24.94000 8.980
24.96000 4.910
24.98000 6.786
25.00000 5.890
25.02000 7.533
25.04000 12.769
25.06000 7.653
25.08000 5.055
25.10000 6.940
25.12000 7.817
25.14000 8.654
25.16000 7.502
25.18000 7.332
25.20000 6.792
25.22000 9.668
25.24000 9.666
25.26000 4.226
25.28000 1.249
25.30000 5.516
25.32000 -0.072
25.34000 1.788
25.36000 5.902
25.38000 5.750
25.40000 1.401
25.42000 0.668
25.44000 2.907
25.46000 5.012
25.48000 9.935
25.50000 8.115
25.52000 4.853
25.54000 2.567
25.56000 0.747
25.58000 -2.115
25.60000 -2.695
25.62000 6.671
25.64000 4.323
25.66000 1.102
25.68000 5.412
25.70000 3.345
25.72000 2.725
25.74000 1.302
25.76000 0.508
25.78000 3.612
25.80000 5.915
25.82000 6.126
25.84000 2.236
25.86000 8.184
25.88000 4.584
25.90000 0.670
25.92000 0.826
25.94000 -1.465
25.96000 -3.887
25.98000 -2.730
26.00000 1.482
26.02000 2.193
26.04000 2.729
26.06000 0.655
26.08000 2.352
26.10000 7.520
26.12000 5.743
26.14000 2.894
26.16000 8.278
26.18000 10.809
26.20000 6.474
26.22000 2.284
26.24000 2.851
26.26000 4.064
26.28000 9.261
26.30000 7.709
26.32000 6.536
26.34000 8.512
26.36000 2.933
26.38000 2.003
26.40000 5.591
26.42000 3.772
26.44000 0.490
26.46000 2.728
26.48000 9.046
26.50000 2.216
26.52000 -3.873
26.54000 2.735
26.56000 4.774
26.58000 5.286
26.60000 -1.425
26.62000 6.667
26.64000 12.233
26.66000 13.453
26.68000 9.375
26.70000 10.380
26.72000 4.576
26.74000 2.316
26.76000 8.147
26.78000 9.033
26.80000 5.542
26.82000 6.995
26.84000 3.834
26.86000 5.615
26.88000 5.417
26.90000 8.075
26.92000 7.668
26.94000 0.863
26.96000 -3.228
26.98000 2.129
27.00000 5.238
27.02000 2.103
27.04000 0.220
27.06000 -0.566
27.08000 -0.594
27.10000 2.035
27.12000 0.570
27.14000 -1.987
27.16000 -0.626
27.18000 2.951
27.20000 7.358
27.22000 6.083
27.24000 -1.133
27.26000 -1.685
27.28000 3.182
27.30000 4.923
27.32000 -0.790
27.34000 -2.639
27.36000 1.286
27.38000 2.208
27.40000 -2.013
27.42000 -1.111
27.44000 -2.206
27.46000 1.422
27.48000 0.348
27.50000 2.624
27.52000 9.635
27.54000 2.517
27.56000 1.864
27.58000 0.702
27.60000 5.260
27.62000 4.032
27.64000 -3.258
27.66000 -3.332
27.68000 0.750
27.70000 0.323
27.72000 -3.106
27.74000 2.882
27.76000 0.599
27.78000 -3.836
27.80000 -3.486
27.82000 0.233
27.84000 -1.598
27.86000 2.229
27.88000 0.676
27.90000 0.709
27.92000 3.391
27.94000 1.935
27.96000 -2.933
27.98000 -1.561
28.00000 -2.501
28.02000 1.115
28.04000 0.673
28.06000 -1.062
28.08000 3.998
28.10000 1.144
28.12000 -3.712
28.14000 -3.266
28.16000 -2.081
28.18000 2.952
28.20000 3.138
28.22000 4.453
28.24000 -0.120
28.26000 -1.436
28.28000 2.008
28.30000 4.676
28.32000 6.720
28.34000 -3.761
28.36000 -2.536
28.38000 4.799
28.40000 1.373
28.42000 4.840
28.44000 4.420
28.46000 2.048
28.48000 0.839
28.50000 2.816
28.52000 6.987
28.54000 8.329
28.56000 3.081
28.58000 -2.828
28.60000 -2.574
28.62000 -1.191
28.64000 3.845
28.66000 9.938
28.68000 4.171
28.70000 -0.860
28.72000 2.120
28.74000 0.089
28.76000 0.969
28.78000 0.103
28.80000 2.153
28.82000 6.237
28.84000 3.660
28.86000 1.719
28.88000 3.551
28.90000 2.583
28.92000 1.892
28.94000 0.569
28.96000 5.312
28.98000 5.692
29.00000 2.159
29.02000 2.461
29.04000 7.722
29.06000 9.005
29.08000 2.739
29.10000 -1.801
29.12000 -3.747
29.14000 1.342
29.16000 7.725
29.18000 2.649
29.20000 7.978
29.22000 7.366
29.24000 2.341
29.26000 2.470
29.28000 4.396
29.30000 2.633
29.32000 5.940
29.34000 2.589
29.36000 9.862
29.38000 13.403
29.40000 5.969
29.42000 2.912
29.44000 5.048
29.46000 2.100
29.48000 0.516
29.50000 3.365
29.52000 7.324
29.54000 5.050
29.56000 1.938
29.58000 3.687
29.60000 2.890
29.62000 -0.371
29.64000 -3.593
29.66000 2.090
29.68000 3.858
29.70000 0.826
29.72000 1.272
29.74000 4.074
29.76000 3.525
29.78000 5.032
29.80000 3.775
29.82000 0.047
29.84000 2.754
29.86000 -1.141
29.88000 0.456
29.90000 2.238
29.92000 4.571
29.94000 3.031
29.96000 -3.699
29.98000 0.166
30.00000 3.273
30.02000 4.247
30.04000 4.021
30.06000 2.858
30.08000 4.112
30.10000 8.659
30.12000 8.297
30.14000 5.885
30.16000 3.381
30.18000 8.141
30.20000 2.948
30.22000 2.954
30.24000 8.391
30.26000 5.541
30.28000 3.948
30.30000 1.283
30.32000 -0.241
30.34000 -0.274
30.36000 6.106
30.38000 3.076
30.40000 5.031
30.42000 7.000
30.44000 9.378
30.46000 7.852
30.48000 3.111
30.50000 3.349
30.52000 -2.112
30.54000 -3.667
30.56000 -0.138
30.58000 4.478
30.60000 2.725
30.62000 3.922
30.64000 5.728
30.66000 4.989
30.68000 2.942
30.70000 5.267
30.72000 -0.090
30.74000 4.203
30.76000 5.109
30.78000 5.710
30.80000 4.468
30.82000 0.787
30.84000 1.098
30.86000 1.810
30.88000 -0.865
30.90000 -1.624
30.92000 -1.764
30.94000 4.004
30.96000 3.478
30.98000 -3.341
31.00000 -3.652
31.02000 -3.648
31.04000 2.672
31.06000 1.041
31.08000 -2.047
31.10000 0.341
31.12000 1.099
31.14000 2.621
31.16000 3.429
31.18000 5.071
31.20000 2.335
31.22000 -3.059
31.24000 1.029
31.26000 1.465
31.28000 1.474
31.30000 2.559
31.32000 4.855
31.34000 3.544
31.36000 2.824
31.38000 1.933
31.40000 -1.006
31.42000 -1.338
31.44000 1.697
31.46000 -0.862
31.48000 -0.388
31.50000 -0.437
31.52000 -0.783
31.54000 2.979
31.56000 5.868
31.58000 2.331
31.60000 -0.993
31.62000 -2.238
31.64000 -0.236
31.66000 0.985
31.68000 3.197
31.70000 4.361
31.72000 3.022
31.74000 1.210
31.76000 0.599
31.78000 -3.626
31.80000 -0.890
31.82000 -0.044
31.84000 3.917
31.86000 6.112
31.88000 3.790
31.90000 1.534
31.92000 -1.984
31.94000 0.350
31.96000 5.121
31.98000 4.726
32.00000 6.220
32.02000 4.667
32.04000 0.728
32.06000 -2.510
32.08000 5.402
32.10000 4.494
32.12000 5.701
32.14000 4.547
32.16000 2.728
32.18000 7.599
32.20000 2.438
32.22000 1.313
32.24000 4.685
32.26000 7.706
32.28000 1.001
32.30000 -3.608
32.32000 -0.583
32.34000 2.024
32.36000 3.706
32.38000 4.623
32.40000 7.145
32.42000 3.922
32.44000 3.803
32.46000 -1.669
32.48000 0.856
32.50000 4.512
32.52000 2.058
32.54000 -0.333
32.56000 -0.957
32.58000 0.676
32.60000 -1.149
32.62000 -0.501
32.64000 1.487
32.66000 1.307
32.68000 -3.243
32.70000 -3.002
32.72000 -3.508
32.74000 1.923
32.76000 3.245
32.78000 4.584
32.80000 4.368
32.82000 2.827
32.84000 1.842
32.86000 -1.397
32.88000 -0.139
32.90000 0.439
32.92000 -0.690
32.94000 -0.137
32.96000 -1.788
32.98000 0.148
33.00000 1.377
33.02000 3.574
33.04000 -1.430
33.06000 -0.258
33.08000 -2.930
33.10000 0.721
33.12000 3.508
33.14000 -0.544
33.16000 0.310
33.18000 2.037
33.20000 1.083
33.22000 -0.766
33.24000 -3.229
33.26000 3.033
33.28000 3.090
33.30000 -1.228
33.32000 -0.281
33.34000 4.142
33.36000 3.428
33.38000 1.586
33.40000 0.732
33.42000 0.074
33.44000 2.133
33.46000 -1.080
33.48000 1.884
33.50000 1.243
33.52000 -0.913
33.54000 1.543
33.56000 2.437
33.58000 3.031
33.60000 4.075
33.62000 4.443
33.64000 3.980
33.66000 3.346
33.68000 8.317
33.70000 5.525
33.72000 2.831
33.74000 5.885
33.76000 3.226
33.78000 1.820
33.80000 3.656
33.82000 5.653
33.84000 7.214
33.86000 4.079
33.88000 4.672
33.90000 7.984
33.92000 5.322
33.94000 4.930
33.96000 3.631
33.98000 2.851
34.00000 1.505
34.02000 -1.300
34.04000 1.918
34.06000 6.153
34.08000 5.462
34.10000 3.158
34.12000 3.937
34.14000 1.067
34.16000 3.802
34.18000 4.735
34.20000 9.599
34.22000 9.905
34.24000 9.287
34.26000 6.354
34.28000 7.229
34.30000 8.542
34.32000 7.582
34.34000 4.634
34.36000 3.696
34.38000 5.222
34.40000 6.927
34.42000 3.675
34.44000 1.366
34.46000 5.456
34.48000 7.899
34.50000 7.831
34.52000 12.554
34.54000 10.279
34.56000 2.610
34.58000 -0.573
34.60000 5.004
34.62000 11.585
34.64000 8.941
34.66000 9.885
34.68000 4.671
34.70000 4.310
34.72000 5.558
34.74000 3.132
34.76000 2.651
34.78000 6.123
34.80000 0.980
34.82000 -3.457
34.84000 0.854
34.86000 1.776
34.88000 4.777
34.90000 3.946
34.92000 0.917
34.94000 0.062
34.96000 3.694
34.98000 3.854
35.00000 8.907
35.02000 3.581
35.04000 1.216
35.06000 2.024
35.08000 5.719
35.10000 6.639
35.12000 2.940
35.14000 9.472
35.16000 8.723
35.18000 6.286
35.20000 8.568
35.22000 5.432
35.24000 0.345
35.26000 3.693
35.28000 4.383
35.30000 4.902
35.32000 6.836
35.34000 7.317
35.36000 0.992
35.38000 1.101
35.40000 3.670
35.42000 6.199
35.44000 1.064
35.46000 1.611
35.48000 5.551
35.50000 7.852
35.52000 8.025
35.54000 1.887
35.56000 -0.625
35.58000 3.481
35.60000 3.794
35.62000 5.855
35.64000 1.614
35.66000 0.377
35.68000 3.350
35.70000 5.971
35.72000 5.877
35.74000 3.559
35.76000 1.207
35.78000 1.107
35.80000 4.342
35.82000 5.298
35.84000 8.930
35.86000 11.546
35.88000 12.361
35.90000 7.111
35.92000 6.657
35.94000 2.382
35.96000 3.283
35.98000 1.820
36.00000 -3.476
36.02000 -0.289
36.04000 2.720
36.06000 2.325
36.08000 -1.492
36.10000 -1.418
36.12000 -0.437
36.14000 3.642
36.16000 4.060
36.18000 3.719
36.20000 -0.805
36.22000 -0.932
36.24000 -1.135
36.26000 2.999
36.28000 7.924
36.30000 4.020
36.32000 7.110
36.34000 4.923
36.36000 6.466
36.38000 4.217
36.40000 4.359
36.42000 1.732
36.44000 1.916
36.46000 3.910
36.48000 4.795
36.50000 5.388
36.52000 2.920
36.54000 5.052
36.56000 9.456
36.58000 3.129
36.60000 -3.448
36.62000 2.929
36.64000 1.385
36.66000 5.430
36.68000 1.356
36.70000 -0.490
36.72000 1.751
36.74000 0.788
36.76000 6.566
36.78000 2.272
36.80000 0.932
36.82000 2.985
36.84000 0.453
36.86000 1.247
36.88000 0.590
36.90000 3.928
36.92000 2.710
36.94000 0.591
36.96000 1.098
36.98000 -0.575
37.00000 -2.213
37.02000 -2.656
37.04000 -0.437
37.06000 -0.310
37.08000 1.774
37.10000 0.710
37.12000 1.802
37.14000 2.691
37.16000 5.369
37.18000 4.321
37.20000 2.039
37.22000 -3.537
37.24000 1.449
37.26000 4.043
37.28000 2.385
37.30000 -0.239
37.32000 -3.549
37.34000 -3.486
37.36000 -0.402
37.38000 -0.156
37.40000 2.715
37.42000 3.667
37.44000 1.379
37.46000 1.470
37.48000 -2.044
37.50000 -0.956
37.52000 3.178
37.54000 4.513
37.56000 3.589
37.58000 0.508
37.60000 -0.649
37.62000 0.911
37.64000 1.400
37.66000 -2.882
37.68000 -3.595
37.70000 1.085
37.72000 1.105
37.74000 -1.548
37.76000 0.393
37.78000 1.059
37.80000 2.032
37.82000 -1.132
37.84000 -3.616
37.86000 0.149
37.88000 7.268
37.90000 7.313
37.92000 3.701
37.94000 9.703
37.96000 6.804
37.98000 2.695
38.00000 1.601
38.02000 2.724
38.04000 6.396
38.06000 4.841
38.08000 2.709
38.10000 2.539
38.12000 4.404
38.14000 6.392
38.16000 9.617
38.18000 9.660
38.20000 12.339
38.22000 12.622
38.24000 8.527
38.26000 6.065
38.28000 9.793
38.30000 8.963
38.32000 11.455
38.34000 14.582
38.36000 15.431
38.38000 14.856
38.40000 16.631
38.42000 13.867
38.44000 12.289
38.46000 16.029
38.48000 13.919
38.50000 12.118
38.52000 11.349
38.54000 14.834
38.56000 13.706
38.58000 10.726
38.60000 10.552
38.62000 14.128
38.64000 15.242
38.66000 20.425
38.68000 20.578
38.70000 19.362
38.72000 19.879
38.74000 23.322
38.76000 24.736
38.78000 18.857
38.80000 19.481
38.82000 21.933
38.84000 18.875
38.86000 18.761
38.88000 24.266
38.90000 27.249
38.92000 25.719
38.94000 30.449
38.96000 28.950
38.98000 28.409
39.00000 31.655
39.02000 33.335
39.04000 32.041
39.06000 28.307
39.08000 28.976
39.10000 32.160
39.12000 35.814
39.14000 37.587
39.16000 41.415
39.18000 41.702
39.20000 44.147
39.22000 48.473
39.24000 49.913
39.26000 51.177
39.28000 53.636
39.30000 51.271
39.32000 52.874
39.34000 54.115
39.36000 56.366
39.38000 62.547
39.40000 66.099
39.42000 62.858
39.44000 71.357
39.46000 78.001
39.48000 84.515
39.50000 86.370
39.52000 82.585
39.54000 92.312
39.56000 103.068
39.58000 105.091
39.60000 110.832
39.62000 118.474
39.64000 123.049
39.66000 127.255
39.68000 134.725
39.70000 148.548
39.72000 154.900
39.74000 164.656
39.76000 177.158
39.78000 190.329
39.80000 206.488
39.82000 213.887
39.84000 227.530
39.86000 243.369
39.88000 267.042
39.90000 291.916
39.92000 308.081
39.94000 330.778
39.96000 351.653
39.98000 381.980
40.00000 404.284
40.02000 428.895
40.04000 455.457
40.06000 498.327
40.08000 538.339
40.10000 580.257
40.12000 626.178
40.14000 655.130
40.16000 704.770
40.18000 749.428
40.20000 802.788
40.22000 843.330
40.24000 901.663
40.26000 951.842
40.28000 986.307
40.30000 1028.487
40.32000 1069.973
40.34000 1120.645
40.36000 1153.044
40.38000 1179.742
40.40000 1194.316
40.42000 1214.182
40.44000 1232.059
40.46000 1238.719
40.48000 1245.137
40.50000 1239.770
40.52000 1246.654
40.54000 1222.929
40.56000 1204.510
40.58000 1195.815
40.60000 1171.822
40.62000 1138.204
40.64000 1116.138
40.66000 1085.702
40.68000 1055.502
40.70000 1018.516
40.72000 987.609
40.74000 959.512
40.76000 929.004
40.78000 893.513
40.80000 853.813
40.82000 822.755
40.84000 784.185
40.86000 739.532
40.88000 695.395
40.90000 658.821
40.92000 640.980
40.94000 607.391
40.96000 573.957
40.98000 545.466
41.00000 514.860
41.02000 484.371
41.04000 465.486
41.06000 440.942
41.08000 407.126
41.10000 382.972
41.12000 367.768
41.14000 341.702
41.16000 321.861
41.18000 309.828
41.20000 291.541
41.22000 276.513
41.24000 266.673
41.26000 253.062
41.28000 239.119
41.30000 224.847
41.32000 210.332
41.34000 196.861
41.36000 183.512
41.38000 175.870
41.40000 165.879
41.42000 163.541
41.44000 162.531
41.46000 149.439
41.48000 141.256
41.50000 132.304
41.52000 126.528
41.54000 120.620
41.56000 114.532
41.58000 108.390
41.60000 103.895
41.62000 99.328
41.64000 96.031
41.66000 90.627
41.68000 83.563
41.70000 82.382
41.72000 75.867
41.74000 75.984
41.76000 75.907
41.78000 73.416
41.80000 69.233
41.82000 65.475
41.84000 65.570
41.86000 56.136
41.88000 52.422
41.90000 49.632
41.92000 49.918
41.94000 54.544
41.96000 48.372
41.98000 43.402
42.00000 43.658
42.02000 43.849
42.04000 40.150
42.06000 40.703
42.08000 41.026
42.10000 37.968
42.12000 34.352
42.14000 35.186
42.16000 30.110
42.18000 30.060
42.20000 32.353
42.22000 29.451
42.24000 25.341
42.26000 23.908
42.28000 24.407
42.30000 24.583
42.32000 25.456
42.34000 26.543
42.36000 22.199
42.38000 21.558
42.40000 20.685
42.42000 23.677
42.44000 21.833
42.46000 15.924
42.48000 16.399
42.50000 14.893
42.52000 14.660
42.54000 16.016
42.56000 16.986
42.58000 15.548
42.60000 12.696
42.62000 11.845
42.64000 10.087
42.66000 12.154
42.68000 12.567
42.70000 7.235
42.72000 7.557
42.74000 7.213
42.76000 10.332
42.78000 7.401
42.80000 9.960
42.82000 9.864
42.84000 7.128
42.86000 6.167
42.88000 4.371
42.90000 4.050
42.92000 3.108
42.94000 5.421
42.96000 9.626
42.98000 4.540
43.00000 6.575
43.02000 3.714
43.04000 3.122
43.06000 1.197
43.08000 1.287
43.10000 1.419
43.12000 1.816
43.14000 1.980
43.16000 3.839
43.18000 1.176
43.20000 2.691
43.22000 6.305
43.24000 4.966
43.26000 3.135
43.28000 -0.324
43.30000 4.613
43.32000 1.102
43.34000 -3.444
43.36000 -2.465
43.38000 -2.444
43.40000 -1.466
43.42000 0.414
43.44000 0.665
43.46000 3.447
43.48000 5.045
43.50000 6.296
43.52000 1.044
43.54000 -0.886
43.56000 0.077
43.58000 3.370
43.60000 2.968
43.62000 1.983
43.64000 -0.029
43.66000 -3.380
43.68000 1.793
43.70000 4.674
43.72000 -1.548
43.74000 1.315
43.76000 3.484
43.78000 1.709
43.80000 -2.828
43.82000 0.402
43.84000 2.209
43.86000 2.469
43.88000 -1.714
43.90000 -0.864
43.92000 0.178
43.94000 1.856
43.96000 1.889
43.98000 2.694
44.00000 -1.083
44.02000 -3.332
44.04000 0.997
44.06000 1.250
44.08000 1.599
44.10000 4.403
44.12000 1.460
44.14000 2.394
44.16000 1.969
44.18000 -1.726
44.20000 -0.488
44.22000 -2.103
44.24000 -1.626
44.26000 3.183
44.28000 -1.505
44.30000 1.613
44.32000 2.361
44.34000 -1.880
44.36000 -0.688
44.38000 -1.791
44.40000 -3.281
44.42000 -2.132
44.44000 3.344
44.46000 6.138
44.48000 3.812
44.50000 0.986
44.52000 1.492
44.54000 3.220
44.56000 0.986
44.58000 -1.337
44.60000 -3.250
44.62000 2.172
44.64000 5.337
44.66000 0.664
44.68000 -3.250
44.70000 -0.077
44.72000 -0.860
44.74000 2.854
44.76000 2.318
44.78000 1.734
44.80000 -2.163
44.82000 -1.703
44.84000 0.919
44.86000 -0.497
44.88000 -3.127
44.90000 1.059
44.92000 2.534
44.94000 1.523
44.96000 -0.804
44.98000 6.408
45.00000 4.644
45.02000 1.846
45.04000 4.041
45.06000 6.551
45.08000 4.565
45.10000 0.173
45.12000 -3.240
45.14000 1.721
45.16000 3.484
45.18000 -0.592
45.20000 1.200
45.22000 3.186
45.24000 3.474
45.26000 2.101
45.28000 1.572
45.30000 0.617
45.32000 5.880
45.34000 3.601
45.36000 1.853
45.38000 0.498
45.40000 2.017
45.42000 3.397
45.44000 2.915
45.46000 2.391
45.48000 4.826
45.50000 4.975
45.52000 6.749
45.54000 6.087
45.56000 2.614
45.58000 2.906
45.60000 2.199
45.62000 5.675
45.64000 7.127
45.66000 8.884
45.68000 8.430
45.70000 5.773
45.72000 8.951
45.74000 13.006
45.76000 9.637
45.78000 10.180
45.80000 11.918
45.82000 11.772
45.84000 14.114
45.86000 12.024
45.88000 14.125
45.90000 11.346
45.92000 13.160
45.94000 15.286
45.96000 10.193
45.98000 7.765
46.00000 9.705
46.02000 13.606
46.04000 17.007
46.06000 20.229
46.08000 20.012
46.10000 16.695
46.12000 17.506
46.14000 21.600
46.16000 22.193
46.18000 20.648
46.20000 24.675
46.22000 28.003
46.24000 28.387
46.26000 28.160
46.28000 28.186
46.30000 30.291
46.32000 35.288
46.34000 37.420
46.36000 34.429
46.38000 33.966
46.40000 41.432
46.42000 42.017
46.44000 41.633
46.46000 46.101
46.48000 48.544
46.50000 51.296
46.52000 50.845
46.54000 53.497
46.56000 59.904
46.58000 62.456
46.60000 68.065
46.62000 66.104
46.64000 66.549
46.66000 67.914
46.68000 77.254
46.70000 88.325
46.72000 85.757
46.74000 87.451
46.76000 93.283
46.78000 99.110
46.80000 106.691
46.82000 102.027
46.84000 101.821
46.86000 102.845
46.88000 111.735
46.90000 120.449
46.92000 134.323
46.94000 139.204
46.96000 136.347
46.98000 136.456
47.00000 149.125
47.02000 153.148
47.04000 153.738
47.06000 154.928
47.08000 157.826
47.10000 154.150
47.12000 151.063
47.14000 151.954
47.16000 154.087
47.18000 157.108
47.20000 156.149
47.22000 149.049
47.24000 150.022
47.26000 146.247
47.28000 147.370
47.30000 141.788
47.32000 135.841
47.34000 128.053
47.36000 124.227
47.38000 119.509
47.40000 120.543
47.42000 117.975
47.44000 112.198
47.46000 104.559
47.48000 99.512
47.50000 94.453
47.52000 96.667
47.54000 91.379
47.56000 87.545
47.58000 87.324
47.60000 84.189
47.62000 75.069
47.64000 70.220
47.66000 63.803
47.68000 62.100
47.70000 59.540
47.72000 58.198
47.74000 52.375
47.76000 46.408
47.78000 41.949
47.80000 46.201
47.82000 47.614
47.84000 45.806
47.86000 45.884
47.88000 42.444
47.90000 36.531
47.92000 31.788
47.94000 29.692
47.96000 32.434
47.98000 33.345
48.00000 28.088
48.02000 22.869
48.04000 19.938
48.06000 24.249
48.08000 19.015
48.10000 16.663
48.12000 15.745
48.14000 13.380
48.16000 17.263
48.18000 18.148
48.20000 19.929
48.22000 17.381
48.24000 18.754
48.26000 16.713
48.28000 9.647
48.30000 8.203
48.32000 14.093
48.34000 10.045
48.36000 9.138
48.38000 5.291
48.40000 5.785
48.42000 7.544
48.44000 8.654
48.46000 8.192
48.48000 6.286
48.50000 6.315
48.52000 6.018
48.54000 6.086
48.56000 9.254
48.58000 7.599
48.60000 6.441
48.62000 4.840
48.64000 7.126
48.66000 7.060
48.68000 6.021
48.70000 5.204
48.72000 6.798
48.74000 9.036
48.76000 4.477
48.78000 0.734
48.80000 -2.698
48.82000 6.715
48.84000 8.704
48.86000 7.273
48.88000 3.163
48.90000 5.564
48.92000 3.547
48.94000 3.005
48.96000 6.946
48.98000 4.855
49.00000 1.890
49.02000 2.168
49.04000 0.474
49.06000 -0.581
49.08000 2.827
49.10000 3.418
49.12000 0.280
49.14000 1.360
49.16000 3.231
49.18000 2.450
49.20000 0.990
49.22000 2.294
49.24000 0.967
49.26000 2.158
49.28000 2.542
49.30000 5.049
49.32000 2.397
49.34000 1.004
49.36000 -0.964
49.38000 -1.764
49.40000 1.674
49.42000 1.937
49.44000 -0.315
49.46000 0.281
49.48000 3.891
49.50000 0.991
49.52000 2.793
49.54000 2.156
49.56000 -1.115
49.58000 0.875
49.60000 -0.698
49.62000 -2.621
49.64000 -0.266
49.66000 2.548
49.68000 0.430
49.70000 -0.718
49.72000 -1.360
49.74000 1.053
49.76000 1.692
49.78000 0.530
49.80000 0.634
49.82000 -0.165
49.84000 -1.596
49.86000 -1.028
49.88000 -1.396
49.90000 -0.804
49.92000 -1.810
49.94000 -0.910
49.96000 3.219
49.98000 1.891
50.00000 1.109
50.02000 -0.330
50.04000 -2.583
50.06000 1.381
50.08000 0.939
50.10000 2.161
50.12000 4.129
50.14000 -0.271
50.16000 3.468
50.18000 2.438
50.20000 3.660
50.22000 2.172
50.24000 1.213
50.26000 -0.237
50.28000 0.563
50.30000 1.925
50.32000 2.990
50.34000 1.310
50.36000 -0.115
50.38000 4.130
50.40000 2.950
50.42000 -2.536
50.44000 0.762
50.46000 -0.470
50.48000 0.080
50.50000 0.762
50.52000 1.468
50.54000 1.548
50.56000 -1.827
50.58000 -1.161
50.60000 -0.465
50.62000 0.995
50.64000 -1.306
50.66000 2.291
50.68000 2.392
50.70000 3.639
50.72000 0.719
50.74000 1.184
50.76000 -0.359
50.78000 -2.218
50.80000 0.984
50.82000 2.133
50.84000 -0.955
50.86000 2.110
50.88000 2.490
50.90000 1.973
50.92000 1.267
50.94000 0.825
50.96000 0.002
50.98000 2.270
51.00000 3.833
51.02000 0.804
51.04000 2.881
51.06000 2.600
51.08000 1.461
51.10000 6.248
51.12000 4.968
51.14000 4.187
51.16000 1.286
51.18000 0.878
51.20000 -2.480
51.22000 -0.879
51.24000 0.659
51.26000 -0.974
51.28000 2.890
51.30000 1.977
51.32000 1.639
51.34000 -0.218
51.36000 0.668
51.38000 0.434
51.40000 2.812
51.42000 3.467
51.44000 0.741
51.46000 3.656
51.48000 1.561
51.50000 1.203
51.52000 0.892
51.54000 1.761
51.56000 1.297
51.58000 2.896
51.60000 -0.560
51.62000 -1.734
51.64000 -0.614
51.66000 4.148
51.68000 2.332
51.70000 -0.919
51.72000 -1.712
51.74000 1.086
51.76000 1.654
51.78000 5.325
51.80000 3.302
51.82000 3.719
51.84000 4.403
51.86000 3.752
51.88000 2.428
51.90000 2.199
51.92000 1.000
51.94000 -0.230
51.96000 -2.430
51.98000 3.641
52.00000 5.519
52.02000 1.118
52.04000 4.364
52.06000 2.286
52.08000 3.064
52.10000 3.916
52.12000 1.864
52.14000 7.333
52.16000 6.587
52.18000 1.457
52.20000 -0.197
52.22000 4.347
52.24000 3.713
52.26000 0.185
52.28000 3.264
52.30000 1.603
52.32000 -0.994
52.34000 0.261
52.36000 2.675
52.38000 7.196
52.40000 3.350
52.42000 1.680
52.44000 0.880
52.46000 2.664
52.48000 2.111
52.50000 -0.011
52.52000 0.663
52.54000 2.642
52.56000 4.766
52.58000 1.372
52.60000 0.665
52.62000 2.739
52.64000 -0.364
52.66000 -1.083
52.68000 -1.823
52.70000 -2.256
52.72000 -2.362
52.74000 4.518
52.76000 3.924
52.78000 1.168
52.80000 1.319
52.82000 0.693
52.84000 2.289
52.86000 2.916
52.88000 1.847
52.90000 0.537
52.92000 2.697
52.94000 4.520
52.96000 2.033
52.98000 5.210
53.00000 6.760
53.02000 2.934
53.04000 3.964
53.06000 2.045
53.08000 6.537
53.10000 2.781
53.12000 2.781
53.14000 4.019
53.16000 3.849
53.18000 4.612
53.20000 3.719
53.22000 4.866
53.24000 4.146
53.26000 1.871
53.28000 -0.575
53.30000 -2.356
53.32000 1.147
53.34000 2.707
53.36000 1.342
53.38000 -0.275
53.40000 1.594
53.42000 3.447
53.44000 6.388
53.46000 4.919
53.48000 2.995
53.50000 2.034
53.52000 -0.232
53.54000 2.401
53.56000 2.898
53.58000 1.039
53.60000 2.410
53.62000 1.044
53.64000 3.670
53.66000 5.592
53.68000 0.890
53.70000 1.702
53.72000 -0.165
53.74000 3.000
53.76000 2.105
53.78000 2.183
53.80000 3.961
53.82000 2.319
53.84000 2.118
53.86000 3.670
53.88000 6.802
53.90000 1.524
53.92000 1.801
53.94000 2.004
53.96000 1.829
53.98000 2.281
54.00000 1.576
54.02000 4.819
54.04000 4.216
54.06000 3.017
54.08000 2.255
54.10000 1.543
54.12000 -1.183
54.14000 -1.567
54.16000 -1.278
54.18000 -0.664
54.20000 1.603
54.22000 5.067
54.24000 2.289
54.26000 5.492
54.28000 5.239
54.30000 4.127
54.32000 3.808
54.34000 0.038
54.36000 -2.372
54.38000 -1.497
54.40000 2.181
54.42000 0.820
54.44000 0.243
54.46000 1.264
54.48000 4.377
54.50000 2.360
54.52000 1.959
54.54000 1.980
54.56000 3.974
54.58000 -1.325
54.60000 0.038
54.62000 3.370
54.64000 2.469
54.66000 3.851
54.68000 0.893
54.70000 1.307
54.72000 3.444
54.74000 7.070
54.76000 1.588
54.78000 5.465
54.80000 4.790
54.82000 3.397
54.84000 1.075
54.86000 -0.673
54.88000 -1.195
54.90000 -2.361
54.92000 -1.382
54.94000 1.810
54.96000 0.357
54.98000 1.658
55.00000 2.494
55.02000 -1.448
55.04000 0.302
55.06000 2.057
55.08000 0.073
55.10000 1.806
55.12000 5.369
55.14000 1.496
55.16000 2.588
55.18000 2.414
55.20000 -2.187
55.22000 -2.038
55.24000 2.018
55.26000 4.369
55.28000 3.676
55.30000 2.235
55.32000 2.263
55.34000 -2.340
55.36000 -1.315
55.38000 1.744
55.40000 3.159
55.42000 1.520
55.44000 2.639
55.46000 5.204
55.48000 4.735
55.50000 1.540
55.52000 -0.707
55.54000 0.131
55.56000 0.750
55.58000 3.050
55.60000 2.404
55.62000 0.198
55.64000 -0.792
55.66000 -0.261
55.68000 0.622
55.70000 2.099
55.72000 1.874
55.74000 1.914
55.76000 0.457
55.78000 0.187
55.80000 3.223
55.82000 0.440
55.84000 -0.723
55.86000 2.779
55.88000 1.134
55.90000 5.457
55.92000 5.359
55.94000 4.384
55.96000 1.741
55.98000 1.168
56.00000 1.181
56.02000 3.272
56.04000 4.504
56.06000 2.163
56.08000 1.778
56.10000 -0.056
56.12000 0.999
56.14000 1.676
56.16000 3.305
56.18000 2.897
56.20000 1.152
56.22000 2.782
56.24000 0.234
56.26000 -0.244
56.28000 2.650
56.30000 -2.301
56.32000 0.391
56.34000 1.051
56.36000 1.261
56.38000 2.718
56.40000 3.112
56.42000 1.767
56.44000 6.835
56.46000 3.786
56.48000 3.352
56.50000 2.086
56.52000 4.548
56.54000 4.559
56.56000 2.365
56.58000 2.175
56.60000 -1.395
56.62000 3.595
56.64000 1.864
56.66000 2.222
56.68000 1.942
56.70000 0.442
56.72000 3.656
56.74000 5.736
56.76000 0.094
56.78000 1.411
56.80000 3.706
56.82000 5.809
56.84000 4.949
56.86000 2.788
56.88000 1.756
56.90000 1.410
56.92000 4.418
56.94000 3.039
56.96000 3.767
56.98000 4.639
57.00000 2.281
57.02000 3.493
57.04000 0.730
57.06000 1.712
57.08000 2.454
57.10000 2.150
57.12000 1.687
57.14000 1.490
57.16000 1.550
57.18000 1.748
57.20000 2.923
57.22000 5.144
57.24000 1.547
57.26000 0.066
57.28000 1.997
57.30000 1.255
57.32000 5.020
57.34000 2.300
57.36000 0.844
57.38000 0.337
57.40000 0.536
57.42000 1.784
57.44000 4.183
57.46000 1.519
57.48000 -2.278
57.50000 -0.870
57.52000 1.408
57.54000 4.265
57.56000 1.935
57.58000 0.666
57.60000 0.031
57.62000 1.940
57.64000 1.682
57.66000 5.039
57.68000 7.080
57.70000 4.177
57.72000 3.521
57.74000 -0.158
57.76000 0.190
57.78000 -1.111
57.80000 -0.301
57.82000 4.251
57.84000 3.543
57.86000 0.184
57.88000 2.330
57.90000 0.530
57.92000 -0.868
57.94000 2.478
57.96000 1.278
57.98000 -1.009
58.00000 -0.954
58.02000 -1.001
58.04000 -0.124
58.06000 0.194
58.08000 2.098
58.10000 0.356
58.12000 4.073
58.14000 -0.597
58.16000 0.679
58.18000 -0.125
58.20000 0.803
58.22000 1.516
58.24000 2.244
58.26000 2.737
58.28000 3.927
58.30000 2.650
58.32000 2.888
58.34000 3.455
58.36000 1.455
58.38000 -1.184
58.40000 1.837
58.42000 0.294
58.44000 -1.403
58.46000 0.031
58.48000 2.649
58.50000 1.956
58.52000 3.525
58.54000 1.982
58.56000 2.895
58.58000 3.516
58.60000 5.732
58.62000 5.179
58.64000 3.124
58.66000 3.823
58.68000 0.618
58.70000 0.508
58.72000 -0.756
58.74000 1.248
58.76000 2.127
58.78000 3.162
58.80000 4.290
58.82000 2.848
58.84000 0.580
58.86000 -2.243
58.88000 0.009
58.90000 2.038
58.92000 -0.475
58.94000 -0.429
58.96000 0.990
58.98000 1.709
59.00000 1.636
59.02000 2.040
59.04000 -1.039
59.06000 1.601
59.08000 3.741
59.10000 5.029
59.12000 3.050
59.14000 0.508
59.16000 0.876
59.18000 4.708
59.20000 7.264
59.22000 7.285
59.24000 4.819
59.26000 4.353
59.28000 3.795
59.30000 -2.198
59.32000 0.304
59.34000 3.469
59.36000 1.677
59.38000 1.396
59.40000 2.475
59.42000 4.981
59.44000 0.622
59.46000 -0.924
59.48000 -2.185
59.50000 0.220
59.52000 1.265
59.54000 0.133
59.56000 2.779
59.58000 4.733
59.60000 5.298
59.62000 1.698
59.64000 1.862
59.66000 5.291
59.68000 2.695
59.70000 1.044
59.72000 1.938
59.74000 3.413
59.76000 5.956
59.78000 5.256
59.80000 -1.001
59.82000 -1.739
59.84000 2.954
59.86000 2.925
59.88000 4.434
59.90000 4.595
59.92000 3.081
59.94000 0.848
59.96000 0.785
59.98000 -1.527
60.00000 -2.199
60.02000 2.678
60.04000 3.485
60.06000 4.982
60.08000 4.068
60.10000 4.850
60.12000 1.371
60.14000 2.053
60.16000 1.462
60.18000 0.801
60.20000 3.745
60.22000 3.653
60.24000 1.007
60.26000 -0.174
60.28000 4.382
60.30000 1.052
60.32000 2.562
60.34000 2.334
60.36000 2.086
60.38000 2.056
60.40000 4.598
60.42000 3.762
60.44000 -0.623
60.46000 -0.302
60.48000 2.672
60.50000 3.814
60.52000 3.691
60.54000 3.636
60.56000 3.969
60.58000 3.736
60.60000 0.451
60.62000 3.281
60.64000 4.324
60.66000 2.333
60.68000 3.273
60.70000 1.804
60.72000 2.275
60.74000 0.168
60.76000 2.877
60.78000 4.334
60.80000 4.038
60.82000 1.214
60.84000 1.918
60.86000 3.393
60.88000 2.242
60.90000 -0.527
60.92000 -2.158
60.94000 0.761
60.96000 2.542
60.98000 4.573
61.00000 2.797
61.02000 2.695
61.04000 4.248
61.06000 2.477
61.08000 -0.346
61.10000 0.632
61.12000 1.406
61.14000 -0.431
61.16000 2.683
61.18000 5.463
61.20000 3.653
61.22000 3.827
61.24000 2.874
61.26000 1.003
61.28000 0.677
61.30000 3.097
61.32000 0.144
61.34000 1.478
61.36000 2.824
61.38000 2.458
61.40000 1.780
61.42000 3.567
61.44000 1.124
61.46000 -1.968
61.48000 -1.766
61.50000 2.928
61.52000 1.066
61.54000 -1.925
61.56000 1.405
61.58000 2.131
61.60000 0.823
61.62000 0.752
61.64000 -0.474
61.66000 2.339
61.68000 0.938
61.70000 2.223
61.72000 5.220
61.74000 3.304
61.76000 3.099
61.78000 5.410
61.80000 4.166
61.82000 1.233
61.84000 -1.031
61.86000 -1.736
61.88000 2.185
61.90000 1.299
61.92000 1.558
61.94000 -1.281
61.96000 -2.155
61.98000 1.110
62.00000 1.676
62.02000 2.283
62.04000 0.813
62.06000 1.160
62.08000 3.553
62.10000 4.287
62.12000 2.114
62.14000 4.671
62.16000 3.540
62.18000 5.379
62.20000 1.232
62.22000 1.933
62.24000 3.926
62.26000 4.578
62.28000 2.249
62.30000 0.878
62.32000 -0.221
62.34000 2.807
62.36000 -0.288
62.38000 -2.135
62.40000 -1.170
62.42000 -1.018
62.44000 2.879
62.46000 2.473
62.48000 1.459
62.50000 2.744
62.52000 1.114
62.54000 -0.961
62.56000 1.226
62.58000 1.250
62.60000 1.939
62.62000 1.646
62.64000 0.139
62.66000 -0.419
62.68000 2.943
62.70000 3.478
62.72000 1.504
62.74000 -0.621
62.76000 -2.127
62.78000 -1.710
62.80000 0.364
62.82000 0.117
62.84000 0.240
62.86000 1.156
62.88000 3.702
62.90000 0.318
62.92000 0.986
62.94000 0.611
62.96000 1.006
62.98000 3.178
63.00000 2.399
63.02000 -0.218
63.04000 1.397
63.06000 0.948
63.08000 2.427
63.10000 2.531
63.12000 0.310
63.14000 0.193
63.16000 -1.110
63.18000 1.667
63.20000 1.550
63.22000 0.418
63.24000 -0.618
63.26000 1.686
63.28000 1.348
63.30000 0.438
63.32000 4.238
63.34000 0.945
63.36000 0.648
63.38000 1.096
63.40000 -1.302
63.42000 -2.144
63.44000 2.268
63.46000 3.060
63.48000 -0.147
63.50000 -0.146
63.52000 -0.205
63.54000 -1.454
63.56000 -1.247
63.58000 -0.935
63.60000 -0.032
63.62000 1.284
63.64000 3.960
63.66000 1.910
63.68000 -1.671
63.70000 -0.719
63.72000 0.246
63.74000 -0.267
63.76000 -0.617
63.78000 0.718
63.80000 0.045
63.82000 1.606
63.84000 1.657
63.86000 -1.340
63.88000 -0.829
63.90000 2.427
63.92000 1.002
63.94000 1.391
63.96000 -0.767
63.98000 0.424
64.00000 -1.009
64.02000 -0.158
64.04000 -2.031
64.06000 1.717
64.08000 0.830
64.10000 0.815
64.12000 -0.024
64.14000 -2.141
64.16000 0.004
64.18000 1.578
64.20000 -0.657
64.22000 -0.118
64.24000 -0.041
64.26000 0.059
64.28000 1.644
64.30000 1.221
64.32000 0.290
64.34000 -0.772
64.36000 0.992
64.38000 1.566
64.40000 -0.306
64.42000 -0.427
64.44000 2.546
64.46000 1.464
64.48000 2.259
64.50000 -0.851
64.52000 -2.127
64.54000 -0.375
64.56000 0.550
64.58000 1.069
64.60000 0.923
64.62000 0.256
64.64000 -0.129
64.66000 2.242
64.68000 3.064
64.70000 3.423
64.72000 0.989
64.74000 -0.019
64.76000 -1.231
64.78000 -2.024
64.80000 0.962
64.82000 1.900
64.84000 -0.554
64.86000 -0.274
64.88000 2.301
64.90000 2.361
64.92000 0.632
64.94000 0.955
64.96000 -0.677
64.98000 0.924
65.00000 4.230
65.02000 1.565
65.04000 -2.098
65.06000 0.823
65.08000 1.446
65.10000 2.749
65.12000 1.552
65.14000 1.642
65.16000 1.291
65.18000 0.905
65.20000 1.908
65.22000 2.559
65.24000 1.398
65.26000 2.550
65.28000 3.029
65.30000 2.848
65.32000 2.765
65.34000 1.864
65.36000 1.920
65.38000 2.790
65.40000 3.782
65.42000 4.326
65.44000 3.588
65.46000 4.491
65.48000 1.816
65.50000 -2.065
65.52000 0.182
65.54000 2.098
65.56000 3.760
65.58000 3.509
65.60000 2.248
65.62000 4.189
65.64000 3.441
65.66000 1.295
65.68000 0.632
65.70000 -1.351
65.72000 -2.071
65.74000 -0.785
65.76000 0.988
65.78000 1.952
65.80000 1.755
65.82000 -0.130
65.84000 0.654
65.86000 0.262
65.88000 1.498
65.90000 1.378
65.92000 2.292
65.94000 1.959
65.96000 2.455
65.98000 3.685
66.00000 3.049
66.02000 0.424
66.04000 0.103
66.06000 2.028
66.08000 3.208
66.10000 2.324
66.12000 1.092
66.14000 1.666
66.16000 3.512
66.18000 4.183
66.20000 3.273
66.22000 3.205
66.24000 3.222
66.26000 2.835
66.28000 0.627
66.30000 1.386
66.32000 1.087
66.34000 0.789
66.36000 -0.517
66.38000 -2.079
66.40000 -0.532
66.42000 -0.442
66.44000 2.374
66.46000 0.926
66.48000 1.640
66.50000 0.894
66.52000 1.003
66.54000 0.369
66.56000 0.609
66.58000 1.768
66.60000 0.700
66.62000 0.254
66.64000 -0.113
66.66000 -0.967
66.68000 1.695
66.70000 2.659
66.72000 -1.251
66.74000 -1.459
66.76000 -0.357
66.78000 0.977
66.80000 -0.914
66.82000 -0.440
66.84000 0.913
66.86000 0.088
66.88000 1.568
66.90000 1.393
66.92000 -2.074
66.94000 0.867
66.96000 3.429
66.98000 2.639
67.00000 -0.653
67.02000 -0.741
67.04000 0.301
67.06000 1.410
67.08000 3.109
67.10000 2.627
67.12000 0.536
67.14000 -0.483
67.16000 1.498
67.18000 1.749
67.20000 0.067
67.22000 -0.296
67.24000 -2.087
67.26000 -1.959
67.28000 -0.521
67.30000 0.881
67.32000 0.940
67.34000 -0.421
67.36000 0.153
67.38000 1.265
67.40000 2.643
67.42000 2.806
67.44000 0.609
67.46000 -2.096
67.48000 -0.156
67.50000 -0.576
67.52000 1.199
67.54000 2.718
67.56000 2.424
67.58000 1.146
67.60000 0.817
67.62000 0.701
67.64000 2.291
67.66000 2.382
67.68000 4.366
67.70000 0.924
67.72000 -1.224
67.74000 0.332
67.76000 0.135
67.78000 -1.300
67.80000 -1.391
67.82000 -2.110
67.84000 -1.464
67.86000 0.622
67.88000 0.434
67.90000 1.062
67.92000 3.052
67.94000 2.304
67.96000 2.632
67.98000 1.226
68.00000 4.475
68.02000 3.082
68.04000 4.066
68.06000 4.802
68.08000 2.840
68.10000 3.110
68.12000 3.358
68.14000 0.945
68.16000 1.998
68.18000 6.044
68.20000 6.290
68.22000 5.709
68.24000 4.245
68.26000 5.530
68.28000 5.402
68.30000 6.178
68.32000 8.128
68.34000 9.010
68.36000 6.751
68.38000 4.191
68.40000 9.030
68.42000 9.227
68.44000 10.176
68.46000 10.587
68.48000 10.543
68.50000 12.733
68.52000 13.399
68.54000 16.339
68.56000 14.085
68.58000 13.634
68.60000 13.071
68.62000 13.832
68.64000 18.449
68.66000 17.166
68.68000 17.795
68.70000 20.210
68.72000 19.785
68.74000 19.928
68.76000 21.890
68.78000 22.924
68.80000 22.262
68.82000 17.810
68.84000 20.646
68.86000 22.933
68.88000 24.356
68.90000 26.800
68.92000 28.605
68.94000 27.068
68.96000 25.115
68.98000 21.307
69.00000 21.503
69.02000 18.926
69.04000 17.384
69.06000 22.302
69.08000 22.006
69.10000 19.599
69.12000 20.114
69.14000 19.822
69.16000 18.664
69.18000 17.589
69.20000 19.084
69.22000 18.385
69.24000 19.391
69.26000 18.039
69.28000 13.939
69.30000 14.777
69.32000 15.766
69.34000 12.205
69.36000 11.696
69.38000 8.249
69.40000 11.210
69.42000 9.011
69.44000 10.436
69.46000 9.006
69.48000 9.620
69.50000 8.569
69.52000 7.520
69.54000 7.546
69.56000 5.544
69.58000 4.651
69.60000 6.494
69.62000 6.097
69.64000 4.631
69.66000 6.185
69.68000 4.367
69.70000 3.452
69.72000 5.029
69.74000 4.299
69.76000 1.680
69.78000 1.773
69.80000 0.307
69.82000 2.498
69.84000 2.481
69.86000 1.847
69.88000 2.388
69.90000 3.391
69.92000 3.782
69.94000 2.619
69.96000 1.329
69.98000 1.830
70.00000 -1.005
70.02000 -1.539
70.04000 2.434
70.06000 0.709
70.08000 -0.333
70.10000 0.917
70.12000 -0.088
70.14000 -2.035
70.16000 -1.197
70.18000 -0.226
70.20000 0.758
70.22000 0.466
70.24000 -1.522
70.26000 1.683
70.28000 -2.011
70.30000 -0.316
70.32000 1.485
70.34000 1.622
70.36000 1.292
70.38000 0.862
70.40000 2.975
70.42000 0.031
70.44000 -1.159
70.46000 -0.568
70.48000 1.108
70.50000 3.327
70.52000 1.865
70.54000 -0.202
70.56000 1.364
70.58000 0.703
70.60000 0.475
70.62000 -0.375
70.64000 0.706
70.66000 1.758
70.68000 -0.252
70.70000 -1.970
70.72000 -0.273
70.74000 1.645
70.76000 1.540
70.78000 1.663
70.80000 2.817
70.82000 3.650
70.84000 3.142
70.86000 0.491
70.88000 1.622
70.90000 -0.682
70.92000 0.437
70.94000 -0.800
70.96000 -0.852
70.98000 -0.022
71.00000 0.721
71.02000 1.667
71.04000 0.290
71.06000 0.546
71.08000 2.886
71.10000 1.973
71.12000 1.891
71.14000 -0.764
71.16000 -1.412
71.18000 -1.917
71.20000 -1.324
71.22000 -0.819
71.24000 0.100
71.26000 -0.572
71.28000 1.445
71.30000 2.743
71.32000 -0.217
71.34000 1.549
71.36000 1.048
71.38000 1.849
71.40000 0.227
71.42000 1.105
71.44000 0.394
71.46000 1.143
71.48000 -0.410
71.50000 2.157
71.52000 1.373
71.54000 1.455
71.56000 -0.381
71.58000 0.262
71.60000 1.534
71.62000 1.683
71.64000 0.575
71.66000 0.335
71.68000 -0.310
71.70000 -0.887
71.72000 -0.549
71.74000 -1.894
71.76000 -0.891
71.78000 2.950
71.80000 3.602
71.82000 1.531
71.84000 -0.650
71.86000 1.162
71.88000 -0.048
71.90000 1.603
71.92000 2.525
71.94000 2.033
71.96000 0.139
71.98000 3.345
72.00000 3.412
72.02000 1.245
72.04000 -0.443
72.06000 0.616
72.08000 -0.733
72.10000 -1.633
72.12000 1.355
72.14000 1.386
72.16000 0.809
72.18000 -0.685
72.20000 -0.900
72.22000 1.888
72.24000 3.549
72.26000 1.669
72.28000 2.037
72.30000 2.093
72.32000 0.782
72.34000 -1.358
72.36000 1.093
72.38000 1.608
72.40000 1.317
72.42000 2.458
72.44000 1.608
72.46000 4.586
72.48000 2.975
72.50000 2.633
72.52000 3.493
72.54000 4.759
72.56000 2.357
72.58000 -1.825
72.60000 0.372
72.62000 1.445
72.64000 2.402
72.66000 3.469
72.68000 5.203
72.70000 2.881
72.72000 2.727
72.74000 4.188
72.76000 1.375
72.78000 -1.044
72.80000 -1.090
72.82000 0.011
72.84000 1.957
72.86000 0.541
72.88000 1.221
72.90000 0.776
72.92000 2.669
72.94000 3.851
72.96000 2.828
72.98000 3.016
73.00000 2.057
73.02000 2.235
73.04000 0.908
73.06000 0.269
73.08000 0.757
73.10000 2.926
73.12000 3.861
73.14000 3.771
73.16000 1.635
73.18000 1.566
73.20000 1.451
73.22000 2.654
73.24000 3.930
73.26000 2.591
73.28000 3.489
73.30000 -0.023
73.32000 -0.875
73.34000 -1.791
73.36000 -1.812
73.38000 0.395
73.40000 -0.610
73.42000 -0.637
73.44000 0.687
73.46000 2.033
73.48000 1.460
73.50000 4.824
73.52000 3.995
73.54000 3.638
73.56000 4.183
73.58000 4.494
73.60000 2.683
73.62000 -1.102
73.64000 1.221
73.66000 2.914
73.68000 4.124
73.70000 5.561
73.72000 3.147
73.74000 2.060
73.76000 1.768
73.78000 1.505
73.80000 2.750
73.82000 2.664
73.84000 0.953
73.86000 0.154
73.88000 2.014
73.90000 1.301
73.92000 -1.808
73.94000 -0.903
73.96000 3.895
73.98000 2.571
74.00000 1.278
74.02000 2.193
74.04000 1.543
74.06000 0.354
74.08000 1.715
74.10000 2.336
74.12000 2.692
74.14000 -0.950
74.16000 -1.791
74.18000 -1.496
74.20000 -0.292
74.22000 2.544
74.24000 3.064
74.26000 1.796
74.28000 1.771
74.30000 0.283
74.32000 1.555
74.34000 2.375
74.36000 2.721
74.38000 1.755
74.40000 1.418
74.42000 2.130
74.44000 -1.316
74.46000 -1.492
74.48000 -0.042
74.50000 1.586
74.52000 1.842
74.54000 2.025
74.56000 -1.822
74.58000 -1.271
74.60000 -0.899
74.62000 -0.524
74.64000 -0.213
74.66000 3.365
74.68000 6.801
74.70000 2.387
74.72000 1.496
74.74000 -0.866
74.76000 -0.382
74.78000 1.160
74.80000 0.467
74.82000 -0.741
74.84000 -1.134
74.86000 -0.981
74.88000 3.374
74.90000 3.123
74.92000 0.379
74.94000 -0.113
74.96000 0.438
74.98000 -1.740
75.00000 0.797
75.02000 0.748
75.04000 1.280
75.06000 1.510
75.08000 -0.863
75.10000 -1.807
75.12000 1.289
75.14000 -0.170
75.16000 -0.295
75.18000 1.319
75.20000 2.077
75.22000 2.038
75.24000 2.043
75.26000 0.883
75.28000 -0.206
75.30000 -0.340
75.32000 -1.090
75.34000 -0.538
75.36000 -1.798
75.38000 0.773
75.40000 1.543
75.42000 2.045
75.44000 -1.187
75.46000 -0.507
75.48000 0.908
75.50000 -1.103
75.52000 -1.839
75.54000 -1.420
75.56000 0.833
75.58000 0.533
75.60000 0.312
75.62000 3.209
75.64000 1.417
75.66000 1.769
75.68000 0.281
75.70000 -0.232
75.72000 1.850
75.74000 0.715
75.76000 -0.639
75.78000 0.047
75.80000 -0.434
75.82000 1.316
75.84000 0.306
75.86000 0.266
75.88000 0.906
75.90000 2.098
75.92000 2.895
75.94000 3.026
75.96000 1.413
75.98000 1.067
76.00000 -0.211
76.02000 0.945
76.04000 2.271
76.06000 0.989
76.08000 -0.619
76.10000 -0.471
76.12000 -0.903
76.14000 -0.324
76.16000 0.069
76.18000 0.798
76.20000 3.461
76.22000 2.772
76.24000 1.293
76.26000 -0.273
76.28000 -0.358
76.30000 -0.169
76.32000 -1.024
76.34000 -0.061
76.36000 1.671
76.38000 1.564
76.40000 1.410
76.42000 1.991
76.44000 2.862
76.46000 2.753
76.48000 0.794
76.50000 -1.828
76.52000 -1.626
76.54000 1.955
76.56000 0.153
76.58000 0.628
76.60000 2.778
76.62000 2.414
76.64000 3.085
76.66000 0.105
76.68000 -0.824
76.70000 -1.101
76.72000 0.431
76.74000 -0.479
76.76000 -0.258
76.78000 -1.042
76.80000 0.209
76.82000 1.000
76.84000 -0.621
76.86000 0.104
76.88000 1.331
76.90000 -0.307
76.92000 2.077
76.94000 -0.192
76.96000 -1.837
76.98000 -1.233
77.00000 0.772
77.02000 1.112
77.04000 2.227
77.06000 4.557
77.08000 2.744
77.10000 -0.112
77.12000 -1.837
77.14000 0.729
77.16000 4.681
77.18000 4.288
77.20000 2.769
77.22000 2.995
77.24000 3.698
77.26000 2.430
77.28000 -0.779
77.30000 -1.421
77.32000 1.984
77.34000 1.575
77.36000 0.548
77.38000 1.265
77.40000 -1.330
77.42000 -0.884
77.44000 -0.397
77.46000 0.999
77.48000 3.863
77.50000 4.057
77.52000 0.828
77.54000 1.441
77.56000 -0.259
77.58000 0.808
77.60000 1.452
77.62000 3.273
77.64000 4.226
77.66000 4.484
77.68000 -0.542
77.70000 -1.838
77.72000 -1.050
77.74000 2.497
77.76000 1.690
77.78000 1.836
77.80000 1.634
77.82000 -0.928
77.84000 -1.771
77.86000 1.005
77.88000 0.830
77.90000 0.778
77.92000 2.070
77.94000 1.404
77.96000 1.115
77.98000 -0.484
78.00000 0.210
78.02000 2.418
78.04000 1.316
78.06000 -0.231
78.08000 0.817
78.10000 0.639
78.12000 1.519
78.14000 3.847
78.16000 0.292
78.18000 0.236
78.20000 1.605
78.22000 3.517
78.24000 5.543
78.26000 2.710
78.28000 -0.827
78.30000 -1.847
78.32000 -1.275
78.34000 0.947
78.36000 -0.363
78.38000 0.644
78.40000 2.488
78.42000 0.231
78.44000 1.542
78.46000 -0.774
78.48000 0.649
78.50000 2.697
78.52000 3.256
78.54000 3.671
78.56000 2.585
78.58000 0.351
78.60000 -0.438
78.62000 0.227
78.64000 -1.854
78.66000 -1.699
78.68000 -1.355
78.70000 -0.203
78.72000 2.007
78.74000 1.740
78.76000 3.615
78.78000 3.438
78.80000 -0.201
78.82000 1.846
78.84000 3.290
78.86000 1.408
78.88000 1.263
78.90000 0.125
78.92000 0.883
78.94000 2.327
78.96000 0.763
78.98000 0.828
79.00000 2.481
79.02000 4.093
79.04000 6.064
79.06000 1.653
79.08000 0.043
79.10000 -0.762
79.12000 0.134
79.14000 0.071
79.16000 1.612
79.18000 3.700
79.20000 5.579
79.22000 1.121
79.24000 3.105
79.26000 -0.145
79.28000 -1.847
79.30000 -1.399
79.32000 1.934
79.34000 2.247
79.36000 0.770
79.38000 3.865
79.40000 4.176
79.42000 0.670
79.44000 1.475
79.46000 1.324
79.48000 1.414
79.50000 0.555
79.52000 0.630
79.54000 1.537
79.56000 -0.866
79.58000 0.482
79.60000 3.044
79.62000 3.984
79.64000 3.379
79.66000 1.971
79.68000 2.488
79.70000 2.599
79.72000 2.342
79.74000 2.917
79.76000 2.275
79.78000 3.979
79.80000 1.884
79.82000 0.841
79.84000 1.552
79.86000 4.534
79.88000 5.712
79.90000 5.402
79.92000 6.436
79.94000 4.568
79.96000 2.144
79.98000 3.090
80.00000 4.958
80.02000 4.638
80.04000 4.978
80.06000 4.337
80.08000 0.230
80.10000 1.327
80.12000 0.272
80.14000 -1.821
80.16000 2.008
80.18000 3.884
80.20000 5.061
80.22000 4.211
80.24000 3.903
80.26000 5.023
80.28000 5.758
80.30000 2.727
80.32000 -0.691
80.34000 4.680
80.36000 3.935
80.38000 4.183
80.40000 2.248
80.42000 -0.559
80.44000 2.654
80.46000 3.200
80.48000 1.786
80.50000 0.276
80.52000 0.879
80.54000 2.069
80.56000 0.853
80.58000 2.184
80.60000 3.073
80.62000 0.615
80.64000 0.302
80.66000 1.371
80.68000 3.196
80.70000 2.451
80.72000 2.580
80.74000 1.150
80.76000 1.526
80.78000 2.105
80.80000 3.114
80.82000 1.559
80.84000 0.575
80.86000 0.826
80.88000 1.063
80.90000 2.126
80.92000 3.416
80.94000 1.506
80.96000 2.186
80.98000 -0.103
81.00000 3.906
81.02000 3.597
81.04000 3.094
81.06000 0.366
81.08000 -0.534
81.10000 1.896
81.12000 3.744
81.14000 5.061
81.16000 2.958
81.18000 1.697
81.20000 4.926
81.22000 3.027
81.24000 2.130
81.26000 0.271
81.28000 1.223
81.30000 1.246
81.32000 0.663
81.34000 -1.958
81.36000 -1.227
81.38000 0.309
81.40000 1.517
81.42000 2.104
81.44000 5.916
81.46000 2.726
81.48000 4.705
81.50000 3.829
81.52000 3.895
81.54000 1.236
81.56000 -1.993
81.58000 -0.337
81.60000 0.660
81.62000 0.555
81.64000 -1.446
81.66000 -0.083
81.68000 -0.208
81.70000 -1.067
81.72000 1.865
81.74000 1.734
81.76000 0.610
81.78000 -0.050
81.80000 2.539
81.82000 3.628
81.84000 4.845
81.86000 5.318
81.88000 3.439
81.90000 3.491
81.92000 2.285
81.94000 2.268
81.96000 5.872
81.98000 4.373
82.00000 2.290
82.02000 1.824
82.04000 3.657
82.06000 3.981
82.08000 4.862
82.10000 7.069
82.12000 7.903
82.14000 7.141
82.16000 5.912
82.18000 7.940
82.20000 8.962
82.22000 6.635
82.24000 8.943
82.26000 10.655
82.28000 12.154
82.30000 15.728
82.32000 16.190
82.34000 15.667
82.36000 13.305
82.38000 16.651
82.40000 16.119
82.42000 11.366
82.44000 12.507
82.46000 18.820
82.48000 20.508
82.50000 19.866
82.52000 18.733
82.54000 19.938
82.56000 19.005
82.58000 21.725
82.60000 24.696
82.62000 25.055
82.64000 30.964
82.66000 31.301
82.68000 31.641
82.70000 30.925
82.72000 32.934
82.74000 32.720
82.76000 34.581
82.78000 33.433
82.80000 36.121
82.82000 40.183
82.84000 43.044
82.86000 42.792
82.88000 41.244
82.90000 42.957
82.92000 43.303
82.94000 45.615
82.96000 49.957
82.98000 52.537
83.00000 53.954
83.02000 52.210
83.04000 53.444
83.06000 50.815
83.08000 51.272
83.10000 49.668
83.12000 52.305
83.14000 52.604
83.16000 53.052
83.18000 51.631
83.20000 51.173
83.22000 48.197
83.24000 46.761
83.26000 51.683
83.28000 51.332
83.30000 48.836
83.32000 50.021
83.34000 53.681
83.36000 46.741
83.38000 42.815
83.40000 37.930
83.42000 36.568
83.44000 37.851
83.46000 37.244
83.48000 38.410
83.50000 36.965
83.52000 39.303
83.54000 36.504
83.56000 36.057
83.58000 35.146
83.60000 32.230
83.62000 27.245
83.64000 27.784
83.66000 27.719
83.68000 28.902
83.70000 27.247
83.72000 24.869
83.74000 23.925
83.76000 22.345
83.78000 25.755
83.80000 26.270
83.82000 22.435
83.84000 18.337
83.86000 17.402
83.88000 16.673
83.90000 16.276
83.92000 15.546
83.94000 13.538
83.96000 13.849
83.98000 11.126
84.00000 11.721
84.02000 9.193
84.04000 8.262
84.06000 6.782
84.08000 8.833
84.10000 7.884
84.12000 8.598
84.14000 8.096
84.16000 8.310
84.18000 8.604
84.20000 7.906
84.22000 5.460
84.24000 5.079
84.26000 4.026
84.28000 3.766
84.30000 5.233
84.32000 4.485
84.34000 2.402
84.36000 4.511
84.38000 2.690
84.40000 3.278
84.42000 1.073
84.44000 0.668
84.46000 3.962
84.48000 5.107
84.50000 4.147
84.52000 2.579
84.54000 -0.141
84.56000 0.511
84.58000 1.332
84.60000 3.693
84.62000 2.440
84.64000 0.575
84.66000 2.056
84.68000 -0.070
84.70000 0.377
84.72000 4.786
84.74000 4.429
84.76000 2.291
84.78000 2.520
84.80000 2.291
84.82000 1.627
84.84000 -0.622
84.86000 -2.001
84.88000 0.003
84.90000 0.529
84.92000 3.011
84.94000 4.492
84.96000 4.085
84.98000 2.202
85.00000 1.492
85.02000 1.814
85.04000 0.385
85.06000 0.579
85.08000 0.270
85.10000 -1.975
85.12000 0.522
85.14000 -0.620
85.16000 -1.784
85.18000 3.820
85.20000 2.505
85.22000 -1.124
85.24000 -0.503
85.26000 1.104
85.28000 0.584
85.30000 1.200
85.32000 -1.952
85.34000 -1.722
85.36000 0.976
85.38000 3.446
85.40000 1.819
85.42000 1.026
85.44000 -0.842
85.46000 0.648
85.48000 3.225
85.50000 3.024
85.52000 1.657
85.54000 -0.841
85.56000 -0.368
85.58000 1.868
85.60000 0.373
85.62000 1.510
85.64000 -0.009
85.66000 -1.941
85.68000 -0.575
85.70000 0.561
85.72000 0.423
85.74000 -0.165
85.76000 2.603
85.78000 1.225
85.80000 -0.648
85.82000 -1.242
85.84000 -0.081
85.86000 2.360
85.88000 0.695
85.90000 -0.599
85.92000 0.857
85.94000 1.643
85.96000 1.547
85.98000 2.225
86.00000 -1.337
86.02000 -1.934
86.04000 0.298
86.06000 -1.093
86.08000 0.322
86.10000 -0.417
86.12000 -1.540
86.14000 -0.303
86.16000 0.469
86.18000 2.138
86.20000 1.842
86.22000 2.418
86.24000 3.902
86.26000 2.122
86.28000 -1.950
86.30000 1.916
86.32000 2.269
86.34000 1.318
86.36000 1.194
86.38000 2.600
86.40000 2.606
86.42000 2.923
86.44000 0.339
86.46000 3.427
86.48000 2.661
86.50000 3.378
86.52000 4.450
86.54000 7.533
86.56000 5.817
86.58000 4.786
86.60000 5.665
86.62000 5.386
86.64000 5.642
86.66000 3.486
86.68000 4.806
86.70000 5.242
86.72000 7.396
86.74000 9.679
86.76000 7.059
86.78000 4.662
86.80000 3.701
86.82000 3.926
86.84000 6.603
86.86000 10.605
86.88000 8.017
86.90000 8.042
86.92000 9.848
86.94000 8.399
86.96000 13.061
86.98000 11.548
87.00000 10.669
87.02000 12.711
87.04000 16.072
87.06000 11.705
87.08000 13.076
87.10000 11.474
87.12000 13.655
87.14000 14.402
87.16000 12.224
87.18000 16.466
87.20000 19.975
87.22000 23.209
87.24000 25.687
87.26000 26.248
87.28000 26.266
87.30000 21.102
87.32000 20.309
87.34000 23.004
87.36000 24.897
87.38000 26.170
87.40000 27.914
87.42000 26.630
87.44000 27.849
87.46000 30.111
87.48000 27.833
87.50000 32.107
87.52000 30.259
87.54000 27.286
87.56000 26.543
87.58000 27.982
87.60000 30.540
87.62000 31.714
87.64000 31.443
87.66000 28.331
87.68000 31.633
87.70000 29.705
87.72000 27.335
87.74000 26.175
87.76000 25.731
87.78000 27.275
87.80000 27.144
87.82000 27.102
87.84000 27.820
87.86000 27.802
87.88000 27.194
87.90000 27.859
87.92000 22.856
87.94000 22.779
87.96000 22.423
87.98000 16.839
88.00000 20.541
88.02000 23.087
88.04000 19.539
88.06000 15.296
88.08000 18.782
88.10000 16.778
88.12000 14.047
88.14000 13.044
88.16000 12.107
88.18000 15.298
88.20000 10.969
88.22000 12.190
88.24000 13.461
88.26000 12.014
88.28000 12.088
88.30000 10.116
88.32000 10.372
88.34000 11.114
88.36000 7.651
88.38000 6.232
88.40000 8.073
88.42000 5.063
88.44000 3.725
88.46000 7.129
88.48000 7.574
88.50000 5.674
88.52000 4.472
88.54000 5.523
88.56000 5.021
88.58000 4.852
88.60000 2.701
88.62000 -0.113
88.64000 2.316
88.66000 4.823
88.68000 3.193
88.70000 3.584
88.72000 1.414
88.74000 -1.940
88.76000 2.309
88.78000 1.754
88.80000 2.281
88.82000 0.128
88.84000 -1.472
88.86000 -1.908
88.88000 0.128
88.90000 -0.146
88.92000 1.262
88.94000 3.903
88.96000 2.457
88.98000 -1.045
89.00000 0.159
89.02000 1.678
89.04000 4.365
89.06000 5.914
89.08000 5.573
89.10000 2.472
89.12000 -0.394
89.14000 -0.402
89.16000 1.886
89.18000 1.494
89.20000 2.263
89.22000 2.264
89.24000 1.313
89.26000 -1.655
89.28000 -0.710
89.30000 1.843
89.32000 -1.841
89.34000 -1.473
89.36000 2.580
89.38000 3.992
89.40000 1.582
89.42000 -0.456
89.44000 -0.088
89.46000 -1.591
89.48000 -0.693
89.50000 -0.286
89.52000 -0.177
89.54000 1.838
89.56000 0.908
89.58000 3.679
89.60000 1.295
89.62000 1.972
89.64000 1.701
89.66000 1.860
89.68000 3.752
89.70000 3.530
89.72000 3.709
89.74000 2.957
89.76000 2.285
89.78000 6.061
89.80000 2.870
89.82000 1.593
89.84000 0.108
89.86000 -1.742
89.88000 0.845
89.90000 2.407
89.92000 2.023
89.94000 3.612
89.96000 3.224
89.98000 4.405
90.00000 4.648
90.02000 2.716
90.04000 3.556
90.06000 4.735
90.08000 2.796
90.10000 4.730
90.12000 5.435
90.14000 0.175
90.16000 1.702
90.18000 -0.775
90.20000 1.973
90.22000 3.871
90.24000 0.162
90.26000 -1.737
90.28000 2.093
90.30000 3.346
90.32000 0.861
90.34000 1.065
90.36000 2.015
90.38000 2.951
90.40000 -0.545
90.42000 0.871
90.44000 2.006
90.46000 4.748
90.48000 4.891
90.50000 0.716
90.52000 1.861
90.54000 0.466
90.56000 0.310
90.58000 -0.032
90.60000 1.871
90.62000 3.173
90.64000 2.585
90.66000 0.137
90.68000 -0.359
90.70000 0.721
90.72000 0.813
90.74000 0.115
90.76000 2.387
90.78000 0.659
90.80000 -1.242
90.82000 1.036
90.84000 3.411
90.86000 3.424
90.88000 2.856
90.90000 1.873
90.92000 2.516
90.94000 0.879
90.96000 0.503
90.98000 2.041
91.00000 4.123
91.02000 0.264
91.04000 -1.743
91.06000 0.454
91.08000 1.471
91.10000 3.302
91.12000 4.745
91.14000 2.116
91.16000 -1.738
91.18000 -0.964
91.20000 0.201
91.22000 1.272
91.24000 1.204
91.26000 1.504
91.28000 3.801
91.30000 5.292
91.32000 2.465
91.34000 0.728
91.36000 2.798
91.38000 7.167
91.40000 4.730
91.42000 -0.207
91.44000 0.825
91.46000 1.324
91.48000 0.295
91.50000 4.426
91.52000 5.775
91.54000 4.190
91.56000 2.078
91.58000 2.177
91.60000 1.348
91.62000 -1.701
91.64000 -0.676
91.66000 -0.345
91.68000 -1.137
91.70000 2.439
91.72000 5.686
91.74000 6.353
91.76000 3.417
91.78000 1.223
91.80000 0.424
91.82000 3.987
91.84000 2.982
91.86000 1.573
91.88000 0.367
91.90000 2.203
91.92000 2.765
91.94000 3.507
91.96000 -0.330
91.98000 0.941
92.00000 1.292
92.02000 1.058
92.04000 1.946
92.06000 4.218
92.08000 -0.035
92.10000 -0.804
92.12000 -1.485
92.14000 3.740
92.16000 3.909
92.18000 1.705
92.20000 2.754
92.22000 3.668
92.24000 4.820
92.26000 1.798
92.28000 0.297
92.30000 -0.389
92.32000 0.872
92.34000 -0.080
92.36000 1.340
92.38000 3.229
92.40000 2.204
92.42000 -1.026
92.44000 1.468
92.46000 0.110
92.48000 -0.235
92.50000 0.802
92.52000 0.614
92.54000 1.254
92.56000 0.947
92.58000 -0.003
92.60000 -1.146
92.62000 -0.300
92.64000 -0.447
92.66000 0.685
92.68000 2.690
92.70000 2.465
92.72000 -0.305
92.74000 -1.231
92.76000 -1.191
92.78000 0.817
92.80000 3.187
92.82000 1.537
92.84000 1.426
92.86000 2.402
92.88000 2.522
92.90000 -0.622
92.92000 3.387
92.94000 3.529
92.96000 1.054
92.98000 -0.944
93.00000 -0.536
93.02000 3.178
93.04000 3.554
93.06000 0.142
93.08000 2.920
93.10000 2.882
93.12000 0.035
93.14000 -0.827
93.16000 -0.779
93.18000 0.544
93.20000 1.898
93.22000 2.665
93.24000 -0.616
93.26000 -1.750
93.28000 2.049
93.30000 2.342
93.32000 2.079
93.34000 0.805
93.36000 0.002
93.38000 2.822
93.40000 3.897
93.42000 4.421
93.44000 2.734
93.46000 0.691
93.48000 -0.861
93.50000 0.220
93.52000 0.108
93.54000 2.138
93.56000 3.159
93.58000 0.756
93.60000 0.557
93.62000 2.699
93.64000 -0.976
93.66000 0.357
93.68000 3.867
93.70000 4.102
93.72000 3.421
93.74000 0.336
93.76000 0.783
93.78000 2.064
93.80000 1.802
93.82000 3.538
93.84000 2.202
93.86000 2.742
93.88000 -0.066
93.90000 -1.717
93.92000 1.692
93.94000 5.507
93.96000 5.104
93.98000 2.977
94.00000 -0.505
94.02000 1.292
94.04000 3.170
94.06000 4.536
94.08000 1.421
94.10000 2.241
94.12000 0.576
94.14000 2.678
94.16000 3.659
94.18000 4.129
94.20000 6.272
94.22000 3.638
94.24000 3.261
94.26000 5.898
94.28000 3.765
94.30000 -1.731
94.32000 0.830
94.34000 3.946
94.36000 2.614
94.38000 3.297
94.40000 1.255
94.42000 1.167
94.44000 -0.651
94.46000 1.316
94.48000 3.532
94.50000 3.836
94.52000 2.360
94.54000 2.065
94.56000 0.672
94.58000 2.335
94.60000 2.613
94.62000 0.776
94.64000 2.354
94.66000 1.161
94.68000 -0.910
94.70000 0.925
94.72000 2.651
94.74000 2.856
94.76000 3.589
94.78000 3.190
94.80000 -0.696
94.82000 -0.174
94.84000 5.275
94.86000 6.676
94.88000 1.284
94.90000 1.146
94.92000 0.701
94.94000 0.018
94.96000 2.092
94.98000 2.015
95.00000 1.268
95.02000 2.512
95.04000 3.479
95.06000 1.707
95.08000 0.467
95.10000 -1.057
95.12000 0.460
95.14000 3.360
95.16000 3.317
95.18000 1.705
95.20000 -1.733
95.22000 1.508
95.24000 2.201
95.26000 3.152
95.28000 -0.396
95.30000 -0.045
95.32000 1.729
95.34000 3.927
95.36000 0.451
95.38000 -0.974
95.40000 2.242
95.42000 4.833
95.44000 4.508
95.46000 0.280
95.48000 1.625
95.50000 4.374
95.52000 4.747
95.54000 3.548
95.56000 3.600
95.58000 4.120
95.60000 0.438
95.62000 2.081
95.64000 0.709
95.66000 5.765
95.68000 5.384
95.70000 1.708
95.72000 1.325
95.74000 4.913
95.76000 5.166
95.78000 0.167
95.80000 -1.720
95.82000 2.040
95.84000 3.967
95.86000 4.425
95.88000 3.906
95.90000 2.169
95.92000 3.275
95.94000 2.429
95.96000 2.613
95.98000 4.670
96.00000 2.564
96.02000 3.076
96.04000 -0.130
96.06000 0.513
96.08000 4.031
96.10000 2.148
96.12000 4.180
96.14000 2.635
96.16000 4.049
96.18000 2.238
96.20000 1.508
96.22000 3.199
96.24000 3.523
96.26000 2.202
96.28000 1.507
96.30000 2.196
96.32000 1.060
96.34000 -1.221
96.36000 0.082
96.38000 2.584
96.40000 3.184
96.42000 4.557
96.44000 -0.164
96.46000 0.599
96.48000 0.231
96.50000 0.275
96.52000 3.785
96.54000 6.432
96.56000 4.142
96.58000 3.307
96.60000 1.045
96.62000 2.612
96.64000 2.226
96.66000 1.174
96.68000 2.410
96.70000 3.976
96.72000 -0.173
96.74000 1.475
96.76000 1.887
96.78000 4.851
96.80000 4.886
96.82000 0.246
96.84000 -1.724
96.86000 2.983
96.88000 0.786
96.90000 1.790
96.92000 2.155
96.94000 3.358
96.96000 1.805
96.98000 0.411
97.00000 3.722
97.02000 6.490
97.04000 4.440
97.06000 1.356
97.08000 6.117
97.10000 3.403
97.12000 2.149
97.14000 -0.004
97.16000 1.222
97.18000 0.475
97.20000 -1.260
97.22000 0.147
97.24000 0.912
97.26000 -1.715
97.28000 1.402
97.30000 2.467
97.32000 2.838
97.34000 1.666
97.36000 3.195
97.38000 8.531
97.40000 4.801
97.42000 -0.188
97.44000 1.876
97.46000 0.105
97.48000 -0.204
97.50000 -0.293
97.52000 2.514
97.54000 3.280
97.56000 2.618
97.58000 2.428
97.60000 4.965
97.62000 6.055
97.64000 1.722
97.66000 0.622
97.68000 3.021
97.70000 4.950
97.72000 2.581
97.74000 3.271
97.76000 3.070
97.78000 0.370
97.80000 2.544
97.82000 1.847
97.84000 2.411
97.86000 3.173
97.88000 4.083
97.90000 5.054
97.92000 4.049
97.94000 3.024
97.96000 3.371
97.98000 -0.178
98.00000 0.954
98.02000 4.075
98.04000 -0.882
98.06000 -0.032
98.08000 0.573
98.10000 -0.116
98.12000 -0.729
98.14000 2.148
98.16000 5.981
98.18000 6.645
98.20000 1.327
98.22000 6.244
98.24000 5.346
98.26000 5.441
98.28000 1.305
98.30000 -0.168
98.32000 2.057
98.34000 3.120
98.36000 2.887
98.38000 -0.300
98.40000 2.311
98.42000 6.598
98.44000 3.672
98.46000 2.588
98.48000 3.130
98.50000 3.034
98.52000 1.483
98.54000 1.972
98.56000 3.155
98.58000 -0.259
98.60000 0.330
98.62000 3.246
98.64000 6.167
98.66000 7.590
98.68000 5.122
98.70000 3.919
98.72000 0.027
98.74000 -1.665
98.76000 0.641
98.78000 4.364
98.80000 2.051
98.82000 4.652
98.84000 5.301
98.86000 2.092
98.88000 4.055
98.90000 4.440
98.92000 5.164
98.94000 2.889
98.96000 8.124
98.98000 5.798
99.00000 5.232
99.02000 7.039
99.04000 6.462
99.06000 8.760
99.08000 6.157
99.10000 4.630
99.12000 5.205
99.14000 9.688
99.16000 4.654
99.18000 4.003
99.20000 4.683
99.22000 11.527
99.24000 6.149
99.26000 7.380
99.28000 6.710
99.30000 11.412
99.32000 10.969
99.34000 12.711
99.36000 7.833
99.38000 4.312
99.40000 10.680
99.42000 11.039
99.44000 8.130
99.46000 8.618
99.48000 7.192
99.50000 10.439
99.52000 10.665
99.54000 6.357
99.56000 3.638
99.58000 -1.795
99.60000 4.194
99.62000 4.120
99.64000 5.444
99.66000 5.854
99.68000 3.469
99.70000 3.187
99.72000 3.270
99.74000 2.810
99.76000 8.877
99.78000 10.700
99.80000 5.281
99.82000 4.924
99.84000 2.261
99.86000 -0.151
99.88000 7.077
99.90000 4.570
99.92000 0.332
99.94000 3.638
99.96000 7.037
99.98000 0.000
