'Id: "0011389" Comment: "Integrate frame 0011389_Au-Ir-Rh_Au-Rich_XRD_Mapping-042-0000.gfrmwith cursor Wedge Cursor #5" Operator: "B?rgel" Anode: "Cu" Wavelength: "1.5406" Scantype: "2Theta (TwoTheta)" TimePerStep: "1" X: "-22.5" Y: "-27" Z: "5.95" 
10.00000 0.000
10.02000 0.506
10.04000 1.415
10.06000 -4.403
10.08000 0.307
10.10000 22.214
10.12000 6.399
10.14000 6.963
10.16000 4.217
10.18000 11.744
10.20000 10.698
10.22000 29.818
10.24000 31.314
10.26000 22.489
10.28000 26.645
10.30000 17.636
10.32000 20.418
10.34000 18.009
10.36000 11.088
10.38000 13.004
10.40000 16.032
10.42000 15.985
10.44000 -0.900
10.46000 12.694
10.48000 17.879
10.50000 8.127
10.52000 7.887
10.54000 8.441
10.56000 12.506
10.58000 20.009
10.60000 7.460
10.62000 10.613
10.64000 21.286
10.66000 19.535
10.68000 21.407
10.70000 20.026
10.72000 24.868
10.74000 23.119
10.76000 26.879
10.78000 18.783
10.80000 11.175
10.82000 13.077
10.84000 4.618
10.86000 10.263
10.88000 10.396
10.90000 25.299
10.92000 35.870
10.94000 28.395
10.96000 18.934
10.98000 23.977
11.00000 19.515
11.02000 11.258
11.04000 14.293
11.06000 8.136
11.08000 17.183
11.10000 20.209
11.12000 19.172
11.14000 1.669
11.16000 14.897
11.18000 25.755
11.20000 3.029
11.22000 -4.425
11.24000 8.444
11.26000 12.590
11.28000 14.147
11.30000 18.504
11.32000 23.310
11.34000 16.033
11.36000 15.801
11.38000 9.519
11.40000 19.647
11.42000 16.369
11.44000 5.819
11.46000 6.843
11.48000 9.854
11.50000 12.508
11.52000 5.308
11.54000 5.767
11.56000 10.437
11.58000 21.704
11.60000 18.988
11.62000 15.094
11.64000 13.941
11.66000 11.325
11.68000 1.616
11.70000 3.918
11.72000 12.772
11.74000 20.918
11.76000 16.459
11.78000 16.688
11.80000 5.501
11.82000 6.682
11.84000 7.111
11.86000 8.753
11.88000 5.294
11.90000 1.562
11.92000 8.303
11.94000 8.558
11.96000 7.623
11.98000 7.869
12.00000 1.538
12.02000 3.470
12.04000 2.201
12.06000 0.589
12.08000 -0.293
12.10000 0.064
12.12000 6.772
12.14000 6.424
12.16000 12.164
12.18000 24.696
12.20000 14.904
12.22000 11.166
12.24000 10.065
12.26000 17.199
12.28000 6.870
12.30000 15.269
12.32000 15.462
12.34000 6.701
12.36000 9.323
12.38000 3.905
12.40000 3.916
12.42000 8.797
12.44000 18.593
12.46000 -0.299
12.48000 -2.430
12.50000 9.563
12.52000 4.112
12.54000 7.725
12.56000 9.551
12.58000 15.577
12.60000 16.204
12.62000 16.434
12.64000 14.690
12.66000 15.084
12.68000 7.597
12.70000 1.601
12.72000 -0.502
12.74000 16.340
12.76000 23.852
12.78000 15.516
12.80000 8.685
12.82000 3.928
12.84000 9.758
12.86000 11.714
12.88000 5.093
12.90000 3.442
12.92000 4.437
12.94000 9.009
12.96000 10.156
12.98000 12.653
13.00000 3.700
13.02000 3.026
13.04000 1.731
13.06000 9.905
13.08000 4.232
13.10000 1.966
13.12000 0.330
13.14000 -0.046
13.16000 -2.459
13.18000 5.207
13.20000 0.472
13.22000 10.412
13.24000 11.291
13.26000 9.152
13.28000 4.651
13.30000 6.423
13.32000 0.447
13.34000 -1.174
13.36000 2.365
13.38000 8.826
13.40000 15.400
13.42000 11.975
13.44000 -4.504
13.46000 0.222
13.48000 8.178
13.50000 10.846
13.52000 5.705
13.54000 5.549
13.56000 7.954
13.58000 -1.315
13.60000 2.188
13.62000 5.946
13.64000 2.876
13.66000 -2.012
13.68000 5.320
13.70000 6.098
13.72000 2.685
13.74000 3.578
13.76000 3.697
13.78000 8.040
13.80000 6.760
13.82000 13.053
13.84000 17.501
13.86000 15.639
13.88000 -3.136
13.90000 -0.678
13.92000 4.590
13.94000 -0.973
13.96000 -0.375
13.98000 2.652
14.00000 6.224
14.02000 13.092
14.04000 3.632
14.06000 -2.937
14.08000 2.198
14.10000 7.341
14.12000 8.494
14.14000 6.499
14.16000 4.481
14.18000 10.332
14.20000 14.144
14.22000 3.202
14.24000 2.158
14.26000 11.942
14.28000 4.885
14.30000 8.033
14.32000 4.540
14.34000 -0.065
14.36000 -2.949
14.38000 8.938
14.40000 14.052
14.42000 11.213
14.44000 9.369
14.46000 12.562
14.48000 8.882
14.50000 10.826
14.52000 10.437
14.54000 2.865
14.56000 2.052
14.58000 6.446
14.60000 16.176
14.62000 18.074
14.64000 9.115
14.66000 8.136
14.68000 11.944
14.70000 10.009
14.72000 9.100
14.74000 3.646
14.76000 7.697
14.78000 2.801
14.80000 3.533
14.82000 8.437
14.84000 3.863
14.86000 7.340
14.88000 5.095
14.90000 5.885
14.92000 8.775
14.94000 2.591
14.96000 0.555
14.98000 7.142
15.00000 7.756
15.02000 10.967
15.04000 8.221
15.06000 3.556
15.08000 3.720
15.10000 7.088
15.12000 14.247
15.14000 15.916
15.16000 8.921
15.18000 21.265
15.20000 10.536
15.22000 4.904
15.24000 3.633
15.26000 1.414
15.28000 5.717
15.30000 -0.240
15.32000 -4.424
15.34000 2.789
15.36000 -2.842
15.38000 -0.033
15.40000 4.904
15.42000 4.983
15.44000 12.029
15.46000 15.649
15.48000 18.747
15.50000 12.939
15.52000 12.904
15.54000 19.624
15.56000 8.017
15.58000 4.505
15.60000 9.599
15.62000 12.412
15.64000 -0.710
15.66000 -2.749
15.68000 6.989
15.70000 12.809
15.72000 11.068
15.74000 14.006
15.76000 14.147
15.78000 9.213
15.80000 12.717
15.82000 7.425
15.84000 4.428
15.86000 8.470
15.88000 7.014
15.90000 7.879
15.92000 6.473
15.94000 5.668
15.96000 9.871
15.98000 13.638
16.00000 15.440
16.02000 11.922
16.04000 13.217
16.06000 2.879
16.08000 3.783
16.10000 14.291
16.12000 10.872
16.14000 6.392
16.16000 5.779
16.18000 10.645
16.20000 15.413
16.22000 13.256
16.24000 6.272
16.26000 12.411
16.28000 20.190
16.30000 15.904
16.32000 12.202
16.34000 15.929
16.36000 17.529
16.38000 14.602
16.40000 14.047
16.42000 12.063
16.44000 5.360
16.46000 13.141
16.48000 14.982
16.50000 15.974
16.52000 17.027
16.54000 13.687
16.56000 17.362
16.58000 20.695
16.60000 5.990
16.62000 12.654
16.64000 13.603
16.66000 15.170
16.68000 14.180
16.70000 16.150
16.72000 19.813
16.74000 16.899
16.76000 17.446
16.78000 5.328
16.80000 3.095
16.82000 7.890
16.84000 16.325
16.86000 15.935
16.88000 7.531
16.90000 12.138
16.92000 18.060
16.94000 7.368
16.96000 -4.274
16.98000 2.282
17.00000 11.602
17.02000 12.719
17.04000 21.474
17.06000 17.016
17.08000 12.995
17.10000 16.071
17.12000 24.035
17.14000 15.328
17.16000 11.492
17.18000 11.284
17.20000 15.216
17.22000 23.814
17.24000 26.135
17.26000 13.528
17.28000 12.604
17.30000 12.671
17.32000 10.624
17.34000 6.880
17.36000 13.535
17.38000 16.536
17.40000 14.125
17.42000 17.520
17.44000 16.774
17.46000 22.413
17.48000 18.212
17.50000 16.350
17.52000 18.016
17.54000 14.220
17.56000 7.825
17.58000 11.042
17.60000 16.921
17.62000 13.847
17.64000 7.810
17.66000 9.567
17.68000 12.844
17.70000 13.294
17.72000 7.966
17.74000 12.584
17.76000 11.755
17.78000 5.420
17.80000 -0.713
17.82000 5.276
17.84000 12.336
17.86000 10.857
17.88000 9.427
17.90000 10.083
17.92000 14.492
17.94000 9.004
17.96000 5.169
17.98000 8.282
18.00000 8.392
18.02000 9.794
18.04000 12.036
18.06000 11.028
18.08000 6.820
18.10000 5.833
18.12000 11.413
18.14000 10.865
18.16000 14.699
18.18000 13.981
18.20000 9.302
18.22000 13.792
18.24000 10.805
18.26000 6.457
18.28000 6.685
18.30000 18.516
18.32000 15.912
18.34000 12.153
18.36000 8.110
18.38000 6.881
18.40000 1.984
18.42000 5.062
18.44000 12.854
18.46000 6.661
18.48000 6.520
18.50000 8.114
18.52000 3.926
18.54000 3.892
18.56000 3.490
18.58000 4.499
18.60000 8.208
18.62000 11.900
18.64000 7.705
18.66000 5.898
18.68000 7.119
18.70000 14.870
18.72000 11.878
18.74000 19.703
18.76000 14.753
18.78000 7.786
18.80000 6.970
18.82000 4.665
18.84000 0.935
18.86000 -1.225
18.88000 4.619
18.90000 -1.660
18.92000 -2.423
18.94000 3.933
18.96000 -4.246
18.98000 1.198
19.00000 6.479
19.02000 8.226
19.04000 9.503
19.06000 10.272
19.08000 3.584
19.10000 1.658
19.12000 7.386
19.14000 4.967
19.16000 7.686
19.18000 7.214
19.20000 0.259
19.22000 2.706
19.24000 5.825
19.26000 6.032
19.28000 16.280
19.30000 15.433
19.32000 8.601
19.34000 12.263
19.36000 12.368
19.38000 14.719
19.40000 9.606
19.42000 7.009
19.44000 8.149
19.46000 11.228
19.48000 13.269
19.50000 18.954
19.52000 12.130
19.54000 2.381
19.56000 5.544
19.58000 0.369
19.60000 -1.624
19.62000 2.634
19.64000 5.896
19.66000 8.509
19.68000 5.655
19.70000 5.364
19.72000 12.901
19.74000 6.561
19.76000 5.915
19.78000 6.633
19.80000 8.512
19.82000 1.386
19.84000 -3.060
19.86000 -2.816
19.88000 6.240
19.90000 4.727
19.92000 4.675
19.94000 0.365
19.96000 5.651
19.98000 11.610
20.00000 6.787
20.02000 10.808
20.04000 10.058
20.06000 7.454
20.08000 7.408
20.10000 10.549
20.12000 2.207
20.14000 4.533
20.16000 9.145
20.18000 10.528
20.20000 8.330
20.22000 8.059
20.24000 6.688
20.26000 2.277
20.28000 1.748
20.30000 2.955
20.32000 5.915
20.34000 3.963
20.36000 -2.318
20.38000 -4.152
20.40000 2.295
20.42000 2.854
20.44000 10.367
20.46000 6.809
20.48000 11.449
20.50000 13.901
20.52000 9.851
20.54000 8.973
20.56000 12.804
20.58000 14.452
20.60000 11.409
20.62000 8.605
20.64000 12.786
20.66000 10.281
20.68000 0.208
20.70000 -0.150
20.72000 4.139
20.74000 12.355
20.76000 9.472
20.78000 4.602
20.80000 -1.060
20.82000 2.251
20.84000 -2.015
20.86000 -1.326
20.88000 4.556
20.90000 2.900
20.92000 6.647
20.94000 13.690
20.96000 10.887
20.98000 8.327
21.00000 8.724
21.02000 4.583
21.04000 -0.701
21.06000 -4.105
21.08000 1.532
21.10000 5.718
21.12000 5.231
21.14000 7.921
21.16000 12.092
21.18000 8.514
21.20000 1.679
21.22000 0.205
21.24000 5.614
21.26000 10.389
21.28000 7.096
21.30000 10.727
21.32000 4.405
21.34000 5.114
21.36000 8.280
21.38000 7.349
21.40000 3.319
21.42000 3.441
21.44000 5.534
21.46000 7.611
21.48000 10.756
21.50000 8.332
21.52000 8.408
21.54000 1.642
21.56000 0.477
21.58000 6.915
21.60000 8.024
21.62000 11.679
21.64000 9.557
21.66000 3.013
21.68000 1.350
21.70000 6.561
21.72000 4.037
21.74000 5.366
21.76000 5.816
21.78000 4.852
21.80000 5.010
21.82000 1.643
21.84000 1.715
21.86000 11.834
21.88000 7.525
21.90000 1.031
21.92000 5.858
21.94000 4.263
21.96000 -0.162
21.98000 7.391
22.00000 7.366
22.02000 11.001
22.04000 1.079
22.06000 4.599
22.08000 4.413
22.10000 10.112
22.12000 8.585
22.14000 0.259
22.16000 2.769
22.18000 4.806
22.20000 8.142
22.22000 3.817
22.24000 3.686
22.26000 2.680
22.28000 0.745
22.30000 6.255
22.32000 6.455
22.34000 1.983
22.36000 6.397
22.38000 5.952
22.40000 6.962
22.42000 5.366
22.44000 0.820
22.46000 4.385
22.48000 3.270
22.50000 5.887
22.52000 6.544
22.54000 6.271
22.56000 8.389
22.58000 10.882
22.60000 6.923
22.62000 1.498
22.64000 2.349
22.66000 4.152
22.68000 7.678
22.70000 12.088
22.72000 6.398
22.74000 2.131
22.76000 6.142
22.78000 5.449
22.80000 0.346
22.82000 5.652
22.84000 4.631
22.86000 3.332
22.88000 3.055
22.90000 8.783
22.92000 8.969
22.94000 -3.712
22.96000 -4.010
22.98000 0.444
23.00000 3.699
23.02000 8.383
23.04000 6.166
23.06000 -1.539
23.08000 -3.998
23.10000 3.935
23.12000 10.737
23.14000 8.801
23.16000 10.474
23.18000 6.188
23.20000 4.806
23.22000 7.868
23.24000 1.583
23.26000 0.406
23.28000 0.759
23.30000 0.645
23.32000 5.294
23.34000 0.995
23.36000 1.262
23.38000 -0.234
23.40000 -0.127
23.42000 0.478
23.44000 5.542
23.46000 4.294
23.48000 5.004
23.50000 5.614
23.52000 10.817
23.54000 8.358
23.56000 5.140
23.58000 0.200
23.60000 5.231
23.62000 5.790
23.64000 8.226
23.66000 7.398
23.68000 3.020
23.70000 -3.545
23.72000 -2.469
23.74000 5.959
23.76000 6.863
23.78000 -1.960
23.80000 1.608
23.82000 8.443
23.84000 -0.161
23.86000 4.109
23.88000 4.594
23.90000 2.888
23.92000 -0.035
23.94000 -2.723
23.96000 3.579
23.98000 5.486
24.00000 8.568
24.02000 5.701
24.04000 0.832
24.06000 2.095
24.08000 2.881
24.10000 5.140
24.12000 -1.432
24.14000 3.546
24.16000 2.297
24.18000 1.947
24.20000 -0.649
24.22000 6.039
24.24000 3.042
24.26000 2.378
24.28000 -1.148
24.30000 1.972
24.32000 -3.353
24.34000 -2.257
24.36000 -1.795
24.38000 4.062
24.40000 5.139
24.42000 2.290
24.44000 5.037
24.46000 5.354
24.48000 1.667
24.50000 2.931
24.52000 3.187
24.54000 7.267
24.56000 8.752
24.58000 6.791
24.60000 7.415
24.62000 1.286
24.64000 -0.689
24.66000 -1.495
24.68000 0.226
24.70000 -1.267
24.72000 -3.948
24.74000 0.439
24.76000 -2.632
24.78000 -0.638
24.80000 -0.842
24.82000 -2.946
24.84000 -2.738
24.86000 0.838
24.88000 1.004
24.90000 -0.472
24.92000 2.909
24.94000 0.055
24.96000 -2.052
24.98000 5.048
25.00000 4.585
25.02000 0.096
25.04000 2.546
25.06000 6.475
25.08000 5.120
25.10000 7.175
25.12000 8.691
25.14000 3.448
25.16000 -3.920
25.18000 0.537
25.20000 2.346
25.22000 6.609
25.24000 11.249
25.26000 2.547
25.28000 1.636
25.30000 3.405
25.32000 0.035
25.34000 0.972
25.36000 6.640
25.38000 7.700
25.40000 5.178
25.42000 3.579
25.44000 0.684
25.46000 3.865
25.48000 4.835
25.50000 1.324
25.52000 0.112
25.54000 5.481
25.56000 1.772
25.58000 -0.305
25.60000 6.361
25.62000 13.054
25.64000 6.924
25.66000 1.708
25.68000 -0.390
25.70000 3.814
25.72000 3.100
25.74000 4.923
25.76000 4.520
25.78000 4.100
25.80000 4.261
25.82000 6.628
25.84000 5.633
25.86000 6.157
25.88000 6.978
25.90000 3.592
25.92000 3.511
25.94000 3.116
25.96000 4.728
25.98000 7.860
26.00000 2.265
26.02000 1.368
26.04000 -0.191
26.06000 -3.877
26.08000 4.466
26.10000 5.642
26.12000 1.887
26.14000 -0.396
26.16000 2.324
26.18000 1.993
26.20000 1.083
26.22000 -2.266
26.24000 1.068
26.26000 2.091
26.28000 3.142
26.30000 3.206
26.32000 1.970
26.34000 -0.219
26.36000 1.352
26.38000 2.901
26.40000 0.130
26.42000 2.797
26.44000 2.679
26.46000 -1.115
26.48000 -3.849
26.50000 1.666
26.52000 4.001
26.54000 1.645
26.56000 3.172
26.58000 4.236
26.60000 4.448
26.62000 1.843
26.64000 1.929
26.66000 4.424
26.68000 4.828
26.70000 4.621
26.72000 4.027
26.74000 1.878
26.76000 5.896
26.78000 2.942
26.80000 4.203
26.82000 3.995
26.84000 3.116
26.86000 3.352
26.88000 3.727
26.90000 6.159
26.92000 4.434
26.94000 4.114
26.96000 1.272
26.98000 -1.315
27.00000 0.393
27.02000 1.043
27.04000 2.815
27.06000 0.301
27.08000 1.078
27.10000 1.465
27.12000 0.358
27.14000 1.791
27.16000 -1.503
27.18000 1.404
27.20000 2.809
27.22000 6.139
27.24000 6.218
27.26000 2.908
27.28000 1.165
27.30000 2.061
27.32000 -1.744
27.34000 1.695
27.36000 3.028
27.38000 3.124
27.40000 -0.131
27.42000 2.846
27.44000 3.913
27.46000 3.893
27.48000 0.749
27.50000 0.624
27.52000 1.634
27.54000 0.048
27.56000 0.033
27.58000 2.032
27.60000 5.034
27.62000 8.343
27.64000 7.195
27.66000 7.036
27.68000 3.827
27.70000 0.411
27.72000 5.599
27.74000 0.327
27.76000 0.870
27.78000 5.518
27.80000 1.629
27.82000 1.529
27.84000 1.713
27.86000 4.797
27.88000 5.781
27.90000 3.401
27.92000 -1.600
27.94000 -1.210
27.96000 0.902
27.98000 2.681
28.00000 -0.987
28.02000 2.853
28.04000 4.864
28.06000 2.243
28.08000 5.548
28.10000 1.477
28.12000 -3.759
28.14000 1.312
28.16000 2.545
28.18000 3.585
28.20000 8.584
28.22000 2.454
28.24000 -0.109
28.26000 3.126
28.28000 2.783
28.30000 1.468
28.32000 2.997
28.34000 3.439
28.36000 0.395
28.38000 1.628
28.40000 -2.798
28.42000 -0.356
28.44000 -0.485
28.46000 -0.471
28.48000 4.651
28.50000 5.374
28.52000 1.119
28.54000 1.790
28.56000 0.465
28.58000 1.359
28.60000 -3.267
28.62000 -0.829
28.64000 -1.313
28.66000 -0.091
28.68000 7.013
28.70000 6.766
28.72000 4.313
28.74000 -1.533
28.76000 -2.883
28.78000 3.293
28.80000 3.013
28.82000 2.112
28.84000 6.647
28.86000 5.095
28.88000 4.620
28.90000 -0.848
28.92000 -0.935
28.94000 1.603
28.96000 1.036
28.98000 1.920
29.00000 2.234
29.02000 -1.765
29.04000 -1.081
29.06000 1.778
29.08000 2.428
29.10000 -0.615
29.12000 3.115
29.14000 4.458
29.16000 7.674
29.18000 4.546
29.20000 1.652
29.22000 4.478
29.24000 4.238
29.26000 2.419
29.28000 7.994
29.30000 9.343
29.32000 4.960
29.34000 9.061
29.36000 5.114
29.38000 3.128
29.40000 0.688
29.42000 -0.300
29.44000 -0.280
29.46000 -2.405
29.48000 3.444
29.50000 1.459
29.52000 3.081
29.54000 3.719
29.56000 1.137
29.58000 2.107
29.60000 2.382
29.62000 -3.688
29.64000 -1.223
29.66000 0.752
29.68000 2.624
29.70000 0.088
29.72000 0.023
29.74000 0.212
29.76000 2.993
29.78000 1.551
29.80000 0.437
29.82000 -1.341
29.84000 -2.150
29.86000 1.183
29.88000 -1.295
29.90000 -3.116
29.92000 -2.177
29.94000 0.570
29.96000 0.986
29.98000 -0.151
30.00000 3.184
30.02000 4.490
30.04000 0.774
30.06000 1.049
30.08000 4.847
30.10000 4.804
30.12000 2.342
30.14000 3.683
30.16000 5.582
30.18000 -0.801
30.20000 -3.513
30.22000 0.191
30.24000 4.514
30.26000 3.514
30.28000 1.322
30.30000 3.306
30.32000 0.664
30.34000 0.190
30.36000 6.181
30.38000 4.792
30.40000 -0.226
30.42000 4.330
30.44000 5.199
30.46000 4.113
30.48000 4.119
30.50000 -1.967
30.52000 -2.609
30.54000 -0.872
30.56000 0.580
30.58000 -0.374
30.60000 2.275
30.62000 8.883
30.64000 8.230
30.66000 5.459
30.68000 5.060
30.70000 1.133
30.72000 -0.984
30.74000 -3.646
30.76000 -2.908
30.78000 -0.885
30.80000 3.422
30.82000 7.400
30.84000 5.093
30.86000 0.631
30.88000 -0.254
30.90000 -0.277
30.92000 -0.487
30.94000 5.849
30.96000 5.846
30.98000 0.197
31.00000 -1.805
31.02000 1.583
31.04000 1.085
31.06000 0.907
31.08000 -1.375
31.10000 0.802
31.12000 3.676
31.14000 2.510
31.16000 -1.221
31.18000 -2.091
31.20000 -1.577
31.22000 -0.312
31.24000 -3.624
31.26000 -2.677
31.28000 -2.328
31.30000 -0.407
31.32000 -0.675
31.34000 6.393
31.36000 7.619
31.38000 3.454
31.40000 5.853
31.42000 4.976
31.44000 7.136
31.46000 5.530
31.48000 0.397
31.50000 1.860
31.52000 -0.727
31.54000 -1.190
31.56000 -0.024
31.58000 0.200
31.60000 5.599
31.62000 6.024
31.64000 2.769
31.66000 -0.072
31.68000 2.539
31.70000 -1.690
31.72000 -3.609
31.74000 1.290
31.76000 0.829
31.78000 3.126
31.80000 -0.648
31.82000 -0.531
31.84000 7.447
31.86000 2.283
31.88000 2.977
31.90000 3.127
31.92000 -1.394
31.94000 0.571
31.96000 -0.864
31.98000 -2.179
32.00000 -3.006
32.02000 0.950
32.04000 -1.289
32.06000 -1.265
32.08000 -2.646
32.10000 -2.255
32.12000 -2.695
32.14000 0.913
32.16000 3.025
32.18000 3.472
32.20000 -0.720
32.22000 2.823
32.24000 4.625
32.26000 2.015
32.28000 1.772
32.30000 5.212
32.32000 3.301
32.34000 3.223
32.36000 -0.089
32.38000 0.416
32.40000 2.859
32.42000 -2.977
32.44000 -3.156
32.46000 1.308
32.48000 -1.750
32.50000 -3.587
32.52000 5.385
32.54000 7.266
32.56000 -0.342
32.58000 -0.815
32.60000 -1.399
32.62000 5.041
32.64000 9.770
32.66000 3.698
32.68000 6.023
32.70000 10.323
32.72000 7.438
32.74000 4.637
32.76000 0.368
32.78000 1.442
32.80000 1.638
32.82000 0.386
32.84000 5.887
32.86000 5.622
32.88000 6.300
32.90000 3.053
32.92000 1.697
32.94000 0.860
32.96000 -1.950
32.98000 -0.796
33.00000 1.681
33.02000 -2.453
33.04000 -2.275
33.06000 0.470
33.08000 -0.240
33.10000 -0.365
33.12000 0.251
33.14000 -0.052
33.16000 6.178
33.18000 4.300
33.20000 3.681
33.22000 -0.404
33.24000 2.706
33.26000 -1.681
33.28000 2.875
33.30000 1.500
33.32000 -3.590
33.34000 -1.430
33.36000 -2.561
33.38000 3.963
33.40000 4.102
33.42000 -2.350
33.44000 1.044
33.46000 -1.524
33.48000 -0.941
33.50000 4.137
33.52000 4.429
33.54000 2.586
33.56000 3.342
33.58000 3.950
33.60000 0.354
33.62000 2.063
33.64000 -0.020
33.66000 4.813
33.68000 6.377
33.70000 5.455
33.72000 3.526
33.74000 7.035
33.76000 2.822
33.78000 -2.129
33.80000 0.904
33.82000 7.735
33.84000 7.001
33.86000 4.009
33.88000 5.242
33.90000 2.101
33.92000 5.635
33.94000 1.076
33.96000 1.512
33.98000 -0.362
34.00000 -2.349
34.02000 0.185
34.04000 2.000
34.06000 2.144
34.08000 3.515
34.10000 6.905
34.12000 3.013
34.14000 -0.820
34.16000 1.396
34.18000 1.188
34.20000 5.860
34.22000 5.191
34.24000 -0.775
34.26000 -3.526
34.28000 -2.840
34.30000 3.893
34.32000 0.355
34.34000 -3.578
34.36000 -0.045
34.38000 -1.448
34.40000 0.090
34.42000 -0.910
34.44000 -0.067
34.46000 0.104
34.48000 -3.263
34.50000 -1.852
34.52000 -1.695
34.54000 2.451
34.56000 1.726
34.58000 2.449
34.60000 -0.895
34.62000 -1.744
34.64000 -0.585
34.66000 -2.747
34.68000 2.146
34.70000 0.017
34.72000 -0.030
34.74000 1.589
34.76000 1.180
34.78000 1.767
34.80000 1.858
34.82000 1.187
34.84000 -3.115
34.86000 -3.553
34.88000 -0.686
34.90000 1.972
34.92000 6.642
34.94000 8.060
34.96000 5.036
34.98000 6.781
35.00000 2.258
35.02000 6.451
35.04000 3.307
35.06000 -1.374
35.08000 -0.112
35.10000 3.624
35.12000 6.478
35.14000 3.224
35.16000 -1.830
35.18000 -2.122
35.20000 -1.388
35.22000 2.902
35.24000 -2.027
35.26000 0.430
35.28000 -0.195
35.30000 2.406
35.32000 5.858
35.34000 -1.948
35.36000 -0.737
35.38000 0.577
35.40000 3.916
35.42000 5.109
35.44000 5.080
35.46000 -1.420
35.48000 -3.520
35.50000 4.380
35.52000 9.453
35.54000 7.304
35.56000 4.093
35.58000 -1.003
35.60000 4.924
35.62000 -0.105
35.64000 -3.517
35.66000 -0.526
35.68000 1.832
35.70000 -3.249
35.72000 -0.201
35.74000 2.241
35.76000 -0.796
35.78000 2.503
35.80000 4.760
35.82000 3.696
35.84000 -0.619
35.86000 -1.224
35.88000 1.160
35.90000 5.376
35.92000 4.886
35.94000 7.469
35.96000 6.469
35.98000 7.953
36.00000 1.020
36.02000 -3.540
36.04000 3.005
36.06000 7.417
36.08000 2.922
36.10000 -0.114
36.12000 1.228
36.14000 1.373
36.16000 0.366
36.18000 3.103
36.20000 1.833
36.22000 -1.366
36.24000 -2.569
36.26000 1.631
36.28000 0.258
36.30000 1.132
36.32000 1.050
36.34000 -1.646
36.36000 -0.489
36.38000 1.327
36.40000 0.044
36.42000 4.978
36.44000 -1.267
36.46000 2.350
36.48000 5.957
36.50000 6.507
36.52000 1.814
36.54000 2.773
36.56000 3.460
36.58000 6.132
36.60000 0.198
36.62000 -1.725
36.64000 3.181
36.66000 5.534
36.68000 6.596
36.70000 3.587
36.72000 1.499
36.74000 1.278
36.76000 2.600
36.78000 3.138
36.80000 3.303
36.82000 2.230
36.84000 1.152
36.86000 0.029
36.88000 -3.599
36.90000 -0.304
36.92000 3.154
36.94000 3.736
36.96000 4.822
36.98000 -1.122
37.00000 -1.286
37.02000 2.613
37.04000 7.204
37.06000 6.594
37.08000 10.241
37.10000 11.093
37.12000 3.510
37.14000 0.701
37.16000 3.535
37.18000 5.001
37.20000 3.362
37.22000 -1.731
37.24000 1.249
37.26000 6.463
37.28000 3.445
37.30000 3.649
37.32000 0.361
37.34000 6.084
37.36000 3.751
37.38000 0.001
37.40000 0.565
37.42000 5.216
37.44000 11.508
37.46000 8.835
37.48000 1.900
37.50000 6.304
37.52000 7.432
37.54000 7.971
37.56000 9.731
37.58000 9.859
37.60000 9.415
37.62000 10.606
37.64000 14.745
37.66000 13.360
37.68000 11.760
37.70000 16.407
37.72000 11.163
37.74000 13.799
37.76000 15.213
37.78000 14.926
37.80000 15.346
37.82000 14.034
37.84000 18.174
37.86000 16.088
37.88000 16.253
37.90000 16.195
37.92000 20.271
37.94000 24.046
37.96000 20.107
37.98000 20.418
38.00000 17.656
38.02000 19.118
38.04000 22.097
38.06000 28.803
38.08000 31.221
38.10000 28.420
38.12000 33.377
38.14000 30.945
38.16000 25.292
38.18000 26.018
38.20000 29.177
38.22000 23.910
38.24000 27.279
38.26000 32.872
38.28000 35.621
38.30000 35.126
38.32000 33.857
38.34000 32.701
38.36000 33.991
38.38000 37.321
38.40000 43.549
38.42000 47.494
38.44000 43.418
38.46000 42.130
38.48000 49.071
38.50000 50.508
38.52000 48.588
38.54000 51.469
38.56000 52.188
38.58000 56.280
38.60000 55.549
38.62000 62.348
38.64000 66.966
38.66000 71.926
38.68000 73.430
38.70000 72.400
38.72000 75.396
38.74000 74.810
38.76000 77.148
38.78000 78.247
38.80000 87.511
38.82000 92.457
38.84000 97.645
38.86000 103.688
38.88000 105.793
38.90000 114.775
38.92000 115.985
38.94000 123.121
38.96000 126.060
38.98000 136.418
39.00000 145.787
39.02000 159.377
39.04000 167.114
39.06000 170.608
39.08000 176.590
39.10000 192.442
39.12000 208.900
39.14000 225.329
39.16000 231.958
39.18000 244.597
39.20000 253.220
39.22000 275.482
39.24000 293.807
39.26000 308.866
39.28000 329.901
39.30000 349.586
39.32000 368.848
39.34000 398.595
39.36000 416.870
39.38000 440.832
39.40000 459.786
39.42000 486.364
39.44000 517.083
39.46000 549.433
39.48000 573.793
39.50000 590.522
39.52000 614.705
39.54000 628.892
39.56000 643.072
39.58000 666.661
39.60000 688.509
39.62000 706.233
39.64000 711.255
39.66000 717.173
39.68000 731.042
39.70000 739.565
39.72000 745.718
39.74000 746.269
39.76000 732.389
39.78000 724.676
39.80000 712.657
39.82000 710.409
39.84000 696.724
39.86000 678.928
39.88000 658.115
39.90000 650.315
39.92000 628.405
39.94000 600.927
39.96000 577.008
39.98000 570.900
40.00000 539.101
40.02000 505.860
40.04000 490.007
40.06000 463.971
40.08000 436.763
40.10000 409.111
40.12000 382.003
40.14000 356.041
40.16000 337.298
40.18000 323.436
40.20000 304.814
40.22000 289.758
40.24000 271.456
40.26000 247.455
40.28000 230.744
40.30000 217.696
40.32000 204.397
40.34000 189.669
40.36000 177.785
40.38000 164.607
40.40000 160.675
40.42000 146.734
40.44000 128.527
40.46000 122.808
40.48000 121.840
40.50000 111.587
40.52000 103.934
40.54000 95.566
40.56000 94.093
40.58000 92.357
40.60000 82.969
40.62000 77.815
40.64000 73.199
40.66000 67.187
40.68000 64.482
40.70000 64.860
40.72000 58.313
40.74000 53.591
40.76000 50.488
40.78000 46.392
40.80000 45.566
40.82000 41.999
40.84000 45.435
40.86000 42.021
40.88000 37.165
40.90000 32.449
40.92000 31.633
40.94000 29.279
40.96000 30.484
40.98000 28.565
41.00000 27.264
41.02000 29.323
41.04000 23.586
41.06000 20.241
41.08000 19.504
41.10000 17.438
41.12000 17.482
41.14000 18.391
41.16000 14.108
41.18000 16.406
41.20000 14.175
41.22000 16.065
41.24000 14.152
41.26000 12.267
41.28000 14.503
41.30000 18.368
41.32000 13.401
41.34000 9.244
41.36000 11.242
41.38000 9.376
41.40000 11.634
41.42000 11.719
41.44000 13.089
41.46000 9.910
41.48000 9.971
41.50000 9.646
41.52000 8.550
41.54000 5.398
41.56000 2.556
41.58000 2.962
41.60000 7.796
41.62000 7.425
41.64000 4.633
41.66000 -0.033
41.68000 1.744
41.70000 3.925
41.72000 3.510
41.74000 2.824
41.76000 0.695
41.78000 -0.073
41.80000 2.188
41.82000 -0.312
41.84000 1.446
41.86000 1.901
41.88000 2.831
41.90000 1.632
41.92000 1.073
41.94000 -2.383
41.96000 -1.301
41.98000 1.683
42.00000 1.052
42.02000 2.540
42.04000 -2.076
42.06000 -1.338
42.08000 1.627
42.10000 3.535
42.12000 4.586
42.14000 2.233
42.16000 4.192
42.18000 2.237
42.20000 2.996
42.22000 2.861
42.24000 2.204
42.26000 1.582
42.28000 -0.087
42.30000 -1.658
42.32000 -2.862
42.34000 -2.040
42.36000 -3.399
42.38000 2.856
42.40000 2.245
42.42000 0.587
42.44000 -0.871
42.46000 1.500
42.48000 3.940
42.50000 -1.289
42.52000 0.627
42.54000 3.248
42.56000 -2.922
42.58000 -0.632
42.60000 0.664
42.62000 -1.970
42.64000 1.654
42.66000 0.876
42.68000 3.251
42.70000 -2.383
42.72000 -3.326
42.74000 -0.712
42.76000 -1.434
42.78000 -0.547
42.80000 -2.370
42.82000 -1.013
42.84000 -0.806
42.86000 -0.357
42.88000 -1.448
42.90000 0.954
42.92000 -1.113
42.94000 -1.842
42.96000 3.908
42.98000 1.617
43.00000 0.014
43.02000 0.271
43.04000 0.080
43.06000 0.750
43.08000 2.118
43.10000 1.422
43.12000 -2.222
43.14000 -3.275
43.16000 1.397
43.18000 3.648
43.20000 5.542
43.22000 -0.256
43.24000 2.608
43.26000 3.242
43.28000 0.860
43.30000 0.948
43.32000 3.319
43.34000 1.939
43.36000 -1.285
43.38000 -2.391
43.40000 0.948
43.42000 -1.351
43.44000 -3.249
43.46000 -3.216
43.48000 -2.323
43.50000 -1.946
43.52000 -0.930
43.54000 0.901
43.56000 -1.508
43.58000 -2.337
43.60000 -2.824
43.62000 -0.430
43.64000 1.054
43.66000 -2.950
43.68000 -0.514
43.70000 -0.302
43.72000 -2.359
43.74000 -0.032
43.76000 -0.818
43.78000 0.505
43.80000 3.900
43.82000 0.527
43.84000 -1.992
43.86000 -1.186
43.88000 -2.054
43.90000 -2.299
43.92000 -2.110
43.94000 -2.313
43.96000 -1.372
43.98000 -3.204
44.00000 -0.612
44.02000 -0.093
44.04000 2.052
44.06000 1.342
44.08000 0.223
44.10000 0.341
44.12000 -1.488
44.14000 -0.604
44.16000 -1.079
44.18000 -1.345
44.20000 3.449
44.22000 4.803
44.24000 4.333
44.26000 -0.918
44.28000 -0.241
44.30000 0.639
44.32000 0.540
44.34000 -2.772
44.36000 -3.191
44.38000 0.383
44.40000 -1.089
44.42000 1.846
44.44000 1.332
44.46000 1.523
44.48000 1.441
44.50000 2.207
44.52000 -0.933
44.54000 0.112
44.56000 1.360
44.58000 4.589
44.60000 -1.316
44.62000 -2.595
44.64000 -2.654
44.66000 0.669
44.68000 0.419
44.70000 -3.180
44.72000 -2.246
44.74000 -0.319
44.76000 2.414
44.78000 5.962
44.80000 2.574
44.82000 2.618
44.84000 -0.360
44.86000 1.377
44.88000 5.300
44.90000 4.364
44.92000 5.474
44.94000 2.756
44.96000 1.677
44.98000 4.381
45.00000 6.043
45.02000 3.668
45.04000 1.982
45.06000 7.914
45.08000 9.403
45.10000 3.656
45.12000 6.543
45.14000 4.393
45.16000 3.687
45.18000 7.852
45.20000 4.664
45.22000 4.710
45.24000 7.973
45.26000 10.691
45.28000 13.590
45.30000 10.842
45.32000 9.999
45.34000 7.030
45.36000 12.035
45.38000 9.975
45.40000 11.789
45.42000 16.930
45.44000 17.355
45.46000 17.282
45.48000 17.225
45.50000 19.522
45.52000 20.626
45.54000 21.994
45.56000 21.670
45.58000 21.328
45.60000 21.217
45.62000 17.585
45.64000 22.160
45.66000 21.819
45.68000 24.967
45.70000 25.958
45.72000 28.819
45.74000 28.199
45.76000 26.276
45.78000 33.154
45.80000 38.420
45.82000 38.993
45.84000 37.864
45.86000 38.945
45.88000 42.007
45.90000 44.649
45.92000 44.364
45.94000 43.286
45.96000 45.602
45.98000 47.884
46.00000 51.393
46.02000 57.466
46.04000 57.779
46.06000 54.825
46.08000 52.769
46.10000 60.272
46.12000 62.108
46.14000 62.463
46.16000 63.477
46.18000 64.334
46.20000 73.042
46.22000 73.727
46.24000 70.163
46.26000 69.252
46.28000 70.647
46.30000 73.439
46.32000 73.086
46.34000 71.066
46.36000 72.373
46.38000 72.156
46.40000 76.927
46.42000 77.591
46.44000 78.249
46.46000 77.238
46.48000 74.864
46.50000 75.857
46.52000 76.152
46.54000 70.918
46.56000 73.706
46.58000 75.696
46.60000 69.028
46.62000 68.858
46.64000 71.196
46.66000 69.758
46.68000 65.310
46.70000 58.518
46.72000 55.238
46.74000 60.383
46.76000 55.779
46.78000 51.825
46.80000 55.637
46.82000 51.667
46.84000 45.357
46.86000 46.074
46.88000 43.891
46.90000 40.915
46.92000 41.034
46.94000 38.694
46.96000 39.210
46.98000 34.589
47.00000 30.932
47.02000 29.498
47.04000 27.108
47.06000 26.361
47.08000 23.086
47.10000 21.498
47.12000 23.508
47.14000 21.639
47.16000 14.852
47.18000 14.218
47.20000 18.208
47.22000 18.593
47.24000 16.453
47.26000 17.230
47.28000 15.098
47.30000 10.937
47.32000 7.144
47.34000 5.027
47.36000 13.311
47.38000 11.560
47.40000 13.566
47.42000 13.179
47.44000 12.009
47.46000 9.702
47.48000 7.020
47.50000 4.930
47.52000 -1.088
47.54000 0.301
47.56000 3.552
47.58000 4.305
47.60000 0.687
47.62000 3.772
47.64000 3.517
47.66000 3.364
47.68000 1.241
47.70000 2.130
47.72000 0.677
47.74000 -0.646
47.76000 1.504
47.78000 -1.181
47.80000 -0.754
47.82000 -0.802
47.84000 0.186
47.86000 0.327
47.88000 2.118
47.90000 3.650
47.92000 3.590
47.94000 6.481
47.96000 5.921
47.98000 4.738
48.00000 6.299
48.02000 4.231
48.04000 2.439
48.06000 0.754
48.08000 2.631
48.10000 1.660
48.12000 2.657
48.14000 -2.759
48.16000 2.500
48.18000 5.146
48.20000 2.478
48.22000 -0.462
48.24000 3.465
48.26000 2.919
48.28000 3.561
48.30000 -0.017
48.32000 -2.719
48.34000 2.657
48.36000 5.626
48.38000 0.939
48.40000 3.548
48.42000 3.855
48.44000 3.829
48.46000 2.776
48.48000 3.631
48.50000 -1.630
48.52000 -0.893
48.54000 1.657
48.56000 4.104
48.58000 6.445
48.60000 7.704
48.62000 5.596
48.64000 5.351
48.66000 0.074
48.68000 1.076
48.70000 3.027
48.72000 7.024
48.74000 2.405
48.76000 0.619
48.78000 3.781
48.80000 5.345
48.82000 2.600
48.84000 4.624
48.86000 4.098
48.88000 -1.851
48.90000 -2.502
48.92000 5.626
48.94000 6.885
48.96000 3.102
48.98000 -0.590
49.00000 2.248
49.02000 3.349
49.04000 5.315
49.06000 5.776
49.08000 1.400
49.10000 1.081
49.12000 -0.474
49.14000 -0.943
49.16000 1.815
49.18000 -0.506
49.20000 4.041
49.22000 2.439
49.24000 -0.540
49.26000 -2.543
49.28000 -2.642
49.30000 -0.337
49.32000 2.406
49.34000 5.157
49.36000 2.521
49.38000 -0.585
49.40000 -0.499
49.42000 0.364
49.44000 1.593
49.46000 3.433
49.48000 2.325
49.50000 4.428
49.52000 3.114
49.54000 2.533
49.56000 3.759
49.58000 3.013
49.60000 3.605
49.62000 3.510
49.64000 -0.270
49.66000 4.116
49.68000 0.990
49.70000 2.074
49.72000 2.977
49.74000 2.912
49.76000 0.840
49.78000 -0.150
49.80000 3.137
49.82000 3.857
49.84000 0.930
49.86000 -1.046
49.88000 -2.620
49.90000 1.159
49.92000 5.628
49.94000 2.517
49.96000 -1.930
49.98000 -0.945
50.00000 1.930
50.02000 3.409
50.04000 1.999
50.06000 0.111
50.08000 0.101
50.10000 2.434
50.12000 1.094
50.14000 0.167
50.16000 2.244
50.18000 2.906
50.20000 2.138
50.22000 2.633
50.24000 -1.172
50.26000 -1.558
50.28000 -1.636
50.30000 -0.552
50.32000 1.431
50.34000 3.430
50.36000 3.216
50.38000 4.377
50.40000 2.455
50.42000 0.223
50.44000 -0.627
50.46000 1.987
50.48000 1.887
50.50000 0.126
50.52000 3.426
50.54000 4.340
50.56000 -2.586
50.58000 -0.556
50.60000 2.865
50.62000 2.928
50.64000 1.409
50.66000 0.584
50.68000 1.792
50.70000 -1.523
50.72000 0.684
50.74000 -2.336
50.76000 0.268
50.78000 3.250
50.80000 5.840
50.82000 2.253
50.84000 1.798
50.86000 1.655
50.88000 3.564
50.90000 2.912
50.92000 0.628
50.94000 2.493
50.96000 5.192
50.98000 2.051
51.00000 -2.345
51.02000 -0.943
51.04000 1.054
51.06000 3.875
51.08000 2.100
51.10000 4.294
51.12000 3.684
51.14000 1.402
51.16000 1.992
51.18000 1.954
51.20000 0.991
51.22000 -1.009
51.24000 -0.581
51.26000 1.164
51.28000 3.398
51.30000 3.339
51.32000 -0.073
51.34000 -1.811
51.36000 2.069
51.38000 4.322
51.40000 -0.577
51.42000 -2.468
51.44000 -1.517
51.46000 8.099
51.48000 6.012
51.50000 3.211
51.52000 2.002
51.54000 -2.561
51.56000 -0.705
51.58000 3.159
51.60000 2.246
51.62000 -0.671
51.64000 -1.236
51.66000 1.684
51.68000 1.647
51.70000 1.216
51.72000 -2.464
51.74000 -1.306
51.76000 -2.247
51.78000 -2.138
51.80000 3.025
51.82000 4.937
51.84000 1.855
51.86000 2.017
51.88000 1.419
51.90000 1.075
51.92000 1.606
51.94000 0.742
51.96000 -1.027
51.98000 2.398
52.00000 6.549
52.02000 5.673
52.04000 2.228
52.06000 3.997
52.08000 3.970
52.10000 4.346
52.12000 0.237
52.14000 -2.515
52.16000 1.928
52.18000 3.640
52.20000 6.455
52.22000 6.500
52.24000 4.363
52.26000 2.638
52.28000 2.358
52.30000 3.094
52.32000 0.964
52.34000 1.259
52.36000 2.173
52.38000 1.746
52.40000 5.253
52.42000 8.969
52.44000 8.877
52.46000 4.996
52.48000 4.570
52.50000 0.043
52.52000 -0.753
52.54000 1.270
52.56000 1.224
52.58000 0.420
52.60000 2.467
52.62000 1.395
52.64000 4.482
52.66000 4.277
52.68000 -0.233
52.70000 0.010
52.72000 2.880
52.74000 0.971
52.76000 1.111
52.78000 0.922
52.80000 -1.770
52.82000 0.553
52.84000 -0.574
52.86000 0.675
52.88000 -1.384
52.90000 2.964
52.92000 7.681
52.94000 3.486
52.96000 1.769
52.98000 -0.519
53.00000 -2.064
53.02000 2.520
53.04000 5.067
53.06000 2.174
53.08000 -0.491
53.10000 1.843
53.12000 3.397
53.14000 3.814
53.16000 4.841
53.18000 2.070
53.20000 3.739
53.22000 2.033
53.24000 2.820
53.26000 1.136
53.28000 -1.121
53.30000 2.051
53.32000 0.575
53.34000 0.650
53.36000 -2.492
53.38000 0.030
53.40000 5.078
53.42000 2.104
53.44000 1.690
53.46000 0.738
53.48000 2.150
53.50000 4.661
53.52000 3.166
53.54000 4.782
53.56000 2.716
53.58000 1.012
53.60000 2.132
53.62000 1.556
53.64000 -0.258
53.66000 -0.142
53.68000 -0.200
53.70000 0.519
53.72000 4.692
53.74000 1.643
53.76000 1.530
53.78000 1.156
53.80000 -0.047
53.82000 2.398
53.84000 1.980
53.86000 2.887
53.88000 3.351
53.90000 1.861
53.92000 -0.959
53.94000 3.958
53.96000 2.293
53.98000 3.143
54.00000 3.912
54.02000 3.209
54.04000 -1.711
54.06000 -1.901
54.08000 0.244
54.10000 -0.444
54.12000 1.005
54.14000 1.091
54.16000 3.212
54.18000 2.852
54.20000 1.527
54.22000 1.188
54.24000 -0.413
54.26000 0.091
54.28000 3.639
54.30000 5.523
54.32000 6.071
54.34000 2.955
54.36000 1.031
54.38000 2.169
54.40000 4.960
54.42000 4.471
54.44000 3.116
54.46000 0.647
54.48000 -2.130
54.50000 -2.458
54.52000 -0.946
54.54000 2.370
54.56000 3.526
54.58000 -0.651
54.60000 -2.170
54.62000 2.855
54.64000 4.079
54.66000 2.842
54.68000 2.633
54.70000 4.400
54.72000 2.457
54.74000 2.264
54.76000 0.422
54.78000 0.848
54.80000 4.173
54.82000 2.487
54.84000 3.472
54.86000 4.726
54.88000 5.138
54.90000 5.280
54.92000 2.608
54.94000 -0.745
54.96000 -1.575
54.98000 -2.453
55.00000 -0.882
55.02000 2.429
55.04000 1.391
55.06000 2.832
55.08000 2.031
55.10000 2.039
55.12000 5.674
55.14000 6.301
55.16000 3.337
55.18000 0.509
55.20000 3.371
55.22000 3.970
55.24000 2.451
55.26000 1.851
55.28000 1.455
55.30000 4.583
55.32000 -0.180
55.34000 -0.582
55.36000 3.724
55.38000 2.028
55.40000 0.926
55.42000 0.904
55.44000 3.275
55.46000 1.767
55.48000 0.539
55.50000 -0.287
55.52000 -0.820
55.54000 0.443
55.56000 3.417
55.58000 4.041
55.60000 2.687
55.62000 3.544
55.64000 2.443
55.66000 6.393
55.68000 0.734
55.70000 -2.443
55.72000 -2.279
55.74000 1.943
55.76000 6.876
55.78000 4.766
55.80000 2.635
55.82000 0.509
55.84000 0.521
55.86000 1.296
55.88000 1.345
55.90000 -0.060
55.92000 0.654
55.94000 1.243
55.96000 -0.733
55.98000 4.220
56.00000 4.639
56.02000 6.847
56.04000 4.100
56.06000 -1.695
56.08000 0.460
56.10000 1.020
56.12000 4.028
56.14000 5.879
56.16000 -1.828
56.18000 -1.545
56.20000 -1.164
56.22000 0.781
56.24000 1.729
56.26000 3.254
56.28000 -0.167
56.30000 0.419
56.32000 -0.928
56.34000 -1.194
56.36000 1.054
56.38000 2.662
56.40000 2.938
56.42000 2.490
56.44000 2.100
56.46000 3.356
56.48000 -0.718
56.50000 1.009
56.52000 1.121
56.54000 -1.322
56.56000 -1.136
56.58000 1.980
56.60000 3.752
56.62000 1.688
56.64000 -2.425
56.66000 -0.609
56.68000 1.714
56.70000 0.888
56.72000 1.516
56.74000 3.871
56.76000 3.009
56.78000 2.366
56.80000 5.984
56.82000 1.335
56.84000 1.530
56.86000 1.683
56.88000 0.733
56.90000 1.935
56.92000 3.337
56.94000 1.922
56.96000 -1.418
56.98000 0.003
57.00000 -0.646
57.02000 -1.337
57.04000 1.519
57.06000 2.403
57.08000 3.455
57.10000 3.142
57.12000 2.550
57.14000 0.752
57.16000 -0.187
57.18000 1.599
57.20000 -2.394
57.22000 1.859
57.24000 3.298
57.26000 2.867
57.28000 -1.165
57.30000 1.843
57.32000 3.158
57.34000 6.216
57.36000 0.931
57.38000 -0.742
57.40000 0.610
57.42000 -2.384
57.44000 -2.293
57.46000 -0.942
57.48000 1.693
57.50000 3.611
57.52000 1.045
57.54000 1.909
57.56000 2.737
57.58000 4.571
57.60000 2.242
57.62000 1.960
57.64000 1.444
57.66000 1.133
57.68000 1.236
57.70000 3.682
57.72000 2.272
57.74000 4.426
57.76000 2.290
57.78000 3.024
57.80000 5.792
57.82000 4.353
57.84000 3.984
57.86000 2.809
57.88000 1.330
57.90000 -0.906
57.92000 4.968
57.94000 5.332
57.96000 4.215
57.98000 2.989
58.00000 5.057
58.02000 5.392
58.04000 2.494
58.06000 2.484
58.08000 2.221
58.10000 3.431
58.12000 4.951
58.14000 2.741
58.16000 2.393
58.18000 2.447
58.20000 3.589
58.22000 4.810
58.24000 1.810
58.26000 -0.657
58.28000 1.523
58.30000 1.395
58.32000 -0.648
58.34000 1.523
58.36000 3.136
58.38000 4.022
58.40000 -0.632
58.42000 2.561
58.44000 -0.752
58.46000 -2.352
58.48000 0.530
58.50000 0.546
58.52000 -1.095
58.54000 2.328
58.56000 0.200
58.58000 3.317
58.60000 4.945
58.62000 3.781
58.64000 3.937
58.66000 0.486
58.68000 0.892
58.70000 0.405
58.72000 0.096
58.74000 0.280
58.76000 2.350
58.78000 4.089
58.80000 1.978
58.82000 2.349
58.84000 1.381
58.86000 2.944
58.88000 2.035
58.90000 1.837
58.92000 -0.437
58.94000 2.753
58.96000 4.032
58.98000 2.674
59.00000 3.643
59.02000 3.464
59.04000 6.044
59.06000 2.130
59.08000 2.987
59.10000 4.826
59.12000 5.060
59.14000 -0.900
59.16000 -0.734
59.18000 1.076
59.20000 0.818
59.22000 -1.393
59.24000 0.752
59.26000 -1.807
59.28000 -2.345
59.30000 0.843
59.32000 1.412
59.34000 1.701
59.36000 1.915
59.38000 0.594
59.40000 -1.240
59.42000 -1.006
59.44000 -1.614
59.46000 0.745
59.48000 1.739
59.50000 4.005
59.52000 1.711
59.54000 4.885
59.56000 4.034
59.58000 1.913
59.60000 -0.218
59.62000 1.300
59.64000 1.014
59.66000 -0.889
59.68000 -2.341
59.70000 -1.236
59.72000 1.508
59.74000 -0.035
59.76000 1.247
59.78000 1.216
59.80000 -1.259
59.82000 1.444
59.84000 -0.536
59.86000 -0.559
59.88000 0.918
59.90000 0.091
59.92000 -1.495
59.94000 0.526
59.96000 -1.950
59.98000 -0.279
60.00000 1.163
60.02000 3.445
60.04000 1.833
60.06000 1.114
60.08000 -1.614
60.10000 -2.109
60.12000 0.419
60.14000 1.981
60.16000 0.394
60.18000 -2.347
60.20000 0.571
60.22000 -0.409
60.24000 -0.844
60.26000 0.394
60.28000 -0.060
60.30000 0.612
60.32000 1.419
60.34000 1.020
60.36000 -0.653
60.38000 -1.626
60.40000 -0.425
60.42000 0.899
60.44000 -1.335
60.46000 1.126
60.48000 -2.258
60.50000 -0.093
60.52000 2.178
60.54000 -1.891
60.56000 -1.852
60.58000 1.529
60.60000 0.856
60.62000 -0.937
60.64000 -2.023
60.66000 0.068
60.68000 1.554
60.70000 3.133
60.72000 2.664
60.74000 3.793
60.76000 0.749
60.78000 0.407
60.80000 0.888
60.82000 -0.866
60.84000 -1.130
60.86000 -1.945
60.88000 -0.153
60.90000 -0.921
60.92000 -0.999
60.94000 -0.529
60.96000 -0.273
60.98000 1.894
61.00000 0.959
61.02000 5.091
61.04000 1.397
61.06000 -0.485
61.08000 -1.052
61.10000 -1.562
61.12000 -1.327
61.14000 1.252
61.16000 -0.310
61.18000 0.779
61.20000 -2.309
61.22000 -1.139
61.24000 2.799
61.26000 3.318
61.28000 2.941
61.30000 4.062
61.32000 1.484
61.34000 1.400
61.36000 1.926
61.38000 2.886
61.40000 4.241
61.42000 3.604
61.44000 2.140
61.46000 1.960
61.48000 3.135
61.50000 5.877
61.52000 2.013
61.54000 2.451
61.56000 0.371
61.58000 -0.102
61.60000 -1.148
61.62000 1.247
61.64000 3.084
61.66000 1.103
61.68000 0.305
61.70000 -0.253
61.72000 -0.749
61.74000 -0.042
61.76000 -0.524
61.78000 0.402
61.80000 -0.304
61.82000 -1.152
61.84000 -2.258
61.86000 0.437
61.88000 2.006
61.90000 -0.162
61.92000 0.652
61.94000 0.580
61.96000 5.384
61.98000 5.633
62.00000 5.523
62.02000 2.360
62.04000 3.006
62.06000 3.873
62.08000 2.804
62.10000 -0.109
62.12000 -1.902
62.14000 -0.809
62.16000 -1.209
62.18000 1.404
62.20000 0.804
62.22000 0.470
62.24000 3.382
62.26000 1.550
62.28000 0.503
62.30000 -0.354
62.32000 0.829
62.34000 0.530
62.36000 2.485
62.38000 1.586
62.40000 -1.654
62.42000 0.647
62.44000 0.206
62.46000 0.111
62.48000 1.753
62.50000 0.709
62.52000 1.502
62.54000 -0.567
62.56000 1.101
62.58000 2.208
62.60000 4.112
62.62000 3.482
62.64000 3.740
62.66000 1.846
62.68000 -0.196
62.70000 0.726
62.72000 0.763
62.74000 2.407
62.76000 -0.647
62.78000 -0.458
62.80000 1.249
62.82000 0.674
62.84000 -0.894
62.86000 -2.237
62.88000 -0.329
62.90000 4.197
62.92000 5.656
62.94000 6.359
62.96000 0.777
62.98000 0.068
63.00000 1.588
63.02000 0.987
63.04000 1.236
63.06000 0.298
63.08000 0.541
63.10000 4.110
63.12000 5.463
63.14000 3.397
63.16000 3.142
63.18000 1.199
63.20000 -2.124
63.22000 -0.615
63.24000 5.352
63.26000 4.280
63.28000 2.599
63.30000 0.969
63.32000 1.261
63.34000 1.586
63.36000 4.076
63.38000 2.661
63.40000 2.089
63.42000 3.563
63.44000 3.521
63.46000 1.973
63.48000 1.882
63.50000 1.227
63.52000 2.367
63.54000 1.870
63.56000 2.034
63.58000 4.629
63.60000 2.932
63.62000 -0.564
63.64000 0.633
63.66000 0.291
63.68000 -0.158
63.70000 1.740
63.72000 1.243
63.74000 3.173
63.76000 2.034
63.78000 -2.211
63.80000 0.181
63.82000 2.750
63.84000 1.864
63.86000 -0.066
63.88000 2.917
63.90000 1.641
63.92000 2.888
63.94000 1.281
63.96000 3.021
63.98000 3.678
64.00000 -1.178
64.02000 0.810
64.04000 4.667
64.06000 4.168
64.08000 4.257
64.10000 4.208
64.12000 2.740
64.14000 -1.412
64.16000 2.480
64.18000 4.381
64.20000 1.346
64.22000 3.743
64.24000 2.754
64.26000 -0.070
64.28000 -0.498
64.30000 0.611
64.32000 0.995
64.34000 -0.144
64.36000 -0.587
64.38000 0.139
64.40000 -0.663
64.42000 1.953
64.44000 4.026
64.46000 2.277
64.48000 1.313
64.50000 3.049
64.52000 2.018
64.54000 1.797
64.56000 3.107
64.58000 2.622
64.60000 3.159
64.62000 3.074
64.64000 1.264
64.66000 0.190
64.68000 3.156
64.70000 3.142
64.72000 -2.214
64.74000 -1.254
64.76000 0.123
64.78000 -0.750
64.80000 -0.811
64.82000 -0.467
64.84000 -1.364
64.86000 2.449
64.88000 3.433
64.90000 1.239
64.92000 1.050
64.94000 2.926
64.96000 4.983
64.98000 4.047
65.00000 2.222
65.02000 1.942
65.04000 0.292
65.06000 1.489
65.08000 3.709
65.10000 1.753
65.12000 0.963
65.14000 -0.832
65.16000 0.608
65.18000 -0.374
65.20000 1.887
65.22000 0.682
65.24000 -0.533
65.26000 -0.859
65.28000 -0.090
65.30000 -0.552
65.32000 -1.013
65.34000 1.277
65.36000 -0.154
65.38000 1.335
65.40000 3.480
65.42000 0.371
65.44000 0.218
65.46000 2.837
65.48000 -1.152
65.50000 0.915
65.52000 1.728
65.54000 1.172
65.56000 -0.615
65.58000 -2.246
65.60000 -2.173
65.62000 0.035
65.64000 -0.610
65.66000 0.744
65.68000 0.894
65.70000 0.128
65.72000 -1.157
65.74000 -1.208
65.76000 0.464
65.78000 -1.564
65.80000 -0.909
65.82000 0.108
65.84000 -0.341
65.86000 -0.538
65.88000 -1.565
65.90000 -2.252
65.92000 1.935
65.94000 3.683
65.96000 1.530
65.98000 0.843
66.00000 2.144
66.02000 2.942
66.04000 5.615
66.06000 4.981
66.08000 -0.307
66.10000 -0.597
66.12000 1.903
66.14000 2.084
66.16000 0.620
66.18000 -0.362
66.20000 -1.017
66.22000 -0.242
66.24000 -2.252
66.26000 -0.640
66.28000 0.374
66.30000 -0.547
66.32000 1.386
66.34000 0.208
66.36000 -0.257
66.38000 1.213
66.40000 -1.473
66.42000 -0.543
66.44000 0.212
66.46000 0.574
66.48000 -0.044
66.50000 -0.576
66.52000 -1.349
66.54000 -1.300
66.56000 1.615
66.58000 -0.159
66.60000 0.408
66.62000 3.205
66.64000 1.216
66.66000 2.236
66.68000 3.120
66.70000 -0.508
66.72000 -1.095
66.74000 0.826
66.76000 -0.383
66.78000 -0.725
66.80000 1.852
66.82000 2.227
66.84000 0.117
66.86000 0.874
66.88000 1.065
66.90000 1.628
66.92000 3.419
66.94000 0.537
66.96000 1.523
66.98000 3.629
67.00000 3.577
67.02000 5.175
67.04000 5.199
67.06000 4.430
67.08000 3.182
67.10000 2.973
67.12000 3.181
67.14000 5.360
67.16000 3.691
67.18000 6.098
67.20000 7.548
67.22000 5.739
67.24000 7.500
67.26000 6.392
67.28000 6.237
67.30000 6.614
67.32000 6.268
67.34000 2.928
67.36000 3.726
67.38000 6.409
67.40000 8.787
67.42000 8.315
67.44000 8.226
67.46000 8.087
67.48000 8.812
67.50000 9.544
67.52000 6.777
67.54000 7.224
67.56000 9.262
67.58000 7.973
67.60000 7.859
67.62000 8.120
67.64000 12.539
67.66000 12.542
67.68000 12.353
67.70000 9.737
67.72000 12.490
67.74000 11.378
67.76000 10.052
67.78000 9.216
67.80000 9.108
67.82000 8.480
67.84000 9.966
67.86000 9.721
67.88000 10.725
67.90000 10.153
67.92000 8.164
67.94000 10.615
67.96000 10.829
67.98000 9.902
68.00000 8.290
68.02000 4.136
68.04000 5.272
68.06000 7.335
68.08000 6.395
68.10000 5.057
68.12000 4.997
68.14000 7.258
68.16000 6.276
68.18000 4.670
68.20000 4.964
68.22000 3.390
68.24000 3.901
68.26000 1.068
68.28000 2.136
68.30000 3.752
68.32000 3.694
68.34000 2.627
68.36000 2.629
68.38000 1.445
68.40000 1.325
68.42000 -0.929
68.44000 2.004
68.46000 2.992
68.48000 1.830
68.50000 1.282
68.52000 1.867
68.54000 0.883
68.56000 2.361
68.58000 1.163
68.60000 0.602
68.62000 -0.478
68.64000 0.708
68.66000 0.610
68.68000 -0.495
68.70000 -1.456
68.72000 -0.369
68.74000 3.007
68.76000 1.545
68.78000 0.047
68.80000 4.128
68.82000 4.000
68.84000 -0.035
68.86000 -1.166
68.88000 -2.128
68.90000 1.664
68.92000 3.527
68.94000 4.183
68.96000 1.228
68.98000 -1.015
69.00000 -1.919
69.02000 0.968
69.04000 1.834
69.06000 2.345
69.08000 2.826
69.10000 1.149
69.12000 2.436
69.14000 0.705
69.16000 -0.318
69.18000 -1.885
69.20000 -0.238
69.22000 0.329
69.24000 -0.461
69.26000 -2.045
69.28000 -1.370
69.30000 -0.396
69.32000 1.977
69.34000 -0.876
69.36000 -2.096
69.38000 -1.635
69.40000 0.412
69.42000 0.858
69.44000 -1.866
69.46000 1.138
69.48000 0.255
69.50000 0.760
69.52000 2.262
69.54000 -0.026
69.56000 -0.966
69.58000 0.926
69.60000 1.188
69.62000 1.243
69.64000 0.660
69.66000 0.906
69.68000 -0.912
69.70000 0.982
69.72000 2.065
69.74000 1.565
69.76000 1.548
69.78000 2.613
69.80000 2.792
69.82000 3.105
69.84000 2.444
69.86000 4.837
69.88000 3.851
69.90000 1.794
69.92000 0.778
69.94000 1.044
69.96000 1.510
69.98000 -0.154
70.00000 1.421
70.02000 -0.114
70.04000 -1.548
70.06000 -2.051
70.08000 -0.004
70.10000 -0.960
70.12000 -0.099
70.14000 2.883
70.16000 1.006
70.18000 4.228
70.20000 3.275
70.22000 3.185
70.24000 2.586
70.26000 3.122
70.28000 1.193
70.30000 3.074
70.32000 4.386
70.34000 0.387
70.36000 0.016
70.38000 0.393
70.40000 0.078
70.42000 0.780
70.44000 1.400
70.46000 2.043
70.48000 0.096
70.50000 0.563
70.52000 0.725
70.54000 2.012
70.56000 0.513
70.58000 0.728
70.60000 -0.913
70.62000 0.816
70.64000 2.028
70.66000 2.075
70.68000 0.214
70.70000 0.497
70.72000 1.864
70.74000 2.500
70.76000 0.369
70.78000 -2.012
70.80000 -1.984
70.82000 -0.886
70.84000 -1.345
70.86000 -1.040
70.88000 0.877
70.90000 2.450
70.92000 -0.971
70.94000 0.213
70.96000 0.152
70.98000 -0.219
71.00000 -1.255
71.02000 3.038
71.04000 2.396
71.06000 2.160
71.08000 0.790
71.10000 -1.485
71.12000 -2.037
71.14000 -1.657
71.16000 1.941
71.18000 -0.317
71.20000 0.328
71.22000 0.445
71.24000 2.346
71.26000 3.322
71.28000 3.977
71.30000 1.993
71.32000 1.455
71.34000 0.296
71.36000 -1.307
71.38000 -0.408
71.40000 -0.104
71.42000 0.667
71.44000 4.078
71.46000 1.675
71.48000 -0.202
71.50000 -0.913
71.52000 1.331
71.54000 2.206
71.56000 0.356
71.58000 -1.897
71.60000 -1.177
71.62000 -0.727
71.64000 -2.017
71.66000 -1.953
71.68000 -1.742
71.70000 1.102
71.72000 1.076
71.74000 4.103
71.76000 1.329
71.78000 -0.973
71.80000 -1.477
71.82000 1.075
71.84000 -0.648
71.86000 -0.568
71.88000 -0.289
71.90000 -0.155
71.92000 -1.600
71.94000 -0.186
71.96000 -1.181
71.98000 0.772
72.00000 1.026
72.02000 2.761
72.04000 1.400
72.06000 0.939
72.08000 -1.018
72.10000 0.811
72.12000 2.654
72.14000 1.504
72.16000 0.864
72.18000 0.201
72.20000 3.281
72.22000 5.231
72.24000 4.582
72.26000 4.529
72.28000 3.520
72.30000 1.172
72.32000 -0.824
72.34000 1.007
72.36000 1.137
72.38000 -0.115
72.40000 0.851
72.42000 -0.236
72.44000 -0.098
72.46000 0.638
72.48000 5.463
72.50000 7.228
72.52000 1.202
72.54000 -0.888
72.56000 -1.919
72.58000 1.784
72.60000 1.994
72.62000 3.948
72.64000 3.919
72.66000 0.198
72.68000 4.234
72.70000 7.037
72.72000 7.523
72.74000 1.219
72.76000 2.710
72.78000 2.613
72.80000 3.007
72.82000 4.132
72.84000 0.798
72.86000 1.974
72.88000 2.581
72.90000 1.634
72.92000 1.192
72.94000 4.131
72.96000 4.205
72.98000 3.239
73.00000 0.923
73.02000 -1.040
73.04000 2.297
73.06000 -1.035
73.08000 -0.468
73.10000 -0.651
73.12000 -1.287
73.14000 -1.227
73.16000 1.557
73.18000 4.942
73.20000 5.494
73.22000 4.251
73.24000 3.531
73.26000 2.717
73.28000 0.490
73.30000 1.912
73.32000 2.598
73.34000 1.245
73.36000 1.381
73.38000 3.302
73.40000 4.194
73.42000 -0.677
73.44000 0.768
73.46000 1.350
73.48000 0.173
73.50000 0.040
73.52000 -0.497
73.54000 0.833
73.56000 -0.038
73.58000 -1.465
73.60000 -1.256
73.62000 -1.315
73.64000 0.359
73.66000 1.524
73.68000 1.224
73.70000 -1.937
73.72000 0.539
73.74000 3.877
73.76000 2.564
73.78000 2.076
73.80000 1.308
73.82000 0.249
73.84000 0.794
73.86000 3.814
73.88000 4.650
73.90000 -0.311
73.92000 0.619
73.94000 0.588
73.96000 0.528
73.98000 1.226
74.00000 2.990
74.02000 4.548
74.04000 0.860
74.06000 -0.904
74.08000 0.985
74.10000 4.286
74.12000 3.903
74.14000 0.209
74.16000 0.252
74.18000 0.950
74.20000 0.410
74.22000 0.442
74.24000 -0.294
74.26000 -0.572
74.28000 -0.453
74.30000 2.090
74.32000 3.009
74.34000 1.407
74.36000 3.026
74.38000 1.506
74.40000 4.294
74.42000 1.429
74.44000 -0.219
74.46000 -1.896
74.48000 0.273
74.50000 2.352
74.52000 -0.196
74.54000 2.624
74.56000 2.468
74.58000 1.158
74.60000 2.729
74.62000 1.244
74.64000 1.361
74.66000 3.156
74.68000 2.195
74.70000 2.905
74.72000 4.822
74.74000 2.143
74.76000 3.010
74.78000 4.569
74.80000 6.236
74.82000 5.149
74.84000 2.932
74.86000 0.005
74.88000 0.327
74.90000 1.475
74.92000 0.977
74.94000 2.557
74.96000 3.439
74.98000 2.034
75.00000 0.353
75.02000 0.342
75.04000 0.366
75.06000 3.294
75.08000 3.663
75.10000 3.792
75.12000 0.919
75.14000 -1.278
75.16000 -0.666
75.18000 -0.781
75.20000 -1.103
75.22000 1.138
75.24000 1.249
75.26000 -1.355
75.28000 0.199
75.30000 3.315
75.32000 2.409
75.34000 2.544
75.36000 2.842
75.38000 3.615
75.40000 3.560
75.42000 0.067
75.44000 -0.386
75.46000 0.324
75.48000 3.985
75.50000 0.887
75.52000 2.088
75.54000 -1.093
75.56000 -0.623
75.58000 1.316
75.60000 -0.097
75.62000 -1.934
75.64000 -1.345
75.66000 0.320
75.68000 -0.641
75.70000 1.083
75.72000 2.406
75.74000 1.489
75.76000 4.289
75.78000 3.637
75.80000 0.107
75.82000 0.988
75.84000 1.605
75.86000 1.137
75.88000 0.124
75.90000 3.912
75.92000 3.683
75.94000 4.552
75.96000 2.392
75.98000 0.230
76.00000 2.388
76.02000 2.095
76.04000 1.404
76.06000 2.738
76.08000 1.865
76.10000 2.901
76.12000 1.034
76.14000 2.116
76.16000 -0.109
76.18000 -1.938
76.20000 1.172
76.22000 1.746
76.24000 2.858
76.26000 2.000
76.28000 1.726
76.30000 2.023
76.32000 0.996
76.34000 -0.380
76.36000 -1.035
76.38000 -1.269
76.40000 -0.391
76.42000 1.001
76.44000 1.494
76.46000 2.674
76.48000 4.663
76.50000 3.202
76.52000 -0.776
76.54000 -1.717
76.56000 1.202
76.58000 0.716
76.60000 0.555
76.62000 1.122
76.64000 1.206
76.66000 3.531
76.68000 -0.373
76.70000 -1.174
76.72000 1.113
76.74000 1.333
76.76000 0.979
76.78000 4.104
76.80000 2.630
76.82000 3.260
76.84000 3.266
76.86000 0.667
76.88000 1.813
76.90000 5.100
76.92000 2.314
76.94000 2.272
76.96000 2.183
76.98000 -0.194
77.00000 4.742
77.02000 3.044
77.04000 0.354
77.06000 3.998
77.08000 1.681
77.10000 -0.858
77.12000 -1.946
77.14000 0.054
77.16000 0.734
77.18000 0.968
77.20000 0.498
77.22000 -0.464
77.24000 1.977
77.26000 0.262
77.28000 -0.424
77.30000 0.352
77.32000 -1.387
77.34000 1.157
77.36000 2.920
77.38000 4.029
77.40000 3.477
77.42000 2.405
77.44000 1.573
77.46000 1.113
77.48000 2.070
77.50000 -0.905
77.52000 -1.939
77.54000 0.103
77.56000 0.019
77.58000 0.996
77.60000 1.681
77.62000 0.645
77.64000 4.761
77.66000 1.887
77.68000 2.765
77.70000 3.604
77.72000 3.510
77.74000 3.178
77.76000 1.188
77.78000 3.110
77.80000 1.532
77.82000 -0.294
77.84000 -0.954
77.86000 0.334
77.88000 -0.896
77.90000 -1.976
77.92000 0.533
77.94000 1.928
77.96000 -1.376
77.98000 1.810
78.00000 5.996
78.02000 5.131
78.04000 4.653
78.06000 1.387
78.08000 -1.684
78.10000 2.430
78.12000 1.650
78.14000 1.590
78.16000 -1.134
78.18000 -1.083
78.20000 2.080
78.22000 4.054
78.24000 2.918
78.26000 0.047
78.28000 -0.002
78.30000 -1.132
78.32000 1.913
78.34000 3.744
78.36000 1.964
78.38000 1.513
78.40000 2.850
78.42000 4.109
78.44000 2.223
78.46000 -0.080
78.48000 1.230
78.50000 3.916
78.52000 0.623
78.54000 0.016
78.56000 1.932
78.58000 1.802
78.60000 1.124
78.62000 2.695
78.64000 3.992
78.66000 3.363
78.68000 2.866
78.70000 3.104
78.72000 4.095
78.74000 3.169
78.76000 1.895
78.78000 0.269
78.80000 2.933
78.82000 -1.998
78.84000 -1.647
78.86000 0.124
78.88000 1.409
78.90000 3.077
78.92000 4.508
78.94000 3.522
78.96000 1.331
78.98000 3.948
79.00000 7.216
79.02000 5.082
79.04000 4.150
79.06000 4.135
79.08000 3.913
79.10000 3.315
79.12000 0.872
79.14000 0.865
79.16000 0.344
79.18000 3.502
79.20000 2.215
79.22000 0.902
79.24000 0.342
79.26000 0.032
79.28000 2.262
79.30000 2.892
79.32000 1.523
79.34000 1.617
79.36000 2.050
79.38000 0.001
79.40000 0.387
79.42000 -0.373
79.44000 0.003
79.46000 -2.033
79.48000 1.146
79.50000 3.218
79.52000 5.680
79.54000 3.178
79.56000 1.748
79.58000 2.488
79.60000 3.715
79.62000 1.399
79.64000 -2.044
79.66000 0.998
79.68000 2.812
79.70000 4.898
79.72000 1.374
79.74000 0.419
79.76000 -0.084
79.78000 3.376
79.80000 1.904
79.82000 2.713
79.84000 0.487
79.86000 2.462
79.88000 0.837
79.90000 0.841
79.92000 0.544
79.94000 1.421
79.96000 1.271
79.98000 1.292
80.00000 2.028
80.02000 1.250
80.04000 -1.194
80.06000 1.115
80.08000 2.957
80.10000 2.432
80.12000 1.991
80.14000 1.532
80.16000 2.094
80.18000 3.699
80.20000 1.857
80.22000 -0.590
80.24000 2.400
80.26000 7.229
80.28000 3.311
80.30000 4.032
80.32000 4.837
80.34000 3.907
80.36000 4.708
80.38000 6.453
80.40000 6.281
80.42000 3.698
80.44000 1.611
80.46000 6.152
80.48000 6.612
80.50000 6.277
80.52000 7.701
80.54000 9.136
80.56000 8.536
80.58000 5.115
80.60000 5.755
80.62000 6.894
80.64000 9.689
80.66000 9.403
80.68000 11.080
80.70000 11.351
80.72000 9.626
80.74000 10.627
80.76000 10.078
80.78000 11.028
80.80000 10.085
80.82000 13.270
80.84000 13.660
80.86000 13.439
80.88000 11.010
80.90000 11.141
80.92000 12.132
80.94000 16.299
80.96000 18.236
80.98000 17.726
81.00000 10.790
81.02000 14.363
81.04000 20.414
81.06000 17.099
81.08000 19.343
81.10000 18.606
81.12000 18.481
81.14000 19.436
81.16000 22.357
81.18000 22.435
81.20000 21.311
81.22000 16.241
81.24000 16.667
81.26000 21.624
81.28000 18.336
81.30000 19.617
81.32000 22.468
81.34000 26.039
81.36000 25.688
81.38000 25.325
81.40000 26.912
81.42000 27.062
81.44000 26.376
81.46000 28.954
81.48000 29.304
81.50000 24.346
81.52000 26.910
81.54000 32.077
81.56000 29.558
81.58000 28.468
81.60000 24.824
81.62000 25.917
81.64000 23.985
81.66000 24.468
81.68000 24.760
81.70000 27.820
81.72000 26.476
81.74000 24.881
81.76000 23.024
81.78000 20.202
81.80000 23.918
81.82000 24.714
81.84000 20.198
81.86000 18.754
81.88000 17.754
81.90000 19.986
81.92000 19.760
81.94000 23.061
81.96000 20.611
81.98000 19.318
82.00000 17.143
82.02000 17.851
82.04000 16.354
82.06000 14.386
82.08000 17.257
82.10000 14.147
82.12000 9.162
82.14000 12.197
82.16000 10.722
82.18000 9.259
82.20000 6.408
82.22000 7.313
82.24000 9.424
82.26000 9.924
82.28000 8.368
82.30000 8.111
82.32000 12.599
82.34000 9.373
82.36000 5.779
82.38000 8.231
82.40000 7.187
82.42000 6.357
82.44000 7.503
82.46000 6.475
82.48000 7.216
82.50000 5.046
82.52000 4.109
82.54000 5.074
82.56000 0.362
82.58000 5.373
82.60000 8.682
82.62000 4.571
82.64000 6.466
82.66000 7.094
82.68000 8.084
82.70000 8.131
82.72000 6.187
82.74000 3.664
82.76000 1.132
82.78000 0.933
82.80000 0.278
82.82000 0.244
82.84000 0.823
82.86000 0.949
82.88000 4.751
82.90000 5.347
82.92000 4.002
82.94000 -0.676
82.96000 -2.127
82.98000 -1.506
83.00000 2.382
83.02000 2.618
83.04000 0.366
83.06000 4.566
83.08000 3.357
83.10000 -1.451
83.12000 -2.113
83.14000 1.789
83.16000 6.322
83.18000 5.185
83.20000 1.739
83.22000 1.785
83.24000 2.654
83.26000 2.945
83.28000 1.838
83.30000 0.893
83.32000 -2.116
83.34000 -1.452
83.36000 1.657
83.38000 3.069
83.40000 1.939
83.42000 3.262
83.44000 -0.425
83.46000 -1.089
83.48000 1.395
83.50000 1.181
83.52000 1.805
83.54000 2.615
83.56000 3.859
83.58000 3.128
83.60000 4.275
83.62000 4.241
83.64000 -0.127
83.66000 -2.113
83.68000 1.592
83.70000 0.958
83.72000 -0.461
83.74000 1.087
83.76000 4.588
83.78000 4.435
83.80000 3.906
83.82000 3.280
83.84000 2.176
83.86000 0.215
83.88000 -2.124
83.90000 -2.125
83.92000 0.163
83.94000 -0.601
83.96000 1.707
83.98000 -0.212
84.00000 2.544
84.02000 3.907
84.04000 4.073
84.06000 3.685
84.08000 0.431
84.10000 1.452
84.12000 1.257
84.14000 1.785
84.16000 5.715
84.18000 3.558
84.20000 1.693
84.22000 0.632
84.24000 3.879
84.26000 2.328
84.28000 1.188
84.30000 -0.044
84.32000 2.772
84.34000 3.680
84.36000 5.199
84.38000 3.787
84.40000 6.819
84.42000 5.820
84.44000 2.984
84.46000 3.848
84.48000 1.962
84.50000 3.151
84.52000 8.730
84.54000 7.140
84.56000 8.205
84.58000 6.218
84.60000 6.126
84.62000 6.420
84.64000 9.006
84.66000 7.995
84.68000 9.101
84.70000 13.779
84.72000 16.978
84.74000 15.295
84.76000 13.813
84.78000 9.089
84.80000 14.964
84.82000 11.795
84.84000 13.786
84.86000 13.884
84.88000 16.000
84.90000 13.633
84.92000 19.934
84.94000 19.423
84.96000 18.742
84.98000 20.382
85.00000 18.398
85.02000 17.147
85.04000 20.756
85.06000 23.611
85.08000 21.396
85.10000 22.288
85.12000 26.363
85.14000 23.660
85.16000 25.881
85.18000 22.639
85.20000 21.569
85.22000 23.619
85.24000 23.204
85.26000 24.465
85.28000 23.903
85.30000 28.200
85.32000 30.729
85.34000 29.320
85.36000 26.135
85.38000 28.134
85.40000 30.576
85.42000 29.262
85.44000 23.897
85.46000 26.030
85.48000 29.507
85.50000 27.324
85.52000 24.195
85.54000 22.634
85.56000 24.549
85.58000 28.914
85.60000 26.635
85.62000 28.817
85.64000 29.016
85.66000 26.650
85.68000 27.326
85.70000 24.680
85.72000 23.851
85.74000 23.128
85.76000 22.609
85.78000 20.030
85.80000 26.832
85.82000 25.731
85.84000 21.611
85.86000 20.183
85.88000 21.386
85.90000 21.819
85.92000 18.301
85.94000 17.342
85.96000 19.198
85.98000 21.320
86.00000 19.689
86.02000 15.366
86.04000 14.992
86.06000 17.557
86.08000 14.219
86.10000 17.977
86.12000 15.577
86.14000 15.006
86.16000 10.867
86.18000 13.187
86.20000 10.969
86.22000 7.492
86.24000 8.801
86.26000 9.027
86.28000 5.991
86.30000 7.696
86.32000 5.533
86.34000 5.792
86.36000 4.050
86.38000 4.076
86.40000 5.855
86.42000 6.287
86.44000 7.186
86.46000 7.984
86.48000 7.832
86.50000 5.105
86.52000 1.958
86.54000 1.233
86.56000 2.260
86.58000 -0.056
86.60000 1.648
86.62000 2.388
86.64000 2.287
86.66000 0.929
86.68000 0.564
86.70000 0.624
86.72000 1.947
86.74000 3.272
86.76000 1.032
86.78000 0.134
86.80000 3.362
86.82000 2.639
86.84000 1.502
86.86000 3.464
86.88000 0.724
86.90000 0.373
86.92000 0.973
86.94000 2.202
86.96000 0.714
86.98000 -1.128
87.00000 -1.939
87.02000 -0.802
87.04000 0.193
87.06000 1.639
87.08000 3.263
87.10000 2.339
87.12000 3.659
87.14000 3.260
87.16000 0.101
87.18000 0.488
87.20000 1.140
87.22000 1.113
87.24000 4.258
87.26000 4.126
87.28000 4.120
87.30000 0.143
87.32000 -1.868
87.34000 2.284
87.36000 3.444
87.38000 4.974
87.40000 0.846
87.42000 -0.369
87.44000 1.906
87.46000 5.842
87.48000 4.188
87.50000 1.897
87.52000 2.200
87.54000 3.610
87.56000 5.839
87.58000 4.715
87.60000 3.993
87.62000 3.238
87.64000 3.906
87.66000 3.056
87.68000 4.205
87.70000 3.960
87.72000 3.559
87.74000 1.666
87.76000 -1.834
87.78000 -1.706
87.80000 -1.603
87.82000 -0.051
87.84000 3.618
87.86000 5.515
87.88000 2.557
87.90000 2.557
87.92000 2.399
87.94000 0.287
87.96000 1.645
87.98000 0.681
88.00000 3.127
88.02000 2.971
88.04000 3.104
88.06000 2.743
88.08000 0.236
88.10000 3.888
88.12000 3.637
88.14000 3.371
88.16000 -0.112
88.18000 -0.336
88.20000 -1.148
88.22000 0.827
88.24000 3.206
88.26000 2.260
88.28000 5.025
88.30000 2.192
88.32000 1.063
88.34000 1.422
88.36000 1.291
88.38000 0.616
88.40000 1.066
88.42000 3.477
88.44000 4.518
88.46000 1.984
88.48000 1.548
88.50000 -0.587
88.52000 0.691
88.54000 3.311
88.56000 3.878
88.58000 3.157
88.60000 0.410
88.62000 1.917
88.64000 -0.548
88.66000 0.706
88.68000 3.787
88.70000 1.965
88.72000 2.070
88.74000 0.465
88.76000 2.775
88.78000 2.771
88.80000 5.365
88.82000 2.419
88.84000 0.663
88.86000 0.582
88.88000 0.028
88.90000 3.078
88.92000 5.310
88.94000 2.573
88.96000 0.753
88.98000 2.063
89.00000 0.769
89.02000 2.882
89.04000 2.419
89.06000 3.673
89.08000 0.217
89.10000 1.882
89.12000 4.138
89.14000 2.118
89.16000 -1.799
89.18000 -0.719
89.20000 0.634
89.22000 0.744
89.24000 1.244
89.26000 0.374
89.28000 0.800
89.30000 0.950
89.32000 1.022
89.34000 0.411
89.36000 5.731
89.38000 3.455
89.40000 2.094
89.42000 -0.651
89.44000 -0.586
89.46000 0.300
89.48000 3.600
89.50000 5.262
89.52000 2.647
89.54000 1.287
89.56000 2.630
89.58000 3.253
89.60000 -0.886
89.62000 -1.502
89.64000 1.641
89.66000 2.263
89.68000 1.984
89.70000 1.554
89.72000 2.620
89.74000 3.296
89.76000 3.896
89.78000 4.226
89.80000 0.809
89.82000 0.073
89.84000 -0.718
89.86000 0.318
89.88000 2.117
89.90000 3.522
89.92000 3.570
89.94000 1.135
89.96000 2.867
89.98000 2.934
90.00000 0.307
90.02000 -0.056
90.04000 1.068
90.06000 0.690
90.08000 2.411
90.10000 3.762
90.12000 0.781
90.14000 -1.232
90.16000 0.691
90.18000 1.322
90.20000 1.106
90.22000 6.568
90.24000 2.759
90.26000 0.779
90.28000 3.252
90.30000 5.041
90.32000 0.714
90.34000 -1.804
90.36000 1.738
90.38000 5.009
90.40000 1.793
90.42000 5.038
90.44000 3.093
90.46000 1.357
90.48000 2.145
90.50000 0.531
90.52000 -0.254
90.54000 2.029
90.56000 2.113
90.58000 2.417
90.60000 0.535
90.62000 0.457
90.64000 1.155
90.66000 1.077
90.68000 3.053
90.70000 2.747
90.72000 1.992
90.74000 4.604
90.76000 6.763
90.78000 4.811
90.80000 4.823
90.82000 4.859
90.84000 1.386
90.86000 0.898
90.88000 1.836
90.90000 -0.593
90.92000 0.456
90.94000 4.561
90.96000 4.441
90.98000 3.347
91.00000 2.525
91.02000 0.254
91.04000 0.360
91.06000 1.681
91.08000 1.141
91.10000 2.391
91.12000 3.099
91.14000 2.235
91.16000 1.289
91.18000 3.046
91.20000 0.973
91.22000 -0.042
91.24000 0.835
91.26000 1.225
91.28000 5.806
91.30000 4.718
91.32000 4.363
91.34000 5.417
91.36000 3.489
91.38000 3.467
91.40000 3.625
91.42000 1.502
91.44000 4.281
91.46000 5.960
91.48000 4.868
91.50000 3.211
91.52000 5.808
91.54000 6.334
91.56000 2.754
91.58000 -1.787
91.60000 0.991
91.62000 2.887
91.64000 2.733
91.66000 4.116
91.68000 6.902
91.70000 7.722
91.72000 6.628
91.74000 6.000
91.76000 5.071
91.78000 -1.798
91.80000 1.226
91.82000 4.903
91.84000 4.602
91.86000 5.437
91.88000 4.681
91.90000 1.391
91.92000 3.293
91.94000 2.223
91.96000 1.805
91.98000 1.140
92.00000 0.959
92.02000 -1.289
92.04000 0.821
92.06000 -0.420
92.08000 -1.325
92.10000 0.189
92.12000 2.447
92.14000 3.452
92.16000 3.760
92.18000 0.797
92.20000 3.288
92.22000 2.836
92.24000 1.287
92.26000 1.097
92.28000 1.005
92.30000 3.776
92.32000 5.128
92.34000 5.448
92.36000 1.933
92.38000 0.609
92.40000 3.069
92.42000 2.385
92.44000 5.128
92.46000 -0.998
92.48000 -1.088
92.50000 1.165
92.52000 3.016
92.54000 2.471
92.56000 1.320
92.58000 -1.816
92.60000 1.020
92.62000 3.861
92.64000 1.267
92.66000 -0.216
92.68000 -0.277
92.70000 1.703
92.72000 1.161
92.74000 2.192
92.76000 2.246
92.78000 2.712
92.80000 1.571
92.82000 1.098
92.84000 0.713
92.86000 4.885
92.88000 7.161
92.90000 3.493
92.92000 0.276
92.94000 1.314
92.96000 4.080
92.98000 1.950
93.00000 1.666
93.02000 0.964
93.04000 1.662
93.06000 3.272
93.08000 2.402
93.10000 4.235
93.12000 3.688
93.14000 3.438
93.16000 1.035
93.18000 1.425
93.20000 3.778
93.22000 3.875
93.24000 3.834
93.26000 3.574
93.28000 2.098
93.30000 2.847
93.32000 5.172
93.34000 3.786
93.36000 3.759
93.38000 1.385
93.40000 4.036
93.42000 2.341
93.44000 0.973
93.46000 1.180
93.48000 1.194
93.50000 1.925
93.52000 -1.095
93.54000 -1.807
93.56000 -1.070
93.58000 3.699
93.60000 3.499
93.62000 0.853
93.64000 -0.154
93.66000 4.946
93.68000 6.358
93.70000 3.975
93.72000 4.181
93.74000 4.951
93.76000 2.350
93.78000 2.132
93.80000 2.765
93.82000 4.231
93.84000 2.539
93.86000 2.767
93.88000 5.120
93.90000 1.655
93.92000 2.453
93.94000 3.910
93.96000 5.429
93.98000 4.636
94.00000 6.019
94.02000 4.198
94.04000 5.494
94.06000 5.012
94.08000 2.319
94.10000 0.814
94.12000 2.199
94.14000 4.191
94.16000 -1.801
94.18000 -0.218
94.20000 2.488
94.22000 4.110
94.24000 2.106
94.26000 -0.151
94.28000 5.075
94.30000 6.376
94.32000 4.900
94.34000 2.180
94.36000 1.488
94.38000 -0.144
94.40000 8.223
94.42000 6.263
94.44000 7.177
94.46000 3.846
94.48000 6.371
94.50000 3.241
94.52000 5.295
94.54000 3.889
94.56000 1.214
94.58000 2.813
94.60000 2.835
94.62000 -1.476
94.64000 1.016
94.66000 2.312
94.68000 2.663
94.70000 4.951
94.72000 1.676
94.74000 1.533
94.76000 -0.218
94.78000 2.590
94.80000 0.376
94.82000 1.589
94.84000 3.940
94.86000 2.590
94.88000 1.609
94.90000 0.165
94.92000 -0.803
94.94000 2.959
94.96000 4.651
94.98000 2.446
95.00000 1.096
95.02000 3.551
95.04000 3.055
95.06000 -1.856
95.08000 -0.752
95.10000 3.785
95.12000 4.209
95.14000 1.528
95.16000 -0.469
95.18000 2.024
95.20000 0.833
95.22000 0.953
95.24000 2.656
95.26000 6.057
95.28000 6.109
95.30000 4.775
95.32000 6.504
95.34000 2.375
95.36000 -0.420
95.38000 3.503
95.40000 5.663
95.42000 1.985
95.44000 0.834
95.46000 1.349
95.48000 -0.216
95.50000 0.437
95.52000 5.342
95.54000 5.822
95.56000 2.015
95.58000 4.249
95.60000 1.183
95.62000 -1.813
95.64000 -1.849
95.66000 0.363
95.68000 3.850
95.70000 0.493
95.72000 0.013
95.74000 2.034
95.76000 2.361
95.78000 -1.144
95.80000 2.929
95.82000 3.007
95.84000 2.856
95.86000 3.454
95.88000 2.454
95.90000 3.075
95.92000 2.831
95.94000 1.997
95.96000 1.162
95.98000 1.886
96.00000 -1.061
96.02000 4.021
96.04000 1.977
96.06000 -0.929
96.08000 2.986
96.10000 6.956
96.12000 3.364
96.14000 2.011
96.16000 2.098
96.18000 1.904
96.20000 3.208
96.22000 2.973
96.24000 -1.346
96.26000 0.278
96.28000 0.537
96.30000 3.890
96.32000 1.181
96.34000 2.481
96.36000 2.989
96.38000 3.004
96.40000 0.091
96.42000 4.105
96.44000 4.092
96.46000 3.220
96.48000 2.245
96.50000 0.792
96.52000 -1.822
96.54000 0.479
96.56000 1.294
96.58000 4.490
96.60000 5.061
96.62000 4.778
96.64000 2.656
96.66000 0.397
96.68000 2.455
96.70000 8.008
96.72000 5.589
96.74000 0.381
96.76000 0.445
96.78000 1.455
96.80000 2.670
96.82000 4.818
96.84000 5.303
96.86000 1.457
96.88000 2.534
96.90000 3.085
96.92000 2.513
96.94000 0.873
96.96000 -0.390
96.98000 0.644
97.00000 2.473
97.02000 1.081
97.04000 3.487
97.06000 5.602
97.08000 7.918
97.10000 3.834
97.12000 3.907
97.14000 2.065
97.16000 3.356
97.18000 4.354
97.20000 3.549
97.22000 1.148
97.24000 4.217
97.26000 4.554
97.28000 -1.599
97.30000 -1.807
97.32000 1.768
97.34000 1.929
97.36000 0.881
97.38000 0.925
97.40000 4.302
97.42000 8.689
97.44000 7.602
97.46000 3.498
97.48000 3.979
97.50000 5.480
97.52000 3.024
97.54000 5.156
97.56000 5.316
97.58000 5.822
97.60000 1.306
97.62000 1.995
97.64000 2.280
97.66000 3.691
97.68000 5.703
97.70000 9.343
97.72000 4.077
97.74000 0.861
97.76000 3.220
97.78000 4.021
97.80000 -0.325
97.82000 -0.326
97.84000 4.993
97.86000 3.636
97.88000 7.776
97.90000 5.355
97.92000 4.976
97.94000 3.433
97.96000 5.262
97.98000 4.431
98.00000 3.779
98.02000 5.739
98.04000 5.785
98.06000 3.651
98.08000 5.401
98.10000 4.895
98.12000 2.651
98.14000 4.752
98.16000 3.105
98.18000 8.770
98.20000 5.331
98.22000 5.606
98.24000 -0.540
98.26000 -0.307
98.28000 -1.798
98.30000 -0.166
98.32000 1.350
98.34000 4.420
98.36000 2.881
98.38000 2.291
98.40000 2.807
98.42000 5.042
98.44000 5.596
98.46000 5.321
98.48000 2.489
98.50000 6.475
98.52000 5.054
98.54000 5.272
98.56000 2.479
98.58000 1.497
98.60000 -0.886
98.62000 2.508
98.64000 0.028
98.66000 -1.414
98.68000 3.684
98.70000 2.331
98.72000 4.133
98.74000 6.876
98.76000 6.096
98.78000 3.542
98.80000 2.643
98.82000 4.692
98.84000 5.919
98.86000 1.081
98.88000 1.825
98.90000 1.962
98.92000 1.638
98.94000 1.525
98.96000 -1.804
98.98000 2.061
99.00000 3.063
99.02000 2.582
99.04000 5.169
99.06000 0.630
99.08000 3.750
99.10000 11.424
99.12000 4.416
99.14000 6.833
99.16000 2.011
99.18000 2.488
99.20000 1.850
99.22000 3.774
99.24000 4.058
99.26000 1.769
99.28000 3.233
99.30000 5.434
99.32000 3.683
99.34000 10.261
99.36000 5.193
99.38000 2.718
99.40000 1.929
99.42000 4.381
99.44000 5.142
99.46000 3.949
99.48000 0.013
99.50000 9.946
99.52000 4.839
99.54000 5.966
99.56000 5.483
99.58000 2.442
99.60000 1.005
99.62000 -1.791
99.64000 8.276
99.66000 8.009
99.68000 6.015
99.70000 3.388
99.72000 3.501
99.74000 8.351
99.76000 14.248
99.78000 5.693
99.80000 -1.099
99.82000 3.674
99.84000 6.566
99.86000 8.423
99.88000 4.648
99.90000 -1.778
99.92000 -1.808
99.94000 2.315
99.96000 -1.899
99.98000 0.000
