'Id: "0011388" Comment: "Integrate frame 0011388_Au-Ir-Rh_Rh-rich_XRD-Mapping-259-0000.gfrmwith cursor Wedge Cursor #5" Operator: "B?rgel" Anode: "Cu" Wavelength: "1.5406" Scantype: "2Theta (TwoTheta)" TimePerStep: "1" X: "40.5" Y: "18" Z: "5.95" 
10.00000 0.000
10.02000 -3.057
10.04000 1.130
10.06000 9.635
10.08000 4.855
10.10000 15.636
10.12000 2.787
10.14000 5.911
10.16000 11.761
10.18000 2.067
10.20000 2.613
10.22000 0.288
10.24000 -3.122
10.26000 6.541
10.28000 14.887
10.30000 20.299
10.32000 16.512
10.34000 9.199
10.36000 15.736
10.38000 9.872
10.40000 14.497
10.42000 22.888
10.44000 23.602
10.46000 27.777
10.48000 18.006
10.50000 19.427
10.52000 6.928
10.54000 15.203
10.56000 20.462
10.58000 24.269
10.60000 26.848
10.62000 25.928
10.64000 21.892
10.66000 17.501
10.68000 26.119
10.70000 18.607
10.72000 12.140
10.74000 23.456
10.76000 28.284
10.78000 22.039
10.80000 20.679
10.82000 20.119
10.84000 23.940
10.86000 22.838
10.88000 29.472
10.90000 30.244
10.92000 29.208
10.94000 31.606
10.96000 28.679
10.98000 32.374
11.00000 28.682
11.02000 26.643
11.04000 23.974
11.06000 20.141
11.08000 21.155
11.10000 29.297
11.12000 30.501
11.14000 32.280
11.16000 34.223
11.18000 36.170
11.20000 36.279
11.22000 50.102
11.24000 50.955
11.26000 38.239
11.28000 31.971
11.30000 37.301
11.32000 37.716
11.34000 46.180
11.36000 38.027
11.38000 35.175
11.40000 36.565
11.42000 31.360
11.44000 43.973
11.46000 42.013
11.48000 35.664
11.50000 36.205
11.52000 38.571
11.54000 41.080
11.56000 34.073
11.58000 38.371
11.60000 41.284
11.62000 42.380
11.64000 46.541
11.66000 42.880
11.68000 30.470
11.70000 35.702
11.72000 37.654
11.74000 43.159
11.76000 39.340
11.78000 33.355
11.80000 37.296
11.82000 47.573
11.84000 47.465
11.86000 47.942
11.88000 45.872
11.90000 35.085
11.92000 44.862
11.94000 39.925
11.96000 34.480
11.98000 47.293
12.00000 41.766
12.02000 36.165
12.04000 44.229
12.06000 50.863
12.08000 45.170
12.10000 41.524
12.12000 42.129
12.14000 40.682
12.16000 44.047
12.18000 40.834
12.20000 30.970
12.22000 35.948
12.24000 43.012
12.26000 46.478
12.28000 47.388
12.30000 49.393
12.32000 47.364
12.34000 44.034
12.36000 47.414
12.38000 44.569
12.40000 46.674
12.42000 41.691
12.44000 37.734
12.46000 48.060
12.48000 42.067
12.50000 41.972
12.52000 37.983
12.54000 32.628
12.56000 51.841
12.58000 47.040
12.60000 53.994
12.62000 51.198
12.64000 49.849
12.66000 48.624
12.68000 44.782
12.70000 50.427
12.72000 52.674
12.74000 48.766
12.76000 47.712
12.78000 52.467
12.80000 53.771
12.82000 55.617
12.84000 47.340
12.86000 43.154
12.88000 46.448
12.90000 44.611
12.92000 45.656
12.94000 51.266
12.96000 46.136
12.98000 37.490
13.00000 47.670
13.02000 56.588
13.04000 50.695
13.06000 51.657
13.08000 38.400
13.10000 40.377
13.12000 43.826
13.14000 53.017
13.16000 53.308
13.18000 51.526
13.20000 47.197
13.22000 40.395
13.24000 46.901
13.26000 43.232
13.28000 44.993
13.30000 45.683
13.32000 47.660
13.34000 48.243
13.36000 43.711
13.38000 41.961
13.40000 39.887
13.42000 41.134
13.44000 43.430
13.46000 39.125
13.48000 43.055
13.50000 43.175
13.52000 34.846
13.54000 45.193
13.56000 47.420
13.58000 46.322
13.60000 37.860
13.62000 45.214
13.64000 44.003
13.66000 41.059
13.68000 34.780
13.70000 37.105
13.72000 32.618
13.74000 36.633
13.76000 40.904
13.78000 37.441
13.80000 43.817
13.82000 43.818
13.84000 47.680
13.86000 49.819
13.88000 46.385
13.90000 43.464
13.92000 40.019
13.94000 36.484
13.96000 41.457
13.98000 45.796
14.00000 34.272
14.02000 40.303
14.04000 43.728
14.06000 39.644
14.08000 33.974
14.10000 35.999
14.12000 44.422
14.14000 42.189
14.16000 42.246
14.18000 45.253
14.20000 41.913
14.22000 33.791
14.24000 39.210
14.26000 27.921
14.28000 32.802
14.30000 35.119
14.32000 42.681
14.34000 52.099
14.36000 45.703
14.38000 41.689
14.40000 36.693
14.42000 38.009
14.44000 33.010
14.46000 31.399
14.48000 32.893
14.50000 32.171
14.52000 29.941
14.54000 32.253
14.56000 34.830
14.58000 28.147
14.60000 30.393
14.62000 36.866
14.64000 37.667
14.66000 34.418
14.68000 32.973
14.70000 31.662
14.72000 37.898
14.74000 38.743
14.76000 29.686
14.78000 39.196
14.80000 36.930
14.82000 33.313
14.84000 35.921
14.86000 29.352
14.88000 31.222
14.90000 32.082
14.92000 41.324
14.94000 33.790
14.96000 26.262
14.98000 29.675
15.00000 34.344
15.02000 27.445
15.04000 25.976
15.06000 33.307
15.08000 39.974
15.10000 34.292
15.12000 18.670
15.14000 18.512
15.16000 18.223
15.18000 28.140
15.20000 33.584
15.22000 30.995
15.24000 33.398
15.26000 32.826
15.28000 35.426
15.30000 31.590
15.32000 23.876
15.34000 24.540
15.36000 28.888
15.38000 28.018
15.40000 25.755
15.42000 24.617
15.44000 23.433
15.46000 20.530
15.48000 28.186
15.50000 28.116
15.52000 32.432
15.54000 29.535
15.56000 23.852
15.58000 28.204
15.60000 28.596
15.62000 32.276
15.64000 29.749
15.66000 17.912
15.68000 20.383
15.70000 28.216
15.72000 27.660
15.74000 21.660
15.76000 14.661
15.78000 22.657
15.80000 22.555
15.82000 24.886
15.84000 21.813
15.86000 25.253
15.88000 25.291
15.90000 21.012
15.92000 22.565
15.94000 15.948
15.96000 14.282
15.98000 21.763
16.00000 22.887
16.02000 18.386
16.04000 19.009
16.06000 15.763
16.08000 13.539
16.10000 17.871
16.12000 21.349
16.14000 19.048
16.16000 18.989
16.18000 24.337
16.20000 24.220
16.22000 27.825
16.24000 29.052
16.26000 24.334
16.28000 21.322
16.30000 16.798
16.32000 17.482
16.34000 8.088
16.36000 11.396
16.38000 18.780
16.40000 21.333
16.42000 13.831
16.44000 23.973
16.46000 17.858
16.48000 13.727
16.50000 25.339
16.52000 26.216
16.54000 16.935
16.56000 16.200
16.58000 14.297
16.60000 9.141
16.62000 14.744
16.64000 16.741
16.66000 7.501
16.68000 4.272
16.70000 9.402
16.72000 14.333
16.74000 16.443
16.76000 16.484
16.78000 10.575
16.80000 20.912
16.82000 14.837
16.84000 12.932
16.86000 18.735
16.88000 16.411
16.90000 14.305
16.92000 15.135
16.94000 16.911
16.96000 15.556
16.98000 13.971
17.00000 13.582
17.02000 18.593
17.04000 11.957
17.06000 11.728
17.08000 10.255
17.10000 12.454
17.12000 16.089
17.14000 17.753
17.16000 13.924
17.18000 14.128
17.20000 18.570
17.22000 17.887
17.24000 12.730
17.26000 9.539
17.28000 12.370
17.30000 13.209
17.32000 12.248
17.34000 5.789
17.36000 9.827
17.38000 13.985
17.40000 14.064
17.42000 13.945
17.44000 16.881
17.46000 10.496
17.48000 14.439
17.50000 14.608
17.52000 11.014
17.54000 13.893
17.56000 11.422
17.58000 5.962
17.60000 8.570
17.62000 12.696
17.64000 14.793
17.66000 18.226
17.68000 13.934
17.70000 7.263
17.72000 5.641
17.74000 13.379
17.76000 9.119
17.78000 9.425
17.80000 5.583
17.82000 8.065
17.84000 9.141
17.86000 2.950
17.88000 4.741
17.90000 11.529
17.92000 10.623
17.94000 12.359
17.96000 12.221
17.98000 12.183
18.00000 14.545
18.02000 11.623
18.04000 13.540
18.06000 15.250
18.08000 15.158
18.10000 9.252
18.12000 13.171
18.14000 7.044
18.16000 7.769
18.18000 7.744
18.20000 7.547
18.22000 5.210
18.24000 7.614
18.26000 10.143
18.28000 12.835
18.30000 10.565
18.32000 10.457
18.34000 13.350
18.36000 14.566
18.38000 17.316
18.40000 15.327
18.42000 19.076
18.44000 8.529
18.46000 8.612
18.48000 8.350
18.50000 13.823
18.52000 9.743
18.54000 7.786
18.56000 13.691
18.58000 12.616
18.60000 9.617
18.62000 7.021
18.64000 10.180
18.66000 8.581
18.68000 7.058
18.70000 15.108
18.72000 8.713
18.74000 10.320
18.76000 9.983
18.78000 8.711
18.80000 -0.123
18.82000 -4.250
18.84000 4.710
18.86000 10.406
18.88000 9.481
18.90000 14.145
18.92000 9.380
18.94000 8.631
18.96000 12.006
18.98000 9.593
19.00000 9.520
19.02000 13.032
19.04000 10.248
19.06000 4.523
19.08000 8.119
19.10000 11.353
19.12000 10.143
19.14000 12.241
19.16000 10.614
19.18000 13.456
19.20000 10.257
19.22000 13.502
19.24000 15.407
19.26000 12.859
19.28000 8.240
19.30000 9.242
19.32000 8.666
19.34000 9.985
19.36000 11.386
19.38000 3.885
19.40000 0.902
19.42000 6.873
19.44000 8.834
19.46000 10.033
19.48000 6.510
19.50000 9.477
19.52000 5.978
19.54000 10.702
19.56000 12.936
19.58000 3.271
19.60000 3.741
19.62000 9.447
19.64000 4.175
19.66000 6.557
19.68000 8.109
19.70000 4.692
19.72000 7.102
19.74000 10.104
19.76000 9.654
19.78000 9.402
19.80000 5.336
19.82000 7.705
19.84000 12.899
19.86000 11.000
19.88000 12.037
19.90000 7.077
19.92000 6.956
19.94000 -1.544
19.96000 -4.207
19.98000 4.127
20.00000 7.517
20.02000 9.060
20.04000 8.493
20.06000 6.492
20.08000 4.790
20.10000 8.050
20.12000 9.931
20.14000 9.608
20.16000 3.797
20.18000 5.839
20.20000 5.781
20.22000 8.817
20.24000 0.925
20.26000 -1.299
20.28000 -2.456
20.30000 4.599
20.32000 10.450
20.34000 9.164
20.36000 5.871
20.38000 8.358
20.40000 5.301
20.42000 2.488
20.44000 0.980
20.46000 5.465
20.48000 12.241
20.50000 3.658
20.52000 5.273
20.54000 3.930
20.56000 2.642
20.58000 1.594
20.60000 7.640
20.62000 4.244
20.64000 7.521
20.66000 5.117
20.68000 1.495
20.70000 0.604
20.72000 -4.199
20.74000 7.143
20.76000 4.658
20.78000 9.435
20.80000 6.780
20.82000 7.141
20.84000 5.360
20.86000 0.680
20.88000 4.710
20.90000 7.240
20.92000 -2.151
20.94000 -0.622
20.96000 4.542
20.98000 5.534
21.00000 7.521
21.02000 11.968
21.04000 8.034
21.06000 3.541
21.08000 -4.190
21.10000 0.127
21.12000 1.012
21.14000 -0.033
21.16000 0.735
21.18000 4.233
21.20000 9.077
21.22000 6.067
21.24000 5.009
21.26000 2.537
21.28000 6.789
21.30000 9.262
21.32000 3.088
21.34000 4.901
21.36000 -0.336
21.38000 0.625
21.40000 5.674
21.42000 5.036
21.44000 5.399
21.46000 6.986
21.48000 1.713
21.50000 9.310
21.52000 13.959
21.54000 13.307
21.56000 1.796
21.58000 -2.280
21.60000 2.277
21.62000 6.031
21.64000 9.933
21.66000 10.558
21.68000 5.915
21.70000 8.586
21.72000 6.691
21.74000 7.303
21.76000 5.836
21.78000 3.551
21.80000 3.346
21.82000 1.711
21.84000 4.654
21.86000 4.535
21.88000 8.176
21.90000 7.496
21.92000 8.013
21.94000 8.651
21.96000 7.261
21.98000 8.355
22.00000 9.349
22.02000 10.642
22.04000 4.299
22.06000 8.639
22.08000 9.843
22.10000 3.762
22.12000 4.583
22.14000 7.091
22.16000 7.841
22.18000 5.599
22.20000 3.294
22.22000 4.557
22.24000 4.582
22.26000 3.965
22.28000 3.449
22.30000 -0.620
22.32000 3.008
22.34000 7.862
22.36000 13.405
22.38000 14.589
22.40000 6.268
22.42000 -0.355
22.44000 -2.618
22.46000 -0.605
22.48000 2.699
22.50000 2.503
22.52000 5.619
22.54000 12.721
22.56000 6.849
22.58000 4.424
22.60000 4.242
22.62000 7.042
22.64000 8.690
22.66000 9.718
22.68000 6.496
22.70000 2.185
22.72000 -0.007
22.74000 3.379
22.76000 -1.817
22.78000 1.342
22.80000 15.129
22.82000 9.462
22.84000 8.107
22.86000 10.336
22.88000 8.436
22.90000 6.735
22.92000 3.572
22.94000 6.778
22.96000 6.284
22.98000 5.606
23.00000 6.544
23.02000 7.228
23.04000 8.550
23.06000 9.811
23.08000 7.803
23.10000 6.230
23.12000 6.322
23.14000 1.043
23.16000 -4.031
23.18000 -0.938
23.20000 8.600
23.22000 5.408
23.24000 6.254
23.26000 3.855
23.28000 6.839
23.30000 5.350
23.32000 1.955
23.34000 3.581
23.36000 9.166
23.38000 3.738
23.40000 4.140
23.42000 2.586
23.44000 3.170
23.46000 5.599
23.48000 13.933
23.50000 6.442
23.52000 0.748
23.54000 1.018
23.56000 2.983
23.58000 5.471
23.60000 11.489
23.62000 14.926
23.64000 10.016
23.66000 7.055
23.68000 6.203
23.70000 6.600
23.72000 8.474
23.74000 9.398
23.76000 3.480
23.78000 2.506
23.80000 6.123
23.82000 5.545
23.84000 3.017
23.86000 7.809
23.88000 6.192
23.90000 9.105
23.92000 7.067
23.94000 6.434
23.96000 10.245
23.98000 7.128
24.00000 6.559
24.02000 4.803
24.04000 1.427
24.06000 5.189
24.08000 6.907
24.10000 1.831
24.12000 -1.138
24.14000 2.779
24.16000 2.664
24.18000 2.182
24.20000 8.564
24.22000 9.253
24.24000 5.512
24.26000 0.539
24.28000 -1.132
24.30000 3.881
24.32000 2.201
24.34000 2.311
24.36000 0.901
24.38000 -2.363
24.40000 1.976
24.42000 1.278
24.44000 3.705
24.46000 6.257
24.48000 2.571
24.50000 -1.574
24.52000 3.107
24.54000 0.131
24.56000 1.743
24.58000 5.393
24.60000 0.444
24.62000 0.043
24.64000 7.956
24.66000 7.636
24.68000 3.813
24.70000 5.039
24.72000 4.271
24.74000 5.754
24.76000 3.793
24.78000 4.902
24.80000 1.443
24.82000 0.908
24.84000 3.729
24.86000 5.106
24.88000 4.246
24.90000 8.817
24.92000 8.859
24.94000 4.714
24.96000 4.167
24.98000 5.682
25.00000 4.959
25.02000 5.668
25.04000 5.112
25.06000 2.429
25.08000 7.618
25.10000 6.348
25.12000 1.928
25.14000 -3.970
25.16000 0.954
25.18000 7.521
25.20000 6.832
25.22000 3.549
25.24000 -0.732
25.26000 4.518
25.28000 7.898
25.30000 7.855
25.32000 -0.051
25.34000 -3.957
25.36000 -3.956
25.38000 -1.016
25.40000 1.627
25.42000 2.210
25.44000 -3.441
25.46000 3.924
25.48000 5.397
25.50000 3.539
25.52000 4.556
25.54000 2.958
25.56000 3.958
25.58000 0.655
25.60000 -2.639
25.62000 -0.273
25.64000 0.176
25.66000 5.936
25.68000 5.932
25.70000 1.230
25.72000 2.468
25.74000 2.506
25.76000 2.172
25.78000 3.272
25.80000 8.521
25.82000 3.624
25.84000 4.945
25.86000 5.076
25.88000 5.910
25.90000 2.724
25.92000 -3.919
25.94000 -0.048
25.96000 -0.593
25.98000 5.579
26.00000 6.844
26.02000 4.152
26.04000 1.399
26.06000 -0.848
26.08000 0.074
26.10000 1.280
26.12000 4.086
26.14000 2.879
26.16000 1.120
26.18000 2.172
26.20000 1.851
26.22000 10.077
26.24000 11.068
26.26000 7.741
26.28000 5.423
26.30000 8.851
26.32000 6.679
26.34000 0.354
26.36000 6.684
26.38000 8.694
26.40000 8.593
26.42000 11.046
26.44000 9.654
26.46000 8.258
26.48000 5.828
26.50000 6.432
26.52000 1.217
26.54000 -0.222
26.56000 -2.080
26.58000 2.605
26.60000 5.828
26.62000 8.462
26.64000 8.319
26.66000 2.920
26.68000 5.557
26.70000 3.587
26.72000 1.976
26.74000 6.197
26.76000 5.233
26.78000 3.229
26.80000 2.848
26.82000 0.984
26.84000 -0.841
26.86000 3.097
26.88000 9.340
26.90000 8.583
26.92000 9.705
26.94000 9.511
26.96000 9.739
26.98000 3.256
27.00000 -3.823
27.02000 4.235
27.04000 9.245
27.06000 9.053
27.08000 -0.024
27.10000 6.027
27.12000 10.039
27.14000 9.104
27.16000 8.169
27.18000 4.094
27.20000 3.361
27.22000 6.813
27.24000 3.086
27.26000 2.461
27.28000 5.118
27.30000 6.941
27.32000 5.786
27.34000 9.979
27.36000 9.759
27.38000 5.701
27.40000 5.257
27.42000 5.296
27.44000 1.065
27.46000 1.977
27.48000 1.713
27.50000 3.172
27.52000 5.472
27.54000 5.337
27.56000 1.836
27.58000 5.282
27.60000 11.197
27.62000 7.986
27.64000 4.378
27.66000 2.303
27.68000 3.233
27.70000 6.672
27.72000 4.622
27.74000 6.033
27.76000 5.194
27.78000 -0.531
27.80000 3.706
27.82000 1.382
27.84000 3.342
27.86000 2.103
27.88000 5.478
27.90000 4.599
27.92000 4.095
27.94000 1.687
27.96000 -1.172
27.98000 2.453
28.00000 -0.344
28.02000 1.258
28.04000 -0.142
28.06000 -3.431
28.08000 0.623
28.10000 3.291
28.12000 -0.269
28.14000 -3.807
28.16000 1.701
28.18000 3.423
28.20000 6.261
28.22000 4.365
28.24000 6.598
28.26000 11.116
28.28000 6.995
28.30000 5.698
28.32000 3.641
28.34000 3.276
28.36000 6.479
28.38000 8.051
28.40000 0.199
28.42000 -2.513
28.44000 1.698
28.46000 3.939
28.48000 0.833
28.50000 3.874
28.52000 6.677
28.54000 4.098
28.56000 -1.794
28.58000 0.574
28.60000 -1.629
28.62000 1.962
28.64000 4.277
28.66000 6.505
28.68000 5.255
28.70000 -0.377
28.72000 1.926
28.74000 2.355
28.76000 4.198
28.78000 -0.055
28.80000 0.963
28.82000 0.262
28.84000 3.450
28.86000 8.785
28.88000 4.207
28.90000 6.180
28.92000 3.603
28.94000 0.522
28.96000 2.002
28.98000 0.864
29.00000 1.439
29.02000 2.406
29.04000 4.304
29.06000 0.492
29.08000 3.064
29.10000 1.774
29.12000 -3.780
29.14000 -3.630
29.16000 1.064
29.18000 -0.615
29.20000 3.836
29.22000 -1.019
29.24000 -2.723
29.26000 -2.839
29.28000 -1.499
29.30000 -1.828
29.32000 -1.320
29.34000 0.802
29.36000 2.124
29.38000 0.883
29.40000 -1.523
29.42000 3.437
29.44000 1.625
29.46000 -3.396
29.48000 1.063
29.50000 -1.871
29.52000 -2.296
29.54000 0.749
29.56000 2.282
29.58000 0.526
29.60000 1.785
29.62000 1.562
29.64000 -2.042
29.66000 -1.921
29.68000 4.573
29.70000 1.401
29.72000 1.022
29.74000 2.959
29.76000 1.637
29.78000 -2.078
29.80000 3.193
29.82000 1.592
29.84000 -1.387
29.86000 4.201
29.88000 2.620
29.90000 0.201
29.92000 0.539
29.94000 4.709
29.96000 4.025
29.98000 0.240
30.00000 -2.055
30.02000 4.221
30.04000 7.012
30.06000 6.036
30.08000 3.537
30.10000 3.756
30.12000 5.287
30.14000 2.841
30.16000 0.427
30.18000 4.130
30.20000 4.642
30.22000 2.902
30.24000 0.137
30.26000 4.468
30.28000 2.967
30.30000 0.571
30.32000 2.367
30.34000 -0.669
30.36000 -3.568
30.38000 0.674
30.40000 0.543
30.42000 1.441
30.44000 1.439
30.46000 -1.910
30.48000 0.253
30.50000 2.432
30.52000 1.099
30.54000 -1.947
30.56000 -1.158
30.58000 1.751
30.60000 3.013
30.62000 4.742
30.64000 2.590
30.66000 4.474
30.68000 1.089
30.70000 4.983
30.72000 2.121
30.74000 -1.264
30.76000 3.602
30.78000 -1.152
30.80000 -1.610
30.82000 6.446
30.84000 5.502
30.86000 8.182
30.88000 4.018
30.90000 -0.341
30.92000 -3.678
30.94000 -1.258
30.96000 -1.862
30.98000 3.873
31.00000 -0.987
31.02000 1.467
31.04000 1.986
31.06000 2.436
31.08000 0.720
31.10000 3.545
31.12000 4.479
31.14000 6.369
31.16000 3.655
31.18000 2.364
31.20000 2.371
31.22000 4.735
31.24000 -2.396
31.26000 2.989
31.28000 3.165
31.30000 5.195
31.32000 2.382
31.34000 2.044
31.36000 4.790
31.38000 6.922
31.40000 2.552
31.42000 6.343
31.44000 6.896
31.46000 5.426
31.48000 4.157
31.50000 6.288
31.52000 3.906
31.54000 2.901
31.56000 2.909
31.58000 1.813
31.60000 5.393
31.62000 2.554
31.64000 1.276
31.66000 1.606
31.68000 -3.637
31.70000 -2.481
31.72000 5.872
31.74000 8.937
31.76000 9.828
31.78000 4.688
31.80000 2.787
31.82000 0.253
31.84000 0.606
31.86000 -0.657
31.88000 2.518
31.90000 3.308
31.92000 5.508
31.94000 5.273
31.96000 2.930
31.98000 0.436
32.00000 1.847
32.02000 0.757
32.04000 4.196
32.06000 6.208
32.08000 1.545
32.10000 1.328
32.12000 2.170
32.14000 0.704
32.16000 1.093
32.18000 1.138
32.20000 3.518
32.22000 5.483
32.24000 4.907
32.26000 2.040
32.28000 2.462
32.30000 1.233
32.32000 0.485
32.34000 -1.292
32.36000 2.022
32.38000 -1.755
32.40000 -3.565
32.42000 -1.820
32.44000 -0.072
32.46000 1.284
32.48000 1.630
32.50000 -0.905
32.52000 -2.652
32.54000 -3.493
32.56000 -2.171
32.58000 -3.217
32.60000 -0.260
32.62000 3.726
32.64000 4.858
32.66000 2.158
32.68000 -0.310
32.70000 -0.073
32.72000 0.282
32.74000 1.856
32.76000 -2.238
32.78000 -3.624
32.80000 1.049
32.82000 3.281
32.84000 5.897
32.86000 9.292
32.88000 7.621
32.90000 3.050
32.92000 -0.274
32.94000 4.267
32.96000 4.212
32.98000 -0.783
33.00000 1.764
33.02000 2.497
33.04000 6.846
33.06000 -0.157
33.08000 -3.614
33.10000 3.621
33.12000 4.393
33.14000 4.055
33.16000 -1.435
33.18000 -2.886
33.20000 0.715
33.22000 3.784
33.24000 -0.776
33.26000 1.364
33.28000 4.794
33.30000 5.468
33.32000 6.130
33.34000 5.308
33.36000 3.193
33.38000 5.714
33.40000 3.052
33.42000 0.195
33.44000 1.552
33.46000 4.454
33.48000 4.114
33.50000 2.311
33.52000 -1.866
33.54000 1.908
33.56000 1.559
33.58000 3.241
33.60000 5.807
33.62000 4.271
33.64000 -2.972
33.66000 -3.548
33.68000 1.098
33.70000 3.253
33.72000 -0.198
33.74000 -1.026
33.76000 -0.492
33.78000 0.106
33.80000 3.577
33.82000 -0.911
33.84000 0.850
33.86000 5.666
33.88000 -0.184
33.90000 -0.743
33.92000 3.889
33.94000 7.062
33.96000 3.202
33.98000 0.360
34.00000 0.635
34.02000 -0.270
34.04000 5.959
34.06000 4.166
34.08000 2.860
34.10000 0.708
34.12000 -0.081
34.14000 2.267
34.16000 3.770
34.18000 2.859
34.20000 4.855
34.22000 10.916
34.24000 3.302
34.26000 4.091
34.28000 5.948
34.30000 7.976
34.32000 3.061
34.34000 3.610
34.36000 3.061
34.38000 1.021
34.40000 1.993
34.42000 0.204
34.44000 -2.595
34.46000 -3.553
34.48000 0.316
34.50000 3.308
34.52000 1.005
34.54000 5.045
34.56000 5.403
34.58000 0.822
34.60000 0.184
34.62000 1.956
34.64000 5.971
34.66000 3.406
34.68000 2.296
34.70000 -2.963
34.72000 -3.561
34.74000 2.835
34.76000 2.496
34.78000 3.890
34.80000 2.985
34.82000 5.117
34.84000 8.211
34.86000 3.446
34.88000 1.300
34.90000 -1.002
34.92000 3.885
34.94000 2.462
34.96000 5.196
34.98000 3.222
35.00000 -2.851
35.02000 1.227
35.04000 0.180
35.06000 1.889
35.08000 3.310
35.10000 4.037
35.12000 -0.373
35.14000 -2.778
35.16000 -1.795
35.18000 1.467
35.20000 6.235
35.22000 5.576
35.24000 1.018
35.26000 0.057
35.28000 1.565
35.30000 3.511
35.32000 2.480
35.34000 -3.548
35.36000 0.009
35.38000 1.427
35.40000 3.859
35.42000 4.936
35.44000 -2.881
35.46000 -0.028
35.48000 -0.245
35.50000 -0.774
35.52000 -3.553
35.54000 -1.066
35.56000 1.847
35.58000 2.530
35.60000 1.389
35.62000 0.634
35.64000 4.163
35.66000 7.130
35.68000 7.836
35.70000 4.602
35.72000 2.477
35.74000 -1.349
35.76000 -1.118
35.78000 0.367
35.80000 7.058
35.82000 3.855
35.84000 1.270
35.86000 1.896
35.88000 4.119
35.90000 -1.779
35.92000 -1.426
35.94000 1.430
35.96000 2.462
35.98000 3.957
36.00000 -1.323
36.02000 -3.561
36.04000 2.325
36.06000 -0.113
36.08000 4.211
36.10000 5.904
36.12000 3.143
36.14000 3.779
36.16000 4.064
36.18000 0.520
36.20000 2.150
36.22000 1.117
36.24000 4.131
36.26000 -0.662
36.28000 -0.417
36.30000 -1.202
36.32000 0.717
36.34000 1.286
36.36000 3.285
36.38000 2.350
36.40000 2.785
36.42000 0.692
36.44000 1.725
36.46000 3.018
36.48000 5.671
36.50000 3.806
36.52000 3.162
36.54000 2.752
36.56000 4.051
36.58000 5.698
36.60000 1.301
36.62000 -0.947
36.64000 1.294
36.66000 5.911
36.68000 2.096
36.70000 1.275
36.72000 3.827
36.74000 3.704
36.76000 0.059
36.78000 0.892
36.80000 -0.470
36.82000 -3.570
36.84000 -0.216
36.86000 4.053
36.88000 3.068
36.90000 -1.147
36.92000 -2.112
36.94000 0.991
36.96000 3.663
36.98000 5.853
37.00000 6.223
37.02000 5.837
37.04000 2.480
37.06000 3.854
37.08000 6.392
37.10000 3.084
37.12000 -2.014
37.14000 0.063
37.16000 1.103
37.18000 5.048
37.20000 4.848
37.22000 -2.223
37.24000 2.072
37.26000 7.028
37.28000 2.949
37.30000 -0.827
37.32000 1.122
37.34000 -0.790
37.36000 -3.595
37.38000 0.024
37.40000 3.023
37.42000 3.491
37.44000 4.316
37.46000 3.021
37.48000 -1.482
37.50000 2.110
37.52000 0.857
37.54000 1.192
37.56000 4.247
37.58000 3.060
37.60000 1.069
37.62000 4.120
37.64000 2.233
37.66000 -0.804
37.68000 3.887
37.70000 2.595
37.72000 2.781
37.74000 3.091
37.76000 3.239
37.78000 3.927
37.80000 6.744
37.82000 4.280
37.84000 4.013
37.86000 3.076
37.88000 9.780
37.90000 9.345
37.92000 5.900
37.94000 7.538
37.96000 3.919
37.98000 3.394
38.00000 4.291
38.02000 5.166
38.04000 4.637
38.06000 6.672
38.08000 6.997
38.10000 2.858
38.12000 4.535
38.14000 4.251
38.16000 6.106
38.18000 8.444
38.20000 8.541
38.22000 6.806
38.24000 7.464
38.26000 9.089
38.28000 13.424
38.30000 14.132
38.32000 10.405
38.34000 13.495
38.36000 10.934
38.38000 11.940
38.40000 8.287
38.42000 11.360
38.44000 11.696
38.46000 12.706
38.48000 16.608
38.50000 16.505
38.52000 21.143
38.54000 17.176
38.56000 15.467
38.58000 18.672
38.60000 17.906
38.62000 23.908
38.64000 21.859
38.66000 19.758
38.68000 20.480
38.70000 29.050
38.72000 29.790
38.74000 19.039
38.76000 19.467
38.78000 19.406
38.80000 27.647
38.82000 24.443
38.84000 26.203
38.86000 25.379
38.88000 23.593
38.90000 25.010
38.92000 27.032
38.94000 30.064
38.96000 28.121
38.98000 24.004
39.00000 25.998
39.02000 26.426
39.04000 30.756
39.06000 35.457
39.08000 33.555
39.10000 37.884
39.12000 36.549
39.14000 36.353
39.16000 44.116
39.18000 39.495
39.20000 37.316
39.22000 43.455
39.24000 42.848
39.26000 46.959
39.28000 46.624
39.30000 48.594
39.32000 50.615
39.34000 51.301
39.36000 50.807
39.38000 52.876
39.40000 59.678
39.42000 68.022
39.44000 73.321
39.46000 70.486
39.48000 69.455
39.50000 71.385
39.52000 74.891
39.54000 80.518
39.56000 82.678
39.58000 86.205
39.60000 87.614
39.62000 90.293
39.64000 100.614
39.66000 102.664
39.68000 100.054
39.70000 111.286
39.72000 120.132
39.74000 118.954
39.76000 117.148
39.78000 128.931
39.80000 140.579
39.82000 146.664
39.84000 152.880
39.86000 170.081
39.88000 177.569
39.90000 183.416
39.92000 183.859
39.94000 191.799
39.96000 199.321
39.98000 214.327
40.00000 229.204
40.02000 233.284
40.04000 240.284
40.06000 254.505
40.08000 275.371
40.10000 292.283
40.12000 298.847
40.14000 316.808
40.16000 330.028
40.18000 343.082
40.20000 363.085
40.22000 374.980
40.24000 395.586
40.26000 418.011
40.28000 424.702
40.30000 438.082
40.32000 468.996
40.34000 490.704
40.36000 498.333
40.38000 533.146
40.40000 559.332
40.42000 572.928
40.44000 598.557
40.46000 617.072
40.48000 630.809
40.50000 639.464
40.52000 656.746
40.54000 685.847
40.56000 702.896
40.58000 716.689
40.60000 731.948
40.62000 744.994
40.64000 764.816
40.66000 760.953
40.68000 754.100
40.70000 760.534
40.72000 765.836
40.74000 775.353
40.76000 769.932
40.78000 761.948
40.80000 755.667
40.82000 745.352
40.84000 738.946
40.86000 722.174
40.88000 705.192
40.90000 687.376
40.92000 674.845
40.94000 655.940
40.96000 640.291
40.98000 630.019
41.00000 616.176
41.02000 590.441
41.04000 559.769
41.06000 539.888
41.08000 515.282
41.10000 495.132
41.12000 463.515
41.14000 441.515
41.16000 433.343
41.18000 405.726
41.20000 389.390
41.22000 371.116
41.24000 347.481
41.26000 334.125
41.28000 326.219
41.30000 307.400
41.32000 285.915
41.34000 274.723
41.36000 257.458
41.38000 243.585
41.40000 225.225
41.42000 215.793
41.44000 202.791
41.46000 191.522
41.48000 178.457
41.50000 173.802
41.52000 170.813
41.54000 161.687
41.56000 145.874
41.58000 140.415
41.60000 138.492
41.62000 131.033
41.64000 121.549
41.66000 112.643
41.68000 107.149
41.70000 103.055
41.72000 102.601
41.74000 97.414
41.76000 86.326
41.78000 78.744
41.80000 76.537
41.82000 75.865
41.84000 77.320
41.86000 69.919
41.88000 62.274
41.90000 61.613
41.92000 54.383
41.94000 50.425
41.96000 55.073
41.98000 51.211
42.00000 46.771
42.02000 45.693
42.04000 45.356
42.06000 43.427
42.08000 41.960
42.10000 39.604
42.12000 36.316
42.14000 34.631
42.16000 30.882
42.18000 28.866
42.20000 31.915
42.22000 28.706
42.24000 28.661
42.26000 23.959
42.28000 24.606
42.30000 23.225
42.32000 13.852
42.34000 17.179
42.36000 20.432
42.38000 15.691
42.40000 19.856
42.42000 17.460
42.44000 21.143
42.46000 16.442
42.48000 13.759
42.50000 16.592
42.52000 19.178
42.54000 16.994
42.56000 12.970
42.58000 10.147
42.60000 11.429
42.62000 9.088
42.64000 10.512
42.66000 13.205
42.68000 10.805
42.70000 5.488
42.72000 3.704
42.74000 9.170
42.76000 7.157
42.78000 5.742
42.80000 6.325
42.82000 6.839
42.84000 6.782
42.86000 4.779
42.88000 1.925
42.90000 1.081
42.92000 3.942
42.94000 4.502
42.96000 6.196
42.98000 6.812
43.00000 2.029
43.02000 2.417
43.04000 4.357
43.06000 5.839
43.08000 3.221
43.10000 0.759
43.12000 0.659
43.14000 0.111
43.16000 2.539
43.18000 4.050
43.20000 1.808
43.22000 -2.687
43.24000 -3.684
43.26000 1.680
43.28000 4.585
43.30000 2.013
43.32000 7.584
43.34000 6.394
43.36000 5.060
43.38000 6.452
43.40000 -1.004
43.42000 3.543
43.44000 7.124
43.46000 1.341
43.48000 -0.251
43.50000 -3.647
43.52000 -2.648
43.54000 -0.449
43.56000 2.916
43.58000 2.242
43.60000 1.245
43.62000 3.937
43.64000 2.659
43.66000 -2.846
43.68000 0.602
43.70000 4.704
43.72000 8.541
43.74000 5.418
43.76000 -0.091
43.78000 3.959
43.80000 2.438
43.82000 -0.678
43.84000 -0.413
43.86000 -1.452
43.88000 3.648
43.90000 4.181
43.92000 5.678
43.94000 1.203
43.96000 5.312
43.98000 6.599
44.00000 4.564
44.02000 3.095
44.04000 1.132
44.06000 -2.573
44.08000 0.373
44.10000 4.391
44.12000 1.911
44.14000 -0.123
44.16000 -3.593
44.18000 -1.407
44.20000 4.907
44.22000 6.424
44.24000 6.140
44.26000 4.097
44.28000 -1.810
44.30000 1.173
44.32000 1.510
44.34000 5.661
44.36000 -0.559
44.38000 4.221
44.40000 7.526
44.42000 1.696
44.44000 1.707
44.46000 -0.520
44.48000 1.502
44.50000 -1.567
44.52000 3.421
44.54000 6.429
44.56000 2.690
44.58000 -2.532
44.60000 -0.219
44.62000 0.498
44.64000 -3.015
44.66000 2.234
44.68000 3.690
44.70000 2.178
44.72000 -0.576
44.74000 -2.736
44.76000 -3.581
44.78000 -1.296
44.80000 1.360
44.82000 6.424
44.84000 -0.602
44.86000 -0.196
44.88000 -1.464
44.90000 6.569
44.92000 6.910
44.94000 0.987
44.96000 1.549
44.98000 8.919
45.00000 2.886
45.02000 4.224
45.04000 -2.287
45.06000 3.151
45.08000 3.273
45.10000 2.030
45.12000 7.505
45.14000 6.272
45.16000 6.581
45.18000 3.616
45.20000 1.954
45.22000 5.764
45.24000 4.458
45.26000 4.333
45.28000 3.379
45.30000 5.230
45.32000 -3.584
45.34000 -0.261
45.36000 2.065
45.38000 5.772
45.40000 -1.999
45.42000 3.742
45.44000 0.939
45.46000 3.148
45.48000 8.948
45.50000 11.534
45.52000 9.416
45.54000 11.873
45.56000 9.674
45.58000 4.766
45.60000 4.719
45.62000 5.272
45.64000 8.224
45.66000 10.375
45.68000 11.130
45.70000 13.825
45.72000 19.484
45.74000 18.260
45.76000 12.286
45.78000 12.307
45.80000 8.345
45.82000 13.086
45.84000 13.412
45.86000 8.616
45.88000 9.662
45.90000 7.623
45.92000 8.804
45.94000 9.751
45.96000 11.809
45.98000 14.587
46.00000 17.045
46.02000 18.285
46.04000 23.348
46.06000 27.914
46.08000 19.335
46.10000 21.181
46.12000 22.635
46.14000 25.485
46.16000 27.656
46.18000 31.534
46.20000 23.610
46.22000 20.170
46.24000 16.306
46.26000 19.567
46.28000 30.015
46.30000 35.919
46.32000 34.232
46.34000 34.855
46.36000 26.027
46.38000 26.055
46.40000 26.147
46.42000 24.783
46.44000 35.498
46.46000 35.764
46.48000 35.854
46.50000 39.367
46.52000 39.894
46.54000 38.529
46.56000 42.167
46.58000 46.176
46.60000 56.047
46.62000 58.619
46.64000 51.880
46.66000 48.884
46.68000 54.066
46.70000 53.821
46.72000 58.846
46.74000 60.466
46.76000 59.949
46.78000 64.578
46.80000 60.941
46.82000 65.271
46.84000 61.658
46.86000 64.341
46.88000 68.075
46.90000 69.892
46.92000 74.382
46.94000 71.700
46.96000 64.431
46.98000 70.260
47.00000 73.243
47.02000 73.404
47.04000 76.883
47.06000 80.814
47.08000 78.436
47.10000 75.907
47.12000 77.504
47.14000 78.156
47.16000 82.531
47.18000 78.458
47.20000 73.767
47.22000 74.232
47.24000 72.659
47.26000 80.815
47.28000 88.339
47.30000 85.594
47.32000 80.961
47.34000 79.456
47.36000 77.143
47.38000 76.170
47.40000 79.768
47.42000 79.512
47.44000 85.327
47.46000 79.856
47.48000 71.581
47.50000 79.394
47.52000 83.355
47.54000 75.532
47.56000 78.504
47.58000 81.611
47.60000 80.653
47.62000 75.645
47.64000 77.028
47.66000 74.832
47.68000 70.217
47.70000 68.845
47.72000 60.696
47.74000 63.642
47.76000 60.657
47.78000 56.081
47.80000 60.520
47.82000 62.639
47.84000 60.313
47.86000 50.316
47.88000 41.626
47.90000 39.058
47.92000 38.312
47.94000 47.480
47.96000 42.771
47.98000 36.247
48.00000 42.710
48.02000 42.412
48.04000 40.703
48.06000 40.435
48.08000 41.713
48.10000 40.146
48.12000 38.676
48.14000 35.747
48.16000 37.381
48.18000 35.108
48.20000 29.642
48.22000 28.805
48.24000 26.258
48.26000 25.016
48.28000 28.063
48.30000 24.942
48.32000 22.167
48.34000 22.614
48.36000 26.392
48.38000 27.369
48.40000 20.546
48.42000 16.214
48.44000 17.193
48.46000 16.457
48.48000 18.910
48.50000 14.915
48.52000 12.926
48.54000 16.643
48.56000 12.582
48.58000 11.818
48.60000 15.913
48.62000 17.609
48.64000 18.236
48.66000 16.810
48.68000 12.364
48.70000 14.898
48.72000 16.235
48.74000 12.560
48.76000 9.635
48.78000 17.550
48.80000 16.130
48.82000 11.412
48.84000 12.408
48.86000 11.233
48.88000 4.281
48.90000 2.974
48.92000 6.307
48.94000 7.759
48.96000 8.159
48.98000 14.863
49.00000 10.430
49.02000 3.264
49.04000 2.291
49.06000 7.108
49.08000 8.080
49.10000 7.605
49.12000 12.249
49.14000 14.943
49.16000 5.636
49.18000 2.146
49.20000 6.844
49.22000 -1.649
49.24000 5.221
49.26000 10.360
49.28000 7.518
49.30000 4.316
49.32000 7.641
49.34000 6.943
49.36000 -2.300
49.38000 -3.150
49.40000 3.803
49.42000 9.557
49.44000 4.839
49.46000 9.127
49.48000 11.473
49.50000 8.176
49.52000 1.114
49.54000 9.645
49.56000 6.071
49.58000 10.221
49.60000 10.286
49.62000 8.928
49.64000 8.291
49.66000 5.372
49.68000 0.555
49.70000 4.850
49.72000 6.747
49.74000 4.481
49.76000 7.106
49.78000 10.745
49.80000 13.388
49.82000 3.687
49.84000 1.092
49.86000 7.981
49.88000 9.596
49.90000 4.626
49.92000 4.279
49.94000 0.676
49.96000 3.626
49.98000 2.870
50.00000 1.977
50.02000 4.318
50.04000 4.311
50.06000 -1.738
50.08000 3.375
50.10000 0.344
50.12000 -0.408
50.14000 5.422
50.16000 4.960
50.18000 4.449
50.20000 3.587
50.22000 0.160
50.24000 3.010
50.26000 3.267
50.28000 5.693
50.30000 1.932
50.32000 -0.437
50.34000 3.221
50.36000 3.877
50.38000 5.516
50.40000 4.030
50.42000 3.152
50.44000 4.163
50.46000 4.829
50.48000 -2.156
50.50000 -2.901
50.52000 5.616
50.54000 2.167
50.56000 0.380
50.58000 2.334
50.60000 3.967
50.62000 -1.135
50.64000 4.804
50.66000 2.732
50.68000 1.973
50.70000 -0.193
50.72000 3.369
50.74000 0.187
50.76000 -0.493
50.78000 2.289
50.80000 0.319
50.82000 -2.697
50.84000 -1.918
50.86000 -0.409
50.88000 -0.368
50.90000 10.554
50.92000 9.824
50.94000 5.463
50.96000 5.069
50.98000 1.618
51.00000 1.571
51.02000 2.702
51.04000 1.979
51.06000 -3.079
51.08000 1.356
51.10000 1.896
51.12000 0.328
51.14000 2.344
51.16000 2.590
51.18000 2.956
51.20000 4.519
51.22000 7.352
51.24000 3.522
51.26000 3.990
51.28000 2.490
51.30000 2.988
51.32000 -1.748
51.34000 2.073
51.36000 -1.469
51.38000 -1.179
51.40000 7.979
51.42000 6.763
51.44000 1.940
51.46000 2.088
51.48000 0.940
51.50000 10.017
51.52000 4.861
51.54000 3.359
51.56000 3.782
51.58000 5.160
51.60000 -1.650
51.62000 -3.035
51.64000 4.637
51.66000 8.838
51.68000 4.591
51.70000 1.512
51.72000 6.167
51.74000 5.223
51.76000 -0.798
51.78000 -1.020
51.80000 5.979
51.82000 6.043
51.84000 1.442
51.86000 3.289
51.88000 3.057
51.90000 8.056
51.92000 9.295
51.94000 5.667
51.96000 4.497
51.98000 4.165
52.00000 6.348
52.02000 1.994
52.04000 -1.277
52.06000 4.445
52.08000 6.912
52.10000 5.395
52.12000 1.393
52.14000 8.930
52.16000 6.865
52.18000 6.725
52.20000 7.897
52.22000 10.601
52.24000 7.178
52.26000 14.015
52.28000 8.479
52.30000 3.310
52.32000 2.402
52.34000 7.462
52.36000 9.087
52.38000 6.868
52.40000 3.041
52.42000 0.766
52.44000 -0.402
52.46000 3.427
52.48000 2.092
52.50000 3.168
52.52000 4.593
52.54000 2.825
52.56000 3.975
52.58000 6.584
52.60000 1.269
52.62000 3.150
52.64000 -2.990
52.66000 -1.189
52.68000 4.874
52.70000 9.195
52.72000 1.337
52.74000 6.747
52.76000 3.495
52.78000 -0.011
52.80000 -0.898
52.82000 4.952
52.84000 3.598
52.86000 3.682
52.88000 3.567
52.90000 6.928
52.92000 6.016
52.94000 4.630
52.96000 1.715
52.98000 0.804
53.00000 0.653
53.02000 -2.996
53.04000 1.785
53.06000 0.384
53.08000 2.708
53.10000 3.527
53.12000 10.038
53.14000 7.810
53.16000 5.743
53.18000 4.432
53.20000 3.992
53.22000 1.899
53.24000 -2.802
53.26000 -2.275
53.28000 0.173
53.30000 2.085
53.32000 1.557
53.34000 2.463
53.36000 1.044
53.38000 6.291
53.40000 6.469
53.42000 7.581
53.44000 7.868
53.46000 7.077
53.48000 0.079
53.50000 -0.514
53.52000 0.457
53.54000 0.020
53.56000 2.315
53.58000 2.992
53.60000 6.379
53.62000 3.586
53.64000 -2.608
53.66000 -1.798
53.68000 4.544
53.70000 2.603
53.72000 -0.529
53.74000 -2.958
53.76000 3.811
53.78000 3.090
53.80000 2.514
53.82000 3.632
53.84000 2.706
53.86000 2.317
53.88000 6.147
53.90000 0.048
53.92000 -0.625
53.94000 2.879
53.96000 3.000
53.98000 4.187
54.00000 -0.098
54.02000 -1.444
54.04000 0.128
54.06000 3.797
54.08000 0.611
54.10000 0.919
54.12000 -0.322
54.14000 -2.972
54.16000 -1.831
54.18000 -2.239
54.20000 0.927
54.22000 5.462
54.24000 6.968
54.26000 3.199
54.28000 1.351
54.30000 0.223
54.32000 3.436
54.34000 3.713
54.36000 5.749
54.38000 4.230
54.40000 5.853
54.42000 2.087
54.44000 1.362
54.46000 1.691
54.48000 4.085
54.50000 -0.349
54.52000 2.687
54.54000 4.255
54.56000 3.436
54.58000 1.962
54.60000 3.810
54.62000 3.038
54.64000 0.896
54.66000 -0.066
54.68000 1.270
54.70000 2.530
54.72000 0.652
54.74000 -2.956
54.76000 1.216
54.78000 0.999
54.80000 2.169
54.82000 -0.160
54.84000 2.995
54.86000 2.633
54.88000 0.557
54.90000 0.507
54.92000 -1.121
54.94000 -0.116
54.96000 1.247
54.98000 4.205
55.00000 5.944
55.02000 3.701
55.04000 0.349
55.06000 3.048
55.08000 3.922
55.10000 2.267
55.12000 4.812
55.14000 7.305
55.16000 4.290
55.18000 4.288
55.20000 2.736
55.22000 3.320
55.24000 2.091
55.26000 2.134
55.28000 1.083
55.30000 1.955
55.32000 -0.167
55.34000 3.408
55.36000 1.990
55.38000 4.007
55.40000 6.453
55.42000 7.945
55.44000 7.365
55.46000 5.325
55.48000 7.062
55.50000 11.697
55.52000 6.195
55.54000 3.818
55.56000 10.391
55.58000 4.150
55.60000 -2.900
55.62000 0.518
55.64000 1.583
55.66000 3.854
55.68000 6.909
55.70000 8.499
55.72000 4.157
55.74000 3.871
55.76000 2.851
55.78000 1.003
55.80000 5.445
55.82000 5.506
55.84000 6.054
55.86000 7.789
55.88000 6.009
55.90000 8.691
55.92000 6.130
55.94000 2.116
55.96000 0.992
55.98000 1.523
56.00000 0.368
56.02000 2.564
56.04000 7.889
56.06000 7.521
56.08000 4.364
56.10000 5.112
56.12000 6.634
56.14000 5.137
56.16000 0.602
56.18000 -2.340
56.20000 2.587
56.22000 10.878
56.24000 8.215
56.26000 -1.418
56.28000 2.208
56.30000 1.737
56.32000 0.644
56.34000 2.062
56.36000 2.171
56.38000 2.190
56.40000 -2.861
56.42000 1.456
56.44000 3.844
56.46000 7.486
56.48000 3.989
56.50000 4.157
56.52000 3.312
56.54000 7.478
56.56000 6.395
56.58000 4.340
56.60000 1.380
56.62000 0.626
56.64000 4.061
56.66000 4.909
56.68000 7.233
56.70000 9.605
56.72000 11.657
56.74000 10.497
56.76000 6.712
56.78000 7.660
56.80000 3.301
56.82000 6.397
56.84000 3.357
56.86000 2.344
56.88000 4.756
56.90000 5.451
56.92000 4.712
56.94000 4.958
56.96000 3.230
56.98000 0.586
57.00000 3.385
57.02000 -1.999
57.04000 3.576
57.06000 2.703
57.08000 5.526
57.10000 2.482
57.12000 -0.091
57.14000 2.909
57.16000 3.681
57.18000 1.741
57.20000 6.068
57.22000 6.469
57.24000 3.396
57.26000 0.884
57.28000 4.117
57.30000 5.880
57.32000 4.764
57.34000 4.292
57.36000 7.063
57.38000 4.611
57.40000 3.937
57.42000 -0.545
57.44000 1.897
57.46000 3.498
57.48000 1.047
57.50000 3.923
57.52000 5.139
57.54000 3.051
57.56000 -2.313
57.58000 -2.595
57.60000 1.981
57.62000 1.665
57.64000 1.856
57.66000 4.338
57.68000 -0.083
57.70000 0.417
57.72000 -0.225
57.74000 0.000
57.76000 2.494
57.78000 3.201
57.80000 5.023
57.82000 11.515
57.84000 6.218
57.86000 3.374
57.88000 4.442
57.90000 7.561
57.92000 0.202
57.94000 1.833
57.96000 3.950
57.98000 0.419
58.00000 3.626
58.02000 6.915
58.04000 7.686
58.06000 0.865
58.08000 1.209
58.10000 5.208
58.12000 4.954
58.14000 -2.806
58.16000 1.145
58.18000 10.314
58.20000 6.750
58.22000 1.430
58.24000 -0.844
58.26000 1.891
58.28000 2.719
58.30000 2.743
58.32000 1.103
58.34000 -0.059
58.36000 3.030
58.38000 8.434
58.40000 5.518
58.42000 6.502
58.44000 2.387
58.46000 2.567
58.48000 6.640
58.50000 5.247
58.52000 2.402
58.54000 0.040
58.56000 5.700
58.58000 2.853
58.60000 1.999
58.62000 1.487
58.64000 4.806
58.66000 4.683
58.68000 4.644
58.70000 3.455
58.72000 7.216
58.74000 3.227
58.76000 0.516
58.78000 -1.232
58.80000 1.489
58.82000 4.489
58.84000 5.193
58.86000 8.666
58.88000 2.244
58.90000 -1.135
58.92000 -2.552
58.94000 -0.460
58.96000 3.056
58.98000 5.866
59.00000 3.852
59.02000 3.314
59.04000 4.422
59.06000 1.307
59.08000 1.558
59.10000 3.882
59.12000 1.101
59.14000 0.238
59.16000 5.224
59.18000 4.911
59.20000 3.735
59.22000 -0.506
59.24000 -1.501
59.26000 -2.792
59.28000 2.776
59.30000 7.436
59.32000 1.018
59.34000 3.223
59.36000 7.080
59.38000 11.922
59.40000 10.599
59.42000 10.458
59.44000 7.420
59.46000 6.107
59.48000 4.544
59.50000 3.254
59.52000 1.693
59.54000 -0.671
59.56000 -0.495
59.58000 -0.735
59.60000 1.305
59.62000 -2.781
59.64000 1.816
59.66000 2.220
59.68000 0.409
59.70000 1.595
59.72000 7.356
59.74000 1.928
59.76000 -2.089
59.78000 -2.429
59.80000 -1.626
59.82000 0.608
59.84000 2.847
59.86000 -1.053
59.88000 1.336
59.90000 4.080
59.92000 1.079
59.94000 2.533
59.96000 4.893
59.98000 5.961
60.00000 5.179
60.02000 3.230
60.04000 3.321
60.06000 3.205
60.08000 4.247
60.10000 0.331
60.12000 -2.135
60.14000 5.320
60.16000 7.676
60.18000 2.936
60.20000 8.540
60.22000 10.412
60.24000 6.193
60.26000 4.688
60.28000 5.119
60.30000 0.126
60.32000 -2.749
60.34000 -1.189
60.36000 1.813
60.38000 1.985
60.40000 3.424
60.42000 7.356
60.44000 0.388
60.46000 -0.165
60.48000 0.003
60.50000 4.876
60.52000 1.964
60.54000 2.999
60.56000 1.094
60.58000 9.977
60.60000 3.395
60.62000 -1.067
60.64000 0.187
60.66000 6.319
60.68000 6.191
60.70000 6.961
60.72000 5.503
60.74000 3.195
60.76000 1.142
60.78000 1.801
60.80000 4.083
60.82000 0.916
60.84000 0.367
60.86000 4.723
60.88000 6.379
60.90000 1.661
60.92000 5.156
60.94000 6.060
60.96000 0.738
60.98000 5.468
61.00000 3.735
61.02000 4.071
61.04000 5.301
61.06000 2.627
61.08000 4.351
61.10000 6.432
61.12000 4.929
61.14000 0.144
61.16000 -2.275
61.18000 0.680
61.20000 3.174
61.22000 5.521
61.24000 3.610
61.26000 2.453
61.28000 2.208
61.30000 2.467
61.32000 0.634
61.34000 -0.626
61.36000 -2.706
61.38000 1.336
61.40000 2.427
61.42000 6.423
61.44000 6.296
61.46000 4.994
61.48000 4.724
61.50000 0.395
61.52000 1.677
61.54000 2.179
61.56000 4.932
61.58000 8.473
61.60000 4.887
61.62000 5.289
61.64000 5.483
61.66000 0.833
61.68000 3.983
61.70000 5.376
61.72000 4.346
61.74000 4.439
61.76000 7.034
61.78000 2.450
61.80000 1.987
61.82000 2.201
61.84000 3.029
61.86000 4.385
61.88000 7.171
61.90000 6.335
61.92000 7.120
61.94000 1.209
61.96000 0.789
61.98000 5.006
62.00000 -2.196
62.02000 -2.268
62.04000 1.692
62.06000 6.394
62.08000 8.184
62.10000 6.700
62.12000 7.793
62.14000 4.939
62.16000 0.369
62.18000 -1.311
62.20000 8.413
62.22000 5.197
62.24000 -0.619
62.26000 5.137
62.28000 4.431
62.30000 2.786
62.32000 2.484
62.34000 4.617
62.36000 5.726
62.38000 0.824
62.40000 -0.839
62.42000 0.271
62.44000 -0.260
62.46000 0.259
62.48000 2.632
62.50000 4.627
62.52000 5.635
62.54000 5.612
62.56000 5.491
62.58000 1.442
62.60000 1.392
62.62000 -0.417
62.64000 0.378
62.66000 3.755
62.68000 1.248
62.70000 1.297
62.72000 6.457
62.74000 4.582
62.76000 -2.185
62.78000 -1.424
62.80000 1.220
62.82000 -0.605
62.84000 2.675
62.86000 2.606
62.88000 -2.676
62.90000 0.631
62.92000 0.948
62.94000 2.854
62.96000 4.990
62.98000 4.219
63.00000 3.415
63.02000 6.970
63.04000 1.738
63.06000 3.725
63.08000 3.512
63.10000 2.978
63.12000 5.106
63.14000 3.955
63.16000 5.793
63.18000 8.218
63.20000 6.137
63.22000 2.149
63.24000 0.610
63.26000 -0.912
63.28000 3.424
63.30000 1.034
63.32000 0.550
63.34000 0.905
63.36000 3.027
63.38000 0.788
63.40000 -2.667
63.42000 -1.678
63.44000 0.201
63.46000 1.164
63.48000 -1.360
63.50000 1.087
63.52000 6.785
63.54000 9.917
63.56000 4.139
63.58000 2.762
63.60000 0.795
63.62000 3.715
63.64000 0.562
63.66000 -0.590
63.68000 -2.195
63.70000 -1.692
63.72000 3.178
63.74000 4.394
63.76000 1.368
63.78000 -1.730
63.80000 4.130
63.82000 2.579
63.84000 5.393
63.86000 4.466
63.88000 5.176
63.90000 4.196
63.92000 4.691
63.94000 6.062
63.96000 3.483
63.98000 0.497
64.00000 0.366
64.02000 0.153
64.04000 2.920
64.06000 -2.462
64.08000 -1.500
64.10000 -0.002
64.12000 2.510
64.14000 0.412
64.16000 0.450
64.18000 -0.127
64.20000 0.505
64.22000 0.552
64.24000 5.374
64.26000 7.250
64.28000 0.554
64.30000 0.747
64.32000 1.984
64.34000 3.614
64.36000 6.734
64.38000 1.414
64.40000 2.086
64.42000 -1.481
64.44000 1.375
64.46000 3.173
64.48000 5.169
64.50000 2.322
64.52000 1.589
64.54000 1.405
64.56000 4.828
64.58000 2.273
64.60000 1.192
64.62000 3.697
64.64000 4.915
64.66000 -2.691
64.68000 1.059
64.70000 6.306
64.72000 5.809
64.74000 0.541
64.76000 1.522
64.78000 -2.529
64.80000 0.842
64.82000 2.850
64.84000 1.542
64.86000 2.474
64.88000 0.440
64.90000 2.596
64.92000 2.590
64.94000 2.051
64.96000 3.418
64.98000 2.406
65.00000 2.213
65.02000 -0.400
65.04000 -0.849
65.06000 -0.115
65.08000 0.723
65.10000 4.787
65.12000 3.419
65.14000 3.761
65.16000 2.658
65.18000 1.586
65.20000 3.347
65.22000 3.198
65.24000 1.453
65.26000 -1.970
65.28000 1.724
65.30000 3.008
65.32000 -2.704
65.34000 -1.777
65.36000 2.899
65.38000 -0.151
65.40000 -1.899
65.42000 4.345
65.44000 0.271
65.46000 2.935
65.48000 8.727
65.50000 4.490
65.52000 1.782
65.54000 2.156
65.56000 3.138
65.58000 7.726
65.60000 2.809
65.62000 0.491
65.64000 0.367
65.66000 0.329
65.68000 2.421
65.70000 0.509
65.72000 1.245
65.74000 1.137
65.76000 3.627
65.78000 3.204
65.80000 3.667
65.82000 1.408
65.84000 0.275
65.86000 -2.397
65.88000 1.402
65.90000 2.273
65.92000 1.118
65.94000 -0.169
65.96000 2.255
65.98000 6.513
66.00000 6.134
66.02000 1.718
66.04000 2.199
66.06000 0.173
66.08000 -0.293
66.10000 1.554
66.12000 2.118
66.14000 1.612
66.16000 -2.682
66.18000 3.645
66.20000 1.961
66.22000 1.915
66.24000 4.834
66.26000 -0.755
66.28000 -1.204
66.30000 -0.605
66.32000 -1.022
66.34000 0.665
66.36000 2.054
66.38000 2.155
66.40000 3.017
66.42000 -0.787
66.44000 -0.966
66.46000 2.528
66.48000 2.862
66.50000 2.363
66.52000 2.768
66.54000 -1.317
66.56000 -2.210
66.58000 -2.537
66.60000 2.159
66.62000 2.931
66.64000 -0.401
66.66000 -1.367
66.68000 0.794
66.70000 1.171
66.72000 1.812
66.74000 4.906
66.76000 3.090
66.78000 2.674
66.80000 4.147
66.82000 3.582
66.84000 2.159
66.86000 1.035
66.88000 2.008
66.90000 0.516
66.92000 3.507
66.94000 2.294
66.96000 -1.498
66.98000 0.789
67.00000 5.458
67.02000 3.902
67.04000 2.179
67.06000 3.792
67.08000 4.357
67.10000 3.420
67.12000 2.906
67.14000 2.166
67.16000 3.981
67.18000 3.817
67.20000 4.505
67.22000 0.711
67.24000 0.945
67.26000 1.528
67.28000 1.637
67.30000 2.410
67.32000 -1.103
67.34000 -2.744
67.36000 2.570
67.38000 5.067
67.40000 2.836
67.42000 -0.300
67.44000 1.958
67.46000 4.117
67.48000 0.124
67.50000 3.606
67.52000 2.994
67.54000 -0.211
67.56000 3.506
67.58000 2.700
67.60000 2.968
67.62000 2.793
67.64000 4.237
67.66000 3.666
67.68000 2.672
67.70000 0.846
67.72000 2.616
67.74000 2.545
67.76000 4.184
67.78000 7.633
67.80000 4.829
67.82000 1.519
67.84000 -2.182
67.86000 -0.307
67.88000 5.210
67.90000 10.431
67.92000 5.359
67.94000 7.323
67.96000 7.758
67.98000 5.544
68.00000 6.802
68.02000 7.941
68.04000 10.987
68.06000 10.682
68.08000 5.351
68.10000 6.324
68.12000 12.771
68.14000 13.786
68.16000 9.794
68.18000 7.152
68.20000 10.843
68.22000 10.483
68.24000 7.594
68.26000 9.339
68.28000 10.730
68.30000 8.517
68.32000 9.142
68.34000 6.630
68.36000 6.550
68.38000 13.589
68.40000 14.506
68.42000 14.575
68.44000 13.644
68.46000 14.023
68.48000 17.209
68.50000 18.406
68.52000 19.316
68.54000 17.889
68.56000 18.032
68.58000 15.430
68.60000 16.395
68.62000 18.720
68.64000 19.771
68.66000 20.303
68.68000 17.232
68.70000 15.685
68.72000 17.730
68.74000 22.166
68.76000 23.180
68.78000 29.652
68.80000 27.725
68.82000 31.121
68.84000 28.535
68.86000 26.409
68.88000 29.583
68.90000 27.249
68.92000 26.619
68.94000 29.408
68.96000 30.564
68.98000 32.772
69.00000 32.517
69.02000 34.092
69.04000 37.652
69.06000 37.811
69.08000 34.094
69.10000 39.143
69.12000 40.266
69.14000 35.052
69.16000 36.439
69.18000 36.023
69.20000 36.675
69.22000 36.312
69.24000 35.010
69.26000 35.542
69.28000 40.831
69.30000 39.252
69.32000 37.421
69.34000 39.597
69.36000 35.307
69.38000 33.081
69.40000 30.803
69.42000 32.567
69.44000 31.753
69.46000 31.262
69.48000 30.025
69.50000 29.609
69.52000 28.705
69.54000 26.673
69.56000 29.639
69.58000 25.958
69.60000 29.177
69.62000 25.458
69.64000 22.577
69.66000 24.672
69.68000 26.655
69.70000 22.327
69.72000 25.001
69.74000 23.827
69.76000 21.251
69.78000 22.694
69.80000 18.910
69.82000 17.038
69.84000 18.139
69.86000 19.012
69.88000 16.920
69.90000 16.612
69.92000 14.913
69.94000 6.632
69.96000 9.002
69.98000 15.051
70.00000 15.705
70.02000 12.390
70.04000 11.361
70.06000 11.908
70.08000 10.561
70.10000 10.974
70.12000 11.101
70.14000 7.992
70.16000 7.914
70.18000 8.686
70.20000 5.667
70.22000 8.012
70.24000 7.513
70.26000 5.350
70.28000 5.725
70.30000 9.469
70.32000 5.283
70.34000 8.359
70.36000 7.945
70.38000 5.015
70.40000 1.151
70.42000 3.896
70.44000 7.112
70.46000 6.738
70.48000 5.363
70.50000 4.460
70.52000 5.175
70.54000 11.373
70.56000 6.134
70.58000 7.385
70.60000 4.296
70.62000 2.297
70.64000 4.424
70.66000 3.681
70.68000 0.120
70.70000 2.271
70.72000 1.077
70.74000 1.162
70.76000 -1.540
70.78000 0.887
70.80000 3.378
70.82000 4.559
70.84000 8.265
70.86000 9.375
70.88000 6.751
70.90000 5.951
70.92000 4.436
70.94000 0.214
70.96000 -2.332
70.98000 -2.635
71.00000 0.168
71.02000 3.349
71.04000 5.936
71.06000 0.429
71.08000 1.647
71.10000 -1.936
71.12000 -2.214
71.14000 -0.026
71.16000 0.263
71.18000 2.344
71.20000 -0.184
71.22000 2.176
71.24000 0.612
71.26000 3.800
71.28000 -0.709
71.30000 -0.734
71.32000 0.605
71.34000 4.309
71.36000 7.365
71.38000 3.728
71.40000 -1.029
71.42000 -2.055
71.44000 -0.612
71.46000 1.783
71.48000 4.578
71.50000 6.957
71.52000 6.871
71.54000 -0.317
71.56000 -0.626
71.58000 2.240
71.60000 3.655
71.62000 1.316
71.64000 0.751
71.66000 -1.989
71.68000 0.999
71.70000 3.731
71.72000 0.399
71.74000 -0.259
71.76000 -2.224
71.78000 1.843
71.80000 2.763
71.82000 3.722
71.84000 4.799
71.86000 -0.540
71.88000 -0.011
71.90000 1.433
71.92000 -2.519
71.94000 -2.103
71.96000 0.429
71.98000 -2.139
72.00000 0.896
72.02000 2.950
72.04000 3.857
72.06000 3.725
72.08000 2.883
72.10000 -0.483
72.12000 2.895
72.14000 1.659
72.16000 1.155
72.18000 5.945
72.20000 9.709
72.22000 6.834
72.24000 5.337
72.26000 3.623
72.28000 3.383
72.30000 6.340
72.32000 1.227
72.34000 0.298
72.36000 -1.353
72.38000 -0.814
72.40000 3.289
72.42000 3.023
72.44000 5.244
72.46000 3.979
72.48000 2.477
72.50000 5.935
72.52000 4.643
72.54000 4.153
72.56000 4.217
72.58000 -0.085
72.60000 0.315
72.62000 4.860
72.64000 9.449
72.66000 7.877
72.68000 2.623
72.70000 1.904
72.72000 4.507
72.74000 4.470
72.76000 -1.222
72.78000 0.086
72.80000 4.436
72.82000 6.153
72.84000 7.312
72.86000 2.248
72.88000 1.187
72.90000 2.269
72.92000 0.758
72.94000 -1.869
72.96000 -2.455
72.98000 1.560
73.00000 4.452
73.02000 4.210
73.04000 4.614
73.06000 4.434
73.08000 -0.590
73.10000 4.333
73.12000 5.314
73.14000 3.925
73.16000 3.874
73.18000 5.859
73.20000 4.486
73.22000 2.990
73.24000 1.857
73.26000 4.971
73.28000 0.720
73.30000 2.746
73.32000 2.948
73.34000 -0.740
73.36000 4.096
73.38000 4.358
73.40000 4.489
73.42000 0.776
73.44000 1.282
73.46000 8.283
73.48000 9.534
73.50000 4.999
73.52000 2.527
73.54000 3.470
73.56000 4.724
73.58000 8.222
73.60000 2.952
73.62000 4.607
73.64000 4.233
73.66000 4.139
73.68000 4.157
73.70000 5.447
73.72000 3.521
73.74000 6.509
73.76000 3.653
73.78000 6.067
73.80000 4.457
73.82000 -2.452
73.84000 -1.380
73.86000 5.250
73.88000 3.227
73.90000 3.343
73.92000 3.334
73.94000 2.201
73.96000 0.996
73.98000 2.431
74.00000 3.087
74.02000 3.701
74.04000 1.566
74.06000 1.812
74.08000 4.044
74.10000 4.255
74.12000 6.955
74.14000 6.746
74.16000 4.455
74.18000 4.262
74.20000 2.310
74.22000 7.032
74.24000 7.533
74.26000 7.327
74.28000 4.446
74.30000 1.295
74.32000 0.527
74.34000 4.655
74.36000 2.333
74.38000 5.356
74.40000 2.794
74.42000 2.122
74.44000 5.719
74.46000 6.744
74.48000 6.611
74.50000 5.186
74.52000 7.682
74.54000 2.639
74.56000 4.191
74.58000 1.670
74.60000 -2.454
74.62000 4.617
74.64000 6.612
74.66000 3.317
74.68000 5.277
74.70000 5.262
74.72000 2.466
74.74000 5.386
74.76000 2.905
74.78000 2.375
74.80000 2.942
74.82000 6.436
74.84000 7.258
74.86000 4.599
74.88000 4.763
74.90000 7.086
74.92000 4.948
74.94000 11.557
74.96000 7.280
74.98000 0.673
75.00000 3.552
75.02000 4.111
75.04000 8.756
75.06000 5.879
75.08000 1.969
75.10000 3.343
75.12000 6.295
75.14000 -0.315
75.16000 -2.430
75.18000 -1.668
75.20000 -1.726
75.22000 1.420
75.24000 4.478
75.26000 1.506
75.28000 2.482
75.30000 6.289
75.32000 6.371
75.34000 1.647
75.36000 2.395
75.38000 4.424
75.40000 6.118
75.42000 4.003
75.44000 0.725
75.46000 6.950
75.48000 8.396
75.50000 6.981
75.52000 8.200
75.54000 10.976
75.56000 2.603
75.58000 3.070
75.60000 6.380
75.62000 6.352
75.64000 4.042
75.66000 -1.013
75.68000 2.639
75.70000 0.010
75.72000 0.960
75.74000 2.172
75.76000 6.186
75.78000 7.273
75.80000 5.063
75.82000 3.776
75.84000 4.705
75.86000 7.890
75.88000 8.337
75.90000 8.386
75.92000 6.454
75.94000 3.181
75.96000 2.185
75.98000 4.082
76.00000 3.320
76.02000 4.247
76.04000 5.567
76.06000 9.005
76.08000 5.650
76.10000 2.148
76.12000 0.529
76.14000 3.425
76.16000 2.031
76.18000 2.622
76.20000 0.541
76.22000 3.177
76.24000 10.448
76.26000 12.833
76.28000 5.840
76.30000 2.291
76.32000 1.277
76.34000 4.882
76.36000 3.258
76.38000 6.565
76.40000 10.285
76.42000 5.186
76.44000 1.199
76.46000 0.348
76.48000 1.904
76.50000 -0.075
76.52000 -2.458
76.54000 1.016
76.56000 3.529
76.58000 7.465
76.60000 4.903
76.62000 6.190
76.64000 5.091
76.66000 2.760
76.68000 3.642
76.70000 1.271
76.72000 -0.280
76.74000 2.604
76.76000 5.723
76.78000 2.798
76.80000 3.825
76.82000 8.889
76.84000 2.104
76.86000 0.898
76.88000 4.627
76.90000 3.556
76.92000 2.691
76.94000 3.078
76.96000 -1.702
76.98000 1.705
77.00000 2.499
77.02000 2.747
77.04000 2.645
77.06000 3.981
77.08000 5.197
77.10000 7.908
77.12000 9.093
77.14000 8.538
77.16000 5.192
77.18000 2.141
77.20000 1.544
77.22000 3.096
77.24000 4.966
77.26000 5.062
77.28000 -2.472
77.30000 -1.824
77.32000 -1.048
77.34000 1.056
77.36000 0.798
77.38000 4.405
77.40000 3.288
77.42000 3.090
77.44000 -0.197
77.46000 6.420
77.48000 5.298
77.50000 6.502
77.52000 6.208
77.54000 4.109
77.56000 5.158
77.58000 2.901
77.60000 4.415
77.62000 3.180
77.64000 9.118
77.66000 6.555
77.68000 2.864
77.70000 3.531
77.72000 5.353
77.74000 7.215
77.76000 7.983
77.78000 9.896
77.80000 5.089
77.82000 4.962
77.84000 5.387
77.86000 0.344
77.88000 0.188
77.90000 3.390
77.92000 -2.431
77.94000 3.167
77.96000 5.944
77.98000 9.304
78.00000 9.843
78.02000 9.177
78.04000 5.832
78.06000 6.420
78.08000 7.212
78.10000 8.943
78.12000 10.871
78.14000 8.531
78.16000 5.280
78.18000 7.032
78.20000 5.009
78.22000 4.741
78.24000 -1.883
78.26000 -2.470
78.28000 -0.693
78.30000 0.757
78.32000 2.588
78.34000 3.218
78.36000 3.181
78.38000 3.763
78.40000 4.607
78.42000 11.339
78.44000 8.669
78.46000 9.042
78.48000 6.803
78.50000 1.715
78.52000 5.627
78.54000 8.191
78.56000 1.238
78.58000 1.061
78.60000 5.085
78.62000 7.348
78.64000 5.265
78.66000 4.218
78.68000 1.183
78.70000 4.496
78.72000 5.021
78.74000 1.732
78.76000 0.347
78.78000 2.240
78.80000 9.436
78.82000 6.266
78.84000 6.793
78.86000 5.101
78.88000 2.152
78.90000 4.927
78.92000 2.368
78.94000 4.200
78.96000 3.289
78.98000 3.297
79.00000 2.461
79.02000 4.337
79.04000 4.825
79.06000 2.304
79.08000 6.211
79.10000 4.801
79.12000 2.307
79.14000 6.565
79.16000 8.875
79.18000 3.194
79.20000 2.414
79.22000 0.757
79.24000 2.321
79.26000 -0.886
79.28000 -1.405
79.30000 1.692
79.32000 2.004
79.34000 5.831
79.36000 4.309
79.38000 2.232
79.40000 -0.653
79.42000 2.165
79.44000 7.612
79.46000 0.255
79.48000 2.833
79.50000 5.447
79.52000 4.647
79.54000 2.828
79.56000 4.959
79.58000 5.099
79.60000 8.596
79.62000 6.107
79.64000 10.198
79.66000 11.809
79.68000 6.708
79.70000 3.495
79.72000 2.060
79.74000 7.677
79.76000 9.586
79.78000 8.645
79.80000 0.940
79.82000 -2.520
79.84000 -2.520
79.86000 2.195
79.88000 5.078
79.90000 5.893
79.92000 3.213
79.94000 6.475
79.96000 4.887
79.98000 0.066
80.00000 2.943
80.02000 4.992
80.04000 5.115
80.06000 7.009
80.08000 8.682
80.10000 7.665
80.12000 4.496
80.14000 -1.905
80.16000 0.428
80.18000 5.812
80.20000 6.041
80.22000 3.600
80.24000 4.256
80.26000 5.575
80.28000 5.097
80.30000 6.934
80.32000 4.120
80.34000 1.050
80.36000 -0.421
80.38000 -1.027
80.40000 1.588
80.42000 3.242
80.44000 4.601
80.46000 3.676
80.48000 4.308
80.50000 3.450
80.52000 8.309
80.54000 2.169
80.56000 -1.173
80.58000 2.848
80.60000 -2.560
80.62000 0.438
80.64000 3.851
80.66000 3.525
80.68000 7.307
80.70000 10.583
80.72000 8.209
80.74000 6.120
80.76000 3.546
80.78000 1.170
80.80000 4.247
80.82000 4.770
80.84000 2.311
80.86000 2.442
80.88000 2.329
80.90000 -2.579
80.92000 0.027
80.94000 -0.191
80.96000 1.975
80.98000 0.498
81.00000 3.684
81.02000 8.124
81.04000 4.134
81.06000 4.408
81.08000 9.521
81.10000 3.753
81.12000 2.165
81.14000 3.568
81.16000 4.932
81.18000 9.626
81.20000 6.624
81.22000 3.004
81.24000 -2.592
81.26000 2.239
81.28000 1.940
81.30000 5.534
81.32000 2.566
81.34000 2.620
81.36000 4.796
81.38000 5.075
81.40000 2.735
81.42000 1.252
81.44000 3.078
81.46000 2.728
81.48000 0.182
81.50000 3.020
81.52000 1.823
81.54000 0.942
81.56000 4.864
81.58000 4.467
81.60000 4.769
81.62000 3.179
81.64000 0.130
81.66000 1.335
81.68000 1.941
81.70000 0.171
81.72000 5.502
81.74000 5.120
81.76000 0.667
81.78000 3.221
81.80000 6.197
81.82000 3.563
81.84000 1.916
81.86000 2.470
81.88000 4.463
81.90000 9.900
81.92000 4.616
81.94000 5.347
81.96000 4.699
81.98000 4.992
82.00000 1.937
82.02000 4.656
82.04000 4.059
82.06000 5.756
82.08000 6.213
82.10000 3.161
82.12000 5.185
82.14000 5.627
82.16000 5.705
82.18000 4.890
82.20000 6.190
82.22000 4.916
82.24000 3.433
82.26000 5.764
82.28000 3.228
82.30000 1.664
82.32000 0.274
82.34000 4.532
82.36000 8.168
82.38000 11.330
82.40000 13.107
82.42000 15.749
82.44000 7.848
82.46000 4.773
82.48000 4.049
82.50000 7.409
82.52000 9.882
82.54000 9.648
82.56000 10.350
82.58000 10.023
82.60000 4.640
82.62000 10.864
82.64000 14.131
82.66000 9.597
82.68000 8.627
82.70000 13.584
82.72000 10.373
82.74000 7.736
82.76000 12.602
82.78000 12.211
82.80000 14.201
82.82000 20.179
82.84000 16.232
82.86000 16.098
82.88000 19.674
82.90000 14.480
82.92000 13.391
82.94000 18.640
82.96000 23.427
82.98000 20.117
83.00000 22.872
83.02000 18.744
83.04000 22.306
83.06000 23.273
83.08000 15.777
83.10000 17.878
83.12000 24.346
83.14000 21.797
83.16000 20.902
83.18000 24.091
83.20000 24.807
83.22000 29.084
83.24000 24.225
83.26000 22.768
83.28000 21.122
83.30000 21.259
83.32000 20.917
83.34000 28.596
83.36000 31.734
83.38000 36.483
83.40000 30.512
83.42000 31.747
83.44000 31.770
83.46000 26.390
83.48000 32.088
83.50000 38.682
83.52000 37.636
83.54000 32.760
83.56000 32.780
83.58000 32.261
83.60000 31.967
83.62000 29.993
83.64000 29.671
83.66000 31.691
83.68000 34.843
83.70000 33.769
83.72000 36.791
83.74000 37.490
83.76000 41.237
83.78000 39.620
83.80000 34.247
83.82000 34.236
83.84000 31.615
83.86000 31.669
83.88000 34.140
83.90000 33.659
83.92000 29.965
83.94000 34.977
83.96000 35.418
83.98000 32.024
84.00000 34.800
84.02000 31.368
84.04000 31.165
84.06000 30.440
84.08000 31.889
84.10000 33.561
84.12000 30.230
84.14000 22.669
84.16000 25.151
84.18000 24.783
84.20000 23.324
84.22000 26.529
84.24000 28.535
84.26000 25.828
84.28000 28.183
84.30000 20.548
84.32000 23.498
84.34000 25.176
84.36000 21.242
84.38000 14.576
84.40000 22.047
84.42000 22.741
84.44000 16.199
84.46000 18.393
84.48000 23.685
84.50000 18.020
84.52000 17.141
84.54000 16.585
84.56000 20.025
84.58000 14.299
84.60000 9.449
84.62000 17.061
84.64000 14.387
84.66000 16.660
84.68000 13.626
84.70000 10.746
84.72000 14.644
84.74000 13.112
84.76000 10.486
84.78000 12.552
84.80000 13.950
84.82000 10.041
84.84000 6.389
84.86000 7.532
84.88000 0.382
84.90000 -0.166
84.92000 7.585
84.94000 6.250
84.96000 1.299
84.98000 8.613
85.00000 6.414
85.02000 9.411
85.04000 10.689
85.06000 5.214
85.08000 3.478
85.10000 1.463
85.12000 4.514
85.14000 6.553
85.16000 9.013
85.18000 2.928
85.20000 2.802
85.22000 0.174
85.24000 -0.949
85.26000 3.700
85.28000 1.094
85.30000 -2.649
85.32000 -0.237
85.34000 0.990
85.36000 3.104
85.38000 0.936
85.40000 9.547
85.42000 2.729
85.44000 -2.371
85.46000 2.136
85.48000 3.344
85.50000 6.028
85.52000 8.320
85.54000 8.467
85.56000 8.961
85.58000 -0.151
85.60000 1.481
85.62000 3.868
85.64000 4.674
85.66000 4.486
85.68000 4.203
85.70000 8.869
85.72000 13.080
85.74000 8.015
85.76000 2.076
85.78000 4.153
85.80000 6.808
85.82000 3.997
85.84000 6.611
85.86000 8.657
85.88000 4.976
85.90000 1.343
85.92000 1.174
85.94000 0.669
85.96000 0.256
85.98000 -2.546
86.00000 -0.345
86.02000 10.051
86.04000 13.061
86.06000 6.262
86.08000 0.253
86.10000 -0.693
86.12000 0.453
86.14000 2.747
86.16000 3.672
86.18000 3.638
86.20000 5.737
86.22000 4.764
86.24000 4.193
86.26000 4.262
86.28000 6.162
86.30000 6.675
86.32000 7.172
86.34000 4.655
86.36000 4.572
86.38000 2.578
86.40000 5.919
86.42000 4.170
86.44000 4.199
86.46000 -1.065
86.48000 -1.756
86.50000 -1.616
86.52000 -0.720
86.54000 -0.194
86.56000 -1.142
86.58000 -1.878
86.60000 3.104
86.62000 3.029
86.64000 0.911
86.66000 3.790
86.68000 7.856
86.70000 6.418
86.72000 5.313
86.74000 6.180
86.76000 7.931
86.78000 9.734
86.80000 6.419
86.82000 4.324
86.84000 1.677
86.86000 -2.159
86.88000 2.116
86.90000 4.190
86.92000 7.209
86.94000 9.979
86.96000 10.347
86.98000 8.570
87.00000 2.111
87.02000 3.505
87.04000 2.489
87.06000 7.998
87.08000 12.812
87.10000 10.869
87.12000 11.770
87.14000 8.906
87.16000 11.358
87.18000 7.901
87.20000 10.846
87.22000 12.499
87.24000 7.105
87.26000 9.642
87.28000 12.672
87.30000 10.055
87.32000 9.798
87.34000 9.876
87.36000 11.258
87.38000 10.643
87.40000 13.410
87.42000 15.118
87.44000 16.787
87.46000 17.574
87.48000 17.901
87.50000 16.095
87.52000 21.897
87.54000 20.634
87.56000 20.741
87.58000 16.508
87.60000 18.705
87.62000 19.431
87.64000 21.223
87.66000 16.144
87.68000 19.232
87.70000 22.211
87.72000 26.071
87.74000 21.670
87.76000 28.339
87.78000 26.663
87.80000 24.047
87.82000 26.984
87.84000 30.533
87.86000 29.101
87.88000 24.219
87.90000 28.333
87.92000 29.590
87.94000 21.723
87.96000 22.763
87.98000 22.808
88.00000 29.708
88.02000 32.704
88.04000 33.021
88.06000 30.807
88.08000 32.585
88.10000 37.261
88.12000 36.933
88.14000 36.745
88.16000 43.590
88.18000 34.309
88.20000 32.505
88.22000 30.133
88.24000 29.174
88.26000 34.374
88.28000 32.392
88.30000 28.963
88.32000 31.130
88.34000 31.577
88.36000 32.789
88.38000 32.943
88.40000 28.532
88.42000 27.235
88.44000 27.977
88.46000 30.795
88.48000 29.589
88.50000 37.136
88.52000 39.863
88.54000 30.621
88.56000 23.402
88.58000 26.538
88.60000 27.689
88.62000 26.165
88.64000 25.657
88.66000 21.516
88.68000 28.279
88.70000 29.063
88.72000 26.361
88.74000 24.938
88.76000 19.531
88.78000 19.211
88.80000 21.240
88.82000 20.617
88.84000 19.938
88.86000 17.290
88.88000 21.559
88.90000 22.512
88.92000 15.149
88.94000 20.497
88.96000 20.424
88.98000 18.260
89.00000 15.268
89.02000 16.708
89.04000 17.874
89.06000 15.528
89.08000 16.208
89.10000 14.922
89.12000 12.197
89.14000 7.768
89.16000 8.838
89.18000 10.769
89.20000 14.232
89.22000 10.994
89.24000 8.470
89.26000 8.401
89.28000 7.421
89.30000 5.867
89.32000 8.954
89.34000 15.132
89.36000 11.648
89.38000 2.057
89.40000 -0.464
89.42000 7.018
89.44000 1.890
89.46000 -1.209
89.48000 5.705
89.50000 1.716
89.52000 6.520
89.54000 5.618
89.56000 5.743
89.58000 4.312
89.60000 2.018
89.62000 3.597
89.64000 8.777
89.66000 4.417
89.68000 2.188
89.70000 3.381
89.72000 2.376
89.74000 0.381
89.76000 4.288
89.78000 1.311
89.80000 2.648
89.82000 4.855
89.84000 3.951
89.86000 4.016
89.88000 -1.725
89.90000 -2.331
89.92000 -2.509
89.94000 4.097
89.96000 5.020
89.98000 3.246
90.00000 3.898
90.02000 2.302
90.04000 -0.008
90.06000 -0.272
90.08000 4.009
90.10000 1.142
90.12000 3.959
90.14000 4.614
90.16000 0.240
90.18000 3.413
90.20000 1.072
90.22000 1.272
90.24000 1.202
90.26000 1.853
90.28000 -1.736
90.30000 -2.445
90.32000 -0.208
90.34000 4.648
90.36000 0.470
90.38000 2.798
90.40000 2.789
90.42000 -2.254
90.44000 1.762
90.46000 -0.411
90.48000 -2.054
90.50000 3.756
90.52000 4.037
90.54000 4.411
90.56000 6.707
90.58000 2.756
90.60000 -1.865
90.62000 -0.909
90.64000 2.514
90.66000 7.473
90.68000 3.218
90.70000 0.979
90.72000 0.779
90.74000 2.664
90.76000 -2.388
90.78000 1.410
90.80000 1.489
90.82000 0.391
90.84000 1.963
90.86000 3.887
90.88000 3.673
90.90000 0.255
90.92000 7.837
90.94000 5.592
90.96000 6.758
90.98000 5.487
91.00000 5.001
91.02000 -0.929
91.04000 -0.745
91.06000 -0.885
91.08000 -1.275
91.10000 6.691
91.12000 4.015
91.14000 1.688
91.16000 6.263
91.18000 2.612
91.20000 2.752
91.22000 3.555
91.24000 5.283
91.26000 5.146
91.28000 4.182
91.30000 6.520
91.32000 3.358
91.34000 1.455
91.36000 3.037
91.38000 -0.425
91.40000 0.108
91.42000 5.475
91.44000 3.179
91.46000 7.217
91.48000 2.664
91.50000 4.001
91.52000 10.625
91.54000 7.251
91.56000 -1.119
91.58000 -2.355
91.60000 3.936
91.62000 5.713
91.64000 2.663
91.66000 3.056
91.68000 2.779
91.70000 3.467
91.72000 6.540
91.74000 3.536
91.76000 5.225
91.78000 2.659
91.80000 6.144
91.82000 8.393
91.84000 6.580
91.86000 3.726
91.88000 5.649
91.90000 0.889
91.92000 2.151
91.94000 0.863
91.96000 -2.333
91.98000 3.424
92.00000 9.000
92.02000 6.371
92.04000 5.843
92.06000 3.155
92.08000 1.355
92.10000 0.405
92.12000 7.438
92.14000 8.539
92.16000 6.291
92.18000 6.054
92.20000 4.221
92.22000 4.724
92.24000 -0.153
92.26000 -1.225
92.28000 3.271
92.30000 6.680
92.32000 9.714
92.34000 9.422
92.36000 4.067
92.38000 5.081
92.40000 3.913
92.42000 4.609
92.44000 -1.788
92.46000 -2.348
92.48000 -1.484
92.50000 3.237
92.52000 3.321
92.54000 10.977
92.56000 8.443
92.58000 -0.778
92.60000 4.151
92.62000 3.513
92.64000 -0.651
92.66000 2.632
92.68000 10.040
92.70000 5.625
92.72000 1.225
92.74000 3.122
92.76000 1.486
92.78000 3.609
92.80000 0.213
92.82000 -0.404
92.84000 -0.770
92.86000 3.930
92.88000 5.960
92.90000 1.407
92.92000 -0.329
92.94000 3.850
92.96000 6.738
92.98000 4.963
93.00000 9.498
93.02000 15.061
93.04000 9.741
93.06000 4.186
93.08000 4.661
93.10000 1.649
93.12000 -0.195
93.14000 4.041
93.16000 6.589
93.18000 9.277
93.20000 3.804
93.22000 3.353
93.24000 0.083
93.26000 1.247
93.28000 1.486
93.30000 6.897
93.32000 5.196
93.34000 2.474
93.36000 5.468
93.38000 4.495
93.40000 4.960
93.42000 5.114
93.44000 4.310
93.46000 -0.585
93.48000 4.290
93.50000 4.445
93.52000 4.189
93.54000 4.721
93.56000 4.991
93.58000 5.799
93.60000 4.870
93.62000 3.113
93.64000 -1.319
93.66000 -0.801
93.68000 -1.636
93.70000 4.011
93.72000 -2.366
93.74000 0.572
93.76000 5.490
93.78000 4.983
93.80000 5.222
93.82000 9.074
93.84000 6.403
93.86000 1.810
93.88000 -0.352
93.90000 -1.241
93.92000 -2.370
93.94000 7.482
93.96000 2.693
93.98000 3.417
94.00000 7.989
94.02000 2.486
94.04000 3.030
94.06000 7.116
94.08000 1.228
94.10000 0.426
94.12000 3.121
94.14000 5.560
94.16000 4.611
94.18000 6.999
94.20000 7.398
94.22000 3.348
94.24000 -0.204
94.26000 0.578
94.28000 -1.435
94.30000 4.016
94.32000 1.522
94.34000 2.241
94.36000 8.304
94.38000 8.577
94.40000 2.891
94.42000 2.846
94.44000 5.173
94.46000 4.501
94.48000 5.670
94.50000 5.594
94.52000 7.301
94.54000 9.835
94.56000 2.412
94.58000 -0.748
94.60000 7.059
94.62000 12.123
94.64000 9.790
94.66000 7.576
94.68000 9.111
94.70000 10.063
94.72000 9.556
94.74000 6.871
94.76000 5.738
94.78000 8.505
94.80000 4.558
94.82000 3.853
94.84000 5.706
94.86000 5.919
94.88000 2.093
94.90000 -2.343
94.92000 4.029
94.94000 11.723
94.96000 6.861
94.98000 5.947
95.00000 9.230
95.02000 8.162
95.04000 4.346
95.06000 5.742
95.08000 2.759
95.10000 2.875
95.12000 -0.591
95.14000 1.843
95.16000 2.024
95.18000 1.786
95.20000 10.243
95.22000 4.452
95.24000 0.335
95.26000 0.447
95.28000 1.268
95.30000 2.079
95.32000 8.611
95.34000 9.692
95.36000 7.719
95.38000 5.913
95.40000 7.879
95.42000 9.113
95.44000 7.239
95.46000 5.924
95.48000 6.116
95.50000 3.543
95.52000 0.159
95.54000 7.315
95.56000 12.446
95.58000 7.092
95.60000 8.651
95.62000 6.444
95.64000 7.744
95.66000 9.429
95.68000 8.531
95.70000 8.695
95.72000 8.361
95.74000 6.017
95.76000 7.955
95.78000 4.184
95.80000 1.183
95.82000 -2.340
95.84000 2.184
95.86000 5.699
95.88000 9.432
95.90000 10.401
95.92000 2.398
95.94000 1.463
95.96000 0.414
95.98000 5.378
96.00000 7.110
96.02000 4.557
96.04000 5.516
96.06000 5.530
96.08000 6.634
96.10000 6.639
96.12000 4.697
96.14000 3.561
96.16000 7.455
96.18000 6.135
96.20000 -0.715
96.22000 2.688
96.24000 7.328
96.26000 10.482
96.28000 -0.143
96.30000 1.016
96.32000 0.998
96.34000 4.630
96.36000 7.296
96.38000 8.249
96.40000 4.420
96.42000 5.077
96.44000 7.614
96.46000 8.286
96.48000 4.086
96.50000 5.468
96.52000 5.902
96.54000 0.541
96.56000 1.525
96.58000 7.616
96.60000 6.514
96.62000 2.536
96.64000 5.014
96.66000 0.037
96.68000 1.985
96.70000 5.019
96.72000 2.034
96.74000 2.324
96.76000 5.149
96.78000 4.232
96.80000 5.304
96.82000 6.088
96.84000 5.070
96.86000 7.998
96.88000 6.954
96.90000 8.691
96.92000 3.849
96.94000 0.400
96.96000 -2.335
96.98000 -1.104
97.00000 -1.020
97.02000 0.080
97.04000 4.081
97.06000 12.633
97.08000 13.919
97.10000 11.672
97.12000 8.353
97.14000 2.742
97.16000 6.708
97.18000 10.041
97.20000 9.905
97.22000 11.867
97.24000 6.054
97.26000 4.040
97.28000 7.642
97.30000 3.561
97.32000 2.437
97.34000 8.966
97.36000 9.654
97.38000 12.342
97.40000 12.534
97.42000 4.243
97.44000 6.128
97.46000 9.625
97.48000 8.567
97.50000 1.184
97.52000 1.904
97.54000 6.339
97.56000 7.855
97.58000 2.813
97.60000 2.286
97.62000 -0.072
97.64000 9.747
97.66000 3.503
97.68000 -1.649
97.70000 4.573
97.72000 7.216
97.74000 8.959
97.76000 9.562
97.78000 3.294
97.80000 1.371
97.82000 3.770
97.84000 12.069
97.86000 9.227
97.88000 -0.685
97.90000 -1.386
97.92000 1.633
97.94000 5.534
97.96000 11.894
97.98000 8.246
98.00000 5.116
98.02000 6.419
98.04000 0.804
98.06000 3.943
98.08000 1.039
98.10000 1.423
98.12000 3.806
98.14000 2.744
98.16000 6.095
98.18000 11.425
98.20000 10.384
98.22000 4.881
98.24000 1.379
98.26000 7.384
98.28000 2.994
98.30000 3.651
98.32000 8.336
98.34000 11.438
98.36000 15.835
98.38000 10.430
98.40000 12.909
98.42000 9.252
98.44000 7.715
98.46000 9.930
98.48000 9.376
98.50000 10.336
98.52000 10.984
98.54000 5.593
98.56000 8.707
98.58000 9.109
98.60000 23.688
98.62000 17.295
98.64000 14.900
98.66000 20.088
98.68000 14.370
98.70000 7.237
98.72000 9.532
98.74000 9.652
98.76000 5.277
98.78000 11.030
98.80000 13.447
98.82000 10.797
98.84000 13.296
98.86000 19.664
98.88000 20.392
98.90000 15.791
98.92000 10.183
98.94000 0.551
98.96000 -2.171
98.98000 8.967
99.00000 9.725
99.02000 17.360
99.04000 15.155
99.06000 9.980
99.08000 11.367
99.10000 12.914
99.12000 17.970
99.14000 11.952
99.16000 9.917
99.18000 5.044
99.20000 10.219
99.22000 9.838
99.24000 16.607
99.26000 3.174
99.28000 1.460
99.30000 5.246
99.32000 10.412
99.34000 18.326
99.36000 13.616
99.38000 7.966
99.40000 4.593
99.42000 7.863
99.44000 9.679
99.46000 27.260
99.48000 30.308
99.50000 18.605
99.52000 15.172
99.54000 16.284
99.56000 16.070
99.58000 17.387
99.60000 13.430
99.62000 11.078
99.64000 34.866
99.66000 22.464
99.68000 17.532
99.70000 8.458
99.72000 12.970
99.74000 15.860
99.76000 24.144
99.78000 21.525
99.80000 17.653
99.82000 2.396
99.84000 -2.237
99.86000 5.939
99.88000 6.631
99.90000 4.080
99.92000 8.236
99.94000 -3.775
99.96000 13.481
99.98000 0.000
