'Id: "0011389" Comment: "Integrate frame 0011389_Au-Ir-Rh_Au-Rich_XRD_Mapping-191-0000.gfrmwith cursor Wedge Cursor #5" Operator: "B?rgel" Anode: "Cu" Wavelength: "1.5406" Scantype: "2Theta (TwoTheta)" TimePerStep: "1" X: "13.5" Y: "4.5" Z: "5.95" 
10.00000 0.000
10.02000 0.275
10.04000 -4.058
10.06000 -1.016
10.08000 -3.948
10.10000 15.325
10.12000 25.500
10.14000 13.506
10.16000 12.937
10.18000 2.239
10.20000 -1.989
10.22000 12.189
10.24000 16.898
10.26000 -1.361
10.28000 -3.931
10.30000 4.510
10.32000 11.514
10.34000 15.520
10.36000 2.533
10.38000 -3.438
10.40000 4.498
10.42000 -2.092
10.44000 7.600
10.46000 12.543
10.48000 12.123
10.50000 5.383
10.52000 11.293
10.54000 6.808
10.56000 13.348
10.58000 11.709
10.60000 12.496
10.62000 8.311
10.64000 2.386
10.66000 1.025
10.68000 13.352
10.70000 12.696
10.72000 16.187
10.74000 9.784
10.76000 11.466
10.78000 14.473
10.80000 10.456
10.82000 10.765
10.84000 16.157
10.86000 8.823
10.88000 3.650
10.90000 3.843
10.92000 13.174
10.94000 13.443
10.96000 16.236
10.98000 17.212
11.00000 6.721
11.02000 -2.122
11.04000 11.865
11.06000 19.529
11.08000 21.561
11.10000 17.193
11.12000 7.651
11.14000 17.788
11.16000 9.210
11.18000 4.072
11.20000 11.672
11.22000 20.500
11.24000 26.873
11.26000 29.911
11.28000 13.575
11.30000 10.392
11.32000 26.083
11.34000 22.948
11.36000 19.084
11.38000 25.178
11.40000 16.685
11.42000 25.526
11.44000 32.543
11.46000 31.875
11.48000 14.526
11.50000 6.106
11.52000 6.582
11.54000 14.464
11.56000 31.534
11.58000 28.389
11.60000 22.145
11.62000 18.159
11.64000 24.757
11.66000 19.549
11.68000 11.750
11.70000 15.022
11.72000 16.256
11.74000 21.914
11.76000 10.330
11.78000 5.750
11.80000 -2.240
11.82000 8.490
11.84000 15.127
11.86000 14.978
11.88000 5.325
11.90000 9.444
11.92000 16.440
11.94000 18.564
11.96000 10.386
11.98000 5.900
12.00000 4.498
12.02000 19.950
12.04000 31.659
12.06000 31.365
12.08000 29.718
12.10000 30.870
12.12000 23.707
12.14000 17.922
12.16000 18.905
12.18000 20.432
12.20000 29.313
12.22000 14.324
12.24000 16.407
12.26000 25.555
12.28000 23.324
12.30000 15.760
12.32000 28.344
12.34000 18.992
12.36000 13.975
12.38000 20.059
12.40000 27.221
12.42000 22.484
12.44000 26.356
12.46000 28.492
12.48000 31.286
12.50000 26.490
12.52000 11.297
12.54000 6.302
12.56000 20.959
12.58000 27.391
12.60000 32.829
12.62000 27.968
12.64000 27.518
12.66000 27.144
12.68000 23.042
12.70000 28.040
12.72000 27.855
12.74000 11.623
12.76000 18.913
12.78000 28.480
12.80000 17.378
12.82000 19.945
12.84000 16.923
12.86000 25.159
12.88000 28.388
12.90000 25.735
12.92000 28.014
12.94000 21.416
12.96000 10.187
12.98000 20.395
13.00000 30.545
13.02000 25.417
13.04000 23.135
13.06000 30.616
13.08000 26.540
13.10000 23.461
13.12000 25.840
13.14000 32.752
13.16000 19.751
13.18000 17.116
13.20000 22.177
13.22000 19.075
13.24000 18.359
13.26000 22.395
13.28000 15.533
13.30000 10.545
13.32000 14.736
13.34000 20.265
13.36000 14.480
13.38000 13.713
13.40000 17.053
13.42000 14.731
13.44000 9.748
13.46000 11.242
13.48000 9.623
13.50000 4.342
13.52000 6.998
13.54000 9.172
13.56000 22.021
13.58000 14.279
13.60000 10.056
13.62000 15.161
13.64000 9.069
13.66000 8.053
13.68000 16.234
13.70000 20.289
13.72000 12.034
13.74000 9.646
13.76000 17.076
13.78000 10.707
13.80000 10.227
13.82000 13.318
13.84000 16.533
13.86000 16.384
13.88000 19.871
13.90000 20.529
13.92000 21.134
13.94000 21.349
13.96000 17.567
13.98000 13.988
14.00000 13.794
14.02000 22.888
14.04000 19.028
14.06000 19.583
14.08000 9.497
14.10000 9.973
14.12000 14.433
14.14000 12.979
14.16000 7.217
14.18000 8.544
14.20000 15.232
14.22000 20.149
14.24000 22.026
14.26000 25.194
14.28000 17.804
14.30000 8.305
14.32000 7.124
14.34000 11.427
14.36000 18.137
14.38000 15.465
14.40000 14.570
14.42000 19.989
14.44000 12.900
14.46000 12.859
14.48000 18.287
14.50000 24.283
14.52000 14.956
14.54000 16.197
14.56000 9.481
14.58000 8.447
14.60000 18.273
14.62000 19.102
14.64000 20.735
14.66000 18.156
14.68000 9.076
14.70000 5.537
14.72000 6.176
14.74000 10.566
14.76000 7.677
14.78000 13.087
14.80000 16.409
14.82000 19.767
14.84000 19.190
14.86000 22.340
14.88000 13.069
14.90000 12.248
14.92000 16.009
14.94000 15.241
14.96000 5.749
14.98000 6.755
15.00000 11.897
15.02000 3.449
15.04000 8.401
15.06000 13.707
15.08000 13.656
15.10000 18.422
15.12000 25.060
15.14000 28.359
15.16000 20.435
15.18000 16.330
15.20000 21.094
15.22000 14.370
15.24000 5.756
15.26000 2.672
15.28000 5.217
15.30000 13.508
15.32000 16.455
15.34000 13.472
15.36000 8.908
15.38000 7.672
15.40000 5.288
15.42000 1.829
15.44000 8.956
15.46000 5.296
15.48000 8.982
15.50000 10.817
15.52000 5.989
15.54000 2.567
15.56000 6.160
15.58000 11.745
15.60000 11.817
15.62000 10.417
15.64000 5.214
15.66000 9.406
15.68000 7.931
15.70000 2.135
15.72000 8.628
15.74000 16.692
15.76000 11.870
15.78000 12.134
15.80000 12.168
15.82000 8.376
15.84000 8.892
15.86000 19.842
15.88000 17.309
15.90000 3.748
15.92000 2.727
15.94000 9.926
15.96000 6.816
15.98000 8.679
16.00000 2.279
16.02000 3.811
16.04000 10.893
16.06000 9.086
16.08000 14.934
16.10000 13.983
16.12000 12.070
16.14000 7.434
16.16000 3.632
16.18000 5.802
16.20000 5.449
16.22000 7.937
16.24000 4.603
16.26000 -1.300
16.28000 4.723
16.30000 4.593
16.32000 5.006
16.34000 2.899
16.36000 2.585
16.38000 4.734
16.40000 7.644
16.42000 11.012
16.44000 14.702
16.46000 9.698
16.48000 12.384
16.50000 13.520
16.52000 2.968
16.54000 4.427
16.56000 12.856
16.58000 17.888
16.60000 2.783
16.62000 -4.395
16.64000 6.387
16.66000 11.894
16.68000 5.004
16.70000 2.371
16.72000 9.099
16.74000 19.641
16.76000 21.465
16.78000 12.597
16.80000 -2.286
16.82000 2.260
16.84000 5.380
16.86000 13.082
16.88000 10.439
16.90000 3.895
16.92000 2.807
16.94000 6.793
16.96000 11.969
16.98000 16.958
17.00000 15.387
17.02000 9.512
17.04000 6.863
17.06000 6.429
17.08000 3.714
17.10000 6.915
17.12000 2.815
17.14000 -1.672
17.16000 1.839
17.18000 5.310
17.20000 11.578
17.22000 9.316
17.24000 5.668
17.26000 6.847
17.28000 0.226
17.30000 4.170
17.32000 1.861
17.34000 6.445
17.36000 11.055
17.38000 8.207
17.40000 7.396
17.42000 1.262
17.44000 4.076
17.46000 5.720
17.48000 14.092
17.50000 14.605
17.52000 12.115
17.54000 7.773
17.56000 8.329
17.58000 7.391
17.60000 12.925
17.62000 9.838
17.64000 6.380
17.66000 4.591
17.68000 6.630
17.70000 -0.792
17.72000 2.083
17.74000 9.715
17.76000 5.122
17.78000 2.491
17.80000 5.016
17.82000 1.607
17.84000 -2.444
17.86000 5.393
17.88000 12.982
17.90000 14.936
17.92000 7.123
17.94000 -0.587
17.96000 -1.950
17.98000 -0.045
18.00000 6.348
18.02000 6.286
18.04000 6.570
18.06000 4.101
18.08000 0.029
18.10000 12.491
18.12000 11.095
18.14000 10.452
18.16000 5.903
18.18000 -2.380
18.20000 -1.289
18.22000 6.523
18.24000 0.032
18.26000 3.260
18.28000 7.051
18.30000 6.547
18.32000 6.500
18.34000 6.782
18.36000 2.258
18.38000 7.861
18.40000 8.579
18.42000 1.292
18.44000 -2.893
18.46000 4.633
18.48000 8.418
18.50000 10.969
18.52000 9.881
18.54000 -1.179
18.56000 -1.212
18.58000 1.230
18.60000 2.646
18.62000 3.649
18.64000 1.482
18.66000 -0.043
18.68000 1.217
18.70000 7.589
18.72000 2.192
18.74000 8.663
18.76000 5.180
18.78000 0.000
18.80000 -4.317
18.82000 2.921
18.84000 5.395
18.86000 8.704
18.88000 2.988
18.90000 5.173
18.92000 3.656
18.94000 -1.593
18.96000 0.507
18.98000 -2.180
19.00000 7.514
19.02000 10.091
19.04000 4.009
19.06000 0.335
19.08000 -0.085
19.10000 2.732
19.12000 6.476
19.14000 6.726
19.16000 4.872
19.18000 9.367
19.20000 -0.686
19.22000 7.073
19.24000 10.006
19.26000 9.185
19.28000 0.514
19.30000 3.014
19.32000 10.214
19.34000 16.277
19.36000 16.599
19.38000 7.764
19.40000 4.239
19.42000 0.450
19.44000 -3.597
19.46000 -2.861
19.48000 4.884
19.50000 6.039
19.52000 8.770
19.54000 3.756
19.56000 1.096
19.58000 -0.605
19.60000 6.309
19.62000 3.158
19.64000 3.715
19.66000 6.563
19.68000 4.020
19.70000 8.391
19.72000 9.696
19.74000 11.394
19.76000 2.537
19.78000 0.699
19.80000 4.293
19.82000 4.192
19.84000 3.756
19.86000 3.238
19.88000 5.016
19.90000 2.771
19.92000 -4.238
19.94000 -1.151
19.96000 4.681
19.98000 9.724
20.00000 5.815
20.02000 6.586
20.04000 0.903
20.06000 1.713
20.08000 5.987
20.10000 10.169
20.12000 6.204
20.14000 3.188
20.16000 1.647
20.18000 4.210
20.20000 3.082
20.22000 5.748
20.24000 6.558
20.26000 10.262
20.28000 7.579
20.30000 1.023
20.32000 -1.092
20.34000 0.179
20.36000 4.260
20.38000 1.467
20.40000 -4.219
20.42000 -3.309
20.44000 7.418
20.46000 2.213
20.48000 4.404
20.50000 4.647
20.52000 -0.146
20.54000 -1.189
20.56000 2.794
20.58000 8.030
20.60000 0.510
20.62000 1.609
20.64000 6.410
20.66000 3.891
20.68000 1.000
20.70000 4.348
20.72000 6.451
20.74000 6.388
20.76000 2.516
20.78000 -3.049
20.80000 2.865
20.82000 3.606
20.84000 1.507
20.86000 -0.963
20.88000 3.982
20.90000 9.236
20.92000 6.336
20.94000 3.370
20.96000 2.708
20.98000 2.384
21.00000 -0.108
21.02000 1.892
21.04000 2.651
21.06000 0.450
21.08000 -1.127
21.10000 2.994
21.12000 7.093
21.14000 9.380
21.16000 1.487
21.18000 -1.215
21.20000 -2.831
21.22000 0.727
21.24000 1.152
21.26000 4.200
21.28000 1.777
21.30000 -2.130
21.32000 2.919
21.34000 3.537
21.36000 3.435
21.38000 2.467
21.40000 10.646
21.42000 7.780
21.44000 2.258
21.46000 1.444
21.48000 8.644
21.50000 11.091
21.52000 9.369
21.54000 4.422
21.56000 3.973
21.58000 4.319
21.60000 3.952
21.62000 4.530
21.64000 3.304
21.66000 0.280
21.68000 -2.430
21.70000 -1.546
21.72000 1.770
21.74000 2.775
21.76000 -1.360
21.78000 -0.554
21.80000 -0.721
21.82000 1.976
21.84000 -0.542
21.86000 5.905
21.88000 7.433
21.90000 9.815
21.92000 14.641
21.94000 14.099
21.96000 11.552
21.98000 10.043
22.00000 9.097
22.02000 5.411
22.04000 3.754
22.06000 7.788
22.08000 5.629
22.10000 0.760
22.12000 -4.085
22.14000 4.912
22.16000 9.943
22.18000 4.944
22.20000 5.225
22.22000 7.623
22.24000 8.691
22.26000 6.391
22.28000 5.331
22.30000 5.928
22.32000 2.648
22.34000 6.520
22.36000 14.250
22.38000 12.234
22.40000 8.021
22.42000 6.805
22.44000 2.328
22.46000 9.827
22.48000 9.100
22.50000 9.128
22.52000 6.038
22.54000 6.211
22.56000 7.409
22.58000 9.810
22.60000 7.624
22.62000 9.644
22.64000 11.040
22.66000 6.778
22.68000 5.352
22.70000 3.114
22.72000 2.410
22.74000 1.775
22.76000 13.068
22.78000 12.164
22.80000 4.791
22.82000 8.552
22.84000 12.673
22.86000 11.581
22.88000 10.395
22.90000 9.669
22.92000 8.300
22.94000 12.564
22.96000 13.170
22.98000 7.822
23.00000 -0.101
23.02000 -2.422
23.04000 2.067
23.06000 3.227
23.08000 0.388
23.10000 3.970
23.12000 9.438
23.14000 12.713
23.16000 11.173
23.18000 8.677
23.20000 5.823
23.22000 4.535
23.24000 4.376
23.26000 5.594
23.28000 -1.415
23.30000 -4.057
23.32000 2.060
23.34000 5.794
23.36000 6.457
23.38000 6.035
23.40000 3.784
23.42000 -1.346
23.44000 0.854
23.46000 2.925
23.48000 1.778
23.50000 3.237
23.52000 4.176
23.54000 4.098
23.56000 4.370
23.58000 4.641
23.60000 4.671
23.62000 -1.829
23.64000 0.387
23.66000 5.976
23.68000 4.556
23.70000 4.830
23.72000 4.908
23.74000 0.323
23.76000 -1.572
23.78000 6.155
23.80000 4.230
23.82000 6.527
23.84000 5.999
23.86000 4.977
23.88000 0.912
23.90000 -0.516
23.92000 -3.491
23.94000 -0.437
23.96000 3.055
23.98000 3.800
24.00000 3.543
24.02000 -0.621
24.04000 -0.292
24.06000 -0.565
24.08000 -1.826
24.10000 -3.700
24.12000 1.382
24.14000 1.471
24.16000 0.103
24.18000 0.888
24.20000 -2.782
24.22000 1.055
24.24000 1.325
24.26000 7.758
24.28000 7.903
24.30000 4.151
24.32000 3.001
24.34000 1.793
24.36000 3.674
24.38000 1.418
24.40000 1.529
24.42000 -2.109
24.44000 -2.842
24.46000 3.792
24.48000 4.277
24.50000 0.731
24.52000 1.348
24.54000 4.579
24.56000 -0.749
24.58000 6.456
24.60000 8.849
24.62000 2.291
24.64000 0.984
24.66000 1.729
24.68000 7.522
24.70000 5.636
24.72000 -2.199
24.74000 -2.849
24.76000 1.642
24.78000 7.634
24.80000 9.569
24.82000 4.737
24.84000 3.225
24.86000 7.977
24.88000 4.997
24.90000 0.259
24.92000 -0.774
24.94000 0.135
24.96000 3.338
24.98000 1.343
25.00000 4.219
25.02000 9.043
25.04000 5.281
25.06000 2.578
25.08000 5.997
25.10000 -3.968
25.12000 0.683
25.14000 1.684
25.16000 4.856
25.18000 1.761
25.20000 0.985
25.22000 7.915
25.24000 9.114
25.26000 -0.327
25.28000 -2.150
25.30000 1.112
25.32000 1.235
25.34000 0.051
25.36000 4.839
25.38000 2.317
25.40000 2.192
25.42000 2.262
25.44000 2.077
25.46000 1.012
25.48000 4.692
25.50000 4.321
25.52000 4.587
25.54000 8.971
25.56000 4.741
25.58000 -0.098
25.60000 0.226
25.62000 -0.721
25.64000 2.618
25.66000 3.362
25.68000 6.523
25.70000 1.415
25.72000 -1.991
25.74000 0.451
25.76000 0.701
25.78000 4.407
25.80000 10.427
25.82000 10.362
25.84000 3.626
25.86000 2.541
25.88000 5.799
25.90000 4.246
25.92000 5.123
25.94000 0.413
25.96000 -0.295
25.98000 1.067
26.00000 -1.169
26.02000 -1.726
26.04000 -3.912
26.06000 5.391
26.08000 5.647
26.10000 3.814
26.12000 3.866
26.14000 -0.400
26.16000 -2.549
26.18000 -0.413
26.20000 2.761
26.22000 1.163
26.24000 4.161
26.26000 2.846
26.28000 2.495
26.30000 -3.350
26.32000 4.982
26.34000 2.357
26.36000 3.397
26.38000 7.222
26.40000 1.359
26.42000 -0.892
26.44000 0.401
26.46000 5.667
26.48000 7.733
26.50000 8.072
26.52000 5.662
26.54000 3.435
26.56000 4.265
26.58000 6.296
26.60000 7.852
26.62000 2.577
26.64000 1.199
26.66000 0.069
26.68000 0.995
26.70000 5.168
26.72000 8.077
26.74000 4.892
26.76000 6.869
26.78000 5.194
26.80000 11.904
26.82000 8.668
26.84000 6.527
26.86000 8.463
26.88000 5.766
26.90000 5.573
26.92000 5.610
26.94000 4.289
26.96000 6.052
26.98000 5.476
27.00000 4.051
27.02000 1.824
27.04000 0.833
27.06000 -3.849
27.08000 -0.177
27.10000 6.684
27.12000 1.712
27.14000 1.136
27.16000 3.792
27.18000 5.901
27.20000 3.513
27.22000 -2.191
27.24000 1.567
27.26000 3.927
27.28000 6.155
27.30000 5.513
27.32000 6.655
27.34000 8.617
27.36000 4.386
27.38000 4.146
27.40000 8.173
27.42000 8.574
27.44000 5.897
27.46000 4.764
27.48000 0.980
27.50000 0.138
27.52000 2.404
27.54000 -0.478
27.56000 6.083
27.58000 2.302
27.60000 2.636
27.62000 3.390
27.64000 0.152
27.66000 7.654
27.68000 7.788
27.70000 4.908
27.72000 6.741
27.74000 6.190
27.76000 1.427
27.78000 1.713
27.80000 3.395
27.82000 6.563
27.84000 8.855
27.86000 10.061
27.88000 6.311
27.90000 4.416
27.92000 4.923
27.94000 6.301
27.96000 5.901
27.98000 4.880
28.00000 4.218
28.02000 0.284
28.04000 2.872
28.06000 9.586
28.08000 5.643
28.10000 7.811
28.12000 8.445
28.14000 3.146
28.16000 7.954
28.18000 10.261
28.20000 6.486
28.22000 5.773
28.24000 10.417
28.26000 5.437
28.28000 8.346
28.30000 8.205
28.32000 10.242
28.34000 6.327
28.36000 5.905
28.38000 10.941
28.40000 13.660
28.42000 9.414
28.44000 1.824
28.46000 0.408
28.48000 1.963
28.50000 8.722
28.52000 12.093
28.54000 3.897
28.56000 0.491
28.58000 -3.745
28.60000 1.130
28.62000 5.784
28.64000 5.817
28.66000 5.714
28.68000 9.826
28.70000 10.166
28.72000 4.878
28.74000 11.080
28.76000 8.608
28.78000 6.759
28.80000 6.067
28.82000 3.484
28.84000 2.584
28.86000 -0.567
28.88000 -1.694
28.90000 0.272
28.92000 4.795
28.94000 4.319
28.96000 4.768
28.98000 7.628
29.00000 9.719
29.02000 8.478
29.04000 5.489
29.06000 9.643
29.08000 5.696
29.10000 3.933
29.12000 4.322
29.14000 7.775
29.16000 2.298
29.18000 1.918
29.20000 8.625
29.22000 8.266
29.24000 4.859
29.26000 2.938
29.28000 7.813
29.30000 7.807
29.32000 4.355
29.34000 6.200
29.36000 4.675
29.38000 8.352
29.40000 5.119
29.42000 0.017
29.44000 6.566
29.46000 7.358
29.48000 2.853
29.50000 1.981
29.52000 8.331
29.54000 6.124
29.56000 3.958
29.58000 7.637
29.60000 7.087
29.62000 8.544
29.64000 5.696
29.66000 4.459
29.68000 3.196
29.70000 2.171
29.72000 -3.704
29.74000 -0.096
29.76000 5.390
29.78000 4.694
29.80000 5.116
29.82000 3.476
29.84000 7.673
29.86000 7.321
29.88000 5.130
29.90000 6.497
29.92000 2.879
29.94000 1.701
29.96000 1.780
29.98000 3.082
30.00000 4.683
30.02000 3.596
30.04000 6.608
30.06000 0.513
30.08000 5.476
30.10000 5.896
30.12000 6.272
30.14000 1.326
30.16000 5.339
30.18000 6.863
30.20000 5.621
30.22000 2.761
30.24000 4.577
30.26000 5.547
30.28000 5.661
30.30000 6.154
30.32000 1.912
30.34000 4.576
30.36000 1.402
30.38000 0.804
30.40000 5.616
30.42000 5.065
30.44000 1.010
30.46000 3.551
30.48000 1.147
30.50000 -3.686
30.52000 2.126
30.54000 6.517
30.56000 3.975
30.58000 4.297
30.60000 2.133
30.62000 -1.854
30.64000 0.597
30.66000 4.523
30.68000 2.192
30.70000 10.432
30.72000 8.036
30.74000 1.555
30.76000 2.962
30.78000 0.596
30.80000 1.480
30.82000 1.684
30.84000 6.296
30.86000 6.813
30.88000 2.700
30.90000 1.903
30.92000 2.067
30.94000 6.294
30.96000 6.465
30.98000 1.551
31.00000 2.803
31.02000 2.050
31.04000 2.271
31.06000 2.314
31.08000 1.895
31.10000 -0.668
31.12000 3.294
31.14000 -0.409
31.16000 -0.374
31.18000 3.021
31.20000 0.165
31.22000 -2.456
31.24000 1.443
31.26000 4.974
31.28000 3.548
31.30000 2.398
31.32000 -0.105
31.34000 -2.149
31.36000 -0.320
31.38000 -0.708
31.40000 -1.461
31.42000 -1.675
31.44000 1.364
31.46000 -0.840
31.48000 1.084
31.50000 2.918
31.52000 0.071
31.54000 0.782
31.56000 -0.102
31.58000 2.137
31.60000 2.990
31.62000 2.762
31.64000 1.477
31.66000 0.173
31.68000 6.513
31.70000 7.865
31.72000 6.429
31.74000 0.028
31.76000 1.327
31.78000 1.911
31.80000 -3.381
31.82000 -3.671
31.84000 3.287
31.86000 4.640
31.88000 3.898
31.90000 1.874
31.92000 1.757
31.94000 0.460
31.96000 4.349
31.98000 1.233
32.00000 -0.638
32.02000 1.257
32.04000 1.508
32.06000 -1.287
32.08000 -0.514
32.10000 3.141
32.12000 0.965
32.14000 4.628
32.16000 0.929
32.18000 3.604
32.20000 1.226
32.22000 0.291
32.24000 1.989
32.26000 4.618
32.28000 -0.622
32.30000 -0.406
32.32000 -2.967
32.34000 2.964
32.36000 0.393
32.38000 0.856
32.40000 0.987
32.42000 4.567
32.44000 -0.966
32.46000 -1.058
32.48000 1.219
32.50000 3.063
32.52000 2.317
32.54000 -3.644
32.56000 2.570
32.58000 4.615
32.60000 4.505
32.62000 3.000
32.64000 -0.179
32.66000 1.955
32.68000 6.292
32.70000 7.792
32.72000 0.213
32.74000 -0.537
32.76000 -3.210
32.78000 -2.223
32.80000 4.827
32.82000 0.309
32.84000 0.845
32.86000 0.543
32.88000 2.807
32.90000 -2.408
32.92000 -0.724
32.94000 1.705
32.96000 1.054
32.98000 0.297
33.00000 3.790
33.02000 5.501
33.04000 7.404
33.06000 8.523
33.08000 3.421
33.10000 1.593
33.12000 0.398
33.14000 2.837
33.16000 4.737
33.18000 1.266
33.20000 0.645
33.22000 3.871
33.24000 2.529
33.26000 -3.647
33.28000 -1.885
33.30000 -3.455
33.32000 0.572
33.34000 0.814
33.36000 2.310
33.38000 0.741
33.40000 0.669
33.42000 0.974
33.44000 -2.361
33.46000 -1.111
33.48000 3.553
33.50000 3.049
33.52000 1.321
33.54000 3.598
33.56000 6.614
33.58000 -0.870
33.60000 2.263
33.62000 2.129
33.64000 1.647
33.66000 0.854
33.68000 -0.158
33.70000 -0.163
33.72000 0.706
33.74000 -2.069
33.76000 -1.251
33.78000 -0.392
33.80000 0.039
33.82000 -1.105
33.84000 1.865
33.86000 4.006
33.88000 4.465
33.90000 1.612
33.92000 4.373
33.94000 1.943
33.96000 -0.050
33.98000 -0.492
34.00000 -1.368
34.02000 -1.702
34.04000 -1.255
34.06000 1.346
34.08000 2.097
34.10000 3.807
34.12000 5.131
34.14000 3.272
34.16000 5.664
34.18000 0.018
34.20000 -1.630
34.22000 3.957
34.24000 1.614
34.26000 -2.356
34.28000 -0.229
34.30000 7.887
34.32000 10.530
34.34000 3.702
34.36000 0.334
34.38000 1.648
34.40000 4.018
34.42000 0.733
34.44000 2.855
34.46000 5.184
34.48000 1.998
34.50000 -0.782
34.52000 1.651
34.54000 -1.292
34.56000 4.467
34.58000 2.303
34.60000 0.664
34.62000 1.804
34.64000 2.746
34.66000 1.840
34.68000 0.435
34.70000 1.624
34.72000 1.636
34.74000 1.456
34.76000 1.715
34.78000 3.841
34.80000 -2.613
34.82000 -2.538
34.84000 3.757
34.86000 3.005
34.88000 3.046
34.90000 0.419
34.92000 -0.222
34.94000 -3.328
34.96000 3.397
34.98000 2.822
35.00000 2.694
35.02000 0.925
35.04000 -3.596
35.06000 -2.407
35.08000 -1.117
35.10000 3.219
35.12000 4.462
35.14000 4.220
35.16000 3.380
35.18000 1.146
35.20000 1.815
35.22000 3.425
35.24000 0.006
35.26000 -3.094
35.28000 -2.396
35.30000 -0.112
35.32000 -2.104
35.34000 -0.377
35.36000 1.340
35.38000 -0.625
35.40000 -1.589
35.42000 -0.370
35.44000 0.263
35.46000 2.355
35.48000 1.998
35.50000 5.506
35.52000 3.542
35.54000 4.936
35.56000 2.420
35.58000 3.131
35.60000 5.761
35.62000 2.212
35.64000 -0.283
35.66000 1.572
35.68000 -3.604
35.70000 -1.809
35.72000 -2.019
35.74000 -0.058
35.76000 -2.347
35.78000 -1.200
35.80000 -3.011
35.82000 -0.899
35.84000 2.865
35.86000 2.920
35.88000 2.592
35.90000 1.696
35.92000 -0.085
35.94000 1.323
35.96000 0.882
35.98000 -0.782
36.00000 -1.224
36.02000 2.591
36.04000 4.011
36.06000 8.490
36.08000 5.005
36.10000 -1.422
36.12000 0.946
36.14000 4.690
36.16000 -2.164
36.18000 -2.079
36.20000 3.841
36.22000 4.073
36.24000 4.953
36.26000 4.747
36.28000 8.681
36.30000 12.507
36.32000 6.210
36.34000 2.418
36.36000 4.785
36.38000 4.129
36.40000 2.604
36.42000 2.008
36.44000 2.954
36.46000 0.994
36.48000 -3.616
36.50000 5.000
36.52000 4.492
36.54000 8.704
36.56000 5.485
36.58000 2.157
36.60000 3.692
36.62000 6.631
36.64000 6.294
36.66000 0.498
36.68000 5.272
36.70000 6.159
36.72000 7.529
36.74000 6.521
36.76000 7.093
36.78000 5.971
36.80000 5.468
36.82000 1.422
36.84000 0.269
36.86000 7.461
36.88000 10.237
36.90000 9.223
36.92000 8.218
36.94000 9.055
36.96000 3.272
36.98000 3.922
37.00000 4.552
37.02000 4.844
37.04000 5.486
37.06000 3.681
37.08000 7.531
37.10000 7.740
37.12000 3.394
37.14000 -1.414
37.16000 3.884
37.18000 8.791
37.20000 4.138
37.22000 9.792
37.24000 11.595
37.26000 9.582
37.28000 10.250
37.30000 4.596
37.32000 7.790
37.34000 14.428
37.36000 13.266
37.38000 14.279
37.40000 11.566
37.42000 12.506
37.44000 15.374
37.46000 17.627
37.48000 14.810
37.50000 12.180
37.52000 12.261
37.54000 18.069
37.56000 20.857
37.58000 14.375
37.60000 13.085
37.62000 15.594
37.64000 16.080
37.66000 13.023
37.68000 13.083
37.70000 20.096
37.72000 19.357
37.74000 17.500
37.76000 18.912
37.78000 16.792
37.80000 19.032
37.82000 24.841
37.84000 23.275
37.86000 21.614
37.88000 20.780
37.90000 19.652
37.92000 25.038
37.94000 22.774
37.96000 28.596
37.98000 26.515
38.00000 29.108
38.02000 30.250
38.04000 33.209
38.06000 31.799
38.08000 30.680
38.10000 36.050
38.12000 38.240
38.14000 32.901
38.16000 31.794
38.18000 37.132
38.20000 44.561
38.22000 45.075
38.24000 42.810
38.26000 42.831
38.28000 45.694
38.30000 47.177
38.32000 45.756
38.34000 50.831
38.36000 52.834
38.38000 51.601
38.40000 56.630
38.42000 58.766
38.44000 56.804
38.46000 58.325
38.48000 65.908
38.50000 62.289
38.52000 64.615
38.54000 71.857
38.56000 76.903
38.58000 76.760
38.60000 78.362
38.62000 87.118
38.64000 92.439
38.66000 92.876
38.68000 90.904
38.70000 102.740
38.72000 116.505
38.74000 117.087
38.76000 122.795
38.78000 131.998
38.80000 139.820
38.82000 150.192
38.84000 157.370
38.86000 166.557
38.88000 181.133
38.90000 186.438
38.92000 192.252
38.94000 205.121
38.96000 212.749
38.98000 223.274
39.00000 239.477
39.02000 255.092
39.04000 272.969
39.06000 283.558
39.08000 294.598
39.10000 320.121
39.12000 334.277
39.14000 351.382
39.16000 369.901
39.18000 388.779
39.20000 407.933
39.22000 426.129
39.24000 453.501
39.26000 469.909
39.28000 479.207
39.30000 491.077
39.32000 501.370
39.34000 517.316
39.36000 522.756
39.38000 535.894
39.40000 544.135
39.42000 546.155
39.44000 553.970
39.46000 545.493
39.48000 542.913
39.50000 538.587
39.52000 537.508
39.54000 527.574
39.56000 514.729
39.58000 498.650
39.60000 487.620
39.62000 475.651
39.64000 462.434
39.66000 437.591
39.68000 416.069
39.70000 404.151
39.72000 384.389
39.74000 363.575
39.76000 342.018
39.78000 327.565
39.80000 310.362
39.82000 284.163
39.84000 266.448
39.86000 257.964
39.88000 238.831
39.90000 229.256
39.92000 216.499
39.94000 196.103
39.96000 187.613
39.98000 174.873
40.00000 164.323
40.02000 155.080
40.04000 145.535
40.06000 135.173
40.08000 122.616
40.10000 116.374
40.12000 110.119
40.14000 103.787
40.16000 97.934
40.18000 92.208
40.20000 82.503
40.22000 78.008
40.24000 79.716
40.26000 80.052
40.28000 70.604
40.30000 65.648
40.32000 58.193
40.34000 55.028
40.36000 50.294
40.38000 52.145
40.40000 48.399
40.42000 47.864
40.44000 45.067
40.46000 43.415
40.48000 42.677
40.50000 38.498
40.52000 34.889
40.54000 30.822
40.56000 29.712
40.58000 30.800
40.60000 27.483
40.62000 27.771
40.64000 29.579
40.66000 24.189
40.68000 19.857
40.70000 20.417
40.72000 17.000
40.74000 14.329
40.76000 16.618
40.78000 21.375
40.80000 24.507
40.82000 19.649
40.84000 16.630
40.86000 15.833
40.88000 11.504
40.90000 8.806
40.92000 7.450
40.94000 8.283
40.96000 9.346
40.98000 10.515
41.00000 12.398
41.02000 10.901
41.04000 8.233
41.06000 6.868
41.08000 5.948
41.10000 6.610
41.12000 6.523
41.14000 6.691
41.16000 4.982
41.18000 4.720
41.20000 4.514
41.22000 4.087
41.24000 4.423
41.26000 3.526
41.28000 3.716
41.30000 4.809
41.32000 5.812
41.34000 5.418
41.36000 0.800
41.38000 -1.078
41.40000 1.358
41.42000 1.783
41.44000 4.102
41.46000 1.642
41.48000 0.180
41.50000 1.899
41.52000 6.935
41.54000 6.359
41.56000 1.639
41.58000 0.453
41.60000 2.948
41.62000 0.479
41.64000 -0.818
41.66000 0.414
41.68000 1.057
41.70000 0.465
41.72000 0.260
41.74000 -2.574
41.76000 -1.207
41.78000 -0.565
41.80000 2.072
41.82000 1.749
41.84000 -0.009
41.86000 0.440
41.88000 0.925
41.90000 4.340
41.92000 4.003
41.94000 -0.230
41.96000 -2.016
41.98000 -0.126
42.00000 -0.794
42.02000 -0.524
42.04000 -1.570
42.06000 -2.366
42.08000 2.632
42.10000 -2.434
42.12000 -3.340
42.14000 -3.216
42.16000 0.215
42.18000 -0.184
42.20000 0.827
42.22000 2.237
42.24000 4.023
42.26000 3.488
42.28000 -0.044
42.30000 1.276
42.32000 2.466
42.34000 -1.509
42.36000 -2.646
42.38000 0.237
42.40000 -3.132
42.42000 -0.781
42.44000 1.985
42.46000 4.100
42.48000 7.518
42.50000 6.187
42.52000 4.495
42.54000 1.547
42.56000 -2.860
42.58000 0.405
42.60000 4.147
42.62000 -0.394
42.64000 -3.257
42.66000 1.682
42.68000 2.530
42.70000 1.931
42.72000 -0.234
42.74000 -0.257
42.76000 -1.402
42.78000 -1.035
42.80000 1.636
42.82000 0.062
42.84000 -0.688
42.86000 1.514
42.88000 4.506
42.90000 4.709
42.92000 -1.253
42.94000 -0.295
42.96000 4.160
42.98000 4.690
43.00000 -1.670
43.02000 -3.188
43.04000 1.164
43.06000 9.236
43.08000 5.788
43.10000 -2.012
43.12000 -0.969
43.14000 1.063
43.16000 3.361
43.18000 3.754
43.20000 1.552
43.22000 -0.178
43.24000 0.160
43.26000 3.686
43.28000 2.102
43.30000 0.365
43.32000 -1.668
43.34000 1.783
43.36000 4.136
43.38000 4.510
43.40000 3.371
43.42000 0.331
43.44000 -1.423
43.46000 -1.134
43.48000 1.201
43.50000 3.817
43.52000 7.760
43.54000 0.835
43.56000 -0.418
43.58000 -0.599
43.60000 0.320
43.62000 0.481
43.64000 -0.428
43.66000 0.638
43.68000 -0.350
43.70000 -3.060
43.72000 -1.810
43.74000 -0.947
43.76000 0.950
43.78000 3.141
43.80000 3.659
43.82000 0.861
43.84000 1.271
43.86000 2.361
43.88000 2.727
43.90000 3.700
43.92000 2.304
43.94000 0.724
43.96000 1.072
43.98000 -0.725
44.00000 -2.608
44.02000 -1.226
44.04000 2.279
44.06000 1.069
44.08000 0.223
44.10000 1.506
44.12000 1.237
44.14000 -0.984
44.16000 -0.467
44.18000 1.260
44.20000 0.348
44.22000 -2.386
44.24000 -3.114
44.26000 -2.778
44.28000 3.573
44.30000 2.457
44.32000 1.200
44.34000 3.464
44.36000 5.270
44.38000 3.510
44.40000 0.592
44.42000 2.645
44.44000 1.647
44.46000 0.438
44.48000 1.693
44.50000 1.118
44.52000 1.991
44.54000 4.770
44.56000 3.869
44.58000 1.784
44.60000 2.109
44.62000 2.475
44.64000 3.002
44.66000 5.950
44.68000 6.057
44.70000 2.591
44.72000 5.410
44.74000 2.623
44.76000 3.769
44.78000 6.430
44.80000 6.528
44.82000 5.240
44.84000 2.704
44.86000 6.135
44.88000 8.349
44.90000 7.101
44.92000 8.917
44.94000 10.226
44.96000 10.515
44.98000 8.504
45.00000 9.189
45.02000 10.043
45.04000 7.389
45.06000 9.576
45.08000 12.088
45.10000 9.800
45.12000 8.528
45.14000 8.706
45.16000 10.991
45.18000 11.839
45.20000 14.761
45.22000 14.877
45.24000 15.486
45.26000 17.123
45.28000 18.379
45.30000 18.222
45.32000 18.478
45.34000 18.715
45.36000 19.379
45.38000 23.800
45.40000 23.307
45.42000 25.425
45.44000 26.629
45.46000 26.910
45.48000 27.960
45.50000 31.585
45.52000 30.919
45.54000 35.145
45.56000 35.280
45.58000 35.143
45.60000 32.842
45.62000 34.880
45.64000 34.597
45.66000 36.826
45.68000 43.399
45.70000 43.866
45.72000 44.448
45.74000 42.675
45.76000 42.100
45.78000 41.815
45.80000 43.880
45.82000 47.196
45.84000 52.604
45.86000 55.639
45.88000 53.954
45.90000 53.494
45.92000 52.957
45.94000 51.033
45.96000 53.364
45.98000 55.329
46.00000 58.906
46.02000 62.627
46.04000 62.531
46.06000 60.791
46.08000 57.037
46.10000 56.770
46.12000 58.099
46.14000 61.928
46.16000 61.696
46.18000 54.293
46.20000 55.540
46.22000 54.836
46.24000 58.710
46.26000 58.508
46.28000 59.945
46.30000 57.027
46.32000 56.628
46.34000 59.133
46.36000 53.528
46.38000 48.368
46.40000 47.247
46.42000 47.741
46.44000 44.755
46.46000 47.754
46.48000 46.773
46.50000 47.057
46.52000 39.034
46.54000 41.087
46.56000 38.459
46.58000 35.196
46.60000 35.793
46.62000 35.025
46.64000 32.665
46.66000 30.872
46.68000 29.856
46.70000 23.232
46.72000 22.226
46.74000 19.182
46.76000 21.212
46.78000 25.201
46.80000 25.366
46.82000 20.912
46.84000 18.659
46.86000 17.784
46.88000 11.652
46.90000 11.312
46.92000 12.637
46.94000 12.609
46.96000 17.008
46.98000 11.325
47.00000 9.867
47.02000 10.420
47.04000 10.912
47.06000 12.734
47.08000 12.189
47.10000 9.250
47.12000 9.833
47.14000 10.338
47.16000 9.380
47.18000 5.385
47.20000 -1.156
47.22000 2.228
47.24000 3.507
47.26000 2.601
47.28000 3.736
47.30000 1.470
47.32000 1.292
47.34000 4.481
47.36000 1.485
47.38000 2.346
47.40000 -1.757
47.42000 -2.217
47.44000 4.796
47.46000 2.813
47.48000 -0.485
47.50000 -1.162
47.52000 -1.961
47.54000 2.267
47.56000 2.871
47.58000 2.047
47.60000 0.100
47.62000 3.759
47.64000 3.734
47.66000 1.365
47.68000 2.705
47.70000 -0.881
47.72000 -0.508
47.74000 0.020
47.76000 0.348
47.78000 1.879
47.80000 4.845
47.82000 5.556
47.84000 2.479
47.86000 -1.398
47.88000 -2.693
47.90000 -2.690
47.92000 -1.793
47.94000 -1.740
47.96000 -0.099
47.98000 1.353
48.00000 5.196
48.02000 3.774
48.04000 1.866
48.06000 0.348
48.08000 -1.402
48.10000 1.034
48.12000 1.174
48.14000 -0.499
48.16000 -2.657
48.18000 1.967
48.20000 3.012
48.22000 -0.828
48.24000 0.761
48.26000 0.031
48.28000 -2.628
48.30000 -2.600
48.32000 -1.305
48.34000 3.784
48.36000 2.235
48.38000 0.763
48.40000 0.983
48.42000 -1.403
48.44000 -1.224
48.46000 -2.628
48.48000 -1.317
48.50000 -0.344
48.52000 4.001
48.54000 1.477
48.56000 1.565
48.58000 4.099
48.60000 3.551
48.62000 -2.617
48.64000 2.285
48.66000 2.772
48.68000 3.902
48.70000 2.749
48.72000 3.665
48.74000 1.669
48.76000 0.650
48.78000 1.555
48.80000 3.329
48.82000 4.321
48.84000 5.818
48.86000 5.624
48.88000 0.484
48.90000 -1.104
48.92000 -2.235
48.94000 0.315
48.96000 2.008
48.98000 0.354
49.00000 -2.130
49.02000 -0.621
49.04000 2.355
49.06000 -0.464
49.08000 -2.583
49.10000 -1.231
49.12000 0.018
49.14000 2.966
49.16000 -0.094
49.18000 3.093
49.20000 3.165
49.22000 -1.315
49.24000 -1.768
49.26000 2.462
49.28000 1.523
49.30000 2.881
49.32000 0.871
49.34000 -0.697
49.36000 -0.728
49.38000 1.594
49.40000 2.972
49.42000 0.715
49.44000 -0.482
49.46000 -1.377
49.48000 2.560
49.50000 2.522
49.52000 2.496
49.54000 2.671
49.56000 0.748
49.58000 3.081
49.60000 3.868
49.62000 0.803
49.64000 0.747
49.66000 6.681
49.68000 8.137
49.70000 4.642
49.72000 0.642
49.74000 0.857
49.76000 4.958
49.78000 3.018
49.80000 -0.568
49.82000 0.217
49.84000 -2.531
49.86000 -0.273
49.88000 4.556
49.90000 3.019
49.92000 3.122
49.94000 1.419
49.96000 1.145
49.98000 0.567
50.00000 1.607
50.02000 0.698
50.04000 1.888
50.06000 3.682
50.08000 3.580
50.10000 3.381
50.12000 2.032
50.14000 1.061
50.16000 -2.505
50.18000 -1.400
50.20000 2.786
50.22000 2.841
50.24000 1.322
50.26000 1.306
50.28000 -1.275
50.30000 -1.068
50.32000 2.111
50.34000 6.178
50.36000 9.232
50.38000 5.001
50.40000 -0.220
50.42000 1.608
50.44000 2.786
50.46000 2.098
50.48000 1.872
50.50000 2.161
50.52000 2.668
50.54000 0.401
50.56000 0.713
50.58000 -0.441
50.60000 2.211
50.62000 4.056
50.64000 0.832
50.66000 -0.400
50.68000 -0.595
50.70000 -1.060
50.72000 1.406
50.74000 3.263
50.76000 3.317
50.78000 2.964
50.80000 1.780
50.82000 5.657
50.84000 1.965
50.86000 -0.363
50.88000 -0.122
50.90000 -0.192
50.92000 3.810
50.94000 6.320
50.96000 4.441
50.98000 3.037
51.00000 5.972
51.02000 7.306
51.04000 5.145
51.06000 1.914
51.08000 -2.457
51.10000 2.272
51.12000 4.022
51.14000 3.363
51.16000 3.527
51.18000 6.608
51.20000 3.107
51.22000 1.651
51.24000 2.517
51.26000 5.518
51.28000 5.297
51.30000 2.250
51.32000 -0.947
51.34000 0.038
51.36000 3.081
51.38000 8.029
51.40000 9.867
51.42000 7.497
51.44000 3.796
51.46000 5.807
51.48000 -0.086
51.50000 1.631
51.52000 3.126
51.54000 4.434
51.56000 1.858
51.58000 1.280
51.60000 5.068
51.62000 8.686
51.64000 5.007
51.66000 5.713
51.68000 -0.213
51.70000 -0.863
51.72000 1.161
51.74000 4.501
51.76000 5.602
51.78000 3.937
51.80000 3.189
51.82000 1.084
51.84000 -1.645
51.86000 -2.441
51.88000 2.197
51.90000 5.399
51.92000 5.837
51.94000 1.967
51.96000 1.310
51.98000 5.797
52.00000 7.104
52.02000 1.601
52.04000 2.453
52.06000 2.417
52.08000 3.051
52.10000 6.197
52.12000 5.404
52.14000 2.837
52.16000 2.557
52.18000 2.824
52.20000 4.714
52.22000 3.701
52.24000 4.580
52.26000 4.355
52.28000 -0.352
52.30000 -2.432
52.32000 1.304
52.34000 5.376
52.36000 3.006
52.38000 -0.965
52.40000 1.042
52.42000 4.281
52.44000 3.736
52.46000 2.491
52.48000 1.805
52.50000 3.651
52.52000 1.640
52.54000 2.314
52.56000 2.561
52.58000 2.165
52.60000 5.533
52.62000 8.166
52.64000 7.687
52.66000 2.534
52.68000 3.906
52.70000 5.622
52.72000 3.017
52.74000 1.915
52.76000 1.555
52.78000 2.925
52.80000 1.237
52.82000 1.460
52.84000 1.541
52.86000 4.499
52.88000 6.180
52.90000 3.353
52.92000 2.062
52.94000 -2.421
52.96000 0.518
52.98000 3.961
53.00000 1.498
53.02000 5.403
53.04000 2.559
53.06000 3.683
53.08000 3.134
53.10000 3.317
53.12000 0.567
53.14000 1.292
53.16000 0.415
53.18000 -0.294
53.20000 0.375
53.22000 3.422
53.24000 2.663
53.26000 2.499
53.28000 0.743
53.30000 0.075
53.32000 1.753
53.34000 0.366
53.36000 -1.628
53.38000 -1.706
53.40000 0.822
53.42000 1.563
53.44000 0.106
53.46000 -0.942
53.48000 0.087
53.50000 2.443
53.52000 -0.102
53.54000 -0.350
53.56000 1.303
53.58000 -0.573
53.60000 1.214
53.62000 1.122
53.64000 1.951
53.66000 1.737
53.68000 0.674
53.70000 -0.332
53.72000 0.877
53.74000 0.799
53.76000 0.226
53.78000 2.442
53.80000 2.517
53.82000 1.941
53.84000 -2.424
53.86000 0.515
53.88000 0.382
53.90000 2.404
53.92000 0.537
53.94000 1.300
53.96000 0.563
53.98000 1.157
54.00000 1.016
54.02000 1.921
54.04000 3.948
54.06000 3.511
54.08000 1.768
54.10000 1.206
54.12000 2.672
54.14000 -0.058
54.16000 -0.268
54.18000 0.402
54.20000 5.402
54.22000 3.625
54.24000 2.450
54.26000 3.030
54.28000 0.318
54.30000 -1.454
54.32000 -0.016
54.34000 -2.411
54.36000 -0.492
54.38000 1.522
54.40000 -0.027
54.42000 -1.356
54.44000 0.196
54.46000 0.955
54.48000 1.742
54.50000 -0.392
54.52000 -1.314
54.54000 1.699
54.56000 2.461
54.58000 3.136
54.60000 1.285
54.62000 -0.848
54.64000 0.010
54.66000 1.090
54.68000 2.125
54.70000 4.669
54.72000 1.482
54.74000 0.350
54.76000 -0.740
54.78000 -0.363
54.80000 1.464
54.82000 -0.106
54.84000 1.317
54.86000 0.411
54.88000 2.017
54.90000 4.904
54.92000 3.416
54.94000 0.457
54.96000 -1.310
54.98000 1.997
55.00000 4.808
55.02000 1.063
55.04000 -0.364
55.06000 2.378
55.08000 4.789
55.10000 3.320
55.12000 -1.331
55.14000 -0.183
55.16000 -0.603
55.18000 1.280
55.20000 1.348
55.22000 -1.196
55.24000 0.126
55.26000 4.797
55.28000 2.335
55.30000 3.465
55.32000 2.290
55.34000 0.552
55.36000 0.692
55.38000 0.114
55.40000 0.800
55.42000 0.204
55.44000 0.101
55.46000 1.579
55.48000 3.390
55.50000 1.996
55.52000 1.672
55.54000 -1.265
55.56000 -0.335
55.58000 0.157
55.60000 0.552
55.62000 1.155
55.64000 -1.727
55.66000 -2.151
55.68000 -2.179
55.70000 -2.392
55.72000 0.349
55.74000 1.580
55.76000 0.113
55.78000 -1.730
55.80000 1.150
55.82000 3.562
55.84000 -0.073
55.86000 0.037
55.88000 1.527
55.90000 3.171
55.92000 5.033
55.94000 3.726
55.96000 -0.383
55.98000 -1.680
56.00000 -0.074
56.02000 -1.748
56.04000 0.628
56.06000 3.291
56.08000 2.889
56.10000 4.160
56.12000 4.233
56.14000 2.058
56.16000 -1.621
56.18000 1.789
56.20000 6.195
56.22000 3.024
56.24000 1.931
56.26000 4.324
56.28000 2.190
56.30000 -1.201
56.32000 1.320
56.34000 1.855
56.36000 0.710
56.38000 -2.354
56.40000 -2.186
56.42000 0.897
56.44000 1.349
56.46000 0.288
56.48000 0.049
56.50000 3.658
56.52000 6.672
56.54000 2.665
56.56000 1.436
56.58000 2.664
56.60000 2.757
56.62000 3.261
56.64000 3.116
56.66000 2.363
56.68000 0.940
56.70000 0.137
56.72000 0.068
56.74000 2.770
56.76000 5.501
56.78000 2.811
56.80000 2.379
56.82000 2.930
56.84000 -0.083
56.86000 1.288
56.88000 3.250
56.90000 2.224
56.92000 2.586
56.94000 3.331
56.96000 4.479
56.98000 5.270
57.00000 4.314
57.02000 -0.830
57.04000 -0.365
57.06000 0.643
57.08000 0.476
57.10000 1.171
57.12000 -0.886
57.14000 -0.663
57.16000 -0.061
57.18000 1.443
57.20000 0.126
57.22000 -0.467
57.24000 2.568
57.26000 2.524
57.28000 1.500
57.30000 -0.014
57.32000 -1.989
57.34000 -2.339
57.36000 2.797
57.38000 1.242
57.40000 1.879
57.42000 4.820
57.44000 1.099
57.46000 0.006
57.48000 -0.974
57.50000 -0.702
57.52000 1.666
57.54000 1.774
57.56000 2.134
57.58000 1.647
57.60000 0.598
57.62000 -1.310
57.64000 -0.028
57.66000 3.191
57.68000 2.990
57.70000 1.484
57.72000 1.039
57.74000 -0.740
57.76000 -1.016
57.78000 0.579
57.80000 1.867
57.82000 1.018
57.84000 0.812
57.86000 -2.333
57.88000 -0.736
57.90000 3.296
57.92000 1.222
57.94000 3.865
57.96000 2.934
57.98000 3.485
58.00000 -0.093
58.02000 2.634
58.04000 3.428
58.06000 0.705
58.08000 -1.038
58.10000 -0.563
58.12000 1.855
58.14000 1.048
58.16000 -0.383
58.18000 -1.360
58.20000 1.882
58.22000 1.114
58.24000 -0.536
58.26000 -0.737
58.28000 -0.934
58.30000 -1.606
58.32000 1.262
58.34000 0.331
58.36000 2.066
58.38000 4.553
58.40000 1.136
58.42000 -1.337
58.44000 -1.681
58.46000 -0.439
58.48000 0.556
58.50000 -1.607
58.52000 0.780
58.54000 -1.050
58.56000 5.236
58.58000 0.760
58.60000 -2.300
58.62000 -2.289
58.64000 -2.015
58.66000 0.348
58.68000 1.844
58.70000 2.670
58.72000 0.981
58.74000 1.349
58.76000 1.676
58.78000 -0.191
58.80000 0.131
58.82000 1.297
58.84000 2.493
58.86000 1.847
58.88000 -1.305
58.90000 2.712
58.92000 2.109
58.94000 2.191
58.96000 -2.106
58.98000 -1.085
59.00000 2.214
59.02000 3.346
59.04000 -0.080
59.06000 -0.385
59.08000 1.804
59.10000 1.688
59.12000 3.713
59.14000 1.037
59.16000 0.089
59.18000 -0.741
59.20000 -0.216
59.22000 0.590
59.24000 3.551
59.26000 2.091
59.28000 -2.252
59.30000 3.543
59.32000 2.751
59.34000 0.030
59.36000 0.245
59.38000 1.337
59.40000 0.388
59.42000 -0.804
59.44000 2.040
59.46000 3.492
59.48000 2.618
59.50000 0.938
59.52000 1.441
59.54000 3.434
59.56000 1.805
59.58000 1.633
59.60000 0.769
59.62000 3.392
59.64000 2.616
59.66000 3.902
59.68000 2.361
59.70000 0.448
59.72000 3.646
59.74000 3.705
59.76000 5.037
59.78000 4.187
59.80000 3.312
59.82000 3.508
59.84000 5.026
59.86000 2.152
59.88000 0.283
59.90000 0.197
59.92000 1.801
59.94000 2.095
59.96000 0.708
59.98000 2.263
60.00000 3.700
60.02000 1.886
60.04000 2.349
60.06000 0.715
60.08000 -0.455
60.10000 0.713
60.12000 1.585
60.14000 5.638
60.16000 4.738
60.18000 4.585
60.20000 2.500
60.22000 0.328
60.24000 1.657
60.26000 0.542
60.28000 2.043
60.30000 1.022
60.32000 3.252
60.34000 5.900
60.36000 6.119
60.38000 0.424
60.40000 -2.067
60.42000 -0.671
60.44000 -0.253
60.46000 2.297
60.48000 2.621
60.50000 -1.848
60.52000 1.629
60.54000 4.691
60.56000 3.171
60.58000 2.810
60.60000 4.537
60.62000 6.079
60.64000 4.576
60.66000 4.311
60.68000 5.915
60.70000 0.333
60.72000 -2.200
60.74000 1.411
60.76000 5.415
60.78000 5.543
60.80000 5.487
60.82000 4.818
60.84000 6.822
60.86000 4.390
60.88000 -0.882
60.90000 2.786
60.92000 3.652
60.94000 2.444
60.96000 3.827
60.98000 3.119
61.00000 2.713
61.02000 1.766
61.04000 -0.064
61.06000 1.723
61.08000 0.878
61.10000 -1.586
61.12000 3.277
61.14000 -0.149
61.16000 0.442
61.18000 0.078
61.20000 0.026
61.22000 1.304
61.24000 3.179
61.26000 1.655
61.28000 2.557
61.30000 3.668
61.32000 4.126
61.34000 2.542
61.36000 0.218
61.38000 0.833
61.40000 2.171
61.42000 5.097
61.44000 5.583
61.46000 3.945
61.48000 3.202
61.50000 3.262
61.52000 3.920
61.54000 3.071
61.56000 1.730
61.58000 4.249
61.60000 2.317
61.62000 -0.538
61.64000 -0.248
61.66000 0.614
61.68000 -0.908
61.70000 -2.189
61.72000 1.061
61.74000 3.648
61.76000 3.379
61.78000 0.653
61.80000 -0.521
61.82000 -0.432
61.84000 3.482
61.86000 2.535
61.88000 1.645
61.90000 4.199
61.92000 2.511
61.94000 -1.001
61.96000 -0.493
61.98000 1.343
62.00000 -0.834
62.02000 1.802
62.04000 3.412
62.06000 0.766
62.08000 0.522
62.10000 3.032
62.12000 1.540
62.14000 -0.286
62.16000 -1.247
62.18000 0.210
62.20000 1.766
62.22000 3.079
62.24000 2.023
62.26000 0.941
62.28000 4.705
62.30000 2.524
62.32000 1.100
62.34000 1.333
62.36000 1.881
62.38000 5.620
62.40000 4.739
62.42000 2.121
62.44000 4.531
62.46000 2.862
62.48000 0.301
62.50000 1.675
62.52000 1.768
62.54000 -2.176
62.56000 -0.823
62.58000 2.445
62.60000 4.733
62.62000 7.671
62.64000 5.115
62.66000 2.030
62.68000 1.049
62.70000 1.987
62.72000 1.708
62.74000 1.497
62.76000 0.035
62.78000 2.842
62.80000 0.881
62.82000 1.804
62.84000 0.423
62.86000 1.254
62.88000 4.598
62.90000 4.080
62.92000 2.861
62.94000 -0.375
62.96000 -1.281
62.98000 -0.366
63.00000 1.788
63.02000 -1.241
63.04000 -1.196
63.06000 -0.993
63.08000 0.224
63.10000 -1.467
63.12000 -1.887
63.14000 1.082
63.16000 1.257
63.18000 1.723
63.20000 -0.822
63.22000 3.560
63.24000 2.444
63.26000 1.476
63.28000 3.250
63.30000 1.162
63.32000 -2.188
63.34000 -2.010
63.36000 0.959
63.38000 2.813
63.40000 4.317
63.42000 -1.518
63.44000 -0.193
63.46000 0.636
63.48000 0.717
63.50000 0.412
63.52000 -0.926
63.54000 -1.176
63.56000 1.220
63.58000 0.288
63.60000 -0.971
63.62000 0.660
63.64000 3.007
63.66000 2.979
63.68000 0.836
63.70000 1.821
63.72000 0.358
63.74000 -1.325
63.76000 -0.221
63.78000 0.750
63.80000 4.203
63.82000 2.001
63.84000 1.549
63.86000 1.999
63.88000 1.346
63.90000 0.962
63.92000 0.843
63.94000 2.639
63.96000 1.256
63.98000 4.606
64.00000 3.899
64.02000 5.033
64.04000 4.942
64.06000 2.475
64.08000 2.126
64.10000 2.146
64.12000 -2.175
64.14000 -0.112
64.16000 5.597
64.18000 7.308
64.20000 2.170
64.22000 -1.312
64.24000 -0.860
64.26000 0.426
64.28000 -1.104
64.30000 -2.040
64.32000 0.328
64.34000 3.210
64.36000 1.817
64.38000 0.214
64.40000 -1.561
64.42000 1.027
64.44000 3.378
64.46000 2.320
64.48000 -0.409
64.50000 -0.974
64.52000 -2.181
64.54000 -1.394
64.56000 -1.111
64.58000 -1.154
64.60000 -0.204
64.62000 -0.561
64.64000 1.648
64.66000 4.171
64.68000 2.245
64.70000 1.306
64.72000 0.859
64.74000 -0.031
64.76000 -1.407
64.78000 -1.258
64.80000 0.171
64.82000 0.605
64.84000 -0.367
64.86000 2.135
64.88000 1.973
64.90000 1.142
64.92000 0.237
64.94000 -0.025
64.96000 -0.895
64.98000 -0.233
65.00000 0.022
65.02000 -0.910
65.04000 -1.993
65.06000 0.988
65.08000 -1.240
65.10000 -2.132
65.12000 1.252
65.14000 3.407
65.16000 3.230
65.18000 2.824
65.20000 0.605
65.22000 -1.255
65.24000 2.695
65.26000 4.225
65.28000 4.057
65.30000 1.229
65.32000 2.240
65.34000 -0.703
65.36000 -2.181
65.38000 -0.996
65.40000 1.311
65.42000 5.002
65.44000 4.878
65.46000 2.010
65.48000 1.391
65.50000 1.690
65.52000 -0.994
65.54000 0.627
65.56000 -0.130
65.58000 -0.174
65.60000 -1.687
65.62000 -1.016
65.64000 -0.535
65.66000 1.162
65.68000 0.299
65.70000 3.191
65.72000 1.933
65.74000 -0.128
65.76000 0.790
65.78000 3.513
65.80000 0.746
65.82000 0.041
65.84000 1.414
65.86000 1.104
65.88000 -1.106
65.90000 1.280
65.92000 2.872
65.94000 -1.121
65.96000 -1.885
65.98000 -2.210
66.00000 -2.196
66.02000 -0.232
66.04000 1.183
66.06000 -0.724
66.08000 0.118
66.10000 1.264
66.12000 1.017
66.14000 1.123
66.16000 0.405
66.18000 -1.338
66.20000 0.084
66.22000 -0.644
66.24000 -0.231
66.26000 -0.325
66.28000 1.502
66.30000 0.535
66.32000 4.991
66.34000 2.660
66.36000 1.150
66.38000 1.796
66.40000 0.474
66.42000 3.340
66.44000 3.176
66.46000 2.951
66.48000 5.667
66.50000 5.581
66.52000 3.955
66.54000 3.756
66.56000 4.486
66.58000 2.687
66.60000 0.731
66.62000 3.362
66.64000 6.302
66.66000 6.200
66.68000 3.202
66.70000 2.947
66.72000 4.484
66.74000 3.911
66.76000 3.816
66.78000 5.195
66.80000 8.179
66.82000 4.192
66.84000 6.070
66.86000 6.691
66.88000 8.881
66.90000 9.500
66.92000 6.589
66.94000 7.740
66.96000 5.949
66.98000 3.251
67.00000 6.718
67.02000 7.880
67.04000 8.027
67.06000 9.493
67.08000 10.674
67.10000 8.222
67.12000 8.064
67.14000 8.647
67.16000 8.861
67.18000 7.993
67.20000 8.116
67.22000 7.560
67.24000 5.963
67.26000 5.537
67.28000 8.657
67.30000 9.164
67.32000 9.571
67.34000 7.664
67.36000 6.627
67.38000 6.296
67.40000 3.652
67.42000 7.138
67.44000 9.675
67.46000 6.050
67.48000 6.844
67.50000 6.267
67.52000 1.522
67.54000 1.390
67.56000 4.147
67.58000 5.700
67.60000 3.792
67.62000 1.320
67.64000 1.177
67.66000 4.049
67.68000 4.649
67.70000 1.923
67.72000 1.786
67.74000 -1.083
67.76000 -1.124
67.78000 3.587
67.80000 2.502
67.82000 2.421
67.84000 2.325
67.86000 1.900
67.88000 2.003
67.90000 1.751
67.92000 1.592
67.94000 -0.191
67.96000 1.021
67.98000 0.967
68.00000 1.047
68.02000 2.325
68.04000 0.654
68.06000 1.734
68.08000 2.912
68.10000 1.683
68.12000 1.444
68.14000 0.455
68.16000 1.042
68.18000 1.752
68.20000 -0.781
68.22000 -1.353
68.24000 -0.394
68.26000 -1.487
68.28000 -2.106
68.30000 -0.179
68.32000 0.368
68.34000 1.330
68.36000 2.453
68.38000 0.859
68.40000 0.929
68.42000 2.226
68.44000 -0.556
68.46000 0.988
68.48000 0.145
68.50000 0.531
68.52000 0.455
68.54000 2.079
68.56000 1.259
68.58000 0.867
68.60000 0.140
68.62000 2.606
68.64000 0.778
68.66000 -0.609
68.68000 -2.061
68.70000 -0.112
68.72000 2.509
68.74000 1.219
68.76000 0.378
68.78000 -0.674
68.80000 -0.067
68.82000 -0.844
68.84000 0.358
68.86000 1.114
68.88000 0.517
68.90000 0.996
68.92000 -0.622
68.94000 -0.966
68.96000 0.838
68.98000 3.323
69.00000 4.206
69.02000 2.184
69.04000 0.485
69.06000 0.959
69.08000 0.528
69.10000 3.688
69.12000 1.393
69.14000 -0.496
69.16000 -0.867
69.18000 0.547
69.20000 2.892
69.22000 2.194
69.24000 0.607
69.26000 1.737
69.28000 1.106
69.30000 -0.473
69.32000 -2.038
69.34000 -0.692
69.36000 -1.565
69.38000 -0.597
69.40000 0.882
69.42000 -1.118
69.44000 -1.671
69.46000 0.622
69.48000 0.189
69.50000 -0.308
69.52000 -0.277
69.54000 -0.613
69.56000 0.972
69.58000 -0.060
69.60000 0.066
69.62000 1.506
69.64000 0.892
69.66000 2.959
69.68000 1.789
69.70000 0.554
69.72000 1.689
69.74000 0.515
69.76000 0.791
69.78000 -0.759
69.80000 -0.289
69.82000 -0.424
69.84000 3.270
69.86000 2.140
69.88000 -0.149
69.90000 0.785
69.92000 2.697
69.94000 2.756
69.96000 0.617
69.98000 2.192
70.00000 1.930
70.02000 0.201
70.04000 -1.992
70.06000 0.015
70.08000 0.562
70.10000 1.251
70.12000 2.161
70.14000 1.320
70.16000 0.296
70.18000 1.440
70.20000 1.483
70.22000 2.756
70.24000 -0.413
70.26000 -0.485
70.28000 -0.288
70.30000 0.692
70.32000 1.789
70.34000 2.597
70.36000 2.314
70.38000 1.521
70.40000 -1.977
70.42000 1.780
70.44000 1.067
70.46000 1.176
70.48000 2.339
70.50000 3.227
70.52000 0.244
70.54000 1.130
70.56000 0.871
70.58000 3.075
70.60000 2.999
70.62000 1.801
70.64000 0.201
70.66000 2.160
70.68000 0.740
70.70000 0.235
70.72000 2.859
70.74000 3.396
70.76000 -1.970
70.78000 -1.823
70.80000 -0.156
70.82000 -1.220
70.84000 -1.477
70.86000 -1.088
70.88000 0.723
70.90000 0.998
70.92000 1.207
70.94000 0.598
70.96000 2.945
70.98000 1.620
71.00000 1.043
71.02000 1.051
71.04000 0.268
71.06000 -1.811
71.08000 -0.375
71.10000 0.314
71.12000 2.053
71.14000 2.864
71.16000 -0.760
71.18000 -0.704
71.20000 -1.682
71.22000 -1.393
71.24000 0.078
71.26000 1.633
71.28000 0.990
71.30000 -1.959
71.32000 0.777
71.34000 1.280
71.36000 -0.688
71.38000 1.888
71.40000 2.898
71.42000 0.393
71.44000 2.293
71.46000 2.647
71.48000 3.843
71.50000 3.913
71.52000 3.449
71.54000 -0.396
71.56000 -1.956
71.58000 -0.551
71.60000 -0.946
71.62000 1.283
71.64000 3.692
71.66000 0.556
71.68000 -0.055
71.70000 0.675
71.72000 -0.599
71.74000 -0.095
71.76000 -0.421
71.78000 0.425
71.80000 -1.505
71.82000 -0.786
71.84000 -0.360
71.86000 -0.471
71.88000 0.642
71.90000 -0.329
71.92000 0.289
71.94000 -1.607
71.96000 0.606
71.98000 0.120
72.00000 -0.986
72.02000 0.183
72.04000 1.780
72.06000 1.020
72.08000 -0.237
72.10000 0.763
72.12000 0.352
72.14000 2.631
72.16000 1.206
72.18000 1.626
72.20000 2.199
72.22000 0.955
72.24000 -1.508
72.26000 -1.326
72.28000 0.324
72.30000 3.844
72.32000 5.108
72.34000 -0.007
72.36000 -1.916
72.38000 -1.193
72.40000 0.342
72.42000 2.033
72.44000 -0.602
72.46000 -1.916
72.48000 -0.277
72.50000 2.960
72.52000 3.173
72.54000 0.295
72.56000 1.875
72.58000 3.967
72.60000 2.751
72.62000 2.328
72.64000 2.210
72.66000 3.449
72.68000 2.196
72.70000 1.086
72.72000 2.952
72.74000 0.864
72.76000 -0.065
72.78000 -0.314
72.80000 1.715
72.82000 0.416
72.84000 0.272
72.86000 1.533
72.88000 3.153
72.90000 1.380
72.92000 0.618
72.94000 1.458
72.96000 1.828
72.98000 3.616
73.00000 0.007
73.02000 -0.270
73.04000 -0.216
73.06000 -1.872
73.08000 -0.698
73.10000 0.426
73.12000 1.746
73.14000 2.156
73.16000 3.750
73.18000 1.264
73.20000 2.513
73.22000 1.830
73.24000 0.962
73.26000 1.480
73.28000 0.959
73.30000 1.308
73.32000 -1.889
73.34000 -0.727
73.36000 1.002
73.38000 -0.906
73.40000 1.644
73.42000 3.282
73.44000 2.452
73.46000 1.296
73.48000 0.504
73.50000 -1.708
73.52000 -0.201
73.54000 -0.320
73.56000 -1.873
73.58000 0.580
73.60000 1.530
73.62000 1.970
73.64000 3.679
73.66000 0.630
73.68000 2.766
73.70000 3.023
73.72000 2.563
73.74000 5.366
73.76000 3.929
73.78000 -0.770
73.80000 1.426
73.82000 3.672
73.84000 4.109
73.86000 3.216
73.88000 1.979
73.90000 1.789
73.92000 1.022
73.94000 2.411
73.96000 4.764
73.98000 1.239
74.00000 1.428
74.02000 1.981
74.04000 0.565
74.06000 -1.571
74.08000 -0.290
74.10000 0.577
74.12000 0.537
74.14000 2.408
74.16000 0.450
74.18000 -0.321
74.20000 0.705
74.22000 2.959
74.24000 3.659
74.26000 5.832
74.28000 4.248
74.30000 2.496
74.32000 2.936
74.34000 3.836
74.36000 3.818
74.38000 0.943
74.40000 1.709
74.42000 -0.720
74.44000 0.494
74.46000 0.003
74.48000 -1.656
74.50000 -1.861
74.52000 -0.538
74.54000 1.760
74.56000 -0.329
74.58000 2.891
74.60000 1.164
74.62000 -0.229
74.64000 0.059
74.66000 1.530
74.68000 1.502
74.70000 0.954
74.72000 -0.878
74.74000 0.859
74.76000 1.411
74.78000 3.901
74.80000 4.262
74.82000 3.597
74.84000 0.725
74.86000 0.979
74.88000 1.282
74.90000 -0.013
74.92000 -0.095
74.94000 1.406
74.96000 4.848
74.98000 3.529
75.00000 1.246
75.02000 2.239
75.04000 3.353
75.06000 3.565
75.08000 1.227
75.10000 -0.911
75.12000 0.448
75.14000 0.889
75.16000 -0.175
75.18000 2.703
75.20000 3.835
75.22000 4.169
75.24000 2.883
75.26000 0.923
75.28000 0.789
75.30000 1.640
75.32000 0.557
75.34000 0.960
75.36000 -0.680
75.38000 -0.116
75.40000 -1.504
75.42000 0.913
75.44000 -1.880
75.46000 0.298
75.48000 4.162
75.50000 2.156
75.52000 0.881
75.54000 -0.647
75.56000 -0.045
75.58000 -0.029
75.60000 1.568
75.62000 2.096
75.64000 3.705
75.66000 0.185
75.68000 -1.725
75.70000 0.199
75.72000 3.399
75.74000 5.943
75.76000 3.104
75.78000 1.252
75.80000 1.897
75.82000 -0.104
75.84000 0.476
75.86000 1.428
75.88000 2.871
75.90000 2.893
75.92000 3.233
75.94000 1.658
75.96000 0.280
75.98000 -0.177
76.00000 -0.777
76.02000 1.277
76.04000 0.965
76.06000 2.343
76.08000 0.787
76.10000 0.748
76.12000 0.719
76.14000 0.358
76.16000 -1.577
76.18000 0.123
76.20000 1.313
76.22000 2.114
76.24000 2.502
76.26000 1.618
76.28000 3.134
76.30000 1.880
76.32000 -0.497
76.34000 -0.440
76.36000 1.253
76.38000 0.687
76.40000 0.367
76.42000 -0.611
76.44000 0.968
76.46000 0.575
76.48000 0.506
76.50000 -1.923
76.52000 1.403
76.54000 1.793
76.56000 1.832
76.58000 -1.126
76.60000 -1.517
76.62000 1.849
76.64000 4.083
76.66000 3.796
76.68000 0.530
76.70000 -0.783
76.72000 -0.311
76.74000 -1.928
76.76000 0.285
76.78000 1.100
76.80000 2.986
76.82000 1.935
76.84000 3.793
76.86000 2.177
76.88000 0.749
76.90000 -0.607
76.92000 -0.962
76.94000 1.737
76.96000 4.574
76.98000 2.892
77.00000 1.411
77.02000 1.145
77.04000 0.758
77.06000 0.271
77.08000 -0.053
77.10000 -1.074
77.12000 0.872
77.14000 3.134
77.16000 0.840
77.18000 -0.473
77.20000 1.367
77.22000 -0.307
77.24000 0.667
77.26000 3.564
77.28000 2.813
77.30000 1.084
77.32000 0.958
77.34000 2.535
77.36000 -0.518
77.38000 -1.952
77.40000 2.993
77.42000 2.296
77.44000 1.301
77.46000 2.441
77.48000 0.586
77.50000 1.275
77.52000 0.478
77.54000 -0.106
77.56000 -1.074
77.58000 -0.360
77.60000 2.305
77.62000 -0.065
77.64000 2.347
77.66000 0.930
77.68000 -1.960
77.70000 -1.914
77.72000 -0.607
77.74000 -0.413
77.76000 2.990
77.78000 0.553
77.80000 1.762
77.82000 3.160
77.84000 3.758
77.86000 0.173
77.88000 0.678
77.90000 0.165
77.92000 1.868
77.94000 0.882
77.96000 1.518
77.98000 4.656
78.00000 4.125
78.02000 0.916
78.04000 -1.964
78.06000 2.699
78.08000 1.711
78.10000 0.224
78.12000 4.334
78.14000 1.302
78.16000 2.527
78.18000 3.880
78.20000 2.101
78.22000 4.660
78.24000 6.485
78.26000 4.735
78.28000 0.364
78.30000 1.103
78.32000 -1.315
78.34000 -1.148
78.36000 0.298
78.38000 0.691
78.40000 -0.264
78.42000 -1.859
78.44000 0.400
78.46000 -0.049
78.48000 3.644
78.50000 1.443
78.52000 -0.562
78.54000 -1.706
78.56000 -0.526
78.58000 -0.149
78.60000 -1.995
78.62000 1.497
78.64000 2.464
78.66000 -0.247
78.68000 -1.396
78.70000 2.231
78.72000 4.611
78.74000 1.595
78.76000 -1.268
78.78000 0.424
78.80000 1.719
78.82000 3.117
78.84000 1.439
78.86000 0.178
78.88000 -0.626
78.90000 -0.599
78.92000 2.019
78.94000 2.784
78.96000 3.232
78.98000 3.239
79.00000 2.352
79.02000 -0.275
79.04000 0.636
79.06000 1.120
79.08000 1.232
79.10000 3.937
79.12000 2.926
79.14000 0.725
79.16000 0.215
79.18000 -0.174
79.20000 1.070
79.22000 0.370
79.24000 1.578
79.26000 1.586
79.28000 -0.284
79.30000 -1.746
79.32000 -1.858
79.34000 -0.058
79.36000 -2.040
79.38000 -1.028
79.40000 0.405
79.42000 2.471
79.44000 2.856
79.46000 -1.756
79.48000 -0.137
79.50000 2.363
79.52000 4.171
79.54000 2.787
79.56000 -0.578
79.58000 2.834
79.60000 0.409
79.62000 -1.738
79.64000 0.010
79.66000 2.123
79.68000 1.630
79.70000 2.763
79.72000 4.431
79.74000 3.378
79.76000 3.699
79.78000 2.012
79.80000 1.656
79.82000 1.001
79.84000 1.617
79.86000 5.020
79.88000 4.206
79.90000 3.873
79.92000 5.284
79.94000 4.650
79.96000 0.872
79.98000 2.871
80.00000 4.520
80.02000 4.081
80.04000 4.213
80.06000 4.381
80.08000 3.547
80.10000 2.504
80.12000 6.431
80.14000 7.607
80.16000 9.636
80.18000 10.255
80.20000 9.136
80.22000 9.504
80.24000 6.915
80.26000 9.458
80.28000 11.791
80.30000 8.175
80.32000 8.564
80.34000 8.537
80.36000 9.216
80.38000 10.205
80.40000 10.747
80.42000 10.208
80.44000 13.044
80.46000 14.546
80.48000 12.133
80.50000 8.376
80.52000 10.012
80.54000 14.364
80.56000 13.598
80.58000 12.277
80.60000 12.050
80.62000 10.530
80.64000 14.308
80.66000 17.573
80.68000 18.206
80.70000 18.818
80.72000 19.022
80.74000 16.860
80.76000 15.770
80.78000 15.892
80.80000 16.426
80.82000 15.962
80.84000 13.510
80.86000 16.621
80.88000 19.682
80.90000 19.746
80.92000 19.249
80.94000 18.218
80.96000 17.921
80.98000 15.204
81.00000 14.763
81.02000 14.529
81.04000 19.404
81.06000 19.106
81.08000 17.182
81.10000 15.907
81.12000 16.281
81.14000 15.934
81.16000 16.520
81.18000 18.371
81.20000 15.800
81.22000 14.972
81.24000 12.820
81.26000 17.300
81.28000 16.581
81.30000 14.494
81.32000 13.561
81.34000 13.260
81.36000 14.745
81.38000 11.822
81.40000 11.887
81.42000 12.642
81.44000 11.886
81.46000 9.117
81.48000 8.689
81.50000 8.930
81.52000 10.932
81.54000 11.805
81.56000 16.349
81.58000 7.051
81.60000 6.625
81.62000 10.252
81.64000 10.120
81.66000 7.713
81.68000 7.066
81.70000 5.432
81.72000 7.064
81.74000 7.833
81.76000 6.926
81.78000 4.625
81.80000 3.529
81.82000 4.089
81.84000 5.095
81.86000 4.236
81.88000 4.853
81.90000 6.486
81.92000 4.430
81.94000 3.398
81.96000 5.056
81.98000 3.783
82.00000 2.717
82.02000 4.794
82.04000 3.521
82.06000 0.835
82.08000 0.238
82.10000 2.887
82.12000 1.047
82.14000 -0.950
82.16000 0.286
82.18000 3.303
82.20000 2.114
82.22000 0.481
82.24000 0.400
82.26000 5.051
82.28000 3.356
82.30000 1.847
82.32000 3.430
82.34000 1.769
82.36000 -0.395
82.38000 0.210
82.40000 1.904
82.42000 0.093
82.44000 -1.095
82.46000 0.565
82.48000 0.664
82.50000 -0.398
82.52000 -2.089
82.54000 -0.812
82.56000 -1.710
82.58000 -0.293
82.60000 0.129
82.62000 1.133
82.64000 1.151
82.66000 0.645
82.68000 1.587
82.70000 -1.237
82.72000 -0.025
82.74000 1.638
82.76000 1.476
82.78000 1.031
82.80000 0.516
82.82000 -1.001
82.84000 0.767
82.86000 -1.073
82.88000 -1.222
82.90000 -0.117
82.92000 1.466
82.94000 1.721
82.96000 -0.074
82.98000 0.947
83.00000 -0.781
83.02000 0.868
83.04000 2.712
83.06000 0.257
83.08000 -2.080
83.10000 1.590
83.12000 3.376
83.14000 -0.565
83.16000 2.036
83.18000 1.486
83.20000 1.884
83.22000 1.331
83.24000 -1.200
83.26000 -2.083
83.28000 -1.307
83.30000 -1.759
83.32000 -1.447
83.34000 -0.431
83.36000 1.784
83.38000 -0.695
83.40000 0.025
83.42000 1.957
83.44000 0.901
83.46000 0.603
83.48000 0.380
83.50000 -0.516
83.52000 1.714
83.54000 2.283
83.56000 0.397
83.58000 -1.210
83.60000 0.733
83.62000 3.958
83.64000 6.949
83.66000 6.572
83.68000 1.616
83.70000 3.395
83.72000 6.240
83.74000 3.761
83.76000 -0.801
83.78000 2.633
83.80000 3.981
83.82000 4.294
83.84000 4.640
83.86000 4.979
83.88000 6.115
83.90000 2.842
83.92000 3.153
83.94000 6.250
83.96000 7.552
83.98000 8.525
84.00000 7.792
84.02000 6.018
84.04000 5.720
84.06000 3.992
84.08000 8.312
84.10000 8.504
84.12000 5.423
84.14000 6.054
84.16000 7.062
84.18000 6.036
84.20000 8.402
84.22000 10.171
84.24000 10.168
84.26000 13.140
84.28000 13.437
84.30000 10.592
84.32000 11.759
84.34000 14.091
84.36000 16.019
84.38000 14.646
84.40000 16.781
84.42000 14.016
84.44000 14.976
84.46000 14.701
84.48000 16.283
84.50000 17.803
84.52000 15.469
84.54000 13.401
84.56000 14.166
84.58000 17.298
84.60000 19.986
84.62000 21.028
84.64000 20.414
84.66000 18.519
84.68000 17.618
84.70000 17.375
84.72000 18.284
84.74000 19.225
84.76000 21.831
84.78000 20.579
84.80000 21.346
84.82000 22.268
84.84000 19.129
84.86000 17.537
84.88000 20.744
84.90000 19.766
84.92000 19.611
84.94000 19.954
84.96000 17.739
84.98000 21.121
85.00000 21.602
85.02000 15.713
85.04000 18.530
85.06000 18.376
85.08000 15.305
85.10000 16.295
85.12000 15.728
85.14000 16.407
85.16000 17.090
85.18000 16.362
85.20000 16.057
85.22000 14.277
85.24000 11.804
85.26000 14.219
85.28000 13.609
85.30000 10.245
85.32000 10.587
85.34000 12.491
85.36000 14.355
85.38000 13.669
85.40000 13.735
85.42000 12.954
85.44000 9.870
85.46000 8.948
85.48000 8.504
85.50000 10.739
85.52000 9.599
85.54000 6.933
85.56000 5.835
85.58000 6.865
85.60000 9.901
85.62000 8.267
85.64000 5.981
85.66000 2.919
85.68000 3.893
85.70000 5.482
85.72000 3.234
85.74000 5.030
85.76000 5.120
85.78000 5.114
85.80000 2.586
85.82000 3.833
85.84000 3.899
85.86000 2.744
85.88000 4.535
85.90000 6.072
85.92000 6.468
85.94000 1.754
85.96000 1.424
85.98000 5.002
86.00000 1.385
86.02000 0.270
86.04000 1.012
86.06000 0.948
86.08000 2.958
86.10000 4.161
86.12000 3.903
86.14000 1.962
86.16000 0.424
86.18000 -1.894
86.20000 3.122
86.22000 4.295
86.24000 2.084
86.26000 1.559
86.28000 5.184
86.30000 4.020
86.32000 2.361
86.34000 3.812
86.36000 3.653
86.38000 2.366
86.40000 1.349
86.42000 0.550
86.44000 0.325
86.46000 0.445
86.48000 1.418
86.50000 2.563
86.52000 1.248
86.54000 -1.848
86.56000 2.196
86.58000 1.708
86.60000 0.934
86.62000 0.199
86.64000 1.549
86.66000 4.759
86.68000 1.138
86.70000 0.627
86.72000 2.130
86.74000 1.530
86.76000 3.354
86.78000 2.784
86.80000 1.134
86.82000 1.034
86.84000 -0.963
86.86000 -0.204
86.88000 1.652
86.90000 0.811
86.92000 -1.009
86.94000 0.661
86.96000 -1.079
86.98000 -0.581
87.00000 -0.692
87.02000 1.642
87.04000 0.485
87.06000 2.102
87.08000 0.560
87.10000 1.929
87.12000 2.418
87.14000 1.359
87.16000 2.462
87.18000 -0.041
87.20000 -0.109
87.22000 1.345
87.24000 0.462
87.26000 0.191
87.28000 -0.925
87.30000 -1.806
87.32000 2.901
87.34000 2.140
87.36000 4.531
87.38000 4.407
87.40000 3.881
87.42000 0.570
87.44000 0.089
87.46000 2.818
87.48000 3.177
87.50000 3.033
87.52000 2.423
87.54000 -0.361
87.56000 0.988
87.58000 1.451
87.60000 2.291
87.62000 3.087
87.64000 0.449
87.66000 2.551
87.68000 3.379
87.70000 4.680
87.72000 2.622
87.74000 0.739
87.76000 -1.758
87.78000 -0.612
87.80000 2.875
87.82000 4.901
87.84000 1.656
87.86000 -0.335
87.88000 -1.093
87.90000 -0.059
87.92000 0.516
87.94000 -1.192
87.96000 1.404
87.98000 1.257
88.00000 0.127
88.02000 -1.282
88.04000 -0.263
88.06000 2.368
88.08000 1.420
88.10000 1.400
88.12000 3.413
88.14000 3.639
88.16000 3.301
88.18000 2.919
88.20000 3.000
88.22000 1.301
88.24000 1.020
88.26000 0.775
88.28000 2.556
88.30000 0.226
88.32000 -0.476
88.34000 0.024
88.36000 1.054
88.38000 2.490
88.40000 0.775
88.42000 -1.178
88.44000 1.800
88.46000 0.188
88.48000 -0.689
88.50000 0.668
88.52000 2.820
88.54000 2.501
88.56000 -0.394
88.58000 -0.304
88.60000 0.526
88.62000 -0.939
88.64000 -1.766
88.66000 -0.336
88.68000 0.951
88.70000 -0.489
88.72000 0.481
88.74000 1.816
88.76000 0.859
88.78000 0.354
88.80000 0.712
88.82000 0.613
88.84000 -0.084
88.86000 0.953
88.88000 3.151
88.90000 5.005
88.92000 3.263
88.94000 2.148
88.96000 2.911
88.98000 2.207
89.00000 0.138
89.02000 0.063
89.04000 -1.655
89.06000 0.150
89.08000 1.186
89.10000 0.221
89.12000 1.778
89.14000 1.469
89.16000 4.141
89.18000 2.994
89.20000 1.803
89.22000 2.857
89.24000 1.428
89.26000 -0.753
89.28000 2.046
89.30000 1.537
89.32000 2.179
89.34000 2.591
89.36000 0.049
89.38000 -0.502
89.40000 1.696
89.42000 -1.772
89.44000 -0.502
89.46000 1.923
89.48000 1.639
89.50000 0.190
89.52000 0.087
89.54000 2.947
89.56000 -1.136
89.58000 -0.379
89.60000 2.074
89.62000 0.152
89.64000 -0.948
89.66000 -1.766
89.68000 -1.088
89.70000 -0.373
89.72000 0.037
89.74000 0.740
89.76000 3.050
89.78000 0.490
89.80000 0.295
89.82000 0.837
89.84000 -0.201
89.86000 2.514
89.88000 6.079
89.90000 2.744
89.92000 -0.070
89.94000 1.234
89.96000 2.285
89.98000 2.125
90.00000 -0.431
90.02000 -1.771
90.04000 0.044
90.06000 0.774
90.08000 -0.475
90.10000 0.472
90.12000 4.533
90.14000 4.093
90.16000 4.270
90.18000 3.107
90.20000 1.726
90.22000 0.372
90.24000 0.091
90.26000 -0.275
90.28000 -1.307
90.30000 1.434
90.32000 1.465
90.34000 0.482
90.36000 1.114
90.38000 -0.132
90.40000 1.372
90.42000 0.808
90.44000 -0.756
90.46000 0.291
90.48000 0.671
90.50000 0.398
90.52000 0.403
90.54000 1.886
90.56000 3.586
90.58000 3.417
90.60000 3.406
90.62000 1.839
90.64000 1.623
90.66000 1.929
90.68000 2.333
90.70000 3.366
90.72000 -1.763
90.74000 -0.451
90.76000 1.616
90.78000 1.538
90.80000 2.357
90.82000 3.610
90.84000 2.172
90.86000 -0.434
90.88000 -1.758
90.90000 1.336
90.92000 4.848
90.94000 1.614
90.96000 1.793
90.98000 1.375
91.00000 1.714
91.02000 1.413
91.04000 1.689
91.06000 2.687
91.08000 3.089
91.10000 4.820
91.12000 4.585
91.14000 3.570
91.16000 3.118
91.18000 1.043
91.20000 0.273
91.22000 0.095
91.24000 1.480
91.26000 1.558
91.28000 0.623
91.30000 0.890
91.32000 0.545
91.34000 3.802
91.36000 1.744
91.38000 0.932
91.40000 4.900
91.42000 4.564
91.44000 1.287
91.46000 1.564
91.48000 0.256
91.50000 0.700
91.52000 1.997
91.54000 5.564
91.56000 4.346
91.58000 0.238
91.60000 -1.732
91.62000 0.376
91.64000 4.929
91.66000 4.801
91.68000 1.848
91.70000 4.680
91.72000 7.262
91.74000 4.943
91.76000 2.061
91.78000 2.787
91.80000 5.172
91.82000 4.917
91.84000 0.504
91.86000 3.184
91.88000 0.589
91.90000 -0.877
91.92000 -0.754
91.94000 0.998
91.96000 1.125
91.98000 3.738
92.00000 3.988
92.02000 3.344
92.04000 3.313
92.06000 0.359
92.08000 -0.304
92.10000 -0.131
92.12000 -0.924
92.14000 2.480
92.16000 1.583
92.18000 3.458
92.20000 2.411
92.22000 -1.060
92.24000 0.680
92.26000 2.135
92.28000 -0.064
92.30000 -0.263
92.32000 2.806
92.34000 4.012
92.36000 -0.876
92.38000 -0.932
92.40000 0.263
92.42000 -0.619
92.44000 0.401
92.46000 -1.788
92.48000 2.546
92.50000 4.318
92.52000 2.994
92.54000 2.227
92.56000 3.020
92.58000 1.423
92.60000 -0.331
92.62000 -1.792
92.64000 -1.738
92.66000 0.754
92.68000 2.990
92.70000 3.880
92.72000 1.783
92.74000 0.605
92.76000 -1.797
92.78000 1.031
92.80000 1.200
92.82000 0.783
92.84000 2.768
92.86000 1.624
92.88000 -0.187
92.90000 0.670
92.92000 0.585
92.94000 -0.091
92.96000 2.819
92.98000 -0.272
93.00000 -1.169
93.02000 0.569
93.04000 0.106
93.06000 0.542
93.08000 0.739
93.10000 4.008
93.12000 2.287
93.14000 -0.627
93.16000 1.638
93.18000 -0.356
93.20000 -1.807
93.22000 -0.731
93.24000 -1.320
93.26000 -0.522
93.28000 -1.791
93.30000 0.382
93.32000 -0.731
93.34000 -0.994
93.36000 2.796
93.38000 3.377
93.40000 2.992
93.42000 0.516
93.44000 2.432
93.46000 6.005
93.48000 2.900
93.50000 0.526
93.52000 -0.551
93.54000 -1.226
93.56000 2.448
93.58000 1.323
93.60000 1.331
93.62000 -0.534
93.64000 -1.619
93.66000 -1.131
93.68000 -1.473
93.70000 0.283
93.72000 -0.147
93.74000 1.019
93.76000 0.211
93.78000 1.257
93.80000 2.931
93.82000 1.612
93.84000 0.122
93.86000 2.107
93.88000 0.740
93.90000 0.164
93.92000 0.957
93.94000 0.667
93.96000 0.102
93.98000 -1.489
94.00000 0.460
94.02000 1.522
94.04000 -0.542
94.06000 1.883
94.08000 1.919
94.10000 1.656
94.12000 3.600
94.14000 4.189
94.16000 2.493
94.18000 0.482
94.20000 2.836
94.22000 1.035
94.24000 1.616
94.26000 3.121
94.28000 1.613
94.30000 3.110
94.32000 5.516
94.34000 5.825
94.36000 4.679
94.38000 2.552
94.40000 4.378
94.42000 3.212
94.44000 1.678
94.46000 1.625
94.48000 1.477
94.50000 0.821
94.52000 4.383
94.54000 4.538
94.56000 4.877
94.58000 3.965
94.60000 2.060
94.62000 0.782
94.64000 -1.751
94.66000 -0.189
94.68000 1.225
94.70000 3.828
94.72000 1.484
94.74000 3.522
94.76000 4.240
94.78000 1.878
94.80000 4.059
94.82000 5.675
94.84000 4.646
94.86000 1.864
94.88000 -1.202
94.90000 1.792
94.92000 4.308
94.94000 2.217
94.96000 1.455
94.98000 4.339
95.00000 5.842
95.02000 8.198
95.04000 2.074
95.06000 -1.755
95.08000 0.770
95.10000 3.106
95.12000 2.697
95.14000 2.442
95.16000 -0.375
95.18000 3.041
95.20000 2.796
95.22000 1.747
95.24000 2.648
95.26000 5.728
95.28000 3.210
95.30000 2.897
95.32000 1.057
95.34000 4.242
95.36000 5.748
95.38000 4.224
95.40000 -0.540
95.42000 0.501
95.44000 2.867
95.46000 2.275
95.48000 -0.171
95.50000 2.242
95.52000 6.090
95.54000 2.602
95.56000 -0.109
95.58000 2.724
95.60000 5.391
95.62000 0.106
95.64000 1.609
95.66000 5.059
95.68000 3.940
95.70000 2.486
95.72000 4.644
95.74000 3.794
95.76000 1.599
95.78000 2.393
95.80000 2.445
95.82000 2.933
95.84000 2.305
95.86000 4.718
95.88000 3.941
95.90000 0.969
95.92000 1.372
95.94000 1.403
95.96000 -0.434
95.98000 -1.815
96.00000 -0.225
96.02000 0.716
96.04000 -0.638
96.06000 2.033
96.08000 2.881
96.10000 4.213
96.12000 1.057
96.14000 3.772
96.16000 4.110
96.18000 1.693
96.20000 -1.437
96.22000 0.618
96.24000 0.629
96.26000 0.069
96.28000 2.318
96.30000 2.838
96.32000 -0.883
96.34000 0.180
96.36000 1.694
96.38000 0.982
96.40000 3.048
96.42000 1.158
96.44000 1.863
96.46000 3.175
96.48000 2.260
96.50000 -0.858
96.52000 1.305
96.54000 2.742
96.56000 2.649
96.58000 1.342
96.60000 4.312
96.62000 2.108
96.64000 1.114
96.66000 1.958
96.68000 2.475
96.70000 1.044
96.72000 1.695
96.74000 3.104
96.76000 1.731
96.78000 -0.167
96.80000 0.180
96.82000 4.759
96.84000 4.112
96.86000 -0.262
96.88000 -1.262
96.90000 0.293
96.92000 -0.892
96.94000 2.869
96.96000 1.286
96.98000 0.896
97.00000 1.515
97.02000 2.286
97.04000 4.599
97.06000 3.863
97.08000 1.732
97.10000 -0.463
97.12000 0.288
97.14000 0.424
97.16000 1.536
97.18000 1.126
97.20000 3.391
97.22000 0.600
97.24000 2.215
97.26000 4.080
97.28000 3.587
97.30000 2.174
97.32000 5.465
97.34000 5.029
97.36000 4.539
97.38000 0.352
97.40000 2.972
97.42000 4.458
97.44000 0.432
97.46000 -1.752
97.48000 1.908
97.50000 3.320
97.52000 2.753
97.54000 4.138
97.56000 5.753
97.58000 5.320
97.60000 4.854
97.62000 -0.474
97.64000 3.765
97.66000 5.236
97.68000 2.312
97.70000 3.979
97.72000 5.271
97.74000 2.621
97.76000 1.385
97.78000 1.119
97.80000 1.599
97.82000 0.107
97.84000 2.595
97.86000 1.357
97.88000 2.482
97.90000 1.276
97.92000 0.883
97.94000 3.952
97.96000 1.301
97.98000 0.384
98.00000 0.956
98.02000 4.112
98.04000 5.571
98.06000 7.255
98.08000 3.857
98.10000 3.231
98.12000 5.505
98.14000 8.517
98.16000 2.599
98.18000 4.836
98.20000 8.058
98.22000 6.571
98.24000 6.541
98.26000 1.499
98.28000 -0.171
98.30000 4.395
98.32000 7.337
98.34000 6.954
98.36000 5.967
98.38000 3.395
98.40000 4.306
98.42000 6.109
98.44000 4.210
98.46000 4.253
98.48000 5.220
98.50000 2.417
98.52000 0.175
98.54000 2.803
98.56000 4.947
98.58000 4.415
98.60000 3.098
98.62000 6.129
98.64000 6.983
98.66000 6.315
98.68000 0.914
98.70000 1.694
98.72000 2.910
98.74000 -1.709
98.76000 3.087
98.78000 7.605
98.80000 4.190
98.82000 3.623
98.84000 2.650
98.86000 7.709
98.88000 12.194
98.90000 7.993
98.92000 9.497
98.94000 9.900
98.96000 6.757
98.98000 5.131
99.00000 4.620
99.02000 4.368
99.04000 3.979
99.06000 8.111
99.08000 4.458
99.10000 5.281
99.12000 6.824
99.14000 1.107
99.16000 -0.805
99.18000 -1.386
99.20000 -0.331
99.22000 1.723
99.24000 9.802
99.26000 9.339
99.28000 4.233
99.30000 1.940
99.32000 -0.545
99.34000 2.665
99.36000 4.784
99.38000 5.392
99.40000 6.457
99.42000 4.317
99.44000 2.459
99.46000 9.257
99.48000 6.845
99.50000 6.563
99.52000 3.050
99.54000 2.331
99.56000 4.054
99.58000 3.670
99.60000 2.415
99.62000 8.758
99.64000 7.367
99.66000 6.794
99.68000 5.915
99.70000 4.264
99.72000 -0.915
99.74000 -1.720
99.76000 7.939
99.78000 9.791
99.80000 11.067
99.82000 3.329
99.84000 7.735
99.86000 2.394
99.88000 1.212
99.90000 8.631
99.92000 7.514
99.94000 4.493
99.96000 7.096
99.98000 0.000
