'Id: "0011388" Comment: "Integrate frame 0011388_Au-Ir-Rh_Rh-rich_XRD-Mapping-314-0000.gfrmwith cursor Wedge Cursor #5" Operator: "B?rgel" Anode: "Cu" Wavelength: "1.5406" Scantype: "2Theta (TwoTheta)" TimePerStep: "1" X: "-13.5" Y: "36" Z: "5.95" 
10.00000 0.000
10.02000 -4.658
10.04000 -4.540
10.06000 -4.520
10.08000 -4.342
10.10000 6.749
10.12000 6.960
10.14000 5.145
10.16000 2.037
10.18000 15.452
10.20000 18.063
10.22000 -2.362
10.24000 -0.319
10.26000 16.460
10.28000 16.051
10.30000 1.376
10.32000 5.684
10.34000 1.680
10.36000 7.062
10.38000 -5.362
10.40000 14.115
10.42000 25.933
10.44000 22.653
10.46000 28.752
10.48000 21.171
10.50000 4.772
10.52000 3.617
10.54000 -4.432
10.56000 2.015
10.58000 9.609
10.60000 19.462
10.62000 27.951
10.64000 13.991
10.66000 -0.779
10.68000 10.403
10.70000 19.395
10.72000 10.398
10.74000 13.926
10.76000 12.578
10.78000 11.974
10.80000 11.266
10.82000 5.109
10.84000 4.598
10.86000 25.071
10.88000 11.813
10.90000 7.024
10.92000 5.758
10.94000 21.383
10.96000 28.458
10.98000 34.387
11.00000 27.306
11.02000 4.455
11.04000 -0.915
11.06000 5.498
11.08000 14.698
11.10000 0.686
11.12000 1.343
11.14000 18.426
11.16000 10.761
11.18000 14.992
11.20000 21.442
11.22000 14.674
11.24000 14.747
11.26000 21.565
11.28000 20.339
11.30000 19.395
11.32000 17.465
11.34000 -3.247
11.36000 2.994
11.38000 12.474
11.40000 14.833
11.42000 4.405
11.44000 3.765
11.46000 11.823
11.48000 18.832
11.50000 20.030
11.52000 4.214
11.54000 -0.550
11.56000 12.150
11.58000 8.463
11.60000 8.808
11.62000 16.455
11.64000 17.064
11.66000 5.680
11.68000 2.128
11.70000 1.566
11.72000 7.931
11.74000 6.936
11.76000 18.134
11.78000 15.428
11.80000 11.628
11.82000 21.226
11.84000 20.809
11.86000 8.982
11.88000 15.358
11.90000 15.676
11.92000 5.840
11.94000 6.243
11.96000 6.268
11.98000 11.700
12.00000 12.616
12.02000 8.797
12.04000 18.740
12.06000 7.853
12.08000 -1.724
12.10000 11.540
12.12000 1.079
12.14000 0.834
12.16000 15.618
12.18000 12.923
12.20000 10.363
12.22000 10.558
12.24000 7.383
12.26000 3.627
12.28000 16.453
12.30000 19.404
12.32000 14.312
12.34000 11.848
12.36000 7.886
12.38000 4.511
12.40000 14.666
12.42000 11.184
12.44000 8.717
12.46000 24.295
12.48000 23.819
12.50000 3.778
12.52000 2.446
12.54000 4.767
12.56000 13.414
12.58000 9.470
12.60000 7.612
12.62000 3.028
12.64000 4.659
12.66000 9.875
12.68000 14.270
12.70000 18.759
12.72000 21.418
12.74000 17.023
12.76000 18.657
12.78000 15.690
12.80000 16.364
12.82000 14.930
12.84000 13.093
12.86000 8.750
12.88000 -4.496
12.90000 -0.437
12.92000 11.981
12.94000 22.611
12.96000 15.564
12.98000 23.539
13.00000 25.760
13.02000 23.417
13.04000 8.387
13.06000 12.955
13.08000 18.709
13.10000 14.596
13.12000 13.525
13.14000 23.547
13.16000 15.362
13.18000 8.540
13.20000 19.076
13.22000 16.003
13.24000 1.203
13.26000 3.529
13.28000 8.845
13.30000 20.328
13.32000 10.267
13.34000 8.288
13.36000 12.267
13.38000 12.804
13.40000 12.976
13.42000 16.401
13.44000 18.869
13.46000 11.221
13.48000 10.624
13.50000 10.714
13.52000 9.805
13.54000 10.815
13.56000 16.598
13.58000 7.249
13.60000 4.218
13.62000 0.842
13.64000 6.738
13.66000 13.813
13.68000 14.211
13.70000 15.540
13.72000 16.615
13.74000 13.198
13.76000 4.664
13.78000 6.821
13.80000 11.470
13.82000 14.493
13.84000 21.460
13.86000 15.250
13.88000 13.439
13.90000 13.752
13.92000 16.588
13.94000 11.374
13.96000 9.784
13.98000 10.424
14.00000 15.723
14.02000 14.113
14.04000 12.658
14.06000 6.136
14.08000 4.504
14.10000 1.465
14.12000 9.598
14.14000 3.758
14.16000 3.411
14.18000 10.551
14.20000 18.005
14.22000 22.131
14.24000 8.465
14.26000 -4.620
14.28000 13.272
14.30000 28.475
14.32000 18.600
14.34000 10.404
14.36000 11.934
14.38000 8.985
14.40000 14.443
14.42000 15.086
14.44000 15.035
14.46000 13.165
14.48000 13.903
14.50000 19.283
14.52000 9.293
14.54000 -2.287
14.56000 10.377
14.58000 17.893
14.60000 12.135
14.62000 9.186
14.64000 12.214
14.66000 12.807
14.68000 10.623
14.70000 0.715
14.72000 6.623
14.74000 8.019
14.76000 8.058
14.78000 10.437
14.80000 5.697
14.82000 3.131
14.84000 8.769
14.86000 11.735
14.88000 2.540
14.90000 14.156
14.92000 14.813
14.94000 8.592
14.96000 7.798
14.98000 4.308
15.00000 5.327
15.02000 16.567
15.04000 10.818
15.06000 8.158
15.08000 7.465
15.10000 16.244
15.12000 15.532
15.14000 7.877
15.16000 6.650
15.18000 15.910
15.20000 6.006
15.22000 4.571
15.24000 6.703
15.26000 9.990
15.28000 14.801
15.30000 11.193
15.32000 4.566
15.34000 5.850
15.36000 3.846
15.38000 5.541
15.40000 2.445
15.42000 3.679
15.44000 12.924
15.46000 12.040
15.48000 19.814
15.50000 7.463
15.52000 2.341
15.54000 2.600
15.56000 2.338
15.58000 6.091
15.60000 9.029
15.62000 7.686
15.64000 7.443
15.66000 9.805
15.68000 10.345
15.70000 6.099
15.72000 4.879
15.74000 11.072
15.76000 16.274
15.78000 15.295
15.80000 13.476
15.82000 6.683
15.84000 4.716
15.86000 11.278
15.88000 8.996
15.90000 2.868
15.92000 7.695
15.94000 -2.894
15.96000 1.182
15.98000 14.263
16.00000 12.485
16.02000 10.414
16.04000 13.360
16.06000 2.840
16.08000 4.484
16.10000 3.892
16.12000 1.067
16.14000 -4.457
16.16000 1.547
16.18000 -1.827
16.20000 3.058
16.22000 11.390
16.24000 13.558
16.26000 11.921
16.28000 10.391
16.30000 5.601
16.32000 -2.135
16.34000 4.426
16.36000 2.740
16.38000 7.631
16.40000 8.871
16.42000 12.741
16.44000 15.031
16.46000 14.158
16.48000 6.292
16.50000 5.491
16.52000 5.768
16.54000 9.781
16.56000 0.606
16.58000 3.375
16.60000 -0.723
16.62000 5.363
16.64000 10.883
16.66000 11.904
16.68000 17.411
16.70000 10.359
16.72000 5.334
16.74000 11.826
16.76000 16.090
16.78000 1.843
16.80000 -0.648
16.82000 8.635
16.84000 7.097
16.86000 10.168
16.88000 9.056
16.90000 5.482
16.92000 6.795
16.94000 3.803
16.96000 4.648
16.98000 8.523
17.00000 10.920
17.02000 4.961
17.04000 0.703
17.06000 6.632
17.08000 2.487
17.10000 7.648
17.12000 7.643
17.14000 9.733
17.16000 6.139
17.18000 6.043
17.20000 14.830
17.22000 11.464
17.24000 4.540
17.26000 10.046
17.28000 6.891
17.30000 -1.161
17.32000 7.463
17.34000 10.582
17.36000 11.825
17.38000 12.832
17.40000 2.266
17.42000 6.636
17.44000 8.552
17.46000 6.191
17.48000 5.851
17.50000 3.873
17.52000 7.112
17.54000 12.596
17.56000 7.721
17.58000 12.369
17.60000 12.479
17.62000 3.980
17.64000 5.094
17.66000 7.974
17.68000 1.460
17.70000 -4.381
17.72000 1.870
17.74000 -2.638
17.76000 9.577
17.78000 13.562
17.80000 10.558
17.82000 6.320
17.84000 5.143
17.86000 6.367
17.88000 0.355
17.90000 5.124
17.92000 4.080
17.94000 5.506
17.96000 8.764
17.98000 8.615
18.00000 11.082
18.02000 2.302
18.04000 2.304
18.06000 2.724
18.08000 4.820
18.10000 -4.360
18.12000 -1.020
18.14000 5.504
18.16000 -0.575
18.18000 2.090
18.20000 4.646
18.22000 5.835
18.24000 5.334
18.26000 5.784
18.28000 2.702
18.30000 6.610
18.32000 2.700
18.34000 5.323
18.36000 3.260
18.38000 9.227
18.40000 7.078
18.42000 4.763
18.44000 2.047
18.46000 10.255
18.48000 7.109
18.50000 -1.922
18.52000 -1.223
18.54000 4.764
18.56000 7.975
18.58000 9.847
18.60000 6.129
18.62000 0.024
18.64000 -1.924
18.66000 5.607
18.68000 0.438
18.70000 -1.770
18.72000 5.002
18.74000 9.616
18.76000 3.143
18.78000 -3.115
18.80000 3.164
18.82000 -0.130
18.84000 3.821
18.86000 5.312
18.88000 7.799
18.90000 8.928
18.92000 3.470
18.94000 1.760
18.96000 3.067
18.98000 8.508
19.00000 10.390
19.02000 5.303
19.04000 8.332
19.06000 6.845
19.08000 3.117
19.10000 0.763
19.12000 6.074
19.14000 7.242
19.16000 2.776
19.18000 8.860
19.20000 10.384
19.22000 2.969
19.24000 2.451
19.26000 5.852
19.28000 8.137
19.30000 -0.792
19.32000 0.666
19.34000 8.317
19.36000 3.338
19.38000 1.756
19.40000 3.796
19.42000 -1.357
19.44000 2.428
19.46000 4.270
19.48000 3.891
19.50000 1.292
19.52000 4.393
19.54000 15.076
19.56000 7.673
19.58000 7.682
19.60000 6.091
19.62000 5.477
19.64000 3.374
19.66000 7.190
19.68000 9.156
19.70000 -0.174
19.72000 -0.244
19.74000 7.032
19.76000 8.269
19.78000 4.254
19.80000 -4.258
19.82000 -0.707
19.84000 1.806
19.86000 3.750
19.88000 4.889
19.90000 10.189
19.92000 8.656
19.94000 7.203
19.96000 10.608
19.98000 14.091
20.00000 12.601
20.02000 7.768
20.04000 6.475
20.06000 0.789
20.08000 6.399
20.10000 2.102
20.12000 4.701
20.14000 7.385
20.16000 3.774
20.18000 8.994
20.20000 7.809
20.22000 13.965
20.24000 11.047
20.26000 9.167
20.28000 1.564
20.30000 3.930
20.32000 9.721
20.34000 4.155
20.36000 0.147
20.38000 -3.363
20.40000 2.321
20.42000 7.342
20.44000 2.339
20.46000 5.744
20.48000 5.412
20.50000 3.820
20.52000 8.549
20.54000 8.545
20.56000 3.633
20.58000 6.655
20.60000 3.913
20.62000 -1.052
20.64000 6.395
20.66000 9.205
20.68000 12.158
20.70000 9.163
20.72000 4.643
20.74000 6.237
20.76000 3.960
20.78000 7.700
20.80000 0.979
20.82000 -0.688
20.84000 6.732
20.86000 8.410
20.88000 3.797
20.90000 7.120
20.92000 2.948
20.94000 0.316
20.96000 -2.473
20.98000 1.009
21.00000 2.559
21.02000 5.076
21.04000 4.211
21.06000 0.729
21.08000 1.417
21.10000 6.936
21.12000 6.587
21.14000 -0.199
21.16000 3.591
21.18000 -1.268
21.20000 -4.187
21.22000 1.513
21.24000 4.960
21.26000 7.873
21.28000 10.964
21.30000 8.863
21.32000 7.062
21.34000 2.958
21.36000 1.481
21.38000 3.819
21.40000 6.001
21.42000 0.426
21.44000 8.173
21.46000 10.690
21.48000 8.723
21.50000 4.074
21.52000 2.802
21.54000 0.791
21.56000 8.012
21.58000 3.555
21.60000 -0.598
21.62000 -2.575
21.64000 1.280
21.66000 -2.572
21.68000 -2.365
21.70000 4.135
21.72000 12.024
21.74000 8.359
21.76000 9.507
21.78000 10.085
21.80000 1.129
21.82000 1.154
21.84000 4.544
21.86000 5.837
21.88000 3.319
21.90000 1.906
21.92000 1.061
21.94000 3.953
21.96000 4.575
21.98000 5.043
22.00000 7.216
22.02000 12.205
22.04000 7.900
22.06000 7.617
22.08000 5.200
22.10000 -0.579
22.12000 -0.206
22.14000 2.728
22.16000 1.522
22.18000 0.400
22.20000 6.806
22.22000 1.143
22.24000 1.082
22.26000 7.295
22.28000 8.353
22.30000 2.727
22.32000 4.798
22.34000 2.776
22.36000 5.201
22.38000 9.562
22.40000 1.987
22.42000 -0.361
22.44000 5.625
22.46000 5.156
22.48000 9.502
22.50000 11.515
22.52000 10.904
22.54000 5.765
22.56000 1.424
22.58000 9.053
22.60000 12.736
22.62000 4.323
22.64000 -3.952
22.66000 -4.094
22.68000 -1.578
22.70000 3.403
22.72000 2.817
22.74000 6.047
22.76000 6.755
22.78000 5.126
22.80000 4.454
22.82000 9.162
22.84000 14.890
22.86000 9.841
22.88000 7.880
22.90000 4.701
22.92000 5.122
22.94000 6.994
22.96000 5.590
22.98000 10.397
23.00000 10.185
23.02000 5.742
23.04000 5.960
23.06000 6.873
23.08000 3.611
23.10000 0.776
23.12000 2.559
23.14000 10.282
23.16000 1.251
23.18000 1.461
23.20000 10.150
23.22000 1.978
23.24000 -1.094
23.26000 2.850
23.28000 9.431
23.30000 2.939
23.32000 7.816
23.34000 4.204
23.36000 5.183
23.38000 6.284
23.40000 -0.320
23.42000 0.879
23.44000 6.265
23.46000 0.764
23.48000 -0.442
23.50000 5.337
23.52000 5.380
23.54000 2.741
23.56000 0.597
23.58000 -2.649
23.60000 1.672
23.62000 7.480
23.64000 10.349
23.66000 4.506
23.68000 -3.019
23.70000 -1.923
23.72000 4.125
23.74000 4.823
23.76000 3.136
23.78000 8.563
23.80000 7.269
23.82000 0.595
23.84000 3.767
23.86000 2.144
23.88000 5.970
23.90000 6.756
23.92000 6.956
23.94000 7.507
23.96000 -0.746
23.98000 -1.578
24.00000 4.502
24.02000 5.278
24.04000 1.959
24.06000 2.935
24.08000 3.312
24.10000 8.508
24.12000 4.793
24.14000 7.205
24.16000 5.801
24.18000 7.789
24.20000 4.721
24.22000 4.132
24.24000 7.385
24.26000 -0.405
24.28000 4.101
24.30000 13.033
24.32000 14.616
24.34000 8.899
24.36000 7.525
24.38000 6.959
24.40000 3.792
24.42000 6.914
24.44000 7.292
24.46000 5.100
24.48000 9.643
24.50000 4.463
24.52000 3.522
24.54000 2.533
24.56000 7.557
24.58000 7.988
24.60000 10.675
24.62000 10.011
24.64000 11.651
24.66000 10.399
24.68000 8.698
24.70000 13.959
24.72000 10.511
24.74000 2.919
24.76000 -1.986
24.78000 -3.974
24.80000 -1.993
24.82000 3.475
24.84000 8.818
24.86000 8.167
24.88000 11.649
24.90000 9.170
24.92000 6.006
24.94000 6.774
24.96000 7.949
24.98000 6.221
25.00000 4.293
25.02000 5.753
25.04000 2.657
25.06000 1.281
25.08000 9.692
25.10000 9.128
25.12000 6.328
25.14000 7.761
25.16000 6.784
25.18000 5.935
25.20000 4.842
25.22000 8.283
25.24000 6.424
25.26000 5.199
25.28000 6.396
25.30000 1.628
25.32000 -3.951
25.34000 -2.080
25.36000 -0.695
25.38000 0.873
25.40000 1.564
25.42000 3.636
25.44000 3.891
25.46000 0.281
25.48000 4.005
25.50000 4.958
25.52000 2.147
25.54000 1.338
25.56000 2.850
25.58000 7.765
25.60000 4.993
25.62000 2.189
25.64000 0.994
25.66000 0.185
25.68000 4.268
25.70000 6.849
25.72000 4.380
25.74000 5.528
25.76000 3.033
25.78000 4.987
25.80000 10.278
25.82000 6.127
25.84000 3.646
25.86000 5.376
25.88000 0.049
25.90000 1.524
25.92000 4.906
25.94000 4.832
25.96000 2.002
25.98000 4.947
26.00000 8.045
26.02000 4.760
26.04000 2.342
26.06000 3.384
26.08000 3.725
26.10000 2.840
26.12000 3.551
26.14000 -0.761
26.16000 3.235
26.18000 2.671
26.20000 1.935
26.22000 1.228
26.24000 2.341
26.26000 2.178
26.28000 2.028
26.30000 -0.764
26.32000 0.356
26.34000 1.393
26.36000 4.618
26.38000 4.838
26.40000 3.714
26.42000 1.303
26.44000 2.225
26.46000 10.524
26.48000 7.007
26.50000 5.571
26.52000 3.227
26.54000 0.377
26.56000 1.053
26.58000 5.153
26.60000 10.956
26.62000 8.758
26.64000 2.226
26.66000 3.451
26.68000 6.767
26.70000 5.120
26.72000 3.374
26.74000 5.313
26.76000 -1.065
26.78000 -2.417
26.80000 -0.731
26.82000 1.601
26.84000 5.185
26.86000 8.599
26.88000 5.465
26.90000 -3.895
26.92000 -1.066
26.94000 1.914
26.96000 2.124
26.98000 5.110
27.00000 4.963
27.02000 2.679
27.04000 3.965
27.06000 -1.257
27.08000 -3.188
27.10000 3.015
27.12000 5.055
27.14000 6.590
27.16000 2.176
27.18000 -3.038
27.20000 0.455
27.22000 4.913
27.24000 7.149
27.26000 3.701
27.28000 4.121
27.30000 4.709
27.32000 4.999
27.34000 2.042
27.36000 0.059
27.38000 3.362
27.40000 7.485
27.42000 1.416
27.44000 5.471
27.46000 1.881
27.48000 -2.638
27.50000 1.899
27.52000 6.141
27.54000 8.063
27.56000 3.929
27.58000 3.541
27.60000 9.103
27.62000 4.875
27.64000 0.223
27.66000 -1.891
27.68000 3.553
27.70000 5.037
27.72000 6.240
27.74000 4.246
27.76000 -2.785
27.78000 0.487
27.80000 -1.748
27.82000 -3.822
27.84000 2.345
27.86000 6.129
27.88000 3.976
27.90000 6.345
27.92000 5.673
27.94000 1.524
27.96000 4.923
27.98000 6.961
28.00000 4.529
28.02000 12.794
28.04000 7.561
28.06000 2.836
28.08000 1.806
28.10000 2.802
28.12000 1.871
28.14000 -1.326
28.16000 -0.754
28.18000 1.417
28.20000 3.099
28.22000 5.280
28.24000 2.879
28.26000 -0.209
28.28000 -0.981
28.30000 1.680
28.32000 -1.680
28.34000 7.834
28.36000 7.681
28.38000 5.436
28.40000 6.630
28.42000 1.140
28.44000 4.855
28.46000 -0.819
28.48000 -3.278
28.50000 -3.790
28.52000 2.073
28.54000 7.226
28.56000 9.999
28.58000 5.383
28.60000 2.504
28.62000 1.092
28.64000 -2.441
28.66000 2.988
28.68000 3.857
28.70000 4.880
28.72000 8.766
28.74000 7.533
28.76000 2.401
28.78000 3.063
28.80000 2.180
28.82000 1.915
28.84000 4.475
28.86000 8.194
28.88000 1.225
28.90000 0.755
28.92000 1.561
28.94000 0.634
28.96000 -3.144
28.98000 -0.001
29.00000 -2.931
29.02000 -1.087
29.04000 2.660
29.06000 4.147
29.08000 1.799
29.10000 6.505
29.12000 7.671
29.14000 10.071
29.16000 4.044
29.18000 0.672
29.20000 -0.635
29.22000 -0.237
29.24000 -0.651
29.26000 3.832
29.28000 3.150
29.30000 5.363
29.32000 7.419
29.34000 5.079
29.36000 1.974
29.38000 -0.902
29.40000 3.154
29.42000 2.901
29.44000 5.440
29.46000 -1.337
29.48000 -3.632
29.50000 2.198
29.52000 8.114
29.54000 5.449
29.56000 7.710
29.58000 3.912
29.60000 4.917
29.62000 2.973
29.64000 -3.747
29.66000 -3.220
29.68000 -1.429
29.70000 1.403
29.72000 3.327
29.74000 -0.818
29.76000 -2.396
29.78000 3.364
29.80000 1.803
29.82000 2.188
29.84000 -3.738
29.86000 -2.330
29.88000 1.245
29.90000 2.743
29.92000 2.446
29.94000 -0.059
29.96000 2.638
29.98000 1.915
30.00000 1.755
30.02000 3.399
30.04000 1.704
30.06000 1.786
30.08000 1.855
30.10000 -2.062
30.12000 3.561
30.14000 4.253
30.16000 3.060
30.18000 8.217
30.20000 11.622
30.22000 6.258
30.24000 4.471
30.26000 1.666
30.28000 1.061
30.30000 4.109
30.32000 1.019
30.34000 -1.942
30.36000 -1.032
30.38000 4.870
30.40000 5.208
30.42000 5.620
30.44000 2.212
30.46000 3.855
30.48000 2.496
30.50000 1.335
30.52000 2.756
30.54000 5.111
30.56000 4.638
30.58000 -1.779
30.60000 -3.712
30.62000 2.687
30.64000 2.713
30.66000 2.272
30.68000 0.354
30.70000 3.811
30.72000 -0.857
30.74000 1.799
30.76000 3.756
30.78000 2.741
30.80000 0.186
30.82000 0.368
30.84000 5.361
30.86000 2.831
30.88000 7.940
30.90000 3.706
30.92000 5.072
30.94000 7.074
30.96000 5.446
30.98000 1.628
31.00000 0.190
31.02000 2.568
31.04000 -1.547
31.06000 -0.692
31.08000 4.265
31.10000 0.462
31.12000 -0.697
31.14000 -0.623
31.16000 -2.724
31.18000 1.981
31.20000 4.311
31.22000 -0.153
31.24000 3.046
31.26000 2.594
31.28000 3.929
31.30000 3.614
31.32000 9.350
31.34000 2.767
31.36000 -0.351
31.38000 -3.673
31.40000 3.046
31.42000 5.747
31.44000 2.308
31.46000 -3.031
31.48000 2.618
31.50000 2.644
31.52000 2.241
31.54000 -1.538
31.56000 1.327
31.58000 2.981
31.60000 3.969
31.62000 1.954
31.64000 0.176
31.66000 8.894
31.68000 12.110
31.70000 5.825
31.72000 4.582
31.74000 1.930
31.76000 3.294
31.78000 2.399
31.80000 1.650
31.82000 3.339
31.84000 4.208
31.86000 2.793
31.88000 1.920
31.90000 3.859
31.92000 2.824
31.94000 4.429
31.96000 6.496
31.98000 5.317
32.00000 0.856
32.02000 3.884
32.04000 1.063
32.06000 4.471
32.08000 8.788
32.10000 5.970
32.12000 3.094
32.14000 3.144
32.16000 1.168
32.18000 1.390
32.20000 -3.627
32.22000 5.314
32.24000 4.929
32.26000 4.288
32.28000 4.106
32.30000 5.442
32.32000 4.462
32.34000 -0.893
32.36000 1.153
32.38000 0.598
32.40000 0.120
32.42000 3.730
32.44000 4.057
32.46000 3.042
32.48000 3.114
32.50000 0.639
32.52000 -0.574
32.54000 2.429
32.56000 0.788
32.58000 2.088
32.60000 8.826
32.62000 10.556
32.64000 7.038
32.66000 5.826
32.68000 2.259
32.70000 -0.951
32.72000 -0.826
32.74000 2.486
32.76000 2.376
32.78000 3.541
32.80000 7.895
32.82000 8.151
32.84000 3.877
32.86000 2.334
32.88000 2.661
32.90000 8.262
32.92000 5.664
32.94000 2.962
32.96000 2.019
32.98000 1.394
33.00000 -0.457
33.02000 1.772
33.04000 4.017
33.06000 9.161
33.08000 3.516
33.10000 1.554
33.12000 2.578
33.14000 2.193
33.16000 8.002
33.18000 6.236
33.20000 5.077
33.22000 -3.636
33.24000 0.555
33.26000 3.118
33.28000 2.706
33.30000 6.638
33.32000 2.751
33.34000 4.720
33.36000 8.378
33.38000 5.232
33.40000 0.048
33.42000 -1.054
33.44000 1.022
33.46000 -0.140
33.48000 -0.729
33.50000 -1.025
33.52000 2.638
33.54000 0.497
33.56000 1.122
33.58000 4.397
33.60000 0.657
33.62000 3.757
33.64000 1.764
33.66000 -1.388
33.68000 2.627
33.70000 4.561
33.72000 5.030
33.74000 0.907
33.76000 0.539
33.78000 3.622
33.80000 1.925
33.82000 2.398
33.84000 1.329
33.86000 0.701
33.88000 5.462
33.90000 4.422
33.92000 5.338
33.94000 2.383
33.96000 2.753
33.98000 3.183
34.00000 1.892
34.02000 1.076
34.04000 -2.337
34.06000 -3.083
34.08000 -1.359
34.10000 5.260
34.12000 3.891
34.14000 3.051
34.16000 4.869
34.18000 6.901
34.20000 6.204
34.22000 4.543
34.24000 2.327
34.26000 -1.138
34.28000 -0.542
34.30000 0.380
34.32000 -0.913
34.34000 3.567
34.36000 2.498
34.38000 0.040
34.40000 1.639
34.42000 1.090
34.44000 0.225
34.46000 1.472
34.48000 0.244
34.50000 0.658
34.52000 1.667
34.54000 4.852
34.56000 2.057
34.58000 6.303
34.60000 5.106
34.62000 4.523
34.64000 5.846
34.66000 4.748
34.68000 3.519
34.70000 4.480
34.72000 3.911
34.74000 2.815
34.76000 2.933
34.78000 0.518
34.80000 -1.599
34.82000 -0.246
34.84000 1.472
34.86000 2.798
34.88000 -2.745
34.90000 -3.612
34.92000 -3.611
34.94000 3.641
34.96000 3.675
34.98000 2.172
35.00000 2.625
35.02000 -0.309
35.04000 -1.376
35.06000 -0.011
35.08000 1.401
35.10000 -0.254
35.12000 1.173
35.14000 1.088
35.16000 -2.881
35.18000 -1.674
35.20000 0.308
35.22000 -3.612
35.24000 0.444
35.26000 2.236
35.28000 0.094
35.30000 -0.142
35.32000 4.641
35.34000 1.619
35.36000 -3.263
35.38000 0.163
35.40000 0.589
35.42000 3.814
35.44000 5.190
35.46000 0.801
35.48000 0.263
35.50000 -1.349
35.52000 0.709
35.54000 0.086
35.56000 2.345
35.58000 0.265
35.60000 -1.086
35.62000 -3.556
35.64000 -2.969
35.66000 -2.823
35.68000 0.838
35.70000 2.966
35.72000 -1.284
35.74000 7.533
35.76000 7.563
35.78000 4.885
35.80000 0.409
35.82000 -2.226
35.84000 4.884
35.86000 5.718
35.88000 6.904
35.90000 4.591
35.92000 4.884
35.94000 -0.922
35.96000 -2.289
35.98000 1.932
36.00000 -1.545
36.02000 1.032
36.04000 3.590
36.06000 4.273
36.08000 2.629
36.10000 5.164
36.12000 4.379
36.14000 0.738
36.16000 2.121
36.18000 3.345
36.20000 10.564
36.22000 10.037
36.24000 1.962
36.26000 -3.602
36.28000 -3.478
36.30000 1.838
36.32000 1.182
36.34000 2.932
36.36000 9.183
36.38000 7.233
36.40000 8.818
36.42000 5.154
36.44000 2.420
36.46000 2.376
36.48000 -2.171
36.50000 0.155
36.52000 6.600
36.54000 7.344
36.56000 2.252
36.58000 0.858
36.60000 11.076
36.62000 11.051
36.64000 4.447
36.66000 3.132
36.68000 1.027
36.70000 4.544
36.72000 1.975
36.74000 2.100
36.76000 6.325
36.78000 1.782
36.80000 1.268
36.82000 0.723
36.84000 1.166
36.86000 7.212
36.88000 6.402
36.90000 7.578
36.92000 4.778
36.94000 3.108
36.96000 -0.758
36.98000 -3.701
37.00000 0.435
37.02000 0.965
37.04000 4.029
37.06000 1.410
37.08000 2.445
37.10000 4.950
37.12000 2.204
37.14000 3.431
37.16000 1.681
37.18000 0.339
37.20000 6.831
37.22000 8.406
37.24000 4.568
37.26000 4.826
37.28000 2.557
37.30000 0.044
37.32000 4.123
37.34000 7.851
37.36000 5.111
37.38000 2.630
37.40000 0.913
37.42000 3.889
37.44000 4.922
37.46000 1.179
37.48000 3.878
37.50000 6.429
37.52000 6.143
37.54000 4.225
37.56000 4.708
37.58000 6.621
37.60000 3.708
37.62000 2.349
37.64000 3.171
37.66000 5.319
37.68000 7.799
37.70000 5.588
37.72000 9.219
37.74000 11.455
37.76000 13.865
37.78000 17.419
37.80000 11.852
37.82000 13.017
37.84000 14.709
37.86000 10.752
37.88000 10.433
37.90000 14.372
37.92000 14.714
37.94000 19.554
37.96000 19.857
37.98000 15.868
38.00000 15.105
38.02000 13.903
38.04000 14.618
38.06000 12.418
38.08000 12.612
38.10000 21.305
38.12000 24.430
38.14000 25.380
38.16000 23.298
38.18000 24.602
38.20000 25.782
38.22000 27.357
38.24000 24.707
38.26000 25.253
38.28000 27.774
38.30000 27.308
38.32000 27.806
38.34000 27.805
38.36000 33.607
38.38000 40.870
38.40000 34.161
38.42000 33.336
38.44000 43.068
38.46000 39.112
38.48000 37.317
38.50000 37.227
38.52000 45.347
38.54000 46.164
38.56000 43.878
38.58000 48.490
38.60000 53.481
38.62000 54.337
38.64000 52.880
38.66000 59.759
38.68000 63.230
38.70000 60.082
38.72000 55.212
38.74000 57.768
38.76000 67.091
38.78000 70.371
38.80000 77.508
38.82000 77.594
38.84000 79.280
38.86000 87.663
38.88000 88.338
38.90000 87.543
38.92000 91.562
38.94000 97.952
38.96000 97.004
38.98000 102.571
39.00000 111.271
39.02000 119.395
39.04000 122.343
39.06000 124.087
39.08000 127.033
39.10000 135.157
39.12000 146.069
39.14000 152.511
39.16000 154.162
39.18000 162.439
39.20000 170.872
39.22000 180.919
39.24000 190.159
39.26000 196.883
39.28000 205.231
39.30000 213.799
39.32000 224.101
39.34000 228.871
39.36000 246.156
39.38000 262.812
39.40000 274.085
39.42000 281.228
39.44000 302.069
39.46000 316.648
39.48000 316.761
39.50000 335.187
39.52000 362.983
39.54000 379.870
39.56000 398.773
39.58000 416.303
39.60000 437.611
39.62000 456.542
39.64000 474.709
39.66000 485.945
39.68000 505.505
39.70000 526.614
39.72000 560.705
39.74000 576.460
39.76000 598.223
39.78000 608.529
39.80000 635.385
39.82000 648.936
39.84000 665.626
39.86000 696.239
39.88000 709.292
39.90000 723.097
39.92000 741.648
39.94000 751.467
39.96000 760.733
39.98000 763.698
40.00000 770.513
40.02000 772.719
40.04000 780.767
40.06000 790.454
40.08000 802.735
40.10000 793.575
40.12000 783.717
40.14000 772.354
40.16000 760.986
40.18000 736.116
40.20000 732.232
40.22000 721.768
40.24000 709.567
40.26000 689.256
40.28000 657.853
40.30000 639.423
40.32000 628.117
40.34000 600.764
40.36000 582.731
40.38000 545.493
40.40000 537.473
40.42000 523.487
40.44000 489.369
40.46000 462.046
40.48000 452.173
40.50000 433.101
40.52000 407.916
40.54000 387.158
40.56000 357.021
40.58000 344.595
40.60000 325.829
40.62000 305.184
40.64000 278.305
40.66000 272.973
40.68000 261.577
40.70000 242.801
40.72000 227.477
40.74000 217.555
40.76000 203.672
40.78000 198.799
40.80000 182.276
40.82000 165.715
40.84000 162.761
40.86000 150.225
40.88000 139.264
40.90000 130.000
40.92000 124.490
40.94000 122.987
40.96000 116.758
40.98000 107.013
41.00000 97.278
41.02000 95.707
41.04000 89.671
41.06000 84.445
41.08000 76.096
41.10000 73.660
41.12000 67.933
41.14000 68.285
41.16000 64.727
41.18000 61.186
41.20000 59.894
41.22000 53.723
41.24000 53.461
41.26000 47.851
41.28000 47.104
41.30000 38.215
41.32000 35.972
41.34000 43.091
41.36000 39.092
41.38000 29.411
41.40000 31.889
41.42000 28.636
41.44000 32.586
41.46000 28.467
41.48000 22.556
41.50000 24.628
41.52000 25.124
41.54000 21.183
41.56000 17.281
41.58000 22.471
41.60000 22.170
41.62000 20.390
41.64000 15.603
41.66000 13.612
41.68000 10.641
41.70000 7.825
41.72000 8.777
41.74000 10.068
41.76000 7.998
41.78000 9.328
41.80000 10.565
41.82000 8.169
41.84000 6.544
41.86000 9.591
41.88000 5.259
41.90000 4.512
41.92000 5.114
41.94000 2.360
41.96000 2.498
41.98000 8.027
42.00000 10.898
42.02000 6.570
42.04000 2.714
42.06000 6.224
42.08000 1.684
42.10000 2.748
42.12000 4.878
42.14000 3.693
42.16000 2.199
42.18000 2.295
42.20000 3.749
42.22000 3.781
42.24000 4.777
42.26000 1.034
42.28000 -0.291
42.30000 -3.198
42.32000 0.198
42.34000 -2.241
42.36000 1.767
42.38000 2.785
42.40000 -2.487
42.42000 0.356
42.44000 1.396
42.46000 0.549
42.48000 2.282
42.50000 -1.991
42.52000 3.381
42.54000 6.123
42.56000 4.945
42.58000 0.098
42.60000 -0.517
42.62000 0.548
42.64000 0.789
42.66000 3.656
42.68000 2.022
42.70000 -0.021
42.72000 2.097
42.74000 0.335
42.76000 2.791
42.78000 1.413
42.80000 -2.045
42.82000 1.181
42.84000 3.276
42.86000 -0.795
42.88000 -3.608
42.90000 4.304
42.92000 6.730
42.94000 6.558
42.96000 1.075
42.98000 2.279
43.00000 -0.074
43.02000 1.838
43.04000 3.334
43.06000 5.530
43.08000 3.928
43.10000 2.563
43.12000 2.752
43.14000 5.098
43.16000 2.158
43.18000 5.546
43.20000 5.350
43.22000 5.007
43.24000 4.852
43.26000 2.412
43.28000 1.076
43.30000 -0.531
43.32000 0.932
43.34000 0.353
43.36000 1.190
43.38000 -3.564
43.40000 -1.532
43.42000 1.290
43.44000 3.118
43.46000 2.415
43.48000 3.008
43.50000 4.966
43.52000 0.349
43.54000 -1.811
43.56000 4.736
43.58000 3.741
43.60000 0.874
43.62000 -3.154
43.64000 -1.488
43.66000 1.044
43.68000 2.396
43.70000 3.240
43.72000 -2.611
43.74000 0.354
43.76000 0.667
43.78000 -1.580
43.80000 0.506
43.82000 3.623
43.84000 6.880
43.86000 8.207
43.88000 2.457
43.90000 2.014
43.92000 1.005
43.94000 2.434
43.96000 0.006
43.98000 -0.804
44.00000 4.169
44.02000 6.015
44.04000 3.707
44.06000 3.815
44.08000 2.549
44.10000 -0.634
44.12000 0.337
44.14000 4.069
44.16000 -0.282
44.18000 -2.036
44.20000 -0.799
44.22000 -3.576
44.24000 0.249
44.26000 5.292
44.28000 2.151
44.30000 -0.575
44.32000 -2.289
44.34000 -0.375
44.36000 0.773
44.38000 0.245
44.40000 -3.308
44.42000 -1.116
44.44000 5.306
44.46000 7.848
44.48000 10.250
44.50000 8.552
44.52000 6.614
44.54000 4.209
44.56000 2.013
44.58000 -1.827
44.60000 7.438
44.62000 9.257
44.64000 5.749
44.66000 1.860
44.68000 3.774
44.70000 6.875
44.72000 6.784
44.74000 3.989
44.76000 0.292
44.78000 8.001
44.80000 7.591
44.82000 0.444
44.84000 1.932
44.86000 7.477
44.88000 9.178
44.90000 9.246
44.92000 12.937
44.94000 14.256
44.96000 10.462
44.98000 9.267
45.00000 8.434
45.02000 9.687
45.04000 10.724
45.06000 7.869
45.08000 10.930
45.10000 13.975
45.12000 18.888
45.14000 16.561
45.16000 21.831
45.18000 19.266
45.20000 15.848
45.22000 15.836
45.24000 14.893
45.26000 13.337
45.28000 18.248
45.30000 9.678
45.32000 13.005
45.34000 15.747
45.36000 21.761
45.38000 19.292
45.40000 23.254
45.42000 25.859
45.44000 21.190
45.46000 17.295
45.48000 18.130
45.50000 23.599
45.52000 24.987
45.54000 25.758
45.56000 27.044
45.58000 28.758
45.60000 23.957
45.62000 30.752
45.64000 30.667
45.66000 29.639
45.68000 24.962
45.70000 29.330
45.72000 35.025
45.74000 34.116
45.76000 40.184
45.78000 39.584
45.80000 44.147
45.82000 43.261
45.84000 43.250
45.86000 41.966
45.88000 45.111
45.90000 50.936
45.92000 46.259
45.94000 38.771
45.96000 42.678
45.98000 47.504
46.00000 46.428
46.02000 44.442
46.04000 51.806
46.06000 59.555
46.08000 58.760
46.10000 52.380
46.12000 58.508
46.14000 57.777
46.16000 60.317
46.18000 60.603
46.20000 56.984
46.22000 64.784
46.24000 64.305
46.26000 69.910
46.28000 73.813
46.30000 69.930
46.32000 71.122
46.34000 73.486
46.36000 74.902
46.38000 76.901
46.40000 72.716
46.42000 71.557
46.44000 77.072
46.46000 75.005
46.48000 71.052
46.50000 72.518
46.52000 73.476
46.54000 72.634
46.56000 76.901
46.58000 80.257
46.60000 84.981
46.62000 74.744
46.64000 77.516
46.66000 75.881
46.68000 83.256
46.70000 83.688
46.72000 87.371
46.74000 86.322
46.76000 81.088
46.78000 82.528
46.80000 79.666
46.82000 72.902
46.84000 68.497
46.86000 64.739
46.88000 69.055
46.90000 69.592
46.92000 72.578
46.94000 78.011
46.96000 73.268
46.98000 70.249
47.00000 66.836
47.02000 63.529
47.04000 59.520
47.06000 66.410
47.08000 63.938
47.10000 59.938
47.12000 60.607
47.14000 58.135
47.16000 53.375
47.18000 51.022
47.20000 48.269
47.22000 47.278
47.24000 47.613
47.26000 50.544
47.28000 47.599
47.30000 41.101
47.32000 35.648
47.34000 33.799
47.36000 47.158
47.38000 37.852
47.40000 38.605
47.42000 33.738
47.44000 30.366
47.46000 28.796
47.48000 27.698
47.50000 25.605
47.52000 27.859
47.54000 28.769
47.56000 25.545
47.58000 27.599
47.60000 24.005
47.62000 26.435
47.64000 27.825
47.66000 20.995
47.68000 21.014
47.70000 19.483
47.72000 13.857
47.74000 15.633
47.76000 15.962
47.78000 11.015
47.80000 12.776
47.82000 10.998
47.84000 9.289
47.86000 7.717
47.88000 7.600
47.90000 6.651
47.92000 12.870
47.94000 13.722
47.96000 8.427
47.98000 11.859
48.00000 6.774
48.02000 7.265
48.04000 6.850
48.06000 2.398
48.08000 4.890
48.10000 8.482
48.12000 7.702
48.14000 8.142
48.16000 4.936
48.18000 8.109
48.20000 5.688
48.22000 3.089
48.24000 8.581
48.26000 6.201
48.28000 1.923
48.30000 -0.236
48.32000 1.863
48.34000 5.365
48.36000 4.886
48.38000 1.628
48.40000 1.624
48.42000 2.616
48.44000 4.575
48.46000 -1.259
48.48000 -3.287
48.50000 -1.020
48.52000 -2.804
48.54000 -0.832
48.56000 6.304
48.58000 1.994
48.60000 0.636
48.62000 0.327
48.64000 4.316
48.66000 5.048
48.68000 3.250
48.70000 0.929
48.72000 -0.279
48.74000 3.205
48.76000 -1.358
48.78000 -1.536
48.80000 -2.562
48.82000 2.920
48.84000 3.460
48.86000 8.011
48.88000 4.220
48.90000 -1.475
48.92000 2.804
48.94000 -0.497
48.96000 0.669
48.98000 0.379
49.00000 0.210
49.02000 6.441
49.04000 8.147
49.06000 5.592
49.08000 6.571
49.10000 6.708
49.12000 8.543
49.14000 3.404
49.16000 2.061
49.18000 2.509
49.20000 6.042
49.22000 0.636
49.24000 0.515
49.26000 3.805
49.28000 2.762
49.30000 2.061
49.32000 6.012
49.34000 3.999
49.36000 8.782
49.38000 8.157
49.40000 8.491
49.42000 2.543
49.44000 4.026
49.46000 6.726
49.48000 0.672
49.50000 -3.110
49.52000 3.434
49.54000 4.431
49.56000 5.954
49.58000 7.916
49.60000 12.408
49.62000 13.896
49.64000 9.452
49.66000 4.550
49.68000 9.224
49.70000 9.319
49.72000 8.763
49.74000 4.021
49.76000 0.459
49.78000 0.738
49.80000 1.328
49.82000 4.789
49.84000 4.634
49.86000 2.563
49.88000 3.688
49.90000 6.096
49.92000 4.909
49.94000 4.166
49.96000 5.367
49.98000 7.489
50.00000 12.687
50.02000 11.122
50.04000 6.578
50.06000 8.865
50.08000 9.364
50.10000 5.926
50.12000 2.604
50.14000 8.309
50.16000 9.241
50.18000 8.999
50.20000 9.241
50.22000 1.531
50.24000 5.304
50.26000 5.535
50.28000 5.099
50.30000 1.314
50.32000 3.617
50.34000 5.019
50.36000 2.582
50.38000 3.315
50.40000 5.334
50.42000 7.765
50.44000 2.960
50.46000 6.562
50.48000 8.977
50.50000 8.254
50.52000 8.996
50.54000 8.967
50.56000 9.146
50.58000 3.288
50.60000 3.950
50.62000 5.054
50.64000 5.662
50.66000 11.918
50.68000 10.729
50.70000 9.992
50.72000 12.690
50.74000 8.588
50.76000 1.623
50.78000 -0.129
50.80000 7.072
50.82000 3.847
50.84000 3.838
50.86000 10.627
50.88000 6.367
50.90000 1.919
50.92000 4.994
50.94000 7.133
50.96000 7.676
50.98000 12.823
51.00000 12.418
51.02000 10.790
51.04000 10.325
51.06000 6.089
51.08000 1.143
51.10000 3.566
51.12000 7.262
51.14000 4.926
51.16000 8.637
51.18000 6.798
51.20000 9.812
51.22000 11.841
51.24000 9.546
51.26000 8.091
51.28000 8.877
51.30000 2.680
51.32000 -2.994
51.34000 0.025
51.36000 6.257
51.38000 9.671
51.40000 12.126
51.42000 7.588
51.44000 8.630
51.46000 13.352
51.48000 3.911
51.50000 3.740
51.52000 4.372
51.54000 7.042
51.56000 12.300
51.58000 11.781
51.60000 8.314
51.62000 1.110
51.64000 2.633
51.66000 6.733
51.68000 12.696
51.70000 10.163
51.72000 10.110
51.74000 5.776
51.76000 1.861
51.78000 -2.986
51.80000 -2.575
51.82000 5.746
51.84000 8.211
51.86000 8.261
51.88000 6.498
51.90000 0.450
51.92000 8.802
51.94000 7.399
51.96000 11.187
51.98000 5.306
52.00000 4.331
52.02000 3.009
52.04000 6.156
52.06000 4.786
52.08000 3.920
52.10000 3.635
52.12000 3.423
52.14000 5.785
52.16000 3.698
52.18000 6.892
52.20000 8.252
52.22000 5.129
52.24000 4.853
52.26000 5.989
52.28000 6.356
52.30000 4.082
52.32000 3.002
52.34000 1.090
52.36000 2.236
52.38000 2.929
52.40000 2.727
52.42000 6.370
52.44000 4.074
52.46000 3.429
52.48000 8.862
52.50000 5.267
52.52000 6.624
52.54000 5.566
52.56000 7.903
52.58000 6.129
52.60000 6.128
52.62000 3.299
52.64000 -0.836
52.66000 -1.715
52.68000 0.758
52.70000 -1.405
52.72000 -2.906
52.74000 7.073
52.76000 3.562
52.78000 2.948
52.80000 10.196
52.82000 14.887
52.84000 7.967
52.86000 4.689
52.88000 5.790
52.90000 4.645
52.92000 0.884
52.94000 2.654
52.96000 3.368
52.98000 4.006
53.00000 1.325
53.02000 3.028
53.04000 2.685
53.06000 4.458
53.08000 -0.477
53.10000 -0.450
53.12000 2.844
53.14000 5.038
53.16000 1.815
53.18000 0.649
53.20000 6.006
53.22000 2.235
53.24000 6.195
53.26000 3.441
53.28000 0.747
53.30000 3.167
53.32000 -3.018
53.34000 -2.315
53.36000 5.080
53.38000 8.042
53.40000 3.654
53.42000 2.861
53.44000 1.182
53.46000 2.295
53.48000 2.010
53.50000 0.441
53.52000 0.645
53.54000 4.310
53.56000 -0.596
53.58000 -3.011
53.60000 4.352
53.62000 5.870
53.64000 5.766
53.66000 3.913
53.68000 5.161
53.70000 6.621
53.72000 5.170
53.74000 4.342
53.76000 2.322
53.78000 -0.923
53.80000 -0.375
53.82000 0.194
53.84000 -0.770
53.86000 -0.813
53.88000 2.908
53.90000 8.803
53.92000 2.162
53.94000 1.713
53.96000 1.743
53.98000 2.210
54.00000 -0.099
54.02000 1.887
54.04000 1.633
54.06000 1.479
54.08000 3.014
54.10000 2.672
54.12000 3.203
54.14000 1.674
54.16000 0.157
54.18000 1.483
54.20000 2.957
54.22000 6.449
54.24000 2.150
54.26000 0.488
54.28000 8.090
54.30000 5.977
54.32000 -2.455
54.34000 0.540
54.36000 3.863
54.38000 3.308
54.40000 1.161
54.42000 -0.727
54.44000 1.550
54.46000 3.382
54.48000 3.481
54.50000 4.860
54.52000 1.629
54.54000 2.361
54.56000 2.319
54.58000 4.509
54.60000 -1.708
54.62000 -1.671
54.64000 -0.854
54.66000 3.127
54.68000 4.833
54.70000 4.650
54.72000 7.043
54.74000 6.709
54.76000 6.000
54.78000 2.652
54.80000 1.457
54.82000 5.516
54.84000 4.693
54.86000 3.689
54.88000 5.850
54.90000 4.758
54.92000 4.321
54.94000 2.240
54.96000 2.419
54.98000 -2.846
55.00000 1.924
55.02000 1.626
55.04000 4.409
55.06000 2.433
55.08000 1.435
55.10000 7.464
55.12000 4.635
55.14000 6.599
55.16000 9.661
55.18000 9.356
55.20000 6.276
55.22000 5.906
55.24000 3.490
55.26000 -2.888
55.28000 3.350
55.30000 6.022
55.32000 9.360
55.34000 10.041
55.36000 7.680
55.38000 10.560
55.40000 10.808
55.42000 5.890
55.44000 4.736
55.46000 1.548
55.48000 -1.136
55.50000 -1.180
55.52000 -2.885
55.54000 6.349
55.56000 2.683
55.58000 3.229
55.60000 7.567
55.62000 7.667
55.64000 9.275
55.66000 2.918
55.68000 3.696
55.70000 4.106
55.72000 4.125
55.74000 7.479
55.76000 9.435
55.78000 7.324
55.80000 6.771
55.82000 8.562
55.84000 4.462
55.86000 3.186
55.88000 3.046
55.90000 1.522
55.92000 3.584
55.94000 9.008
55.96000 7.475
55.98000 5.318
56.00000 3.770
56.02000 3.097
56.04000 2.874
56.06000 4.093
56.08000 5.492
56.10000 3.928
56.12000 5.878
56.14000 3.600
56.16000 0.122
56.18000 -0.154
56.20000 5.971
56.22000 6.346
56.24000 2.923
56.26000 2.267
56.28000 2.446
56.30000 1.114
56.32000 -1.155
56.34000 1.552
56.36000 5.157
56.38000 4.983
56.40000 3.790
56.42000 -0.276
56.44000 -2.084
56.46000 -2.252
56.48000 2.663
56.50000 5.711
56.52000 -0.746
56.54000 1.687
56.56000 3.268
56.58000 6.977
56.60000 2.648
56.62000 4.462
56.64000 3.798
56.66000 3.659
56.68000 5.705
56.70000 1.833
56.72000 2.867
56.74000 4.790
56.76000 4.743
56.78000 5.042
56.80000 1.557
56.82000 2.562
56.84000 0.263
56.86000 4.170
56.88000 6.780
56.90000 4.715
56.92000 2.666
56.94000 0.843
56.96000 4.060
56.98000 3.480
57.00000 2.835
57.02000 3.231
57.04000 4.936
57.06000 0.121
57.08000 2.740
57.10000 -0.888
57.12000 -0.818
57.14000 3.648
57.16000 2.929
57.18000 1.055
57.20000 2.958
57.22000 5.466
57.24000 9.281
57.26000 5.514
57.28000 2.767
57.30000 3.888
57.32000 5.914
57.34000 3.787
57.36000 -0.820
57.38000 -2.212
57.40000 -2.867
57.42000 3.226
57.44000 8.157
57.46000 5.602
57.48000 1.288
57.50000 0.420
57.52000 4.510
57.54000 2.851
57.56000 -2.394
57.58000 0.617
57.60000 3.514
57.62000 10.046
57.64000 5.841
57.66000 7.191
57.68000 5.304
57.70000 6.460
57.72000 1.658
57.74000 4.360
57.76000 6.328
57.78000 5.166
57.80000 8.510
57.82000 5.432
57.84000 14.161
57.86000 11.033
57.88000 2.537
57.90000 2.942
57.92000 5.765
57.94000 1.844
57.96000 -0.286
57.98000 -1.009
58.00000 0.228
58.02000 3.428
58.04000 1.148
58.06000 9.084
58.08000 6.115
58.10000 0.742
58.12000 2.260
58.14000 5.406
58.16000 -1.862
58.18000 2.121
58.20000 7.504
58.22000 4.963
58.24000 4.814
58.26000 4.479
58.28000 3.265
58.30000 4.724
58.32000 4.195
58.34000 5.262
58.36000 5.688
58.38000 2.921
58.40000 4.505
58.42000 4.052
58.44000 2.491
58.46000 7.424
58.48000 8.037
58.50000 4.406
58.52000 2.597
58.54000 3.347
58.56000 5.660
58.58000 1.476
58.60000 2.781
58.62000 4.915
58.64000 5.345
58.66000 4.023
58.68000 2.411
58.70000 3.577
58.72000 7.093
58.74000 4.597
58.76000 10.102
58.78000 7.148
58.80000 4.888
58.82000 6.686
58.84000 5.663
58.86000 1.196
58.88000 0.836
58.90000 2.440
58.92000 3.625
58.94000 5.496
58.96000 7.422
58.98000 4.561
59.00000 3.471
59.02000 3.265
59.04000 -2.777
59.06000 5.304
59.08000 6.934
59.10000 5.832
59.12000 4.123
59.14000 7.736
59.16000 12.784
59.18000 9.459
59.20000 11.418
59.22000 6.799
59.24000 2.940
59.26000 -1.012
59.28000 3.252
59.30000 2.672
59.32000 -0.605
59.34000 0.182
59.36000 3.411
59.38000 9.719
59.40000 4.192
59.42000 2.098
59.44000 7.077
59.46000 3.762
59.48000 2.098
59.50000 2.126
59.52000 3.184
59.54000 2.227
59.56000 4.027
59.58000 7.688
59.60000 3.334
59.62000 -0.809
59.64000 -1.869
59.66000 -1.018
59.68000 3.880
59.70000 3.459
59.72000 3.155
59.74000 1.745
59.76000 4.281
59.78000 3.327
59.80000 0.319
59.82000 1.285
59.84000 0.665
59.86000 2.890
59.88000 4.316
59.90000 2.376
59.92000 1.120
59.94000 2.317
59.96000 2.952
59.98000 5.157
60.00000 0.098
60.02000 0.903
60.04000 6.035
60.06000 4.950
60.08000 6.877
60.10000 6.897
60.12000 3.540
60.14000 2.078
60.16000 6.504
60.18000 -1.598
60.20000 -2.785
60.22000 1.408
60.24000 2.676
60.26000 4.627
60.28000 2.395
60.30000 0.234
60.32000 4.123
60.34000 4.940
60.36000 6.437
60.38000 3.840
60.40000 2.282
60.42000 4.079
60.44000 4.541
60.46000 9.001
60.48000 6.421
60.50000 5.065
60.52000 2.095
60.54000 -0.724
60.56000 2.796
60.58000 2.264
60.60000 0.678
60.62000 -0.553
60.64000 0.793
60.66000 6.202
60.68000 4.832
60.70000 0.744
60.72000 -1.987
60.74000 -1.056
60.76000 6.089
60.78000 8.602
60.80000 2.861
60.82000 1.942
60.84000 3.434
60.86000 5.561
60.88000 4.128
60.90000 2.949
60.92000 1.849
60.94000 2.269
60.96000 5.544
60.98000 5.688
61.00000 5.972
61.02000 3.040
61.04000 2.048
61.06000 1.383
61.08000 2.691
61.10000 0.606
61.12000 -0.109
61.14000 2.875
61.16000 5.109
61.18000 6.028
61.20000 -0.286
61.22000 2.268
61.24000 3.591
61.26000 7.681
61.28000 7.612
61.30000 7.154
61.32000 3.409
61.34000 2.439
61.36000 4.124
61.38000 5.062
61.40000 2.175
61.42000 3.483
61.44000 3.196
61.46000 7.595
61.48000 3.597
61.50000 2.294
61.52000 5.871
61.54000 4.933
61.56000 -0.044
61.58000 -2.719
61.60000 -0.111
61.62000 2.341
61.64000 4.120
61.66000 5.166
61.68000 5.469
61.70000 7.087
61.72000 5.892
61.74000 1.686
61.76000 6.370
61.78000 1.214
61.80000 0.808
61.82000 2.535
61.84000 0.713
61.86000 0.461
61.88000 5.932
61.90000 4.751
61.92000 6.807
61.94000 2.521
61.96000 0.323
61.98000 -0.868
62.00000 0.203
62.02000 1.991
62.04000 5.856
62.06000 7.632
62.08000 7.358
62.10000 8.719
62.12000 2.053
62.14000 -2.684
62.16000 1.977
62.18000 5.149
62.20000 9.831
62.22000 6.870
62.24000 6.236
62.26000 3.777
62.28000 5.451
62.30000 7.436
62.32000 3.892
62.34000 3.157
62.36000 3.809
62.38000 3.747
62.40000 1.856
62.42000 1.107
62.44000 6.357
62.46000 10.605
62.48000 3.697
62.50000 4.706
62.52000 5.454
62.54000 5.022
62.56000 4.374
62.58000 8.641
62.60000 8.186
62.62000 7.739
62.64000 4.908
62.66000 0.540
62.68000 0.278
62.70000 5.434
62.72000 6.254
62.74000 6.791
62.76000 2.782
62.78000 -0.206
62.80000 -2.707
62.82000 3.262
62.84000 5.978
62.86000 2.349
62.88000 3.162
62.90000 3.681
62.92000 3.831
62.94000 0.412
62.96000 -0.156
62.98000 4.284
63.00000 3.342
63.02000 0.770
63.04000 3.872
63.06000 5.318
63.08000 1.841
63.10000 -1.414
63.12000 2.142
63.14000 3.919
63.16000 4.458
63.18000 1.138
63.20000 -1.421
63.22000 1.311
63.24000 3.156
63.26000 4.947
63.28000 1.628
63.30000 3.580
63.32000 -0.137
63.34000 -0.300
63.36000 2.996
63.38000 1.623
63.40000 3.179
63.42000 4.349
63.44000 3.480
63.46000 -0.576
63.48000 -2.713
63.50000 3.301
63.52000 2.387
63.54000 3.699
63.56000 3.783
63.58000 2.553
63.60000 1.419
63.62000 2.967
63.64000 7.122
63.66000 1.783
63.68000 -2.724
63.70000 1.984
63.72000 4.857
63.74000 2.597
63.76000 2.370
63.78000 3.449
63.80000 5.747
63.82000 -1.892
63.84000 2.180
63.86000 3.658
63.88000 5.680
63.90000 3.332
63.92000 4.255
63.94000 5.275
63.96000 4.549
63.98000 1.927
64.00000 2.069
64.02000 0.935
64.04000 -0.510
64.06000 4.026
64.08000 -1.613
64.10000 2.294
64.12000 5.055
64.14000 1.983
64.16000 0.902
64.18000 0.910
64.20000 0.915
64.22000 2.402
64.24000 0.438
64.26000 -2.519
64.28000 2.768
64.30000 2.337
64.32000 2.962
64.34000 7.316
64.36000 3.074
64.38000 2.042
64.40000 2.061
64.42000 2.024
64.44000 -1.967
64.46000 1.171
64.48000 0.257
64.50000 1.550
64.52000 1.209
64.54000 -0.408
64.56000 2.344
64.58000 4.472
64.60000 2.799
64.62000 0.084
64.64000 -1.580
64.66000 0.240
64.68000 0.306
64.70000 -1.939
64.72000 -1.193
64.74000 2.652
64.76000 -1.886
64.78000 5.710
64.80000 5.062
64.82000 4.241
64.84000 5.930
64.86000 1.587
64.88000 1.164
64.90000 2.245
64.92000 0.943
64.94000 3.901
64.96000 3.133
64.98000 -2.537
65.00000 -1.846
65.02000 5.392
65.04000 4.909
65.06000 4.652
65.08000 3.705
65.10000 1.897
65.12000 0.965
65.14000 4.150
65.16000 1.949
65.18000 0.287
65.20000 -0.121
65.22000 2.957
65.24000 0.132
65.26000 0.095
65.28000 3.955
65.30000 3.714
65.32000 1.364
65.34000 -0.308
65.36000 -2.395
65.38000 3.556
65.40000 9.558
65.42000 7.117
65.44000 -2.372
65.46000 -0.225
65.48000 -2.758
65.50000 0.147
65.52000 -0.507
65.54000 -1.001
65.56000 0.989
65.58000 3.971
65.60000 3.543
65.62000 1.198
65.64000 0.953
65.66000 1.638
65.68000 6.385
65.70000 2.230
65.72000 2.420
65.74000 1.785
65.76000 2.372
65.78000 2.153
65.80000 4.762
65.82000 4.846
65.84000 -0.903
65.86000 -2.796
65.88000 -1.396
65.90000 -2.304
65.92000 4.126
65.94000 5.212
65.96000 3.164
65.98000 4.100
66.00000 3.405
66.02000 3.004
66.04000 0.773
66.06000 -0.534
66.08000 1.735
66.10000 6.428
66.12000 3.576
66.14000 5.579
66.16000 1.430
66.18000 0.974
66.20000 5.890
66.22000 8.361
66.24000 2.248
66.26000 0.922
66.28000 1.992
66.30000 3.627
66.32000 5.713
66.34000 6.759
66.36000 3.188
66.38000 2.297
66.40000 2.416
66.42000 3.713
66.44000 4.782
66.46000 6.025
66.48000 7.164
66.50000 5.957
66.52000 5.930
66.54000 8.520
66.56000 6.754
66.58000 -0.246
66.60000 2.285
66.62000 4.903
66.64000 3.751
66.66000 3.324
66.68000 8.080
66.70000 4.911
66.72000 1.190
66.74000 3.614
66.76000 3.698
66.78000 2.779
66.80000 5.367
66.82000 10.158
66.84000 13.262
66.86000 12.364
66.88000 8.095
66.90000 6.705
66.92000 10.767
66.94000 13.282
66.96000 16.719
66.98000 5.846
67.00000 6.145
67.02000 9.465
67.04000 7.372
67.06000 9.301
67.08000 10.565
67.10000 6.009
67.12000 9.776
67.14000 10.440
67.16000 15.768
67.18000 18.394
67.20000 14.247
67.22000 12.225
67.24000 12.777
67.26000 14.865
67.28000 14.602
67.30000 13.729
67.32000 11.851
67.34000 14.490
67.36000 17.392
67.38000 10.022
67.40000 14.593
67.42000 16.554
67.44000 16.763
67.46000 16.472
67.48000 16.998
67.50000 19.132
67.52000 17.147
67.54000 21.575
67.56000 22.844
67.58000 15.299
67.60000 18.424
67.62000 24.146
67.64000 25.092
67.66000 21.198
67.68000 20.373
67.70000 22.477
67.72000 20.151
67.74000 23.754
67.76000 20.214
67.78000 21.968
67.80000 27.803
67.82000 24.494
67.84000 19.758
67.86000 23.460
67.88000 24.537
67.90000 22.439
67.92000 23.542
67.94000 23.649
67.96000 23.243
67.98000 18.771
68.00000 22.475
68.02000 24.152
68.04000 19.886
68.06000 16.793
68.08000 14.807
68.10000 17.606
68.12000 21.241
68.14000 24.861
68.16000 23.348
68.18000 25.204
68.20000 23.745
68.22000 28.148
68.24000 27.584
68.26000 26.354
68.28000 24.939
68.30000 22.238
68.32000 25.386
68.34000 26.574
68.36000 17.132
68.38000 17.754
68.40000 14.881
68.42000 18.918
68.44000 18.285
68.46000 18.358
68.48000 17.948
68.50000 16.672
68.52000 10.699
68.54000 14.832
68.56000 15.938
68.58000 16.012
68.60000 16.734
68.62000 11.489
68.64000 8.701
68.66000 11.213
68.68000 15.170
68.70000 18.380
68.72000 15.049
68.74000 12.731
68.76000 14.950
68.78000 14.144
68.80000 12.235
68.82000 14.070
68.84000 15.805
68.86000 13.566
68.88000 9.306
68.90000 7.757
68.92000 6.218
68.94000 7.601
68.96000 7.704
68.98000 7.395
69.00000 5.506
69.02000 5.011
69.04000 6.630
69.06000 5.157
69.08000 8.962
69.10000 4.430
69.12000 8.337
69.14000 11.976
69.16000 4.779
69.18000 6.693
69.20000 5.889
69.22000 2.028
69.24000 7.836
69.26000 6.889
69.28000 0.601
69.30000 0.309
69.32000 0.399
69.34000 3.961
69.36000 10.310
69.38000 9.641
69.40000 4.629
69.42000 2.972
69.44000 1.321
69.46000 0.229
69.48000 -0.736
69.50000 2.238
69.52000 1.937
69.54000 -1.285
69.56000 1.197
69.58000 2.230
69.60000 4.085
69.62000 3.239
69.64000 3.664
69.66000 3.441
69.68000 3.734
69.70000 6.290
69.72000 2.218
69.74000 2.650
69.76000 4.664
69.78000 4.516
69.80000 0.917
69.82000 -2.701
69.84000 2.974
69.86000 7.776
69.88000 7.244
69.90000 1.919
69.92000 2.611
69.94000 5.297
69.96000 5.708
69.98000 5.131
70.00000 6.438
70.02000 6.382
70.04000 -1.012
70.06000 1.432
70.08000 2.574
70.10000 3.234
70.12000 4.903
70.14000 5.357
70.16000 2.192
70.18000 0.991
70.20000 6.606
70.22000 0.128
70.24000 -2.649
70.26000 -2.609
70.28000 3.620
70.30000 6.834
70.32000 9.724
70.34000 10.366
70.36000 7.276
70.38000 8.038
70.40000 5.770
70.42000 5.586
70.44000 1.801
70.46000 2.890
70.48000 7.982
70.50000 10.794
70.52000 10.230
70.54000 1.975
70.56000 -2.030
70.58000 -2.616
70.60000 -2.211
70.62000 0.189
70.64000 2.088
70.66000 0.510
70.68000 0.082
70.70000 2.043
70.72000 5.040
70.74000 5.071
70.76000 0.008
70.78000 2.417
70.80000 0.903
70.82000 2.891
70.84000 6.898
70.86000 4.131
70.88000 6.759
70.90000 3.075
70.92000 4.343
70.94000 4.832
70.96000 4.492
70.98000 6.184
71.00000 6.663
71.02000 0.367
71.04000 6.627
71.06000 2.909
71.08000 -2.577
71.10000 0.083
71.12000 5.587
71.14000 6.490
71.16000 4.208
71.18000 5.123
71.20000 2.884
71.22000 3.980
71.24000 4.895
71.26000 3.978
71.28000 4.863
71.30000 4.208
71.32000 6.650
71.34000 5.691
71.36000 1.656
71.38000 6.557
71.40000 6.135
71.42000 5.569
71.44000 2.035
71.46000 1.013
71.48000 -1.338
71.50000 1.297
71.52000 3.000
71.54000 4.863
71.56000 4.487
71.58000 6.897
71.60000 7.196
71.62000 4.722
71.64000 1.485
71.66000 3.776
71.68000 4.463
71.70000 7.696
71.72000 8.459
71.74000 6.449
71.76000 4.580
71.78000 2.137
71.80000 3.468
71.82000 4.445
71.84000 -1.036
71.86000 -1.583
71.88000 4.251
71.90000 1.771
71.92000 0.810
71.94000 0.170
71.96000 0.921
71.98000 4.860
72.00000 9.088
72.02000 5.851
72.04000 5.404
72.06000 4.439
72.08000 0.163
72.10000 1.824
72.12000 8.033
72.14000 6.363
72.16000 1.618
72.18000 1.886
72.20000 4.440
72.22000 6.293
72.24000 8.534
72.26000 8.454
72.28000 6.135
72.30000 5.656
72.32000 4.737
72.34000 7.428
72.36000 7.970
72.38000 3.988
72.40000 7.886
72.42000 6.235
72.44000 3.355
72.46000 3.460
72.48000 8.610
72.50000 9.252
72.52000 6.630
72.54000 8.547
72.56000 7.542
72.58000 4.868
72.60000 2.945
72.62000 -2.501
72.64000 2.904
72.66000 9.730
72.68000 8.074
72.70000 4.709
72.72000 2.556
72.74000 3.048
72.76000 6.673
72.78000 6.067
72.80000 9.155
72.82000 8.585
72.84000 8.760
72.86000 8.404
72.88000 3.386
72.90000 0.087
72.92000 2.065
72.94000 5.513
72.96000 6.466
72.98000 7.466
73.00000 5.489
73.02000 3.259
73.04000 2.244
73.06000 6.854
73.08000 4.374
73.10000 4.453
73.12000 8.354
73.14000 6.383
73.16000 4.756
73.18000 -0.005
73.20000 4.783
73.22000 3.868
73.24000 3.842
73.26000 7.450
73.28000 10.058
73.30000 0.397
73.32000 4.240
73.34000 3.024
73.36000 10.382
73.38000 6.564
73.40000 -0.036
73.42000 2.926
73.44000 4.166
73.46000 6.136
73.48000 7.663
73.50000 3.959
73.52000 4.612
73.54000 4.676
73.56000 4.265
73.58000 5.027
73.60000 6.476
73.62000 0.175
73.64000 -1.406
73.66000 -2.517
73.68000 -0.709
73.70000 1.995
73.72000 1.594
73.74000 3.882
73.76000 10.000
73.78000 5.995
73.80000 1.378
73.82000 3.841
73.84000 1.380
73.86000 2.828
73.88000 0.851
73.90000 6.963
73.92000 6.843
73.94000 8.075
73.96000 5.986
73.98000 3.189
74.00000 0.744
74.02000 5.109
74.04000 3.871
74.06000 3.336
74.08000 -0.752
74.10000 -2.019
74.12000 1.562
74.14000 3.068
74.16000 3.382
74.18000 4.614
74.20000 1.039
74.22000 -0.141
74.24000 -1.922
74.26000 0.590
74.28000 4.802
74.30000 2.733
74.32000 4.410
74.34000 3.724
74.36000 2.417
74.38000 5.161
74.40000 5.733
74.42000 7.201
74.44000 8.088
74.46000 3.813
74.48000 4.312
74.50000 2.904
74.52000 -0.601
74.54000 -1.734
74.56000 -2.470
74.58000 1.669
74.60000 2.019
74.62000 6.808
74.64000 10.598
74.66000 12.165
74.68000 10.279
74.70000 3.722
74.72000 4.154
74.74000 8.259
74.76000 5.641
74.78000 3.837
74.80000 4.409
74.82000 6.417
74.84000 4.397
74.86000 5.289
74.88000 11.071
74.90000 6.656
74.92000 5.823
74.94000 6.368
74.96000 0.966
74.98000 1.987
75.00000 7.087
75.02000 1.246
75.04000 6.346
75.06000 8.836
75.08000 9.747
75.10000 7.578
75.12000 -2.212
75.14000 -1.103
75.16000 0.698
75.18000 2.763
75.20000 2.333
75.22000 1.176
75.24000 1.842
75.26000 4.679
75.28000 -2.486
75.30000 2.147
75.32000 6.938
75.34000 11.087
75.36000 11.171
75.38000 11.166
75.40000 8.181
75.42000 3.730
75.44000 4.660
75.46000 2.353
75.48000 2.951
75.50000 4.991
75.52000 9.000
75.54000 9.789
75.56000 6.475
75.58000 -0.615
75.60000 1.693
75.62000 7.061
75.64000 1.507
75.66000 3.810
75.68000 4.642
75.70000 5.146
75.72000 8.186
75.74000 5.772
75.76000 5.282
75.78000 7.594
75.80000 6.175
75.82000 7.622
75.84000 5.671
75.86000 1.090
75.88000 7.393
75.90000 10.984
75.92000 9.533
75.94000 4.325
75.96000 6.607
75.98000 6.033
76.00000 5.786
76.02000 3.657
76.04000 7.457
76.06000 6.097
76.08000 6.186
76.10000 3.364
76.12000 4.359
76.14000 7.930
76.16000 8.064
76.18000 7.996
76.20000 7.981
76.22000 4.621
76.24000 2.872
76.26000 5.820
76.28000 3.070
76.30000 -0.347
76.32000 5.715
76.34000 5.037
76.36000 4.538
76.38000 6.045
76.40000 2.224
76.42000 0.694
76.44000 8.228
76.46000 10.447
76.48000 9.133
76.50000 5.307
76.52000 4.685
76.54000 6.491
76.56000 7.809
76.58000 4.346
76.60000 4.154
76.62000 3.995
76.64000 5.510
76.66000 5.072
76.68000 12.198
76.70000 6.007
76.72000 0.014
76.74000 1.942
76.76000 1.698
76.78000 0.697
76.80000 1.186
76.82000 4.527
76.84000 7.025
76.86000 4.617
76.88000 3.052
76.90000 2.864
76.92000 4.386
76.94000 8.936
76.96000 7.094
76.98000 3.540
77.00000 3.460
77.02000 5.899
77.04000 11.984
77.06000 5.620
77.08000 5.342
77.10000 -0.078
77.12000 -2.492
77.14000 0.407
77.16000 4.922
77.18000 5.698
77.20000 8.145
77.22000 4.148
77.24000 8.316
77.26000 6.767
77.28000 3.164
77.30000 5.842
77.32000 6.418
77.34000 4.420
77.36000 8.084
77.38000 6.811
77.40000 5.046
77.42000 2.387
77.44000 9.647
77.46000 6.180
77.48000 5.651
77.50000 1.069
77.52000 3.474
77.54000 2.635
77.56000 5.372
77.58000 4.198
77.60000 5.744
77.62000 4.029
77.64000 4.723
77.66000 5.770
77.68000 4.491
77.70000 2.685
77.72000 5.635
77.74000 7.875
77.76000 1.964
77.78000 7.287
77.80000 7.252
77.82000 2.901
77.84000 6.396
77.86000 7.110
77.88000 9.879
77.90000 10.846
77.92000 3.655
77.94000 1.886
77.96000 3.231
77.98000 2.400
78.00000 0.107
78.02000 -2.569
78.04000 3.187
78.06000 2.491
78.08000 0.279
78.10000 4.936
78.12000 8.030
78.14000 4.393
78.16000 6.759
78.18000 7.870
78.20000 6.583
78.22000 6.352
78.24000 0.778
78.26000 -0.850
78.28000 3.082
78.30000 6.936
78.32000 7.721
78.34000 11.700
78.36000 6.405
78.38000 -2.139
78.40000 0.112
78.42000 -0.083
78.44000 3.871
78.46000 7.215
78.48000 3.642
78.50000 5.399
78.52000 8.342
78.54000 1.346
78.56000 5.699
78.58000 -1.486
78.60000 1.870
78.62000 1.184
78.64000 3.990
78.66000 3.567
78.68000 0.211
78.70000 3.830
78.72000 1.939
78.74000 1.333
78.76000 3.667
78.78000 3.412
78.80000 4.794
78.82000 5.180
78.84000 2.647
78.86000 5.222
78.88000 6.207
78.90000 9.873
78.92000 4.891
78.94000 4.790
78.96000 0.678
78.98000 1.752
79.00000 1.491
79.02000 1.190
79.04000 -2.619
79.06000 1.636
79.08000 1.297
79.10000 2.713
79.12000 6.988
79.14000 4.700
79.16000 7.053
79.18000 9.056
79.20000 5.424
79.22000 4.143
79.24000 2.000
79.26000 0.721
79.28000 0.591
79.30000 9.241
79.32000 12.486
79.34000 0.190
79.36000 -0.795
79.38000 -0.289
79.40000 -1.132
79.42000 0.713
79.44000 -1.259
79.46000 4.339
79.48000 3.508
79.50000 3.696
79.52000 4.426
79.54000 3.237
79.56000 1.164
79.58000 5.589
79.60000 3.708
79.62000 6.848
79.64000 5.343
79.66000 5.494
79.68000 2.168
79.70000 2.864
79.72000 3.474
79.74000 1.945
79.76000 2.318
79.78000 5.239
79.80000 3.412
79.82000 4.583
79.84000 2.439
79.86000 1.525
79.88000 4.698
79.90000 9.110
79.92000 8.866
79.94000 8.650
79.96000 3.199
79.98000 5.913
80.00000 2.057
80.02000 -2.739
80.04000 -1.554
80.06000 3.431
80.08000 5.048
80.10000 3.024
80.12000 4.712
80.14000 3.411
80.16000 5.707
80.18000 10.761
80.20000 4.724
80.22000 2.876
80.24000 5.018
80.26000 12.865
80.28000 8.774
80.30000 4.475
80.32000 3.057
80.34000 4.993
80.36000 5.563
80.38000 5.473
80.40000 8.683
80.42000 5.941
80.44000 1.828
80.46000 2.304
80.48000 1.494
80.50000 3.213
80.52000 7.394
80.54000 7.141
80.56000 1.151
80.58000 1.218
80.60000 2.414
80.62000 2.789
80.64000 1.754
80.66000 8.778
80.68000 13.298
80.70000 4.542
80.72000 6.163
80.74000 6.568
80.76000 4.829
80.78000 5.573
80.80000 6.069
80.82000 6.947
80.84000 6.529
80.86000 5.770
80.88000 10.703
80.90000 13.479
80.92000 9.312
80.94000 9.751
80.96000 2.259
80.98000 8.238
81.00000 14.014
81.02000 15.648
81.04000 12.936
81.06000 15.421
81.08000 16.165
81.10000 12.948
81.12000 14.554
81.14000 13.912
81.16000 18.028
81.18000 19.615
81.20000 16.163
81.22000 20.206
81.24000 16.065
81.26000 16.531
81.28000 15.599
81.30000 15.428
81.32000 16.066
81.34000 15.632
81.36000 16.888
81.38000 18.029
81.40000 14.362
81.42000 15.675
81.44000 9.914
81.46000 15.008
81.48000 14.593
81.50000 12.787
81.52000 16.345
81.54000 15.323
81.56000 19.407
81.58000 21.899
81.60000 19.595
81.62000 17.715
81.64000 17.822
81.66000 14.914
81.68000 18.309
81.70000 25.516
81.72000 24.705
81.74000 19.695
81.76000 24.015
81.78000 22.476
81.80000 18.461
81.82000 20.873
81.84000 20.742
81.86000 20.376
81.88000 24.459
81.90000 21.752
81.92000 18.735
81.94000 29.454
81.96000 35.122
81.98000 32.908
82.00000 29.150
82.02000 24.249
82.04000 20.729
82.06000 21.348
82.08000 25.443
82.10000 25.641
82.12000 26.057
82.14000 24.845
82.16000 27.587
82.18000 23.369
82.20000 21.800
82.22000 25.845
82.24000 22.486
82.26000 24.921
82.28000 31.573
82.30000 31.711
82.32000 24.290
82.34000 24.152
82.36000 21.714
82.38000 20.472
82.40000 21.640
82.42000 21.618
82.44000 27.553
82.46000 16.883
82.48000 17.848
82.50000 23.549
82.52000 27.285
82.54000 29.705
82.56000 29.240
82.58000 29.508
82.60000 28.562
82.62000 25.175
82.64000 21.402
82.66000 15.305
82.68000 19.827
82.70000 22.546
82.72000 15.380
82.74000 17.604
82.76000 19.230
82.78000 19.783
82.80000 21.753
82.82000 16.290
82.84000 21.842
82.86000 17.203
82.88000 18.527
82.90000 19.608
82.92000 21.037
82.94000 18.325
82.96000 18.362
82.98000 12.921
83.00000 13.721
83.02000 16.638
83.04000 17.318
83.06000 16.240
83.08000 19.717
83.10000 11.485
83.12000 8.960
83.14000 10.401
83.16000 12.725
83.18000 13.767
83.20000 17.081
83.22000 12.656
83.24000 10.590
83.26000 11.415
83.28000 9.466
83.30000 10.124
83.32000 8.478
83.34000 5.324
83.36000 12.028
83.38000 12.689
83.40000 11.945
83.42000 8.475
83.44000 2.539
83.46000 -2.767
83.48000 1.445
83.50000 8.229
83.52000 7.686
83.54000 3.056
83.56000 6.434
83.58000 7.415
83.60000 6.676
83.62000 6.330
83.64000 2.660
83.66000 4.726
83.68000 10.768
83.70000 8.747
83.72000 3.211
83.74000 0.053
83.76000 -0.772
83.78000 -0.190
83.80000 3.964
83.82000 2.691
83.84000 4.228
83.86000 -0.495
83.88000 -0.003
83.90000 7.685
83.92000 4.940
83.94000 10.252
83.96000 6.247
83.98000 0.693
84.00000 -2.226
84.02000 2.269
84.04000 4.042
84.06000 4.295
84.08000 3.839
84.10000 1.839
84.12000 -2.482
84.14000 -2.166
84.16000 -0.892
84.18000 1.278
84.20000 5.396
84.22000 -2.179
84.24000 -2.754
84.26000 1.484
84.28000 0.696
84.30000 -1.105
84.32000 2.014
84.34000 1.150
84.36000 -0.404
84.38000 3.162
84.40000 3.894
84.42000 3.715
84.44000 0.633
84.46000 -0.052
84.48000 -2.763
84.50000 2.185
84.52000 1.018
84.54000 2.785
84.56000 7.522
84.58000 3.242
84.60000 1.940
84.62000 -2.119
84.64000 -1.139
84.66000 2.373
84.68000 4.652
84.70000 4.257
84.72000 -1.773
84.74000 1.708
84.76000 -0.716
84.78000 -0.276
84.80000 -1.301
84.82000 -0.138
84.84000 -0.316
84.86000 5.883
84.88000 2.495
84.90000 3.376
84.92000 4.671
84.94000 4.392
84.96000 1.947
84.98000 3.227
85.00000 -2.407
85.02000 -0.789
85.04000 2.501
85.06000 3.444
85.08000 3.914
85.10000 6.212
85.12000 5.742
85.14000 9.367
85.16000 4.514
85.18000 3.125
85.20000 3.139
85.22000 4.861
85.24000 5.084
85.26000 0.962
85.28000 4.565
85.30000 1.848
85.32000 6.781
85.34000 8.477
85.36000 14.761
85.38000 11.125
85.40000 11.575
85.42000 8.679
85.44000 1.873
85.46000 1.941
85.48000 4.104
85.50000 6.666
85.52000 12.731
85.54000 9.813
85.56000 10.037
85.58000 11.121
85.60000 16.765
85.62000 15.157
85.64000 15.304
85.66000 15.414
85.68000 10.879
85.70000 12.654
85.72000 13.608
85.74000 10.285
85.76000 18.507
85.78000 20.029
85.80000 20.741
85.82000 21.789
85.84000 25.666
85.86000 21.888
85.88000 17.677
85.90000 23.354
85.92000 25.166
85.94000 24.035
85.96000 30.182
85.98000 32.340
86.00000 30.501
86.02000 24.449
86.04000 26.292
86.06000 25.550
86.08000 28.760
86.10000 29.960
86.12000 33.616
86.14000 35.204
86.16000 31.600
86.18000 33.926
86.20000 30.904
86.22000 36.611
86.24000 34.071
86.26000 31.776
86.28000 34.465
86.30000 36.862
86.32000 34.060
86.34000 29.938
86.36000 32.066
86.38000 40.914
86.40000 39.891
86.42000 36.384
86.44000 33.403
86.46000 29.908
86.48000 29.143
86.50000 33.373
86.52000 35.003
86.54000 38.072
86.56000 30.620
86.58000 33.481
86.60000 39.123
86.62000 43.363
86.64000 40.554
86.66000 36.648
86.68000 29.815
86.70000 30.609
86.72000 28.366
86.74000 29.967
86.76000 31.444
86.78000 31.849
86.80000 28.941
86.82000 31.320
86.84000 27.919
86.86000 41.256
86.88000 37.577
86.90000 29.031
86.92000 28.000
86.94000 27.886
86.96000 22.284
86.98000 16.872
87.00000 20.105
87.02000 20.761
87.04000 19.143
87.06000 16.663
87.08000 12.732
87.10000 19.425
87.12000 23.176
87.14000 18.381
87.16000 22.051
87.18000 17.805
87.20000 18.477
87.22000 15.559
87.24000 15.745
87.26000 17.348
87.28000 19.845
87.30000 19.646
87.32000 11.509
87.34000 7.751
87.36000 13.736
87.38000 10.990
87.40000 10.394
87.42000 13.873
87.44000 14.378
87.46000 8.295
87.48000 8.591
87.50000 11.254
87.52000 12.641
87.54000 13.641
87.56000 11.206
87.58000 9.001
87.60000 5.871
87.62000 3.854
87.64000 5.281
87.66000 2.558
87.68000 5.796
87.70000 2.746
87.72000 2.801
87.74000 2.243
87.76000 -0.366
87.78000 3.311
87.80000 0.118
87.82000 1.623
87.84000 0.784
87.86000 8.686
87.88000 7.238
87.90000 0.156
87.92000 2.709
87.94000 7.868
87.96000 6.997
87.98000 0.589
88.00000 1.182
88.02000 0.067
88.04000 -1.644
88.06000 2.414
88.08000 0.955
88.10000 1.539
88.12000 1.882
88.14000 0.444
88.16000 0.356
88.18000 2.937
88.20000 1.124
88.22000 -0.400
88.24000 -2.492
88.26000 -2.558
88.28000 -2.170
88.30000 0.838
88.32000 -1.454
88.34000 1.710
88.36000 2.991
88.38000 -1.918
88.40000 0.759
88.42000 1.481
88.44000 -2.526
88.46000 0.277
88.48000 3.447
88.50000 2.192
88.52000 2.903
88.54000 1.708
88.56000 2.017
88.58000 2.418
88.60000 2.059
88.62000 -0.875
88.64000 3.684
88.66000 0.818
88.68000 1.458
88.70000 -2.494
88.72000 3.301
88.74000 4.232
88.76000 5.108
88.78000 0.359
88.80000 1.245
88.82000 0.596
88.84000 -0.741
88.86000 0.495
88.88000 1.921
88.90000 6.903
88.92000 6.694
88.94000 3.413
88.96000 -1.730
88.98000 -2.471
89.00000 -2.444
89.02000 -0.952
89.04000 3.334
89.06000 5.657
89.08000 3.359
89.10000 1.696
89.12000 -0.691
89.14000 1.527
89.16000 0.692
89.18000 2.422
89.20000 3.894
89.22000 2.221
89.24000 2.616
89.26000 3.242
89.28000 -0.114
89.30000 3.382
89.32000 4.823
89.34000 0.840
89.36000 3.194
89.38000 5.017
89.40000 5.436
89.42000 6.810
89.44000 5.397
89.46000 0.083
89.48000 1.731
89.50000 2.300
89.52000 4.069
89.54000 5.127
89.56000 2.606
89.58000 1.827
89.60000 6.433
89.62000 5.280
89.64000 5.852
89.66000 3.722
89.68000 4.035
89.70000 6.650
89.72000 4.641
89.74000 4.713
89.76000 1.849
89.78000 3.843
89.80000 10.431
89.82000 2.803
89.84000 4.784
89.86000 6.484
89.88000 9.793
89.90000 3.362
89.92000 5.153
89.94000 3.758
89.96000 1.652
89.98000 3.886
90.00000 4.694
90.02000 3.504
90.04000 0.036
90.06000 -2.352
90.08000 1.856
90.10000 6.186
90.12000 7.451
90.14000 6.024
90.16000 8.818
90.18000 4.541
90.20000 9.356
90.22000 3.929
90.24000 3.959
90.26000 2.994
90.28000 4.920
90.30000 3.309
90.32000 1.527
90.34000 0.943
90.36000 2.665
90.38000 -1.630
90.40000 -0.927
90.42000 9.667
90.44000 6.144
90.46000 6.417
90.48000 6.532
90.50000 3.794
90.52000 5.333
90.54000 10.227
90.56000 4.593
90.58000 2.965
90.60000 6.858
90.62000 7.313
90.64000 5.394
90.66000 -2.087
90.68000 -1.421
90.70000 3.982
90.72000 3.546
90.74000 6.997
90.76000 6.585
90.78000 4.830
90.80000 6.046
90.82000 9.240
90.84000 6.823
90.86000 1.082
90.88000 4.352
90.90000 5.000
90.92000 3.641
90.94000 3.156
90.96000 -1.132
90.98000 -0.685
91.00000 1.612
91.02000 6.710
91.04000 5.321
91.06000 3.002
91.08000 5.810
91.10000 5.514
91.12000 4.707
91.14000 6.840
91.16000 12.893
91.18000 12.149
91.20000 4.835
91.22000 3.821
91.24000 5.392
91.26000 3.010
91.28000 7.251
91.30000 9.529
91.32000 1.850
91.34000 5.039
91.36000 12.729
91.38000 8.504
91.40000 4.798
91.42000 3.199
91.44000 5.230
91.46000 3.103
91.48000 -2.340
91.50000 4.426
91.52000 6.643
91.54000 7.264
91.56000 10.138
91.58000 7.559
91.60000 2.896
91.62000 2.403
91.64000 8.040
91.66000 6.715
91.68000 5.113
91.70000 2.247
91.72000 1.937
91.74000 1.930
91.76000 8.375
91.78000 5.901
91.80000 2.661
91.82000 3.510
91.84000 7.537
91.86000 6.167
91.88000 5.598
91.90000 6.572
91.92000 6.285
91.94000 5.745
91.96000 5.537
91.98000 8.724
92.00000 4.852
92.02000 2.571
92.04000 2.029
92.06000 2.634
92.08000 6.984
92.10000 4.302
92.12000 9.288
92.14000 5.433
92.16000 7.825
92.18000 5.398
92.20000 4.455
92.22000 3.095
92.24000 2.452
92.26000 -2.128
92.28000 -0.793
92.30000 0.073
92.32000 3.763
92.34000 5.090
92.36000 4.020
92.38000 2.476
92.40000 9.492
92.42000 12.354
92.44000 8.006
92.46000 2.445
92.48000 2.727
92.50000 2.964
92.52000 1.208
92.54000 9.676
92.56000 8.985
92.58000 2.218
92.60000 3.352
92.62000 7.415
92.64000 5.879
92.66000 1.110
92.68000 0.242
92.70000 3.933
92.72000 7.238
92.74000 1.735
92.76000 1.173
92.78000 8.965
92.80000 2.324
92.82000 5.138
92.84000 6.948
92.86000 3.775
92.88000 -2.360
92.90000 -1.485
92.92000 1.295
92.94000 4.404
92.96000 8.788
92.98000 8.621
93.00000 9.772
93.02000 7.688
93.04000 5.490
93.06000 5.806
93.08000 4.129
93.10000 5.166
93.12000 6.041
93.14000 5.242
93.16000 -0.755
93.18000 8.802
93.20000 10.639
93.22000 3.472
93.24000 -0.644
93.26000 7.618
93.28000 7.320
93.30000 4.205
93.32000 -1.727
93.34000 0.354
93.36000 3.514
93.38000 -0.464
93.40000 2.609
93.42000 3.339
93.44000 7.805
93.46000 -0.619
93.48000 -0.980
93.50000 3.390
93.52000 4.392
93.54000 5.954
93.56000 7.803
93.58000 3.388
93.60000 1.353
93.62000 -0.983
93.64000 1.864
93.66000 -0.204
93.68000 0.840
93.70000 2.357
93.72000 5.295
93.74000 7.285
93.76000 6.507
93.78000 7.758
93.80000 1.693
93.82000 6.555
93.84000 6.848
93.86000 2.320
93.88000 2.181
93.90000 3.165
93.92000 3.722
93.94000 4.186
93.96000 4.484
93.98000 7.873
94.00000 5.545
94.02000 5.140
94.04000 6.633
94.06000 6.366
94.08000 1.019
94.10000 3.720
94.12000 8.150
94.14000 5.586
94.16000 2.392
94.18000 5.904
94.20000 -2.394
94.22000 -0.705
94.24000 6.524
94.26000 6.511
94.28000 6.378
94.30000 10.579
94.32000 9.088
94.34000 2.798
94.36000 3.854
94.38000 0.866
94.40000 2.553
94.42000 1.108
94.44000 4.380
94.46000 5.484
94.48000 7.105
94.50000 7.300
94.52000 4.807
94.54000 3.704
94.56000 7.498
94.58000 5.637
94.60000 0.837
94.62000 4.463
94.64000 6.077
94.66000 1.258
94.68000 -2.404
94.70000 6.024
94.72000 6.896
94.74000 -0.016
94.76000 4.865
94.78000 8.814
94.80000 7.876
94.82000 0.925
94.84000 1.096
94.86000 2.902
94.88000 3.074
94.90000 2.719
94.92000 4.430
94.94000 5.632
94.96000 4.205
94.98000 3.682
95.00000 4.923
95.02000 4.527
95.04000 2.327
95.06000 4.801
95.08000 4.805
95.10000 0.524
95.12000 5.119
95.14000 6.230
95.16000 3.208
95.18000 3.203
95.20000 -2.109
95.22000 3.300
95.24000 6.042
95.26000 6.560
95.28000 6.562
95.30000 12.760
95.32000 5.666
95.34000 5.322
95.36000 4.977
95.38000 2.908
95.40000 3.943
95.42000 7.592
95.44000 6.629
95.46000 2.905
95.48000 8.380
95.50000 8.388
95.52000 5.446
95.54000 5.168
95.56000 5.268
95.58000 7.058
95.60000 6.243
95.62000 -0.209
95.64000 3.986
95.66000 7.276
95.68000 7.513
95.70000 1.162
95.72000 3.897
95.74000 7.664
95.76000 6.707
95.78000 6.381
95.80000 8.294
95.82000 5.054
95.84000 -2.354
95.86000 5.535
95.88000 4.560
95.90000 7.779
95.92000 6.937
95.94000 2.899
95.96000 3.090
95.98000 2.711
96.00000 2.296
96.02000 1.914
96.04000 4.419
96.06000 5.443
96.08000 6.881
96.10000 1.826
96.12000 3.244
96.14000 8.225
96.16000 10.253
96.18000 10.504
96.20000 12.862
96.22000 9.469
96.24000 9.769
96.26000 2.120
96.28000 2.833
96.30000 7.378
96.32000 -2.197
96.34000 3.050
96.36000 1.150
96.38000 7.166
96.40000 8.829
96.42000 11.793
96.44000 9.424
96.46000 1.950
96.48000 3.124
96.50000 8.221
96.52000 14.133
96.54000 6.877
96.56000 5.552
96.58000 6.103
96.60000 4.778
96.62000 8.243
96.64000 6.441
96.66000 3.598
96.68000 4.285
96.70000 6.029
96.72000 5.569
96.74000 5.429
96.76000 1.592
96.78000 2.891
96.80000 4.212
96.82000 2.801
96.84000 7.240
96.86000 3.321
96.88000 -0.688
96.90000 10.351
96.92000 6.227
96.94000 5.848
96.96000 10.365
96.98000 7.387
97.00000 7.475
97.02000 12.016
97.04000 9.050
97.06000 7.328
97.08000 8.315
97.10000 -0.719
97.12000 1.742
97.14000 11.657
97.16000 12.800
97.18000 11.834
97.20000 10.537
97.22000 9.660
97.24000 6.568
97.26000 1.942
97.28000 1.567
97.30000 5.406
97.32000 -2.371
97.34000 -0.736
97.36000 5.169
97.38000 4.954
97.40000 11.577
97.42000 8.407
97.44000 6.505
97.46000 4.799
97.48000 6.312
97.50000 -0.195
97.52000 1.781
97.54000 6.691
97.56000 9.419
97.58000 10.266
97.60000 9.341
97.62000 4.442
97.64000 7.672
97.66000 12.183
97.68000 14.425
97.70000 12.146
97.72000 9.199
97.74000 6.157
97.76000 12.579
97.78000 7.070
97.80000 2.257
97.82000 4.858
97.84000 1.562
97.86000 5.455
97.88000 12.564
97.90000 7.126
97.92000 4.037
97.94000 2.931
97.96000 1.526
97.98000 1.651
98.00000 -1.370
98.02000 4.080
98.04000 10.100
98.06000 11.410
98.08000 6.276
98.10000 5.216
98.12000 1.926
98.14000 -3.047
98.16000 12.023
98.18000 15.619
98.20000 9.003
98.22000 1.571
98.24000 1.506
98.26000 3.705
98.28000 7.721
98.30000 10.594
98.32000 6.820
98.34000 6.944
98.36000 8.795
98.38000 4.993
98.40000 8.044
98.42000 6.001
98.44000 11.855
98.46000 8.106
98.48000 9.830
98.50000 14.642
98.52000 9.310
98.54000 -2.692
98.56000 5.911
98.58000 10.850
98.60000 7.995
98.62000 5.976
98.64000 7.135
98.66000 -1.614
98.68000 9.362
98.70000 19.424
98.72000 6.837
98.74000 8.610
98.76000 8.026
98.78000 13.195
98.80000 19.403
98.82000 15.175
98.84000 20.406
98.86000 14.112
98.88000 15.578
98.90000 10.365
98.92000 5.780
98.94000 7.500
98.96000 7.607
98.98000 3.703
99.00000 -2.291
99.02000 4.709
99.04000 2.233
99.06000 5.145
99.08000 11.132
99.10000 16.962
99.12000 13.073
99.14000 12.926
99.16000 5.472
99.18000 8.239
99.20000 1.632
99.22000 5.435
99.24000 9.532
99.26000 13.767
99.28000 2.338
99.30000 5.203
99.32000 4.707
99.34000 2.540
99.36000 3.826
99.38000 10.592
99.40000 4.241
99.42000 5.048
99.44000 7.083
99.46000 -1.545
99.48000 8.553
99.50000 11.022
99.52000 5.111
99.54000 2.945
99.56000 2.206
99.58000 10.954
99.60000 11.000
99.62000 5.029
99.64000 14.388
99.66000 18.086
99.68000 10.083
99.70000 3.529
99.72000 12.208
99.74000 9.034
99.76000 13.775
99.78000 19.357
99.80000 8.534
99.82000 0.677
99.84000 10.596
99.86000 5.018
99.88000 1.915
99.90000 1.309
99.92000 4.952
99.94000 4.218
99.96000 -2.391
99.98000 0.000
