'Id: "0011389" Comment: "Integrate frame 0011389_Au-Ir-Rh_Au-Rich_XRD_Mapping-103-0000.gfrmwith cursor Wedge Cursor #5" Operator: "B?rgel" Anode: "Cu" Wavelength: "1.5406" Scantype: "2Theta (TwoTheta)" TimePerStep: "1" X: "-4.5" Y: "-13.5" Z: "5.95" 
10.00000 0.000
10.02000 1.396
10.04000 8.736
10.06000 1.475
10.08000 -4.174
10.10000 15.412
10.12000 16.637
10.14000 21.572
10.16000 19.206
10.18000 10.702
10.20000 -4.133
10.22000 8.748
10.24000 27.515
10.26000 17.633
10.28000 18.281
10.30000 24.716
10.32000 17.653
10.34000 11.799
10.36000 18.911
10.38000 27.491
10.40000 32.624
10.42000 25.639
10.44000 8.987
10.46000 -5.698
10.48000 11.258
10.50000 25.527
10.52000 30.769
10.54000 20.460
10.56000 9.286
10.58000 26.946
10.60000 29.528
10.62000 33.001
10.64000 7.164
10.66000 -4.286
10.68000 13.634
10.70000 22.173
10.72000 4.444
10.74000 16.338
10.76000 21.934
10.78000 21.794
10.80000 24.074
10.82000 18.397
10.84000 17.795
10.86000 25.267
10.88000 13.083
10.90000 18.649
10.92000 13.194
10.94000 11.563
10.96000 23.605
10.98000 21.566
11.00000 6.978
11.02000 3.521
11.04000 7.292
11.06000 15.457
11.08000 25.921
11.10000 20.692
11.12000 8.586
11.14000 1.094
11.16000 1.263
11.18000 5.613
11.20000 22.900
11.22000 29.462
11.24000 25.390
11.26000 26.381
11.28000 31.821
11.30000 17.279
11.32000 5.077
11.34000 5.859
11.36000 5.715
11.38000 9.069
11.40000 7.321
11.42000 19.147
11.44000 23.394
11.46000 18.181
11.48000 17.980
11.50000 15.630
11.52000 18.032
11.54000 10.346
11.56000 20.343
11.58000 10.536
11.60000 8.901
11.62000 23.512
11.64000 21.813
11.66000 18.660
11.68000 23.235
11.70000 12.720
11.72000 14.597
11.74000 23.910
11.76000 26.000
11.78000 20.864
11.80000 12.682
11.82000 8.284
11.84000 19.325
11.86000 16.838
11.88000 14.730
11.90000 19.707
11.92000 0.576
11.94000 5.042
11.96000 13.648
11.98000 18.415
12.00000 15.799
12.02000 18.741
12.04000 16.992
12.06000 11.921
12.08000 20.794
12.10000 24.758
12.12000 25.042
12.14000 14.408
12.16000 15.448
12.18000 15.191
12.20000 4.313
12.22000 3.705
12.24000 19.247
12.26000 14.183
12.28000 6.638
12.30000 11.219
12.32000 15.425
12.34000 18.094
12.36000 18.595
12.38000 15.364
12.40000 15.076
12.42000 15.402
12.44000 24.144
12.46000 10.949
12.48000 15.775
12.50000 17.612
12.52000 23.949
12.54000 25.358
12.56000 21.575
12.58000 20.672
12.60000 14.830
12.62000 3.700
12.64000 2.280
12.66000 10.512
12.68000 10.595
12.70000 19.497
12.72000 20.348
12.74000 14.241
12.76000 11.038
12.78000 13.313
12.80000 16.121
12.82000 10.899
12.84000 17.164
12.86000 16.350
12.88000 9.931
12.90000 6.295
12.92000 2.601
12.94000 13.429
12.96000 14.484
12.98000 18.915
13.00000 25.425
13.02000 13.688
13.04000 2.722
13.06000 1.868
13.08000 6.333
13.10000 2.914
13.12000 12.163
13.14000 18.121
13.16000 19.408
13.18000 13.924
13.20000 19.352
13.22000 17.206
13.24000 7.262
13.26000 13.928
13.28000 13.886
13.30000 13.396
13.32000 17.723
13.34000 21.517
13.36000 15.840
13.38000 15.019
13.40000 12.436
13.42000 1.705
13.44000 -0.874
13.46000 10.029
13.48000 4.681
13.50000 11.301
13.52000 8.796
13.54000 0.992
13.56000 2.292
13.58000 17.989
13.60000 19.671
13.62000 21.275
13.64000 25.037
13.66000 14.254
13.68000 4.761
13.70000 10.700
13.72000 12.658
13.74000 17.872
13.76000 24.971
13.78000 15.482
13.80000 5.313
13.82000 5.964
13.84000 9.313
13.86000 11.968
13.88000 9.945
13.90000 11.706
13.92000 15.088
13.94000 5.372
13.96000 4.362
13.98000 -3.516
14.00000 4.802
14.02000 15.836
14.04000 6.378
14.06000 1.138
14.08000 4.852
14.10000 13.098
14.12000 10.538
14.14000 5.420
14.16000 2.411
14.18000 12.751
14.20000 6.744
14.22000 11.616
14.24000 17.588
14.26000 15.230
14.28000 8.075
14.30000 -3.070
14.32000 1.632
14.34000 14.192
14.36000 14.070
14.38000 14.582
14.40000 8.453
14.42000 0.607
14.44000 4.917
14.46000 9.521
14.48000 7.094
14.50000 17.185
14.52000 13.532
14.54000 8.557
14.56000 12.677
14.58000 -1.457
14.60000 2.493
14.62000 3.971
14.64000 4.551
14.66000 9.822
14.68000 13.891
14.70000 9.722
14.72000 10.464
14.74000 2.873
14.76000 4.893
14.78000 10.440
14.80000 16.818
14.82000 22.767
14.84000 13.336
14.86000 6.683
14.88000 9.928
14.90000 8.518
14.92000 18.170
14.94000 22.073
14.96000 13.405
14.98000 7.666
15.00000 10.414
15.02000 13.731
15.04000 13.808
15.06000 13.882
15.08000 12.581
15.10000 12.129
15.12000 10.347
15.14000 1.805
15.16000 6.531
15.18000 11.279
15.20000 1.687
15.22000 2.808
15.24000 11.456
15.26000 17.708
15.28000 10.965
15.30000 7.086
15.32000 2.701
15.34000 -0.884
15.36000 0.973
15.38000 -1.452
15.40000 -0.919
15.42000 -0.037
15.44000 -1.504
15.46000 8.221
15.48000 12.434
15.50000 8.692
15.52000 5.235
15.54000 -0.156
15.56000 1.617
15.58000 6.768
15.60000 14.512
15.62000 12.870
15.64000 9.214
15.66000 5.476
15.68000 0.309
15.70000 6.846
15.72000 7.894
15.74000 9.547
15.76000 7.159
15.78000 16.792
15.80000 26.238
15.82000 14.160
15.84000 6.574
15.86000 6.558
15.88000 16.216
15.90000 6.894
15.92000 -4.424
15.94000 -2.806
15.96000 0.411
15.98000 12.687
16.00000 9.695
16.02000 8.901
16.04000 9.142
16.06000 11.811
16.08000 13.541
16.10000 6.682
16.12000 3.356
16.14000 1.757
16.16000 3.638
16.18000 8.496
16.20000 18.543
16.22000 9.187
16.24000 7.899
16.26000 2.066
16.28000 -4.105
16.30000 0.568
16.32000 6.678
16.34000 -1.387
16.36000 -1.184
16.38000 1.578
16.40000 13.808
16.42000 8.729
16.44000 3.310
16.46000 6.420
16.48000 13.389
16.50000 9.015
16.52000 9.085
16.54000 5.848
16.56000 1.574
16.58000 8.876
16.60000 7.279
16.62000 6.966
16.64000 -4.400
16.66000 -0.290
16.68000 13.927
16.70000 11.929
16.72000 7.112
16.74000 11.221
16.76000 6.731
16.78000 5.884
16.80000 9.398
16.82000 0.792
16.84000 2.502
16.86000 5.234
16.88000 -4.387
16.90000 -2.241
16.92000 7.359
16.94000 11.463
16.96000 4.023
16.98000 1.183
17.00000 6.393
17.02000 5.226
17.04000 -0.798
17.06000 4.535
17.08000 13.184
17.10000 16.854
17.12000 9.115
17.14000 4.761
17.16000 6.975
17.18000 5.985
17.20000 5.775
17.22000 7.659
17.24000 7.476
17.26000 6.440
17.28000 0.632
17.30000 7.638
17.32000 9.610
17.34000 6.360
17.36000 10.313
17.38000 4.039
17.40000 6.005
17.42000 6.481
17.44000 7.467
17.46000 3.728
17.48000 4.126
17.50000 4.961
17.52000 7.586
17.54000 7.573
17.56000 11.414
17.58000 10.049
17.60000 5.713
17.62000 0.065
17.64000 7.469
17.66000 12.851
17.68000 18.407
17.70000 7.266
17.72000 -4.351
17.74000 -1.387
17.76000 5.349
17.78000 9.944
17.80000 2.930
17.82000 -2.845
17.84000 3.606
17.86000 9.995
17.88000 9.099
17.90000 8.417
17.92000 5.834
17.94000 -0.009
17.96000 3.968
17.98000 3.396
18.00000 6.936
18.02000 10.718
18.04000 6.824
18.06000 4.221
18.08000 5.202
18.10000 -1.036
18.12000 0.396
18.14000 5.437
18.16000 0.591
18.18000 7.228
18.20000 1.317
18.22000 -3.626
18.24000 -4.334
18.26000 5.547
18.28000 1.398
18.30000 9.723
18.32000 9.835
18.34000 9.256
18.36000 17.653
18.38000 7.112
18.40000 3.034
18.42000 7.094
18.44000 0.559
18.46000 -0.751
18.48000 3.420
18.50000 6.573
18.52000 4.065
18.54000 -0.708
18.56000 -0.244
18.58000 -1.472
18.60000 -2.312
18.62000 2.548
18.64000 2.748
18.66000 6.814
18.68000 10.581
18.70000 7.434
18.72000 3.704
18.74000 -0.220
18.76000 1.383
18.78000 4.850
18.80000 1.610
18.82000 0.750
18.84000 -1.457
18.86000 -1.573
18.88000 -0.711
18.90000 -0.903
18.92000 -2.212
18.94000 3.724
18.96000 3.427
18.98000 0.538
19.00000 4.709
19.02000 -0.809
19.04000 -2.441
19.06000 2.027
19.08000 2.035
19.10000 -1.991
19.12000 1.299
19.14000 1.794
19.16000 1.849
19.18000 3.280
19.20000 -2.981
19.22000 -1.359
19.24000 -1.247
19.26000 1.746
19.28000 5.817
19.30000 1.735
19.32000 -3.092
19.34000 3.722
19.36000 0.064
19.38000 1.367
19.40000 6.496
19.42000 5.228
19.44000 9.794
19.46000 7.897
19.48000 -1.027
19.50000 3.610
19.52000 2.855
19.54000 -4.248
19.56000 -2.724
19.58000 -0.926
19.60000 -0.587
19.62000 0.720
19.64000 1.267
19.66000 -1.795
19.68000 -0.404
19.70000 -0.916
19.72000 6.599
19.74000 0.881
19.76000 1.280
19.78000 3.235
19.80000 2.264
19.82000 1.071
19.84000 5.316
19.86000 2.411
19.88000 3.069
19.90000 0.797
19.92000 5.061
19.94000 8.056
19.96000 5.749
19.98000 0.180
20.00000 -0.353
20.02000 6.650
20.04000 6.723
20.06000 2.791
20.08000 2.501
20.10000 -4.217
20.12000 1.042
20.14000 -2.477
20.16000 1.776
20.18000 5.883
20.20000 7.024
20.22000 6.072
20.24000 1.846
20.26000 3.664
20.28000 4.019
20.30000 6.592
20.32000 6.737
20.34000 -2.312
20.36000 6.070
20.38000 4.799
20.40000 -1.609
20.42000 7.123
20.44000 5.383
20.46000 3.597
20.48000 2.514
20.50000 -2.022
20.52000 -3.305
20.54000 -0.064
20.56000 2.363
20.58000 6.579
20.60000 1.992
20.62000 -2.455
20.64000 0.987
20.66000 1.893
20.68000 4.739
20.70000 6.337
20.72000 4.233
20.74000 13.704
20.76000 6.986
20.78000 3.158
20.80000 6.048
20.82000 7.267
20.84000 3.095
20.86000 5.603
20.88000 0.212
20.90000 3.145
20.92000 0.685
20.94000 0.404
20.96000 5.488
20.98000 5.880
21.00000 4.512
21.02000 3.978
21.04000 5.577
21.06000 2.563
21.08000 -4.137
21.10000 0.646
21.12000 6.809
21.14000 8.284
21.16000 7.400
21.18000 10.982
21.20000 4.327
21.22000 -1.538
21.24000 3.819
21.26000 11.726
21.28000 9.223
21.30000 5.770
21.32000 6.667
21.34000 2.966
21.36000 6.453
21.38000 9.656
21.40000 9.189
21.42000 7.343
21.44000 1.812
21.46000 4.235
21.48000 8.829
21.50000 14.198
21.52000 13.352
21.54000 7.206
21.56000 5.492
21.58000 7.062
21.60000 8.908
21.62000 11.063
21.64000 4.902
21.66000 3.150
21.68000 -1.507
21.70000 5.105
21.72000 5.108
21.74000 1.354
21.76000 3.421
21.78000 -0.751
21.80000 -0.765
21.82000 3.142
21.84000 4.072
21.86000 1.185
21.88000 1.993
21.90000 1.750
21.92000 6.397
21.94000 1.797
21.96000 0.336
21.98000 0.413
22.00000 1.478
22.02000 -0.511
22.04000 2.097
22.06000 4.241
22.08000 1.213
22.10000 2.810
22.12000 3.187
22.14000 5.821
22.16000 4.190
22.18000 0.566
22.20000 -0.671
22.22000 4.319
22.24000 9.332
22.26000 8.232
22.28000 5.638
22.30000 4.370
22.32000 4.354
22.34000 4.683
22.36000 4.720
22.38000 -2.034
22.40000 -1.586
22.42000 -2.521
22.44000 -1.576
22.46000 -0.921
22.48000 5.729
22.50000 5.753
22.52000 -1.414
22.54000 -1.405
22.56000 6.514
22.58000 2.358
22.60000 0.911
22.62000 2.724
22.64000 -0.491
22.66000 5.493
22.68000 5.161
22.70000 8.255
22.72000 2.873
22.74000 1.304
22.76000 0.860
22.78000 -1.046
22.80000 -0.884
22.82000 -1.153
22.84000 1.866
22.86000 -3.513
22.88000 0.492
22.90000 5.666
22.92000 4.397
22.94000 0.034
22.96000 3.556
22.98000 4.271
23.00000 5.265
23.02000 2.942
23.04000 0.294
23.06000 -4.065
23.08000 -4.062
23.10000 5.108
23.12000 10.032
23.14000 5.227
23.16000 0.078
23.18000 -0.320
23.20000 -1.920
23.22000 -3.454
23.24000 -0.233
23.26000 -0.392
23.28000 0.503
23.30000 0.369
23.32000 -2.687
23.34000 -2.908
23.36000 3.348
23.38000 10.162
23.40000 5.785
23.42000 2.749
23.44000 -3.254
23.46000 -2.857
23.48000 0.392
23.50000 8.294
23.52000 8.284
23.54000 -1.417
23.56000 -1.566
23.58000 2.036
23.60000 -0.556
23.62000 -1.910
23.64000 0.391
23.66000 -1.236
23.68000 -3.064
23.70000 -3.597
23.72000 -0.271
23.74000 1.815
23.76000 -4.014
23.78000 -0.725
23.80000 7.764
23.82000 8.729
23.84000 5.148
23.86000 4.458
23.88000 2.635
23.90000 -0.440
23.92000 1.638
23.94000 -3.621
23.96000 -1.325
23.98000 6.667
24.00000 1.087
24.02000 -0.660
24.04000 0.963
24.06000 4.382
24.08000 1.717
24.10000 0.781
24.12000 1.671
24.14000 0.717
24.16000 4.656
24.18000 12.138
24.20000 9.845
24.22000 10.251
24.24000 3.032
24.26000 3.266
24.28000 4.580
24.30000 4.287
24.32000 5.129
24.34000 7.298
24.36000 2.243
24.38000 1.892
24.40000 4.546
24.42000 6.105
24.44000 9.848
24.46000 7.246
24.48000 3.833
24.50000 1.279
24.52000 -0.654
24.54000 0.739
24.56000 -1.029
24.58000 -3.542
24.60000 1.846
24.62000 2.628
24.64000 6.753
24.66000 6.790
24.68000 2.616
24.70000 5.128
24.72000 9.172
24.74000 0.597
24.76000 -1.115
24.78000 1.176
24.80000 1.786
24.82000 -1.497
24.84000 2.117
24.86000 3.656
24.88000 -1.044
24.90000 -1.335
24.92000 -3.955
24.94000 2.282
24.96000 2.532
24.98000 2.388
25.00000 2.514
25.02000 5.186
25.04000 -0.527
25.06000 3.374
25.08000 3.399
25.10000 5.917
25.12000 3.378
25.14000 4.218
25.16000 5.218
25.18000 4.192
25.20000 -3.942
25.22000 -0.234
25.24000 2.052
25.26000 -1.306
25.28000 2.098
25.30000 1.549
25.32000 2.141
25.34000 4.540
25.36000 6.630
25.38000 2.452
25.40000 0.042
25.42000 5.270
25.44000 1.924
25.46000 -0.104
25.48000 1.585
25.50000 2.656
25.52000 0.613
25.54000 -0.827
25.56000 1.437
25.58000 4.589
25.60000 4.762
25.62000 1.097
25.64000 4.050
25.66000 7.390
25.68000 7.572
25.70000 0.011
25.72000 -1.232
25.74000 3.578
25.76000 1.975
25.78000 1.612
25.80000 0.970
25.82000 -2.909
25.84000 0.763
25.86000 4.380
25.88000 2.271
25.90000 1.571
25.92000 0.275
25.94000 0.504
25.96000 -1.686
25.98000 -3.902
26.00000 1.173
26.02000 1.328
26.04000 1.319
26.06000 3.173
26.08000 5.680
26.10000 6.777
26.12000 -0.550
26.14000 2.964
26.16000 11.723
26.18000 4.822
26.20000 -2.934
26.22000 2.646
26.24000 0.298
26.26000 2.992
26.28000 -1.086
26.30000 -1.058
26.32000 -0.612
26.34000 1.737
26.36000 1.676
26.38000 2.627
26.40000 -0.078
26.42000 4.448
26.44000 2.770
26.46000 5.067
26.48000 7.197
26.50000 1.301
26.52000 4.677
26.54000 3.243
26.56000 2.449
26.58000 4.720
26.60000 7.207
26.62000 7.087
26.64000 5.848
26.66000 4.030
26.68000 3.076
26.70000 1.075
26.72000 1.712
26.74000 0.019
26.76000 0.435
26.78000 5.336
26.80000 3.109
26.82000 1.536
26.84000 1.715
26.86000 5.489
26.88000 4.409
26.90000 3.669
26.92000 2.962
26.94000 1.147
26.96000 0.382
26.98000 2.934
27.00000 4.932
27.02000 2.546
27.04000 5.448
27.06000 7.691
27.08000 1.852
27.10000 4.254
27.12000 5.240
27.14000 5.898
27.16000 6.146
27.18000 4.793
27.20000 3.890
27.22000 2.785
27.24000 7.669
27.26000 2.246
27.28000 2.382
27.30000 6.699
27.32000 8.959
27.34000 4.472
27.36000 -0.096
27.38000 1.794
27.40000 6.388
27.42000 9.347
27.44000 7.174
27.46000 0.680
27.48000 0.399
27.50000 -3.793
27.52000 -0.255
27.54000 -0.625
27.56000 5.360
27.58000 5.409
27.60000 2.973
27.62000 0.108
27.64000 4.325
27.66000 4.623
27.68000 7.623
27.70000 7.592
27.72000 6.694
27.74000 7.299
27.76000 10.807
27.78000 2.261
27.80000 4.111
27.82000 7.203
27.84000 3.905
27.86000 5.522
27.88000 8.209
27.90000 7.420
27.92000 8.064
27.94000 4.988
27.96000 -0.046
27.98000 -1.406
28.00000 5.133
28.02000 -0.004
28.04000 3.417
28.06000 -0.055
28.08000 -0.322
28.10000 1.197
28.12000 -1.185
28.14000 6.011
28.16000 -0.332
28.18000 1.782
28.20000 6.009
28.22000 1.107
28.24000 2.024
28.26000 2.721
28.28000 3.695
28.30000 6.515
28.32000 3.880
28.34000 4.517
28.36000 -0.239
28.38000 0.128
28.40000 1.415
28.42000 3.646
28.44000 1.076
28.46000 -3.768
28.48000 1.794
28.50000 3.340
28.52000 4.857
28.54000 5.688
28.56000 5.882
28.58000 1.303
28.60000 5.892
28.62000 10.262
28.64000 5.643
28.66000 2.785
28.68000 -1.384
28.70000 1.260
28.72000 3.128
28.74000 6.037
28.76000 4.495
28.78000 1.484
28.80000 0.080
28.82000 -0.888
28.84000 -2.947
28.86000 -0.054
28.88000 1.324
28.90000 9.452
28.92000 7.469
28.94000 0.921
28.96000 -1.334
28.98000 1.424
29.00000 6.810
29.02000 4.021
29.04000 3.083
29.06000 6.739
29.08000 3.842
29.10000 3.694
29.12000 3.985
29.14000 0.276
29.16000 -1.296
29.18000 -0.985
29.20000 4.378
29.22000 -2.181
29.24000 2.615
29.26000 7.247
29.28000 4.174
29.30000 0.691
29.32000 -0.953
29.34000 0.635
29.36000 2.789
29.38000 2.334
29.40000 1.701
29.42000 0.062
29.44000 6.225
29.46000 0.062
29.48000 -0.572
29.50000 3.329
29.52000 -3.709
29.54000 -2.686
29.56000 3.013
29.58000 4.064
29.60000 1.281
29.62000 2.949
29.64000 2.849
29.66000 2.967
29.68000 1.619
29.70000 -1.582
29.72000 3.110
29.74000 7.184
29.76000 7.896
29.78000 2.490
29.80000 1.244
29.82000 -0.292
29.84000 -2.507
29.86000 -3.480
29.88000 -3.276
29.90000 -1.649
29.92000 2.077
29.94000 7.988
29.96000 4.144
29.98000 1.379
30.00000 -0.452
30.02000 2.517
30.04000 2.808
30.06000 5.137
30.08000 11.413
30.10000 3.770
30.12000 -0.936
30.14000 -0.329
30.16000 5.641
30.18000 5.278
30.20000 4.920
30.22000 4.700
30.24000 5.129
30.26000 2.225
30.28000 2.005
30.30000 1.122
30.32000 -1.056
30.34000 -1.969
30.36000 -2.255
30.38000 -1.300
30.40000 -0.662
30.42000 1.760
30.44000 9.065
30.46000 7.502
30.48000 2.336
30.50000 0.229
30.52000 2.693
30.54000 2.694
30.56000 -0.136
30.58000 2.602
30.60000 1.913
30.62000 0.306
30.64000 -0.073
30.66000 3.652
30.68000 5.185
30.70000 3.191
30.72000 7.030
30.74000 14.570
30.76000 10.153
30.78000 3.758
30.80000 2.426
30.82000 2.569
30.84000 2.586
30.86000 2.936
30.88000 6.156
30.90000 7.250
30.92000 5.035
30.94000 2.057
30.96000 3.653
30.98000 6.510
31.00000 7.087
31.02000 4.829
31.04000 2.797
31.06000 5.882
31.08000 9.890
31.10000 4.807
31.12000 1.134
31.14000 -3.603
31.16000 -3.392
31.18000 1.793
31.20000 1.770
31.22000 3.219
31.24000 11.491
31.26000 5.608
31.28000 7.746
31.30000 9.177
31.32000 4.845
31.34000 7.094
31.36000 5.619
31.38000 2.636
31.40000 4.452
31.42000 4.806
31.44000 2.374
31.46000 1.175
31.48000 1.523
31.50000 3.613
31.52000 4.112
31.54000 4.945
31.56000 6.392
31.58000 4.662
31.60000 2.008
31.62000 4.792
31.64000 3.056
31.66000 -0.296
31.68000 2.196
31.70000 2.600
31.72000 6.936
31.74000 5.810
31.76000 3.414
31.78000 0.104
31.80000 -0.193
31.82000 -0.234
31.84000 2.744
31.86000 1.265
31.88000 2.818
31.90000 0.773
31.92000 0.935
31.94000 1.919
31.96000 2.630
31.98000 4.780
32.00000 2.067
32.02000 -0.256
32.04000 2.625
32.06000 -3.021
32.08000 1.614
32.10000 3.781
32.12000 7.658
32.14000 4.481
32.16000 3.048
32.18000 2.082
32.20000 2.048
32.22000 3.782
32.24000 3.666
32.26000 4.712
32.28000 2.513
32.30000 3.214
32.32000 7.418
32.34000 7.525
32.36000 0.479
32.38000 -3.614
32.40000 2.913
32.42000 5.149
32.44000 5.002
32.46000 0.680
32.48000 2.528
32.50000 1.236
32.52000 3.431
32.54000 1.098
32.56000 -3.286
32.58000 2.334
32.60000 2.623
32.62000 4.488
32.64000 4.583
32.66000 4.700
32.68000 7.772
32.70000 7.599
32.72000 3.607
32.74000 1.705
32.76000 0.765
32.78000 2.723
32.80000 2.491
32.82000 -1.664
32.84000 -3.545
32.86000 0.929
32.88000 2.716
32.90000 0.822
32.92000 0.823
32.94000 1.263
32.96000 -1.046
32.98000 2.921
33.00000 6.322
33.02000 5.826
33.04000 6.242
33.06000 0.357
33.08000 -2.822
33.10000 -3.277
33.12000 2.085
33.14000 5.932
33.16000 4.726
33.18000 1.397
33.20000 -1.718
33.22000 4.859
33.24000 6.191
33.26000 0.895
33.28000 0.997
33.30000 6.189
33.32000 2.552
33.34000 2.017
33.36000 1.156
33.38000 1.091
33.40000 6.505
33.42000 5.951
33.44000 2.782
33.46000 3.090
33.48000 4.361
33.50000 0.209
33.52000 0.425
33.54000 -1.032
33.56000 7.302
33.58000 7.392
33.60000 2.057
33.62000 -3.587
33.64000 1.035
33.66000 2.696
33.68000 5.092
33.70000 1.346
33.72000 4.248
33.74000 1.523
33.76000 2.261
33.78000 -2.412
33.80000 4.069
33.82000 4.268
33.84000 5.396
33.86000 0.641
33.88000 4.827
33.90000 8.497
33.92000 4.112
33.94000 1.461
33.96000 4.710
33.98000 6.439
34.00000 4.644
34.02000 9.194
34.04000 10.031
34.06000 10.082
34.08000 2.708
34.10000 1.327
34.12000 0.070
34.14000 3.353
34.16000 7.034
34.18000 8.131
34.20000 6.151
34.22000 7.271
34.24000 5.183
34.26000 3.686
34.28000 3.930
34.30000 2.944
34.32000 4.546
34.34000 6.891
34.36000 3.912
34.38000 4.091
34.40000 8.083
34.42000 5.759
34.44000 5.336
34.46000 7.006
34.48000 8.659
34.50000 9.924
34.52000 4.018
34.54000 5.027
34.56000 -0.075
34.58000 0.460
34.60000 7.344
34.62000 6.073
34.64000 8.292
34.66000 3.181
34.68000 -3.533
34.70000 -1.719
34.72000 0.961
34.74000 -0.048
34.76000 3.801
34.78000 7.748
34.80000 0.304
34.82000 2.051
34.84000 5.985
34.86000 2.931
34.88000 4.020
34.90000 1.574
34.92000 4.093
34.94000 4.569
34.96000 0.929
34.98000 1.609
35.00000 3.076
35.02000 6.592
35.04000 7.262
35.06000 8.965
35.08000 6.722
35.10000 2.820
35.12000 5.429
35.14000 7.812
35.16000 4.192
35.18000 4.004
35.20000 4.053
35.22000 3.634
35.24000 1.807
35.26000 1.984
35.28000 1.546
35.30000 0.317
35.32000 2.260
35.34000 2.397
35.36000 -1.569
35.38000 -3.562
35.40000 -3.097
35.42000 2.322
35.44000 -0.877
35.46000 -0.042
35.48000 2.620
35.50000 -2.420
35.52000 2.387
35.54000 1.515
35.56000 0.651
35.58000 2.127
35.60000 4.604
35.62000 6.852
35.64000 4.773
35.66000 6.664
35.68000 4.273
35.70000 1.342
35.72000 2.589
35.74000 0.852
35.76000 2.216
35.78000 0.960
35.80000 2.585
35.82000 6.738
35.84000 7.526
35.86000 1.820
35.88000 -3.032
35.90000 -2.522
35.92000 0.699
35.94000 1.309
35.96000 4.260
35.98000 -0.398
36.00000 -1.542
36.02000 -2.768
36.04000 -1.391
36.06000 1.737
36.08000 2.033
36.10000 3.731
36.12000 7.891
36.14000 4.054
36.16000 -0.210
36.18000 -3.603
36.20000 0.331
36.22000 7.366
36.24000 3.717
36.26000 -1.204
36.28000 0.672
36.30000 1.775
36.32000 0.838
36.34000 0.173
36.36000 0.676
36.38000 -0.689
36.40000 4.197
36.42000 0.927
36.44000 -0.896
36.46000 1.893
36.48000 1.966
36.50000 0.783
36.52000 -0.274
36.54000 -1.977
36.56000 0.546
36.58000 -0.486
36.60000 -0.382
36.62000 -1.468
36.64000 3.034
36.66000 0.485
36.68000 -1.953
36.70000 4.166
36.72000 3.135
36.74000 -0.110
36.76000 -2.299
36.78000 -1.004
36.80000 1.180
36.82000 3.810
36.84000 5.434
36.86000 2.858
36.88000 5.993
36.90000 5.468
36.92000 1.109
36.94000 1.843
36.96000 0.931
36.98000 1.448
37.00000 -3.581
37.02000 1.274
37.04000 1.093
37.06000 3.612
37.08000 4.304
37.10000 4.399
37.12000 5.423
37.14000 4.282
37.16000 0.048
37.18000 -3.652
37.20000 -1.519
37.22000 2.343
37.24000 4.672
37.26000 9.561
37.28000 6.996
37.30000 4.031
37.32000 8.693
37.34000 12.484
37.36000 12.896
37.38000 11.079
37.40000 6.773
37.42000 10.535
37.44000 10.485
37.46000 10.394
37.48000 6.208
37.50000 8.253
37.52000 8.493
37.54000 5.135
37.56000 10.906
37.58000 10.569
37.60000 7.274
37.62000 7.458
37.64000 11.111
37.66000 12.717
37.68000 14.176
37.70000 11.855
37.72000 11.250
37.74000 15.191
37.76000 15.605
37.78000 13.268
37.80000 15.759
37.82000 16.581
37.84000 19.352
37.86000 16.128
37.88000 18.941
37.90000 16.660
37.92000 20.320
37.94000 20.396
37.96000 19.950
37.98000 25.545
38.00000 22.808
38.02000 19.385
38.04000 22.888
38.06000 20.728
38.08000 20.308
38.10000 22.839
38.12000 26.976
38.14000 29.000
38.16000 27.484
38.18000 32.420
38.20000 35.028
38.22000 41.434
38.24000 36.478
38.26000 33.290
38.28000 37.783
38.30000 39.360
38.32000 40.361
38.34000 44.561
38.36000 42.603
38.38000 45.861
38.40000 47.479
38.42000 50.629
38.44000 51.344
38.46000 46.295
38.48000 50.894
38.50000 58.307
38.52000 60.215
38.54000 67.153
38.56000 66.639
38.58000 71.629
38.60000 71.905
38.62000 78.637
38.64000 78.889
38.66000 85.975
38.68000 89.087
38.70000 92.729
38.72000 98.443
38.74000 102.984
38.76000 109.920
38.78000 116.219
38.80000 115.704
38.82000 123.919
38.84000 134.758
38.86000 138.037
38.88000 142.742
38.90000 151.053
38.92000 160.607
38.94000 165.885
38.96000 181.316
38.98000 193.354
39.00000 201.023
39.02000 213.905
39.04000 226.911
39.06000 237.089
39.08000 262.768
39.10000 275.481
39.12000 289.907
39.14000 308.936
39.16000 325.769
39.18000 340.879
39.20000 364.554
39.22000 385.523
39.24000 412.660
39.26000 428.829
39.28000 448.072
39.30000 470.298
39.32000 498.110
39.34000 510.128
39.36000 537.211
39.38000 557.062
39.40000 568.500
39.42000 582.152
39.44000 592.412
39.46000 610.321
39.48000 631.094
39.50000 637.104
39.52000 641.166
39.54000 648.605
39.56000 649.498
39.58000 644.869
39.60000 635.683
39.62000 633.842
39.64000 626.726
39.66000 610.388
39.68000 605.273
39.70000 597.849
39.72000 582.672
39.74000 551.800
39.76000 527.730
39.78000 512.321
39.80000 498.000
39.82000 473.636
39.84000 454.120
39.86000 434.367
39.88000 414.294
39.90000 389.842
39.92000 379.740
39.94000 354.718
39.96000 331.553
39.98000 309.687
40.00000 292.180
40.02000 271.924
40.04000 250.911
40.06000 242.601
40.08000 233.375
40.10000 212.787
40.12000 197.083
40.14000 188.091
40.16000 172.982
40.18000 162.538
40.20000 149.330
40.22000 141.479
40.24000 133.049
40.26000 126.917
40.28000 112.152
40.30000 101.374
40.32000 101.928
40.34000 92.258
40.36000 89.534
40.38000 85.138
40.40000 77.284
40.42000 77.367
40.44000 70.821
40.46000 69.150
40.48000 66.743
40.50000 63.631
40.52000 56.213
40.54000 50.899
40.56000 49.242
40.58000 52.166
40.60000 52.428
40.62000 45.704
40.64000 37.566
40.66000 33.880
40.68000 39.865
40.70000 38.293
40.72000 32.541
40.74000 31.462
40.76000 31.236
40.78000 26.505
40.80000 31.393
40.82000 28.869
40.84000 27.604
40.86000 23.784
40.88000 24.354
40.90000 23.672
40.92000 21.283
40.94000 15.898
40.96000 19.263
40.98000 17.397
41.00000 19.845
41.02000 17.028
41.04000 13.254
41.06000 14.820
41.08000 12.809
41.10000 13.269
41.12000 8.944
41.14000 8.756
41.16000 10.485
41.18000 9.111
41.20000 11.136
41.22000 9.844
41.24000 4.434
41.26000 6.349
41.28000 8.682
41.30000 10.553
41.32000 14.337
41.34000 13.263
41.36000 8.628
41.38000 6.702
41.40000 10.852
41.42000 10.017
41.44000 3.519
41.46000 2.787
41.48000 -1.075
41.50000 6.348
41.52000 8.244
41.54000 5.030
41.56000 5.383
41.58000 7.168
41.60000 6.974
41.62000 4.348
41.64000 4.825
41.66000 5.219
41.68000 3.438
41.70000 2.783
41.72000 1.389
41.74000 3.225
41.76000 2.594
41.78000 0.631
41.80000 0.907
41.82000 1.949
41.84000 2.594
41.86000 -2.359
41.88000 -3.394
41.90000 3.585
41.92000 2.642
41.94000 0.341
41.96000 -1.085
41.98000 0.352
42.00000 0.159
42.02000 2.433
42.04000 3.617
42.06000 1.240
42.08000 2.661
42.10000 5.722
42.12000 4.005
42.14000 3.165
42.16000 2.497
42.18000 1.203
42.20000 -0.478
42.22000 -0.507
42.24000 4.976
42.26000 2.676
42.28000 -1.674
42.30000 0.628
42.32000 2.994
42.34000 2.902
42.36000 -0.332
42.38000 2.565
42.40000 -0.458
42.42000 -3.318
42.44000 3.642
42.46000 3.405
42.48000 2.788
42.50000 -0.352
42.52000 2.892
42.54000 2.235
42.56000 -1.030
42.58000 -1.917
42.60000 0.182
42.62000 -1.796
42.64000 -3.282
42.66000 0.091
42.68000 0.113
42.70000 -1.430
42.72000 0.958
42.74000 3.965
42.76000 2.629
42.78000 1.059
42.80000 1.777
42.82000 2.422
42.84000 -1.913
42.86000 -0.847
42.88000 -0.864
42.90000 0.821
42.92000 0.495
42.94000 -0.831
42.96000 -0.184
42.98000 -2.028
43.00000 -2.432
43.02000 -0.996
43.04000 -0.694
43.06000 -0.607
43.08000 3.052
43.10000 1.235
43.12000 -1.669
43.14000 -2.063
43.16000 -1.077
43.18000 -0.203
43.20000 0.125
43.22000 -1.797
43.24000 0.606
43.26000 -0.063
43.28000 -1.126
43.30000 -0.449
43.32000 1.078
43.34000 -0.440
43.36000 -0.016
43.38000 1.349
43.40000 2.105
43.42000 2.505
43.44000 1.222
43.46000 -0.421
43.48000 3.323
43.50000 0.249
43.52000 0.048
43.54000 -2.989
43.56000 0.245
43.58000 -0.492
43.60000 -3.172
43.62000 0.511
43.64000 1.078
43.66000 1.619
43.68000 3.211
43.70000 1.663
43.72000 -0.720
43.74000 0.198
43.76000 1.303
43.78000 3.736
43.80000 0.368
43.82000 0.313
43.84000 -0.815
43.86000 0.821
43.88000 1.220
43.90000 0.485
43.92000 1.594
43.94000 -1.087
43.96000 5.196
43.98000 0.904
44.00000 1.688
44.02000 2.256
44.04000 1.562
44.06000 0.842
44.08000 1.155
44.10000 0.743
44.12000 -1.219
44.14000 -0.288
44.16000 -0.055
44.18000 -1.967
44.20000 -1.762
44.22000 0.528
44.24000 2.105
44.26000 3.085
44.28000 0.228
44.30000 -0.942
44.32000 0.446
44.34000 0.705
44.36000 1.218
44.38000 -0.079
44.40000 1.446
44.42000 1.313
44.44000 3.669
44.46000 4.067
44.48000 2.074
44.50000 3.655
44.52000 2.360
44.54000 -0.690
44.56000 -3.118
44.58000 -2.048
44.60000 1.745
44.62000 3.702
44.64000 3.935
44.66000 1.889
44.68000 0.973
44.70000 0.615
44.72000 1.761
44.74000 1.993
44.76000 5.361
44.78000 9.550
44.80000 6.715
44.82000 -0.142
44.84000 3.171
44.86000 3.744
44.88000 -1.035
44.90000 6.431
44.92000 10.609
44.94000 8.967
44.96000 6.625
44.98000 2.890
45.00000 6.929
45.02000 8.429
45.04000 7.035
45.06000 12.059
45.08000 13.391
45.10000 10.837
45.12000 7.498
45.14000 8.639
45.16000 11.124
45.18000 10.605
45.20000 6.388
45.22000 10.486
45.24000 11.617
45.26000 13.357
45.28000 10.107
45.30000 15.611
45.32000 13.576
45.34000 12.974
45.36000 12.405
45.38000 11.602
45.40000 13.041
45.42000 17.861
45.44000 20.080
45.46000 19.912
45.48000 22.697
45.50000 22.204
45.52000 23.208
45.54000 24.946
45.56000 28.422
45.58000 26.067
45.60000 25.849
45.62000 30.554
45.64000 30.852
45.66000 29.959
45.68000 31.199
45.70000 31.371
45.72000 35.540
45.74000 35.555
45.76000 42.693
45.78000 43.755
45.80000 44.589
45.82000 42.554
45.84000 40.460
45.86000 43.074
45.88000 43.768
45.90000 48.873
45.92000 52.975
45.94000 55.233
45.96000 49.443
45.98000 53.064
46.00000 55.691
46.02000 61.947
46.04000 64.843
46.06000 57.028
46.08000 55.358
46.10000 58.217
46.12000 60.875
46.14000 68.525
46.16000 72.680
46.18000 66.288
46.20000 67.338
46.22000 62.901
46.24000 61.991
46.26000 63.751
46.28000 67.201
46.30000 66.890
46.32000 66.141
46.34000 66.598
46.36000 66.554
46.38000 65.625
46.40000 63.496
46.42000 63.994
46.44000 57.947
46.46000 58.221
46.48000 57.397
46.50000 56.060
46.52000 56.761
46.54000 58.944
46.56000 52.422
46.58000 47.617
46.60000 44.151
46.62000 44.557
46.64000 43.223
46.66000 42.358
46.68000 39.097
46.70000 34.818
46.72000 37.203
46.74000 34.451
46.76000 31.030
46.78000 27.048
46.80000 28.496
46.82000 25.718
46.84000 25.262
46.86000 22.101
46.88000 22.945
46.90000 25.490
46.92000 22.904
46.94000 17.257
46.96000 14.675
46.98000 13.566
47.00000 14.540
47.02000 15.975
47.04000 18.803
47.06000 14.237
47.08000 9.073
47.10000 12.170
47.12000 7.531
47.14000 5.427
47.16000 4.570
47.18000 7.035
47.20000 6.875
47.22000 6.816
47.24000 6.845
47.26000 4.749
47.28000 3.541
47.30000 3.248
47.32000 1.410
47.34000 5.745
47.36000 1.344
47.38000 2.440
47.40000 4.244
47.42000 2.798
47.44000 3.020
47.46000 2.441
47.48000 0.132
47.50000 0.002
47.52000 2.554
47.54000 4.941
47.56000 2.240
47.58000 -0.876
47.60000 -1.458
47.62000 -0.366
47.64000 -0.437
47.66000 -0.377
47.68000 0.980
47.70000 3.947
47.72000 3.503
47.74000 3.983
47.76000 3.941
47.78000 -0.127
47.80000 2.798
47.82000 5.111
47.84000 1.150
47.86000 -0.035
47.88000 0.742
47.90000 3.332
47.92000 1.859
47.94000 0.206
47.96000 1.391
47.98000 3.861
48.00000 4.775
48.02000 2.832
48.04000 0.130
48.06000 -1.676
48.08000 -1.226
48.10000 1.972
48.12000 6.072
48.14000 2.536
48.16000 0.776
48.18000 1.422
48.20000 -2.681
48.22000 1.315
48.24000 3.569
48.26000 3.291
48.28000 4.174
48.30000 4.963
48.32000 5.213
48.34000 3.446
48.36000 0.607
48.38000 -2.642
48.40000 1.470
48.42000 2.542
48.44000 5.788
48.46000 5.026
48.48000 1.203
48.50000 4.202
48.52000 6.681
48.54000 3.492
48.56000 1.251
48.58000 -0.455
48.60000 0.123
48.62000 0.476
48.64000 2.497
48.66000 0.951
48.68000 0.803
48.70000 0.195
48.72000 -0.430
48.74000 -0.543
48.76000 0.941
48.78000 2.204
48.80000 -0.939
48.82000 -0.986
48.84000 2.147
48.86000 3.412
48.88000 -1.452
48.90000 0.795
48.92000 4.638
48.94000 0.077
48.96000 -1.820
48.98000 3.520
49.00000 0.037
49.02000 -2.618
49.04000 0.242
49.06000 -2.365
49.08000 0.052
49.10000 1.365
49.12000 -0.289
49.14000 0.043
49.16000 5.548
49.18000 4.117
49.20000 1.408
49.22000 4.215
49.24000 -1.424
49.26000 -1.685
49.28000 -0.767
49.30000 2.618
49.32000 0.653
49.34000 0.706
49.36000 0.934
49.38000 1.857
49.40000 4.600
49.42000 6.850
49.44000 4.085
49.46000 4.590
49.48000 4.428
49.50000 2.380
49.52000 3.540
49.54000 1.702
49.56000 -0.243
49.58000 -0.713
49.60000 1.700
49.62000 1.397
49.64000 1.841
49.66000 -0.601
49.68000 3.430
49.70000 3.442
49.72000 3.393
49.74000 4.167
49.76000 3.152
49.78000 3.600
49.80000 0.931
49.82000 0.314
49.84000 0.742
49.86000 1.673
49.88000 0.543
49.90000 -2.579
49.92000 -2.251
49.94000 4.093
49.96000 5.102
49.98000 3.485
50.00000 1.860
50.02000 3.901
50.04000 0.943
50.06000 1.876
50.08000 0.503
50.10000 -0.389
50.12000 1.850
50.14000 0.098
50.16000 1.895
50.18000 2.584
50.20000 2.370
50.22000 1.792
50.24000 -0.236
50.26000 1.199
50.28000 0.801
50.30000 -2.145
50.32000 -1.491
50.34000 1.769
50.36000 0.950
50.38000 -2.562
50.40000 -1.515
50.42000 0.778
50.44000 2.388
50.46000 2.383
50.48000 3.114
50.50000 4.811
50.52000 5.726
50.54000 1.859
50.56000 -2.447
50.58000 0.957
50.60000 -0.441
50.62000 1.572
50.64000 0.065
50.66000 -2.061
50.68000 -2.106
50.70000 -1.007
50.72000 -2.499
50.74000 -0.850
50.76000 1.849
50.78000 3.530
50.80000 -0.124
50.82000 0.123
50.84000 1.863
50.86000 2.703
50.88000 2.470
50.90000 0.208
50.92000 -2.220
50.94000 -2.545
50.96000 -1.587
50.98000 -0.742
51.00000 0.755
51.02000 -1.189
51.04000 -0.721
51.06000 0.417
51.08000 -1.657
51.10000 1.765
51.12000 -0.626
51.14000 -1.479
51.16000 3.397
51.18000 1.710
51.20000 -0.908
51.22000 -0.941
51.24000 1.756
51.26000 3.328
51.28000 3.470
51.30000 3.806
51.32000 2.319
51.34000 -1.874
51.36000 0.692
51.38000 -0.776
51.40000 1.760
51.42000 2.212
51.44000 0.926
51.46000 4.446
51.48000 5.336
51.50000 3.699
51.52000 1.514
51.54000 1.527
51.56000 3.946
51.58000 -0.244
51.60000 -2.503
51.62000 -0.880
51.64000 1.907
51.66000 3.042
51.68000 1.340
51.70000 4.745
51.72000 1.806
51.74000 2.287
51.76000 2.313
51.78000 3.993
51.80000 2.105
51.82000 2.933
51.84000 4.292
51.86000 1.054
51.88000 -0.008
51.90000 -1.566
51.92000 1.116
51.94000 1.701
51.96000 0.724
51.98000 3.091
52.00000 2.823
52.02000 1.954
52.04000 -2.493
52.06000 -0.007
52.08000 0.914
52.10000 5.462
52.12000 5.213
52.14000 7.832
52.16000 2.358
52.18000 1.496
52.20000 0.136
52.22000 -0.819
52.24000 -2.318
52.26000 -0.990
52.28000 -1.391
52.30000 -0.235
52.32000 1.801
52.34000 4.057
52.36000 -1.646
52.38000 1.451
52.40000 3.189
52.42000 1.774
52.44000 3.296
52.46000 1.100
52.48000 -0.318
52.50000 0.008
52.52000 1.921
52.54000 0.430
52.56000 0.196
52.58000 2.766
52.60000 1.940
52.62000 0.793
52.64000 1.540
52.66000 1.437
52.68000 1.887
52.70000 3.924
52.72000 2.650
52.74000 0.112
52.76000 -0.917
52.78000 0.559
52.80000 -0.265
52.82000 1.144
52.84000 3.040
52.86000 3.354
52.88000 0.961
52.90000 2.769
52.92000 4.461
52.94000 3.018
52.96000 -1.389
52.98000 1.020
53.00000 -1.010
53.02000 1.464
53.04000 2.922
53.06000 3.732
53.08000 -1.022
53.10000 -1.491
53.12000 -1.157
53.14000 -1.487
53.16000 1.653
53.18000 1.330
53.20000 4.013
53.22000 4.723
53.24000 6.531
53.26000 2.816
53.28000 -2.462
53.30000 0.667
53.32000 -0.100
53.34000 0.555
53.36000 -1.743
53.38000 0.687
53.40000 2.796
53.42000 4.130
53.44000 4.316
53.46000 0.942
53.48000 1.143
53.50000 3.186
53.52000 3.330
53.54000 2.070
53.56000 3.129
53.58000 0.116
53.60000 3.834
53.62000 3.383
53.64000 1.870
53.66000 3.781
53.68000 2.675
53.70000 3.930
53.72000 6.030
53.74000 6.434
53.76000 4.209
53.78000 1.178
53.80000 1.671
53.82000 -0.234
53.84000 -2.422
53.86000 -2.029
53.88000 2.673
53.90000 3.855
53.92000 1.923
53.94000 4.418
53.96000 4.146
53.98000 7.270
54.00000 4.964
54.02000 1.907
54.04000 2.925
54.06000 1.727
54.08000 2.055
54.10000 0.948
54.12000 0.376
54.14000 4.141
54.16000 4.676
54.18000 4.819
54.20000 5.573
54.22000 4.548
54.24000 6.069
54.26000 6.314
54.28000 7.107
54.30000 9.061
54.32000 6.142
54.34000 4.157
54.36000 6.551
54.38000 4.741
54.40000 3.970
54.42000 1.918
54.44000 2.338
54.46000 -2.386
54.48000 -1.121
54.50000 1.827
54.52000 2.166
54.54000 3.853
54.56000 3.805
54.58000 4.531
54.60000 4.785
54.62000 5.647
54.64000 5.518
54.66000 6.595
54.68000 4.379
54.70000 2.811
54.72000 2.847
54.74000 3.993
54.76000 3.513
54.78000 1.534
54.80000 2.127
54.82000 1.394
54.84000 0.840
54.86000 2.391
54.88000 1.693
54.90000 2.821
54.92000 4.745
54.94000 2.673
54.96000 0.099
54.98000 2.574
55.00000 1.911
55.02000 2.126
55.04000 3.043
55.06000 5.148
55.08000 3.307
55.10000 1.068
55.12000 4.306
55.14000 2.646
55.16000 0.368
55.18000 1.273
55.20000 1.688
55.22000 1.582
55.24000 0.117
55.26000 -2.396
55.28000 -0.304
55.30000 0.934
55.32000 -1.441
55.34000 -0.553
55.36000 0.030
55.38000 0.618
55.40000 0.348
55.42000 2.832
55.44000 4.706
55.46000 5.876
55.48000 1.309
55.50000 0.172
55.52000 1.705
55.54000 0.636
55.56000 -1.580
55.58000 0.069
55.60000 -2.318
55.62000 1.864
55.64000 -1.113
55.66000 1.576
55.68000 3.093
55.70000 2.749
55.72000 3.119
55.74000 -1.157
55.76000 0.716
55.78000 5.216
55.80000 1.396
55.82000 1.341
55.84000 4.056
55.86000 8.244
55.88000 3.680
55.90000 2.294
55.92000 5.601
55.94000 3.300
55.96000 5.760
55.98000 4.220
56.00000 2.778
56.02000 3.405
56.04000 3.491
56.06000 5.329
56.08000 3.481
56.10000 1.403
56.12000 1.543
56.14000 4.959
56.16000 4.414
56.18000 5.561
56.20000 4.317
56.22000 0.679
56.24000 2.230
56.26000 3.816
56.28000 3.954
56.30000 0.686
56.32000 -0.902
56.34000 0.518
56.36000 1.052
56.38000 1.912
56.40000 4.837
56.42000 6.899
56.44000 3.938
56.46000 1.959
56.48000 0.903
56.50000 2.686
56.52000 3.134
56.54000 5.218
56.56000 4.233
56.58000 -0.244
56.60000 -2.338
56.62000 2.441
56.64000 3.021
56.66000 5.030
56.68000 4.922
56.70000 3.251
56.72000 2.141
56.74000 3.579
56.76000 3.683
56.78000 4.851
56.80000 3.846
56.82000 4.356
56.84000 1.449
56.86000 5.424
56.88000 0.682
56.90000 1.445
56.92000 0.757
56.94000 1.576
56.96000 1.979
56.98000 1.852
57.00000 1.896
57.02000 2.293
57.04000 4.342
57.06000 -0.594
57.08000 -2.227
57.10000 0.450
57.12000 3.247
57.14000 1.136
57.16000 5.092
57.18000 1.470
57.20000 -0.722
57.22000 5.304
57.24000 5.089
57.26000 5.572
57.28000 2.410
57.30000 -0.426
57.32000 -0.216
57.34000 -2.258
57.36000 -2.133
57.38000 1.413
57.40000 3.623
57.42000 3.240
57.44000 5.479
57.46000 3.007
57.48000 3.021
57.50000 1.931
57.52000 5.249
57.54000 2.069
57.56000 3.160
57.58000 4.213
57.60000 2.388
57.62000 5.085
57.64000 5.864
57.66000 4.017
57.68000 0.747
57.70000 3.848
57.72000 1.754
57.74000 2.711
57.76000 3.570
57.78000 0.158
57.80000 -1.545
57.82000 3.717
57.84000 1.799
57.86000 4.990
57.88000 4.456
57.90000 0.918
57.92000 1.094
57.94000 3.388
57.96000 2.146
57.98000 -2.322
58.00000 1.435
58.02000 4.977
58.04000 3.302
58.06000 1.240
58.08000 2.654
58.10000 3.456
58.12000 0.762
58.14000 2.501
58.16000 0.996
58.18000 0.387
58.20000 1.369
58.22000 1.858
58.24000 0.509
58.26000 3.780
58.28000 2.225
58.30000 -1.320
58.32000 -0.055
58.34000 0.089
58.36000 0.060
58.38000 0.887
58.40000 -0.394
58.42000 0.761
58.44000 -0.393
58.46000 1.929
58.48000 2.759
58.50000 2.557
58.52000 1.591
58.54000 0.025
58.56000 0.320
58.58000 -0.604
58.60000 -0.007
58.62000 1.245
58.64000 -0.302
58.66000 -1.268
58.68000 -2.325
58.70000 1.565
58.72000 0.922
58.74000 -1.121
58.76000 -1.681
58.78000 -1.862
58.80000 -1.403
58.82000 -0.185
58.84000 -1.323
58.86000 -0.041
58.88000 3.727
58.90000 2.852
58.92000 -1.763
58.94000 -1.065
58.96000 -0.106
58.98000 3.829
59.00000 2.989
59.02000 -1.503
59.04000 -0.277
59.06000 0.691
59.08000 1.584
59.10000 -0.140
59.12000 1.811
59.14000 0.204
59.16000 1.826
59.18000 3.522
59.20000 1.173
59.22000 -1.015
59.24000 1.960
59.26000 2.676
59.28000 0.957
59.30000 2.486
59.32000 1.687
59.34000 3.612
59.36000 2.082
59.38000 -0.384
59.40000 1.714
59.42000 2.751
59.44000 -0.618
59.46000 -1.358
59.48000 0.698
59.50000 2.356
59.52000 1.588
59.54000 -1.161
59.56000 2.196
59.58000 1.823
59.60000 1.820
59.62000 1.554
59.64000 1.605
59.66000 3.775
59.68000 4.069
59.70000 0.888
59.72000 0.542
59.74000 -0.298
59.76000 1.329
59.78000 3.271
59.80000 0.047
59.82000 2.440
59.84000 0.793
59.86000 -0.014
59.88000 2.356
59.90000 5.354
59.92000 1.687
59.94000 2.352
59.96000 0.790
59.98000 -0.864
60.00000 -2.268
60.02000 3.713
60.04000 4.630
60.06000 1.816
60.08000 0.997
60.10000 1.955
60.12000 2.094
60.14000 2.737
60.16000 -1.313
60.18000 0.679
60.20000 4.154
60.22000 4.380
60.24000 2.237
60.26000 3.018
60.28000 0.166
60.30000 -0.004
60.32000 4.348
60.34000 3.501
60.36000 1.122
60.38000 -0.669
60.40000 -2.078
60.42000 -0.786
60.44000 -0.065
60.46000 1.157
60.48000 0.332
60.50000 4.842
60.52000 3.732
60.54000 1.383
60.56000 0.282
60.58000 2.250
60.60000 1.868
60.62000 1.241
60.64000 3.299
60.66000 0.718
60.68000 -1.148
60.70000 -2.090
60.72000 -0.872
60.74000 2.540
60.76000 5.272
60.78000 2.532
60.80000 0.058
60.82000 2.033
60.84000 -1.000
60.86000 -1.312
60.88000 0.782
60.90000 2.023
60.92000 1.231
60.94000 -0.893
60.96000 0.741
60.98000 2.795
61.00000 1.974
61.02000 0.349
61.04000 -0.058
61.06000 2.808
61.08000 2.689
61.10000 4.134
61.12000 1.880
61.14000 0.404
61.16000 1.123
61.18000 -1.462
61.20000 1.697
61.22000 2.846
61.24000 1.429
61.26000 1.871
61.28000 3.356
61.30000 2.455
61.32000 0.852
61.34000 1.649
61.36000 1.457
61.38000 -2.230
61.40000 2.760
61.42000 4.122
61.44000 2.737
61.46000 6.046
61.48000 1.784
61.50000 1.147
61.52000 0.612
61.54000 -0.844
61.56000 -2.126
61.58000 -0.299
61.60000 -0.187
61.62000 1.270
61.64000 0.350
61.66000 -1.025
61.68000 1.990
61.70000 0.207
61.72000 0.275
61.74000 -0.554
61.76000 0.748
61.78000 1.187
61.80000 1.740
61.82000 1.294
61.84000 4.424
61.86000 2.371
61.88000 1.264
61.90000 0.864
61.92000 -0.547
61.94000 3.256
61.96000 1.058
61.98000 1.976
62.00000 2.572
62.02000 1.788
62.04000 0.771
62.06000 2.168
62.08000 1.098
62.10000 -0.298
62.12000 -0.610
62.14000 1.701
62.16000 2.159
62.18000 0.388
62.20000 4.547
62.22000 4.084
62.24000 1.691
62.26000 3.099
62.28000 4.636
62.30000 2.711
62.32000 -1.129
62.34000 -2.206
62.36000 -0.521
62.38000 4.093
62.40000 0.599
62.42000 -0.918
62.44000 0.110
62.46000 1.610
62.48000 3.725
62.50000 4.310
62.52000 2.103
62.54000 0.688
62.56000 2.713
62.58000 3.553
62.60000 3.031
62.62000 1.821
62.64000 0.841
62.66000 4.105
62.68000 4.806
62.70000 3.535
62.72000 2.892
62.74000 3.387
62.76000 -0.708
62.78000 1.699
62.80000 2.160
62.82000 1.665
62.84000 1.317
62.86000 -0.042
62.88000 -0.904
62.90000 -2.188
62.92000 1.619
62.94000 2.968
62.96000 3.908
62.98000 3.308
63.00000 2.785
63.02000 1.651
63.04000 1.220
63.06000 2.986
63.08000 2.853
63.10000 1.532
63.12000 1.010
63.14000 1.602
63.16000 1.283
63.18000 2.115
63.20000 3.818
63.22000 2.991
63.24000 2.192
63.26000 0.790
63.28000 1.186
63.30000 3.764
63.32000 1.632
63.34000 2.218
63.36000 1.542
63.38000 -0.382
63.40000 -2.195
63.42000 -1.442
63.44000 -1.046
63.46000 0.643
63.48000 1.000
63.50000 1.999
63.52000 3.052
63.54000 2.373
63.56000 0.232
63.58000 0.912
63.60000 5.532
63.62000 3.791
63.64000 2.026
63.66000 0.510
63.68000 2.114
63.70000 2.048
63.72000 -0.708
63.74000 0.711
63.76000 0.184
63.78000 -1.541
63.80000 -1.719
63.82000 -0.816
63.84000 2.036
63.86000 3.495
63.88000 2.071
63.90000 -1.901
63.92000 -1.279
63.94000 -0.584
63.96000 -1.392
63.98000 -0.932
64.00000 0.025
64.02000 -0.269
64.04000 -0.062
64.06000 -0.715
64.08000 0.378
64.10000 -0.024
64.12000 -1.000
64.14000 -0.328
64.16000 0.706
64.18000 -0.276
64.20000 0.007
64.22000 -0.028
64.24000 -1.066
64.26000 0.341
64.28000 0.299
64.30000 -1.396
64.32000 -0.260
64.34000 0.041
64.36000 1.339
64.38000 4.487
64.40000 2.406
64.42000 2.178
64.44000 2.219
64.46000 3.497
64.48000 -1.202
64.50000 -0.886
64.52000 1.657
64.54000 1.414
64.56000 3.777
64.58000 0.992
64.60000 -0.349
64.62000 -0.925
64.64000 1.551
64.66000 -0.551
64.68000 -0.390
64.70000 1.245
64.72000 2.840
64.74000 -2.194
64.76000 -1.599
64.78000 0.068
64.80000 0.398
64.82000 4.093
64.84000 0.463
64.86000 -0.156
64.88000 -0.121
64.90000 0.464
64.92000 -1.051
64.94000 1.289
64.96000 1.360
64.98000 1.218
65.00000 2.457
65.02000 0.126
65.04000 1.098
65.06000 -0.615
65.08000 2.955
65.10000 2.976
65.12000 0.873
65.14000 -1.230
65.16000 1.838
65.18000 1.513
65.20000 2.482
65.22000 3.835
65.24000 5.079
65.26000 3.184
65.28000 1.410
65.30000 6.113
65.32000 3.032
65.34000 -2.160
65.36000 -0.894
65.38000 1.964
65.40000 1.345
65.42000 0.986
65.44000 1.959
65.46000 3.134
65.48000 2.174
65.50000 1.653
65.52000 2.939
65.54000 -0.041
65.56000 -1.235
65.58000 -1.320
65.60000 0.971
65.62000 2.160
65.64000 1.879
65.66000 1.256
65.68000 -2.188
65.70000 -0.111
65.72000 -0.552
65.74000 0.551
65.76000 1.757
65.78000 -0.796
65.80000 -2.022
65.82000 0.229
65.84000 0.719
65.86000 0.860
65.88000 -0.858
65.90000 0.392
65.92000 3.384
65.94000 2.154
65.96000 -2.209
65.98000 -0.869
66.00000 0.410
66.02000 -1.027
66.04000 -0.600
66.06000 -0.819
66.08000 1.463
66.10000 3.933
66.12000 1.850
66.14000 1.393
66.16000 2.843
66.18000 1.318
66.20000 3.023
66.22000 0.831
66.24000 -1.622
66.26000 -0.124
66.28000 -1.668
66.30000 -0.533
66.32000 1.457
66.34000 0.611
66.36000 0.374
66.38000 -0.849
66.40000 1.761
66.42000 0.808
66.44000 2.322
66.46000 2.585
66.48000 4.148
66.50000 3.334
66.52000 3.121
66.54000 1.550
66.56000 -0.152
66.58000 1.448
66.60000 2.830
66.62000 4.114
66.64000 5.411
66.66000 4.294
66.68000 1.395
66.70000 3.643
66.72000 3.844
66.74000 3.293
66.76000 2.917
66.78000 3.335
66.80000 8.011
66.82000 6.069
66.84000 2.526
66.86000 2.433
66.88000 3.099
66.90000 4.922
66.92000 6.199
66.94000 9.675
66.96000 8.378
66.98000 4.830
67.00000 4.184
67.02000 5.215
67.04000 6.554
67.06000 5.037
67.08000 8.462
67.10000 9.628
67.12000 8.993
67.14000 8.428
67.16000 8.054
67.18000 9.939
67.20000 11.283
67.22000 8.982
67.24000 7.596
67.26000 8.664
67.28000 8.407
67.30000 9.772
67.32000 9.828
67.34000 8.543
67.36000 10.541
67.38000 9.440
67.40000 8.589
67.42000 10.891
67.44000 9.382
67.46000 8.324
67.48000 8.926
67.50000 8.682
67.52000 6.306
67.54000 6.842
67.56000 6.657
67.58000 6.675
67.60000 8.324
67.62000 7.943
67.64000 6.191
67.66000 3.258
67.68000 2.088
67.70000 3.588
67.72000 5.273
67.74000 3.986
67.76000 1.443
67.78000 2.337
67.80000 3.494
67.82000 5.693
67.84000 4.940
67.86000 4.736
67.88000 5.560
67.90000 4.597
67.92000 2.562
67.94000 2.997
67.96000 1.525
67.98000 2.047
68.00000 2.180
68.02000 1.139
68.04000 3.457
68.06000 2.325
68.08000 1.101
68.10000 1.879
68.12000 2.815
68.14000 1.681
68.16000 1.313
68.18000 -0.594
68.20000 -0.882
68.22000 -0.239
68.24000 0.291
68.26000 0.294
68.28000 3.229
68.30000 2.474
68.32000 3.637
68.34000 0.371
68.36000 -1.338
68.38000 -2.134
68.40000 1.814
68.42000 2.281
68.44000 1.905
68.46000 0.594
68.48000 0.574
68.50000 0.888
68.52000 0.582
68.54000 -0.224
68.56000 -0.004
68.58000 1.742
68.60000 1.114
68.62000 1.167
68.64000 3.210
68.66000 1.703
68.68000 -0.212
68.70000 0.119
68.72000 -0.882
68.74000 -2.101
68.76000 0.622
68.78000 0.345
68.80000 -0.076
68.82000 0.399
68.84000 -0.275
68.86000 -0.122
68.88000 1.738
68.90000 3.137
68.92000 2.963
68.94000 0.684
68.96000 1.399
68.98000 0.807
69.00000 0.184
69.02000 1.698
69.04000 2.492
69.06000 4.049
69.08000 3.770
69.10000 1.679
69.12000 0.716
69.14000 -0.200
69.16000 0.730
69.18000 0.623
69.20000 0.448
69.22000 0.041
69.24000 1.358
69.26000 2.106
69.28000 1.784
69.30000 -0.877
69.32000 0.568
69.34000 -2.041
69.36000 2.245
69.38000 2.627
69.40000 2.829
69.42000 1.902
69.44000 2.581
69.46000 1.116
69.48000 1.078
69.50000 1.023
69.52000 0.279
69.54000 0.917
69.56000 1.615
69.58000 1.113
69.60000 2.275
69.62000 3.125
69.64000 1.868
69.66000 0.786
69.68000 1.254
69.70000 -0.246
69.72000 0.409
69.74000 1.507
69.76000 -0.406
69.78000 -2.024
69.80000 0.498
69.82000 0.963
69.84000 0.230
69.86000 2.775
69.88000 2.195
69.90000 2.326
69.92000 1.229
69.94000 0.710
69.96000 -0.747
69.98000 -0.291
70.00000 -1.367
70.02000 3.257
70.04000 3.873
70.06000 -0.535
70.08000 0.132
70.10000 2.768
70.12000 2.128
70.14000 -2.026
70.16000 -1.640
70.18000 0.640
70.20000 2.892
70.22000 3.709
70.24000 0.031
70.26000 -0.447
70.28000 -0.770
70.30000 0.732
70.32000 0.821
70.34000 0.808
70.36000 -1.317
70.38000 0.363
70.40000 0.727
70.42000 1.036
70.44000 1.115
70.46000 0.261
70.48000 -0.546
70.50000 -0.968
70.52000 2.487
70.54000 -0.603
70.56000 0.277
70.58000 -0.726
70.60000 0.803
70.62000 0.867
70.64000 -0.442
70.66000 -1.372
70.68000 -1.483
70.70000 0.726
70.72000 -0.211
70.74000 2.194
70.76000 -0.396
70.78000 -1.518
70.80000 0.372
70.82000 -0.249
70.84000 -1.980
70.86000 0.107
70.88000 2.899
70.90000 3.724
70.92000 2.403
70.94000 -0.426
70.96000 1.040
70.98000 1.810
71.00000 3.108
71.02000 -0.558
71.04000 1.738
71.06000 2.790
71.08000 0.038
71.10000 1.291
71.12000 2.009
71.14000 0.452
71.16000 2.062
71.18000 3.168
71.20000 1.747
71.22000 3.805
71.24000 0.158
71.26000 1.739
71.28000 0.799
71.30000 1.244
71.32000 -0.329
71.34000 -0.471
71.36000 2.057
71.38000 4.019
71.40000 4.319
71.42000 1.099
71.44000 -1.937
71.46000 -0.490
71.48000 2.799
71.50000 2.207
71.52000 3.302
71.54000 2.980
71.56000 2.508
71.58000 3.895
71.60000 4.147
71.62000 3.571
71.64000 2.954
71.66000 -1.085
71.68000 0.354
71.70000 2.528
71.72000 2.543
71.74000 3.469
71.76000 0.057
71.78000 2.048
71.80000 1.698
71.82000 3.218
71.84000 3.054
71.86000 1.687
71.88000 1.898
71.90000 0.730
71.92000 1.464
71.94000 2.222
71.96000 -1.348
71.98000 -1.089
72.00000 3.000
72.02000 1.979
72.04000 1.079
72.06000 1.931
72.08000 0.421
72.10000 0.644
72.12000 2.168
72.14000 -0.645
72.16000 -0.111
72.18000 0.773
72.20000 1.185
72.22000 2.773
72.24000 2.159
72.26000 2.562
72.28000 1.018
72.30000 -0.662
72.32000 -1.369
72.34000 -1.937
72.36000 -1.359
72.38000 -1.457
72.40000 0.163
72.42000 3.284
72.44000 4.930
72.46000 7.849
72.48000 4.883
72.50000 0.868
72.52000 -0.748
72.54000 -1.469
72.56000 -1.246
72.58000 -0.548
72.60000 1.506
72.62000 1.946
72.64000 1.413
72.66000 3.138
72.68000 1.925
72.70000 1.735
72.72000 1.255
72.74000 1.843
72.76000 4.008
72.78000 3.271
72.80000 0.490
72.82000 0.234
72.84000 0.770
72.86000 1.173
72.88000 0.397
72.90000 2.731
72.92000 3.088
72.94000 2.552
72.96000 1.666
72.98000 1.496
73.00000 2.640
73.02000 2.191
73.04000 3.042
73.06000 2.882
73.08000 1.757
73.10000 1.069
73.12000 1.420
73.14000 2.521
73.16000 3.621
73.18000 3.790
73.20000 1.678
73.22000 1.609
73.24000 5.039
73.26000 3.835
73.28000 -1.887
73.30000 -0.686
73.32000 1.251
73.34000 3.423
73.36000 3.247
73.38000 1.809
73.40000 0.734
73.42000 2.060
73.44000 2.730
73.46000 4.183
73.48000 3.014
73.50000 0.322
73.52000 -0.027
73.54000 0.828
73.56000 1.549
73.58000 4.928
73.60000 3.303
73.62000 3.695
73.64000 0.690
73.66000 1.418
73.68000 3.117
73.70000 -0.032
73.72000 1.396
73.74000 1.655
73.76000 1.395
73.78000 3.611
73.80000 4.549
73.82000 -0.584
73.84000 0.640
73.86000 2.926
73.88000 2.415
73.90000 2.358
73.92000 2.761
73.94000 3.899
73.96000 2.982
73.98000 3.985
74.00000 3.820
74.02000 2.813
74.04000 -0.141
74.06000 1.418
74.08000 1.689
74.10000 2.510
74.12000 0.602
74.14000 1.524
74.16000 3.145
74.18000 2.956
74.20000 -0.784
74.22000 -0.392
74.24000 -1.890
74.26000 0.738
74.28000 0.649
74.30000 5.197
74.32000 3.137
74.34000 -0.062
74.36000 0.764
74.38000 0.585
74.40000 -1.478
74.42000 1.063
74.44000 0.666
74.46000 -1.156
74.48000 1.307
74.50000 1.428
74.52000 1.954
74.54000 -0.178
74.56000 -0.562
74.58000 -0.217
74.60000 -0.898
74.62000 1.698
74.64000 -0.235
74.66000 -1.060
74.68000 3.139
74.70000 2.229
74.72000 3.934
74.74000 0.226
74.76000 0.413
74.78000 2.709
74.80000 1.381
74.82000 2.114
74.84000 1.830
74.86000 -0.297
74.88000 -0.818
74.90000 1.153
74.92000 -1.141
74.94000 0.216
74.96000 0.047
74.98000 1.251
75.00000 0.414
75.02000 -0.281
75.04000 1.523
75.06000 1.559
75.08000 1.142
75.10000 2.362
75.12000 3.317
75.14000 3.491
75.16000 3.286
75.18000 1.354
75.20000 1.291
75.22000 0.426
75.24000 -0.004
75.26000 0.621
75.28000 -0.025
75.30000 2.142
75.32000 -1.442
75.34000 -0.670
75.36000 -0.051
75.38000 3.107
75.40000 3.707
75.42000 3.884
75.44000 3.892
75.46000 1.523
75.48000 1.943
75.50000 0.940
75.52000 0.795
75.54000 0.858
75.56000 0.386
75.58000 2.402
75.60000 4.003
75.62000 2.431
75.64000 1.217
75.66000 1.863
75.68000 3.743
75.70000 5.209
75.72000 4.209
75.74000 2.209
75.76000 1.638
75.78000 1.224
75.80000 1.468
75.82000 -0.491
75.84000 2.765
75.86000 1.256
75.88000 2.154
75.90000 2.175
75.92000 5.207
75.94000 7.489
75.96000 6.654
75.98000 3.185
76.00000 2.558
76.02000 3.461
76.04000 1.893
76.06000 -1.337
76.08000 -1.855
76.10000 2.304
76.12000 4.043
76.14000 3.634
76.16000 2.776
76.18000 1.758
76.20000 3.058
76.22000 1.913
76.24000 4.071
76.26000 2.650
76.28000 5.623
76.30000 5.176
76.32000 2.474
76.34000 1.475
76.36000 2.442
76.38000 3.145
76.40000 1.981
76.42000 -0.795
76.44000 2.914
76.46000 2.982
76.48000 0.154
76.50000 -0.730
76.52000 3.603
76.54000 2.236
76.56000 2.581
76.58000 0.517
76.60000 1.752
76.62000 1.729
76.64000 3.412
76.66000 1.615
76.68000 -0.415
76.70000 -0.044
76.72000 -0.757
76.74000 -0.668
76.76000 0.201
76.78000 1.429
76.80000 1.265
76.82000 -1.244
76.84000 -0.694
76.86000 0.385
76.88000 1.153
76.90000 2.695
76.92000 1.440
76.94000 -0.140
76.96000 -1.752
76.98000 1.393
77.00000 3.658
77.02000 3.532
77.04000 -0.390
77.06000 1.395
77.08000 0.552
77.10000 2.743
77.12000 3.245
77.14000 2.320
77.16000 1.643
77.18000 2.210
77.20000 2.369
77.22000 0.386
77.24000 1.215
77.26000 3.124
77.28000 2.931
77.30000 4.558
77.32000 3.294
77.34000 0.344
77.36000 -1.068
77.38000 -0.166
77.40000 2.033
77.42000 -0.215
77.44000 0.302
77.46000 6.024
77.48000 4.090
77.50000 0.856
77.52000 1.418
77.54000 1.686
77.56000 2.481
77.58000 -1.934
77.60000 -0.108
77.62000 3.905
77.64000 2.507
77.66000 3.099
77.68000 4.362
77.70000 4.524
77.72000 2.081
77.74000 3.067
77.76000 0.971
77.78000 -0.803
77.80000 -0.318
77.82000 -1.235
77.84000 -0.521
77.86000 0.809
77.88000 0.944
77.90000 3.647
77.92000 3.527
77.94000 4.907
77.96000 3.483
77.98000 2.284
78.00000 1.250
78.02000 2.805
78.04000 2.580
78.06000 4.370
78.08000 1.637
78.10000 0.780
78.12000 -1.961
78.14000 0.987
78.16000 3.218
78.18000 2.100
78.20000 1.409
78.22000 1.797
78.24000 -0.354
78.26000 2.516
78.28000 -1.390
78.30000 -0.057
78.32000 -0.536
78.34000 -1.966
78.36000 -0.088
78.38000 2.733
78.40000 2.303
78.42000 0.343
78.44000 2.252
78.46000 2.916
78.48000 1.441
78.50000 2.856
78.52000 2.391
78.54000 1.821
78.56000 0.448
78.58000 1.736
78.60000 2.952
78.62000 -0.044
78.64000 -1.329
78.66000 0.930
78.68000 2.718
78.70000 0.164
78.72000 1.564
78.74000 3.555
78.76000 4.266
78.78000 1.752
78.80000 -0.651
78.82000 -1.144
78.84000 -0.269
78.86000 0.205
78.88000 2.888
78.90000 3.193
78.92000 2.892
78.94000 1.955
78.96000 5.726
78.98000 5.597
79.00000 1.592
79.02000 -1.975
79.04000 0.325
79.06000 0.174
79.08000 0.262
79.10000 -0.838
79.12000 1.336
79.14000 2.332
79.16000 -0.258
79.18000 -0.197
79.20000 4.903
79.22000 0.068
79.24000 1.693
79.26000 1.149
79.28000 0.690
79.30000 0.352
79.32000 1.384
79.34000 -0.140
79.36000 3.552
79.38000 2.698
79.40000 2.198
79.42000 4.457
79.44000 4.384
79.46000 0.771
79.48000 -2.046
79.50000 0.817
79.52000 -0.695
79.54000 -0.292
79.56000 -0.857
79.58000 0.389
79.60000 4.673
79.62000 -0.276
79.64000 -0.114
79.66000 -0.023
79.68000 4.881
79.70000 3.572
79.72000 4.454
79.74000 3.553
79.76000 2.266
79.78000 2.029
79.80000 1.983
79.82000 3.363
79.84000 2.390
79.86000 5.307
79.88000 3.207
79.90000 2.001
79.92000 3.797
79.94000 5.034
79.96000 2.032
79.98000 1.850
80.00000 3.626
80.02000 0.354
80.04000 3.411
80.06000 2.807
80.08000 3.214
80.10000 4.251
80.12000 5.455
80.14000 5.714
80.16000 2.736
80.18000 2.005
80.20000 2.373
80.22000 7.432
80.24000 8.465
80.26000 8.461
80.28000 7.052
80.30000 4.678
80.32000 7.615
80.34000 7.030
80.36000 5.131
80.38000 4.936
80.40000 3.712
80.42000 5.939
80.44000 10.420
80.46000 12.798
80.48000 10.166
80.50000 7.026
80.52000 11.770
80.54000 8.886
80.56000 7.804
80.58000 11.251
80.60000 15.914
80.62000 13.387
80.64000 13.821
80.66000 14.831
80.68000 11.846
80.70000 10.735
80.72000 11.355
80.74000 15.146
80.76000 17.582
80.78000 17.484
80.80000 13.799
80.82000 13.008
80.84000 16.440
80.86000 13.321
80.88000 15.598
80.90000 17.345
80.92000 21.049
80.94000 18.024
80.96000 17.456
80.98000 18.168
81.00000 17.653
81.02000 19.155
81.04000 19.905
81.06000 19.556
81.08000 18.360
81.10000 19.120
81.12000 18.144
81.14000 17.526
81.16000 15.571
81.18000 17.784
81.20000 22.510
81.22000 23.072
81.24000 18.963
81.26000 20.515
81.28000 20.111
81.30000 16.928
81.32000 19.230
81.34000 19.421
81.36000 20.495
81.38000 18.536
81.40000 21.713
81.42000 19.157
81.44000 18.747
81.46000 20.134
81.48000 17.906
81.50000 17.325
81.52000 17.790
81.54000 16.467
81.56000 16.028
81.58000 14.885
81.60000 15.852
81.62000 16.291
81.64000 14.363
81.66000 13.849
81.68000 14.055
81.70000 12.545
81.72000 13.133
81.74000 14.228
81.76000 12.618
81.78000 10.575
81.80000 9.361
81.82000 5.105
81.84000 6.033
81.86000 6.205
81.88000 8.287
81.90000 7.343
81.92000 10.605
81.94000 9.256
81.96000 6.498
81.98000 3.478
82.00000 4.884
82.02000 5.595
82.04000 6.063
82.06000 7.306
82.08000 6.182
82.10000 5.450
82.12000 5.794
82.14000 3.822
82.16000 4.073
82.18000 4.018
82.20000 3.593
82.22000 3.703
82.24000 6.462
82.26000 5.744
82.28000 3.381
82.30000 2.660
82.32000 1.265
82.34000 4.376
82.36000 3.428
82.38000 1.603
82.40000 5.633
82.42000 3.026
82.44000 3.547
82.46000 4.371
82.48000 1.065
82.50000 2.212
82.52000 4.484
82.54000 5.834
82.56000 4.150
82.58000 2.309
82.60000 4.298
82.62000 3.345
82.64000 4.405
82.66000 4.540
82.68000 2.272
82.70000 1.264
82.72000 2.035
82.74000 0.904
82.76000 0.813
82.78000 3.792
82.80000 2.707
82.82000 1.917
82.84000 3.237
82.86000 1.358
82.88000 -2.042
82.90000 -1.570
82.92000 -0.897
82.94000 2.220
82.96000 3.186
82.98000 2.705
83.00000 3.340
83.02000 0.411
83.04000 -2.054
83.06000 -0.934
83.08000 4.543
83.10000 4.732
83.12000 2.110
83.14000 -0.784
83.16000 4.609
83.18000 6.697
83.20000 4.963
83.22000 -1.027
83.24000 0.292
83.26000 0.393
83.28000 0.918
83.30000 2.844
83.32000 0.605
83.34000 2.294
83.36000 0.402
83.38000 3.402
83.40000 5.111
83.42000 5.304
83.44000 6.015
83.46000 6.806
83.48000 2.687
83.50000 0.858
83.52000 1.249
83.54000 1.211
83.56000 4.645
83.58000 5.354
83.60000 4.488
83.62000 3.829
83.64000 6.735
83.66000 6.400
83.68000 4.016
83.70000 1.747
83.72000 -2.084
83.74000 -0.516
83.76000 0.015
83.78000 3.015
83.80000 4.345
83.82000 4.487
83.84000 3.948
83.86000 3.042
83.88000 4.623
83.90000 4.498
83.92000 4.198
83.94000 4.463
83.96000 7.055
83.98000 6.282
84.00000 5.061
84.02000 4.837
84.04000 7.137
84.06000 5.071
84.08000 2.807
84.10000 0.901
84.12000 3.033
84.14000 2.253
84.16000 1.467
84.18000 4.663
84.20000 5.019
84.22000 7.314
84.24000 7.681
84.26000 8.651
84.28000 6.052
84.30000 6.998
84.32000 6.185
84.34000 6.388
84.36000 5.705
84.38000 8.082
84.40000 9.832
84.42000 9.090
84.44000 12.584
84.46000 13.303
84.48000 12.729
84.50000 13.109
84.52000 13.969
84.54000 15.484
84.56000 14.446
84.58000 13.735
84.60000 16.833
84.62000 14.860
84.64000 14.748
84.66000 16.499
84.68000 19.749
84.70000 21.747
84.72000 19.285
84.74000 17.162
84.76000 18.583
84.78000 19.238
84.80000 18.053
84.82000 17.295
84.84000 19.719
84.86000 20.689
84.88000 19.815
84.90000 23.771
84.92000 24.566
84.94000 26.358
84.96000 20.346
84.98000 22.050
85.00000 24.311
85.02000 27.027
85.04000 26.178
85.06000 22.709
85.08000 20.908
85.10000 21.543
85.12000 22.344
85.14000 21.449
85.16000 22.516
85.18000 23.152
85.20000 22.545
85.22000 23.604
85.24000 27.938
85.26000 26.958
85.28000 23.753
85.30000 20.412
85.32000 21.813
85.34000 18.384
85.36000 20.311
85.38000 19.851
85.40000 20.166
85.42000 22.275
85.44000 19.713
85.46000 21.676
85.48000 17.013
85.50000 13.906
85.52000 16.177
85.54000 16.846
85.56000 17.159
85.58000 15.523
85.60000 13.759
85.62000 13.412
85.64000 15.363
85.66000 12.790
85.68000 15.534
85.70000 17.718
85.72000 15.196
85.74000 11.783
85.76000 10.584
85.78000 8.125
85.80000 8.063
85.82000 8.279
85.84000 9.458
85.86000 10.674
85.88000 10.751
85.90000 8.449
85.92000 5.478
85.94000 8.525
85.96000 7.856
85.98000 6.167
86.00000 6.840
86.02000 8.028
86.04000 5.285
86.06000 2.282
86.08000 2.297
86.10000 1.728
86.12000 3.209
86.14000 5.901
86.16000 5.099
86.18000 -0.162
86.20000 4.368
86.22000 7.027
86.24000 6.362
86.26000 4.658
86.28000 2.415
86.30000 3.154
86.32000 2.007
86.34000 0.127
86.36000 -0.623
86.38000 1.502
86.40000 1.210
86.42000 1.516
86.44000 1.001
86.46000 1.251
86.48000 -1.911
86.50000 -0.448
86.52000 2.635
86.54000 4.132
86.56000 1.809
86.58000 2.291
86.60000 2.548
86.62000 -0.072
86.64000 1.328
86.66000 -0.627
86.68000 1.764
86.70000 5.770
86.72000 4.960
86.74000 1.699
86.76000 0.918
86.78000 0.595
86.80000 3.300
86.82000 5.469
86.84000 1.901
86.86000 0.848
86.88000 1.939
86.90000 2.407
86.92000 2.758
86.94000 1.838
86.96000 1.947
86.98000 2.153
87.00000 1.250
87.02000 -1.847
87.04000 4.373
87.06000 2.549
87.08000 2.013
87.10000 2.066
87.12000 0.460
87.14000 -0.179
87.16000 0.829
87.18000 1.698
87.20000 0.221
87.22000 0.380
87.24000 -0.568
87.26000 0.377
87.28000 0.630
87.30000 1.859
87.32000 1.545
87.34000 1.395
87.36000 0.823
87.38000 2.991
87.40000 1.588
87.42000 1.744
87.44000 3.455
87.46000 2.360
87.48000 3.464
87.50000 -0.037
87.52000 -0.267
87.54000 0.967
87.56000 4.802
87.58000 1.692
87.60000 0.736
87.62000 -0.081
87.64000 -1.822
87.66000 -1.118
87.68000 0.579
87.70000 1.005
87.72000 0.353
87.74000 0.734
87.76000 -0.447
87.78000 0.436
87.80000 1.611
87.82000 3.023
87.84000 3.002
87.86000 2.438
87.88000 3.080
87.90000 1.134
87.92000 1.763
87.94000 3.283
87.96000 4.695
87.98000 4.703
88.00000 1.865
88.02000 0.778
88.04000 2.595
88.06000 3.731
88.08000 2.190
88.10000 2.428
88.12000 3.399
88.14000 5.272
88.16000 1.766
88.18000 4.163
88.20000 4.235
88.22000 1.405
88.24000 0.407
88.26000 1.512
88.28000 2.630
88.30000 0.184
88.32000 0.521
88.34000 3.119
88.36000 1.156
88.38000 -0.126
88.40000 -1.471
88.42000 -1.780
88.44000 1.889
88.46000 2.770
88.48000 3.389
88.50000 1.670
88.52000 0.287
88.54000 2.582
88.56000 4.365
88.58000 3.873
88.60000 3.447
88.62000 3.820
88.64000 1.537
88.66000 3.538
88.68000 6.728
88.70000 5.450
88.72000 1.915
88.74000 0.629
88.76000 -1.750
88.78000 -0.365
88.80000 4.723
88.82000 5.920
88.84000 4.996
88.86000 2.429
88.88000 1.173
88.90000 1.445
88.92000 1.888
88.94000 1.890
88.96000 1.284
88.98000 4.109
89.00000 6.683
89.02000 3.553
89.04000 3.365
89.06000 0.769
89.08000 0.764
89.10000 0.674
89.12000 -0.091
89.14000 0.492
89.16000 1.725
89.18000 4.245
89.20000 5.228
89.22000 2.197
89.24000 2.863
89.26000 2.829
89.28000 1.248
89.30000 0.683
89.32000 1.014
89.34000 -0.267
89.36000 0.355
89.38000 0.887
89.40000 3.850
89.42000 4.409
89.44000 4.504
89.46000 2.576
89.48000 1.612
89.50000 3.240
89.52000 0.430
89.54000 -1.491
89.56000 -0.236
89.58000 4.085
89.60000 3.863
89.62000 1.489
89.64000 -0.204
89.66000 -0.161
89.68000 2.189
89.70000 1.747
89.72000 2.089
89.74000 -0.932
89.76000 -0.347
89.78000 -1.789
89.80000 -0.460
89.82000 1.800
89.84000 1.977
89.86000 1.099
89.88000 3.641
89.90000 2.465
89.92000 4.089
89.94000 4.642
89.96000 2.517
89.98000 0.685
90.00000 1.828
90.02000 3.612
90.04000 2.305
90.06000 0.104
90.08000 0.989
90.10000 0.824
90.12000 -0.713
90.14000 2.714
90.16000 2.055
90.18000 -0.043
90.20000 -0.464
90.22000 0.702
90.24000 0.856
90.26000 -0.647
90.28000 -0.074
90.30000 -0.060
90.32000 2.188
90.34000 0.013
90.36000 -0.557
90.38000 0.365
90.40000 1.755
90.42000 1.308
90.44000 -1.770
90.46000 2.146
90.48000 3.981
90.50000 3.823
90.52000 3.105
90.54000 1.771
90.56000 4.676
90.58000 5.994
90.60000 5.098
90.62000 2.718
90.64000 4.753
90.66000 4.504
90.68000 6.140
90.70000 5.016
90.72000 3.389
90.74000 3.406
90.76000 5.913
90.78000 5.333
90.80000 2.854
90.82000 2.604
90.84000 2.844
90.86000 1.784
90.88000 4.385
90.90000 2.738
90.92000 5.925
90.94000 4.016
90.96000 3.329
90.98000 3.790
91.00000 3.236
91.02000 0.558
91.04000 -1.726
91.06000 2.549
91.08000 4.180
91.10000 2.627
91.12000 2.601
91.14000 3.938
91.16000 5.220
91.18000 1.320
91.20000 0.866
91.22000 3.572
91.24000 4.435
91.26000 7.018
91.28000 6.650
91.30000 3.655
91.32000 1.951
91.34000 1.498
91.36000 3.914
91.38000 3.556
91.40000 3.452
91.42000 3.289
91.44000 3.012
91.46000 1.370
91.48000 3.693
91.50000 4.375
91.52000 4.445
91.54000 3.316
91.56000 -1.747
91.58000 -0.876
91.60000 -0.341
91.62000 0.126
91.64000 1.718
91.66000 2.822
91.68000 0.861
91.70000 3.407
91.72000 3.915
91.74000 2.027
91.76000 2.762
91.78000 0.983
91.80000 4.691
91.82000 4.671
91.84000 2.515
91.86000 2.638
91.88000 1.356
91.90000 3.261
91.92000 4.704
91.94000 6.484
91.96000 2.545
91.98000 3.553
92.00000 3.835
92.02000 5.452
92.04000 7.451
92.06000 3.296
92.08000 2.489
92.10000 3.310
92.12000 2.743
92.14000 5.370
92.16000 3.402
92.18000 5.328
92.20000 5.641
92.22000 2.953
92.24000 -1.786
92.26000 -0.804
92.28000 1.008
92.30000 0.472
92.32000 0.667
92.34000 0.563
92.36000 5.179
92.38000 4.457
92.40000 0.465
92.42000 0.103
92.44000 2.640
92.46000 2.101
92.48000 -0.959
92.50000 -0.110
92.52000 1.491
92.54000 2.792
92.56000 -0.885
92.58000 1.201
92.60000 1.089
92.62000 1.204
92.64000 0.446
92.66000 1.361
92.68000 2.872
92.70000 1.293
92.72000 1.102
92.74000 3.599
92.76000 0.905
92.78000 0.661
92.80000 0.027
92.82000 0.719
92.84000 -0.381
92.86000 -0.241
92.88000 -0.108
92.90000 -0.396
92.92000 -0.945
92.94000 1.441
92.96000 2.884
92.98000 2.142
93.00000 0.040
93.02000 0.009
93.04000 2.704
93.06000 0.374
93.08000 0.481
93.10000 -1.142
93.12000 2.269
93.14000 1.311
93.16000 1.777
93.18000 2.828
93.20000 0.887
93.22000 -0.173
93.24000 0.524
93.26000 2.554
93.28000 5.114
93.30000 4.014
93.32000 3.354
93.34000 2.635
93.36000 1.875
93.38000 1.567
93.40000 0.575
93.42000 -1.693
93.44000 1.008
93.46000 -0.806
93.48000 1.386
93.50000 1.274
93.52000 0.539
93.54000 2.113
93.56000 3.280
93.58000 4.786
93.60000 3.035
93.62000 1.920
93.64000 1.743
93.66000 2.868
93.68000 4.091
93.70000 3.718
93.72000 2.919
93.74000 0.882
93.76000 -1.794
93.78000 -1.368
93.80000 0.852
93.82000 2.069
93.84000 1.775
93.86000 1.651
93.88000 1.353
93.90000 0.474
93.92000 0.452
93.94000 0.659
93.96000 3.676
93.98000 4.090
94.00000 3.940
94.02000 8.700
94.04000 6.306
94.06000 3.589
94.08000 3.907
94.10000 1.102
94.12000 3.466
94.14000 5.644
94.16000 2.672
94.18000 4.800
94.20000 2.464
94.22000 1.365
94.24000 0.262
94.26000 0.629
94.28000 4.274
94.30000 3.715
94.32000 3.061
94.34000 1.124
94.36000 -0.275
94.38000 1.852
94.40000 2.572
94.42000 -1.445
94.44000 -1.761
94.46000 3.594
94.48000 3.797
94.50000 2.998
94.52000 3.537
94.54000 1.016
94.56000 1.111
94.58000 3.860
94.60000 2.908
94.62000 3.984
94.64000 4.302
94.66000 5.018
94.68000 5.888
94.70000 5.293
94.72000 5.236
94.74000 3.083
94.76000 2.393
94.78000 3.973
94.80000 6.468
94.82000 3.053
94.84000 3.848
94.86000 5.510
94.88000 4.555
94.90000 3.380
94.92000 4.211
94.94000 3.312
94.96000 4.169
94.98000 3.618
95.00000 1.989
95.02000 3.010
95.04000 3.156
95.06000 3.273
95.08000 5.872
95.10000 -0.292
95.12000 3.914
95.14000 6.967
95.16000 5.263
95.18000 4.749
95.20000 5.522
95.22000 3.842
95.24000 2.774
95.26000 5.549
95.28000 3.764
95.30000 1.574
95.32000 -1.763
95.34000 -1.225
95.36000 3.043
95.38000 5.602
95.40000 4.660
95.42000 0.583
95.44000 1.384
95.46000 4.037
95.48000 2.321
95.50000 3.050
95.52000 2.874
95.54000 3.765
95.56000 2.109
95.58000 0.769
95.60000 3.501
95.62000 1.762
95.64000 -1.792
95.66000 0.814
95.68000 3.196
95.70000 5.346
95.72000 5.472
95.74000 3.739
95.76000 3.604
95.78000 3.720
95.80000 1.391
95.82000 3.736
95.84000 2.125
95.86000 1.688
95.88000 2.168
95.90000 4.141
95.92000 6.200
95.94000 5.959
95.96000 3.818
95.98000 2.865
96.00000 -1.355
96.02000 0.956
96.04000 5.351
96.06000 5.509
96.08000 -0.880
96.10000 -0.803
96.12000 2.242
96.14000 1.048
96.16000 -0.055
96.18000 0.432
96.20000 0.290
96.22000 -0.133
96.24000 -0.617
96.26000 1.154
96.28000 3.081
96.30000 0.662
96.32000 -0.854
96.34000 -1.027
96.36000 1.736
96.38000 4.895
96.40000 5.771
96.42000 2.348
96.44000 2.786
96.46000 -0.067
96.48000 -1.826
96.50000 -1.356
96.52000 0.707
96.54000 3.912
96.56000 4.188
96.58000 4.994
96.60000 3.074
96.62000 0.060
96.64000 -1.390
96.66000 1.198
96.68000 1.453
96.70000 3.898
96.72000 1.274
96.74000 0.305
96.76000 2.334
96.78000 3.375
96.80000 0.777
96.82000 1.303
96.84000 1.212
96.86000 2.495
96.88000 0.602
96.90000 0.382
96.92000 1.294
96.94000 0.136
96.96000 0.293
96.98000 1.340
97.00000 4.766
97.02000 6.819
97.04000 2.863
97.06000 3.136
97.08000 3.330
97.10000 0.998
97.12000 2.564
97.14000 6.994
97.16000 4.647
97.18000 3.680
97.20000 0.714
97.22000 0.274
97.24000 4.964
97.26000 0.759
97.28000 -1.811
97.30000 0.660
97.32000 1.362
97.34000 -0.237
97.36000 3.336
97.38000 0.747
97.40000 1.117
97.42000 3.508
97.44000 1.009
97.46000 1.984
97.48000 0.763
97.50000 3.781
97.52000 3.297
97.54000 1.904
97.56000 0.458
97.58000 1.197
97.60000 0.437
97.62000 -1.020
97.64000 -0.684
97.66000 0.550
97.68000 2.419
97.70000 4.676
97.72000 1.789
97.74000 0.969
97.76000 1.921
97.78000 2.923
97.80000 0.805
97.82000 4.592
97.84000 3.017
97.86000 -0.056
97.88000 3.854
97.90000 2.369
97.92000 4.360
97.94000 5.597
97.96000 1.228
97.98000 2.201
98.00000 3.505
98.02000 1.998
98.04000 5.390
98.06000 3.385
98.08000 -1.223
98.10000 -1.063
98.12000 2.511
98.14000 3.147
98.16000 1.231
98.18000 -1.224
98.20000 3.193
98.22000 3.138
98.24000 4.311
98.26000 3.042
98.28000 2.366
98.30000 4.395
98.32000 3.190
98.34000 5.550
98.36000 2.881
98.38000 2.232
98.40000 1.489
98.42000 2.794
98.44000 -0.216
98.46000 1.266
98.48000 2.720
98.50000 4.534
98.52000 5.591
98.54000 3.149
98.56000 3.894
98.58000 5.473
98.60000 4.548
98.62000 -1.711
98.64000 3.630
98.66000 6.198
98.68000 5.956
98.70000 -1.218
98.72000 1.994
98.74000 3.071
98.76000 4.575
98.78000 8.181
98.80000 7.448
98.82000 12.473
98.84000 7.712
98.86000 7.919
98.88000 2.844
98.90000 -1.679
98.92000 4.539
98.94000 6.150
98.96000 10.421
98.98000 8.011
99.00000 13.985
99.02000 5.802
99.04000 8.459
99.06000 7.050
99.08000 10.216
99.10000 4.268
99.12000 8.383
99.14000 6.080
99.16000 9.034
99.18000 5.732
99.20000 8.252
99.22000 4.205
99.24000 6.247
99.26000 5.581
99.28000 7.999
99.30000 8.522
99.32000 4.764
99.34000 4.468
99.36000 4.753
99.38000 6.358
99.40000 -1.712
99.42000 -0.193
99.44000 -1.302
99.46000 3.268
99.48000 4.554
99.50000 1.740
99.52000 1.046
99.54000 2.122
99.56000 4.028
99.58000 4.622
99.60000 1.469
99.62000 5.830
99.64000 12.709
99.66000 2.006
99.68000 4.610
99.70000 3.898
99.72000 4.869
99.74000 0.196
99.76000 1.562
99.78000 4.862
99.80000 4.319
99.82000 7.819
99.84000 0.522
99.86000 2.770
99.88000 -1.833
99.90000 -1.851
99.92000 -1.212
99.94000 2.506
99.96000 4.101
99.98000 0.000
