'Id: "0011387" Comment: "Integrate frame 0011387_Au-Ir-Rh_Rh-rich_XRD-Mapping-061-0000.gfrmwith cursor Wedge Cursor #5" Operator: "B?rgel" Anode: "Cu" Wavelength: "1.5406" Scantype: "2Theta (TwoTheta)" TimePerStep: "1" X: "-18" Y: "-22.5" Z: "5.95" 
10.00000 0.000
10.02000 -4.455
10.04000 -0.395
10.06000 8.044
10.08000 9.625
10.10000 23.203
10.12000 9.027
10.14000 9.915
10.16000 -1.047
10.18000 5.696
10.20000 17.125
10.22000 6.037
10.24000 7.648
10.26000 11.013
10.28000 12.234
10.30000 15.214
10.32000 -0.456
10.34000 -1.339
10.36000 -4.390
10.38000 9.502
10.40000 9.942
10.42000 12.240
10.44000 18.651
10.46000 14.222
10.48000 12.844
10.50000 26.061
10.52000 16.603
10.54000 6.349
10.56000 7.590
10.58000 0.706
10.60000 3.236
10.62000 15.106
10.64000 11.063
10.66000 21.245
10.68000 18.247
10.70000 0.199
10.72000 7.366
10.74000 11.176
10.76000 0.401
10.78000 6.912
10.80000 14.624
10.82000 17.033
10.84000 6.567
10.86000 19.492
10.88000 22.075
10.90000 19.697
10.92000 19.274
10.94000 20.185
10.96000 22.890
10.98000 3.456
11.00000 4.641
11.02000 9.706
11.04000 7.997
11.06000 5.435
11.08000 5.713
11.10000 -1.824
11.12000 12.410
11.14000 7.735
11.16000 6.865
11.18000 17.150
11.20000 -3.627
11.22000 2.215
11.24000 21.359
11.26000 17.576
11.28000 11.542
11.30000 6.792
11.32000 -0.104
11.34000 16.527
11.36000 25.748
11.38000 5.186
11.40000 12.364
11.42000 -4.406
11.44000 -0.981
11.46000 -0.528
11.48000 15.216
11.50000 11.216
11.52000 1.676
11.54000 6.949
11.56000 5.139
11.58000 2.134
11.60000 22.971
11.62000 26.917
11.64000 23.671
11.66000 22.336
11.68000 16.426
11.70000 16.068
11.72000 10.990
11.74000 9.620
11.76000 25.006
11.78000 21.318
11.80000 18.611
11.82000 13.166
11.84000 6.622
11.86000 3.864
11.88000 10.944
11.90000 3.427
11.92000 1.465
11.94000 8.758
11.96000 7.770
11.98000 3.062
12.00000 2.921
12.02000 6.552
12.04000 9.326
12.06000 8.435
12.08000 12.040
12.10000 21.252
12.12000 10.000
12.14000 7.265
12.16000 8.972
12.18000 6.634
12.20000 16.686
12.22000 15.570
12.24000 14.865
12.26000 -2.139
12.28000 -4.441
12.30000 -3.611
12.32000 3.815
12.34000 7.635
12.36000 4.738
12.38000 10.622
12.40000 8.368
12.42000 8.783
12.44000 10.093
12.46000 17.449
12.48000 17.301
12.50000 16.255
12.52000 9.399
12.54000 8.415
12.56000 12.719
12.58000 12.661
12.60000 9.985
12.62000 4.776
12.64000 7.528
12.66000 6.719
12.68000 19.483
12.70000 22.324
12.72000 7.152
12.74000 12.710
12.76000 15.668
12.78000 10.424
12.80000 6.705
12.82000 2.481
12.84000 5.953
12.86000 4.732
12.88000 24.455
12.90000 16.184
12.92000 4.943
12.94000 15.476
12.96000 15.712
12.98000 13.799
13.00000 1.739
13.02000 0.745
13.04000 8.901
13.06000 4.933
13.08000 -4.459
13.10000 3.041
13.12000 13.800
13.14000 15.115
13.16000 15.065
13.18000 6.944
13.20000 0.728
13.22000 3.047
13.24000 1.957
13.26000 -2.219
13.28000 7.555
13.30000 10.902
13.32000 6.618
13.34000 6.543
13.36000 11.325
13.38000 16.114
13.40000 10.504
13.42000 7.341
13.44000 7.063
13.46000 13.444
13.48000 14.684
13.50000 3.751
13.52000 10.470
13.54000 14.778
13.56000 8.658
13.58000 4.494
13.60000 -0.644
13.62000 7.241
13.64000 13.533
13.66000 12.055
13.68000 16.147
13.70000 11.792
13.72000 5.790
13.74000 2.820
13.76000 0.764
13.78000 -3.744
13.80000 3.022
13.82000 2.997
13.84000 3.996
13.86000 8.398
13.88000 7.427
13.90000 7.925
13.92000 7.885
13.94000 12.688
13.96000 7.176
13.98000 11.397
14.00000 7.504
14.02000 2.896
14.04000 -4.454
14.06000 -0.650
14.08000 2.131
14.10000 10.627
14.12000 8.325
14.14000 1.833
14.16000 3.294
14.18000 12.767
14.20000 7.164
14.22000 6.438
14.24000 10.663
14.26000 2.980
14.28000 -1.783
14.30000 2.076
14.32000 0.243
14.34000 -0.303
14.36000 3.453
14.38000 3.401
14.40000 -0.719
14.42000 7.055
14.44000 15.169
14.46000 21.499
14.48000 10.411
14.50000 3.244
14.52000 -0.321
14.54000 0.412
14.56000 7.753
14.58000 5.711
14.60000 8.674
14.62000 -0.839
14.64000 -1.287
14.66000 4.612
14.68000 9.712
14.70000 5.245
14.72000 4.873
14.74000 1.663
14.76000 5.824
14.78000 6.756
14.80000 1.557
14.82000 -3.564
14.84000 -0.599
14.86000 0.207
14.88000 5.277
14.90000 11.527
14.92000 9.188
14.94000 3.102
14.96000 6.510
14.98000 4.713
15.00000 7.089
15.02000 -1.607
15.04000 -0.758
15.06000 3.173
15.08000 9.774
15.10000 10.960
15.12000 10.592
15.14000 8.755
15.16000 14.370
15.18000 8.735
15.20000 2.131
15.22000 2.789
15.24000 4.948
15.26000 8.795
15.28000 11.743
15.30000 10.476
15.32000 8.835
15.34000 10.307
15.36000 9.778
15.38000 5.431
15.40000 14.099
15.42000 9.132
15.44000 4.207
15.46000 13.529
15.48000 17.782
15.50000 13.308
15.52000 10.208
15.54000 3.827
15.56000 5.481
15.58000 0.294
15.60000 4.495
15.62000 10.608
15.64000 12.623
15.66000 15.843
15.68000 4.639
15.70000 10.350
15.72000 17.945
15.74000 13.105
15.76000 15.406
15.78000 13.480
15.80000 8.461
15.82000 2.450
15.84000 6.982
15.86000 5.143
15.88000 -2.606
15.90000 -4.385
15.92000 -1.301
15.94000 5.179
15.96000 7.383
15.98000 10.482
16.00000 1.978
16.02000 3.586
16.04000 7.947
16.06000 6.412
16.08000 4.668
16.10000 -3.780
16.12000 -2.467
16.14000 2.916
16.16000 1.512
16.18000 -2.836
16.20000 1.282
16.22000 7.349
16.24000 11.634
16.26000 5.864
16.28000 8.746
16.30000 1.630
16.32000 -0.462
16.34000 12.670
16.36000 10.439
16.38000 9.094
16.40000 8.649
16.42000 5.057
16.44000 4.988
16.46000 2.706
16.48000 8.576
16.50000 7.251
16.52000 4.524
16.54000 9.020
16.56000 11.740
16.58000 2.039
16.60000 0.136
16.62000 5.212
16.64000 3.194
16.66000 3.051
16.68000 4.889
16.70000 4.240
16.72000 5.725
16.74000 3.806
16.76000 7.737
16.78000 13.380
16.80000 8.154
16.82000 6.583
16.84000 6.144
16.86000 0.780
16.88000 -3.320
16.90000 -3.565
16.92000 -1.802
16.94000 1.458
16.96000 -0.786
16.98000 2.445
17.00000 6.898
17.02000 4.667
17.04000 1.853
17.06000 0.500
17.08000 9.960
17.10000 5.924
17.12000 2.330
17.14000 4.941
17.16000 5.154
17.18000 1.807
17.20000 2.055
17.22000 1.858
17.24000 3.504
17.26000 3.458
17.28000 7.892
17.30000 10.735
17.32000 -0.218
17.34000 1.031
17.36000 -1.229
17.38000 3.216
17.40000 6.017
17.42000 3.602
17.44000 4.325
17.46000 12.095
17.48000 8.800
17.50000 4.355
17.52000 4.695
17.54000 7.003
17.56000 3.654
17.58000 3.991
17.60000 4.026
17.62000 1.736
17.64000 6.874
17.66000 9.161
17.68000 0.544
17.70000 -0.185
17.72000 8.853
17.74000 10.047
17.76000 8.734
17.78000 3.777
17.80000 2.788
17.82000 2.332
17.84000 5.625
17.86000 2.335
17.88000 -1.598
17.90000 -4.001
17.92000 -0.783
17.94000 5.480
17.96000 7.659
17.98000 11.871
18.00000 6.922
18.02000 8.620
18.04000 1.964
18.06000 -0.982
18.08000 -4.300
18.10000 -4.126
18.12000 1.373
18.14000 7.737
18.16000 6.556
18.18000 3.655
18.20000 6.167
18.22000 2.014
18.24000 5.285
18.26000 6.822
18.28000 4.476
18.30000 4.015
18.32000 8.085
18.34000 6.670
18.36000 12.214
18.38000 8.844
18.40000 5.993
18.42000 4.852
18.44000 -0.910
18.46000 -2.383
18.48000 2.749
18.50000 2.017
18.52000 -1.505
18.54000 -2.877
18.56000 2.218
18.58000 0.127
18.60000 5.026
18.62000 5.890
18.64000 3.933
18.66000 3.418
18.68000 2.445
18.70000 1.037
18.72000 5.600
18.74000 6.308
18.76000 3.235
18.78000 3.302
18.80000 3.389
18.82000 6.144
18.84000 7.304
18.86000 -0.818
18.88000 -0.015
18.90000 2.478
18.92000 1.246
18.94000 4.319
18.96000 5.225
18.98000 3.427
19.00000 5.590
19.02000 1.180
19.04000 4.154
19.06000 5.920
19.08000 6.330
19.10000 4.944
19.12000 4.075
19.14000 3.849
19.16000 7.304
19.18000 7.553
19.20000 8.521
19.22000 -1.676
19.24000 3.191
19.26000 1.197
19.28000 -0.397
19.30000 1.757
19.32000 0.180
19.34000 -0.997
19.36000 3.757
19.38000 11.191
19.40000 11.933
19.42000 3.037
19.44000 -1.036
19.46000 -3.515
19.48000 -4.220
19.50000 -3.474
19.52000 -2.643
19.54000 3.013
19.56000 8.028
19.58000 7.572
19.60000 4.489
19.62000 4.368
19.64000 6.296
19.66000 3.362
19.68000 -0.507
19.70000 0.212
19.72000 0.177
19.74000 0.034
19.76000 1.482
19.78000 0.714
19.80000 1.753
19.82000 8.907
19.84000 7.874
19.86000 9.095
19.88000 8.706
19.90000 8.750
19.92000 5.028
19.94000 5.051
19.96000 -0.190
19.98000 6.820
20.00000 10.509
20.02000 9.181
20.04000 7.099
20.06000 5.442
20.08000 6.741
20.10000 7.730
20.12000 2.373
20.14000 -3.442
20.16000 -4.170
20.18000 3.438
20.20000 3.273
20.22000 5.991
20.24000 3.007
20.26000 5.487
20.28000 4.083
20.30000 -1.419
20.32000 5.344
20.34000 4.658
20.36000 5.235
20.38000 7.121
20.40000 11.730
20.42000 6.595
20.44000 2.329
20.46000 6.476
20.48000 1.837
20.50000 3.170
20.52000 7.381
20.54000 12.400
20.56000 7.955
20.58000 4.477
20.60000 8.671
20.62000 7.437
20.64000 10.195
20.66000 5.642
20.68000 2.231
20.70000 3.156
20.72000 1.107
20.74000 -1.118
20.76000 4.354
20.78000 8.597
20.80000 1.934
20.82000 3.110
20.84000 5.797
20.86000 8.576
20.88000 10.332
20.90000 1.637
20.92000 -1.189
20.94000 -0.258
20.96000 4.665
20.98000 7.088
21.00000 10.202
21.02000 3.026
21.04000 -3.789
21.06000 5.985
21.08000 -1.428
21.10000 -2.053
21.12000 2.627
21.14000 2.033
21.16000 -2.318
21.18000 0.060
21.20000 4.910
21.22000 7.675
21.24000 3.404
21.26000 -0.826
21.28000 4.347
21.30000 4.972
21.32000 2.983
21.34000 2.781
21.36000 6.401
21.38000 4.665
21.40000 0.012
21.42000 6.078
21.44000 6.057
21.46000 3.775
21.48000 7.228
21.50000 5.295
21.52000 5.005
21.54000 5.841
21.56000 -0.170
21.58000 2.597
21.60000 9.232
21.62000 7.996
21.64000 5.225
21.66000 3.257
21.68000 1.343
21.70000 3.257
21.72000 5.140
21.74000 2.612
21.76000 -1.462
21.78000 -4.094
21.80000 10.670
21.82000 10.078
21.84000 0.486
21.86000 0.712
21.88000 5.319
21.90000 8.215
21.92000 7.840
21.94000 7.610
21.96000 9.080
21.98000 11.247
22.00000 6.239
22.02000 0.588
22.04000 -2.749
22.06000 -2.040
22.08000 1.157
22.10000 2.950
22.12000 -1.618
22.14000 1.256
22.16000 2.525
22.18000 6.972
22.20000 6.010
22.22000 4.247
22.24000 5.856
22.26000 -2.148
22.28000 0.321
22.30000 -2.070
22.32000 7.184
22.34000 8.206
22.36000 6.841
22.38000 2.323
22.40000 4.763
22.42000 1.199
22.44000 3.291
22.46000 8.430
22.48000 0.960
22.50000 8.626
22.52000 4.464
22.54000 0.743
22.56000 1.276
22.58000 3.184
22.60000 3.526
22.62000 5.247
22.64000 4.965
22.66000 3.487
22.68000 2.823
22.70000 2.627
22.72000 -1.174
22.74000 1.807
22.76000 2.765
22.78000 9.085
22.80000 7.364
22.82000 1.161
22.84000 0.643
22.86000 -2.540
22.88000 -4.020
22.90000 2.329
22.92000 7.358
22.94000 2.563
22.96000 3.789
22.98000 8.490
23.00000 6.938
23.02000 7.119
23.04000 0.525
23.06000 -0.258
23.08000 4.948
23.10000 8.927
23.12000 1.898
23.14000 0.240
23.16000 -4.007
23.18000 -2.468
23.20000 5.758
23.22000 6.894
23.24000 5.731
23.26000 3.023
23.28000 2.336
23.30000 3.994
23.32000 5.408
23.34000 4.778
23.36000 1.797
23.38000 -2.187
23.40000 2.576
23.42000 3.289
23.44000 5.207
23.46000 9.991
23.48000 8.357
23.50000 1.898
23.52000 8.893
23.54000 12.244
23.56000 4.862
23.58000 3.398
23.60000 2.345
23.62000 1.979
23.64000 1.600
23.66000 3.571
23.68000 5.653
23.70000 7.209
23.72000 6.649
23.74000 8.806
23.76000 5.481
23.78000 4.362
23.80000 6.388
23.82000 8.203
23.84000 8.033
23.86000 6.793
23.88000 1.917
23.90000 9.790
23.92000 5.227
23.94000 1.962
23.96000 3.888
23.98000 2.954
24.00000 1.337
24.02000 2.874
24.04000 7.838
24.06000 11.179
24.08000 10.862
24.10000 4.530
24.12000 0.834
24.14000 1.062
24.16000 -0.430
24.18000 1.784
24.20000 8.468
24.22000 5.663
24.24000 3.113
24.26000 4.585
24.28000 -0.830
24.30000 2.550
24.32000 2.105
24.34000 4.631
24.36000 8.543
24.38000 9.717
24.40000 7.936
24.42000 12.993
24.44000 10.579
24.46000 6.465
24.48000 5.395
24.50000 2.437
24.52000 7.908
24.54000 5.960
24.56000 2.791
24.58000 10.062
24.60000 8.675
24.62000 4.584
24.64000 7.988
24.66000 1.215
24.68000 -0.959
24.70000 -3.897
24.72000 3.338
24.74000 8.010
24.76000 5.975
24.78000 2.300
24.80000 8.615
24.82000 7.937
24.84000 6.298
24.86000 8.434
24.88000 8.876
24.90000 10.505
24.92000 8.348
24.94000 4.607
24.96000 4.549
24.98000 6.764
25.00000 4.439
25.02000 7.104
25.04000 0.657
25.06000 -3.890
25.08000 0.390
25.10000 9.135
25.12000 9.306
25.14000 4.902
25.16000 2.859
25.18000 4.349
25.20000 5.513
25.22000 6.170
25.24000 1.738
25.26000 3.505
25.28000 0.462
25.30000 3.264
25.32000 3.184
25.34000 1.276
25.36000 3.119
25.38000 1.637
25.40000 3.899
25.42000 1.251
25.44000 0.851
25.46000 4.228
25.48000 6.418
25.50000 6.556
25.52000 1.344
25.54000 0.336
25.56000 -0.959
25.58000 0.072
25.60000 3.813
25.62000 3.652
25.64000 6.402
25.66000 7.085
25.68000 4.306
25.70000 3.753
25.72000 6.888
25.74000 5.568
25.76000 5.742
25.78000 1.750
25.80000 -0.227
25.82000 5.037
25.84000 3.242
25.86000 0.531
25.88000 1.956
25.90000 0.547
25.92000 4.791
25.94000 2.594
25.96000 2.463
25.98000 -0.110
26.00000 -0.094
26.02000 -2.697
26.04000 4.554
26.06000 1.993
26.08000 -2.278
26.10000 -0.596
26.12000 3.382
26.14000 1.426
26.16000 -0.615
26.18000 -3.849
26.20000 3.079
26.22000 5.226
26.24000 3.267
26.26000 3.070
26.28000 3.356
26.30000 4.078
26.32000 4.645
26.34000 7.158
26.36000 2.528
26.38000 4.066
26.40000 5.551
26.42000 11.375
26.44000 4.732
26.46000 4.672
26.48000 0.576
26.50000 -1.455
26.52000 -3.334
26.54000 0.183
26.56000 5.400
26.58000 8.129
26.60000 4.565
26.62000 4.351
26.64000 5.079
26.66000 3.891
26.68000 4.489
26.70000 2.449
26.72000 3.781
26.74000 2.188
26.76000 3.590
26.78000 5.117
26.80000 2.428
26.82000 5.078
26.84000 4.370
26.86000 -1.768
26.88000 -1.300
26.90000 -0.101
26.92000 -1.848
26.94000 -3.821
26.96000 1.070
26.98000 6.530
27.00000 3.680
27.02000 2.505
27.04000 0.775
27.06000 2.377
27.08000 5.637
27.10000 3.477
27.12000 -0.200
27.14000 4.572
27.16000 7.956
27.18000 7.894
27.20000 4.753
27.22000 -0.078
27.24000 -0.237
27.26000 -1.310
27.28000 -3.060
27.30000 1.253
27.32000 5.169
27.34000 6.314
27.36000 8.908
27.38000 10.043
27.40000 4.583
27.42000 1.616
27.44000 5.055
27.46000 0.375
27.48000 0.667
27.50000 2.530
27.52000 4.611
27.54000 5.834
27.56000 3.213
27.58000 7.924
27.60000 6.248
27.62000 6.165
27.64000 4.386
27.66000 -2.426
27.68000 4.334
27.70000 5.184
27.72000 1.200
27.74000 -0.634
27.76000 0.808
27.78000 3.481
27.80000 6.126
27.82000 3.936
27.84000 1.078
27.86000 2.609
27.88000 5.174
27.90000 1.677
27.92000 2.515
27.94000 2.977
27.96000 1.113
27.98000 -1.949
28.00000 1.883
28.02000 5.539
28.04000 1.979
28.06000 2.730
28.08000 6.593
28.10000 3.822
28.12000 -2.316
28.14000 -1.223
28.16000 3.427
28.18000 7.298
28.20000 5.722
28.22000 4.040
28.24000 8.509
28.26000 12.253
28.28000 8.236
28.30000 3.623
28.32000 3.810
28.34000 -0.131
28.36000 3.640
28.38000 3.308
28.40000 -0.693
28.42000 1.529
28.44000 7.120
28.46000 8.681
28.48000 7.174
28.50000 4.817
28.52000 8.720
28.54000 6.050
28.56000 1.778
28.58000 2.210
28.60000 1.760
28.62000 -0.245
28.64000 1.720
28.66000 -3.675
28.68000 1.294
28.70000 5.332
28.72000 7.324
28.74000 6.222
28.76000 6.162
28.78000 4.461
28.80000 5.913
28.82000 7.179
28.84000 13.003
28.86000 11.335
28.88000 10.917
28.90000 6.622
28.92000 5.703
28.94000 8.563
28.96000 8.742
28.98000 7.020
29.00000 4.545
29.02000 8.329
29.04000 3.745
29.06000 1.501
29.08000 5.302
29.10000 3.084
29.12000 0.776
29.14000 4.101
29.16000 9.432
29.18000 11.285
29.20000 8.285
29.22000 4.579
29.24000 5.762
29.26000 3.625
29.28000 -0.029
29.30000 5.896
29.32000 7.832
29.34000 8.353
29.36000 2.002
29.38000 -1.938
29.40000 6.312
29.42000 4.232
29.44000 -0.403
29.46000 0.250
29.48000 3.773
29.50000 3.199
29.52000 3.640
29.54000 2.070
29.56000 -1.701
29.58000 -3.656
29.60000 2.818
29.62000 3.466
29.64000 3.546
29.66000 4.487
29.68000 2.634
29.70000 5.750
29.72000 8.064
29.74000 2.645
29.76000 0.650
29.78000 -0.580
29.80000 5.591
29.82000 7.861
29.84000 1.007
29.86000 -3.307
29.88000 2.637
29.90000 0.713
29.92000 -3.649
29.94000 1.442
29.96000 -3.111
29.98000 -1.223
30.00000 -1.984
30.02000 2.088
30.04000 -0.725
30.06000 -2.121
30.08000 0.808
30.10000 -0.813
30.12000 1.233
30.14000 2.533
30.16000 2.662
30.18000 4.598
30.20000 0.976
30.22000 1.216
30.24000 -1.755
30.26000 -2.640
30.28000 -0.166
30.30000 2.894
30.32000 -3.640
30.34000 -0.672
30.36000 8.306
30.38000 7.474
30.40000 1.302
30.42000 2.073
30.44000 6.921
30.46000 0.261
30.48000 -1.778
30.50000 -0.341
30.52000 -3.055
30.54000 -0.714
30.56000 -0.311
30.58000 5.856
30.60000 2.848
30.62000 -0.695
30.64000 -2.043
30.66000 -3.355
30.68000 0.394
30.70000 -1.543
30.72000 2.114
30.74000 3.404
30.76000 2.304
30.78000 8.100
30.80000 5.595
30.82000 -1.949
30.84000 1.858
30.86000 3.053
30.88000 1.462
30.90000 1.100
30.92000 6.510
30.94000 7.635
30.96000 5.008
30.98000 1.274
31.00000 -1.496
31.02000 -1.073
31.04000 0.561
31.06000 4.860
31.08000 7.460
31.10000 1.754
31.12000 -0.283
31.14000 1.696
31.16000 7.420
31.18000 3.258
31.20000 2.435
31.22000 5.527
31.24000 7.424
31.26000 10.755
31.28000 7.229
31.30000 2.109
31.32000 1.112
31.34000 0.085
31.36000 -3.586
31.38000 -1.861
31.40000 2.535
31.42000 3.380
31.44000 0.937
31.46000 2.862
31.48000 4.088
31.50000 4.076
31.52000 3.884
31.54000 3.804
31.56000 7.206
31.58000 7.564
31.60000 0.216
31.62000 -1.591
31.64000 -1.215
31.66000 0.898
31.68000 3.310
31.70000 0.897
31.72000 2.431
31.74000 2.633
31.76000 2.570
31.78000 2.518
31.80000 5.247
31.82000 8.885
31.84000 5.175
31.86000 -3.560
31.88000 -0.438
31.90000 6.111
31.92000 5.580
31.94000 6.103
31.96000 5.472
31.98000 4.911
32.00000 2.933
32.02000 1.991
32.04000 0.105
32.06000 3.193
32.08000 -1.180
32.10000 -3.544
32.12000 3.016
32.14000 6.381
32.16000 4.902
32.18000 5.621
32.20000 4.753
32.22000 4.578
32.24000 5.031
32.26000 2.827
32.28000 2.020
32.30000 0.221
32.32000 1.366
32.34000 -0.143
32.36000 4.907
32.38000 1.048
32.40000 -2.123
32.42000 2.107
32.44000 3.847
32.46000 0.004
32.48000 2.943
32.50000 2.522
32.52000 0.031
32.54000 3.542
32.56000 1.987
32.58000 1.267
32.60000 0.406
32.62000 0.740
32.64000 -2.664
32.66000 -2.036
32.68000 1.571
32.70000 2.468
32.72000 -0.872
32.74000 3.357
32.76000 8.640
32.78000 6.276
32.80000 7.370
32.82000 4.740
32.84000 0.661
32.86000 0.484
32.88000 -1.405
32.90000 -3.529
32.92000 -1.569
32.94000 4.262
32.96000 3.775
32.98000 -2.907
33.00000 4.687
33.02000 3.366
33.04000 1.867
33.06000 4.959
33.08000 6.414
33.10000 3.707
33.12000 0.926
33.14000 5.575
33.16000 4.772
33.18000 11.309
33.20000 10.118
33.22000 8.867
33.24000 6.911
33.26000 1.161
33.28000 3.154
33.30000 5.387
33.32000 4.265
33.34000 3.030
33.36000 4.211
33.38000 0.928
33.40000 1.260
33.42000 4.840
33.44000 9.310
33.46000 4.500
33.48000 2.102
33.50000 1.131
33.52000 0.209
33.54000 -3.507
33.56000 1.711
33.58000 4.953
33.60000 4.640
33.62000 5.554
33.64000 5.946
33.66000 3.749
33.68000 4.501
33.70000 1.891
33.72000 -3.503
33.74000 2.426
33.76000 6.122
33.78000 10.197
33.80000 5.612
33.82000 3.116
33.84000 0.831
33.86000 0.940
33.88000 2.247
33.90000 4.004
33.92000 4.539
33.94000 3.568
33.96000 2.459
33.98000 3.628
34.00000 8.615
34.02000 3.081
34.04000 3.872
34.06000 3.575
34.08000 1.279
34.10000 1.239
34.12000 1.908
34.14000 4.611
34.16000 4.537
34.18000 2.014
34.20000 2.803
34.22000 4.254
34.24000 4.710
34.26000 0.556
34.28000 -3.478
34.30000 0.689
34.32000 5.843
34.34000 8.197
34.36000 8.840
34.38000 4.359
34.40000 3.516
34.42000 6.987
34.44000 11.763
34.46000 6.531
34.48000 0.132
34.50000 0.296
34.52000 2.424
34.54000 3.926
34.56000 2.116
34.58000 3.467
34.60000 6.195
34.62000 1.860
34.64000 2.531
34.66000 3.992
34.68000 3.746
34.70000 1.116
34.72000 -0.101
34.74000 -2.832
34.76000 0.862
34.78000 6.048
34.80000 3.607
34.82000 0.647
34.84000 -0.268
34.86000 5.362
34.88000 10.400
34.90000 6.686
34.92000 2.137
34.94000 4.598
34.96000 -1.948
34.98000 2.572
35.00000 -1.060
35.02000 -2.245
35.04000 -0.912
35.06000 1.886
35.08000 1.757
35.10000 1.977
35.12000 5.106
35.14000 2.734
35.16000 -2.787
35.18000 0.370
35.20000 1.328
35.22000 0.933
35.24000 -1.655
35.26000 -2.521
35.28000 3.713
35.30000 2.579
35.32000 1.998
35.34000 5.343
35.36000 1.092
35.38000 1.908
35.40000 3.270
35.42000 0.425
35.44000 2.171
35.46000 5.085
35.48000 4.187
35.50000 8.210
35.52000 6.299
35.54000 4.967
35.56000 2.474
35.58000 1.706
35.60000 3.662
35.62000 8.488
35.64000 14.572
35.66000 11.062
35.68000 8.482
35.70000 8.908
35.72000 6.712
35.74000 1.430
35.76000 -3.415
35.78000 3.022
35.80000 4.901
35.82000 8.902
35.84000 12.695
35.86000 5.546
35.88000 2.419
35.90000 -0.696
35.92000 1.509
35.94000 4.354
35.96000 9.239
35.98000 8.156
36.00000 2.348
36.02000 4.396
36.04000 5.339
36.06000 3.610
36.08000 -2.293
36.10000 -3.430
36.12000 -1.262
36.14000 0.367
36.16000 1.869
36.18000 4.937
36.20000 4.643
36.22000 6.845
36.24000 4.774
36.26000 1.348
36.28000 1.736
36.30000 3.955
36.32000 4.852
36.34000 0.732
36.36000 0.150
36.38000 6.356
36.40000 6.496
36.42000 5.378
36.44000 4.146
36.46000 5.017
36.48000 1.498
36.50000 4.815
36.52000 5.478
36.54000 6.997
36.56000 5.094
36.58000 2.939
36.60000 -2.506
36.62000 -1.855
36.64000 1.089
36.66000 2.260
36.68000 3.113
36.70000 3.794
36.72000 5.090
36.74000 2.658
36.76000 -1.451
36.78000 -0.645
36.80000 -2.845
36.82000 -0.168
36.84000 4.944
36.86000 3.395
36.88000 0.432
36.90000 -3.455
36.92000 2.713
36.94000 3.677
36.96000 4.218
36.98000 4.722
37.00000 2.454
37.02000 -0.511
37.04000 0.272
37.06000 4.771
37.08000 2.941
37.10000 4.667
37.12000 4.830
37.14000 0.805
37.16000 -2.804
37.18000 -2.206
37.20000 -3.471
37.22000 6.126
37.24000 -1.780
37.26000 1.870
37.28000 8.784
37.30000 6.047
37.32000 1.158
37.34000 -2.629
37.36000 -1.857
37.38000 -1.326
37.40000 2.527
37.42000 2.510
37.44000 1.376
37.46000 0.030
37.48000 1.228
37.50000 1.420
37.52000 -0.152
37.54000 1.099
37.56000 -1.419
37.58000 0.935
37.60000 -1.605
37.62000 0.358
37.64000 5.586
37.66000 4.053
37.68000 5.718
37.70000 5.140
37.72000 4.994
37.74000 2.096
37.76000 -0.765
37.78000 4.609
37.80000 8.918
37.82000 6.592
37.84000 -1.136
37.86000 1.764
37.88000 1.965
37.90000 5.591
37.92000 7.119
37.94000 4.513
37.96000 0.874
37.98000 4.051
38.00000 3.397
38.02000 -0.117
38.04000 0.347
38.06000 2.217
38.08000 1.829
38.10000 1.306
38.12000 2.731
38.14000 3.663
38.16000 4.299
38.18000 6.283
38.20000 6.544
38.22000 4.583
38.24000 6.367
38.26000 9.518
38.28000 12.283
38.30000 12.155
38.32000 10.111
38.34000 7.546
38.36000 8.961
38.38000 10.117
38.40000 17.859
38.42000 14.741
38.44000 17.020
38.46000 18.780
38.48000 21.483
38.50000 21.825
38.52000 21.184
38.54000 21.790
38.56000 19.048
38.58000 15.861
38.60000 12.265
38.62000 14.459
38.64000 17.837
38.66000 19.763
38.68000 26.771
38.70000 21.531
38.72000 16.328
38.74000 20.956
38.76000 20.082
38.78000 20.989
38.80000 20.957
38.82000 20.160
38.84000 19.253
38.86000 23.066
38.88000 27.950
38.90000 27.958
38.92000 22.557
38.94000 23.725
38.96000 25.773
38.98000 30.503
39.00000 29.914
39.02000 25.913
39.04000 29.791
39.06000 30.771
39.08000 29.473
39.10000 30.863
39.12000 38.297
39.14000 38.244
39.16000 37.561
39.18000 38.780
39.20000 46.295
39.22000 52.003
39.24000 50.494
39.26000 47.517
39.28000 50.901
39.30000 52.705
39.32000 53.343
39.34000 57.431
39.36000 58.160
39.38000 63.598
39.40000 66.237
39.42000 67.984
39.44000 70.482
39.46000 78.528
39.48000 78.131
39.50000 77.109
39.52000 86.385
39.54000 92.330
39.56000 96.516
39.58000 100.621
39.60000 110.363
39.62000 116.444
39.64000 115.079
39.66000 121.047
39.68000 133.975
39.70000 140.070
39.72000 156.120
39.74000 163.748
39.76000 169.038
39.78000 176.521
39.80000 192.338
39.82000 209.079
39.84000 226.340
39.86000 243.948
39.88000 254.659
39.90000 279.611
39.92000 299.132
39.94000 312.891
39.96000 333.974
39.98000 354.875
40.00000 386.916
40.02000 417.767
40.04000 460.033
40.06000 483.323
40.08000 520.541
40.10000 555.584
40.12000 590.955
40.14000 626.968
40.16000 666.405
40.18000 711.469
40.20000 753.104
40.22000 790.709
40.24000 843.166
40.26000 895.769
40.28000 942.220
40.30000 971.456
40.32000 1014.503
40.34000 1043.861
40.36000 1071.194
40.38000 1105.613
40.40000 1141.044
40.42000 1148.090
40.44000 1169.789
40.46000 1162.063
40.48000 1160.854
40.50000 1151.453
40.52000 1150.922
40.54000 1141.380
40.56000 1140.438
40.58000 1123.362
40.60000 1109.324
40.62000 1068.537
40.64000 1052.164
40.66000 1031.090
40.68000 993.509
40.70000 958.060
40.72000 934.204
40.74000 903.399
40.76000 858.695
40.78000 824.353
40.80000 787.458
40.82000 750.497
40.84000 720.242
40.86000 690.449
40.88000 658.171
40.90000 618.382
40.92000 577.562
40.94000 547.721
40.96000 524.197
40.98000 495.173
41.00000 474.563
41.02000 451.146
41.04000 418.951
41.06000 383.923
41.08000 378.714
41.10000 353.597
41.12000 329.676
41.14000 305.128
41.16000 289.279
41.18000 282.928
41.20000 268.779
41.22000 250.281
41.24000 236.006
41.26000 229.454
41.28000 218.681
41.30000 204.421
41.32000 196.780
41.34000 186.628
41.36000 168.961
41.38000 162.927
41.40000 156.698
41.42000 146.021
41.44000 140.837
41.46000 136.207
41.48000 129.392
41.50000 124.231
41.52000 117.835
41.54000 109.237
41.56000 102.353
41.58000 96.745
41.60000 96.255
41.62000 92.685
41.64000 88.243
41.66000 84.338
41.68000 82.254
41.70000 75.888
41.72000 70.819
41.74000 70.320
41.76000 67.793
41.78000 66.925
41.80000 64.865
41.82000 57.170
41.84000 54.394
41.86000 49.278
41.88000 48.364
41.90000 49.047
41.92000 48.481
41.94000 45.490
41.96000 44.303
41.98000 39.863
42.00000 38.441
42.02000 43.541
42.04000 44.130
42.06000 39.575
42.08000 35.111
42.10000 34.537
42.12000 31.837
42.14000 30.188
42.16000 30.484
42.18000 26.173
42.20000 25.421
42.22000 25.919
42.24000 24.331
42.26000 19.063
42.28000 20.069
42.30000 23.490
42.32000 22.639
42.34000 17.785
42.36000 18.170
42.38000 17.840
42.40000 13.540
42.42000 15.216
42.44000 14.804
42.46000 17.112
42.48000 17.556
42.50000 15.415
42.52000 13.611
42.54000 12.853
42.56000 15.233
42.58000 13.914
42.60000 8.274
42.62000 1.707
42.64000 8.726
42.66000 7.461
42.68000 7.097
42.70000 7.795
42.72000 7.057
42.74000 3.307
42.76000 5.017
42.78000 9.553
42.80000 5.566
42.82000 3.670
42.84000 3.098
42.86000 1.908
42.88000 1.586
42.90000 2.948
42.92000 3.268
42.94000 4.784
42.96000 5.855
42.98000 4.977
43.00000 4.170
43.02000 2.443
43.04000 1.751
43.06000 -1.323
43.08000 0.127
43.10000 1.742
43.12000 4.679
43.14000 4.289
43.16000 3.883
43.18000 -0.575
43.20000 3.763
43.22000 3.847
43.24000 0.202
43.26000 -0.398
43.28000 2.019
43.30000 1.306
43.32000 4.711
43.34000 5.836
43.36000 3.817
43.38000 -0.932
43.40000 -2.964
43.42000 -0.718
43.44000 -2.817
43.46000 -3.391
43.48000 -2.791
43.50000 -1.155
43.52000 1.638
43.54000 1.953
43.56000 -2.226
43.58000 -1.423
43.60000 -0.125
43.62000 -1.428
43.64000 -0.051
43.66000 0.545
43.68000 -1.248
43.70000 -3.339
43.72000 -2.217
43.74000 -2.200
43.76000 -1.913
43.78000 1.899
43.80000 2.337
43.82000 1.417
43.84000 -2.180
43.86000 -3.331
43.88000 -1.454
43.90000 1.666
43.92000 -0.508
43.94000 0.977
43.96000 1.617
43.98000 -0.569
44.00000 2.037
44.02000 2.643
44.04000 -1.834
44.06000 -2.800
44.08000 -0.642
44.10000 -2.228
44.12000 -3.296
44.14000 -2.378
44.16000 -1.512
44.18000 -0.226
44.20000 2.241
44.22000 0.101
44.24000 -1.395
44.26000 -2.468
44.28000 -0.988
44.30000 0.227
44.32000 -0.225
44.34000 -2.884
44.36000 -1.103
44.38000 -2.481
44.40000 0.913
44.42000 -2.039
44.44000 -1.349
44.46000 0.611
44.48000 1.295
44.50000 -0.251
44.52000 0.169
44.54000 0.304
44.56000 1.486
44.58000 1.158
44.60000 -2.326
44.62000 -1.074
44.64000 3.735
44.66000 3.180
44.68000 -2.104
44.70000 -0.337
44.72000 1.112
44.74000 0.303
44.76000 1.059
44.78000 -0.561
44.80000 -0.598
44.82000 -2.639
44.84000 0.463
44.86000 4.583
44.88000 3.527
44.90000 -0.141
44.92000 -1.156
44.94000 -3.200
44.96000 -1.825
44.98000 -1.370
45.00000 -1.751
45.02000 0.432
45.04000 0.918
45.06000 0.146
45.08000 2.013
45.10000 2.747
45.12000 3.150
45.14000 5.524
45.16000 -0.050
45.18000 -0.069
45.20000 1.481
45.22000 2.358
45.24000 2.728
45.26000 6.856
45.28000 3.829
45.30000 -0.750
45.32000 -0.975
45.34000 3.325
45.36000 2.788
45.38000 8.052
45.40000 2.951
45.42000 4.765
45.44000 5.567
45.46000 5.490
45.48000 4.727
45.50000 3.716
45.52000 1.748
45.54000 4.397
45.56000 8.606
45.58000 8.551
45.60000 8.105
45.62000 5.348
45.64000 7.393
45.66000 5.976
45.68000 8.736
45.70000 7.078
45.72000 8.934
45.74000 10.087
45.76000 10.882
45.78000 8.647
45.80000 11.429
45.82000 12.375
45.84000 10.111
45.86000 9.934
45.88000 13.699
45.90000 13.949
45.92000 10.846
45.94000 13.274
45.96000 15.465
45.98000 15.988
46.00000 17.042
46.02000 13.391
46.04000 15.125
46.06000 21.747
46.08000 20.919
46.10000 17.297
46.12000 18.588
46.14000 18.147
46.16000 20.162
46.18000 20.669
46.20000 21.801
46.22000 30.092
46.24000 34.699
46.26000 34.471
46.28000 31.895
46.30000 30.029
46.32000 36.141
46.34000 38.011
46.36000 39.459
46.38000 40.018
46.40000 43.780
46.42000 45.545
46.44000 48.825
46.46000 48.215
46.48000 53.242
46.50000 48.956
46.52000 54.775
46.54000 59.526
46.56000 59.530
46.58000 63.907
46.60000 65.112
46.62000 68.478
46.64000 73.503
46.66000 79.004
46.68000 79.228
46.70000 83.691
46.72000 90.069
46.74000 89.471
46.76000 94.091
46.78000 102.385
46.80000 107.830
46.82000 108.217
46.84000 112.432
46.86000 120.337
46.88000 125.470
46.90000 131.682
46.92000 138.246
46.94000 140.031
46.96000 142.943
46.98000 144.305
47.00000 147.296
47.02000 154.350
47.04000 160.207
47.06000 155.102
47.08000 155.033
47.10000 154.338
47.12000 158.316
47.14000 152.779
47.16000 155.066
47.18000 157.559
47.20000 157.000
47.22000 154.559
47.24000 153.524
47.26000 149.418
47.28000 147.203
47.30000 138.269
47.32000 135.638
47.34000 132.746
47.36000 133.981
47.38000 131.576
47.40000 124.266
47.42000 119.644
47.44000 112.893
47.46000 98.752
47.48000 95.083
47.50000 98.768
47.52000 97.392
47.54000 90.275
47.56000 89.978
47.58000 80.796
47.60000 78.985
47.62000 72.287
47.64000 67.138
47.66000 61.666
47.68000 58.610
47.70000 59.328
47.72000 58.718
47.74000 59.591
47.76000 51.911
47.78000 48.645
47.80000 51.068
47.82000 46.029
47.84000 42.224
47.86000 34.585
47.88000 31.633
47.90000 31.867
47.92000 26.619
47.94000 29.407
47.96000 29.052
47.98000 23.401
48.00000 17.767
48.02000 17.072
48.04000 16.792
48.06000 16.293
48.08000 17.050
48.10000 16.060
48.12000 13.227
48.14000 11.402
48.16000 9.801
48.18000 12.117
48.20000 16.193
48.22000 8.991
48.24000 9.979
48.26000 9.186
48.28000 8.126
48.30000 6.745
48.32000 7.135
48.34000 6.137
48.36000 5.822
48.38000 5.901
48.40000 2.543
48.42000 2.010
48.44000 2.251
48.46000 3.392
48.48000 4.526
48.50000 5.093
48.52000 0.485
48.54000 2.897
48.56000 1.637
48.58000 2.821
48.60000 0.700
48.62000 -0.831
48.64000 -0.882
48.66000 1.045
48.68000 4.383
48.70000 3.103
48.72000 1.818
48.74000 -1.647
48.76000 -1.639
48.78000 0.791
48.80000 0.968
48.82000 -0.048
48.84000 -1.534
48.86000 -0.232
48.88000 -0.224
48.90000 0.592
48.92000 2.565
48.94000 3.608
48.96000 2.461
48.98000 1.839
49.00000 -1.457
49.02000 2.134
49.04000 1.170
49.06000 0.895
49.08000 1.853
49.10000 -0.858
49.12000 -0.184
49.14000 -0.804
49.16000 -2.699
49.18000 0.363
49.20000 0.085
49.22000 -2.566
49.24000 -0.631
49.26000 -1.473
49.28000 -0.889
49.30000 -0.012
49.32000 0.137
49.34000 2.244
49.36000 1.080
49.38000 0.302
49.40000 -0.203
49.42000 3.530
49.44000 4.417
49.46000 3.087
49.48000 3.423
49.50000 -0.028
49.52000 0.288
49.54000 4.406
49.56000 -0.080
49.58000 0.886
49.60000 3.603
49.62000 7.307
49.64000 6.286
49.66000 2.164
49.68000 2.267
49.70000 7.105
49.72000 6.368
49.74000 1.599
49.76000 -2.559
49.78000 -1.280
49.80000 0.169
49.82000 5.652
49.84000 4.194
49.86000 0.858
49.88000 1.437
49.90000 2.204
49.92000 1.714
49.94000 3.484
49.96000 5.189
49.98000 3.215
50.00000 1.835
50.02000 4.143
50.04000 4.615
50.06000 5.100
50.08000 0.466
50.10000 1.042
50.12000 2.260
50.14000 2.065
50.16000 -0.109
50.18000 0.890
50.20000 1.633
50.22000 4.194
50.24000 3.494
50.26000 2.451
50.28000 2.073
50.30000 3.863
50.32000 5.401
50.34000 4.864
50.36000 1.949
50.38000 1.706
50.40000 4.258
50.42000 6.467
50.44000 3.124
50.46000 0.284
50.48000 0.424
50.50000 1.178
50.52000 4.617
50.54000 4.165
50.56000 1.267
50.58000 -1.310
50.60000 -1.245
50.62000 6.619
50.64000 6.566
50.66000 6.304
50.68000 4.124
50.70000 4.524
50.72000 4.988
50.74000 4.930
50.76000 2.456
50.78000 3.333
50.80000 3.369
50.82000 2.007
50.84000 2.635
50.86000 0.813
50.88000 0.711
50.90000 0.769
50.92000 4.213
50.94000 9.790
50.96000 4.874
50.98000 1.416
51.00000 2.679
51.02000 3.075
51.04000 3.367
51.06000 5.382
51.08000 4.987
51.10000 7.575
51.12000 4.297
51.14000 -1.167
51.16000 -2.445
51.18000 0.091
51.20000 4.076
51.22000 2.272
51.24000 2.270
51.26000 3.492
51.28000 1.508
51.30000 -1.034
51.32000 3.650
51.34000 5.076
51.36000 2.850
51.38000 5.527
51.40000 4.396
51.42000 0.995
51.44000 2.191
51.46000 2.540
51.48000 3.524
51.50000 6.326
51.52000 5.374
51.54000 -1.875
51.56000 -2.242
51.58000 0.679
51.60000 0.262
51.62000 2.204
51.64000 0.846
51.66000 1.549
51.68000 2.434
51.70000 2.636
51.72000 -2.464
51.74000 -1.398
51.76000 0.043
51.78000 -0.691
51.80000 4.244
51.82000 3.536
51.84000 1.795
51.86000 4.448
51.88000 -1.528
51.90000 1.334
51.92000 2.201
51.94000 4.157
51.96000 5.311
51.98000 3.196
52.00000 -0.189
52.02000 -2.463
52.04000 2.765
52.06000 4.114
52.08000 2.729
52.10000 3.942
52.12000 3.628
52.14000 2.365
52.16000 2.866
52.18000 4.086
52.20000 1.349
52.22000 -0.854
52.24000 2.415
52.26000 -0.135
52.28000 1.816
52.30000 3.482
52.32000 -1.783
52.34000 0.468
52.36000 1.895
52.38000 0.636
52.40000 -1.247
52.42000 0.297
52.44000 0.437
52.46000 0.853
52.48000 2.592
52.50000 3.679
52.52000 3.875
52.54000 2.531
52.56000 3.757
52.58000 0.189
52.60000 -0.543
52.62000 1.180
52.64000 -0.709
52.66000 1.848
52.68000 -0.759
52.70000 2.810
52.72000 3.869
52.74000 6.527
52.76000 -0.069
52.78000 -0.699
52.80000 -0.623
52.82000 0.380
52.84000 1.987
52.86000 1.061
52.88000 -0.460
52.90000 -2.434
52.92000 -1.469
52.94000 0.032
52.96000 -0.521
52.98000 0.331
53.00000 1.630
53.02000 3.722
53.04000 2.107
53.06000 3.806
53.08000 2.987
53.10000 0.508
53.12000 5.512
53.14000 7.355
53.16000 3.278
53.18000 2.315
53.20000 1.906
53.22000 -1.852
53.24000 -2.147
53.26000 1.814
53.28000 5.764
53.30000 5.513
53.32000 1.350
53.34000 -0.137
53.36000 -0.081
53.38000 -0.849
53.40000 -0.460
53.42000 -0.212
53.44000 -2.411
53.46000 1.556
53.48000 2.187
53.50000 2.462
53.52000 2.125
53.54000 4.395
53.56000 4.954
53.58000 4.917
53.60000 1.780
53.62000 1.829
53.64000 2.905
53.66000 0.679
53.68000 3.825
53.70000 5.163
53.72000 0.916
53.74000 1.455
53.76000 2.054
53.78000 2.129
53.80000 2.667
53.82000 2.539
53.84000 0.060
53.86000 -1.783
53.88000 1.614
53.90000 4.655
53.92000 1.384
53.94000 1.832
53.96000 1.352
53.98000 3.820
54.00000 6.696
54.02000 2.738
54.04000 2.562
54.06000 2.236
54.08000 2.125
54.10000 1.140
54.12000 0.382
54.14000 0.902
54.16000 3.125
54.18000 3.413
54.20000 5.993
54.22000 5.325
54.24000 7.097
54.26000 1.924
54.28000 1.344
54.30000 2.518
54.32000 2.661
54.34000 -2.346
54.36000 3.009
54.38000 6.141
54.40000 2.881
54.42000 3.106
54.44000 4.209
54.46000 1.121
54.48000 2.795
54.50000 1.434
54.52000 2.576
54.54000 4.706
54.56000 4.462
54.58000 2.466
54.60000 3.209
54.62000 6.256
54.64000 3.961
54.66000 -2.331
54.68000 2.108
54.70000 5.238
54.72000 7.603
54.74000 8.611
54.76000 4.453
54.78000 3.045
54.80000 4.555
54.82000 5.147
54.84000 2.357
54.86000 1.374
54.88000 2.071
54.90000 2.528
54.92000 2.225
54.94000 4.469
54.96000 2.379
54.98000 2.873
55.00000 2.789
55.02000 3.607
55.04000 3.211
55.06000 2.939
55.08000 1.530
55.10000 0.812
55.12000 2.571
55.14000 4.792
55.16000 6.220
55.18000 2.048
55.20000 2.183
55.22000 0.846
55.24000 3.504
55.26000 1.500
55.28000 -0.821
55.30000 -1.722
55.32000 -0.533
55.34000 3.135
55.36000 6.195
55.38000 4.444
55.40000 0.691
55.42000 3.643
55.44000 2.887
55.46000 0.307
55.48000 0.577
55.50000 0.941
55.52000 1.378
55.54000 4.550
55.56000 1.508
55.58000 0.037
55.60000 2.424
55.62000 2.709
55.64000 0.997
55.66000 0.883
55.68000 1.161
55.70000 -1.544
55.72000 2.776
55.74000 3.860
55.76000 1.493
55.78000 1.911
55.80000 2.616
55.82000 2.442
55.84000 2.193
55.86000 0.311
55.88000 0.862
55.90000 -1.026
55.92000 2.777
55.94000 3.296
55.96000 2.016
55.98000 2.666
56.00000 3.985
56.02000 -0.252
56.04000 -2.338
56.06000 0.413
56.08000 4.362
56.10000 2.973
56.12000 0.346
56.14000 1.444
56.16000 2.357
56.18000 0.780
56.20000 0.347
56.22000 1.907
56.24000 5.939
56.26000 3.845
56.28000 3.870
56.30000 4.734
56.32000 2.153
56.34000 -0.683
56.36000 -0.945
56.38000 2.960
56.40000 3.422
56.42000 2.571
56.44000 0.253
56.46000 -0.440
56.48000 0.789
56.50000 -0.558
56.52000 1.142
56.54000 1.547
56.56000 -0.291
56.58000 1.749
56.60000 1.179
56.62000 -0.295
56.64000 0.001
56.66000 3.124
56.68000 3.069
56.70000 0.652
56.72000 3.640
56.74000 1.486
56.76000 -0.302
56.78000 -1.046
56.80000 0.605
56.82000 0.090
56.84000 3.825
56.86000 4.263
56.88000 1.254
56.90000 2.367
56.92000 2.062
56.94000 3.870
56.96000 4.367
56.98000 -0.754
57.00000 -2.309
57.02000 0.272
57.04000 3.559
57.06000 1.543
57.08000 2.716
57.10000 2.119
57.12000 4.428
57.14000 0.844
57.16000 -0.231
57.18000 0.978
57.20000 -0.053
57.22000 0.284
57.24000 0.697
57.26000 2.058
57.28000 5.220
57.30000 3.828
57.32000 0.767
57.34000 1.467
57.36000 2.762
57.38000 2.762
57.40000 -0.373
57.42000 -1.636
57.44000 -0.234
57.46000 1.130
57.48000 0.002
57.50000 0.268
57.52000 0.629
57.54000 0.668
57.56000 1.583
57.58000 1.779
57.60000 3.570
57.62000 1.694
57.64000 1.096
57.66000 4.606
57.68000 2.884
57.70000 -2.268
57.72000 0.025
57.74000 1.906
57.76000 0.510
57.78000 2.175
57.80000 0.477
57.82000 -1.055
57.84000 -0.512
57.86000 1.088
57.88000 3.092
57.90000 4.661
57.92000 4.061
57.94000 1.084
57.96000 2.393
57.98000 0.733
58.00000 1.721
58.02000 0.034
58.04000 0.884
58.06000 3.608
58.08000 4.680
58.10000 4.988
58.12000 2.145
58.14000 2.224
58.16000 1.449
58.18000 3.807
58.20000 3.499
58.22000 3.784
58.24000 2.893
58.26000 2.174
58.28000 0.639
58.30000 -0.105
58.32000 3.769
58.34000 2.324
58.36000 2.554
58.38000 1.212
58.40000 2.831
58.42000 1.000
58.44000 -0.560
58.46000 0.347
58.48000 0.883
58.50000 -0.779
58.52000 -0.481
58.54000 -1.065
58.56000 0.898
58.58000 7.435
58.60000 6.536
58.62000 0.181
58.64000 0.909
58.66000 4.709
58.68000 2.850
58.70000 0.765
58.72000 -1.811
58.74000 -0.461
58.76000 0.543
58.78000 -2.261
58.80000 1.212
58.82000 2.656
58.84000 0.457
58.86000 1.273
58.88000 2.516
58.90000 2.405
58.92000 1.032
58.94000 3.722
58.96000 1.293
58.98000 -0.543
59.00000 0.410
59.02000 2.134
59.04000 0.773
59.06000 -1.276
59.08000 -0.943
59.10000 -1.464
59.12000 0.284
59.14000 0.242
59.16000 4.816
59.18000 5.820
59.20000 1.994
59.22000 -1.681
59.24000 0.692
59.26000 -0.721
59.28000 0.178
59.30000 1.173
59.32000 -0.901
59.34000 -0.432
59.36000 0.527
59.38000 -0.667
59.40000 0.992
59.42000 0.788
59.44000 -0.366
59.46000 -1.054
59.48000 0.543
59.50000 1.031
59.52000 -0.129
59.54000 1.167
59.56000 2.692
59.58000 -1.443
59.60000 -0.373
59.62000 -0.049
59.64000 1.510
59.66000 0.890
59.68000 3.082
59.70000 2.634
59.72000 -0.637
59.74000 0.897
59.76000 1.692
59.78000 1.337
59.80000 -0.854
59.82000 1.707
59.84000 5.449
59.86000 2.690
59.88000 1.997
59.90000 2.996
59.92000 -0.123
59.94000 1.338
59.96000 1.796
59.98000 2.001
60.00000 -2.239
60.02000 -2.238
60.04000 -0.453
60.06000 1.094
60.08000 2.706
60.10000 4.049
60.12000 3.115
60.14000 1.976
60.16000 1.088
60.18000 2.047
60.20000 -0.384
60.22000 0.903
60.24000 0.739
60.26000 1.145
60.28000 1.849
60.30000 2.244
60.32000 -0.410
60.34000 -1.351
60.36000 -0.203
60.38000 1.060
60.40000 -2.110
60.42000 -1.589
60.44000 0.522
60.46000 -0.094
60.48000 2.536
60.50000 2.828
60.52000 1.124
60.54000 0.757
60.56000 -1.777
60.58000 0.261
60.60000 2.429
60.62000 1.667
60.64000 1.073
60.66000 1.612
60.68000 -0.275
60.70000 -2.221
60.72000 -0.094
60.74000 -1.182
60.76000 0.253
60.78000 -1.136
60.80000 -1.028
60.82000 0.855
60.84000 -0.416
60.86000 1.131
60.88000 -1.910
60.90000 0.138
60.92000 -2.209
60.94000 -0.736
60.96000 0.971
60.98000 0.953
61.00000 2.726
61.02000 0.302
61.04000 2.200
61.06000 3.557
61.08000 -0.678
61.10000 -0.065
61.12000 -0.849
61.14000 1.119
61.16000 2.558
61.18000 2.023
61.20000 1.081
61.22000 0.799
61.24000 4.843
61.26000 -0.523
61.28000 -1.801
61.30000 -0.098
61.32000 5.353
61.34000 2.515
61.36000 1.546
61.38000 1.473
61.40000 1.986
61.42000 0.285
61.44000 0.493
61.46000 -0.767
61.48000 -1.384
61.50000 -1.008
61.52000 1.102
61.54000 1.062
61.56000 -0.615
61.58000 -2.179
61.60000 -1.502
61.62000 1.685
61.64000 2.045
61.66000 -0.512
61.68000 -0.127
61.70000 -0.189
61.72000 1.426
61.74000 1.287
61.76000 2.496
61.78000 0.188
61.80000 0.996
61.82000 3.135
61.84000 1.533
61.86000 0.420
61.88000 1.576
61.90000 4.292
61.92000 3.905
61.94000 0.908
61.96000 0.859
61.98000 -0.403
62.00000 0.983
62.02000 0.178
62.04000 0.429
62.06000 3.786
62.08000 1.188
62.10000 -1.055
62.12000 -0.911
62.14000 -0.799
62.16000 2.332
62.18000 6.536
62.20000 6.198
62.22000 3.418
62.24000 0.221
62.26000 -0.005
62.28000 -1.604
62.30000 4.665
62.32000 3.210
62.34000 0.462
62.36000 -1.656
62.38000 -2.139
62.40000 1.690
62.42000 0.294
62.44000 2.881
62.46000 0.299
62.48000 1.366
62.50000 4.768
62.52000 5.012
62.54000 -2.147
62.56000 0.017
62.58000 0.499
62.60000 0.882
62.62000 0.673
62.64000 -1.054
62.66000 -0.204
62.68000 1.386
62.70000 1.161
62.72000 0.281
62.74000 -1.521
62.76000 -1.444
62.78000 -0.296
62.80000 0.454
62.82000 4.157
62.84000 0.736
62.86000 0.110
62.88000 2.422
62.90000 -0.788
62.92000 3.757
62.94000 1.562
62.96000 0.062
62.98000 0.005
63.00000 -1.530
63.02000 -0.396
63.04000 0.921
63.06000 -1.087
63.08000 3.758
63.10000 3.878
63.12000 2.353
63.14000 2.215
63.16000 -0.276
63.18000 0.567
63.20000 0.573
63.22000 -1.507
63.24000 0.070
63.26000 0.742
63.28000 1.754
63.30000 2.318
63.32000 1.517
63.34000 -0.191
63.36000 -1.228
63.38000 -0.332
63.40000 2.351
63.42000 0.884
63.44000 -0.620
63.46000 -0.440
63.48000 0.260
63.50000 0.189
63.52000 -0.140
63.54000 -1.373
63.56000 -2.149
63.58000 -0.858
63.60000 0.096
63.62000 3.144
63.64000 1.637
63.66000 1.345
63.68000 0.615
63.70000 -1.839
63.72000 -0.424
63.74000 2.901
63.76000 0.355
63.78000 1.700
63.80000 0.098
63.82000 1.237
63.84000 1.679
63.86000 1.581
63.88000 1.701
63.90000 -0.295
63.92000 3.489
63.94000 2.750
63.96000 0.546
63.98000 1.544
64.00000 3.214
64.02000 1.962
64.04000 0.505
64.06000 0.030
64.08000 -1.465
64.10000 -2.111
64.12000 -0.422
64.14000 0.192
64.16000 0.489
64.18000 0.999
64.20000 1.939
64.22000 3.676
64.24000 4.681
64.26000 2.955
64.28000 1.200
64.30000 -0.154
64.32000 -1.187
64.34000 1.018
64.36000 1.659
64.38000 2.307
64.40000 3.553
64.42000 3.024
64.44000 1.696
64.46000 1.132
64.48000 0.059
64.50000 -1.375
64.52000 -2.132
64.54000 1.894
64.56000 -0.855
64.58000 -1.279
64.60000 -0.431
64.62000 1.956
64.64000 2.632
64.66000 2.187
64.68000 -0.530
64.70000 -0.597
64.72000 1.075
64.74000 -0.756
64.76000 -1.500
64.78000 1.013
64.80000 -0.733
64.82000 0.755
64.84000 1.349
64.86000 -0.764
64.88000 -1.128
64.90000 -0.047
64.92000 2.414
64.94000 2.875
64.96000 0.013
64.98000 1.849
65.00000 0.862
65.02000 -2.090
65.04000 -1.170
65.06000 0.868
65.08000 -1.831
65.10000 -2.047
65.12000 -1.632
65.14000 0.473
65.16000 -1.118
65.18000 -1.895
65.20000 0.284
65.22000 2.332
65.24000 2.478
65.26000 1.999
65.28000 1.292
65.30000 1.157
65.32000 0.391
65.34000 0.943
65.36000 0.794
65.38000 1.333
65.40000 2.903
65.42000 -0.629
65.44000 1.658
65.46000 1.193
65.48000 1.045
65.50000 2.140
65.52000 3.088
65.54000 5.018
65.56000 3.218
65.58000 2.001
65.60000 2.606
65.62000 0.904
65.64000 0.390
65.66000 -0.647
65.68000 -0.416
65.70000 1.301
65.72000 0.895
65.74000 1.917
65.76000 1.226
65.78000 0.608
65.80000 1.174
65.82000 0.157
65.84000 -0.041
65.86000 1.204
65.88000 -0.238
65.90000 1.370
65.92000 2.267
65.94000 3.803
65.96000 4.964
65.98000 2.168
66.00000 2.039
66.02000 1.576
66.04000 0.113
66.06000 -2.060
66.08000 -1.030
66.10000 2.341
66.12000 2.641
66.14000 1.992
66.16000 2.778
66.18000 1.332
66.20000 2.760
66.22000 1.638
66.24000 1.048
66.26000 0.353
66.28000 -1.795
66.30000 0.303
66.32000 1.432
66.34000 2.749
66.36000 0.540
66.38000 1.716
66.40000 2.984
66.42000 1.208
66.44000 0.877
66.46000 0.006
66.48000 1.281
66.50000 3.839
66.52000 1.168
66.54000 1.516
66.56000 1.402
66.58000 -0.383
66.60000 -0.386
66.62000 0.725
66.64000 2.040
66.66000 3.416
66.68000 2.127
66.70000 1.182
66.72000 1.768
66.74000 2.998
66.76000 0.536
66.78000 0.480
66.80000 -1.069
66.82000 -0.750
66.84000 0.264
66.86000 -0.088
66.88000 0.476
66.90000 -0.803
66.92000 -0.449
66.94000 2.802
66.96000 -0.863
66.98000 -2.101
67.00000 -1.081
67.02000 -1.454
67.04000 1.449
67.06000 4.704
67.08000 0.906
67.10000 -2.106
67.12000 -0.643
67.14000 1.622
67.16000 0.077
67.18000 -0.035
67.20000 -0.660
67.22000 1.691
67.24000 2.184
67.26000 3.005
67.28000 2.256
67.30000 0.455
67.32000 -0.238
67.34000 -1.721
67.36000 -0.740
67.38000 -2.128
67.40000 -2.129
67.42000 1.104
67.44000 2.862
67.46000 1.963
67.48000 0.514
67.50000 2.492
67.52000 0.122
67.54000 -0.599
67.56000 1.141
67.58000 0.362
67.60000 -1.435
67.62000 -1.698
67.64000 -0.655
67.66000 0.424
67.68000 -0.270
67.70000 0.022
67.72000 -0.042
67.74000 0.956
67.76000 1.497
67.78000 0.215
67.80000 0.345
67.82000 1.166
67.84000 1.061
67.86000 0.023
67.88000 -1.146
67.90000 -1.147
67.92000 0.579
67.94000 0.224
67.96000 1.843
67.98000 0.348
68.00000 3.435
68.02000 0.791
68.04000 1.550
68.06000 1.949
68.08000 0.869
68.10000 2.553
68.12000 3.335
68.14000 3.970
68.16000 0.890
68.18000 1.723
68.20000 1.076
68.22000 3.541
68.24000 6.229
68.26000 4.562
68.28000 6.139
68.30000 8.938
68.32000 11.253
68.34000 10.550
68.36000 10.099
68.38000 8.372
68.40000 12.090
68.42000 10.713
68.44000 11.568
68.46000 14.819
68.48000 16.577
68.50000 15.023
68.52000 15.721
68.54000 16.818
68.56000 17.735
68.58000 18.539
68.60000 19.025
68.62000 22.321
68.64000 21.138
68.66000 19.756
68.68000 19.769
68.70000 22.606
68.72000 24.122
68.74000 25.229
68.76000 24.100
68.78000 25.523
68.80000 25.607
68.82000 27.320
68.84000 29.919
68.86000 29.244
68.88000 28.284
68.90000 27.488
68.92000 27.979
68.94000 28.322
68.96000 27.631
68.98000 27.346
69.00000 24.569
69.02000 27.341
69.04000 24.091
69.06000 20.434
69.08000 22.228
69.10000 25.127
69.12000 22.215
69.14000 21.010
69.16000 22.271
69.18000 20.207
69.20000 18.120
69.22000 20.571
69.24000 19.800
69.26000 15.264
69.28000 14.919
69.30000 15.275
69.32000 13.385
69.34000 12.835
69.36000 12.173
69.38000 9.724
69.40000 10.228
69.42000 11.438
69.44000 10.122
69.46000 10.014
69.48000 8.317
69.50000 7.619
69.52000 9.199
69.54000 8.131
69.56000 7.649
69.58000 6.691
69.60000 8.286
69.62000 6.631
69.64000 7.099
69.66000 6.249
69.68000 5.656
69.70000 4.361
69.72000 6.842
69.74000 4.730
69.76000 2.779
69.78000 1.925
69.80000 5.991
69.82000 6.444
69.84000 3.584
69.86000 1.914
69.88000 2.446
69.90000 1.949
69.92000 -1.328
69.94000 -2.062
69.96000 0.740
69.98000 2.392
70.00000 2.629
70.02000 1.348
70.04000 2.465
70.06000 1.351
70.08000 1.718
70.10000 1.173
70.12000 1.765
70.14000 3.334
70.16000 0.019
70.18000 1.815
70.20000 -0.100
70.22000 2.462
70.24000 1.715
70.26000 -0.813
70.28000 -2.006
70.30000 -0.518
70.32000 -0.619
70.34000 2.118
70.36000 1.839
70.38000 0.832
70.40000 -0.415
70.42000 1.463
70.44000 1.621
70.46000 1.545
70.48000 1.051
70.50000 2.113
70.52000 2.148
70.54000 -0.354
70.56000 1.910
70.58000 2.767
70.60000 2.503
70.62000 -1.086
70.64000 0.679
70.66000 2.246
70.68000 3.839
70.70000 2.852
70.72000 0.065
70.74000 1.676
70.76000 1.122
70.78000 3.370
70.80000 1.301
70.82000 -0.046
70.84000 -1.490
70.86000 1.165
70.88000 1.140
70.90000 0.370
70.92000 1.035
70.94000 1.764
70.96000 0.758
70.98000 1.814
71.00000 1.060
71.02000 0.574
71.04000 1.434
71.06000 2.952
71.08000 3.760
71.10000 0.377
71.12000 -1.954
71.14000 -0.579
71.16000 -0.393
71.18000 -0.380
71.20000 -0.381
71.22000 0.948
71.24000 0.857
71.26000 -0.362
71.28000 -1.945
71.30000 -0.710
71.32000 1.963
71.34000 1.812
71.36000 0.346
71.38000 2.190
71.40000 1.851
71.42000 -0.654
71.44000 -1.917
71.46000 -1.649
71.48000 -1.090
71.50000 -0.619
71.52000 -0.512
71.54000 -1.211
71.56000 -0.515
71.58000 -0.328
71.60000 1.139
71.62000 -0.493
71.64000 -0.653
71.66000 -0.437
71.68000 0.689
71.70000 -0.256
71.72000 -0.252
71.74000 -1.838
71.76000 0.132
71.78000 2.452
71.80000 -1.018
71.82000 -0.837
71.84000 0.207
71.86000 0.127
71.88000 1.408
71.90000 -1.919
71.92000 1.329
71.94000 3.957
71.96000 -0.132
71.98000 -0.185
72.00000 0.898
72.02000 -1.079
72.04000 2.478
72.06000 1.251
72.08000 -0.070
72.10000 1.326
72.12000 2.562
72.14000 0.170
72.16000 0.090
72.18000 -0.152
72.20000 1.679
72.22000 1.370
72.24000 0.151
72.26000 -1.888
72.28000 -1.315
72.30000 -0.990
72.32000 0.052
72.34000 1.571
72.36000 3.422
72.38000 1.312
72.40000 -0.311
72.42000 0.883
72.44000 -1.442
72.46000 -1.883
72.48000 -0.555
72.50000 0.088
72.52000 0.365
72.54000 -0.633
72.56000 -0.027
72.58000 1.784
72.60000 -0.151
72.62000 0.235
72.64000 -1.882
72.66000 -1.331
72.68000 2.010
72.70000 1.039
72.72000 0.554
72.74000 4.389
72.76000 1.804
72.78000 3.682
72.80000 4.137
72.82000 3.191
72.84000 0.017
72.86000 -0.536
72.88000 -1.522
72.90000 -0.885
72.92000 -1.877
72.94000 1.004
72.96000 0.519
72.98000 1.512
73.00000 0.862
73.02000 0.790
73.04000 0.173
73.06000 0.386
73.08000 1.633
73.10000 0.255
73.12000 0.169
73.14000 -0.198
73.16000 1.597
73.18000 1.009
73.20000 2.317
73.22000 1.512
73.24000 1.227
73.26000 -1.078
73.28000 -0.332
73.30000 0.208
73.32000 -0.246
73.34000 -0.522
73.36000 0.028
73.38000 -1.435
73.40000 2.240
73.42000 4.189
73.44000 2.978
73.46000 1.485
73.48000 -1.605
73.50000 -1.597
73.52000 -1.857
73.54000 -0.480
73.56000 1.151
73.58000 3.536
73.60000 1.547
73.62000 3.040
73.64000 1.324
73.66000 -0.802
73.68000 -1.330
73.70000 -1.664
73.72000 -0.425
73.74000 -1.597
73.76000 0.398
73.78000 1.023
73.80000 3.064
73.82000 4.810
73.84000 1.568
73.86000 0.085
73.88000 -0.819
73.90000 -0.736
73.92000 -0.706
73.94000 -1.553
73.96000 0.512
73.98000 -0.011
74.00000 -1.042
74.02000 -1.856
74.04000 0.433
74.06000 -0.376
74.08000 2.312
74.10000 1.816
74.12000 0.532
74.14000 0.597
74.16000 1.021
74.18000 0.013
74.20000 -0.006
74.22000 0.898
74.24000 2.591
74.26000 2.122
74.28000 1.199
74.30000 -0.819
74.32000 0.436
74.34000 1.604
74.36000 1.493
74.38000 1.675
74.40000 0.849
74.42000 0.394
74.44000 0.018
74.46000 1.687
74.48000 3.550
74.50000 2.579
74.52000 1.629
74.54000 -1.143
74.56000 -0.407
74.58000 0.207
74.60000 1.735
74.62000 0.364
74.64000 -1.814
74.66000 -0.020
74.68000 1.177
74.70000 2.401
74.72000 0.354
74.74000 3.703
74.76000 5.271
74.78000 3.189
74.80000 -0.777
74.82000 2.498
74.84000 3.485
74.86000 2.541
74.88000 4.452
74.90000 4.637
74.92000 4.573
74.94000 1.837
74.96000 2.828
74.98000 3.209
75.00000 1.736
75.02000 2.025
75.04000 2.595
75.06000 2.063
75.08000 3.081
75.10000 3.324
75.12000 -1.279
75.14000 -1.745
75.16000 2.925
75.18000 6.081
75.20000 6.549
75.22000 5.326
75.24000 6.189
75.26000 4.682
75.28000 4.487
75.30000 4.152
75.32000 3.810
75.34000 2.850
75.36000 2.041
75.38000 4.584
75.40000 3.599
75.42000 2.448
75.44000 0.799
75.46000 2.502
75.48000 4.711
75.50000 3.695
75.52000 2.778
75.54000 4.325
75.56000 3.437
75.58000 1.535
75.60000 2.643
75.62000 3.585
75.64000 -0.404
75.66000 1.142
75.68000 0.308
75.70000 1.481
75.72000 1.434
75.74000 2.946
75.76000 1.188
75.78000 2.160
75.80000 4.355
75.82000 4.983
75.84000 0.294
75.86000 0.131
75.88000 1.452
75.90000 0.232
75.92000 -1.836
75.94000 0.218
75.96000 1.933
75.98000 2.877
76.00000 -1.279
76.02000 0.517
76.04000 1.852
76.06000 1.570
76.08000 0.495
76.10000 1.843
76.12000 1.142
76.14000 -0.283
76.16000 0.604
76.18000 1.346
76.20000 1.898
76.22000 0.684
76.24000 0.949
76.26000 0.266
76.28000 2.363
76.30000 2.378
76.32000 -1.188
76.34000 -0.891
76.36000 0.797
76.38000 1.885
76.40000 3.150
76.42000 0.373
76.44000 0.152
76.46000 1.221
76.48000 -0.163
76.50000 2.202
76.52000 1.196
76.54000 -0.029
76.56000 -0.358
76.58000 0.195
76.60000 0.390
76.62000 1.692
76.64000 3.745
76.66000 1.955
76.68000 1.586
76.70000 2.320
76.72000 0.901
76.74000 0.761
76.76000 -1.850
76.78000 -0.792
76.80000 1.552
76.82000 2.476
76.84000 1.541
76.86000 0.461
76.88000 0.948
76.90000 1.630
76.92000 2.221
76.94000 0.642
76.96000 -1.851
76.98000 -0.531
77.00000 3.474
77.02000 3.015
77.04000 2.680
77.06000 3.771
77.08000 1.291
77.10000 3.287
77.12000 2.959
77.14000 4.412
77.16000 2.451
77.18000 0.220
77.20000 -0.666
77.22000 -0.920
77.24000 -0.213
77.26000 3.589
77.28000 2.037
77.30000 0.920
77.32000 -0.359
77.34000 2.440
77.36000 1.796
77.38000 -1.301
77.40000 -1.570
77.42000 -1.417
77.44000 -0.083
77.46000 -0.982
77.48000 -1.865
77.50000 0.466
77.52000 0.796
77.54000 -0.230
77.56000 3.090
77.58000 2.343
77.60000 1.975
77.62000 0.552
77.64000 -1.588
77.66000 1.854
77.68000 1.246
77.70000 1.252
77.72000 -1.008
77.74000 -1.004
77.76000 -1.308
77.78000 -1.236
77.80000 0.084
77.82000 1.098
77.84000 1.115
77.86000 1.397
77.88000 1.616
77.90000 3.786
77.92000 -0.650
77.94000 -0.298
77.96000 -0.241
77.98000 1.066
78.00000 2.180
78.02000 4.242
78.04000 0.731
78.06000 0.131
78.08000 -0.009
78.10000 0.122
78.12000 -1.241
78.14000 -1.396
78.16000 -1.021
78.18000 -1.385
78.20000 -1.278
78.22000 0.897
78.24000 1.605
78.26000 0.226
78.28000 -0.064
78.30000 -0.269
78.32000 -1.894
78.34000 1.264
78.36000 0.193
78.38000 -0.008
78.40000 -0.110
78.42000 -1.095
78.44000 -0.650
78.46000 -1.633
78.48000 -1.489
78.50000 -0.155
78.52000 1.280
78.54000 0.129
78.56000 -1.073
78.58000 -0.607
78.60000 -1.080
78.62000 -1.246
78.64000 -0.952
78.66000 -0.914
78.68000 -0.862
78.70000 -1.194
78.72000 0.108
78.74000 2.781
78.76000 -0.138
78.78000 -0.536
78.80000 -0.695
78.82000 2.867
78.84000 3.327
78.86000 1.039
78.88000 2.208
78.90000 0.785
78.92000 -1.905
78.94000 -0.835
78.96000 0.179
78.98000 0.143
79.00000 -1.161
79.02000 0.508
79.04000 0.524
79.06000 1.162
79.08000 5.259
79.10000 3.307
79.12000 -0.711
79.14000 0.942
79.16000 0.155
79.18000 -1.037
79.20000 -0.771
79.22000 -0.684
79.24000 0.979
79.26000 -1.907
79.28000 -0.730
79.30000 -0.248
79.32000 3.257
79.34000 0.890
79.36000 -0.253
79.38000 -0.445
79.40000 0.826
79.42000 -1.702
79.44000 -0.096
79.46000 1.220
79.48000 3.241
79.50000 2.156
79.52000 0.924
79.54000 -0.672
79.56000 0.138
79.58000 -0.571
79.60000 0.729
79.62000 0.825
79.64000 2.695
79.66000 3.041
79.68000 1.772
79.70000 -0.313
79.72000 -0.388
79.74000 0.285
79.76000 -0.993
79.78000 0.704
79.80000 -1.616
79.82000 0.269
79.84000 0.186
79.86000 0.003
79.88000 3.685
79.90000 2.482
79.92000 1.135
79.94000 -0.201
79.96000 1.872
79.98000 4.439
80.00000 3.430
80.02000 1.628
80.04000 -0.115
80.06000 -0.258
80.08000 1.937
80.10000 0.281
80.12000 -1.288
80.14000 0.359
80.16000 0.039
80.18000 -0.348
80.20000 -0.707
80.22000 -1.447
80.24000 -1.909
80.26000 1.847
80.28000 4.108
80.30000 1.618
80.32000 0.079
80.34000 2.687
80.36000 3.159
80.38000 2.693
80.40000 0.814
80.42000 0.187
80.44000 1.367
80.46000 1.605
80.48000 1.537
80.50000 3.350
80.52000 1.721
80.54000 2.066
80.56000 1.539
80.58000 0.673
80.60000 0.614
80.62000 -1.897
80.64000 -0.716
80.66000 0.573
80.68000 0.869
80.70000 0.395
80.72000 1.373
80.74000 3.908
80.76000 4.517
80.78000 -0.823
80.80000 -0.232
80.82000 -1.113
80.84000 2.050
80.86000 -0.160
80.88000 0.710
80.90000 0.527
80.92000 1.277
80.94000 0.729
80.96000 0.856
80.98000 -0.003
81.00000 -1.766
81.02000 -0.396
81.04000 0.212
81.06000 1.412
81.08000 0.077
81.10000 -0.865
81.12000 -1.496
81.14000 -0.379
81.16000 1.317
81.18000 1.488
81.20000 1.875
81.22000 -0.618
81.24000 -1.535
81.26000 -1.796
81.28000 -0.692
81.30000 1.753
81.32000 2.061
81.34000 1.052
81.36000 -1.175
81.38000 -0.460
81.40000 0.898
81.42000 2.306
81.44000 3.510
81.46000 6.735
81.48000 2.947
81.50000 0.974
81.52000 -0.661
81.54000 1.469
81.56000 1.485
81.58000 4.151
81.60000 0.959
81.62000 -1.786
81.64000 -2.031
81.66000 1.779
81.68000 3.559
81.70000 1.774
81.72000 0.707
81.74000 1.232
81.76000 -0.269
81.78000 0.657
81.80000 3.796
81.82000 2.698
81.84000 0.440
81.86000 2.959
81.88000 4.065
81.90000 1.261
81.92000 2.667
81.94000 3.656
81.96000 2.610
81.98000 3.164
82.00000 2.674
82.02000 3.498
82.04000 4.935
82.06000 5.485
82.08000 6.645
82.10000 8.443
82.12000 8.135
82.14000 7.341
82.16000 5.110
82.18000 4.630
82.20000 9.707
82.22000 10.326
82.24000 9.399
82.26000 9.755
82.28000 11.360
82.30000 12.063
82.32000 13.848
82.34000 17.250
82.36000 21.153
82.38000 17.410
82.40000 12.377
82.42000 13.040
82.44000 17.706
82.46000 21.157
82.48000 19.114
82.50000 22.850
82.52000 23.174
82.54000 23.150
82.56000 22.941
82.58000 24.733
82.60000 25.951
82.62000 23.918
82.64000 27.707
82.66000 31.039
82.68000 30.847
82.70000 31.869
82.72000 30.757
82.74000 33.477
82.76000 36.133
82.78000 40.156
82.80000 41.654
82.82000 39.805
82.84000 41.539
82.86000 42.309
82.88000 44.177
82.90000 46.413
82.92000 48.819
82.94000 48.961
82.96000 47.177
82.98000 47.545
83.00000 43.713
83.02000 47.052
83.04000 51.660
83.06000 53.950
83.08000 50.930
83.10000 49.755
83.12000 51.004
83.14000 53.979
83.16000 50.891
83.18000 45.214
83.20000 48.503
83.22000 46.999
83.24000 50.321
83.26000 51.566
83.28000 50.412
83.30000 50.515
83.32000 51.174
83.34000 47.454
83.36000 46.740
83.38000 42.842
83.40000 42.507
83.42000 43.998
83.44000 40.615
83.46000 40.845
83.48000 40.635
83.50000 35.799
83.52000 32.659
83.54000 31.358
83.56000 30.072
83.58000 31.449
83.60000 29.675
83.62000 26.186
83.64000 26.469
83.66000 23.075
83.68000 24.805
83.70000 24.783
83.72000 20.920
83.74000 20.239
83.76000 19.375
83.78000 16.399
83.80000 16.431
83.82000 18.671
83.84000 17.077
83.86000 16.278
83.88000 16.363
83.90000 16.546
83.92000 15.707
83.94000 15.596
83.96000 16.767
83.98000 11.777
84.00000 10.503
84.02000 9.353
84.04000 9.770
84.06000 7.696
84.08000 9.390
84.10000 8.851
84.12000 7.539
84.14000 9.993
84.16000 7.845
84.18000 5.629
84.20000 9.232
84.22000 10.412
84.24000 9.542
84.26000 7.629
84.28000 5.006
84.30000 7.307
84.32000 7.201
84.34000 4.267
84.36000 4.791
84.38000 1.270
84.40000 1.878
84.42000 1.841
84.44000 1.733
84.46000 2.955
84.48000 3.193
84.50000 3.917
84.52000 4.558
84.54000 1.507
84.56000 1.459
84.58000 1.272
84.60000 1.134
84.62000 0.818
84.64000 -1.304
84.66000 0.868
84.68000 2.311
84.70000 1.567
84.72000 0.789
84.74000 -1.179
84.76000 -0.476
84.78000 0.721
84.80000 2.328
84.82000 0.054
84.84000 -1.682
84.86000 -2.025
84.88000 -1.035
84.90000 2.156
84.92000 1.584
84.94000 1.184
84.96000 1.573
84.98000 2.023
85.00000 1.356
85.02000 -1.076
85.04000 2.396
85.06000 0.571
85.08000 2.406
85.10000 0.817
85.12000 1.076
85.14000 4.345
85.16000 1.477
85.18000 -1.369
85.20000 -1.987
85.22000 0.784
85.24000 1.488
85.26000 1.881
85.28000 1.644
85.30000 -0.225
85.32000 3.177
85.34000 3.106
85.36000 4.595
85.38000 1.696
85.40000 0.463
85.42000 0.884
85.44000 3.211
85.46000 2.154
85.48000 0.922
85.50000 2.283
85.52000 1.149
85.54000 -1.942
85.56000 2.549
85.58000 6.796
85.60000 3.114
85.62000 -1.337
85.64000 0.886
85.66000 -0.273
85.68000 0.639
85.70000 1.960
85.72000 1.516
85.74000 0.024
85.76000 1.080
85.78000 0.643
85.80000 -0.030
85.82000 0.284
85.84000 1.083
85.86000 -0.192
85.88000 -0.292
85.90000 2.232
85.92000 -0.682
85.94000 -1.972
85.96000 -1.236
85.98000 0.390
86.00000 2.317
86.02000 1.137
86.04000 0.615
86.06000 -0.236
86.08000 -0.551
86.10000 1.756
86.12000 1.373
86.14000 0.411
86.16000 0.127
86.18000 -0.697
86.20000 0.117
86.22000 0.014
86.24000 -1.695
86.26000 -0.241
86.28000 -1.552
86.30000 -0.435
86.32000 1.281
86.34000 0.769
86.36000 2.349
86.38000 0.878
86.40000 2.196
86.42000 2.046
86.44000 0.748
86.46000 2.237
86.48000 2.038
86.50000 0.776
86.52000 -2.021
86.54000 2.417
86.56000 4.388
86.58000 2.674
86.60000 5.548
86.62000 3.144
86.64000 5.574
86.66000 7.309
86.68000 6.275
86.70000 3.936
86.72000 5.246
86.74000 3.956
86.76000 2.579
86.78000 3.819
86.80000 7.929
86.82000 6.365
86.84000 7.634
86.86000 10.247
86.88000 7.791
86.90000 6.380
86.92000 9.853
86.94000 10.189
86.96000 9.194
86.98000 10.640
87.00000 9.302
87.02000 9.348
87.04000 11.176
87.06000 16.125
87.08000 19.785
87.10000 19.707
87.12000 18.373
87.14000 21.690
87.16000 18.098
87.18000 16.263
87.20000 19.043
87.22000 21.424
87.24000 16.460
87.26000 19.658
87.28000 20.790
87.30000 19.373
87.32000 24.750
87.34000 25.700
87.36000 26.764
87.38000 26.991
87.40000 28.399
87.42000 26.089
87.44000 26.291
87.46000 27.576
87.48000 29.744
87.50000 29.647
87.52000 22.644
87.54000 25.085
87.56000 27.590
87.58000 27.482
87.60000 26.716
87.62000 26.581
87.64000 24.482
87.66000 27.671
87.68000 28.258
87.70000 27.093
87.72000 29.122
87.74000 27.011
87.76000 26.715
87.78000 26.492
87.80000 25.276
87.82000 22.882
87.84000 22.581
87.86000 23.172
87.88000 20.893
87.90000 19.393
87.92000 23.642
87.94000 21.271
87.96000 20.772
87.98000 18.007
88.00000 19.088
88.02000 19.474
88.04000 16.806
88.06000 16.540
88.08000 16.382
88.10000 13.330
88.12000 15.256
88.14000 15.513
88.16000 12.203
88.18000 11.346
88.20000 11.654
88.22000 12.282
88.24000 12.006
88.26000 11.672
88.28000 9.510
88.30000 9.924
88.32000 8.377
88.34000 5.566
88.36000 6.740
88.38000 7.130
88.40000 6.929
88.42000 2.861
88.44000 3.211
88.46000 4.625
88.48000 6.220
88.50000 7.246
88.52000 4.430
88.54000 2.467
88.56000 4.458
88.58000 4.201
88.60000 5.168
88.62000 5.675
88.64000 1.290
88.66000 1.305
88.68000 2.041
88.70000 1.840
88.72000 1.949
88.74000 2.249
88.76000 1.441
88.78000 2.576
88.80000 3.616
88.82000 3.870
88.84000 4.270
88.86000 2.969
88.88000 0.659
88.90000 1.333
88.92000 0.987
88.94000 -1.446
88.96000 -1.895
88.98000 1.688
89.00000 1.775
89.02000 2.947
89.04000 2.716
89.06000 0.212
89.08000 1.357
89.10000 2.400
89.12000 -0.580
89.14000 -1.461
89.16000 -1.390
89.18000 2.903
89.20000 4.341
89.22000 0.834
89.24000 -1.786
89.26000 -1.861
89.28000 -0.015
89.30000 1.244
89.32000 -0.819
89.34000 2.402
89.36000 2.459
89.38000 0.865
89.40000 2.216
89.42000 3.317
89.44000 1.591
89.46000 1.068
89.48000 1.545
89.50000 2.074
89.52000 0.613
89.54000 1.505
89.56000 -0.355
89.58000 0.687
89.60000 -0.240
89.62000 0.648
89.64000 0.038
89.66000 -1.187
89.68000 -0.297
89.70000 -1.798
89.72000 0.326
89.74000 1.729
89.76000 2.320
89.78000 1.418
89.80000 1.154
89.82000 3.338
89.84000 2.390
89.86000 0.041
89.88000 0.865
89.90000 3.722
89.92000 2.470
89.94000 1.634
89.96000 1.229
89.98000 1.399
90.00000 1.706
90.02000 0.501
90.04000 0.515
90.06000 3.184
90.08000 1.316
90.10000 0.151
90.12000 -0.261
90.14000 -1.772
90.16000 -0.319
90.18000 1.777
90.20000 1.587
90.22000 0.454
90.24000 -0.212
90.26000 0.356
90.28000 0.142
90.30000 1.992
90.32000 2.394
90.34000 2.996
90.36000 0.652
90.38000 -0.944
90.40000 -1.036
90.42000 -0.670
90.44000 0.041
90.46000 2.076
90.48000 2.019
90.50000 0.694
90.52000 -1.180
90.54000 0.022
90.56000 1.068
90.58000 3.381
90.60000 2.780
90.62000 1.696
90.64000 2.648
90.66000 0.975
90.68000 1.288
90.70000 1.970
90.72000 1.460
90.74000 1.753
90.76000 3.139
90.78000 0.855
90.80000 0.546
90.82000 0.710
90.84000 1.565
90.86000 2.237
90.88000 0.936
90.90000 -1.767
90.92000 -0.754
90.94000 1.708
90.96000 3.791
90.98000 3.118
91.00000 2.435
91.02000 2.484
91.04000 0.265
91.06000 4.058
91.08000 2.291
91.10000 0.300
91.12000 0.663
91.14000 1.575
91.16000 1.756
91.18000 2.084
91.20000 1.250
91.22000 1.066
91.24000 1.513
91.26000 0.893
91.28000 -1.049
91.30000 0.547
91.32000 0.882
91.34000 1.572
91.36000 0.248
91.38000 0.325
91.40000 2.021
91.42000 1.943
91.44000 -1.766
91.46000 0.975
91.48000 -0.621
91.50000 -1.554
91.52000 0.471
91.54000 2.617
91.56000 1.505
91.58000 1.982
91.60000 1.066
91.62000 1.039
91.64000 -1.516
91.66000 3.411
91.68000 1.741
91.70000 -1.528
91.72000 1.819
91.74000 1.938
91.76000 2.283
91.78000 1.717
91.80000 0.776
91.82000 1.618
91.84000 3.834
91.86000 5.981
91.88000 2.174
91.90000 -0.527
91.92000 -0.534
91.94000 0.374
91.96000 -1.778
91.98000 -1.172
92.00000 4.912
92.02000 3.289
92.04000 -1.174
92.06000 3.075
92.08000 2.687
92.10000 2.305
92.12000 0.047
92.14000 1.377
92.16000 -0.552
92.18000 1.435
92.20000 3.792
92.22000 1.431
92.24000 2.340
92.26000 2.091
92.28000 -1.147
92.30000 1.980
92.32000 0.828
92.34000 -0.146
92.36000 3.983
92.38000 3.336
92.40000 2.088
92.42000 -0.151
92.44000 -1.369
92.46000 -0.301
92.48000 -0.479
92.50000 -1.321
92.52000 2.365
92.54000 4.226
92.56000 0.593
92.58000 0.535
92.60000 -1.272
92.62000 -0.727
92.64000 -0.782
92.66000 -1.220
92.68000 -0.635
92.70000 2.584
92.72000 0.336
92.74000 0.671
92.76000 0.984
92.78000 1.617
92.80000 1.396
92.82000 1.565
92.84000 1.266
92.86000 2.797
92.88000 3.521
92.90000 3.357
92.92000 2.477
92.94000 1.381
92.96000 -1.740
92.98000 -0.825
93.00000 1.802
93.02000 3.389
93.04000 1.803
93.06000 1.877
93.08000 2.948
93.10000 4.721
93.12000 5.306
93.14000 2.750
93.16000 1.495
93.18000 -0.052
93.20000 1.212
93.22000 -0.271
93.24000 4.094
93.26000 4.759
93.28000 3.642
93.30000 -0.019
93.32000 2.678
93.34000 4.314
93.36000 4.434
93.38000 4.197
93.40000 1.309
93.42000 -1.197
93.44000 -1.647
93.46000 -0.355
93.48000 1.333
93.50000 3.220
93.52000 3.563
93.54000 0.183
93.56000 2.286
93.58000 1.825
93.60000 3.453
93.62000 5.207
93.64000 2.225
93.66000 2.085
93.68000 3.050
93.70000 -1.733
93.72000 1.035
93.74000 -0.012
93.76000 -1.083
93.78000 0.872
93.80000 -1.342
93.82000 2.161
93.84000 5.649
93.86000 1.734
93.88000 0.546
93.90000 -1.753
93.92000 0.500
93.94000 0.726
93.96000 0.907
93.98000 2.616
94.00000 1.768
94.02000 2.455
94.04000 2.869
94.06000 3.398
94.08000 2.636
94.10000 1.465
94.12000 1.996
94.14000 3.607
94.16000 4.660
94.18000 3.481
94.20000 3.253
94.22000 -0.721
94.24000 1.512
94.26000 4.545
94.28000 5.020
94.30000 3.112
94.32000 1.758
94.34000 1.571
94.36000 -1.468
94.38000 2.454
94.40000 1.501
94.42000 -0.163
94.44000 -0.699
94.46000 1.924
94.48000 1.350
94.50000 2.795
94.52000 1.399
94.54000 -0.449
94.56000 1.795
94.58000 2.149
94.60000 1.344
94.62000 1.334
94.64000 2.222
94.66000 0.852
94.68000 3.154
94.70000 1.987
94.72000 0.716
94.74000 0.524
94.76000 0.176
94.78000 -0.310
94.80000 -0.652
94.82000 2.521
94.84000 2.863
94.86000 0.083
94.88000 -0.065
94.90000 0.822
94.92000 0.836
94.94000 1.355
94.96000 1.749
94.98000 3.007
95.00000 3.488
95.02000 3.701
95.04000 4.198
95.06000 0.635
95.08000 -1.782
95.10000 0.212
95.12000 2.389
95.14000 1.992
95.16000 0.983
95.18000 3.202
95.20000 2.497
95.22000 4.440
95.24000 2.872
95.26000 0.447
95.28000 4.441
95.30000 -0.629
95.32000 3.673
95.34000 3.894
95.36000 0.931
95.38000 1.270
95.40000 -1.602
95.42000 -0.991
95.44000 3.994
95.46000 6.602
95.48000 3.484
95.50000 4.933
95.52000 5.972
95.54000 2.577
95.56000 -0.746
95.58000 2.887
95.60000 6.641
95.62000 6.947
95.64000 4.237
95.66000 1.223
95.68000 0.146
95.70000 0.867
95.72000 3.436
95.74000 7.191
95.76000 5.851
95.78000 0.787
95.80000 -1.715
95.82000 1.488
95.84000 2.846
95.86000 2.200
95.88000 5.516
95.90000 5.988
95.92000 3.557
95.94000 3.263
95.96000 0.817
95.98000 0.776
96.00000 5.515
96.02000 7.902
96.04000 4.504
96.06000 6.420
96.08000 2.338
96.10000 -0.540
96.12000 0.905
96.14000 2.450
96.16000 1.144
96.18000 0.713
96.20000 2.505
96.22000 5.036
96.24000 6.167
96.26000 3.212
96.28000 1.285
96.30000 0.542
96.32000 2.774
96.34000 2.770
96.36000 -0.394
96.38000 -1.178
96.40000 3.583
96.42000 3.730
96.44000 1.529
96.46000 4.143
96.48000 1.564
96.50000 -1.304
96.52000 2.745
96.54000 1.996
96.56000 4.030
96.58000 3.548
96.60000 1.471
96.62000 3.317
96.64000 4.220
96.66000 2.442
96.68000 1.957
96.70000 1.822
96.72000 -0.383
96.74000 -1.001
96.76000 3.477
96.78000 2.343
96.80000 2.401
96.82000 2.405
96.84000 -1.749
96.86000 0.329
96.88000 1.489
96.90000 0.619
96.92000 3.534
96.94000 3.643
96.96000 7.156
96.98000 5.312
97.00000 1.175
97.02000 0.691
97.04000 4.570
97.06000 5.348
97.08000 3.131
97.10000 2.297
97.12000 -0.309
97.14000 -0.647
97.16000 1.255
97.18000 1.716
97.20000 1.099
97.22000 2.316
97.24000 1.238
97.26000 0.970
97.28000 -1.251
97.30000 -1.762
97.32000 -1.351
97.34000 2.519
97.36000 3.318
97.38000 1.587
97.40000 1.386
97.42000 1.891
97.44000 0.204
97.46000 4.865
97.48000 1.565
97.50000 0.176
97.52000 0.362
97.54000 2.922
97.56000 4.115
97.58000 0.961
97.60000 2.714
97.62000 0.780
97.64000 3.148
97.66000 2.743
97.68000 -0.996
97.70000 3.106
97.72000 3.394
97.74000 -0.849
97.76000 -1.628
97.78000 -1.282
97.80000 -0.066
97.82000 3.372
97.84000 2.237
97.86000 0.385
97.88000 2.858
97.90000 1.579
97.92000 -0.776
97.94000 -1.761
97.96000 0.975
97.98000 0.079
98.00000 1.336
98.02000 1.482
98.04000 1.444
98.06000 4.471
98.08000 2.459
98.10000 2.740
98.12000 1.548
98.14000 -0.043
98.16000 4.253
98.18000 8.366
98.20000 3.488
98.22000 -0.342
98.24000 1.346
98.26000 1.389
98.28000 5.018
98.30000 5.342
98.32000 6.879
98.34000 6.308
98.36000 4.484
98.38000 4.600
98.40000 3.534
98.42000 -0.214
98.44000 1.814
98.46000 2.291
98.48000 5.451
98.50000 -0.311
98.52000 1.904
98.54000 -0.086
98.56000 0.085
98.58000 1.905
98.60000 -0.167
98.62000 3.244
98.64000 0.922
98.66000 3.092
98.68000 0.337
98.70000 -0.046
98.72000 3.035
98.74000 2.360
98.76000 4.462
98.78000 0.506
98.80000 -0.020
98.82000 2.569
98.84000 5.672
98.86000 2.109
98.88000 1.370
98.90000 6.210
98.92000 -0.156
98.94000 2.479
98.96000 7.527
98.98000 2.625
99.00000 0.281
99.02000 -1.685
99.04000 1.245
99.06000 5.969
99.08000 2.105
99.10000 3.693
99.12000 4.713
99.14000 6.647
99.16000 5.232
99.18000 4.653
99.20000 5.977
99.22000 2.349
99.24000 3.559
99.26000 3.170
99.28000 2.680
99.30000 4.417
99.32000 4.158
99.34000 -1.043
99.36000 -1.672
99.38000 -0.257
99.40000 3.704
99.42000 3.113
99.44000 5.604
99.46000 2.876
99.48000 6.123
99.50000 5.350
99.52000 6.382
99.54000 9.543
99.56000 7.242
99.58000 7.500
99.60000 0.406
99.62000 4.226
99.64000 2.719
99.66000 0.567
99.68000 3.729
99.70000 1.042
99.72000 6.517
99.74000 10.611
99.76000 4.342
99.78000 4.715
99.80000 8.795
99.82000 3.058
99.84000 1.083
99.86000 -1.658
99.88000 1.877
99.90000 3.595
99.92000 3.335
99.94000 1.648
99.96000 4.622
99.98000 0.000
