'Id: "0011387" Comment: "Integrate frame 0011387_Au-Ir-Rh_Rh-rich_XRD-Mapping-042-0000.gfrmwith cursor Wedge Cursor #5" Operator: "B?rgel" Anode: "Cu" Wavelength: "1.5406" Scantype: "2Theta (TwoTheta)" TimePerStep: "1" X: "-22.5" Y: "-27" Z: "5.95" 
10.00000 0.000
10.02000 13.723
10.04000 -4.611
10.06000 -4.505
10.08000 -2.902
10.10000 15.504
10.12000 18.632
10.14000 21.864
10.16000 6.758
10.18000 8.123
10.20000 18.215
10.22000 20.894
10.24000 9.709
10.26000 14.851
10.28000 8.859
10.30000 14.261
10.32000 5.507
10.34000 8.326
10.36000 -1.026
10.38000 8.061
10.40000 15.884
10.42000 15.683
10.44000 6.384
10.46000 15.329
10.48000 25.468
10.50000 17.956
10.52000 24.095
10.54000 27.317
10.56000 22.155
10.58000 13.065
10.60000 4.566
10.62000 12.382
10.64000 29.722
10.66000 27.381
10.68000 22.281
10.70000 29.437
10.72000 9.797
10.74000 9.489
10.76000 18.067
10.78000 14.117
10.80000 3.913
10.82000 14.556
10.84000 20.692
10.86000 16.471
10.88000 21.443
10.90000 11.434
10.92000 -4.705
10.94000 10.567
10.96000 12.579
10.98000 -0.013
11.00000 -4.511
11.02000 1.064
11.04000 -0.023
11.06000 -1.122
11.08000 5.560
11.10000 15.146
11.12000 7.699
11.14000 12.596
11.16000 4.854
11.18000 15.502
11.20000 14.713
11.22000 14.352
11.24000 17.288
11.26000 23.484
11.28000 18.239
11.30000 14.876
11.32000 20.312
11.34000 5.052
11.36000 3.819
11.38000 19.057
11.40000 0.227
11.42000 -1.985
11.44000 3.939
11.46000 3.324
11.48000 9.791
11.50000 10.240
11.52000 6.650
11.54000 10.586
11.56000 14.601
11.58000 8.788
11.60000 5.252
11.62000 -0.837
11.64000 2.415
11.66000 5.735
11.68000 0.618
11.70000 13.212
11.72000 17.899
11.74000 8.729
11.76000 8.834
11.78000 16.248
11.80000 9.631
11.82000 10.155
11.84000 14.125
11.86000 19.940
11.88000 10.758
11.90000 12.207
11.92000 8.756
11.94000 18.376
11.96000 14.833
11.98000 16.862
12.00000 0.138
12.02000 -4.549
12.04000 6.349
12.06000 9.843
12.08000 4.055
12.10000 12.160
12.12000 15.104
12.14000 9.413
12.16000 15.372
12.18000 9.456
12.20000 11.585
12.22000 14.619
12.24000 13.360
12.26000 7.042
12.28000 10.593
12.30000 13.712
12.32000 12.835
12.34000 3.421
12.36000 2.527
12.38000 2.235
12.40000 5.890
12.42000 14.864
12.44000 16.895
12.46000 7.755
12.48000 20.394
12.50000 21.258
12.52000 9.130
12.54000 8.884
12.56000 15.033
12.58000 5.676
12.60000 5.106
12.62000 10.704
12.64000 5.701
12.66000 4.923
12.68000 1.866
12.70000 -4.164
12.72000 -4.014
12.74000 10.073
12.76000 2.955
12.78000 11.000
12.80000 8.242
12.82000 7.874
12.84000 12.116
12.86000 8.438
12.88000 9.786
12.90000 8.538
12.92000 -0.028
12.94000 12.924
12.96000 8.976
12.98000 9.344
13.00000 0.402
13.02000 10.984
13.04000 4.410
13.06000 -4.477
13.08000 6.062
13.10000 17.344
13.12000 6.731
13.14000 6.961
13.16000 12.131
13.18000 14.899
13.20000 23.535
13.22000 6.670
13.24000 3.807
13.26000 6.961
13.28000 11.597
13.30000 9.321
13.32000 11.268
13.34000 18.388
13.36000 18.447
13.38000 15.840
13.40000 16.363
13.42000 9.792
13.44000 9.352
13.46000 -4.562
13.48000 -1.289
13.50000 9.072
13.52000 14.019
13.54000 13.578
13.56000 16.050
13.58000 15.104
13.60000 17.668
13.62000 9.314
13.64000 12.356
13.66000 19.495
13.68000 20.643
13.70000 16.069
13.72000 9.457
13.74000 19.859
13.76000 10.631
13.78000 6.550
13.80000 11.612
13.82000 10.680
13.84000 5.298
13.86000 3.512
13.88000 5.471
13.90000 -0.676
13.92000 12.411
13.94000 18.875
13.96000 15.604
13.98000 3.187
14.00000 4.971
14.02000 0.052
14.04000 -0.554
14.06000 2.784
14.08000 6.042
14.10000 12.069
14.12000 10.398
14.14000 1.026
14.16000 7.059
14.18000 8.099
14.20000 11.922
14.22000 11.525
14.24000 9.639
14.26000 11.334
14.28000 6.798
14.30000 1.526
14.32000 11.580
14.34000 15.535
14.36000 4.025
14.38000 12.249
14.40000 17.502
14.42000 3.620
14.44000 -4.533
14.46000 1.752
14.48000 6.608
14.50000 7.763
14.52000 12.999
14.54000 12.371
14.56000 8.980
14.58000 4.016
14.60000 15.660
14.62000 12.020
14.64000 4.114
14.66000 4.755
14.68000 5.495
14.70000 -2.117
14.72000 -2.969
14.74000 3.621
14.76000 7.405
14.78000 7.638
14.80000 5.875
14.82000 10.170
14.84000 5.571
14.86000 -2.102
14.88000 -0.109
14.90000 12.864
14.92000 16.713
14.94000 16.636
14.96000 12.891
14.98000 13.480
15.00000 12.751
15.02000 10.974
15.04000 5.962
15.06000 11.272
15.08000 9.135
15.10000 7.871
15.12000 13.513
15.14000 10.924
15.16000 8.666
15.18000 3.353
15.20000 8.389
15.22000 10.568
15.24000 -0.936
15.26000 1.685
15.28000 5.853
15.30000 3.915
15.32000 2.682
15.34000 -0.217
15.36000 7.412
15.38000 8.047
15.40000 6.710
15.42000 16.332
15.44000 17.424
15.46000 20.749
15.48000 16.025
15.50000 9.639
15.52000 9.414
15.54000 4.936
15.56000 4.235
15.58000 8.187
15.60000 9.419
15.62000 3.325
15.64000 4.428
15.66000 7.673
15.68000 13.622
15.70000 13.172
15.72000 11.267
15.74000 3.585
15.76000 -4.463
15.78000 -4.384
15.80000 4.044
15.82000 5.913
15.84000 11.718
15.86000 8.037
15.88000 14.466
15.90000 16.681
15.92000 8.860
15.94000 7.353
15.96000 4.165
15.98000 -1.634
16.00000 4.077
16.02000 14.376
16.04000 13.433
16.06000 12.659
16.08000 11.087
16.10000 5.221
16.12000 15.248
16.14000 14.401
16.16000 18.350
16.18000 9.863
16.20000 9.527
16.22000 13.786
16.24000 3.014
16.26000 3.047
16.28000 7.326
16.30000 9.625
16.32000 8.442
16.34000 6.280
16.36000 7.759
16.38000 8.214
16.40000 1.725
16.42000 10.074
16.44000 17.582
16.46000 16.805
16.48000 16.732
16.50000 9.479
16.52000 0.904
16.54000 -4.467
16.56000 -3.572
16.58000 -0.761
16.60000 -3.562
16.62000 7.853
16.64000 8.418
16.66000 8.078
16.68000 7.320
16.70000 11.821
16.72000 16.796
16.74000 14.457
16.76000 10.359
16.78000 11.385
16.80000 4.934
16.82000 6.392
16.84000 10.026
16.86000 3.379
16.88000 2.570
16.90000 7.796
16.92000 2.515
16.94000 4.187
16.96000 8.830
16.98000 9.930
17.00000 12.580
17.02000 9.694
17.04000 2.519
17.06000 8.004
17.08000 8.488
17.10000 0.390
17.12000 4.245
17.14000 7.820
17.16000 13.406
17.18000 15.184
17.20000 11.365
17.22000 13.241
17.24000 8.014
17.26000 5.522
17.28000 -1.215
17.30000 6.216
17.32000 9.866
17.34000 8.801
17.36000 3.836
17.38000 4.662
17.40000 7.602
17.42000 -0.306
17.44000 -4.434
17.46000 0.523
17.48000 4.218
17.50000 8.209
17.52000 12.298
17.54000 14.612
17.56000 6.822
17.58000 1.099
17.60000 -2.309
17.62000 -4.221
17.64000 4.506
17.66000 8.414
17.68000 7.645
17.70000 1.987
17.72000 -2.537
17.74000 -3.002
17.76000 0.382
17.78000 -4.238
17.80000 -2.919
17.82000 4.569
17.84000 4.082
17.86000 5.885
17.88000 3.391
17.90000 2.999
17.92000 -0.396
17.94000 6.320
17.96000 1.406
17.98000 1.484
18.00000 1.134
18.02000 2.454
18.04000 -4.271
18.06000 -0.095
18.08000 4.436
18.10000 12.384
18.12000 10.426
18.14000 6.712
18.16000 4.002
18.18000 5.366
18.20000 8.314
18.22000 11.399
18.24000 5.824
18.26000 -3.364
18.28000 -1.164
18.30000 -1.677
18.32000 1.049
18.34000 -3.341
18.36000 -4.380
18.38000 0.138
18.40000 3.161
18.42000 7.176
18.44000 9.717
18.46000 12.627
18.48000 3.499
18.50000 7.272
18.52000 7.194
18.54000 8.293
18.56000 6.380
18.58000 4.602
18.60000 3.083
18.62000 6.535
18.64000 6.392
18.66000 5.388
18.68000 8.417
18.70000 -3.240
18.72000 -0.993
18.74000 1.471
18.76000 -2.401
18.78000 3.437
18.80000 1.417
18.82000 6.579
18.84000 4.471
18.86000 7.545
18.88000 5.583
18.90000 -0.423
18.92000 1.705
18.94000 3.960
18.96000 9.460
18.98000 6.564
19.00000 6.070
19.02000 7.194
19.04000 2.007
19.06000 3.658
19.08000 4.879
19.10000 2.847
19.12000 2.351
19.14000 7.650
19.16000 5.021
19.18000 6.508
19.20000 7.590
19.22000 10.476
19.24000 3.854
19.26000 5.057
19.28000 5.149
19.30000 3.521
19.32000 13.460
19.34000 9.108
19.36000 4.268
19.38000 4.490
19.40000 -1.016
19.42000 3.359
19.44000 4.822
19.46000 6.999
19.48000 -4.280
19.50000 -1.816
19.52000 -2.571
19.54000 3.348
19.56000 7.984
19.58000 6.773
19.60000 5.753
19.62000 7.395
19.64000 9.507
19.66000 5.961
19.68000 -0.933
19.70000 1.864
19.72000 1.405
19.74000 7.764
19.76000 12.838
19.78000 18.162
19.80000 11.502
19.82000 5.226
19.84000 -0.098
19.86000 8.235
19.88000 7.338
19.90000 4.649
19.92000 4.418
19.94000 5.391
19.96000 -1.385
19.98000 7.785
20.00000 5.223
20.02000 3.744
20.04000 -1.172
20.06000 -3.494
20.08000 0.133
20.10000 5.717
20.12000 0.275
20.14000 4.067
20.16000 2.151
20.18000 6.943
20.20000 7.497
20.22000 5.076
20.24000 10.504
20.26000 13.000
20.28000 -0.677
20.30000 -4.260
20.32000 5.647
20.34000 9.450
20.36000 11.236
20.38000 13.055
20.40000 3.803
20.42000 0.979
20.44000 1.096
20.46000 -0.098
20.48000 -3.286
20.50000 0.380
20.52000 2.397
20.54000 -0.035
20.56000 5.704
20.58000 5.978
20.60000 -0.606
20.62000 1.342
20.64000 4.829
20.66000 -1.928
20.68000 -2.598
20.70000 4.460
20.72000 8.944
20.74000 3.779
20.76000 6.632
20.78000 7.382
20.80000 9.776
20.82000 5.136
20.84000 0.951
20.86000 3.378
20.88000 5.973
20.90000 5.958
20.92000 9.593
20.94000 7.611
20.96000 0.133
20.98000 1.430
21.00000 0.823
21.02000 -0.551
21.04000 5.792
21.06000 4.807
21.08000 5.113
21.10000 4.405
21.12000 5.677
21.14000 14.492
21.16000 10.030
21.18000 2.628
21.20000 1.547
21.22000 -1.352
21.24000 -2.149
21.26000 -0.357
21.28000 7.202
21.30000 7.540
21.32000 7.456
21.34000 11.142
21.36000 8.559
21.38000 2.010
21.40000 3.355
21.42000 9.216
21.44000 -1.227
21.46000 7.129
21.48000 4.946
21.50000 6.308
21.52000 8.556
21.54000 14.211
21.56000 8.368
21.58000 -4.158
21.60000 -2.775
21.62000 3.707
21.64000 1.775
21.66000 4.652
21.68000 6.725
21.70000 2.963
21.72000 0.877
21.74000 7.585
21.76000 15.202
21.78000 6.091
21.80000 7.566
21.82000 6.711
21.84000 4.447
21.86000 5.618
21.88000 10.823
21.90000 10.200
21.92000 12.360
21.94000 11.700
21.96000 8.787
21.98000 4.647
22.00000 10.061
22.02000 13.100
22.04000 8.140
22.06000 5.844
22.08000 12.996
22.10000 9.520
22.12000 5.921
22.14000 7.337
22.16000 9.653
22.18000 3.398
22.20000 8.464
22.22000 8.035
22.24000 5.866
22.26000 -4.136
22.28000 -0.602
22.30000 5.041
22.32000 7.977
22.34000 9.224
22.36000 0.845
22.38000 9.019
22.40000 6.224
22.42000 1.932
22.44000 7.389
22.46000 9.103
22.48000 -2.006
22.50000 -2.117
22.52000 2.792
22.54000 5.722
22.56000 8.143
22.58000 6.472
22.60000 -0.265
22.62000 -1.440
22.64000 4.389
22.66000 3.804
22.68000 5.471
22.70000 9.160
22.72000 8.435
22.74000 1.387
22.76000 2.677
22.78000 3.178
22.80000 8.122
22.82000 3.100
22.84000 3.080
22.86000 4.541
22.88000 3.480
22.90000 6.190
22.92000 9.590
22.94000 6.909
22.96000 6.723
22.98000 2.829
23.00000 0.576
23.02000 -3.299
23.04000 -4.092
23.06000 1.840
23.08000 5.026
23.10000 0.350
23.12000 1.107
23.14000 5.225
23.16000 6.957
23.18000 1.007
23.20000 -4.069
23.22000 3.158
23.24000 5.242
23.26000 6.608
23.28000 11.454
23.30000 9.702
23.32000 3.710
23.34000 1.906
23.36000 6.027
23.38000 3.141
23.40000 0.707
23.42000 -3.195
23.44000 -1.938
23.46000 3.418
23.48000 8.374
23.50000 4.607
23.52000 7.214
23.54000 5.351
23.56000 3.179
23.58000 3.097
23.60000 7.888
23.62000 11.090
23.64000 9.308
23.66000 11.665
23.68000 8.091
23.70000 6.358
23.72000 11.707
23.74000 12.128
23.76000 8.621
23.78000 5.575
23.80000 5.094
23.82000 4.319
23.84000 2.531
23.86000 -4.020
23.88000 -1.716
23.90000 0.945
23.92000 6.312
23.94000 6.264
23.96000 1.745
23.98000 1.592
24.00000 5.366
24.02000 5.329
24.04000 5.434
24.06000 -0.248
24.08000 4.131
24.10000 5.870
24.12000 5.583
24.14000 9.284
24.16000 6.950
24.18000 4.947
24.20000 5.917
24.22000 7.755
24.24000 11.404
24.26000 12.087
24.28000 6.734
24.30000 5.267
24.32000 5.077
24.34000 -0.157
24.36000 3.437
24.38000 1.523
24.40000 -2.002
24.42000 -3.989
24.44000 3.664
24.46000 5.282
24.48000 4.901
24.50000 9.977
24.52000 7.125
24.54000 8.049
24.56000 9.675
24.58000 7.943
24.60000 13.678
24.62000 12.176
24.64000 8.277
24.66000 9.315
24.68000 11.225
24.70000 8.767
24.72000 9.108
24.74000 8.597
24.76000 8.111
24.78000 0.922
24.80000 5.924
24.82000 3.999
24.84000 -0.168
24.86000 6.882
24.88000 9.918
24.90000 10.737
24.92000 11.481
24.94000 9.064
24.96000 6.409
24.98000 3.972
25.00000 3.324
25.02000 4.934
25.04000 6.751
25.06000 10.141
25.08000 9.245
25.10000 9.048
25.12000 17.628
25.14000 6.883
25.16000 3.414
25.18000 6.412
25.20000 6.653
25.22000 7.507
25.24000 7.201
25.26000 -1.373
25.28000 -3.947
25.30000 -3.324
25.32000 -1.697
25.34000 2.020
25.36000 7.652
25.38000 5.480
25.40000 1.180
25.42000 3.753
25.44000 1.764
25.46000 0.543
25.48000 1.780
25.50000 3.012
25.52000 3.928
25.54000 5.452
25.56000 5.449
25.58000 -3.391
25.60000 -0.627
25.62000 -0.743
25.64000 -3.588
25.66000 0.122
25.68000 0.845
25.70000 2.740
25.72000 3.080
25.74000 -2.644
25.76000 1.510
25.78000 3.575
25.80000 3.656
25.82000 -2.039
25.84000 0.398
25.86000 1.371
25.88000 1.465
25.90000 2.922
25.92000 6.284
25.94000 4.704
25.96000 2.428
25.98000 -1.102
26.00000 1.413
26.02000 2.982
26.04000 3.133
26.06000 6.812
26.08000 8.240
26.10000 9.257
26.12000 7.619
26.14000 1.887
26.16000 0.169
26.18000 8.821
26.20000 7.921
26.22000 3.487
26.24000 3.146
26.26000 3.580
26.28000 -0.873
26.30000 1.839
26.32000 2.695
26.34000 1.140
26.36000 5.081
26.38000 6.587
26.40000 6.116
26.42000 4.563
26.44000 1.214
26.46000 -3.169
26.48000 -2.011
26.50000 3.712
26.52000 4.990
26.54000 7.253
26.56000 7.962
26.58000 4.224
26.60000 5.102
26.62000 7.863
26.64000 11.262
26.66000 10.080
26.68000 6.443
26.70000 3.328
26.72000 2.913
26.74000 -3.044
26.76000 -2.846
26.78000 6.510
26.80000 9.764
26.82000 1.998
26.84000 0.598
26.86000 4.085
26.88000 4.228
26.90000 2.857
26.92000 3.822
26.94000 6.054
26.96000 5.454
26.98000 1.639
27.00000 6.387
27.02000 4.778
27.04000 8.798
27.06000 7.834
27.08000 9.538
27.10000 7.087
27.12000 3.911
27.14000 7.779
27.16000 6.865
27.18000 9.886
27.20000 10.217
27.22000 6.839
27.24000 4.751
27.26000 0.072
27.28000 -3.839
27.30000 -1.771
27.32000 5.023
27.34000 0.471
27.36000 8.136
27.38000 6.818
27.40000 2.289
27.42000 2.219
27.44000 3.943
27.46000 3.640
27.48000 3.932
27.50000 -1.040
27.52000 3.167
27.54000 3.990
27.56000 7.682
27.58000 9.958
27.60000 8.629
27.62000 7.507
27.64000 5.941
27.66000 6.878
27.68000 2.429
27.70000 5.382
27.72000 3.037
27.74000 8.102
27.76000 4.680
27.78000 3.438
27.80000 2.242
27.82000 2.638
27.84000 2.187
27.86000 -1.273
27.88000 -0.315
27.90000 -0.652
27.92000 -1.759
27.94000 -3.310
27.96000 0.262
27.98000 2.703
28.00000 -3.822
28.02000 1.591
28.04000 5.498
28.06000 4.724
28.08000 7.075
28.10000 3.307
28.12000 1.139
28.14000 2.581
28.16000 4.698
28.18000 2.648
28.20000 2.511
28.22000 2.284
28.24000 7.593
28.26000 9.882
28.28000 5.987
28.30000 6.190
28.32000 5.896
28.34000 4.576
28.36000 -3.433
28.38000 -3.014
28.40000 -3.153
28.42000 -1.517
28.44000 0.804
28.46000 1.968
28.48000 0.788
28.50000 -0.035
28.52000 -0.427
28.54000 1.682
28.56000 3.038
28.58000 3.022
28.60000 2.681
28.62000 5.428
28.64000 8.358
28.66000 11.287
28.68000 7.889
28.70000 1.948
28.72000 3.330
28.74000 7.455
28.76000 5.816
28.78000 -1.838
28.80000 3.710
28.82000 9.153
28.84000 3.116
28.86000 3.223
28.88000 1.637
28.90000 -0.059
28.92000 3.393
28.94000 1.314
28.96000 2.690
28.98000 2.581
29.00000 6.091
29.02000 10.559
29.04000 5.099
29.06000 -2.441
29.08000 -0.951
29.10000 2.368
29.12000 2.786
29.14000 -0.584
29.16000 -3.730
29.18000 3.550
29.20000 6.903
29.22000 5.949
29.24000 2.307
29.26000 1.531
29.28000 6.069
29.30000 2.182
29.32000 5.730
29.34000 5.785
29.36000 6.973
29.38000 4.052
29.40000 1.216
29.42000 0.630
29.44000 3.367
29.46000 4.820
29.48000 6.367
29.50000 0.894
29.52000 3.100
29.54000 2.573
29.56000 1.318
29.58000 3.769
29.60000 -0.078
29.62000 2.902
29.64000 -1.007
29.66000 0.508
29.68000 2.701
29.70000 3.446
29.72000 1.344
29.74000 0.520
29.76000 2.720
29.78000 -2.822
29.80000 6.188
29.82000 6.739
29.84000 9.752
29.86000 7.786
29.88000 9.056
29.90000 0.235
29.92000 5.463
29.94000 1.440
29.96000 -0.520
29.98000 2.736
30.00000 4.393
30.02000 2.660
30.04000 2.849
30.06000 4.260
30.08000 3.638
30.10000 1.464
30.12000 1.329
30.14000 1.470
30.16000 2.568
30.18000 3.289
30.20000 3.686
30.22000 0.655
30.24000 1.250
30.26000 -0.411
30.28000 -1.314
30.30000 2.395
30.32000 1.442
30.34000 3.036
30.36000 2.016
30.38000 0.129
30.40000 1.694
30.42000 6.766
30.44000 9.954
30.46000 5.884
30.48000 4.761
30.50000 2.996
30.52000 2.477
30.54000 -0.145
30.56000 -1.809
30.58000 5.601
30.60000 6.099
30.62000 8.339
30.64000 4.414
30.66000 -0.632
30.68000 -0.731
30.70000 1.242
30.72000 -0.126
30.74000 -3.670
30.76000 3.797
30.78000 4.751
30.80000 1.993
30.82000 4.613
30.84000 5.092
30.86000 5.029
30.88000 7.706
30.90000 6.883
30.92000 1.773
30.94000 3.111
30.96000 0.266
30.98000 4.783
31.00000 4.401
31.02000 3.650
31.04000 2.632
31.06000 5.829
31.08000 6.284
31.10000 3.995
31.12000 1.598
31.14000 1.233
31.16000 5.169
31.18000 6.211
31.20000 -0.482
31.22000 -2.078
31.24000 2.418
31.26000 2.436
31.28000 2.357
31.30000 8.191
31.32000 5.507
31.34000 5.392
31.36000 5.645
31.38000 3.474
31.40000 4.809
31.42000 8.126
31.44000 4.967
31.46000 6.217
31.48000 8.180
31.50000 5.094
31.52000 2.788
31.54000 3.618
31.56000 6.044
31.58000 5.378
31.60000 5.853
31.62000 -0.222
31.64000 -2.032
31.66000 -3.624
31.68000 3.080
31.70000 8.129
31.72000 7.619
31.74000 5.972
31.76000 6.079
31.78000 9.119
31.80000 9.038
31.82000 4.169
31.84000 7.231
31.86000 5.280
31.88000 3.859
31.90000 1.498
31.92000 3.756
31.94000 9.316
31.96000 9.886
31.98000 8.502
32.00000 6.108
32.02000 1.562
32.04000 1.333
32.06000 7.146
32.08000 7.554
32.10000 7.114
32.12000 1.258
32.14000 4.371
32.16000 4.442
32.18000 2.749
32.20000 5.286
32.22000 8.284
32.24000 12.306
32.26000 5.340
32.28000 -0.827
32.30000 -0.018
32.32000 -3.563
32.34000 -1.632
32.36000 2.387
32.38000 5.247
32.40000 2.615
32.42000 -1.242
32.44000 5.023
32.46000 11.681
32.48000 8.418
32.50000 1.198
32.52000 -0.328
32.54000 3.561
32.56000 4.288
32.58000 4.512
32.60000 8.010
32.62000 5.866
32.64000 4.485
32.66000 5.040
32.68000 4.444
32.70000 -1.667
32.72000 -2.393
32.74000 2.104
32.76000 1.298
32.78000 2.136
32.80000 0.809
32.82000 3.321
32.84000 3.772
32.86000 1.115
32.88000 7.194
32.90000 7.164
32.92000 4.903
32.94000 5.016
32.96000 8.541
32.98000 2.148
33.00000 0.122
33.02000 6.690
33.04000 8.188
33.06000 5.895
33.08000 5.410
33.10000 5.214
33.12000 1.898
33.14000 6.984
33.16000 5.204
33.18000 3.602
33.20000 4.023
33.22000 1.125
33.24000 5.773
33.26000 6.728
33.28000 5.090
33.30000 3.726
33.32000 0.438
33.34000 -0.031
33.36000 -1.446
33.38000 1.894
33.40000 1.076
33.42000 1.009
33.44000 -3.570
33.46000 3.853
33.48000 8.988
33.50000 7.540
33.52000 0.970
33.54000 0.255
33.56000 2.022
33.58000 1.040
33.60000 -1.033
33.62000 6.290
33.64000 5.988
33.66000 3.942
33.68000 4.400
33.70000 0.606
33.72000 2.434
33.74000 0.612
33.76000 -0.444
33.78000 1.279
33.80000 2.607
33.82000 0.008
33.84000 -2.731
33.86000 0.392
33.88000 1.545
33.90000 4.668
33.92000 1.924
33.94000 1.652
33.96000 1.994
33.98000 -0.901
34.00000 -0.199
34.02000 8.293
34.04000 7.133
34.06000 3.768
34.08000 -2.422
34.10000 -3.421
34.12000 3.582
34.14000 2.255
34.16000 -2.366
34.18000 -1.051
34.20000 3.109
34.22000 4.835
34.24000 2.000
34.26000 3.088
34.28000 3.275
34.30000 2.221
34.32000 2.269
34.34000 2.124
34.36000 0.152
34.38000 2.749
34.40000 2.626
34.42000 5.600
34.44000 6.334
34.46000 5.323
34.48000 0.886
34.50000 0.123
34.52000 1.202
34.54000 0.739
34.56000 0.437
34.58000 4.967
34.60000 7.839
34.62000 10.445
34.64000 4.686
34.66000 6.519
34.68000 7.880
34.70000 1.752
34.72000 3.012
34.74000 6.954
34.76000 6.336
34.78000 0.069
34.80000 -0.410
34.82000 7.539
34.84000 6.617
34.86000 7.071
34.88000 5.020
34.90000 2.782
34.92000 -1.857
34.94000 1.055
34.96000 -0.530
34.98000 0.875
35.00000 3.050
35.02000 0.675
35.04000 0.225
35.06000 -1.340
35.08000 2.407
35.10000 1.763
35.12000 -0.053
35.14000 -0.462
35.16000 -2.156
35.18000 -0.946
35.20000 -1.330
35.22000 2.646
35.24000 5.099
35.26000 3.468
35.28000 1.280
35.30000 1.386
35.32000 -3.502
35.34000 -3.334
35.36000 3.690
35.38000 4.651
35.40000 -2.412
35.42000 -1.612
35.44000 3.894
35.46000 0.071
35.48000 -3.499
35.50000 4.682
35.52000 6.203
35.54000 1.763
35.56000 1.931
35.58000 3.712
35.60000 3.094
35.62000 1.770
35.64000 3.211
35.66000 5.831
35.68000 6.644
35.70000 3.781
35.72000 3.144
35.74000 -0.811
35.76000 0.622
35.78000 2.110
35.80000 4.025
35.82000 1.378
35.84000 -1.368
35.86000 -0.862
35.88000 3.810
35.90000 5.793
35.92000 4.944
35.94000 0.214
35.96000 5.549
35.98000 9.602
36.00000 8.148
36.02000 2.861
36.04000 2.804
36.06000 7.665
36.08000 5.789
36.10000 6.590
36.12000 7.399
36.14000 8.512
36.16000 6.884
36.18000 -3.479
36.20000 1.319
36.22000 10.962
36.24000 5.188
36.26000 3.020
36.28000 1.383
36.30000 0.354
36.32000 3.606
36.34000 2.301
36.36000 6.716
36.38000 2.317
36.40000 4.234
36.42000 3.180
36.44000 4.685
36.46000 5.030
36.48000 2.262
36.50000 3.176
36.52000 1.115
36.54000 3.515
36.56000 2.022
36.58000 3.725
36.60000 5.532
36.62000 5.758
36.64000 4.479
36.66000 2.328
36.68000 -3.468
36.70000 -1.729
36.72000 2.213
36.74000 2.229
36.76000 1.684
36.78000 -2.055
36.80000 0.505
36.82000 7.028
36.84000 8.457
36.86000 2.870
36.88000 -1.624
36.90000 -1.650
36.92000 1.862
36.94000 1.080
36.96000 4.039
36.98000 3.450
37.00000 -2.297
37.02000 -3.538
37.04000 0.060
37.06000 6.009
37.08000 5.237
37.10000 2.515
37.12000 4.002
37.14000 3.644
37.16000 0.381
37.18000 2.015
37.20000 5.756
37.22000 0.702
37.24000 -2.186
37.26000 1.945
37.28000 1.345
37.30000 0.150
37.32000 1.302
37.34000 3.688
37.36000 3.912
37.38000 -1.544
37.40000 1.185
37.42000 0.822
37.44000 -1.906
37.46000 -3.556
37.48000 -1.558
37.50000 2.452
37.52000 0.155
37.54000 0.366
37.56000 3.411
37.58000 3.898
37.60000 3.427
37.62000 0.661
37.64000 0.270
37.66000 -1.685
37.68000 -1.436
37.70000 3.318
37.72000 5.921
37.74000 4.309
37.76000 0.895
37.78000 0.396
37.80000 2.688
37.82000 9.529
37.84000 6.643
37.86000 7.179
37.88000 1.405
37.90000 -2.765
37.92000 3.982
37.94000 8.205
37.96000 2.043
37.98000 1.845
38.00000 5.942
38.02000 6.422
38.04000 11.085
38.06000 11.901
38.08000 7.594
38.10000 6.873
38.12000 11.014
38.14000 9.089
38.16000 5.794
38.18000 7.441
38.20000 11.206
38.22000 12.239
38.24000 13.905
38.26000 13.469
38.28000 7.839
38.30000 9.393
38.32000 6.969
38.34000 10.167
38.36000 13.925
38.38000 12.911
38.40000 15.704
38.42000 14.084
38.44000 13.926
38.46000 12.492
38.48000 10.943
38.50000 11.772
38.52000 16.576
38.54000 17.002
38.56000 15.286
38.58000 21.118
38.60000 17.831
38.62000 22.853
38.64000 21.606
38.66000 20.375
38.68000 15.988
38.70000 16.977
38.72000 19.562
38.74000 18.556
38.76000 16.678
38.78000 18.524
38.80000 17.518
38.82000 21.320
38.84000 25.258
38.86000 26.595
38.88000 22.046
38.90000 25.027
38.92000 29.621
38.94000 33.930
38.96000 33.861
38.98000 26.683
39.00000 29.795
39.02000 35.732
39.04000 38.967
39.06000 34.597
39.08000 36.364
39.10000 40.522
39.12000 39.811
39.14000 45.154
39.16000 40.348
39.18000 38.297
39.20000 46.497
39.22000 47.854
39.24000 54.324
39.26000 56.961
39.28000 58.475
39.30000 59.969
39.32000 59.728
39.34000 63.763
39.36000 67.624
39.38000 65.855
39.40000 61.070
39.42000 69.362
39.44000 72.892
39.46000 76.699
39.48000 78.161
39.50000 79.528
39.52000 86.386
39.54000 94.487
39.56000 98.709
39.58000 106.028
39.60000 110.282
39.62000 121.114
39.64000 128.147
39.66000 137.278
39.68000 143.478
39.70000 152.364
39.72000 159.089
39.74000 169.581
39.76000 178.763
39.78000 193.406
39.80000 208.275
39.82000 222.977
39.84000 241.374
39.86000 260.620
39.88000 270.776
39.90000 291.677
39.92000 317.940
39.94000 339.377
39.96000 363.173
39.98000 389.758
40.00000 414.786
40.02000 443.855
40.04000 484.265
40.06000 532.486
40.08000 573.932
40.10000 606.209
40.12000 634.196
40.14000 684.590
40.16000 726.447
40.18000 787.984
40.20000 842.845
40.22000 879.740
40.24000 922.198
40.26000 973.070
40.28000 1019.151
40.30000 1054.783
40.32000 1107.206
40.34000 1140.253
40.36000 1174.039
40.38000 1207.304
40.40000 1238.178
40.42000 1243.168
40.44000 1263.406
40.46000 1271.883
40.48000 1262.718
40.50000 1259.742
40.52000 1261.271
40.54000 1249.264
40.56000 1223.982
40.58000 1209.560
40.60000 1183.052
40.62000 1164.708
40.64000 1154.784
40.66000 1130.754
40.68000 1088.435
40.70000 1045.926
40.72000 1011.155
40.74000 979.528
40.76000 947.566
40.78000 907.208
40.80000 874.972
40.82000 836.062
40.84000 791.072
40.86000 749.620
40.88000 706.472
40.90000 679.170
40.92000 644.324
40.94000 611.588
40.96000 577.154
40.98000 555.322
41.00000 528.265
41.02000 490.066
41.04000 469.333
41.06000 440.700
41.08000 412.387
41.10000 395.946
41.12000 376.858
41.14000 348.828
41.16000 322.027
41.18000 305.143
41.20000 299.519
41.22000 284.578
41.24000 261.293
41.26000 251.311
41.28000 242.224
41.30000 226.574
41.32000 208.950
41.34000 200.031
41.36000 195.835
41.38000 184.265
41.40000 175.413
41.42000 165.785
41.44000 159.541
41.46000 152.203
41.48000 140.683
41.50000 139.070
41.52000 130.342
41.54000 128.080
41.56000 118.882
41.58000 104.298
41.60000 106.439
41.62000 102.613
41.64000 98.849
41.66000 92.391
41.68000 88.674
41.70000 82.237
41.72000 75.816
41.74000 77.188
41.76000 72.510
41.78000 71.818
41.80000 71.159
41.82000 63.788
41.84000 58.521
41.86000 57.645
41.88000 51.581
41.90000 55.514
41.92000 56.453
41.94000 55.481
41.96000 49.816
41.98000 45.307
42.00000 43.584
42.02000 42.255
42.04000 39.801
42.06000 33.073
42.08000 36.637
42.10000 38.748
42.12000 32.859
42.14000 28.654
42.16000 33.185
42.18000 35.100
42.20000 33.157
42.22000 25.513
42.24000 23.283
42.26000 26.471
42.28000 25.166
42.30000 23.239
42.32000 20.051
42.34000 19.269
42.36000 19.714
42.38000 18.614
42.40000 22.376
42.42000 18.783
42.44000 15.039
42.46000 9.674
42.48000 15.055
42.50000 15.870
42.52000 11.776
42.54000 14.367
42.56000 15.510
42.58000 12.844
42.60000 12.620
42.62000 9.607
42.64000 7.034
42.66000 8.072
42.68000 7.281
42.70000 6.799
42.72000 5.928
42.74000 6.257
42.76000 9.132
42.78000 8.072
42.80000 6.420
42.82000 6.445
42.84000 6.785
42.86000 7.549
42.88000 4.567
42.90000 6.027
42.92000 5.694
42.94000 8.604
42.96000 5.391
42.98000 4.031
43.00000 1.225
43.02000 2.337
43.04000 4.710
43.06000 3.832
43.08000 2.796
43.10000 3.983
43.12000 2.824
43.14000 2.586
43.16000 2.188
43.18000 -1.040
43.20000 -2.781
43.22000 -1.285
43.24000 0.420
43.26000 -1.929
43.28000 -1.960
43.30000 -0.774
43.32000 -2.707
43.34000 -3.484
43.36000 -0.285
43.38000 -0.560
43.40000 -2.786
43.42000 -1.889
43.44000 -1.880
43.46000 0.021
43.48000 2.702
43.50000 2.795
43.52000 1.282
43.54000 -3.442
43.56000 0.513
43.58000 -0.261
43.60000 3.538
43.62000 6.424
43.64000 2.302
43.66000 -0.402
43.68000 -2.457
43.70000 -3.375
43.72000 -0.092
43.74000 2.456
43.76000 2.463
43.78000 0.991
43.80000 -2.532
43.82000 -0.098
43.84000 1.566
43.86000 1.717
43.88000 0.024
43.90000 -0.121
43.92000 3.350
43.94000 6.909
43.96000 1.179
43.98000 1.665
44.00000 1.804
44.02000 -0.345
44.04000 0.765
44.06000 2.765
44.08000 2.567
44.10000 0.745
44.12000 -1.847
44.14000 -1.133
44.16000 -3.302
44.18000 0.303
44.20000 3.808
44.22000 5.765
44.24000 1.558
44.26000 -0.367
44.28000 1.992
44.30000 3.902
44.32000 0.413
44.34000 1.129
44.36000 3.476
44.38000 2.054
44.40000 1.399
44.42000 1.316
44.44000 3.331
44.46000 3.200
44.48000 2.617
44.50000 4.369
44.52000 3.351
44.54000 1.284
44.56000 -1.174
44.58000 -1.390
44.60000 2.578
44.62000 3.653
44.64000 2.807
44.66000 0.511
44.68000 0.399
44.70000 4.446
44.72000 3.182
44.74000 1.154
44.76000 -3.247
44.78000 0.932
44.80000 -2.965
44.82000 -0.945
44.84000 0.113
44.86000 2.327
44.88000 3.435
44.90000 3.131
44.92000 -0.702
44.94000 -3.252
44.96000 -2.130
44.98000 -2.502
45.00000 0.094
45.02000 5.124
45.04000 2.545
45.06000 0.808
45.08000 0.754
45.10000 0.489
45.12000 -1.137
45.14000 0.161
45.16000 1.899
45.18000 1.396
45.20000 -1.185
45.22000 1.056
45.24000 0.965
45.26000 0.636
45.28000 0.521
45.30000 0.889
45.32000 -0.953
45.34000 -2.730
45.36000 -2.168
45.38000 -1.744
45.40000 0.756
45.42000 1.379
45.44000 1.772
45.46000 1.083
45.48000 -1.934
45.50000 -1.410
45.52000 1.305
45.54000 3.634
45.56000 2.114
45.58000 0.996
45.60000 2.326
45.62000 4.380
45.64000 3.519
45.66000 -0.872
45.68000 1.994
45.70000 7.133
45.72000 8.357
45.74000 9.284
45.76000 7.215
45.78000 6.130
45.80000 6.275
45.82000 7.564
45.84000 6.391
45.86000 7.025
45.88000 9.895
45.90000 13.569
45.92000 15.532
45.94000 12.515
45.96000 14.692
45.98000 16.747
46.00000 15.758
46.02000 14.666
46.04000 19.123
46.06000 18.002
46.08000 17.027
46.10000 20.824
46.12000 23.067
46.14000 19.801
46.16000 16.540
46.18000 20.228
46.20000 24.810
46.22000 26.322
46.24000 28.195
46.26000 30.922
46.28000 28.289
46.30000 27.915
46.32000 36.169
46.34000 36.634
46.36000 35.059
46.38000 36.364
46.40000 36.037
46.42000 41.808
46.44000 43.006
46.46000 42.263
46.48000 45.661
46.50000 46.126
46.52000 52.264
46.54000 53.830
46.56000 53.875
46.58000 59.896
46.60000 62.207
46.62000 64.191
46.64000 64.435
46.66000 67.972
46.68000 73.953
46.70000 79.279
46.72000 83.630
46.74000 89.599
46.76000 91.996
46.78000 94.920
46.80000 97.515
46.82000 103.885
46.84000 109.192
46.86000 111.458
46.88000 117.082
46.90000 121.778
46.92000 132.576
46.94000 132.698
46.96000 135.186
46.98000 142.650
47.00000 141.868
47.02000 141.100
47.04000 144.962
47.06000 145.219
47.08000 146.335
47.10000 151.515
47.12000 152.137
47.14000 149.599
47.16000 151.204
47.18000 150.532
47.20000 149.295
47.22000 148.662
47.24000 144.929
47.26000 140.892
47.28000 135.582
47.30000 126.765
47.32000 131.526
47.34000 122.937
47.36000 118.232
47.38000 120.268
47.40000 116.004
47.42000 114.524
47.44000 107.208
47.46000 102.944
47.48000 102.902
47.50000 99.708
47.52000 96.795
47.54000 92.957
47.56000 92.639
47.58000 82.503
47.60000 73.891
47.62000 73.055
47.64000 67.603
47.66000 62.897
47.68000 62.297
47.70000 59.012
47.72000 54.792
47.74000 47.627
47.76000 44.216
47.78000 43.265
47.80000 43.801
47.82000 46.302
47.84000 43.602
47.86000 40.925
47.88000 33.634
47.90000 31.435
47.92000 29.516
47.94000 30.372
47.96000 25.033
47.98000 24.445
48.00000 20.017
48.02000 17.547
48.04000 17.732
48.06000 16.510
48.08000 13.818
48.10000 14.308
48.12000 12.168
48.14000 13.977
48.16000 13.163
48.18000 12.506
48.20000 12.773
48.22000 9.977
48.24000 6.512
48.26000 5.456
48.28000 8.101
48.30000 5.727
48.32000 5.414
48.34000 8.411
48.36000 8.981
48.38000 5.974
48.40000 0.700
48.42000 2.575
48.44000 0.816
48.46000 1.562
48.48000 -0.046
48.50000 -0.296
48.52000 2.255
48.54000 1.620
48.56000 4.162
48.58000 1.786
48.60000 -2.499
48.62000 2.464
48.64000 4.349
48.66000 0.159
48.68000 -1.142
48.70000 2.372
48.72000 2.468
48.74000 0.185
48.76000 -0.464
48.78000 -1.884
48.80000 -2.789
48.82000 0.517
48.84000 -0.585
48.86000 -0.136
48.88000 -2.543
48.90000 -0.185
48.92000 4.417
48.94000 1.827
48.96000 -0.341
48.98000 0.971
49.00000 0.628
49.02000 0.701
49.04000 -1.034
49.06000 -2.395
49.08000 -2.702
49.10000 -0.679
49.12000 -2.069
49.14000 -0.501
49.16000 -0.044
49.18000 1.058
49.20000 1.758
49.22000 -0.572
49.24000 -1.416
49.26000 -1.012
49.28000 -0.719
49.30000 -2.669
49.32000 0.951
49.34000 4.864
49.36000 3.457
49.38000 1.294
49.40000 1.376
49.42000 -0.295
49.44000 1.747
49.46000 1.872
49.48000 3.291
49.50000 1.645
49.52000 4.209
49.54000 3.421
49.56000 0.220
49.58000 -2.073
49.60000 -0.312
49.62000 1.611
49.64000 6.854
49.66000 2.839
49.68000 0.110
49.70000 -0.732
49.72000 -1.136
49.74000 -0.964
49.76000 -2.153
49.78000 1.963
49.80000 1.275
49.82000 2.190
49.84000 3.280
49.86000 1.013
49.88000 2.180
49.90000 0.724
49.92000 -0.398
49.94000 0.632
49.96000 5.090
49.98000 4.321
50.00000 1.787
50.02000 2.850
50.04000 -0.949
50.06000 -2.551
50.08000 2.429
50.10000 0.640
50.12000 2.231
50.14000 1.076
50.16000 0.556
50.18000 4.811
50.20000 6.349
50.22000 0.770
50.24000 0.381
50.26000 -2.147
50.28000 -2.049
50.30000 -2.306
50.32000 -1.575
50.34000 -1.976
50.36000 -0.234
50.38000 1.674
50.40000 3.225
50.42000 3.109
50.44000 -2.523
50.46000 -1.644
50.48000 0.665
50.50000 1.798
50.52000 1.907
50.54000 -0.849
50.56000 -2.173
50.58000 0.643
50.60000 1.930
50.62000 -1.293
50.64000 -1.132
50.66000 -1.817
50.68000 -2.142
50.70000 -2.105
50.72000 -0.061
50.74000 1.920
50.76000 -0.027
50.78000 -1.089
50.80000 1.208
50.82000 0.824
50.84000 -1.746
50.86000 -0.769
50.88000 0.849
50.90000 0.018
50.92000 1.551
50.94000 3.720
50.96000 2.050
50.98000 -0.185
51.00000 0.230
51.02000 0.816
51.04000 2.312
51.06000 4.077
51.08000 4.274
51.10000 2.089
51.12000 1.850
51.14000 0.920
51.16000 2.273
51.18000 3.795
51.20000 3.755
51.22000 6.966
51.24000 5.232
51.26000 2.604
51.28000 2.084
51.30000 3.666
51.32000 4.551
51.34000 1.778
51.36000 0.092
51.38000 -0.736
51.40000 -0.547
51.42000 1.280
51.44000 1.778
51.46000 -1.904
51.48000 -2.317
51.50000 -2.453
51.52000 -2.464
51.54000 -1.530
51.56000 0.853
51.58000 0.194
51.60000 1.378
51.62000 2.273
51.64000 6.223
51.66000 5.262
51.68000 3.437
51.70000 0.059
51.72000 0.586
51.74000 2.354
51.76000 2.464
51.78000 3.195
51.80000 1.685
51.82000 2.269
51.84000 2.862
51.86000 1.178
51.88000 2.269
51.90000 -1.791
51.92000 -2.413
51.94000 3.680
51.96000 4.443
51.98000 3.791
52.00000 4.631
52.02000 4.777
52.04000 3.063
52.06000 0.241
52.08000 1.843
52.10000 5.069
52.12000 1.480
52.14000 1.709
52.16000 1.099
52.18000 1.696
52.20000 2.370
52.22000 -2.231
52.24000 -1.362
52.26000 3.072
52.28000 2.915
52.30000 2.747
52.32000 -1.088
52.34000 -2.416
52.36000 1.789
52.38000 4.463
52.40000 -0.565
52.42000 -0.841
52.44000 3.053
52.46000 1.322
52.48000 1.111
52.50000 5.508
52.52000 6.987
52.54000 4.152
52.56000 0.157
52.58000 0.837
52.60000 4.929
52.62000 5.237
52.64000 2.432
52.66000 2.011
52.68000 -0.083
52.70000 -2.053
52.72000 -0.548
52.74000 1.170
52.76000 0.062
52.78000 3.305
52.80000 1.926
52.82000 -0.368
52.84000 0.043
52.86000 0.328
52.88000 -0.489
52.90000 0.221
52.92000 2.117
52.94000 3.220
52.96000 3.503
52.98000 4.222
53.00000 1.183
53.02000 1.579
53.04000 -0.781
53.06000 -1.930
53.08000 0.715
53.10000 -0.024
53.12000 0.687
53.14000 1.039
53.16000 3.613
53.18000 3.477
53.20000 2.478
53.22000 4.269
53.24000 5.555
53.26000 2.082
53.28000 -1.774
53.30000 -0.729
53.32000 0.430
53.34000 0.919
53.36000 3.405
53.38000 4.139
53.40000 1.943
53.42000 1.496
53.44000 0.605
53.46000 2.433
53.48000 2.722
53.50000 2.681
53.52000 0.466
53.54000 -2.400
53.56000 1.205
53.58000 1.025
53.60000 4.008
53.62000 0.022
53.64000 -1.035
53.66000 -1.571
53.68000 0.219
53.70000 -2.391
53.72000 0.696
53.74000 1.536
53.76000 -0.750
53.78000 -1.489
53.80000 -1.024
53.82000 3.020
53.84000 3.275
53.86000 3.756
53.88000 0.663
53.90000 3.244
53.92000 2.776
53.94000 -1.018
53.96000 -1.870
53.98000 -1.907
54.00000 2.846
54.02000 3.568
54.04000 0.217
54.06000 2.434
54.08000 0.017
54.10000 -1.309
54.12000 2.119
54.14000 3.466
54.16000 3.529
54.18000 -2.384
54.20000 1.289
54.22000 0.029
54.24000 0.044
54.26000 0.983
54.28000 -0.466
54.30000 3.095
54.32000 2.123
54.34000 2.052
54.36000 2.619
54.38000 2.591
54.40000 -0.143
54.42000 -0.762
54.44000 1.691
54.46000 -0.830
54.48000 0.868
54.50000 0.523
54.52000 -1.671
54.54000 2.348
54.56000 2.051
54.58000 4.543
54.60000 2.295
54.62000 1.936
54.64000 5.307
54.66000 3.931
54.68000 0.997
54.70000 3.494
54.72000 5.820
54.74000 2.560
54.76000 0.412
54.78000 0.413
54.80000 1.857
54.82000 -0.041
54.84000 0.164
54.86000 -0.294
54.88000 0.515
54.90000 -0.584
54.92000 0.283
54.94000 3.298
54.96000 -2.360
54.98000 0.210
55.00000 0.360
55.02000 2.310
55.04000 3.025
55.06000 0.070
55.08000 1.335
55.10000 1.939
55.12000 2.148
55.14000 2.277
55.16000 -1.069
55.18000 -0.300
55.20000 -1.319
55.22000 -0.086
55.24000 -0.580
55.26000 -0.266
55.28000 1.826
55.30000 3.998
55.32000 2.584
55.34000 0.619
55.36000 -2.359
55.38000 -1.253
55.40000 0.562
55.42000 2.672
55.44000 -0.183
55.46000 -0.198
55.48000 1.743
55.50000 0.047
55.52000 -0.547
55.54000 1.008
55.56000 0.092
55.58000 2.198
55.60000 2.044
55.62000 0.283
55.64000 -0.273
55.66000 0.607
55.68000 1.205
55.70000 -1.895
55.72000 2.093
55.74000 2.114
55.76000 -0.747
55.78000 -0.035
55.80000 -0.072
55.82000 -0.760
55.84000 0.926
55.86000 3.484
55.88000 1.237
55.90000 0.437
55.92000 0.970
55.94000 4.676
55.96000 -0.081
55.98000 0.990
56.00000 1.946
56.02000 0.657
56.04000 1.650
56.06000 2.478
56.08000 -0.945
56.10000 -2.344
56.12000 1.926
56.14000 5.243
56.16000 2.497
56.18000 0.202
56.20000 0.984
56.22000 -2.341
56.24000 -1.029
56.26000 0.832
56.28000 0.870
56.30000 -1.358
56.32000 -0.618
56.34000 -0.755
56.36000 -1.766
56.38000 0.758
56.40000 0.071
56.42000 0.678
56.44000 -0.751
56.46000 -2.314
56.48000 -0.980
56.50000 -0.636
56.52000 0.368
56.54000 -1.556
56.56000 -0.642
56.58000 0.049
56.60000 -0.736
56.62000 1.207
56.64000 1.609
56.66000 -2.316
56.68000 1.736
56.70000 2.225
56.72000 0.401
56.74000 0.037
56.76000 1.265
56.78000 0.466
56.80000 3.700
56.82000 3.888
56.84000 -1.492
56.86000 -0.687
56.88000 -1.684
56.90000 2.412
56.92000 3.608
56.94000 3.203
56.96000 2.000
56.98000 -0.858
57.00000 -1.144
57.02000 2.650
57.04000 1.133
57.06000 0.464
57.08000 -1.672
57.10000 0.033
57.12000 -0.542
57.14000 1.985
57.16000 2.626
57.18000 0.900
57.20000 2.043
57.22000 2.792
57.24000 3.359
57.26000 1.928
57.28000 -0.432
57.30000 1.098
57.32000 -0.966
57.34000 -1.037
57.36000 2.605
57.38000 2.555
57.40000 2.080
57.42000 -1.665
57.44000 0.356
57.46000 -0.981
57.48000 -2.123
57.50000 -1.559
57.52000 1.067
57.54000 3.870
57.56000 3.457
57.58000 -0.850
57.60000 1.763
57.62000 2.733
57.64000 -2.285
57.66000 -1.008
57.68000 0.787
57.70000 1.163
57.72000 -1.206
57.74000 -0.753
57.76000 0.620
57.78000 3.244
57.80000 2.763
57.82000 4.421
57.84000 2.172
57.86000 -0.247
57.88000 1.460
57.90000 1.573
57.92000 2.465
57.94000 0.507
57.96000 -0.744
57.98000 -1.925
58.00000 -1.690
58.02000 -2.277
58.04000 0.067
58.06000 -0.088
58.08000 1.324
58.10000 -2.275
58.12000 -0.670
58.14000 0.282
58.16000 1.529
58.18000 0.938
58.20000 1.847
58.22000 0.141
58.24000 -1.654
58.26000 -0.385
58.28000 1.168
58.30000 1.603
58.32000 0.662
58.34000 -0.880
58.36000 0.087
58.38000 -2.266
58.40000 -1.734
58.42000 -1.634
58.44000 -0.207
58.46000 0.613
58.48000 1.327
58.50000 2.854
58.52000 3.415
58.54000 0.198
58.56000 1.624
58.58000 1.262
58.60000 1.701
58.62000 -0.444
58.64000 0.379
58.66000 -0.031
58.68000 -1.616
58.70000 -2.110
58.72000 -1.241
58.74000 3.946
58.76000 6.370
58.78000 3.337
58.80000 2.350
58.82000 4.119
58.84000 5.744
58.86000 0.377
58.88000 1.115
58.90000 3.027
58.92000 1.549
58.94000 3.488
58.96000 1.911
58.98000 1.616
59.00000 3.000
59.02000 2.774
59.04000 3.953
59.06000 3.199
59.08000 2.651
59.10000 -2.217
59.12000 -0.452
59.14000 2.930
59.16000 2.838
59.18000 3.392
59.20000 2.750
59.22000 0.450
59.24000 -0.861
59.26000 1.478
59.28000 0.904
59.30000 0.561
59.32000 2.933
59.34000 3.202
59.36000 4.110
59.38000 1.026
59.40000 2.336
59.42000 -0.489
59.44000 -2.214
59.46000 -2.212
59.48000 1.331
59.50000 4.064
59.52000 1.775
59.54000 1.223
59.56000 1.511
59.58000 2.748
59.60000 2.105
59.62000 5.409
59.64000 4.239
59.66000 -0.151
59.68000 1.315
59.70000 2.601
59.72000 4.491
59.74000 2.701
59.76000 3.243
59.78000 4.111
59.80000 2.437
59.82000 3.145
59.84000 2.647
59.86000 1.216
59.88000 1.522
59.90000 0.148
59.92000 -0.011
59.94000 3.545
59.96000 2.834
59.98000 2.531
60.00000 0.752
60.02000 -2.201
60.04000 0.547
60.06000 2.483
60.08000 3.209
60.10000 1.702
60.12000 1.360
60.14000 -0.305
60.16000 2.446
60.18000 4.931
60.20000 2.740
60.22000 3.360
60.24000 3.126
60.26000 1.931
60.28000 3.055
60.30000 2.063
60.32000 2.193
60.34000 1.179
60.36000 3.747
60.38000 -0.173
60.40000 0.394
60.42000 2.555
60.44000 1.852
60.46000 1.631
60.48000 4.549
60.50000 2.921
60.52000 1.595
60.54000 2.524
60.56000 3.646
60.58000 5.216
60.60000 3.126
60.62000 4.586
60.64000 0.862
60.66000 2.554
60.68000 5.035
60.70000 6.832
60.72000 2.942
60.74000 3.381
60.76000 4.795
60.78000 0.938
60.80000 -2.140
60.82000 -1.539
60.84000 5.467
60.86000 5.992
60.88000 3.227
60.90000 1.245
60.92000 0.003
60.94000 2.135
60.96000 3.876
60.98000 2.410
61.00000 3.066
61.02000 2.072
61.04000 2.995
61.06000 1.595
61.08000 2.691
61.10000 -0.386
61.12000 0.364
61.14000 3.162
61.16000 1.959
61.18000 2.598
61.20000 1.972
61.22000 1.552
61.24000 0.078
61.26000 1.333
61.28000 -0.903
61.30000 1.916
61.32000 2.711
61.34000 1.008
61.36000 -2.089
61.38000 1.855
61.40000 2.288
61.42000 4.005
61.44000 2.799
61.46000 2.498
61.48000 -0.360
61.50000 -0.206
61.52000 0.124
61.54000 -1.076
61.56000 1.801
61.58000 4.028
61.60000 1.210
61.62000 0.279
61.64000 1.290
61.66000 -1.299
61.68000 -2.169
61.70000 -2.050
61.72000 3.159
61.74000 4.276
61.76000 1.006
61.78000 3.718
61.80000 3.416
61.82000 0.205
61.84000 2.126
61.86000 2.155
61.88000 0.199
61.90000 0.051
61.92000 1.354
61.94000 2.097
61.96000 1.384
61.98000 0.464
62.00000 2.155
62.02000 1.430
62.04000 1.196
62.06000 1.891
62.08000 3.171
62.10000 2.282
62.12000 1.558
62.14000 1.033
62.16000 -0.705
62.18000 -2.168
62.20000 -0.979
62.22000 0.053
62.24000 1.037
62.26000 -0.556
62.28000 -2.170
62.30000 -1.063
62.32000 1.231
62.34000 3.335
62.36000 1.991
62.38000 0.800
62.40000 1.852
62.42000 1.705
62.44000 2.733
62.46000 1.956
62.48000 1.599
62.50000 0.572
62.52000 -0.005
62.54000 -1.104
62.56000 -0.465
62.58000 0.926
62.60000 1.093
62.62000 0.383
62.64000 -1.024
62.66000 -1.022
62.68000 -0.580
62.70000 2.232
62.72000 -0.514
62.74000 1.550
62.76000 -0.601
62.78000 -1.006
62.80000 1.753
62.82000 0.460
62.84000 3.374
62.86000 3.037
62.88000 3.857
62.90000 2.734
62.92000 1.082
62.94000 1.990
62.96000 -0.422
62.98000 -2.151
63.00000 -1.212
63.02000 1.031
63.04000 0.711
63.06000 0.078
63.08000 0.074
63.10000 0.733
63.12000 0.656
63.14000 2.866
63.16000 1.598
63.18000 1.756
63.20000 -1.300
63.22000 -1.150
63.24000 2.604
63.26000 0.323
63.28000 1.532
63.30000 4.257
63.32000 2.281
63.34000 1.471
63.36000 1.865
63.38000 3.294
63.40000 2.083
63.42000 1.814
63.44000 0.699
63.46000 2.232
63.48000 3.341
63.50000 3.638
63.52000 1.205
63.54000 1.687
63.56000 5.382
63.58000 1.280
63.60000 0.921
63.62000 2.449
63.64000 2.962
63.66000 1.329
63.68000 3.729
63.70000 0.900
63.72000 -0.333
63.74000 -0.189
63.76000 -0.477
63.78000 0.735
63.80000 -1.227
63.82000 -0.786
63.84000 0.084
63.86000 -2.076
63.88000 -2.137
63.90000 -1.920
63.92000 1.835
63.94000 3.452
63.96000 1.869
63.98000 3.402
64.00000 3.035
64.02000 1.702
64.04000 2.683
64.06000 3.927
64.08000 0.784
64.10000 0.992
64.12000 -0.607
64.14000 -2.107
64.16000 -0.953
64.18000 2.621
64.20000 0.556
64.22000 0.773
64.24000 1.293
64.26000 -0.631
64.28000 1.596
64.30000 0.581
64.32000 0.536
64.34000 0.544
64.36000 -1.184
64.38000 0.234
64.40000 -0.679
64.42000 -1.043
64.44000 -1.199
64.46000 -0.787
64.48000 0.105
64.50000 2.417
64.52000 3.016
64.54000 3.959
64.56000 1.848
64.58000 1.049
64.60000 -0.396
64.62000 -2.153
64.64000 -0.218
64.66000 -0.360
64.68000 1.694
64.70000 1.502
64.72000 0.042
64.74000 1.142
64.76000 1.156
64.78000 2.172
64.80000 2.764
64.82000 0.843
64.84000 -0.105
64.86000 2.532
64.88000 0.854
64.90000 0.221
64.92000 -0.298
64.94000 -0.030
64.96000 -0.908
64.98000 0.886
65.00000 -0.225
65.02000 0.592
65.04000 1.701
65.06000 2.188
65.08000 0.281
65.10000 -1.641
65.12000 -2.083
65.14000 -0.070
65.16000 2.310
65.18000 1.599
65.20000 1.654
65.22000 1.423
65.24000 1.223
65.26000 0.850
65.28000 1.387
65.30000 -0.047
65.32000 -1.780
65.34000 1.092
65.36000 1.769
65.38000 2.062
65.40000 0.810
65.42000 1.543
65.44000 -0.085
65.46000 -0.531
65.48000 -1.740
65.50000 -2.129
65.52000 -0.191
65.54000 -0.087
65.56000 1.072
65.58000 -1.093
65.60000 2.063
65.62000 1.491
65.64000 0.690
65.66000 -0.379
65.68000 3.601
65.70000 0.138
65.72000 0.365
65.74000 0.008
65.76000 2.829
65.78000 3.703
65.80000 0.501
65.82000 -2.015
65.84000 0.128
65.86000 1.610
65.88000 1.655
65.90000 2.280
65.92000 0.490
65.94000 1.034
65.96000 1.525
65.98000 1.647
66.00000 0.811
66.02000 0.513
66.04000 -0.151
66.06000 -0.960
66.08000 1.837
66.10000 0.026
66.12000 1.129
66.14000 0.696
66.16000 1.229
66.18000 3.104
66.20000 2.357
66.22000 0.579
66.24000 2.339
66.26000 -0.985
66.28000 -0.431
66.30000 1.417
66.32000 0.760
66.34000 0.557
66.36000 1.219
66.38000 0.244
66.40000 0.723
66.42000 0.111
66.44000 -1.030
66.46000 -1.726
66.48000 0.208
66.50000 -0.482
66.52000 -1.562
66.54000 -0.434
66.56000 -0.919
66.58000 0.759
66.60000 1.240
66.62000 2.129
66.64000 1.761
66.66000 1.290
66.68000 2.106
66.70000 0.409
66.72000 -0.225
66.74000 2.606
66.76000 4.656
66.78000 0.312
66.80000 -2.167
66.82000 -1.332
66.84000 -0.659
66.86000 2.335
66.88000 -1.061
66.90000 -1.842
66.92000 -0.137
66.94000 -0.207
66.96000 1.985
66.98000 -0.056
67.00000 -2.163
67.02000 2.860
67.04000 4.609
67.06000 2.230
67.08000 4.417
67.10000 3.537
67.12000 2.194
67.14000 1.788
67.16000 2.609
67.18000 0.546
67.20000 -1.533
67.22000 -2.163
67.24000 -1.944
67.26000 -0.306
67.28000 -1.054
67.30000 1.097
67.32000 0.560
67.34000 0.123
67.36000 1.238
67.38000 1.470
67.40000 -1.836
67.42000 -2.176
67.44000 -0.390
67.46000 -1.876
67.48000 0.933
67.50000 1.229
67.52000 -0.589
67.54000 -1.015
67.56000 -0.180
67.58000 0.813
67.60000 -1.142
67.62000 -2.200
67.64000 -1.199
67.66000 -0.919
67.68000 -1.184
67.70000 1.211
67.72000 1.595
67.74000 2.160
67.76000 1.380
67.78000 -1.785
67.80000 -2.156
67.82000 0.944
67.84000 2.588
67.86000 3.012
67.88000 0.761
67.90000 -0.765
67.92000 -0.280
67.94000 -0.160
67.96000 2.542
67.98000 2.228
68.00000 1.617
68.02000 2.131
68.04000 1.653
68.06000 2.381
68.08000 4.056
68.10000 2.332
68.12000 0.303
68.14000 0.820
68.16000 2.908
68.18000 3.578
68.20000 2.895
68.22000 6.379
68.24000 5.221
68.26000 5.217
68.28000 7.870
68.30000 9.644
68.32000 12.165
68.34000 12.892
68.36000 9.726
68.38000 9.161
68.40000 9.906
68.42000 9.797
68.44000 10.396
68.46000 16.112
68.48000 16.990
68.50000 14.124
68.52000 13.458
68.54000 16.672
68.56000 15.731
68.58000 15.077
68.60000 18.853
68.62000 18.652
68.64000 15.943
68.66000 18.070
68.68000 19.648
68.70000 20.112
68.72000 20.778
68.74000 22.895
68.76000 23.113
68.78000 21.591
68.80000 20.893
68.82000 25.053
68.84000 27.624
68.86000 26.828
68.88000 24.206
68.90000 23.333
68.92000 25.678
68.94000 26.030
68.96000 24.528
68.98000 24.312
69.00000 22.015
69.02000 22.509
69.04000 22.171
69.06000 19.574
69.08000 21.048
69.10000 19.358
69.12000 20.708
69.14000 21.258
69.16000 21.969
69.18000 19.451
69.20000 18.136
69.22000 16.350
69.24000 16.571
69.26000 16.247
69.28000 16.737
69.30000 16.005
69.32000 13.524
69.34000 13.057
69.36000 11.670
69.38000 10.310
69.40000 11.656
69.42000 10.684
69.44000 8.560
69.46000 7.884
69.48000 11.404
69.50000 7.295
69.52000 4.022
69.54000 7.025
69.56000 6.676
69.58000 5.419
69.60000 4.347
69.62000 8.198
69.64000 6.603
69.66000 5.121
69.68000 2.855
69.70000 3.071
69.72000 2.285
69.74000 1.878
69.76000 0.778
69.78000 1.123
69.80000 3.823
69.82000 2.720
69.84000 2.590
69.86000 2.877
69.88000 2.079
69.90000 2.086
69.92000 0.004
69.94000 1.331
69.96000 0.379
69.98000 2.168
70.00000 2.484
70.02000 1.299
70.04000 1.390
70.06000 0.237
70.08000 -0.177
70.10000 -0.657
70.12000 0.739
70.14000 1.944
70.16000 0.504
70.18000 -1.785
70.20000 1.818
70.22000 -1.786
70.24000 -0.083
70.26000 -2.152
70.28000 -0.191
70.30000 0.053
70.32000 1.052
70.34000 1.207
70.36000 3.109
70.38000 0.304
70.40000 0.517
70.42000 1.661
70.44000 0.193
70.46000 2.181
70.48000 -0.863
70.50000 -1.731
70.52000 1.036
70.54000 0.386
70.56000 -1.879
70.58000 -1.315
70.60000 -1.415
70.62000 -0.290
70.64000 -2.093
70.66000 -0.417
70.68000 1.854
70.70000 1.113
70.72000 1.364
70.74000 0.038
70.76000 1.168
70.78000 0.354
70.80000 -1.307
70.82000 1.554
70.84000 3.993
70.86000 0.459
70.88000 0.594
70.90000 -0.116
70.92000 -2.072
70.94000 1.528
70.96000 2.309
70.98000 0.856
71.00000 0.759
71.02000 0.537
71.04000 1.731
71.06000 2.457
71.08000 0.100
71.10000 2.312
71.12000 3.374
71.14000 1.308
71.16000 -0.103
71.18000 2.048
71.20000 1.243
71.22000 1.536
71.24000 0.224
71.26000 2.249
71.28000 0.192
71.30000 -1.001
71.32000 -1.676
71.34000 1.397
71.36000 0.144
71.38000 0.080
71.40000 2.019
71.42000 2.685
71.44000 3.880
71.46000 3.313
71.48000 4.070
71.50000 3.934
71.52000 -1.260
71.54000 -0.801
71.56000 0.545
71.58000 0.285
71.60000 1.206
71.62000 -0.058
71.64000 -0.122
71.66000 1.971
71.68000 4.350
71.70000 3.950
71.72000 2.065
71.74000 0.268
71.76000 -1.673
71.78000 -0.160
71.80000 -2.047
71.82000 1.221
71.84000 -0.020
71.86000 2.173
71.88000 1.512
71.90000 1.838
71.92000 0.465
71.94000 -0.058
71.96000 1.757
71.98000 1.220
72.00000 2.596
72.02000 2.803
72.04000 3.183
72.06000 1.933
72.08000 2.725
72.10000 7.586
72.12000 4.938
72.14000 3.542
72.16000 7.070
72.18000 5.349
72.20000 -1.127
72.22000 -0.218
72.24000 0.036
72.26000 -1.359
72.28000 -0.629
72.30000 1.066
72.32000 2.241
72.34000 -1.843
72.36000 -1.299
72.38000 0.538
72.40000 0.539
72.42000 0.952
72.44000 -2.007
72.46000 -0.267
72.48000 0.328
72.50000 0.724
72.52000 1.668
72.54000 2.347
72.56000 1.506
72.58000 -0.299
72.60000 -0.001
72.62000 0.315
72.64000 -0.823
72.66000 -1.976
72.68000 -0.734
72.70000 -0.594
72.72000 1.709
72.74000 0.902
72.76000 2.105
72.78000 2.900
72.80000 2.775
72.82000 1.624
72.84000 0.739
72.86000 0.869
72.88000 0.542
72.90000 2.104
72.92000 4.078
72.94000 1.148
72.96000 2.960
72.98000 2.577
73.00000 1.661
73.02000 0.285
73.04000 -1.871
73.06000 -0.823
73.08000 1.483
73.10000 2.127
73.12000 1.060
73.14000 2.342
73.16000 -0.451
73.18000 0.498
73.20000 -0.640
73.22000 0.593
73.24000 1.788
73.26000 0.289
73.28000 -0.071
73.30000 2.168
73.32000 1.834
73.34000 4.254
73.36000 2.368
73.38000 -0.483
73.40000 1.487
73.42000 2.480
73.44000 3.651
73.46000 1.603
73.48000 0.377
73.50000 0.964
73.52000 1.884
73.54000 -1.634
73.56000 0.584
73.58000 2.674
73.60000 3.218
73.62000 2.263
73.64000 -0.129
73.66000 -1.959
73.68000 0.336
73.70000 4.019
73.72000 2.932
73.74000 -0.641
73.76000 1.280
73.78000 0.469
73.80000 1.434
73.82000 0.650
73.84000 1.700
73.86000 -0.397
73.88000 2.266
73.90000 4.475
73.92000 6.649
73.94000 4.469
73.96000 2.759
73.98000 1.073
74.00000 2.486
74.02000 5.624
74.04000 3.466
74.06000 1.327
74.08000 3.154
74.10000 5.558
74.12000 5.370
74.14000 4.798
74.16000 4.035
74.18000 -1.893
74.20000 -0.085
74.22000 1.778
74.24000 4.078
74.26000 4.447
74.28000 8.398
74.30000 8.276
74.32000 4.886
74.34000 8.404
74.36000 7.987
74.38000 6.542
74.40000 6.742
74.42000 4.224
74.44000 5.940
74.46000 9.734
74.48000 4.665
74.50000 3.980
74.52000 1.546
74.54000 1.084
74.56000 2.862
74.58000 3.632
74.60000 5.395
74.62000 3.904
74.64000 3.064
74.66000 3.635
74.68000 3.990
74.70000 2.174
74.72000 4.455
74.74000 3.887
74.76000 -0.483
74.78000 1.666
74.80000 3.784
74.82000 5.602
74.84000 7.558
74.86000 4.083
74.88000 0.805
74.90000 1.860
74.92000 3.633
74.94000 2.046
74.96000 3.849
74.98000 0.200
75.00000 -1.953
75.02000 -0.416
75.04000 0.343
75.06000 1.415
75.08000 3.634
75.10000 1.378
75.12000 5.543
75.14000 6.384
75.16000 2.595
75.18000 4.109
75.20000 4.691
75.22000 6.918
75.24000 5.099
75.26000 3.294
75.28000 2.106
75.30000 -0.804
75.32000 0.882
75.34000 1.104
75.36000 -1.968
75.38000 -1.771
75.40000 -1.258
75.42000 0.717
75.44000 2.558
75.46000 -0.121
75.48000 0.440
75.50000 -0.494
75.52000 -0.291
75.54000 0.598
75.56000 1.067
75.58000 -0.114
75.60000 1.570
75.62000 5.081
75.64000 3.201
75.66000 1.100
75.68000 2.628
75.70000 4.662
75.72000 3.408
75.74000 2.985
75.76000 4.634
75.78000 4.175
75.80000 0.952
75.82000 -0.815
75.84000 -1.070
75.86000 1.770
75.88000 3.504
75.90000 0.520
75.92000 1.056
75.94000 5.104
75.96000 2.829
75.98000 -1.957
76.00000 1.473
76.02000 3.530
76.04000 1.943
76.06000 4.477
76.08000 4.281
76.10000 1.069
76.12000 2.678
76.14000 4.671
76.16000 3.320
76.18000 4.003
76.20000 1.982
76.22000 2.707
76.24000 5.101
76.26000 2.756
76.28000 3.200
76.30000 5.439
76.32000 2.754
76.34000 4.437
76.36000 3.285
76.38000 1.303
76.40000 2.469
76.42000 6.443
76.44000 5.713
76.46000 2.576
76.48000 -1.981
76.50000 3.467
76.52000 7.740
76.54000 6.035
76.56000 0.685
76.58000 1.383
76.60000 1.733
76.62000 0.953
76.64000 -1.034
76.66000 -0.117
76.68000 0.110
76.70000 2.937
76.72000 4.836
76.74000 0.144
76.76000 -0.256
76.78000 0.473
76.80000 7.580
76.82000 7.271
76.84000 3.289
76.86000 1.075
76.88000 -0.812
76.90000 -0.180
76.92000 0.560
76.94000 3.805
76.96000 3.154
76.98000 2.295
77.00000 2.252
77.02000 0.221
77.04000 -1.330
77.06000 -0.078
77.08000 3.540
77.10000 0.921
77.12000 2.516
77.14000 1.306
77.16000 1.169
77.18000 -0.038
77.20000 3.198
77.22000 0.085
77.24000 -1.697
77.26000 -0.246
77.28000 2.553
77.30000 5.001
77.32000 2.963
77.34000 -0.015
77.36000 -0.090
77.38000 1.828
77.40000 -0.017
77.42000 2.000
77.44000 -1.877
77.46000 -0.567
77.48000 1.756
77.50000 3.660
77.52000 1.811
77.54000 0.469
77.56000 2.185
77.58000 3.586
77.60000 -1.559
77.62000 -0.597
77.64000 1.963
77.66000 -2.019
77.68000 -0.030
77.70000 -2.018
77.72000 1.489
77.74000 5.439
77.76000 6.028
77.78000 3.041
77.80000 -0.282
77.82000 -1.085
77.84000 -2.011
77.86000 -0.473
77.88000 2.276
77.90000 4.574
77.92000 2.593
77.94000 0.218
77.96000 0.331
77.98000 -0.481
78.00000 1.263
78.02000 3.682
78.04000 5.171
78.06000 2.355
78.08000 -1.320
78.10000 -1.429
78.12000 0.419
78.14000 1.462
78.16000 3.168
78.18000 -0.200
78.20000 1.473
78.22000 3.724
78.24000 -1.794
78.26000 -2.017
78.28000 -0.748
78.30000 0.974
78.32000 2.478
78.34000 4.537
78.36000 4.131
78.38000 5.034
78.40000 1.935
78.42000 -1.174
78.44000 2.254
78.46000 -1.755
78.48000 -1.348
78.50000 0.740
78.52000 3.853
78.54000 0.989
78.56000 2.644
78.58000 5.245
78.60000 2.904
78.62000 -1.266
78.64000 0.746
78.66000 2.810
78.68000 3.095
78.70000 -0.323
78.72000 1.408
78.74000 3.444
78.76000 4.708
78.78000 4.216
78.80000 -0.007
78.82000 -0.108
78.84000 2.684
78.86000 5.172
78.88000 3.167
78.90000 5.196
78.92000 7.408
78.94000 3.207
78.96000 1.679
78.98000 0.444
79.00000 4.132
79.02000 4.781
79.04000 2.603
79.06000 5.593
79.08000 3.848
79.10000 4.424
79.12000 4.608
79.14000 2.448
79.16000 2.479
79.18000 0.404
79.20000 3.871
79.22000 5.156
79.24000 4.319
79.26000 4.211
79.28000 4.972
79.30000 3.604
79.32000 5.278
79.34000 7.110
79.36000 4.347
79.38000 1.992
79.40000 -1.967
79.42000 1.829
79.44000 5.631
79.46000 2.040
79.48000 2.033
79.50000 6.083
79.52000 5.316
79.54000 3.406
79.56000 3.778
79.58000 2.856
79.60000 1.731
79.62000 4.174
79.64000 4.831
79.66000 3.769
79.68000 3.014
79.70000 7.036
79.72000 5.603
79.74000 3.734
79.76000 3.460
79.78000 3.582
79.80000 1.998
79.82000 2.038
79.84000 5.569
79.86000 3.178
79.88000 -0.118
79.90000 2.948
79.92000 2.923
79.94000 2.321
79.96000 -0.946
79.98000 1.325
80.00000 -0.434
80.02000 2.030
80.04000 2.498
80.06000 1.632
80.08000 1.910
80.10000 1.687
80.12000 0.853
80.14000 1.354
80.16000 0.001
80.18000 6.688
80.20000 2.316
80.22000 -0.142
80.24000 2.086
80.26000 1.578
80.28000 2.183
80.30000 1.849
80.32000 2.243
80.34000 2.590
80.36000 2.478
80.38000 3.301
80.40000 2.332
80.42000 3.656
80.44000 4.717
80.46000 -0.688
80.48000 -1.673
80.50000 -2.092
80.52000 -0.259
80.54000 -2.065
80.56000 1.570
80.58000 2.123
80.60000 2.114
80.62000 0.011
80.64000 1.692
80.66000 2.697
80.68000 1.342
80.70000 0.948
80.72000 0.820
80.74000 1.316
80.76000 2.451
80.78000 -0.211
80.80000 -1.248
80.82000 0.382
80.84000 0.354
80.86000 2.868
80.88000 0.394
80.90000 1.870
80.92000 -0.391
80.94000 0.956
80.96000 2.781
80.98000 -0.284
81.00000 0.898
81.02000 -1.022
81.04000 -1.005
81.06000 0.679
81.08000 0.813
81.10000 0.309
81.12000 0.673
81.14000 0.212
81.16000 1.308
81.18000 -0.390
81.20000 -1.237
81.22000 2.113
81.24000 -0.661
81.26000 0.818
81.28000 0.982
81.30000 0.343
81.32000 0.855
81.34000 1.774
81.36000 0.833
81.38000 -2.162
81.40000 -0.792
81.42000 0.118
81.44000 1.388
81.46000 2.664
81.48000 1.561
81.50000 -1.835
81.52000 -1.402
81.54000 1.196
81.56000 2.536
81.58000 -0.527
81.60000 2.583
81.62000 0.918
81.64000 0.371
81.66000 6.335
81.68000 4.517
81.70000 7.419
81.72000 4.815
81.74000 -2.196
81.76000 -0.847
81.78000 2.021
81.80000 4.236
81.82000 2.059
81.84000 3.408
81.86000 -0.712
81.88000 3.022
81.90000 4.444
81.92000 6.200
81.94000 7.359
81.96000 8.399
81.98000 8.041
82.00000 7.858
82.02000 7.441
82.04000 6.179
82.06000 9.099
82.08000 7.663
82.10000 10.907
82.12000 10.300
82.14000 13.010
82.16000 11.803
82.18000 9.228
82.20000 9.983
82.22000 13.883
82.24000 15.589
82.26000 12.917
82.28000 15.536
82.30000 17.169
82.32000 15.280
82.34000 18.082
82.36000 17.729
82.38000 18.197
82.40000 16.245
82.42000 19.354
82.44000 17.745
82.46000 20.852
82.48000 18.514
82.50000 22.409
82.52000 24.233
82.54000 27.437
82.56000 29.128
82.58000 34.083
82.60000 37.290
82.62000 39.319
82.64000 35.199
82.66000 35.241
82.68000 35.269
82.70000 41.591
82.72000 46.178
82.74000 50.164
82.76000 49.259
82.78000 49.800
82.80000 51.466
82.82000 53.882
82.84000 54.865
82.86000 53.699
82.88000 53.963
82.90000 57.718
82.92000 59.985
82.94000 64.115
82.96000 56.237
82.98000 55.045
83.00000 63.172
83.02000 65.665
83.04000 65.353
83.06000 62.383
83.08000 65.294
83.10000 65.023
83.12000 64.901
83.14000 60.676
83.16000 64.871
83.18000 66.324
83.20000 62.770
83.22000 66.113
83.24000 63.063
83.26000 61.597
83.28000 60.593
83.30000 56.441
83.32000 57.064
83.34000 55.847
83.36000 53.215
83.38000 56.983
83.40000 52.843
83.42000 55.888
83.44000 53.816
83.46000 48.847
83.48000 48.592
83.50000 46.932
83.52000 44.296
83.54000 40.694
83.56000 40.953
83.58000 42.127
83.60000 35.303
83.62000 35.401
83.64000 40.218
83.66000 35.638
83.68000 37.061
83.70000 31.922
83.72000 32.920
83.74000 31.133
83.76000 25.765
83.78000 22.296
83.80000 23.834
83.82000 24.645
83.84000 24.497
83.86000 23.482
83.88000 20.553
83.90000 19.473
83.92000 20.757
83.94000 18.594
83.96000 17.938
83.98000 19.086
84.00000 15.733
84.02000 13.213
84.04000 12.647
84.06000 14.482
84.08000 12.810
84.10000 11.340
84.12000 9.784
84.14000 7.853
84.16000 9.228
84.18000 10.988
84.20000 8.351
84.22000 5.921
84.24000 6.243
84.26000 6.336
84.28000 4.826
84.30000 3.249
84.32000 1.567
84.34000 5.105
84.36000 2.958
84.38000 1.638
84.40000 3.647
84.42000 3.328
84.44000 1.887
84.46000 3.746
84.48000 5.129
84.50000 3.925
84.52000 0.391
84.54000 -2.139
84.56000 -1.845
84.58000 -1.431
84.60000 -1.766
84.62000 0.306
84.64000 -0.990
84.66000 -1.429
84.68000 -1.427
84.70000 3.005
84.72000 1.921
84.74000 -2.114
84.76000 -2.255
84.78000 3.258
84.80000 5.186
84.82000 -0.080
84.84000 -0.609
84.86000 -1.077
84.88000 0.373
84.90000 0.694
84.92000 -1.166
84.94000 2.658
84.96000 2.527
84.98000 2.896
85.00000 0.644
85.02000 -0.398
85.04000 -0.960
85.06000 1.704
85.08000 0.056
85.10000 1.020
85.12000 0.563
85.14000 -0.740
85.16000 2.923
85.18000 -1.868
85.20000 -2.182
85.22000 -1.637
85.24000 2.646
85.26000 1.336
85.28000 1.096
85.30000 1.138
85.32000 1.052
85.34000 -0.319
85.36000 3.653
85.38000 0.016
85.40000 -0.892
85.42000 -1.081
85.44000 1.475
85.46000 -0.369
85.48000 -1.261
85.50000 0.466
85.52000 -0.235
85.54000 -1.981
85.56000 -2.154
85.58000 -0.705
85.60000 -1.069
85.62000 1.354
85.64000 1.981
85.66000 1.797
85.68000 -1.680
85.70000 -2.143
85.72000 -0.800
85.74000 0.118
85.76000 4.099
85.78000 3.266
85.80000 -0.925
85.82000 -0.395
85.84000 -1.241
85.86000 -1.795
85.88000 0.315
85.90000 2.286
85.92000 2.207
85.94000 1.327
85.96000 0.461
85.98000 0.200
86.00000 -0.433
86.02000 -1.221
86.04000 -0.371
86.06000 0.012
86.08000 -0.719
86.10000 -0.709
86.12000 -1.507
86.14000 -2.153
86.16000 0.193
86.18000 2.353
86.20000 -0.685
86.22000 -1.442
86.24000 0.556
86.26000 0.872
86.28000 2.491
86.30000 4.003
86.32000 4.511
86.34000 4.463
86.36000 1.833
86.38000 0.121
86.40000 1.550
86.42000 2.111
86.44000 -2.163
86.46000 0.384
86.48000 2.768
86.50000 6.569
86.52000 8.414
86.54000 4.795
86.56000 8.074
86.58000 4.048
86.60000 5.279
86.62000 4.545
86.64000 6.255
86.66000 6.336
86.68000 1.926
86.70000 3.726
86.72000 7.597
86.74000 9.363
86.76000 12.863
86.78000 12.575
86.80000 11.771
86.82000 11.897
86.84000 16.877
86.86000 13.213
86.88000 14.927
86.90000 15.613
86.92000 19.142
86.94000 17.267
86.96000 19.083
86.98000 17.682
87.00000 18.690
87.02000 19.272
87.04000 20.813
87.06000 20.770
87.08000 25.087
87.10000 20.316
87.12000 25.422
87.14000 26.515
87.16000 24.346
87.18000 23.851
87.20000 24.890
87.22000 27.326
87.24000 27.910
87.26000 31.433
87.28000 32.085
87.30000 33.190
87.32000 26.789
87.34000 26.220
87.36000 32.065
87.38000 29.515
87.40000 29.732
87.42000 35.288
87.44000 36.315
87.46000 38.560
87.48000 36.241
87.50000 36.253
87.52000 33.461
87.54000 32.475
87.56000 41.038
87.58000 40.606
87.60000 39.248
87.62000 38.813
87.64000 38.068
87.66000 33.007
87.68000 40.591
87.70000 37.568
87.72000 37.903
87.74000 37.506
87.76000 36.919
87.78000 36.775
87.80000 35.093
87.82000 36.284
87.84000 38.442
87.86000 31.594
87.88000 29.546
87.90000 27.248
87.92000 27.121
87.94000 25.069
87.96000 29.604
87.98000 25.556
88.00000 22.697
88.02000 24.883
88.04000 22.917
88.06000 21.695
88.08000 20.986
88.10000 19.824
88.12000 21.382
88.14000 20.512
88.16000 19.847
88.18000 19.904
88.20000 14.526
88.22000 17.309
88.24000 18.705
88.26000 14.503
88.28000 13.037
88.30000 11.045
88.32000 11.374
88.34000 10.085
88.36000 10.872
88.38000 10.788
88.40000 8.158
88.42000 7.041
88.44000 6.009
88.46000 6.927
88.48000 8.719
88.50000 10.561
88.52000 8.223
88.54000 7.335
88.56000 7.704
88.58000 9.276
88.60000 7.090
88.62000 4.685
88.64000 6.123
88.66000 2.243
88.68000 4.073
88.70000 1.411
88.72000 2.607
88.74000 3.556
88.76000 0.473
88.78000 1.885
88.80000 3.532
88.82000 3.706
88.84000 2.289
88.86000 3.293
88.88000 2.562
88.90000 4.238
88.92000 3.465
88.94000 2.768
88.96000 2.105
88.98000 6.463
89.00000 3.661
89.02000 2.317
89.04000 0.840
89.06000 0.597
89.08000 2.485
89.10000 -0.027
89.12000 0.128
89.14000 0.006
89.16000 0.440
89.18000 0.551
89.20000 3.300
89.22000 1.655
89.24000 0.196
89.26000 -2.025
89.28000 0.257
89.30000 0.696
89.32000 0.016
89.34000 -1.296
89.36000 0.031
89.38000 0.950
89.40000 2.316
89.42000 1.083
89.44000 0.096
89.46000 1.066
89.48000 -1.983
89.50000 -0.883
89.52000 -0.268
89.54000 0.160
89.56000 2.794
89.58000 4.218
89.60000 3.868
89.62000 5.568
89.64000 2.784
89.66000 -0.749
89.68000 1.236
89.70000 1.609
89.72000 3.612
89.74000 0.545
89.76000 0.093
89.78000 2.518
89.80000 1.386
89.82000 -0.948
89.84000 -1.942
89.86000 1.888
89.88000 2.507
89.90000 2.614
89.92000 3.030
89.94000 -0.151
89.96000 -1.645
89.98000 -1.937
90.00000 -0.002
90.02000 2.952
90.04000 2.059
90.06000 1.727
90.08000 1.870
90.10000 2.934
90.12000 -1.168
90.14000 1.168
90.16000 -1.773
90.18000 1.906
90.20000 2.166
90.22000 2.982
90.24000 2.415
90.26000 2.658
90.28000 3.798
90.30000 1.673
90.32000 2.402
90.34000 1.410
90.36000 1.960
90.38000 -0.496
90.40000 4.079
90.42000 6.824
90.44000 0.546
90.46000 -1.101
90.48000 2.135
90.50000 3.034
90.52000 3.676
90.54000 4.638
90.56000 1.120
90.58000 2.439
90.60000 -0.485
90.62000 0.263
90.64000 -1.653
90.66000 1.951
90.68000 1.955
90.70000 0.888
90.72000 1.681
90.74000 2.156
90.76000 5.727
90.78000 7.315
90.80000 4.106
90.82000 1.141
90.84000 -1.630
90.86000 2.354
90.88000 3.824
90.90000 2.881
90.92000 4.494
90.94000 -0.881
90.96000 0.128
90.98000 0.432
91.00000 4.254
91.02000 2.943
91.04000 -0.153
91.06000 -1.543
91.08000 -1.875
91.10000 -0.929
91.12000 2.122
91.14000 2.837
91.16000 5.293
91.18000 2.988
91.20000 2.439
91.22000 1.332
91.24000 1.594
91.26000 4.538
91.28000 5.772
91.30000 3.456
91.32000 3.013
91.34000 3.185
91.36000 4.672
91.38000 2.452
91.40000 2.619
91.42000 -0.736
91.44000 1.338
91.46000 1.497
91.48000 0.452
91.50000 1.059
91.52000 4.617
91.54000 3.323
91.56000 1.303
91.58000 -1.019
91.60000 0.979
91.62000 2.238
91.64000 3.504
91.66000 5.347
91.68000 5.169
91.70000 5.595
91.72000 2.827
91.74000 1.360
91.76000 1.637
91.78000 5.132
91.80000 3.001
91.82000 -0.179
91.84000 2.481
91.86000 0.382
91.88000 2.429
91.90000 5.374
91.92000 2.194
91.94000 -0.971
91.96000 2.525
91.98000 8.248
92.00000 6.842
92.02000 1.197
92.04000 0.851
92.06000 -0.065
92.08000 0.717
92.10000 1.612
92.12000 1.372
92.14000 3.120
92.16000 2.945
92.18000 2.851
92.20000 2.315
92.22000 5.698
92.24000 4.524
92.26000 2.193
92.28000 2.789
92.30000 6.038
92.32000 4.495
92.34000 4.739
92.36000 4.165
92.38000 4.483
92.40000 3.166
92.42000 2.923
92.44000 5.622
92.46000 6.700
92.48000 2.897
92.50000 -0.255
92.52000 -1.854
92.54000 1.156
92.56000 5.258
92.58000 1.786
92.60000 2.378
92.62000 5.990
92.64000 2.796
92.66000 -0.039
92.68000 2.415
92.70000 5.351
92.72000 4.790
92.74000 4.211
92.76000 1.375
92.78000 2.522
92.80000 1.167
92.82000 -1.848
92.84000 0.031
92.86000 3.395
92.88000 1.996
92.90000 5.585
92.92000 4.624
92.94000 1.958
92.96000 3.779
92.98000 4.481
93.00000 5.347
93.02000 4.187
93.04000 1.917
93.06000 3.074
93.08000 4.408
93.10000 1.017
93.12000 4.290
93.14000 2.772
93.16000 -0.816
93.18000 3.290
93.20000 4.005
93.22000 1.913
93.24000 3.372
93.26000 4.272
93.28000 2.661
93.30000 1.735
93.32000 0.808
93.34000 1.426
93.36000 1.931
93.38000 1.874
93.40000 1.872
93.42000 -1.210
93.44000 0.074
93.46000 1.135
93.48000 2.181
93.50000 1.658
93.52000 -1.111
93.54000 -1.474
93.56000 2.935
93.58000 4.515
93.60000 -0.960
93.62000 -1.276
93.64000 -0.307
93.66000 0.574
93.68000 3.526
93.70000 1.854
93.72000 2.540
93.74000 2.478
93.76000 0.879
93.78000 2.187
93.80000 3.012
93.82000 3.233
93.84000 1.712
93.86000 1.152
93.88000 3.640
93.90000 -0.595
93.92000 -0.035
93.94000 -1.215
93.96000 2.053
93.98000 -1.605
94.00000 -1.295
94.02000 -1.251
94.04000 -1.652
94.06000 5.525
94.08000 0.501
94.10000 -0.861
94.12000 -1.210
94.14000 3.002
94.16000 4.826
94.18000 4.713
94.20000 2.728
94.22000 -0.903
94.24000 -1.929
94.26000 3.828
94.28000 0.728
94.30000 2.197
94.32000 3.080
94.34000 -0.277
94.36000 0.127
94.38000 0.839
94.40000 1.706
94.42000 -0.041
94.44000 1.860
94.46000 0.788
94.48000 1.783
94.50000 3.927
94.52000 5.379
94.54000 4.186
94.56000 4.191
94.58000 0.892
94.60000 0.628
94.62000 2.234
94.64000 -1.298
94.66000 0.160
94.68000 -0.064
94.70000 2.872
94.72000 2.811
94.74000 0.281
94.76000 0.080
94.78000 -1.145
94.80000 -0.526
94.82000 -1.935
94.84000 -1.061
94.86000 2.793
94.88000 3.298
94.90000 3.028
94.92000 2.084
94.94000 1.676
94.96000 -0.732
94.98000 2.737
95.00000 5.540
95.02000 7.927
95.04000 2.343
95.06000 0.927
95.08000 2.687
95.10000 3.212
95.12000 -1.102
95.14000 0.690
95.16000 0.403
95.18000 1.676
95.20000 2.470
95.22000 2.974
95.24000 2.795
95.26000 2.558
95.28000 0.159
95.30000 2.558
95.32000 -0.707
95.34000 -0.117
95.36000 -0.756
95.38000 -1.241
95.40000 -0.225
95.42000 -0.425
95.44000 1.400
95.46000 2.280
95.48000 2.224
95.50000 1.953
95.52000 3.835
95.54000 1.120
95.56000 2.302
95.58000 3.643
95.60000 3.018
95.62000 -1.516
95.64000 4.678
95.66000 5.513
95.68000 1.108
95.70000 3.113
95.72000 4.495
95.74000 5.513
95.76000 5.107
95.78000 1.603
95.80000 -1.903
95.82000 5.385
95.84000 5.905
95.86000 2.239
95.88000 7.362
95.90000 7.310
95.92000 2.683
95.94000 2.129
95.96000 1.791
95.98000 3.050
96.00000 2.949
96.02000 0.414
96.04000 4.534
96.06000 4.982
96.08000 5.673
96.10000 5.545
96.12000 3.190
96.14000 1.771
96.16000 2.051
96.18000 0.662
96.20000 4.494
96.22000 10.213
96.24000 7.854
96.26000 8.603
96.28000 6.293
96.30000 2.638
96.32000 4.151
96.34000 5.664
96.36000 4.742
96.38000 5.654
96.40000 2.375
96.42000 -1.894
96.44000 -0.895
96.46000 -0.068
96.48000 0.631
96.50000 1.364
96.52000 0.433
96.54000 1.228
96.56000 2.698
96.58000 0.828
96.60000 -0.825
96.62000 4.423
96.64000 7.035
96.66000 2.289
96.68000 3.582
96.70000 2.949
96.72000 0.893
96.74000 3.129
96.76000 3.487
96.78000 2.322
96.80000 6.685
96.82000 7.331
96.84000 6.310
96.86000 4.633
96.88000 5.211
96.90000 4.509
96.92000 0.830
96.94000 2.990
96.96000 2.610
96.98000 -1.763
97.00000 2.756
97.02000 0.694
97.04000 3.991
97.06000 1.649
97.08000 3.720
97.10000 3.890
97.12000 -0.419
97.14000 0.560
97.16000 3.089
97.18000 1.283
97.20000 3.367
97.22000 4.979
97.24000 4.824
97.26000 2.376
97.28000 2.880
97.30000 2.408
97.32000 4.472
97.34000 5.336
97.36000 4.867
97.38000 10.689
97.40000 6.186
97.42000 5.015
97.44000 3.031
97.46000 -0.723
97.48000 2.127
97.50000 3.194
97.52000 5.275
97.54000 -0.325
97.56000 4.282
97.58000 2.916
97.60000 4.469
97.62000 3.520
97.64000 0.917
97.66000 0.732
97.68000 2.806
97.70000 7.476
97.72000 4.913
97.74000 5.348
97.76000 8.116
97.78000 2.193
97.80000 1.900
97.82000 4.003
97.84000 1.591
97.86000 -1.824
97.88000 -1.160
97.90000 3.116
97.92000 5.323
97.94000 3.518
97.96000 0.809
97.98000 4.081
98.00000 4.266
98.02000 6.234
98.04000 11.113
98.06000 10.010
98.08000 8.386
98.10000 2.665
98.12000 4.953
98.14000 6.952
98.16000 7.049
98.18000 8.582
98.20000 7.548
98.22000 9.551
98.24000 6.414
98.26000 1.201
98.28000 2.368
98.30000 0.972
98.32000 5.886
98.34000 6.142
98.36000 5.491
98.38000 4.614
98.40000 -1.942
98.42000 6.484
98.44000 6.816
98.46000 2.733
98.48000 5.512
98.50000 7.160
98.52000 4.231
98.54000 -1.371
98.56000 2.701
98.58000 2.850
98.60000 2.457
98.62000 5.986
98.64000 8.553
98.66000 6.661
98.68000 5.682
98.70000 6.255
98.72000 7.062
98.74000 5.112
98.76000 4.903
98.78000 0.780
98.80000 2.845
98.82000 5.333
98.84000 1.923
98.86000 3.338
98.88000 3.036
98.90000 2.368
98.92000 3.048
98.94000 5.601
98.96000 8.684
98.98000 6.436
99.00000 8.473
99.02000 1.201
99.04000 5.926
99.06000 6.673
99.08000 5.053
99.10000 -0.967
99.12000 -1.784
99.14000 2.854
99.16000 8.591
99.18000 12.017
99.20000 13.109
99.22000 7.101
99.24000 10.623
99.26000 5.793
99.28000 8.277
99.30000 12.464
99.32000 3.870
99.34000 1.590
99.36000 7.257
99.38000 8.717
99.40000 4.722
99.42000 5.190
99.44000 5.156
99.46000 4.575
99.48000 10.141
99.50000 9.999
99.52000 6.634
99.54000 5.000
99.56000 7.495
99.58000 9.213
99.60000 5.006
99.62000 8.128
99.64000 5.144
99.66000 12.507
99.68000 6.669
99.70000 -0.051
99.72000 -1.703
99.74000 0.523
99.76000 2.712
99.78000 7.076
99.80000 8.479
99.82000 11.011
99.84000 7.775
99.86000 3.132
99.88000 4.265
99.90000 2.473
99.92000 -1.833
99.94000 3.429
99.96000 9.967
99.98000 0.000
