'Id: "0011388" Comment: "Integrate frame 0011388_Au-Ir-Rh_Rh-rich_XRD-Mapping-056-0000.gfrmwith cursor Wedge Cursor #5" Operator: "B?rgel" Anode: "Cu" Wavelength: "1.5406" Scantype: "2Theta (TwoTheta)" TimePerStep: "1" X: "-40.5" Y: "-22.5" Z: "5.95" 
10.00000 0.000
10.02000 6.666
10.04000 3.236
10.06000 13.390
10.08000 29.001
10.10000 32.379
10.12000 23.032
10.14000 7.476
10.16000 12.298
10.18000 7.009
10.20000 11.233
10.22000 13.984
10.24000 4.775
10.26000 5.254
10.28000 18.951
10.30000 19.656
10.32000 20.880
10.34000 12.173
10.36000 10.961
10.38000 -0.136
10.40000 0.014
10.42000 16.234
10.44000 8.192
10.46000 20.318
10.48000 22.020
10.50000 12.249
10.52000 -2.183
10.54000 3.545
10.56000 13.941
10.58000 21.733
10.60000 5.153
10.62000 12.853
10.64000 24.570
10.66000 15.872
10.68000 5.935
10.70000 -3.746
10.72000 5.386
10.74000 19.019
10.76000 11.687
10.78000 10.789
10.80000 9.041
10.82000 2.014
10.84000 -4.545
10.86000 -4.222
10.88000 1.584
10.90000 17.627
10.92000 25.193
10.94000 16.493
10.96000 11.619
10.98000 -0.596
11.00000 2.777
11.02000 8.582
11.04000 13.243
11.06000 20.639
11.08000 16.727
11.10000 19.701
11.12000 6.993
11.14000 2.131
11.16000 1.971
11.18000 17.038
11.20000 12.962
11.22000 3.699
11.24000 11.087
11.26000 11.114
11.28000 18.810
11.30000 12.789
11.32000 23.493
11.34000 12.251
11.36000 6.760
11.38000 3.070
11.40000 4.375
11.42000 22.588
11.44000 4.389
11.46000 -3.177
11.48000 7.918
11.50000 4.870
11.52000 4.035
11.54000 12.130
11.56000 21.095
11.58000 4.620
11.60000 3.985
11.62000 -3.826
11.64000 -3.577
11.66000 3.686
11.68000 3.341
11.70000 8.241
11.72000 -1.462
11.74000 8.422
11.76000 17.269
11.78000 22.898
11.80000 17.036
11.82000 14.221
11.84000 14.371
11.86000 15.162
11.88000 9.676
11.90000 14.201
11.92000 9.001
11.94000 14.373
11.96000 6.905
11.98000 9.097
12.00000 5.730
12.02000 2.992
12.04000 9.876
12.06000 14.890
12.08000 16.074
12.10000 23.411
12.12000 7.643
12.14000 4.030
12.16000 1.151
12.18000 -4.518
12.20000 3.753
12.22000 2.934
12.24000 5.269
12.26000 10.921
12.28000 11.287
12.30000 9.124
12.32000 17.738
12.34000 15.997
12.36000 11.727
12.38000 14.333
12.40000 18.535
12.42000 2.165
12.44000 4.839
12.46000 14.683
12.48000 20.676
12.50000 15.720
12.52000 8.604
12.54000 1.439
12.56000 7.455
12.58000 11.157
12.60000 3.340
12.62000 6.802
12.64000 8.349
12.66000 7.862
12.68000 7.963
12.70000 13.990
12.72000 8.830
12.74000 7.042
12.76000 13.423
12.78000 3.893
12.80000 -1.826
12.82000 6.718
12.84000 13.610
12.86000 18.627
12.88000 10.975
12.90000 1.077
12.92000 9.348
12.94000 -0.555
12.96000 -0.448
12.98000 -2.521
13.00000 3.579
13.02000 15.644
13.04000 16.142
13.06000 9.610
13.08000 11.320
13.10000 13.439
13.12000 6.279
13.14000 8.800
13.16000 22.896
13.18000 15.922
13.20000 1.984
13.22000 6.374
13.24000 13.185
13.26000 0.449
13.28000 5.439
13.30000 4.302
13.32000 7.264
13.34000 12.042
13.36000 6.544
13.38000 4.242
13.40000 6.908
13.42000 4.577
13.44000 4.519
13.46000 7.538
13.48000 2.335
13.50000 7.849
13.52000 9.833
13.54000 0.966
13.56000 0.528
13.58000 1.449
13.60000 -4.504
13.62000 4.359
13.64000 6.583
13.66000 9.132
13.68000 14.289
13.70000 11.332
13.72000 12.684
13.74000 7.237
13.76000 5.795
13.78000 6.754
13.80000 2.249
13.82000 5.346
13.84000 5.215
13.86000 2.592
13.88000 4.929
13.90000 5.753
13.92000 5.067
13.94000 -4.495
13.96000 13.757
13.98000 10.993
14.00000 12.553
14.02000 10.664
14.04000 -1.824
14.06000 -4.192
14.08000 7.330
14.10000 13.414
14.12000 10.457
14.14000 6.380
14.16000 9.792
14.18000 8.750
14.20000 3.909
14.22000 8.278
14.24000 7.196
14.26000 9.414
14.28000 4.586
14.30000 -2.528
14.32000 4.034
14.34000 10.572
14.36000 3.385
14.38000 7.242
14.40000 10.771
14.42000 6.178
14.44000 13.448
14.46000 12.971
14.48000 5.519
14.50000 5.749
14.52000 3.264
14.54000 0.240
14.56000 -3.279
14.58000 5.950
14.60000 -0.952
14.62000 -3.229
14.64000 6.061
14.66000 9.843
14.68000 13.862
14.70000 10.820
14.72000 6.643
14.74000 11.290
14.76000 3.376
14.78000 0.506
14.80000 6.044
14.82000 4.982
14.84000 3.572
14.86000 -0.368
14.88000 4.266
14.90000 1.727
14.92000 7.108
14.94000 3.400
14.96000 4.804
14.98000 10.028
15.00000 19.179
15.02000 17.561
15.04000 11.244
15.06000 1.405
15.08000 -0.500
15.10000 3.409
15.12000 0.841
15.14000 0.168
15.16000 9.903
15.18000 10.454
15.20000 5.484
15.22000 2.059
15.24000 1.342
15.26000 13.820
15.28000 4.707
15.30000 4.991
15.32000 3.889
15.34000 6.127
15.36000 10.297
15.38000 13.776
15.40000 10.986
15.42000 -1.441
15.44000 1.773
15.46000 4.652
15.48000 10.363
15.50000 6.468
15.52000 2.906
15.54000 5.290
15.56000 6.492
15.58000 6.553
15.60000 4.914
15.62000 2.287
15.64000 2.728
15.66000 0.789
15.68000 2.469
15.70000 1.608
15.72000 9.340
15.74000 2.457
15.76000 -2.050
15.78000 5.395
15.80000 7.102
15.82000 6.599
15.84000 10.978
15.86000 10.158
15.88000 6.721
15.90000 12.275
15.92000 15.718
15.94000 10.619
15.96000 11.625
15.98000 11.310
16.00000 15.009
16.02000 12.997
16.04000 10.142
16.06000 9.039
16.08000 7.175
16.10000 11.028
16.12000 4.655
16.14000 -2.131
16.16000 -4.403
16.18000 3.729
16.20000 10.688
16.22000 7.280
16.24000 3.474
16.26000 1.489
16.28000 5.401
16.30000 9.646
16.32000 5.310
16.34000 11.413
16.36000 10.686
16.38000 -3.110
16.40000 -4.385
16.42000 -2.607
16.44000 6.070
16.46000 -0.364
16.48000 3.554
16.50000 2.816
16.52000 0.859
16.54000 11.822
16.56000 13.256
16.58000 8.728
16.60000 5.326
16.62000 4.035
16.64000 5.837
16.66000 8.937
16.68000 12.358
16.70000 7.063
16.72000 9.695
16.74000 14.859
16.76000 10.508
16.78000 12.939
16.80000 16.770
16.82000 14.953
16.84000 13.279
16.86000 11.596
16.88000 8.264
16.90000 8.536
16.92000 8.192
16.94000 5.747
16.96000 3.992
16.98000 7.982
17.00000 8.360
17.02000 4.314
17.04000 7.751
17.06000 6.294
17.08000 6.596
17.10000 0.605
17.12000 3.791
17.14000 6.752
17.16000 -1.221
17.18000 6.457
17.20000 12.929
17.22000 13.375
17.24000 11.325
17.26000 13.713
17.28000 9.448
17.30000 7.242
17.32000 10.966
17.34000 13.528
17.36000 10.282
17.38000 1.387
17.40000 4.759
17.42000 -2.115
17.44000 -0.014
17.46000 1.279
17.48000 -3.560
17.50000 -1.730
17.52000 2.978
17.54000 3.179
17.56000 6.267
17.58000 6.811
17.60000 7.423
17.62000 12.221
17.64000 -1.003
17.66000 2.098
17.68000 0.686
17.70000 -0.367
17.72000 2.080
17.74000 4.217
17.76000 2.698
17.78000 0.401
17.80000 2.852
17.82000 7.696
17.84000 7.961
17.86000 4.045
17.88000 6.142
17.90000 8.125
17.92000 4.921
17.94000 5.985
17.96000 10.586
17.98000 6.055
18.00000 4.751
18.02000 6.956
18.04000 2.980
18.06000 -4.335
18.08000 -3.088
18.10000 -0.329
18.12000 10.006
18.14000 8.181
18.16000 5.252
18.18000 3.768
18.20000 11.240
18.22000 6.242
18.24000 -0.640
18.26000 2.015
18.28000 1.611
18.30000 1.951
18.32000 0.369
18.34000 4.814
18.36000 10.974
18.38000 14.024
18.40000 8.707
18.42000 -2.348
18.44000 -3.037
18.46000 0.396
18.48000 -4.306
18.50000 1.174
18.52000 0.631
18.54000 7.163
18.56000 6.841
18.58000 7.143
18.60000 0.487
18.62000 5.198
18.64000 6.828
18.66000 5.256
18.68000 6.810
18.70000 2.677
18.72000 9.434
18.74000 4.494
18.76000 1.209
18.78000 4.792
18.80000 7.786
18.82000 6.740
18.84000 6.697
18.86000 0.106
18.88000 3.099
18.90000 4.381
18.92000 2.684
18.94000 3.363
18.96000 2.561
18.98000 -0.552
19.00000 1.855
19.02000 2.857
19.04000 3.512
19.06000 5.461
19.08000 6.728
19.10000 5.681
19.12000 13.346
19.14000 15.008
19.16000 9.182
19.18000 4.600
19.20000 7.177
19.22000 10.973
19.24000 12.482
19.26000 13.052
19.28000 0.271
19.30000 1.596
19.32000 6.510
19.34000 6.401
19.36000 4.693
19.38000 3.378
19.40000 6.996
19.42000 8.626
19.44000 2.218
19.46000 1.483
19.48000 7.189
19.50000 8.199
19.52000 5.950
19.54000 7.365
19.56000 13.073
19.58000 2.872
19.60000 -2.943
19.62000 -4.206
19.64000 6.018
19.66000 13.356
19.68000 7.357
19.70000 5.397
19.72000 7.602
19.74000 1.871
19.76000 3.408
19.78000 17.069
19.80000 12.082
19.82000 -1.309
19.84000 -4.181
19.86000 2.385
19.88000 4.439
19.90000 5.593
19.92000 2.808
19.94000 3.183
19.96000 2.304
19.98000 -0.644
20.00000 1.277
20.02000 7.013
20.04000 4.637
20.06000 4.751
20.08000 11.005
20.10000 9.050
20.12000 2.104
20.14000 -2.452
20.16000 1.694
20.18000 5.023
20.20000 6.183
20.22000 5.947
20.24000 4.767
20.26000 9.039
20.28000 10.169
20.30000 8.685
20.32000 7.800
20.34000 7.885
20.36000 7.340
20.38000 -0.857
20.40000 7.380
20.42000 5.416
20.44000 3.852
20.46000 8.423
20.48000 10.953
20.50000 10.471
20.52000 9.943
20.54000 6.357
20.56000 9.283
20.58000 5.371
20.60000 1.536
20.62000 2.077
20.64000 3.946
20.66000 3.595
20.68000 -2.563
20.70000 3.775
20.72000 8.700
20.74000 -1.455
20.76000 2.805
20.78000 8.113
20.80000 6.382
20.82000 -4.160
20.84000 -1.725
20.86000 4.984
20.88000 9.187
20.90000 6.676
20.92000 2.552
20.94000 -2.245
20.96000 -0.618
20.98000 5.328
21.00000 9.725
21.02000 6.878
21.04000 7.124
21.06000 -2.066
21.08000 5.317
21.10000 2.925
21.12000 -1.360
21.14000 -2.263
21.16000 -1.623
21.18000 -2.976
21.20000 0.527
21.22000 -1.106
21.24000 1.799
21.26000 1.746
21.28000 4.058
21.30000 4.323
21.32000 7.708
21.34000 2.771
21.36000 -2.859
21.38000 -1.504
21.40000 1.116
21.42000 4.128
21.44000 -1.989
21.46000 4.928
21.48000 1.319
21.50000 -0.970
21.52000 3.639
21.54000 3.649
21.56000 0.566
21.58000 6.922
21.60000 7.420
21.62000 6.388
21.64000 2.590
21.66000 4.448
21.68000 1.510
21.70000 6.044
21.72000 13.069
21.74000 9.137
21.76000 8.785
21.78000 -0.637
21.80000 -1.457
21.82000 -0.272
21.84000 2.834
21.86000 -1.093
21.88000 -4.024
21.90000 -2.217
21.92000 1.514
21.94000 3.029
21.96000 1.360
21.98000 -1.522
22.00000 -1.729
22.02000 -1.920
22.04000 -0.283
22.06000 6.284
22.08000 3.624
22.10000 6.681
22.12000 -0.672
22.14000 -3.628
22.16000 6.339
22.18000 4.588
22.20000 2.308
22.22000 3.580
22.24000 1.944
22.26000 7.942
22.28000 6.549
22.30000 6.470
22.32000 0.662
22.34000 0.251
22.36000 6.023
22.38000 9.979
22.40000 8.545
22.42000 8.314
22.44000 7.340
22.46000 11.560
22.48000 9.188
22.50000 -1.325
22.52000 -2.662
22.54000 -4.074
22.56000 -0.474
22.58000 5.248
22.60000 3.877
22.62000 5.536
22.64000 8.663
22.66000 7.741
22.68000 1.689
22.70000 2.554
22.72000 1.152
22.74000 3.323
22.76000 8.459
22.78000 2.693
22.80000 7.470
22.82000 3.228
22.84000 -1.734
22.86000 1.420
22.88000 2.199
22.90000 -1.073
22.92000 -1.128
22.94000 2.387
22.96000 7.889
22.98000 5.058
23.00000 2.868
23.02000 1.168
23.04000 5.984
23.06000 3.883
23.08000 3.433
23.10000 7.021
23.12000 3.214
23.14000 0.229
23.16000 4.573
23.18000 5.043
23.20000 1.704
23.22000 -0.366
23.24000 5.239
23.26000 8.725
23.28000 6.625
23.30000 2.722
23.32000 2.313
23.34000 4.777
23.36000 4.003
23.38000 4.327
23.40000 5.169
23.42000 4.521
23.44000 5.637
23.46000 3.339
23.48000 2.606
23.50000 2.253
23.52000 0.434
23.54000 5.257
23.56000 -1.405
23.58000 -0.758
23.60000 -4.014
23.62000 1.861
23.64000 2.984
23.66000 2.353
23.68000 6.189
23.70000 0.868
23.72000 2.234
23.74000 5.905
23.76000 10.133
23.78000 6.380
23.80000 -0.771
23.82000 1.593
23.84000 2.739
23.86000 0.370
23.88000 2.500
23.90000 -2.421
23.92000 -1.357
23.94000 4.159
23.96000 -0.438
23.98000 1.804
24.00000 4.877
24.02000 5.166
24.04000 7.724
24.06000 7.467
24.08000 6.960
24.10000 2.983
24.12000 3.744
24.14000 2.936
24.16000 -0.513
24.18000 -0.239
24.20000 -0.136
24.22000 3.167
24.24000 -1.153
24.26000 -3.763
24.28000 -3.428
24.30000 -0.415
24.32000 1.504
24.34000 6.854
24.36000 8.022
24.38000 9.543
24.40000 4.946
24.42000 3.769
24.44000 3.314
24.46000 0.310
24.48000 1.544
24.50000 3.319
24.52000 -0.959
24.54000 2.052
24.56000 2.161
24.58000 1.021
24.60000 5.199
24.62000 4.378
24.64000 1.422
24.66000 -2.979
24.68000 -0.747
24.70000 5.859
24.72000 5.919
24.74000 5.169
24.76000 8.939
24.78000 8.976
24.80000 6.568
24.82000 1.889
24.84000 -0.690
24.86000 2.736
24.88000 1.219
24.90000 0.767
24.92000 -0.851
24.94000 6.026
24.96000 10.238
24.98000 3.016
25.00000 -0.374
25.02000 -3.603
25.04000 -2.148
25.06000 0.770
25.08000 0.290
25.10000 6.130
25.12000 7.811
25.14000 5.457
25.16000 4.113
25.18000 -3.909
25.20000 -2.799
25.22000 5.665
25.24000 2.277
25.26000 3.559
25.28000 1.739
25.30000 4.076
25.32000 10.626
25.34000 9.961
25.36000 5.321
25.38000 8.192
25.40000 7.997
25.42000 2.547
25.44000 0.961
25.46000 -0.315
25.48000 5.295
25.50000 11.097
25.52000 10.473
25.54000 5.658
25.56000 1.414
25.58000 1.897
25.60000 3.848
25.62000 3.295
25.64000 3.476
25.66000 4.329
25.68000 6.114
25.70000 8.356
25.72000 7.678
25.74000 0.255
25.76000 -0.927
25.78000 6.240
25.80000 8.792
25.82000 1.472
25.84000 0.809
25.86000 2.256
25.88000 5.059
25.90000 3.548
25.92000 5.567
25.94000 7.485
25.96000 3.929
25.98000 4.947
26.00000 1.528
26.02000 5.120
26.04000 2.177
26.06000 4.005
26.08000 9.309
26.10000 10.195
26.12000 9.890
26.14000 7.004
26.16000 7.124
26.18000 2.695
26.20000 -2.089
26.22000 -3.826
26.24000 0.624
26.26000 5.975
26.28000 4.684
26.30000 2.227
26.32000 1.192
26.34000 7.142
26.36000 13.051
26.38000 9.282
26.40000 4.082
26.42000 2.707
26.44000 3.557
26.46000 3.127
26.48000 0.980
26.50000 1.710
26.52000 1.848
26.54000 5.112
26.56000 7.431
26.58000 5.512
26.60000 1.783
26.62000 6.241
26.64000 10.828
26.66000 6.898
26.68000 6.961
26.70000 7.373
26.72000 4.718
26.74000 7.888
26.76000 2.772
26.78000 1.649
26.80000 -1.541
26.82000 1.184
26.84000 1.659
26.86000 0.441
26.88000 1.859
26.90000 6.012
26.92000 5.410
26.94000 2.001
26.96000 1.980
26.98000 -0.362
27.00000 4.738
27.02000 1.972
27.04000 -0.956
27.06000 4.083
27.08000 2.431
27.10000 2.721
27.12000 2.864
27.14000 -1.213
27.16000 2.918
27.18000 8.735
27.20000 8.848
27.22000 8.358
27.24000 7.174
27.26000 2.169
27.28000 -0.740
27.30000 -1.342
27.32000 3.535
27.34000 2.564
27.36000 2.068
27.38000 -0.074
27.40000 3.089
27.42000 2.236
27.44000 1.020
27.46000 -1.747
27.48000 3.531
27.50000 5.831
27.52000 4.133
27.54000 3.754
27.56000 -0.137
27.58000 -0.627
27.60000 -2.153
27.62000 -0.964
27.64000 -2.428
27.66000 1.900
27.68000 3.772
27.70000 1.525
27.72000 0.204
27.74000 -1.436
27.76000 -1.742
27.78000 1.642
27.80000 0.584
27.82000 0.059
27.84000 -0.323
27.86000 2.823
27.88000 7.590
27.90000 4.322
27.92000 -0.064
27.94000 2.263
27.96000 2.753
27.98000 -1.303
28.00000 3.794
28.02000 4.955
28.04000 1.156
28.06000 -0.253
28.08000 1.803
28.10000 5.584
28.12000 0.704
28.14000 2.753
28.16000 4.539
28.18000 3.855
28.20000 2.198
28.22000 -3.778
28.24000 -2.499
28.26000 0.573
28.28000 5.595
28.30000 1.668
28.32000 2.178
28.34000 3.097
28.36000 -2.123
28.38000 0.314
28.40000 0.942
28.42000 -1.213
28.44000 0.584
28.46000 3.647
28.48000 2.569
28.50000 4.476
28.52000 -1.156
28.54000 -0.795
28.56000 -1.110
28.58000 3.495
28.60000 2.981
28.62000 0.122
28.64000 0.476
28.66000 2.560
28.68000 0.835
28.70000 2.014
28.72000 1.622
28.74000 1.173
28.76000 1.596
28.78000 2.787
28.80000 -0.830
28.82000 2.218
28.84000 0.656
28.86000 4.279
28.88000 2.749
28.90000 -2.596
28.92000 0.668
28.94000 1.787
28.96000 1.739
28.98000 0.346
29.00000 2.342
29.02000 0.122
29.04000 5.230
29.06000 4.545
29.08000 -0.732
29.10000 0.939
29.12000 5.479
29.14000 3.457
29.16000 1.980
29.18000 0.303
29.20000 -3.716
29.22000 -3.105
29.24000 -2.191
29.26000 2.095
29.28000 2.650
29.30000 3.929
29.32000 1.986
29.34000 4.325
29.36000 4.883
29.38000 7.877
29.40000 11.588
29.42000 4.082
29.44000 2.985
29.46000 0.703
29.48000 0.243
29.50000 -0.485
29.52000 0.272
29.54000 -0.060
29.56000 1.881
29.58000 5.495
29.60000 6.154
29.62000 7.507
29.64000 4.022
29.66000 1.405
29.68000 4.782
29.70000 0.474
29.72000 -2.153
29.74000 0.251
29.76000 4.599
29.78000 5.504
29.80000 0.832
29.82000 3.431
29.84000 3.405
29.86000 0.446
29.88000 0.141
29.90000 -2.057
29.92000 -0.243
29.94000 0.697
29.96000 3.861
29.98000 3.124
30.00000 3.127
30.02000 5.488
30.04000 6.343
30.06000 4.865
30.08000 9.429
30.10000 6.106
30.12000 4.937
30.14000 4.746
30.16000 2.506
30.18000 4.423
30.20000 3.951
30.22000 8.102
30.24000 1.842
30.26000 2.154
30.28000 2.876
30.30000 9.839
30.32000 9.499
30.34000 6.571
30.36000 6.932
30.38000 8.008
30.40000 7.463
30.42000 0.346
30.44000 -3.635
30.46000 -2.883
30.48000 0.574
30.50000 4.131
30.52000 1.329
30.54000 1.980
30.56000 5.785
30.58000 2.001
30.60000 1.108
30.62000 4.225
30.64000 -0.098
30.66000 -0.797
30.68000 3.994
30.70000 1.684
30.72000 5.681
30.74000 5.789
30.76000 4.198
30.78000 3.356
30.80000 1.793
30.82000 4.700
30.84000 4.674
30.86000 6.649
30.88000 2.606
30.90000 -3.086
30.92000 -0.385
30.94000 1.812
30.96000 0.738
30.98000 2.596
31.00000 4.272
31.02000 1.033
31.04000 6.918
31.06000 10.417
31.08000 7.529
31.10000 5.744
31.12000 7.475
31.14000 7.492
31.16000 7.480
31.18000 4.539
31.20000 5.109
31.22000 4.297
31.24000 5.803
31.26000 1.067
31.28000 -3.611
31.30000 -1.699
31.32000 1.998
31.34000 3.904
31.36000 0.049
31.38000 0.103
31.40000 -0.784
31.42000 -1.273
31.44000 5.032
31.46000 6.993
31.48000 4.071
31.50000 4.108
31.52000 3.344
31.54000 5.626
31.56000 7.622
31.58000 2.834
31.60000 1.950
31.62000 5.240
31.64000 3.454
31.66000 -1.095
31.68000 3.542
31.70000 4.104
31.72000 3.469
31.74000 2.084
31.76000 5.171
31.78000 3.092
31.80000 -3.596
31.82000 -0.846
31.84000 -1.861
31.86000 1.788
31.88000 2.336
31.90000 1.205
31.92000 -0.168
31.94000 5.463
31.96000 7.824
31.98000 3.158
32.00000 -1.237
32.02000 -0.003
32.04000 0.580
32.06000 6.986
32.08000 7.977
32.10000 1.896
32.12000 -2.221
32.14000 -0.417
32.16000 0.444
32.18000 -0.139
32.20000 3.201
32.22000 2.269
32.24000 1.276
32.26000 2.186
32.28000 3.302
32.30000 5.143
32.32000 2.385
32.34000 0.378
32.36000 4.392
32.38000 1.762
32.40000 -0.873
32.42000 2.164
32.44000 5.563
32.46000 4.507
32.48000 2.819
32.50000 -0.923
32.52000 -1.405
32.54000 5.004
32.56000 7.131
32.58000 2.392
32.60000 0.335
32.62000 -0.190
32.64000 -3.548
32.66000 -3.015
32.68000 -0.461
32.70000 3.086
32.72000 5.427
32.74000 6.127
32.76000 7.056
32.78000 9.274
32.80000 10.994
32.82000 8.989
32.84000 3.477
32.86000 -2.058
32.88000 1.454
32.90000 1.994
32.92000 8.509
32.94000 5.777
32.96000 -0.489
32.98000 5.078
33.00000 5.255
33.02000 2.028
33.04000 -3.531
33.06000 0.831
33.08000 3.837
33.10000 -1.457
33.12000 -2.079
33.14000 7.058
33.16000 3.554
33.18000 3.405
33.20000 6.690
33.22000 6.575
33.24000 6.404
33.26000 3.392
33.28000 5.180
33.30000 2.778
33.32000 6.470
33.34000 5.313
33.36000 5.465
33.38000 6.319
33.40000 10.912
33.42000 7.254
33.44000 5.229
33.46000 7.057
33.48000 5.279
33.50000 6.073
33.52000 4.433
33.54000 0.170
33.56000 1.195
33.58000 0.918
33.60000 3.893
33.62000 5.082
33.64000 2.543
33.66000 3.640
33.68000 1.437
33.70000 2.526
33.72000 8.733
33.74000 5.782
33.76000 4.982
33.78000 5.566
33.80000 4.255
33.82000 4.844
33.84000 6.088
33.86000 5.766
33.88000 7.536
33.90000 6.183
33.92000 0.357
33.94000 3.751
33.96000 6.715
33.98000 2.967
34.00000 3.685
34.02000 5.377
34.04000 6.475
34.06000 10.094
34.08000 4.736
34.10000 2.340
34.12000 4.015
34.14000 2.229
34.16000 2.653
34.18000 1.317
34.20000 4.378
34.22000 2.792
34.24000 3.063
34.26000 -2.050
34.28000 1.803
34.30000 3.645
34.32000 -0.444
34.34000 4.094
34.36000 5.473
34.38000 0.159
34.40000 -1.255
34.42000 3.176
34.44000 2.064
34.46000 -0.964
34.48000 0.052
34.50000 1.775
34.52000 2.051
34.54000 1.237
34.56000 4.434
34.58000 7.985
34.60000 7.554
34.62000 8.150
34.64000 3.142
34.66000 1.082
34.68000 5.406
34.70000 7.245
34.72000 4.269
34.74000 0.839
34.76000 0.663
34.78000 -3.479
34.80000 2.131
34.82000 3.147
34.84000 1.362
34.86000 0.870
34.88000 1.239
34.90000 6.381
34.92000 7.849
34.94000 10.410
34.96000 8.058
34.98000 6.818
35.00000 7.733
35.02000 6.509
35.04000 1.865
35.06000 5.219
35.08000 10.143
35.10000 8.303
35.12000 5.513
35.14000 5.757
35.16000 5.357
35.18000 3.259
35.20000 4.502
35.22000 6.057
35.24000 2.860
35.26000 2.622
35.28000 2.367
35.30000 1.740
35.32000 2.977
35.34000 0.360
35.36000 -0.339
35.38000 -1.405
35.40000 -1.384
35.42000 1.664
35.44000 0.693
35.46000 1.125
35.48000 2.636
35.50000 8.421
35.52000 7.034
35.54000 1.256
35.56000 3.627
35.58000 0.532
35.60000 -3.477
35.62000 0.428
35.64000 5.526
35.66000 7.088
35.68000 5.413
35.70000 2.461
35.72000 3.858
35.74000 2.692
35.76000 -0.295
35.78000 -1.838
35.80000 2.068
35.82000 5.852
35.84000 3.125
35.86000 5.969
35.88000 4.506
35.90000 0.846
35.92000 4.088
35.94000 6.217
35.96000 6.027
35.98000 2.502
36.00000 -3.467
36.02000 -2.181
36.04000 7.151
36.06000 3.654
36.08000 0.290
36.10000 3.602
36.12000 9.913
36.14000 3.655
36.16000 1.320
36.18000 1.625
36.20000 -2.037
36.22000 -1.303
36.24000 0.564
36.26000 1.332
36.28000 2.925
36.30000 1.088
36.32000 0.797
36.34000 3.623
36.36000 1.706
36.38000 4.327
36.40000 6.304
36.42000 4.297
36.44000 1.885
36.46000 5.843
36.48000 4.648
36.50000 5.822
36.52000 8.819
36.54000 1.633
36.56000 -3.482
36.58000 -0.765
36.60000 2.446
36.62000 2.645
36.64000 0.570
36.66000 1.588
36.68000 -2.151
36.70000 1.193
36.72000 1.831
36.74000 1.769
36.76000 1.307
36.78000 -0.923
36.80000 3.957
36.82000 10.232
36.84000 7.562
36.86000 5.891
36.88000 6.111
36.90000 3.491
36.92000 2.576
36.94000 2.733
36.96000 3.541
36.98000 8.413
37.00000 3.967
37.02000 -3.491
37.04000 -0.280
37.06000 -1.828
37.08000 0.991
37.10000 2.348
37.12000 5.745
37.14000 3.273
37.16000 1.110
37.18000 4.309
37.20000 -0.703
37.22000 5.269
37.24000 4.872
37.26000 -1.585
37.28000 -1.208
37.30000 6.050
37.32000 5.487
37.34000 4.385
37.36000 1.826
37.38000 -3.529
37.40000 2.560
37.42000 2.104
37.44000 -1.264
37.46000 -0.075
37.48000 2.653
37.50000 3.541
37.52000 2.800
37.54000 -0.784
37.56000 2.149
37.58000 -0.423
37.60000 -2.547
37.62000 -2.094
37.64000 -3.554
37.66000 -1.721
37.68000 1.806
37.70000 5.225
37.72000 -0.753
37.74000 2.438
37.76000 0.924
37.78000 0.061
37.80000 -0.534
37.82000 0.537
37.84000 2.393
37.86000 5.915
37.88000 5.826
37.90000 7.558
37.92000 2.256
37.94000 4.168
37.96000 5.900
37.98000 9.090
38.00000 6.585
38.02000 5.277
38.04000 2.877
38.06000 2.752
38.08000 3.106
38.10000 2.738
38.12000 6.363
38.14000 4.778
38.16000 9.819
38.18000 9.079
38.20000 11.882
38.22000 11.188
38.24000 8.855
38.26000 10.718
38.28000 11.284
38.30000 8.897
38.32000 7.449
38.34000 7.673
38.36000 10.363
38.38000 9.185
38.40000 12.623
38.42000 11.828
38.44000 11.452
38.46000 10.225
38.48000 9.882
38.50000 11.319
38.52000 9.815
38.54000 9.438
38.56000 7.739
38.58000 11.147
38.60000 11.215
38.62000 13.031
38.64000 13.487
38.66000 9.390
38.68000 9.376
38.70000 10.992
38.72000 16.551
38.74000 16.317
38.76000 18.410
38.78000 19.670
38.80000 20.223
38.82000 19.659
38.84000 16.735
38.86000 21.570
38.88000 22.157
38.90000 22.249
38.92000 18.706
38.94000 20.820
38.96000 24.750
38.98000 21.520
39.00000 24.522
39.02000 30.774
39.04000 29.510
39.06000 27.069
39.08000 29.685
39.10000 35.368
39.12000 35.738
39.14000 31.050
39.16000 29.784
39.18000 30.820
39.20000 35.713
39.22000 40.887
39.24000 38.329
39.26000 40.229
39.28000 39.250
39.30000 43.230
39.32000 46.491
39.34000 46.912
39.36000 54.812
39.38000 58.433
39.40000 60.057
39.42000 62.382
39.44000 63.647
39.46000 63.669
39.48000 65.142
39.50000 71.491
39.52000 75.781
39.54000 76.977
39.56000 82.167
39.58000 85.824
39.60000 92.572
39.62000 95.337
39.64000 96.471
39.66000 103.821
39.68000 111.839
39.70000 120.937
39.72000 132.196
39.74000 130.965
39.76000 136.949
39.78000 140.303
39.80000 156.645
39.82000 164.531
39.84000 163.714
39.86000 173.738
39.88000 190.215
39.90000 198.568
39.92000 213.681
39.94000 221.772
39.96000 238.536
39.98000 253.092
40.00000 260.555
40.02000 276.144
40.04000 290.312
40.06000 307.081
40.08000 326.716
40.10000 348.532
40.12000 362.290
40.14000 386.259
40.16000 393.514
40.18000 409.151
40.20000 427.976
40.22000 450.162
40.24000 473.422
40.26000 491.284
40.28000 509.882
40.30000 523.793
40.32000 544.853
40.34000 554.000
40.36000 578.258
40.38000 595.628
40.40000 618.553
40.42000 627.971
40.44000 621.500
40.46000 624.079
40.48000 627.215
40.50000 632.509
40.52000 642.887
40.54000 638.355
40.56000 628.678
40.58000 624.276
40.60000 612.783
40.62000 603.003
40.64000 590.663
40.66000 591.859
40.68000 572.443
40.70000 549.343
40.72000 518.649
40.74000 510.709
40.76000 504.185
40.78000 476.622
40.80000 460.904
40.82000 451.179
40.84000 434.002
40.86000 402.837
40.88000 379.550
40.90000 359.999
40.92000 347.600
40.94000 326.291
40.96000 313.914
40.98000 298.959
41.00000 281.719
41.02000 264.836
41.04000 248.624
41.06000 238.285
41.08000 232.870
41.10000 212.847
41.12000 198.386
41.14000 192.157
41.16000 179.800
41.18000 172.182
41.20000 165.444
41.22000 156.813
41.24000 143.634
41.26000 132.486
41.28000 129.178
41.30000 124.664
41.32000 114.971
41.34000 106.570
41.36000 100.886
41.38000 99.421
41.40000 93.885
41.42000 87.834
41.44000 84.856
41.46000 81.205
41.48000 77.459
41.50000 73.749
41.52000 65.005
41.54000 59.494
41.56000 57.990
41.58000 54.709
41.60000 54.311
41.62000 49.363
41.64000 44.047
41.66000 45.672
41.68000 47.301
41.70000 40.404
41.72000 35.650
41.74000 39.262
41.76000 38.889
41.78000 36.184
41.80000 39.665
41.82000 35.723
41.84000 31.091
41.86000 28.609
41.88000 20.451
41.90000 21.642
41.92000 23.666
41.94000 25.351
41.96000 21.456
41.98000 22.093
42.00000 16.045
42.02000 14.031
42.04000 18.821
42.06000 17.650
42.08000 18.372
42.10000 17.737
42.12000 16.982
42.14000 17.549
42.16000 14.444
42.18000 11.038
42.20000 12.789
42.22000 13.108
42.24000 8.646
42.26000 11.256
42.28000 9.684
42.30000 5.336
42.32000 5.132
42.34000 9.226
42.36000 7.339
42.38000 7.246
42.40000 6.123
42.42000 6.841
42.44000 8.873
42.46000 9.422
42.48000 7.347
42.50000 6.533
42.52000 3.718
42.54000 0.105
42.56000 2.621
42.58000 1.449
42.60000 2.923
42.62000 6.059
42.64000 1.295
42.66000 -0.145
42.68000 -1.757
42.70000 1.578
42.72000 4.751
42.74000 2.774
42.76000 1.233
42.78000 3.353
42.80000 3.160
42.82000 2.540
42.84000 4.833
42.86000 7.181
42.88000 5.230
42.90000 0.230
42.92000 0.616
42.94000 1.596
42.96000 -1.917
42.98000 1.446
43.00000 4.432
43.02000 4.179
43.04000 0.259
43.06000 0.463
43.08000 3.591
43.10000 3.778
43.12000 1.671
43.14000 2.220
43.16000 3.525
43.18000 0.181
43.20000 -0.784
43.22000 0.679
43.24000 1.381
43.26000 0.121
43.28000 0.630
43.30000 4.727
43.32000 6.494
43.34000 3.560
43.36000 -1.081
43.38000 -1.383
43.40000 -3.362
43.42000 -3.447
43.44000 1.865
43.46000 3.037
43.48000 4.829
43.50000 0.663
43.52000 0.373
43.54000 4.531
43.56000 2.194
43.58000 -2.718
43.60000 -2.438
43.62000 1.874
43.64000 4.072
43.66000 3.337
43.68000 1.458
43.70000 4.466
43.72000 1.613
43.74000 1.310
43.76000 -0.614
43.78000 2.342
43.80000 4.880
43.82000 3.416
43.84000 -0.143
43.86000 -0.889
43.88000 4.493
43.90000 7.274
43.92000 2.513
43.94000 3.662
43.96000 0.952
43.98000 0.134
44.00000 0.411
44.02000 -0.982
44.04000 1.354
44.06000 3.431
44.08000 4.787
44.10000 5.718
44.12000 6.308
44.14000 5.926
44.16000 4.923
44.18000 3.025
44.20000 -0.355
44.22000 -3.223
44.24000 -2.101
44.26000 1.266
44.28000 -3.406
44.30000 -1.699
44.32000 -3.069
44.34000 -1.970
44.36000 3.702
44.38000 4.012
44.40000 0.854
44.42000 4.332
44.44000 4.707
44.46000 2.654
44.48000 3.839
44.50000 3.213
44.52000 3.698
44.54000 2.207
44.56000 7.194
44.58000 5.098
44.60000 5.136
44.62000 3.938
44.64000 4.148
44.66000 3.646
44.68000 2.709
44.70000 -0.074
44.72000 2.468
44.74000 -0.074
44.76000 1.341
44.78000 3.541
44.80000 7.188
44.82000 0.116
44.84000 -1.221
44.86000 -0.213
44.88000 3.081
44.90000 4.542
44.92000 0.618
44.94000 -3.377
44.96000 2.672
44.98000 4.292
45.00000 9.773
45.02000 7.239
45.04000 8.851
45.06000 6.016
45.08000 3.521
45.10000 2.847
45.12000 0.415
45.14000 4.677
45.16000 5.665
45.18000 4.900
45.20000 2.780
45.22000 -0.854
45.24000 -1.193
45.26000 5.665
45.28000 7.467
45.30000 7.245
45.32000 4.676
45.34000 2.952
45.36000 3.821
45.38000 8.381
45.40000 3.466
45.42000 7.507
45.44000 5.291
45.46000 6.341
45.48000 5.610
45.50000 7.265
45.52000 8.124
45.54000 10.167
45.56000 11.196
45.58000 10.282
45.60000 9.039
45.62000 12.368
45.64000 17.502
45.66000 17.559
45.68000 10.376
45.70000 16.733
45.72000 15.011
45.74000 15.561
45.76000 18.786
45.78000 16.217
45.80000 16.995
45.82000 14.040
45.84000 13.870
45.86000 16.705
45.88000 15.411
45.90000 19.106
45.92000 20.038
45.94000 23.492
45.96000 26.682
45.98000 27.587
46.00000 18.877
46.02000 26.909
46.04000 27.531
46.06000 28.241
46.08000 30.114
46.10000 29.227
46.12000 31.409
46.14000 32.884
46.16000 36.727
46.18000 32.015
46.20000 34.001
46.22000 39.954
46.24000 40.843
46.26000 40.125
46.28000 33.287
46.30000 44.997
46.32000 44.014
46.34000 45.501
46.36000 46.388
46.38000 47.737
46.40000 47.663
46.42000 50.494
46.44000 50.436
46.46000 46.273
46.48000 52.314
46.50000 55.562
46.52000 63.219
46.54000 63.477
46.56000 60.969
46.58000 59.270
46.60000 63.786
46.62000 66.743
46.64000 61.632
46.66000 67.782
46.68000 76.636
46.70000 84.401
46.72000 82.737
46.74000 78.658
46.76000 84.174
46.78000 85.221
46.80000 83.116
46.82000 89.254
46.84000 87.512
46.86000 85.471
46.88000 91.301
46.90000 87.275
46.92000 87.568
46.94000 87.552
46.96000 96.460
46.98000 99.191
47.00000 102.109
47.02000 105.199
47.04000 103.589
47.06000 103.865
47.08000 98.648
47.10000 98.963
47.12000 100.257
47.14000 95.799
47.16000 98.628
47.18000 104.798
47.20000 109.113
47.22000 105.678
47.24000 100.262
47.26000 94.806
47.28000 93.490
47.30000 95.197
47.32000 93.332
47.34000 92.429
47.36000 87.522
47.38000 86.013
47.40000 90.154
47.42000 89.704
47.44000 86.991
47.46000 78.962
47.48000 75.805
47.50000 81.595
47.52000 84.236
47.54000 89.263
47.56000 83.487
47.58000 74.021
47.60000 70.849
47.62000 72.797
47.64000 68.894
47.66000 66.894
47.68000 64.865
47.70000 62.683
47.72000 58.092
47.74000 52.876
47.76000 58.207
47.78000 58.809
47.80000 48.004
47.82000 46.472
47.84000 46.518
47.86000 42.871
47.88000 44.031
47.90000 41.033
47.92000 38.824
47.94000 35.797
47.96000 38.061
47.98000 36.599
48.00000 31.840
48.02000 26.325
48.04000 32.389
48.06000 27.524
48.08000 28.163
48.10000 31.685
48.12000 26.994
48.14000 27.448
48.16000 24.836
48.18000 21.384
48.20000 23.061
48.22000 21.859
48.24000 17.901
48.26000 16.230
48.28000 19.508
48.30000 13.371
48.32000 11.078
48.34000 11.633
48.36000 14.512
48.38000 15.289
48.40000 12.162
48.42000 8.994
48.44000 7.464
48.46000 6.227
48.48000 9.366
48.50000 7.909
48.52000 6.946
48.54000 9.088
48.56000 12.285
48.58000 4.851
48.60000 8.082
48.62000 6.692
48.64000 11.272
48.66000 10.246
48.68000 3.132
48.70000 4.190
48.72000 7.788
48.74000 3.611
48.76000 1.402
48.78000 4.864
48.80000 5.778
48.82000 6.558
48.84000 2.811
48.86000 3.667
48.88000 4.346
48.90000 4.372
48.92000 5.909
48.94000 5.660
48.96000 6.049
48.98000 5.056
49.00000 -3.011
49.02000 0.893
49.04000 2.218
49.06000 5.899
49.08000 7.138
49.10000 5.270
49.12000 1.827
49.14000 8.096
49.16000 5.555
49.18000 6.119
49.20000 1.996
49.22000 -1.808
49.24000 -1.720
49.26000 1.341
49.28000 12.443
49.30000 7.213
49.32000 4.737
49.34000 4.699
49.36000 2.079
49.38000 -1.484
49.40000 -2.937
49.42000 2.193
49.44000 4.716
49.46000 5.509
49.48000 3.311
49.50000 3.987
49.52000 4.871
49.54000 -0.745
49.56000 1.497
49.58000 2.343
49.60000 8.677
49.62000 8.415
49.64000 6.530
49.66000 3.225
49.68000 4.579
49.70000 1.356
49.72000 4.034
49.74000 11.225
49.76000 9.322
49.78000 2.237
49.80000 -2.867
49.82000 0.163
49.84000 3.634
49.86000 3.803
49.88000 10.089
49.90000 7.096
49.92000 3.340
49.94000 3.982
49.96000 0.983
49.98000 5.530
50.00000 1.322
50.02000 5.592
50.04000 3.406
50.06000 1.133
50.08000 2.452
50.10000 1.851
50.12000 1.646
50.14000 0.227
50.16000 5.382
50.18000 6.839
50.20000 8.446
50.22000 4.412
50.24000 3.991
50.26000 1.611
50.28000 1.198
50.30000 1.891
50.32000 0.057
50.34000 -2.842
50.36000 0.525
50.38000 0.627
50.40000 5.178
50.42000 2.108
50.44000 2.808
50.46000 0.009
50.48000 1.938
50.50000 -0.456
50.52000 0.364
50.54000 3.044
50.56000 -2.180
50.58000 0.522
50.60000 5.848
50.62000 7.577
50.64000 0.858
50.66000 2.448
50.68000 4.417
50.70000 0.082
50.72000 0.747
50.74000 3.369
50.76000 6.528
50.78000 5.410
50.80000 2.989
50.82000 1.796
50.84000 -2.349
50.86000 -1.968
50.88000 2.358
50.90000 0.078
50.92000 -0.075
50.94000 2.751
50.96000 3.615
50.98000 2.196
51.00000 -0.659
51.02000 1.936
51.04000 3.275
51.06000 1.820
51.08000 0.890
51.10000 -0.362
51.12000 0.253
51.14000 1.564
51.16000 0.197
51.18000 0.254
51.20000 -0.503
51.22000 0.890
51.24000 0.346
51.26000 -1.965
51.28000 -1.485
51.30000 3.635
51.32000 2.189
51.34000 3.814
51.36000 0.760
51.38000 0.879
51.40000 1.652
51.42000 -1.907
51.44000 1.097
51.46000 2.123
51.48000 4.242
51.50000 4.043
51.52000 -1.613
51.54000 0.101
51.56000 3.860
51.58000 5.960
51.60000 5.408
51.62000 0.474
51.64000 0.545
51.66000 1.128
51.68000 2.268
51.70000 1.836
51.72000 0.409
51.74000 0.517
51.76000 1.269
51.78000 1.754
51.80000 0.714
51.82000 -1.536
51.84000 -2.627
51.86000 0.322
51.88000 1.166
51.90000 4.527
51.92000 4.286
51.94000 -1.917
51.96000 -1.002
51.98000 2.926
52.00000 3.602
52.02000 0.583
52.04000 -1.469
52.06000 -1.197
52.08000 0.711
52.10000 0.939
52.12000 -1.301
52.14000 0.026
52.16000 -1.613
52.18000 -0.861
52.20000 -2.778
52.22000 -2.379
52.24000 -1.190
52.26000 0.372
52.28000 2.420
52.30000 2.573
52.32000 1.391
52.34000 -1.303
52.36000 -2.770
52.38000 -0.397
52.40000 -1.143
52.42000 -0.480
52.44000 -2.304
52.46000 -0.211
52.48000 2.393
52.50000 2.302
52.52000 0.336
52.54000 1.519
52.56000 2.977
52.58000 1.636
52.60000 2.084
52.62000 5.242
52.64000 4.375
52.66000 -1.173
52.68000 1.991
52.70000 2.655
52.72000 3.318
52.74000 1.457
52.76000 -2.518
52.78000 -0.119
52.80000 1.010
52.82000 1.144
52.84000 3.411
52.86000 4.535
52.88000 0.651
52.90000 -0.649
52.92000 1.867
52.94000 4.136
52.96000 3.883
52.98000 3.423
53.00000 2.505
53.02000 -1.797
53.04000 -0.474
53.06000 -0.206
53.08000 3.164
53.10000 3.350
53.12000 3.337
53.14000 3.051
53.16000 3.831
53.18000 -0.903
53.20000 0.540
53.22000 1.287
53.24000 -0.546
53.26000 -0.228
53.28000 2.073
53.30000 0.511
53.32000 -0.131
53.34000 -1.250
53.36000 0.385
53.38000 2.392
53.40000 2.696
53.42000 -0.435
53.44000 3.263
53.46000 4.136
53.48000 2.833
53.50000 -1.820
53.52000 -1.369
53.54000 -1.052
53.56000 0.281
53.58000 -0.749
53.60000 -2.187
53.62000 0.065
53.64000 -2.139
53.66000 -1.907
53.68000 1.047
53.70000 3.346
53.72000 2.158
53.74000 1.147
53.76000 0.581
53.78000 3.778
53.80000 3.425
53.82000 0.823
53.84000 1.635
53.86000 2.843
53.88000 5.368
53.90000 4.979
53.92000 0.934
53.94000 -1.573
53.96000 3.372
53.98000 6.246
54.00000 5.764
54.02000 -1.768
54.04000 -2.221
54.06000 2.581
54.08000 0.362
54.10000 3.470
54.12000 1.315
54.14000 3.325
54.16000 5.329
54.18000 5.554
54.20000 7.410
54.22000 3.447
54.24000 1.030
54.26000 0.636
54.28000 1.739
54.30000 -0.024
54.32000 1.634
54.34000 6.385
54.36000 7.386
54.38000 0.547
54.40000 2.170
54.42000 4.941
54.44000 -0.330
54.46000 2.119
54.48000 1.399
54.50000 4.175
54.52000 2.219
54.54000 -2.663
54.56000 2.575
54.58000 3.513
54.60000 6.331
54.62000 4.837
54.64000 2.285
54.66000 -2.409
54.68000 2.417
54.70000 7.713
54.72000 3.402
54.74000 1.322
54.76000 2.056
54.78000 2.715
54.80000 2.200
54.82000 1.864
54.84000 -0.045
54.86000 0.720
54.88000 3.174
54.90000 2.904
54.92000 2.334
54.94000 3.250
54.96000 6.204
54.98000 5.385
55.00000 4.955
55.02000 6.964
55.04000 4.958
55.06000 7.245
55.08000 8.237
55.10000 5.311
55.12000 2.706
55.14000 -1.231
55.16000 4.781
55.18000 7.677
55.20000 6.530
55.22000 0.731
55.24000 1.065
55.26000 1.642
55.28000 1.692
55.30000 6.753
55.32000 7.309
55.34000 2.414
55.36000 1.807
55.38000 6.631
55.40000 5.081
55.42000 2.967
55.44000 6.417
55.46000 5.961
55.48000 2.647
55.50000 0.698
55.52000 -0.067
55.54000 -2.651
55.56000 0.213
55.58000 3.313
55.60000 2.673
55.62000 3.693
55.64000 4.020
55.66000 4.399
55.68000 6.564
55.70000 5.476
55.72000 4.007
55.74000 1.424
55.76000 4.480
55.78000 1.195
55.80000 2.036
55.82000 1.516
55.84000 2.764
55.86000 5.244
55.88000 7.670
55.90000 7.443
55.92000 3.922
55.94000 4.917
55.96000 6.249
55.98000 2.245
56.00000 3.221
56.02000 4.478
56.04000 5.206
56.06000 1.826
56.08000 1.433
56.10000 4.280
56.12000 4.237
56.14000 -2.641
56.16000 -1.081
56.18000 -1.362
56.20000 -0.093
56.22000 1.631
56.24000 4.198
56.26000 5.524
56.28000 1.962
56.30000 1.523
56.32000 4.075
56.34000 3.470
56.36000 1.641
56.38000 6.861
56.40000 2.932
56.42000 2.345
56.44000 -0.946
56.46000 3.678
56.48000 -2.059
56.50000 -0.870
56.52000 2.810
56.54000 2.897
56.56000 1.071
56.58000 3.953
56.60000 -1.213
56.62000 3.022
56.64000 6.069
56.66000 4.126
56.68000 -2.614
56.70000 1.385
56.72000 5.485
56.74000 2.735
56.76000 0.592
56.78000 2.855
56.80000 3.016
56.82000 1.219
56.84000 1.199
56.86000 2.199
56.88000 1.343
56.90000 2.397
56.92000 1.954
56.94000 4.122
56.96000 9.124
56.98000 8.126
57.00000 9.664
57.02000 4.771
57.04000 1.122
57.06000 2.636
57.08000 2.145
57.10000 -0.725
57.12000 3.918
57.14000 0.979
57.16000 0.133
57.18000 3.748
57.20000 1.679
57.22000 6.189
57.24000 7.074
57.26000 2.523
57.28000 -0.302
57.30000 2.204
57.32000 2.383
57.34000 -0.740
57.36000 1.284
57.38000 2.330
57.40000 0.274
57.42000 3.772
57.44000 3.692
57.46000 0.065
57.48000 2.223
57.50000 4.640
57.52000 3.675
57.54000 -0.430
57.56000 3.913
57.58000 4.514
57.60000 3.927
57.62000 4.302
57.64000 3.090
57.66000 2.246
57.68000 2.111
57.70000 1.101
57.72000 2.416
57.74000 5.519
57.76000 3.807
57.78000 1.194
57.80000 -1.112
57.82000 -2.573
57.84000 -1.684
57.86000 1.467
57.88000 4.985
57.90000 5.031
57.92000 4.165
57.94000 4.477
57.96000 8.341
57.98000 3.734
58.00000 3.586
58.02000 5.542
58.04000 5.481
58.06000 0.834
58.08000 -2.119
58.10000 3.262
58.12000 1.763
58.14000 2.155
58.16000 -2.194
58.18000 2.998
58.20000 -1.223
58.22000 0.899
58.24000 -1.629
58.26000 3.162
58.28000 5.112
58.30000 4.853
58.32000 4.756
58.34000 0.206
58.36000 0.654
58.38000 2.173
58.40000 5.398
58.42000 4.539
58.44000 3.546
58.46000 7.399
58.48000 5.038
58.50000 1.512
58.52000 1.045
58.54000 1.621
58.56000 2.861
58.58000 5.915
58.60000 -0.198
58.62000 4.937
58.64000 3.540
58.66000 1.065
58.68000 3.641
58.70000 1.764
58.72000 6.158
58.74000 7.779
58.76000 8.621
58.78000 3.203
58.80000 2.849
58.82000 3.483
58.84000 0.876
58.86000 -1.330
58.88000 -2.538
58.90000 -0.497
58.92000 4.456
58.94000 7.425
58.96000 3.414
58.98000 -0.230
59.00000 2.413
59.02000 -0.061
59.04000 6.893
59.06000 3.758
59.08000 -0.423
59.10000 -0.123
59.12000 5.118
59.14000 3.092
59.16000 0.222
59.18000 1.153
59.20000 0.035
59.22000 -2.528
59.24000 -0.099
59.26000 2.065
59.28000 1.845
59.30000 5.577
59.32000 5.615
59.34000 3.971
59.36000 0.992
59.38000 2.955
59.40000 2.708
59.42000 1.220
59.44000 -0.822
59.46000 -0.744
59.48000 4.480
59.50000 7.116
59.52000 0.825
59.54000 0.300
59.56000 2.049
59.58000 2.775
59.60000 8.097
59.62000 6.569
59.64000 2.870
59.66000 -1.095
59.68000 0.716
59.70000 3.036
59.72000 6.725
59.74000 4.666
59.76000 6.112
59.78000 3.558
59.80000 5.702
59.82000 4.214
59.84000 4.911
59.86000 1.288
59.88000 2.082
59.90000 5.387
59.92000 2.129
59.94000 4.250
59.96000 2.695
59.98000 0.031
60.00000 3.696
60.02000 -0.656
60.04000 -2.506
60.06000 2.108
60.08000 3.836
60.10000 1.126
60.12000 -1.076
60.14000 3.568
60.16000 5.847
60.18000 2.497
60.20000 1.611
60.22000 1.236
60.24000 -1.132
60.26000 1.104
60.28000 2.077
60.30000 2.826
60.32000 4.420
60.34000 2.734
60.36000 1.764
60.38000 1.380
60.40000 2.347
60.42000 2.869
60.44000 -2.330
60.46000 -1.327
60.48000 0.866
60.50000 0.740
60.52000 -0.592
60.54000 -0.258
60.56000 2.948
60.58000 1.575
60.60000 1.341
60.62000 -0.309
60.64000 0.741
60.66000 0.712
60.68000 7.306
60.70000 5.146
60.72000 1.171
60.74000 0.414
60.76000 -2.480
60.78000 2.191
60.80000 4.875
60.82000 3.986
60.84000 2.541
60.86000 5.649
60.88000 6.584
60.90000 5.891
60.92000 2.766
60.94000 1.157
60.96000 1.001
60.98000 2.536
61.00000 3.923
61.02000 6.307
61.04000 5.605
61.06000 7.773
61.08000 3.207
61.10000 2.894
61.12000 4.366
61.14000 1.670
61.16000 1.665
61.18000 7.027
61.20000 3.258
61.22000 2.395
61.24000 3.031
61.26000 2.447
61.28000 3.639
61.30000 2.466
61.32000 3.206
61.34000 1.169
61.36000 -0.121
61.38000 -0.138
61.40000 -1.223
61.42000 -1.955
61.44000 2.586
61.46000 5.237
61.48000 2.364
61.50000 0.168
61.52000 0.666
61.54000 2.947
61.56000 1.001
61.58000 2.459
61.60000 -1.500
61.62000 3.025
61.64000 4.441
61.66000 4.868
61.68000 2.815
61.70000 1.224
61.72000 -0.552
61.74000 3.520
61.76000 3.817
61.78000 4.258
61.80000 7.564
61.82000 5.455
61.84000 4.918
61.86000 1.412
61.88000 0.659
61.90000 -0.501
61.92000 -2.418
61.94000 -2.042
61.96000 4.833
61.98000 -0.613
62.00000 5.563
62.02000 2.957
62.04000 4.360
62.06000 7.246
62.08000 7.162
62.10000 1.712
62.12000 4.033
62.14000 8.423
62.16000 8.945
62.18000 5.242
62.20000 6.654
62.22000 4.549
62.24000 2.169
62.26000 0.578
62.28000 -0.225
62.30000 4.259
62.32000 4.477
62.34000 6.787
62.36000 4.874
62.38000 6.632
62.40000 6.339
62.42000 5.933
62.44000 3.355
62.46000 1.859
62.48000 3.356
62.50000 3.603
62.52000 2.174
62.54000 -0.942
62.56000 -0.213
62.58000 0.775
62.60000 2.230
62.62000 2.485
62.64000 6.145
62.66000 3.424
62.68000 5.193
62.70000 -0.308
62.72000 -2.417
62.74000 0.689
62.76000 3.227
62.78000 3.399
62.80000 -0.840
62.82000 2.501
62.84000 -0.089
62.86000 0.093
62.88000 1.512
62.90000 -1.101
62.92000 0.150
62.94000 -0.833
62.96000 -1.931
62.98000 1.325
63.00000 -1.547
63.02000 0.139
63.04000 -0.724
63.06000 1.251
63.08000 -1.583
63.10000 1.628
63.12000 0.960
63.14000 1.228
63.16000 -0.449
63.18000 4.413
63.20000 3.557
63.22000 -0.140
63.24000 0.493
63.26000 3.950
63.28000 4.123
63.30000 -2.448
63.32000 -0.755
63.34000 1.080
63.36000 0.582
63.38000 -0.266
63.40000 3.494
63.42000 4.374
63.44000 1.709
63.46000 -0.036
63.48000 3.788
63.50000 2.666
63.52000 -0.876
63.54000 0.970
63.56000 1.166
63.58000 -1.279
63.60000 2.207
63.62000 2.692
63.64000 -0.875
63.66000 -1.789
63.68000 -2.292
63.70000 -0.027
63.72000 0.781
63.74000 2.617
63.76000 1.708
63.78000 -0.497
63.80000 1.805
63.82000 0.779
63.84000 -0.824
63.86000 2.262
63.88000 0.865
63.90000 -0.818
63.92000 -2.217
63.94000 0.143
63.96000 0.794
63.98000 -1.718
64.00000 -0.272
64.02000 2.730
64.04000 1.117
64.06000 2.548
64.08000 -0.355
64.10000 1.349
64.12000 2.294
64.14000 1.435
64.16000 -1.225
64.18000 -1.734
64.20000 -0.979
64.22000 -1.542
64.24000 0.629
64.26000 0.445
64.28000 -0.959
64.30000 0.657
64.32000 0.339
64.34000 -1.467
64.36000 -2.094
64.38000 -1.290
64.40000 0.049
64.42000 1.917
64.44000 -2.004
64.46000 1.828
64.48000 -0.638
64.50000 -0.278
64.52000 4.796
64.54000 -2.462
64.56000 -2.054
64.58000 -0.886
64.60000 -0.138
64.62000 0.885
64.64000 -0.543
64.66000 -1.821
64.68000 0.455
64.70000 2.965
64.72000 3.988
64.74000 1.168
64.76000 2.414
64.78000 2.326
64.80000 -0.971
64.82000 -0.888
64.84000 0.086
64.86000 1.688
64.88000 0.355
64.90000 2.051
64.92000 -1.794
64.94000 -2.162
64.96000 2.379
64.98000 2.762
65.00000 -2.463
65.02000 -1.890
65.04000 -1.141
65.06000 0.420
65.08000 1.229
65.10000 2.499
65.12000 1.713
65.14000 2.025
65.16000 0.500
65.18000 2.372
65.20000 1.137
65.22000 1.940
65.24000 1.664
65.26000 0.840
65.28000 3.887
65.30000 3.279
65.32000 3.191
65.34000 0.244
65.36000 1.523
65.38000 -0.007
65.40000 -1.098
65.42000 2.930
65.44000 1.238
65.46000 1.306
65.48000 2.678
65.50000 4.958
65.52000 3.863
65.54000 -1.053
65.56000 0.759
65.58000 2.182
65.60000 1.867
65.62000 1.064
65.64000 -1.767
65.66000 0.541
65.68000 3.156
65.70000 0.537
65.72000 2.936
65.74000 1.099
65.76000 -1.445
65.78000 2.172
65.80000 1.923
65.82000 1.493
65.84000 -1.176
65.86000 0.892
65.88000 -0.036
65.90000 -0.388
65.92000 2.722
65.94000 1.812
65.96000 2.387
65.98000 1.337
66.00000 -0.996
66.02000 0.370
66.04000 2.911
66.06000 2.480
66.08000 2.380
66.10000 1.148
66.12000 0.405
66.14000 2.485
66.16000 3.936
66.18000 0.096
66.20000 -0.869
66.22000 1.305
66.24000 2.005
66.26000 0.799
66.28000 -2.444
66.30000 -1.733
66.32000 4.809
66.34000 6.078
66.36000 3.243
66.38000 6.231
66.40000 6.136
66.42000 6.468
66.44000 5.522
66.46000 4.632
66.48000 3.286
66.50000 2.508
66.52000 0.621
66.54000 0.465
66.56000 0.167
66.58000 1.000
66.60000 0.768
66.62000 0.360
66.64000 -1.067
66.66000 -2.468
66.68000 -1.540
66.70000 1.632
66.72000 -0.156
66.74000 0.341
66.76000 3.031
66.78000 3.166
66.80000 3.726
66.82000 1.432
66.84000 4.380
66.86000 -0.391
66.88000 -0.836
66.90000 -0.141
66.92000 2.001
66.94000 2.260
66.96000 -0.753
66.98000 -0.752
67.00000 1.918
67.02000 4.363
67.04000 6.007
67.06000 5.291
67.08000 0.876
67.10000 2.684
67.12000 2.500
67.14000 0.722
67.16000 -0.303
67.18000 -0.532
67.20000 -0.555
67.22000 0.953
67.24000 5.080
67.26000 4.243
67.28000 3.352
67.30000 3.998
67.32000 4.550
67.34000 4.119
67.36000 0.728
67.38000 -0.627
67.40000 -0.420
67.42000 0.480
67.44000 2.365
67.46000 1.673
67.48000 3.095
67.50000 1.217
67.52000 -0.602
67.54000 -2.518
67.56000 -1.552
67.58000 1.312
67.60000 4.798
67.62000 2.258
67.64000 1.135
67.66000 4.243
67.68000 7.240
67.70000 4.466
67.72000 1.062
67.74000 3.239
67.76000 5.120
67.78000 7.102
67.80000 2.967
67.82000 5.727
67.84000 7.151
67.86000 4.698
67.88000 2.952
67.90000 3.770
67.92000 5.292
67.94000 7.091
67.96000 6.300
67.98000 4.866
68.00000 4.885
68.02000 6.163
68.04000 3.784
68.06000 6.099
68.08000 9.142
68.10000 9.266
68.12000 7.001
68.14000 8.244
68.16000 10.508
68.18000 10.593
68.20000 6.983
68.22000 10.624
68.24000 12.264
68.26000 9.584
68.28000 11.918
68.30000 15.244
68.32000 15.566
68.34000 13.645
68.36000 13.368
68.38000 7.667
68.40000 11.094
68.42000 15.312
68.44000 15.578
68.46000 15.240
68.48000 16.690
68.50000 16.981
68.52000 16.414
68.54000 16.305
68.56000 16.209
68.58000 15.166
68.60000 14.977
68.62000 15.965
68.64000 17.406
68.66000 18.846
68.68000 20.214
68.70000 16.226
68.72000 16.344
68.74000 14.271
68.76000 13.798
68.78000 14.664
68.80000 12.880
68.82000 14.082
68.84000 21.381
68.86000 20.682
68.88000 20.024
68.90000 20.181
68.92000 21.193
68.94000 20.003
68.96000 18.218
68.98000 19.379
69.00000 17.776
69.02000 18.312
69.04000 13.212
69.06000 16.016
69.08000 17.081
69.10000 17.447
69.12000 15.349
69.14000 12.847
69.16000 17.099
69.18000 19.025
69.20000 16.686
69.22000 13.336
69.24000 17.066
69.26000 16.493
69.28000 10.781
69.30000 8.268
69.32000 9.267
69.34000 12.797
69.36000 11.528
69.38000 9.470
69.40000 9.802
69.42000 7.671
69.44000 11.043
69.46000 10.437
69.48000 11.372
69.50000 11.356
69.52000 8.374
69.54000 4.592
69.56000 6.434
69.58000 5.652
69.60000 5.441
69.62000 6.884
69.64000 7.530
69.66000 6.935
69.68000 5.013
69.70000 6.727
69.72000 6.041
69.74000 8.354
69.76000 8.971
69.78000 6.481
69.80000 5.357
69.82000 7.289
69.84000 6.608
69.86000 4.672
69.88000 5.601
69.90000 1.830
69.92000 1.224
69.94000 2.221
69.96000 7.468
69.98000 6.831
70.00000 5.218
70.02000 2.405
70.04000 3.666
70.06000 1.834
70.08000 -2.415
70.10000 3.186
70.12000 1.864
70.14000 3.466
70.16000 1.318
70.18000 1.111
70.20000 1.001
70.22000 0.941
70.24000 1.580
70.26000 1.801
70.28000 2.057
70.30000 -1.472
70.32000 -0.735
70.34000 -0.145
70.36000 2.337
70.38000 2.175
70.40000 0.138
70.42000 1.268
70.44000 1.323
70.46000 1.157
70.48000 -0.469
70.50000 -0.876
70.52000 2.725
70.54000 1.523
70.56000 -1.778
70.58000 0.252
70.60000 3.614
70.62000 2.947
70.64000 1.241
70.66000 0.481
70.68000 1.739
70.70000 0.899
70.72000 1.066
70.74000 2.695
70.76000 3.976
70.78000 1.567
70.80000 1.474
70.82000 5.224
70.84000 2.561
70.86000 3.323
70.88000 0.911
70.90000 -2.368
70.92000 0.971
70.94000 3.215
70.96000 0.383
70.98000 0.645
71.00000 2.852
71.02000 2.013
71.04000 3.650
71.06000 1.625
71.08000 -0.424
71.10000 -1.665
71.12000 -2.349
71.14000 3.123
71.16000 0.838
71.18000 2.443
71.20000 5.869
71.22000 3.207
71.24000 2.961
71.26000 3.392
71.28000 6.225
71.30000 4.867
71.32000 0.663
71.34000 0.234
71.36000 1.769
71.38000 2.919
71.40000 6.959
71.42000 3.093
71.44000 -0.169
71.46000 3.546
71.48000 7.157
71.50000 3.547
71.52000 0.324
71.54000 3.660
71.56000 2.302
71.58000 0.759
71.60000 -0.509
71.62000 0.688
71.64000 -1.034
71.66000 0.008
71.68000 -0.289
71.70000 -1.100
71.72000 0.047
71.74000 1.311
71.76000 -0.028
71.78000 -1.042
71.80000 -0.671
71.82000 -0.900
71.84000 -0.040
71.86000 0.471
71.88000 1.771
71.90000 -0.090
71.92000 -0.159
71.94000 2.056
71.96000 1.142
71.98000 -2.337
72.00000 0.114
72.02000 1.893
72.04000 5.710
72.06000 5.968
72.08000 2.622
72.10000 4.589
72.12000 4.803
72.14000 2.579
72.16000 0.113
72.18000 -0.863
72.20000 0.667
72.22000 -0.258
72.24000 2.520
72.26000 1.406
72.28000 1.704
72.30000 0.486
72.32000 1.629
72.34000 2.557
72.36000 3.191
72.38000 5.355
72.40000 2.053
72.42000 2.168
72.44000 2.697
72.46000 1.685
72.48000 0.198
72.50000 -1.071
72.52000 5.465
72.54000 3.628
72.56000 5.032
72.58000 6.590
72.60000 7.339
72.62000 3.498
72.64000 3.464
72.66000 4.559
72.68000 2.500
72.70000 4.807
72.72000 3.480
72.74000 -0.627
72.76000 -1.034
72.78000 -0.430
72.80000 -0.712
72.82000 -1.569
72.84000 0.237
72.86000 2.832
72.88000 3.017
72.90000 1.753
72.92000 0.691
72.94000 2.646
72.96000 1.641
72.98000 2.415
73.00000 -2.276
73.02000 0.161
73.04000 0.655
73.06000 0.881
73.08000 2.023
73.10000 1.437
73.12000 2.611
73.14000 0.612
73.16000 1.387
73.18000 2.392
73.20000 4.406
73.22000 5.025
73.24000 4.769
73.26000 2.072
73.28000 1.084
73.30000 1.758
73.32000 1.034
73.34000 -0.920
73.36000 0.374
73.38000 2.403
73.40000 0.271
73.42000 2.534
73.44000 0.298
73.46000 -0.470
73.48000 5.270
73.50000 7.778
73.52000 4.492
73.54000 1.015
73.56000 3.612
73.58000 5.219
73.60000 3.781
73.62000 4.238
73.64000 4.122
73.66000 3.755
73.68000 3.175
73.70000 1.469
73.72000 1.312
73.74000 2.203
73.76000 0.076
73.78000 3.396
73.80000 3.293
73.82000 3.914
73.84000 4.867
73.86000 3.970
73.88000 -0.039
73.90000 2.518
73.92000 4.704
73.94000 2.409
73.96000 2.727
73.98000 1.876
74.00000 -0.202
74.02000 -2.256
74.04000 1.242
74.06000 -0.556
74.08000 1.535
74.10000 2.953
74.12000 1.700
74.14000 3.139
74.16000 2.957
74.18000 2.845
74.20000 3.869
74.22000 2.335
74.24000 3.243
74.26000 3.313
74.28000 3.487
74.30000 1.247
74.32000 -0.104
74.34000 2.173
74.36000 2.429
74.38000 2.959
74.40000 0.732
74.42000 0.976
74.44000 1.981
74.46000 -2.003
74.48000 -0.423
74.50000 3.584
74.52000 4.056
74.54000 3.518
74.56000 5.059
74.58000 2.959
74.60000 1.171
74.62000 3.775
74.64000 4.063
74.66000 3.545
74.68000 1.014
74.70000 5.113
74.72000 3.252
74.74000 1.119
74.76000 5.430
74.78000 3.275
74.80000 4.974
74.82000 8.415
74.84000 4.951
74.86000 2.933
74.88000 1.285
74.90000 5.021
74.92000 8.753
74.94000 7.823
74.96000 6.193
74.98000 6.305
75.00000 4.731
75.02000 1.317
75.04000 -0.453
75.06000 -2.234
75.08000 -2.042
75.10000 0.265
75.12000 2.207
75.14000 6.240
75.16000 3.563
75.18000 1.566
75.20000 5.245
75.22000 4.579
75.24000 -0.678
75.26000 4.163
75.28000 3.925
75.30000 3.796
75.32000 7.779
75.34000 4.640
75.36000 -1.109
75.38000 1.094
75.40000 0.441
75.42000 3.501
75.44000 2.196
75.46000 -0.625
75.48000 4.027
75.50000 5.106
75.52000 2.394
75.54000 2.759
75.56000 1.776
75.58000 3.795
75.60000 0.277
75.62000 0.490
75.64000 2.594
75.66000 4.792
75.68000 5.407
75.70000 5.367
75.72000 2.512
75.74000 2.239
75.76000 3.971
75.78000 3.174
75.80000 4.005
75.82000 -0.467
75.84000 1.362
75.86000 0.904
75.88000 0.997
75.90000 1.820
75.92000 3.080
75.94000 3.967
75.96000 0.744
75.98000 -0.399
76.00000 0.432
76.02000 -2.273
76.04000 0.895
76.06000 0.929
76.08000 -0.405
76.10000 1.001
76.12000 4.260
76.14000 3.750
76.16000 1.408
76.18000 -0.351
76.20000 2.088
76.22000 2.772
76.24000 4.358
76.26000 6.480
76.28000 1.590
76.30000 -2.279
76.32000 0.560
76.34000 1.463
76.36000 1.630
76.38000 3.826
76.40000 1.208
76.42000 3.272
76.44000 -0.552
76.46000 0.604
76.48000 1.797
76.50000 1.226
76.52000 2.693
76.54000 1.389
76.56000 0.665
76.58000 2.958
76.60000 1.174
76.62000 3.613
76.64000 4.682
76.66000 4.414
76.68000 6.554
76.70000 4.969
76.72000 0.582
76.74000 3.224
76.76000 5.395
76.78000 4.879
76.80000 5.933
76.82000 0.197
76.84000 1.323
76.86000 4.913
76.88000 0.177
76.90000 -0.357
76.92000 1.328
76.94000 3.715
76.96000 2.445
76.98000 1.836
77.00000 5.180
77.02000 6.744
77.04000 1.823
77.06000 4.202
77.08000 2.234
77.10000 -0.198
77.12000 -0.041
77.14000 5.186
77.16000 7.038
77.18000 2.915
77.20000 4.548
77.22000 6.105
77.24000 2.667
77.26000 -0.535
77.28000 3.430
77.30000 3.923
77.32000 6.853
77.34000 4.927
77.36000 9.453
77.38000 7.324
77.40000 3.946
77.42000 5.129
77.44000 6.991
77.46000 -1.546
77.48000 -0.516
77.50000 0.698
77.52000 1.220
77.54000 1.989
77.56000 0.543
77.58000 5.025
77.60000 3.849
77.62000 1.171
77.64000 -2.260
77.66000 2.021
77.68000 2.913
77.70000 0.817
77.72000 -1.420
77.74000 3.066
77.76000 1.597
77.78000 3.673
77.80000 4.834
77.82000 2.786
77.84000 1.009
77.86000 1.261
77.88000 1.104
77.90000 2.217
77.92000 1.279
77.94000 2.895
77.96000 -1.505
77.98000 0.848
78.00000 1.183
78.02000 -1.857
78.04000 1.986
78.06000 0.550
78.08000 -1.145
78.10000 2.288
78.12000 0.847
78.14000 -1.652
78.16000 3.957
78.18000 6.221
78.20000 6.697
78.22000 3.409
78.24000 5.271
78.26000 5.682
78.28000 0.306
78.30000 -2.301
78.32000 0.184
78.34000 -1.160
78.36000 -0.490
78.38000 3.137
78.40000 -1.286
78.42000 -1.425
78.44000 -2.315
78.46000 0.887
78.48000 2.629
78.50000 6.461
78.52000 7.420
78.54000 4.124
78.56000 1.424
78.58000 0.719
78.60000 2.935
78.62000 4.439
78.64000 2.383
78.66000 -0.269
78.68000 1.266
78.70000 4.429
78.72000 2.969
78.74000 0.999
78.76000 4.129
78.78000 2.397
78.80000 2.021
78.82000 0.317
78.84000 1.350
78.86000 1.078
78.88000 -0.869
78.90000 0.395
78.92000 -0.649
78.94000 3.821
78.96000 7.069
78.98000 3.691
79.00000 1.601
79.02000 3.220
79.04000 0.667
79.06000 -1.651
79.08000 3.569
79.10000 4.986
79.12000 3.021
79.14000 1.191
79.16000 1.085
79.18000 -2.308
79.20000 -2.255
79.22000 3.662
79.24000 4.924
79.26000 3.881
79.28000 0.764
79.30000 -2.015
79.32000 1.099
79.34000 1.824
79.36000 0.953
79.38000 2.660
79.40000 5.294
79.42000 -0.258
79.44000 2.208
79.46000 2.936
79.48000 -1.108
79.50000 1.958
79.52000 0.022
79.54000 1.527
79.56000 3.580
79.58000 0.068
79.60000 -1.523
79.62000 1.441
79.64000 -2.326
79.66000 -1.334
79.68000 2.409
79.70000 1.788
79.72000 3.774
79.74000 1.862
79.76000 1.974
79.78000 1.283
79.80000 3.113
79.82000 4.327
79.84000 2.635
79.86000 -0.016
79.88000 0.980
79.90000 2.634
79.92000 0.485
79.94000 2.793
79.96000 2.952
79.98000 3.013
80.00000 5.289
80.02000 2.777
80.04000 0.303
80.06000 -0.809
80.08000 -2.363
80.10000 -0.295
80.12000 0.468
80.14000 1.070
80.16000 -0.813
80.18000 6.914
80.20000 7.803
80.22000 6.112
80.24000 3.731
80.26000 2.138
80.28000 1.747
80.30000 3.019
80.32000 5.979
80.34000 4.904
80.36000 2.738
80.38000 4.500
80.40000 5.047
80.42000 0.700
80.44000 -2.285
80.46000 1.302
80.48000 -2.051
80.50000 -1.623
80.52000 3.659
80.54000 6.339
80.56000 3.042
80.58000 1.222
80.60000 2.213
80.62000 5.858
80.64000 1.194
80.66000 -2.391
80.68000 1.543
80.70000 0.890
80.72000 4.419
80.74000 0.488
80.76000 0.683
80.78000 1.496
80.80000 0.174
80.82000 -0.340
80.84000 0.023
80.86000 3.733
80.88000 5.215
80.90000 3.368
80.92000 6.242
80.94000 2.517
80.96000 0.626
80.98000 4.430
81.00000 5.673
81.02000 3.540
81.04000 1.626
81.06000 -0.456
81.08000 1.721
81.10000 0.910
81.12000 2.001
81.14000 2.157
81.16000 3.386
81.18000 3.346
81.20000 0.360
81.22000 -2.430
81.24000 0.782
81.26000 2.897
81.28000 7.840
81.30000 8.173
81.32000 5.200
81.34000 2.068
81.36000 5.356
81.38000 4.404
81.40000 3.279
81.42000 3.372
81.44000 5.324
81.46000 2.541
81.48000 2.290
81.50000 2.800
81.52000 1.327
81.54000 6.772
81.56000 5.859
81.58000 7.092
81.60000 8.377
81.62000 9.321
81.64000 6.850
81.66000 8.466
81.68000 7.485
81.70000 6.699
81.72000 2.955
81.74000 6.218
81.76000 6.209
81.78000 3.797
81.80000 7.425
81.82000 6.404
81.84000 10.504
81.86000 11.746
81.88000 6.463
81.90000 9.880
81.92000 4.588
81.94000 4.004
81.96000 6.140
81.98000 7.082
82.00000 11.587
82.02000 13.203
82.04000 11.974
82.06000 9.445
82.08000 13.077
82.10000 13.016
82.12000 9.067
82.14000 10.041
82.16000 15.757
82.18000 13.762
82.20000 8.833
82.22000 8.402
82.24000 14.058
82.26000 21.297
82.28000 14.812
82.30000 12.437
82.32000 11.948
82.34000 13.205
82.36000 16.802
82.38000 15.464
82.40000 17.604
82.42000 16.370
82.44000 17.356
82.46000 17.567
82.48000 22.425
82.50000 23.300
82.52000 20.528
82.54000 20.891
82.56000 20.817
82.58000 21.366
82.60000 21.791
82.62000 22.509
82.64000 22.508
82.66000 20.555
82.68000 19.362
82.70000 21.289
82.72000 17.395
82.74000 23.871
82.76000 27.898
82.78000 26.203
82.80000 29.157
82.82000 29.802
82.84000 33.040
82.86000 28.461
82.88000 34.167
82.90000 28.083
82.92000 28.462
82.94000 26.528
82.96000 28.328
82.98000 31.016
83.00000 33.126
83.02000 31.622
83.04000 33.776
83.06000 31.612
83.08000 26.196
83.10000 24.629
83.12000 29.440
83.14000 34.930
83.16000 31.080
83.18000 26.254
83.20000 23.048
83.22000 24.916
83.24000 25.432
83.26000 20.336
83.28000 29.440
83.30000 34.291
83.32000 31.373
83.34000 23.705
83.36000 21.457
83.38000 25.661
83.40000 26.624
83.42000 28.841
83.44000 25.831
83.46000 19.805
83.48000 20.267
83.50000 27.205
83.52000 23.700
83.54000 23.150
83.56000 16.101
83.58000 15.232
83.60000 16.697
83.62000 21.028
83.64000 15.582
83.66000 14.490
83.68000 19.234
83.70000 16.590
83.72000 17.012
83.74000 21.557
83.76000 17.074
83.78000 13.615
83.80000 11.782
83.82000 13.605
83.84000 14.957
83.86000 10.702
83.88000 9.468
83.90000 10.713
83.92000 11.900
83.94000 9.417
83.96000 8.347
83.98000 8.360
84.00000 7.256
84.02000 10.756
84.04000 9.095
84.06000 7.427
84.08000 6.232
84.10000 6.277
84.12000 5.236
84.14000 4.914
84.16000 5.895
84.18000 11.699
84.20000 6.665
84.22000 2.432
84.24000 2.637
84.26000 5.872
84.28000 5.926
84.30000 2.344
84.32000 2.625
84.34000 3.403
84.36000 5.322
84.38000 3.798
84.40000 4.289
84.42000 1.948
84.44000 3.532
84.46000 4.458
84.48000 1.743
84.50000 1.506
84.52000 1.695
84.54000 3.399
84.56000 8.877
84.58000 1.878
84.60000 1.578
84.62000 1.621
84.64000 1.433
84.66000 1.322
84.68000 2.614
84.70000 7.366
84.72000 5.128
84.74000 2.355
84.76000 2.761
84.78000 3.480
84.80000 4.296
84.82000 9.068
84.84000 9.031
84.86000 5.299
84.88000 1.557
84.90000 2.903
84.92000 1.727
84.94000 1.367
84.96000 3.072
84.98000 2.250
85.00000 -2.357
85.02000 1.944
85.04000 1.098
85.06000 0.746
85.08000 4.208
85.10000 3.377
85.12000 -2.157
85.14000 1.919
85.16000 1.670
85.18000 0.371
85.20000 3.485
85.22000 2.191
85.24000 -1.113
85.26000 0.526
85.28000 4.563
85.30000 3.410
85.32000 2.929
85.34000 4.818
85.36000 6.737
85.38000 2.826
85.40000 -2.326
85.42000 1.092
85.44000 4.976
85.46000 7.839
85.48000 4.137
85.50000 5.363
85.52000 6.093
85.54000 6.482
85.56000 3.144
85.58000 3.077
85.60000 0.645
85.62000 -0.110
85.64000 1.856
85.66000 1.640
85.68000 -2.337
85.70000 0.693
85.72000 0.821
85.74000 1.604
85.76000 3.687
85.78000 3.680
85.80000 4.660
85.82000 3.600
85.84000 3.707
85.86000 1.829
85.88000 1.011
85.90000 2.077
85.92000 2.161
85.94000 0.957
85.96000 3.266
85.98000 4.341
86.00000 3.958
86.02000 3.109
86.04000 3.123
86.06000 0.638
86.08000 2.169
86.10000 4.095
86.12000 6.259
86.14000 2.854
86.16000 5.415
86.18000 3.937
86.20000 5.582
86.22000 7.071
86.24000 7.994
86.26000 7.418
86.28000 6.894
86.30000 6.043
86.32000 5.761
86.34000 6.106
86.36000 7.289
86.38000 8.826
86.40000 7.390
86.42000 7.416
86.44000 4.061
86.46000 5.770
86.48000 1.456
86.50000 0.010
86.52000 7.962
86.54000 9.263
86.56000 4.400
86.58000 -0.278
86.60000 5.876
86.62000 11.676
86.64000 12.612
86.66000 7.608
86.68000 11.097
86.70000 13.603
86.72000 14.332
86.74000 9.124
86.76000 7.593
86.78000 11.971
86.80000 16.975
86.82000 20.126
86.84000 16.899
86.86000 17.442
86.88000 12.952
86.90000 14.397
86.92000 15.223
86.94000 11.032
86.96000 10.441
86.98000 15.111
87.00000 21.726
87.02000 22.657
87.04000 23.421
87.06000 21.382
87.08000 22.792
87.10000 18.547
87.12000 20.091
87.14000 23.603
87.16000 24.110
87.18000 26.519
87.20000 25.700
87.22000 24.347
87.24000 25.453
87.26000 27.698
87.28000 32.048
87.30000 30.844
87.32000 33.269
87.34000 36.300
87.36000 31.996
87.38000 30.395
87.40000 29.780
87.42000 29.501
87.44000 27.757
87.46000 27.114
87.48000 28.658
87.50000 24.637
87.52000 25.280
87.54000 27.301
87.56000 26.705
87.58000 25.552
87.60000 27.457
87.62000 29.650
87.64000 30.296
87.66000 26.702
87.68000 21.622
87.70000 25.829
87.72000 29.085
87.74000 26.425
87.76000 25.679
87.78000 26.992
87.80000 27.991
87.82000 27.893
87.84000 24.671
87.86000 21.905
87.88000 26.399
87.90000 22.842
87.92000 21.171
87.94000 19.028
87.96000 18.891
87.98000 21.803
88.00000 22.245
88.02000 19.179
88.04000 22.521
88.06000 23.015
88.08000 17.831
88.10000 17.887
88.12000 16.660
88.14000 12.419
88.16000 12.836
88.18000 16.723
88.20000 14.274
88.22000 12.696
88.24000 14.500
88.26000 14.036
88.28000 13.630
88.30000 10.524
88.32000 14.899
88.34000 12.162
88.36000 11.880
88.38000 5.903
88.40000 4.703
88.42000 10.882
88.44000 12.756
88.46000 9.932
88.48000 5.879
88.50000 5.827
88.52000 5.852
88.54000 7.749
88.56000 9.733
88.58000 8.286
88.60000 5.096
88.62000 5.578
88.64000 8.067
88.66000 2.505
88.68000 -2.263
88.70000 0.214
88.72000 7.470
88.74000 8.170
88.76000 7.389
88.78000 9.959
88.80000 6.843
88.82000 3.842
88.84000 1.506
88.86000 4.760
88.88000 4.370
88.90000 4.120
88.92000 2.387
88.94000 3.750
88.96000 0.176
88.98000 -0.016
89.00000 3.136
89.02000 4.922
89.04000 3.543
89.06000 4.767
89.08000 5.043
89.10000 5.187
89.12000 3.902
89.14000 -0.315
89.16000 0.406
89.18000 3.931
89.20000 4.590
89.22000 4.757
89.24000 6.241
89.26000 2.905
89.28000 2.132
89.30000 1.186
89.32000 -2.192
89.34000 3.687
89.36000 5.056
89.38000 3.770
89.40000 2.404
89.42000 3.380
89.44000 1.769
89.46000 4.354
89.48000 3.335
89.50000 3.249
89.52000 2.431
89.54000 -1.419
89.56000 6.561
89.58000 3.390
89.60000 5.682
89.62000 4.647
89.64000 -0.262
89.66000 1.757
89.68000 3.058
89.70000 2.019
89.72000 1.521
89.74000 5.374
89.76000 6.441
89.78000 3.781
89.80000 1.250
89.82000 4.188
89.84000 0.070
89.86000 -2.179
89.88000 -2.131
89.90000 2.554
89.92000 3.874
89.94000 3.274
89.96000 3.192
89.98000 1.967
90.00000 2.165
90.02000 2.977
90.04000 0.956
90.06000 -0.182
90.08000 1.025
90.10000 4.324
90.12000 6.093
90.14000 6.962
90.16000 4.335
90.18000 8.353
90.20000 5.125
90.22000 5.304
90.24000 4.460
90.26000 2.055
90.28000 1.489
90.30000 3.046
90.32000 9.254
90.34000 8.430
90.36000 3.556
90.38000 2.282
90.40000 2.535
90.42000 1.866
90.44000 1.700
90.46000 -2.144
90.48000 -1.839
90.50000 1.451
90.52000 4.514
90.54000 5.726
90.56000 6.140
90.58000 3.435
90.60000 3.577
90.62000 1.802
90.64000 0.642
90.66000 5.716
90.68000 4.613
90.70000 5.531
90.72000 0.902
90.74000 3.133
90.76000 2.724
90.78000 2.257
90.80000 5.487
90.82000 3.991
90.84000 2.333
90.86000 3.838
90.88000 4.089
90.90000 -0.029
90.92000 2.934
90.94000 4.602
90.96000 6.674
90.98000 6.911
91.00000 9.051
91.02000 3.514
91.04000 7.556
91.06000 3.483
91.08000 0.315
91.10000 -0.601
91.12000 1.756
91.14000 5.672
91.16000 9.025
91.18000 6.672
91.20000 4.841
91.22000 3.377
91.24000 2.393
91.26000 -0.162
91.28000 3.771
91.30000 3.558
91.32000 5.526
91.34000 8.156
91.36000 6.318
91.38000 3.105
91.40000 4.212
91.42000 7.200
91.44000 6.082
91.46000 1.448
91.48000 -2.121
91.50000 4.218
91.52000 9.667
91.54000 10.254
91.56000 4.344
91.58000 1.133
91.60000 5.027
91.62000 8.346
91.64000 8.176
91.66000 8.515
91.68000 5.545
91.70000 2.106
91.72000 5.776
91.74000 7.587
91.76000 0.670
91.78000 4.811
91.80000 3.596
91.82000 2.291
91.84000 7.893
91.86000 6.192
91.88000 5.747
91.90000 4.133
91.92000 1.128
91.94000 0.863
91.96000 3.438
91.98000 2.145
92.00000 0.125
92.02000 0.482
92.04000 1.577
92.06000 0.535
92.08000 3.479
92.10000 2.769
92.12000 7.178
92.14000 8.540
92.16000 8.238
92.18000 6.454
92.20000 1.244
92.22000 6.146
92.24000 0.868
92.26000 0.907
92.28000 2.404
92.30000 5.175
92.32000 7.718
92.34000 3.609
92.36000 6.082
92.38000 2.154
92.40000 0.629
92.42000 2.804
92.44000 5.740
92.46000 10.235
92.48000 5.953
92.50000 5.344
92.52000 2.326
92.54000 -2.148
92.56000 0.528
92.58000 4.174
92.60000 2.229
92.62000 6.027
92.64000 6.532
92.66000 0.678
92.68000 0.770
92.70000 4.121
92.72000 4.533
92.74000 1.103
92.76000 -0.297
92.78000 8.017
92.80000 7.640
92.82000 5.798
92.84000 5.016
92.86000 1.222
92.88000 0.188
92.90000 6.447
92.92000 7.521
92.94000 4.697
92.96000 7.068
92.98000 2.059
93.00000 3.740
93.02000 -1.149
93.04000 2.658
93.06000 1.590
93.08000 5.963
93.10000 3.450
93.12000 4.903
93.14000 2.431
93.16000 4.249
93.18000 4.595
93.20000 -1.882
93.22000 -1.485
93.24000 0.213
93.26000 0.159
93.28000 1.184
93.30000 4.732
93.32000 3.589
93.34000 4.416
93.36000 -1.150
93.38000 -2.176
93.40000 -1.075
93.42000 0.587
93.44000 2.164
93.46000 -0.153
93.48000 0.190
93.50000 1.583
93.52000 -1.269
93.54000 4.428
93.56000 2.163
93.58000 -1.219
93.60000 0.531
93.62000 1.468
93.64000 1.381
93.66000 3.021
93.68000 6.957
93.70000 6.310
93.72000 3.916
93.74000 5.063
93.76000 3.622
93.78000 0.204
93.80000 3.588
93.82000 12.330
93.84000 8.639
93.86000 7.761
93.88000 7.960
93.90000 1.145
93.92000 -0.358
93.94000 4.204
93.96000 2.899
93.98000 2.412
94.00000 4.382
94.02000 3.100
94.04000 0.687
94.06000 -1.108
94.08000 0.984
94.10000 10.043
94.12000 9.264
94.14000 7.380
94.16000 7.658
94.18000 9.640
94.20000 9.313
94.22000 5.296
94.24000 0.525
94.26000 1.780
94.28000 6.455
94.30000 6.506
94.32000 7.722
94.34000 9.145
94.36000 5.233
94.38000 3.337
94.40000 0.350
94.42000 -2.161
94.44000 0.148
94.46000 2.526
94.48000 4.108
94.50000 5.703
94.52000 3.116
94.54000 -1.502
94.56000 -0.239
94.58000 3.219
94.60000 1.210
94.62000 0.469
94.64000 3.937
94.66000 7.866
94.68000 0.240
94.70000 2.944
94.72000 4.599
94.74000 0.335
94.76000 1.166
94.78000 8.379
94.80000 7.572
94.82000 -0.147
94.84000 0.177
94.86000 1.647
94.88000 3.426
94.90000 1.063
94.92000 -0.098
94.94000 5.454
94.96000 1.912
94.98000 0.421
95.00000 1.948
95.02000 0.261
95.04000 6.937
95.06000 4.926
95.08000 1.877
95.10000 4.155
95.12000 5.043
95.14000 3.259
95.16000 -2.175
95.18000 3.521
95.20000 6.294
95.22000 5.625
95.24000 1.792
95.26000 0.082
95.28000 1.164
95.30000 11.585
95.32000 11.054
95.34000 2.518
95.36000 6.942
95.38000 6.738
95.40000 3.546
95.42000 2.309
95.44000 2.486
95.46000 3.291
95.48000 5.288
95.50000 4.250
95.52000 4.525
95.54000 4.846
95.56000 5.499
95.58000 -0.873
95.60000 0.085
95.62000 5.373
95.64000 3.440
95.66000 1.430
95.68000 5.675
95.70000 7.583
95.72000 3.730
95.74000 -1.068
95.76000 -0.023
95.78000 9.225
95.80000 6.807
95.82000 -1.323
95.84000 2.386
95.86000 6.984
95.88000 4.556
95.90000 4.443
95.92000 -1.004
95.94000 -2.175
95.96000 7.141
95.98000 3.758
96.00000 5.323
96.02000 8.530
96.04000 5.211
96.06000 0.389
96.08000 7.098
96.10000 8.480
96.12000 3.865
96.14000 8.539
96.16000 6.977
96.18000 5.207
96.20000 2.716
96.22000 2.867
96.24000 7.020
96.26000 9.999
96.28000 6.672
96.30000 3.190
96.32000 5.895
96.34000 8.174
96.36000 5.010
96.38000 -0.814
96.40000 3.055
96.42000 5.290
96.44000 2.182
96.46000 0.939
96.48000 1.930
96.50000 1.202
96.52000 -1.653
96.54000 2.478
96.56000 2.666
96.58000 5.658
96.60000 3.234
96.62000 2.739
96.64000 7.355
96.66000 8.841
96.68000 8.176
96.70000 6.825
96.72000 2.372
96.74000 8.696
96.76000 7.728
96.78000 1.246
96.80000 0.592
96.82000 7.056
96.84000 5.571
96.86000 -5.527
96.88000 5.534
96.90000 5.477
96.92000 10.727
96.94000 14.560
96.96000 5.621
96.98000 4.303
97.00000 8.314
97.02000 7.029
97.04000 2.059
97.06000 5.518
97.08000 7.144
97.10000 4.159
97.12000 4.318
97.14000 3.613
97.16000 4.874
97.18000 4.404
97.20000 6.344
97.22000 3.860
97.24000 -2.133
97.26000 3.522
97.28000 12.616
97.30000 9.775
97.32000 -0.572
97.34000 0.758
97.36000 9.078
97.38000 9.650
97.40000 12.847
97.42000 9.286
97.44000 5.685
97.46000 4.458
97.48000 0.401
97.50000 6.936
97.52000 5.682
97.54000 7.819
97.56000 13.782
97.58000 10.485
97.60000 6.162
97.62000 6.498
97.64000 11.899
97.66000 5.617
97.68000 6.427
97.70000 7.938
97.72000 7.667
97.74000 4.607
97.76000 6.456
97.78000 5.002
97.80000 6.158
97.82000 4.444
97.84000 4.711
97.86000 11.327
97.88000 7.879
97.90000 6.847
97.92000 10.486
97.94000 8.450
97.96000 3.469
97.98000 9.041
98.00000 10.589
98.02000 8.508
98.04000 11.606
98.06000 11.241
98.08000 8.636
98.10000 4.493
98.12000 -0.670
98.14000 6.320
98.16000 4.761
98.18000 11.467
98.20000 11.706
98.22000 6.815
98.24000 7.286
98.26000 8.464
98.28000 3.856
98.30000 4.630
98.32000 10.298
98.34000 13.649
98.36000 8.943
98.38000 7.618
98.40000 -2.052
98.42000 -0.903
98.44000 9.951
98.46000 9.795
98.48000 3.511
98.50000 8.645
98.52000 15.324
98.54000 8.731
98.56000 8.310
98.58000 4.853
98.60000 5.940
98.62000 7.685
98.64000 11.589
98.66000 4.828
98.68000 5.878
98.70000 4.970
98.72000 6.201
98.74000 5.111
98.76000 0.299
98.78000 2.879
98.80000 6.391
98.82000 2.704
98.84000 4.717
98.86000 7.233
98.88000 4.430
98.90000 7.069
98.92000 6.262
98.94000 1.081
98.96000 10.175
98.98000 10.761
99.00000 18.831
99.02000 12.440
99.04000 5.280
99.06000 6.474
99.08000 5.313
99.10000 11.005
99.12000 7.270
99.14000 9.294
99.16000 7.478
99.18000 10.570
99.20000 6.075
99.22000 5.413
99.24000 2.267
99.26000 8.223
99.28000 7.171
99.30000 6.869
99.32000 8.046
99.34000 12.767
99.36000 13.019
99.38000 2.145
99.40000 7.403
99.42000 6.149
99.44000 0.388
99.46000 4.065
99.48000 11.898
99.50000 14.535
99.52000 13.309
99.54000 17.865
99.56000 18.590
99.58000 8.492
99.60000 8.825
99.62000 9.049
99.64000 5.875
99.66000 11.989
99.68000 15.230
99.70000 19.965
99.72000 20.171
99.74000 1.196
99.76000 9.211
99.78000 15.131
99.80000 14.889
99.82000 17.870
99.84000 22.172
99.86000 2.848
99.88000 -2.615
99.90000 4.992
99.92000 9.678
99.94000 12.239
99.96000 3.452
99.98000 0.000
