'Id: "0011388" Comment: "Integrate frame 0011388_Au-Ir-Rh_Rh-rich_XRD-Mapping-339-0000.gfrmwith cursor Wedge Cursor #5" Operator: "B?rgel" Anode: "Cu" Wavelength: "1.5406" Scantype: "2Theta (TwoTheta)" TimePerStep: "1" X: "4.5" Y: "45" Z: "5.95" 
10.00000 0.000
10.02000 -4.471
10.04000 -4.362
10.06000 -1.219
10.08000 9.898
10.10000 3.535
10.12000 8.637
10.14000 9.027
10.16000 6.661
10.18000 14.879
10.20000 0.575
10.22000 8.889
10.24000 15.934
10.26000 14.776
10.28000 3.831
10.30000 17.167
10.32000 29.526
10.34000 7.268
10.36000 2.655
10.38000 20.500
10.40000 19.939
10.42000 14.969
10.44000 10.872
10.46000 17.014
10.48000 -4.355
10.50000 -0.800
10.52000 13.147
10.54000 3.686
10.56000 10.048
10.58000 19.279
10.60000 14.806
10.62000 15.754
10.64000 21.422
10.66000 21.367
10.68000 14.764
10.70000 11.414
10.72000 -0.983
10.74000 5.126
10.76000 16.578
10.78000 10.228
10.80000 -4.390
10.82000 -0.074
10.84000 11.190
10.86000 12.693
10.88000 10.333
10.90000 12.952
10.92000 23.843
10.94000 10.043
10.96000 0.028
10.98000 2.339
11.00000 5.069
11.02000 14.601
11.04000 5.434
11.06000 11.937
11.08000 12.964
11.10000 19.144
11.12000 28.482
11.14000 14.004
11.16000 -1.010
11.18000 0.731
11.20000 14.900
11.22000 14.838
11.24000 13.558
11.26000 4.085
11.28000 -2.470
11.30000 3.508
11.32000 19.382
11.34000 16.113
11.36000 16.721
11.38000 12.266
11.40000 13.700
11.42000 3.633
11.44000 7.527
11.46000 14.869
11.48000 15.256
11.50000 13.707
11.52000 3.431
11.54000 4.362
11.56000 10.072
11.58000 16.182
11.60000 4.098
11.62000 11.727
11.64000 8.441
11.66000 6.770
11.68000 13.512
11.70000 15.886
11.72000 10.232
11.74000 5.844
11.76000 8.133
11.78000 5.260
11.80000 7.757
11.82000 8.243
11.84000 6.220
11.86000 11.805
11.88000 3.005
11.90000 9.854
11.92000 13.356
11.94000 24.290
11.96000 25.412
11.98000 12.259
12.00000 5.148
12.02000 5.428
12.04000 7.307
12.06000 15.142
12.08000 10.114
12.10000 13.357
12.12000 15.481
12.14000 15.023
12.16000 17.592
12.18000 11.544
12.20000 10.968
12.22000 8.454
12.24000 5.012
12.26000 12.597
12.28000 18.241
12.30000 19.798
12.32000 10.222
12.34000 8.342
12.36000 3.943
12.38000 2.104
12.40000 -0.259
12.42000 21.084
12.44000 26.229
12.46000 12.105
12.48000 8.357
12.50000 19.163
12.52000 9.388
12.54000 11.645
12.56000 11.701
12.58000 12.319
12.60000 16.840
12.62000 16.814
12.64000 17.503
12.66000 14.696
12.68000 23.071
12.70000 7.436
12.72000 5.916
12.74000 2.200
12.76000 8.946
12.78000 10.475
12.80000 -0.244
12.82000 7.198
12.84000 12.028
12.86000 19.841
12.88000 0.382
12.90000 4.090
12.92000 14.625
12.94000 17.696
12.96000 12.559
12.98000 13.242
13.00000 14.191
13.02000 3.928
13.04000 8.541
13.06000 4.366
13.08000 3.543
13.10000 -0.147
13.12000 4.712
13.14000 12.728
13.16000 18.993
13.18000 16.372
13.20000 10.989
13.22000 12.296
13.24000 9.423
13.26000 4.214
13.28000 -4.522
13.30000 13.567
13.32000 21.994
13.34000 15.704
13.36000 20.675
13.38000 12.308
13.40000 8.381
13.42000 20.095
13.44000 12.612
13.46000 2.925
13.48000 0.557
13.50000 11.845
13.52000 12.229
13.54000 14.027
13.56000 5.476
13.58000 4.313
13.60000 -1.630
13.62000 4.554
13.64000 1.501
13.66000 5.707
13.68000 19.970
13.70000 15.898
13.72000 12.724
13.74000 11.895
13.76000 -1.957
13.78000 9.012
13.80000 6.061
13.82000 7.836
13.84000 13.111
13.86000 10.890
13.88000 3.667
13.90000 10.959
13.92000 14.497
13.94000 2.291
13.96000 8.938
13.98000 15.170
14.00000 4.395
14.02000 -1.470
14.04000 4.392
14.06000 9.611
14.08000 9.142
14.10000 13.303
14.12000 9.169
14.14000 14.225
14.16000 9.744
14.18000 4.259
14.20000 5.495
14.22000 2.518
14.24000 11.812
14.26000 18.822
14.28000 13.985
14.30000 2.325
14.32000 -0.198
14.34000 10.416
14.36000 11.921
14.38000 7.720
14.40000 4.022
14.42000 12.414
14.44000 16.739
14.46000 8.962
14.48000 5.020
14.50000 4.976
14.52000 9.849
14.54000 9.062
14.56000 10.451
14.58000 7.517
14.60000 16.923
14.62000 12.111
14.64000 17.955
14.66000 17.529
14.68000 21.201
14.70000 14.410
14.72000 8.556
14.74000 11.446
14.76000 15.455
14.78000 7.489
14.80000 6.435
14.82000 8.845
14.84000 16.286
14.86000 11.392
14.88000 14.024
14.90000 10.934
14.92000 -2.184
14.94000 1.677
14.96000 13.342
14.98000 10.744
15.00000 5.455
15.02000 7.621
15.04000 10.843
15.06000 8.194
15.08000 4.202
15.10000 2.978
15.12000 6.998
15.14000 7.179
15.16000 7.945
15.18000 8.046
15.20000 13.228
15.22000 12.270
15.24000 8.659
15.26000 12.531
15.28000 13.517
15.30000 9.820
15.32000 10.034
15.34000 6.606
15.36000 4.613
15.38000 8.266
15.40000 7.471
15.42000 -4.442
15.44000 1.558
15.46000 9.981
15.48000 8.798
15.50000 6.173
15.52000 15.297
15.54000 16.735
15.56000 17.659
15.58000 14.697
15.60000 11.583
15.62000 12.259
15.64000 10.088
15.66000 11.350
15.68000 13.292
15.70000 15.046
15.72000 12.605
15.74000 6.081
15.76000 7.687
15.78000 13.219
15.80000 11.833
15.82000 12.545
15.84000 15.014
15.86000 13.165
15.88000 7.682
15.90000 10.432
15.92000 9.429
15.94000 13.717
15.96000 10.974
15.98000 12.190
16.00000 12.652
16.02000 18.921
16.04000 9.456
16.06000 9.946
16.08000 13.448
16.10000 2.114
16.12000 8.673
16.14000 19.791
16.16000 14.615
16.18000 9.067
16.20000 13.558
16.22000 8.649
16.24000 16.132
16.26000 18.049
16.28000 6.146
16.30000 4.506
16.32000 11.644
16.34000 12.415
16.36000 10.630
16.38000 9.112
16.40000 8.239
16.42000 7.934
16.44000 9.016
16.46000 11.511
16.48000 12.355
16.50000 12.228
16.52000 13.906
16.54000 9.101
16.56000 12.782
16.58000 13.279
16.60000 10.428
16.62000 8.113
16.64000 11.034
16.66000 9.389
16.68000 1.229
16.70000 10.837
16.72000 12.310
16.74000 6.946
16.76000 9.024
16.78000 1.842
16.80000 10.165
16.82000 13.304
16.84000 8.816
16.86000 5.378
16.88000 6.046
16.90000 8.815
16.92000 9.587
16.94000 18.413
16.96000 13.228
16.98000 9.015
17.00000 3.330
17.02000 5.122
17.04000 9.014
17.06000 15.194
17.08000 6.102
17.10000 1.946
17.12000 5.344
17.14000 9.410
17.16000 6.013
17.18000 5.244
17.20000 5.119
17.22000 9.539
17.24000 9.460
17.26000 8.958
17.28000 10.447
17.30000 9.591
17.32000 15.958
17.34000 19.774
17.36000 12.795
17.38000 8.943
17.40000 -1.069
17.42000 1.992
17.44000 3.025
17.46000 3.789
17.48000 2.719
17.50000 8.809
17.52000 7.747
17.54000 0.397
17.56000 -0.371
17.58000 10.687
17.60000 6.998
17.62000 4.514
17.64000 4.591
17.66000 5.124
17.68000 5.073
17.70000 8.606
17.72000 7.358
17.74000 2.080
17.76000 8.550
17.78000 12.234
17.80000 8.783
17.82000 12.962
17.84000 15.839
17.86000 9.622
17.88000 13.408
17.90000 13.104
17.92000 4.565
17.94000 8.119
17.96000 11.299
17.98000 11.066
18.00000 12.940
18.02000 3.708
18.04000 6.206
18.06000 0.208
18.08000 -1.131
18.10000 4.068
18.12000 9.405
18.14000 9.365
18.16000 9.108
18.18000 7.825
18.20000 8.990
18.22000 11.678
18.24000 4.938
18.26000 -4.308
18.28000 12.769
18.30000 18.797
18.32000 9.142
18.34000 11.686
18.36000 14.158
18.38000 7.061
18.40000 4.504
18.42000 1.893
18.44000 5.456
18.46000 5.937
18.48000 6.437
18.50000 9.925
18.52000 7.098
18.54000 1.176
18.56000 9.844
18.58000 5.381
18.60000 9.023
18.62000 17.390
18.64000 11.635
18.66000 12.684
18.68000 11.507
18.70000 11.129
18.72000 5.600
18.74000 1.235
18.76000 2.065
18.78000 3.006
18.80000 -0.394
18.82000 6.226
18.84000 6.151
18.86000 0.602
18.88000 10.731
18.90000 16.662
18.92000 16.208
18.94000 16.310
18.96000 12.583
18.98000 7.247
19.00000 8.954
19.02000 12.703
19.04000 16.389
19.06000 14.392
19.08000 14.926
19.10000 15.411
19.12000 24.569
19.14000 14.003
19.16000 7.963
19.18000 8.478
19.20000 7.958
19.22000 7.017
19.24000 5.639
19.26000 7.784
19.28000 7.998
19.30000 7.708
19.32000 7.083
19.34000 9.024
19.36000 13.565
19.38000 12.351
19.40000 7.076
19.42000 10.399
19.44000 11.697
19.46000 6.268
19.48000 6.028
19.50000 10.527
19.52000 14.779
19.54000 6.397
19.56000 -0.535
19.58000 5.357
19.60000 4.145
19.62000 0.428
19.64000 -0.111
19.66000 -0.554
19.68000 -4.266
19.70000 1.937
19.72000 9.029
19.74000 9.187
19.76000 7.684
19.78000 7.452
19.80000 9.070
19.82000 7.926
19.84000 7.443
19.86000 10.234
19.88000 5.999
19.90000 0.655
19.92000 1.996
19.94000 1.734
19.96000 5.077
19.98000 2.846
20.00000 12.717
20.02000 12.894
20.04000 3.969
20.06000 5.573
20.08000 9.305
20.10000 14.732
20.12000 1.141
20.14000 5.874
20.16000 3.940
20.18000 -2.792
20.20000 -0.986
20.22000 -1.935
20.24000 2.650
20.26000 8.747
20.28000 4.939
20.30000 -1.504
20.32000 6.000
20.34000 8.306
20.36000 8.168
20.38000 -1.490
20.40000 1.992
20.42000 -3.668
20.44000 -0.892
20.46000 2.066
20.48000 -0.017
20.50000 1.619
20.52000 4.230
20.54000 2.489
20.56000 0.269
20.58000 1.390
20.60000 3.183
20.62000 1.580
20.64000 -1.712
20.66000 2.528
20.68000 7.643
20.70000 9.113
20.72000 0.646
20.74000 0.180
20.76000 -4.198
20.78000 -1.810
20.80000 4.490
20.82000 3.410
20.84000 1.014
20.86000 -2.768
20.88000 4.037
20.90000 6.016
20.92000 1.949
20.94000 2.039
20.96000 2.183
20.98000 2.064
21.00000 3.203
21.02000 1.384
21.04000 4.896
21.06000 9.225
21.08000 5.671
21.10000 1.334
21.12000 -1.090
21.14000 -1.550
21.16000 0.662
21.18000 3.245
21.20000 4.292
21.22000 6.266
21.24000 0.556
21.26000 5.426
21.28000 8.112
21.30000 6.654
21.32000 7.390
21.34000 -0.239
21.36000 5.759
21.38000 14.675
21.40000 4.851
21.42000 6.379
21.44000 1.342
21.46000 -1.907
21.48000 4.772
21.50000 6.991
21.52000 2.741
21.54000 6.686
21.56000 5.585
21.58000 0.420
21.60000 1.929
21.62000 2.122
21.64000 8.974
21.66000 7.086
21.68000 5.800
21.70000 3.210
21.72000 4.148
21.74000 2.762
21.76000 1.898
21.78000 1.515
21.80000 3.137
21.82000 2.412
21.84000 -0.502
21.86000 5.041
21.88000 1.669
21.90000 3.115
21.92000 1.028
21.94000 0.088
21.96000 6.630
21.98000 10.552
22.00000 8.082
22.02000 3.845
22.04000 1.105
22.06000 10.470
22.08000 2.424
22.10000 2.260
22.12000 6.658
22.14000 9.199
22.16000 4.677
22.18000 8.833
22.20000 14.884
22.22000 11.687
22.24000 7.255
22.26000 1.076
22.28000 8.067
22.30000 9.233
22.32000 11.052
22.34000 11.238
22.36000 2.464
22.38000 6.302
22.40000 8.720
22.42000 16.713
22.44000 12.086
22.46000 8.221
22.48000 5.817
22.50000 -1.374
22.52000 -4.102
22.54000 4.438
22.56000 17.370
22.58000 9.686
22.60000 10.124
22.62000 5.375
22.64000 1.292
22.66000 5.908
22.68000 8.073
22.70000 7.503
22.72000 12.331
22.74000 17.892
22.76000 17.577
22.78000 14.794
22.80000 8.707
22.82000 7.403
22.84000 5.449
22.86000 8.454
22.88000 8.387
22.90000 8.049
22.92000 9.337
22.94000 13.873
22.96000 12.855
22.98000 3.791
23.00000 6.246
23.02000 8.541
23.04000 6.961
23.06000 8.324
23.08000 8.271
23.10000 10.892
23.12000 3.913
23.14000 4.415
23.16000 8.538
23.18000 11.543
23.20000 10.105
23.22000 1.981
23.24000 1.321
23.26000 -4.049
23.28000 -2.018
23.30000 5.233
23.32000 8.089
23.34000 7.865
23.36000 15.730
23.38000 18.480
23.40000 15.223
23.42000 3.661
23.44000 -0.700
23.46000 6.037
23.48000 9.926
23.50000 11.927
23.52000 7.947
23.54000 5.346
23.56000 14.453
23.58000 10.748
23.60000 9.946
23.62000 10.372
23.64000 8.917
23.66000 9.035
23.68000 14.662
23.70000 12.369
23.72000 4.221
23.74000 6.157
23.76000 9.858
23.78000 4.699
23.80000 4.768
23.82000 6.193
23.84000 2.955
23.86000 4.874
23.88000 7.006
23.90000 6.939
23.92000 3.095
23.94000 -0.953
23.96000 4.122
23.98000 4.836
24.00000 8.802
24.02000 2.759
24.04000 -0.835
24.06000 -1.423
24.08000 2.823
24.10000 7.699
24.12000 7.829
24.14000 3.308
24.16000 10.548
24.18000 7.554
24.20000 -0.641
24.22000 2.426
24.24000 1.676
24.26000 3.582
24.28000 5.717
24.30000 4.576
24.32000 -0.036
24.34000 7.187
24.36000 9.456
24.38000 3.307
24.40000 9.383
24.42000 6.049
24.44000 1.267
24.46000 -2.121
24.48000 -0.394
24.50000 -2.602
24.52000 -4.017
24.54000 -2.964
24.56000 1.510
24.58000 2.681
24.60000 7.960
24.62000 8.372
24.64000 1.806
24.66000 3.102
24.68000 1.144
24.70000 2.394
24.72000 6.936
24.74000 5.947
24.76000 7.325
24.78000 5.000
24.80000 6.033
24.82000 9.150
24.84000 5.527
24.86000 7.840
24.88000 2.646
24.90000 6.774
24.92000 9.594
24.94000 2.153
24.96000 7.482
24.98000 4.967
25.00000 4.976
25.02000 1.311
25.04000 2.852
25.06000 7.417
25.08000 2.439
25.10000 0.591
25.12000 0.193
25.14000 4.415
25.16000 6.955
25.18000 5.943
25.20000 1.332
25.22000 -1.881
25.24000 3.183
25.26000 9.367
25.28000 8.174
25.30000 -1.274
25.32000 3.281
25.34000 6.351
25.36000 3.396
25.38000 3.577
25.40000 3.758
25.42000 7.305
25.44000 3.657
25.46000 3.557
25.48000 2.211
25.50000 -1.230
25.52000 1.646
25.54000 1.397
25.56000 6.536
25.58000 3.437
25.60000 5.991
25.62000 7.599
25.64000 6.304
25.66000 -0.187
25.68000 -3.951
25.70000 5.099
25.72000 10.053
25.74000 4.545
25.76000 -2.089
25.78000 -2.120
25.80000 1.861
25.82000 4.769
25.84000 4.196
25.86000 4.981
25.88000 3.506
25.90000 5.084
25.92000 5.005
25.94000 3.370
25.96000 0.774
25.98000 0.228
26.00000 1.164
26.02000 5.092
26.04000 1.636
26.06000 -0.361
26.08000 4.256
26.10000 5.000
26.12000 4.902
26.14000 4.239
26.16000 -0.880
26.18000 3.089
26.20000 4.436
26.22000 -0.176
26.24000 1.224
26.26000 -1.508
26.28000 -3.936
26.30000 -1.445
26.32000 1.191
26.34000 6.560
26.36000 13.887
26.38000 8.233
26.40000 3.118
26.42000 2.058
26.44000 3.046
26.46000 4.625
26.48000 6.648
26.50000 4.624
26.52000 3.104
26.54000 4.174
26.56000 6.895
26.58000 5.823
26.60000 2.217
26.62000 1.920
26.64000 2.647
26.66000 2.587
26.68000 7.314
26.70000 5.054
26.72000 -1.422
26.74000 -2.863
26.76000 -3.415
26.78000 0.867
26.80000 1.528
26.82000 1.564
26.84000 0.622
26.86000 1.306
26.88000 1.029
26.90000 2.805
26.92000 9.824
26.94000 7.512
26.96000 3.712
26.98000 0.508
27.00000 5.963
27.02000 6.196
27.04000 6.765
27.06000 1.468
27.08000 4.516
27.10000 -0.127
27.12000 0.989
27.14000 0.777
27.16000 4.127
27.18000 5.417
27.20000 2.168
27.22000 0.371
27.24000 1.776
27.26000 4.649
27.28000 6.224
27.30000 3.052
27.32000 -0.408
27.34000 2.140
27.36000 3.217
27.38000 3.532
27.40000 0.701
27.42000 0.291
27.44000 8.134
27.46000 10.221
27.48000 7.705
27.50000 6.784
27.52000 3.129
27.54000 2.387
27.56000 3.813
27.58000 -0.899
27.60000 1.980
27.62000 -0.029
27.64000 4.541
27.66000 6.039
27.68000 5.036
27.70000 5.302
27.72000 1.802
27.74000 3.735
27.76000 3.110
27.78000 5.476
27.80000 3.405
27.82000 -0.520
27.84000 0.925
27.86000 -2.420
27.88000 1.395
27.90000 1.091
27.92000 -0.151
27.94000 0.790
27.96000 3.221
27.98000 -3.087
28.00000 3.229
28.02000 4.545
28.04000 3.659
28.06000 0.940
28.08000 -2.590
28.10000 4.162
28.12000 5.041
28.14000 -2.069
28.16000 -3.834
28.18000 5.504
28.20000 8.799
28.22000 1.732
28.24000 -0.127
28.26000 -0.278
28.28000 0.878
28.30000 3.246
28.32000 8.471
28.34000 6.212
28.36000 2.476
28.38000 -1.743
28.40000 -0.452
28.42000 4.843
28.44000 6.328
28.46000 0.537
28.48000 1.494
28.50000 1.928
28.52000 0.882
28.54000 3.998
28.56000 -0.004
28.58000 0.212
28.60000 6.183
28.62000 8.105
28.64000 4.954
28.66000 5.113
28.68000 7.897
28.70000 4.140
28.72000 1.834
28.74000 0.267
28.76000 0.431
28.78000 1.523
28.80000 6.977
28.82000 5.828
28.84000 5.831
28.86000 6.434
28.88000 6.417
28.90000 6.264
28.92000 5.896
28.94000 0.825
28.96000 3.268
28.98000 -0.315
29.00000 2.356
29.02000 5.502
29.04000 2.739
29.06000 1.580
29.08000 -0.716
29.10000 2.315
29.12000 -0.743
29.14000 2.977
29.16000 -2.012
29.18000 -3.790
29.20000 -0.275
29.22000 4.312
29.24000 3.826
29.26000 -0.779
29.28000 3.581
29.30000 5.943
29.32000 6.214
29.34000 5.942
29.36000 1.592
29.38000 0.228
29.40000 0.710
29.42000 -1.039
29.44000 4.929
29.46000 4.964
29.48000 3.939
29.50000 1.381
29.52000 4.732
29.54000 3.684
29.56000 4.146
29.58000 6.538
29.60000 3.536
29.62000 1.815
29.64000 0.373
29.66000 -1.507
29.68000 -2.822
29.70000 3.911
29.72000 3.478
29.74000 -3.765
29.76000 -2.845
29.78000 -2.473
29.80000 2.387
29.82000 1.784
29.84000 -3.586
29.86000 0.910
29.88000 3.396
29.90000 5.643
29.92000 8.006
29.94000 9.153
29.96000 4.596
29.98000 3.344
30.00000 5.161
30.02000 5.713
30.04000 0.350
30.06000 -2.129
30.08000 -2.200
30.10000 -3.759
30.12000 0.893
30.14000 -1.009
30.16000 -1.599
30.18000 -0.867
30.20000 -1.569
30.22000 -0.916
30.24000 0.840
30.26000 -0.063
30.28000 0.635
30.30000 2.819
30.32000 2.314
30.34000 1.001
30.36000 1.103
30.38000 -0.964
30.40000 -2.696
30.42000 2.653
30.44000 -0.990
30.46000 -0.363
30.48000 3.480
30.50000 -2.435
30.52000 -3.002
30.54000 1.419
30.56000 4.815
30.58000 3.422
30.60000 0.696
30.62000 6.366
30.64000 0.825
30.66000 0.202
30.68000 -0.006
30.70000 -1.053
30.72000 0.350
30.74000 4.929
30.76000 5.816
30.78000 -0.093
30.80000 0.848
30.82000 -1.095
30.84000 -1.095
30.86000 5.050
30.88000 3.820
30.90000 3.112
30.92000 -0.055
30.94000 3.225
30.96000 6.256
30.98000 3.932
31.00000 3.163
31.02000 3.763
31.04000 -2.596
31.06000 -0.619
31.08000 -3.720
31.10000 1.803
31.12000 -0.633
31.14000 0.763
31.16000 2.004
31.18000 4.325
31.20000 -2.704
31.22000 0.370
31.24000 2.915
31.26000 1.261
31.28000 0.993
31.30000 -1.516
31.32000 3.050
31.34000 2.564
31.36000 -0.777
31.38000 -2.065
31.40000 0.925
31.42000 0.839
31.44000 -0.163
31.46000 2.908
31.48000 6.393
31.50000 7.658
31.52000 2.507
31.54000 5.257
31.56000 5.892
31.58000 2.012
31.60000 -2.338
31.62000 -1.970
31.64000 0.045
31.66000 -2.245
31.68000 -3.702
31.70000 -1.380
31.72000 3.215
31.74000 1.411
31.76000 3.593
31.78000 4.347
31.80000 0.483
31.82000 -2.773
31.84000 -1.388
31.86000 0.479
31.88000 5.711
31.90000 6.510
31.92000 2.429
31.94000 2.778
31.96000 2.109
31.98000 1.816
32.00000 -2.264
32.02000 1.511
32.04000 0.003
32.06000 -1.748
32.08000 -2.544
32.10000 -1.404
32.12000 -1.022
32.14000 -1.575
32.16000 6.230
32.18000 7.452
32.20000 4.365
32.22000 3.547
32.24000 1.704
32.26000 0.839
32.28000 4.053
32.30000 2.907
32.32000 0.607
32.34000 -0.741
32.36000 -3.202
32.38000 -0.292
32.40000 3.304
32.42000 2.790
32.44000 -0.813
32.46000 -1.317
32.48000 2.147
32.50000 5.556
32.52000 -1.601
32.54000 -0.157
32.56000 2.284
32.58000 7.103
32.60000 5.191
32.62000 0.807
32.64000 -3.653
32.66000 1.229
32.68000 4.124
32.70000 7.212
32.72000 6.944
32.74000 9.333
32.76000 14.584
32.78000 10.689
32.80000 3.862
32.82000 -1.494
32.84000 -0.644
32.86000 2.372
32.88000 8.716
32.90000 7.178
32.92000 4.037
32.94000 3.757
32.96000 3.993
32.98000 6.141
33.00000 3.886
33.02000 -0.598
33.04000 2.370
33.06000 9.360
33.08000 7.903
33.10000 4.985
33.12000 3.563
33.14000 3.342
33.16000 0.809
33.18000 1.085
33.20000 1.826
33.22000 2.745
33.24000 3.752
33.26000 6.881
33.28000 2.086
33.30000 7.444
33.32000 9.905
33.34000 5.265
33.36000 -1.973
33.38000 1.739
33.40000 7.657
33.42000 7.716
33.44000 4.326
33.46000 7.381
33.48000 6.850
33.50000 7.089
33.52000 11.927
33.54000 9.831
33.56000 5.679
33.58000 7.907
33.60000 9.599
33.62000 8.075
33.64000 -1.576
33.66000 -3.600
33.68000 2.080
33.70000 7.624
33.72000 7.411
33.74000 6.676
33.76000 6.062
33.78000 2.318
33.80000 5.546
33.82000 2.994
33.84000 -0.051
33.86000 6.721
33.88000 4.589
33.90000 4.543
33.92000 7.812
33.94000 7.203
33.96000 6.192
33.98000 3.895
34.00000 2.933
34.02000 2.795
34.04000 2.091
34.06000 2.278
34.08000 -1.333
34.10000 2.497
34.12000 7.705
34.14000 10.975
34.16000 8.872
34.18000 4.376
34.20000 4.408
34.22000 2.594
34.24000 4.514
34.26000 8.607
34.28000 6.933
34.30000 7.211
34.32000 3.171
34.34000 1.855
34.36000 8.363
34.38000 11.693
34.40000 9.344
34.42000 5.339
34.44000 7.374
34.46000 6.821
34.48000 8.740
34.50000 2.143
34.52000 1.074
34.54000 -0.927
34.56000 -1.560
34.58000 1.161
34.60000 0.112
34.62000 -3.610
34.64000 -0.914
34.66000 2.578
34.68000 1.591
34.70000 2.790
34.72000 4.630
34.74000 4.060
34.76000 2.822
34.78000 3.607
34.80000 5.642
34.82000 -0.723
34.84000 -2.300
34.86000 -0.833
34.88000 -2.613
34.90000 -3.624
34.92000 -0.808
34.94000 1.440
34.96000 0.212
34.98000 1.200
35.00000 -3.628
35.02000 2.851
35.04000 -0.947
35.06000 1.732
35.08000 2.814
35.10000 0.844
35.12000 1.481
35.14000 7.024
35.16000 1.209
35.18000 -3.395
35.20000 -3.508
35.22000 0.798
35.24000 2.944
35.26000 1.759
35.28000 -2.113
35.30000 -1.022
35.32000 2.532
35.34000 -3.640
35.36000 -1.926
35.38000 -1.280
35.40000 -2.428
35.42000 -0.312
35.44000 4.879
35.46000 4.817
35.48000 3.841
35.50000 4.332
35.52000 4.442
35.54000 3.283
35.56000 -0.360
35.58000 -0.942
35.60000 -1.046
35.62000 -2.187
35.64000 0.420
35.66000 1.825
35.68000 -2.830
35.70000 -3.650
35.72000 2.709
35.74000 0.059
35.76000 -3.637
35.78000 0.296
35.80000 0.305
35.82000 0.465
35.84000 0.723
35.86000 5.906
35.88000 6.750
35.90000 9.129
35.92000 4.944
35.94000 -3.245
35.96000 -3.458
35.98000 3.319
36.00000 2.881
36.02000 -1.042
36.04000 -1.445
36.06000 0.824
36.08000 -3.654
36.10000 -2.264
36.12000 -0.538
36.14000 2.510
36.16000 0.417
36.18000 -0.631
36.20000 2.004
36.22000 3.352
36.24000 1.295
36.26000 0.276
36.28000 3.589
36.30000 1.494
36.32000 9.011
36.34000 9.256
36.36000 5.480
36.38000 0.174
36.40000 -3.339
36.42000 -0.433
36.44000 -0.367
36.46000 -2.766
36.48000 2.153
36.50000 4.907
36.52000 2.888
36.54000 3.738
36.56000 5.191
36.58000 5.005
36.60000 -0.894
36.62000 -0.870
36.64000 0.269
36.66000 1.551
36.68000 4.938
36.70000 4.861
36.72000 2.647
36.74000 6.223
36.76000 4.060
36.78000 1.682
36.80000 -2.240
36.82000 -3.665
36.84000 2.835
36.86000 3.054
36.88000 4.482
36.90000 4.080
36.92000 5.241
36.94000 6.386
36.96000 0.083
36.98000 -1.358
37.00000 2.975
37.02000 -3.191
37.04000 1.621
37.06000 3.228
37.08000 -1.786
37.10000 1.481
37.12000 6.694
37.14000 4.921
37.16000 3.314
37.18000 0.195
37.20000 -2.294
37.22000 2.477
37.24000 4.797
37.26000 5.486
37.28000 3.128
37.30000 1.594
37.32000 2.337
37.34000 6.716
37.36000 5.778
37.38000 4.389
37.40000 5.066
37.42000 6.909
37.44000 9.557
37.46000 8.929
37.48000 5.788
37.50000 8.804
37.52000 7.464
37.54000 5.108
37.56000 4.011
37.58000 5.473
37.60000 8.100
37.62000 5.298
37.64000 9.037
37.66000 8.693
37.68000 7.277
37.70000 3.466
37.72000 4.583
37.74000 7.851
37.76000 10.261
37.78000 11.923
37.80000 13.519
37.82000 16.000
37.84000 11.867
37.86000 12.588
37.88000 17.999
37.90000 17.321
37.92000 15.417
37.94000 14.477
37.96000 14.126
37.98000 16.948
38.00000 14.206
38.02000 15.748
38.04000 21.833
38.06000 20.457
38.08000 17.307
38.10000 18.489
38.12000 18.921
38.14000 20.312
38.16000 21.884
38.18000 24.454
38.20000 22.801
38.22000 26.860
38.24000 27.951
38.26000 29.591
38.28000 30.769
38.30000 23.743
38.32000 25.847
38.34000 30.091
38.36000 30.818
38.38000 26.288
38.40000 27.455
38.42000 31.648
38.44000 37.242
38.46000 37.228
38.48000 34.179
38.50000 38.169
38.52000 39.198
38.54000 42.680
38.56000 43.843
38.58000 40.808
38.60000 43.663
38.62000 45.016
38.64000 47.156
38.66000 50.664
38.68000 54.536
38.70000 56.582
38.72000 56.914
38.74000 54.793
38.76000 52.141
38.78000 56.395
38.80000 59.308
38.82000 63.534
38.84000 68.623
38.86000 72.299
38.88000 70.371
38.90000 72.826
38.92000 74.036
38.94000 75.500
38.96000 78.539
38.98000 82.493
39.00000 89.209
39.02000 97.273
39.04000 105.662
39.06000 101.659
39.08000 101.932
39.10000 108.268
39.12000 111.421
39.14000 114.962
39.16000 123.299
39.18000 130.520
39.20000 140.634
39.22000 144.632
39.24000 148.972
39.26000 154.515
39.28000 166.339
39.30000 173.651
39.32000 176.839
39.34000 183.287
39.36000 193.274
39.38000 201.817
39.40000 214.123
39.42000 230.669
39.44000 239.014
39.46000 251.532
39.48000 258.000
39.50000 268.929
39.52000 277.874
39.54000 289.256
39.56000 307.758
39.58000 322.846
39.60000 327.360
39.62000 343.330
39.64000 357.677
39.66000 376.922
39.68000 408.933
39.70000 423.447
39.72000 449.839
39.74000 454.222
39.76000 478.623
39.78000 491.190
39.80000 515.924
39.82000 541.376
39.84000 565.495
39.86000 598.746
39.88000 626.356
39.90000 643.192
39.92000 653.790
39.94000 664.863
39.96000 695.114
39.98000 721.749
40.00000 731.466
40.02000 750.787
40.04000 759.277
40.06000 774.385
40.08000 788.875
40.10000 810.182
40.12000 806.271
40.14000 804.790
40.16000 803.867
40.18000 807.034
40.20000 803.959
40.22000 801.649
40.24000 808.532
40.26000 798.066
40.28000 796.204
40.30000 774.558
40.32000 758.078
40.34000 748.871
40.36000 730.225
40.38000 698.555
40.40000 677.310
40.42000 659.651
40.44000 642.743
40.46000 621.409
40.48000 605.713
40.50000 572.948
40.52000 552.808
40.54000 522.315
40.56000 506.024
40.58000 484.183
40.60000 470.373
40.62000 436.132
40.64000 410.930
40.66000 392.870
40.68000 367.580
40.70000 345.874
40.72000 331.830
40.74000 314.478
40.76000 303.409
40.78000 286.806
40.80000 261.009
40.82000 245.564
40.84000 235.344
40.86000 220.197
40.88000 209.785
40.90000 196.997
40.92000 192.297
40.94000 177.398
40.96000 170.421
40.98000 158.961
41.00000 145.529
41.02000 141.564
41.04000 129.934
41.06000 120.600
41.08000 121.609
41.10000 115.890
41.12000 106.951
41.14000 96.190
41.16000 97.657
41.18000 88.347
41.20000 79.945
41.22000 75.495
41.24000 72.651
41.26000 67.854
41.28000 63.267
41.30000 61.141
41.32000 52.032
41.34000 54.051
41.36000 45.579
41.38000 44.270
41.40000 47.506
41.42000 43.895
41.44000 39.299
41.46000 37.472
41.48000 36.538
41.50000 40.450
41.52000 37.647
41.54000 36.570
41.56000 35.169
41.58000 31.477
41.60000 28.361
41.62000 26.920
41.64000 22.563
41.66000 25.514
41.68000 25.916
41.70000 21.450
41.72000 21.796
41.74000 22.232
41.76000 18.953
41.78000 14.442
41.80000 12.496
41.82000 10.157
41.84000 13.601
41.86000 5.704
41.88000 10.463
41.90000 11.126
41.92000 9.598
41.94000 9.238
41.96000 10.447
41.98000 10.385
42.00000 9.078
42.02000 7.518
42.04000 7.154
42.06000 9.079
42.08000 8.679
42.10000 5.802
42.12000 5.351
42.14000 2.696
42.16000 3.931
42.18000 6.665
42.20000 4.055
42.22000 3.134
42.24000 0.079
42.26000 3.620
42.28000 2.268
42.30000 3.484
42.32000 2.809
42.34000 -0.627
42.36000 3.162
42.38000 2.947
42.40000 0.121
42.42000 2.671
42.44000 5.094
42.46000 -1.114
42.48000 0.136
42.50000 4.429
42.52000 4.351
42.54000 2.936
42.56000 -0.852
42.58000 -1.296
42.60000 0.559
42.62000 4.328
42.64000 -1.284
42.66000 -3.683
42.68000 -1.408
42.70000 -0.864
42.72000 2.044
42.74000 2.594
42.76000 8.328
42.78000 3.202
42.80000 1.113
42.82000 0.799
42.84000 1.053
42.86000 5.378
42.88000 4.125
42.90000 -1.480
42.92000 -2.297
42.94000 2.525
42.96000 4.599
42.98000 4.025
43.00000 4.234
43.02000 3.095
43.04000 -0.390
43.06000 -1.632
43.08000 4.946
43.10000 4.514
43.12000 3.617
43.14000 6.572
43.16000 2.864
43.18000 -2.643
43.20000 0.001
43.22000 -0.718
43.24000 2.332
43.26000 -0.441
43.28000 -3.600
43.30000 1.934
43.32000 0.617
43.34000 -0.342
43.36000 1.472
43.38000 3.090
43.40000 1.652
43.42000 2.413
43.44000 4.749
43.46000 1.350
43.48000 3.783
43.50000 -1.641
43.52000 0.520
43.54000 6.832
43.56000 2.788
43.58000 -1.023
43.60000 1.762
43.62000 1.500
43.64000 0.939
43.66000 -1.596
43.68000 -3.579
43.70000 -0.135
43.72000 3.918
43.74000 3.294
43.76000 3.691
43.78000 2.389
43.80000 -0.785
43.82000 -3.453
43.84000 0.585
43.86000 1.143
43.88000 0.653
43.90000 -3.578
43.92000 -2.231
43.94000 3.503
43.96000 5.371
43.98000 6.483
44.00000 7.520
44.02000 6.446
44.04000 -2.622
44.06000 -0.249
44.08000 -0.149
44.10000 -2.597
44.12000 -0.103
44.14000 3.917
44.16000 2.132
44.18000 3.994
44.20000 3.620
44.22000 1.344
44.24000 4.063
44.26000 2.931
44.28000 3.500
44.30000 5.364
44.32000 4.317
44.34000 7.200
44.36000 4.532
44.38000 -3.600
44.40000 1.627
44.42000 3.489
44.44000 2.019
44.46000 2.491
44.48000 4.012
44.50000 5.755
44.52000 3.076
44.54000 9.303
44.56000 7.243
44.58000 1.228
44.60000 -0.577
44.62000 4.917
44.64000 3.845
44.66000 4.639
44.68000 7.000
44.70000 7.194
44.72000 5.622
44.74000 2.720
44.76000 6.336
44.78000 9.022
44.80000 4.565
44.82000 0.786
44.84000 7.461
44.86000 2.833
44.88000 3.395
44.90000 4.578
44.92000 7.197
44.94000 5.822
44.96000 3.664
44.98000 5.370
45.00000 6.028
45.02000 6.988
45.04000 8.894
45.06000 9.186
45.08000 7.423
45.10000 9.369
45.12000 14.333
45.14000 13.811
45.16000 11.598
45.18000 13.569
45.20000 11.473
45.22000 13.826
45.24000 12.870
45.26000 13.256
45.28000 14.206
45.30000 16.261
45.32000 14.793
45.34000 10.483
45.36000 9.763
45.38000 13.400
45.40000 18.320
45.42000 18.863
45.44000 21.332
45.46000 22.436
45.48000 24.434
45.50000 25.671
45.52000 23.434
45.54000 22.409
45.56000 21.713
45.58000 20.527
45.60000 21.127
45.62000 25.852
45.64000 26.395
45.66000 29.822
45.68000 29.307
45.70000 29.023
45.72000 29.934
45.74000 23.963
45.76000 34.186
45.78000 38.434
45.80000 37.761
45.82000 39.842
45.84000 36.066
45.86000 35.588
45.88000 31.426
45.90000 36.251
45.92000 37.577
45.94000 32.710
45.96000 36.779
45.98000 40.181
46.00000 45.801
46.02000 49.899
46.04000 56.030
46.06000 62.203
46.08000 53.571
46.10000 55.677
46.12000 48.522
46.14000 50.628
46.16000 55.064
46.18000 56.733
46.20000 70.728
46.22000 66.644
46.24000 67.847
46.26000 64.268
46.28000 68.593
46.30000 76.060
46.32000 72.178
46.34000 71.320
46.36000 72.680
46.38000 70.628
46.40000 66.734
46.42000 72.969
46.44000 70.295
46.46000 71.025
46.48000 73.366
46.50000 72.787
46.52000 78.961
46.54000 86.086
46.56000 93.745
46.58000 89.012
46.60000 85.666
46.62000 82.404
46.64000 89.163
46.66000 84.434
46.68000 83.919
46.70000 90.474
46.72000 84.453
46.74000 84.193
46.76000 79.477
46.78000 80.587
46.80000 87.386
46.82000 88.011
46.84000 89.460
46.86000 93.133
46.88000 87.879
46.90000 81.923
46.92000 83.352
46.94000 87.045
46.96000 83.701
46.98000 84.370
47.00000 79.954
47.02000 71.812
47.04000 72.424
47.06000 74.633
47.08000 72.230
47.10000 75.600
47.12000 76.489
47.14000 71.327
47.16000 67.766
47.18000 64.306
47.20000 72.204
47.22000 66.646
47.24000 57.167
47.26000 58.685
47.28000 54.977
47.30000 49.248
47.32000 61.940
47.34000 60.552
47.36000 57.309
47.38000 57.502
47.40000 53.980
47.42000 49.435
47.44000 43.838
47.46000 45.907
47.48000 43.014
47.50000 42.838
47.52000 44.169
47.54000 52.385
47.56000 44.822
47.58000 36.246
47.60000 31.767
47.62000 33.055
47.64000 31.861
47.66000 21.036
47.68000 19.468
47.70000 20.348
47.72000 24.035
47.74000 24.359
47.76000 22.259
47.78000 21.143
47.80000 20.271
47.82000 23.264
47.84000 14.743
47.86000 11.824
47.88000 13.701
47.90000 18.786
47.92000 19.340
47.94000 12.054
47.96000 17.937
47.98000 16.602
48.00000 10.691
48.02000 12.298
48.04000 7.750
48.06000 6.273
48.08000 7.847
48.10000 7.633
48.12000 13.162
48.14000 14.001
48.16000 15.316
48.18000 12.093
48.20000 8.500
48.22000 8.436
48.24000 8.959
48.26000 11.640
48.28000 10.080
48.30000 8.909
48.32000 8.523
48.34000 11.071
48.36000 8.849
48.38000 5.765
48.40000 10.980
48.42000 11.950
48.44000 4.181
48.46000 3.418
48.48000 4.649
48.50000 3.302
48.52000 2.112
48.54000 7.547
48.56000 8.863
48.58000 1.374
48.60000 3.138
48.62000 11.298
48.64000 5.544
48.66000 1.155
48.68000 10.367
48.70000 5.805
48.72000 -2.108
48.74000 -3.225
48.76000 -2.269
48.78000 1.238
48.80000 8.191
48.82000 10.228
48.84000 9.203
48.86000 1.535
48.88000 3.550
48.90000 1.300
48.92000 3.066
48.94000 7.565
48.96000 8.420
48.98000 8.181
49.00000 11.828
49.02000 1.270
49.04000 4.974
49.06000 2.126
49.08000 2.202
49.10000 7.368
49.12000 2.094
49.14000 -0.052
49.16000 5.643
49.18000 1.264
49.20000 -2.879
49.22000 -2.560
49.24000 -2.201
49.26000 1.912
49.28000 5.069
49.30000 5.409
49.32000 2.546
49.34000 2.113
49.36000 11.296
49.38000 13.202
49.40000 0.810
49.42000 -1.446
49.44000 4.076
49.46000 9.353
49.48000 4.320
49.50000 4.521
49.52000 7.625
49.54000 8.831
49.56000 5.193
49.58000 4.975
49.60000 5.115
49.62000 2.749
49.64000 1.615
49.66000 6.822
49.68000 1.968
49.70000 1.087
49.72000 0.025
49.74000 1.508
49.76000 4.460
49.78000 6.517
49.80000 5.942
49.82000 7.203
49.84000 6.415
49.86000 4.562
49.88000 2.831
49.90000 4.152
49.92000 2.868
49.94000 2.067
49.96000 5.333
49.98000 0.748
50.00000 -3.096
50.02000 1.459
50.04000 6.800
50.06000 5.763
50.08000 4.246
50.10000 2.397
50.12000 -1.595
50.14000 5.116
50.16000 3.501
50.18000 0.092
50.20000 3.333
50.22000 5.940
50.24000 9.686
50.26000 8.758
50.28000 8.151
50.30000 4.747
50.32000 6.671
50.34000 2.645
50.36000 1.551
50.38000 1.767
50.40000 5.378
50.42000 8.418
50.44000 3.609
50.46000 0.948
50.48000 1.701
50.50000 6.394
50.52000 2.596
50.54000 0.901
50.56000 1.534
50.58000 2.633
50.60000 6.096
50.62000 3.566
50.64000 4.369
50.66000 9.189
50.68000 10.128
50.70000 12.700
50.72000 6.405
50.74000 4.023
50.76000 2.568
50.78000 4.068
50.80000 6.193
50.82000 2.869
50.84000 -2.133
50.86000 1.859
50.88000 4.717
50.90000 4.367
50.92000 5.047
50.94000 6.268
50.96000 3.662
50.98000 9.114
51.00000 3.241
51.02000 2.608
51.04000 3.570
51.06000 7.992
51.08000 5.494
51.10000 4.689
51.12000 5.447
51.14000 3.698
51.16000 8.602
51.18000 9.060
51.20000 9.974
51.22000 9.680
51.24000 1.335
51.26000 -1.190
51.28000 -2.249
51.30000 -1.753
51.32000 2.265
51.34000 -0.951
51.36000 -0.252
51.38000 -0.759
51.40000 1.956
51.42000 -1.074
51.44000 0.415
51.46000 6.692
51.48000 7.474
51.50000 6.079
51.52000 0.773
51.54000 7.187
51.56000 8.061
51.58000 8.338
51.60000 -0.123
51.62000 1.757
51.64000 4.100
51.66000 6.452
51.68000 11.208
51.70000 4.669
51.72000 1.595
51.74000 0.413
51.76000 4.280
51.78000 2.219
51.80000 11.687
51.82000 18.396
51.84000 9.256
51.86000 2.672
51.88000 6.537
51.90000 3.277
51.92000 2.913
51.94000 5.381
51.96000 4.950
51.98000 0.800
52.00000 6.314
52.02000 6.654
52.04000 5.956
52.06000 8.921
52.08000 3.665
52.10000 3.829
52.12000 7.211
52.14000 6.604
52.16000 8.203
52.18000 7.610
52.20000 9.068
52.22000 14.487
52.24000 6.962
52.26000 -1.293
52.28000 -2.946
52.30000 5.842
52.32000 9.403
52.34000 11.989
52.36000 7.218
52.38000 3.887
52.40000 3.391
52.42000 5.220
52.44000 9.902
52.46000 2.342
52.48000 1.498
52.50000 6.237
52.52000 5.327
52.54000 6.725
52.56000 6.296
52.58000 7.612
52.60000 7.645
52.62000 4.609
52.64000 6.759
52.66000 7.252
52.68000 5.448
52.70000 6.949
52.72000 4.432
52.74000 1.396
52.76000 2.874
52.78000 3.992
52.80000 2.144
52.82000 1.390
52.84000 3.104
52.86000 6.111
52.88000 5.013
52.90000 6.041
52.92000 8.320
52.94000 6.209
52.96000 3.979
52.98000 6.767
53.00000 5.798
53.02000 5.175
53.04000 3.422
53.06000 5.466
53.08000 7.605
53.10000 10.494
53.12000 8.723
53.14000 8.873
53.16000 2.415
53.18000 3.845
53.20000 1.598
53.22000 1.229
53.24000 5.313
53.26000 5.662
53.28000 2.928
53.30000 5.186
53.32000 6.421
53.34000 2.254
53.36000 5.118
53.38000 6.186
53.40000 2.614
53.42000 3.070
53.44000 2.000
53.46000 4.652
53.48000 0.087
53.50000 3.248
53.52000 6.776
53.54000 5.155
53.56000 8.311
53.58000 10.696
53.60000 6.070
53.62000 4.626
53.64000 5.167
53.66000 3.562
53.68000 1.950
53.70000 2.679
53.72000 5.274
53.74000 8.658
53.76000 8.897
53.78000 4.808
53.80000 1.131
53.82000 1.168
53.84000 -0.032
53.86000 1.631
53.88000 3.803
53.90000 3.970
53.92000 5.566
53.94000 -0.662
53.96000 4.250
53.98000 4.985
54.00000 5.643
54.02000 3.707
54.04000 3.739
54.06000 0.988
54.08000 -2.958
54.10000 4.911
54.12000 4.974
54.14000 2.079
54.16000 -1.458
54.18000 1.866
54.20000 5.312
54.22000 7.041
54.24000 1.892
54.26000 1.825
54.28000 2.400
54.30000 2.393
54.32000 4.498
54.34000 5.878
54.36000 6.643
54.38000 9.618
54.40000 4.621
54.42000 7.580
54.44000 5.738
54.46000 5.268
54.48000 6.137
54.50000 4.558
54.52000 2.119
54.54000 1.695
54.56000 4.101
54.58000 3.273
54.60000 5.639
54.62000 5.394
54.64000 -0.152
54.66000 -0.190
54.68000 3.752
54.70000 3.876
54.72000 -0.503
54.74000 4.924
54.76000 4.088
54.78000 6.333
54.80000 7.929
54.82000 3.223
54.84000 1.341
54.86000 1.480
54.88000 -2.150
54.90000 6.176
54.92000 1.429
54.94000 5.738
54.96000 5.454
54.98000 3.663
55.00000 -1.160
55.02000 -0.158
55.04000 -1.287
55.06000 -1.531
55.08000 0.786
55.10000 2.760
55.12000 2.266
55.14000 2.608
55.16000 1.900
55.18000 5.467
55.20000 0.946
55.22000 -0.941
55.24000 0.432
55.26000 2.164
55.28000 5.102
55.30000 5.312
55.32000 -0.413
55.34000 -0.417
55.36000 5.336
55.38000 9.184
55.40000 10.752
55.42000 9.932
55.44000 -0.821
55.46000 0.238
55.48000 0.397
55.50000 2.299
55.52000 0.430
55.54000 3.045
55.56000 0.302
55.58000 0.837
55.60000 2.570
55.62000 1.685
55.64000 7.586
55.66000 5.328
55.68000 3.023
55.70000 -0.037
55.72000 0.512
55.74000 -2.917
55.76000 -0.218
55.78000 2.932
55.80000 -0.051
55.82000 4.898
55.84000 2.405
55.86000 1.601
55.88000 5.191
55.90000 -1.179
55.92000 -2.505
55.94000 -1.498
55.96000 -2.212
55.98000 5.815
56.00000 9.904
56.02000 8.758
56.04000 6.145
56.06000 4.879
56.08000 4.669
56.10000 3.268
56.12000 0.538
56.14000 1.611
56.16000 3.924
56.18000 5.757
56.20000 9.257
56.22000 4.322
56.24000 4.041
56.26000 7.606
56.28000 6.082
56.30000 4.077
56.32000 1.609
56.34000 3.268
56.36000 1.738
56.38000 2.241
56.40000 4.823
56.42000 1.214
56.44000 0.254
56.46000 0.503
56.48000 4.567
56.50000 3.611
56.52000 3.550
56.54000 4.805
56.56000 3.556
56.58000 5.443
56.60000 3.023
56.62000 4.193
56.64000 4.241
56.66000 -2.231
56.68000 0.219
56.70000 5.591
56.72000 7.376
56.74000 7.453
56.76000 6.022
56.78000 7.562
56.80000 8.614
56.82000 8.746
56.84000 8.243
56.86000 12.922
56.88000 9.401
56.90000 6.139
56.92000 1.150
56.94000 0.130
56.96000 6.815
56.98000 7.988
57.00000 9.710
57.02000 0.850
57.04000 5.168
57.06000 11.201
57.08000 9.879
57.10000 4.806
57.12000 3.186
57.14000 1.114
57.16000 1.242
57.18000 4.087
57.20000 6.379
57.22000 6.500
57.24000 7.296
57.26000 8.295
57.28000 2.884
57.30000 -2.823
57.32000 -0.111
57.34000 0.512
57.36000 -0.483
57.38000 4.366
57.40000 6.688
57.42000 5.527
57.44000 7.346
57.46000 5.353
57.48000 2.973
57.50000 4.835
57.52000 8.154
57.54000 3.756
57.56000 4.425
57.58000 5.294
57.60000 4.144
57.62000 2.229
57.64000 4.061
57.66000 6.618
57.68000 7.305
57.70000 7.672
57.72000 9.127
57.74000 6.845
57.76000 0.633
57.78000 2.505
57.80000 5.748
57.82000 4.261
57.84000 1.184
57.86000 0.930
57.88000 1.934
57.90000 3.245
57.92000 9.060
57.94000 8.963
57.96000 8.680
57.98000 6.286
58.00000 5.733
58.02000 3.664
58.04000 1.528
58.06000 6.498
58.08000 2.510
58.10000 7.996
58.12000 6.770
58.14000 10.543
58.16000 8.888
58.18000 2.129
58.20000 7.423
58.22000 11.338
58.24000 10.437
58.26000 5.329
58.28000 1.437
58.30000 5.243
58.32000 5.558
58.34000 6.086
58.36000 7.034
58.38000 8.703
58.40000 7.761
58.42000 5.082
58.44000 5.961
58.46000 7.398
58.48000 4.208
58.50000 5.588
58.52000 10.170
58.54000 6.454
58.56000 2.285
58.58000 4.004
58.60000 4.636
58.62000 -2.795
58.64000 -0.495
58.66000 2.239
58.68000 3.058
58.70000 2.403
58.72000 9.130
58.74000 3.014
58.76000 2.430
58.78000 5.520
58.80000 9.935
58.82000 13.137
58.84000 10.014
58.86000 4.254
58.88000 3.633
58.90000 3.653
58.92000 5.484
58.94000 5.534
58.96000 2.902
58.98000 2.942
59.00000 -2.794
59.02000 2.822
59.04000 6.679
59.06000 7.988
59.08000 9.093
59.10000 10.546
59.12000 10.700
59.14000 1.084
59.16000 1.718
59.18000 6.698
59.20000 3.028
59.22000 0.822
59.24000 3.620
59.26000 3.861
59.28000 0.108
59.30000 3.334
59.32000 9.895
59.34000 7.974
59.36000 5.674
59.38000 5.299
59.40000 4.779
59.42000 3.049
59.44000 3.379
59.46000 0.627
59.48000 1.656
59.50000 4.196
59.52000 2.994
59.54000 2.938
59.56000 6.226
59.58000 3.891
59.60000 4.471
59.62000 -0.160
59.64000 -0.133
59.66000 7.243
59.68000 2.262
59.70000 1.693
59.72000 10.277
59.74000 7.906
59.76000 7.810
59.78000 9.207
59.80000 4.831
59.82000 0.290
59.84000 5.170
59.86000 3.824
59.88000 5.481
59.90000 4.227
59.92000 1.777
59.94000 3.222
59.96000 4.511
59.98000 5.442
60.00000 8.128
60.02000 9.147
60.04000 5.765
60.06000 2.584
60.08000 3.646
60.10000 0.903
60.12000 5.923
60.14000 4.519
60.16000 1.001
60.18000 4.952
60.20000 0.005
60.22000 1.814
60.24000 5.692
60.26000 6.932
60.28000 5.242
60.30000 4.684
60.32000 4.970
60.34000 1.336
60.36000 -2.751
60.38000 2.121
60.40000 3.897
60.42000 5.410
60.44000 6.242
60.46000 5.964
60.48000 4.025
60.50000 3.822
60.52000 4.511
60.54000 6.158
60.56000 4.073
60.58000 4.608
60.60000 1.006
60.62000 -0.936
60.64000 1.262
60.66000 -0.790
60.68000 0.542
60.70000 4.701
60.72000 3.485
60.74000 1.171
60.76000 3.612
60.78000 3.686
60.80000 3.800
60.82000 1.696
60.84000 4.186
60.86000 5.554
60.88000 4.571
60.90000 -0.369
60.92000 2.284
60.94000 6.753
60.96000 1.288
60.98000 0.841
61.00000 -0.435
61.02000 4.795
61.04000 3.074
61.06000 -0.039
61.08000 2.012
61.10000 2.337
61.12000 2.621
61.14000 4.782
61.16000 3.948
61.18000 2.802
61.20000 5.619
61.22000 5.184
61.24000 4.373
61.26000 3.920
61.28000 2.250
61.30000 0.918
61.32000 -0.644
61.34000 -0.131
61.36000 1.579
61.38000 1.138
61.40000 3.602
61.42000 1.350
61.44000 1.055
61.46000 1.435
61.48000 0.824
61.50000 -0.896
61.52000 -0.645
61.54000 -2.530
61.56000 6.654
61.58000 7.789
61.60000 9.017
61.62000 5.059
61.64000 3.394
61.66000 3.285
61.68000 2.555
61.70000 1.102
61.72000 2.505
61.74000 -0.942
61.76000 -2.725
61.78000 -1.171
61.80000 -0.038
61.82000 -0.322
61.84000 1.357
61.86000 0.748
61.88000 3.059
61.90000 5.443
61.92000 7.269
61.94000 5.119
61.96000 0.549
61.98000 0.881
62.00000 2.856
62.02000 5.756
62.04000 5.745
62.06000 1.465
62.08000 1.483
62.10000 1.693
62.12000 0.018
62.14000 0.390
62.16000 -0.951
62.18000 5.556
62.20000 1.448
62.22000 2.653
62.24000 5.149
62.26000 6.899
62.28000 0.107
62.30000 0.704
62.32000 1.943
62.34000 3.050
62.36000 1.704
62.38000 -2.722
62.40000 -0.644
62.42000 -2.446
62.44000 1.556
62.46000 3.907
62.48000 3.050
62.50000 5.562
62.52000 0.792
62.54000 -0.434
62.56000 0.787
62.58000 2.868
62.60000 0.015
62.62000 -0.521
62.64000 -2.569
62.66000 -1.968
62.68000 -1.143
62.70000 1.310
62.72000 3.539
62.74000 1.185
62.76000 0.945
62.78000 -2.118
62.80000 -2.207
62.82000 1.573
62.84000 -1.865
62.86000 1.735
62.88000 3.491
62.90000 1.624
62.92000 0.567
62.94000 0.432
62.96000 -0.401
62.98000 1.398
63.00000 3.786
63.02000 1.456
63.04000 1.012
63.06000 1.323
63.08000 0.731
63.10000 5.633
63.12000 3.774
63.14000 2.460
63.16000 -0.726
63.18000 2.205
63.20000 0.656
63.22000 0.921
63.24000 -0.309
63.26000 2.449
63.28000 1.905
63.30000 2.872
63.32000 3.599
63.34000 3.301
63.36000 4.941
63.38000 1.560
63.40000 5.432
63.42000 6.067
63.44000 5.173
63.46000 1.789
63.48000 4.089
63.50000 5.351
63.52000 5.288
63.54000 -1.058
63.56000 -2.713
63.58000 4.158
63.60000 1.135
63.62000 3.072
63.64000 -0.930
63.66000 3.255
63.68000 5.284
63.70000 4.950
63.72000 0.506
63.74000 -2.146
63.76000 2.039
63.78000 -0.204
63.80000 3.667
63.82000 3.930
63.84000 4.050
63.86000 3.698
63.88000 2.647
63.90000 4.411
63.92000 2.584
63.94000 0.240
63.96000 -1.803
63.98000 3.384
64.00000 0.889
64.02000 2.561
64.04000 3.316
64.06000 0.821
64.08000 0.771
64.10000 1.608
64.12000 2.371
64.14000 5.203
64.16000 6.881
64.18000 4.049
64.20000 4.671
64.22000 5.324
64.24000 4.899
64.26000 2.361
64.28000 0.018
64.30000 1.983
64.32000 4.860
64.34000 -1.269
64.36000 0.904
64.38000 9.241
64.40000 8.930
64.42000 3.889
64.44000 1.556
64.46000 -2.113
64.48000 0.757
64.50000 4.452
64.52000 6.115
64.54000 5.717
64.56000 -0.215
64.58000 2.183
64.60000 1.770
64.62000 1.661
64.64000 5.333
64.66000 3.908
64.68000 3.766
64.70000 3.581
64.72000 3.911
64.74000 0.308
64.76000 1.668
64.78000 0.449
64.80000 2.829
64.82000 2.025
64.84000 5.468
64.86000 2.598
64.88000 3.761
64.90000 4.088
64.92000 1.063
64.94000 -2.733
64.96000 0.398
64.98000 -1.332
65.00000 1.000
65.02000 1.951
65.04000 1.167
65.06000 2.497
65.08000 1.491
65.10000 5.805
65.12000 6.525
65.14000 7.065
65.16000 4.270
65.18000 5.899
65.20000 -0.036
65.22000 -2.730
65.24000 0.768
65.26000 5.495
65.28000 4.322
65.30000 5.435
65.32000 3.792
65.34000 2.987
65.36000 5.303
65.38000 2.032
65.40000 -1.565
65.42000 3.778
65.44000 2.904
65.46000 0.924
65.48000 2.108
65.50000 0.658
65.52000 4.181
65.54000 6.073
65.56000 4.911
65.58000 0.903
65.60000 0.224
65.62000 -2.747
65.64000 -1.393
65.66000 3.618
65.68000 5.351
65.70000 8.226
65.72000 12.280
65.74000 4.798
65.76000 5.329
65.78000 6.133
65.80000 5.119
65.82000 2.832
65.84000 -0.015
65.86000 2.173
65.88000 2.753
65.90000 4.102
65.92000 1.248
65.94000 5.820
65.96000 5.254
65.98000 2.444
66.00000 2.143
66.02000 -1.146
66.04000 1.632
66.06000 3.217
66.08000 4.901
66.10000 2.564
66.12000 5.404
66.14000 3.985
66.16000 2.416
66.18000 2.279
66.20000 6.477
66.22000 4.608
66.24000 4.412
66.26000 2.216
66.28000 4.421
66.30000 6.992
66.32000 8.658
66.34000 5.962
66.36000 1.129
66.38000 1.199
66.40000 2.140
66.42000 2.154
66.44000 1.605
66.46000 1.579
66.48000 2.751
66.50000 3.315
66.52000 3.985
66.54000 2.887
66.56000 3.034
66.58000 2.483
66.60000 2.379
66.62000 3.318
66.64000 4.354
66.66000 4.977
66.68000 8.162
66.70000 5.916
66.72000 2.605
66.74000 -2.835
66.76000 1.694
66.78000 4.248
66.80000 3.415
66.82000 8.238
66.84000 9.301
66.86000 11.047
66.88000 8.086
66.90000 2.901
66.92000 5.496
66.94000 7.955
66.96000 13.001
66.98000 11.199
67.00000 8.165
67.02000 7.816
67.04000 8.861
67.06000 10.994
67.08000 8.402
67.10000 6.832
67.12000 11.082
67.14000 13.318
67.16000 11.163
67.18000 7.434
67.20000 11.640
67.22000 8.892
67.24000 9.376
67.26000 8.897
67.28000 11.387
67.30000 11.451
67.32000 11.926
67.34000 13.788
67.36000 17.675
67.38000 14.174
67.40000 9.761
67.42000 12.179
67.44000 13.678
67.46000 15.005
67.48000 16.400
67.50000 16.610
67.52000 12.647
67.54000 15.616
67.56000 15.646
67.58000 15.172
67.60000 14.511
67.62000 12.739
67.64000 16.610
67.66000 22.033
67.68000 21.983
67.70000 19.449
67.72000 20.459
67.74000 20.000
67.76000 17.447
67.78000 18.663
67.80000 20.763
67.82000 22.321
67.84000 23.358
67.86000 25.041
67.88000 28.116
67.90000 26.441
67.92000 25.857
67.94000 26.947
67.96000 23.164
67.98000 23.741
68.00000 26.008
68.02000 22.891
68.04000 27.146
68.06000 27.110
68.08000 23.069
68.10000 23.437
68.12000 26.165
68.14000 23.899
68.16000 23.906
68.18000 24.110
68.20000 22.668
68.22000 25.453
68.24000 29.528
68.26000 27.149
68.28000 25.484
68.30000 21.365
68.32000 22.629
68.34000 23.586
68.36000 26.738
68.38000 29.213
68.40000 31.439
68.42000 31.172
68.44000 25.146
68.46000 25.347
68.48000 27.497
68.50000 27.374
68.52000 25.096
68.54000 24.494
68.56000 23.357
68.58000 23.757
68.60000 23.370
68.62000 25.168
68.64000 30.751
68.66000 28.853
68.68000 20.398
68.70000 18.530
68.72000 21.191
68.74000 22.405
68.76000 18.661
68.78000 17.430
68.80000 16.895
68.82000 16.088
68.84000 16.577
68.86000 16.435
68.88000 13.487
68.90000 18.529
68.92000 17.762
68.94000 10.553
68.96000 11.839
68.98000 15.009
69.00000 11.333
69.02000 17.042
69.04000 16.617
69.06000 9.084
69.08000 8.387
69.10000 11.971
69.12000 14.193
69.14000 10.269
69.16000 10.410
69.18000 10.671
69.20000 7.925
69.22000 4.398
69.24000 5.226
69.26000 2.427
69.28000 9.121
69.30000 11.654
69.32000 6.014
69.34000 1.859
69.36000 3.587
69.38000 5.197
69.40000 0.855
69.42000 -2.787
69.44000 -0.967
69.46000 -1.030
69.48000 1.597
69.50000 0.462
69.52000 4.932
69.54000 5.193
69.56000 0.344
69.58000 2.083
69.60000 1.369
69.62000 4.106
69.64000 2.310
69.66000 3.378
69.68000 4.539
69.70000 3.209
69.72000 0.530
69.74000 -0.649
69.76000 0.142
69.78000 6.087
69.80000 2.596
69.82000 -2.308
69.84000 -0.513
69.86000 1.177
69.88000 0.013
69.90000 -1.394
69.92000 1.017
69.94000 -0.405
69.96000 0.331
69.98000 1.662
70.00000 5.972
70.02000 2.702
70.04000 -2.374
70.06000 -2.703
70.08000 3.834
70.10000 4.907
70.12000 -1.024
70.14000 -0.187
70.16000 -2.120
70.18000 3.258
70.20000 2.822
70.22000 5.597
70.24000 -1.416
70.26000 -1.889
70.28000 -0.536
70.30000 2.876
70.32000 4.355
70.34000 -0.360
70.36000 0.221
70.38000 4.388
70.40000 3.827
70.42000 4.763
70.44000 9.011
70.46000 4.716
70.48000 2.754
70.50000 4.865
70.52000 2.138
70.54000 4.569
70.56000 2.418
70.58000 -2.626
70.60000 -0.120
70.62000 3.775
70.64000 4.283
70.66000 2.087
70.68000 1.006
70.70000 1.099
70.72000 1.376
70.74000 1.218
70.76000 8.398
70.78000 8.675
70.80000 7.622
70.82000 -0.331
70.84000 3.444
70.86000 1.496
70.88000 5.569
70.90000 5.695
70.92000 2.089
70.94000 3.211
70.96000 2.071
70.98000 -2.584
71.00000 0.325
71.02000 4.615
71.04000 6.498
71.06000 5.842
71.08000 3.815
71.10000 9.841
71.12000 9.911
71.14000 3.510
71.16000 3.740
71.18000 1.289
71.20000 4.973
71.22000 5.160
71.24000 5.123
71.26000 1.467
71.28000 6.601
71.30000 7.497
71.32000 5.743
71.34000 2.297
71.36000 -0.801
71.38000 3.570
71.40000 1.928
71.42000 11.310
71.44000 5.712
71.46000 1.890
71.48000 -1.617
71.50000 2.963
71.52000 2.886
71.54000 1.716
71.56000 8.267
71.58000 7.595
71.60000 2.440
71.62000 4.136
71.64000 1.339
71.66000 2.170
71.68000 5.160
71.70000 -0.637
71.72000 -0.390
71.74000 -0.395
71.76000 0.756
71.78000 -0.497
71.80000 1.122
71.82000 2.731
71.84000 2.732
71.86000 2.860
71.88000 -2.574
71.90000 0.491
71.92000 2.095
71.94000 1.864
71.96000 -1.234
71.98000 1.042
72.00000 3.531
72.02000 4.538
72.04000 0.309
72.06000 -1.549
72.08000 0.976
72.10000 5.888
72.12000 6.122
72.14000 5.566
72.16000 5.528
72.18000 7.396
72.20000 4.918
72.22000 3.019
72.24000 1.834
72.26000 -2.552
72.28000 0.424
72.30000 3.004
72.32000 1.494
72.34000 -1.571
72.36000 4.399
72.38000 1.290
72.40000 2.508
72.42000 -1.177
72.44000 2.773
72.46000 2.584
72.48000 2.839
72.50000 4.084
72.52000 5.553
72.54000 4.451
72.56000 3.392
72.58000 1.066
72.60000 -2.440
72.62000 0.374
72.64000 1.032
72.66000 0.440
72.68000 2.271
72.70000 0.291
72.72000 4.677
72.74000 6.572
72.76000 6.613
72.78000 4.329
72.80000 -1.635
72.82000 0.004
72.84000 1.400
72.86000 -2.195
72.88000 4.424
72.90000 1.081
72.92000 3.567
72.94000 9.148
72.96000 7.344
72.98000 6.324
73.00000 5.730
73.02000 2.227
73.04000 -0.980
73.06000 1.963
73.08000 5.955
73.10000 2.521
73.12000 -2.359
73.14000 -1.661
73.16000 0.474
73.18000 2.376
73.20000 -1.395
73.22000 -1.384
73.24000 6.818
73.26000 4.316
73.28000 1.710
73.30000 -0.344
73.32000 2.630
73.34000 9.416
73.36000 10.284
73.38000 3.029
73.40000 0.914
73.42000 4.267
73.44000 6.945
73.46000 3.377
73.48000 2.971
73.50000 1.004
73.52000 -0.508
73.54000 0.213
73.56000 0.196
73.58000 2.324
73.60000 3.392
73.62000 6.448
73.64000 5.992
73.66000 4.068
73.68000 2.865
73.70000 0.598
73.72000 3.356
73.74000 2.071
73.76000 2.646
73.78000 1.788
73.80000 -2.482
73.82000 1.577
73.84000 2.851
73.86000 0.842
73.88000 5.978
73.90000 8.326
73.92000 3.485
73.94000 1.220
73.96000 4.260
73.98000 6.423
74.00000 7.071
74.02000 7.239
74.04000 4.522
74.06000 3.276
74.08000 3.343
74.10000 5.697
74.12000 6.936
74.14000 7.609
74.16000 4.247
74.18000 4.169
74.20000 4.636
74.22000 5.359
74.24000 9.220
74.26000 11.843
74.28000 7.474
74.30000 8.449
74.32000 10.514
74.34000 7.029
74.36000 0.789
74.38000 -2.449
74.40000 -1.101
74.42000 0.398
74.44000 3.125
74.46000 9.999
74.48000 7.614
74.50000 6.548
74.52000 5.989
74.54000 2.919
74.56000 2.786
74.58000 7.178
74.60000 6.908
74.62000 3.711
74.64000 -2.040
74.66000 5.091
74.68000 5.975
74.70000 5.172
74.72000 2.321
74.74000 2.009
74.76000 1.633
74.78000 4.106
74.80000 8.258
74.82000 5.006
74.84000 -0.465
74.86000 0.797
74.88000 1.532
74.90000 0.806
74.92000 8.580
74.94000 5.796
74.96000 1.986
74.98000 1.403
75.00000 2.058
75.02000 0.044
75.04000 3.377
75.06000 6.587
75.08000 11.346
75.10000 5.649
75.12000 1.603
75.14000 -2.500
75.16000 4.692
75.18000 1.896
75.20000 2.287
75.22000 2.265
75.24000 6.396
75.26000 8.240
75.28000 4.952
75.30000 4.510
75.32000 2.071
75.34000 -0.824
75.36000 -0.080
75.38000 -0.114
75.40000 0.615
75.42000 7.912
75.44000 8.425
75.46000 10.237
75.48000 7.244
75.50000 3.564
75.52000 1.664
75.54000 2.047
75.56000 2.813
75.58000 2.992
75.60000 2.506
75.62000 2.736
75.64000 6.980
75.66000 10.295
75.68000 5.365
75.70000 3.561
75.72000 5.900
75.74000 6.879
75.76000 4.543
75.78000 1.408
75.80000 0.554
75.82000 -2.523
75.84000 -0.916
75.86000 4.913
75.88000 7.409
75.90000 6.123
75.92000 5.578
75.94000 5.009
75.96000 2.320
75.98000 -0.112
76.00000 2.263
76.02000 7.813
76.04000 8.249
76.06000 7.764
76.08000 1.117
76.10000 -0.763
76.12000 0.965
76.14000 1.968
76.16000 -1.358
76.18000 -1.564
76.20000 5.026
76.22000 4.113
76.24000 6.263
76.26000 8.530
76.28000 5.848
76.30000 -2.549
76.32000 3.738
76.34000 2.947
76.36000 1.992
76.38000 0.748
76.40000 2.646
76.42000 2.368
76.44000 2.977
76.46000 0.455
76.48000 -1.096
76.50000 2.009
76.52000 -2.558
76.54000 0.957
76.56000 7.980
76.58000 7.027
76.60000 0.837
76.62000 -0.048
76.64000 9.348
76.66000 5.958
76.68000 -1.544
76.70000 2.790
76.72000 1.318
76.74000 3.472
76.76000 -2.567
76.78000 2.823
76.80000 3.016
76.82000 5.369
76.84000 3.837
76.86000 2.104
76.88000 2.759
76.90000 3.996
76.92000 3.184
76.94000 -1.117
76.96000 -0.280
76.98000 5.381
77.00000 8.881
77.02000 5.687
77.04000 -1.941
77.06000 4.849
77.08000 8.581
77.10000 3.520
77.12000 -1.016
77.14000 -0.436
77.16000 4.423
77.18000 4.845
77.20000 1.984
77.22000 -1.987
77.24000 -0.702
77.26000 -1.105
77.28000 0.143
77.30000 2.536
77.32000 5.136
77.34000 4.463
77.36000 6.154
77.38000 -2.570
77.40000 2.461
77.42000 4.698
77.44000 2.196
77.46000 5.616
77.48000 5.085
77.50000 4.457
77.52000 4.706
77.54000 3.253
77.56000 6.718
77.58000 7.221
77.60000 6.373
77.62000 4.884
77.64000 2.376
77.66000 0.619
77.68000 3.680
77.70000 6.597
77.72000 0.926
77.74000 1.260
77.76000 4.189
77.78000 6.676
77.80000 9.862
77.82000 5.722
77.84000 3.462
77.86000 -0.612
77.88000 1.959
77.90000 7.115
77.92000 10.716
77.94000 10.753
77.96000 6.944
77.98000 2.080
78.00000 3.407
78.02000 2.135
78.04000 -0.438
78.06000 2.632
78.08000 -0.316
78.10000 -2.590
78.12000 -1.061
78.14000 7.742
78.16000 3.659
78.18000 3.468
78.20000 -2.345
78.22000 3.975
78.24000 0.478
78.26000 0.427
78.28000 -0.192
78.30000 3.349
78.32000 3.991
78.34000 4.352
78.36000 5.380
78.38000 1.571
78.40000 -0.154
78.42000 1.715
78.44000 3.921
78.46000 -0.861
78.48000 2.963
78.50000 0.721
78.52000 7.505
78.54000 4.360
78.56000 3.552
78.58000 3.968
78.60000 4.946
78.62000 1.541
78.64000 4.707
78.66000 4.748
78.68000 1.170
78.70000 3.225
78.72000 5.571
78.74000 1.241
78.76000 4.172
78.78000 7.887
78.80000 11.474
78.82000 5.109
78.84000 4.360
78.86000 6.043
78.88000 3.748
78.90000 5.779
78.92000 5.460
78.94000 3.706
78.96000 6.088
78.98000 4.548
79.00000 -0.636
79.02000 -2.586
79.04000 2.296
79.06000 4.243
79.08000 4.979
79.10000 4.037
79.12000 -1.153
79.14000 -2.509
79.16000 -2.596
79.18000 0.840
79.20000 5.353
79.22000 5.265
79.24000 11.029
79.26000 9.779
79.28000 3.133
79.30000 -0.561
79.32000 1.210
79.34000 4.541
79.36000 6.823
79.38000 8.086
79.40000 6.097
79.42000 3.377
79.44000 6.924
79.46000 6.965
79.48000 2.918
79.50000 3.370
79.52000 8.044
79.54000 6.109
79.56000 1.509
79.58000 2.633
79.60000 9.918
79.62000 2.015
79.64000 2.431
79.66000 4.847
79.68000 3.769
79.70000 3.403
79.72000 6.461
79.74000 10.501
79.76000 6.449
79.78000 0.734
79.80000 1.848
79.82000 3.108
79.84000 2.738
79.86000 4.605
79.88000 5.045
79.90000 7.333
79.92000 7.700
79.94000 5.508
79.96000 2.066
79.98000 1.085
80.00000 6.236
80.02000 10.345
80.04000 10.667
80.06000 9.276
80.08000 0.750
80.10000 2.606
80.12000 3.804
80.14000 4.724
80.16000 1.852
80.18000 0.866
80.20000 0.412
80.22000 1.544
80.24000 -2.685
80.26000 3.253
80.28000 4.096
80.30000 4.199
80.32000 4.611
80.34000 16.302
80.36000 14.884
80.38000 10.654
80.40000 7.724
80.42000 5.679
80.44000 4.215
80.46000 8.722
80.48000 11.055
80.50000 12.547
80.52000 8.653
80.54000 7.796
80.56000 5.631
80.58000 8.500
80.60000 2.432
80.62000 -0.063
80.64000 -0.692
80.66000 4.652
80.68000 13.338
80.70000 10.400
80.72000 11.653
80.74000 8.307
80.76000 7.618
80.78000 6.050
80.80000 6.286
80.82000 7.251
80.84000 10.928
80.86000 6.455
80.88000 4.275
80.90000 1.846
80.92000 6.890
80.94000 6.287
80.96000 9.944
80.98000 8.958
81.00000 12.279
81.02000 11.038
81.04000 7.106
81.06000 6.834
81.08000 9.193
81.10000 13.855
81.12000 17.601
81.14000 10.328
81.16000 13.350
81.18000 11.476
81.20000 13.961
81.22000 12.310
81.24000 12.721
81.26000 10.635
81.28000 9.080
81.30000 10.994
81.32000 14.546
81.34000 11.957
81.36000 11.904
81.38000 4.702
81.40000 8.101
81.42000 11.015
81.44000 14.471
81.46000 17.849
81.48000 16.302
81.50000 12.678
81.52000 8.596
81.54000 4.390
81.56000 12.571
81.58000 13.706
81.60000 17.603
81.62000 16.840
81.64000 17.221
81.66000 23.202
81.68000 26.180
81.70000 25.970
81.72000 27.760
81.74000 18.880
81.76000 20.031
81.78000 25.346
81.80000 23.194
81.82000 20.571
81.84000 17.124
81.86000 20.132
81.88000 18.919
81.90000 22.145
81.92000 23.868
81.94000 26.739
81.96000 24.820
81.98000 23.898
82.00000 21.117
82.02000 22.525
82.04000 21.960
82.06000 24.446
82.08000 16.315
82.10000 25.196
82.12000 25.664
82.14000 25.968
82.16000 25.329
82.18000 29.875
82.20000 26.576
82.22000 23.463
82.24000 29.344
82.26000 30.622
82.28000 29.699
82.30000 23.397
82.32000 20.846
82.34000 34.264
82.36000 31.210
82.38000 28.191
82.40000 32.646
82.42000 31.195
82.44000 33.165
82.46000 25.278
82.48000 25.041
82.50000 23.189
82.52000 21.783
82.54000 20.623
82.56000 25.175
82.58000 24.769
82.60000 27.623
82.62000 26.785
82.64000 28.656
82.66000 25.078
82.68000 28.258
82.70000 26.956
82.72000 25.007
82.74000 31.816
82.76000 28.539
82.78000 20.290
82.80000 23.767
82.82000 30.657
82.84000 27.085
82.86000 26.398
82.88000 22.137
82.90000 20.409
82.92000 23.708
82.94000 22.013
82.96000 18.809
82.98000 18.917
83.00000 24.547
83.02000 25.459
83.04000 22.001
83.06000 19.440
83.08000 20.511
83.10000 22.535
83.12000 20.931
83.14000 18.087
83.16000 16.203
83.18000 19.341
83.20000 15.791
83.22000 12.210
83.24000 11.462
83.26000 11.788
83.28000 11.869
83.30000 15.304
83.32000 19.489
83.34000 19.580
83.36000 15.698
83.38000 11.293
83.40000 10.483
83.42000 12.893
83.44000 11.442
83.46000 11.441
83.48000 14.854
83.50000 15.181
83.52000 11.591
83.54000 12.926
83.56000 15.428
83.58000 10.381
83.60000 6.941
83.62000 7.530
83.64000 7.223
83.66000 10.693
83.68000 6.156
83.70000 3.602
83.72000 9.315
83.74000 8.131
83.76000 -0.239
83.78000 1.873
83.80000 9.797
83.82000 7.862
83.84000 9.371
83.86000 7.886
83.88000 5.667
83.90000 7.123
83.92000 6.815
83.94000 2.226
83.96000 12.888
83.98000 8.074
84.00000 8.242
84.02000 7.161
84.04000 3.412
84.06000 -2.742
84.08000 -1.420
84.10000 5.185
84.12000 4.627
84.14000 2.777
84.16000 0.343
84.18000 6.070
84.20000 0.953
84.22000 0.568
84.24000 -1.476
84.26000 2.764
84.28000 5.812
84.30000 5.326
84.32000 2.825
84.34000 1.651
84.36000 8.590
84.38000 6.411
84.40000 4.230
84.42000 2.238
84.44000 1.655
84.46000 4.317
84.48000 6.615
84.50000 5.643
84.52000 1.978
84.54000 -1.022
84.56000 3.327
84.58000 6.443
84.60000 5.949
84.62000 5.455
84.64000 1.841
84.66000 3.758
84.68000 3.111
84.70000 -2.427
84.72000 -2.346
84.74000 -1.572
84.76000 -2.163
84.78000 -0.585
84.80000 -1.498
84.82000 -1.612
84.84000 3.931
84.86000 -0.482
84.88000 1.664
84.90000 4.098
84.92000 3.249
84.94000 5.153
84.96000 3.852
84.98000 1.987
85.00000 -2.714
85.02000 0.129
85.04000 -0.474
85.06000 0.953
85.08000 0.499
85.10000 0.842
85.12000 -0.222
85.14000 2.292
85.16000 5.295
85.18000 1.113
85.20000 2.940
85.22000 2.480
85.24000 1.590
85.26000 1.877
85.28000 0.659
85.30000 1.477
85.32000 1.769
85.34000 4.530
85.36000 1.739
85.38000 2.957
85.40000 3.156
85.42000 1.189
85.44000 5.407
85.46000 2.359
85.48000 0.771
85.50000 5.695
85.52000 10.148
85.54000 12.467
85.56000 12.964
85.58000 12.390
85.60000 5.540
85.62000 3.544
85.64000 4.734
85.66000 10.523
85.68000 7.617
85.70000 5.739
85.72000 1.752
85.74000 5.598
85.76000 7.937
85.78000 11.562
85.80000 12.778
85.82000 15.060
85.84000 13.678
85.86000 7.213
85.88000 5.823
85.90000 11.231
85.92000 13.345
85.94000 15.538
85.96000 17.529
85.98000 25.804
86.00000 19.896
86.02000 11.567
86.04000 17.035
86.06000 20.645
86.08000 20.146
86.10000 17.689
86.12000 21.967
86.14000 22.814
86.16000 15.060
86.18000 20.747
86.20000 22.148
86.22000 22.014
86.24000 23.869
86.26000 24.793
86.28000 22.876
86.30000 29.317
86.32000 27.247
86.34000 24.699
86.36000 30.309
86.38000 31.657
86.40000 36.510
86.42000 33.296
86.44000 33.485
86.46000 35.990
86.48000 31.211
86.50000 38.413
86.52000 39.314
86.54000 41.392
86.56000 37.842
86.58000 34.063
86.60000 34.754
86.62000 47.430
86.64000 43.520
86.66000 38.852
86.68000 32.953
86.70000 36.933
86.72000 37.719
86.74000 38.308
86.76000 41.234
86.78000 43.095
86.80000 44.771
86.82000 39.101
86.84000 35.977
86.86000 43.576
86.88000 45.641
86.90000 47.132
86.92000 45.652
86.94000 45.082
86.96000 40.826
86.98000 35.734
87.00000 39.969
87.02000 44.445
87.04000 37.717
87.06000 36.547
87.08000 40.660
87.10000 38.661
87.12000 34.776
87.14000 31.526
87.16000 35.953
87.18000 32.421
87.20000 29.766
87.22000 31.019
87.24000 31.548
87.26000 30.074
87.28000 34.877
87.30000 34.198
87.32000 32.237
87.34000 34.563
87.36000 30.541
87.38000 26.497
87.40000 28.366
87.42000 26.448
87.44000 27.812
87.46000 24.785
87.48000 23.667
87.50000 22.959
87.52000 17.019
87.54000 20.244
87.56000 26.913
87.58000 27.574
87.60000 22.114
87.62000 17.903
87.64000 16.592
87.66000 18.656
87.68000 17.249
87.70000 20.057
87.72000 19.012
87.74000 14.557
87.76000 14.213
87.78000 14.404
87.80000 8.233
87.82000 5.199
87.84000 14.378
87.86000 22.248
87.88000 19.348
87.90000 9.949
87.92000 11.482
87.94000 10.628
87.96000 15.390
87.98000 11.007
88.00000 5.878
88.02000 6.881
88.04000 8.786
88.06000 6.573
88.08000 13.642
88.10000 19.189
88.12000 11.076
88.14000 5.923
88.16000 10.666
88.18000 13.061
88.20000 14.039
88.22000 5.834
88.24000 4.487
88.26000 1.465
88.28000 3.120
88.30000 5.112
88.32000 7.163
88.34000 4.578
88.36000 2.519
88.38000 0.334
88.40000 6.306
88.42000 6.306
88.44000 1.422
88.46000 1.273
88.48000 7.351
88.50000 7.874
88.52000 9.440
88.54000 3.582
88.56000 0.100
88.58000 -2.477
88.60000 6.045
88.62000 9.962
88.64000 3.527
88.66000 6.794
88.68000 5.025
88.70000 3.315
88.72000 4.405
88.74000 6.523
88.76000 2.484
88.78000 -0.438
88.80000 5.510
88.82000 7.357
88.84000 3.460
88.86000 3.832
88.88000 3.567
88.90000 1.889
88.92000 2.243
88.94000 1.866
88.96000 -2.226
88.98000 -2.335
89.00000 -0.292
89.02000 1.944
89.04000 4.282
89.06000 2.945
89.08000 1.064
89.10000 2.437
89.12000 -1.067
89.14000 0.581
89.16000 2.126
89.18000 7.566
89.20000 3.447
89.22000 4.712
89.24000 7.241
89.26000 0.453
89.28000 1.841
89.30000 0.771
89.32000 0.814
89.34000 -1.440
89.36000 5.142
89.38000 7.789
89.40000 7.212
89.42000 4.083
89.44000 1.350
89.46000 -0.206
89.48000 1.242
89.50000 3.699
89.52000 4.016
89.54000 2.045
89.56000 1.216
89.58000 -2.406
89.60000 -0.908
89.62000 4.744
89.64000 1.863
89.66000 6.919
89.68000 8.055
89.70000 7.879
89.72000 5.560
89.74000 8.229
89.76000 4.687
89.78000 6.718
89.80000 7.195
89.82000 8.375
89.84000 6.599
89.86000 7.543
89.88000 -0.651
89.90000 1.979
89.92000 5.667
89.94000 0.242
89.96000 1.449
89.98000 7.163
90.00000 8.237
90.02000 7.369
90.04000 3.739
90.06000 -1.751
90.08000 -1.307
90.10000 6.468
90.12000 6.005
90.14000 9.180
90.16000 7.669
90.18000 7.757
90.20000 10.434
90.22000 0.507
90.24000 0.494
90.26000 3.714
90.28000 7.829
90.30000 8.330
90.32000 8.111
90.34000 4.624
90.36000 3.956
90.38000 -0.471
90.40000 -2.340
90.42000 -2.295
90.44000 7.653
90.46000 8.846
90.48000 6.277
90.50000 7.778
90.52000 2.461
90.54000 11.034
90.56000 13.021
90.58000 7.662
90.60000 5.406
90.62000 3.771
90.64000 4.434
90.66000 5.085
90.68000 1.814
90.70000 1.499
90.72000 -2.327
90.74000 -0.487
90.76000 4.597
90.78000 4.771
90.80000 5.989
90.82000 3.428
90.84000 3.595
90.86000 3.928
90.88000 3.718
90.90000 9.279
90.92000 9.200
90.94000 9.409
90.96000 7.394
90.98000 4.847
91.00000 2.449
91.02000 3.690
91.04000 2.355
91.06000 9.912
91.08000 8.027
91.10000 5.515
91.12000 3.886
91.14000 5.823
91.16000 2.243
91.18000 1.375
91.20000 4.026
91.22000 2.021
91.24000 4.881
91.26000 5.407
91.28000 3.380
91.30000 3.123
91.32000 5.627
91.34000 6.726
91.36000 5.474
91.38000 0.650
91.40000 2.194
91.42000 6.292
91.44000 6.557
91.46000 3.543
91.48000 1.628
91.50000 7.609
91.52000 7.324
91.54000 0.388
91.56000 4.553
91.58000 5.605
91.60000 2.245
91.62000 1.729
91.64000 2.233
91.66000 8.273
91.68000 7.743
91.70000 4.675
91.72000 2.258
91.74000 2.456
91.76000 5.713
91.78000 1.984
91.80000 3.906
91.82000 12.602
91.84000 13.013
91.86000 10.482
91.88000 8.033
91.90000 1.840
91.92000 0.409
91.94000 5.524
91.96000 8.753
91.98000 1.710
92.00000 5.043
92.02000 5.818
92.04000 4.259
92.06000 2.612
92.08000 2.754
92.10000 5.156
92.12000 4.927
92.14000 5.072
92.16000 8.852
92.18000 7.647
92.20000 2.494
92.22000 2.240
92.24000 8.403
92.26000 11.534
92.28000 6.059
92.30000 5.756
92.32000 3.990
92.34000 9.049
92.36000 7.584
92.38000 6.820
92.40000 8.985
92.42000 5.249
92.44000 -0.285
92.46000 2.774
92.48000 -0.255
92.50000 5.511
92.52000 10.409
92.54000 4.744
92.56000 4.215
92.58000 6.626
92.60000 6.497
92.62000 6.274
92.64000 -0.491
92.66000 -2.351
92.68000 2.986
92.70000 13.768
92.72000 10.801
92.74000 6.326
92.76000 7.107
92.78000 5.107
92.80000 10.171
92.82000 6.752
92.84000 8.659
92.86000 6.575
92.88000 3.498
92.90000 7.004
92.92000 12.290
92.94000 8.225
92.96000 2.437
92.98000 3.172
93.00000 6.247
93.02000 4.050
93.04000 6.413
93.06000 4.453
93.08000 9.113
93.10000 16.698
93.12000 7.572
93.14000 5.143
93.16000 4.026
93.18000 4.231
93.20000 6.844
93.22000 7.379
93.24000 4.621
93.26000 -1.263
93.28000 5.962
93.30000 12.387
93.32000 9.547
93.34000 10.372
93.36000 7.366
93.38000 1.485
93.40000 -0.468
93.42000 2.504
93.44000 5.951
93.46000 9.348
93.48000 3.576
93.50000 2.491
93.52000 1.134
93.54000 1.739
93.56000 5.290
93.58000 3.928
93.60000 5.919
93.62000 5.191
93.64000 8.263
93.66000 3.097
93.68000 4.176
93.70000 13.456
93.72000 4.910
93.74000 0.995
93.76000 -0.872
93.78000 3.424
93.80000 1.974
93.82000 6.998
93.84000 3.633
93.86000 1.465
93.88000 -2.406
93.90000 0.199
93.92000 4.479
93.94000 2.167
93.96000 -0.878
93.98000 5.182
94.00000 -2.114
94.02000 2.166
94.04000 3.106
94.06000 7.012
94.08000 7.983
94.10000 9.134
94.12000 10.802
94.14000 6.011
94.16000 1.442
94.18000 0.231
94.20000 -2.417
94.22000 1.559
94.24000 6.410
94.26000 9.391
94.28000 6.293
94.30000 9.388
94.32000 6.161
94.34000 7.383
94.36000 6.144
94.38000 4.957
94.40000 8.387
94.42000 4.860
94.44000 0.242
94.46000 -2.430
94.48000 1.315
94.50000 2.600
94.52000 3.846
94.54000 9.258
94.56000 5.859
94.58000 2.503
94.60000 2.871
94.62000 6.071
94.64000 6.572
94.66000 5.132
94.68000 6.043
94.70000 6.481
94.72000 8.208
94.74000 0.583
94.76000 2.871
94.78000 3.701
94.80000 1.431
94.82000 0.788
94.84000 -2.443
94.86000 -1.579
94.88000 -1.296
94.90000 1.012
94.92000 -1.063
94.94000 0.221
94.96000 -0.840
94.98000 -0.615
95.00000 2.253
95.02000 2.111
95.04000 -2.109
95.06000 -1.334
95.08000 1.710
95.10000 4.250
95.12000 3.950
95.14000 3.892
95.16000 -0.318
95.18000 2.117
95.20000 3.534
95.22000 3.535
95.24000 3.410
95.26000 2.189
95.28000 3.917
95.30000 0.374
95.32000 -0.452
95.34000 3.252
95.36000 1.013
95.38000 2.760
95.40000 6.123
95.42000 1.150
95.44000 1.892
95.46000 6.312
95.48000 6.843
95.50000 5.940
95.52000 5.132
95.54000 1.891
95.56000 -0.907
95.58000 0.720
95.60000 4.146
95.62000 0.570
95.64000 -1.921
95.66000 1.010
95.68000 2.237
95.70000 1.904
95.72000 6.264
95.74000 3.198
95.76000 0.330
95.78000 -0.519
95.80000 -2.428
95.82000 -0.449
95.84000 1.627
95.86000 6.213
95.88000 7.432
95.90000 3.734
95.92000 -1.887
95.94000 0.946
95.96000 5.002
95.98000 3.149
96.00000 -2.121
96.02000 4.730
96.04000 7.842
96.06000 3.805
96.08000 -0.218
96.10000 -0.241
96.12000 5.757
96.14000 11.764
96.16000 5.132
96.18000 3.629
96.20000 -1.538
96.22000 3.839
96.24000 1.919
96.26000 -1.935
96.28000 5.988
96.30000 5.123
96.32000 2.565
96.34000 2.232
96.36000 7.471
96.38000 5.124
96.40000 2.825
96.42000 3.225
96.44000 7.144
96.46000 5.187
96.48000 1.253
96.50000 4.793
96.52000 9.203
96.54000 1.025
96.56000 8.479
96.58000 11.129
96.60000 0.499
96.62000 1.738
96.64000 6.670
96.66000 3.857
96.68000 0.973
96.70000 3.800
96.72000 7.389
96.74000 10.968
96.76000 13.276
96.78000 11.753
96.80000 8.798
96.82000 8.101
96.84000 8.723
96.86000 3.139
96.88000 2.514
96.90000 -0.763
96.92000 -1.944
96.94000 7.830
96.96000 13.560
96.98000 14.448
97.00000 16.572
97.02000 7.966
97.04000 6.417
97.06000 11.379
97.08000 7.937
97.10000 8.779
97.12000 9.299
97.14000 -2.310
97.16000 0.103
97.18000 4.851
97.20000 7.973
97.22000 7.889
97.24000 7.092
97.26000 8.584
97.28000 9.093
97.30000 10.204
97.32000 14.883
97.34000 8.627
97.36000 4.821
97.38000 11.508
97.40000 14.060
97.42000 12.869
97.44000 15.198
97.46000 11.903
97.48000 7.131
97.50000 9.885
97.52000 6.772
97.54000 10.258
97.56000 7.212
97.58000 7.523
97.60000 9.607
97.62000 10.262
97.64000 7.506
97.66000 10.221
97.68000 7.930
97.70000 6.366
97.72000 11.646
97.74000 11.304
97.76000 3.632
97.78000 8.867
97.80000 7.858
97.82000 7.342
97.84000 4.510
97.86000 5.466
97.88000 11.432
97.90000 7.706
97.92000 10.884
97.94000 8.322
97.96000 3.695
97.98000 3.094
98.00000 11.045
98.02000 5.103
98.04000 6.714
98.06000 9.689
98.08000 2.982
98.10000 11.551
98.12000 9.018
98.14000 2.774
98.16000 5.767
98.18000 8.225
98.20000 13.021
98.22000 8.838
98.24000 11.006
98.26000 10.038
98.28000 13.158
98.30000 12.962
98.32000 11.205
98.34000 11.136
98.36000 13.978
98.38000 6.742
98.40000 2.978
98.42000 3.209
98.44000 5.369
98.46000 8.284
98.48000 9.226
98.50000 12.068
98.52000 11.662
98.54000 11.627
98.56000 10.552
98.58000 5.111
98.60000 -0.841
98.62000 -1.339
98.64000 17.020
98.66000 23.642
98.68000 9.093
98.70000 5.300
98.72000 6.923
98.74000 4.901
98.76000 6.313
98.78000 5.276
98.80000 3.373
98.82000 1.916
98.84000 12.927
98.86000 14.276
98.88000 10.832
98.90000 5.250
98.92000 6.850
98.94000 16.054
98.96000 11.196
98.98000 9.920
99.00000 3.539
99.02000 7.804
99.04000 -2.292
99.06000 1.095
99.08000 6.092
99.10000 3.843
99.12000 5.371
99.14000 9.646
99.16000 10.262
99.18000 4.168
99.20000 6.085
99.22000 8.137
99.24000 0.317
99.26000 5.889
99.28000 3.976
99.30000 5.005
99.32000 13.163
99.34000 8.037
99.36000 8.200
99.38000 21.568
99.40000 19.758
99.42000 9.335
99.44000 8.947
99.46000 6.554
99.48000 4.403
99.50000 8.539
99.52000 12.529
99.54000 14.479
99.56000 6.079
99.58000 1.069
99.60000 16.379
99.62000 13.710
99.64000 7.644
99.66000 0.309
99.68000 3.181
99.70000 0.799
99.72000 -3.082
99.74000 14.999
99.76000 21.147
99.78000 22.834
99.80000 11.899
99.82000 5.129
99.84000 -2.345
99.86000 2.953
99.88000 6.145
99.90000 13.250
99.92000 10.300
99.94000 0.166
99.96000 4.152
99.98000 0.000
