'Id: "0011387" Comment: "Integrate frame 0011387_Au-Ir-Rh_Rh-rich_XRD-Mapping-235-0000.gfrmwith cursor Wedge Cursor #5" Operator: "B?rgel" Anode: "Cu" Wavelength: "1.5406" Scantype: "2Theta (TwoTheta)" TimePerStep: "1" X: "22.5" Y: "13.5" Z: "5.95" 
10.00000 0.000
10.02000 7.588
10.04000 6.357
10.06000 -3.612
10.08000 5.769
10.10000 21.362
10.12000 28.322
10.14000 32.632
10.16000 26.311
10.18000 5.680
10.20000 1.436
10.22000 12.040
10.24000 20.651
10.26000 37.797
10.28000 34.805
10.30000 6.873
10.32000 9.781
10.34000 22.408
10.36000 19.963
10.38000 9.610
10.40000 7.764
10.42000 16.959
10.44000 14.901
10.46000 15.656
10.48000 24.530
10.50000 14.355
10.52000 12.592
10.54000 33.662
10.56000 13.237
10.58000 13.970
10.60000 21.207
10.62000 28.387
10.64000 29.734
10.66000 23.406
10.68000 19.791
10.70000 18.131
10.72000 16.424
10.74000 21.424
10.76000 27.678
10.78000 32.755
10.80000 21.783
10.82000 28.148
10.84000 22.026
10.86000 24.419
10.88000 26.224
10.90000 15.742
10.92000 18.660
10.94000 19.028
10.96000 19.848
10.98000 22.221
11.00000 17.991
11.02000 21.302
11.04000 15.454
11.06000 23.447
11.08000 22.666
11.10000 19.967
11.12000 19.367
11.14000 33.122
11.16000 28.160
11.18000 17.830
11.20000 19.913
11.22000 27.504
11.24000 30.314
11.26000 23.880
11.28000 21.593
11.30000 25.331
11.32000 26.674
11.34000 21.878
11.36000 19.939
11.38000 21.793
11.40000 29.939
11.42000 26.563
11.44000 19.578
11.46000 20.893
11.48000 21.984
11.50000 21.503
11.52000 23.663
11.54000 26.201
11.56000 27.823
11.58000 27.123
11.60000 34.480
11.62000 31.411
11.64000 20.558
11.66000 20.488
11.68000 27.966
11.70000 24.957
11.72000 24.414
11.74000 26.705
11.76000 22.452
11.78000 25.375
11.80000 30.022
11.82000 26.193
11.84000 26.576
11.86000 34.377
11.88000 32.818
11.90000 21.022
11.92000 30.199
11.94000 31.347
11.96000 31.131
11.98000 36.428
12.00000 33.744
12.02000 32.354
12.04000 34.011
12.06000 25.049
12.08000 20.357
12.10000 24.714
12.12000 27.955
12.14000 30.131
12.16000 25.800
12.18000 20.660
12.20000 31.146
12.22000 26.856
12.24000 35.482
12.26000 29.676
12.28000 26.372
12.30000 30.101
12.32000 29.290
12.34000 30.238
12.36000 30.364
12.38000 35.356
12.40000 24.546
12.42000 30.897
12.44000 35.338
12.46000 36.373
12.48000 36.608
12.50000 36.836
12.52000 31.583
12.54000 33.029
12.56000 44.715
12.58000 40.424
12.60000 33.658
12.62000 34.716
12.64000 32.121
12.66000 23.492
12.68000 20.507
12.70000 23.022
12.72000 24.468
12.74000 30.764
12.76000 41.378
12.78000 40.281
12.80000 34.818
12.82000 32.003
12.84000 37.661
12.86000 30.140
12.88000 25.262
12.90000 28.287
12.92000 35.874
12.94000 33.434
12.96000 33.732
12.98000 29.288
13.00000 34.027
13.02000 28.462
13.04000 35.127
13.06000 34.061
13.08000 31.050
13.10000 38.779
13.12000 37.410
13.14000 28.011
13.16000 31.222
13.18000 29.626
13.20000 23.937
13.22000 22.443
13.24000 24.071
13.26000 27.431
13.28000 26.328
13.30000 27.663
13.32000 13.682
13.34000 17.186
13.36000 23.373
13.38000 23.822
13.40000 28.048
13.42000 28.998
13.44000 27.223
13.46000 25.494
13.48000 26.171
13.50000 25.130
13.52000 27.962
13.54000 32.723
13.56000 29.317
13.58000 34.615
13.60000 29.546
13.62000 31.645
13.64000 29.468
13.66000 32.069
13.68000 22.329
13.70000 23.311
13.72000 24.086
13.74000 29.161
13.76000 21.641
13.78000 29.678
13.80000 29.328
13.82000 28.364
13.84000 17.293
13.86000 22.585
13.88000 32.499
13.90000 28.882
13.92000 24.418
13.94000 28.773
13.96000 33.999
13.98000 24.010
14.00000 12.665
14.02000 12.612
14.04000 19.891
14.06000 24.117
14.08000 28.173
14.10000 23.329
14.12000 23.428
14.14000 29.516
14.16000 21.965
14.18000 19.150
14.20000 25.519
14.22000 27.524
14.24000 25.951
14.26000 29.468
14.28000 30.960
14.30000 21.848
14.32000 27.212
14.34000 29.922
14.36000 22.390
14.38000 20.384
14.40000 21.823
14.42000 21.916
14.44000 18.799
14.46000 22.283
14.48000 25.615
14.50000 27.769
14.52000 32.850
14.54000 18.823
14.56000 17.931
14.58000 28.553
14.60000 16.345
14.62000 11.638
14.64000 14.255
14.66000 21.284
14.68000 21.282
14.70000 23.175
14.72000 16.310
14.74000 10.097
14.76000 17.979
14.78000 17.553
14.80000 21.584
14.82000 19.521
14.84000 13.788
14.86000 18.991
14.88000 24.642
14.90000 16.149
14.92000 10.982
14.94000 11.414
14.96000 18.756
14.98000 21.448
15.00000 23.314
15.02000 21.739
15.04000 26.225
15.06000 26.176
15.08000 12.802
15.10000 16.348
15.12000 23.730
15.14000 22.041
15.16000 16.594
15.18000 12.816
15.20000 19.022
15.22000 13.965
15.24000 14.439
15.26000 13.755
15.28000 11.272
15.30000 12.937
15.32000 19.277
15.34000 15.758
15.36000 16.859
15.38000 18.774
15.40000 13.256
15.42000 7.713
15.44000 19.972
15.46000 18.899
15.48000 11.715
15.50000 7.477
15.52000 14.425
15.54000 12.691
15.56000 22.922
15.58000 17.505
15.60000 16.477
15.62000 17.650
15.64000 15.043
15.66000 13.199
15.68000 24.583
15.70000 18.855
15.72000 15.764
15.74000 11.681
15.76000 13.688
15.78000 8.040
15.80000 12.015
15.82000 17.801
15.84000 6.957
15.86000 10.432
15.88000 12.882
15.90000 9.900
15.92000 10.931
15.94000 9.880
15.96000 9.278
15.98000 2.638
16.00000 8.453
16.02000 3.323
16.04000 7.014
16.06000 12.763
16.08000 8.111
16.10000 16.763
16.12000 19.891
16.14000 12.547
16.16000 5.154
16.18000 9.448
16.20000 13.010
16.22000 8.307
16.24000 -0.838
16.26000 5.285
16.28000 9.861
16.30000 12.714
16.32000 19.773
16.34000 16.037
16.36000 7.921
16.38000 8.598
16.40000 14.290
16.42000 15.929
16.44000 11.141
16.46000 12.968
16.48000 16.985
16.50000 16.230
16.52000 3.784
16.54000 -1.672
16.56000 2.338
16.58000 2.922
16.60000 4.538
16.62000 9.445
16.64000 15.222
16.66000 18.439
16.68000 6.992
16.70000 7.103
16.72000 6.546
16.74000 15.163
16.76000 7.979
16.78000 4.668
16.80000 9.560
16.82000 9.584
16.84000 7.969
16.86000 5.920
16.88000 2.367
16.90000 4.097
16.92000 4.957
16.94000 6.070
16.96000 12.508
16.98000 13.195
17.00000 4.448
17.02000 6.917
17.04000 7.095
17.06000 6.125
17.08000 11.424
17.10000 10.247
17.12000 7.944
17.14000 7.017
17.16000 9.846
17.18000 11.651
17.20000 14.790
17.22000 12.878
17.24000 9.825
17.26000 2.992
17.28000 8.068
17.30000 10.760
17.32000 16.447
17.34000 20.656
17.36000 10.494
17.38000 -4.350
17.40000 -1.321
17.42000 15.048
17.44000 12.765
17.46000 5.300
17.48000 7.011
17.50000 9.744
17.52000 14.892
17.54000 12.557
17.56000 11.311
17.58000 9.182
17.60000 11.235
17.62000 12.712
17.64000 3.900
17.66000 10.486
17.68000 12.263
17.70000 0.868
17.72000 5.771
17.74000 6.693
17.76000 10.052
17.78000 6.628
17.80000 9.658
17.82000 10.627
17.84000 5.923
17.86000 -1.084
17.88000 1.037
17.90000 10.392
17.92000 11.519
17.94000 4.971
17.96000 14.203
17.98000 13.800
18.00000 12.102
18.02000 10.332
18.04000 8.502
18.06000 2.528
18.08000 6.742
18.10000 11.788
18.12000 9.022
18.14000 9.075
18.16000 13.199
18.18000 5.475
18.20000 7.405
18.22000 6.958
18.24000 7.681
18.26000 10.238
18.28000 11.316
18.30000 9.903
18.32000 5.617
18.34000 11.588
18.36000 1.976
18.38000 0.853
18.40000 8.496
18.42000 7.421
18.44000 9.542
18.46000 4.984
18.48000 0.372
18.50000 8.128
18.52000 9.416
18.54000 9.252
18.56000 2.122
18.58000 10.271
18.60000 9.210
18.62000 1.514
18.64000 -1.924
18.66000 5.648
18.68000 11.603
18.70000 10.140
18.72000 6.956
18.74000 1.946
18.76000 -4.303
18.78000 -2.918
18.80000 3.233
18.82000 0.332
18.84000 8.099
18.86000 8.309
18.88000 0.376
18.90000 -1.772
18.92000 -0.332
18.94000 1.823
18.96000 -3.517
18.98000 2.527
19.00000 10.719
19.02000 8.900
19.04000 9.422
19.06000 3.588
19.08000 5.239
19.10000 2.352
19.12000 2.727
19.14000 3.656
19.16000 2.932
19.18000 2.453
19.20000 7.673
19.22000 6.649
19.24000 2.563
19.26000 4.547
19.28000 -0.078
19.30000 -4.277
19.32000 0.100
19.34000 4.132
19.36000 4.476
19.38000 1.602
19.40000 1.433
19.42000 -2.571
19.44000 -2.761
19.46000 -1.923
19.48000 4.161
19.50000 8.014
19.52000 -0.776
19.54000 -0.122
19.56000 2.448
19.58000 1.584
19.60000 3.162
19.62000 -4.140
19.64000 -4.265
19.66000 2.320
19.68000 6.636
19.70000 8.140
19.72000 5.827
19.74000 -0.186
19.76000 -2.654
19.78000 4.669
19.80000 8.284
19.82000 6.124
19.84000 0.858
19.86000 4.903
19.88000 10.772
19.90000 4.494
19.92000 7.777
19.94000 8.214
19.96000 4.424
19.98000 5.487
20.00000 10.480
20.02000 9.464
20.04000 3.506
20.06000 1.941
20.08000 -1.422
20.10000 4.215
20.12000 -0.033
20.14000 0.398
20.16000 1.744
20.18000 4.540
20.20000 2.058
20.22000 3.479
20.24000 -0.875
20.26000 -0.776
20.28000 1.382
20.30000 4.301
20.32000 10.272
20.34000 5.407
20.36000 -1.875
20.38000 -3.988
20.40000 -2.317
20.42000 3.038
20.44000 7.384
20.46000 8.538
20.48000 5.772
20.50000 2.899
20.52000 8.259
20.54000 8.002
20.56000 3.635
20.58000 1.990
20.60000 5.577
20.62000 2.352
20.64000 2.610
20.66000 3.596
20.68000 3.511
20.70000 2.657
20.72000 -0.959
20.74000 1.199
20.76000 2.518
20.78000 0.093
20.80000 3.730
20.82000 -3.340
20.84000 -0.147
20.86000 1.570
20.88000 2.144
20.90000 6.607
20.92000 2.434
20.94000 -0.698
20.96000 3.789
20.98000 11.022
21.00000 8.470
21.02000 4.121
21.04000 -0.911
21.06000 3.828
21.08000 5.490
21.10000 4.530
21.12000 2.978
21.14000 1.396
21.16000 6.945
21.18000 6.138
21.20000 0.167
21.22000 6.693
21.24000 1.572
21.26000 -0.680
21.28000 1.698
21.30000 3.623
21.32000 0.581
21.34000 6.548
21.36000 8.555
21.38000 10.778
21.40000 10.005
21.42000 11.561
21.44000 12.496
21.46000 5.538
21.48000 0.056
21.50000 0.075
21.52000 -4.149
21.54000 -1.524
21.56000 -0.396
21.58000 3.722
21.60000 0.492
21.62000 -1.821
21.64000 5.985
21.66000 13.555
21.68000 10.190
21.70000 9.443
21.72000 7.003
21.74000 3.972
21.76000 5.722
21.78000 0.209
21.80000 -2.877
21.82000 -2.825
21.84000 0.624
21.86000 2.321
21.88000 1.297
21.90000 -1.435
21.92000 3.542
21.94000 4.715
21.96000 9.193
21.98000 5.691
22.00000 2.566
22.02000 2.394
22.04000 -0.087
22.06000 1.011
22.08000 -0.401
22.10000 -2.129
22.12000 -0.272
22.14000 -1.541
22.16000 -1.124
22.18000 -4.113
22.20000 3.377
22.22000 8.712
22.24000 11.025
22.26000 6.768
22.28000 5.264
22.30000 13.040
22.32000 5.621
22.34000 1.106
22.36000 5.683
22.38000 2.387
22.40000 -3.165
22.42000 -2.525
22.44000 -1.153
22.46000 0.273
22.48000 -0.909
22.50000 1.287
22.52000 5.230
22.54000 10.848
22.56000 5.563
22.58000 5.461
22.60000 6.479
22.62000 1.923
22.64000 -2.711
22.66000 -0.266
22.68000 5.524
22.70000 6.896
22.72000 3.705
22.74000 1.063
22.76000 5.629
22.78000 5.562
22.80000 0.606
22.82000 1.273
22.84000 0.141
22.86000 9.661
22.88000 10.643
22.90000 8.171
22.92000 -0.300
22.94000 -0.909
22.96000 -2.569
22.98000 3.796
23.00000 4.400
23.02000 0.489
23.04000 0.502
23.06000 2.505
23.08000 -0.551
23.10000 1.193
23.12000 1.785
23.14000 4.437
23.16000 5.326
23.18000 1.272
23.20000 1.844
23.22000 2.403
23.24000 1.631
23.26000 4.645
23.28000 2.344
23.30000 3.576
23.32000 8.764
23.34000 3.858
23.36000 5.058
23.38000 3.984
23.40000 -2.309
23.42000 -4.058
23.44000 -1.753
23.46000 1.094
23.48000 -1.413
23.50000 -3.142
23.52000 5.359
23.54000 3.638
23.56000 5.041
23.58000 9.597
23.60000 12.142
23.62000 2.939
23.64000 3.279
23.66000 0.064
23.68000 3.362
23.70000 7.479
23.72000 -0.985
23.74000 -1.448
23.76000 0.307
23.78000 -0.145
23.80000 0.828
23.82000 1.225
23.84000 2.453
23.86000 4.313
23.88000 3.442
23.90000 4.642
23.92000 -4.021
23.94000 2.432
23.96000 6.836
23.98000 7.975
24.00000 4.696
24.02000 2.106
24.04000 -3.692
24.06000 0.747
24.08000 1.366
24.10000 -1.251
24.12000 4.202
24.14000 3.392
24.16000 3.083
24.18000 0.836
24.20000 7.266
24.22000 4.808
24.24000 4.578
24.26000 3.738
24.28000 1.076
24.30000 -3.676
24.32000 2.902
24.34000 1.155
24.36000 1.627
24.38000 7.173
24.40000 8.087
24.42000 4.422
24.44000 0.940
24.46000 4.691
24.48000 5.088
24.50000 13.180
24.52000 7.019
24.54000 6.617
24.56000 7.432
24.58000 7.546
24.60000 5.069
24.62000 2.327
24.64000 0.862
24.66000 0.085
24.68000 2.828
24.70000 8.429
24.72000 -1.498
24.74000 -3.974
24.76000 7.421
24.78000 11.604
24.80000 2.474
24.82000 4.434
24.84000 2.546
24.86000 -0.698
24.88000 3.045
24.90000 8.311
24.92000 6.919
24.94000 10.770
24.96000 8.350
24.98000 4.355
25.00000 3.912
25.02000 -0.688
25.04000 5.846
25.06000 5.991
25.08000 4.206
25.10000 2.307
25.12000 0.038
25.14000 4.103
25.16000 6.557
25.18000 2.864
25.20000 4.226
25.22000 10.702
25.24000 9.031
25.26000 7.001
25.28000 5.756
25.30000 0.913
25.32000 2.097
25.34000 3.320
25.36000 -0.101
25.38000 2.643
25.40000 4.254
25.42000 2.707
25.44000 2.617
25.46000 0.425
25.48000 5.564
25.50000 10.235
25.52000 0.378
25.54000 -0.405
25.56000 3.755
25.58000 6.980
25.60000 7.446
25.62000 3.602
25.64000 -1.742
25.66000 -3.902
25.68000 -0.912
25.70000 8.245
25.72000 8.838
25.74000 6.831
25.76000 10.637
25.78000 5.954
25.80000 4.425
25.82000 2.377
25.84000 3.704
25.86000 3.232
25.88000 2.279
25.90000 3.484
25.92000 6.579
25.94000 5.595
25.96000 6.397
25.98000 5.050
26.00000 9.094
26.02000 8.943
26.04000 7.800
26.06000 5.490
26.08000 6.285
26.10000 4.909
26.12000 0.783
26.14000 -3.890
26.16000 -2.082
26.18000 1.987
26.20000 5.035
26.22000 4.217
26.24000 4.352
26.26000 4.160
26.28000 1.363
26.30000 0.216
26.32000 4.399
26.34000 3.603
26.36000 1.694
26.38000 1.736
26.40000 8.468
26.42000 10.488
26.44000 7.474
26.46000 4.241
26.48000 2.258
26.50000 3.710
26.52000 0.890
26.54000 0.405
26.56000 -1.906
26.58000 1.013
26.60000 0.015
26.62000 4.497
26.64000 6.953
26.66000 7.555
26.68000 4.362
26.70000 7.301
26.72000 3.135
26.74000 2.867
26.76000 6.115
26.78000 4.971
26.80000 3.826
26.82000 4.529
26.84000 3.470
26.86000 5.078
26.88000 10.330
26.90000 3.434
26.92000 0.026
26.94000 0.846
26.96000 -1.338
26.98000 2.032
27.00000 4.683
27.02000 3.786
27.04000 5.566
27.06000 0.502
27.08000 2.778
27.10000 2.183
27.12000 -2.414
27.14000 1.543
27.16000 3.179
27.18000 4.087
27.20000 4.666
27.22000 3.432
27.24000 6.172
27.26000 2.118
27.28000 3.464
27.30000 4.111
27.32000 2.727
27.34000 3.157
27.36000 5.170
27.38000 1.983
27.40000 -0.498
27.42000 -0.095
27.44000 3.643
27.46000 5.369
27.48000 3.812
27.50000 0.300
27.52000 0.846
27.54000 2.337
27.56000 0.347
27.58000 -1.672
27.60000 0.061
27.62000 -0.067
27.64000 -2.956
27.66000 -0.535
27.68000 2.033
27.70000 1.501
27.72000 4.915
27.74000 1.715
27.76000 5.704
27.78000 3.575
27.80000 -2.161
27.82000 -0.276
27.84000 -1.082
27.86000 6.026
27.88000 7.635
27.90000 7.208
27.92000 -1.385
27.94000 -3.810
27.96000 0.086
27.98000 2.030
28.00000 1.805
28.02000 2.953
28.04000 7.876
28.06000 6.132
28.08000 6.117
28.10000 7.364
28.12000 4.360
28.14000 5.556
28.16000 4.601
28.18000 9.591
28.20000 6.630
28.22000 4.172
28.24000 1.243
28.26000 3.897
28.28000 2.200
28.30000 2.835
28.32000 1.767
28.34000 3.283
28.36000 6.674
28.38000 4.619
28.40000 -2.113
28.42000 4.110
28.44000 6.703
28.46000 6.621
28.48000 2.378
28.50000 6.989
28.52000 12.265
28.54000 3.986
28.56000 -1.749
28.58000 4.261
28.60000 2.826
28.62000 8.383
28.64000 11.684
28.66000 11.176
28.68000 4.805
28.70000 0.474
28.72000 4.224
28.74000 8.642
28.76000 12.668
28.78000 6.970
28.80000 3.619
28.82000 6.956
28.84000 4.292
28.86000 -3.740
28.88000 -0.819
28.90000 6.328
28.92000 3.767
28.94000 5.053
28.96000 6.187
28.98000 4.602
29.00000 -2.308
29.02000 0.214
29.04000 1.681
29.06000 5.248
29.08000 8.025
29.10000 7.530
29.12000 6.891
29.14000 1.578
29.16000 0.343
29.18000 2.555
29.20000 -0.617
29.22000 2.494
29.24000 0.504
29.26000 -2.059
29.28000 1.887
29.30000 3.469
29.32000 11.072
29.34000 10.513
29.36000 5.378
29.38000 5.783
29.40000 1.378
29.42000 3.666
29.44000 3.584
29.46000 3.880
29.48000 -0.192
29.50000 0.957
29.52000 -1.307
29.54000 -2.065
29.56000 -1.958
29.58000 8.073
29.60000 4.288
29.62000 4.330
29.64000 4.276
29.66000 2.165
29.68000 1.857
29.70000 7.386
29.72000 2.159
29.74000 2.955
29.76000 2.695
29.78000 -1.808
29.80000 -2.085
29.82000 0.598
29.84000 2.600
29.86000 -0.904
29.88000 1.600
29.90000 4.314
29.92000 8.936
29.94000 3.355
29.96000 2.456
29.98000 2.052
30.00000 1.282
30.02000 6.514
30.04000 7.950
30.06000 6.748
30.08000 4.145
30.10000 1.569
30.12000 1.977
30.14000 0.283
30.16000 0.266
30.18000 2.635
30.20000 1.031
30.22000 4.265
30.24000 2.173
30.26000 -1.674
30.28000 4.187
30.30000 6.742
30.32000 9.649
30.34000 6.939
30.36000 2.697
30.38000 0.332
30.40000 1.043
30.42000 -3.674
30.44000 -2.070
30.46000 1.216
30.48000 1.456
30.50000 1.968
30.52000 4.855
30.54000 1.374
30.56000 3.199
30.58000 3.543
30.60000 2.363
30.62000 3.073
30.64000 6.027
30.66000 3.504
30.68000 2.730
30.70000 5.059
30.72000 8.502
30.74000 3.894
30.76000 1.307
30.78000 7.315
30.80000 4.894
30.82000 5.426
30.84000 8.833
30.86000 3.106
30.88000 3.706
30.90000 4.418
30.92000 8.680
30.94000 8.788
30.96000 5.563
30.98000 4.109
31.00000 1.287
31.02000 -1.361
31.04000 4.053
31.06000 7.570
31.08000 5.325
31.10000 4.188
31.12000 4.400
31.14000 7.788
31.16000 0.005
31.18000 3.997
31.20000 -0.301
31.22000 -0.384
31.24000 1.912
31.26000 -1.353
31.28000 -3.647
31.30000 -3.136
31.32000 2.150
31.34000 0.332
31.36000 1.459
31.38000 5.699
31.40000 4.985
31.42000 4.393
31.44000 2.043
31.46000 5.453
31.48000 8.492
31.50000 2.663
31.52000 7.107
31.54000 7.833
31.56000 0.752
31.58000 3.670
31.60000 0.299
31.62000 2.525
31.64000 5.049
31.66000 -1.321
31.68000 -0.244
31.70000 6.186
31.72000 4.010
31.74000 1.757
31.76000 -0.446
31.78000 3.436
31.80000 3.185
31.82000 1.519
31.84000 -0.507
31.86000 -2.730
31.88000 -0.160
31.90000 -0.469
31.92000 4.816
31.94000 4.780
31.96000 1.760
31.98000 -1.954
32.00000 1.657
32.02000 0.729
32.04000 2.442
32.06000 3.320
32.08000 6.308
32.10000 1.629
32.12000 -1.188
32.14000 1.692
32.16000 5.406
32.18000 5.353
32.20000 4.824
32.22000 4.533
32.24000 4.908
32.26000 5.558
32.28000 2.141
32.30000 -0.649
32.32000 3.337
32.34000 -0.104
32.36000 -3.586
32.38000 0.284
32.40000 3.534
32.42000 2.129
32.44000 3.529
32.46000 2.070
32.48000 3.937
32.50000 0.358
32.52000 0.189
32.54000 2.501
32.56000 -3.469
32.58000 -0.920
32.60000 -3.467
32.62000 0.902
32.64000 0.098
32.66000 3.726
32.68000 3.693
32.70000 2.942
32.72000 3.657
32.74000 3.208
32.76000 9.872
32.78000 10.882
32.80000 6.677
32.82000 5.264
32.84000 3.304
32.86000 4.229
32.88000 4.552
32.90000 2.362
32.92000 4.344
32.94000 -0.127
32.96000 -1.498
32.98000 3.083
33.00000 -0.715
33.02000 1.600
33.04000 5.062
33.06000 2.984
33.08000 4.664
33.10000 5.160
33.12000 3.836
33.14000 6.171
33.16000 7.302
33.18000 7.536
33.20000 2.222
33.22000 0.596
33.24000 0.165
33.26000 9.506
33.28000 3.531
33.30000 6.134
33.32000 11.920
33.34000 7.259
33.36000 4.418
33.38000 -0.287
33.40000 2.291
33.42000 6.547
33.44000 4.635
33.46000 3.192
33.48000 1.547
33.50000 0.652
33.52000 -0.774
33.54000 2.637
33.56000 1.855
33.58000 3.279
33.60000 2.132
33.62000 -1.764
33.64000 2.365
33.66000 3.617
33.68000 11.072
33.70000 10.416
33.72000 5.877
33.74000 0.715
33.76000 4.007
33.78000 3.345
33.80000 5.228
33.82000 -2.285
33.84000 3.162
33.86000 0.013
33.88000 -3.020
33.90000 6.383
33.92000 7.476
33.94000 1.987
33.96000 -3.391
33.98000 -1.004
34.00000 0.575
34.02000 2.243
34.04000 2.854
34.06000 6.286
34.08000 6.144
34.10000 -1.148
34.12000 -3.535
34.14000 0.592
34.16000 6.742
34.18000 3.012
34.20000 1.280
34.22000 1.027
34.24000 3.194
34.26000 3.316
34.28000 3.022
34.30000 4.134
34.32000 4.417
34.34000 10.330
34.36000 10.603
34.38000 4.465
34.40000 -3.531
34.42000 -0.871
34.44000 2.040
34.46000 0.219
34.48000 -2.599
34.50000 3.234
34.52000 6.190
34.54000 1.349
34.56000 2.581
34.58000 1.274
34.60000 0.007
34.62000 -3.239
34.64000 1.058
34.66000 2.296
34.68000 -2.377
34.70000 -1.045
34.72000 1.075
34.74000 2.962
34.76000 -0.156
34.78000 -2.027
34.80000 1.325
34.82000 5.687
34.84000 9.330
34.86000 5.902
34.88000 3.032
34.90000 -0.896
34.92000 3.361
34.94000 1.116
34.96000 3.419
34.98000 -0.502
35.00000 1.327
35.02000 -3.540
35.04000 2.158
35.06000 4.199
35.08000 1.991
35.10000 3.198
35.12000 6.789
35.14000 2.884
35.16000 -0.365
35.18000 1.271
35.20000 -0.638
35.22000 0.784
35.24000 2.806
35.26000 0.576
35.28000 -2.989
35.30000 0.235
35.32000 -2.860
35.34000 -0.396
35.36000 1.911
35.38000 2.867
35.40000 5.599
35.42000 4.139
35.44000 6.251
35.46000 4.177
35.48000 1.065
35.50000 -2.658
35.52000 3.150
35.54000 -0.232
35.56000 2.318
35.58000 8.744
35.60000 6.823
35.62000 -0.356
35.64000 -0.690
35.66000 2.851
35.68000 4.596
35.70000 3.263
35.72000 3.093
35.74000 5.238
35.76000 2.821
35.78000 1.815
35.80000 2.698
35.82000 2.887
35.84000 -1.211
35.86000 -1.792
35.88000 -2.100
35.90000 -1.479
35.92000 -3.536
35.94000 -2.334
35.96000 0.668
35.98000 0.490
36.00000 2.862
36.02000 -0.150
36.04000 1.381
36.06000 1.988
36.08000 4.899
36.10000 -0.308
36.12000 0.029
36.14000 -3.541
36.16000 -0.204
36.18000 2.758
36.20000 3.928
36.22000 3.120
36.24000 -2.045
36.26000 0.809
36.28000 1.695
36.30000 0.054
36.32000 -0.644
36.34000 0.047
36.36000 3.478
36.38000 3.040
36.40000 2.079
36.42000 0.458
36.44000 -0.055
36.46000 -1.397
36.48000 -0.233
36.50000 0.633
36.52000 1.819
36.54000 4.736
36.56000 3.547
36.58000 3.174
36.60000 -3.555
36.62000 -1.747
36.64000 0.648
36.66000 2.909
36.68000 -1.604
36.70000 0.416
36.72000 4.504
36.74000 1.286
36.76000 2.133
36.78000 1.478
36.80000 1.986
36.82000 1.228
36.84000 3.178
36.86000 4.457
36.88000 6.137
36.90000 3.764
36.92000 5.363
36.94000 -0.308
36.96000 -1.521
36.98000 3.078
37.00000 -1.891
37.02000 1.010
37.04000 1.101
37.06000 0.161
37.08000 -3.110
37.10000 1.103
37.12000 1.035
37.14000 0.527
37.16000 -3.559
37.18000 -0.704
37.20000 1.293
37.22000 2.030
37.24000 1.170
37.26000 3.348
37.28000 4.687
37.30000 4.376
37.32000 -0.779
37.34000 -1.887
37.36000 -0.178
37.38000 3.532
37.40000 -3.349
37.42000 3.121
37.44000 1.256
37.46000 -1.796
37.48000 2.757
37.50000 0.038
37.52000 1.168
37.54000 3.759
37.56000 2.980
37.58000 0.228
37.60000 3.732
37.62000 3.746
37.64000 3.548
37.66000 -1.647
37.68000 -0.184
37.70000 1.183
37.72000 1.248
37.74000 4.615
37.76000 4.328
37.78000 4.293
37.80000 7.069
37.82000 6.040
37.84000 3.187
37.86000 7.433
37.88000 4.777
37.90000 2.781
37.92000 3.075
37.94000 4.558
37.96000 4.838
37.98000 6.209
38.00000 4.890
38.02000 6.523
38.04000 7.693
38.06000 5.182
38.08000 5.697
38.10000 8.569
38.12000 9.478
38.14000 10.875
38.16000 14.302
38.18000 13.399
38.20000 9.970
38.22000 10.503
38.24000 14.714
38.26000 15.970
38.28000 19.976
38.30000 14.047
38.32000 11.385
38.34000 11.662
38.36000 15.151
38.38000 21.611
38.40000 21.142
38.42000 20.380
38.44000 21.940
38.46000 19.378
38.48000 18.545
38.50000 18.513
38.52000 22.110
38.54000 23.340
38.56000 19.817
38.58000 17.559
38.60000 19.638
38.62000 23.548
38.64000 19.514
38.66000 18.654
38.68000 19.641
38.70000 21.483
38.72000 19.637
38.74000 23.670
38.76000 29.263
38.78000 29.674
38.80000 26.783
38.82000 25.395
38.84000 27.235
38.86000 30.378
38.88000 31.054
38.90000 35.817
38.92000 36.355
38.94000 39.931
38.96000 34.905
38.98000 43.318
39.00000 39.521
39.02000 40.211
39.04000 40.715
39.06000 47.084
39.08000 48.838
39.10000 46.494
39.12000 45.787
39.14000 48.066
39.16000 53.946
39.18000 57.836
39.20000 57.119
39.22000 61.974
39.24000 59.527
39.26000 68.037
39.28000 72.497
39.30000 76.104
39.32000 72.187
39.34000 75.809
39.36000 76.866
39.38000 85.512
39.40000 91.538
39.42000 94.928
39.44000 98.727
39.46000 103.505
39.48000 106.324
39.50000 117.525
39.52000 124.140
39.54000 124.582
39.56000 123.529
39.58000 132.357
39.60000 144.320
39.62000 153.967
39.64000 158.169
39.66000 165.644
39.68000 180.492
39.70000 188.357
39.72000 201.159
39.74000 211.287
39.76000 219.797
39.78000 233.868
39.80000 242.865
39.82000 249.804
39.84000 263.297
39.86000 283.229
39.88000 296.577
39.90000 310.927
39.92000 326.511
39.94000 347.519
39.96000 364.528
39.98000 373.703
40.00000 386.980
40.02000 408.306
40.04000 421.406
40.06000 440.533
40.08000 464.785
40.10000 476.176
40.12000 494.022
40.14000 499.429
40.16000 511.045
40.18000 521.485
40.20000 535.702
40.22000 541.875
40.24000 562.300
40.26000 574.278
40.28000 582.260
40.30000 579.628
40.32000 576.014
40.34000 578.158
40.36000 578.732
40.38000 576.808
40.40000 567.360
40.42000 560.033
40.44000 560.686
40.46000 553.405
40.48000 533.200
40.50000 517.334
40.52000 508.599
40.54000 505.900
40.56000 497.194
40.58000 485.453
40.60000 454.602
40.62000 441.187
40.64000 430.731
40.66000 410.560
40.68000 391.117
40.70000 374.633
40.72000 357.551
40.74000 344.173
40.76000 327.488
40.78000 312.771
40.80000 294.611
40.82000 279.076
40.84000 267.262
40.86000 261.664
40.88000 245.074
40.90000 236.196
40.92000 220.379
40.94000 204.407
40.96000 200.792
40.98000 190.292
41.00000 180.044
41.02000 168.600
41.04000 160.071
41.06000 150.617
41.08000 143.105
41.10000 137.418
41.12000 129.414
41.14000 125.186
41.16000 118.032
41.18000 109.867
41.20000 104.773
41.22000 102.944
41.24000 100.196
41.26000 96.593
41.28000 81.466
41.30000 74.781
41.32000 72.190
41.34000 71.731
41.36000 69.675
41.38000 66.383
41.40000 64.209
41.42000 58.681
41.44000 54.492
41.46000 49.809
41.48000 51.631
41.50000 47.396
41.52000 49.712
41.54000 41.104
41.56000 41.253
41.58000 40.211
41.60000 40.297
41.62000 34.744
41.64000 30.819
41.66000 26.526
41.68000 30.807
41.70000 27.900
41.72000 28.935
41.74000 28.554
41.76000 25.202
41.78000 19.140
41.80000 17.975
41.82000 16.069
41.84000 18.182
41.86000 17.019
41.88000 18.064
41.90000 18.700
41.92000 19.017
41.94000 13.236
41.96000 12.686
41.98000 15.877
42.00000 14.141
42.02000 15.565
42.04000 12.187
42.06000 8.643
42.08000 6.453
42.10000 9.159
42.12000 8.233
42.14000 4.731
42.16000 1.016
42.18000 7.714
42.20000 8.616
42.22000 4.058
42.24000 1.638
42.26000 6.300
42.28000 7.978
42.30000 6.411
42.32000 3.602
42.34000 5.981
42.36000 6.466
42.38000 4.117
42.40000 7.593
42.42000 7.044
42.44000 7.305
42.46000 6.435
42.48000 -0.481
42.50000 -0.675
42.52000 -1.247
42.54000 -0.856
42.56000 4.006
42.58000 3.138
42.60000 -2.147
42.62000 -3.540
42.64000 -2.778
42.66000 -1.673
42.68000 0.492
42.70000 1.008
42.72000 1.619
42.74000 3.004
42.76000 -0.436
42.78000 0.413
42.80000 0.760
42.82000 0.564
42.84000 -0.669
42.86000 0.104
42.88000 -0.519
42.90000 -1.761
42.92000 -1.990
42.94000 -2.113
42.96000 0.412
42.98000 0.953
43.00000 1.539
43.02000 0.121
43.04000 -0.586
43.06000 2.455
43.08000 2.203
43.10000 0.013
43.12000 1.350
43.14000 0.597
43.16000 -2.993
43.18000 -3.463
43.20000 1.043
43.22000 2.536
43.24000 7.950
43.26000 6.086
43.28000 1.322
43.30000 2.618
43.32000 2.880
43.34000 -0.289
43.36000 1.288
43.38000 2.354
43.40000 1.684
43.42000 0.702
43.44000 5.012
43.46000 2.937
43.48000 -1.631
43.50000 1.140
43.52000 1.563
43.54000 2.236
43.56000 0.507
43.58000 -2.422
43.60000 2.140
43.62000 0.881
43.64000 -2.589
43.66000 -2.360
43.68000 2.861
43.70000 3.215
43.72000 1.163
43.74000 1.476
43.76000 -1.070
43.78000 -2.223
43.80000 -2.520
43.82000 0.218
43.84000 -1.516
43.86000 0.324
43.88000 -1.133
43.90000 1.201
43.92000 0.360
43.94000 5.349
43.96000 1.915
43.98000 -3.355
44.00000 -0.163
44.02000 -2.803
44.04000 -1.421
44.06000 -0.346
44.08000 1.392
44.10000 0.305
44.12000 0.498
44.14000 -0.113
44.16000 2.282
44.18000 -1.134
44.20000 -3.091
44.22000 -1.651
44.24000 -1.532
44.26000 0.899
44.28000 -0.646
44.30000 -0.373
44.32000 3.432
44.34000 0.068
44.36000 -1.052
44.38000 -1.157
44.40000 -1.255
44.42000 1.039
44.44000 -0.282
44.46000 -0.796
44.48000 1.443
44.50000 1.565
44.52000 2.074
44.54000 1.388
44.56000 0.586
44.58000 -0.211
44.60000 1.582
44.62000 -1.293
44.64000 0.988
44.66000 8.246
44.68000 8.341
44.70000 4.902
44.72000 2.767
44.74000 2.151
44.76000 2.493
44.78000 1.531
44.80000 7.404
44.82000 8.481
44.84000 3.193
44.86000 -2.119
44.88000 0.614
44.90000 1.741
44.92000 0.766
44.94000 4.626
44.96000 0.293
44.98000 2.510
45.00000 1.065
45.02000 1.652
45.04000 1.905
45.06000 4.761
45.08000 6.294
45.10000 8.104
45.12000 6.418
45.14000 4.723
45.16000 2.404
45.18000 2.559
45.20000 4.816
45.22000 2.886
45.24000 7.661
45.26000 6.981
45.28000 1.035
45.30000 6.210
45.32000 7.643
45.34000 4.349
45.36000 3.040
45.38000 7.215
45.40000 8.606
45.42000 8.981
45.44000 9.194
45.46000 4.561
45.48000 6.469
45.50000 9.488
45.52000 11.329
45.54000 11.119
45.56000 13.645
45.58000 14.073
45.60000 12.725
45.62000 11.595
45.64000 8.414
45.66000 11.146
45.68000 17.647
45.70000 16.362
45.72000 12.741
45.74000 19.207
45.76000 20.031
45.78000 22.856
45.80000 23.497
45.82000 22.745
45.84000 23.147
45.86000 22.019
45.88000 23.342
45.90000 24.170
45.92000 27.533
45.94000 28.318
45.96000 27.653
45.98000 27.307
46.00000 29.627
46.02000 30.949
46.04000 37.369
46.06000 37.334
46.08000 37.498
46.10000 37.330
46.12000 34.884
46.14000 40.855
46.16000 48.297
46.18000 48.397
46.20000 47.150
46.22000 48.044
46.24000 51.269
46.26000 53.377
46.28000 53.326
46.30000 50.356
46.32000 57.782
46.34000 60.134
46.36000 57.536
46.38000 54.865
46.40000 56.820
46.42000 63.077
46.44000 62.036
46.46000 67.146
46.48000 72.361
46.50000 74.291
46.52000 70.645
46.54000 77.564
46.56000 76.316
46.58000 76.432
46.60000 83.271
46.62000 82.914
46.64000 78.501
46.66000 77.477
46.68000 81.002
46.70000 93.517
46.72000 91.805
46.74000 88.335
46.76000 90.100
46.78000 90.063
46.80000 99.432
46.82000 104.002
46.84000 101.231
46.86000 96.369
46.88000 96.836
46.90000 100.412
46.92000 101.537
46.94000 96.187
46.96000 97.761
46.98000 98.607
47.00000 104.041
47.02000 102.794
47.04000 103.391
47.06000 96.910
47.08000 93.777
47.10000 91.472
47.12000 99.807
47.14000 105.408
47.16000 97.480
47.18000 96.273
47.20000 91.709
47.22000 84.333
47.24000 88.269
47.26000 88.838
47.28000 83.944
47.30000 87.633
47.32000 81.101
47.34000 80.558
47.36000 85.609
47.38000 80.501
47.40000 70.295
47.42000 73.327
47.44000 73.683
47.46000 69.150
47.48000 63.431
47.50000 65.645
47.52000 67.844
47.54000 59.693
47.56000 49.248
47.58000 52.790
47.60000 50.907
47.62000 51.760
47.64000 49.427
47.66000 45.633
47.68000 41.913
47.70000 38.659
47.72000 40.064
47.74000 38.805
47.76000 40.158
47.78000 37.865
47.80000 38.213
47.82000 36.625
47.84000 34.556
47.86000 32.979
47.88000 28.172
47.90000 29.582
47.92000 28.556
47.94000 25.453
47.96000 18.959
47.98000 21.677
48.00000 25.452
48.02000 26.812
48.04000 20.864
48.06000 19.355
48.08000 23.192
48.10000 16.438
48.12000 13.641
48.14000 17.972
48.16000 16.490
48.18000 14.170
48.20000 15.975
48.22000 14.750
48.24000 15.355
48.26000 11.729
48.28000 13.117
48.30000 12.736
48.32000 8.679
48.34000 7.467
48.36000 3.321
48.38000 9.428
48.40000 9.241
48.42000 5.434
48.44000 9.335
48.46000 7.406
48.48000 11.465
48.50000 13.655
48.52000 6.999
48.54000 1.717
48.56000 -0.452
48.58000 0.519
48.60000 6.035
48.62000 8.230
48.64000 1.925
48.66000 2.237
48.68000 1.257
48.70000 3.496
48.72000 2.743
48.74000 5.027
48.76000 3.277
48.78000 3.634
48.80000 5.526
48.82000 10.645
48.84000 6.539
48.86000 3.486
48.88000 8.895
48.90000 7.581
48.92000 1.905
48.94000 -1.101
48.96000 -2.932
48.98000 2.022
49.00000 6.837
49.02000 10.082
49.04000 13.099
49.06000 11.999
49.08000 7.772
49.10000 5.798
49.12000 4.262
49.14000 4.100
49.16000 6.776
49.18000 8.384
49.20000 6.759
49.22000 -0.040
49.24000 2.737
49.26000 3.656
49.28000 7.883
49.30000 7.698
49.32000 7.163
49.34000 9.388
49.36000 4.606
49.38000 2.093
49.40000 -1.005
49.42000 -2.830
49.44000 6.159
49.46000 9.410
49.48000 8.984
49.50000 8.619
49.52000 4.862
49.54000 6.900
49.56000 7.436
49.58000 9.137
49.60000 8.490
49.62000 5.286
49.64000 3.851
49.66000 -0.261
49.68000 1.051
49.70000 10.671
49.72000 8.155
49.74000 6.761
49.76000 6.038
49.78000 2.807
49.80000 6.901
49.82000 10.422
49.84000 8.003
49.86000 6.760
49.88000 6.521
49.90000 10.161
49.92000 9.864
49.94000 4.432
49.96000 3.789
49.98000 4.923
50.00000 4.193
50.02000 5.884
50.04000 5.924
50.06000 4.778
50.08000 1.495
50.10000 -0.036
50.12000 -2.403
50.14000 -0.210
50.16000 2.905
50.18000 -1.349
50.20000 0.657
50.22000 -2.790
50.24000 -0.181
50.26000 1.832
50.28000 7.178
50.30000 3.251
50.32000 6.464
50.34000 9.161
50.36000 13.171
50.38000 8.735
50.40000 5.356
50.42000 2.198
50.44000 3.700
50.46000 3.451
50.48000 4.114
50.50000 6.306
50.52000 5.679
50.54000 0.824
50.56000 3.088
50.58000 3.865
50.60000 0.719
50.62000 0.459
50.64000 4.912
50.66000 4.047
50.68000 0.709
50.70000 2.922
50.72000 5.773
50.74000 5.000
50.76000 2.504
50.78000 1.093
50.80000 -2.749
50.82000 -0.375
50.84000 -0.688
50.86000 0.928
50.88000 4.292
50.90000 3.340
50.92000 6.579
50.94000 7.321
50.96000 9.129
50.98000 8.640
51.00000 5.586
51.02000 1.850
51.04000 2.162
51.06000 3.602
51.08000 2.945
51.10000 2.450
51.12000 7.216
51.14000 10.401
51.16000 5.609
51.18000 -1.847
51.20000 -0.718
51.22000 0.088
51.24000 1.407
51.26000 3.863
51.28000 4.980
51.30000 4.610
51.32000 -0.400
51.34000 -1.512
51.36000 3.074
51.38000 3.573
51.40000 1.156
51.42000 0.048
51.44000 1.699
51.46000 3.213
51.48000 1.520
51.50000 2.995
51.52000 2.194
51.54000 2.772
51.56000 6.664
51.58000 5.641
51.60000 2.130
51.62000 -1.205
51.64000 -0.426
51.66000 1.886
51.68000 -1.578
51.70000 4.189
51.72000 1.873
51.74000 5.892
51.76000 4.203
51.78000 1.227
51.80000 1.945
51.82000 4.457
51.84000 3.078
51.86000 -0.284
51.88000 1.050
51.90000 2.109
51.92000 0.985
51.94000 4.476
51.96000 0.981
51.98000 2.021
52.00000 1.217
52.02000 3.435
52.04000 2.023
52.06000 3.144
52.08000 0.924
52.10000 2.225
52.12000 1.848
52.14000 3.479
52.16000 6.038
52.18000 2.093
52.20000 1.007
52.22000 5.549
52.24000 6.969
52.26000 2.379
52.28000 1.720
52.30000 -1.335
52.32000 4.566
52.34000 4.744
52.36000 5.561
52.38000 1.725
52.40000 4.752
52.42000 3.384
52.44000 4.388
52.46000 0.515
52.48000 0.735
52.50000 3.999
52.52000 7.173
52.54000 12.120
52.56000 6.899
52.58000 6.521
52.60000 3.811
52.62000 -0.045
52.64000 -0.029
52.66000 -0.062
52.68000 4.365
52.70000 8.826
52.72000 9.627
52.74000 8.341
52.76000 6.426
52.78000 2.883
52.80000 -0.397
52.82000 -0.929
52.84000 -2.668
52.86000 2.305
52.88000 7.191
52.90000 2.549
52.92000 6.214
52.94000 2.156
52.96000 1.858
52.98000 2.111
53.00000 5.196
53.02000 4.371
53.04000 4.547
53.06000 1.142
53.08000 0.210
53.10000 1.064
53.12000 5.682
53.14000 6.965
53.16000 6.576
53.18000 7.705
53.20000 1.291
53.22000 3.203
53.24000 2.601
53.26000 1.903
53.28000 -2.659
53.30000 -0.521
53.32000 2.505
53.34000 0.925
53.36000 -2.109
53.38000 1.072
53.40000 4.319
53.42000 3.005
53.44000 2.832
53.46000 5.539
53.48000 1.488
53.50000 4.398
53.52000 5.711
53.54000 0.676
53.56000 -1.162
53.58000 0.706
53.60000 5.978
53.62000 5.673
53.64000 7.697
53.66000 9.630
53.68000 7.344
53.70000 4.828
53.72000 4.545
53.74000 3.620
53.76000 0.753
53.78000 3.816
53.80000 9.653
53.82000 5.291
53.84000 3.596
53.86000 3.590
53.88000 -0.859
53.90000 -0.182
53.92000 1.425
53.94000 0.185
53.96000 -2.650
53.98000 4.031
54.00000 2.817
54.02000 -0.958
54.04000 -0.370
54.06000 5.903
54.08000 6.272
54.10000 1.350
54.12000 -0.752
54.14000 1.931
54.16000 0.096
54.18000 2.987
54.20000 1.803
54.22000 0.268
54.24000 3.265
54.26000 3.019
54.28000 0.577
54.30000 -1.204
54.32000 -0.768
54.34000 2.076
54.36000 5.534
54.38000 5.104
54.40000 2.693
54.42000 2.477
54.44000 -0.745
54.46000 0.504
54.48000 -1.594
54.50000 -0.172
54.52000 1.598
54.54000 6.803
54.56000 3.981
54.58000 5.449
54.60000 2.442
54.62000 3.844
54.64000 2.159
54.66000 0.854
54.68000 4.721
54.70000 2.580
54.72000 4.213
54.74000 7.588
54.76000 6.499
54.78000 2.732
54.80000 4.101
54.82000 2.764
54.84000 1.294
54.86000 1.220
54.88000 6.720
54.90000 5.299
54.92000 3.664
54.94000 2.719
54.96000 1.995
54.98000 0.337
55.00000 -2.029
55.02000 -2.611
55.04000 -1.158
55.06000 2.014
55.08000 2.241
55.10000 2.715
55.12000 5.415
55.14000 3.195
55.16000 2.659
55.18000 2.842
55.20000 6.323
55.22000 6.300
55.24000 3.326
55.26000 3.250
55.28000 6.128
55.30000 6.135
55.32000 4.288
55.34000 1.252
55.36000 0.724
55.38000 2.630
55.40000 2.928
55.42000 4.276
55.44000 1.673
55.46000 1.951
55.48000 4.145
55.50000 1.561
55.52000 0.837
55.54000 3.052
55.56000 1.676
55.58000 0.025
55.60000 2.286
55.62000 1.667
55.64000 6.445
55.66000 3.262
55.68000 2.238
55.70000 2.592
55.72000 0.526
55.74000 -0.222
55.76000 -0.347
55.78000 4.518
55.80000 6.561
55.82000 1.106
55.84000 1.394
55.86000 3.398
55.88000 4.856
55.90000 1.567
55.92000 -2.301
55.94000 0.745
55.96000 0.836
55.98000 3.035
56.00000 2.180
56.02000 0.794
56.04000 -2.583
56.06000 2.528
56.08000 4.731
56.10000 5.190
56.12000 2.655
56.14000 0.694
56.16000 2.130
56.18000 8.271
56.20000 4.843
56.22000 0.986
56.24000 0.186
56.26000 2.965
56.28000 2.602
56.30000 4.964
56.32000 4.758
56.34000 4.404
56.36000 1.855
56.38000 3.796
56.40000 4.686
56.42000 3.856
56.44000 5.531
56.46000 4.760
56.48000 1.499
56.50000 1.796
56.52000 4.935
56.54000 6.920
56.56000 5.099
56.58000 3.934
56.60000 3.726
56.62000 2.659
56.64000 1.370
56.66000 4.943
56.68000 6.283
56.70000 2.183
56.72000 0.757
56.74000 3.299
56.76000 1.642
56.78000 3.121
56.80000 1.006
56.82000 1.577
56.84000 1.307
56.86000 3.839
56.88000 0.824
56.90000 0.909
56.92000 -0.698
56.94000 1.790
56.96000 2.355
56.98000 1.322
57.00000 -1.168
57.02000 -1.241
57.04000 2.462
57.06000 2.551
57.08000 2.371
57.10000 2.719
57.12000 -0.270
57.14000 2.776
57.16000 3.009
57.18000 -0.996
57.20000 -0.910
57.22000 3.317
57.24000 0.285
57.26000 1.469
57.28000 3.080
57.30000 0.922
57.32000 4.396
57.34000 8.323
57.36000 2.385
57.38000 -1.978
57.40000 0.666
57.42000 2.630
57.44000 -1.025
57.46000 -0.102
57.48000 -2.565
57.50000 -1.210
57.52000 4.325
57.54000 6.847
57.56000 9.333
57.58000 6.067
57.60000 5.065
57.62000 1.218
57.64000 3.918
57.66000 3.757
57.68000 1.182
57.70000 2.596
57.72000 1.866
57.74000 3.910
57.76000 0.586
57.78000 -2.548
57.80000 2.458
57.82000 4.762
57.84000 7.870
57.86000 7.704
57.88000 -0.352
57.90000 -2.137
57.92000 3.358
57.94000 2.986
57.96000 3.644
57.98000 3.412
58.00000 2.880
58.02000 3.169
58.04000 2.212
58.06000 -0.521
58.08000 -0.272
58.10000 -1.234
58.12000 -2.531
58.14000 -1.457
58.16000 -0.189
58.18000 0.785
58.20000 -0.628
58.22000 1.481
58.24000 3.995
58.26000 -1.395
58.28000 -0.707
58.30000 1.147
58.32000 2.239
58.34000 0.146
58.36000 4.959
58.38000 5.383
58.40000 3.944
58.42000 2.349
58.44000 1.302
58.46000 1.372
58.48000 2.241
58.50000 3.418
58.52000 1.137
58.54000 -0.210
58.56000 1.176
58.58000 0.945
58.60000 0.418
58.62000 2.523
58.64000 3.420
58.66000 1.916
58.68000 0.234
58.70000 -0.052
58.72000 5.398
58.74000 3.746
58.76000 3.193
58.78000 3.928
58.80000 2.816
58.82000 2.500
58.84000 3.733
58.86000 3.040
58.88000 0.693
58.90000 5.093
58.92000 5.904
58.94000 3.609
58.96000 1.663
58.98000 9.142
59.00000 5.762
59.02000 -0.099
59.04000 3.461
59.06000 3.473
59.08000 3.917
59.10000 5.095
59.12000 2.454
59.14000 3.097
59.16000 3.628
59.18000 3.071
59.20000 2.526
59.22000 4.262
59.24000 5.169
59.26000 6.720
59.28000 5.112
59.30000 3.226
59.32000 -0.544
59.34000 -2.480
59.36000 -1.788
59.38000 2.045
59.40000 5.300
59.42000 0.589
59.44000 -1.520
59.46000 3.872
59.48000 4.211
59.50000 3.440
59.52000 2.838
59.54000 -0.359
59.56000 0.015
59.58000 4.890
59.60000 5.533
59.62000 3.189
59.64000 6.239
59.66000 3.605
59.68000 1.556
59.70000 4.050
59.72000 7.885
59.74000 4.795
59.76000 4.653
59.78000 8.339
59.80000 3.727
59.82000 6.191
59.84000 7.429
59.86000 8.318
59.88000 4.385
59.90000 2.562
59.92000 2.588
59.94000 2.851
59.96000 -2.445
59.98000 -1.118
60.00000 5.070
60.02000 4.447
60.04000 5.382
60.06000 4.854
60.08000 0.058
60.10000 2.709
60.12000 5.439
60.14000 4.968
60.16000 1.542
60.18000 3.663
60.20000 6.179
60.22000 4.742
60.24000 2.648
60.26000 4.537
60.28000 2.691
60.30000 2.526
60.32000 0.555
60.34000 1.441
60.36000 2.411
60.38000 6.023
60.40000 3.225
60.42000 0.902
60.44000 0.721
60.46000 2.969
60.48000 2.556
60.50000 -0.049
60.52000 -0.348
60.54000 -0.799
60.56000 1.652
60.58000 0.222
60.60000 -2.227
60.62000 -1.099
60.64000 2.527
60.66000 2.713
60.68000 2.381
60.70000 3.051
60.72000 1.030
60.74000 0.588
60.76000 -1.377
60.78000 0.947
60.80000 2.432
60.82000 1.432
60.84000 1.266
60.86000 3.177
60.88000 4.996
60.90000 0.925
60.92000 -2.139
60.94000 -0.951
60.96000 0.051
60.98000 0.838
61.00000 -1.285
61.02000 1.175
61.04000 2.364
61.06000 1.305
61.08000 2.002
61.10000 2.093
61.12000 1.328
61.14000 0.303
61.16000 0.248
61.18000 3.271
61.20000 3.129
61.22000 2.327
61.24000 1.880
61.26000 -1.204
61.28000 -1.170
61.30000 -1.656
61.32000 0.328
61.34000 1.630
61.36000 2.905
61.38000 -0.678
61.40000 0.347
61.42000 -0.545
61.44000 3.556
61.46000 4.707
61.48000 2.087
61.50000 0.420
61.52000 1.482
61.54000 -2.036
61.56000 -1.642
61.58000 1.457
61.60000 2.507
61.62000 1.216
61.64000 -0.125
61.66000 -2.241
61.68000 1.599
61.70000 1.505
61.72000 -1.777
61.74000 0.914
61.76000 1.257
61.78000 -2.454
61.80000 0.079
61.82000 4.233
61.84000 4.573
61.86000 3.665
61.88000 0.567
61.90000 0.606
61.92000 0.385
61.94000 1.696
61.96000 1.603
61.98000 0.025
62.00000 0.083
62.02000 5.078
62.04000 0.385
62.06000 0.459
62.08000 -0.513
62.10000 -1.552
62.12000 3.404
62.14000 1.070
62.16000 -0.882
62.18000 -1.132
62.20000 -2.283
62.22000 -2.423
62.24000 0.728
62.26000 1.723
62.28000 2.683
62.30000 2.439
62.32000 1.229
62.34000 1.237
62.36000 1.750
62.38000 0.594
62.40000 4.598
62.42000 2.984
62.44000 1.962
62.46000 6.279
62.48000 2.916
62.50000 5.895
62.52000 3.811
62.54000 6.193
62.56000 3.398
62.58000 4.459
62.60000 2.884
62.62000 -0.291
62.64000 1.045
62.66000 -0.478
62.68000 1.626
62.70000 1.247
62.72000 -0.005
62.74000 -1.740
62.76000 -2.112
62.78000 -0.439
62.80000 1.291
62.82000 0.578
62.84000 1.184
62.86000 0.372
62.88000 0.426
62.90000 1.370
62.92000 1.700
62.94000 5.028
62.96000 1.386
62.98000 1.736
63.00000 1.739
63.02000 2.934
63.04000 1.555
63.06000 2.903
63.08000 2.823
63.10000 2.105
63.12000 1.537
63.14000 4.926
63.16000 6.258
63.18000 7.874
63.20000 6.785
63.22000 6.366
63.24000 0.901
63.26000 2.313
63.28000 0.782
63.30000 -0.568
63.32000 4.161
63.34000 1.428
63.36000 4.424
63.38000 3.593
63.40000 5.810
63.42000 4.967
63.44000 5.384
63.46000 2.702
63.48000 -0.933
63.50000 -2.394
63.52000 1.356
63.54000 5.191
63.56000 7.288
63.58000 3.039
63.60000 2.798
63.62000 1.616
63.64000 5.439
63.66000 2.366
63.68000 -0.039
63.70000 -0.200
63.72000 3.157
63.74000 7.036
63.76000 2.394
63.78000 3.427
63.80000 2.769
63.82000 0.761
63.84000 3.069
63.86000 2.144
63.88000 2.313
63.90000 3.308
63.92000 2.008
63.94000 0.541
63.96000 3.073
63.98000 0.291
64.00000 -2.429
64.02000 3.536
64.04000 3.298
64.06000 1.143
64.08000 1.068
64.10000 -0.932
64.12000 1.458
64.14000 1.203
64.16000 -0.953
64.18000 -0.556
64.20000 0.565
64.22000 4.667
64.24000 2.814
64.26000 -1.485
64.28000 1.672
64.30000 4.160
64.32000 0.212
64.34000 2.420
64.36000 2.482
64.38000 1.967
64.40000 2.377
64.42000 0.702
64.44000 1.094
64.46000 5.139
64.48000 1.789
64.50000 -0.465
64.52000 0.713
64.54000 2.512
64.56000 1.282
64.58000 3.472
64.60000 -0.626
64.62000 0.638
64.64000 2.928
64.66000 0.805
64.68000 -0.694
64.70000 0.751
64.72000 1.005
64.74000 -0.036
64.76000 -2.450
64.78000 -1.292
64.80000 4.456
64.82000 1.307
64.84000 0.295
64.86000 -1.783
64.88000 0.025
64.90000 4.030
64.92000 3.265
64.94000 -1.293
64.96000 -0.194
64.98000 2.347
65.00000 -0.721
65.02000 -0.180
65.04000 0.164
65.06000 0.208
65.08000 1.371
65.10000 0.476
65.12000 0.728
65.14000 -0.024
65.16000 1.634
65.18000 0.037
65.20000 -0.016
65.22000 -0.851
65.24000 -1.097
65.26000 -1.803
65.28000 -2.400
65.30000 -0.023
65.32000 2.009
65.34000 0.580
65.36000 1.691
65.38000 0.794
65.40000 0.045
65.42000 -2.029
65.44000 -0.895
65.46000 3.407
65.48000 3.201
65.50000 -0.512
65.52000 -1.592
65.54000 -0.638
65.56000 -0.762
65.58000 -2.454
65.60000 -1.133
65.62000 0.867
65.64000 3.015
65.66000 4.589
65.68000 3.229
65.70000 2.912
65.72000 2.285
65.74000 -2.069
65.76000 -2.451
65.78000 -1.357
65.80000 -1.825
65.82000 0.149
65.84000 2.508
65.86000 1.382
65.88000 -1.671
65.90000 -0.033
65.92000 -0.119
65.94000 -0.678
65.96000 1.171
65.98000 1.336
66.00000 -0.478
66.02000 1.412
66.04000 0.849
66.06000 3.264
66.08000 4.746
66.10000 2.434
66.12000 -0.490
66.14000 0.877
66.16000 3.888
66.18000 2.680
66.20000 0.990
66.22000 -0.051
66.24000 -1.614
66.26000 -0.657
66.28000 -0.423
66.30000 -1.727
66.32000 -1.363
66.34000 0.872
66.36000 1.467
66.38000 -0.077
66.40000 -1.775
66.42000 -0.228
66.44000 -0.363
66.46000 1.934
66.48000 1.240
66.50000 -1.187
66.52000 -1.106
66.54000 -0.643
66.56000 2.896
66.58000 1.833
66.60000 0.231
66.62000 1.515
66.64000 1.573
66.66000 -0.763
66.68000 -1.625
66.70000 -2.523
66.72000 -1.110
66.74000 1.635
66.76000 2.843
66.78000 1.493
66.80000 0.994
66.82000 1.637
66.84000 2.373
66.86000 -0.034
66.88000 3.429
66.90000 3.387
66.92000 0.757
66.94000 0.463
66.96000 -0.526
66.98000 -1.206
67.00000 1.138
67.02000 0.475
67.04000 -0.172
67.06000 -1.243
67.08000 0.259
67.10000 2.310
67.12000 -1.989
67.14000 -0.569
67.16000 -2.022
67.18000 -0.881
67.20000 0.567
67.22000 2.603
67.24000 5.402
67.26000 3.597
67.28000 -2.421
67.30000 1.242
67.32000 -1.393
67.34000 2.810
67.36000 1.274
67.38000 -0.382
67.40000 1.153
67.42000 5.323
67.44000 2.504
67.46000 3.124
67.48000 2.748
67.50000 5.435
67.52000 4.649
67.54000 0.888
67.56000 5.302
67.58000 6.100
67.60000 4.933
67.62000 6.853
67.64000 8.854
67.66000 7.994
67.68000 5.071
67.70000 7.526
67.72000 6.446
67.74000 5.933
67.76000 10.731
67.78000 9.660
67.80000 9.421
67.82000 10.758
67.84000 11.935
67.86000 9.845
67.88000 8.408
67.90000 11.727
67.92000 12.201
67.94000 12.665
67.96000 10.755
67.98000 10.735
68.00000 11.090
68.02000 10.984
68.04000 11.672
68.06000 12.205
68.08000 10.087
68.10000 12.759
68.12000 13.509
68.14000 16.286
68.16000 18.392
68.18000 17.562
68.20000 15.758
68.22000 16.679
68.24000 13.381
68.26000 16.715
68.28000 21.024
68.30000 22.455
68.32000 21.607
68.34000 21.804
68.36000 24.018
68.38000 22.531
68.40000 22.288
68.42000 21.128
68.44000 20.315
68.46000 21.705
68.48000 25.719
68.50000 27.752
68.52000 22.527
68.54000 25.944
68.56000 23.675
68.58000 23.702
68.60000 27.868
68.62000 27.614
68.64000 29.582
68.66000 27.246
68.68000 31.659
68.70000 29.033
68.72000 29.896
68.74000 31.047
68.76000 28.187
68.78000 27.525
68.80000 22.187
68.82000 20.461
68.84000 21.950
68.86000 19.890
68.88000 25.379
68.90000 23.884
68.92000 17.753
68.94000 17.469
68.96000 19.629
68.98000 17.263
69.00000 18.295
69.02000 15.624
69.04000 18.144
69.06000 18.198
69.08000 17.928
69.10000 16.579
69.12000 17.910
69.14000 14.623
69.16000 11.554
69.18000 11.229
69.20000 11.039
69.22000 12.845
69.24000 16.449
69.26000 15.001
69.28000 11.272
69.30000 9.647
69.32000 11.571
69.34000 9.055
69.36000 8.839
69.38000 7.178
69.40000 6.349
69.42000 5.308
69.44000 7.668
69.46000 4.302
69.48000 4.606
69.50000 7.262
69.52000 0.754
69.54000 1.397
69.56000 5.946
69.58000 3.595
69.60000 5.166
69.62000 3.332
69.64000 2.544
69.66000 2.640
69.68000 0.102
69.70000 0.748
69.72000 0.414
69.74000 4.576
69.76000 5.445
69.78000 4.620
69.80000 0.643
69.82000 -2.490
69.84000 3.961
69.86000 2.400
69.88000 1.567
69.90000 2.577
69.92000 1.290
69.94000 4.487
69.96000 -0.592
69.98000 -0.536
70.00000 -2.246
70.02000 -1.414
70.04000 0.771
70.06000 0.057
70.08000 -0.603
70.10000 0.656
70.12000 3.971
70.14000 1.793
70.16000 -0.789
70.18000 -1.578
70.20000 -2.307
70.22000 -0.697
70.24000 -0.885
70.26000 0.878
70.28000 0.278
70.30000 2.206
70.32000 0.916
70.34000 -0.724
70.36000 0.465
70.38000 0.156
70.40000 -1.275
70.42000 -0.231
70.44000 0.000
70.46000 1.537
70.48000 -0.654
70.50000 -1.330
70.52000 -0.335
70.54000 0.252
70.56000 1.262
70.58000 -1.315
70.60000 -1.363
70.62000 -2.392
70.64000 1.225
70.66000 0.924
70.68000 -0.693
70.70000 1.452
70.72000 -0.544
70.74000 -1.945
70.76000 4.515
70.78000 3.965
70.80000 0.893
70.82000 -0.730
70.84000 -1.006
70.86000 1.895
70.88000 2.293
70.90000 2.454
70.92000 1.896
70.94000 1.388
70.96000 0.120
70.98000 2.981
71.00000 5.471
71.02000 4.458
71.04000 1.351
71.06000 0.454
71.08000 -1.293
71.10000 -1.315
71.12000 -0.834
71.14000 -1.130
71.16000 0.874
71.18000 3.469
71.20000 0.946
71.22000 0.848
71.24000 1.889
71.26000 1.043
71.28000 1.450
71.30000 0.910
71.32000 -1.235
71.34000 1.447
71.36000 3.896
71.38000 0.792
71.40000 0.921
71.42000 -2.313
71.44000 2.151
71.46000 1.658
71.48000 0.610
71.50000 1.265
71.52000 -0.227
71.54000 1.160
71.56000 2.212
71.58000 3.656
71.60000 3.193
71.62000 6.777
71.64000 3.404
71.66000 -0.030
71.68000 2.135
71.70000 7.575
71.72000 0.727
71.74000 1.047
71.76000 2.879
71.78000 6.610
71.80000 3.461
71.82000 1.341
71.84000 -1.477
71.86000 1.950
71.88000 1.759
71.90000 -1.725
71.92000 -0.415
71.94000 0.817
71.96000 4.494
71.98000 4.188
72.00000 2.168
72.02000 10.249
72.04000 6.144
72.06000 -2.302
72.08000 -1.049
72.10000 -0.431
72.12000 3.201
72.14000 4.335
72.16000 1.398
72.18000 3.746
72.20000 3.814
72.22000 1.412
72.24000 3.754
72.26000 4.385
72.28000 5.830
72.30000 2.012
72.32000 1.165
72.34000 -1.259
72.36000 1.345
72.38000 2.055
72.40000 2.910
72.42000 1.537
72.44000 1.612
72.46000 1.896
72.48000 2.294
72.50000 0.848
72.52000 1.632
72.54000 2.921
72.56000 3.906
72.58000 5.115
72.60000 2.828
72.62000 -1.971
72.64000 -0.322
72.66000 1.459
72.68000 -1.139
72.70000 3.189
72.72000 5.253
72.74000 3.931
72.76000 0.925
72.78000 0.498
72.80000 2.154
72.82000 5.893
72.84000 0.637
72.86000 3.336
72.88000 1.116
72.90000 2.463
72.92000 3.319
72.94000 6.436
72.96000 3.500
72.98000 1.550
73.00000 1.348
73.02000 1.755
73.04000 3.035
73.06000 7.926
73.08000 4.529
73.10000 4.015
73.12000 1.192
73.14000 -2.252
73.16000 -0.821
73.18000 1.456
73.20000 5.769
73.22000 6.776
73.24000 5.819
73.26000 1.019
73.28000 1.748
73.30000 2.051
73.32000 2.472
73.34000 3.526
73.36000 3.892
73.38000 4.134
73.40000 6.788
73.42000 2.369
73.44000 1.301
73.46000 4.893
73.48000 2.185
73.50000 -2.129
73.52000 -0.930
73.54000 4.823
73.56000 7.526
73.58000 7.673
73.60000 8.225
73.62000 4.796
73.64000 2.077
73.66000 0.131
73.68000 3.475
73.70000 4.482
73.72000 0.689
73.74000 4.479
73.76000 6.113
73.78000 4.031
73.80000 5.199
73.82000 3.949
73.84000 -1.063
73.86000 2.104
73.88000 3.651
73.90000 5.035
73.92000 1.808
73.94000 -2.223
73.96000 4.678
73.98000 3.286
74.00000 3.741
74.02000 6.297
74.04000 8.442
74.06000 5.122
74.08000 4.456
74.10000 0.356
74.12000 0.694
74.14000 6.790
74.16000 4.549
74.18000 0.283
74.20000 0.770
74.22000 -0.166
74.24000 1.405
74.26000 2.703
74.28000 3.356
74.30000 0.631
74.32000 -1.275
74.34000 -0.465
74.36000 2.821
74.38000 1.802
74.40000 2.315
74.42000 3.837
74.44000 5.255
74.46000 3.053
74.48000 2.669
74.50000 4.494
74.52000 4.630
74.54000 2.515
74.56000 1.027
74.58000 3.458
74.60000 0.260
74.62000 2.340
74.64000 1.155
74.66000 1.017
74.68000 4.215
74.70000 2.121
74.72000 3.535
74.74000 4.227
74.76000 5.201
74.78000 5.625
74.80000 2.933
74.82000 -1.311
74.84000 -2.248
74.86000 3.799
74.88000 4.120
74.90000 -0.108
74.92000 2.421
74.94000 -0.196
74.96000 0.018
74.98000 1.748
75.00000 2.228
75.02000 -0.571
75.04000 1.798
75.06000 3.665
75.08000 4.234
75.10000 0.985
75.12000 -1.305
75.14000 -0.663
75.16000 3.641
75.18000 4.763
75.20000 1.449
75.22000 1.262
75.24000 2.813
75.26000 3.437
75.28000 0.306
75.30000 0.789
75.32000 6.192
75.34000 1.940
75.36000 -0.544
75.38000 -0.253
75.40000 0.365
75.42000 -0.181
75.44000 -1.576
75.46000 1.499
75.48000 4.065
75.50000 4.239
75.52000 3.445
75.54000 2.230
75.56000 5.993
75.58000 9.320
75.60000 5.544
75.62000 -1.612
75.64000 1.734
75.66000 -0.102
75.68000 -1.580
75.70000 -1.384
75.72000 4.182
75.74000 1.051
75.76000 -1.600
75.78000 5.028
75.80000 4.587
75.82000 -2.011
75.84000 -1.607
75.86000 -0.261
75.88000 0.339
75.90000 1.164
75.92000 -0.003
75.94000 0.514
75.96000 1.434
75.98000 3.171
76.00000 4.897
76.02000 4.285
76.04000 0.192
76.06000 3.495
76.08000 2.242
76.10000 1.005
76.12000 0.580
76.14000 1.540
76.16000 2.528
76.18000 1.087
76.20000 3.173
76.22000 4.598
76.24000 5.700
76.26000 2.736
76.28000 5.313
76.30000 5.829
76.32000 1.368
76.34000 1.088
76.36000 -0.446
76.38000 0.529
76.40000 1.806
76.42000 2.407
76.44000 3.550
76.46000 5.761
76.48000 4.179
76.50000 0.339
76.52000 2.066
76.54000 2.473
76.56000 1.125
76.58000 3.406
76.60000 4.325
76.62000 4.629
76.64000 0.466
76.66000 2.731
76.68000 8.074
76.70000 6.310
76.72000 0.973
76.74000 -2.235
76.76000 -0.377
76.78000 5.545
76.80000 3.294
76.82000 2.324
76.84000 1.654
76.86000 4.424
76.88000 2.458
76.90000 2.123
76.92000 3.121
76.94000 1.564
76.96000 4.308
76.98000 8.628
77.00000 2.970
77.02000 -0.917
77.04000 2.664
77.06000 4.971
77.08000 2.325
77.10000 5.281
77.12000 5.668
77.14000 9.296
77.16000 6.567
77.18000 2.799
77.20000 4.198
77.22000 8.806
77.24000 6.512
77.26000 0.344
77.28000 1.676
77.30000 0.935
77.32000 1.019
77.34000 0.371
77.36000 2.623
77.38000 4.727
77.40000 6.300
77.42000 1.066
77.44000 -2.262
77.46000 2.129
77.48000 2.008
77.50000 7.163
77.52000 9.001
77.54000 7.823
77.56000 6.857
77.58000 2.164
77.60000 5.211
77.62000 5.507
77.64000 4.239
77.66000 2.334
77.68000 2.219
77.70000 -0.418
77.72000 -0.641
77.74000 4.596
77.76000 2.021
77.78000 2.356
77.80000 4.798
77.82000 3.929
77.84000 1.529
77.86000 0.964
77.88000 2.672
77.90000 6.524
77.92000 4.794
77.94000 0.801
77.96000 -0.459
77.98000 4.289
78.00000 1.781
78.02000 -0.706
78.04000 -2.125
78.06000 3.636
78.08000 4.760
78.10000 4.294
78.12000 6.068
78.14000 5.764
78.16000 3.657
78.18000 0.807
78.20000 2.551
78.22000 5.372
78.24000 7.526
78.26000 6.026
78.28000 3.168
78.30000 1.794
78.32000 1.016
78.34000 0.927
78.36000 1.913
78.38000 5.661
78.40000 3.734
78.42000 -0.437
78.44000 1.767
78.46000 4.171
78.48000 4.389
78.50000 7.968
78.52000 6.709
78.54000 5.735
78.56000 5.907
78.58000 5.048
78.60000 4.659
78.62000 9.262
78.64000 3.661
78.66000 -0.539
78.68000 -1.137
78.70000 -0.032
78.72000 2.155
78.74000 -2.285
78.76000 0.121
78.78000 1.419
78.80000 4.260
78.82000 7.796
78.84000 5.296
78.86000 3.540
78.88000 4.733
78.90000 4.674
78.92000 4.068
78.94000 8.455
78.96000 7.541
78.98000 1.564
79.00000 1.529
79.02000 5.905
79.04000 5.866
79.06000 5.938
79.08000 3.099
79.10000 3.669
79.12000 3.383
79.14000 -2.288
79.16000 3.608
79.18000 5.725
79.20000 5.113
79.22000 6.704
79.24000 5.711
79.26000 4.330
79.28000 5.042
79.30000 4.778
79.32000 5.922
79.34000 6.088
79.36000 6.347
79.38000 -0.716
79.40000 -0.227
79.42000 1.121
79.44000 0.799
79.46000 0.589
79.48000 -1.510
79.50000 0.583
79.52000 1.565
79.54000 3.684
79.56000 6.650
79.58000 4.925
79.60000 2.855
79.62000 1.632
79.64000 3.993
79.66000 0.855
79.68000 -1.147
79.70000 -0.292
79.72000 1.443
79.74000 1.804
79.76000 10.519
79.78000 6.968
79.80000 3.978
79.82000 2.198
79.84000 0.911
79.86000 5.600
79.88000 3.817
79.90000 -1.840
79.92000 0.647
79.94000 0.351
79.96000 5.801
79.98000 4.293
80.00000 3.155
80.02000 4.002
80.04000 4.625
80.06000 1.108
80.08000 1.169
80.10000 -0.892
80.12000 -1.011
80.14000 -2.023
80.16000 -1.557
80.18000 -2.354
80.20000 -0.460
80.22000 -1.359
80.24000 4.245
80.26000 2.381
80.28000 -0.239
80.30000 3.599
80.32000 3.462
80.34000 1.914
80.36000 1.897
80.38000 5.147
80.40000 10.230
80.42000 5.307
80.44000 5.346
80.46000 1.739
80.48000 2.153
80.50000 -2.359
80.52000 2.147
80.54000 2.897
80.56000 2.782
80.58000 7.088
80.60000 4.759
80.62000 -1.722
80.64000 1.495
80.66000 1.533
80.68000 2.776
80.70000 3.171
80.72000 6.166
80.74000 6.305
80.76000 5.450
80.78000 2.040
80.80000 -1.268
80.82000 1.550
80.84000 3.323
80.86000 3.228
80.88000 5.210
80.90000 1.528
80.92000 3.661
80.94000 5.799
80.96000 2.597
80.98000 5.827
81.00000 2.981
81.02000 5.960
81.04000 4.568
81.06000 -0.481
81.08000 2.849
81.10000 5.408
81.12000 4.470
81.14000 2.491
81.16000 3.267
81.18000 0.818
81.20000 5.843
81.22000 8.472
81.24000 9.853
81.26000 6.720
81.28000 0.547
81.30000 4.400
81.32000 5.475
81.34000 6.352
81.36000 6.585
81.38000 8.763
81.40000 6.915
81.42000 5.178
81.44000 4.181
81.46000 7.188
81.48000 9.226
81.50000 4.939
81.52000 4.821
81.54000 8.325
81.56000 5.698
81.58000 7.907
81.60000 6.105
81.62000 11.010
81.64000 9.703
81.66000 8.305
81.68000 13.088
81.70000 14.131
81.72000 11.364
81.74000 7.800
81.76000 10.820
81.78000 14.172
81.80000 9.740
81.82000 9.114
81.84000 10.987
81.86000 11.704
81.88000 13.625
81.90000 18.439
81.92000 19.587
81.94000 13.214
81.96000 16.118
81.98000 18.037
82.00000 15.463
82.02000 19.346
82.04000 19.819
82.06000 18.692
82.08000 21.910
82.10000 17.294
82.12000 15.857
82.14000 16.462
82.16000 19.316
82.18000 20.278
82.20000 20.165
82.22000 25.025
82.24000 18.987
82.26000 22.695
82.28000 20.160
82.30000 24.682
82.32000 24.971
82.34000 24.202
82.36000 22.582
82.38000 26.212
82.40000 23.894
82.42000 27.691
82.44000 30.360
82.46000 28.093
82.48000 24.025
82.50000 18.070
82.52000 22.258
82.54000 31.246
82.56000 33.585
82.58000 32.747
82.60000 34.434
82.62000 35.315
82.64000 33.372
82.66000 30.767
82.68000 36.325
82.70000 40.219
82.72000 37.285
82.74000 34.841
82.76000 31.646
82.78000 33.719
82.80000 29.048
82.82000 28.587
82.84000 31.621
82.86000 30.821
82.88000 30.870
82.90000 37.791
82.92000 41.254
82.94000 37.033
82.96000 34.314
82.98000 31.537
83.00000 31.870
83.02000 35.815
83.04000 35.192
83.06000 30.855
83.08000 24.782
83.10000 25.999
83.12000 30.271
83.14000 28.704
83.16000 25.727
83.18000 31.695
83.20000 32.586
83.22000 29.088
83.24000 27.723
83.26000 24.450
83.28000 22.161
83.30000 20.905
83.32000 27.669
83.34000 27.465
83.36000 25.427
83.38000 24.776
83.40000 23.378
83.42000 25.240
83.44000 25.692
83.46000 21.801
83.48000 22.664
83.50000 22.096
83.52000 17.060
83.54000 18.712
83.56000 22.858
83.58000 19.114
83.60000 15.899
83.62000 18.631
83.64000 13.233
83.66000 14.818
83.68000 20.353
83.70000 17.391
83.72000 17.197
83.74000 10.866
83.76000 8.213
83.78000 12.695
83.80000 8.939
83.82000 5.893
83.84000 7.073
83.86000 10.713
83.88000 10.320
83.90000 10.593
83.92000 12.268
83.94000 12.363
83.96000 8.980
83.98000 13.269
84.00000 7.856
84.02000 4.809
84.04000 4.536
84.06000 8.710
84.08000 7.587
84.10000 6.661
84.12000 8.676
84.14000 6.004
84.16000 5.736
84.18000 3.275
84.20000 -1.232
84.22000 -0.996
84.24000 5.651
84.26000 8.763
84.28000 7.162
84.30000 5.171
84.32000 6.052
84.34000 4.857
84.36000 2.847
84.38000 3.122
84.40000 4.407
84.42000 1.568
84.44000 2.026
84.46000 6.237
84.48000 2.694
84.50000 3.295
84.52000 8.778
84.54000 7.776
84.56000 5.071
84.58000 8.357
84.60000 3.974
84.62000 1.611
84.64000 2.158
84.66000 -0.910
84.68000 3.234
84.70000 5.036
84.72000 4.126
84.74000 0.095
84.76000 0.127
84.78000 5.965
84.80000 6.327
84.82000 4.990
84.84000 2.408
84.86000 3.320
84.88000 7.252
84.90000 6.327
84.92000 2.842
84.94000 -2.325
84.96000 -0.898
84.98000 1.761
85.00000 5.810
85.02000 2.480
85.04000 2.141
85.06000 6.635
85.08000 4.572
85.10000 2.932
85.12000 0.716
85.14000 1.437
85.16000 1.415
85.18000 0.465
85.20000 -0.610
85.22000 2.652
85.24000 2.689
85.26000 -0.100
85.28000 4.380
85.30000 6.397
85.32000 5.652
85.34000 3.384
85.36000 2.955
85.38000 2.968
85.40000 -0.224
85.42000 0.525
85.44000 1.611
85.46000 -2.325
85.48000 -1.432
85.50000 -0.822
85.52000 2.870
85.54000 3.040
85.56000 4.637
85.58000 0.911
85.60000 -2.322
85.62000 0.926
85.64000 3.940
85.66000 3.584
85.68000 -2.321
85.70000 0.986
85.72000 8.181
85.74000 6.600
85.76000 4.660
85.78000 0.253
85.80000 3.487
85.82000 2.909
85.84000 1.880
85.86000 2.195
85.88000 0.816
85.90000 0.839
85.92000 3.710
85.94000 3.748
85.96000 1.477
85.98000 1.328
86.00000 7.303
86.02000 6.427
86.04000 5.248
86.06000 -0.396
86.08000 -0.688
86.10000 -1.667
86.12000 1.294
86.14000 -0.080
86.16000 3.032
86.18000 9.493
86.20000 6.477
86.22000 3.545
86.24000 5.901
86.26000 11.171
86.28000 4.994
86.30000 4.162
86.32000 9.289
86.34000 9.039
86.36000 9.652
86.38000 8.224
86.40000 6.234
86.42000 5.635
86.44000 8.438
86.46000 8.263
86.48000 7.260
86.50000 7.999
86.52000 9.651
86.54000 10.062
86.56000 9.846
86.58000 8.666
86.60000 5.880
86.62000 8.698
86.64000 9.780
86.66000 10.240
86.68000 9.657
86.70000 11.388
86.72000 6.469
86.74000 9.513
86.76000 12.962
86.78000 14.108
86.80000 12.184
86.82000 9.400
86.84000 10.346
86.86000 11.949
86.88000 10.105
86.90000 14.147
86.92000 18.169
86.94000 16.844
86.96000 19.691
86.98000 16.809
87.00000 12.791
87.02000 13.078
87.04000 15.716
87.06000 18.645
87.08000 20.093
87.10000 18.265
87.12000 17.644
87.14000 18.054
87.16000 12.205
87.18000 9.137
87.20000 16.630
87.22000 18.143
87.24000 21.120
87.26000 21.038
87.28000 17.996
87.30000 20.233
87.32000 23.720
87.34000 22.972
87.36000 19.234
87.38000 15.291
87.40000 18.107
87.42000 20.656
87.44000 20.680
87.46000 15.032
87.48000 13.976
87.50000 13.925
87.52000 16.137
87.54000 15.486
87.56000 15.875
87.58000 15.943
87.60000 16.704
87.62000 16.145
87.64000 11.356
87.66000 10.150
87.68000 14.786
87.70000 17.998
87.72000 14.688
87.74000 13.796
87.76000 15.970
87.78000 15.268
87.80000 13.927
87.82000 12.108
87.84000 9.165
87.86000 12.186
87.88000 8.982
87.90000 7.616
87.92000 11.067
87.94000 11.295
87.96000 3.383
87.98000 5.702
88.00000 5.840
88.02000 5.200
88.04000 6.330
88.06000 3.332
88.08000 10.871
88.10000 5.744
88.12000 4.719
88.14000 7.871
88.16000 9.621
88.18000 4.160
88.20000 2.701
88.22000 0.706
88.24000 0.753
88.26000 2.894
88.28000 5.670
88.30000 3.827
88.32000 6.532
88.34000 6.316
88.36000 0.773
88.38000 3.954
88.40000 1.939
88.42000 4.365
88.44000 3.844
88.46000 3.745
88.48000 1.765
88.50000 -0.836
88.52000 1.356
88.54000 3.603
88.56000 3.428
88.58000 2.037
88.60000 -0.054
88.62000 -1.077
88.64000 0.182
88.66000 1.136
88.68000 2.992
88.70000 4.154
88.72000 7.549
88.74000 7.392
88.76000 2.175
88.78000 -0.143
88.80000 0.860
88.82000 2.394
88.84000 3.142
88.86000 2.419
88.88000 -1.374
88.90000 7.616
88.92000 7.305
88.94000 2.187
88.96000 -0.876
88.98000 -0.079
89.00000 -2.166
89.02000 -0.690
89.04000 1.134
89.06000 5.054
89.08000 6.390
89.10000 7.394
89.12000 1.982
89.14000 2.264
89.16000 0.429
89.18000 1.075
89.20000 4.293
89.22000 3.127
89.24000 4.201
89.26000 6.127
89.28000 1.266
89.30000 1.413
89.32000 2.618
89.34000 0.820
89.36000 -0.229
89.38000 4.021
89.40000 5.470
89.42000 4.852
89.44000 3.934
89.46000 6.895
89.48000 7.329
89.50000 4.544
89.52000 3.075
89.54000 5.113
89.56000 2.657
89.58000 1.486
89.60000 2.618
89.62000 1.085
89.64000 5.401
89.66000 6.569
89.68000 5.919
89.70000 3.462
89.72000 2.215
89.74000 4.723
89.76000 6.975
89.78000 0.251
89.80000 1.978
89.82000 1.085
89.84000 -2.116
89.86000 2.193
89.88000 1.706
89.90000 1.816
89.92000 4.858
89.94000 5.243
89.96000 5.327
89.98000 5.020
90.00000 3.390
90.02000 1.756
90.04000 3.031
90.06000 2.254
90.08000 0.976
90.10000 5.237
90.12000 2.044
90.14000 1.216
90.16000 6.147
90.18000 3.110
90.20000 3.790
90.22000 5.158
90.24000 2.521
90.26000 4.788
90.28000 6.956
90.30000 4.439
90.32000 2.962
90.34000 3.971
90.36000 1.721
90.38000 2.357
90.40000 4.273
90.42000 4.235
90.44000 4.638
90.46000 4.186
90.48000 5.498
90.50000 3.691
90.52000 3.333
90.54000 4.242
90.56000 4.004
90.58000 5.156
90.60000 7.610
90.62000 7.683
90.64000 -0.089
90.66000 -0.648
90.68000 3.796
90.70000 -1.781
90.72000 -1.376
90.74000 3.031
90.76000 4.349
90.78000 4.072
90.80000 6.063
90.82000 3.749
90.84000 2.586
90.86000 4.110
90.88000 4.389
90.90000 6.398
90.92000 1.638
90.94000 -0.853
90.96000 1.635
90.98000 -0.527
91.00000 2.238
91.02000 3.554
91.04000 -0.920
91.06000 0.760
91.08000 0.088
91.10000 5.165
91.12000 1.477
91.14000 0.173
91.16000 2.242
91.18000 2.247
91.20000 -1.746
91.22000 -1.174
91.24000 -1.952
91.26000 -2.136
91.28000 0.059
91.30000 4.331
91.32000 0.938
91.34000 3.604
91.36000 -0.389
91.38000 1.947
91.40000 1.846
91.42000 2.002
91.44000 4.242
91.46000 2.229
91.48000 1.668
91.50000 3.465
91.52000 4.453
91.54000 -0.190
91.56000 1.492
91.58000 3.103
91.60000 6.858
91.62000 4.138
91.64000 2.543
91.66000 6.986
91.68000 6.716
91.70000 4.482
91.72000 2.403
91.74000 1.323
91.76000 3.398
91.78000 3.697
91.80000 5.297
91.82000 2.395
91.84000 2.212
91.86000 2.867
91.88000 -0.457
91.90000 4.759
91.92000 1.659
91.94000 3.397
91.96000 -1.868
91.98000 -2.126
92.00000 1.587
92.02000 4.608
92.04000 1.874
92.06000 0.249
92.08000 -1.962
92.10000 -1.773
92.12000 2.386
92.14000 1.770
92.16000 -1.883
92.18000 -1.958
92.20000 -0.032
92.22000 -0.517
92.24000 2.356
92.26000 -0.563
92.28000 -1.287
92.30000 1.964
92.32000 2.977
92.34000 3.856
92.36000 2.970
92.38000 3.684
92.40000 -1.578
92.42000 1.682
92.44000 1.149
92.46000 -2.130
92.48000 4.648
92.50000 3.530
92.52000 4.299
92.54000 5.270
92.56000 4.122
92.58000 5.201
92.60000 2.054
92.62000 1.054
92.64000 -1.610
92.66000 1.148
92.68000 3.169
92.70000 2.400
92.72000 2.966
92.74000 6.382
92.76000 3.893
92.78000 3.026
92.80000 5.495
92.82000 3.296
92.84000 1.258
92.86000 2.104
92.88000 0.923
92.90000 1.710
92.92000 3.788
92.94000 0.854
92.96000 1.457
92.98000 6.963
93.00000 3.498
93.02000 2.935
93.04000 5.293
93.06000 6.292
93.08000 4.107
93.10000 5.776
93.12000 5.003
93.14000 3.428
93.16000 4.720
93.18000 4.178
93.20000 3.500
93.22000 4.603
93.24000 6.058
93.26000 4.538
93.28000 3.239
93.30000 2.446
93.32000 2.732
93.34000 5.901
93.36000 5.555
93.38000 2.502
93.40000 4.923
93.42000 6.831
93.44000 9.960
93.46000 8.526
93.48000 8.563
93.50000 7.719
93.52000 4.975
93.54000 5.183
93.56000 2.629
93.58000 2.781
93.60000 3.419
93.62000 3.230
93.64000 4.430
93.66000 5.997
93.68000 6.181
93.70000 0.173
93.72000 -2.080
93.74000 -1.099
93.76000 3.398
93.78000 6.736
93.80000 5.725
93.82000 8.375
93.84000 8.331
93.86000 6.357
93.88000 6.935
93.90000 3.970
93.92000 2.287
93.94000 5.144
93.96000 2.543
93.98000 3.921
94.00000 7.831
94.02000 8.678
94.04000 11.110
94.06000 9.320
94.08000 4.526
94.10000 7.496
94.12000 11.829
94.14000 8.575
94.16000 7.646
94.18000 12.428
94.20000 11.272
94.22000 9.130
94.24000 3.420
94.26000 3.701
94.28000 5.435
94.30000 7.790
94.32000 5.243
94.34000 4.879
94.36000 8.526
94.38000 9.376
94.40000 9.794
94.42000 8.417
94.44000 8.139
94.46000 6.304
94.48000 8.961
94.50000 11.100
94.52000 6.663
94.54000 3.732
94.56000 3.123
94.58000 1.845
94.60000 4.212
94.62000 8.192
94.64000 8.678
94.66000 4.859
94.68000 3.076
94.70000 7.688
94.72000 5.470
94.74000 1.896
94.76000 5.915
94.78000 4.566
94.80000 6.702
94.82000 9.469
94.84000 7.132
94.86000 7.204
94.88000 8.699
94.90000 6.752
94.92000 -0.174
94.94000 -2.121
94.96000 -0.271
94.98000 0.374
95.00000 3.876
95.02000 12.510
95.04000 9.773
95.06000 4.075
95.08000 7.571
95.10000 6.121
95.12000 0.238
95.14000 0.936
95.16000 2.043
95.18000 5.068
95.20000 4.346
95.22000 6.077
95.24000 2.361
95.26000 4.762
95.28000 10.524
95.30000 8.156
95.32000 5.139
95.34000 6.276
95.36000 7.067
95.38000 10.234
95.40000 11.780
95.42000 6.785
95.44000 3.031
95.46000 4.014
95.48000 1.946
95.50000 -0.178
95.52000 1.296
95.54000 2.425
95.56000 7.331
95.58000 4.701
95.60000 2.241
95.62000 3.018
95.64000 2.591
95.66000 5.806
95.68000 8.091
95.70000 5.136
95.72000 5.270
95.74000 4.272
95.76000 2.790
95.78000 2.478
95.80000 1.608
95.82000 1.329
95.84000 7.370
95.86000 10.377
95.88000 6.263
95.90000 4.217
95.92000 8.145
95.94000 4.848
95.96000 -0.710
95.98000 3.342
96.00000 1.086
96.02000 -0.081
96.04000 -2.144
96.06000 2.099
96.08000 3.133
96.10000 2.238
96.12000 5.579
96.14000 2.897
96.16000 2.249
96.18000 5.004
96.20000 3.985
96.22000 4.398
96.24000 -1.205
96.26000 1.827
96.28000 5.648
96.30000 4.764
96.32000 9.157
96.34000 6.551
96.36000 0.131
96.38000 0.660
96.40000 3.953
96.42000 6.179
96.44000 0.005
96.46000 2.990
96.48000 5.213
96.50000 1.458
96.52000 2.040
96.54000 7.376
96.56000 6.533
96.58000 -2.145
96.60000 -0.086
96.62000 3.173
96.64000 5.722
96.66000 5.006
96.68000 6.381
96.70000 1.357
96.72000 2.067
96.74000 5.249
96.76000 2.979
96.78000 1.021
96.80000 5.901
96.82000 9.147
96.84000 5.086
96.86000 8.320
96.88000 8.842
96.90000 11.064
96.92000 3.952
96.94000 -0.422
96.96000 8.290
96.98000 4.915
97.00000 3.026
97.02000 5.054
97.04000 4.890
97.06000 5.597
97.08000 -1.152
97.10000 1.122
97.12000 3.810
97.14000 2.099
97.16000 1.556
97.18000 -0.802
97.20000 6.481
97.22000 5.500
97.24000 6.293
97.26000 5.915
97.28000 4.902
97.30000 6.591
97.32000 4.753
97.34000 5.987
97.36000 5.937
97.38000 6.244
97.40000 3.225
97.42000 3.235
97.44000 8.136
97.46000 6.044
97.48000 2.338
97.50000 2.525
97.52000 0.455
97.54000 -1.331
97.56000 2.509
97.58000 6.767
97.60000 7.320
97.62000 7.624
97.64000 9.197
97.66000 3.898
97.68000 -1.074
97.70000 1.108
97.72000 7.501
97.74000 9.755
97.76000 11.893
97.78000 7.170
97.80000 2.360
97.82000 -2.074
97.84000 3.341
97.86000 9.647
97.88000 5.732
97.90000 4.640
97.92000 3.981
97.94000 4.690
97.96000 6.541
97.98000 8.127
98.00000 5.109
98.02000 5.827
98.04000 3.929
98.06000 1.965
98.08000 1.605
98.10000 3.351
98.12000 6.932
98.14000 3.309
98.16000 4.677
98.18000 14.438
98.20000 14.410
98.22000 4.033
98.24000 1.798
98.26000 9.462
98.28000 3.331
98.30000 2.523
98.32000 4.579
98.34000 3.861
98.36000 9.774
98.38000 8.095
98.40000 1.626
98.42000 0.894
98.44000 6.144
98.46000 5.723
98.48000 4.998
98.50000 -1.939
98.52000 0.892
98.54000 2.585
98.56000 0.702
98.58000 2.665
98.60000 1.303
98.62000 7.704
98.64000 8.762
98.66000 14.145
98.68000 1.633
98.70000 5.743
98.72000 2.247
98.74000 4.021
98.76000 2.629
98.78000 8.811
98.80000 6.009
98.82000 3.827
98.84000 -2.117
98.86000 0.106
98.88000 8.528
98.90000 4.260
98.92000 5.051
98.94000 5.188
98.96000 9.005
98.98000 1.969
99.00000 2.469
99.02000 1.909
99.04000 7.892
99.06000 4.909
99.08000 2.721
99.10000 5.397
99.12000 -1.917
99.14000 -1.383
99.16000 1.434
99.18000 7.253
99.20000 0.386
99.22000 -1.933
99.24000 -1.636
99.26000 -1.476
99.28000 7.087
99.30000 7.504
99.32000 6.463
99.34000 5.812
99.36000 0.460
99.38000 7.900
99.40000 3.261
99.42000 8.397
99.44000 9.148
99.46000 6.034
99.48000 2.858
99.50000 -0.592
99.52000 1.679
99.54000 1.934
99.56000 -1.605
99.58000 1.664
99.60000 2.705
99.62000 7.322
99.64000 1.117
99.66000 -0.920
99.68000 -2.150
99.70000 -0.624
99.72000 0.538
99.74000 8.160
99.76000 7.864
99.78000 12.784
99.80000 4.211
99.82000 5.541
99.84000 16.678
99.86000 2.343
99.88000 2.777
99.90000 0.331
99.92000 0.299
99.94000 -0.250
99.96000 1.329
99.98000 0.000
