'Id: "0011387" Comment: "Integrate frame 0011387_Au-Ir-Rh_Rh-rich_XRD-Mapping-094-0000.gfrmwith cursor Wedge Cursor #5" Operator: "B?rgel" Anode: "Cu" Wavelength: "1.5406" Scantype: "2Theta (TwoTheta)" TimePerStep: "1" X: "-45" Y: "-13.5" Z: "5.95" 
10.00000 0.000
10.02000 11.196
10.04000 11.656
10.06000 15.111
10.08000 5.029
10.10000 26.627
10.12000 32.984
10.14000 34.888
10.16000 29.599
10.18000 -1.319
10.20000 -4.497
10.22000 12.301
10.24000 28.618
10.26000 23.562
10.28000 27.238
10.30000 16.308
10.32000 12.497
10.34000 20.232
10.36000 13.308
10.38000 19.220
10.40000 31.058
10.42000 12.733
10.44000 13.205
10.46000 12.686
10.48000 13.965
10.50000 13.868
10.52000 2.723
10.54000 8.561
10.56000 20.899
10.58000 17.691
10.60000 12.200
10.62000 9.484
10.64000 11.532
10.66000 -1.005
10.68000 2.816
10.70000 12.816
10.72000 9.001
10.74000 18.397
10.76000 20.386
10.78000 24.089
10.80000 19.778
10.82000 11.925
10.84000 13.845
10.86000 10.778
10.88000 20.151
10.90000 19.651
10.92000 26.394
10.94000 8.973
10.96000 -5.092
10.98000 12.787
11.00000 14.027
11.02000 17.524
11.04000 2.139
11.06000 11.573
11.08000 22.228
11.10000 22.618
11.12000 15.725
11.14000 12.804
11.16000 5.150
11.18000 2.817
11.20000 8.065
11.22000 19.109
11.24000 10.078
11.26000 21.186
11.28000 24.661
11.30000 17.455
11.32000 19.000
11.34000 14.187
11.36000 1.064
11.38000 -4.478
11.40000 4.559
11.42000 2.665
11.44000 15.534
11.46000 10.915
11.48000 9.453
11.50000 11.771
11.52000 8.954
11.54000 19.908
11.56000 17.165
11.58000 17.111
11.60000 16.876
11.62000 18.396
11.64000 10.995
11.66000 11.192
11.68000 20.847
11.70000 18.636
11.72000 16.750
11.74000 14.559
11.76000 19.194
11.78000 17.355
11.80000 7.765
11.82000 4.305
11.84000 4.174
11.86000 7.843
11.88000 7.220
11.90000 13.381
11.92000 14.752
11.94000 15.560
11.96000 21.494
11.98000 21.197
12.00000 14.203
12.02000 10.577
12.04000 10.409
12.06000 14.337
12.08000 22.036
12.10000 28.675
12.12000 20.764
12.14000 19.109
12.16000 15.928
12.18000 2.740
12.20000 6.501
12.22000 19.022
12.24000 19.893
12.26000 5.951
12.28000 9.413
12.30000 14.975
12.32000 5.313
12.34000 10.269
12.36000 17.447
12.38000 13.656
12.40000 3.316
12.42000 4.313
12.44000 -4.449
12.46000 4.687
12.48000 15.676
12.50000 9.267
12.52000 9.244
12.54000 9.770
12.56000 18.916
12.58000 19.469
12.60000 21.312
12.62000 12.489
12.64000 18.343
12.66000 15.211
12.68000 12.756
12.70000 18.852
12.72000 21.402
12.74000 17.232
12.76000 6.022
12.78000 16.071
12.80000 14.164
12.82000 9.147
12.84000 6.333
12.86000 17.013
12.88000 26.722
12.90000 18.702
12.92000 15.229
12.94000 9.207
12.96000 6.360
12.98000 12.295
13.00000 2.905
13.02000 9.065
13.04000 9.343
13.06000 1.234
13.08000 -2.458
13.10000 7.369
13.12000 16.970
13.14000 12.245
13.16000 16.684
13.18000 15.541
13.20000 17.583
13.22000 4.805
13.24000 7.309
13.26000 8.401
13.28000 9.018
13.30000 6.693
13.32000 7.762
13.34000 12.715
13.36000 7.315
13.38000 11.787
13.40000 9.779
13.42000 4.188
13.44000 5.451
13.46000 9.354
13.48000 1.561
13.50000 -1.351
13.52000 7.679
13.54000 21.541
13.56000 19.460
13.58000 17.783
13.60000 5.536
13.62000 -4.397
13.64000 6.533
13.66000 12.513
13.68000 13.251
13.70000 11.183
13.72000 6.915
13.74000 8.509
13.76000 7.136
13.78000 3.349
13.80000 -4.474
13.82000 1.234
13.84000 12.447
13.86000 12.785
13.88000 8.238
13.90000 11.046
13.92000 9.746
13.94000 5.228
13.96000 6.758
13.98000 2.258
14.00000 -2.399
14.02000 -4.474
14.04000 0.891
14.06000 7.368
14.08000 1.442
14.10000 1.151
14.12000 1.822
14.14000 3.533
14.16000 12.223
14.18000 7.650
14.20000 3.558
14.22000 4.322
14.24000 8.155
14.26000 7.357
14.28000 12.322
14.30000 8.003
14.32000 15.062
14.34000 13.568
14.36000 11.294
14.38000 11.959
14.40000 5.532
14.42000 9.634
14.44000 9.752
14.46000 -0.491
14.48000 -1.120
14.50000 4.271
14.52000 13.602
14.54000 5.641
14.56000 9.508
14.58000 4.073
14.60000 4.396
14.62000 18.698
14.64000 8.718
14.66000 1.750
14.68000 0.551
14.70000 0.991
14.72000 -3.040
14.74000 -0.129
14.76000 7.686
14.78000 6.448
14.80000 6.105
14.82000 7.553
14.84000 8.788
14.86000 5.647
14.88000 4.951
14.90000 -1.403
14.92000 3.044
14.94000 5.769
14.96000 -0.039
14.98000 4.847
15.00000 11.619
15.02000 11.761
15.04000 5.832
15.06000 -4.442
15.08000 0.346
15.10000 4.872
15.12000 9.459
15.14000 11.332
15.16000 15.952
15.18000 14.322
15.20000 5.505
15.22000 -2.128
15.24000 5.352
15.26000 0.982
15.28000 0.222
15.30000 3.405
15.32000 8.334
15.34000 4.704
15.36000 7.983
15.38000 16.807
15.40000 9.893
15.42000 2.137
15.44000 5.871
15.46000 1.993
15.48000 1.480
15.50000 9.256
15.52000 7.348
15.54000 8.770
15.56000 10.773
15.58000 3.550
15.60000 2.243
15.62000 2.371
15.64000 7.607
15.66000 0.884
15.68000 -0.074
15.70000 4.022
15.72000 5.976
15.74000 12.295
15.76000 10.270
15.78000 5.310
15.80000 8.626
15.82000 4.647
15.84000 2.325
15.86000 8.800
15.88000 5.337
15.90000 0.749
15.92000 -0.509
15.94000 -1.683
15.96000 4.010
15.98000 2.928
16.00000 -0.902
16.02000 5.186
16.04000 15.802
16.06000 11.309
16.08000 6.310
16.10000 14.829
16.12000 11.859
16.14000 3.205
16.16000 -4.374
16.18000 1.131
16.20000 11.731
16.22000 6.253
16.24000 3.617
16.26000 -1.706
16.28000 3.166
16.30000 14.823
16.32000 14.143
16.34000 10.629
16.36000 -1.025
16.38000 4.406
16.40000 3.880
16.42000 12.370
16.44000 16.206
16.46000 6.101
16.48000 3.199
16.50000 13.010
16.52000 14.308
16.54000 10.418
16.56000 0.077
16.58000 0.902
16.60000 -0.840
16.62000 2.506
16.64000 7.253
16.66000 3.250
16.68000 8.013
16.70000 12.301
16.72000 9.941
16.74000 7.645
16.76000 0.293
16.78000 -0.159
16.80000 -2.269
16.82000 -1.628
16.84000 0.848
16.86000 -0.184
16.88000 -0.118
16.90000 11.234
16.92000 16.357
16.94000 12.965
16.96000 9.091
16.98000 2.404
17.00000 4.133
17.02000 4.263
17.04000 6.698
17.06000 3.646
17.08000 0.682
17.10000 -4.350
17.12000 -0.837
17.14000 5.302
17.16000 1.931
17.18000 10.251
17.20000 11.299
17.22000 8.557
17.24000 7.358
17.26000 15.596
17.28000 9.338
17.30000 -0.976
17.32000 5.585
17.34000 2.739
17.36000 3.731
17.38000 5.811
17.40000 1.930
17.42000 2.015
17.44000 -0.700
17.46000 0.339
17.48000 2.563
17.50000 -0.108
17.52000 2.488
17.54000 7.543
17.56000 9.320
17.58000 8.829
17.60000 11.539
17.62000 10.914
17.64000 8.027
17.66000 -0.791
17.68000 -1.326
17.70000 -2.265
17.72000 0.928
17.74000 -2.093
17.76000 6.178
17.78000 6.661
17.80000 -1.225
17.82000 -2.913
17.84000 2.892
17.86000 4.708
17.88000 3.041
17.90000 1.973
17.92000 2.918
17.94000 2.698
17.96000 8.201
17.98000 10.908
18.00000 -1.141
18.02000 -4.285
18.04000 0.712
18.06000 5.332
18.08000 -2.297
18.10000 -0.935
18.12000 3.280
18.14000 -0.882
18.16000 -1.739
18.18000 1.032
18.20000 -4.318
18.22000 1.371
18.24000 -1.287
18.26000 -1.429
18.28000 2.819
18.30000 2.025
18.32000 -2.579
18.34000 7.968
18.36000 8.246
18.38000 7.318
18.40000 6.516
18.42000 10.419
18.44000 1.995
18.46000 4.203
18.48000 3.103
18.50000 1.090
18.52000 -2.518
18.54000 4.587
18.56000 8.562
18.58000 1.020
18.60000 -1.932
18.62000 2.650
18.64000 4.791
18.66000 0.560
18.68000 2.844
18.70000 8.366
18.72000 0.978
18.74000 -1.367
18.76000 -0.888
18.78000 3.858
18.80000 2.766
18.82000 0.903
18.84000 0.034
18.86000 -0.650
18.88000 2.109
18.90000 0.514
18.92000 3.422
18.94000 2.238
18.96000 2.674
18.98000 -2.521
19.00000 5.035
19.02000 2.104
19.04000 2.400
19.06000 2.129
19.08000 0.933
19.10000 6.158
19.12000 0.647
19.14000 8.306
19.16000 11.600
19.18000 9.018
19.20000 5.619
19.22000 6.283
19.24000 7.379
19.26000 10.628
19.28000 7.274
19.30000 -0.223
19.32000 3.672
19.34000 5.799
19.36000 6.602
19.38000 2.696
19.40000 1.132
19.42000 -1.394
19.44000 -4.210
19.46000 5.083
19.48000 10.126
19.50000 6.343
19.52000 2.095
19.54000 4.123
19.56000 7.579
19.58000 4.007
19.60000 6.058
19.62000 6.568
19.64000 0.361
19.66000 6.173
19.68000 3.912
19.70000 -3.122
19.72000 -0.590
19.74000 -3.676
19.76000 -4.198
19.78000 -0.525
19.80000 2.879
19.82000 11.458
19.84000 1.566
19.86000 -2.786
19.88000 -2.365
19.90000 0.277
19.92000 8.130
19.94000 4.571
19.96000 4.143
19.98000 4.329
20.00000 4.680
20.02000 5.645
20.04000 3.646
20.06000 -1.861
20.08000 3.993
20.10000 1.418
20.12000 6.216
20.14000 8.561
20.16000 4.747
20.18000 3.830
20.20000 7.177
20.22000 2.821
20.24000 0.810
20.26000 10.185
20.28000 4.555
20.30000 4.503
20.32000 7.352
20.34000 8.186
20.36000 7.152
20.38000 2.133
20.40000 0.450
20.42000 6.996
20.44000 11.627
20.46000 8.834
20.48000 6.799
20.50000 0.467
20.52000 1.683
20.54000 4.039
20.56000 6.797
20.58000 10.660
20.60000 9.855
20.62000 3.144
20.64000 6.053
20.66000 7.725
20.68000 2.774
20.70000 -2.883
20.72000 0.594
20.74000 3.457
20.76000 3.569
20.78000 0.348
20.80000 0.323
20.82000 7.642
20.84000 0.312
20.86000 -4.137
20.88000 0.965
20.90000 5.477
20.92000 6.528
20.94000 2.179
20.96000 1.996
20.98000 9.306
21.00000 8.667
21.02000 4.566
21.04000 2.662
21.06000 1.797
21.08000 6.073
21.10000 6.491
21.12000 8.497
21.14000 9.192
21.16000 2.551
21.18000 5.910
21.20000 5.753
21.22000 5.482
21.24000 3.999
21.26000 13.930
21.28000 6.848
21.30000 6.217
21.32000 6.887
21.34000 1.149
21.36000 5.718
21.38000 3.320
21.40000 1.193
21.42000 0.899
21.44000 3.424
21.46000 2.109
21.48000 2.309
21.50000 5.894
21.52000 3.462
21.54000 6.258
21.56000 3.305
21.58000 1.335
21.60000 0.653
21.62000 2.265
21.64000 1.610
21.66000 1.364
21.68000 -0.813
21.70000 2.972
21.72000 3.880
21.74000 0.138
21.76000 2.195
21.78000 4.540
21.80000 3.815
21.82000 6.466
21.84000 5.946
21.86000 3.783
21.88000 5.025
21.90000 8.230
21.92000 5.441
21.94000 1.830
21.96000 1.528
21.98000 3.559
22.00000 5.183
22.02000 9.610
22.04000 8.939
22.06000 10.914
22.08000 5.994
22.10000 9.574
22.12000 14.810
22.14000 13.152
22.16000 6.274
22.18000 5.883
22.20000 2.627
22.22000 2.222
22.24000 3.505
22.26000 5.764
22.28000 7.871
22.30000 2.980
22.32000 -0.200
22.34000 8.344
22.36000 16.615
22.38000 11.841
22.40000 6.343
22.42000 12.839
22.44000 8.934
22.46000 7.335
22.48000 2.472
22.50000 -3.997
22.52000 1.387
22.54000 5.416
22.56000 2.559
22.58000 6.231
22.60000 2.353
22.62000 5.880
22.64000 4.133
22.66000 2.993
22.68000 10.181
22.70000 8.494
22.72000 9.367
22.74000 13.918
22.76000 7.782
22.78000 2.020
22.80000 1.656
22.82000 8.109
22.84000 15.134
22.86000 9.060
22.88000 6.726
22.90000 0.556
22.92000 3.319
22.94000 4.097
22.96000 2.758
22.98000 2.019
23.00000 0.204
23.02000 0.407
23.04000 2.523
23.06000 7.459
23.08000 -0.537
23.10000 1.636
23.12000 6.890
23.14000 10.169
23.16000 11.102
23.18000 5.088
23.20000 3.737
23.22000 2.170
23.24000 -3.011
23.26000 -2.520
23.28000 2.909
23.30000 4.282
23.32000 5.198
23.34000 7.056
23.36000 3.080
23.38000 6.374
23.40000 9.036
23.42000 6.600
23.44000 2.676
23.46000 4.265
23.48000 9.762
23.50000 -1.513
23.52000 1.190
23.54000 -0.349
23.56000 1.528
23.58000 2.093
23.60000 2.445
23.62000 -1.867
23.64000 -1.102
23.66000 5.328
23.68000 12.572
23.70000 7.968
23.72000 -0.386
23.74000 -1.130
23.76000 -3.958
23.78000 0.767
23.80000 3.236
23.82000 4.021
23.84000 7.629
23.86000 9.126
23.88000 5.166
23.90000 11.062
23.92000 6.036
23.94000 4.497
23.96000 4.328
23.98000 7.333
24.00000 10.126
24.02000 9.125
24.04000 7.165
24.06000 4.207
24.08000 10.290
24.10000 3.771
24.12000 -3.948
24.14000 -3.116
24.16000 5.276
24.18000 4.448
24.20000 1.294
24.22000 3.342
24.24000 2.794
24.26000 3.559
24.28000 5.121
24.30000 4.621
24.32000 2.734
24.34000 4.446
24.36000 4.789
24.38000 2.271
24.40000 4.239
24.42000 6.188
24.44000 -0.616
24.46000 2.179
24.48000 3.740
24.50000 0.803
24.52000 1.421
24.54000 7.111
24.56000 4.776
24.58000 -0.393
24.60000 1.854
24.62000 3.562
24.64000 9.281
24.66000 4.839
24.68000 0.932
24.70000 4.372
24.72000 5.003
24.74000 2.579
24.76000 -3.931
24.78000 -3.432
24.80000 -2.171
24.82000 1.319
24.84000 -0.082
24.86000 2.558
24.88000 3.676
24.90000 3.073
24.92000 5.713
24.94000 10.366
24.96000 0.717
24.98000 2.795
25.00000 4.731
25.02000 7.797
25.04000 7.152
25.06000 7.037
25.08000 10.270
25.10000 5.176
25.12000 5.767
25.14000 1.774
25.16000 2.083
25.18000 6.076
25.20000 11.324
25.22000 6.249
25.24000 2.437
25.26000 0.399
25.28000 2.224
25.30000 1.362
25.32000 5.542
25.34000 7.107
25.36000 3.831
25.38000 4.906
25.40000 5.684
25.42000 0.180
25.44000 -3.463
25.46000 -0.296
25.48000 1.752
25.50000 -2.215
25.52000 -2.834
25.54000 0.563
25.56000 6.077
25.58000 3.862
25.60000 3.281
25.62000 -1.833
25.64000 0.634
25.66000 -0.023
25.68000 1.173
25.70000 -0.365
25.72000 4.176
25.74000 7.679
25.76000 -0.472
25.78000 -3.875
25.80000 -1.814
25.82000 0.403
25.84000 -1.067
25.86000 4.006
25.88000 6.308
25.90000 -0.447
25.92000 0.137
25.94000 2.807
25.96000 5.540
25.98000 3.451
26.00000 0.910
26.02000 0.180
26.04000 4.401
26.06000 5.178
26.08000 1.353
26.10000 3.323
26.12000 4.832
26.14000 1.125
26.16000 6.025
26.18000 5.725
26.20000 2.844
26.22000 6.900
26.24000 3.066
26.26000 2.143
26.28000 3.378
26.30000 1.379
26.32000 3.717
26.34000 1.518
26.36000 -3.830
26.38000 3.788
26.40000 5.177
26.42000 7.254
26.44000 5.614
26.46000 5.827
26.48000 6.120
26.50000 1.911
26.52000 3.676
26.54000 3.793
26.56000 0.479
26.58000 2.685
26.60000 6.758
26.62000 10.880
26.64000 7.724
26.66000 1.391
26.68000 -2.419
26.70000 -3.226
26.72000 -2.054
26.74000 -1.538
26.76000 2.716
26.78000 1.155
26.80000 -3.813
26.82000 -1.619
26.84000 1.569
26.86000 3.013
26.88000 2.568
26.90000 -0.260
26.92000 2.111
26.94000 2.328
26.96000 -1.590
26.98000 -1.350
27.00000 -0.859
27.02000 0.766
27.04000 3.701
27.06000 1.487
27.08000 3.146
27.10000 0.084
27.12000 3.333
27.14000 4.380
27.16000 -0.212
27.18000 -0.192
27.20000 2.478
27.22000 4.748
27.24000 6.648
27.26000 3.720
27.28000 1.673
27.30000 1.920
27.32000 4.066
27.34000 9.560
27.36000 3.180
27.38000 2.302
27.40000 2.590
27.42000 -0.287
27.44000 -1.190
27.46000 2.722
27.48000 3.196
27.50000 3.842
27.52000 2.028
27.54000 -0.833
27.56000 5.630
27.58000 3.932
27.60000 1.683
27.62000 2.083
27.64000 1.399
27.66000 3.028
27.68000 8.152
27.70000 8.819
27.72000 3.396
27.74000 0.800
27.76000 -1.372
27.78000 -1.603
27.80000 -3.167
27.82000 -0.572
27.84000 -0.621
27.86000 1.338
27.88000 0.478
27.90000 5.308
27.92000 4.534
27.94000 3.411
27.96000 -1.873
27.98000 -0.304
28.00000 2.582
28.02000 0.902
28.04000 5.357
28.06000 1.254
28.08000 1.426
28.10000 1.748
28.12000 5.734
28.14000 1.617
28.16000 3.473
28.18000 5.924
28.20000 2.314
28.22000 2.551
28.24000 -0.511
28.26000 1.633
28.28000 -2.899
28.30000 1.472
28.32000 8.320
28.34000 6.222
28.36000 -1.047
28.38000 1.209
28.40000 6.203
28.42000 3.130
28.44000 -1.746
28.46000 -3.738
28.48000 -0.966
28.50000 3.203
28.52000 3.856
28.54000 3.277
28.56000 3.707
28.58000 -1.015
28.60000 -0.429
28.62000 2.589
28.64000 -2.982
28.66000 -2.686
28.68000 1.662
28.70000 7.047
28.72000 1.901
28.74000 1.687
28.76000 6.045
28.78000 1.157
28.80000 -0.907
28.82000 6.010
28.84000 3.940
28.86000 7.212
28.88000 6.437
28.90000 2.723
28.92000 -1.727
28.94000 0.371
28.96000 5.225
28.98000 4.863
29.00000 2.014
29.02000 4.671
29.04000 0.610
29.06000 -0.055
29.08000 2.031
29.10000 0.838
29.12000 3.147
29.14000 1.455
29.16000 0.529
29.18000 2.830
29.20000 4.766
29.22000 7.048
29.24000 3.812
29.26000 6.021
29.28000 3.141
29.30000 3.425
29.32000 0.509
29.34000 -1.904
29.36000 -3.205
29.38000 1.334
29.40000 2.568
29.42000 3.507
29.44000 -1.631
29.46000 -0.548
29.48000 0.425
29.50000 2.983
29.52000 1.571
29.54000 7.106
29.56000 7.320
29.58000 5.223
29.60000 5.616
29.62000 4.954
29.64000 4.174
29.66000 6.820
29.68000 4.893
29.70000 7.991
29.72000 11.449
29.74000 9.340
29.76000 7.054
29.78000 6.703
29.80000 6.685
29.82000 4.898
29.84000 11.868
29.86000 9.369
29.88000 7.504
29.90000 0.491
29.92000 2.268
29.94000 8.986
29.96000 8.647
29.98000 8.889
30.00000 8.424
30.02000 1.226
30.04000 -3.587
30.06000 -0.355
30.08000 0.870
30.10000 7.229
30.12000 9.313
30.14000 8.594
30.16000 6.058
30.18000 1.576
30.20000 1.220
30.22000 3.132
30.24000 3.705
30.26000 3.988
30.28000 2.707
30.30000 5.042
30.32000 11.986
30.34000 11.672
30.36000 6.017
30.38000 3.776
30.40000 2.588
30.42000 -0.336
30.44000 4.902
30.46000 3.790
30.48000 3.958
30.50000 3.915
30.52000 5.239
30.54000 5.841
30.56000 2.670
30.58000 6.323
30.60000 6.903
30.62000 1.967
30.64000 -1.706
30.66000 1.278
30.68000 5.304
30.70000 2.450
30.72000 9.296
30.74000 8.040
30.76000 1.983
30.78000 3.367
30.80000 4.266
30.82000 0.941
30.84000 4.663
30.86000 6.952
30.88000 1.380
30.90000 1.487
30.92000 3.833
30.94000 3.689
30.96000 6.235
30.98000 5.839
31.00000 6.748
31.02000 6.569
31.04000 6.736
31.06000 0.781
31.08000 0.645
31.10000 1.091
31.12000 1.250
31.14000 0.392
31.16000 -1.889
31.18000 0.201
31.20000 -2.179
31.22000 -1.886
31.24000 -1.031
31.26000 -0.163
31.28000 1.578
31.30000 0.117
31.32000 2.177
31.34000 5.960
31.36000 0.101
31.38000 -1.816
31.40000 -3.585
31.42000 -2.238
31.44000 1.602
31.46000 -1.600
31.48000 4.520
31.50000 6.563
31.52000 7.484
31.54000 3.005
31.56000 3.892
31.58000 2.820
31.60000 5.136
31.62000 -0.235
31.64000 -3.581
31.66000 3.590
31.68000 1.742
31.70000 5.734
31.72000 4.232
31.74000 4.092
31.76000 1.443
31.78000 2.534
31.80000 2.135
31.82000 3.329
31.84000 1.267
31.86000 -0.920
31.88000 4.484
31.90000 1.530
31.92000 1.138
31.94000 1.433
31.96000 -3.227
31.98000 -0.043
32.00000 0.678
32.02000 0.966
32.04000 0.952
32.06000 3.426
32.08000 -0.533
32.10000 -0.005
32.12000 3.165
32.14000 0.530
32.16000 -1.456
32.18000 1.830
32.20000 1.287
32.22000 4.162
32.24000 3.593
32.26000 2.075
32.28000 1.511
32.30000 -0.078
32.32000 0.236
32.34000 0.680
32.36000 3.118
32.38000 3.309
32.40000 2.037
32.42000 3.091
32.44000 0.740
32.46000 3.237
32.48000 -2.548
32.50000 -1.724
32.52000 -1.355
32.54000 -1.583
32.56000 0.857
32.58000 1.165
32.60000 -0.732
32.62000 -3.540
32.64000 -0.100
32.66000 6.309
32.68000 0.022
32.70000 -3.537
32.72000 0.849
32.74000 -1.491
32.76000 -3.536
32.78000 -1.114
32.80000 -2.238
32.82000 0.948
32.84000 -2.365
32.86000 1.966
32.88000 5.955
32.90000 1.105
32.92000 -1.112
32.94000 1.442
32.96000 5.154
32.98000 4.441
33.00000 2.958
33.02000 5.725
33.04000 4.588
33.06000 4.580
33.08000 4.605
33.10000 1.244
33.12000 2.281
33.14000 5.622
33.16000 2.361
33.18000 3.725
33.20000 2.232
33.22000 -2.346
33.24000 -0.040
33.26000 1.760
33.28000 0.828
33.30000 -0.412
33.32000 -0.763
33.34000 2.119
33.36000 -0.531
33.38000 0.412
33.40000 6.573
33.42000 2.619
33.44000 0.253
33.46000 0.183
33.48000 4.461
33.50000 1.704
33.52000 2.749
33.54000 1.369
33.56000 0.686
33.58000 -0.719
33.60000 1.036
33.62000 -0.295
33.64000 -1.978
33.66000 2.877
33.68000 6.980
33.70000 2.910
33.72000 2.876
33.74000 4.477
33.76000 3.740
33.78000 2.625
33.80000 1.696
33.82000 -0.362
33.84000 -0.851
33.86000 -1.853
33.88000 -2.157
33.90000 2.531
33.92000 2.558
33.94000 -0.390
33.96000 -1.503
33.98000 -0.780
34.00000 1.651
34.02000 2.488
34.04000 7.324
34.06000 6.945
34.08000 -0.012
34.10000 -1.360
34.12000 3.331
34.14000 4.119
34.16000 2.885
34.18000 -3.506
34.20000 0.545
34.22000 0.599
34.24000 1.805
34.26000 2.316
34.28000 -0.453
34.30000 4.161
34.32000 6.351
34.34000 2.874
34.36000 2.700
34.38000 2.506
34.40000 2.894
34.42000 3.346
34.44000 2.473
34.46000 0.075
34.48000 -1.661
34.50000 0.494
34.52000 -2.270
34.54000 -0.653
34.56000 2.142
34.58000 -1.830
34.60000 0.405
34.62000 6.935
34.64000 2.295
34.66000 3.531
34.68000 1.220
34.70000 -1.284
34.72000 0.423
34.74000 0.845
34.76000 3.635
34.78000 1.254
34.80000 0.200
34.82000 3.353
34.84000 2.587
34.86000 0.102
34.88000 1.222
34.90000 -1.513
34.92000 -1.767
34.94000 -1.365
34.96000 -1.262
34.98000 -1.514
35.00000 0.168
35.02000 0.762
35.04000 0.873
35.06000 0.159
35.08000 0.350
35.10000 1.354
35.12000 1.801
35.14000 3.735
35.16000 4.872
35.18000 -1.996
35.20000 -1.220
35.22000 -0.664
35.24000 0.120
35.26000 2.214
35.28000 6.830
35.30000 1.296
35.32000 -2.837
35.34000 3.193
35.36000 3.515
35.38000 1.258
35.40000 2.463
35.42000 2.642
35.44000 5.410
35.46000 0.125
35.48000 0.815
35.50000 5.424
35.52000 6.027
35.54000 4.179
35.56000 -1.739
35.58000 -0.233
35.60000 2.479
35.62000 1.793
35.64000 5.294
35.66000 4.756
35.68000 6.811
35.70000 6.773
35.72000 5.667
35.74000 6.641
35.76000 6.827
35.78000 6.591
35.80000 6.194
35.82000 6.342
35.84000 6.338
35.86000 0.530
35.88000 -3.420
35.90000 0.976
35.92000 5.975
35.94000 8.135
35.96000 0.822
35.98000 0.117
36.00000 0.083
36.02000 4.973
36.04000 7.341
36.06000 0.689
36.08000 -2.006
36.10000 1.079
36.12000 4.123
36.14000 5.012
36.16000 7.687
36.18000 7.476
36.20000 5.357
36.22000 5.686
36.24000 8.266
36.26000 6.303
36.28000 4.939
36.30000 1.811
36.32000 1.711
36.34000 0.120
36.36000 1.685
36.38000 -1.635
36.40000 1.778
36.42000 3.656
36.44000 3.663
36.46000 5.224
36.48000 4.676
36.50000 4.298
36.52000 -1.249
36.54000 -1.016
36.56000 3.810
36.58000 2.238
36.60000 2.034
36.62000 3.365
36.64000 7.199
36.66000 4.243
36.68000 0.181
36.70000 7.678
36.72000 4.025
36.74000 3.444
36.76000 0.388
36.78000 0.680
36.80000 1.951
36.82000 2.919
36.84000 3.580
36.86000 0.272
36.88000 1.630
36.90000 5.653
36.92000 3.033
36.94000 -2.965
36.96000 -1.099
36.98000 3.046
37.00000 0.087
37.02000 0.963
37.04000 1.788
37.06000 8.618
37.08000 2.164
37.10000 2.604
37.12000 0.851
37.14000 4.331
37.16000 5.247
37.18000 4.327
37.20000 6.912
37.22000 1.671
37.24000 5.034
37.26000 7.999
37.28000 -0.572
37.30000 -3.448
37.32000 2.353
37.34000 5.322
37.36000 3.681
37.38000 5.193
37.40000 3.805
37.42000 1.023
37.44000 5.336
37.46000 5.179
37.48000 -1.024
37.50000 -0.083
37.52000 -0.702
37.54000 -1.819
37.56000 3.530
37.58000 4.649
37.60000 6.605
37.62000 4.749
37.64000 0.614
37.66000 -0.041
37.68000 -0.440
37.70000 2.650
37.72000 6.976
37.74000 3.182
37.76000 1.890
37.78000 0.297
37.80000 2.830
37.82000 3.627
37.84000 4.723
37.86000 5.201
37.88000 2.933
37.90000 3.132
37.92000 3.388
37.94000 5.442
37.96000 5.392
37.98000 3.361
38.00000 3.403
38.02000 6.605
38.04000 9.112
38.06000 4.519
38.08000 5.075
38.10000 9.119
38.12000 9.451
38.14000 7.814
38.16000 7.360
38.18000 13.711
38.20000 16.819
38.22000 9.290
38.24000 8.195
38.26000 10.477
38.28000 14.426
38.30000 12.196
38.32000 10.143
38.34000 13.435
38.36000 17.280
38.38000 18.878
38.40000 17.325
38.42000 16.358
38.44000 15.265
38.46000 11.011
38.48000 10.885
38.50000 18.427
38.52000 19.629
38.54000 18.754
38.56000 20.164
38.58000 18.930
38.60000 17.553
38.62000 17.966
38.64000 21.951
38.66000 20.438
38.68000 23.600
38.70000 24.042
38.72000 24.189
38.74000 22.006
38.76000 23.746
38.78000 28.174
38.80000 27.977
38.82000 26.187
38.84000 19.513
38.86000 23.291
38.88000 26.380
38.90000 34.071
38.92000 32.122
38.94000 27.424
38.96000 29.347
38.98000 33.809
39.00000 35.974
39.02000 32.730
39.04000 32.116
39.06000 40.161
39.08000 37.379
39.10000 40.045
39.12000 48.934
39.14000 46.273
39.16000 41.956
39.18000 44.908
39.20000 48.770
39.22000 50.254
39.24000 48.663
39.26000 52.546
39.28000 57.078
39.30000 57.668
39.32000 62.930
39.34000 64.510
39.36000 67.542
39.38000 71.856
39.40000 70.023
39.42000 72.989
39.44000 78.398
39.46000 80.663
39.48000 84.205
39.50000 87.553
39.52000 96.740
39.54000 100.804
39.56000 107.550
39.58000 109.941
39.60000 117.583
39.62000 121.178
39.64000 129.204
39.66000 141.797
39.68000 151.458
39.70000 158.639
39.72000 168.791
39.74000 179.647
39.76000 190.475
39.78000 200.750
39.80000 212.037
39.82000 226.195
39.84000 243.296
39.86000 266.929
39.88000 280.217
39.90000 295.857
39.92000 318.106
39.94000 341.395
39.96000 368.936
39.98000 398.916
40.00000 420.057
40.02000 451.736
40.04000 492.225
40.06000 520.379
40.08000 566.061
40.10000 603.359
40.12000 637.627
40.14000 678.086
40.16000 709.400
40.18000 755.056
40.20000 790.759
40.22000 841.928
40.24000 904.285
40.26000 946.730
40.28000 974.261
40.30000 999.754
40.32000 1033.837
40.34000 1059.445
40.36000 1096.155
40.38000 1125.912
40.40000 1132.138
40.42000 1148.587
40.44000 1167.826
40.46000 1161.301
40.48000 1165.035
40.50000 1149.610
40.52000 1138.015
40.54000 1133.867
40.56000 1119.192
40.58000 1087.938
40.60000 1064.694
40.62000 1044.338
40.64000 1019.218
40.66000 994.704
40.68000 952.476
40.70000 919.090
40.72000 881.500
40.74000 845.825
40.76000 815.115
40.78000 786.542
40.80000 751.879
40.82000 710.269
40.84000 674.758
40.86000 644.476
40.88000 601.596
40.90000 571.495
40.92000 539.913
40.94000 512.907
40.96000 481.366
40.98000 452.234
41.00000 429.031
41.02000 400.925
41.04000 372.546
41.06000 353.220
41.08000 330.947
41.10000 307.844
41.12000 286.441
41.14000 275.770
41.16000 263.637
41.18000 250.564
41.20000 241.157
41.22000 229.451
41.24000 212.652
41.26000 198.671
41.28000 180.932
41.30000 174.602
41.32000 172.108
41.34000 168.978
41.36000 157.011
41.38000 141.689
41.40000 131.575
41.42000 129.234
41.44000 123.367
41.46000 115.754
41.48000 114.394
41.50000 104.500
41.52000 106.669
41.54000 103.004
41.56000 93.892
41.58000 86.071
41.60000 84.827
41.62000 79.450
41.64000 79.493
41.66000 72.145
41.68000 67.940
41.70000 62.532
41.72000 62.551
41.74000 65.879
41.76000 61.349
41.78000 54.842
41.80000 54.939
41.82000 53.590
41.84000 49.080
41.86000 45.465
41.88000 44.330
41.90000 39.284
41.92000 38.856
41.94000 38.388
41.96000 36.594
41.98000 32.586
42.00000 33.772
42.02000 32.566
42.04000 31.455
42.06000 35.181
42.08000 30.657
42.10000 29.568
42.12000 27.925
42.14000 30.967
42.16000 27.692
42.18000 23.411
42.20000 21.808
42.22000 20.715
42.24000 19.088
42.26000 17.578
42.28000 17.559
42.30000 22.365
42.32000 21.772
42.34000 17.244
42.36000 13.373
42.38000 11.818
42.40000 10.128
42.42000 10.877
42.44000 11.565
42.46000 10.703
42.48000 13.399
42.50000 15.390
42.52000 13.055
42.54000 9.924
42.56000 14.882
42.58000 14.642
42.60000 11.207
42.62000 9.556
42.64000 8.047
42.66000 6.754
42.68000 6.719
42.70000 5.408
42.72000 6.123
42.74000 7.763
42.76000 6.657
42.78000 3.922
42.80000 5.415
42.82000 3.191
42.84000 3.161
42.86000 4.826
42.88000 6.210
42.90000 5.120
42.92000 8.856
42.94000 6.609
42.96000 6.825
42.98000 3.996
43.00000 1.142
43.02000 2.707
43.04000 -1.785
43.06000 0.696
43.08000 1.492
43.10000 3.032
43.12000 4.813
43.14000 1.918
43.16000 0.668
43.18000 1.329
43.20000 2.223
43.22000 0.040
43.24000 -0.971
43.26000 -0.190
43.28000 -2.646
43.30000 -3.439
43.32000 2.566
43.34000 2.435
43.36000 3.099
43.38000 4.849
43.40000 1.766
43.42000 -1.190
43.44000 -1.272
43.46000 0.138
43.48000 0.066
43.50000 2.655
43.52000 4.311
43.54000 2.564
43.56000 1.007
43.58000 2.598
43.60000 6.406
43.62000 3.215
43.64000 -2.886
43.66000 -2.084
43.68000 -3.390
43.70000 -2.038
43.72000 -0.057
43.74000 -0.366
43.76000 1.328
43.78000 1.625
43.80000 2.369
43.82000 0.296
43.84000 1.952
43.86000 -2.027
43.88000 -2.542
43.90000 -3.365
43.92000 1.081
43.94000 3.801
43.96000 0.172
43.98000 1.935
44.00000 -1.769
44.02000 -1.588
44.04000 -1.106
44.06000 1.780
44.08000 2.570
44.10000 2.779
44.12000 1.417
44.14000 2.849
44.16000 2.051
44.18000 4.429
44.20000 2.260
44.22000 -0.817
44.24000 0.043
44.26000 0.010
44.28000 -0.901
44.30000 0.980
44.32000 1.260
44.34000 3.185
44.36000 3.707
44.38000 4.563
44.40000 3.134
44.42000 2.545
44.44000 1.938
44.46000 -0.895
44.48000 1.633
44.50000 3.260
44.52000 1.357
44.54000 -1.091
44.56000 2.674
44.58000 3.082
44.60000 8.242
44.62000 7.470
44.64000 2.159
44.66000 -0.676
44.68000 -3.258
44.70000 -0.129
44.72000 3.840
44.74000 5.156
44.76000 0.020
44.78000 -0.750
44.80000 2.378
44.82000 0.920
44.84000 1.318
44.86000 2.424
44.88000 0.524
44.90000 0.669
44.92000 3.215
44.94000 0.512
44.96000 4.543
44.98000 2.147
45.00000 6.465
45.02000 3.867
45.04000 1.895
45.06000 1.568
45.08000 3.606
45.10000 6.025
45.12000 0.268
45.14000 -1.551
45.16000 3.711
45.18000 2.317
45.20000 -0.147
45.22000 1.491
45.24000 0.904
45.26000 -0.881
45.28000 1.162
45.30000 2.594
45.32000 5.521
45.34000 4.638
45.36000 5.134
45.38000 4.352
45.40000 5.139
45.42000 7.053
45.44000 6.951
45.46000 7.750
45.48000 8.464
45.50000 9.620
45.52000 10.135
45.54000 9.323
45.56000 8.480
45.58000 5.731
45.60000 3.765
45.62000 9.385
45.64000 11.302
45.66000 6.299
45.68000 7.144
45.70000 13.314
45.72000 13.681
45.74000 16.115
45.76000 21.538
45.78000 15.966
45.80000 14.054
45.82000 11.002
45.84000 11.656
45.86000 13.679
45.88000 15.031
45.90000 17.368
45.92000 18.954
45.94000 21.450
45.96000 22.135
45.98000 19.378
46.00000 22.410
46.02000 25.111
46.04000 21.368
46.06000 24.462
46.08000 29.622
46.10000 29.432
46.12000 29.563
46.14000 35.920
46.16000 38.762
46.18000 37.642
46.20000 40.038
46.22000 38.972
46.24000 34.448
46.26000 38.227
46.28000 45.753
46.30000 47.104
46.32000 43.695
46.34000 45.681
46.36000 53.264
46.38000 56.808
46.40000 58.662
46.42000 67.108
46.44000 71.665
46.46000 72.789
46.48000 82.899
46.50000 84.165
46.52000 84.313
46.54000 90.919
46.56000 95.967
46.58000 100.542
46.60000 108.352
46.62000 113.672
46.64000 113.753
46.66000 119.997
46.68000 124.262
46.70000 128.278
46.72000 134.447
46.74000 144.450
46.76000 146.617
46.78000 159.578
46.80000 173.484
46.82000 175.222
46.84000 188.505
46.86000 194.451
46.88000 200.747
46.90000 205.762
46.92000 209.427
46.94000 211.527
46.96000 216.201
46.98000 225.495
47.00000 229.138
47.02000 233.935
47.04000 235.782
47.06000 234.675
47.08000 233.150
47.10000 230.118
47.12000 236.941
47.14000 240.352
47.16000 239.101
47.18000 221.959
47.20000 218.154
47.22000 219.005
47.24000 215.756
47.26000 210.684
47.28000 202.313
47.30000 193.516
47.32000 185.657
47.34000 180.738
47.36000 170.081
47.38000 164.734
47.40000 159.166
47.42000 155.059
47.44000 151.341
47.46000 138.362
47.48000 128.737
47.50000 124.537
47.52000 118.188
47.54000 110.089
47.56000 103.967
47.58000 99.546
47.60000 92.836
47.62000 86.688
47.64000 81.294
47.66000 79.843
47.68000 74.902
47.70000 71.995
47.72000 70.259
47.74000 61.654
47.76000 60.339
47.78000 60.436
47.80000 55.704
47.82000 56.177
47.84000 54.256
47.86000 47.448
47.88000 40.205
47.90000 38.482
47.92000 36.212
47.94000 34.823
47.96000 34.924
47.98000 31.504
48.00000 27.363
48.02000 29.101
48.04000 29.212
48.06000 26.503
48.08000 21.184
48.10000 20.118
48.12000 19.833
48.14000 16.050
48.16000 14.472
48.18000 20.734
48.20000 16.087
48.22000 9.929
48.24000 6.630
48.26000 5.857
48.28000 6.350
48.30000 12.777
48.32000 11.102
48.34000 7.187
48.36000 9.261
48.38000 3.618
48.40000 4.665
48.42000 7.279
48.44000 3.994
48.46000 4.431
48.48000 8.008
48.50000 6.567
48.52000 6.245
48.54000 3.579
48.56000 1.217
48.58000 1.010
48.60000 2.027
48.62000 4.693
48.64000 4.466
48.66000 0.998
48.68000 1.837
48.70000 1.461
48.72000 1.088
48.74000 3.405
48.76000 6.956
48.78000 2.915
48.80000 3.073
48.82000 1.814
48.84000 1.954
48.86000 2.100
48.88000 2.042
48.90000 5.369
48.92000 2.075
48.94000 -2.363
48.96000 0.710
48.98000 1.691
49.00000 1.628
49.02000 -0.497
49.04000 -0.896
49.06000 -2.786
49.08000 1.260
49.10000 1.698
49.12000 3.648
49.14000 7.114
49.16000 2.634
49.18000 -0.420
49.20000 -2.456
49.22000 -0.634
49.24000 -1.158
49.26000 -2.611
49.28000 -1.165
49.30000 -1.980
49.32000 0.412
49.34000 -0.436
49.36000 -0.279
49.38000 -0.032
49.40000 2.265
49.42000 0.634
49.44000 1.998
49.46000 3.773
49.48000 1.265
49.50000 -1.923
49.52000 -1.827
49.54000 -1.151
49.56000 -2.049
49.58000 0.239
49.60000 0.556
49.62000 -2.473
49.64000 0.608
49.66000 1.372
49.68000 -1.087
49.70000 1.949
49.72000 -1.295
49.74000 0.727
49.76000 2.549
49.78000 2.751
49.80000 0.796
49.82000 4.189
49.84000 1.369
49.86000 -2.450
49.88000 -2.632
49.90000 0.071
49.92000 0.096
49.94000 1.441
49.96000 3.116
49.98000 1.685
50.00000 -0.103
50.02000 2.227
50.04000 1.181
50.06000 -0.947
50.08000 2.229
50.10000 2.859
50.12000 4.195
50.14000 2.712
50.16000 1.710
50.18000 2.451
50.20000 -0.130
50.22000 -1.712
50.24000 -0.264
50.26000 0.450
50.28000 -1.790
50.30000 -1.298
50.32000 2.981
50.34000 4.247
50.36000 2.559
50.38000 2.059
50.40000 1.203
50.42000 -1.018
50.44000 2.392
50.46000 2.706
50.48000 0.905
50.50000 2.901
50.52000 3.365
50.54000 2.383
50.56000 5.803
50.58000 1.355
50.60000 1.181
50.62000 -0.481
50.64000 1.688
50.66000 5.097
50.68000 5.889
50.70000 2.374
50.72000 1.317
50.74000 -0.299
50.76000 -2.530
50.78000 2.569
50.80000 3.454
50.82000 2.994
50.84000 4.100
50.86000 4.309
50.88000 5.810
50.90000 4.369
50.92000 4.306
50.94000 5.357
50.96000 3.183
50.98000 1.224
51.00000 2.368
51.02000 1.772
51.04000 1.861
51.06000 6.360
51.08000 2.603
51.10000 0.259
51.12000 3.012
51.14000 6.856
51.16000 6.814
51.18000 1.284
51.20000 -0.520
51.22000 -0.783
51.24000 1.093
51.26000 3.426
51.28000 3.361
51.30000 -2.119
51.32000 0.955
51.34000 3.118
51.36000 -0.223
51.38000 2.246
51.40000 2.254
51.42000 0.918
51.44000 -2.503
51.46000 1.694
51.48000 2.221
51.50000 0.427
51.52000 -2.157
51.54000 1.380
51.56000 0.750
51.58000 5.002
51.60000 2.225
51.62000 0.619
51.64000 -0.250
51.66000 -0.073
51.68000 -0.456
51.70000 -0.693
51.72000 -1.779
51.74000 0.838
51.76000 0.251
51.78000 -0.225
51.80000 1.697
51.82000 3.805
51.84000 -1.006
51.86000 -1.126
51.88000 0.010
51.90000 -0.609
51.92000 -2.496
51.94000 0.002
51.96000 2.177
51.98000 2.911
52.00000 4.099
52.02000 1.737
52.04000 2.134
52.06000 4.729
52.08000 0.660
52.10000 1.833
52.12000 4.153
52.14000 2.321
52.16000 3.386
52.18000 0.984
52.20000 1.884
52.22000 2.018
52.24000 -1.463
52.26000 -2.480
52.28000 2.286
52.30000 2.661
52.32000 -0.017
52.34000 2.559
52.36000 2.203
52.38000 1.724
52.40000 0.488
52.42000 3.443
52.44000 1.543
52.46000 2.109
52.48000 0.491
52.50000 0.019
52.52000 1.904
52.54000 -0.683
52.56000 -1.167
52.58000 2.321
52.60000 3.200
52.62000 3.717
52.64000 3.212
52.66000 3.196
52.68000 -0.327
52.70000 -0.947
52.72000 -0.892
52.74000 1.938
52.76000 5.962
52.78000 4.953
52.80000 1.773
52.82000 -0.189
52.84000 -1.411
52.86000 -0.144
52.88000 -1.532
52.90000 -1.410
52.92000 1.915
52.94000 -1.664
52.96000 -1.323
52.98000 3.532
53.00000 4.373
53.02000 1.627
53.04000 0.948
53.06000 0.844
53.08000 0.138
53.10000 2.529
53.12000 1.476
53.14000 3.850
53.16000 1.149
53.18000 1.270
53.20000 3.002
53.22000 -2.222
53.24000 -2.434
53.26000 2.328
53.28000 2.734
53.30000 2.933
53.32000 0.924
53.34000 0.623
53.36000 4.307
53.38000 0.662
53.40000 2.058
53.42000 1.948
53.44000 1.012
53.46000 2.370
53.48000 2.645
53.50000 4.244
53.52000 3.741
53.54000 -0.316
53.56000 2.203
53.58000 2.009
53.60000 -0.773
53.62000 2.158
53.64000 6.929
53.66000 5.690
53.68000 5.952
53.70000 1.771
53.72000 -0.210
53.74000 0.956
53.76000 4.576
53.78000 6.249
53.80000 1.772
53.82000 -1.029
53.84000 -2.408
53.86000 1.248
53.88000 3.666
53.90000 7.916
53.92000 3.356
53.94000 2.604
53.96000 1.207
53.98000 1.067
54.00000 3.350
54.02000 0.583
54.04000 -0.607
54.06000 1.062
54.08000 2.929
54.10000 4.039
54.12000 0.111
54.14000 0.504
54.16000 0.846
54.18000 2.761
54.20000 4.587
54.22000 1.465
54.24000 0.348
54.26000 2.584
54.28000 4.111
54.30000 2.187
54.32000 1.311
54.34000 4.417
54.36000 4.291
54.38000 4.645
54.40000 5.349
54.42000 3.312
54.44000 3.940
54.46000 2.711
54.48000 4.286
54.50000 5.606
54.52000 4.449
54.54000 5.201
54.56000 2.758
54.58000 2.442
54.60000 0.295
54.62000 2.570
54.64000 3.801
54.66000 0.604
54.68000 2.711
54.70000 3.487
54.72000 3.862
54.74000 3.660
54.76000 3.262
54.78000 2.654
54.80000 2.539
54.82000 -2.353
54.84000 -2.352
54.86000 1.386
54.88000 5.928
54.90000 3.702
54.92000 3.970
54.94000 1.514
54.96000 2.744
54.98000 0.523
55.00000 4.173
55.02000 4.268
55.04000 1.986
55.06000 1.519
55.08000 0.876
55.10000 1.029
55.12000 2.396
55.14000 4.904
55.16000 1.776
55.18000 4.519
55.20000 5.697
55.22000 4.901
55.24000 5.762
55.26000 2.817
55.28000 1.450
55.30000 2.440
55.32000 4.001
55.34000 1.066
55.36000 2.249
55.38000 3.141
55.40000 2.161
55.42000 3.944
55.44000 5.642
55.46000 3.319
55.48000 2.756
55.50000 1.631
55.52000 0.503
55.54000 0.100
55.56000 -1.697
55.58000 1.596
55.60000 3.225
55.62000 1.691
55.64000 1.062
55.66000 1.655
55.68000 1.008
55.70000 1.035
55.72000 -0.601
55.74000 0.470
55.76000 2.486
55.78000 2.622
55.80000 0.767
55.82000 1.079
55.84000 0.295
55.86000 -1.084
55.88000 2.112
55.90000 0.272
55.92000 2.315
55.94000 -1.233
55.96000 1.898
55.98000 4.645
56.00000 2.836
56.02000 0.298
56.04000 3.245
56.06000 8.362
56.08000 4.870
56.10000 0.589
56.12000 1.342
56.14000 -0.109
56.16000 -1.449
56.18000 1.355
56.20000 3.429
56.22000 2.176
56.24000 0.012
56.26000 -0.585
56.28000 1.897
56.30000 -1.268
56.32000 0.733
56.34000 1.666
56.36000 3.697
56.38000 4.553
56.40000 3.684
56.42000 2.430
56.44000 4.108
56.46000 0.733
56.48000 0.516
56.50000 1.371
56.52000 1.787
56.54000 -2.314
56.56000 -0.127
56.58000 0.726
56.60000 1.986
56.62000 -0.779
56.64000 -0.478
56.66000 1.612
56.68000 5.648
56.70000 4.647
56.72000 3.810
56.74000 5.077
56.76000 2.167
56.78000 0.275
56.80000 1.548
56.82000 2.520
56.84000 0.833
56.86000 4.248
56.88000 4.911
56.90000 2.709
56.92000 1.578
56.94000 0.455
56.96000 0.050
56.98000 -2.319
57.00000 -1.612
57.02000 -0.360
57.04000 3.553
57.06000 3.199
57.08000 5.298
57.10000 6.284
57.12000 5.488
57.14000 2.303
57.16000 1.423
57.18000 1.485
57.20000 1.780
57.22000 2.035
57.24000 3.548
57.26000 -0.541
57.28000 -1.457
57.30000 0.166
57.32000 1.099
57.34000 -1.269
57.36000 -1.205
57.38000 -0.010
57.40000 -0.856
57.42000 5.442
57.44000 -0.232
57.46000 -2.320
57.48000 0.748
57.50000 -0.325
57.52000 -0.785
57.54000 0.814
57.56000 0.128
57.58000 0.392
57.60000 3.074
57.62000 -0.201
57.64000 -1.894
57.66000 1.926
57.68000 -0.721
57.70000 -0.144
57.72000 0.034
57.74000 2.048
57.76000 0.609
57.78000 0.105
57.80000 -1.223
57.82000 -0.392
57.84000 -2.310
57.86000 -0.261
57.88000 1.979
57.90000 0.505
57.92000 1.486
57.94000 0.962
57.96000 -2.202
57.98000 2.063
58.00000 5.500
58.02000 1.314
58.04000 1.050
58.06000 1.392
58.08000 4.009
58.10000 -0.091
58.12000 0.576
58.14000 1.951
58.16000 4.425
58.18000 2.022
58.20000 3.334
58.22000 1.582
58.24000 0.200
58.26000 0.318
58.28000 1.808
58.30000 0.233
58.32000 0.999
58.34000 1.256
58.36000 2.042
58.38000 2.389
58.40000 3.226
58.42000 2.076
58.44000 3.175
58.46000 3.361
58.48000 3.604
58.50000 -0.531
58.52000 -2.271
58.54000 1.569
58.56000 2.987
58.58000 2.981
58.60000 2.114
58.62000 1.239
58.64000 2.391
58.66000 5.820
58.68000 8.093
58.70000 1.623
58.72000 2.198
58.74000 0.909
58.76000 1.616
58.78000 0.985
58.80000 2.001
58.82000 5.499
58.84000 6.336
58.86000 6.380
58.88000 2.656
58.90000 -1.294
58.92000 -1.036
58.94000 -0.213
58.96000 0.457
58.98000 3.804
59.00000 1.200
59.02000 -0.601
59.04000 -2.272
59.06000 -0.800
59.08000 0.154
59.10000 -0.343
59.12000 0.370
59.14000 0.867
59.16000 -0.480
59.18000 -1.274
59.20000 1.088
59.22000 -1.966
59.24000 -1.095
59.26000 1.920
59.28000 -0.943
59.30000 -0.316
59.32000 -1.731
59.34000 1.420
59.36000 3.465
59.38000 4.497
59.40000 3.336
59.42000 4.312
59.44000 0.627
59.46000 -0.842
59.48000 -0.711
59.50000 -0.314
59.52000 -1.774
59.54000 0.143
59.56000 -0.313
59.58000 -1.485
59.60000 0.152
59.62000 2.576
59.64000 2.684
59.66000 4.216
59.68000 3.311
59.70000 4.515
59.72000 1.454
59.74000 1.136
59.76000 -0.248
59.78000 1.471
59.80000 0.074
59.82000 -1.390
59.84000 0.384
59.86000 -0.494
59.88000 -2.253
59.90000 1.112
59.92000 3.779
59.94000 2.108
59.96000 -0.053
59.98000 2.076
60.00000 2.943
60.02000 -0.223
60.04000 2.432
60.06000 4.310
60.08000 2.171
60.10000 1.143
60.12000 1.887
60.14000 2.157
60.16000 -1.644
60.18000 0.207
60.20000 4.801
60.22000 3.323
60.24000 5.286
60.26000 1.191
60.28000 2.225
60.30000 0.419
60.32000 2.876
60.34000 6.139
60.36000 3.948
60.38000 -0.466
60.40000 -2.017
60.42000 0.112
60.44000 1.955
60.46000 5.639
60.48000 2.243
60.50000 -0.138
60.52000 2.063
60.54000 3.153
60.56000 -0.347
60.58000 -1.522
60.60000 0.677
60.62000 0.945
60.64000 -2.020
60.66000 -2.229
60.68000 1.607
60.70000 0.036
60.72000 -0.056
60.74000 0.592
60.76000 0.376
60.78000 2.034
60.80000 3.775
60.82000 0.918
60.84000 -0.978
60.86000 0.293
60.88000 -1.599
60.90000 -1.810
60.92000 -1.783
60.94000 1.750
60.96000 3.532
60.98000 -0.489
61.00000 -0.994
61.02000 -0.795
61.04000 -0.638
61.06000 0.883
61.08000 2.771
61.10000 3.297
61.12000 0.233
61.14000 1.609
61.16000 2.206
61.18000 1.426
61.20000 1.046
61.22000 1.446
61.24000 4.689
61.26000 5.252
61.28000 1.300
61.30000 1.867
61.32000 -1.257
61.34000 -1.245
61.36000 2.557
61.38000 3.690
61.40000 1.664
61.42000 0.309
61.44000 -1.877
61.46000 0.047
61.48000 0.039
61.50000 1.728
61.52000 4.257
61.54000 2.094
61.56000 -2.190
61.58000 -1.461
61.60000 1.486
61.62000 3.276
61.64000 2.873
61.66000 5.302
61.68000 3.797
61.70000 3.549
61.72000 4.035
61.74000 0.949
61.76000 -0.918
61.78000 4.491
61.80000 0.392
61.82000 -0.896
61.84000 3.970
61.86000 2.653
61.88000 2.348
61.90000 0.854
61.92000 -0.858
61.94000 2.994
61.96000 5.099
61.98000 1.167
62.00000 6.535
62.02000 6.316
62.04000 2.697
62.06000 0.772
62.08000 0.730
62.10000 1.754
62.12000 1.188
62.14000 1.866
62.16000 0.302
62.18000 2.450
62.20000 3.612
62.22000 3.675
62.24000 -2.159
62.26000 2.099
62.28000 1.112
62.30000 0.803
62.32000 3.719
62.34000 2.857
62.36000 2.717
62.38000 3.995
62.40000 1.131
62.42000 -0.212
62.44000 -2.155
62.46000 2.387
62.48000 3.288
62.50000 2.141
62.52000 1.874
62.54000 2.755
62.56000 2.686
62.58000 4.268
62.60000 5.606
62.62000 0.864
62.64000 -1.739
62.66000 2.917
62.68000 3.501
62.70000 1.022
62.72000 1.108
62.74000 1.742
62.76000 1.760
62.78000 3.038
62.80000 2.367
62.82000 0.558
62.84000 3.067
62.86000 2.063
62.88000 0.561
62.90000 -0.366
62.92000 -0.834
62.94000 2.932
62.96000 2.570
62.98000 3.485
63.00000 1.481
63.02000 -0.823
63.04000 2.103
63.06000 2.117
63.08000 2.359
63.10000 0.700
63.12000 -1.022
63.14000 -1.845
63.16000 3.104
63.18000 5.162
63.20000 3.587
63.22000 0.205
63.24000 -2.144
63.26000 -1.933
63.28000 0.332
63.30000 0.706
63.32000 2.409
63.34000 3.244
63.36000 2.767
63.38000 0.220
63.40000 1.441
63.42000 1.059
63.44000 1.149
63.46000 2.449
63.48000 1.289
63.50000 2.070
63.52000 -1.754
63.54000 -0.922
63.56000 3.473
63.58000 0.546
63.60000 -0.684
63.62000 0.817
63.64000 3.087
63.66000 1.072
63.68000 1.746
63.70000 3.560
63.72000 0.748
63.74000 1.265
63.76000 -1.124
63.78000 -0.328
63.80000 1.259
63.82000 2.667
63.84000 0.271
63.86000 -0.866
63.88000 0.973
63.90000 0.425
63.92000 -0.022
63.94000 0.265
63.96000 1.848
63.98000 0.152
64.00000 1.751
64.02000 0.378
64.04000 0.186
64.06000 0.643
64.08000 1.449
64.10000 -1.163
64.12000 -2.147
64.14000 -1.284
64.16000 0.483
64.18000 -0.471
64.20000 -1.932
64.22000 2.368
64.24000 1.541
64.26000 1.639
64.28000 -0.474
64.30000 0.881
64.32000 -0.379
64.34000 -1.205
64.36000 0.783
64.38000 2.809
64.40000 1.193
64.42000 1.612
64.44000 2.587
64.46000 2.466
64.48000 1.238
64.50000 -0.445
64.52000 0.291
64.54000 0.394
64.56000 -0.093
64.58000 1.201
64.60000 2.340
64.62000 1.961
64.64000 2.428
64.66000 1.036
64.68000 0.532
64.70000 2.256
64.72000 5.485
64.74000 4.076
64.76000 4.835
64.78000 3.103
64.80000 3.193
64.82000 4.377
64.84000 2.014
64.86000 1.173
64.88000 1.635
64.90000 2.576
64.92000 3.382
64.94000 -0.222
64.96000 -2.107
64.98000 -0.999
65.00000 3.577
65.02000 3.307
65.04000 5.075
65.06000 4.023
65.08000 1.186
65.10000 -0.557
65.12000 -0.684
65.14000 1.048
65.16000 0.163
65.18000 -0.042
65.20000 0.416
65.22000 -0.849
65.24000 0.286
65.26000 3.044
65.28000 3.059
65.30000 -0.447
65.32000 -0.289
65.34000 -0.356
65.36000 1.472
65.38000 1.031
65.40000 3.043
65.42000 2.731
65.44000 2.511
65.46000 0.337
65.48000 -0.907
65.50000 0.865
65.52000 1.943
65.54000 1.474
65.56000 6.210
65.58000 5.641
65.60000 2.130
65.62000 2.049
65.64000 2.318
65.66000 1.395
65.68000 1.517
65.70000 2.981
65.72000 0.754
65.74000 1.254
65.76000 2.412
65.78000 3.636
65.80000 5.244
65.82000 1.837
65.84000 1.566
65.86000 0.670
65.88000 1.495
65.90000 1.721
65.92000 -0.062
65.94000 -2.098
65.96000 -1.272
65.98000 -1.268
66.00000 -0.566
66.02000 -1.020
66.04000 0.310
66.06000 -0.105
66.08000 0.989
66.10000 -0.804
66.12000 -2.102
66.14000 1.617
66.16000 2.976
66.18000 0.793
66.20000 0.124
66.22000 1.503
66.24000 2.023
66.26000 1.836
66.28000 0.461
66.30000 -1.346
66.32000 2.562
66.34000 2.144
66.36000 -1.207
66.38000 1.846
66.40000 5.190
66.42000 2.090
66.44000 1.313
66.46000 1.410
66.48000 1.145
66.50000 3.023
66.52000 0.038
66.54000 0.661
66.56000 2.732
66.58000 -1.899
66.60000 -0.102
66.62000 0.199
66.64000 0.632
66.66000 -0.048
66.68000 0.856
66.70000 0.266
66.72000 0.957
66.74000 1.357
66.76000 0.464
66.78000 2.000
66.80000 2.560
66.82000 4.058
66.84000 2.990
66.86000 0.457
66.88000 1.512
66.90000 3.259
66.92000 -0.900
66.94000 -2.096
66.96000 -0.780
66.98000 0.611
67.00000 3.161
67.02000 0.874
67.04000 -0.246
67.06000 0.052
67.08000 1.781
67.10000 2.435
67.12000 0.412
67.14000 -0.619
67.16000 -1.154
67.18000 1.150
67.20000 0.159
67.22000 0.609
67.24000 0.151
67.26000 -0.615
67.28000 -0.155
67.30000 2.691
67.32000 4.383
67.34000 1.706
67.36000 1.235
67.38000 1.167
67.40000 0.545
67.42000 -1.099
67.44000 -0.680
67.46000 -0.164
67.48000 -1.730
67.50000 0.001
67.52000 0.882
67.54000 0.905
67.56000 2.284
67.58000 0.359
67.60000 2.413
67.62000 1.437
67.64000 -1.410
67.66000 0.865
67.68000 1.223
67.70000 1.562
67.72000 1.195
67.74000 -0.749
67.76000 -2.148
67.78000 -0.599
67.80000 -1.426
67.82000 -0.457
67.84000 0.534
67.86000 3.438
67.88000 4.111
67.90000 4.439
67.92000 5.427
67.94000 4.505
67.96000 5.075
67.98000 3.282
68.00000 3.344
68.02000 5.809
68.04000 8.183
68.06000 7.899
68.08000 6.779
68.10000 4.904
68.12000 7.642
68.14000 6.336
68.16000 8.451
68.18000 10.504
68.20000 9.096
68.22000 8.953
68.24000 11.064
68.26000 10.010
68.28000 10.638
68.30000 12.103
68.32000 13.881
68.34000 13.672
68.36000 18.764
68.38000 16.604
68.40000 16.583
68.42000 15.692
68.44000 14.552
68.46000 16.185
68.48000 18.098
68.50000 19.355
68.52000 22.021
68.54000 24.263
68.56000 23.952
68.58000 19.505
68.60000 21.911
68.62000 26.062
68.64000 24.707
68.66000 22.866
68.68000 21.677
68.70000 25.604
68.72000 27.887
68.74000 26.752
68.76000 24.450
68.78000 25.347
68.80000 26.258
68.82000 25.872
68.84000 22.263
68.86000 26.085
68.88000 27.586
68.90000 28.217
68.92000 26.474
68.94000 22.175
68.96000 20.340
68.98000 20.721
69.00000 20.384
69.02000 18.177
69.04000 18.066
69.06000 20.118
69.08000 20.184
69.10000 19.321
69.12000 16.107
69.14000 15.279
69.16000 16.832
69.18000 17.774
69.20000 15.226
69.22000 15.422
69.24000 15.958
69.26000 12.686
69.28000 10.415
69.30000 9.860
69.32000 10.257
69.34000 11.377
69.36000 9.357
69.38000 8.021
69.40000 8.079
69.42000 8.111
69.44000 7.500
69.46000 6.185
69.48000 6.610
69.50000 5.396
69.52000 8.096
69.54000 7.213
69.56000 5.952
69.58000 4.808
69.60000 2.229
69.62000 2.917
69.64000 2.831
69.66000 2.130
69.68000 3.109
69.70000 3.600
69.72000 3.513
69.74000 3.216
69.76000 5.555
69.78000 6.074
69.80000 3.143
69.82000 -0.256
69.84000 2.004
69.86000 3.732
69.88000 1.124
69.90000 1.546
69.92000 1.331
69.94000 1.860
69.96000 4.648
69.98000 2.825
70.00000 1.729
70.02000 0.500
70.04000 0.187
70.06000 -1.141
70.08000 0.395
70.10000 -0.646
70.12000 -0.947
70.14000 0.909
70.16000 2.638
70.18000 -1.437
70.20000 -2.030
70.22000 0.173
70.24000 2.664
70.26000 3.169
70.28000 1.621
70.30000 0.060
70.32000 -1.291
70.34000 -0.375
70.36000 -1.655
70.38000 -1.577
70.40000 1.049
70.42000 3.075
70.44000 4.305
70.46000 1.549
70.48000 2.124
70.50000 4.261
70.52000 2.393
70.54000 0.281
70.56000 1.977
70.58000 0.198
70.60000 -2.004
70.62000 0.936
70.64000 0.576
70.66000 0.075
70.68000 -0.079
70.70000 0.682
70.72000 0.325
70.74000 1.546
70.76000 2.301
70.78000 0.996
70.80000 0.130
70.82000 0.233
70.84000 1.393
70.86000 1.660
70.88000 -1.197
70.90000 1.717
70.92000 0.511
70.94000 -1.932
70.96000 -0.297
70.98000 -1.974
71.00000 -1.304
71.02000 -0.518
71.04000 0.431
71.06000 0.937
71.08000 -1.969
71.10000 0.030
71.12000 -0.019
71.14000 1.253
71.16000 0.302
71.18000 -0.796
71.20000 1.229
71.22000 1.126
71.24000 -0.686
71.26000 1.598
71.28000 1.356
71.30000 0.294
71.32000 -0.614
71.34000 0.089
71.36000 2.817
71.38000 1.288
71.40000 0.436
71.42000 0.340
71.44000 0.248
71.46000 4.482
71.48000 2.515
71.50000 -0.040
71.52000 -0.969
71.54000 0.633
71.56000 0.369
71.58000 -1.329
71.60000 -1.685
71.62000 -1.926
71.64000 0.960
71.66000 2.805
71.68000 -0.994
71.70000 0.764
71.72000 0.378
71.74000 1.700
71.76000 3.602
71.78000 2.317
71.80000 1.573
71.82000 3.107
71.84000 0.056
71.86000 -0.126
71.88000 -0.533
71.90000 0.284
71.92000 0.658
71.94000 -1.554
71.96000 -0.834
71.98000 -0.250
72.00000 0.010
72.02000 -1.338
72.04000 -1.054
72.06000 -0.813
72.08000 -0.654
72.10000 -1.906
72.12000 -1.463
72.14000 -1.342
72.16000 -0.262
72.18000 0.052
72.20000 -0.361
72.22000 0.829
72.24000 3.200
72.26000 2.158
72.28000 -0.150
72.30000 -0.296
72.32000 0.242
72.34000 0.109
72.36000 -0.662
72.38000 -1.348
72.40000 -1.733
72.42000 0.983
72.44000 1.547
72.46000 0.073
72.48000 -1.316
72.50000 -0.641
72.52000 -0.741
72.54000 -1.664
72.56000 -0.005
72.58000 1.470
72.60000 0.611
72.62000 -0.083
72.64000 -1.176
72.66000 -0.248
72.68000 -1.889
72.70000 -0.873
72.72000 0.507
72.74000 0.094
72.76000 -0.492
72.78000 -1.823
72.80000 -0.750
72.82000 -1.589
72.84000 1.973
72.86000 0.483
72.88000 0.588
72.90000 0.054
72.92000 2.262
72.94000 2.497
72.96000 0.451
72.98000 0.865
73.00000 1.752
73.02000 -1.572
73.04000 -0.666
73.06000 1.230
73.08000 2.214
73.10000 4.341
73.12000 5.424
73.14000 5.561
73.16000 1.673
73.18000 -0.935
73.20000 -1.497
73.22000 -0.605
73.24000 1.622
73.26000 -0.079
73.28000 0.519
73.30000 -0.257
73.32000 -1.489
73.34000 -1.649
73.36000 -0.330
73.38000 1.320
73.40000 -1.707
73.42000 -1.838
73.44000 -1.452
73.46000 -1.863
73.48000 -1.407
73.50000 -1.647
73.52000 -0.164
73.54000 0.538
73.56000 1.405
73.58000 2.009
73.60000 0.403
73.62000 1.648
73.64000 0.349
73.66000 -0.942
73.68000 2.332
73.70000 3.898
73.72000 3.754
73.74000 4.063
73.76000 2.168
73.78000 0.522
73.80000 1.243
73.82000 1.708
73.84000 2.879
73.86000 1.163
73.88000 1.091
73.90000 -0.971
73.92000 -1.866
73.94000 0.635
73.96000 1.276
73.98000 2.009
74.00000 -0.494
74.02000 -1.616
74.04000 -1.857
74.06000 -1.839
74.08000 -1.863
74.10000 -0.701
74.12000 2.590
74.14000 3.623
74.16000 0.888
74.18000 -0.280
74.20000 -0.102
74.22000 1.275
74.24000 1.866
74.26000 -1.037
74.28000 0.926
74.30000 3.302
74.32000 6.568
74.34000 5.050
74.36000 0.933
74.38000 0.166
74.40000 0.091
74.42000 -1.745
74.44000 -0.280
74.46000 2.655
74.48000 1.041
74.50000 2.968
74.52000 3.857
74.54000 1.766
74.56000 2.470
74.58000 3.775
74.60000 2.643
74.62000 -0.305
74.64000 -0.635
74.66000 -0.041
74.68000 3.301
74.70000 2.916
74.72000 -1.854
74.74000 -0.239
74.76000 3.503
74.78000 1.810
74.80000 -0.358
74.82000 -0.617
74.84000 0.568
74.86000 1.982
74.88000 3.600
74.90000 0.613
74.92000 2.525
74.94000 0.118
74.96000 2.445
74.98000 2.540
75.00000 3.261
75.02000 3.188
75.04000 1.959
75.06000 0.692
75.08000 1.725
75.10000 -0.073
75.12000 0.985
75.14000 1.089
75.16000 1.198
75.18000 -0.299
75.20000 -0.312
75.22000 -1.833
75.24000 0.556
75.26000 1.659
75.28000 3.082
75.30000 1.355
75.32000 2.233
75.34000 3.332
75.36000 1.777
75.38000 4.410
75.40000 2.023
75.42000 -0.012
75.44000 -1.196
75.46000 0.545
75.48000 1.923
75.50000 1.176
75.52000 0.167
75.54000 0.794
75.56000 2.113
75.58000 1.420
75.60000 1.751
75.62000 0.317
75.64000 5.084
75.66000 2.246
75.68000 0.296
75.70000 1.289
75.72000 1.783
75.74000 0.765
75.76000 3.854
75.78000 1.156
75.80000 -0.688
75.82000 -1.315
75.84000 1.970
75.86000 2.480
75.88000 0.993
75.90000 1.133
75.92000 2.604
75.94000 0.922
75.96000 -0.954
75.98000 -0.188
76.00000 2.675
76.02000 -0.397
76.04000 -1.017
76.06000 -1.177
76.08000 2.858
76.10000 2.218
76.12000 1.205
76.14000 -1.869
76.16000 -1.500
76.18000 0.622
76.20000 2.444
76.22000 2.404
76.24000 1.342
76.26000 2.114
76.28000 2.463
76.30000 3.446
76.32000 1.089
76.34000 0.990
76.36000 1.539
76.38000 1.805
76.40000 -0.049
76.42000 0.802
76.44000 1.464
76.46000 0.433
76.48000 0.843
76.50000 0.716
76.52000 0.071
76.54000 0.854
76.56000 1.497
76.58000 2.030
76.60000 1.161
76.62000 -0.777
76.64000 -0.180
76.66000 2.761
76.68000 -0.151
76.70000 -1.865
76.72000 0.803
76.74000 3.968
76.76000 1.519
76.78000 0.770
76.80000 0.561
76.82000 3.749
76.84000 2.400
76.86000 1.804
76.88000 2.602
76.90000 0.263
76.92000 -0.993
76.94000 -0.579
76.96000 -0.215
76.98000 -1.280
77.00000 3.209
77.02000 3.638
77.04000 0.871
77.06000 2.564
77.08000 0.955
77.10000 2.417
77.12000 1.362
77.14000 2.777
77.16000 4.226
77.18000 0.937
77.20000 0.846
77.22000 2.334
77.24000 1.701
77.26000 2.200
77.28000 2.352
77.30000 1.915
77.32000 3.592
77.34000 3.673
77.36000 2.110
77.38000 2.859
77.40000 1.758
77.42000 -0.222
77.44000 2.541
77.46000 3.209
77.48000 4.692
77.50000 -0.012
77.52000 -0.678
77.54000 2.092
77.56000 1.328
77.58000 -0.107
77.60000 -1.719
77.62000 -0.274
77.64000 0.618
77.66000 2.597
77.68000 4.304
77.70000 3.110
77.72000 1.685
77.74000 0.138
77.76000 -1.196
77.78000 -1.868
77.80000 0.984
77.82000 1.917
77.84000 1.457
77.86000 0.364
77.88000 1.426
77.90000 2.034
77.92000 0.277
77.94000 1.692
77.96000 2.112
77.98000 4.588
78.00000 2.335
78.02000 -0.439
78.04000 1.150
78.06000 2.497
78.08000 1.185
78.10000 0.456
78.12000 -0.078
78.14000 -1.017
78.16000 0.305
78.18000 2.475
78.20000 0.645
78.22000 3.299
78.24000 2.877
78.26000 3.738
78.28000 2.210
78.30000 -0.898
78.32000 -0.694
78.34000 -0.137
78.36000 4.847
78.38000 5.427
78.40000 4.337
78.42000 5.727
78.44000 5.809
78.46000 0.889
78.48000 1.818
78.50000 1.996
78.52000 2.390
78.54000 4.893
78.56000 2.886
78.58000 1.472
78.60000 -1.691
78.62000 -0.114
78.64000 1.778
78.66000 2.592
78.68000 -0.899
78.70000 -1.859
78.72000 3.310
78.74000 4.964
78.76000 4.892
78.78000 3.409
78.80000 3.076
78.82000 3.855
78.84000 2.485
78.86000 1.873
78.88000 1.473
78.90000 3.544
78.92000 3.166
78.94000 2.363
78.96000 2.688
78.98000 0.612
79.00000 -1.883
79.02000 0.673
79.04000 0.512
79.06000 0.752
79.08000 2.663
79.10000 1.958
79.12000 1.244
79.14000 2.470
79.16000 2.461
79.18000 -0.600
79.20000 3.702
79.22000 3.769
79.24000 2.992
79.26000 4.059
79.28000 1.981
79.30000 3.130
79.32000 1.125
79.34000 2.196
79.36000 1.527
79.38000 -0.077
79.40000 0.839
79.42000 0.305
79.44000 3.432
79.46000 2.822
79.48000 3.207
79.50000 1.758
79.52000 -0.622
79.54000 -1.767
79.56000 -0.157
79.58000 3.116
79.60000 2.809
79.62000 1.762
79.64000 0.167
79.66000 0.881
79.68000 1.886
79.70000 1.849
79.72000 1.650
79.74000 1.896
79.76000 0.481
79.78000 -0.342
79.80000 0.318
79.82000 -0.210
79.84000 -0.219
79.86000 1.702
79.88000 3.374
79.90000 1.764
79.92000 2.349
79.94000 5.159
79.96000 4.750
79.98000 5.210
80.00000 2.205
80.02000 2.746
80.04000 2.101
80.06000 1.520
80.08000 3.327
80.10000 5.799
80.12000 3.766
80.14000 0.008
80.16000 1.327
80.18000 2.212
80.20000 2.228
80.22000 4.021
80.24000 1.827
80.26000 0.324
80.28000 -1.887
80.30000 0.602
80.32000 2.156
80.34000 0.869
80.36000 2.121
80.38000 0.985
80.40000 3.651
80.42000 2.556
80.44000 3.645
80.46000 0.148
80.48000 -0.947
80.50000 1.448
80.52000 3.914
80.54000 2.270
80.56000 2.294
80.58000 3.064
80.60000 2.938
80.62000 3.182
80.64000 1.591
80.66000 -1.327
80.68000 2.909
80.70000 2.630
80.72000 1.217
80.74000 1.650
80.76000 1.930
80.78000 1.492
80.80000 2.540
80.82000 4.428
80.84000 4.885
80.86000 2.644
80.88000 0.809
80.90000 4.813
80.92000 3.251
80.94000 1.382
80.96000 1.134
80.98000 -0.007
81.00000 -1.981
81.02000 -0.757
81.04000 -1.062
81.06000 -0.306
81.08000 -0.137
81.10000 0.127
81.12000 1.030
81.14000 1.271
81.16000 -0.207
81.18000 0.973
81.20000 -1.999
81.22000 -0.614
81.24000 2.897
81.26000 1.505
81.28000 1.694
81.30000 -0.504
81.32000 -1.611
81.34000 1.912
81.36000 0.693
81.38000 -0.260
81.40000 -1.524
81.42000 -0.902
81.44000 2.375
81.46000 -0.236
81.48000 -0.447
81.50000 0.542
81.52000 2.519
81.54000 4.533
81.56000 1.044
81.58000 -0.723
81.60000 -0.891
81.62000 -0.435
81.64000 0.896
81.66000 2.336
81.68000 1.855
81.70000 3.095
81.72000 3.503
81.74000 0.709
81.76000 1.431
81.78000 3.795
81.80000 3.454
81.82000 4.020
81.84000 4.847
81.86000 2.121
81.88000 4.214
81.90000 4.413
81.92000 2.389
81.94000 4.063
81.96000 5.407
81.98000 4.628
82.00000 4.970
82.02000 8.620
82.04000 6.366
82.06000 4.505
82.08000 6.082
82.10000 9.620
82.12000 9.870
82.14000 5.792
82.16000 6.495
82.18000 8.752
82.20000 10.505
82.22000 14.484
82.24000 15.149
82.26000 14.184
82.28000 16.407
82.30000 16.353
82.32000 18.766
82.34000 17.421
82.36000 18.609
82.38000 19.026
82.40000 21.474
82.42000 21.358
82.44000 22.729
82.46000 22.859
82.48000 24.329
82.50000 27.551
82.52000 27.978
82.54000 29.352
82.56000 29.797
82.58000 34.193
82.60000 33.643
82.62000 31.971
82.64000 37.929
82.66000 44.971
82.68000 44.199
82.70000 42.256
82.72000 42.537
82.74000 46.135
82.76000 47.857
82.78000 49.670
82.80000 50.715
82.82000 44.853
82.84000 48.694
82.86000 49.976
82.88000 48.851
82.90000 47.352
82.92000 49.102
82.94000 50.195
82.96000 51.517
82.98000 51.640
83.00000 49.748
83.02000 52.301
83.04000 54.622
83.06000 52.598
83.08000 48.238
83.10000 46.111
83.12000 47.573
83.14000 47.585
83.16000 45.961
83.18000 45.819
83.20000 46.123
83.22000 46.573
83.24000 44.543
83.26000 44.141
83.28000 45.152
83.30000 46.241
83.32000 43.683
83.34000 39.499
83.36000 39.267
83.38000 37.136
83.40000 34.344
83.42000 30.666
83.44000 35.143
83.46000 32.256
83.48000 29.003
83.50000 29.278
83.52000 27.992
83.54000 24.978
83.56000 24.549
83.58000 24.973
83.60000 24.102
83.62000 22.926
83.64000 21.106
83.66000 18.971
83.68000 18.331
83.70000 17.578
83.72000 15.022
83.74000 13.931
83.76000 14.889
83.78000 16.612
83.80000 17.650
83.82000 13.434
83.84000 12.540
83.86000 9.344
83.88000 8.320
83.90000 10.075
83.92000 8.625
83.94000 12.499
83.96000 11.902
83.98000 9.098
84.00000 3.975
84.02000 6.556
84.04000 3.072
84.06000 4.459
84.08000 6.722
84.10000 2.837
84.12000 2.453
84.14000 2.676
84.16000 2.176
84.18000 7.863
84.20000 5.312
84.22000 5.853
84.24000 1.956
84.26000 -0.917
84.28000 4.905
84.30000 9.059
84.32000 3.993
84.34000 1.171
84.36000 3.285
84.38000 6.533
84.40000 5.950
84.42000 2.112
84.44000 3.051
84.46000 2.759
84.48000 0.583
84.50000 0.079
84.52000 1.504
84.54000 2.520
84.56000 1.558
84.58000 -1.084
84.60000 -0.693
84.62000 1.441
84.64000 -0.042
84.66000 1.751
84.68000 2.997
84.70000 4.202
84.72000 2.460
84.74000 2.802
84.76000 1.716
84.78000 4.416
84.80000 4.451
84.82000 2.122
84.84000 2.003
84.86000 1.294
84.88000 -0.016
84.90000 -2.017
84.92000 2.097
84.94000 1.497
84.96000 3.605
84.98000 1.918
85.00000 1.060
85.02000 0.135
85.04000 5.047
85.06000 3.844
85.08000 1.911
85.10000 1.717
85.12000 1.635
85.14000 2.140
85.16000 -1.161
85.18000 1.680
85.20000 4.032
85.22000 1.269
85.24000 1.915
85.26000 1.372
85.28000 1.059
85.30000 -0.383
85.32000 -0.882
85.34000 0.416
85.36000 4.423
85.38000 5.503
85.40000 0.608
85.42000 -0.632
85.44000 3.327
85.46000 3.562
85.48000 3.616
85.50000 3.399
85.52000 2.484
85.54000 4.655
85.56000 1.604
85.58000 -0.633
85.60000 -1.917
85.62000 2.842
85.64000 4.585
85.66000 1.805
85.68000 2.601
85.70000 1.240
85.72000 0.987
85.74000 1.470
85.76000 3.824
85.78000 3.642
85.80000 5.878
85.82000 4.396
85.84000 4.242
85.86000 1.972
85.88000 1.184
85.90000 4.164
85.92000 1.985
85.94000 2.620
85.96000 2.246
85.98000 2.538
86.00000 1.548
86.02000 -1.919
86.04000 -1.992
86.06000 4.066
86.08000 3.080
86.10000 -0.517
86.12000 0.885
86.14000 1.367
86.16000 0.852
86.18000 -0.377
86.20000 2.736
86.22000 1.257
86.24000 2.171
86.26000 3.846
86.28000 3.211
86.30000 2.750
86.32000 4.024
86.34000 2.795
86.36000 3.181
86.38000 4.706
86.40000 2.841
86.42000 2.974
86.44000 0.272
86.46000 2.340
86.48000 4.422
86.50000 5.277
86.52000 2.894
86.54000 0.233
86.56000 5.357
86.58000 8.399
86.60000 4.659
86.62000 2.832
86.64000 8.134
86.66000 6.102
86.68000 7.880
86.70000 11.289
86.72000 9.796
86.74000 7.290
86.76000 9.187
86.78000 12.330
86.80000 12.429
86.82000 13.872
86.84000 16.234
86.86000 12.292
86.88000 17.608
86.90000 21.746
86.92000 21.303
86.94000 21.057
86.96000 24.711
86.98000 20.594
87.00000 20.508
87.02000 21.939
87.04000 22.209
87.06000 18.520
87.08000 19.829
87.10000 21.397
87.12000 23.393
87.14000 27.210
87.16000 29.579
87.18000 26.969
87.20000 29.531
87.22000 32.368
87.24000 32.327
87.26000 29.182
87.28000 30.454
87.30000 32.953
87.32000 29.284
87.34000 31.992
87.36000 32.512
87.38000 31.589
87.40000 34.970
87.42000 33.300
87.44000 30.159
87.46000 32.286
87.48000 34.137
87.50000 31.546
87.52000 32.925
87.54000 34.991
87.56000 38.338
87.58000 36.525
87.60000 33.620
87.62000 32.037
87.64000 28.394
87.66000 29.132
87.68000 28.870
87.70000 27.171
87.72000 28.650
87.74000 28.579
87.76000 26.606
87.78000 22.383
87.80000 22.815
87.82000 22.972
87.84000 23.340
87.86000 18.865
87.88000 18.482
87.90000 20.305
87.92000 16.735
87.94000 11.888
87.96000 15.515
87.98000 20.335
88.00000 18.530
88.02000 15.760
88.04000 13.197
88.06000 13.661
88.08000 11.833
88.10000 12.559
88.12000 14.511
88.14000 9.894
88.16000 8.706
88.18000 9.190
88.20000 10.052
88.22000 9.949
88.24000 11.966
88.26000 7.785
88.28000 9.642
88.30000 7.086
88.32000 4.526
88.34000 5.514
88.36000 8.217
88.38000 7.628
88.40000 7.315
88.42000 6.661
88.44000 5.481
88.46000 2.394
88.48000 4.063
88.50000 3.856
88.52000 1.525
88.54000 0.293
88.56000 1.739
88.58000 -0.511
88.60000 3.219
88.62000 2.814
88.64000 0.181
88.66000 2.158
88.68000 0.363
88.70000 2.655
88.72000 1.821
88.74000 1.596
88.76000 4.934
88.78000 2.488
88.80000 -0.853
88.82000 -1.139
88.84000 -1.313
88.86000 1.093
88.88000 0.220
88.90000 -1.952
88.92000 -1.701
88.94000 -0.535
88.96000 1.875
88.98000 -0.069
89.00000 -0.183
89.02000 2.554
89.04000 3.445
89.06000 3.578
89.08000 3.417
89.10000 -0.006
89.12000 1.775
89.14000 1.300
89.16000 -1.903
89.18000 -0.238
89.20000 1.513
89.22000 2.818
89.24000 1.919
89.26000 -0.561
89.28000 0.455
89.30000 0.129
89.32000 -1.641
89.34000 1.513
89.36000 2.896
89.38000 -1.081
89.40000 0.415
89.42000 0.697
89.44000 -0.379
89.46000 0.934
89.48000 -1.862
89.50000 -1.580
89.52000 -1.292
89.54000 0.288
89.56000 0.494
89.58000 -0.223
89.60000 2.650
89.62000 -0.987
89.64000 1.674
89.66000 1.915
89.68000 0.794
89.70000 -0.643
89.72000 1.420
89.74000 1.468
89.76000 0.910
89.78000 2.942
89.80000 2.963
89.82000 1.741
89.84000 -1.831
89.86000 -0.761
89.88000 0.679
89.90000 1.604
89.92000 1.404
89.94000 0.945
89.96000 0.875
89.98000 1.809
90.00000 2.071
90.02000 1.784
90.04000 1.273
90.06000 -0.409
90.08000 1.887
90.10000 1.578
90.12000 1.071
90.14000 -1.012
90.16000 -0.252
90.18000 3.606
90.20000 5.093
90.22000 2.727
90.24000 2.276
90.26000 1.098
90.28000 0.053
90.30000 -0.547
90.32000 0.822
90.34000 -1.694
90.36000 -0.848
90.38000 -1.065
90.40000 1.225
90.42000 3.360
90.44000 -0.573
90.46000 -1.763
90.48000 0.806
90.50000 4.168
90.52000 4.250
90.54000 2.121
90.56000 1.949
90.58000 0.727
90.60000 2.615
90.62000 4.839
90.64000 -0.205
90.66000 -0.111
90.68000 1.256
90.70000 -0.933
90.72000 -1.766
90.74000 3.528
90.76000 6.502
90.78000 6.044
90.80000 3.546
90.82000 6.201
90.84000 5.168
90.86000 3.670
90.88000 1.465
90.90000 3.110
90.92000 2.165
90.94000 3.544
90.96000 3.615
90.98000 0.948
91.00000 4.503
91.02000 0.869
91.04000 0.559
91.06000 2.362
91.08000 3.501
91.10000 4.487
91.12000 5.041
91.14000 1.133
91.16000 1.210
91.18000 0.431
91.20000 0.223
91.22000 1.401
91.24000 0.824
91.26000 -1.752
91.28000 0.546
91.30000 4.109
91.32000 6.180
91.34000 2.604
91.36000 0.425
91.38000 2.256
91.40000 1.535
91.42000 2.826
91.44000 1.798
91.46000 0.207
91.48000 1.622
91.50000 2.988
91.52000 5.823
91.54000 6.385
91.56000 3.558
91.58000 2.887
91.60000 1.579
91.62000 2.802
91.64000 -0.728
91.66000 -1.082
91.68000 1.113
91.70000 1.750
91.72000 -0.095
91.74000 -0.526
91.76000 -1.770
91.78000 -0.805
91.80000 1.772
91.82000 2.507
91.84000 3.056
91.86000 1.509
91.88000 2.348
91.90000 4.581
91.92000 6.344
91.94000 5.765
91.96000 1.356
91.98000 1.846
92.00000 2.275
92.02000 1.493
92.04000 2.009
92.06000 2.014
92.08000 2.302
92.10000 4.408
92.12000 -0.027
92.14000 1.938
92.16000 2.578
92.18000 4.863
92.20000 5.598
92.22000 3.970
92.24000 3.158
92.26000 3.514
92.28000 3.106
92.30000 2.350
92.32000 3.061
92.34000 -1.772
92.36000 -0.860
92.38000 0.492
92.40000 3.213
92.42000 1.701
92.44000 4.443
92.46000 5.359
92.48000 4.608
92.50000 3.092
92.52000 1.912
92.54000 1.778
92.56000 1.479
92.58000 1.638
92.60000 1.782
92.62000 2.068
92.64000 0.257
92.66000 -1.364
92.68000 0.487
92.70000 -0.060
92.72000 1.946
92.74000 1.952
92.76000 0.053
92.78000 0.134
92.80000 2.169
92.82000 1.986
92.84000 3.201
92.86000 5.583
92.88000 6.958
92.90000 5.739
92.92000 4.617
92.94000 4.466
92.96000 1.967
92.98000 2.201
93.00000 0.721
93.02000 1.622
93.04000 1.073
93.06000 0.839
93.08000 -1.359
93.10000 -1.777
93.12000 -1.375
93.14000 2.065
93.16000 0.906
93.18000 4.849
93.20000 3.944
93.22000 2.370
93.24000 0.226
93.26000 -1.108
93.28000 -1.166
93.30000 -1.777
93.32000 -1.758
93.34000 -0.560
93.36000 2.593
93.38000 2.721
93.40000 3.530
93.42000 3.925
93.44000 -1.117
93.46000 1.016
93.48000 1.877
93.50000 1.160
93.52000 0.362
93.54000 3.358
93.56000 0.720
93.58000 1.184
93.60000 -1.286
93.62000 -0.061
93.64000 -0.726
93.66000 -0.702
93.68000 0.521
93.70000 1.375
93.72000 0.924
93.74000 0.136
93.76000 1.163
93.78000 2.809
93.80000 1.006
93.82000 -0.863
93.84000 0.329
93.86000 2.484
93.88000 1.915
93.90000 1.546
93.92000 3.597
93.94000 3.629
93.96000 0.072
93.98000 1.392
94.00000 0.655
94.02000 -0.388
94.04000 -0.923
94.06000 -1.562
94.08000 0.272
94.10000 5.610
94.12000 8.677
94.14000 6.666
94.16000 1.221
94.18000 2.470
94.20000 -0.014
94.22000 1.614
94.24000 3.999
94.26000 3.078
94.28000 1.586
94.30000 0.301
94.32000 0.750
94.34000 -0.640
94.36000 -1.761
94.38000 2.493
94.40000 4.542
94.42000 3.178
94.44000 0.817
94.46000 -0.282
94.48000 3.506
94.50000 3.369
94.52000 2.630
94.54000 3.789
94.56000 4.749
94.58000 1.884
94.60000 1.645
94.62000 1.811
94.64000 1.252
94.66000 4.046
94.68000 4.498
94.70000 4.029
94.72000 3.884
94.74000 0.986
94.76000 2.035
94.78000 2.424
94.80000 4.401
94.82000 2.519
94.84000 0.189
94.86000 2.629
94.88000 2.980
94.90000 2.570
94.92000 3.555
94.94000 3.849
94.96000 3.800
94.98000 1.656
95.00000 4.160
95.02000 4.530
95.04000 4.634
95.06000 4.373
95.08000 4.484
95.10000 6.304
95.12000 2.947
95.14000 5.000
95.16000 3.803
95.18000 2.273
95.20000 2.294
95.22000 3.786
95.24000 3.195
95.26000 0.045
95.28000 3.061
95.30000 2.096
95.32000 2.451
95.34000 3.444
95.36000 4.510
95.38000 3.173
95.40000 4.603
95.42000 7.522
95.44000 1.802
95.46000 -1.741
95.48000 1.132
95.50000 3.018
95.52000 4.636
95.54000 4.460
95.56000 3.934
95.58000 2.279
95.60000 4.295
95.62000 2.247
95.64000 3.691
95.66000 5.056
95.68000 7.439
95.70000 7.662
95.72000 4.960
95.74000 3.794
95.76000 1.176
95.78000 2.525
95.80000 3.871
95.82000 5.023
95.84000 2.526
95.86000 0.707
95.88000 1.188
95.90000 -0.421
95.92000 2.225
95.94000 -1.066
95.96000 -0.015
95.98000 1.054
96.00000 4.924
96.02000 3.161
96.04000 7.295
96.06000 3.895
96.08000 1.391
96.10000 0.577
96.12000 2.244
96.14000 3.371
96.16000 2.671
96.18000 0.905
96.20000 1.395
96.22000 2.489
96.24000 -0.700
96.26000 -1.766
96.28000 -1.730
96.30000 1.834
96.32000 2.373
96.34000 3.245
96.36000 1.939
96.38000 8.060
96.40000 4.188
96.42000 4.262
96.44000 2.613
96.46000 2.055
96.48000 5.461
96.50000 2.315
96.52000 0.514
96.54000 1.995
96.56000 2.262
96.58000 0.082
96.60000 2.931
96.62000 4.938
96.64000 4.154
96.66000 4.256
96.68000 -0.008
96.70000 -0.609
96.72000 2.701
96.74000 3.270
96.76000 0.266
96.78000 1.339
96.80000 2.440
96.82000 2.372
96.84000 -0.747
96.86000 2.866
96.88000 2.614
96.90000 -0.539
96.92000 5.013
96.94000 3.997
96.96000 2.396
96.98000 0.784
97.00000 2.909
97.02000 5.759
97.04000 2.760
97.06000 0.792
97.08000 -0.891
97.10000 -1.084
97.12000 -1.782
97.14000 -1.663
97.16000 0.670
97.18000 -0.813
97.20000 -0.684
97.22000 0.271
97.24000 3.931
97.26000 4.704
97.28000 1.909
97.30000 0.457
97.32000 -0.886
97.34000 1.823
97.36000 2.677
97.38000 2.006
97.40000 4.267
97.42000 2.927
97.44000 0.746
97.46000 2.893
97.48000 3.564
97.50000 2.130
97.52000 7.166
97.54000 7.579
97.56000 3.556
97.58000 5.448
97.60000 4.653
97.62000 4.001
97.64000 0.159
97.66000 -0.221
97.68000 1.977
97.70000 2.386
97.72000 0.737
97.74000 1.734
97.76000 0.832
97.78000 0.792
97.80000 3.948
97.82000 4.819
97.84000 3.163
97.86000 3.552
97.88000 0.912
97.90000 -0.598
97.92000 3.047
97.94000 -1.370
97.96000 0.853
97.98000 2.615
98.00000 7.368
98.02000 3.589
98.04000 1.717
98.06000 1.118
98.08000 4.018
98.10000 0.733
98.12000 0.449
98.14000 -1.722
98.16000 3.001
98.18000 -0.431
98.20000 0.064
98.22000 -0.392
98.24000 -1.709
98.26000 -0.666
98.28000 1.303
98.30000 6.853
98.32000 5.111
98.34000 1.977
98.36000 2.328
98.38000 5.113
98.40000 7.167
98.42000 0.969
98.44000 4.291
98.46000 1.828
98.48000 0.380
98.50000 0.207
98.52000 2.555
98.54000 2.331
98.56000 0.606
98.58000 1.286
98.60000 0.113
98.62000 1.850
98.64000 2.239
98.66000 7.345
98.68000 4.654
98.70000 0.608
98.72000 4.643
98.74000 3.031
98.76000 4.325
98.78000 3.840
98.80000 0.099
98.82000 -0.638
98.84000 0.287
98.86000 8.290
98.88000 4.762
98.90000 0.695
98.92000 4.671
98.94000 -0.437
98.96000 -1.709
98.98000 -1.034
99.00000 -0.941
99.02000 5.140
99.04000 0.194
99.06000 1.562
99.08000 3.249
99.10000 2.768
99.12000 0.412
99.14000 1.672
99.16000 -0.062
99.18000 2.824
99.20000 1.189
99.22000 2.375
99.24000 0.742
99.26000 1.120
99.28000 6.025
99.30000 9.610
99.32000 2.819
99.34000 0.614
99.36000 0.722
99.38000 3.221
99.40000 0.116
99.42000 -0.866
99.44000 2.194
99.46000 2.776
99.48000 13.120
99.50000 10.206
99.52000 4.641
99.54000 0.023
99.56000 -1.667
99.58000 1.847
99.60000 -0.118
99.62000 -1.670
99.64000 6.125
99.66000 9.985
99.68000 8.553
99.70000 3.429
99.72000 7.030
99.74000 7.006
99.76000 7.116
99.78000 3.590
99.80000 4.620
99.82000 4.040
99.84000 4.398
99.86000 0.899
99.88000 0.660
99.90000 -1.782
99.92000 2.037
99.94000 7.173
99.96000 6.716
99.98000 0.000
