'Id: "0011389" Comment: "Integrate frame 0011389_Au-Ir-Rh_Au-Rich_XRD_Mapping-132-0000.gfrmwith cursor Wedge Cursor #5" Operator: "B?rgel" Anode: "Cu" Wavelength: "1.5406" Scantype: "2Theta (TwoTheta)" TimePerStep: "1" X: "31.5" Y: "-9" Z: "5.95" 
10.00000 0.000
10.02000 10.795
10.04000 13.761
10.06000 6.405
10.08000 -0.603
10.10000 5.192
10.12000 4.822
10.14000 2.992
10.16000 12.407
10.18000 -1.214
10.20000 -3.385
10.22000 -2.912
10.24000 11.468
10.26000 13.011
10.28000 7.361
10.30000 8.564
10.32000 2.021
10.34000 -2.372
10.36000 5.092
10.38000 12.863
10.40000 6.987
10.42000 6.333
10.44000 14.385
10.46000 10.640
10.48000 23.767
10.50000 25.262
10.52000 13.328
10.54000 8.447
10.56000 16.919
10.58000 24.630
10.60000 18.249
10.62000 19.154
10.64000 6.406
10.66000 5.784
10.68000 7.836
10.70000 11.964
10.72000 25.251
10.74000 39.635
10.76000 29.908
10.78000 15.243
10.80000 24.709
10.82000 8.401
10.84000 18.913
10.86000 21.982
10.88000 22.823
10.90000 18.641
10.92000 22.582
10.94000 27.118
10.96000 27.919
10.98000 19.135
11.00000 26.229
11.02000 18.731
11.04000 12.256
11.06000 19.335
11.08000 34.494
11.10000 31.363
11.12000 24.405
11.14000 16.497
11.16000 11.939
11.18000 19.323
11.20000 29.153
11.22000 24.110
11.24000 32.291
11.26000 44.018
11.28000 40.049
11.30000 34.254
11.32000 33.814
11.34000 14.752
11.36000 19.351
11.38000 36.197
11.40000 41.662
11.42000 34.157
11.44000 36.186
11.46000 39.656
11.48000 33.163
11.50000 28.747
11.52000 25.838
11.54000 23.415
11.56000 32.470
11.58000 40.705
11.60000 35.295
11.62000 33.764
11.64000 38.046
11.66000 36.643
11.68000 23.860
11.70000 35.113
11.72000 42.047
11.74000 35.291
11.76000 22.251
11.78000 28.503
11.80000 33.430
11.82000 29.082
11.84000 22.841
11.86000 35.603
11.88000 37.615
11.90000 32.703
11.92000 29.810
11.94000 41.126
11.96000 42.763
11.98000 40.037
12.00000 47.345
12.02000 41.233
12.04000 39.121
12.06000 35.944
12.08000 35.149
12.10000 34.873
12.12000 51.942
12.14000 43.584
12.16000 32.235
12.18000 31.842
12.20000 32.770
12.22000 38.679
12.24000 27.416
12.26000 35.458
12.28000 47.615
12.30000 45.014
12.32000 33.341
12.34000 35.434
12.36000 37.691
12.38000 31.700
12.40000 40.771
12.42000 40.949
12.44000 33.900
12.46000 34.868
12.48000 47.750
12.50000 35.234
12.52000 45.158
12.54000 51.336
12.56000 46.316
12.58000 47.365
12.60000 52.038
12.62000 53.200
12.64000 54.088
12.66000 43.702
12.68000 45.007
12.70000 46.888
12.72000 44.225
12.74000 38.228
12.76000 37.785
12.78000 40.069
12.80000 43.289
12.82000 41.252
12.84000 43.521
12.86000 41.209
12.88000 38.252
12.90000 42.628
12.92000 43.794
12.94000 44.510
12.96000 36.646
12.98000 41.066
13.00000 36.888
13.02000 27.239
13.04000 41.778
13.06000 44.686
13.08000 46.689
13.10000 34.036
13.12000 35.426
13.14000 38.626
13.16000 35.056
13.18000 38.767
13.20000 34.007
13.22000 37.574
13.24000 35.473
13.26000 33.811
13.28000 33.298
13.30000 32.713
13.32000 33.533
13.34000 40.266
13.36000 34.116
13.38000 31.573
13.40000 44.443
13.42000 38.964
13.44000 26.274
13.46000 30.768
13.48000 40.917
13.50000 42.288
13.52000 38.305
13.54000 39.685
13.56000 35.505
13.58000 39.683
13.60000 34.707
13.62000 31.510
13.64000 40.827
13.66000 37.701
13.68000 29.431
13.70000 28.374
13.72000 22.993
13.74000 25.107
13.76000 37.357
13.78000 43.066
13.80000 39.328
13.82000 32.203
13.84000 30.545
13.86000 28.239
13.88000 39.850
13.90000 44.323
13.92000 30.565
13.94000 30.196
13.96000 34.020
13.98000 35.614
14.00000 36.949
14.02000 35.099
14.04000 39.076
14.06000 35.420
14.08000 34.860
14.10000 40.214
14.12000 37.524
14.14000 27.898
14.16000 25.733
14.18000 29.024
14.20000 26.635
14.22000 22.566
14.24000 27.291
14.26000 28.198
14.28000 29.644
14.30000 28.423
14.32000 31.607
14.34000 25.121
14.36000 33.884
14.38000 27.354
14.40000 24.455
14.42000 27.302
14.44000 28.474
14.46000 29.868
14.48000 30.747
14.50000 25.198
14.52000 27.167
14.54000 20.204
14.56000 20.190
14.58000 29.833
14.60000 30.506
14.62000 30.038
14.64000 34.778
14.66000 25.383
14.68000 21.127
14.70000 22.184
14.72000 27.131
14.74000 23.453
14.76000 17.091
14.78000 25.958
14.80000 24.012
14.82000 23.982
14.84000 14.757
14.86000 20.594
14.88000 19.227
14.90000 24.008
14.92000 19.046
14.94000 26.887
14.96000 31.870
14.98000 26.089
15.00000 30.013
15.02000 29.363
15.04000 24.725
15.06000 22.825
15.08000 23.176
15.10000 19.038
15.12000 28.230
15.14000 21.479
15.16000 25.063
15.18000 22.600
15.20000 17.740
15.22000 28.488
15.24000 22.293
15.26000 17.264
15.28000 18.222
15.30000 21.303
15.32000 24.973
15.34000 19.397
15.36000 19.804
15.38000 24.052
15.40000 22.841
15.42000 16.509
15.44000 27.294
15.46000 33.734
15.48000 19.208
15.50000 14.260
15.52000 18.511
15.54000 21.079
15.56000 18.566
15.58000 14.129
15.60000 11.509
15.62000 15.601
15.64000 19.211
15.66000 17.313
15.68000 12.196
15.70000 11.723
15.72000 15.868
15.74000 22.655
15.76000 25.583
15.78000 17.718
15.80000 19.127
15.82000 20.160
15.84000 23.363
15.86000 17.007
15.88000 22.253
15.90000 19.292
15.92000 18.414
15.94000 11.853
15.96000 13.391
15.98000 12.998
16.00000 14.782
16.02000 20.416
16.04000 22.327
16.06000 14.406
16.08000 17.266
16.10000 20.547
16.12000 15.216
16.14000 6.449
16.16000 9.691
16.18000 15.484
16.20000 15.706
16.22000 7.083
16.24000 12.136
16.26000 13.191
16.28000 11.690
16.30000 16.951
16.32000 18.522
16.34000 14.822
16.36000 13.199
16.38000 8.746
16.40000 3.146
16.42000 9.010
16.44000 5.427
16.46000 5.062
16.48000 13.326
16.50000 16.506
16.52000 20.604
16.54000 17.056
16.56000 10.351
16.58000 10.163
16.60000 17.718
16.62000 14.462
16.64000 8.357
16.66000 12.217
16.68000 6.231
16.70000 7.543
16.72000 20.762
16.74000 24.631
16.76000 16.607
16.78000 11.248
16.80000 14.358
16.82000 14.142
16.84000 6.813
16.86000 11.677
16.88000 7.355
16.90000 2.671
16.92000 9.853
16.94000 12.718
16.96000 14.212
16.98000 16.013
17.00000 13.533
17.02000 6.943
17.04000 4.165
17.06000 9.789
17.08000 10.561
17.10000 10.948
17.12000 11.675
17.14000 14.174
17.16000 12.343
17.18000 10.355
17.20000 12.083
17.22000 9.613
17.24000 5.030
17.26000 7.228
17.28000 20.226
17.30000 23.990
17.32000 18.566
17.34000 8.342
17.36000 11.287
17.38000 10.428
17.40000 1.858
17.42000 -2.896
17.44000 -0.408
17.46000 -0.875
17.48000 -1.795
17.50000 -3.293
17.52000 8.178
17.54000 8.266
17.56000 8.390
17.58000 12.864
17.60000 13.051
17.62000 3.899
17.64000 2.402
17.66000 -4.348
17.68000 5.875
17.70000 6.065
17.72000 8.936
17.74000 8.718
17.76000 10.211
17.78000 5.159
17.80000 1.253
17.82000 3.778
17.84000 8.612
17.86000 8.642
17.88000 5.722
17.90000 -0.273
17.92000 1.156
17.94000 4.141
17.96000 5.801
17.98000 6.242
18.00000 5.135
18.02000 0.447
18.04000 -2.954
18.06000 -3.727
18.08000 2.882
18.10000 6.168
18.12000 9.261
18.14000 13.164
18.16000 9.968
18.18000 6.770
18.20000 5.932
18.22000 -4.093
18.24000 1.811
18.26000 5.945
18.28000 8.761
18.30000 6.786
18.32000 -2.972
18.34000 -4.315
18.36000 2.490
18.38000 9.868
18.40000 8.884
18.42000 12.839
18.44000 5.472
18.46000 8.510
18.48000 13.159
18.50000 11.962
18.52000 7.360
18.54000 0.747
18.56000 7.392
18.58000 8.869
18.60000 4.644
18.62000 2.756
18.64000 -0.950
18.66000 9.026
18.68000 10.824
18.70000 8.734
18.72000 5.407
18.74000 3.982
18.76000 5.441
18.78000 2.849
18.80000 9.520
18.82000 16.429
18.84000 12.092
18.86000 13.786
18.88000 6.324
18.90000 -0.442
18.92000 2.974
18.94000 1.151
18.96000 -4.023
18.98000 -0.221
19.00000 3.444
19.02000 2.801
19.04000 8.672
19.06000 4.298
19.08000 3.324
19.10000 0.340
19.12000 -1.881
19.14000 2.906
19.16000 10.188
19.18000 -0.088
19.20000 -3.881
19.22000 -0.220
19.24000 7.638
19.26000 16.521
19.28000 5.232
19.30000 8.518
19.32000 7.712
19.34000 9.049
19.36000 12.603
19.38000 8.373
19.40000 2.543
19.42000 2.844
19.44000 7.213
19.46000 13.149
19.48000 10.505
19.50000 10.746
19.52000 4.576
19.54000 3.995
19.56000 3.900
19.58000 3.002
19.60000 16.412
19.62000 8.964
19.64000 0.661
19.66000 1.283
19.68000 6.720
19.70000 2.834
19.72000 9.489
19.74000 6.858
19.76000 4.523
19.78000 0.245
19.80000 -0.042
19.82000 -4.223
19.84000 -3.908
19.86000 6.943
19.88000 8.396
19.90000 1.001
19.92000 4.857
19.94000 7.412
19.96000 4.027
19.98000 4.916
20.00000 10.831
20.02000 8.683
20.04000 6.439
20.06000 -0.267
20.08000 -2.660
20.10000 -3.245
20.12000 5.696
20.14000 2.568
20.16000 4.863
20.18000 6.680
20.20000 1.289
20.22000 -3.487
20.24000 -1.962
20.26000 9.642
20.28000 11.362
20.30000 7.931
20.32000 3.724
20.34000 -1.582
20.36000 -0.067
20.38000 10.761
20.40000 13.066
20.42000 9.169
20.44000 6.577
20.46000 11.049
20.48000 2.195
20.50000 3.756
20.52000 8.101
20.54000 6.618
20.56000 8.986
20.58000 11.902
20.60000 0.524
20.62000 7.120
20.64000 11.004
20.66000 8.475
20.68000 6.107
20.70000 2.636
20.72000 11.303
20.74000 13.197
20.76000 11.146
20.78000 8.171
20.80000 1.054
20.82000 1.085
20.84000 4.089
20.86000 16.411
20.88000 6.519
20.90000 0.766
20.92000 4.766
20.94000 9.440
20.96000 9.033
20.98000 2.630
21.00000 10.826
21.02000 10.892
21.04000 6.754
21.06000 4.372
21.08000 1.980
21.10000 1.545
21.12000 2.282
21.14000 5.782
21.16000 7.077
21.18000 7.192
21.20000 3.504
21.22000 3.539
21.24000 4.320
21.26000 2.024
21.28000 5.454
21.30000 10.349
21.32000 8.285
21.34000 3.899
21.36000 9.198
21.38000 9.760
21.40000 10.835
21.42000 6.807
21.44000 -4.135
21.46000 -2.252
21.48000 10.242
21.50000 13.064
21.52000 6.764
21.54000 4.714
21.56000 -0.151
21.58000 3.893
21.60000 8.439
21.62000 14.361
21.64000 8.070
21.66000 3.151
21.68000 7.069
21.70000 8.274
21.72000 5.042
21.74000 3.177
21.76000 5.328
21.78000 1.404
21.80000 0.677
21.82000 1.161
21.84000 1.434
21.86000 3.125
21.88000 1.893
21.90000 0.346
21.92000 3.924
21.94000 6.195
21.96000 7.014
21.98000 10.991
22.00000 4.217
22.02000 1.110
22.04000 5.910
22.06000 7.251
22.08000 4.881
22.10000 6.671
22.12000 6.104
22.14000 4.134
22.16000 1.156
22.18000 2.788
22.20000 4.396
22.22000 1.746
22.24000 1.713
22.26000 -2.084
22.28000 -0.881
22.30000 9.885
22.32000 6.680
22.34000 2.052
22.36000 -0.453
22.38000 1.223
22.40000 4.554
22.42000 5.694
22.44000 2.403
22.46000 0.525
22.48000 0.108
22.50000 2.745
22.52000 6.548
22.54000 0.237
22.56000 2.609
22.58000 5.421
22.60000 5.537
22.62000 5.134
22.64000 12.539
22.66000 8.704
22.68000 1.967
22.70000 7.991
22.72000 8.267
22.74000 4.517
22.76000 5.014
22.78000 0.891
22.80000 3.588
22.82000 4.611
22.84000 5.881
22.86000 1.819
22.88000 -0.630
22.90000 4.896
22.92000 -2.114
22.94000 -4.080
22.96000 -0.228
22.98000 2.384
23.00000 4.767
23.02000 5.488
23.04000 0.994
23.06000 1.263
23.08000 7.656
23.10000 5.069
23.12000 -1.676
23.14000 4.770
23.16000 5.397
23.18000 6.682
23.20000 4.352
23.22000 6.117
23.24000 5.085
23.26000 0.598
23.28000 1.863
23.30000 4.364
23.32000 2.942
23.34000 7.076
23.36000 8.356
23.38000 6.928
23.40000 7.732
23.42000 2.013
23.44000 5.542
23.46000 4.571
23.48000 5.813
23.50000 1.041
23.52000 -0.332
23.54000 0.815
23.56000 3.247
23.58000 -1.170
23.60000 1.397
23.62000 5.186
23.64000 4.901
23.66000 1.288
23.68000 8.400
23.70000 5.318
23.72000 11.424
23.74000 5.834
23.76000 2.044
23.78000 1.305
23.80000 4.002
23.82000 0.514
23.84000 7.237
23.86000 -0.034
23.88000 -0.340
23.90000 7.273
23.92000 7.167
23.94000 2.466
23.96000 3.834
23.98000 3.841
24.00000 5.638
24.02000 -0.602
24.04000 8.418
24.06000 4.591
24.08000 8.677
24.10000 2.252
24.12000 -4.003
24.14000 0.377
24.16000 -1.883
24.18000 0.544
24.20000 -1.933
24.22000 5.083
24.24000 6.407
24.26000 2.440
24.28000 7.956
24.30000 10.890
24.32000 9.417
24.34000 4.491
24.36000 2.454
24.38000 3.890
24.40000 2.439
24.42000 4.185
24.44000 6.696
24.46000 9.966
24.48000 3.331
24.50000 0.265
24.52000 3.609
24.54000 -3.960
24.56000 -1.224
24.58000 8.238
24.60000 3.976
24.62000 3.081
24.64000 1.307
24.66000 4.813
24.68000 1.283
24.70000 4.726
24.72000 0.363
24.74000 3.579
24.76000 -3.783
24.78000 -0.536
24.80000 4.252
24.82000 -1.106
24.84000 -3.118
24.86000 2.620
24.88000 2.143
24.90000 6.118
24.92000 4.366
24.94000 4.454
24.96000 6.432
24.98000 4.915
25.00000 5.663
25.02000 2.946
25.04000 -0.961
25.06000 4.353
25.08000 1.188
25.10000 -1.455
25.12000 -2.450
25.14000 1.443
25.16000 6.371
25.18000 1.789
25.20000 -1.406
25.22000 2.748
25.24000 4.541
25.26000 5.641
25.28000 1.523
25.30000 3.446
25.32000 7.793
25.34000 4.398
25.36000 -0.266
25.38000 2.234
25.40000 3.094
25.42000 4.637
25.44000 2.772
25.46000 3.823
25.48000 8.431
25.50000 4.606
25.52000 2.765
25.54000 0.572
25.56000 6.004
25.58000 6.051
25.60000 2.029
25.62000 -0.922
25.64000 3.515
25.66000 7.208
25.68000 7.660
25.70000 9.089
25.72000 0.745
25.74000 -1.693
25.76000 2.269
25.78000 8.283
25.80000 4.062
25.82000 1.250
25.84000 1.833
25.86000 3.416
25.88000 7.899
25.90000 5.854
25.92000 0.925
25.94000 5.620
25.96000 3.925
25.98000 2.417
26.00000 2.781
26.02000 0.423
26.04000 -1.960
26.06000 2.317
26.08000 3.674
26.10000 3.218
26.12000 -0.658
26.14000 0.655
26.16000 6.330
26.18000 4.785
26.20000 7.893
26.22000 11.020
26.24000 5.263
26.26000 6.321
26.28000 8.290
26.30000 10.172
26.32000 6.111
26.34000 4.099
26.36000 2.605
26.38000 0.913
26.40000 2.878
26.42000 4.390
26.44000 4.883
26.46000 6.020
26.48000 8.251
26.50000 5.667
26.52000 6.653
26.54000 5.530
26.56000 2.983
26.58000 5.649
26.60000 8.199
26.62000 10.767
26.64000 6.873
26.66000 -1.619
26.68000 -3.840
26.70000 1.905
26.72000 6.012
26.74000 0.623
26.76000 3.908
26.78000 6.965
26.80000 7.709
26.82000 7.445
26.84000 6.672
26.86000 12.570
26.88000 7.474
26.90000 6.698
26.92000 2.983
26.94000 3.849
26.96000 2.810
26.98000 -0.339
27.00000 8.455
27.02000 8.413
27.04000 10.079
27.06000 13.835
27.08000 3.624
27.10000 4.031
27.12000 6.961
27.14000 3.496
27.16000 -0.098
27.18000 -1.019
27.20000 3.733
27.22000 4.834
27.24000 4.620
27.26000 5.552
27.28000 5.793
27.30000 8.605
27.32000 9.018
27.34000 6.125
27.36000 7.516
27.38000 8.925
27.40000 5.753
27.42000 6.883
27.44000 4.965
27.46000 6.394
27.48000 4.329
27.50000 1.151
27.52000 7.534
27.54000 12.462
27.56000 5.562
27.58000 5.527
27.60000 0.913
27.62000 6.256
27.64000 3.421
27.66000 2.439
27.68000 5.746
27.70000 9.087
27.72000 3.486
27.74000 1.454
27.76000 2.749
27.78000 0.481
27.80000 7.416
27.82000 10.091
27.84000 5.926
27.86000 3.070
27.88000 2.206
27.90000 2.170
27.92000 3.893
27.94000 6.694
27.96000 6.043
27.98000 5.415
28.00000 4.567
28.02000 1.369
28.04000 0.287
28.06000 1.206
28.08000 6.006
28.10000 9.764
28.12000 1.933
28.14000 -3.686
28.16000 -3.788
28.18000 3.098
28.20000 3.076
28.22000 1.631
28.24000 6.114
28.26000 2.073
28.28000 -2.262
28.30000 2.771
28.32000 8.049
28.34000 3.040
28.36000 1.681
28.38000 3.536
28.40000 -1.150
28.42000 -3.577
28.44000 3.654
28.46000 7.608
28.48000 3.528
28.50000 3.744
28.52000 4.998
28.54000 5.857
28.56000 7.548
28.58000 5.636
28.60000 1.089
28.62000 -0.887
28.64000 4.524
28.66000 2.217
28.68000 6.896
28.70000 5.355
28.72000 3.561
28.74000 3.038
28.76000 6.406
28.78000 7.311
28.80000 2.874
28.82000 2.318
28.84000 -1.373
28.86000 -2.513
28.88000 0.204
28.90000 2.122
28.92000 -1.384
28.94000 -3.758
28.96000 -1.946
28.98000 -1.458
29.00000 3.424
29.02000 2.714
29.04000 -2.733
29.06000 1.203
29.08000 1.465
29.10000 2.865
29.12000 -1.867
29.14000 -1.047
29.16000 2.558
29.18000 5.761
29.20000 2.686
29.22000 3.471
29.24000 -0.636
29.26000 0.140
29.28000 2.825
29.30000 2.208
29.32000 3.569
29.34000 4.715
29.36000 9.775
29.38000 2.616
29.40000 2.472
29.42000 5.129
29.44000 3.802
29.46000 2.008
29.48000 0.541
29.50000 0.893
29.52000 5.676
29.54000 5.409
29.56000 0.584
29.58000 6.227
29.60000 6.121
29.62000 4.665
29.64000 5.170
29.66000 3.286
29.68000 2.997
29.70000 6.036
29.72000 10.701
29.74000 6.484
29.76000 2.251
29.78000 0.828
29.80000 0.631
29.82000 -3.689
29.84000 -2.762
29.86000 1.534
29.88000 6.699
29.90000 3.237
29.92000 5.321
29.94000 3.893
29.96000 5.649
29.98000 5.903
30.00000 4.023
30.02000 3.853
30.04000 4.876
30.06000 4.526
30.08000 3.365
30.10000 2.048
30.12000 2.111
30.14000 0.120
30.16000 -0.779
30.18000 1.241
30.20000 2.896
30.22000 6.306
30.24000 3.764
30.26000 2.495
30.28000 4.943
30.30000 5.041
30.32000 3.445
30.34000 2.303
30.36000 2.523
30.38000 7.099
30.40000 6.722
30.42000 7.176
30.44000 6.093
30.46000 3.739
30.48000 -2.215
30.50000 0.144
30.52000 -0.699
30.54000 -0.068
30.56000 6.458
30.58000 4.893
30.60000 5.362
30.62000 6.329
30.64000 2.126
30.66000 0.197
30.68000 1.685
30.70000 -0.166
30.72000 0.863
30.74000 2.009
30.76000 3.960
30.78000 3.984
30.80000 5.891
30.82000 4.652
30.84000 1.359
30.86000 0.216
30.88000 0.229
30.90000 0.084
30.92000 1.379
30.94000 0.327
30.96000 -0.579
30.98000 5.237
31.00000 1.531
31.02000 5.280
31.04000 2.066
31.06000 14.726
31.08000 8.276
31.10000 2.626
31.12000 6.093
31.14000 4.582
31.16000 2.986
31.18000 5.678
31.20000 5.358
31.22000 2.808
31.24000 4.172
31.26000 6.154
31.28000 3.713
31.30000 1.436
31.32000 -0.386
31.34000 -0.159
31.36000 -3.642
31.38000 6.773
31.40000 8.179
31.42000 3.931
31.44000 1.701
31.46000 6.312
31.48000 6.067
31.50000 6.785
31.52000 6.319
31.54000 3.249
31.56000 6.035
31.58000 6.341
31.60000 9.596
31.62000 10.521
31.64000 8.246
31.66000 3.762
31.68000 4.953
31.70000 2.480
31.72000 -1.406
31.74000 -2.190
31.76000 -1.009
31.78000 1.564
31.80000 2.795
31.82000 -0.434
31.84000 -0.553
31.86000 3.901
31.88000 6.996
31.90000 10.978
31.92000 10.619
31.94000 4.746
31.96000 -2.210
31.98000 -3.619
32.00000 4.307
32.02000 5.584
32.04000 0.909
32.06000 2.192
32.08000 3.183
32.10000 5.796
32.12000 3.477
32.14000 5.585
32.16000 5.072
32.18000 5.154
32.20000 6.471
32.22000 4.304
32.24000 1.946
32.26000 -2.424
32.28000 -3.608
32.30000 0.082
32.32000 1.609
32.34000 -0.243
32.36000 3.726
32.38000 10.175
32.40000 6.471
32.42000 4.875
32.44000 3.335
32.46000 5.611
32.48000 8.190
32.50000 6.655
32.52000 2.860
32.54000 3.302
32.56000 1.256
32.58000 -0.559
32.60000 4.009
32.62000 2.515
32.64000 3.478
32.66000 2.181
32.68000 0.775
32.70000 0.885
32.72000 4.190
32.74000 4.800
32.76000 1.638
32.78000 2.787
32.80000 3.162
32.82000 4.092
32.84000 0.390
32.86000 -2.213
32.88000 -1.176
32.90000 2.473
32.92000 4.041
32.94000 -0.031
32.96000 0.110
32.98000 3.357
33.00000 4.787
33.02000 5.458
33.04000 4.362
33.06000 2.364
33.08000 -3.596
33.10000 -0.384
33.12000 6.137
33.14000 9.073
33.16000 6.477
33.18000 0.801
33.20000 1.626
33.22000 1.428
33.24000 3.401
33.26000 1.495
33.28000 -1.233
33.30000 0.652
33.32000 2.613
33.34000 6.117
33.36000 0.981
33.38000 1.129
33.40000 1.281
33.42000 3.315
33.44000 1.163
33.46000 1.200
33.48000 -2.687
33.50000 -3.164
33.52000 5.864
33.54000 6.173
33.56000 3.826
33.58000 1.204
33.60000 1.081
33.62000 5.294
33.64000 3.027
33.66000 1.667
33.68000 4.457
33.70000 2.927
33.72000 0.460
33.74000 2.361
33.76000 5.258
33.78000 5.752
33.80000 8.568
33.82000 8.656
33.84000 10.513
33.86000 5.890
33.88000 8.497
33.90000 6.283
33.92000 2.533
33.94000 -0.966
33.96000 -2.735
33.98000 0.651
34.00000 5.220
34.02000 1.436
34.04000 -3.153
34.06000 -3.609
34.08000 -0.250
34.10000 -2.209
34.12000 0.762
34.14000 0.363
34.16000 -1.851
34.18000 0.229
34.20000 0.822
34.22000 -0.316
34.24000 4.564
34.26000 6.341
34.28000 3.303
34.30000 0.899
34.32000 3.567
34.34000 2.095
34.36000 3.236
34.38000 3.334
34.40000 2.887
34.42000 1.318
34.44000 2.494
34.46000 0.585
34.48000 -1.878
34.50000 -0.572
34.52000 2.838
34.54000 2.791
34.56000 5.755
34.58000 1.659
34.60000 1.619
34.62000 2.562
34.64000 3.826
34.66000 -0.478
34.68000 -2.329
34.70000 -3.316
34.72000 -0.594
34.74000 2.162
34.76000 3.990
34.78000 2.066
34.80000 1.313
34.82000 0.255
34.84000 1.764
34.86000 0.408
34.88000 3.035
34.90000 7.222
34.92000 2.316
34.94000 0.367
34.96000 1.663
34.98000 1.431
35.00000 -2.363
35.02000 -3.578
35.04000 -0.899
35.06000 1.922
35.08000 2.407
35.10000 2.996
35.12000 0.909
35.14000 2.114
35.16000 -1.345
35.18000 -2.328
35.20000 -0.144
35.22000 0.042
35.24000 0.924
35.26000 5.637
35.28000 3.715
35.30000 -0.276
35.32000 -1.060
35.34000 0.749
35.36000 5.267
35.38000 2.323
35.40000 0.763
35.42000 0.300
35.44000 5.109
35.46000 7.713
35.48000 -0.602
35.50000 -0.450
35.52000 1.392
35.54000 -1.289
35.56000 0.681
35.58000 0.583
35.60000 -1.353
35.62000 -0.326
35.64000 2.174
35.66000 0.270
35.68000 -2.058
35.70000 2.496
35.72000 -0.433
35.74000 0.120
35.76000 1.249
35.78000 4.944
35.80000 1.623
35.82000 -1.899
35.84000 -2.191
35.86000 0.415
35.88000 -1.682
35.90000 -0.145
35.92000 4.820
35.94000 3.763
35.96000 1.054
35.98000 -2.694
36.00000 -0.049
36.02000 1.037
36.04000 -0.928
36.06000 -3.179
36.08000 -1.367
36.10000 3.807
36.12000 1.717
36.14000 0.915
36.16000 -3.613
36.18000 -1.643
36.20000 5.884
36.22000 -0.175
36.24000 -2.289
36.26000 -1.532
36.28000 4.492
36.30000 7.357
36.32000 6.135
36.34000 1.470
36.36000 2.059
36.38000 4.556
36.40000 5.428
36.42000 1.911
36.44000 -2.843
36.46000 3.250
36.48000 -1.074
36.50000 0.894
36.52000 2.346
36.54000 2.053
36.56000 0.074
36.58000 -0.046
36.60000 0.087
36.62000 2.561
36.64000 4.198
36.66000 7.346
36.68000 5.677
36.70000 6.956
36.72000 -1.382
36.74000 -0.259
36.76000 -3.613
36.78000 2.821
36.80000 4.127
36.82000 4.148
36.84000 5.182
36.86000 4.511
36.88000 6.012
36.90000 -0.477
36.92000 5.768
36.94000 7.365
36.96000 8.349
36.98000 7.842
37.00000 6.745
37.02000 4.655
37.04000 2.811
37.06000 2.891
37.08000 5.546
37.10000 6.017
37.12000 3.365
37.14000 4.697
37.16000 5.527
37.18000 2.520
37.20000 2.150
37.22000 4.616
37.24000 6.657
37.26000 9.144
37.28000 5.249
37.30000 3.145
37.32000 4.146
37.34000 4.774
37.36000 3.446
37.38000 1.623
37.40000 1.980
37.42000 6.142
37.44000 8.803
37.46000 5.670
37.48000 7.882
37.50000 10.232
37.52000 9.399
37.54000 13.195
37.56000 17.303
37.58000 12.805
37.60000 12.211
37.62000 8.377
37.64000 10.835
37.66000 11.209
37.68000 11.443
37.70000 14.153
37.72000 16.007
37.74000 12.586
37.76000 13.452
37.78000 14.222
37.80000 15.668
37.82000 14.908
37.84000 14.237
37.86000 15.761
37.88000 20.941
37.90000 21.240
37.92000 19.284
37.94000 19.494
37.96000 19.577
37.98000 15.041
38.00000 16.082
38.02000 21.986
38.04000 19.535
38.06000 20.815
38.08000 22.192
38.10000 21.197
38.12000 23.483
38.14000 27.749
38.16000 32.424
38.18000 31.119
38.20000 24.795
38.22000 26.652
38.24000 25.433
38.26000 25.129
38.28000 26.339
38.30000 29.017
38.32000 29.121
38.34000 33.501
38.36000 36.206
38.38000 35.712
38.40000 39.742
38.42000 36.856
38.44000 37.453
38.46000 41.943
38.48000 42.571
38.50000 43.820
38.52000 43.342
38.54000 46.248
38.56000 51.870
38.58000 53.575
38.60000 52.284
38.62000 53.720
38.64000 56.137
38.66000 59.013
38.68000 63.676
38.70000 65.531
38.72000 68.636
38.74000 69.241
38.76000 75.130
38.78000 79.437
38.80000 81.657
38.82000 90.304
38.84000 89.461
38.86000 95.337
38.88000 98.987
38.90000 101.854
38.92000 106.665
38.94000 114.798
38.96000 116.522
38.98000 121.461
39.00000 123.978
39.02000 132.299
39.04000 142.833
39.06000 157.005
39.08000 157.543
39.10000 162.724
39.12000 171.141
39.14000 177.231
39.16000 188.481
39.18000 203.092
39.20000 216.451
39.22000 229.423
39.24000 237.445
39.26000 251.110
39.28000 265.887
39.30000 280.999
39.32000 299.319
39.34000 307.826
39.36000 329.162
39.38000 357.447
39.40000 370.506
39.42000 394.183
39.44000 407.934
39.46000 434.763
39.48000 451.231
39.50000 461.545
39.52000 488.978
39.54000 510.511
39.56000 522.621
39.58000 532.753
39.60000 554.912
39.62000 576.411
39.64000 587.272
39.66000 598.890
39.68000 609.719
39.70000 614.582
39.72000 628.904
39.74000 639.766
39.76000 641.538
39.78000 640.838
39.80000 643.245
39.82000 636.595
39.84000 625.340
39.86000 624.521
39.88000 624.918
39.90000 601.323
39.92000 589.345
39.94000 569.182
39.96000 556.663
39.98000 547.941
40.00000 523.605
40.02000 508.436
40.04000 493.081
40.06000 479.274
40.08000 454.363
40.10000 442.981
40.12000 415.637
40.14000 393.418
40.16000 368.448
40.18000 349.582
40.20000 326.080
40.22000 313.784
40.24000 303.861
40.26000 286.058
40.28000 273.097
40.30000 255.833
40.32000 241.813
40.34000 229.966
40.36000 206.382
40.38000 196.338
40.40000 183.471
40.42000 173.888
40.44000 169.241
40.46000 157.817
40.48000 145.048
40.50000 134.145
40.52000 125.320
40.54000 124.655
40.56000 117.529
40.58000 107.470
40.60000 95.021
40.62000 89.481
40.64000 85.018
40.66000 86.364
40.68000 80.521
40.70000 69.974
40.72000 63.801
40.74000 59.410
40.76000 56.644
40.78000 58.663
40.80000 49.668
40.82000 47.327
40.84000 47.739
40.86000 45.462
40.88000 42.029
40.90000 35.038
40.92000 36.749
40.94000 39.116
40.96000 38.154
40.98000 33.285
41.00000 29.569
41.02000 27.020
41.04000 27.868
41.06000 26.558
41.08000 24.571
41.10000 22.345
41.12000 16.625
41.14000 14.883
41.16000 17.185
41.18000 16.441
41.20000 17.562
41.22000 17.237
41.24000 15.239
41.26000 16.201
41.28000 18.840
41.30000 17.798
41.32000 12.381
41.34000 12.120
41.36000 11.129
41.38000 9.391
41.40000 10.533
41.42000 6.528
41.44000 6.714
41.46000 9.245
41.48000 11.284
41.50000 8.018
41.52000 5.293
41.54000 9.362
41.56000 9.983
41.58000 5.555
41.60000 5.570
41.62000 4.729
41.64000 2.885
41.66000 1.631
41.68000 0.964
41.70000 2.531
41.72000 1.555
41.74000 1.288
41.76000 1.421
41.78000 -0.183
41.80000 -3.479
41.82000 0.144
41.84000 2.491
41.86000 -0.872
41.88000 -3.467
41.90000 -0.619
41.92000 0.180
41.94000 4.321
41.96000 1.089
41.98000 -1.190
42.00000 1.103
42.02000 0.318
42.04000 -3.071
42.06000 -2.632
42.08000 -3.352
42.10000 0.228
42.12000 -1.824
42.14000 2.001
42.16000 4.440
42.18000 3.706
42.20000 1.792
42.22000 -0.114
42.24000 -1.772
42.26000 -3.407
42.28000 -0.635
42.30000 -0.777
42.32000 1.521
42.34000 -0.828
42.36000 -0.721
42.38000 -1.380
42.40000 3.287
42.42000 0.709
42.44000 -2.214
42.46000 -2.207
42.48000 0.155
42.50000 0.552
42.52000 -1.435
42.54000 0.595
42.56000 4.237
42.58000 -0.037
42.60000 0.190
42.62000 -1.877
42.64000 1.347
42.66000 0.396
42.68000 -2.417
42.70000 1.349
42.72000 -1.916
42.74000 0.468
42.76000 0.102
42.78000 2.546
42.80000 0.023
42.82000 -3.303
42.84000 -2.575
42.86000 -1.956
42.88000 -2.061
42.90000 -1.184
42.92000 3.572
42.94000 2.856
42.96000 5.622
42.98000 7.332
43.00000 4.940
43.02000 2.720
43.04000 4.042
43.06000 3.850
43.08000 -3.256
43.10000 -0.365
43.12000 1.445
43.14000 0.945
43.16000 2.819
43.18000 4.696
43.20000 -0.422
43.22000 0.473
43.24000 5.368
43.26000 5.679
43.28000 4.569
43.30000 2.231
43.32000 4.799
43.34000 3.699
43.36000 1.865
43.38000 1.620
43.40000 2.890
43.42000 2.226
43.44000 3.923
43.46000 2.668
43.48000 2.009
43.50000 -1.383
43.52000 -3.207
43.54000 0.761
43.56000 -0.149
43.58000 1.618
43.60000 5.421
43.62000 4.761
43.64000 0.527
43.66000 -1.248
43.68000 2.280
43.70000 1.064
43.72000 2.223
43.74000 3.351
43.76000 3.647
43.78000 3.031
43.80000 3.650
43.82000 3.937
43.84000 3.305
43.86000 -0.642
43.88000 1.840
43.90000 6.035
43.92000 4.601
43.94000 1.133
43.96000 -0.366
43.98000 -3.156
44.00000 -1.917
44.02000 1.485
44.04000 4.384
44.06000 2.310
44.08000 1.947
44.10000 3.162
44.12000 3.410
44.14000 3.939
44.16000 2.272
44.18000 2.402
44.20000 4.993
44.22000 2.788
44.24000 2.642
44.26000 3.583
44.28000 1.133
44.30000 0.677
44.32000 2.041
44.34000 2.221
44.36000 0.833
44.38000 2.645
44.40000 1.206
44.42000 2.782
44.44000 2.246
44.46000 1.430
44.48000 1.709
44.50000 3.894
44.52000 5.387
44.54000 4.386
44.56000 3.438
44.58000 5.709
44.60000 4.297
44.62000 4.573
44.64000 0.380
44.66000 2.800
44.68000 5.934
44.70000 7.248
44.72000 1.195
44.74000 1.856
44.76000 4.939
44.78000 5.820
44.80000 5.488
44.82000 2.960
44.84000 2.988
44.86000 4.586
44.88000 6.486
44.90000 6.085
44.92000 2.105
44.94000 1.446
44.96000 1.459
44.98000 2.475
45.00000 6.274
45.02000 8.876
45.04000 11.633
45.06000 6.247
45.08000 5.980
45.10000 9.266
45.12000 8.833
45.14000 8.104
45.16000 8.063
45.18000 7.159
45.20000 8.512
45.22000 8.913
45.24000 7.102
45.26000 5.758
45.28000 1.285
45.30000 6.648
45.32000 7.187
45.34000 8.282
45.36000 10.182
45.38000 10.029
45.40000 10.862
45.42000 10.888
45.44000 9.766
45.46000 10.121
45.48000 10.004
45.50000 12.888
45.52000 15.663
45.54000 19.332
45.56000 24.795
45.58000 21.759
45.60000 20.957
45.62000 22.230
45.64000 17.869
45.66000 22.658
45.68000 27.272
45.70000 26.513
45.72000 26.868
45.74000 31.463
45.76000 31.072
45.78000 30.597
45.80000 28.307
45.82000 31.044
45.84000 31.814
45.86000 30.887
45.88000 29.973
45.90000 34.406
45.92000 36.940
45.94000 40.999
45.96000 41.442
45.98000 34.174
46.00000 37.852
46.02000 47.162
46.04000 51.457
46.06000 48.773
46.08000 46.347
46.10000 47.996
46.12000 50.973
46.14000 54.706
46.16000 52.183
46.18000 49.294
46.20000 56.710
46.22000 60.013
46.24000 64.475
46.26000 61.952
46.28000 60.275
46.30000 62.254
46.32000 61.263
46.34000 60.715
46.36000 59.193
46.38000 61.368
46.40000 64.382
46.42000 60.273
46.44000 64.941
46.46000 62.775
46.48000 64.160
46.50000 65.236
46.52000 63.400
46.54000 67.431
46.56000 63.814
46.58000 69.501
46.60000 70.507
46.62000 62.485
46.64000 60.573
46.66000 56.953
46.68000 56.526
46.70000 51.936
46.72000 52.555
46.74000 55.565
46.76000 49.817
46.78000 46.883
46.80000 47.119
46.82000 49.375
46.84000 48.831
46.86000 47.516
46.88000 42.011
46.90000 41.714
46.92000 39.269
46.94000 41.674
46.96000 37.241
46.98000 34.436
47.00000 33.128
47.02000 26.330
47.04000 26.386
47.06000 28.329
47.08000 29.869
47.10000 24.960
47.12000 25.040
47.14000 22.348
47.16000 23.516
47.18000 24.395
47.20000 22.419
47.22000 18.514
47.24000 18.804
47.26000 18.074
47.28000 14.629
47.30000 16.029
47.32000 11.322
47.34000 12.127
47.36000 16.174
47.38000 13.827
47.40000 8.564
47.42000 8.037
47.44000 11.432
47.46000 9.157
47.48000 7.624
47.50000 4.861
47.52000 5.901
47.54000 3.800
47.56000 7.453
47.58000 8.093
47.60000 6.739
47.62000 6.291
47.64000 6.548
47.66000 5.896
47.68000 4.654
47.70000 5.869
47.72000 4.440
47.74000 2.499
47.76000 -0.207
47.78000 4.796
47.80000 7.071
47.82000 6.848
47.84000 4.188
47.86000 3.558
47.88000 -0.323
47.90000 4.187
47.92000 3.297
47.94000 2.044
47.96000 2.330
47.98000 0.713
48.00000 2.474
48.02000 3.570
48.04000 4.319
48.06000 1.357
48.08000 -1.331
48.10000 -1.689
48.12000 1.203
48.14000 0.516
48.16000 0.468
48.18000 2.132
48.20000 -2.824
48.22000 0.170
48.24000 2.193
48.26000 2.057
48.28000 0.359
48.30000 2.713
48.32000 -0.550
48.34000 -0.816
48.36000 -0.159
48.38000 -2.042
48.40000 0.904
48.42000 1.537
48.44000 1.495
48.46000 2.548
48.48000 4.111
48.50000 2.080
48.52000 -1.528
48.54000 1.361
48.56000 2.343
48.58000 2.699
48.60000 3.313
48.62000 0.234
48.64000 0.265
48.66000 3.752
48.68000 5.207
48.70000 2.173
48.72000 -2.746
48.74000 3.990
48.76000 6.277
48.78000 5.492
48.80000 1.374
48.82000 -0.295
48.84000 -1.134
48.86000 0.322
48.88000 3.481
48.90000 3.500
48.92000 3.297
48.94000 -0.749
48.96000 -1.657
48.98000 1.434
49.00000 5.749
49.02000 2.786
49.04000 4.523
49.06000 4.072
49.08000 4.290
49.10000 1.050
49.12000 3.935
49.14000 7.651
49.16000 1.467
49.18000 4.373
49.20000 6.081
49.22000 1.250
49.24000 0.245
49.26000 1.310
49.28000 2.239
49.30000 3.264
49.32000 4.165
49.34000 2.808
49.36000 6.831
49.38000 1.932
49.40000 -2.672
49.42000 0.092
49.44000 5.176
49.46000 7.755
49.48000 5.286
49.50000 5.760
49.52000 3.755
49.54000 2.709
49.56000 6.697
49.58000 8.945
49.60000 7.397
49.62000 3.112
49.64000 -0.211
49.66000 -0.238
49.68000 -0.443
49.70000 0.029
49.72000 1.604
49.74000 4.204
49.76000 2.546
49.78000 -0.972
49.80000 -1.133
49.82000 -2.564
49.84000 0.966
49.86000 2.667
49.88000 2.436
49.90000 4.237
49.92000 6.575
49.94000 6.374
49.96000 4.110
49.98000 1.953
50.00000 6.735
50.02000 5.741
50.04000 8.491
50.06000 4.711
50.08000 5.115
50.10000 2.252
50.12000 2.133
50.14000 1.215
50.16000 1.844
50.18000 1.877
50.20000 4.917
50.22000 3.890
50.24000 8.546
50.26000 6.914
50.28000 1.083
50.30000 4.063
50.32000 -1.021
50.34000 -0.344
50.36000 3.826
50.38000 6.082
50.40000 1.466
50.42000 -2.615
50.44000 -1.244
50.46000 5.325
50.48000 4.844
50.50000 4.762
50.52000 5.815
50.54000 6.077
50.56000 5.058
50.58000 3.795
50.60000 5.132
50.62000 2.465
50.64000 0.676
50.66000 -0.209
50.68000 1.701
50.70000 2.375
50.72000 -0.322
50.74000 1.297
50.76000 5.623
50.78000 3.262
50.80000 0.842
50.82000 1.643
50.84000 1.580
50.86000 -0.137
50.88000 -0.476
50.90000 -2.513
50.92000 0.736
50.94000 1.634
50.96000 1.189
50.98000 1.361
51.00000 1.120
51.02000 1.014
51.04000 2.140
51.06000 1.394
51.08000 3.033
51.10000 7.058
51.12000 5.257
51.14000 3.990
51.16000 2.805
51.18000 1.521
51.20000 1.730
51.22000 -1.268
51.24000 -2.618
51.26000 1.086
51.28000 -1.621
51.30000 -1.672
51.32000 1.931
51.34000 4.024
51.36000 6.295
51.38000 1.632
51.40000 2.937
51.42000 2.685
51.44000 1.167
51.46000 2.607
51.48000 4.295
51.50000 -2.043
51.52000 1.475
51.54000 6.818
51.56000 -1.321
51.58000 -0.530
51.60000 5.034
51.62000 5.537
51.64000 -0.240
51.66000 -0.837
51.68000 1.112
51.70000 -2.614
51.72000 1.610
51.74000 -1.512
51.76000 -0.515
51.78000 -0.216
51.80000 -1.841
51.82000 0.230
51.84000 0.397
51.86000 3.022
51.88000 3.088
51.90000 0.222
51.92000 -0.522
51.94000 0.113
51.96000 0.778
51.98000 -0.541
52.00000 0.569
52.02000 0.120
52.04000 -0.966
52.06000 -0.713
52.08000 0.292
52.10000 4.115
52.12000 4.359
52.14000 4.787
52.16000 -0.373
52.18000 -1.401
52.20000 3.128
52.22000 1.733
52.24000 1.235
52.26000 -1.485
52.28000 -0.504
52.30000 -0.867
52.32000 -1.364
52.34000 -0.115
52.36000 1.965
52.38000 -0.919
52.40000 4.386
52.42000 2.267
52.44000 5.263
52.46000 4.074
52.48000 1.960
52.50000 3.088
52.52000 -0.616
52.54000 0.547
52.56000 1.081
52.58000 -1.395
52.60000 -1.601
52.62000 0.070
52.64000 -0.869
52.66000 1.493
52.68000 -2.566
52.70000 0.723
52.72000 -0.793
52.74000 4.433
52.76000 3.634
52.78000 4.514
52.80000 3.030
52.82000 7.437
52.84000 2.310
52.86000 4.632
52.88000 3.902
52.90000 3.873
52.92000 0.329
52.94000 0.332
52.96000 -1.383
52.98000 -2.256
53.00000 2.855
53.02000 1.892
53.04000 -0.664
53.06000 1.009
53.08000 -0.141
53.10000 -0.037
53.12000 0.990
53.14000 3.539
53.16000 5.225
53.18000 7.448
53.20000 2.653
53.22000 1.680
53.24000 3.664
53.26000 -1.013
53.28000 0.292
53.30000 6.150
53.32000 4.942
53.34000 1.016
53.36000 4.686
53.38000 1.954
53.40000 2.614
53.42000 0.644
53.44000 2.714
53.46000 4.622
53.48000 3.271
53.50000 5.158
53.52000 3.917
53.54000 3.708
53.56000 3.231
53.58000 4.466
53.60000 4.791
53.62000 2.086
53.64000 -2.551
53.66000 2.405
53.68000 4.930
53.70000 4.256
53.72000 3.111
53.74000 2.570
53.76000 3.162
53.78000 5.603
53.80000 3.187
53.82000 3.851
53.84000 1.714
53.86000 -2.297
53.88000 1.553
53.90000 0.579
53.92000 1.151
53.94000 -1.820
53.96000 -0.193
53.98000 1.531
54.00000 0.941
54.02000 3.976
54.04000 3.912
54.06000 5.297
54.08000 1.166
54.10000 1.255
54.12000 2.742
54.14000 -0.583
54.16000 2.846
54.18000 1.225
54.20000 1.644
54.22000 3.309
54.24000 2.757
54.26000 2.847
54.28000 2.403
54.30000 1.152
54.32000 0.548
54.34000 2.587
54.36000 4.382
54.38000 6.211
54.40000 4.376
54.42000 0.915
54.44000 0.263
54.46000 -0.108
54.48000 -0.080
54.50000 2.184
54.52000 0.993
54.54000 1.232
54.56000 3.764
54.58000 1.141
54.60000 3.154
54.62000 6.415
54.64000 3.955
54.66000 0.977
54.68000 0.959
54.70000 1.035
54.72000 0.665
54.74000 -2.319
54.76000 3.810
54.78000 1.433
54.80000 3.956
54.82000 3.417
54.84000 0.187
54.86000 0.416
54.88000 0.013
54.90000 1.166
54.92000 -0.438
54.94000 1.711
54.96000 1.105
54.98000 2.707
55.00000 0.303
55.02000 -2.494
55.04000 3.363
55.06000 6.068
55.08000 5.912
55.10000 2.816
55.12000 0.960
55.14000 3.742
55.16000 3.625
55.18000 2.929
55.20000 -0.425
55.22000 1.526
55.24000 2.621
55.26000 2.642
55.28000 -1.681
55.30000 -0.841
55.32000 -1.360
55.34000 2.575
55.36000 5.267
55.38000 3.226
55.40000 3.503
55.42000 4.194
55.44000 1.155
55.46000 1.784
55.48000 2.946
55.50000 0.029
55.52000 -0.429
55.54000 3.420
55.56000 4.512
55.58000 2.389
55.60000 6.189
55.62000 4.829
55.64000 4.074
55.66000 0.137
55.68000 0.743
55.70000 1.730
55.72000 5.180
55.74000 0.849
55.76000 1.275
55.78000 1.570
55.80000 0.004
55.82000 -2.413
55.84000 4.160
55.86000 2.835
55.88000 -2.214
55.90000 -0.187
55.92000 -1.142
55.94000 1.133
55.96000 1.201
55.98000 -0.334
56.00000 -1.643
56.02000 1.829
56.04000 0.824
56.06000 0.659
56.08000 -0.969
56.10000 0.934
56.12000 6.242
56.14000 5.525
56.16000 3.544
56.18000 3.899
56.20000 2.427
56.22000 -0.255
56.24000 -0.822
56.26000 -0.001
56.28000 3.468
56.30000 4.084
56.32000 8.395
56.34000 2.695
56.36000 -2.489
56.38000 0.200
56.40000 1.141
56.42000 0.793
56.44000 3.430
56.46000 5.552
56.48000 -1.345
56.50000 -0.202
56.52000 3.681
56.54000 5.776
56.56000 1.341
56.58000 3.322
56.60000 -0.369
56.62000 -1.143
56.64000 1.681
56.66000 1.678
56.68000 1.179
56.70000 0.426
56.72000 0.543
56.74000 -0.661
56.76000 0.892
56.78000 -1.091
56.80000 -0.655
56.82000 0.049
56.84000 3.084
56.86000 4.872
56.88000 4.414
56.90000 -0.405
56.92000 1.486
56.94000 0.845
56.96000 1.145
56.98000 -1.618
57.00000 1.236
57.02000 0.517
57.04000 0.504
57.06000 0.443
57.08000 -0.715
57.10000 -2.467
57.12000 0.733
57.14000 3.794
57.16000 -0.378
57.18000 1.257
57.20000 2.249
57.22000 0.635
57.24000 -0.841
57.26000 1.245
57.28000 1.776
57.30000 3.504
57.32000 -1.550
57.34000 2.508
57.36000 4.538
57.38000 0.183
57.40000 -2.455
57.42000 1.400
57.44000 4.081
57.46000 0.645
57.48000 0.581
57.50000 -1.079
57.52000 1.234
57.54000 -0.479
57.56000 -1.430
57.58000 1.062
57.60000 2.997
57.62000 1.363
57.64000 2.495
57.66000 1.860
57.68000 1.173
57.70000 2.034
57.72000 3.760
57.74000 3.238
57.76000 -0.822
57.78000 -2.435
57.80000 -0.950
57.82000 1.713
57.84000 7.216
57.86000 3.928
57.88000 -1.449
57.90000 0.458
57.92000 2.349
57.94000 0.458
57.96000 1.385
57.98000 1.726
58.00000 0.261
58.02000 1.786
58.04000 -0.454
58.06000 -0.410
58.08000 1.872
58.10000 0.504
58.12000 2.169
58.14000 2.706
58.16000 2.193
58.18000 1.230
58.20000 -2.422
58.22000 0.451
58.24000 1.997
58.26000 2.987
58.28000 5.744
58.30000 4.221
58.32000 5.025
58.34000 2.941
58.36000 1.303
58.38000 2.715
58.40000 7.942
58.42000 9.572
58.44000 4.618
58.46000 6.223
58.48000 5.292
58.50000 4.970
58.52000 6.957
58.54000 5.993
58.56000 2.429
58.58000 4.074
58.60000 2.452
58.62000 3.524
58.64000 2.000
58.66000 2.369
58.68000 1.655
58.70000 4.838
58.72000 2.734
58.74000 3.382
58.76000 4.909
58.78000 4.612
58.80000 6.715
58.82000 3.926
58.84000 0.478
58.86000 -1.294
58.88000 0.288
58.90000 3.403
58.92000 4.407
58.94000 4.098
58.96000 4.036
58.98000 6.802
59.00000 4.990
59.02000 6.179
59.04000 3.970
59.06000 1.648
59.08000 5.761
59.10000 6.273
59.12000 5.844
59.14000 4.148
59.16000 1.483
59.18000 1.198
59.20000 -2.380
59.22000 2.667
59.24000 2.423
59.26000 2.689
59.28000 2.585
59.30000 4.003
59.32000 2.126
59.34000 2.809
59.36000 3.270
59.38000 3.168
59.40000 1.824
59.42000 -1.443
59.44000 -0.700
59.46000 2.601
59.48000 4.611
59.50000 4.140
59.52000 5.234
59.54000 2.876
59.56000 3.110
59.58000 9.143
59.60000 4.032
59.62000 -0.181
59.64000 3.276
59.66000 2.896
59.68000 1.945
59.70000 3.078
59.72000 5.256
59.74000 4.526
59.76000 4.127
59.78000 5.691
59.80000 3.506
59.82000 4.031
59.84000 8.413
59.86000 5.560
59.88000 6.768
59.90000 3.312
59.92000 4.124
59.94000 2.635
59.96000 3.544
59.98000 2.903
60.00000 1.308
60.02000 4.600
60.04000 6.472
60.06000 3.640
60.08000 2.045
60.10000 4.719
60.12000 3.003
60.14000 0.562
60.16000 -2.334
60.18000 0.533
60.20000 5.013
60.22000 5.921
60.24000 8.059
60.26000 8.963
60.28000 3.977
60.30000 4.731
60.32000 3.219
60.34000 2.876
60.36000 4.437
60.38000 2.182
60.40000 0.807
60.42000 2.197
60.44000 1.118
60.46000 0.963
60.48000 4.332
60.50000 6.376
60.52000 4.324
60.54000 4.870
60.56000 5.596
60.58000 4.211
60.60000 3.649
60.62000 4.954
60.64000 5.401
60.66000 1.836
60.68000 2.052
60.70000 0.178
60.72000 2.807
60.74000 2.117
60.76000 2.427
60.78000 3.531
60.80000 3.337
60.82000 4.385
60.84000 2.837
60.86000 3.705
60.88000 2.646
60.90000 0.450
60.92000 3.978
60.94000 6.932
60.96000 2.901
60.98000 0.370
61.00000 1.623
61.02000 1.390
61.04000 0.494
61.06000 3.926
61.08000 4.272
61.10000 3.661
61.12000 5.067
61.14000 1.493
61.16000 1.961
61.18000 3.108
61.20000 -0.604
61.22000 -1.179
61.24000 1.047
61.26000 3.491
61.28000 1.701
61.30000 2.742
61.32000 0.462
61.34000 -2.330
61.36000 -0.096
61.38000 4.912
61.40000 5.757
61.42000 2.425
61.44000 2.783
61.46000 1.407
61.48000 0.673
61.50000 0.343
61.52000 -1.181
61.54000 1.096
61.56000 4.022
61.58000 5.709
61.60000 4.511
61.62000 3.950
61.64000 3.029
61.66000 2.327
61.68000 3.239
61.70000 3.944
61.72000 7.309
61.74000 4.232
61.76000 4.234
61.78000 5.436
61.80000 4.578
61.82000 3.550
61.84000 2.166
61.86000 -0.283
61.88000 2.948
61.90000 1.738
61.92000 3.227
61.94000 1.383
61.96000 1.959
61.98000 1.881
62.00000 2.467
62.02000 3.803
62.04000 2.291
62.06000 3.953
62.08000 5.390
62.10000 6.200
62.12000 1.814
62.14000 2.604
62.16000 3.258
62.18000 1.139
62.20000 2.685
62.22000 3.418
62.24000 7.029
62.26000 4.823
62.28000 3.348
62.30000 2.840
62.32000 4.735
62.34000 2.092
62.36000 2.299
62.38000 -2.302
62.40000 1.111
62.42000 7.198
62.44000 5.476
62.46000 4.034
62.48000 3.914
62.50000 5.316
62.52000 5.043
62.54000 6.232
62.56000 2.884
62.58000 1.330
62.60000 3.066
62.62000 2.370
62.64000 3.154
62.66000 4.193
62.68000 6.593
62.70000 3.349
62.72000 5.095
62.74000 4.668
62.76000 0.406
62.78000 -0.771
62.80000 1.269
62.82000 2.904
62.84000 0.894
62.86000 -0.895
62.88000 0.966
62.90000 2.617
62.92000 2.514
62.94000 -0.413
62.96000 2.273
62.98000 3.975
63.00000 -0.380
63.02000 -1.478
63.04000 1.616
63.06000 4.675
63.08000 3.045
63.10000 4.661
63.12000 5.781
63.14000 4.015
63.16000 3.583
63.18000 5.634
63.20000 4.244
63.22000 5.459
63.24000 5.885
63.26000 5.069
63.28000 3.365
63.30000 3.656
63.32000 1.939
63.34000 1.416
63.36000 3.786
63.38000 3.261
63.40000 4.686
63.42000 3.770
63.44000 0.760
63.46000 2.199
63.48000 0.255
63.50000 -2.294
63.52000 -0.596
63.54000 0.432
63.56000 3.346
63.58000 5.736
63.60000 5.907
63.62000 4.455
63.64000 5.132
63.66000 7.385
63.68000 5.722
63.70000 1.713
63.72000 -0.327
63.74000 2.913
63.76000 4.772
63.78000 4.689
63.80000 3.612
63.82000 2.869
63.84000 3.963
63.86000 0.897
63.88000 0.480
63.90000 -0.180
63.92000 2.505
63.94000 2.241
63.96000 1.013
63.98000 -0.655
64.00000 5.110
64.02000 5.512
64.04000 1.479
64.06000 3.184
64.08000 2.342
64.10000 2.796
64.12000 -2.017
64.14000 -0.977
64.16000 2.013
64.18000 3.737
64.20000 3.943
64.22000 1.281
64.24000 0.629
64.26000 3.110
64.28000 3.565
64.30000 3.750
64.32000 3.061
64.34000 3.851
64.36000 0.733
64.38000 3.492
64.40000 -0.061
64.42000 0.854
64.44000 3.264
64.46000 3.119
64.48000 2.430
64.50000 3.800
64.52000 0.634
64.54000 -1.528
64.56000 0.538
64.58000 4.403
64.60000 4.624
64.62000 2.341
64.64000 0.216
64.66000 1.441
64.68000 2.012
64.70000 -0.532
64.72000 0.760
64.74000 2.662
64.76000 2.748
64.78000 2.695
64.80000 1.954
64.82000 0.795
64.84000 1.758
64.86000 1.906
64.88000 5.777
64.90000 5.677
64.92000 4.908
64.94000 5.629
64.96000 4.820
64.98000 2.344
65.00000 -0.993
65.02000 0.167
65.04000 3.270
65.06000 3.243
65.08000 1.238
65.10000 0.856
65.12000 0.328
65.14000 1.021
65.16000 0.791
65.18000 -2.338
65.20000 1.241
65.22000 1.741
65.24000 1.447
65.26000 4.212
65.28000 4.577
65.30000 5.230
65.32000 6.957
65.34000 4.392
65.36000 0.870
65.38000 -0.439
65.40000 2.409
65.42000 3.402
65.44000 2.848
65.46000 2.417
65.48000 1.084
65.50000 1.250
65.52000 3.561
65.54000 1.135
65.56000 1.614
65.58000 1.672
65.60000 1.399
65.62000 3.041
65.64000 1.029
65.66000 -0.609
65.68000 1.804
65.70000 0.491
65.72000 -0.112
65.74000 1.268
65.76000 1.597
65.78000 2.094
65.80000 1.515
65.82000 3.884
65.84000 1.179
65.86000 -0.982
65.88000 -0.192
65.90000 -2.370
65.92000 -0.222
65.94000 2.909
65.96000 1.494
65.98000 1.925
66.00000 4.746
66.02000 1.824
66.04000 0.432
66.06000 -0.253
66.08000 3.730
66.10000 0.755
66.12000 1.277
66.14000 1.237
66.16000 2.059
66.18000 1.939
66.20000 -0.024
66.22000 -0.688
66.24000 3.263
66.26000 3.147
66.28000 1.059
66.30000 1.391
66.32000 3.226
66.34000 0.564
66.36000 0.972
66.38000 1.754
66.40000 3.845
66.42000 1.911
66.44000 -0.715
66.46000 2.736
66.48000 4.273
66.50000 3.407
66.52000 3.909
66.54000 4.559
66.56000 1.832
66.58000 3.108
66.60000 5.090
66.62000 5.864
66.64000 3.706
66.66000 1.731
66.68000 5.048
66.70000 5.734
66.72000 4.462
66.74000 2.499
66.76000 2.151
66.78000 7.778
66.80000 8.932
66.82000 6.350
66.84000 4.833
66.86000 3.307
66.88000 6.292
66.90000 7.781
66.92000 5.900
66.94000 5.562
66.96000 6.968
66.98000 4.942
67.00000 7.672
67.02000 10.730
67.04000 11.635
67.06000 7.933
67.08000 9.441
67.10000 9.530
67.12000 8.104
67.14000 10.801
67.16000 10.500
67.18000 10.584
67.20000 12.021
67.22000 14.151
67.24000 14.393
67.26000 11.359
67.28000 13.173
67.30000 12.239
67.32000 12.007
67.34000 10.685
67.36000 12.519
67.38000 12.612
67.40000 12.542
67.42000 12.847
67.44000 16.610
67.46000 18.993
67.48000 18.881
67.50000 18.078
67.52000 15.133
67.54000 13.558
67.56000 15.276
67.58000 13.957
67.60000 16.242
67.62000 17.626
67.64000 15.936
67.66000 16.069
67.68000 17.175
67.70000 16.955
67.72000 21.896
67.74000 18.589
67.76000 18.011
67.78000 16.873
67.80000 16.511
67.82000 15.492
67.84000 16.707
67.86000 17.147
67.88000 18.215
67.90000 17.608
67.92000 15.576
67.94000 14.930
67.96000 14.188
67.98000 11.510
68.00000 12.760
68.02000 12.561
68.04000 9.153
68.06000 9.508
68.08000 10.110
68.10000 9.349
68.12000 9.234
68.14000 8.426
68.16000 7.050
68.18000 8.205
68.20000 7.574
68.22000 6.031
68.24000 4.727
68.26000 5.446
68.28000 6.372
68.30000 6.034
68.32000 7.368
68.34000 5.784
68.36000 1.986
68.38000 3.932
68.40000 7.318
68.42000 7.797
68.44000 6.511
68.46000 7.847
68.48000 6.324
68.50000 4.709
68.52000 5.646
68.54000 4.517
68.56000 3.943
68.58000 0.577
68.60000 3.120
68.62000 4.671
68.64000 4.779
68.66000 7.556
68.68000 3.625
68.70000 1.124
68.72000 1.910
68.74000 6.660
68.76000 3.372
68.78000 1.137
68.80000 2.327
68.82000 1.946
68.84000 0.746
68.86000 1.497
68.88000 4.838
68.90000 3.850
68.92000 2.462
68.94000 2.310
68.96000 2.319
68.98000 3.356
69.00000 2.728
69.02000 5.136
69.04000 3.799
69.06000 4.107
69.08000 1.174
69.10000 0.842
69.12000 2.642
69.14000 3.553
69.16000 4.512
69.18000 2.805
69.20000 4.102
69.22000 5.214
69.24000 3.315
69.26000 1.734
69.28000 3.570
69.30000 4.228
69.32000 2.969
69.34000 -1.719
69.36000 -2.246
69.38000 -1.028
69.40000 2.763
69.42000 4.783
69.44000 2.139
69.46000 0.534
69.48000 1.364
69.50000 0.698
69.52000 2.777
69.54000 5.500
69.56000 1.797
69.58000 1.501
69.60000 7.260
69.62000 5.897
69.64000 2.292
69.66000 1.279
69.68000 0.863
69.70000 -1.200
69.72000 3.814
69.74000 2.478
69.76000 1.919
69.78000 3.125
69.80000 3.698
69.82000 3.657
69.84000 0.147
69.86000 2.014
69.88000 3.982
69.90000 1.014
69.92000 0.924
69.94000 2.300
69.96000 3.333
69.98000 1.540
70.00000 -0.994
70.02000 0.437
70.04000 -0.571
70.06000 -0.481
70.08000 0.721
70.10000 1.372
70.12000 2.239
70.14000 2.321
70.16000 1.515
70.18000 3.079
70.20000 1.814
70.22000 2.464
70.24000 2.562
70.26000 1.473
70.28000 3.817
70.30000 2.830
70.32000 1.205
70.34000 4.341
70.36000 2.847
70.38000 2.258
70.40000 3.554
70.42000 -1.233
70.44000 -2.242
70.46000 0.156
70.48000 2.480
70.50000 5.441
70.52000 4.080
70.54000 1.892
70.56000 4.569
70.58000 3.377
70.60000 2.706
70.62000 -1.078
70.64000 -1.447
70.66000 0.895
70.68000 1.961
70.70000 0.439
70.72000 2.716
70.74000 4.375
70.76000 -0.052
70.78000 2.351
70.80000 2.960
70.82000 4.779
70.84000 1.531
70.86000 0.255
70.88000 1.034
70.90000 -1.345
70.92000 -0.865
70.94000 -0.013
70.96000 -1.096
70.98000 0.960
71.00000 0.685
71.02000 0.023
71.04000 4.015
71.06000 3.556
71.08000 1.718
71.10000 2.325
71.12000 3.082
71.14000 2.110
71.16000 3.401
71.18000 2.730
71.20000 3.053
71.22000 3.769
71.24000 4.072
71.26000 5.132
71.28000 6.468
71.30000 1.479
71.32000 0.904
71.34000 0.722
71.36000 1.446
71.38000 4.603
71.40000 3.205
71.42000 2.208
71.44000 0.852
71.46000 0.102
71.48000 -0.621
71.50000 -0.389
71.52000 3.952
71.54000 0.005
71.56000 -2.233
71.58000 -1.671
71.60000 -1.617
71.62000 3.003
71.64000 2.614
71.66000 1.560
71.68000 -1.300
71.70000 -1.855
71.72000 -2.181
71.74000 -1.000
71.76000 0.856
71.78000 0.879
71.80000 -2.189
71.82000 0.011
71.84000 5.389
71.86000 3.694
71.88000 4.901
71.90000 3.619
71.92000 2.247
71.94000 2.008
71.96000 0.213
71.98000 0.375
72.00000 1.115
72.02000 1.137
72.04000 0.046
72.06000 3.262
72.08000 1.391
72.10000 -0.587
72.12000 -2.200
72.14000 -1.339
72.16000 0.820
72.18000 2.345
72.20000 2.090
72.22000 3.125
72.24000 2.213
72.26000 -0.091
72.28000 -1.924
72.30000 -2.001
72.32000 -1.443
72.34000 -1.342
72.36000 0.546
72.38000 0.635
72.40000 -0.617
72.42000 0.423
72.44000 4.804
72.46000 3.048
72.48000 -0.381
72.50000 -1.828
72.52000 -1.331
72.54000 -2.199
72.56000 -0.989
72.58000 1.626
72.60000 4.520
72.62000 3.763
72.64000 0.170
72.66000 0.368
72.68000 -0.894
72.70000 0.553
72.72000 -1.261
72.74000 0.326
72.76000 1.477
72.78000 -0.519
72.80000 1.876
72.82000 1.451
72.84000 0.287
72.86000 0.387
72.88000 -0.224
72.90000 1.729
72.92000 4.556
72.94000 2.414
72.96000 1.583
72.98000 1.245
73.00000 1.667
73.02000 0.151
73.04000 1.737
73.06000 2.149
73.08000 5.283
73.10000 5.012
73.12000 2.556
73.14000 3.223
73.16000 0.728
73.18000 2.292
73.20000 3.165
73.22000 1.164
73.24000 -0.135
73.26000 3.307
73.28000 3.238
73.30000 -1.490
73.32000 -2.177
73.34000 -0.521
73.36000 1.242
73.38000 1.318
73.40000 0.800
73.42000 1.291
73.44000 1.254
73.46000 0.474
73.48000 1.517
73.50000 0.837
73.52000 4.349
73.54000 1.990
73.56000 1.773
73.58000 3.140
73.60000 0.260
73.62000 1.296
73.64000 0.520
73.66000 1.892
73.68000 -0.892
73.70000 1.378
73.72000 0.707
73.74000 2.616
73.76000 3.469
73.78000 2.310
73.80000 2.051
73.82000 -0.984
73.84000 -0.145
73.86000 -0.356
73.88000 3.947
73.90000 4.498
73.92000 4.645
73.94000 3.521
73.96000 5.354
73.98000 4.416
74.00000 1.875
74.02000 1.626
74.04000 2.196
74.06000 -0.619
74.08000 2.580
74.10000 0.377
74.12000 0.043
74.14000 3.648
74.16000 6.877
74.18000 4.545
74.20000 -0.282
74.22000 0.466
74.24000 -0.276
74.26000 2.579
74.28000 2.441
74.30000 4.634
74.32000 1.556
74.34000 3.715
74.36000 2.726
74.38000 2.251
74.40000 4.602
74.42000 6.914
74.44000 3.856
74.46000 1.606
74.48000 -0.390
74.50000 3.081
74.52000 3.767
74.54000 -0.741
74.56000 -0.405
74.58000 1.998
74.60000 -0.032
74.62000 4.562
74.64000 4.499
74.66000 2.778
74.68000 2.871
74.70000 0.101
74.72000 -2.116
74.74000 5.366
74.76000 4.759
74.78000 6.639
74.80000 3.899
74.82000 3.057
74.84000 1.308
74.86000 1.314
74.88000 2.524
74.90000 4.484
74.92000 5.955
74.94000 5.405
74.96000 3.074
74.98000 3.606
75.00000 8.476
75.02000 6.470
75.04000 3.539
75.06000 2.392
75.08000 1.561
75.10000 -1.652
75.12000 2.578
75.14000 2.428
75.16000 4.319
75.18000 4.054
75.20000 2.687
75.22000 5.693
75.24000 6.310
75.26000 6.719
75.28000 6.976
75.30000 4.554
75.32000 5.764
75.34000 4.208
75.36000 4.922
75.38000 5.340
75.40000 3.397
75.42000 3.604
75.44000 2.111
75.46000 3.367
75.48000 5.684
75.50000 3.127
75.52000 2.137
75.54000 2.776
75.56000 1.862
75.58000 0.064
75.60000 1.387
75.62000 3.070
75.64000 2.741
75.66000 4.052
75.68000 1.146
75.70000 5.669
75.72000 4.758
75.74000 6.725
75.76000 7.374
75.78000 6.124
75.80000 1.324
75.82000 -2.130
75.84000 1.136
75.86000 2.208
75.88000 0.800
75.90000 1.950
75.92000 1.574
75.94000 3.592
75.96000 2.726
75.98000 0.794
76.00000 -0.249
76.02000 3.146
76.04000 1.994
76.06000 3.248
76.08000 4.057
76.10000 3.392
76.12000 1.650
76.14000 4.513
76.16000 5.563
76.18000 5.428
76.20000 3.891
76.22000 3.473
76.24000 2.886
76.26000 2.818
76.28000 -0.904
76.30000 -2.176
76.32000 2.135
76.34000 0.861
76.36000 1.860
76.38000 5.121
76.40000 1.975
76.42000 3.284
76.44000 4.096
76.46000 7.644
76.48000 5.336
76.50000 7.149
76.52000 3.460
76.54000 3.135
76.56000 3.580
76.58000 2.642
76.60000 0.794
76.62000 1.209
76.64000 0.582
76.66000 -0.278
76.68000 2.168
76.70000 1.264
76.72000 -1.280
76.74000 -1.874
76.76000 -1.314
76.78000 0.403
76.80000 2.312
76.82000 0.783
76.84000 0.172
76.86000 3.636
76.88000 7.353
76.90000 3.484
76.92000 0.230
76.94000 2.302
76.96000 4.630
76.98000 3.020
77.00000 -0.658
77.02000 -1.488
77.04000 4.815
77.06000 5.219
77.08000 -0.307
77.10000 -0.049
77.12000 0.904
77.14000 0.931
77.16000 4.625
77.18000 2.543
77.20000 4.335
77.22000 1.945
77.24000 2.215
77.26000 0.634
77.28000 -0.426
77.30000 1.853
77.32000 0.452
77.34000 0.735
77.36000 5.160
77.38000 3.280
77.40000 0.903
77.42000 0.372
77.44000 0.032
77.46000 2.891
77.48000 -1.297
77.50000 0.319
77.52000 3.534
77.54000 1.226
77.56000 -0.075
77.58000 3.900
77.60000 6.411
77.62000 3.159
77.64000 1.601
77.66000 1.249
77.68000 1.320
77.70000 4.598
77.72000 3.242
77.74000 3.182
77.76000 4.569
77.78000 1.711
77.80000 -1.341
77.82000 1.113
77.84000 1.458
77.86000 -2.199
77.88000 -0.358
77.90000 6.156
77.92000 4.978
77.94000 0.711
77.96000 0.593
77.98000 3.175
78.00000 -1.401
78.02000 3.045
78.04000 5.680
78.06000 5.392
78.08000 1.917
78.10000 1.379
78.12000 3.912
78.14000 3.078
78.16000 6.528
78.18000 8.746
78.20000 4.702
78.22000 -0.610
78.24000 0.469
78.26000 -0.260
78.28000 0.158
78.30000 0.477
78.32000 -1.789
78.34000 -2.088
78.36000 -2.221
78.38000 1.045
78.40000 4.434
78.42000 3.535
78.44000 -0.174
78.46000 1.296
78.48000 3.511
78.50000 1.410
78.52000 1.944
78.54000 0.935
78.56000 0.671
78.58000 2.994
78.60000 1.757
78.62000 2.696
78.64000 1.496
78.66000 2.606
78.68000 2.494
78.70000 3.164
78.72000 3.407
78.74000 1.996
78.76000 2.933
78.78000 3.606
78.80000 3.550
78.82000 2.148
78.84000 -0.198
78.86000 0.463
78.88000 4.294
78.90000 1.601
78.92000 -1.698
78.94000 0.482
78.96000 0.147
78.98000 3.255
79.00000 2.741
79.02000 4.152
79.04000 1.511
79.06000 2.985
79.08000 1.193
79.10000 1.064
79.12000 0.442
79.14000 -0.424
79.16000 1.749
79.18000 0.636
79.20000 2.037
79.22000 3.728
79.24000 2.551
79.26000 2.642
79.28000 3.904
79.30000 2.786
79.32000 -0.456
79.34000 -2.245
79.36000 0.770
79.38000 1.856
79.40000 2.320
79.42000 4.951
79.44000 3.799
79.46000 0.971
79.48000 3.897
79.50000 0.854
79.52000 0.957
79.54000 2.217
79.56000 3.384
79.58000 3.570
79.60000 2.736
79.62000 6.902
79.64000 6.967
79.66000 0.822
79.68000 2.871
79.70000 5.793
79.72000 7.192
79.74000 3.211
79.76000 3.442
79.78000 2.008
79.80000 2.211
79.82000 0.196
79.84000 3.098
79.86000 7.946
79.88000 11.073
79.90000 11.119
79.92000 5.271
79.94000 1.880
79.96000 -2.286
79.98000 6.860
80.00000 6.755
80.02000 6.490
80.04000 3.195
80.06000 4.081
80.08000 2.830
80.10000 1.590
80.12000 4.823
80.14000 4.309
80.16000 4.336
80.18000 6.858
80.20000 4.474
80.22000 6.483
80.24000 5.924
80.26000 9.366
80.28000 9.916
80.30000 6.162
80.32000 4.755
80.34000 5.906
80.36000 7.310
80.38000 7.779
80.40000 8.379
80.42000 10.780
80.44000 7.153
80.46000 5.220
80.48000 11.853
80.50000 13.188
80.52000 16.192
80.54000 8.419
80.56000 4.865
80.58000 7.823
80.60000 4.754
80.62000 5.970
80.64000 7.469
80.66000 6.505
80.68000 8.641
80.70000 10.353
80.72000 8.744
80.74000 12.593
80.76000 11.615
80.78000 6.743
80.80000 11.479
80.82000 12.288
80.84000 13.714
80.86000 14.653
80.88000 19.075
80.90000 17.781
80.92000 20.886
80.94000 14.787
80.96000 14.495
80.98000 14.930
81.00000 18.382
81.02000 18.301
81.04000 17.059
81.06000 13.480
81.08000 16.005
81.10000 17.877
81.12000 22.228
81.14000 20.350
81.16000 18.809
81.18000 16.765
81.20000 15.657
81.22000 19.452
81.24000 19.879
81.26000 21.562
81.28000 22.856
81.30000 21.733
81.32000 20.194
81.34000 21.367
81.36000 25.990
81.38000 20.640
81.40000 18.252
81.42000 21.998
81.44000 24.558
81.46000 24.543
81.48000 30.459
81.50000 34.970
81.52000 27.209
81.54000 23.528
81.56000 26.059
81.58000 24.858
81.60000 27.248
81.62000 25.603
81.64000 23.680
81.66000 24.742
81.68000 26.070
81.70000 24.397
81.72000 22.644
81.74000 22.649
81.76000 22.978
81.78000 26.104
81.80000 22.978
81.82000 25.297
81.84000 21.898
81.86000 25.549
81.88000 21.719
81.90000 17.176
81.92000 16.939
81.94000 19.739
81.96000 18.480
81.98000 19.664
82.00000 19.194
82.02000 21.071
82.04000 21.306
82.06000 21.010
82.08000 16.742
82.10000 12.625
82.12000 20.156
82.14000 16.334
82.16000 12.824
82.18000 15.115
82.20000 17.596
82.22000 21.099
82.24000 18.028
82.26000 16.559
82.28000 15.798
82.30000 10.593
82.32000 10.731
82.34000 13.273
82.36000 10.959
82.38000 8.423
82.40000 7.787
82.42000 10.324
82.44000 10.492
82.46000 8.056
82.48000 6.789
82.50000 9.889
82.52000 9.218
82.54000 5.309
82.56000 6.062
82.58000 10.375
82.60000 8.040
82.62000 9.620
82.64000 8.806
82.66000 6.841
82.68000 5.089
82.70000 6.156
82.72000 5.217
82.74000 4.370
82.76000 4.839
82.78000 5.704
82.80000 8.818
82.82000 3.143
82.84000 4.335
82.86000 1.854
82.88000 7.890
82.90000 5.386
82.92000 3.344
82.94000 4.760
82.96000 7.062
82.98000 4.317
83.00000 1.054
83.02000 1.224
83.04000 2.696
83.06000 4.582
83.08000 -0.154
83.10000 -2.361
83.12000 1.804
83.14000 5.729
83.16000 7.186
83.18000 3.608
83.20000 1.503
83.22000 -2.133
83.24000 0.144
83.26000 2.407
83.28000 3.203
83.30000 2.578
83.32000 0.015
83.34000 4.238
83.36000 2.761
83.38000 2.189
83.40000 -0.370
83.42000 -2.233
83.44000 -0.818
83.46000 -0.572
83.48000 -0.150
83.50000 -0.287
83.52000 3.039
83.54000 2.841
83.56000 -0.850
83.58000 1.184
83.60000 4.319
83.62000 4.540
83.64000 2.875
83.66000 2.779
83.68000 1.130
83.70000 -0.776
83.72000 -2.129
83.74000 -0.964
83.76000 3.352
83.78000 5.979
83.80000 2.103
83.82000 2.737
83.84000 1.978
83.86000 -2.317
83.88000 0.010
83.90000 2.669
83.92000 3.804
83.94000 5.942
83.96000 1.816
83.98000 1.389
84.00000 2.260
84.02000 -1.017
84.04000 -1.457
84.06000 -1.204
84.08000 2.351
84.10000 -1.941
84.12000 -0.648
84.14000 1.015
84.16000 1.899
84.18000 3.249
84.20000 3.447
84.22000 6.343
84.24000 3.938
84.26000 0.571
84.28000 4.789
84.30000 2.659
84.32000 3.986
84.34000 -0.339
84.36000 -2.345
84.38000 0.815
84.40000 -1.333
84.42000 -0.163
84.44000 1.366
84.46000 4.600
84.48000 2.522
84.50000 2.255
84.52000 2.301
84.54000 6.999
84.56000 3.559
84.58000 1.169
84.60000 3.911
84.62000 7.506
84.64000 3.007
84.66000 0.365
84.68000 0.547
84.70000 4.460
84.72000 8.072
84.74000 8.097
84.76000 5.341
84.78000 4.961
84.80000 4.739
84.82000 3.027
84.84000 4.149
84.86000 1.703
84.88000 2.837
84.90000 5.190
84.92000 11.894
84.94000 13.255
84.96000 8.230
84.98000 8.235
85.00000 5.386
85.02000 3.311
85.04000 6.176
85.06000 10.933
85.08000 10.946
85.10000 10.816
85.12000 14.511
85.14000 13.377
85.16000 14.244
85.18000 12.892
85.20000 9.497
85.22000 9.375
85.24000 9.031
85.26000 7.992
85.28000 10.160
85.30000 20.397
85.32000 20.220
85.34000 13.418
85.36000 15.867
85.38000 16.597
85.40000 18.541
85.42000 14.459
85.44000 16.884
85.46000 16.362
85.48000 15.272
85.50000 18.359
85.52000 18.693
85.54000 15.930
85.56000 18.322
85.58000 19.593
85.60000 18.261
85.62000 20.333
85.64000 21.477
85.66000 24.220
85.68000 21.605
85.70000 20.307
85.72000 18.142
85.74000 20.106
85.76000 21.743
85.78000 20.034
85.80000 22.135
85.82000 20.838
85.84000 19.902
85.86000 20.505
85.88000 21.532
85.90000 21.793
85.92000 19.825
85.94000 23.027
85.96000 23.304
85.98000 27.952
86.00000 20.288
86.02000 22.208
86.04000 19.698
86.06000 19.873
86.08000 21.723
86.10000 19.127
86.12000 19.938
86.14000 20.588
86.16000 19.394
86.18000 13.884
86.20000 13.558
86.22000 14.514
86.24000 18.180
86.26000 17.917
86.28000 14.491
86.30000 18.609
86.32000 16.042
86.34000 15.921
86.36000 14.650
86.38000 14.425
86.40000 12.728
86.42000 13.221
86.44000 7.784
86.46000 7.094
86.48000 7.967
86.50000 11.011
86.52000 6.222
86.54000 7.500
86.56000 9.734
86.58000 6.566
86.60000 8.558
86.62000 7.928
86.64000 8.583
86.66000 5.071
86.68000 6.099
86.70000 4.413
86.72000 6.159
86.74000 4.828
86.76000 5.372
86.78000 3.799
86.80000 4.256
86.82000 2.522
86.84000 6.219
86.86000 2.875
86.88000 3.443
86.90000 3.835
86.92000 1.481
86.94000 0.254
86.96000 7.909
86.98000 9.728
87.00000 5.778
87.02000 7.232
87.04000 3.703
87.06000 2.270
87.08000 8.746
87.10000 4.919
87.12000 4.930
87.14000 6.283
87.16000 4.575
87.18000 2.068
87.20000 4.131
87.22000 3.224
87.24000 2.591
87.26000 5.296
87.28000 1.131
87.30000 -2.142
87.32000 1.924
87.34000 3.473
87.36000 5.156
87.38000 0.085
87.40000 -0.540
87.42000 1.707
87.44000 1.088
87.46000 -2.109
87.48000 -0.975
87.50000 0.408
87.52000 2.650
87.54000 6.662
87.56000 3.903
87.58000 1.856
87.60000 -0.862
87.62000 -2.119
87.64000 -1.289
87.66000 0.250
87.68000 2.840
87.70000 1.776
87.72000 2.440
87.74000 7.364
87.76000 8.855
87.78000 6.522
87.80000 4.778
87.82000 4.789
87.84000 2.480
87.86000 1.387
87.88000 -0.388
87.90000 0.790
87.92000 2.837
87.94000 0.152
87.96000 -1.974
87.98000 -2.085
88.00000 -0.158
88.02000 -0.899
88.04000 -0.360
88.06000 -1.308
88.08000 3.208
88.10000 4.469
88.12000 4.477
88.14000 2.578
88.16000 2.017
88.18000 2.828
88.20000 0.131
88.22000 0.959
88.24000 1.944
88.26000 2.477
88.28000 0.110
88.30000 -0.359
88.32000 -2.064
88.34000 3.228
88.36000 3.015
88.38000 3.160
88.40000 6.811
88.42000 2.696
88.44000 3.852
88.46000 4.078
88.48000 1.668
88.50000 0.399
88.52000 3.620
88.54000 3.468
88.56000 5.966
88.58000 3.200
88.60000 2.417
88.62000 -0.039
88.64000 -0.133
88.66000 3.737
88.68000 2.094
88.70000 2.666
88.72000 1.637
88.74000 -0.923
88.76000 0.173
88.78000 1.230
88.80000 1.291
88.82000 2.678
88.84000 4.458
88.86000 5.997
88.88000 2.480
88.90000 0.454
88.92000 2.502
88.94000 5.734
88.96000 7.127
88.98000 6.254
89.00000 4.983
89.02000 3.480
89.04000 -2.017
89.06000 2.275
89.08000 5.943
89.10000 5.206
89.12000 -0.692
89.14000 2.037
89.16000 3.400
89.18000 4.571
89.20000 5.742
89.22000 3.664
89.24000 3.740
89.26000 -1.913
89.28000 -0.932
89.30000 3.994
89.32000 2.541
89.34000 -1.604
89.36000 0.869
89.38000 3.046
89.40000 2.769
89.42000 2.495
89.44000 2.735
89.46000 6.015
89.48000 4.540
89.50000 7.238
89.52000 6.356
89.54000 4.717
89.56000 9.803
89.58000 4.992
89.60000 1.953
89.62000 0.401
89.64000 4.755
89.66000 4.903
89.68000 1.623
89.70000 1.064
89.72000 4.144
89.74000 7.096
89.76000 9.811
89.78000 6.861
89.80000 1.363
89.82000 -0.037
89.84000 0.985
89.86000 5.262
89.88000 4.815
89.90000 4.027
89.92000 2.756
89.94000 2.402
89.96000 0.680
89.98000 0.677
90.00000 2.020
90.02000 3.035
90.04000 6.177
90.06000 8.930
90.08000 3.043
90.10000 3.845
90.12000 2.896
90.14000 2.402
90.16000 3.623
90.18000 1.933
90.20000 5.925
90.22000 1.896
90.24000 2.787
90.26000 0.375
90.28000 1.137
90.30000 4.777
90.32000 1.975
90.34000 5.030
90.36000 1.823
90.38000 0.206
90.40000 -2.002
90.42000 -0.188
90.44000 4.373
90.46000 9.491
90.48000 5.063
90.50000 -1.005
90.52000 -0.073
90.54000 3.834
90.56000 1.865
90.58000 0.652
90.60000 4.492
90.62000 6.142
90.64000 4.852
90.66000 5.538
90.68000 3.636
90.70000 2.517
90.72000 5.447
90.74000 4.657
90.76000 1.209
90.78000 5.246
90.80000 5.170
90.82000 4.740
90.84000 2.008
90.86000 1.751
90.88000 1.338
90.90000 1.446
90.92000 2.462
90.94000 2.483
90.96000 1.805
90.98000 0.655
91.00000 0.771
91.02000 1.850
91.04000 2.206
91.06000 1.957
91.08000 2.068
91.10000 -0.304
91.12000 1.712
91.14000 0.438
91.16000 0.008
91.18000 3.492
91.20000 2.183
91.22000 0.811
91.24000 1.515
91.26000 2.394
91.28000 2.173
91.30000 3.548
91.32000 6.070
91.34000 6.046
91.36000 4.458
91.38000 5.602
91.40000 6.593
91.42000 2.520
91.44000 5.224
91.46000 3.994
91.48000 3.754
91.50000 2.249
91.52000 1.912
91.54000 0.383
91.56000 0.243
91.58000 -0.958
91.60000 -0.452
91.62000 3.101
91.64000 4.161
91.66000 4.478
91.68000 3.676
91.70000 2.314
91.72000 2.278
91.74000 1.412
91.76000 1.967
91.78000 1.457
91.80000 5.532
91.82000 3.221
91.84000 1.531
91.86000 4.337
91.88000 7.760
91.90000 4.852
91.92000 2.183
91.94000 3.598
91.96000 4.610
91.98000 4.008
92.00000 1.836
92.02000 3.924
92.04000 9.628
92.06000 6.559
92.08000 3.338
92.10000 -1.980
92.12000 0.944
92.14000 4.028
92.16000 6.475
92.18000 6.807
92.20000 2.356
92.22000 3.117
92.24000 4.634
92.26000 2.590
92.28000 0.391
92.30000 -0.074
92.32000 0.915
92.34000 1.206
92.36000 2.926
92.38000 3.256
92.40000 1.528
92.42000 3.206
92.44000 4.997
92.46000 7.491
92.48000 3.390
92.50000 2.214
92.52000 7.049
92.54000 9.371
92.56000 11.814
92.58000 7.658
92.60000 4.125
92.62000 2.438
92.64000 0.813
92.66000 4.595
92.68000 5.157
92.70000 4.120
92.72000 6.111
92.74000 6.333
92.76000 1.734
92.78000 0.999
92.80000 2.690
92.82000 0.922
92.84000 4.396
92.86000 5.023
92.88000 6.879
92.90000 4.630
92.92000 2.924
92.94000 1.759
92.96000 2.259
92.98000 5.356
93.00000 5.344
93.02000 0.803
93.04000 2.711
93.06000 7.253
93.08000 9.016
93.10000 4.648
93.12000 4.129
93.14000 2.805
93.16000 2.682
93.18000 3.375
93.20000 2.147
93.22000 4.477
93.24000 4.017
93.26000 2.695
93.28000 3.776
93.30000 6.806
93.32000 6.866
93.34000 2.659
93.36000 6.542
93.38000 6.634
93.40000 4.937
93.42000 7.433
93.44000 5.550
93.46000 0.318
93.48000 -2.027
93.50000 -0.447
93.52000 1.594
93.54000 1.198
93.56000 1.871
93.58000 1.576
93.60000 3.025
93.62000 2.692
93.64000 2.448
93.66000 -0.681
93.68000 0.622
93.70000 1.523
93.72000 2.749
93.74000 5.487
93.76000 4.850
93.78000 3.506
93.80000 2.701
93.82000 4.109
93.84000 3.007
93.86000 1.657
93.88000 0.026
93.90000 3.137
93.92000 0.787
93.94000 1.201
93.96000 0.888
93.98000 1.716
94.00000 -1.011
94.02000 0.763
94.04000 4.843
94.06000 2.362
94.08000 -1.020
94.10000 -0.169
94.12000 -0.072
94.14000 -2.054
94.16000 1.397
94.18000 -0.078
94.20000 -1.155
94.22000 1.269
94.24000 3.013
94.26000 5.054
94.28000 1.117
94.30000 0.967
94.32000 4.926
94.34000 5.637
94.36000 1.402
94.38000 1.458
94.40000 2.617
94.42000 2.092
94.44000 4.683
94.46000 5.400
94.48000 7.628
94.50000 7.151
94.52000 5.943
94.54000 2.681
94.56000 0.103
94.58000 3.521
94.60000 5.189
94.62000 7.733
94.64000 4.801
94.66000 3.946
94.68000 3.590
94.70000 -1.052
94.72000 -0.218
94.74000 1.209
94.76000 2.023
94.78000 3.319
94.80000 1.703
94.82000 5.892
94.84000 8.697
94.86000 7.984
94.88000 9.766
94.90000 3.888
94.92000 1.113
94.94000 0.952
94.96000 2.635
94.98000 5.056
95.00000 3.577
95.02000 0.942
95.04000 3.049
95.06000 4.285
95.08000 5.287
95.10000 7.561
95.12000 6.918
95.14000 5.866
95.16000 3.779
95.18000 3.024
95.20000 4.666
95.22000 5.885
95.24000 0.618
95.26000 8.492
95.28000 7.616
95.30000 6.836
95.32000 6.570
95.34000 4.807
95.36000 7.082
95.38000 6.635
95.40000 1.307
95.42000 1.627
95.44000 1.596
95.46000 7.545
95.48000 3.363
95.50000 4.236
95.52000 4.175
95.54000 6.366
95.56000 5.504
95.58000 7.590
95.60000 8.257
95.62000 8.117
95.64000 9.173
95.66000 -3.279
95.68000 0.961
95.70000 6.781
95.72000 6.676
95.74000 5.217
95.76000 4.241
95.78000 4.996
95.80000 4.334
95.82000 6.602
95.84000 3.392
95.86000 4.083
95.88000 3.954
95.90000 5.989
95.92000 5.202
95.94000 2.638
95.96000 8.595
95.98000 11.086
96.00000 2.897
96.02000 -0.895
96.04000 0.778
96.06000 -0.959
96.08000 4.694
96.10000 1.220
96.12000 0.546
96.14000 -1.716
96.16000 -1.558
96.18000 0.381
96.20000 3.102
96.22000 1.804
96.24000 1.126
96.26000 5.398
96.28000 0.046
96.30000 3.813
96.32000 4.755
96.34000 5.054
96.36000 3.645
96.38000 -2.057
96.40000 -0.166
96.42000 7.705
96.44000 8.272
96.46000 2.469
96.48000 5.509
96.50000 2.127
96.52000 5.316
96.54000 8.931
96.56000 8.139
96.58000 1.905
96.60000 2.480
96.62000 2.216
96.64000 -1.400
96.66000 3.226
96.68000 2.527
96.70000 4.209
96.72000 4.102
96.74000 1.401
96.76000 0.745
96.78000 3.495
96.80000 0.899
96.82000 1.741
96.84000 -0.189
96.86000 0.232
96.88000 3.539
96.90000 4.769
96.92000 -0.183
96.94000 2.588
96.96000 2.778
96.98000 7.560
97.00000 5.301
97.02000 9.152
97.04000 6.827
97.06000 5.742
97.08000 2.181
97.10000 -2.030
97.12000 1.172
97.14000 -2.036
97.16000 2.127
97.18000 1.240
97.20000 3.298
97.22000 6.833
97.24000 3.437
97.26000 2.753
97.28000 0.089
97.30000 9.000
97.32000 6.204
97.34000 5.201
97.36000 6.169
97.38000 2.256
97.40000 1.170
97.42000 -2.093
97.44000 3.329
97.46000 6.281
97.48000 6.429
97.50000 3.169
97.52000 7.100
97.54000 10.167
97.56000 1.498
97.58000 0.176
97.60000 2.397
97.62000 1.487
97.64000 0.380
97.66000 -0.700
97.68000 -1.038
97.70000 4.949
97.72000 11.388
97.74000 7.508
97.76000 0.867
97.78000 2.393
97.80000 4.900
97.82000 -0.063
97.84000 1.591
97.86000 6.131
97.88000 4.665
97.90000 -0.628
97.92000 -0.598
97.94000 4.314
97.96000 2.741
97.98000 0.444
98.00000 11.155
98.02000 9.379
98.04000 5.700
98.06000 2.006
98.08000 0.707
98.10000 -0.238
98.12000 -1.569
98.14000 1.503
98.16000 4.381
98.18000 2.831
98.20000 6.881
98.22000 1.228
98.24000 -1.120
98.26000 -1.324
98.28000 0.428
98.30000 3.273
98.32000 -0.557
98.34000 7.296
98.36000 6.573
98.38000 -0.577
98.40000 2.692
98.42000 2.103
98.44000 -0.353
98.46000 1.858
98.48000 5.373
98.50000 8.024
98.52000 4.254
98.54000 8.114
98.56000 11.101
98.58000 7.197
98.60000 2.425
98.62000 2.575
98.64000 2.181
98.66000 10.129
98.68000 2.694
98.70000 -2.023
98.72000 0.432
98.74000 7.383
98.76000 8.248
98.78000 7.833
98.80000 5.195
98.82000 2.306
98.84000 5.803
98.86000 12.046
98.88000 8.818
98.90000 3.215
98.92000 9.547
98.94000 5.081
98.96000 5.812
98.98000 8.615
99.00000 10.634
99.02000 9.703
99.04000 3.704
99.06000 2.602
99.08000 5.345
99.10000 0.377
99.12000 5.987
99.14000 1.027
99.16000 7.443
99.18000 13.026
99.20000 8.112
99.22000 3.009
99.24000 17.165
99.26000 7.802
99.28000 0.310
99.30000 3.804
99.32000 3.896
99.34000 4.375
99.36000 6.781
99.38000 -1.260
99.40000 -1.632
99.42000 0.313
99.44000 -1.997
99.46000 6.170
99.48000 6.684
99.50000 2.667
99.52000 9.526
99.54000 6.021
99.56000 3.159
99.58000 6.912
99.60000 5.187
99.62000 7.809
99.64000 14.956
99.66000 4.839
99.68000 -1.983
99.70000 4.638
99.72000 7.254
99.74000 6.955
99.76000 9.529
99.78000 13.486
99.80000 4.709
99.82000 8.264
99.84000 0.610
99.86000 5.276
99.88000 0.311
99.90000 7.053
99.92000 4.701
99.94000 5.182
99.96000 6.690
99.98000 0.000
