'Id: "0011388" Comment: "Integrate frame 0011388_Au-Ir-Rh_Rh-rich_XRD-Mapping-060-0000.gfrmwith cursor Wedge Cursor #5" Operator: "B?rgel" Anode: "Cu" Wavelength: "1.5406" Scantype: "2Theta (TwoTheta)" TimePerStep: "1" X: "-22.5" Y: "-22.5" Z: "5.95" 
10.00000 0.000
10.02000 -4.595
10.04000 3.024
10.06000 -1.029
10.08000 2.587
10.10000 14.879
10.12000 17.705
10.14000 5.508
10.16000 -4.513
10.18000 -1.190
10.20000 5.391
10.22000 8.063
10.24000 4.708
10.26000 -2.735
10.28000 10.443
10.30000 11.539
10.32000 7.512
10.34000 -2.790
10.36000 3.715
10.38000 14.661
10.40000 3.912
10.42000 13.935
10.44000 20.667
10.46000 31.747
10.48000 18.861
10.50000 -7.717
10.52000 2.082
10.54000 18.573
10.56000 -0.704
10.58000 16.754
10.60000 17.727
10.62000 29.340
10.64000 21.981
10.66000 19.890
10.68000 26.277
10.70000 11.977
10.72000 12.034
10.74000 18.887
10.76000 12.263
10.78000 11.463
10.80000 6.020
10.82000 12.488
10.84000 6.956
10.86000 6.084
10.88000 2.418
10.90000 16.530
10.92000 16.644
10.94000 30.322
10.96000 25.664
10.98000 15.923
11.00000 18.012
11.02000 20.218
11.04000 15.543
11.06000 15.877
11.08000 19.971
11.10000 16.724
11.12000 9.842
11.14000 10.086
11.16000 8.475
11.18000 -1.167
11.20000 3.612
11.22000 10.582
11.24000 14.093
11.26000 18.358
11.28000 29.829
11.30000 30.683
11.32000 19.898
11.34000 0.733
11.36000 16.585
11.38000 27.733
11.40000 21.692
11.42000 15.986
11.44000 7.380
11.46000 3.773
11.48000 8.039
11.50000 12.318
11.52000 5.815
11.54000 -1.199
11.56000 -4.400
11.58000 10.054
11.60000 18.918
11.62000 18.573
11.64000 21.035
11.66000 15.857
11.68000 16.240
11.70000 3.888
11.72000 3.766
11.74000 26.793
11.76000 36.892
11.78000 21.805
11.80000 -1.074
11.82000 -0.477
11.84000 6.869
11.86000 14.337
11.88000 17.198
11.90000 16.917
11.92000 15.943
11.94000 18.901
11.96000 13.615
11.98000 18.807
12.00000 12.448
12.02000 15.684
12.04000 12.069
12.06000 7.271
12.08000 9.319
12.10000 18.727
12.12000 18.838
12.14000 16.869
12.16000 15.990
12.18000 16.380
12.20000 9.637
12.22000 8.057
12.24000 6.664
12.26000 10.248
12.28000 13.616
12.30000 14.927
12.32000 31.598
12.34000 21.308
12.36000 12.666
12.38000 11.674
12.40000 16.530
12.42000 12.597
12.44000 10.687
12.46000 9.714
12.48000 2.085
12.50000 7.343
12.52000 4.756
12.54000 9.144
12.56000 15.845
12.58000 15.077
12.60000 11.374
12.62000 7.946
12.64000 6.366
12.66000 16.609
12.68000 8.306
12.70000 2.159
12.72000 12.102
12.74000 14.744
12.76000 11.747
12.78000 6.237
12.80000 -1.161
12.82000 8.316
12.84000 9.083
12.86000 9.686
12.88000 15.504
12.90000 5.082
12.92000 11.829
12.94000 8.511
12.96000 5.759
12.98000 14.837
13.00000 25.113
13.02000 15.174
13.04000 11.191
13.06000 4.235
13.08000 10.281
13.10000 15.019
13.12000 8.370
13.14000 -1.395
13.16000 7.992
13.18000 13.693
13.20000 12.692
13.22000 6.951
13.24000 8.299
13.26000 7.296
13.28000 5.400
13.30000 11.900
13.32000 13.163
13.34000 18.020
13.36000 13.684
13.38000 10.245
13.40000 11.139
13.42000 8.976
13.44000 10.032
13.46000 4.049
13.48000 8.700
13.50000 15.201
13.52000 10.928
13.54000 3.840
13.56000 10.547
13.58000 10.535
13.60000 4.764
13.62000 7.035
13.64000 8.749
13.66000 8.948
13.68000 6.873
13.70000 6.462
13.72000 13.852
13.74000 12.885
13.76000 1.336
13.78000 2.576
13.80000 0.039
13.82000 11.296
13.84000 9.846
13.86000 9.314
13.88000 8.126
13.90000 11.403
13.92000 16.797
13.94000 17.342
13.96000 3.593
13.98000 1.553
14.00000 -1.596
14.02000 7.743
14.04000 7.326
14.06000 2.209
14.08000 5.425
14.10000 8.023
14.12000 6.710
14.14000 2.743
14.16000 0.412
14.18000 2.376
14.20000 0.045
14.22000 1.601
14.24000 4.516
14.26000 3.643
14.28000 0.230
14.30000 9.167
14.32000 3.986
14.34000 6.758
14.36000 -0.718
14.38000 1.694
14.40000 5.967
14.42000 11.121
14.44000 3.700
14.46000 3.358
14.48000 8.590
14.50000 9.760
14.52000 8.210
14.54000 1.045
14.56000 0.623
14.58000 -0.712
14.60000 10.017
14.62000 11.687
14.64000 11.328
14.66000 6.336
14.68000 10.009
14.70000 10.465
14.72000 8.548
14.74000 0.092
14.76000 -1.086
14.78000 2.286
14.80000 1.158
14.82000 7.971
14.84000 6.966
14.86000 6.192
14.88000 11.629
14.90000 10.456
14.92000 8.765
14.94000 6.177
14.96000 0.241
14.98000 3.058
15.00000 7.982
15.02000 6.814
15.04000 2.816
15.06000 9.481
15.08000 6.119
15.10000 4.259
15.12000 8.007
15.14000 3.196
15.16000 0.031
15.18000 4.806
15.20000 5.440
15.22000 -4.454
15.24000 6.851
15.26000 10.301
15.28000 2.242
15.30000 11.032
15.32000 10.730
15.34000 10.337
15.36000 12.706
15.38000 12.831
15.40000 7.484
15.42000 6.885
15.44000 7.396
15.46000 4.007
15.48000 -2.062
15.50000 3.034
15.52000 6.678
15.54000 4.143
15.56000 7.603
15.58000 8.597
15.60000 9.279
15.62000 3.550
15.64000 4.753
15.66000 11.439
15.68000 7.980
15.70000 9.631
15.72000 11.075
15.74000 -1.287
15.76000 3.316
15.78000 9.803
15.80000 7.090
15.82000 8.319
15.84000 10.541
15.86000 5.716
15.88000 5.473
15.90000 9.441
15.92000 4.914
15.94000 2.423
15.96000 1.725
15.98000 4.358
16.00000 2.492
16.02000 10.454
16.04000 19.853
16.06000 13.284
16.08000 3.918
16.10000 3.583
16.12000 0.107
16.14000 13.750
16.16000 16.687
16.18000 7.068
16.20000 -3.968
16.22000 -0.062
16.24000 -0.924
16.26000 -1.619
16.28000 -3.117
16.30000 2.956
16.32000 1.100
16.34000 10.652
16.36000 13.421
16.38000 8.576
16.40000 0.794
16.42000 4.574
16.44000 0.388
16.46000 -0.585
16.48000 0.499
16.50000 8.748
16.52000 0.988
16.54000 -2.145
16.56000 -0.087
16.58000 12.317
16.60000 6.201
16.62000 -4.388
16.64000 4.575
16.66000 3.928
16.68000 6.867
16.70000 14.513
16.72000 5.692
16.74000 8.559
16.76000 10.737
16.78000 7.053
16.80000 1.090
16.82000 1.326
16.84000 7.838
16.86000 10.385
16.88000 -0.902
16.90000 4.822
16.92000 9.554
16.94000 11.021
16.96000 7.351
16.98000 6.250
17.00000 3.105
17.02000 -0.469
17.04000 8.892
17.06000 6.869
17.08000 3.087
17.10000 3.695
17.12000 -2.712
17.14000 6.213
17.16000 6.795
17.18000 1.644
17.20000 6.173
17.22000 4.046
17.24000 8.394
17.26000 8.447
17.28000 7.146
17.30000 4.417
17.32000 1.006
17.34000 3.122
17.36000 4.869
17.38000 5.858
17.40000 2.431
17.42000 4.184
17.44000 9.688
17.46000 11.151
17.48000 2.884
17.50000 -2.015
17.52000 9.049
17.54000 6.807
17.56000 -0.866
17.58000 1.392
17.60000 -0.692
17.62000 -0.344
17.64000 5.072
17.66000 13.369
17.68000 9.891
17.70000 5.061
17.72000 3.229
17.74000 -1.332
17.76000 -2.977
17.78000 7.507
17.80000 9.424
17.82000 7.607
17.84000 -0.227
17.86000 -0.483
17.88000 10.917
17.90000 9.780
17.92000 8.666
17.94000 6.050
17.96000 4.745
17.98000 6.404
18.00000 6.896
18.02000 2.162
18.04000 1.096
18.06000 -0.613
18.08000 -3.388
18.10000 1.621
18.12000 4.162
18.14000 0.400
18.16000 -0.150
18.18000 8.239
18.20000 5.254
18.22000 5.430
18.24000 5.908
18.26000 -1.375
18.28000 -2.307
18.30000 -1.188
18.32000 1.108
18.34000 4.726
18.36000 1.703
18.38000 1.817
18.40000 -0.706
18.42000 3.624
18.44000 8.117
18.46000 1.703
18.48000 6.275
18.50000 10.716
18.52000 5.993
18.54000 3.916
18.56000 6.589
18.58000 7.429
18.60000 3.012
18.62000 -3.600
18.64000 0.361
18.66000 8.167
18.68000 11.649
18.70000 10.822
18.72000 7.974
18.74000 6.020
18.76000 3.962
18.78000 10.364
18.80000 7.060
18.82000 6.278
18.84000 6.730
18.86000 4.188
18.88000 10.885
18.90000 12.241
18.92000 4.844
18.94000 5.291
18.96000 7.944
18.98000 7.103
19.00000 5.977
19.02000 2.466
19.04000 -4.264
19.06000 -3.614
19.08000 0.736
19.10000 -2.438
19.12000 -1.928
19.14000 4.664
19.16000 8.851
19.18000 8.082
19.20000 5.256
19.22000 -2.099
19.24000 5.035
19.26000 3.723
19.28000 0.884
19.30000 -0.377
19.32000 2.371
19.34000 0.963
19.36000 -3.171
19.38000 -3.544
19.40000 -2.282
19.42000 3.469
19.44000 5.304
19.46000 3.845
19.48000 1.723
19.50000 3.396
19.52000 1.188
19.54000 0.076
19.56000 7.466
19.58000 7.135
19.60000 8.523
19.62000 5.852
19.64000 4.635
19.66000 4.074
19.68000 0.773
19.70000 2.472
19.72000 4.986
19.74000 4.216
19.76000 4.062
19.78000 10.488
19.80000 13.750
19.82000 7.050
19.84000 5.412
19.86000 4.552
19.88000 6.670
19.90000 7.217
19.92000 5.427
19.94000 -1.843
19.96000 -0.293
19.98000 2.616
20.00000 -1.107
20.02000 1.599
20.04000 -1.436
20.06000 -0.885
20.08000 -4.207
20.10000 -2.117
20.12000 1.687
20.14000 7.330
20.16000 3.796
20.18000 -0.133
20.20000 -0.024
20.22000 -1.575
20.24000 3.611
20.26000 5.971
20.28000 2.305
20.30000 1.483
20.32000 4.981
20.34000 7.484
20.36000 7.986
20.38000 1.826
20.40000 -1.737
20.42000 -0.366
20.44000 -0.672
20.46000 1.499
20.48000 -0.713
20.50000 0.008
20.52000 7.815
20.54000 6.053
20.56000 6.584
20.58000 11.221
20.60000 4.140
20.62000 -1.901
20.64000 0.560
20.66000 -1.328
20.68000 2.538
20.70000 -1.894
20.72000 1.688
20.74000 7.467
20.76000 8.969
20.78000 5.021
20.80000 7.819
20.82000 2.629
20.84000 7.819
20.86000 12.752
20.88000 10.625
20.90000 7.136
20.92000 6.623
20.94000 0.600
20.96000 2.644
20.98000 -0.816
21.00000 1.767
21.02000 1.402
21.04000 -2.036
21.06000 1.082
21.08000 9.829
21.10000 13.069
21.12000 11.460
21.14000 1.298
21.16000 -4.118
21.18000 -0.009
21.20000 -1.477
21.22000 4.896
21.24000 8.589
21.26000 6.033
21.28000 2.381
21.30000 9.318
21.32000 9.164
21.34000 4.665
21.36000 10.606
21.38000 11.481
21.40000 5.583
21.42000 6.043
21.44000 0.373
21.46000 3.457
21.48000 0.830
21.50000 -2.977
21.52000 -4.098
21.54000 0.230
21.56000 8.721
21.58000 11.573
21.60000 6.429
21.62000 -1.241
21.64000 4.957
21.66000 2.697
21.68000 -1.107
21.70000 5.726
21.72000 7.638
21.74000 3.524
21.76000 2.318
21.78000 2.658
21.80000 3.940
21.82000 3.976
21.84000 3.523
21.86000 6.868
21.88000 3.295
21.90000 -0.382
21.92000 -1.680
21.94000 6.314
21.96000 8.999
21.98000 10.622
22.00000 9.121
22.02000 4.483
22.04000 0.694
22.06000 2.882
22.08000 2.613
22.10000 3.752
22.12000 5.801
22.14000 10.688
22.16000 11.882
22.18000 8.631
22.20000 9.724
22.22000 5.076
22.24000 -4.063
22.26000 -3.522
22.28000 -3.442
22.30000 -1.337
22.32000 7.150
22.34000 3.964
22.36000 6.778
22.38000 3.340
22.40000 9.075
22.42000 4.063
22.44000 11.201
22.46000 11.491
22.48000 8.750
22.50000 7.893
22.52000 7.504
22.54000 5.642
22.56000 -1.235
22.58000 5.379
22.60000 9.404
22.62000 9.622
22.64000 9.636
22.66000 9.265
22.68000 8.420
22.70000 3.481
22.72000 5.515
22.74000 7.425
22.76000 5.066
22.78000 5.836
22.80000 6.239
22.82000 5.806
22.84000 7.048
22.86000 13.228
22.88000 3.963
22.90000 0.498
22.92000 11.869
22.94000 8.551
22.96000 3.242
22.98000 2.406
23.00000 7.355
23.02000 3.723
23.04000 10.531
23.06000 9.602
23.08000 4.832
23.10000 0.829
23.12000 4.751
23.14000 1.871
23.16000 -1.842
23.18000 2.766
23.20000 4.986
23.22000 7.439
23.24000 7.893
23.26000 4.866
23.28000 3.107
23.30000 -0.542
23.32000 -4.019
23.34000 -0.541
23.36000 1.702
23.38000 1.861
23.40000 5.879
23.42000 8.229
23.44000 12.307
23.46000 13.644
23.48000 10.174
23.50000 3.783
23.52000 6.585
23.54000 4.117
23.56000 5.464
23.58000 4.417
23.60000 5.783
23.62000 6.642
23.64000 3.890
23.66000 1.540
23.68000 1.704
23.70000 0.673
23.72000 3.040
23.74000 -0.945
23.76000 1.034
23.78000 2.728
23.80000 5.297
23.82000 8.276
23.84000 6.916
23.86000 3.786
23.88000 -0.065
23.90000 4.644
23.92000 7.371
23.94000 3.054
23.96000 -1.329
23.98000 3.130
24.00000 2.737
24.02000 2.187
24.04000 6.484
24.06000 3.575
24.08000 1.051
24.10000 3.276
24.12000 1.764
24.14000 2.238
24.16000 4.329
24.18000 6.478
24.20000 5.201
24.22000 6.758
24.24000 6.503
24.26000 5.985
24.28000 5.537
24.30000 4.266
24.32000 1.161
24.34000 0.515
24.36000 2.494
24.38000 4.064
24.40000 2.643
24.42000 2.977
24.44000 1.091
24.46000 1.430
24.48000 2.039
24.50000 4.719
24.52000 6.452
24.54000 7.766
24.56000 9.512
24.58000 1.264
24.60000 1.529
24.62000 0.446
24.64000 -0.850
24.66000 1.334
24.68000 1.289
24.70000 3.068
24.72000 3.556
24.74000 4.822
24.76000 7.942
24.78000 1.324
24.80000 -3.928
24.82000 1.289
24.84000 -0.981
24.86000 1.367
24.88000 5.777
24.90000 2.692
24.92000 2.655
24.94000 7.163
24.96000 8.930
24.98000 8.091
25.00000 6.637
25.02000 2.766
25.04000 2.542
25.06000 0.034
25.08000 1.764
25.10000 10.434
25.12000 5.498
25.14000 4.802
25.16000 7.889
25.18000 3.532
25.20000 4.529
25.22000 3.760
25.24000 1.700
25.26000 6.500
25.28000 4.453
25.30000 7.352
25.32000 4.667
25.34000 6.284
25.36000 5.535
25.38000 2.143
25.40000 2.712
25.42000 9.879
25.44000 11.729
25.46000 6.802
25.48000 2.023
25.50000 4.393
25.52000 9.021
25.54000 2.700
25.56000 5.449
25.58000 7.480
25.60000 7.963
25.62000 8.167
25.64000 8.130
25.66000 1.125
25.68000 6.505
25.70000 5.433
25.72000 0.576
25.74000 4.195
25.76000 2.368
25.78000 4.595
25.80000 6.504
25.82000 2.120
25.84000 5.076
25.86000 1.227
25.88000 4.487
25.90000 7.112
25.92000 1.377
25.94000 1.225
25.96000 4.863
25.98000 6.184
26.00000 1.220
26.02000 3.713
26.04000 3.078
26.06000 0.725
26.08000 -3.862
26.10000 -0.827
26.12000 0.629
26.14000 1.943
26.16000 6.412
26.18000 11.310
26.20000 8.507
26.22000 7.839
26.24000 3.130
26.26000 4.317
26.28000 5.888
26.30000 -1.549
26.32000 0.824
26.34000 6.028
26.36000 -0.191
26.38000 -1.434
26.40000 3.294
26.42000 5.520
26.44000 2.836
26.46000 2.944
26.48000 1.344
26.50000 -2.654
26.52000 3.981
26.54000 8.101
26.56000 5.103
26.58000 8.326
26.60000 4.785
26.62000 2.283
26.64000 0.078
26.66000 1.848
26.68000 -1.024
26.70000 -1.155
26.72000 1.583
26.74000 4.344
26.76000 7.210
26.78000 3.839
26.80000 3.947
26.82000 6.327
26.84000 10.056
26.86000 7.954
26.88000 4.380
26.90000 3.463
26.92000 4.253
26.94000 6.334
26.96000 4.389
26.98000 2.814
27.00000 3.687
27.02000 2.919
27.04000 1.172
27.06000 4.555
27.08000 2.848
27.10000 4.791
27.12000 4.068
27.14000 0.524
27.16000 0.407
27.18000 0.938
27.20000 0.731
27.22000 2.593
27.24000 7.456
27.26000 5.763
27.28000 1.771
27.30000 3.626
27.32000 2.296
27.34000 -1.273
27.36000 2.600
27.38000 5.597
27.40000 -0.605
27.42000 -0.499
27.44000 7.069
27.46000 8.247
27.48000 6.366
27.50000 0.373
27.52000 2.281
27.54000 6.457
27.56000 1.959
27.58000 1.453
27.60000 4.218
27.62000 3.876
27.64000 4.242
27.66000 8.402
27.68000 7.019
27.70000 6.182
27.72000 3.442
27.74000 -0.136
27.76000 4.853
27.78000 4.676
27.80000 1.935
27.82000 1.933
27.84000 4.737
27.86000 1.681
27.88000 4.559
27.90000 9.195
27.92000 4.875
27.94000 4.880
27.96000 4.815
27.98000 5.784
28.00000 4.613
28.02000 7.756
28.04000 11.681
28.06000 7.622
28.08000 0.287
28.10000 3.983
28.12000 4.723
28.14000 -2.308
28.16000 2.893
28.18000 3.418
28.20000 4.115
28.22000 4.065
28.24000 8.170
28.26000 0.828
28.28000 -3.735
28.30000 1.679
28.32000 5.188
28.34000 4.768
28.36000 6.457
28.38000 5.793
28.40000 3.955
28.42000 6.534
28.44000 12.148
28.46000 14.625
28.48000 11.060
28.50000 6.230
28.52000 4.172
28.54000 3.659
28.56000 3.141
28.58000 0.318
28.60000 3.539
28.62000 2.975
28.64000 1.377
28.66000 4.012
28.68000 2.640
28.70000 7.374
28.72000 8.969
28.74000 5.016
28.76000 3.362
28.78000 2.760
28.80000 -1.072
28.82000 3.881
28.84000 0.636
28.86000 -0.209
28.88000 3.833
28.90000 1.711
28.92000 6.023
28.94000 5.328
28.96000 8.482
28.98000 4.771
29.00000 4.345
29.02000 7.088
29.04000 6.137
29.06000 6.584
29.08000 7.123
29.10000 3.111
29.12000 0.800
29.14000 -1.570
29.16000 -1.265
29.18000 -3.134
29.20000 2.049
29.22000 1.875
29.24000 3.762
29.26000 6.781
29.28000 4.300
29.30000 -0.582
29.32000 -1.028
29.34000 0.398
29.36000 4.820
29.38000 3.600
29.40000 4.790
29.42000 3.573
29.44000 5.290
29.46000 3.256
29.48000 0.920
29.50000 1.002
29.52000 5.533
29.54000 -0.824
29.56000 5.196
29.58000 6.388
29.60000 -1.376
29.62000 -2.532
29.64000 -1.688
29.66000 2.809
29.68000 2.558
29.70000 4.151
29.72000 8.157
29.74000 4.875
29.76000 3.806
29.78000 0.954
29.80000 -0.125
29.82000 -0.181
29.84000 4.014
29.86000 2.286
29.88000 1.632
29.90000 6.946
29.92000 5.323
29.94000 0.184
29.96000 -3.269
29.98000 -3.677
30.00000 0.023
30.02000 1.242
30.04000 -2.359
30.06000 0.562
30.08000 0.370
30.10000 1.753
30.12000 1.672
30.14000 -3.557
30.16000 -1.117
30.18000 1.550
30.20000 4.463
30.22000 2.862
30.24000 4.840
30.26000 4.932
30.28000 1.047
30.30000 -1.410
30.32000 5.590
30.34000 7.748
30.36000 5.691
30.38000 1.027
30.40000 5.751
30.42000 3.334
30.44000 -1.066
30.46000 -3.565
30.48000 1.471
30.50000 1.596
30.52000 3.906
30.54000 8.651
30.56000 7.576
30.58000 5.508
30.60000 4.537
30.62000 4.854
30.64000 1.058
30.66000 1.084
30.68000 4.044
30.70000 1.127
30.72000 5.943
30.74000 4.870
30.76000 4.115
30.78000 6.689
30.80000 3.266
30.82000 -3.630
30.84000 -0.874
30.86000 -0.229
30.88000 1.882
30.90000 3.875
30.92000 2.944
30.94000 2.394
30.96000 1.087
30.98000 0.963
31.00000 1.330
31.02000 3.565
31.04000 5.490
31.06000 5.259
31.08000 6.580
31.10000 6.132
31.12000 7.724
31.14000 4.484
31.16000 4.901
31.18000 2.424
31.20000 1.920
31.22000 1.103
31.24000 0.038
31.26000 4.648
31.28000 3.049
31.30000 2.773
31.32000 2.383
31.34000 1.476
31.36000 2.444
31.38000 7.334
31.40000 4.065
31.42000 0.253
31.44000 1.695
31.46000 3.251
31.48000 0.095
31.50000 2.929
31.52000 3.068
31.54000 5.045
31.56000 6.873
31.58000 1.158
31.60000 1.510
31.62000 4.093
31.64000 0.917
31.66000 -1.242
31.68000 -0.539
31.70000 2.802
31.72000 3.374
31.74000 1.900
31.76000 5.113
31.78000 3.146
31.80000 2.809
31.82000 3.953
31.84000 7.582
31.86000 9.098
31.88000 2.270
31.90000 2.922
31.92000 1.602
31.94000 2.564
31.96000 10.722
31.98000 10.735
32.00000 4.330
32.02000 4.975
32.04000 -1.374
32.06000 -0.513
32.08000 0.186
32.10000 -0.535
32.12000 6.498
32.14000 10.565
32.16000 9.143
32.18000 8.513
32.20000 5.677
32.22000 -0.178
32.24000 5.428
32.26000 6.066
32.28000 8.116
32.30000 3.796
32.32000 5.591
32.34000 0.588
32.36000 1.348
32.38000 8.715
32.40000 8.302
32.42000 7.401
32.44000 1.765
32.46000 3.341
32.48000 5.929
32.50000 -3.531
32.52000 -0.387
32.54000 8.072
32.56000 8.424
32.58000 3.268
32.60000 12.132
32.62000 8.912
32.64000 2.782
32.66000 3.421
32.68000 3.737
32.70000 1.984
32.72000 -2.035
32.74000 -0.346
32.76000 3.117
32.78000 5.286
32.80000 4.253
32.82000 4.050
32.84000 2.970
32.86000 2.261
32.88000 5.272
32.90000 2.779
32.92000 1.932
32.94000 9.067
32.96000 9.118
32.98000 3.831
33.00000 -2.196
33.02000 -0.669
33.04000 5.803
33.06000 6.532
33.08000 5.938
33.10000 3.258
33.12000 5.163
33.14000 6.073
33.16000 -0.784
33.18000 4.751
33.20000 3.825
33.22000 -1.865
33.24000 -2.908
33.26000 1.103
33.28000 4.993
33.30000 1.731
33.32000 -1.254
33.34000 -3.528
33.36000 2.695
33.38000 2.260
33.40000 8.763
33.42000 6.407
33.44000 4.275
33.46000 -2.038
33.48000 3.254
33.50000 3.969
33.52000 3.003
33.54000 0.752
33.56000 5.299
33.58000 1.234
33.60000 1.690
33.62000 0.160
33.64000 -1.030
33.66000 2.664
33.68000 3.067
33.70000 1.896
33.72000 2.686
33.74000 2.797
33.76000 2.267
33.78000 2.514
33.80000 -0.305
33.82000 5.264
33.84000 5.452
33.86000 5.643
33.88000 4.705
33.90000 5.218
33.92000 3.665
33.94000 1.919
33.96000 -1.220
33.98000 -3.268
34.00000 -1.602
34.02000 -0.040
34.04000 0.514
34.06000 2.426
34.08000 2.969
34.10000 4.618
34.12000 1.476
34.14000 1.848
34.16000 -1.402
34.18000 1.690
34.20000 4.485
34.22000 6.581
34.24000 3.422
34.26000 2.609
34.28000 1.885
34.30000 0.500
34.32000 0.956
34.34000 0.403
34.36000 2.593
34.38000 3.638
34.40000 2.071
34.42000 0.595
34.44000 0.296
34.46000 3.570
34.48000 3.793
34.50000 -0.552
34.52000 1.642
34.54000 2.556
34.56000 1.855
34.58000 -1.676
34.60000 -1.497
34.62000 0.232
34.64000 0.752
34.66000 0.984
34.68000 -1.769
34.70000 -3.527
34.72000 1.393
34.74000 0.112
34.76000 -0.642
34.78000 0.934
34.80000 0.565
34.82000 0.250
34.84000 2.335
34.86000 3.363
34.88000 3.674
34.90000 0.313
34.92000 4.266
34.94000 4.590
34.96000 -1.507
34.98000 -0.654
35.00000 -0.790
35.02000 -1.333
35.04000 1.803
35.06000 3.514
35.08000 1.815
35.10000 0.818
35.12000 -1.213
35.14000 3.449
35.16000 2.563
35.18000 2.610
35.20000 4.144
35.22000 -2.020
35.24000 0.967
35.26000 4.518
35.28000 1.194
35.30000 -0.614
35.32000 -0.930
35.34000 -2.166
35.36000 0.226
35.38000 0.544
35.40000 -3.228
35.42000 0.040
35.44000 3.412
35.46000 0.603
35.48000 -1.077
35.50000 0.240
35.52000 -0.975
35.54000 0.557
35.56000 2.419
35.58000 4.316
35.60000 7.667
35.62000 4.033
35.64000 -3.476
35.66000 0.285
35.68000 -0.576
35.70000 0.490
35.72000 3.470
35.74000 3.052
35.76000 0.475
35.78000 2.552
35.80000 -0.204
35.82000 1.840
35.84000 1.268
35.86000 1.760
35.88000 -0.776
35.90000 -1.752
35.92000 3.062
35.94000 -2.776
35.96000 1.894
35.98000 3.812
36.00000 3.720
36.02000 -0.310
36.04000 -2.748
36.06000 -1.564
36.08000 -2.425
36.10000 1.953
36.12000 6.961
36.14000 3.554
36.16000 2.328
36.18000 -2.117
36.20000 0.183
36.22000 2.004
36.24000 2.024
36.26000 6.558
36.28000 3.778
36.30000 -1.788
36.32000 1.955
36.34000 6.780
36.36000 5.407
36.38000 2.019
36.40000 -1.275
36.42000 -1.535
36.44000 0.252
36.46000 1.293
36.48000 1.570
36.50000 8.909
36.52000 9.492
36.54000 5.136
36.56000 3.724
36.58000 1.675
36.60000 1.418
36.62000 1.453
36.64000 -3.486
36.66000 -2.911
36.68000 0.414
36.70000 4.376
36.72000 3.160
36.74000 -0.842
36.76000 -1.805
36.78000 0.864
36.80000 -1.597
36.82000 -0.699
36.84000 0.726
36.86000 1.611
36.88000 1.257
36.90000 1.140
36.92000 4.175
36.94000 0.148
36.96000 -3.504
36.98000 0.061
37.00000 4.143
37.02000 6.103
37.04000 4.682
37.06000 11.629
37.08000 6.156
37.10000 2.316
37.12000 0.813
37.14000 1.447
37.16000 2.963
37.18000 -1.853
37.20000 -3.209
37.22000 1.645
37.24000 1.257
37.26000 -1.589
37.28000 -1.304
37.30000 -0.414
37.32000 -3.394
37.34000 -2.866
37.36000 2.154
37.38000 -0.050
37.40000 2.323
37.42000 4.124
37.44000 0.260
37.46000 -3.099
37.48000 -2.114
37.50000 -2.304
37.52000 -2.042
37.54000 1.531
37.56000 -0.022
37.58000 1.795
37.60000 2.553
37.62000 2.018
37.64000 -0.247
37.66000 -1.344
37.68000 -1.539
37.70000 -3.574
37.72000 4.942
37.74000 2.206
37.76000 2.524
37.78000 0.514
37.80000 -0.495
37.82000 0.442
37.84000 4.054
37.86000 1.584
37.88000 4.066
37.90000 2.798
37.92000 7.713
37.94000 6.067
37.96000 9.731
37.98000 6.790
38.00000 5.368
38.02000 3.520
38.04000 3.324
38.06000 0.515
38.08000 3.433
38.10000 3.443
38.12000 5.837
38.14000 11.027
38.16000 10.102
38.18000 11.294
38.20000 9.650
38.22000 11.081
38.24000 7.589
38.26000 7.548
38.28000 12.823
38.30000 10.727
38.32000 11.930
38.34000 12.078
38.36000 9.795
38.38000 10.903
38.40000 11.650
38.42000 11.318
38.44000 13.731
38.46000 11.411
38.48000 8.318
38.50000 8.295
38.52000 8.800
38.54000 15.146
38.56000 13.439
38.58000 10.773
38.60000 14.073
38.62000 18.343
38.64000 16.094
38.66000 14.606
38.68000 12.701
38.70000 13.362
38.72000 16.127
38.74000 17.069
38.76000 20.151
38.78000 18.851
38.80000 19.009
38.82000 16.735
38.84000 14.124
38.86000 16.890
38.88000 17.888
38.90000 19.730
38.92000 21.348
38.94000 24.742
38.96000 28.726
38.98000 29.128
39.00000 27.312
39.02000 25.470
39.04000 25.882
39.06000 31.678
39.08000 34.077
39.10000 32.528
39.12000 28.504
39.14000 31.397
39.16000 36.211
39.18000 34.991
39.20000 39.775
39.22000 47.222
39.24000 48.403
39.26000 48.069
39.28000 50.678
39.30000 49.867
39.32000 47.391
39.34000 56.432
39.36000 55.699
39.38000 56.825
39.40000 62.825
39.42000 60.336
39.44000 62.989
39.46000 67.625
39.48000 64.180
39.50000 66.227
39.52000 69.425
39.54000 81.765
39.56000 89.321
39.58000 84.011
39.60000 84.489
39.62000 84.399
39.64000 96.936
39.66000 105.309
39.68000 108.364
39.70000 111.475
39.72000 114.703
39.74000 120.716
39.76000 128.786
39.78000 137.376
39.80000 149.772
39.82000 152.208
39.84000 160.268
39.86000 167.290
39.88000 182.848
39.90000 187.567
39.92000 196.955
39.94000 211.621
39.96000 217.318
39.98000 232.408
40.00000 238.803
40.02000 256.625
40.04000 262.520
40.06000 277.822
40.08000 297.956
40.10000 313.240
40.12000 325.664
40.14000 336.599
40.16000 351.601
40.18000 370.504
40.20000 391.691
40.22000 406.201
40.24000 419.826
40.26000 440.125
40.28000 450.162
40.30000 458.817
40.32000 477.105
40.34000 494.677
40.36000 515.140
40.38000 524.467
40.40000 542.310
40.42000 554.645
40.44000 570.174
40.46000 580.339
40.48000 576.838
40.50000 580.104
40.52000 588.308
40.54000 586.341
40.56000 578.862
40.58000 583.846
40.60000 587.737
40.62000 578.371
40.64000 568.415
40.66000 561.589
40.68000 540.159
40.70000 529.586
40.72000 520.862
40.74000 507.530
40.76000 502.205
40.78000 497.434
40.80000 476.704
40.82000 451.139
40.84000 434.890
40.86000 421.492
40.88000 398.951
40.90000 388.319
40.92000 377.648
40.94000 357.008
40.96000 339.201
40.98000 323.773
41.00000 310.931
41.02000 288.095
41.04000 277.414
41.06000 265.700
41.08000 255.909
41.10000 236.720
41.12000 219.775
41.14000 208.850
41.16000 200.790
41.18000 189.445
41.20000 179.195
41.22000 173.881
41.24000 162.706
41.26000 151.951
41.28000 146.004
41.30000 144.479
41.32000 135.003
41.34000 122.272
41.36000 120.051
41.38000 110.029
41.40000 107.327
41.42000 96.586
41.44000 88.405
41.46000 86.479
41.48000 85.538
41.50000 78.348
41.52000 72.245
41.54000 71.580
41.56000 72.487
41.58000 66.636
41.60000 65.187
41.62000 60.153
41.64000 55.186
41.66000 49.718
41.68000 44.935
41.70000 42.923
41.72000 43.204
41.74000 38.184
41.76000 42.145
41.78000 41.341
41.80000 35.375
41.82000 35.262
41.84000 32.621
41.86000 27.930
41.88000 28.357
41.90000 32.754
41.92000 29.713
41.94000 28.829
41.96000 25.950
41.98000 25.808
42.00000 28.959
42.02000 24.901
42.04000 19.866
42.06000 18.306
42.08000 19.895
42.10000 16.585
42.12000 16.227
42.14000 15.829
42.16000 13.977
42.18000 11.916
42.20000 12.308
42.22000 12.589
42.24000 14.783
42.26000 14.578
42.28000 17.144
42.30000 16.129
42.32000 13.467
42.34000 11.580
42.36000 9.810
42.38000 11.102
42.40000 10.779
42.42000 8.490
42.44000 7.285
42.46000 4.867
42.48000 9.632
42.50000 7.846
42.52000 6.367
42.54000 3.295
42.56000 2.866
42.58000 8.406
42.60000 7.454
42.62000 6.714
42.64000 7.930
42.66000 7.497
42.68000 3.634
42.70000 1.829
42.72000 2.358
42.74000 2.020
42.76000 4.930
42.78000 3.308
42.80000 1.591
42.82000 -1.166
42.84000 -3.555
42.86000 3.029
42.88000 2.003
42.90000 -0.174
42.92000 -1.362
42.94000 1.632
42.96000 -0.190
42.98000 -1.508
43.00000 -2.501
43.02000 -3.538
43.04000 -2.032
43.06000 -0.574
43.08000 -1.991
43.10000 -0.814
43.12000 -0.814
43.14000 -0.429
43.16000 2.356
43.18000 3.763
43.20000 0.272
43.22000 0.247
43.24000 2.007
43.26000 0.057
43.28000 0.269
43.30000 4.927
43.32000 2.964
43.34000 1.847
43.36000 3.027
43.38000 -2.184
43.40000 1.317
43.42000 0.525
43.44000 1.062
43.46000 -0.712
43.48000 -2.163
43.50000 0.180
43.52000 0.455
43.54000 0.988
43.56000 -3.479
43.58000 -3.118
43.60000 -1.231
43.62000 -2.462
43.64000 -2.927
43.66000 -0.995
43.68000 1.617
43.70000 5.802
43.72000 0.318
43.74000 -3.425
43.76000 1.513
43.78000 3.407
43.80000 1.799
43.82000 2.674
43.84000 1.972
43.86000 3.312
43.88000 2.333
43.90000 2.363
43.92000 0.423
43.94000 2.399
43.96000 2.037
43.98000 6.949
44.00000 8.983
44.02000 10.347
44.04000 2.709
44.06000 1.103
44.08000 2.540
44.10000 2.436
44.12000 -0.398
44.14000 2.757
44.16000 0.333
44.18000 1.452
44.20000 1.453
44.22000 3.332
44.24000 1.067
44.26000 -3.399
44.28000 0.970
44.30000 1.337
44.32000 6.121
44.34000 4.617
44.36000 -0.199
44.38000 1.761
44.40000 3.453
44.42000 4.698
44.44000 0.309
44.46000 -3.021
44.48000 -1.723
44.50000 2.937
44.52000 4.756
44.54000 2.431
44.56000 -1.010
44.58000 -1.229
44.60000 1.258
44.62000 -0.414
44.64000 -1.159
44.66000 2.121
44.68000 0.719
44.70000 -1.033
44.72000 -2.336
44.74000 0.988
44.76000 7.742
44.78000 0.588
44.80000 -1.652
44.82000 0.722
44.84000 5.263
44.86000 -0.663
44.88000 -2.506
44.90000 2.579
44.92000 6.064
44.94000 2.713
44.96000 -0.406
44.98000 1.568
45.00000 2.026
45.02000 -0.106
45.04000 -1.531
45.06000 3.484
45.08000 10.440
45.10000 10.129
45.12000 6.306
45.14000 -1.900
45.16000 6.267
45.18000 7.825
45.20000 6.685
45.22000 4.995
45.24000 2.327
45.26000 1.560
45.28000 10.179
45.30000 4.601
45.32000 2.978
45.34000 3.665
45.36000 5.038
45.38000 -1.364
45.40000 0.284
45.42000 0.841
45.44000 -1.146
45.46000 4.635
45.48000 5.439
45.50000 7.436
45.52000 8.657
45.54000 6.209
45.56000 7.120
45.58000 13.713
45.60000 8.014
45.62000 6.594
45.64000 5.289
45.66000 8.062
45.68000 5.926
45.70000 6.970
45.72000 9.770
45.74000 5.651
45.76000 9.056
45.78000 13.110
45.80000 14.317
45.82000 16.612
45.84000 18.959
45.86000 12.550
45.88000 18.106
45.90000 18.341
45.92000 16.591
45.94000 14.518
45.96000 20.318
45.98000 18.570
46.00000 13.804
46.02000 19.142
46.04000 22.162
46.06000 23.713
46.08000 20.841
46.10000 20.261
46.12000 24.549
46.14000 25.359
46.16000 25.334
46.18000 28.643
46.20000 29.047
46.22000 34.600
46.24000 29.237
46.26000 31.911
46.28000 38.305
46.30000 40.315
46.32000 46.109
46.34000 43.771
46.36000 41.636
46.38000 44.435
46.40000 42.275
46.42000 39.893
46.44000 34.433
46.46000 40.525
46.48000 47.246
46.50000 47.344
46.52000 47.577
46.54000 44.799
46.56000 45.763
46.58000 50.942
46.60000 54.761
46.62000 59.339
46.64000 60.897
46.66000 59.190
46.68000 59.258
46.70000 61.554
46.72000 64.810
46.74000 68.433
46.76000 73.724
46.78000 79.889
46.80000 75.856
46.82000 67.258
46.84000 70.242
46.86000 76.749
46.88000 83.504
46.90000 76.056
46.92000 76.522
46.94000 82.066
46.96000 81.320
46.98000 77.367
47.00000 81.901
47.02000 81.892
47.04000 85.668
47.06000 86.375
47.08000 80.893
47.10000 74.381
47.12000 77.113
47.14000 79.620
47.16000 82.750
47.18000 84.278
47.20000 80.769
47.22000 81.268
47.24000 82.239
47.26000 83.499
47.28000 84.772
47.30000 78.541
47.32000 78.045
47.34000 80.937
47.36000 80.178
47.38000 83.364
47.40000 80.777
47.42000 76.705
47.44000 74.332
47.46000 70.614
47.48000 64.167
47.50000 61.429
47.52000 64.054
47.54000 63.056
47.56000 67.849
47.58000 64.105
47.60000 65.033
47.62000 60.492
47.64000 62.329
47.66000 55.319
47.68000 55.266
47.70000 51.590
47.72000 48.514
47.74000 48.768
47.76000 48.142
47.78000 43.539
47.80000 38.698
47.82000 38.918
47.84000 42.250
47.86000 39.601
47.88000 31.556
47.90000 31.039
47.92000 29.665
47.94000 33.398
47.96000 33.769
47.98000 24.210
48.00000 26.790
48.02000 29.687
48.04000 26.883
48.06000 23.224
48.08000 23.649
48.10000 21.431
48.12000 24.554
48.14000 17.417
48.16000 17.331
48.18000 19.416
48.20000 12.794
48.22000 15.789
48.24000 16.410
48.26000 15.497
48.28000 20.114
48.30000 18.325
48.32000 10.263
48.34000 10.660
48.36000 10.820
48.38000 7.634
48.40000 6.824
48.42000 9.792
48.44000 11.069
48.46000 6.829
48.48000 5.994
48.50000 2.503
48.52000 0.722
48.54000 1.614
48.56000 0.038
48.58000 5.714
48.60000 9.189
48.62000 7.029
48.64000 1.967
48.66000 0.772
48.68000 1.645
48.70000 10.781
48.72000 6.917
48.74000 4.151
48.76000 6.889
48.78000 4.333
48.80000 6.453
48.82000 3.587
48.84000 1.856
48.86000 3.482
48.88000 2.242
48.90000 5.479
48.92000 5.804
48.94000 6.944
48.96000 3.092
48.98000 4.157
49.00000 -0.652
49.02000 1.220
49.04000 4.340
49.06000 4.613
49.08000 -0.095
49.10000 2.833
49.12000 2.835
49.14000 3.987
49.16000 1.411
49.18000 -3.039
49.20000 2.521
49.22000 4.273
49.24000 2.656
49.26000 0.768
49.28000 1.709
49.30000 2.466
49.32000 1.585
49.34000 9.018
49.36000 2.187
49.38000 3.007
49.40000 5.162
49.42000 6.158
49.44000 6.398
49.46000 2.793
49.48000 4.066
49.50000 8.237
49.52000 3.258
49.54000 -1.036
49.56000 3.996
49.58000 0.822
49.60000 1.284
49.62000 3.803
49.64000 1.475
49.66000 1.799
49.68000 4.151
49.70000 3.038
49.72000 -1.670
49.74000 -1.896
49.76000 6.789
49.78000 10.375
49.80000 5.100
49.82000 -0.578
49.84000 -0.925
49.86000 2.367
49.88000 9.856
49.90000 12.939
49.92000 7.407
49.94000 5.731
49.96000 3.287
49.98000 -2.856
50.00000 2.606
50.02000 6.372
50.04000 10.065
50.06000 7.456
50.08000 7.975
50.10000 9.933
50.12000 10.820
50.14000 6.573
50.16000 3.972
50.18000 5.576
50.20000 7.356
50.22000 9.901
50.24000 5.426
50.26000 8.780
50.28000 7.282
50.30000 6.307
50.32000 3.335
50.34000 4.163
50.36000 6.594
50.38000 7.477
50.40000 3.333
50.42000 2.145
50.44000 6.153
50.46000 11.398
50.48000 11.229
50.50000 5.988
50.52000 8.632
50.54000 3.416
50.56000 3.357
50.58000 4.277
50.60000 3.460
50.62000 7.747
50.64000 9.200
50.66000 2.666
50.68000 4.334
50.70000 5.404
50.72000 6.458
50.74000 10.199
50.76000 10.879
50.78000 6.071
50.80000 4.975
50.82000 -2.795
50.84000 -0.753
50.86000 5.602
50.88000 9.106
50.90000 6.548
50.92000 3.480
50.94000 2.544
50.96000 1.510
50.98000 3.829
51.00000 7.043
51.02000 6.652
51.04000 8.031
51.06000 3.670
51.08000 2.636
51.10000 6.648
51.12000 12.290
51.14000 11.352
51.16000 11.249
51.18000 6.499
51.20000 6.249
51.22000 6.574
51.24000 11.975
51.26000 13.122
51.28000 7.228
51.30000 10.323
51.32000 6.023
51.34000 8.999
51.36000 8.314
51.38000 3.307
51.40000 3.240
51.42000 5.578
51.44000 7.708
51.46000 9.222
51.48000 10.253
51.50000 11.824
51.52000 5.957
51.54000 3.838
51.56000 5.217
51.58000 5.100
51.60000 5.038
51.62000 7.650
51.64000 10.382
51.66000 9.391
51.68000 5.737
51.70000 5.933
51.72000 6.860
51.74000 8.229
51.76000 4.982
51.78000 6.949
51.80000 6.051
51.82000 5.360
51.84000 4.103
51.86000 5.113
51.88000 2.839
51.90000 4.377
51.92000 7.170
51.94000 6.354
51.96000 3.689
51.98000 1.477
52.00000 3.643
52.02000 8.714
52.04000 2.641
52.06000 -2.760
52.08000 4.741
52.10000 3.012
52.12000 4.503
52.14000 11.070
52.16000 7.473
52.18000 6.377
52.20000 5.813
52.22000 5.789
52.24000 5.353
52.26000 3.150
52.28000 1.912
52.30000 -0.207
52.32000 2.932
52.34000 5.441
52.36000 4.420
52.38000 8.405
52.40000 5.852
52.42000 4.345
52.44000 1.716
52.46000 4.790
52.48000 2.632
52.50000 3.792
52.52000 4.610
52.54000 2.218
52.56000 3.132
52.58000 4.874
52.60000 3.654
52.62000 3.684
52.64000 8.689
52.66000 8.113
52.68000 7.347
52.70000 5.471
52.72000 2.171
52.74000 6.498
52.76000 6.002
52.78000 5.187
52.80000 0.821
52.82000 3.404
52.84000 1.565
52.86000 7.308
52.88000 6.921
52.90000 4.154
52.92000 4.909
52.94000 7.774
52.96000 2.505
52.98000 1.203
53.00000 6.134
53.02000 4.255
53.04000 3.895
53.06000 5.018
53.08000 10.670
53.10000 7.910
53.12000 2.998
53.14000 0.866
53.16000 4.121
53.18000 3.770
53.20000 2.503
53.22000 -2.309
53.24000 -0.401
53.26000 0.873
53.28000 6.637
53.30000 3.513
53.32000 5.074
53.34000 3.672
53.36000 2.051
53.38000 3.624
53.40000 3.225
53.42000 -2.754
53.44000 -1.330
53.46000 1.353
53.48000 0.704
53.50000 1.129
53.52000 0.570
53.54000 7.783
53.56000 5.169
53.58000 5.457
53.60000 3.854
53.62000 1.145
53.64000 0.514
53.66000 0.668
53.68000 2.049
53.70000 1.929
53.72000 0.851
53.74000 6.137
53.76000 5.751
53.78000 2.734
53.80000 3.600
53.82000 4.381
53.84000 5.530
53.86000 -0.424
53.88000 2.854
53.90000 3.449
53.92000 3.811
53.94000 1.361
53.96000 -2.752
53.98000 1.791
54.00000 5.804
54.02000 4.839
54.04000 3.556
54.06000 6.538
54.08000 2.822
54.10000 1.899
54.12000 5.258
54.14000 3.760
54.16000 4.295
54.18000 2.241
54.20000 1.401
54.22000 4.404
54.24000 5.288
54.26000 6.772
54.28000 5.162
54.30000 7.461
54.32000 2.380
54.34000 2.827
54.36000 6.090
54.38000 7.229
54.40000 3.842
54.42000 0.266
54.44000 -0.202
54.46000 4.838
54.48000 4.537
54.50000 1.200
54.52000 2.951
54.54000 1.277
54.56000 3.273
54.58000 5.350
54.60000 -1.712
54.62000 -1.884
54.64000 -1.958
54.66000 -2.751
54.68000 -1.090
54.70000 2.125
54.72000 1.186
54.74000 1.234
54.76000 0.527
54.78000 -0.949
54.80000 -0.512
54.82000 3.485
54.84000 -0.686
54.86000 -1.446
54.88000 3.508
54.90000 0.266
54.92000 1.635
54.94000 3.588
54.96000 4.899
54.98000 0.401
55.00000 -2.582
55.02000 1.790
55.04000 4.195
55.06000 2.376
55.08000 -0.557
55.10000 0.868
55.12000 3.161
55.14000 -1.148
55.16000 1.430
55.18000 3.827
55.20000 3.039
55.22000 2.192
55.24000 0.330
55.26000 1.555
55.28000 2.200
55.30000 3.372
55.32000 1.099
55.34000 3.132
55.36000 6.669
55.38000 1.406
55.40000 -0.576
55.42000 5.280
55.44000 0.687
55.46000 4.436
55.48000 3.716
55.50000 0.800
55.52000 -2.642
55.54000 -1.384
55.56000 1.095
55.58000 1.328
55.60000 -0.936
55.62000 0.871
55.64000 2.755
55.66000 2.852
55.68000 3.133
55.70000 4.517
55.72000 3.488
55.74000 -0.041
55.76000 1.638
55.78000 1.303
55.80000 -0.572
55.82000 4.089
55.84000 2.397
55.86000 1.235
55.88000 -1.731
55.90000 1.296
55.92000 0.587
55.94000 3.854
55.96000 -0.305
55.98000 5.732
56.00000 5.905
56.02000 6.587
56.04000 4.569
56.06000 5.478
56.08000 1.957
56.10000 -2.691
56.12000 2.197
56.14000 1.711
56.16000 -0.951
56.18000 0.297
56.20000 4.189
56.22000 5.249
56.24000 2.229
56.26000 4.829
56.28000 8.131
56.30000 6.054
56.32000 4.099
56.34000 0.579
56.36000 2.961
56.38000 2.908
56.40000 0.998
56.42000 0.107
56.44000 4.829
56.46000 3.353
56.48000 -1.606
56.50000 0.383
56.52000 3.542
56.54000 3.243
56.56000 0.880
56.58000 3.536
56.60000 6.539
56.62000 0.647
56.64000 1.233
56.66000 2.739
56.68000 1.805
56.70000 1.179
56.72000 -1.060
56.74000 1.839
56.76000 1.291
56.78000 0.910
56.80000 1.691
56.82000 5.068
56.84000 4.380
56.86000 2.096
56.88000 -0.501
56.90000 0.587
56.92000 2.120
56.94000 1.482
56.96000 4.070
56.98000 -0.751
57.00000 -1.378
57.02000 -1.729
57.04000 1.696
57.06000 3.168
57.08000 4.681
57.10000 5.026
57.12000 3.009
57.14000 0.206
57.16000 0.175
57.18000 5.628
57.20000 4.475
57.22000 4.335
57.24000 3.776
57.26000 2.069
57.28000 0.823
57.30000 2.339
57.32000 -1.934
57.34000 3.292
57.36000 6.776
57.38000 8.260
57.40000 2.383
57.42000 1.401
57.44000 1.073
57.46000 -0.404
57.48000 0.003
57.50000 -2.625
57.52000 -0.556
57.54000 0.127
57.56000 1.614
57.58000 3.724
57.60000 3.350
57.62000 4.492
57.64000 7.080
57.66000 7.496
57.68000 8.299
57.70000 4.312
57.72000 5.148
57.74000 7.103
57.76000 3.169
57.78000 1.083
57.80000 3.948
57.82000 5.379
57.84000 4.679
57.86000 1.549
57.88000 3.078
57.90000 0.969
57.92000 -0.406
57.94000 1.723
57.96000 3.171
57.98000 6.107
58.00000 5.072
58.02000 2.414
58.04000 3.981
58.06000 5.560
58.08000 1.671
58.10000 0.428
58.12000 3.388
58.14000 2.493
58.16000 1.021
58.18000 7.886
58.20000 2.488
58.22000 0.857
58.24000 1.283
58.26000 1.169
58.28000 0.172
58.30000 2.688
58.32000 0.287
58.34000 2.021
58.36000 2.439
58.38000 4.479
58.40000 4.686
58.42000 2.465
58.44000 -0.718
58.46000 0.522
58.48000 1.158
58.50000 -2.605
58.52000 0.521
58.54000 -1.019
58.56000 0.682
58.58000 1.920
58.60000 6.508
58.62000 3.512
58.64000 3.455
58.66000 3.422
58.68000 2.062
58.70000 2.152
58.72000 8.094
58.74000 7.337
58.76000 6.714
58.78000 5.434
58.80000 1.279
58.82000 3.258
58.84000 4.930
58.86000 2.716
58.88000 1.398
58.90000 4.351
58.92000 8.215
58.94000 6.660
58.96000 3.138
58.98000 4.913
59.00000 6.117
59.02000 5.166
59.04000 2.442
59.06000 -1.616
59.08000 3.279
59.10000 5.177
59.12000 8.908
59.14000 8.407
59.16000 9.965
59.18000 3.260
59.20000 1.853
59.22000 3.514
59.24000 2.525
59.26000 0.052
59.28000 -2.555
59.30000 -0.667
59.32000 3.202
59.34000 4.611
59.36000 3.238
59.38000 1.025
59.40000 2.009
59.42000 3.971
59.44000 5.307
59.46000 7.294
59.48000 7.682
59.50000 -2.535
59.52000 -0.795
59.54000 6.253
59.56000 7.421
59.58000 6.882
59.60000 6.189
59.62000 8.929
59.64000 4.144
59.66000 1.485
59.68000 2.280
59.70000 5.543
59.72000 7.492
59.74000 7.252
59.76000 1.660
59.78000 1.758
59.80000 5.737
59.82000 7.134
59.84000 6.540
59.86000 4.511
59.88000 6.361
59.90000 6.265
59.92000 6.776
59.94000 5.463
59.96000 0.240
59.98000 -2.522
60.00000 3.398
60.02000 3.122
60.04000 3.872
60.06000 3.145
60.08000 7.472
60.10000 3.551
60.12000 1.774
60.14000 7.012
60.16000 7.624
60.18000 3.836
60.20000 3.912
60.22000 1.960
60.24000 6.012
60.26000 3.458
60.28000 3.137
60.30000 2.537
60.32000 -0.842
60.34000 1.737
60.36000 1.525
60.38000 2.044
60.40000 2.580
60.42000 7.449
60.44000 4.915
60.46000 4.099
60.48000 1.244
60.50000 3.655
60.52000 4.322
60.54000 4.539
60.56000 8.843
60.58000 11.330
60.60000 3.168
60.62000 4.276
60.64000 1.134
60.66000 2.175
60.68000 6.643
60.70000 4.979
60.72000 4.757
60.74000 5.628
60.76000 5.457
60.78000 5.821
60.80000 2.279
60.82000 2.493
60.84000 5.157
60.86000 3.178
60.88000 0.187
60.90000 0.085
60.92000 2.999
60.94000 2.763
60.96000 -1.381
60.98000 -1.555
61.00000 5.064
61.02000 6.148
61.04000 2.589
61.06000 2.480
61.08000 4.650
61.10000 2.785
61.12000 -2.518
61.14000 0.810
61.16000 4.981
61.18000 4.473
61.20000 2.594
61.22000 3.844
61.24000 0.950
61.26000 2.479
61.28000 0.049
61.30000 -1.750
61.32000 -0.084
61.34000 2.560
61.36000 0.594
61.38000 6.585
61.40000 9.491
61.42000 8.583
61.44000 5.657
61.46000 0.388
61.48000 -1.541
61.50000 0.720
61.52000 6.022
61.54000 8.467
61.56000 3.926
61.58000 2.611
61.60000 6.375
61.62000 5.438
61.64000 4.287
61.66000 2.856
61.68000 -0.620
61.70000 -1.381
61.72000 2.410
61.74000 3.078
61.76000 3.353
61.78000 3.575
61.80000 4.789
61.82000 1.572
61.84000 2.554
61.86000 6.667
61.88000 4.263
61.90000 4.217
61.92000 -0.193
61.94000 -1.632
61.96000 -1.140
61.98000 -2.497
62.00000 -0.406
62.02000 2.083
62.04000 6.905
62.06000 7.951
62.08000 6.536
62.10000 2.546
62.12000 1.901
62.14000 4.033
62.16000 4.781
62.18000 3.994
62.20000 -0.561
62.22000 -1.368
62.24000 1.931
62.26000 4.725
62.28000 5.614
62.30000 -0.127
62.32000 1.013
62.34000 3.588
62.36000 4.166
62.38000 2.720
62.40000 4.000
62.42000 0.847
62.44000 0.726
62.46000 2.307
62.48000 3.072
62.50000 3.582
62.52000 0.029
62.54000 -1.439
62.56000 0.637
62.58000 1.077
62.60000 0.473
62.62000 -1.060
62.64000 -1.291
62.66000 -2.517
62.68000 0.167
62.70000 1.979
62.72000 -0.893
62.74000 0.407
62.76000 -0.396
62.78000 1.806
62.80000 1.205
62.82000 4.013
62.84000 3.614
62.86000 0.655
62.88000 0.292
62.90000 1.509
62.92000 2.324
62.94000 -1.690
62.96000 -1.407
62.98000 0.149
63.00000 -1.274
63.02000 -0.203
63.04000 -2.082
63.06000 -2.376
63.08000 0.878
63.10000 -0.605
63.12000 0.182
63.14000 -1.284
63.16000 0.932
63.18000 2.025
63.20000 -0.320
63.22000 1.835
63.24000 -2.185
63.26000 -2.513
63.28000 3.835
63.30000 0.990
63.32000 2.270
63.34000 3.301
63.36000 1.929
63.38000 0.787
63.40000 2.619
63.42000 3.621
63.44000 2.178
63.46000 1.027
63.48000 -0.891
63.50000 -0.583
63.52000 -0.014
63.54000 3.078
63.56000 0.095
63.58000 1.504
63.60000 3.544
63.62000 2.608
63.64000 0.847
63.66000 5.202
63.68000 5.604
63.70000 5.865
63.72000 3.341
63.74000 -0.692
63.76000 -1.328
63.78000 0.407
63.80000 0.013
63.82000 2.382
63.84000 3.327
63.86000 0.623
63.88000 -1.549
63.90000 0.959
63.92000 1.255
63.94000 1.552
63.96000 -2.480
63.98000 -0.189
64.00000 4.353
64.02000 7.556
64.04000 3.625
64.06000 0.876
64.08000 0.315
64.10000 3.073
64.12000 5.791
64.14000 6.360
64.16000 6.495
64.18000 6.693
64.20000 4.421
64.22000 3.895
64.24000 0.898
64.26000 0.667
64.28000 2.516
64.30000 -0.049
64.32000 0.386
64.34000 -2.472
64.36000 0.749
64.38000 5.403
64.40000 5.968
64.42000 5.546
64.44000 6.909
64.46000 5.507
64.48000 3.107
64.50000 0.686
64.52000 4.468
64.54000 5.072
64.56000 6.605
64.58000 4.483
64.60000 2.873
64.62000 2.173
64.64000 0.729
64.66000 -0.779
64.68000 -1.973
64.70000 1.705
64.72000 2.313
64.74000 1.350
64.76000 3.993
64.78000 1.573
64.80000 0.051
64.82000 4.650
64.84000 4.876
64.86000 -1.918
64.88000 -0.443
64.90000 3.204
64.92000 1.732
64.94000 3.689
64.96000 2.942
64.98000 4.185
65.00000 6.087
65.02000 3.775
65.04000 1.719
65.06000 3.453
65.08000 4.439
65.10000 1.973
65.12000 3.404
65.14000 5.013
65.16000 2.638
65.18000 0.419
65.20000 1.371
65.22000 1.608
65.24000 -0.078
65.26000 -0.419
65.28000 -2.488
65.30000 1.447
65.32000 2.847
65.34000 2.242
65.36000 2.970
65.38000 1.169
65.40000 -0.083
65.42000 2.792
65.44000 2.749
65.46000 -0.787
65.48000 0.181
65.50000 2.293
65.52000 5.774
65.54000 5.314
65.56000 4.172
65.58000 1.125
65.60000 1.483
65.62000 2.108
65.64000 1.868
65.66000 0.653
65.68000 -0.017
65.70000 1.475
65.72000 0.829
65.74000 0.028
65.76000 5.272
65.78000 5.884
65.80000 5.663
65.82000 3.799
65.84000 2.300
65.86000 1.177
65.88000 3.552
65.90000 3.417
65.92000 1.622
65.94000 -0.216
65.96000 3.169
65.98000 -0.483
66.00000 -2.516
66.02000 4.074
66.04000 1.524
66.06000 1.308
66.08000 0.015
66.10000 -0.604
66.12000 1.866
66.14000 4.647
66.16000 3.925
66.18000 -1.266
66.20000 0.051
66.22000 2.264
66.24000 -2.523
66.26000 2.268
66.28000 2.397
66.30000 3.385
66.32000 3.634
66.34000 3.083
66.36000 1.575
66.38000 1.647
66.40000 -1.349
66.42000 1.379
66.44000 3.221
66.46000 -0.349
66.48000 0.945
66.50000 3.583
66.52000 1.965
66.54000 0.728
66.56000 1.742
66.58000 -0.896
66.60000 -1.801
66.62000 -0.505
66.64000 -0.681
66.66000 -1.009
66.68000 -1.115
66.70000 -0.118
66.72000 0.018
66.74000 1.680
66.76000 3.630
66.78000 3.494
66.80000 0.316
66.82000 0.334
66.84000 0.013
66.86000 -1.608
66.88000 -1.663
66.90000 2.232
66.92000 2.787
66.94000 1.637
66.96000 -0.860
66.98000 -1.721
67.00000 -0.381
67.02000 3.746
67.04000 1.870
67.06000 2.013
67.08000 5.030
67.10000 6.418
67.12000 -0.861
67.14000 -1.459
67.16000 -2.580
67.18000 2.030
67.20000 4.680
67.22000 -0.642
67.24000 1.314
67.26000 1.383
67.28000 -0.275
67.30000 0.582
67.32000 2.928
67.34000 -0.870
67.36000 0.582
67.38000 2.259
67.40000 -0.126
67.42000 1.557
67.44000 4.998
67.46000 6.868
67.48000 2.062
67.50000 2.690
67.52000 0.993
67.54000 1.506
67.56000 5.022
67.58000 4.277
67.60000 1.331
67.62000 5.743
67.64000 6.792
67.66000 3.836
67.68000 1.272
67.70000 2.612
67.72000 5.986
67.74000 3.503
67.76000 3.450
67.78000 0.570
67.80000 2.975
67.82000 2.758
67.84000 4.225
67.86000 6.213
67.88000 4.623
67.90000 6.108
67.92000 5.741
67.94000 6.865
67.96000 6.664
67.98000 4.095
68.00000 4.340
68.02000 10.054
68.04000 7.729
68.06000 6.986
68.08000 4.972
68.10000 7.383
68.12000 10.909
68.14000 13.288
68.16000 12.613
68.18000 12.256
68.20000 10.667
68.22000 12.356
68.24000 13.976
68.26000 14.158
68.28000 12.197
68.30000 12.395
68.32000 17.992
68.34000 15.307
68.36000 14.746
68.38000 17.225
68.40000 17.888
68.42000 16.413
68.44000 14.284
68.46000 16.194
68.48000 18.211
68.50000 17.796
68.52000 18.117
68.54000 20.654
68.56000 23.150
68.58000 17.731
68.60000 15.991
68.62000 17.619
68.64000 16.287
68.66000 15.874
68.68000 18.948
68.70000 22.941
68.72000 22.141
68.74000 25.327
68.76000 22.324
68.78000 22.871
68.80000 20.491
68.82000 14.493
68.84000 16.620
68.86000 19.580
68.88000 18.673
68.90000 17.131
68.92000 22.458
68.94000 18.923
68.96000 15.813
68.98000 18.034
69.00000 20.869
69.02000 23.341
69.04000 19.234
69.06000 18.920
69.08000 16.237
69.10000 14.792
69.12000 20.088
69.14000 23.355
69.16000 20.727
69.18000 21.752
69.20000 17.804
69.22000 12.699
69.24000 15.807
69.26000 18.809
69.28000 17.251
69.30000 13.786
69.32000 13.337
69.34000 17.904
69.36000 18.983
69.38000 13.901
69.40000 11.244
69.42000 8.950
69.44000 12.326
69.46000 11.429
69.48000 9.988
69.50000 7.976
69.52000 11.056
69.54000 8.963
69.56000 12.065
69.58000 10.522
69.60000 9.876
69.62000 9.885
69.64000 6.712
69.66000 3.847
69.68000 8.111
69.70000 3.841
69.72000 2.422
69.74000 3.333
69.76000 4.836
69.78000 5.085
69.80000 5.974
69.82000 11.319
69.84000 12.880
69.86000 9.251
69.88000 4.827
69.90000 5.257
69.92000 4.142
69.94000 2.819
69.96000 4.170
69.98000 9.088
70.00000 6.559
70.02000 2.602
70.04000 5.387
70.06000 7.664
70.08000 8.024
70.10000 1.697
70.12000 1.952
70.14000 3.992
70.16000 2.772
70.18000 2.304
70.20000 0.219
70.22000 -0.512
70.24000 0.872
70.26000 -1.211
70.28000 0.866
70.30000 0.206
70.32000 1.542
70.34000 2.059
70.36000 0.309
70.38000 0.942
70.40000 1.208
70.42000 -1.589
70.44000 0.045
70.46000 -2.469
70.48000 3.942
70.50000 6.854
70.52000 4.034
70.54000 1.590
70.56000 3.475
70.58000 3.045
70.60000 2.539
70.62000 2.882
70.64000 2.622
70.66000 -1.107
70.68000 -1.299
70.70000 -0.043
70.72000 -1.212
70.74000 -2.449
70.76000 1.544
70.78000 6.578
70.80000 2.595
70.82000 1.906
70.84000 0.481
70.86000 0.234
70.88000 0.158
70.90000 -0.214
70.92000 2.559
70.94000 2.187
70.96000 4.111
70.98000 4.570
71.00000 2.185
71.02000 1.244
71.04000 1.361
71.06000 3.030
71.08000 2.689
71.10000 4.018
71.12000 2.903
71.14000 3.731
71.16000 -1.122
71.18000 0.665
71.20000 5.946
71.22000 1.499
71.24000 1.803
71.26000 0.343
71.28000 4.227
71.30000 3.340
71.32000 3.766
71.34000 6.316
71.36000 -1.334
71.38000 -1.681
71.40000 -0.340
71.42000 -0.878
71.44000 2.446
71.46000 2.124
71.48000 -0.387
71.50000 1.639
71.52000 1.995
71.54000 3.737
71.56000 1.866
71.58000 -0.476
71.60000 2.128
71.62000 1.022
71.64000 3.562
71.66000 1.125
71.68000 1.493
71.70000 3.890
71.72000 0.270
71.74000 2.331
71.76000 4.012
71.78000 2.580
71.80000 -0.758
71.82000 4.414
71.84000 2.641
71.86000 -2.362
71.88000 -2.047
71.90000 -2.312
71.92000 -1.665
71.94000 2.108
71.96000 8.395
71.98000 10.955
72.00000 6.938
72.02000 7.096
72.04000 5.511
72.06000 -0.868
72.08000 -0.259
72.10000 -0.522
72.12000 3.036
72.14000 1.470
72.16000 5.876
72.18000 1.807
72.20000 -0.729
72.22000 1.245
72.24000 4.399
72.26000 1.619
72.28000 -0.007
72.30000 3.690
72.32000 2.236
72.34000 2.253
72.36000 2.145
72.38000 0.392
72.40000 4.758
72.42000 7.134
72.44000 5.178
72.46000 0.733
72.48000 2.309
72.50000 1.626
72.52000 4.478
72.54000 3.761
72.56000 6.893
72.58000 5.736
72.60000 3.270
72.62000 8.350
72.64000 4.920
72.66000 -0.212
72.68000 1.709
72.70000 1.563
72.72000 0.112
72.74000 2.975
72.76000 5.416
72.78000 3.604
72.80000 3.190
72.82000 1.093
72.84000 -2.306
72.86000 0.281
72.88000 4.937
72.90000 7.007
72.92000 5.497
72.94000 4.479
72.96000 5.429
72.98000 10.300
73.00000 3.599
73.02000 -1.290
73.04000 0.170
73.06000 3.604
73.08000 7.736
73.10000 7.936
73.12000 3.015
73.14000 3.988
73.16000 4.267
73.18000 5.001
73.20000 1.867
73.22000 3.094
73.24000 4.364
73.26000 4.961
73.28000 3.552
73.30000 3.195
73.32000 -1.810
73.34000 1.036
73.36000 3.489
73.38000 2.370
73.40000 3.096
73.42000 2.568
73.44000 5.735
73.46000 5.050
73.48000 1.504
73.50000 -0.781
73.52000 3.192
73.54000 7.773
73.56000 7.276
73.58000 2.398
73.60000 0.907
73.62000 1.064
73.64000 -1.015
73.66000 -1.583
73.68000 2.256
73.70000 3.587
73.72000 3.149
73.74000 4.529
73.76000 2.518
73.78000 4.597
73.80000 6.142
73.82000 6.702
73.84000 1.379
73.86000 3.184
73.88000 -0.643
73.90000 0.910
73.92000 1.519
73.94000 5.098
73.96000 4.226
73.98000 5.012
74.00000 3.270
74.02000 -0.114
74.04000 -2.278
74.06000 -0.164
74.08000 2.681
74.10000 7.646
74.12000 6.275
74.14000 7.734
74.16000 7.522
74.18000 2.111
74.20000 8.005
74.22000 8.004
74.24000 7.679
74.26000 8.937
74.28000 8.230
74.30000 9.677
74.32000 4.927
74.34000 4.339
74.36000 1.951
74.38000 4.364
74.40000 5.447
74.42000 7.484
74.44000 5.363
74.46000 3.477
74.48000 5.366
74.50000 1.732
74.52000 1.754
74.54000 4.606
74.56000 -0.501
74.58000 2.646
74.60000 2.904
74.62000 4.340
74.64000 3.417
74.66000 6.911
74.68000 7.715
74.70000 2.956
74.72000 1.876
74.74000 0.977
74.76000 0.011
74.78000 2.190
74.80000 3.911
74.82000 4.181
74.84000 1.685
74.86000 2.963
74.88000 2.383
74.90000 6.663
74.92000 3.325
74.94000 3.483
74.96000 2.500
74.98000 2.010
75.00000 2.996
75.02000 0.060
75.04000 0.078
75.06000 -0.687
75.08000 1.974
75.10000 2.146
75.12000 4.450
75.14000 4.973
75.16000 9.556
75.18000 9.805
75.20000 6.693
75.22000 4.447
75.24000 2.052
75.26000 0.999
75.28000 0.721
75.30000 3.854
75.32000 0.491
75.34000 2.839
75.36000 3.260
75.38000 5.942
75.40000 6.293
75.42000 9.921
75.44000 7.265
75.46000 9.132
75.48000 8.254
75.50000 2.711
75.52000 -1.580
75.54000 -2.301
75.56000 -2.239
75.58000 1.436
75.60000 0.508
75.62000 1.866
75.64000 5.098
75.66000 7.421
75.68000 8.245
75.70000 9.813
75.72000 4.247
75.74000 2.617
75.76000 0.530
75.78000 5.107
75.80000 3.679
75.82000 1.879
75.84000 1.553
75.86000 0.619
75.88000 2.595
75.90000 5.429
75.92000 7.224
75.94000 5.959
75.96000 10.021
75.98000 2.714
76.00000 -1.871
76.02000 -1.354
76.04000 -2.323
76.06000 1.209
76.08000 -0.775
76.10000 4.714
76.12000 4.974
76.14000 0.227
76.16000 2.018
76.18000 1.862
76.20000 -0.717
76.22000 -1.205
76.24000 -2.153
76.26000 3.002
76.28000 7.321
76.30000 3.205
76.32000 2.001
76.34000 3.057
76.36000 -0.475
76.38000 -0.797
76.40000 1.648
76.42000 -0.099
76.44000 3.586
76.46000 7.236
76.48000 5.180
76.50000 6.706
76.52000 1.528
76.54000 1.859
76.56000 -0.507
76.58000 1.922
76.60000 1.629
76.62000 2.994
76.64000 6.818
76.66000 4.334
76.68000 -1.216
76.70000 -2.231
76.72000 -1.279
76.74000 0.602
76.76000 -0.551
76.78000 4.732
76.80000 2.711
76.82000 -0.195
76.84000 1.593
76.86000 2.607
76.88000 -0.085
76.90000 2.907
76.92000 5.579
76.94000 5.467
76.96000 1.809
76.98000 -1.329
77.00000 -1.122
77.02000 4.381
77.04000 2.488
77.06000 -2.339
77.08000 -1.011
77.10000 -1.237
77.12000 1.392
77.14000 5.678
77.16000 2.320
77.18000 4.465
77.20000 3.782
77.22000 2.127
77.24000 4.198
77.26000 1.806
77.28000 -2.098
77.30000 3.459
77.32000 4.633
77.34000 -0.655
77.36000 -1.435
77.38000 -0.600
77.40000 1.981
77.42000 -0.158
77.44000 4.720
77.46000 8.325
77.48000 3.140
77.50000 3.021
77.52000 5.805
77.54000 3.553
77.56000 2.825
77.58000 2.257
77.60000 0.756
77.62000 -0.911
77.64000 1.598
77.66000 2.463
77.68000 1.438
77.70000 2.605
77.72000 6.041
77.74000 2.961
77.76000 3.309
77.78000 1.767
77.80000 -0.927
77.82000 0.512
77.84000 4.047
77.86000 3.132
77.88000 1.959
77.90000 4.190
77.92000 0.546
77.94000 2.032
77.96000 0.537
77.98000 2.370
78.00000 3.592
78.02000 1.945
78.04000 0.802
78.06000 0.799
78.08000 3.906
78.10000 3.832
78.12000 3.643
78.14000 4.246
78.16000 4.220
78.18000 4.494
78.20000 4.156
78.22000 3.710
78.24000 1.617
78.26000 1.990
78.28000 0.594
78.30000 0.766
78.32000 3.583
78.34000 3.087
78.36000 2.598
78.38000 1.490
78.40000 3.314
78.42000 3.104
78.44000 1.286
78.46000 -1.048
78.48000 1.856
78.50000 1.587
78.52000 3.383
78.54000 3.924
78.56000 4.235
78.58000 2.359
78.60000 0.835
78.62000 6.067
78.64000 7.868
78.66000 5.435
78.68000 5.093
78.70000 5.188
78.72000 2.544
78.74000 -0.716
78.76000 -2.053
78.78000 -0.781
78.80000 4.167
78.82000 2.406
78.84000 2.039
78.86000 2.653
78.88000 3.159
78.90000 6.921
78.92000 7.429
78.94000 8.385
78.96000 6.165
78.98000 6.128
79.00000 2.025
79.02000 1.147
79.04000 2.699
79.06000 7.025
79.08000 8.629
79.10000 6.439
79.12000 2.748
79.14000 0.873
79.16000 1.853
79.18000 3.886
79.20000 3.341
79.22000 2.435
79.24000 3.964
79.26000 3.712
79.28000 3.110
79.30000 3.230
79.32000 1.381
79.34000 1.629
79.36000 -2.336
79.38000 -2.172
79.40000 2.314
79.42000 2.226
79.44000 2.493
79.46000 5.083
79.48000 4.276
79.50000 2.288
79.52000 8.168
79.54000 5.679
79.56000 5.064
79.58000 3.795
79.60000 3.289
79.62000 0.971
79.64000 0.953
79.66000 -1.504
79.68000 0.255
79.70000 3.147
79.72000 1.934
79.74000 3.908
79.76000 3.093
79.78000 -1.826
79.80000 2.027
79.82000 4.780
79.84000 2.462
79.86000 2.594
79.88000 5.153
79.90000 11.658
79.92000 3.369
79.94000 3.581
79.96000 4.499
79.98000 6.106
80.00000 5.280
80.02000 5.099
80.04000 6.360
80.06000 7.362
80.08000 1.944
80.10000 -0.433
80.12000 2.967
80.14000 0.730
80.16000 9.070
80.18000 7.805
80.20000 1.834
80.22000 -0.644
80.24000 0.236
80.26000 3.078
80.28000 3.781
80.30000 2.439
80.32000 4.337
80.34000 5.443
80.36000 4.836
80.38000 -0.959
80.40000 -2.392
80.42000 3.312
80.44000 4.119
80.46000 6.798
80.48000 5.383
80.50000 3.267
80.52000 0.449
80.54000 -0.116
80.56000 4.369
80.58000 1.991
80.60000 3.905
80.62000 1.492
80.64000 1.628
80.66000 -0.554
80.68000 0.631
80.70000 -0.365
80.72000 -1.702
80.74000 -1.667
80.76000 3.081
80.78000 5.963
80.80000 4.475
80.82000 1.986
80.84000 0.210
80.86000 -0.888
80.88000 2.864
80.90000 1.810
80.92000 3.763
80.94000 3.586
80.96000 1.719
80.98000 4.127
81.00000 0.928
81.02000 -0.314
81.04000 6.066
81.06000 3.355
81.08000 5.611
81.10000 3.670
81.12000 1.835
81.14000 6.705
81.16000 1.614
81.18000 -0.497
81.20000 4.396
81.22000 6.221
81.24000 2.845
81.26000 -0.597
81.28000 1.553
81.30000 -2.115
81.32000 -2.244
81.34000 -0.730
81.36000 2.651
81.38000 4.492
81.40000 0.341
81.42000 2.728
81.44000 0.756
81.46000 5.278
81.48000 5.947
81.50000 4.603
81.52000 3.667
81.54000 1.547
81.56000 5.111
81.58000 1.820
81.60000 2.929
81.62000 -0.374
81.64000 0.636
81.66000 4.168
81.68000 6.328
81.70000 6.905
81.72000 5.422
81.74000 2.051
81.76000 1.143
81.78000 1.819
81.80000 1.249
81.82000 6.084
81.84000 5.007
81.86000 8.119
81.88000 12.482
81.90000 8.174
81.92000 7.236
81.94000 5.857
81.96000 10.044
81.98000 11.800
82.00000 5.091
82.02000 2.326
82.04000 5.268
82.06000 7.305
82.08000 8.386
82.10000 16.245
82.12000 12.166
82.14000 9.073
82.16000 8.870
82.18000 7.102
82.20000 5.832
82.22000 11.460
82.24000 14.191
82.26000 13.589
82.28000 9.240
82.30000 10.167
82.32000 7.641
82.34000 8.094
82.36000 9.408
82.38000 10.432
82.40000 17.807
82.42000 14.836
82.44000 13.616
82.46000 16.497
82.48000 16.519
82.50000 16.861
82.52000 16.458
82.54000 14.417
82.56000 16.080
82.58000 15.831
82.60000 9.146
82.62000 13.823
82.64000 15.521
82.66000 18.084
82.68000 15.120
82.70000 18.780
82.72000 21.156
82.74000 21.910
82.76000 21.732
82.78000 21.737
82.80000 21.927
82.82000 20.721
82.84000 21.811
82.86000 24.329
82.88000 30.022
82.90000 28.204
82.92000 27.098
82.94000 30.206
82.96000 27.355
82.98000 27.063
83.00000 24.596
83.02000 21.554
83.04000 25.092
83.06000 21.752
83.08000 26.725
83.10000 24.308
83.12000 20.296
83.14000 27.125
83.16000 27.310
83.18000 25.065
83.20000 24.126
83.22000 23.219
83.24000 23.496
83.26000 32.265
83.28000 34.602
83.30000 27.111
83.32000 29.370
83.34000 29.148
83.36000 25.217
83.38000 25.262
83.40000 21.521
83.42000 14.558
83.44000 20.328
83.46000 18.394
83.48000 22.694
83.50000 25.781
83.52000 24.955
83.54000 21.777
83.56000 23.600
83.58000 19.504
83.60000 22.044
83.62000 20.367
83.64000 16.648
83.66000 21.726
83.68000 23.724
83.70000 17.124
83.72000 13.578
83.74000 17.227
83.76000 14.974
83.78000 16.734
83.80000 18.675
83.82000 20.732
83.84000 18.186
83.86000 12.201
83.88000 6.994
83.90000 11.879
83.92000 13.561
83.94000 18.581
83.96000 13.181
83.98000 14.412
84.00000 12.844
84.02000 11.015
84.04000 5.858
84.06000 9.669
84.08000 12.888
84.10000 12.193
84.12000 10.770
84.14000 7.820
84.16000 3.610
84.18000 5.380
84.20000 9.446
84.22000 7.502
84.24000 7.513
84.26000 7.324
84.28000 5.570
84.30000 7.092
84.32000 6.900
84.34000 4.917
84.36000 10.424
84.38000 9.220
84.40000 4.574
84.42000 0.366
84.44000 -1.012
84.46000 3.780
84.48000 5.815
84.50000 3.334
84.52000 4.439
84.54000 4.772
84.56000 6.526
84.58000 6.559
84.60000 8.363
84.62000 7.023
84.64000 4.385
84.66000 2.731
84.68000 2.637
84.70000 4.984
84.72000 1.204
84.74000 4.689
84.76000 0.866
84.78000 5.926
84.80000 4.627
84.82000 -0.962
84.84000 -2.474
84.86000 -1.673
84.88000 3.160
84.90000 3.559
84.92000 1.956
84.94000 6.231
84.96000 4.122
84.98000 -1.192
85.00000 -1.438
85.02000 -1.559
85.04000 1.040
85.06000 2.893
85.08000 3.647
85.10000 3.925
85.12000 1.024
85.14000 2.928
85.16000 2.322
85.18000 0.572
85.20000 -0.009
85.22000 -0.447
85.24000 5.973
85.26000 4.571
85.28000 4.148
85.30000 4.065
85.32000 11.300
85.34000 5.819
85.36000 -0.691
85.38000 -0.192
85.40000 6.200
85.42000 3.952
85.44000 0.469
85.46000 -2.377
85.48000 -1.162
85.50000 4.361
85.52000 2.306
85.54000 5.379
85.56000 8.743
85.58000 3.807
85.60000 2.445
85.62000 6.640
85.64000 3.889
85.66000 0.611
85.68000 1.865
85.70000 3.341
85.72000 4.816
85.74000 4.983
85.76000 5.637
85.78000 5.642
85.80000 5.552
85.82000 1.786
85.84000 1.273
85.86000 -0.738
85.88000 -0.639
85.90000 -0.688
85.92000 0.813
85.94000 -0.163
85.96000 0.378
85.98000 3.788
86.00000 5.720
86.02000 7.025
86.04000 4.386
86.06000 -0.565
86.08000 -2.418
86.10000 0.787
86.12000 3.053
86.14000 4.437
86.16000 3.502
86.18000 1.201
86.20000 2.809
86.22000 4.254
86.24000 2.181
86.26000 1.746
86.28000 2.090
86.30000 2.278
86.32000 1.742
86.34000 -1.603
86.36000 4.964
86.38000 3.124
86.40000 4.058
86.42000 6.837
86.44000 4.852
86.46000 1.859
86.48000 3.726
86.50000 4.560
86.52000 10.091
86.54000 5.918
86.56000 2.820
86.58000 1.955
86.60000 4.854
86.62000 7.870
86.64000 5.470
86.66000 7.893
86.68000 9.250
86.70000 2.791
86.72000 -0.461
86.74000 4.049
86.76000 6.948
86.78000 2.486
86.80000 1.410
86.82000 9.970
86.84000 6.573
86.86000 8.324
86.88000 9.003
86.90000 12.217
86.92000 16.778
86.94000 19.522
86.96000 16.314
86.98000 15.246
87.00000 16.024
87.02000 12.143
87.04000 14.722
87.06000 10.750
87.08000 13.356
87.10000 15.602
87.12000 17.396
87.14000 16.895
87.16000 17.023
87.18000 17.062
87.20000 22.479
87.22000 22.062
87.24000 18.762
87.26000 17.407
87.28000 26.023
87.30000 26.630
87.32000 27.612
87.34000 25.928
87.36000 28.291
87.38000 21.733
87.40000 16.719
87.42000 23.804
87.44000 25.943
87.46000 27.597
87.48000 27.647
87.50000 23.141
87.52000 23.222
87.54000 24.203
87.56000 22.222
87.58000 24.347
87.60000 25.933
87.62000 18.588
87.64000 16.371
87.66000 19.147
87.68000 23.314
87.70000 25.838
87.72000 21.399
87.74000 21.858
87.76000 25.082
87.78000 23.350
87.80000 19.904
87.82000 19.035
87.84000 20.434
87.86000 17.904
87.88000 15.892
87.90000 17.561
87.92000 17.076
87.94000 18.037
87.96000 20.315
87.98000 16.081
88.00000 16.434
88.02000 17.693
88.04000 17.393
88.06000 16.809
88.08000 15.423
88.10000 12.611
88.12000 14.121
88.14000 10.499
88.16000 8.863
88.18000 14.896
88.20000 15.365
88.22000 10.467
88.24000 7.251
88.26000 10.206
88.28000 11.274
88.30000 9.697
88.32000 12.086
88.34000 12.862
88.36000 8.144
88.38000 8.252
88.40000 7.952
88.42000 6.778
88.44000 5.330
88.46000 7.735
88.48000 9.170
88.50000 8.735
88.52000 6.422
88.54000 4.627
88.56000 1.592
88.58000 5.032
88.60000 6.320
88.62000 4.155
88.64000 3.917
88.66000 7.310
88.68000 6.245
88.70000 6.176
88.72000 5.290
88.74000 2.898
88.76000 -2.359
88.78000 4.785
88.80000 4.838
88.82000 2.332
88.84000 1.949
88.86000 1.836
88.88000 3.984
88.90000 4.515
88.92000 7.295
88.94000 2.866
88.96000 2.338
88.98000 0.452
89.00000 1.911
89.02000 -2.292
89.04000 -1.207
89.06000 6.668
89.08000 5.645
89.10000 4.148
89.12000 0.191
89.14000 0.696
89.16000 0.446
89.18000 -1.728
89.20000 1.252
89.22000 -1.513
89.24000 -1.613
89.26000 3.081
89.28000 2.260
89.30000 0.423
89.32000 0.495
89.34000 0.164
89.36000 -2.287
89.38000 -0.308
89.40000 0.260
89.42000 1.533
89.44000 -0.446
89.46000 0.125
89.48000 0.592
89.50000 0.991
89.52000 2.346
89.54000 -1.263
89.56000 -2.014
89.58000 1.110
89.60000 3.415
89.62000 5.186
89.64000 3.907
89.66000 1.089
89.68000 5.701
89.70000 1.357
89.72000 2.077
89.74000 4.850
89.76000 1.773
89.78000 -1.335
89.80000 2.096
89.82000 7.893
89.84000 5.680
89.86000 2.113
89.88000 2.794
89.90000 1.393
89.92000 -1.019
89.94000 0.302
89.96000 1.554
89.98000 0.462
90.00000 0.271
90.02000 0.417
90.04000 -0.418
90.06000 2.711
90.08000 3.342
90.10000 6.232
90.12000 3.807
90.14000 6.538
90.16000 6.268
90.18000 5.404
90.20000 1.805
90.22000 5.476
90.24000 -0.594
90.26000 0.044
90.28000 -2.198
90.30000 0.048
90.32000 2.528
90.34000 5.093
90.36000 6.097
90.38000 -2.193
90.40000 7.005
90.42000 7.815
90.44000 4.300
90.46000 2.089
90.48000 2.812
90.50000 5.985
90.52000 9.378
90.54000 4.240
90.56000 6.073
90.58000 8.337
90.60000 6.729
90.62000 8.719
90.64000 7.737
90.66000 7.452
90.68000 -2.140
90.70000 2.812
90.72000 5.309
90.74000 8.147
90.76000 6.126
90.78000 4.663
90.80000 4.232
90.82000 4.662
90.84000 5.172
90.86000 9.688
90.88000 5.857
90.90000 5.562
90.92000 7.395
90.94000 3.859
90.96000 4.565
90.98000 4.432
91.00000 2.552
91.02000 -1.472
91.04000 -0.194
91.06000 6.207
91.08000 4.475
91.10000 2.739
91.12000 5.067
91.14000 6.633
91.16000 10.978
91.18000 7.551
91.20000 2.618
91.22000 2.618
91.24000 1.763
91.26000 4.863
91.28000 8.003
91.30000 5.199
91.32000 10.180
91.34000 8.083
91.36000 7.346
91.38000 3.711
91.40000 3.154
91.42000 2.186
91.44000 1.599
91.46000 -2.164
91.48000 4.390
91.50000 6.892
91.52000 5.037
91.54000 1.960
91.56000 1.113
91.58000 6.400
91.60000 6.548
91.62000 5.067
91.64000 1.524
91.66000 1.743
91.68000 2.475
91.70000 4.103
91.72000 4.555
91.74000 2.191
91.76000 1.585
91.78000 5.420
91.80000 6.607
91.82000 5.791
91.84000 1.207
91.86000 6.814
91.88000 4.377
91.90000 4.713
91.92000 8.086
91.94000 2.175
91.96000 2.638
91.98000 5.142
92.00000 4.060
92.02000 8.129
92.04000 11.016
92.06000 9.327
92.08000 0.556
92.10000 -2.199
92.12000 4.411
92.14000 7.458
92.16000 8.155
92.18000 8.914
92.20000 5.593
92.22000 2.495
92.24000 3.147
92.26000 3.599
92.28000 2.760
92.30000 2.535
92.32000 2.216
92.34000 3.313
92.36000 4.214
92.38000 5.648
92.40000 9.314
92.42000 5.477
92.44000 8.155
92.46000 6.657
92.48000 0.833
92.50000 2.706
92.52000 3.808
92.54000 5.178
92.56000 11.367
92.58000 5.065
92.60000 -2.206
92.62000 0.830
92.64000 3.623
92.66000 6.590
92.68000 0.964
92.70000 2.447
92.72000 -1.531
92.74000 0.772
92.76000 2.577
92.78000 6.260
92.80000 5.485
92.82000 3.607
92.84000 6.063
92.86000 5.181
92.88000 3.016
92.90000 2.392
92.92000 0.661
92.94000 1.546
92.96000 0.946
92.98000 5.492
93.00000 2.138
93.02000 1.097
93.04000 7.797
93.06000 5.684
93.08000 6.057
93.10000 6.727
93.12000 6.521
93.14000 4.018
93.16000 0.085
93.18000 -2.206
93.20000 -0.778
93.22000 2.984
93.24000 3.303
93.26000 3.494
93.28000 6.661
93.30000 4.431
93.32000 1.780
93.34000 6.810
93.36000 6.403
93.38000 4.412
93.40000 2.895
93.42000 1.354
93.44000 1.382
93.46000 0.584
93.48000 2.113
93.50000 4.652
93.52000 2.792
93.54000 2.912
93.56000 1.570
93.58000 4.460
93.60000 3.456
93.62000 5.037
93.64000 6.857
93.66000 1.524
93.68000 -2.199
93.70000 -0.958
93.72000 2.487
93.74000 1.522
93.76000 3.898
93.78000 8.616
93.80000 9.504
93.82000 1.507
93.84000 1.414
93.86000 0.601
93.88000 1.974
93.90000 0.615
93.92000 4.968
93.94000 7.835
93.96000 6.563
93.98000 1.078
94.00000 1.356
94.02000 7.372
94.04000 2.888
94.06000 4.411
94.08000 5.384
94.10000 2.720
94.12000 -0.685
94.14000 4.833
94.16000 5.550
94.18000 4.387
94.20000 5.717
94.22000 4.555
94.24000 1.633
94.26000 -2.188
94.28000 4.295
94.30000 7.848
94.32000 6.825
94.34000 8.321
94.36000 7.414
94.38000 8.951
94.40000 6.999
94.42000 1.610
94.44000 3.022
94.46000 5.148
94.48000 6.169
94.50000 11.185
94.52000 9.990
94.54000 6.937
94.56000 4.209
94.58000 1.551
94.60000 -2.210
94.62000 0.636
94.64000 2.254
94.66000 6.555
94.68000 6.839
94.70000 5.991
94.72000 9.474
94.74000 7.723
94.76000 14.976
94.78000 5.896
94.80000 1.595
94.82000 -0.954
94.84000 6.235
94.86000 8.876
94.88000 3.270
94.90000 1.494
94.92000 2.651
94.94000 0.287
94.96000 -2.202
94.98000 -1.140
95.00000 9.215
95.02000 8.994
95.04000 3.347
95.06000 2.498
95.08000 5.505
95.10000 2.882
95.12000 0.849
95.14000 4.359
95.16000 7.266
95.18000 4.027
95.20000 4.880
95.22000 3.635
95.24000 3.280
95.26000 -1.459
95.28000 4.838
95.30000 7.034
95.32000 7.061
95.34000 5.197
95.36000 8.368
95.38000 6.140
95.40000 10.888
95.42000 4.082
95.44000 0.213
95.46000 2.247
95.48000 4.199
95.50000 6.809
95.52000 8.979
95.54000 4.078
95.56000 -1.349
95.58000 0.337
95.60000 5.508
95.62000 8.301
95.64000 7.920
95.66000 3.991
95.68000 1.540
95.70000 3.590
95.72000 2.054
95.74000 1.885
95.76000 0.695
95.78000 0.097
95.80000 5.984
95.82000 3.386
95.84000 1.685
95.86000 6.566
95.88000 8.606
95.90000 2.922
95.92000 5.229
95.94000 2.621
95.96000 4.646
95.98000 6.236
96.00000 4.448
96.02000 3.418
96.04000 6.236
96.06000 2.055
96.08000 2.484
96.10000 5.935
96.12000 4.804
96.14000 1.780
96.16000 6.950
96.18000 9.821
96.20000 10.667
96.22000 6.765
96.24000 3.536
96.26000 9.103
96.28000 5.245
96.30000 3.768
96.32000 4.438
96.34000 3.205
96.36000 9.326
96.38000 7.402
96.40000 2.756
96.42000 5.626
96.44000 7.948
96.46000 9.588
96.48000 5.436
96.50000 2.373
96.52000 0.200
96.54000 5.604
96.56000 5.801
96.58000 2.273
96.60000 3.249
96.62000 1.224
96.64000 2.925
96.66000 7.757
96.68000 7.320
96.70000 3.847
96.72000 4.825
96.74000 8.670
96.76000 6.520
96.78000 -0.234
96.80000 2.577
96.82000 1.825
96.84000 4.958
96.86000 2.775
96.88000 0.236
96.90000 7.573
96.92000 8.117
96.94000 6.617
96.96000 6.353
96.98000 0.469
97.00000 1.957
97.02000 4.016
97.04000 12.386
97.06000 11.901
97.08000 8.009
97.10000 6.605
97.12000 6.369
97.14000 -2.161
97.16000 -1.416
97.18000 1.165
97.20000 6.973
97.22000 10.172
97.24000 5.915
97.26000 5.707
97.28000 10.965
97.30000 13.320
97.32000 11.787
97.34000 10.700
97.36000 5.607
97.38000 8.728
97.40000 4.084
97.42000 11.256
97.44000 6.354
97.46000 1.500
97.48000 3.143
97.50000 6.094
97.52000 7.610
97.54000 5.984
97.56000 5.277
97.58000 11.134
97.60000 6.326
97.62000 1.122
97.64000 6.754
97.66000 6.019
97.68000 10.574
97.70000 14.940
97.72000 14.155
97.74000 10.220
97.76000 7.407
97.78000 3.216
97.80000 0.322
97.82000 0.433
97.84000 5.437
97.86000 8.168
97.88000 9.834
97.90000 12.137
97.92000 7.269
97.94000 7.225
97.96000 6.990
97.98000 3.870
98.00000 3.867
98.02000 10.177
98.04000 10.450
98.06000 3.567
98.08000 -0.104
98.10000 -2.148
98.12000 0.708
98.14000 3.339
98.16000 5.107
98.18000 2.599
98.20000 6.633
98.22000 6.922
98.24000 -1.785
98.26000 6.735
98.28000 5.081
98.30000 5.622
98.32000 0.978
98.34000 4.030
98.36000 12.805
98.38000 16.369
98.40000 17.019
98.42000 1.599
98.44000 3.392
98.46000 10.404
98.48000 7.655
98.50000 5.696
98.52000 5.057
98.54000 9.282
98.56000 9.756
98.58000 8.760
98.60000 12.135
98.62000 7.171
98.64000 -1.966
98.66000 6.790
98.68000 9.615
98.70000 8.656
98.72000 9.720
98.74000 13.966
98.76000 9.331
98.78000 6.695
98.80000 -4.002
98.82000 4.084
98.84000 8.699
98.86000 10.498
98.88000 15.170
98.90000 9.466
98.92000 3.733
98.94000 2.892
98.96000 10.295
98.98000 15.088
99.00000 7.270
99.02000 11.958
99.04000 14.372
99.06000 11.492
99.08000 13.276
99.10000 6.203
99.12000 5.813
99.14000 0.290
99.16000 3.865
99.18000 7.167
99.20000 8.047
99.22000 5.552
99.24000 7.339
99.26000 2.054
99.28000 -1.341
99.30000 3.832
99.32000 5.608
99.34000 11.648
99.36000 8.085
99.38000 7.035
99.40000 3.560
99.42000 -0.192
99.44000 4.658
99.46000 3.630
99.48000 7.997
99.50000 11.864
99.52000 9.217
99.54000 0.504
99.56000 4.603
99.58000 10.599
99.60000 5.061
99.62000 4.972
99.64000 7.649
99.66000 2.730
99.68000 1.166
99.70000 -0.437
99.72000 8.550
99.74000 12.380
99.76000 0.172
99.78000 -2.148
99.80000 3.943
99.82000 6.264
99.84000 13.025
99.86000 16.538
99.88000 8.559
99.90000 -0.643
99.92000 -2.226
99.94000 4.849
99.96000 1.865
99.98000 0.000
