'Id: "0011389" Comment: "Integrate frame 0011389_Au-Ir-Rh_Au-Rich_XRD_Mapping-069-0000.gfrmwith cursor Wedge Cursor #5" Operator: "B?rgel" Anode: "Cu" Wavelength: "1.5406" Scantype: "2Theta (TwoTheta)" TimePerStep: "1" X: "18" Y: "-22.5" Z: "5.95" 
10.00000 0.000
10.02000 8.762
10.04000 -3.828
10.06000 -1.446
10.08000 -0.074
10.10000 4.416
10.12000 7.351
10.14000 -0.104
10.16000 2.290
10.18000 0.016
10.20000 9.495
10.22000 8.581
10.24000 17.588
10.26000 15.439
10.28000 18.049
10.30000 8.547
10.32000 5.549
10.34000 4.107
10.36000 3.802
10.38000 -2.484
10.40000 6.204
10.42000 12.403
10.44000 11.286
10.46000 18.237
10.48000 18.982
10.50000 11.337
10.52000 8.914
10.54000 0.788
10.56000 10.169
10.58000 12.436
10.60000 12.232
10.62000 -3.942
10.64000 1.992
10.66000 21.003
10.68000 25.328
10.70000 9.272
10.72000 10.565
10.74000 21.107
10.76000 25.085
10.78000 23.109
10.80000 17.319
10.82000 21.590
10.84000 16.568
10.86000 14.200
10.88000 10.522
10.90000 33.574
10.92000 30.320
10.94000 15.905
10.96000 10.229
10.98000 11.141
11.00000 7.847
11.02000 4.647
11.04000 2.773
11.06000 6.617
11.08000 18.351
11.10000 19.222
11.12000 -1.700
11.14000 2.478
11.16000 15.231
11.18000 11.618
11.20000 21.130
11.22000 18.526
11.24000 25.000
11.26000 28.809
11.28000 19.066
11.30000 19.321
11.32000 6.484
11.34000 11.030
11.36000 20.711
11.38000 22.041
11.40000 18.150
11.42000 18.301
11.44000 34.222
11.46000 17.956
11.48000 7.345
11.50000 14.073
11.52000 23.911
11.54000 35.018
11.56000 30.110
11.58000 29.796
11.60000 20.901
11.62000 22.730
11.64000 26.893
11.66000 26.290
11.68000 28.536
11.70000 21.068
11.72000 13.823
11.74000 24.786
11.76000 16.333
11.78000 22.366
11.80000 27.417
11.82000 16.717
11.84000 9.587
11.86000 16.048
11.88000 17.331
11.90000 18.828
11.92000 25.952
11.94000 26.674
11.96000 18.139
11.98000 14.360
12.00000 17.133
12.02000 15.825
12.04000 14.092
12.06000 20.939
12.08000 15.725
12.10000 21.464
12.12000 23.004
12.14000 12.888
12.16000 12.413
12.18000 21.858
12.20000 29.684
12.22000 20.036
12.24000 19.059
12.26000 13.232
12.28000 16.197
12.30000 12.877
12.32000 17.714
12.34000 19.089
12.36000 11.411
12.38000 19.515
12.40000 23.488
12.42000 26.397
12.44000 34.837
12.46000 34.954
12.48000 24.691
12.50000 19.084
12.52000 21.131
12.54000 27.216
12.56000 28.360
12.58000 23.490
12.60000 20.894
12.62000 17.792
12.64000 12.717
12.66000 14.820
12.68000 27.069
12.70000 27.931
12.72000 23.076
12.74000 23.418
12.76000 19.955
12.78000 8.646
12.80000 20.462
12.82000 20.246
12.84000 18.255
12.86000 19.378
12.88000 20.558
12.90000 21.508
12.92000 21.437
12.94000 22.579
12.96000 21.630
12.98000 31.984
13.00000 21.639
13.02000 17.838
13.04000 18.788
13.06000 26.223
13.08000 18.091
13.10000 17.567
13.12000 23.825
13.14000 17.432
13.16000 19.982
13.18000 22.536
13.20000 30.706
13.22000 22.110
13.24000 12.442
13.26000 29.055
13.28000 19.475
13.30000 16.609
13.32000 22.317
13.34000 14.048
13.36000 8.899
13.38000 15.044
13.40000 20.518
13.42000 12.365
13.44000 11.144
13.46000 22.976
13.48000 32.253
13.50000 23.383
13.52000 9.097
13.54000 15.455
13.56000 20.054
13.58000 13.986
13.60000 11.176
13.62000 19.232
13.64000 16.566
13.66000 13.044
13.68000 21.268
13.70000 17.333
13.72000 24.489
13.74000 24.340
13.76000 17.846
13.78000 20.961
13.80000 18.698
13.82000 17.160
13.84000 17.412
13.86000 22.138
13.88000 20.567
13.90000 14.323
13.92000 5.682
13.94000 5.685
13.96000 18.043
13.98000 14.637
14.00000 8.780
14.02000 25.031
14.04000 20.275
14.06000 13.921
14.08000 8.403
14.10000 13.398
14.12000 22.961
14.14000 28.505
14.16000 17.512
14.18000 7.094
14.20000 11.499
14.22000 21.261
14.24000 19.362
14.26000 9.209
14.28000 9.655
14.30000 11.637
14.32000 6.298
14.34000 4.935
14.36000 9.065
14.38000 11.574
14.40000 20.852
14.42000 14.444
14.44000 20.868
14.46000 17.396
14.48000 16.120
14.50000 17.345
14.52000 19.947
14.54000 13.097
14.56000 14.193
14.58000 13.768
14.60000 10.156
14.62000 12.454
14.64000 13.605
14.66000 9.182
14.68000 8.312
14.70000 2.793
14.72000 4.050
14.74000 2.140
14.76000 -4.405
14.78000 0.666
14.80000 4.498
14.82000 10.460
14.84000 6.511
14.86000 3.830
14.88000 11.160
14.90000 11.780
14.92000 13.898
14.94000 18.388
14.96000 20.849
14.98000 18.873
15.00000 20.703
15.02000 11.388
15.04000 9.273
15.06000 14.495
15.08000 8.758
15.10000 7.896
15.12000 11.806
15.14000 5.696
15.16000 10.848
15.18000 15.985
15.20000 9.741
15.22000 6.111
15.24000 12.345
15.26000 11.231
15.28000 11.274
15.30000 8.840
15.32000 8.478
15.34000 6.503
15.36000 8.826
15.38000 13.110
15.40000 13.301
15.42000 7.939
15.44000 10.699
15.46000 9.011
15.48000 4.621
15.50000 1.415
15.52000 9.845
15.54000 14.776
15.56000 12.834
15.58000 5.230
15.60000 4.273
15.62000 5.078
15.64000 8.811
15.66000 4.228
15.68000 3.038
15.70000 2.310
15.72000 5.064
15.74000 2.906
15.76000 9.274
15.78000 16.925
15.80000 8.423
15.82000 7.446
15.84000 6.852
15.86000 2.832
15.88000 3.835
15.90000 2.908
15.92000 6.456
15.94000 12.762
15.96000 4.952
15.98000 6.365
16.00000 14.080
16.02000 11.431
16.04000 10.770
16.06000 9.904
16.08000 6.060
16.10000 5.531
16.12000 8.788
16.14000 3.919
16.16000 3.460
16.18000 0.543
16.20000 3.380
16.22000 2.756
16.24000 -2.181
16.26000 -3.405
16.28000 0.748
16.30000 5.548
16.32000 12.916
16.34000 7.713
16.36000 6.068
16.38000 14.917
16.40000 4.492
16.42000 3.316
16.44000 13.607
16.46000 11.369
16.48000 4.680
16.50000 2.327
16.52000 5.920
16.54000 6.944
16.56000 11.178
16.58000 16.017
16.60000 13.527
16.62000 10.176
16.64000 3.958
16.66000 1.643
16.68000 3.253
16.70000 4.031
16.72000 3.661
16.74000 -4.391
16.76000 -2.781
16.78000 3.155
16.80000 3.114
16.82000 9.464
16.84000 7.105
16.86000 11.349
16.88000 14.898
16.90000 6.147
16.92000 0.190
16.94000 0.239
16.96000 7.999
16.98000 1.680
17.00000 8.130
17.02000 9.429
17.04000 3.228
17.06000 3.151
17.08000 -1.676
17.10000 -2.070
17.12000 4.071
17.14000 8.343
17.16000 8.535
17.18000 6.859
17.20000 -0.375
17.22000 2.723
17.24000 5.512
17.26000 4.938
17.28000 5.017
17.30000 11.019
17.32000 14.180
17.34000 7.107
17.36000 7.181
17.38000 8.663
17.40000 9.335
17.42000 5.708
17.44000 -0.634
17.46000 9.478
17.48000 6.563
17.50000 4.535
17.52000 -0.655
17.54000 5.386
17.56000 3.790
17.58000 4.887
17.60000 8.198
17.62000 11.347
17.64000 4.043
17.66000 5.681
17.68000 5.015
17.70000 6.622
17.72000 5.574
17.74000 12.122
17.76000 12.385
17.78000 14.609
17.80000 6.206
17.82000 -4.333
17.84000 3.378
17.86000 0.595
17.88000 4.553
17.90000 3.992
17.92000 1.436
17.94000 1.859
17.96000 1.801
17.98000 6.288
18.00000 2.620
18.02000 1.890
18.04000 4.645
18.06000 2.771
18.08000 3.530
18.10000 -1.567
18.12000 -0.554
18.14000 -0.433
18.16000 6.844
18.18000 12.194
18.20000 10.206
18.22000 4.494
18.24000 2.964
18.26000 5.261
18.28000 6.110
18.30000 2.665
18.32000 -0.596
18.34000 -2.537
18.36000 1.575
18.38000 4.931
18.40000 1.457
18.42000 5.256
18.44000 4.439
18.46000 -1.955
18.48000 -4.293
18.50000 -1.633
18.52000 1.451
18.54000 5.483
18.56000 0.975
18.58000 2.192
18.60000 6.056
18.62000 0.977
18.64000 -0.410
18.66000 1.407
18.68000 5.090
18.70000 14.820
18.72000 13.695
18.74000 5.556
18.76000 4.731
18.78000 4.926
18.80000 2.206
18.82000 -2.731
18.84000 6.655
18.86000 3.600
18.88000 4.455
18.90000 5.595
18.92000 -0.179
18.94000 -2.020
18.96000 -1.386
18.98000 2.776
19.00000 3.909
19.02000 3.873
19.04000 3.298
19.06000 9.354
19.08000 6.119
19.10000 4.841
19.12000 5.997
19.14000 5.860
19.16000 6.114
19.18000 8.675
19.20000 9.291
19.22000 3.831
19.24000 5.677
19.26000 10.245
19.28000 14.616
19.30000 10.174
19.32000 12.866
19.34000 12.819
19.36000 9.551
19.38000 9.103
19.40000 4.946
19.42000 7.222
19.44000 4.884
19.46000 9.500
19.48000 9.435
19.50000 13.743
19.52000 5.949
19.54000 4.146
19.56000 8.612
19.58000 4.594
19.60000 -0.314
19.62000 1.629
19.64000 -4.185
19.66000 0.181
19.68000 7.463
19.70000 8.328
19.72000 5.130
19.74000 7.864
19.76000 5.885
19.78000 7.740
19.80000 12.510
19.82000 8.971
19.84000 7.677
19.86000 11.358
19.88000 8.149
19.90000 9.576
19.92000 10.732
19.94000 10.008
19.96000 10.643
19.98000 9.782
20.00000 9.425
20.02000 12.918
20.04000 12.588
20.06000 4.933
20.08000 4.075
20.10000 9.711
20.12000 4.800
20.14000 -0.850
20.16000 -2.290
20.18000 3.374
20.20000 8.111
20.22000 5.216
20.24000 9.441
20.26000 4.613
20.28000 4.649
20.30000 9.264
20.32000 7.565
20.34000 7.055
20.36000 7.858
20.38000 4.349
20.40000 3.249
20.42000 7.871
20.44000 10.507
20.46000 10.467
20.48000 7.198
20.50000 11.093
20.52000 7.878
20.54000 5.159
20.56000 7.895
20.58000 5.867
20.60000 2.918
20.62000 0.373
20.64000 5.555
20.66000 8.777
20.68000 6.263
20.70000 2.900
20.72000 2.689
20.74000 4.192
20.76000 7.942
20.78000 3.754
20.80000 5.222
20.82000 11.651
20.84000 10.568
20.86000 9.199
20.88000 6.788
20.90000 0.512
20.92000 3.023
20.94000 3.635
20.96000 -4.141
20.98000 0.399
21.00000 3.312
21.02000 1.883
21.04000 1.431
21.06000 1.413
21.08000 1.005
21.10000 4.982
21.12000 5.856
21.14000 4.869
21.16000 7.280
21.18000 9.229
21.20000 9.699
21.22000 6.102
21.24000 0.063
21.26000 0.159
21.28000 6.408
21.30000 7.274
21.32000 7.762
21.34000 8.745
21.36000 4.439
21.38000 2.468
21.40000 10.681
21.42000 16.007
21.44000 6.389
21.46000 -1.942
21.48000 -1.333
21.50000 3.909
21.52000 4.544
21.54000 3.548
21.56000 10.369
21.58000 9.604
21.60000 9.186
21.62000 3.498
21.64000 6.724
21.66000 5.040
21.68000 4.536
21.70000 5.268
21.72000 10.314
21.74000 2.487
21.76000 4.181
21.78000 6.543
21.80000 3.187
21.82000 6.418
21.84000 11.312
21.86000 9.131
21.88000 8.462
21.90000 5.150
21.92000 1.447
21.94000 -4.102
21.96000 2.146
21.98000 9.296
22.00000 11.825
22.02000 12.501
22.04000 11.646
22.06000 4.753
22.08000 3.659
22.10000 3.373
22.12000 5.845
22.14000 4.380
22.16000 3.335
22.18000 -0.146
22.20000 0.564
22.22000 8.794
22.24000 6.008
22.26000 7.884
22.28000 4.560
22.30000 -2.251
22.32000 -0.694
22.34000 4.022
22.36000 7.918
22.38000 8.989
22.40000 4.759
22.42000 7.699
22.44000 2.500
22.46000 2.635
22.48000 5.624
22.50000 -0.226
22.52000 1.263
22.54000 5.797
22.56000 4.900
22.58000 3.003
22.60000 6.643
22.62000 3.011
22.64000 6.802
22.66000 9.216
22.68000 9.174
22.70000 6.769
22.72000 -0.951
22.74000 3.254
22.76000 5.102
22.78000 2.015
22.80000 -0.319
22.82000 -2.485
22.84000 3.990
22.86000 10.833
22.88000 4.143
22.90000 -1.310
22.92000 -1.153
22.94000 5.477
22.96000 5.514
22.98000 0.887
23.00000 -0.230
23.02000 -0.057
23.04000 -1.851
23.06000 0.453
23.08000 -1.492
23.10000 0.829
23.12000 4.680
23.14000 10.493
23.16000 3.809
23.18000 5.439
23.20000 2.132
23.22000 4.879
23.24000 3.811
23.26000 -0.531
23.28000 6.292
23.30000 6.591
23.32000 7.694
23.34000 3.005
23.36000 2.282
23.38000 5.955
23.40000 6.006
23.42000 1.163
23.44000 0.331
23.46000 1.101
23.48000 4.839
23.50000 3.229
23.52000 -0.193
23.54000 2.750
23.56000 0.941
23.58000 3.564
23.60000 4.148
23.62000 3.590
23.64000 -1.230
23.66000 -2.262
23.68000 1.642
23.70000 6.751
23.72000 1.706
23.74000 1.932
23.76000 3.788
23.78000 0.965
23.80000 1.099
23.82000 5.831
23.84000 1.655
23.86000 1.639
23.88000 2.746
23.90000 3.250
23.92000 8.122
23.94000 8.131
23.96000 4.657
23.98000 2.087
24.00000 0.083
24.02000 -3.976
24.04000 -3.975
24.06000 3.974
24.08000 7.703
24.10000 6.902
24.12000 7.194
24.14000 9.815
24.16000 3.082
24.18000 10.543
24.20000 6.270
24.22000 3.391
24.24000 3.591
24.26000 3.116
24.28000 2.283
24.30000 3.791
24.32000 2.509
24.34000 4.175
24.36000 4.311
24.38000 2.171
24.40000 0.784
24.42000 8.913
24.44000 4.297
24.46000 2.525
24.48000 1.541
24.50000 4.725
24.52000 1.457
24.54000 2.641
24.56000 5.823
24.58000 5.118
24.60000 5.210
24.62000 2.833
24.64000 13.610
24.66000 8.519
24.68000 7.575
24.70000 11.043
24.72000 4.653
24.74000 1.950
24.76000 2.044
24.78000 6.012
24.80000 5.061
24.82000 4.569
24.84000 2.618
24.86000 5.506
24.88000 -3.931
24.90000 -0.283
24.92000 5.465
24.94000 4.379
24.96000 7.142
24.98000 7.914
25.00000 5.877
25.02000 4.780
25.04000 4.307
25.06000 2.215
25.08000 6.981
25.10000 6.749
25.12000 2.910
25.14000 1.686
25.16000 4.577
25.18000 7.325
25.20000 7.433
25.22000 2.137
25.24000 1.171
25.26000 9.674
25.28000 6.131
25.30000 -2.291
25.32000 4.800
25.34000 6.328
25.36000 1.137
25.38000 -0.005
25.40000 1.364
25.42000 -0.146
25.44000 2.081
25.46000 10.048
25.48000 9.196
25.50000 4.902
25.52000 6.906
25.54000 0.095
25.56000 4.512
25.58000 5.380
25.60000 6.007
25.62000 1.350
25.64000 -2.411
25.66000 1.075
25.68000 2.367
25.70000 3.900
25.72000 7.822
25.74000 1.750
25.76000 3.929
25.78000 -0.401
25.80000 5.040
25.82000 4.462
25.84000 2.209
25.86000 2.037
25.88000 0.829
25.90000 3.659
25.92000 3.087
25.94000 4.420
25.96000 5.010
25.98000 4.479
26.00000 1.468
26.02000 4.679
26.04000 6.732
26.06000 5.633
26.08000 7.456
26.10000 6.513
26.12000 6.608
26.14000 4.276
26.16000 -1.145
26.18000 4.726
26.20000 3.887
26.22000 5.556
26.24000 5.884
26.26000 12.480
26.28000 6.403
26.30000 8.001
26.32000 4.206
26.34000 5.807
26.36000 0.578
26.38000 -2.263
26.40000 5.736
26.42000 6.682
26.44000 6.517
26.46000 7.129
26.48000 9.988
26.50000 8.233
26.52000 10.684
26.54000 4.472
26.56000 8.820
26.58000 11.701
26.60000 13.712
26.62000 7.871
26.64000 6.652
26.66000 3.765
26.68000 13.722
26.70000 9.101
26.72000 6.070
26.74000 9.651
26.76000 7.977
26.78000 6.202
26.80000 3.335
26.82000 6.946
26.84000 5.442
26.86000 2.649
26.88000 -3.790
26.90000 3.319
26.92000 7.075
26.94000 5.410
26.96000 12.308
26.98000 10.649
27.00000 8.978
27.02000 5.465
27.04000 7.645
27.06000 12.692
27.08000 9.192
27.10000 5.571
27.12000 3.325
27.14000 4.391
27.16000 3.727
27.18000 9.712
27.20000 6.697
27.22000 5.025
27.24000 8.777
27.26000 5.313
27.28000 5.166
27.30000 5.502
27.32000 5.603
27.34000 9.308
27.36000 10.495
27.38000 8.956
27.40000 10.100
27.42000 6.615
27.44000 1.466
27.46000 -0.559
27.48000 -3.477
27.50000 -1.063
27.52000 6.288
27.54000 9.055
27.56000 2.875
27.58000 -1.239
27.60000 0.161
27.62000 1.387
27.64000 1.537
27.66000 2.379
27.68000 3.437
27.70000 1.859
27.72000 1.824
27.74000 5.551
27.76000 4.349
27.78000 5.045
27.80000 6.799
27.82000 6.397
27.84000 5.174
27.86000 6.962
27.88000 8.368
27.90000 10.336
27.92000 -1.367
27.94000 0.060
27.96000 2.235
27.98000 1.281
28.00000 3.170
28.02000 5.975
28.04000 3.581
28.06000 2.550
28.08000 1.726
28.10000 0.560
28.12000 1.435
28.14000 4.006
28.16000 -1.317
28.18000 -0.726
28.20000 -0.070
28.22000 -0.886
28.24000 2.716
28.26000 10.296
28.28000 9.246
28.30000 3.536
28.32000 0.605
28.34000 -2.291
28.36000 -3.752
28.38000 3.121
28.40000 7.581
28.42000 5.291
28.44000 7.221
28.46000 7.973
28.48000 3.579
28.50000 2.423
28.52000 4.202
28.54000 3.463
28.56000 -0.338
28.58000 1.531
28.60000 4.416
28.62000 6.183
28.64000 13.412
28.66000 9.902
28.68000 2.284
28.70000 2.510
28.72000 5.476
28.74000 8.265
28.76000 10.180
28.78000 9.899
28.80000 4.965
28.82000 -0.270
28.84000 5.316
28.86000 6.885
28.88000 4.030
28.90000 6.571
28.92000 9.008
28.94000 7.906
28.96000 3.126
28.98000 -1.521
29.00000 -0.362
29.02000 0.303
29.04000 0.468
29.06000 0.792
29.08000 1.961
29.10000 -0.051
29.12000 5.592
29.14000 3.364
29.16000 -1.119
29.18000 3.717
29.20000 4.438
29.22000 4.461
29.24000 4.013
29.26000 5.647
29.28000 6.034
29.30000 3.504
29.32000 3.032
29.34000 3.968
29.36000 2.209
29.38000 2.896
29.40000 6.339
29.42000 4.356
29.44000 4.888
29.46000 2.357
29.48000 -2.597
29.50000 -1.815
29.52000 0.379
29.54000 3.476
29.56000 6.408
29.58000 -0.181
29.60000 -3.699
29.62000 -3.019
29.64000 2.681
29.66000 2.451
29.68000 3.362
29.70000 4.564
29.72000 4.493
29.74000 1.991
29.76000 -1.379
29.78000 -3.470
29.80000 3.999
29.82000 6.490
29.84000 6.915
29.86000 1.377
29.88000 -0.516
29.90000 1.137
29.92000 3.875
29.94000 -0.008
29.96000 -0.082
29.98000 1.396
30.00000 2.003
30.02000 0.970
30.04000 0.015
30.06000 -2.497
30.08000 0.164
30.10000 4.412
30.12000 -0.433
30.14000 -0.572
30.16000 5.121
30.18000 5.076
30.20000 4.478
30.22000 2.787
30.24000 -1.471
30.26000 -3.686
30.28000 -1.190
30.30000 -2.304
30.32000 3.268
30.34000 6.118
30.36000 3.938
30.38000 1.845
30.40000 1.956
30.42000 0.773
30.44000 3.382
30.46000 4.945
30.48000 6.640
30.50000 9.882
30.52000 3.087
30.54000 0.760
30.56000 3.376
30.58000 1.436
30.60000 -1.724
30.62000 1.104
30.64000 -0.377
30.66000 2.045
30.68000 6.933
30.70000 9.834
30.72000 7.030
30.74000 0.862
30.76000 4.656
30.78000 6.259
30.80000 3.528
30.82000 1.604
30.84000 0.059
30.86000 3.063
30.88000 4.903
30.90000 2.644
30.92000 3.136
30.94000 2.091
30.96000 -0.054
30.98000 2.987
31.00000 2.716
31.02000 -1.131
31.04000 2.236
31.06000 1.383
31.08000 3.136
31.10000 7.486
31.12000 9.907
31.14000 8.336
31.16000 0.358
31.18000 -3.633
31.20000 0.926
31.22000 3.673
31.24000 8.024
31.26000 6.453
31.28000 3.662
31.30000 0.247
31.32000 1.780
31.34000 5.224
31.36000 5.017
31.38000 3.467
31.40000 6.058
31.42000 4.106
31.44000 1.148
31.46000 3.675
31.48000 4.003
31.50000 5.612
31.52000 2.259
31.54000 0.435
31.56000 3.131
31.58000 5.069
31.60000 2.214
31.62000 0.719
31.64000 5.241
31.66000 4.626
31.68000 -2.776
31.70000 -0.414
31.72000 -1.199
31.74000 -0.913
31.76000 5.050
31.78000 4.772
31.80000 4.574
31.82000 1.773
31.84000 -0.248
31.86000 0.362
31.88000 3.738
31.90000 -0.188
31.92000 -0.010
31.94000 6.339
31.96000 5.024
31.98000 6.520
32.00000 4.283
32.02000 4.974
32.04000 7.465
32.06000 3.356
32.08000 3.411
32.10000 2.032
32.12000 7.646
32.14000 9.336
32.16000 3.998
32.18000 -3.583
32.20000 -1.847
32.22000 2.704
32.24000 7.964
32.26000 5.072
32.28000 -0.978
32.30000 -0.024
32.32000 3.904
32.34000 1.109
32.36000 0.754
32.38000 3.862
32.40000 9.873
32.42000 8.262
32.44000 0.513
32.46000 2.476
32.48000 5.931
32.50000 4.919
32.52000 4.622
32.54000 6.557
32.56000 3.875
32.58000 -1.490
32.60000 0.333
32.62000 4.537
32.64000 3.860
32.66000 2.587
32.68000 4.733
32.70000 2.424
32.72000 3.739
32.74000 1.808
32.76000 0.550
32.78000 0.112
32.80000 3.462
32.82000 3.108
32.84000 5.975
32.86000 4.439
32.88000 6.058
32.90000 5.434
32.92000 -1.509
32.94000 -1.813
32.96000 -2.193
32.98000 -0.585
33.00000 0.623
33.02000 0.278
33.04000 2.625
33.06000 1.702
33.08000 0.338
33.10000 1.962
33.12000 -1.896
33.14000 2.155
33.16000 4.866
33.18000 6.573
33.20000 6.483
33.22000 5.705
33.24000 4.023
33.26000 4.303
33.28000 5.706
33.30000 4.481
33.32000 6.454
33.34000 7.861
33.36000 1.550
33.38000 5.187
33.40000 1.838
33.42000 -2.971
33.44000 3.056
33.46000 7.055
33.48000 5.454
33.50000 0.647
33.52000 1.198
33.54000 3.935
33.56000 4.176
33.58000 9.972
33.60000 8.750
33.62000 6.221
33.64000 6.505
33.66000 3.557
33.68000 2.707
33.70000 7.305
33.72000 3.145
33.74000 1.061
33.76000 -3.545
33.78000 3.487
33.80000 7.102
33.82000 10.445
33.84000 13.443
33.86000 8.330
33.88000 2.312
33.90000 5.381
33.92000 1.596
33.94000 1.839
33.96000 4.986
33.98000 5.666
34.00000 5.379
34.02000 6.819
34.04000 7.252
34.06000 8.465
34.08000 6.866
34.10000 8.292
34.12000 6.685
34.14000 7.652
34.16000 2.877
34.18000 3.439
34.20000 3.971
34.22000 5.912
34.24000 8.497
34.26000 9.069
34.28000 2.913
34.30000 1.994
34.32000 3.563
34.34000 3.902
34.36000 1.055
34.38000 5.950
34.40000 5.212
34.42000 1.880
34.44000 3.546
34.46000 2.563
34.48000 4.451
34.50000 5.566
34.52000 1.392
34.54000 3.176
34.56000 1.175
34.58000 -0.054
34.60000 -0.809
34.62000 -0.874
34.64000 -0.331
34.66000 0.516
34.68000 3.868
34.70000 3.110
34.72000 2.150
34.74000 2.813
34.76000 1.191
34.78000 1.957
34.80000 0.586
34.82000 7.603
34.84000 3.678
34.86000 -1.658
34.88000 -3.378
34.90000 -0.716
34.92000 4.932
34.94000 3.745
34.96000 0.182
34.98000 -1.501
35.00000 -1.278
35.02000 6.043
35.04000 3.978
35.06000 0.075
35.08000 2.130
35.10000 -2.731
35.12000 2.600
35.14000 4.827
35.16000 4.784
35.18000 0.455
35.20000 1.149
35.22000 2.339
35.24000 1.597
35.26000 -2.655
35.28000 0.782
35.30000 3.423
35.32000 6.101
35.34000 11.361
35.36000 5.830
35.38000 5.628
35.40000 3.683
35.42000 3.717
35.44000 0.519
35.46000 -3.530
35.48000 1.711
35.50000 0.330
35.52000 1.045
35.54000 5.601
35.56000 1.390
35.58000 3.134
35.60000 4.365
35.62000 5.149
35.64000 3.841
35.66000 4.549
35.68000 3.206
35.70000 6.109
35.72000 4.531
35.74000 1.858
35.76000 6.204
35.78000 2.396
35.80000 -0.309
35.82000 4.696
35.84000 5.162
35.86000 1.734
35.88000 3.992
35.90000 4.259
35.92000 4.561
35.94000 3.477
35.96000 2.701
35.98000 4.366
36.00000 -3.545
36.02000 -2.810
36.04000 3.437
36.06000 4.863
36.08000 -0.413
36.10000 -1.952
36.12000 2.949
36.14000 2.333
36.16000 3.207
36.18000 1.977
36.20000 1.997
36.22000 6.994
36.24000 9.776
36.26000 5.699
36.28000 6.108
36.30000 3.031
36.32000 2.307
36.34000 6.101
36.36000 2.038
36.38000 -0.088
36.40000 -0.863
36.42000 0.709
36.44000 1.499
36.46000 3.237
36.48000 2.123
36.50000 -0.143
36.52000 2.453
36.54000 1.892
36.56000 -0.897
36.58000 -2.642
36.60000 -0.316
36.62000 2.097
36.64000 1.832
36.66000 0.939
36.68000 1.192
36.70000 -0.904
36.72000 -3.599
36.74000 -0.614
36.76000 -3.043
36.78000 -1.629
36.80000 0.360
36.82000 1.904
36.84000 4.841
36.86000 1.924
36.88000 1.262
36.90000 1.747
36.92000 4.848
36.94000 3.738
36.96000 5.276
36.98000 3.249
37.00000 0.348
37.02000 0.424
37.04000 2.195
37.06000 3.957
37.08000 1.254
37.10000 -1.748
37.12000 -2.559
37.14000 6.489
37.16000 9.420
37.18000 3.453
37.20000 2.406
37.22000 6.409
37.24000 4.677
37.26000 5.146
37.28000 6.648
37.30000 6.016
37.32000 4.071
37.34000 3.975
37.36000 9.023
37.38000 7.855
37.40000 2.562
37.42000 4.098
37.44000 1.994
37.46000 3.004
37.48000 5.325
37.50000 8.137
37.52000 11.319
37.54000 12.685
37.56000 10.519
37.58000 8.665
37.60000 10.079
37.62000 11.901
37.64000 12.108
37.66000 7.447
37.68000 6.899
37.70000 10.079
37.72000 13.087
37.74000 13.575
37.76000 12.579
37.78000 9.928
37.80000 11.548
37.82000 16.530
37.84000 14.187
37.86000 18.183
37.88000 19.868
37.90000 14.878
37.92000 12.181
37.94000 11.716
37.96000 14.311
37.98000 17.173
38.00000 14.772
38.02000 20.402
38.04000 20.400
38.06000 13.518
38.08000 12.678
38.10000 17.134
38.12000 20.136
38.14000 19.060
38.16000 20.697
38.18000 18.412
38.20000 22.785
38.22000 29.662
38.24000 25.390
38.26000 26.751
38.28000 24.513
38.30000 27.646
38.32000 26.683
38.34000 26.699
38.36000 31.288
38.38000 34.839
38.40000 28.715
38.42000 26.180
38.44000 38.684
38.46000 40.163
38.48000 36.224
38.50000 40.262
38.52000 43.581
38.54000 44.538
38.56000 42.936
38.58000 46.292
38.60000 47.705
38.62000 51.632
38.64000 54.538
38.66000 52.509
38.68000 54.018
38.70000 55.491
38.72000 62.749
38.74000 60.612
38.76000 64.184
38.78000 66.375
38.80000 75.769
38.82000 75.488
38.84000 81.925
38.86000 81.676
38.88000 84.322
38.90000 86.812
38.92000 92.971
38.94000 93.377
38.96000 94.466
38.98000 104.390
39.00000 112.951
39.02000 121.935
39.04000 129.043
39.06000 129.902
39.08000 137.815
39.10000 147.202
39.12000 152.328
39.14000 155.761
39.16000 166.855
39.18000 176.617
39.20000 189.109
39.22000 204.789
39.24000 213.952
39.26000 225.897
39.28000 243.653
39.30000 255.643
39.32000 264.786
39.34000 278.285
39.36000 285.131
39.38000 303.425
39.40000 330.011
39.42000 350.315
39.44000 361.616
39.46000 390.796
39.48000 410.550
39.50000 429.134
39.52000 450.733
39.54000 471.581
39.56000 483.383
39.58000 503.425
39.60000 525.101
39.62000 544.603
39.64000 558.673
39.66000 572.894
39.68000 594.328
39.70000 611.270
39.72000 626.264
39.74000 629.580
39.76000 631.943
39.78000 648.979
39.80000 652.903
39.82000 656.680
39.84000 648.098
39.86000 654.635
39.88000 652.945
39.90000 657.744
39.92000 642.865
39.94000 636.282
39.96000 618.004
39.98000 602.062
40.00000 585.941
40.02000 567.261
40.04000 549.630
40.06000 531.376
40.08000 516.910
40.10000 498.121
40.12000 474.757
40.14000 464.092
40.16000 439.321
40.18000 406.739
40.20000 386.733
40.22000 370.234
40.24000 349.528
40.26000 332.498
40.28000 319.576
40.30000 297.007
40.32000 282.964
40.34000 259.573
40.36000 245.979
40.38000 231.269
40.40000 217.097
40.42000 195.615
40.44000 183.961
40.46000 176.586
40.48000 167.549
40.50000 152.668
40.52000 145.356
40.54000 143.268
40.56000 136.543
40.58000 121.745
40.60000 111.608
40.62000 110.471
40.64000 105.976
40.66000 94.259
40.68000 77.709
40.70000 79.283
40.72000 76.907
40.74000 72.415
40.76000 73.808
40.78000 67.554
40.80000 59.505
40.82000 53.434
40.84000 54.857
40.86000 53.210
40.88000 53.817
40.90000 50.348
40.92000 43.093
40.94000 37.968
40.96000 42.153
40.98000 42.479
41.00000 38.457
41.02000 29.664
41.04000 28.017
41.06000 28.825
41.08000 25.646
41.10000 22.337
41.12000 22.824
41.14000 26.568
41.16000 25.148
41.18000 20.188
41.20000 23.813
41.22000 20.720
41.24000 21.037
41.26000 17.685
41.28000 14.587
41.30000 17.307
41.32000 17.864
41.34000 14.202
41.36000 11.337
41.38000 10.731
41.40000 12.841
41.42000 14.386
41.44000 9.193
41.46000 7.868
41.48000 4.723
41.50000 8.433
41.52000 6.227
41.54000 9.768
41.56000 7.927
41.58000 6.626
41.60000 9.446
41.62000 7.740
41.64000 6.473
41.66000 5.079
41.68000 9.023
41.70000 5.313
41.72000 2.770
41.74000 3.233
41.76000 4.298
41.78000 6.284
41.80000 5.695
41.82000 4.080
41.84000 5.860
41.86000 5.713
41.88000 5.323
41.90000 0.874
41.92000 1.904
41.94000 2.309
41.96000 -1.602
41.98000 -2.280
42.00000 -0.664
42.02000 -1.205
42.04000 0.603
42.06000 1.789
42.08000 0.448
42.10000 3.027
42.12000 2.819
42.14000 2.672
42.16000 1.137
42.18000 1.109
42.20000 0.437
42.22000 5.337
42.24000 5.728
42.26000 5.987
42.28000 0.702
42.30000 -1.499
42.32000 1.157
42.34000 3.295
42.36000 2.126
42.38000 0.197
42.40000 0.443
42.42000 -2.194
42.44000 -1.056
42.46000 1.653
42.48000 0.898
42.50000 3.724
42.52000 -0.995
42.54000 2.377
42.56000 4.049
42.58000 3.972
42.60000 6.178
42.62000 3.815
42.64000 1.786
42.66000 -3.131
42.68000 -3.306
42.70000 0.236
42.72000 3.719
42.74000 4.908
42.76000 0.664
42.78000 -2.233
42.80000 -2.734
42.82000 -1.739
42.84000 2.254
42.86000 0.720
42.88000 -0.229
42.90000 -0.531
42.92000 0.524
42.94000 2.704
42.96000 2.379
42.98000 0.722
43.00000 -0.417
43.02000 -2.531
43.04000 -1.058
43.06000 1.858
43.08000 1.732
43.10000 3.210
43.12000 2.391
43.14000 -0.462
43.16000 -2.432
43.18000 -2.369
43.20000 0.056
43.22000 -0.703
43.24000 0.130
43.26000 1.889
43.28000 2.297
43.30000 2.474
43.32000 2.493
43.34000 -0.482
43.36000 -2.458
43.38000 -1.863
43.40000 0.789
43.42000 -2.478
43.44000 -3.223
43.46000 -1.570
43.48000 -2.360
43.50000 -0.892
43.52000 0.208
43.54000 3.539
43.56000 1.419
43.58000 0.293
43.60000 -0.189
43.62000 0.960
43.64000 2.915
43.66000 0.355
43.68000 0.297
43.70000 -0.530
43.72000 -0.718
43.74000 2.343
43.76000 1.684
43.78000 1.304
43.80000 2.994
43.82000 2.045
43.84000 -0.603
43.86000 -0.404
43.88000 1.618
43.90000 2.956
43.92000 4.057
43.94000 0.981
43.96000 1.719
43.98000 -0.550
44.00000 -3.174
44.02000 2.591
44.04000 4.492
44.06000 5.770
44.08000 2.156
44.10000 0.995
44.12000 -1.608
44.14000 3.530
44.16000 3.511
44.18000 5.194
44.20000 2.781
44.22000 0.915
44.24000 -1.789
44.26000 -1.880
44.28000 -0.898
44.30000 0.206
44.32000 -0.476
44.34000 -0.729
44.36000 2.284
44.38000 2.835
44.40000 1.945
44.42000 3.519
44.44000 1.715
44.46000 0.536
44.48000 3.135
44.50000 1.701
44.52000 0.170
44.54000 -1.489
44.56000 -3.170
44.58000 3.586
44.60000 2.466
44.62000 -0.351
44.64000 -1.778
44.66000 -2.158
44.68000 -0.566
44.70000 4.677
44.72000 4.100
44.74000 2.926
44.76000 1.760
44.78000 2.423
44.80000 2.655
44.82000 1.990
44.84000 1.501
44.86000 -0.219
44.88000 -1.127
44.90000 -0.008
44.92000 0.079
44.94000 1.573
44.96000 6.127
44.98000 0.707
45.00000 3.531
45.02000 1.725
45.04000 0.162
45.06000 0.199
45.08000 -0.978
45.10000 1.116
45.12000 2.639
45.14000 3.360
45.16000 5.766
45.18000 7.759
45.20000 11.513
45.22000 10.188
45.24000 11.018
45.26000 10.581
45.28000 9.009
45.30000 5.950
45.32000 7.894
45.34000 5.305
45.36000 8.561
45.38000 10.588
45.40000 10.911
45.42000 10.581
45.44000 9.537
45.46000 13.552
45.48000 12.498
45.50000 8.384
45.52000 11.933
45.54000 16.806
45.56000 19.729
45.58000 19.107
45.60000 15.257
45.62000 17.121
45.64000 22.099
45.66000 22.549
45.68000 17.390
45.70000 18.191
45.72000 19.928
45.74000 22.599
45.76000 26.553
45.78000 24.778
45.80000 18.468
45.82000 24.985
45.84000 23.643
45.86000 31.278
45.88000 30.378
45.90000 30.300
45.92000 34.187
45.94000 34.127
45.96000 37.528
45.98000 38.379
46.00000 39.152
46.02000 42.381
46.04000 40.007
46.06000 40.813
46.08000 40.146
46.10000 40.608
46.12000 47.970
46.14000 49.870
46.16000 53.491
46.18000 51.624
46.20000 48.104
46.22000 58.955
46.24000 60.998
46.26000 57.613
46.28000 55.905
46.30000 53.179
46.32000 57.080
46.34000 58.463
46.36000 65.579
46.38000 67.019
46.40000 68.933
46.42000 64.511
46.44000 64.233
46.46000 65.935
46.48000 64.990
46.50000 68.742
46.52000 71.403
46.54000 64.926
46.56000 62.734
46.58000 68.229
46.60000 68.756
46.62000 62.165
46.64000 58.164
46.66000 61.219
46.68000 62.476
46.70000 59.754
46.72000 61.809
46.74000 59.428
46.76000 53.987
46.78000 58.111
46.80000 53.927
46.82000 51.541
46.84000 53.675
46.86000 54.663
46.88000 50.439
46.90000 50.918
46.92000 48.549
46.94000 43.350
46.96000 42.671
46.98000 40.252
47.00000 39.502
47.02000 36.434
47.04000 36.509
47.06000 33.908
47.08000 31.067
47.10000 25.792
47.12000 22.865
47.14000 26.577
47.16000 25.827
47.18000 24.838
47.20000 23.215
47.22000 18.584
47.24000 20.105
47.26000 18.856
47.28000 19.621
47.30000 15.952
47.32000 16.056
47.34000 15.698
47.36000 15.274
47.38000 16.764
47.40000 13.863
47.42000 11.175
47.44000 12.569
47.46000 11.519
47.48000 10.157
47.50000 9.983
47.52000 11.563
47.54000 7.695
47.56000 7.950
47.58000 10.037
47.60000 6.623
47.62000 4.412
47.64000 6.424
47.66000 6.002
47.68000 4.815
47.70000 0.831
47.72000 3.066
47.74000 3.962
47.76000 4.048
47.78000 5.696
47.80000 7.941
47.82000 9.602
47.84000 8.191
47.86000 5.735
47.88000 5.139
47.90000 2.147
47.92000 -0.335
47.94000 -1.612
47.96000 -1.136
47.98000 -0.184
48.00000 1.649
48.02000 3.180
48.04000 2.186
48.06000 -1.929
48.08000 0.643
48.10000 1.855
48.12000 -0.517
48.14000 -0.425
48.16000 0.346
48.18000 -2.820
48.20000 2.089
48.22000 2.645
48.24000 0.138
48.26000 4.526
48.28000 4.898
48.30000 8.156
48.32000 3.195
48.34000 -1.454
48.36000 -0.737
48.38000 2.442
48.40000 0.785
48.42000 -2.768
48.44000 2.616
48.46000 6.850
48.48000 5.070
48.50000 6.219
48.52000 7.370
48.54000 3.319
48.56000 2.290
48.58000 1.453
48.60000 2.671
48.62000 0.833
48.64000 5.341
48.66000 3.619
48.68000 2.419
48.70000 -1.114
48.72000 -0.717
48.74000 3.860
48.76000 1.593
48.78000 6.821
48.80000 5.981
48.82000 2.112
48.84000 2.314
48.86000 4.449
48.88000 4.144
48.90000 2.503
48.92000 5.657
48.94000 3.325
48.96000 1.002
48.98000 4.796
49.00000 1.030
49.02000 -1.469
49.04000 -2.674
49.06000 0.836
49.08000 3.093
49.10000 0.420
49.12000 2.465
49.14000 2.680
49.16000 4.404
49.18000 9.272
49.20000 8.983
49.22000 3.602
49.24000 3.997
49.26000 6.042
49.28000 3.436
49.30000 6.134
49.32000 7.741
49.34000 6.340
49.36000 4.584
49.38000 3.755
49.40000 4.251
49.42000 2.683
49.44000 -2.654
49.46000 -0.758
49.48000 5.034
49.50000 4.685
49.52000 3.341
49.54000 5.629
49.56000 8.284
49.58000 2.798
49.60000 -1.336
49.62000 3.828
49.64000 6.875
49.66000 4.155
49.68000 1.515
49.70000 0.923
49.72000 4.842
49.74000 5.631
49.76000 2.105
49.78000 1.693
49.80000 3.375
49.82000 1.295
49.84000 1.114
49.86000 2.811
49.88000 2.765
49.90000 2.018
49.92000 1.562
49.94000 1.858
49.96000 1.161
49.98000 0.928
50.00000 0.405
50.02000 0.008
50.04000 1.112
50.06000 0.096
50.08000 1.470
50.10000 5.599
50.12000 7.912
50.14000 4.247
50.16000 1.421
50.18000 1.558
50.20000 1.144
50.22000 3.002
50.24000 4.320
50.26000 4.330
50.28000 2.928
50.30000 4.221
50.32000 3.999
50.34000 2.375
50.36000 2.209
50.38000 3.515
50.40000 2.315
50.42000 2.446
50.44000 3.621
50.46000 -0.183
50.48000 2.702
50.50000 5.992
50.52000 3.884
50.54000 3.171
50.56000 4.194
50.58000 1.217
50.60000 -0.115
50.62000 1.904
50.64000 1.222
50.66000 -2.577
50.68000 1.765
50.70000 2.994
50.72000 2.074
50.74000 -2.607
50.76000 -0.066
50.78000 1.558
50.80000 2.919
50.82000 1.257
50.84000 1.714
50.86000 2.849
50.88000 0.403
50.90000 1.964
50.92000 1.413
50.94000 4.853
50.96000 5.005
50.98000 -0.639
51.00000 1.450
51.02000 0.385
51.04000 -0.332
51.06000 2.177
51.08000 7.045
51.10000 6.078
51.12000 1.570
51.14000 3.546
51.16000 4.207
51.18000 3.592
51.20000 1.430
51.22000 0.020
51.24000 -0.462
51.26000 1.921
51.28000 -0.269
51.30000 -0.943
51.32000 -1.128
51.34000 -0.173
51.36000 2.164
51.38000 2.570
51.40000 2.610
51.42000 -1.635
51.44000 -1.177
51.46000 3.375
51.48000 1.213
51.50000 3.371
51.52000 5.423
51.54000 1.716
51.56000 -0.431
51.58000 0.546
51.60000 0.518
51.62000 0.018
51.64000 -0.288
51.66000 1.881
51.68000 0.746
51.70000 0.514
51.72000 5.509
51.74000 3.270
51.76000 -0.116
51.78000 -1.958
51.80000 0.008
51.82000 1.517
51.84000 1.208
51.86000 6.982
51.88000 6.463
51.90000 5.133
51.92000 5.138
51.94000 2.109
51.96000 2.281
51.98000 5.534
52.00000 3.734
52.02000 1.994
52.04000 0.065
52.06000 0.823
52.08000 2.539
52.10000 0.460
52.12000 -0.719
52.14000 1.857
52.16000 1.125
52.18000 1.031
52.20000 -1.380
52.22000 1.080
52.24000 3.745
52.26000 3.508
52.28000 0.579
52.30000 -2.565
52.32000 -0.799
52.34000 2.798
52.36000 2.061
52.38000 2.208
52.40000 0.363
52.42000 1.826
52.44000 3.496
52.46000 0.563
52.48000 0.776
52.50000 -2.422
52.52000 0.854
52.54000 3.371
52.56000 7.840
52.58000 5.234
52.60000 -1.732
52.62000 1.222
52.64000 3.528
52.66000 7.087
52.68000 6.166
52.70000 -0.966
52.72000 -0.961
52.74000 -0.285
52.76000 -0.139
52.78000 2.837
52.80000 3.633
52.82000 4.564
52.84000 2.914
52.86000 -0.526
52.88000 1.132
52.90000 1.322
52.92000 -0.342
52.94000 -2.564
52.96000 -0.694
52.98000 -2.448
53.00000 -0.956
53.02000 -1.027
53.04000 0.457
53.06000 2.584
53.08000 1.018
53.10000 -0.276
53.12000 -0.439
53.14000 1.004
53.16000 4.167
53.18000 -1.960
53.20000 0.032
53.22000 1.319
53.24000 -1.151
53.26000 1.066
53.28000 2.719
53.30000 2.433
53.32000 1.559
53.34000 1.648
53.36000 4.611
53.38000 4.940
53.40000 3.960
53.42000 1.543
53.44000 -1.162
53.46000 5.503
53.48000 3.140
53.50000 -0.292
53.52000 0.025
53.54000 -1.353
53.56000 -2.540
53.58000 1.609
53.60000 5.544
53.62000 5.304
53.64000 1.047
53.66000 -0.364
53.68000 3.098
53.70000 4.602
53.72000 1.309
53.74000 0.422
53.76000 1.961
53.78000 1.154
53.80000 3.944
53.82000 2.656
53.84000 -1.649
53.86000 -0.983
53.88000 1.424
53.90000 3.352
53.92000 2.069
53.94000 -0.209
53.96000 -2.520
53.98000 4.407
54.00000 4.110
54.02000 2.281
54.04000 -1.104
54.06000 -1.432
54.08000 1.386
54.10000 1.341
54.12000 4.713
54.14000 3.938
54.16000 -1.197
54.18000 0.528
54.20000 3.704
54.22000 6.284
54.24000 2.779
54.26000 -2.504
54.28000 0.779
54.30000 -1.312
54.32000 -1.866
54.34000 0.499
54.36000 2.038
54.38000 5.445
54.40000 2.832
54.42000 3.723
54.44000 5.575
54.46000 3.518
54.48000 0.857
54.50000 -2.507
54.52000 1.791
54.54000 5.428
54.56000 4.702
54.58000 2.832
54.60000 1.980
54.62000 -0.623
54.64000 1.593
54.66000 2.401
54.68000 1.485
54.70000 5.102
54.72000 3.209
54.74000 1.958
54.76000 2.128
54.78000 4.632
54.80000 5.268
54.82000 1.049
54.84000 1.703
54.86000 0.959
54.88000 0.408
54.90000 -2.506
54.92000 -0.814
54.94000 2.088
54.96000 1.278
54.98000 0.280
55.00000 -1.323
55.02000 -1.134
55.04000 1.004
55.06000 -0.046
55.08000 1.326
55.10000 -0.148
55.12000 -2.504
55.14000 -1.288
55.16000 -0.763
55.18000 3.082
55.20000 6.302
55.22000 5.605
55.24000 5.553
55.26000 2.908
55.28000 1.969
55.30000 1.146
55.32000 -1.505
55.34000 0.660
55.36000 -1.694
55.38000 -1.671
55.40000 1.568
55.42000 -0.960
55.44000 -0.929
55.46000 -0.286
55.48000 2.400
55.50000 2.298
55.52000 0.997
55.54000 2.642
55.56000 2.567
55.58000 3.385
55.60000 3.556
55.62000 2.654
55.64000 3.464
55.66000 0.840
55.68000 -0.971
55.70000 2.221
55.72000 2.992
55.74000 0.609
55.76000 -2.485
55.78000 1.165
55.80000 4.893
55.82000 4.264
55.84000 2.489
55.86000 2.544
55.88000 -1.413
55.90000 -0.547
55.92000 0.644
55.94000 0.475
55.96000 -0.236
55.98000 -2.440
56.00000 -2.474
56.02000 0.552
56.04000 1.764
56.06000 -1.185
56.08000 5.473
56.10000 7.188
56.12000 1.850
56.14000 0.462
56.16000 5.036
56.18000 0.453
56.20000 1.364
56.22000 -1.150
56.24000 0.489
56.26000 1.427
56.28000 3.242
56.30000 2.085
56.32000 5.011
56.34000 2.862
56.36000 -1.543
56.38000 2.088
56.40000 4.506
56.42000 2.711
56.44000 -1.223
56.46000 -1.233
56.48000 2.437
56.50000 -1.146
56.52000 1.752
56.54000 1.851
56.56000 1.975
56.58000 6.605
56.60000 4.067
56.62000 1.418
56.64000 1.927
56.66000 2.043
56.68000 3.334
56.70000 1.356
56.72000 0.555
56.74000 1.130
56.76000 4.347
56.78000 5.139
56.80000 5.707
56.82000 -0.298
56.84000 1.828
56.86000 1.822
56.88000 0.426
56.90000 4.353
56.92000 3.743
56.94000 3.531
56.96000 2.467
56.98000 3.151
57.00000 3.295
57.02000 6.109
57.04000 5.300
57.06000 9.826
57.08000 8.220
57.10000 3.855
57.12000 5.311
57.14000 1.066
57.16000 1.893
57.18000 4.321
57.20000 6.950
57.22000 1.484
57.24000 -1.037
57.26000 3.511
57.28000 2.311
57.30000 -2.397
57.32000 0.976
57.34000 1.949
57.36000 1.662
57.38000 6.378
57.40000 4.305
57.42000 2.785
57.44000 6.246
57.46000 6.293
57.48000 3.430
57.50000 1.865
57.52000 2.431
57.54000 2.103
57.56000 2.404
57.58000 5.148
57.60000 2.844
57.62000 7.030
57.64000 8.533
57.66000 2.154
57.68000 2.785
57.70000 5.010
57.72000 4.344
57.74000 1.846
57.76000 3.448
57.78000 0.354
57.80000 5.258
57.82000 4.347
57.84000 1.092
57.86000 2.173
57.88000 4.211
57.90000 5.798
57.92000 6.706
57.94000 3.427
57.96000 4.975
57.98000 4.700
58.00000 0.991
58.02000 0.429
58.04000 3.516
58.06000 4.897
58.08000 -0.717
58.10000 0.866
58.12000 2.870
58.14000 5.802
58.16000 4.929
58.18000 0.357
58.20000 0.045
58.22000 -0.881
58.24000 -1.791
58.26000 -0.932
58.28000 2.860
58.30000 -1.145
58.32000 0.092
58.34000 3.948
58.36000 0.329
58.38000 -2.401
58.40000 1.956
58.42000 0.300
58.44000 1.466
58.46000 1.330
58.48000 1.301
58.50000 0.980
58.52000 2.479
58.54000 3.416
58.56000 0.482
58.58000 1.139
58.60000 1.159
58.62000 -1.751
58.64000 1.711
58.66000 1.905
58.68000 2.136
58.70000 -0.371
58.72000 -1.941
58.74000 -0.216
58.76000 2.887
58.78000 1.283
58.80000 -0.614
58.82000 -1.216
58.84000 -1.161
58.86000 -0.374
58.88000 2.741
58.90000 -0.037
58.92000 -1.061
58.94000 2.200
58.96000 1.642
58.98000 1.106
59.00000 0.987
59.02000 -0.010
59.04000 2.141
59.06000 4.084
59.08000 3.807
59.10000 0.904
59.12000 3.010
59.14000 1.092
59.16000 4.242
59.18000 1.063
59.20000 -1.162
59.22000 2.581
59.24000 2.257
59.26000 0.913
59.28000 -0.083
59.30000 0.854
59.32000 2.785
59.34000 5.139
59.36000 5.641
59.38000 4.317
59.40000 2.375
59.42000 1.622
59.44000 -0.031
59.46000 -0.924
59.48000 -2.359
59.50000 -0.622
59.52000 1.659
59.54000 1.901
59.56000 3.226
59.58000 6.885
59.60000 7.562
59.62000 1.732
59.64000 -2.353
59.66000 3.395
59.68000 5.550
59.70000 2.455
59.72000 -0.612
59.74000 2.646
59.76000 1.981
59.78000 1.463
59.80000 1.871
59.82000 -1.844
59.84000 -1.341
59.86000 2.199
59.88000 0.802
59.90000 0.515
59.92000 3.186
59.94000 3.684
59.96000 2.501
59.98000 5.540
60.00000 3.683
60.02000 1.617
60.04000 3.007
60.06000 2.497
60.08000 4.291
60.10000 3.433
60.12000 2.564
60.14000 0.387
60.16000 0.577
60.18000 1.963
60.20000 1.976
60.22000 2.778
60.24000 4.738
60.26000 1.789
60.28000 1.866
60.30000 1.990
60.32000 1.473
60.34000 2.336
60.36000 2.042
60.38000 3.015
60.40000 3.911
60.42000 5.415
60.44000 5.080
60.46000 2.894
60.48000 2.653
60.50000 0.131
60.52000 -0.624
60.54000 1.058
60.56000 4.623
60.58000 1.887
60.60000 0.184
60.62000 -1.696
60.64000 -0.608
60.66000 2.029
60.68000 2.718
60.70000 2.754
60.72000 1.318
60.74000 2.609
60.76000 1.183
60.78000 1.503
60.80000 -2.314
60.82000 1.567
60.84000 3.299
60.86000 5.290
60.88000 4.515
60.90000 4.269
60.92000 0.838
60.94000 2.403
60.96000 3.783
60.98000 4.273
61.00000 2.867
61.02000 1.375
61.04000 3.584
61.06000 2.273
61.08000 1.943
61.10000 2.132
61.12000 -2.295
61.14000 -0.515
61.16000 -0.653
61.18000 1.463
61.20000 1.190
61.22000 0.665
61.24000 -1.966
61.26000 -0.972
61.28000 -0.721
61.30000 -0.175
61.32000 4.702
61.34000 5.088
61.36000 4.853
61.38000 2.554
61.40000 2.660
61.42000 -1.117
61.44000 2.527
61.46000 -1.170
61.48000 1.996
61.50000 2.443
61.52000 3.406
61.54000 2.879
61.56000 3.231
61.58000 2.608
61.60000 1.620
61.62000 -1.478
61.64000 1.469
61.66000 2.401
61.68000 0.366
61.70000 2.257
61.72000 -0.362
61.74000 1.070
61.76000 4.129
61.78000 2.158
61.80000 4.892
61.82000 4.858
61.84000 5.003
61.86000 1.115
61.88000 0.501
61.90000 -0.882
61.92000 1.046
61.94000 5.684
61.96000 6.306
61.98000 3.687
62.00000 3.135
62.02000 2.575
62.04000 1.719
62.06000 4.640
62.08000 6.285
62.10000 4.921
62.12000 3.413
62.14000 3.680
62.16000 2.815
62.18000 0.713
62.20000 2.359
62.22000 2.105
62.24000 3.602
62.26000 0.199
62.28000 3.371
62.30000 2.705
62.32000 1.128
62.34000 0.695
62.36000 1.725
62.38000 2.877
62.40000 3.746
62.42000 4.682
62.44000 3.772
62.46000 1.121
62.48000 -1.149
62.50000 1.196
62.52000 3.983
62.54000 1.973
62.56000 -1.082
62.58000 -2.194
62.60000 -2.252
62.62000 -1.666
62.64000 1.419
62.66000 1.395
62.68000 0.817
62.70000 1.207
62.72000 3.902
62.74000 3.355
62.76000 1.742
62.78000 3.185
62.80000 1.373
62.82000 0.306
62.84000 0.875
62.86000 2.593
62.88000 0.564
62.90000 5.874
62.92000 5.808
62.94000 4.242
62.96000 2.456
62.98000 -0.582
63.00000 0.635
63.02000 3.967
63.04000 3.625
63.06000 4.223
63.08000 3.565
63.10000 1.881
63.12000 2.098
63.14000 0.684
63.16000 0.461
63.18000 2.012
63.20000 1.082
63.22000 4.612
63.24000 4.838
63.26000 -0.048
63.28000 -0.325
63.30000 4.193
63.32000 3.996
63.34000 1.549
63.36000 0.497
63.38000 0.213
63.40000 0.507
63.42000 1.796
63.44000 1.191
63.46000 -0.123
63.48000 -2.009
63.50000 1.162
63.52000 2.290
63.54000 1.777
63.56000 2.895
63.58000 -1.021
63.60000 3.197
63.62000 5.576
63.64000 1.228
63.66000 -1.104
63.68000 -2.271
63.70000 -1.521
63.72000 0.731
63.74000 -0.210
63.76000 -2.093
63.78000 1.641
63.80000 3.336
63.82000 -0.311
63.84000 -0.355
63.86000 0.530
63.88000 0.782
63.90000 -0.466
63.92000 2.659
63.94000 3.770
63.96000 0.479
63.98000 1.352
64.00000 0.362
64.02000 0.409
64.04000 2.172
64.06000 5.427
64.08000 5.803
64.10000 6.968
64.12000 2.966
64.14000 0.427
64.16000 1.647
64.18000 2.356
64.20000 0.070
64.22000 -1.906
64.24000 -1.349
64.26000 1.152
64.28000 0.238
64.30000 -0.225
64.32000 -0.865
64.34000 1.584
64.36000 2.222
64.38000 -1.056
64.40000 -2.295
64.42000 -0.217
64.44000 3.209
64.46000 3.076
64.48000 1.818
64.50000 2.076
64.52000 1.128
64.54000 -0.070
64.56000 0.753
64.58000 1.174
64.60000 0.288
64.62000 -1.718
64.64000 -0.632
64.66000 1.614
64.68000 0.439
64.70000 -0.215
64.72000 1.193
64.74000 3.626
64.76000 0.495
64.78000 1.223
64.80000 2.146
64.82000 0.241
64.84000 -1.137
64.86000 1.378
64.88000 2.142
64.90000 2.113
64.92000 -0.348
64.94000 1.052
64.96000 0.771
64.98000 -1.085
65.00000 0.598
65.02000 0.784
65.04000 1.496
65.06000 2.217
65.08000 3.943
65.10000 2.075
65.12000 1.059
65.14000 2.590
65.16000 0.771
65.18000 1.003
65.20000 -0.921
65.22000 -0.610
65.24000 2.970
65.26000 3.133
65.28000 -0.428
65.30000 0.669
65.32000 -0.225
65.34000 1.039
65.36000 2.171
65.38000 2.792
65.40000 0.204
65.42000 -0.012
65.44000 0.974
65.46000 0.992
65.48000 2.784
65.50000 3.968
65.52000 1.111
65.54000 -2.279
65.56000 -1.415
65.58000 0.792
65.60000 1.660
65.62000 -0.748
65.64000 0.450
65.66000 1.098
65.68000 -1.407
65.70000 -2.270
65.72000 -1.535
65.74000 0.622
65.76000 0.790
65.78000 0.296
65.80000 3.603
65.82000 4.515
65.84000 1.163
65.86000 -2.072
65.88000 -1.443
65.90000 -0.692
65.92000 -1.504
65.94000 3.125
65.96000 -0.151
65.98000 -1.847
66.00000 0.794
66.02000 -0.919
66.04000 -1.291
66.06000 -1.776
66.08000 -0.557
66.10000 0.534
66.12000 -1.721
66.14000 -1.349
66.16000 0.270
66.18000 -0.631
66.20000 2.016
66.22000 -0.142
66.24000 -1.800
66.26000 -1.079
66.28000 -0.405
66.30000 2.848
66.32000 1.739
66.34000 0.509
66.36000 0.494
66.38000 0.747
66.40000 0.035
66.42000 -1.717
66.44000 -1.999
66.46000 -0.988
66.48000 1.627
66.50000 1.148
66.52000 3.788
66.54000 1.650
66.56000 -2.315
66.58000 0.229
66.60000 4.439
66.62000 1.174
66.64000 0.588
66.66000 1.717
66.68000 0.646
66.70000 0.373
66.72000 -0.030
66.74000 0.621
66.76000 1.917
66.78000 0.276
66.80000 2.179
66.82000 1.622
66.84000 2.756
66.86000 2.593
66.88000 5.289
66.90000 4.000
66.92000 3.976
66.94000 2.899
66.96000 3.131
66.98000 2.690
67.00000 4.230
67.02000 3.360
67.04000 3.689
67.06000 6.039
67.08000 6.920
67.10000 7.597
67.12000 6.154
67.14000 6.077
67.16000 6.135
67.18000 5.383
67.20000 5.376
67.22000 5.706
67.24000 5.134
67.26000 6.269
67.28000 7.581
67.30000 6.575
67.32000 9.059
67.34000 6.508
67.36000 6.719
67.38000 7.123
67.40000 10.388
67.42000 12.644
67.44000 9.388
67.46000 12.172
67.48000 10.853
67.50000 11.150
67.52000 12.770
67.54000 12.647
67.56000 13.451
67.58000 15.432
67.60000 13.069
67.62000 14.300
67.64000 14.631
67.66000 14.000
67.68000 11.926
67.70000 11.154
67.72000 11.877
67.74000 12.255
67.76000 15.958
67.78000 15.690
67.80000 14.975
67.82000 15.385
67.84000 13.534
67.86000 14.212
67.88000 15.498
67.90000 13.117
67.92000 11.881
67.94000 14.000
67.96000 12.278
67.98000 12.429
68.00000 10.157
68.02000 7.897
68.04000 10.438
68.06000 13.351
68.08000 12.069
68.10000 11.681
68.12000 11.461
68.14000 12.566
68.16000 10.112
68.18000 9.407
68.20000 8.595
68.22000 9.106
68.24000 8.210
68.26000 5.329
68.28000 5.580
68.30000 4.668
68.32000 5.224
68.34000 5.490
68.36000 3.490
68.38000 2.959
68.40000 5.505
68.42000 4.733
68.44000 3.482
68.46000 5.774
68.48000 4.781
68.50000 3.227
68.52000 3.396
68.54000 2.914
68.56000 2.361
68.58000 2.480
68.60000 2.071
68.62000 2.072
68.64000 3.964
68.66000 2.931
68.68000 2.454
68.70000 0.612
68.72000 0.990
68.74000 1.734
68.76000 2.426
68.78000 0.225
68.80000 0.150
68.82000 0.131
68.84000 -0.282
68.86000 2.478
68.88000 2.576
68.90000 2.383
68.92000 0.872
68.94000 2.263
68.96000 -0.877
68.98000 -1.500
69.00000 0.272
69.02000 0.630
69.04000 -2.185
69.06000 -0.938
69.08000 0.004
69.10000 -0.162
69.12000 0.858
69.14000 1.863
69.16000 1.320
69.18000 2.771
69.20000 1.241
69.22000 0.287
69.24000 3.063
69.26000 2.417
69.28000 0.922
69.30000 2.660
69.32000 0.016
69.34000 0.036
69.36000 0.731
69.38000 -0.713
69.40000 -0.005
69.42000 2.189
69.44000 3.337
69.46000 -0.745
69.48000 -1.706
69.50000 -2.107
69.52000 1.030
69.54000 2.708
69.56000 2.722
69.58000 2.472
69.60000 2.432
69.62000 2.819
69.64000 4.343
69.66000 3.502
69.68000 0.733
69.70000 0.100
69.72000 0.459
69.74000 1.996
69.76000 0.497
69.78000 -0.347
69.80000 -1.264
69.82000 2.447
69.84000 -0.756
69.86000 0.539
69.88000 2.110
69.90000 1.127
69.92000 -0.691
69.94000 0.356
69.96000 0.854
69.98000 -1.117
70.00000 -1.565
70.02000 0.886
70.04000 -0.099
70.06000 -0.285
70.08000 1.924
70.10000 0.247
70.12000 -1.546
70.14000 -0.011
70.16000 0.492
70.18000 0.436
70.20000 0.283
70.22000 2.195
70.24000 1.309
70.26000 -0.803
70.28000 -1.611
70.30000 0.938
70.32000 -2.099
70.34000 -0.345
70.36000 0.510
70.38000 0.357
70.40000 2.015
70.42000 1.048
70.44000 -0.513
70.46000 0.225
70.48000 -0.233
70.50000 0.483
70.52000 1.136
70.54000 2.022
70.56000 0.014
70.58000 1.298
70.60000 0.802
70.62000 1.332
70.64000 3.440
70.66000 3.054
70.68000 1.201
70.70000 0.938
70.72000 1.139
70.74000 -2.073
70.76000 -0.249
70.78000 -0.956
70.80000 -1.134
70.82000 -0.307
70.84000 0.244
70.86000 1.647
70.88000 -1.478
70.90000 -1.476
70.92000 -1.028
70.94000 -1.252
70.96000 1.080
70.98000 1.788
71.00000 0.591
71.02000 4.690
71.04000 3.711
71.06000 2.963
71.08000 0.046
71.10000 -1.329
71.12000 -1.685
71.14000 -0.728
71.16000 -0.252
71.18000 0.855
71.20000 2.863
71.22000 3.203
71.24000 0.806
71.26000 0.693
71.28000 1.520
71.30000 -0.625
71.32000 0.533
71.34000 0.241
71.36000 0.692
71.38000 1.633
71.40000 2.775
71.42000 1.673
71.44000 0.986
71.46000 2.207
71.48000 0.877
71.50000 -2.031
71.52000 -1.026
71.54000 0.639
71.56000 1.550
71.58000 2.301
71.60000 1.344
71.62000 2.320
71.64000 3.166
71.66000 2.015
71.68000 -0.243
71.70000 0.700
71.72000 1.707
71.74000 0.980
71.76000 -0.084
71.78000 3.637
71.80000 1.061
71.82000 2.465
71.84000 1.713
71.86000 -1.342
71.88000 0.735
71.90000 2.708
71.92000 -0.669
71.94000 0.623
71.96000 2.527
71.98000 2.510
72.00000 3.437
72.02000 0.066
72.04000 -1.546
72.06000 0.828
72.08000 2.123
72.10000 2.448
72.12000 -1.247
72.14000 -1.469
72.16000 -0.624
72.18000 -0.133
72.20000 3.412
72.22000 4.508
72.24000 2.827
72.26000 2.961
72.28000 -2.013
72.30000 -2.020
72.32000 -0.936
72.34000 0.576
72.36000 3.489
72.38000 6.916
72.40000 5.639
72.42000 3.067
72.44000 1.264
72.46000 2.037
72.48000 4.006
72.50000 2.733
72.52000 -1.526
72.54000 -1.636
72.56000 0.640
72.58000 0.098
72.60000 -1.751
72.62000 -0.661
72.64000 0.617
72.66000 0.673
72.68000 0.189
72.70000 1.371
72.72000 1.657
72.74000 2.391
72.76000 -0.778
72.78000 -1.683
72.80000 0.565
72.82000 2.342
72.84000 0.074
72.86000 -0.251
72.88000 1.795
72.90000 0.406
72.92000 1.260
72.94000 -0.377
72.96000 -0.395
72.98000 1.514
73.00000 1.468
73.02000 1.324
73.04000 1.877
73.06000 1.857
73.08000 2.428
73.10000 0.750
73.12000 -0.044
73.14000 1.334
73.16000 2.654
73.18000 0.879
73.20000 0.051
73.22000 2.638
73.24000 2.935
73.26000 1.838
73.28000 -1.068
73.30000 -0.771
73.32000 3.181
73.34000 3.388
73.36000 4.488
73.38000 2.450
73.40000 1.535
73.42000 0.431
73.44000 -1.943
73.46000 1.951
73.48000 2.219
73.50000 0.928
73.52000 0.806
73.54000 2.790
73.56000 4.660
73.58000 3.605
73.60000 0.324
73.62000 -0.163
73.64000 1.926
73.66000 2.601
73.68000 2.159
73.70000 1.670
73.72000 0.927
73.74000 1.472
73.76000 1.432
73.78000 3.129
73.80000 3.954
73.82000 0.973
73.84000 0.557
73.86000 1.996
73.88000 1.350
73.90000 3.675
73.92000 2.800
73.94000 2.777
73.96000 -0.196
73.98000 -1.931
74.00000 -0.369
74.02000 0.696
74.04000 3.733
74.06000 2.350
74.08000 4.546
74.10000 6.647
74.12000 5.519
74.14000 6.605
74.16000 5.712
74.18000 2.615
74.20000 2.185
74.22000 0.194
74.24000 2.529
74.26000 5.667
74.28000 3.302
74.30000 3.566
74.32000 3.491
74.34000 2.695
74.36000 2.528
74.38000 1.052
74.40000 0.165
74.42000 1.024
74.44000 3.424
74.46000 1.722
74.48000 -1.936
74.50000 -1.337
74.52000 3.572
74.54000 3.286
74.56000 4.146
74.58000 2.803
74.60000 -1.139
74.62000 -0.607
74.64000 1.170
74.66000 0.438
74.68000 -0.091
74.70000 -0.577
74.72000 2.447
74.74000 2.356
74.76000 0.559
74.78000 2.212
74.80000 2.451
74.82000 -0.723
74.84000 1.419
74.86000 3.776
74.88000 4.657
74.90000 0.663
74.92000 2.044
74.94000 6.271
74.96000 1.570
74.98000 0.755
75.00000 -1.086
75.02000 -0.328
75.04000 2.762
75.06000 1.617
75.08000 -0.422
75.10000 0.770
75.12000 -1.069
75.14000 2.653
75.16000 4.495
75.18000 3.325
75.20000 -0.318
75.22000 -1.386
75.24000 -0.811
75.26000 2.411
75.28000 2.858
75.30000 0.527
75.32000 0.240
75.34000 -1.957
75.36000 -1.504
75.38000 0.759
75.40000 1.680
75.42000 2.634
75.44000 1.324
75.46000 1.274
75.48000 1.610
75.50000 3.691
75.52000 1.461
75.54000 0.186
75.56000 2.165
75.58000 1.064
75.60000 2.070
75.62000 1.665
75.64000 -0.419
75.66000 -0.480
75.68000 4.448
75.70000 1.371
75.72000 0.598
75.74000 3.773
75.76000 4.387
75.78000 -0.150
75.80000 -1.972
75.82000 1.290
75.84000 1.507
75.86000 1.379
75.88000 -0.443
75.90000 0.536
75.92000 0.000
75.94000 -0.742
75.96000 0.735
75.98000 1.606
76.00000 1.340
76.02000 2.105
76.04000 3.999
76.06000 4.676
76.08000 1.550
76.10000 -0.169
76.12000 4.499
76.14000 3.138
76.16000 0.868
76.18000 2.831
76.20000 3.617
76.22000 0.800
76.24000 2.257
76.26000 1.208
76.28000 1.623
76.30000 3.020
76.32000 3.791
76.34000 3.353
76.36000 -0.853
76.38000 -0.690
76.40000 0.136
76.42000 -1.113
76.44000 3.164
76.46000 1.593
76.48000 3.939
76.50000 3.986
76.52000 2.372
76.54000 -0.749
76.56000 1.495
76.58000 -1.988
76.60000 -1.542
76.62000 0.832
76.64000 0.811
76.66000 0.516
76.68000 1.631
76.70000 1.611
76.72000 -0.267
76.74000 3.915
76.76000 0.582
76.78000 -0.387
76.80000 0.816
76.82000 1.804
76.84000 -1.439
76.86000 -1.983
76.88000 0.050
76.90000 0.091
76.92000 1.030
76.94000 0.097
76.96000 2.762
76.98000 1.782
77.00000 0.533
77.02000 0.804
77.04000 -0.809
77.06000 -0.621
77.08000 1.086
77.10000 1.965
77.12000 4.812
77.14000 4.181
77.16000 3.735
77.18000 1.489
77.20000 0.816
77.22000 0.990
77.24000 -1.789
77.26000 -1.978
77.28000 -0.701
77.30000 2.730
77.32000 4.506
77.34000 3.693
77.36000 4.615
77.38000 0.387
77.40000 -1.062
77.42000 3.259
77.44000 3.532
77.46000 -0.130
77.48000 0.722
77.50000 1.588
77.52000 5.430
77.54000 4.458
77.56000 1.226
77.58000 0.558
77.60000 0.193
77.62000 0.244
77.64000 0.658
77.66000 1.067
77.68000 4.099
77.70000 1.554
77.72000 2.426
77.74000 2.879
77.76000 2.020
77.78000 -1.785
77.80000 -1.991
77.82000 0.308
77.84000 0.781
77.86000 1.273
77.88000 2.865
77.90000 1.647
77.92000 2.945
77.94000 3.642
77.96000 4.045
77.98000 3.027
78.00000 1.896
78.02000 -1.143
78.04000 -0.244
78.06000 0.616
78.08000 1.555
78.10000 -0.241
78.12000 -1.753
78.14000 -1.598
78.16000 -0.215
78.18000 3.424
78.20000 5.926
78.22000 3.310
78.24000 2.179
78.26000 -0.928
78.28000 0.645
78.30000 1.643
78.32000 0.121
78.34000 -0.870
78.36000 -0.189
78.38000 2.020
78.40000 1.968
78.42000 1.842
78.44000 1.965
78.46000 0.700
78.48000 0.611
78.50000 -1.360
78.52000 1.352
78.54000 3.755
78.56000 1.314
78.58000 0.631
78.60000 0.906
78.62000 1.778
78.64000 0.720
78.66000 1.083
78.68000 -2.026
78.70000 0.359
78.72000 3.753
78.74000 2.663
78.76000 3.173
78.78000 -0.879
78.80000 -0.470
78.82000 0.302
78.84000 0.889
78.86000 0.630
78.88000 1.620
78.90000 0.511
78.92000 -1.326
78.94000 3.749
78.96000 1.423
78.98000 3.687
79.00000 1.161
79.02000 1.384
79.04000 1.942
79.06000 1.511
79.08000 -1.770
79.10000 -0.454
79.12000 -0.496
79.14000 -1.312
79.16000 -1.106
79.18000 0.342
79.20000 0.067
79.22000 0.850
79.24000 2.206
79.26000 2.348
79.28000 3.950
79.30000 3.349
79.32000 3.642
79.34000 2.426
79.36000 -1.706
79.38000 -2.055
79.40000 -0.063
79.42000 2.602
79.44000 4.161
79.46000 4.518
79.48000 1.700
79.50000 1.166
79.52000 -0.549
79.54000 0.195
79.56000 1.121
79.58000 -0.629
79.60000 -0.277
79.62000 -2.070
79.64000 1.576
79.66000 -1.284
79.68000 -2.078
79.70000 0.773
79.72000 2.624
79.74000 3.683
79.76000 -0.880
79.78000 -1.606
79.80000 0.898
79.82000 1.500
79.84000 1.781
79.86000 3.494
79.88000 3.466
79.90000 0.169
79.92000 -1.086
79.94000 0.610
79.96000 1.160
79.98000 4.494
80.00000 3.443
80.02000 0.666
80.04000 -0.908
80.06000 -1.630
80.08000 -2.125
80.10000 -1.704
80.12000 1.419
80.14000 2.124
80.16000 0.389
80.18000 0.516
80.20000 -1.476
80.22000 0.099
80.24000 -0.692
80.26000 -0.524
80.28000 -1.073
80.30000 0.595
80.32000 1.379
80.34000 -1.039
80.36000 0.557
80.38000 -0.092
80.40000 1.392
80.42000 1.787
80.44000 -0.648
80.46000 0.673
80.48000 2.124
80.50000 -1.242
80.52000 4.324
80.54000 3.645
80.56000 3.253
80.58000 5.510
80.60000 4.094
80.62000 4.631
80.64000 6.170
80.66000 6.642
80.68000 8.036
80.70000 5.917
80.72000 2.531
80.74000 3.653
80.76000 3.883
80.78000 3.668
80.80000 2.753
80.82000 5.254
80.84000 6.088
80.86000 2.046
80.88000 6.059
80.90000 6.730
80.92000 7.096
80.94000 6.340
80.96000 10.404
80.98000 9.669
81.00000 8.520
81.02000 6.682
81.04000 9.269
81.06000 8.502
81.08000 8.887
81.10000 10.630
81.12000 10.609
81.14000 8.766
81.16000 10.137
81.18000 9.836
81.20000 11.478
81.22000 16.839
81.24000 17.754
81.26000 11.770
81.28000 11.612
81.30000 11.620
81.32000 12.452
81.34000 13.293
81.36000 13.765
81.38000 15.911
81.40000 15.986
81.42000 15.664
81.44000 12.216
81.46000 18.100
81.48000 21.376
81.50000 17.656
81.52000 19.368
81.54000 23.324
81.56000 21.282
81.58000 17.753
81.60000 17.775
81.62000 17.061
81.64000 16.328
81.66000 17.528
81.68000 19.556
81.70000 22.070
81.72000 22.633
81.74000 17.664
81.76000 19.259
81.78000 21.017
81.80000 21.268
81.82000 19.021
81.84000 18.347
81.86000 18.483
81.88000 17.880
81.90000 18.392
81.92000 16.350
81.94000 19.999
81.96000 19.515
81.98000 17.602
82.00000 19.852
82.02000 20.966
82.04000 19.278
82.06000 20.642
82.08000 18.698
82.10000 15.559
82.12000 17.645
82.14000 15.131
82.16000 13.829
82.18000 15.289
82.20000 14.447
82.22000 13.787
82.24000 15.137
82.26000 11.827
82.28000 10.755
82.30000 14.091
82.32000 14.889
82.34000 13.068
82.36000 9.375
82.38000 6.425
82.40000 8.364
82.42000 10.935
82.44000 8.570
82.46000 9.064
82.48000 10.468
82.50000 12.365
82.52000 9.658
82.54000 10.904
82.56000 11.609
82.58000 12.441
82.60000 12.365
82.62000 7.020
82.64000 10.677
82.66000 6.688
82.68000 1.288
82.70000 3.169
82.72000 6.067
82.74000 7.325
82.76000 5.861
82.78000 2.673
82.80000 0.849
82.82000 5.612
82.84000 4.272
82.86000 3.324
82.88000 1.727
82.90000 4.947
82.92000 4.601
82.94000 5.711
82.96000 3.467
82.98000 3.897
83.00000 1.204
83.02000 0.147
83.04000 0.944
83.06000 3.112
83.08000 1.873
83.10000 1.289
83.12000 2.661
83.14000 2.643
83.16000 -2.128
83.18000 2.400
83.20000 0.856
83.22000 -0.094
83.24000 -0.601
83.26000 1.155
83.28000 0.017
83.30000 0.929
83.32000 3.192
83.34000 1.621
83.36000 3.159
83.38000 3.848
83.40000 3.706
83.42000 3.954
83.44000 2.624
83.46000 -0.871
83.48000 -2.086
83.50000 1.157
83.52000 3.682
83.54000 1.991
83.56000 2.753
83.58000 2.660
83.60000 0.266
83.62000 -1.812
83.64000 1.044
83.66000 3.258
83.68000 0.903
83.70000 0.848
83.72000 2.692
83.74000 2.548
83.76000 2.799
83.78000 5.499
83.80000 1.989
83.82000 -0.149
83.84000 0.895
83.86000 2.371
83.88000 -0.985
83.90000 0.342
83.92000 3.068
83.94000 2.516
83.96000 0.658
83.98000 0.696
84.00000 2.131
84.02000 1.964
84.04000 5.849
84.06000 5.420
84.08000 1.710
84.10000 1.953
84.12000 2.300
84.14000 3.152
84.16000 -1.770
84.18000 -2.089
84.20000 3.892
84.22000 2.286
84.24000 2.325
84.26000 3.275
84.28000 0.831
84.30000 -0.582
84.32000 1.899
84.34000 4.066
84.36000 3.157
84.38000 2.916
84.40000 5.243
84.42000 4.462
84.44000 3.020
84.46000 0.135
84.48000 -0.178
84.50000 1.992
84.52000 3.163
84.54000 0.725
84.56000 0.556
84.58000 0.806
84.60000 0.364
84.62000 3.762
84.64000 2.385
84.66000 3.246
84.68000 6.003
84.70000 1.669
84.72000 0.212
84.74000 4.359
84.76000 1.672
84.78000 2.736
84.80000 2.810
84.82000 2.139
84.84000 3.436
84.86000 3.882
84.88000 4.894
84.90000 4.179
84.92000 6.449
84.94000 5.416
84.96000 0.809
84.98000 1.248
85.00000 5.183
85.02000 4.682
85.04000 5.794
85.06000 6.830
85.08000 9.316
85.10000 6.521
85.12000 5.503
85.14000 4.161
85.16000 7.945
85.18000 7.933
85.20000 7.916
85.22000 7.744
85.24000 8.243
85.26000 8.092
85.28000 6.947
85.30000 11.403
85.32000 12.411
85.34000 11.876
85.36000 8.566
85.38000 5.746
85.40000 8.193
85.42000 12.005
85.44000 13.074
85.46000 14.963
85.48000 14.596
85.50000 13.182
85.52000 11.743
85.54000 14.917
85.56000 17.373
85.58000 18.116
85.60000 14.132
85.62000 12.712
85.64000 12.195
85.66000 15.644
85.68000 15.460
85.70000 18.857
85.72000 18.443
85.74000 18.279
85.76000 18.350
85.78000 15.293
85.80000 17.514
85.82000 17.542
85.84000 20.819
85.86000 19.753
85.88000 16.849
85.90000 16.936
85.92000 17.004
85.94000 15.226
85.96000 16.822
85.98000 19.857
86.00000 20.449
86.02000 22.021
86.04000 17.908
86.06000 13.622
86.08000 16.488
86.10000 17.322
86.12000 15.072
86.14000 11.981
86.16000 11.042
86.18000 9.666
86.20000 10.784
86.22000 13.804
86.24000 13.316
86.26000 11.802
86.28000 10.244
86.30000 12.038
86.32000 11.696
86.34000 10.353
86.36000 10.141
86.38000 13.498
86.40000 11.777
86.42000 11.740
86.44000 10.303
86.46000 6.814
86.48000 7.426
86.50000 7.109
86.52000 9.615
86.54000 8.685
86.56000 1.778
86.58000 5.178
86.60000 6.740
86.62000 7.454
86.64000 7.315
86.66000 5.531
86.68000 5.345
86.70000 4.367
86.72000 4.210
86.74000 5.731
86.76000 5.488
86.78000 5.734
86.80000 3.631
86.82000 2.750
86.84000 0.922
86.86000 -0.295
86.88000 0.681
86.90000 2.377
86.92000 3.091
86.94000 3.064
86.96000 2.276
86.98000 0.573
87.00000 0.355
87.02000 2.762
87.04000 2.925
87.06000 -0.046
87.08000 -2.010
87.10000 -0.082
87.12000 -0.340
87.14000 0.236
87.16000 -0.739
87.18000 -0.347
87.20000 1.979
87.22000 1.057
87.24000 2.184
87.26000 2.124
87.28000 1.701
87.30000 1.902
87.32000 1.073
87.34000 0.262
87.36000 -1.106
87.38000 -1.515
87.40000 -0.057
87.42000 0.829
87.44000 0.303
87.46000 0.414
87.48000 -0.003
87.50000 1.238
87.52000 1.894
87.54000 3.555
87.56000 1.329
87.58000 4.055
87.60000 0.541
87.62000 1.043
87.64000 -0.651
87.66000 1.892
87.68000 1.588
87.70000 2.173
87.72000 3.883
87.74000 0.491
87.76000 -0.580
87.78000 1.289
87.80000 1.492
87.82000 -0.593
87.84000 -1.892
87.86000 -1.073
87.88000 -0.735
87.90000 2.918
87.92000 1.706
87.94000 0.243
87.96000 -0.314
87.98000 3.391
88.00000 3.495
88.02000 2.468
88.04000 1.342
88.06000 3.059
88.08000 5.002
88.10000 4.634
88.12000 -0.547
88.14000 -1.633
88.16000 0.430
88.18000 3.179
88.20000 3.680
88.22000 2.418
88.24000 3.878
88.26000 1.495
88.28000 2.556
88.30000 2.927
88.32000 0.988
88.34000 1.250
88.36000 1.716
88.38000 1.632
88.40000 -1.834
88.42000 3.771
88.44000 6.757
88.46000 4.413
88.48000 3.008
88.50000 0.683
88.52000 0.851
88.54000 3.297
88.56000 2.336
88.58000 0.570
88.60000 1.321
88.62000 2.397
88.64000 3.101
88.66000 2.736
88.68000 4.529
88.70000 3.711
88.72000 1.529
88.74000 -1.818
88.76000 -0.038
88.78000 2.479
88.80000 2.028
88.82000 3.071
88.84000 5.042
88.86000 3.963
88.88000 2.894
88.90000 1.705
88.92000 1.059
88.94000 2.543
88.96000 0.750
88.98000 2.076
89.00000 1.067
89.02000 -1.829
89.04000 1.846
89.06000 2.257
89.08000 3.890
89.10000 2.915
89.12000 2.878
89.14000 3.134
89.16000 1.365
89.18000 3.308
89.20000 6.561
89.22000 3.864
89.24000 2.559
89.26000 3.440
89.28000 2.909
89.30000 3.444
89.32000 4.260
89.34000 1.775
89.36000 0.653
89.38000 0.923
89.40000 2.219
89.42000 2.727
89.44000 2.352
89.46000 2.355
89.48000 3.041
89.50000 3.175
89.52000 5.600
89.54000 3.973
89.56000 4.631
89.58000 4.554
89.60000 3.628
89.62000 1.640
89.64000 3.655
89.66000 2.468
89.68000 1.618
89.70000 1.004
89.72000 2.146
89.74000 1.748
89.76000 2.933
89.78000 1.087
89.80000 1.474
89.82000 -1.826
89.84000 -0.266
89.86000 3.511
89.88000 2.582
89.90000 2.533
89.92000 0.209
89.94000 1.741
89.96000 2.122
89.98000 1.019
90.00000 0.963
90.02000 2.264
90.04000 2.297
90.06000 2.096
90.08000 4.054
90.10000 3.272
90.12000 3.999
90.14000 3.320
90.16000 2.200
90.18000 2.706
90.20000 2.773
90.22000 3.066
90.24000 3.319
90.26000 3.370
90.28000 0.950
90.30000 -1.832
90.32000 -1.496
90.34000 -0.869
90.36000 3.407
90.38000 4.471
90.40000 4.778
90.42000 2.340
90.44000 3.757
90.46000 1.049
90.48000 1.185
90.50000 1.147
90.52000 3.197
90.54000 4.978
90.56000 6.757
90.58000 5.448
90.60000 3.546
90.62000 1.501
90.64000 1.012
90.66000 0.413
90.68000 3.132
90.70000 0.605
90.72000 2.162
90.74000 1.022
90.76000 0.758
90.78000 -0.071
90.80000 2.429
90.82000 3.271
90.84000 3.284
90.86000 1.510
90.88000 0.379
90.90000 2.555
90.92000 2.400
90.94000 3.232
90.96000 -0.987
90.98000 -0.549
91.00000 0.473
91.02000 2.533
91.04000 6.556
91.06000 6.433
91.08000 4.607
91.10000 -0.107
91.12000 -0.504
91.14000 2.151
91.16000 4.531
91.18000 4.870
91.20000 5.462
91.22000 7.066
91.24000 4.707
91.26000 1.840
91.28000 -0.427
91.30000 1.910
91.32000 5.209
91.34000 5.073
91.36000 2.579
91.38000 0.512
91.40000 0.040
91.42000 -1.821
91.44000 0.941
91.46000 4.150
91.48000 4.512
91.50000 5.423
91.52000 3.156
91.54000 1.787
91.56000 -1.827
91.58000 -0.098
91.60000 0.640
91.62000 1.742
91.64000 2.322
91.66000 3.529
91.68000 2.377
91.70000 3.279
91.72000 2.327
91.74000 3.855
91.76000 3.334
91.78000 5.368
91.80000 2.563
91.82000 5.561
91.84000 0.496
91.86000 1.456
91.88000 2.628
91.90000 3.597
91.92000 -0.457
91.94000 1.137
91.96000 2.003
91.98000 0.830
92.00000 -0.213
92.02000 3.163
92.04000 3.694
92.06000 1.346
92.08000 4.611
92.10000 1.915
92.12000 -0.989
92.14000 0.419
92.16000 0.273
92.18000 1.158
92.20000 1.130
92.22000 2.429
92.24000 3.547
92.26000 2.673
92.28000 -0.789
92.30000 -0.977
92.32000 -1.318
92.34000 -1.851
92.36000 1.326
92.38000 1.272
92.40000 1.016
92.42000 2.565
92.44000 1.788
92.46000 2.335
92.48000 5.453
92.50000 2.974
92.52000 2.957
92.54000 -0.857
92.56000 1.013
92.58000 0.103
92.60000 0.245
92.62000 1.018
92.64000 2.792
92.66000 2.473
92.68000 3.726
92.70000 2.686
92.72000 1.177
92.74000 2.794
92.76000 3.296
92.78000 2.927
92.80000 3.057
92.82000 5.076
92.84000 4.799
92.86000 3.533
92.88000 -1.864
92.90000 0.350
92.92000 1.459
92.94000 1.612
92.96000 1.183
92.98000 -0.331
93.00000 -1.003
93.02000 -0.080
93.04000 0.406
93.06000 1.394
93.08000 1.038
93.10000 4.875
93.12000 2.177
93.14000 -0.736
93.16000 -1.864
93.18000 1.935
93.20000 2.144
93.22000 -0.259
93.24000 0.035
93.26000 1.086
93.28000 -1.351
93.30000 0.154
93.32000 -0.665
93.34000 -0.082
93.36000 -0.669
93.38000 -1.364
93.40000 0.195
93.42000 6.234
93.44000 0.910
93.46000 -0.192
93.48000 4.476
93.50000 6.126
93.52000 2.527
93.54000 2.305
93.56000 -0.343
93.58000 0.691
93.60000 -1.802
93.62000 1.135
93.64000 3.320
93.66000 2.023
93.68000 -1.775
93.70000 0.995
93.72000 2.883
93.74000 0.484
93.76000 3.187
93.78000 1.979
93.80000 2.453
93.82000 2.557
93.84000 2.583
93.86000 1.493
93.88000 -0.100
93.90000 -0.081
93.92000 -1.845
93.94000 -0.049
93.96000 3.547
93.98000 0.499
94.00000 2.383
94.02000 -0.022
94.04000 -1.589
94.06000 -1.846
94.08000 1.321
94.10000 2.261
94.12000 1.930
94.14000 1.760
94.16000 0.544
94.18000 1.611
94.20000 -0.263
94.22000 -1.430
94.24000 0.853
94.26000 4.800
94.28000 3.216
94.30000 2.489
94.32000 4.128
94.34000 2.664
94.36000 5.354
94.38000 4.069
94.40000 2.972
94.42000 3.740
94.44000 2.651
94.46000 2.399
94.48000 -0.656
94.50000 -0.035
94.52000 0.066
94.54000 1.388
94.56000 1.356
94.58000 5.605
94.60000 4.230
94.62000 4.024
94.64000 4.253
94.66000 1.124
94.68000 0.015
94.70000 1.313
94.72000 1.091
94.74000 0.184
94.76000 0.885
94.78000 0.770
94.80000 2.731
94.82000 5.065
94.84000 3.253
94.86000 2.164
94.88000 2.780
94.90000 1.876
94.92000 2.464
94.94000 2.220
94.96000 3.452
94.98000 4.252
95.00000 5.600
95.02000 4.174
95.04000 0.910
95.06000 2.284
95.08000 4.452
95.10000 2.832
95.12000 3.139
95.14000 4.308
95.16000 2.649
95.18000 3.449
95.20000 2.758
95.22000 2.589
95.24000 0.789
95.26000 -1.825
95.28000 2.665
95.30000 4.064
95.32000 7.153
95.34000 4.459
95.36000 5.243
95.38000 6.570
95.40000 5.597
95.42000 0.754
95.44000 1.449
95.46000 1.434
95.48000 0.691
95.50000 2.200
95.52000 3.176
95.54000 3.982
95.56000 5.399
95.58000 5.461
95.60000 0.949
95.62000 -0.111
95.64000 -1.419
95.66000 -0.104
95.68000 7.990
95.70000 2.983
95.72000 5.282
95.74000 2.761
95.76000 4.164
95.78000 3.455
95.80000 3.156
95.82000 3.726
95.84000 2.982
95.86000 0.416
95.88000 2.620
95.90000 5.105
95.92000 3.358
95.94000 5.070
95.96000 2.797
95.98000 1.408
96.00000 5.487
96.02000 3.435
96.04000 0.455
96.06000 1.358
96.08000 -1.603
96.10000 4.491
96.12000 2.125
96.14000 -1.839
96.16000 6.086
96.18000 6.363
96.20000 7.064
96.22000 4.335
96.24000 4.519
96.26000 2.018
96.28000 3.108
96.30000 6.664
96.32000 5.520
96.34000 3.100
96.36000 5.806
96.38000 4.696
96.40000 4.512
96.42000 -1.829
96.44000 1.012
96.46000 4.026
96.48000 6.169
96.50000 5.756
96.52000 4.095
96.54000 2.715
96.56000 5.135
96.58000 5.714
96.60000 6.095
96.62000 2.075
96.64000 5.229
96.66000 5.896
96.68000 4.690
96.70000 2.412
96.72000 2.526
96.74000 4.712
96.76000 4.107
96.78000 1.712
96.80000 -0.399
96.82000 0.847
96.84000 2.528
96.86000 7.085
96.88000 5.835
96.90000 5.126
96.92000 -1.365
96.94000 2.905
96.96000 8.085
96.98000 4.863
97.00000 -0.047
97.02000 0.545
97.04000 1.728
97.06000 2.898
97.08000 8.125
97.10000 1.464
97.12000 0.295
97.14000 -0.134
97.16000 0.924
97.18000 2.613
97.20000 1.511
97.22000 5.011
97.24000 6.163
97.26000 5.765
97.28000 2.846
97.30000 2.128
97.32000 0.504
97.34000 -1.290
97.36000 -0.493
97.38000 -1.199
97.40000 2.229
97.42000 2.002
97.44000 -0.515
97.46000 0.738
97.48000 4.009
97.50000 3.836
97.52000 2.387
97.54000 2.652
97.56000 5.381
97.58000 5.053
97.60000 7.042
97.62000 4.067
97.64000 0.169
97.66000 4.851
97.68000 1.950
97.70000 6.538
97.72000 5.457
97.74000 6.749
97.76000 4.669
97.78000 1.971
97.80000 2.115
97.82000 5.740
97.84000 7.435
97.86000 6.094
97.88000 6.338
97.90000 4.725
97.92000 0.626
97.94000 3.376
97.96000 5.008
97.98000 6.664
98.00000 5.506
98.02000 7.234
98.04000 6.294
98.06000 8.645
98.08000 2.969
98.10000 0.579
98.12000 0.956
98.14000 1.562
98.16000 2.353
98.18000 4.972
98.20000 6.810
98.22000 4.661
98.24000 8.006
98.26000 9.236
98.28000 4.032
98.30000 7.108
98.32000 12.730
98.34000 13.608
98.36000 7.295
98.38000 1.773
98.40000 3.137
98.42000 1.537
98.44000 -1.754
98.46000 0.096
98.48000 4.876
98.50000 6.121
98.52000 7.349
98.54000 8.467
98.56000 8.102
98.58000 7.039
98.60000 7.514
98.62000 2.718
98.64000 4.081
98.66000 8.296
98.68000 8.551
98.70000 4.122
98.72000 6.559
98.74000 6.982
98.76000 4.944
98.78000 7.665
98.80000 4.185
98.82000 5.379
98.84000 6.081
98.86000 3.273
98.88000 2.490
98.90000 1.743
98.92000 9.385
98.94000 16.678
98.96000 7.764
98.98000 4.844
99.00000 6.769
99.02000 8.004
99.04000 2.369
99.06000 2.812
99.08000 -0.485
99.10000 -0.406
99.12000 -1.385
99.14000 1.489
99.16000 1.757
99.18000 -0.833
99.20000 0.194
99.22000 1.696
99.24000 1.807
99.26000 4.816
99.28000 3.467
99.30000 5.837
99.32000 8.705
99.34000 3.768
99.36000 5.115
99.38000 9.624
99.40000 9.263
99.42000 3.151
99.44000 5.240
99.46000 4.369
99.48000 0.008
99.50000 -1.804
99.52000 5.809
99.54000 15.880
99.56000 10.109
99.58000 -2.512
99.60000 0.786
99.62000 5.780
99.64000 6.617
99.66000 4.673
99.68000 2.554
99.70000 4.961
99.72000 6.048
99.74000 3.872
99.76000 -1.632
99.78000 4.882
99.80000 2.970
99.82000 -3.655
99.84000 6.468
99.86000 9.873
99.88000 8.666
99.90000 6.893
99.92000 8.693
99.94000 5.553
99.96000 7.849
99.98000 0.000
