'Id: "0011387" Comment: "Integrate frame 0011387_Au-Ir-Rh_Rh-rich_XRD-Mapping-241-0000.gfrmwith cursor Wedge Cursor #5" Operator: "B?rgel" Anode: "Cu" Wavelength: "1.5406" Scantype: "2Theta (TwoTheta)" TimePerStep: "1" X: "-40.5" Y: "18" Z: "5.95" 
10.00000 0.000
10.02000 3.285
10.04000 -0.167
10.06000 -4.519
10.08000 0.993
10.10000 23.015
10.12000 18.086
10.14000 15.458
10.16000 34.569
10.18000 20.077
10.20000 5.090
10.22000 5.916
10.24000 11.667
10.26000 6.743
10.28000 10.972
10.30000 10.670
10.32000 11.461
10.34000 4.970
10.36000 -2.939
10.38000 12.251
10.40000 29.884
10.42000 17.901
10.44000 24.860
10.46000 21.872
10.48000 14.002
10.50000 15.490
10.52000 25.457
10.54000 18.012
10.56000 9.145
10.58000 22.710
10.60000 31.453
10.62000 30.158
10.64000 29.962
10.66000 29.929
10.68000 28.003
10.70000 20.173
10.72000 8.495
10.74000 9.448
10.76000 3.762
10.78000 8.952
10.80000 17.655
10.82000 -0.729
10.84000 21.595
10.86000 33.826
10.88000 20.221
10.90000 13.833
10.92000 20.313
10.94000 19.342
10.96000 14.531
10.98000 10.033
11.00000 22.129
11.02000 21.324
11.04000 17.840
11.06000 19.523
11.08000 11.400
11.10000 8.631
11.12000 5.880
11.14000 -4.504
11.16000 -0.814
11.18000 -1.668
11.20000 11.751
11.22000 15.597
11.24000 17.829
11.26000 13.323
11.28000 14.051
11.30000 25.026
11.32000 32.312
11.34000 16.552
11.36000 8.974
11.38000 15.961
11.40000 11.718
11.42000 17.760
11.44000 22.262
11.46000 18.517
11.48000 9.690
11.50000 -0.155
11.52000 2.704
11.54000 17.559
11.56000 20.732
11.58000 22.216
11.60000 20.500
11.62000 17.268
11.64000 4.531
11.66000 6.838
11.68000 11.785
11.70000 12.908
11.72000 16.017
11.74000 21.617
11.76000 25.837
11.78000 19.627
11.80000 14.547
11.82000 9.288
11.84000 3.488
11.86000 11.857
11.88000 17.089
11.90000 0.410
11.92000 2.610
11.94000 10.912
11.96000 15.759
11.98000 10.345
12.00000 10.496
12.02000 7.474
12.04000 12.453
12.06000 13.329
12.08000 9.126
12.10000 3.162
12.12000 3.412
12.14000 14.170
12.16000 9.059
12.18000 10.254
12.20000 12.886
12.22000 9.883
12.24000 14.553
12.26000 4.547
12.28000 7.915
12.30000 13.369
12.32000 2.693
12.34000 4.957
12.36000 4.089
12.38000 -4.290
12.40000 1.518
12.42000 4.273
12.44000 -2.283
12.46000 9.702
12.48000 12.670
12.50000 12.200
12.52000 14.505
12.54000 20.592
12.56000 4.842
12.58000 12.897
12.60000 18.460
12.62000 13.270
12.64000 6.897
12.66000 10.732
12.68000 6.664
12.70000 4.555
12.72000 -1.280
12.74000 -2.262
12.76000 3.155
12.78000 5.438
12.80000 10.244
12.82000 12.608
12.84000 8.719
12.86000 7.052
12.88000 2.230
12.90000 8.606
12.92000 7.839
12.94000 11.401
12.96000 2.294
12.98000 11.221
13.00000 5.988
13.02000 8.404
13.04000 10.886
13.06000 -0.135
13.08000 -4.541
13.10000 2.879
13.12000 9.920
13.14000 8.681
13.16000 9.558
13.18000 12.672
13.20000 17.760
13.22000 8.646
13.24000 11.103
13.26000 5.939
13.28000 6.059
13.30000 4.205
13.32000 9.122
13.34000 4.746
13.36000 4.107
13.38000 6.904
13.40000 11.801
13.42000 5.784
13.44000 8.547
13.46000 9.536
13.48000 10.001
13.50000 10.637
13.52000 11.429
13.54000 19.424
13.56000 16.535
13.58000 6.577
13.60000 4.786
13.62000 17.559
13.64000 10.413
13.66000 -0.297
13.68000 5.870
13.70000 -0.797
13.72000 2.538
13.74000 6.763
13.76000 13.126
13.78000 7.880
13.80000 1.757
13.82000 -1.757
13.84000 1.727
13.86000 9.144
13.88000 20.282
13.90000 10.197
13.92000 3.862
13.94000 4.867
13.96000 5.600
13.98000 5.962
14.00000 6.547
14.02000 7.750
14.04000 10.316
14.06000 10.206
14.08000 3.325
14.10000 3.837
14.12000 3.036
14.14000 11.378
14.16000 16.220
14.18000 17.373
14.20000 11.354
14.22000 4.242
14.24000 9.211
14.26000 14.271
14.28000 15.074
14.30000 10.321
14.32000 2.903
14.34000 4.198
14.36000 1.014
14.38000 -0.869
14.40000 8.235
14.42000 6.821
14.44000 0.386
14.46000 0.772
14.48000 -4.358
14.50000 -1.109
14.52000 7.357
14.54000 3.238
14.56000 -3.894
14.58000 5.866
14.60000 15.004
14.62000 20.306
14.64000 10.919
14.66000 -1.478
14.68000 1.447
14.70000 1.457
14.72000 8.470
14.74000 10.627
14.76000 10.376
14.78000 0.467
14.80000 4.683
14.82000 -4.328
14.84000 -0.365
14.86000 1.110
14.88000 6.549
14.90000 2.462
14.92000 7.616
14.94000 4.734
14.96000 -4.456
14.98000 12.689
15.00000 18.826
15.02000 4.771
15.04000 6.672
15.06000 16.294
15.08000 11.950
15.10000 3.745
15.12000 4.380
15.14000 3.344
15.16000 3.840
15.18000 0.761
15.20000 7.277
15.22000 5.788
15.24000 6.864
15.26000 11.447
15.28000 13.864
15.30000 15.983
15.32000 11.375
15.34000 8.566
15.36000 11.270
15.38000 7.150
15.40000 7.226
15.42000 11.564
15.44000 13.649
15.46000 18.115
15.48000 20.391
15.50000 20.391
15.52000 13.023
15.54000 5.669
15.56000 7.453
15.58000 7.912
15.60000 5.759
15.62000 9.857
15.64000 9.400
15.66000 14.422
15.68000 10.824
15.70000 8.107
15.72000 1.557
15.74000 6.505
15.76000 11.228
15.78000 7.409
15.80000 6.317
15.82000 1.782
15.84000 10.459
15.86000 6.776
15.88000 1.823
15.90000 8.643
15.92000 5.961
15.94000 8.719
15.96000 13.213
15.98000 11.118
16.00000 7.098
16.02000 6.983
16.04000 10.860
16.06000 18.254
16.08000 25.947
16.10000 18.575
16.12000 14.367
16.14000 19.662
16.16000 14.824
16.18000 8.225
16.20000 14.084
16.22000 11.415
16.24000 15.872
16.26000 13.078
16.28000 12.635
16.30000 13.973
16.32000 11.775
16.34000 8.086
16.36000 13.879
16.38000 11.646
16.40000 8.885
16.42000 12.594
16.44000 16.347
16.46000 14.357
16.48000 11.139
16.50000 16.233
16.52000 10.585
16.54000 3.639
16.56000 -4.329
16.58000 4.045
16.60000 16.144
16.62000 19.768
16.64000 17.243
16.66000 10.985
16.68000 10.997
16.70000 10.168
16.72000 16.195
16.74000 13.159
16.76000 10.182
16.78000 13.795
16.80000 12.898
16.82000 14.571
16.84000 10.463
16.86000 9.695
16.88000 6.323
16.90000 7.761
16.92000 10.784
16.94000 12.916
16.96000 16.039
16.98000 10.348
17.00000 13.000
17.02000 13.055
17.04000 7.248
17.06000 12.011
17.08000 13.312
17.10000 5.603
17.12000 14.760
17.14000 13.095
17.16000 6.514
17.18000 0.566
17.20000 1.598
17.22000 3.432
17.24000 2.490
17.26000 1.140
17.28000 11.804
17.30000 13.790
17.32000 11.028
17.34000 17.646
17.36000 11.105
17.38000 1.814
17.40000 3.992
17.42000 16.987
17.44000 17.674
17.46000 12.193
17.48000 7.415
17.50000 12.577
17.52000 12.376
17.54000 8.091
17.56000 5.224
17.58000 10.710
17.60000 13.029
17.62000 14.327
17.64000 12.648
17.66000 13.749
17.68000 7.660
17.70000 10.131
17.72000 15.261
17.74000 10.034
17.76000 4.789
17.78000 2.179
17.80000 1.720
17.82000 0.336
17.84000 3.650
17.86000 3.428
17.88000 2.363
17.90000 10.056
17.92000 6.102
17.94000 -0.173
17.96000 2.325
17.98000 5.128
18.00000 7.013
18.02000 10.453
18.04000 2.272
18.06000 4.285
18.08000 3.753
18.10000 1.315
18.12000 4.756
18.14000 4.527
18.16000 10.137
18.18000 9.735
18.20000 6.627
18.22000 4.543
18.24000 1.670
18.26000 11.462
18.28000 11.456
18.30000 3.165
18.32000 7.433
18.34000 8.577
18.36000 10.701
18.38000 13.021
18.40000 3.085
18.42000 5.848
18.44000 10.815
18.46000 1.395
18.48000 -2.929
18.50000 2.453
18.52000 0.964
18.54000 5.229
18.56000 3.270
18.58000 -4.290
18.60000 -3.053
18.62000 -3.298
18.64000 1.246
18.66000 6.709
18.68000 3.801
18.70000 -0.875
18.72000 -2.241
18.74000 -2.097
18.76000 5.101
18.78000 6.820
18.80000 2.442
18.82000 -3.519
18.84000 -0.520
18.86000 4.899
18.88000 5.451
18.90000 6.791
18.92000 6.308
18.94000 6.043
18.96000 12.241
18.98000 10.969
19.00000 6.255
19.02000 2.214
19.04000 5.348
19.06000 11.096
19.08000 8.045
19.10000 5.091
19.12000 5.654
19.14000 -0.778
19.16000 6.646
19.18000 7.111
19.20000 4.763
19.22000 4.670
19.24000 6.305
19.26000 13.466
19.28000 4.958
19.30000 -4.266
19.32000 1.033
19.34000 8.202
19.36000 6.807
19.38000 1.106
19.40000 0.424
19.42000 0.691
19.44000 3.736
19.46000 0.532
19.48000 -1.137
19.50000 1.538
19.52000 1.119
19.54000 6.863
19.56000 14.035
19.58000 8.815
19.60000 0.650
19.62000 1.126
19.64000 0.169
19.66000 -0.473
19.68000 1.772
19.70000 1.976
19.72000 2.776
19.74000 0.427
19.76000 6.746
19.78000 15.279
19.80000 6.867
19.82000 6.300
19.84000 10.173
19.86000 9.593
19.88000 8.565
19.90000 9.262
19.92000 5.275
19.94000 1.481
19.96000 0.103
19.98000 1.978
20.00000 4.531
20.02000 5.290
20.04000 3.022
20.06000 2.624
20.08000 1.816
20.10000 10.183
20.12000 9.786
20.14000 4.993
20.16000 -0.825
20.18000 1.152
20.20000 -4.215
20.22000 -2.536
20.24000 4.429
20.26000 4.022
20.28000 5.416
20.30000 8.713
20.32000 10.079
20.34000 3.398
20.36000 2.377
20.38000 -1.206
20.40000 1.111
20.42000 4.267
20.44000 7.452
20.46000 5.356
20.48000 0.698
20.50000 10.416
20.52000 12.649
20.54000 3.722
20.56000 9.745
20.58000 12.026
20.60000 6.143
20.62000 2.400
20.64000 7.282
20.66000 9.053
20.68000 9.707
20.70000 4.243
20.72000 6.060
20.74000 12.616
20.76000 3.477
20.78000 1.927
20.80000 4.309
20.82000 4.078
20.84000 3.897
20.86000 -2.277
20.88000 2.597
20.90000 11.887
20.92000 1.475
20.94000 0.903
20.96000 0.745
20.98000 3.307
21.00000 3.564
21.02000 6.855
21.04000 7.828
21.06000 6.376
21.08000 8.252
21.10000 6.230
21.12000 6.075
21.14000 2.551
21.16000 -2.116
21.18000 4.962
21.20000 4.106
21.22000 1.119
21.24000 5.727
21.26000 6.388
21.28000 7.936
21.30000 7.984
21.32000 10.435
21.34000 10.402
21.36000 12.001
21.38000 9.454
21.40000 8.786
21.42000 7.968
21.44000 8.969
21.46000 12.265
21.48000 9.987
21.50000 4.220
21.52000 5.373
21.54000 4.160
21.56000 8.722
21.58000 1.631
21.60000 5.415
21.62000 12.955
21.64000 12.677
21.66000 8.788
21.68000 3.865
21.70000 7.883
21.72000 12.909
21.74000 7.000
21.76000 3.545
21.78000 -1.211
21.80000 -4.095
21.82000 -1.317
21.84000 -1.816
21.86000 -2.522
21.88000 -2.376
21.90000 -1.293
21.92000 1.148
21.94000 6.213
21.96000 14.741
21.98000 3.275
22.00000 5.046
22.02000 10.019
22.04000 7.638
22.06000 8.652
22.08000 3.718
22.10000 9.525
22.12000 4.417
22.14000 4.827
22.16000 8.318
22.18000 6.379
22.20000 4.949
22.22000 4.357
22.24000 0.870
22.26000 1.075
22.28000 5.263
22.30000 5.830
22.32000 8.110
22.34000 7.731
22.36000 7.292
22.38000 1.194
22.40000 6.305
22.42000 0.993
22.44000 -1.714
22.46000 -0.214
22.48000 0.504
22.50000 0.149
22.52000 5.086
22.54000 1.482
22.56000 0.907
22.58000 6.395
22.60000 6.960
22.62000 7.186
22.64000 4.213
22.66000 4.057
22.68000 1.986
22.70000 3.949
22.72000 2.414
22.74000 0.250
22.76000 6.604
22.78000 5.886
22.80000 8.737
22.82000 8.345
22.84000 4.236
22.86000 8.764
22.88000 3.948
22.90000 0.293
22.92000 4.165
22.94000 5.457
22.96000 3.036
22.98000 3.680
23.00000 3.809
23.02000 5.792
23.04000 -1.343
23.06000 -3.235
23.08000 0.762
23.10000 1.266
23.12000 -0.277
23.14000 -1.004
23.16000 2.582
23.18000 2.420
23.20000 -1.013
23.22000 2.987
23.24000 4.316
23.26000 8.715
23.28000 4.321
23.30000 6.914
23.32000 8.499
23.34000 1.198
23.36000 0.875
23.38000 3.434
23.40000 0.978
23.42000 -0.898
23.44000 2.652
23.46000 3.259
23.48000 7.304
23.50000 7.992
23.52000 2.365
23.54000 2.666
23.56000 0.950
23.58000 4.176
23.60000 4.555
23.62000 0.495
23.64000 -4.024
23.66000 0.153
23.68000 5.928
23.70000 6.216
23.72000 4.679
23.74000 -0.311
23.76000 -2.257
23.78000 1.303
23.80000 6.399
23.82000 -0.563
23.84000 -0.541
23.86000 1.887
23.88000 1.682
23.90000 -2.904
23.92000 -2.145
23.94000 0.358
23.96000 3.376
23.98000 9.569
24.00000 4.836
24.02000 2.304
24.04000 2.731
24.06000 2.091
24.08000 5.077
24.10000 3.012
24.12000 0.730
24.14000 5.803
24.16000 5.154
24.18000 1.214
24.20000 3.737
24.22000 9.844
24.24000 9.576
24.26000 6.247
24.28000 -0.908
24.30000 -3.978
24.32000 -0.837
24.34000 3.010
24.36000 3.882
24.38000 6.976
24.40000 1.141
24.42000 3.263
24.44000 0.753
24.46000 1.980
24.48000 8.351
24.50000 11.144
24.52000 9.865
24.54000 9.312
24.56000 5.557
24.58000 4.646
24.60000 -1.744
24.62000 -0.217
24.64000 1.562
24.66000 -0.897
24.68000 0.512
24.70000 0.919
24.72000 -0.789
24.74000 -1.294
24.76000 -2.187
24.78000 -0.089
24.80000 -2.752
24.82000 -1.087
24.84000 -1.816
24.86000 0.439
24.88000 2.260
24.90000 0.688
24.92000 3.040
24.94000 0.570
24.96000 2.843
24.98000 2.524
25.00000 8.211
25.02000 6.215
25.04000 -3.278
25.06000 3.051
25.08000 6.518
25.10000 7.279
25.12000 4.297
25.14000 2.469
25.16000 0.813
25.18000 1.766
25.20000 3.318
25.22000 3.575
25.24000 1.013
25.26000 2.512
25.28000 3.331
25.30000 2.076
25.32000 -3.736
25.34000 -0.756
25.36000 -0.182
25.38000 -3.938
25.40000 -0.888
25.42000 0.762
25.44000 4.910
25.46000 4.000
25.48000 -2.083
25.50000 -3.141
25.52000 1.200
25.54000 0.343
25.56000 0.743
25.58000 -0.465
25.60000 4.242
25.62000 5.122
25.64000 -3.748
25.66000 -0.395
25.68000 1.746
25.70000 -0.764
25.72000 3.959
25.74000 -1.733
25.76000 -3.913
25.78000 -1.881
25.80000 4.977
25.82000 0.777
25.84000 -2.493
25.86000 -0.142
25.88000 0.387
25.90000 -0.780
25.92000 0.065
25.94000 2.347
25.96000 -0.655
25.98000 -2.192
26.00000 -3.048
26.02000 1.629
26.04000 6.592
26.06000 7.525
26.08000 10.626
26.10000 2.342
26.12000 1.411
26.14000 1.674
26.16000 5.276
26.18000 7.969
26.20000 3.205
26.22000 2.528
26.24000 1.444
26.26000 -0.416
26.28000 -0.227
26.30000 -0.849
26.32000 5.574
26.34000 10.347
26.36000 8.994
26.38000 13.762
26.40000 7.896
26.42000 12.210
26.44000 7.189
26.46000 3.409
26.48000 1.036
26.50000 0.041
26.52000 2.049
26.54000 4.706
26.56000 -0.165
26.58000 3.859
26.60000 2.693
26.62000 -2.570
26.64000 -1.114
26.66000 4.578
26.68000 5.601
26.70000 2.468
26.72000 4.781
26.74000 7.814
26.76000 6.647
26.78000 2.225
26.80000 1.532
26.82000 4.891
26.84000 1.794
26.86000 -0.173
26.88000 0.204
26.90000 0.270
26.92000 -2.768
26.94000 -3.852
26.96000 -3.360
26.98000 0.228
27.00000 1.057
27.02000 1.269
27.04000 5.793
27.06000 7.356
27.08000 1.442
27.10000 -0.019
27.12000 -2.084
27.14000 -0.464
27.16000 2.189
27.18000 -0.354
27.20000 -0.609
27.22000 8.459
27.24000 7.335
27.26000 3.730
27.28000 5.120
27.30000 8.618
27.32000 6.836
27.34000 9.435
27.36000 3.405
27.38000 -0.810
27.40000 3.219
27.42000 3.444
27.44000 1.497
27.46000 1.022
27.48000 0.220
27.50000 1.943
27.52000 5.875
27.54000 8.484
27.56000 4.531
27.58000 1.065
27.60000 1.230
27.62000 2.356
27.64000 2.835
27.66000 2.060
27.68000 3.103
27.70000 2.921
27.72000 2.350
27.74000 -0.560
27.76000 2.816
27.78000 2.569
27.80000 1.718
27.82000 3.340
27.84000 3.791
27.86000 3.544
27.88000 -1.313
27.90000 1.524
27.92000 0.926
27.94000 -1.726
27.96000 -3.795
27.98000 -1.374
28.00000 1.447
28.02000 -3.162
28.04000 -1.275
28.06000 1.000
28.08000 2.292
28.10000 0.323
28.12000 2.357
28.14000 -1.618
28.16000 -0.329
28.18000 -2.369
28.20000 -3.324
28.22000 1.306
28.24000 -1.681
28.26000 1.744
28.28000 1.416
28.30000 1.848
28.32000 3.422
28.34000 5.300
28.36000 2.742
28.38000 0.628
28.40000 0.427
28.42000 1.552
28.44000 1.505
28.46000 -0.851
28.48000 -1.744
28.50000 0.027
28.52000 3.586
28.54000 -1.669
28.56000 -2.988
28.58000 -0.550
28.60000 -1.903
28.62000 1.945
28.64000 -2.722
28.66000 3.148
28.68000 5.054
28.70000 4.420
28.72000 3.952
28.74000 4.876
28.76000 6.432
28.78000 5.824
28.80000 6.891
28.82000 6.336
28.84000 2.173
28.86000 3.541
28.88000 4.123
28.90000 5.253
28.92000 2.946
28.94000 -0.224
28.96000 -1.379
28.98000 2.152
29.00000 0.074
29.02000 1.010
29.04000 1.784
29.06000 0.615
29.08000 4.244
29.10000 3.216
29.12000 4.591
29.14000 1.134
29.16000 0.114
29.18000 0.700
29.20000 4.123
29.22000 6.803
29.24000 7.758
29.26000 3.875
29.28000 0.459
29.30000 -1.561
29.32000 2.675
29.34000 0.342
29.36000 0.974
29.38000 0.721
29.40000 -2.417
29.42000 2.116
29.44000 6.991
29.46000 4.019
29.48000 7.492
29.50000 10.028
29.52000 5.449
29.54000 3.645
29.56000 6.466
29.58000 8.897
29.60000 2.656
29.62000 0.971
29.64000 2.244
29.66000 -3.666
29.68000 2.717
29.70000 1.213
29.72000 1.859
29.74000 2.540
29.76000 5.696
29.78000 6.820
29.80000 2.093
29.82000 -1.721
29.84000 1.215
29.86000 0.144
29.88000 2.701
29.90000 2.579
29.92000 1.149
29.94000 1.267
29.96000 1.709
29.98000 3.108
30.00000 2.466
30.02000 -0.228
30.04000 0.306
30.06000 1.734
30.08000 1.654
30.10000 3.376
30.12000 4.019
30.14000 -1.418
30.16000 -1.099
30.18000 3.665
30.20000 3.425
30.22000 3.696
30.24000 2.582
30.26000 3.510
30.28000 6.343
30.30000 2.437
30.32000 -0.906
30.34000 5.480
30.36000 6.913
30.38000 1.276
30.40000 -1.750
30.42000 -0.870
30.44000 0.145
30.46000 2.910
30.48000 4.495
30.50000 8.879
30.52000 2.859
30.54000 3.068
30.56000 8.452
30.58000 1.061
30.60000 -0.464
30.62000 2.974
30.64000 0.331
30.66000 4.791
30.68000 11.120
30.70000 9.656
30.72000 6.522
30.74000 6.100
30.76000 4.338
30.78000 2.136
30.80000 3.734
30.82000 6.511
30.84000 2.317
30.86000 3.763
30.88000 3.528
30.90000 5.608
30.92000 0.535
30.94000 1.410
30.96000 0.595
30.98000 7.851
31.00000 5.254
31.02000 -0.388
31.04000 2.248
31.06000 4.132
31.08000 7.853
31.10000 6.953
31.12000 3.405
31.14000 -0.129
31.16000 -0.692
31.18000 6.843
31.20000 1.128
31.22000 -3.048
31.24000 -3.618
31.26000 4.073
31.28000 6.457
31.30000 7.763
31.32000 6.514
31.34000 1.776
31.36000 4.415
31.38000 9.019
31.40000 5.322
31.42000 5.287
31.44000 -0.459
31.46000 -0.875
31.48000 0.434
31.50000 4.535
31.52000 4.259
31.54000 -0.602
31.56000 -2.066
31.58000 2.101
31.60000 -0.623
31.62000 1.545
31.64000 5.746
31.66000 0.265
31.68000 2.512
31.70000 4.624
31.72000 7.429
31.74000 8.820
31.76000 7.682
31.78000 3.547
31.80000 5.188
31.82000 -1.956
31.84000 0.388
31.86000 3.238
31.88000 4.093
31.90000 6.537
31.92000 5.262
31.94000 2.480
31.96000 -0.178
31.98000 -3.604
32.00000 -0.854
32.02000 2.573
32.04000 0.744
32.06000 3.640
32.08000 8.435
32.10000 2.799
32.12000 -1.396
32.14000 0.033
32.16000 3.423
32.18000 -1.002
32.20000 -1.578
32.22000 1.011
32.24000 8.407
32.26000 2.700
32.28000 3.354
32.30000 -0.387
32.32000 -1.921
32.34000 -0.230
32.36000 1.366
32.38000 1.762
32.40000 0.787
32.42000 1.620
32.44000 0.636
32.46000 1.664
32.48000 1.117
32.50000 3.789
32.52000 0.578
32.54000 3.175
32.56000 3.417
32.58000 5.193
32.60000 1.621
32.62000 2.750
32.64000 3.930
32.66000 4.099
32.68000 3.908
32.70000 3.079
32.72000 1.838
32.74000 1.320
32.76000 -3.563
32.78000 1.037
32.80000 7.006
32.82000 3.659
32.84000 -0.392
32.86000 -2.591
32.88000 3.869
32.90000 2.292
32.92000 5.247
32.94000 3.867
32.96000 -2.631
32.98000 2.448
33.00000 -0.145
33.02000 0.695
33.04000 2.949
33.06000 4.349
33.08000 2.733
33.10000 2.976
33.12000 1.983
33.14000 -0.125
33.16000 0.703
33.18000 0.574
33.20000 -1.271
33.22000 -0.051
33.24000 3.002
33.26000 4.333
33.28000 2.266
33.30000 8.497
33.32000 6.664
33.34000 1.510
33.36000 -1.034
33.38000 -1.753
33.40000 -2.570
33.42000 -0.329
33.44000 8.655
33.46000 8.373
33.48000 5.474
33.50000 -0.161
33.52000 -0.585
33.54000 3.227
33.56000 1.656
33.58000 2.711
33.60000 3.807
33.62000 4.068
33.64000 3.905
33.66000 3.916
33.68000 1.746
33.70000 1.558
33.72000 -1.949
33.74000 -1.152
33.76000 2.445
33.78000 4.742
33.80000 8.232
33.82000 10.529
33.84000 6.351
33.86000 -0.767
33.88000 -0.573
33.90000 6.370
33.92000 1.849
33.94000 1.730
33.96000 5.219
33.98000 2.525
34.00000 0.316
34.02000 4.936
34.04000 2.874
34.06000 0.839
34.08000 0.737
34.10000 -2.997
34.12000 0.815
34.14000 0.565
34.16000 1.870
34.18000 0.904
34.20000 -2.955
34.22000 0.299
34.24000 4.395
34.26000 5.339
34.28000 -0.156
34.30000 2.191
34.32000 3.284
34.34000 -0.511
34.36000 -3.548
34.38000 -1.343
34.40000 -0.405
34.42000 3.866
34.44000 2.106
34.46000 1.428
34.48000 2.666
34.50000 -1.411
34.52000 -1.025
34.54000 1.397
34.56000 -0.444
34.58000 -1.940
34.60000 1.198
34.62000 -1.376
34.64000 1.984
34.66000 3.803
34.68000 6.775
34.70000 6.003
34.72000 3.404
34.74000 1.881
34.76000 1.032
34.78000 4.015
34.80000 3.532
34.82000 2.782
34.84000 3.455
34.86000 3.144
34.88000 1.515
34.90000 2.631
34.92000 6.370
34.94000 2.619
34.96000 -1.126
34.98000 -0.639
35.00000 -1.972
35.02000 -3.507
35.04000 -1.609
35.06000 6.155
35.08000 2.383
35.10000 3.058
35.12000 7.870
35.14000 10.814
35.16000 7.960
35.18000 4.680
35.20000 1.808
35.22000 8.116
35.24000 6.873
35.26000 3.804
35.28000 2.334
35.30000 3.988
35.32000 2.011
35.34000 1.345
35.36000 2.552
35.38000 1.173
35.40000 9.878
35.42000 8.971
35.44000 4.186
35.46000 7.214
35.48000 7.841
35.50000 4.605
35.52000 4.776
35.54000 4.235
35.56000 2.124
35.58000 1.717
35.60000 2.822
35.62000 5.481
35.64000 1.935
35.66000 0.414
35.68000 2.423
35.70000 3.249
35.72000 3.606
35.74000 3.269
35.76000 2.324
35.78000 5.609
35.80000 4.616
35.82000 5.099
35.84000 3.352
35.86000 7.616
35.88000 7.619
35.90000 4.432
35.92000 0.296
35.94000 4.841
35.96000 5.271
35.98000 10.944
36.00000 7.728
36.02000 8.315
36.04000 7.539
36.06000 3.056
36.08000 4.515
36.10000 3.743
36.12000 1.875
36.14000 6.699
36.16000 9.481
36.18000 7.048
36.20000 3.660
36.22000 4.682
36.24000 6.537
36.26000 3.673
36.28000 1.451
36.30000 0.053
36.32000 -3.490
36.34000 4.871
36.36000 3.275
36.38000 3.577
36.40000 7.222
36.42000 9.823
36.44000 6.445
36.46000 6.083
36.48000 3.932
36.50000 7.137
36.52000 9.440
36.54000 8.262
36.56000 9.196
36.58000 5.811
36.60000 3.153
36.62000 1.664
36.64000 3.347
36.66000 4.332
36.68000 4.575
36.70000 5.213
36.72000 3.500
36.74000 4.244
36.76000 2.204
36.78000 1.470
36.80000 0.268
36.82000 -0.323
36.84000 3.826
36.86000 4.886
36.88000 2.478
36.90000 6.652
36.92000 7.168
36.94000 0.716
36.96000 -2.255
36.98000 -2.731
37.00000 2.753
37.02000 -1.298
37.04000 4.788
37.06000 2.016
37.08000 -3.578
37.10000 3.655
37.12000 5.296
37.14000 2.313
37.16000 4.025
37.18000 6.576
37.20000 -0.257
37.22000 2.435
37.24000 6.682
37.26000 4.100
37.28000 -0.492
37.30000 -1.014
37.32000 2.896
37.34000 3.697
37.36000 -0.033
37.38000 1.956
37.40000 2.787
37.42000 3.849
37.44000 2.218
37.46000 5.014
37.48000 4.867
37.50000 4.992
37.52000 9.729
37.54000 2.225
37.56000 2.229
37.58000 8.139
37.60000 8.092
37.62000 7.087
37.64000 8.304
37.66000 5.461
37.68000 2.248
37.70000 9.633
37.72000 6.329
37.74000 3.382
37.76000 3.986
37.78000 7.068
37.80000 8.704
37.82000 11.933
37.84000 14.328
37.86000 12.897
37.88000 7.313
37.90000 7.298
37.92000 13.608
37.94000 13.697
37.96000 11.710
37.98000 9.555
38.00000 13.506
38.02000 12.028
38.04000 9.184
38.06000 13.738
38.08000 14.491
38.10000 15.592
38.12000 16.755
38.14000 16.825
38.16000 21.968
38.18000 23.506
38.20000 23.138
38.22000 22.652
38.24000 19.615
38.26000 24.006
38.28000 26.912
38.30000 27.468
38.32000 23.682
38.34000 21.566
38.36000 21.901
38.38000 22.862
38.40000 27.185
38.42000 31.844
38.44000 31.907
38.46000 34.760
38.48000 33.048
38.50000 31.039
38.52000 33.119
38.54000 37.669
38.56000 35.788
38.58000 36.794
38.60000 42.902
38.62000 43.370
38.64000 39.393
38.66000 43.025
38.68000 47.674
38.70000 45.694
38.72000 45.598
38.74000 51.709
38.76000 54.548
38.78000 55.414
38.80000 57.269
38.82000 58.209
38.84000 62.717
38.86000 60.337
38.88000 65.164
38.90000 67.322
38.92000 76.447
38.94000 73.377
38.96000 69.469
38.98000 74.307
39.00000 81.920
39.02000 84.185
39.04000 85.126
39.06000 87.248
39.08000 87.499
39.10000 94.172
39.12000 103.070
39.14000 111.204
39.16000 114.165
39.18000 114.298
39.20000 119.823
39.22000 127.730
39.24000 134.065
39.26000 137.974
39.28000 148.506
39.30000 153.177
39.32000 162.818
39.34000 172.632
39.36000 179.177
39.38000 189.887
39.40000 200.296
39.42000 209.456
39.44000 217.759
39.46000 226.967
39.48000 239.432
39.50000 254.327
39.52000 261.767
39.54000 277.519
39.56000 295.009
39.58000 314.321
39.60000 330.900
39.62000 342.283
39.64000 357.226
39.66000 374.869
39.68000 394.381
39.70000 423.348
39.72000 446.146
39.74000 475.737
39.76000 492.026
39.78000 513.184
39.80000 541.741
39.82000 568.125
39.84000 601.631
39.86000 636.889
39.88000 662.280
39.90000 685.620
39.92000 712.660
39.94000 735.806
39.96000 760.810
39.98000 777.390
40.00000 786.762
40.02000 818.305
40.04000 832.089
40.06000 847.014
40.08000 862.399
40.10000 877.009
40.12000 876.691
40.14000 883.053
40.16000 877.595
40.18000 873.592
40.20000 862.582
40.22000 853.598
40.24000 848.715
40.26000 848.024
40.28000 831.247
40.30000 803.308
40.32000 773.210
40.34000 759.482
40.36000 745.834
40.38000 716.466
40.40000 691.128
40.42000 671.356
40.44000 655.186
40.46000 636.514
40.48000 605.286
40.50000 560.766
40.52000 542.494
40.54000 508.104
40.56000 485.547
40.58000 476.041
40.60000 452.630
40.62000 420.546
40.64000 405.108
40.66000 383.791
40.68000 359.703
40.70000 341.584
40.72000 330.391
40.74000 304.817
40.76000 280.698
40.78000 267.025
40.80000 252.315
40.82000 236.339
40.84000 228.534
40.86000 215.662
40.88000 197.399
40.90000 176.859
40.92000 170.120
40.94000 161.964
40.96000 154.768
40.98000 145.962
41.00000 141.804
41.02000 134.665
41.04000 119.058
41.06000 114.605
41.08000 107.742
41.10000 103.728
41.12000 102.075
41.14000 94.860
41.16000 91.847
41.18000 89.534
41.20000 81.100
41.22000 71.199
41.24000 66.632
41.26000 70.086
41.28000 66.230
41.30000 65.044
41.32000 64.040
41.34000 57.912
41.36000 55.332
41.38000 52.994
41.40000 50.810
41.42000 45.463
41.44000 42.452
41.46000 41.629
41.48000 39.987
41.50000 35.198
41.52000 28.077
41.54000 32.232
41.56000 36.979
41.58000 36.756
41.60000 31.077
41.62000 26.979
41.64000 28.150
41.66000 26.336
41.68000 26.706
41.70000 20.672
41.72000 21.021
41.74000 21.202
41.76000 21.458
41.78000 16.408
41.80000 16.970
41.82000 16.387
41.84000 13.538
41.86000 13.010
41.88000 12.127
41.90000 15.207
41.92000 12.498
41.94000 13.330
41.96000 14.645
41.98000 10.742
42.00000 7.808
42.02000 9.731
42.04000 9.032
42.06000 11.283
42.08000 13.618
42.10000 7.958
42.12000 9.128
42.14000 8.469
42.16000 3.474
42.18000 7.616
42.20000 7.318
42.22000 9.479
42.24000 6.406
42.26000 7.865
42.28000 4.720
42.30000 1.257
42.32000 5.096
42.34000 6.512
42.36000 2.214
42.38000 5.237
42.40000 5.430
42.42000 6.545
42.44000 3.770
42.46000 0.644
42.48000 0.589
42.50000 3.294
42.52000 6.714
42.54000 5.249
42.56000 4.349
42.58000 2.531
42.60000 1.807
42.62000 1.585
42.64000 1.405
42.66000 0.289
42.68000 -1.234
42.70000 -2.008
42.72000 -1.594
42.74000 -2.923
42.76000 -0.661
42.78000 2.845
42.80000 2.769
42.82000 2.655
42.84000 0.498
42.86000 0.903
42.88000 1.597
42.90000 -3.443
42.92000 -3.342
42.94000 -2.066
42.96000 -3.089
42.98000 -1.644
43.00000 2.417
43.02000 3.312
43.04000 -1.544
43.06000 -2.160
43.08000 2.504
43.10000 2.802
43.12000 -2.836
43.14000 -1.963
43.16000 -0.789
43.18000 0.020
43.20000 1.038
43.22000 -0.264
43.24000 3.281
43.26000 3.019
43.28000 0.524
43.30000 2.087
43.32000 4.320
43.34000 7.209
43.36000 3.078
43.38000 2.125
43.40000 3.003
43.42000 2.307
43.44000 -0.735
43.46000 -0.005
43.48000 3.689
43.50000 2.034
43.52000 -0.494
43.54000 -0.184
43.56000 0.590
43.58000 3.758
43.60000 2.008
43.62000 0.881
43.64000 -0.619
43.66000 -2.548
43.68000 -3.351
43.70000 1.713
43.72000 3.532
43.74000 3.425
43.76000 4.240
43.78000 3.262
43.80000 5.116
43.82000 2.203
43.84000 -1.028
43.86000 -0.959
43.88000 2.789
43.90000 0.233
43.92000 -2.112
43.94000 1.735
43.96000 2.377
43.98000 2.152
44.00000 3.695
44.02000 -3.314
44.04000 -3.335
44.06000 1.248
44.08000 1.900
44.10000 3.333
44.12000 1.163
44.14000 2.883
44.16000 1.513
44.18000 2.452
44.20000 6.917
44.22000 5.586
44.24000 1.241
44.26000 -0.811
44.28000 -3.337
44.30000 -0.772
44.32000 -1.151
44.34000 -0.778
44.36000 -2.311
44.38000 1.497
44.40000 4.494
44.42000 4.600
44.44000 0.554
44.46000 1.715
44.48000 -0.378
44.50000 -3.336
44.52000 0.900
44.54000 0.027
44.56000 -1.896
44.58000 -2.061
44.60000 0.153
44.62000 0.208
44.64000 1.469
44.66000 2.138
44.68000 -0.456
44.70000 3.580
44.72000 5.593
44.74000 6.185
44.76000 7.884
44.78000 2.398
44.80000 4.982
44.82000 0.774
44.84000 2.652
44.86000 5.458
44.88000 -0.432
44.90000 -0.738
44.92000 5.444
44.94000 8.544
44.96000 5.813
44.98000 1.875
45.00000 4.076
45.02000 9.035
45.04000 4.447
45.06000 5.936
45.08000 5.782
45.10000 5.969
45.12000 4.224
45.14000 9.906
45.16000 7.991
45.18000 9.915
45.20000 10.258
45.22000 10.777
45.24000 12.347
45.26000 12.775
45.28000 10.586
45.30000 11.723
45.32000 17.597
45.34000 17.863
45.36000 12.279
45.38000 17.770
45.40000 18.222
45.42000 15.489
45.44000 17.909
45.46000 23.027
45.48000 21.777
45.50000 18.898
45.52000 20.563
45.54000 25.511
45.56000 30.231
45.58000 31.592
45.60000 26.417
45.62000 32.941
45.64000 33.422
45.66000 30.418
45.68000 25.024
45.70000 26.705
45.72000 36.848
45.74000 37.620
45.76000 39.778
45.78000 40.658
45.80000 35.166
45.82000 35.344
45.84000 38.946
45.86000 42.159
45.88000 44.667
45.90000 46.767
45.92000 54.540
45.94000 57.393
45.96000 58.166
45.98000 62.437
46.00000 65.052
46.02000 61.631
46.04000 60.871
46.06000 62.248
46.08000 63.820
46.10000 69.481
46.12000 73.698
46.14000 78.130
46.16000 77.767
46.18000 86.583
46.20000 92.426
46.22000 85.949
46.24000 84.462
46.26000 93.395
46.28000 98.627
46.30000 101.510
46.32000 106.928
46.34000 105.950
46.36000 105.588
46.38000 115.985
46.40000 113.844
46.42000 112.803
46.44000 119.405
46.46000 126.012
46.48000 127.757
46.50000 130.877
46.52000 130.653
46.54000 135.183
46.56000 134.181
46.58000 138.790
46.60000 140.822
46.62000 144.835
46.64000 153.621
46.66000 152.190
46.68000 151.850
46.70000 153.824
46.72000 152.837
46.74000 153.588
46.76000 154.739
46.78000 158.568
46.80000 164.113
46.82000 165.009
46.84000 156.787
46.86000 160.770
46.88000 168.665
46.90000 166.439
46.92000 157.063
46.94000 157.794
46.96000 161.842
46.98000 161.849
47.00000 155.956
47.02000 148.667
47.04000 149.911
47.06000 157.259
47.08000 147.317
47.10000 138.937
47.12000 131.198
47.14000 132.409
47.16000 123.335
47.18000 113.568
47.20000 115.419
47.22000 117.102
47.24000 115.081
47.26000 106.512
47.28000 95.837
47.30000 92.307
47.32000 88.234
47.34000 93.646
47.36000 87.824
47.38000 85.046
47.40000 79.613
47.42000 71.738
47.44000 71.284
47.46000 70.735
47.48000 61.238
47.50000 56.337
47.52000 54.233
47.54000 55.131
47.56000 51.400
47.58000 48.728
47.60000 50.543
47.62000 41.954
47.64000 35.802
47.66000 35.537
47.68000 30.582
47.70000 31.841
47.72000 37.344
47.74000 33.128
47.76000 26.451
47.78000 26.092
47.80000 23.456
47.82000 21.369
47.84000 25.392
47.86000 23.318
47.88000 22.896
47.90000 22.414
47.92000 16.024
47.94000 16.935
47.96000 16.210
47.98000 16.313
48.00000 12.114
48.02000 11.957
48.04000 10.904
48.06000 7.952
48.08000 9.606
48.10000 10.626
48.12000 11.473
48.14000 13.075
48.16000 10.428
48.18000 7.031
48.20000 7.099
48.22000 8.693
48.24000 8.383
48.26000 8.166
48.28000 9.190
48.30000 7.559
48.32000 3.266
48.34000 7.328
48.36000 8.310
48.38000 7.565
48.40000 8.914
48.42000 8.039
48.44000 5.934
48.46000 7.125
48.48000 6.802
48.50000 7.917
48.52000 5.629
48.54000 -0.271
48.56000 3.367
48.58000 5.862
48.60000 3.642
48.62000 4.931
48.64000 4.480
48.66000 1.810
48.68000 2.475
48.70000 8.039
48.72000 9.162
48.74000 5.782
48.76000 4.927
48.78000 6.134
48.80000 7.735
48.82000 5.326
48.84000 5.167
48.86000 4.254
48.88000 5.055
48.90000 6.571
48.92000 5.754
48.94000 -0.370
48.96000 -2.756
48.98000 0.909
49.00000 0.659
49.02000 0.207
49.04000 4.301
49.06000 4.040
49.08000 4.734
49.10000 3.229
49.12000 5.148
49.14000 4.257
49.16000 1.465
49.18000 5.997
49.20000 8.057
49.22000 8.452
49.24000 4.672
49.26000 6.428
49.28000 6.307
49.30000 8.512
49.32000 9.638
49.34000 6.050
49.36000 3.150
49.38000 6.837
49.40000 6.815
49.42000 2.088
49.44000 -0.704
49.46000 1.569
49.48000 4.572
49.50000 4.414
49.52000 6.134
49.54000 4.009
49.56000 4.497
49.58000 0.739
49.60000 2.420
49.62000 6.906
49.64000 3.809
49.66000 0.838
49.68000 3.799
49.70000 3.836
49.72000 3.987
49.74000 -0.324
49.76000 1.661
49.78000 2.923
49.80000 1.947
49.82000 7.752
49.84000 5.588
49.86000 0.654
49.88000 3.961
49.90000 1.597
49.92000 -1.085
49.94000 -1.952
49.96000 0.808
49.98000 0.783
50.00000 2.090
50.02000 3.525
50.04000 1.214
50.06000 -2.693
50.08000 1.491
50.10000 4.820
50.12000 3.586
50.14000 2.570
50.16000 3.066
50.18000 4.768
50.20000 7.650
50.22000 4.508
50.24000 3.978
50.26000 3.979
50.28000 0.087
50.30000 -0.025
50.32000 0.314
50.34000 1.861
50.36000 4.841
50.38000 3.973
50.40000 4.815
50.42000 2.408
50.44000 -0.059
50.46000 2.789
50.48000 3.014
50.50000 1.942
50.52000 1.293
50.54000 -1.274
50.56000 3.526
50.58000 3.573
50.60000 1.291
50.62000 0.224
50.64000 -2.364
50.66000 -1.107
50.68000 2.014
50.70000 1.579
50.72000 3.257
50.74000 4.114
50.76000 -1.157
50.78000 -2.020
50.80000 4.249
50.82000 5.950
50.84000 3.502
50.86000 -0.332
50.88000 0.957
50.90000 0.748
50.92000 0.078
50.94000 -2.654
50.96000 1.988
50.98000 0.778
51.00000 0.895
51.02000 6.497
51.04000 7.006
51.06000 4.940
51.08000 -0.922
51.10000 1.228
51.12000 3.545
51.14000 1.242
51.16000 -1.464
51.18000 0.392
51.20000 2.421
51.22000 3.333
51.24000 1.653
51.26000 2.601
51.28000 4.084
51.30000 5.326
51.32000 2.455
51.34000 1.365
51.36000 4.237
51.38000 2.290
51.40000 2.397
51.42000 1.085
51.44000 -0.791
51.46000 2.087
51.48000 1.209
51.50000 0.447
51.52000 2.444
51.54000 0.123
51.56000 2.423
51.58000 0.579
51.60000 0.142
51.62000 3.049
51.64000 1.756
51.66000 -2.641
51.68000 -2.620
51.70000 0.587
51.72000 1.502
51.74000 4.537
51.76000 3.773
51.78000 1.270
51.80000 4.631
51.82000 4.004
51.84000 2.210
51.86000 -2.395
51.88000 -1.162
51.90000 -1.033
51.92000 -1.013
51.94000 1.218
51.96000 4.284
51.98000 3.906
52.00000 0.832
52.02000 1.179
52.04000 -0.611
52.06000 -0.773
52.08000 2.936
52.10000 -1.695
52.12000 -1.085
52.14000 0.389
52.16000 4.216
52.18000 2.592
52.20000 2.116
52.22000 -0.397
52.24000 -1.642
52.26000 1.951
52.28000 0.636
52.30000 -1.716
52.32000 -0.204
52.34000 5.245
52.36000 3.082
52.38000 4.151
52.40000 -1.813
52.42000 -2.621
52.44000 -0.349
52.46000 1.040
52.48000 -2.043
52.50000 -2.618
52.52000 0.904
52.54000 1.700
52.56000 2.141
52.58000 1.752
52.60000 -0.769
52.62000 -2.615
52.64000 -2.225
52.66000 2.130
52.68000 1.550
52.70000 -0.003
52.72000 3.036
52.74000 2.154
52.76000 -0.531
52.78000 0.909
52.80000 1.305
52.82000 -0.860
52.84000 -2.314
52.86000 1.619
52.88000 4.732
52.90000 3.556
52.92000 0.413
52.94000 2.158
52.96000 1.060
52.98000 0.274
53.00000 -2.193
53.02000 -2.012
53.04000 -0.004
53.06000 -2.594
53.08000 1.570
53.10000 3.612
53.12000 0.565
53.14000 0.809
53.16000 4.185
53.18000 4.033
53.20000 1.038
53.22000 3.400
53.24000 5.721
53.26000 0.040
53.28000 0.370
53.30000 0.491
53.32000 0.950
53.34000 1.820
53.36000 -0.622
53.38000 0.758
53.40000 -0.311
53.42000 2.029
53.44000 5.040
53.46000 1.997
53.48000 -2.565
53.50000 -1.201
53.52000 1.802
53.54000 4.223
53.56000 0.877
53.58000 0.874
53.60000 1.221
53.62000 1.099
53.64000 1.199
53.66000 -0.074
53.68000 -0.458
53.70000 3.799
53.72000 1.103
53.74000 -2.126
53.76000 2.976
53.78000 0.715
53.80000 -1.611
53.82000 -2.546
53.84000 0.206
53.86000 2.130
53.88000 -0.858
53.90000 1.701
53.92000 0.911
53.94000 0.371
53.96000 -2.542
53.98000 3.323
54.00000 1.616
54.02000 4.489
54.04000 4.145
54.06000 5.125
54.08000 1.478
54.10000 1.221
54.12000 1.117
54.14000 -1.630
54.16000 1.162
54.18000 3.314
54.20000 4.283
54.22000 7.145
54.24000 6.796
54.26000 5.986
54.28000 3.422
54.30000 0.923
54.32000 3.326
54.34000 0.252
54.36000 1.701
54.38000 -0.346
54.40000 -2.533
54.42000 1.459
54.44000 4.788
54.46000 3.355
54.48000 1.680
54.50000 0.667
54.52000 -0.657
54.54000 3.830
54.56000 3.163
54.58000 2.489
54.60000 2.704
54.62000 2.008
54.64000 -1.185
54.66000 2.574
54.68000 5.705
54.70000 2.445
54.72000 -0.475
54.74000 0.909
54.76000 0.852
54.78000 -0.817
54.80000 1.755
54.82000 -0.468
54.84000 2.827
54.86000 3.795
54.88000 3.845
54.90000 3.711
54.92000 1.788
54.94000 0.463
54.96000 1.225
54.98000 3.184
55.00000 4.041
55.02000 3.827
55.04000 1.393
55.06000 0.502
55.08000 -1.062
55.10000 -0.071
55.12000 3.818
55.14000 4.039
55.16000 3.309
55.18000 -2.504
55.20000 -1.529
55.22000 2.683
55.24000 4.053
55.26000 3.549
55.28000 5.779
55.30000 2.927
55.32000 0.258
55.34000 0.928
55.36000 -2.229
55.38000 -1.068
55.40000 -0.589
55.42000 1.851
55.44000 5.381
55.46000 5.307
55.48000 3.206
55.50000 2.989
55.52000 3.533
55.54000 3.484
55.56000 3.704
55.58000 1.737
55.60000 0.146
55.62000 7.960
55.64000 6.969
55.66000 1.885
55.68000 2.382
55.70000 4.037
55.72000 1.223
55.74000 -2.484
55.76000 -0.098
55.78000 2.134
55.80000 3.818
55.82000 2.479
55.84000 4.370
55.86000 3.446
55.88000 2.332
55.90000 4.794
55.92000 6.096
55.94000 0.698
55.96000 0.053
55.98000 1.541
56.00000 1.972
56.02000 2.268
56.04000 1.230
56.06000 3.402
56.08000 6.009
56.10000 5.891
56.12000 3.041
56.14000 3.452
56.16000 7.428
56.18000 7.095
56.20000 1.027
56.22000 -1.400
56.24000 1.399
56.26000 0.642
56.28000 1.388
56.30000 3.109
56.32000 4.816
56.34000 2.530
56.36000 1.547
56.38000 4.360
56.40000 3.447
56.42000 3.670
56.44000 2.709
56.46000 3.818
56.48000 5.058
56.50000 6.723
56.52000 3.848
56.54000 3.775
56.56000 2.226
56.58000 4.173
56.60000 6.615
56.62000 3.391
56.64000 -0.066
56.66000 -2.429
56.68000 1.412
56.70000 4.926
56.72000 5.295
56.74000 0.757
56.76000 6.812
56.78000 11.106
56.80000 7.974
56.82000 2.472
56.84000 0.439
56.86000 4.481
56.88000 9.181
56.90000 3.884
56.92000 1.190
56.94000 0.549
56.96000 8.762
56.98000 5.817
57.00000 3.351
57.02000 2.456
57.04000 2.080
57.06000 5.804
57.08000 5.294
57.10000 4.828
57.12000 7.942
57.14000 6.973
57.16000 6.934
57.18000 5.759
57.20000 3.413
57.22000 2.971
57.24000 3.451
57.26000 3.424
57.28000 5.777
57.30000 4.518
57.32000 2.092
57.34000 4.888
57.36000 3.457
57.38000 -0.362
57.40000 2.680
57.42000 4.338
57.44000 0.280
57.46000 -2.326
57.48000 4.317
57.50000 6.774
57.52000 5.387
57.54000 4.959
57.56000 3.152
57.58000 3.231
57.60000 0.840
57.62000 2.589
57.64000 0.524
57.66000 -1.195
57.68000 0.118
57.70000 1.941
57.72000 2.302
57.74000 2.061
57.76000 3.490
57.78000 0.188
57.80000 1.239
57.82000 2.766
57.84000 4.179
57.86000 5.961
57.88000 -0.707
57.90000 0.757
57.92000 -0.289
57.94000 -2.421
57.96000 3.012
57.98000 4.676
58.00000 4.544
58.02000 1.196
58.04000 3.995
58.06000 7.463
58.08000 8.730
58.10000 5.551
58.12000 0.928
58.14000 -0.815
58.16000 -0.157
58.18000 3.213
58.20000 3.955
58.22000 3.265
58.24000 0.176
58.26000 0.595
58.28000 3.180
58.30000 -0.225
58.32000 2.754
58.34000 5.277
58.36000 3.206
58.38000 2.839
58.40000 3.557
58.42000 4.854
58.44000 4.659
58.46000 6.682
58.48000 4.630
58.50000 2.169
58.52000 7.763
58.54000 5.071
58.56000 0.451
58.58000 4.173
58.60000 4.400
58.62000 2.059
58.64000 0.883
58.66000 0.217
58.68000 -2.417
58.70000 0.678
58.72000 0.073
58.74000 2.488
58.76000 6.977
58.78000 4.335
58.80000 2.893
58.82000 2.522
58.84000 -0.081
58.86000 4.224
58.88000 3.183
58.90000 1.906
58.92000 6.256
58.94000 5.988
58.96000 3.832
58.98000 2.666
59.00000 2.136
59.02000 1.985
59.04000 -0.382
59.06000 1.693
59.08000 0.107
59.10000 4.932
59.12000 3.633
59.14000 1.715
59.16000 3.273
59.18000 3.074
59.20000 -2.388
59.22000 -0.914
59.24000 -0.488
59.26000 3.468
59.28000 5.680
59.30000 5.376
59.32000 4.095
59.34000 4.936
59.36000 4.654
59.38000 1.723
59.40000 -1.521
59.42000 1.251
59.44000 3.524
59.46000 6.026
59.48000 2.962
59.50000 1.617
59.52000 -2.391
59.54000 -0.743
59.56000 1.998
59.58000 2.517
59.60000 2.013
59.62000 3.864
59.64000 0.500
59.66000 0.517
59.68000 4.197
59.70000 6.671
59.72000 2.309
59.74000 0.765
59.76000 0.078
59.78000 1.710
59.80000 0.382
59.82000 -1.530
59.84000 -0.931
59.86000 -0.279
59.88000 -0.126
59.90000 1.367
59.92000 -2.318
59.94000 -0.565
59.96000 -1.024
59.98000 -1.210
60.00000 0.498
60.02000 0.066
60.04000 1.367
60.06000 1.315
60.08000 -2.389
60.10000 -1.463
60.12000 3.648
60.14000 3.216
60.16000 3.600
60.18000 2.192
60.20000 1.067
60.22000 3.255
60.24000 3.626
60.26000 2.648
60.28000 1.163
60.30000 4.843
60.32000 6.161
60.34000 2.159
60.36000 2.336
60.38000 -0.731
60.40000 3.836
60.42000 5.667
60.44000 3.664
60.46000 1.419
60.48000 0.318
60.50000 3.528
60.52000 3.009
60.54000 0.323
60.56000 0.265
60.58000 2.480
60.60000 3.153
60.62000 -1.510
60.64000 0.451
60.66000 -2.363
60.68000 0.894
60.70000 2.038
60.72000 -0.126
60.74000 1.670
60.76000 1.790
60.78000 2.332
60.80000 -0.465
60.82000 -0.146
60.84000 -1.001
60.86000 -2.317
60.88000 -2.358
60.90000 0.621
60.92000 3.267
60.94000 4.848
60.96000 2.271
60.98000 2.359
61.00000 2.872
61.02000 1.973
61.04000 3.066
61.06000 5.085
61.08000 1.805
61.10000 0.161
61.12000 2.862
61.14000 2.225
61.16000 3.614
61.18000 4.660
61.20000 2.997
61.22000 3.609
61.24000 1.556
61.26000 2.764
61.28000 1.901
61.30000 -0.368
61.32000 1.938
61.34000 1.312
61.36000 0.705
61.38000 -0.729
61.40000 4.326
61.42000 3.701
61.44000 4.104
61.46000 4.182
61.48000 1.912
61.50000 4.304
61.52000 2.230
61.54000 3.664
61.56000 2.939
61.58000 1.713
61.60000 -2.325
61.62000 -0.998
61.64000 1.072
61.66000 0.567
61.68000 1.589
61.70000 6.731
61.72000 6.191
61.74000 2.050
61.76000 1.310
61.78000 1.746
61.80000 0.193
61.82000 -0.160
61.84000 1.991
61.86000 2.307
61.88000 3.805
61.90000 3.828
61.92000 -0.067
61.94000 1.575
61.96000 4.438
61.98000 4.118
62.00000 3.775
62.02000 5.181
62.04000 3.348
62.06000 1.528
62.08000 4.884
62.10000 4.454
62.12000 3.578
62.14000 3.512
62.16000 2.213
62.18000 2.456
62.20000 6.744
62.22000 4.601
62.24000 3.826
62.26000 3.351
62.28000 2.155
62.30000 0.623
62.32000 1.080
62.34000 -0.017
62.36000 2.282
62.38000 5.193
62.40000 6.033
62.42000 3.173
62.44000 4.228
62.46000 6.205
62.48000 3.952
62.50000 4.764
62.52000 0.132
62.54000 3.417
62.56000 8.414
62.58000 5.225
62.60000 1.059
62.62000 3.637
62.64000 3.699
62.66000 5.026
62.68000 0.077
62.70000 -2.278
62.72000 -0.644
62.74000 2.631
62.76000 0.258
62.78000 0.856
62.80000 1.594
62.82000 1.796
62.84000 3.621
62.86000 3.008
62.88000 2.280
62.90000 2.703
62.92000 3.003
62.94000 1.098
62.96000 3.532
62.98000 4.809
63.00000 2.506
63.02000 0.504
63.04000 0.192
63.06000 0.506
63.08000 0.128
63.10000 0.555
63.12000 4.538
63.14000 0.053
63.16000 3.909
63.18000 2.655
63.20000 2.619
63.22000 4.535
63.24000 5.716
63.26000 4.661
63.28000 0.454
63.30000 0.528
63.32000 -0.560
63.34000 0.627
63.36000 0.571
63.38000 4.444
63.40000 4.409
63.42000 -0.228
63.44000 -2.230
63.46000 -2.323
63.48000 -0.902
63.50000 3.710
63.52000 3.324
63.54000 1.796
63.56000 2.944
63.58000 2.356
63.60000 -0.954
63.62000 -0.638
63.64000 1.388
63.66000 0.901
63.68000 2.187
63.70000 0.939
63.72000 -2.045
63.74000 -0.970
63.76000 -1.267
63.78000 0.055
63.80000 -1.636
63.82000 -2.329
63.84000 -1.143
63.86000 3.210
63.88000 2.179
63.90000 -1.768
63.92000 3.822
63.94000 2.460
63.96000 -0.970
63.98000 2.308
64.00000 -0.050
64.02000 0.072
64.04000 0.232
64.06000 1.346
64.08000 1.686
64.10000 -0.992
64.12000 1.084
64.14000 0.637
64.16000 -0.129
64.18000 -0.614
64.20000 2.405
64.22000 0.728
64.24000 -1.251
64.26000 -1.811
64.28000 0.350
64.30000 3.281
64.32000 3.669
64.34000 -1.115
64.36000 -1.245
64.38000 0.318
64.40000 0.797
64.42000 -1.807
64.44000 -0.372
64.46000 1.330
64.48000 0.974
64.50000 0.915
64.52000 -0.736
64.54000 -0.618
64.56000 0.075
64.58000 3.759
64.60000 -0.504
64.62000 -2.033
64.64000 -2.100
64.66000 -1.043
64.68000 0.293
64.70000 -2.151
64.72000 -1.352
64.74000 -1.414
64.76000 -1.341
64.78000 -0.675
64.80000 2.319
64.82000 1.071
64.84000 -1.431
64.86000 -1.974
64.88000 -0.452
64.90000 -2.107
64.92000 0.305
64.94000 1.800
64.96000 0.289
64.98000 2.062
65.00000 2.729
65.02000 2.389
65.04000 2.261
65.06000 1.256
65.08000 2.858
65.10000 3.259
65.12000 0.858
65.14000 -2.330
65.16000 -0.260
65.18000 -1.535
65.20000 1.480
65.22000 2.372
65.24000 0.956
65.26000 2.548
65.28000 1.909
65.30000 3.902
65.32000 2.264
65.34000 1.391
65.36000 1.018
65.38000 3.163
65.40000 1.576
65.42000 3.623
65.44000 2.969
65.46000 1.727
65.48000 0.542
65.50000 1.119
65.52000 0.535
65.54000 1.303
65.56000 1.421
65.58000 0.528
65.60000 1.919
65.62000 -2.356
65.64000 -0.122
65.66000 0.857
65.68000 1.195
65.70000 0.284
65.72000 0.422
65.74000 -0.310
65.76000 0.383
65.78000 0.427
65.80000 2.095
65.82000 3.009
65.84000 -0.048
65.86000 -0.789
65.88000 -2.240
65.90000 -1.409
65.92000 0.008
65.94000 2.092
65.96000 3.654
65.98000 2.553
66.00000 1.094
66.02000 1.014
66.04000 -0.577
66.06000 0.876
66.08000 0.798
66.10000 1.282
66.12000 -0.949
66.14000 -0.399
66.16000 0.691
66.18000 -0.960
66.20000 -2.397
66.22000 0.106
66.24000 1.965
66.26000 4.405
66.28000 0.516
66.30000 0.234
66.32000 0.000
66.34000 -0.443
66.36000 -0.773
66.38000 0.757
66.40000 -1.065
66.42000 -0.691
66.44000 0.969
66.46000 0.404
66.48000 2.643
66.50000 3.830
66.52000 -2.187
66.54000 -1.039
66.56000 -0.635
66.58000 1.547
66.60000 -1.360
66.62000 -0.736
66.64000 0.853
66.66000 2.357
66.68000 2.434
66.70000 -0.103
66.72000 -1.037
66.74000 1.921
66.76000 1.032
66.78000 2.482
66.80000 -2.331
66.82000 -2.440
66.84000 1.406
66.86000 4.041
66.88000 2.485
66.90000 1.999
66.92000 4.331
66.94000 3.393
66.96000 -0.152
66.98000 0.980
67.00000 6.428
67.02000 3.411
67.04000 3.842
67.06000 5.922
67.08000 1.173
67.10000 1.123
67.12000 3.728
67.14000 5.339
67.16000 5.476
67.18000 2.802
67.20000 2.414
67.22000 4.912
67.24000 4.588
67.26000 3.947
67.28000 3.538
67.30000 7.404
67.32000 5.640
67.34000 5.108
67.36000 7.256
67.38000 6.430
67.40000 8.640
67.42000 8.759
67.44000 6.180
67.46000 4.680
67.48000 3.120
67.50000 7.057
67.52000 4.868
67.54000 10.236
67.56000 13.514
67.58000 9.344
67.60000 7.781
67.62000 9.296
67.64000 9.202
67.66000 9.640
67.68000 11.966
67.70000 14.328
67.72000 12.397
67.74000 12.618
67.76000 12.973
67.78000 12.946
67.80000 14.536
67.82000 12.781
67.84000 11.238
67.86000 13.319
67.88000 16.557
67.90000 13.729
67.92000 15.400
67.94000 14.983
67.96000 18.354
67.98000 18.887
68.00000 17.487
68.02000 17.920
68.04000 16.233
68.06000 19.093
68.08000 23.181
68.10000 22.790
68.12000 21.748
68.14000 24.618
68.16000 23.888
68.18000 21.254
68.20000 19.401
68.22000 22.537
68.24000 21.757
68.26000 24.597
68.28000 24.801
68.30000 19.944
68.32000 18.893
68.34000 23.476
68.36000 27.189
68.38000 24.478
68.40000 24.409
68.42000 21.887
68.44000 25.117
68.46000 29.908
68.48000 28.012
68.50000 24.249
68.52000 23.909
68.54000 22.708
68.56000 26.695
68.58000 24.576
68.60000 19.913
68.62000 22.969
68.64000 22.902
68.66000 19.996
68.68000 22.864
68.70000 26.035
68.72000 23.162
68.74000 18.871
68.76000 16.707
68.78000 19.081
68.80000 18.004
68.82000 17.623
68.84000 17.528
68.86000 20.072
68.88000 17.913
68.90000 16.220
68.92000 16.649
68.94000 13.423
68.96000 12.273
68.98000 13.148
69.00000 14.462
69.02000 14.591
69.04000 13.327
69.06000 11.327
69.08000 13.750
69.10000 11.764
69.12000 8.879
69.14000 10.605
69.16000 13.076
69.18000 11.159
69.20000 7.419
69.22000 9.617
69.24000 8.467
69.26000 7.212
69.28000 6.115
69.30000 7.678
69.32000 4.393
69.34000 1.913
69.36000 2.887
69.38000 1.269
69.40000 5.832
69.42000 4.934
69.44000 3.322
69.46000 3.706
69.48000 3.311
69.50000 4.314
69.52000 3.488
69.54000 3.502
69.56000 1.646
69.58000 3.469
69.60000 1.461
69.62000 2.931
69.64000 5.048
69.66000 5.854
69.68000 3.215
69.70000 2.102
69.72000 3.440
69.74000 0.412
69.76000 -1.864
69.78000 0.539
69.80000 -2.309
69.82000 -1.488
69.84000 1.846
69.86000 4.284
69.88000 2.901
69.90000 2.569
69.92000 2.489
69.94000 2.972
69.96000 3.890
69.98000 -0.036
70.00000 0.538
70.02000 1.122
70.04000 3.079
70.06000 2.075
70.08000 -0.649
70.10000 1.794
70.12000 3.384
70.14000 4.492
70.16000 3.227
70.18000 2.097
70.20000 0.532
70.22000 -0.817
70.24000 -0.898
70.26000 -0.910
70.28000 -0.750
70.30000 2.124
70.32000 1.077
70.34000 -1.169
70.36000 -0.761
70.38000 -2.239
70.40000 0.627
70.42000 0.719
70.44000 2.513
70.46000 2.559
70.48000 2.909
70.50000 1.484
70.52000 -1.573
70.54000 4.072
70.56000 3.804
70.58000 4.352
70.60000 4.482
70.62000 0.449
70.64000 1.305
70.66000 2.703
70.68000 5.343
70.70000 -0.235
70.72000 -1.078
70.74000 0.159
70.76000 -1.366
70.78000 -1.994
70.80000 0.310
70.82000 -0.092
70.84000 4.045
70.86000 -0.739
70.88000 1.157
70.90000 4.419
70.92000 4.769
70.94000 2.062
70.96000 -0.474
70.98000 -1.298
71.00000 0.932
71.02000 2.713
71.04000 2.490
71.06000 0.786
71.08000 0.258
71.10000 2.346
71.12000 -2.160
71.14000 -1.886
71.16000 1.668
71.18000 3.520
71.20000 -0.141
71.22000 1.739
71.24000 1.075
71.26000 1.471
71.28000 1.719
71.30000 1.057
71.32000 3.284
71.34000 3.742
71.36000 0.635
71.38000 0.624
71.40000 2.920
71.42000 0.066
71.44000 0.599
71.46000 2.478
71.48000 5.061
71.50000 0.186
71.52000 -2.206
71.54000 0.390
71.56000 3.502
71.58000 1.733
71.60000 2.237
71.62000 -0.511
71.64000 1.036
71.66000 1.530
71.68000 1.566
71.70000 3.980
71.72000 0.272
71.74000 -0.192
71.76000 1.226
71.78000 0.501
71.80000 0.731
71.82000 6.390
71.84000 4.814
71.86000 4.844
71.88000 6.193
71.90000 0.701
71.92000 1.110
71.94000 3.352
71.96000 1.557
71.98000 0.729
72.00000 -0.532
72.02000 0.805
72.04000 2.537
72.06000 2.978
72.08000 1.627
72.10000 2.200
72.12000 1.128
72.14000 2.767
72.16000 4.134
72.18000 3.751
72.20000 3.145
72.22000 4.478
72.24000 3.783
72.26000 2.983
72.28000 1.272
72.30000 -2.174
72.32000 3.920
72.34000 4.934
72.36000 -0.263
72.38000 0.486
72.40000 -0.382
72.42000 -0.503
72.44000 1.493
72.46000 4.471
72.48000 0.753
72.50000 0.395
72.52000 4.212
72.54000 3.909
72.56000 2.270
72.58000 3.571
72.60000 1.584
72.62000 0.006
72.64000 -1.841
72.66000 0.378
72.68000 0.772
72.70000 0.624
72.72000 0.872
72.74000 1.163
72.76000 2.732
72.78000 -2.095
72.80000 1.583
72.82000 1.982
72.84000 -1.263
72.86000 -2.153
72.88000 -0.265
72.90000 4.530
72.92000 5.576
72.94000 3.042
72.96000 -1.592
72.98000 0.600
73.00000 1.101
73.02000 3.637
73.04000 0.660
73.06000 0.605
73.08000 1.018
73.10000 0.982
73.12000 0.411
73.14000 2.722
73.16000 3.205
73.18000 1.189
73.20000 5.085
73.22000 4.677
73.24000 1.481
73.26000 4.760
73.28000 5.829
73.30000 3.463
73.32000 3.156
73.34000 4.446
73.36000 4.361
73.38000 2.007
73.40000 2.744
73.42000 4.934
73.44000 1.496
73.46000 -2.140
73.48000 2.406
73.50000 1.686
73.52000 -0.042
73.54000 1.652
73.56000 5.354
73.58000 6.365
73.60000 3.006
73.62000 2.187
73.64000 2.359
73.66000 3.296
73.68000 0.781
73.70000 -0.373
73.72000 3.995
73.74000 6.105
73.76000 4.593
73.78000 1.000
73.80000 -2.139
73.82000 1.200
73.84000 -0.379
73.86000 -0.017
73.88000 1.859
73.90000 6.175
73.92000 3.442
73.94000 6.030
73.96000 5.673
73.98000 3.737
74.00000 5.816
74.02000 3.757
74.04000 -0.289
74.06000 1.894
74.08000 -0.898
74.10000 -1.250
74.12000 0.783
74.14000 2.193
74.16000 3.809
74.18000 1.124
74.20000 2.605
74.22000 2.283
74.24000 1.677
74.26000 3.587
74.28000 4.627
74.30000 1.251
74.32000 1.717
74.34000 0.575
74.36000 0.087
74.38000 2.390
74.40000 0.993
74.42000 1.246
74.44000 2.781
74.46000 -0.517
74.48000 2.982
74.50000 2.770
74.52000 -0.036
74.54000 2.268
74.56000 0.706
74.58000 -0.568
74.60000 2.619
74.62000 -1.420
74.64000 -1.143
74.66000 -0.873
74.68000 -0.789
74.70000 0.536
74.72000 0.754
74.74000 1.634
74.76000 1.836
74.78000 2.333
74.80000 1.667
74.82000 3.995
74.84000 0.605
74.86000 5.552
74.88000 5.615
74.90000 7.412
74.92000 4.992
74.94000 1.154
74.96000 2.904
74.98000 0.058
75.00000 -0.464
75.02000 -0.015
75.04000 2.690
75.06000 -0.368
75.08000 -2.137
75.10000 1.140
75.12000 3.273
75.14000 4.642
75.16000 2.720
75.18000 2.825
75.20000 -0.209
75.22000 -1.250
75.24000 0.123
75.26000 0.325
75.28000 0.236
75.30000 0.040
75.32000 -1.190
75.34000 -0.266
75.36000 2.350
75.38000 3.632
75.40000 1.040
75.42000 -1.536
75.44000 2.745
75.46000 -0.326
75.48000 -1.640
75.50000 0.713
75.52000 -1.093
75.54000 0.800
75.56000 2.533
75.58000 5.073
75.60000 1.815
75.62000 6.263
75.64000 3.992
75.66000 3.918
75.68000 8.424
75.70000 4.821
75.72000 4.196
75.74000 3.366
75.76000 0.707
75.78000 1.556
75.80000 4.029
75.82000 4.113
75.84000 1.014
75.86000 5.556
75.88000 0.406
75.90000 4.976
75.92000 2.283
75.94000 1.463
75.96000 4.915
75.98000 4.729
76.00000 4.055
76.02000 2.116
76.04000 2.906
76.06000 2.630
76.08000 2.004
76.10000 1.421
76.12000 0.570
76.14000 0.452
76.16000 5.002
76.18000 5.939
76.20000 3.089
76.22000 0.581
76.24000 -2.129
76.26000 4.070
76.28000 4.887
76.30000 4.942
76.32000 3.876
76.34000 1.239
76.36000 3.723
76.38000 4.595
76.40000 3.903
76.42000 7.415
76.44000 6.072
76.46000 2.312
76.48000 3.316
76.50000 0.197
76.52000 -0.465
76.54000 0.442
76.56000 3.462
76.58000 1.341
76.60000 1.857
76.62000 3.866
76.64000 1.590
76.66000 2.967
76.68000 3.825
76.70000 5.819
76.72000 4.157
76.74000 1.896
76.76000 0.772
76.78000 3.014
76.80000 0.650
76.82000 -0.354
76.84000 1.957
76.86000 3.142
76.88000 5.190
76.90000 5.994
76.92000 1.888
76.94000 -1.997
76.96000 -1.143
76.98000 -0.430
77.00000 -0.409
77.02000 -0.254
77.04000 2.220
77.06000 0.009
77.08000 -2.050
77.10000 -0.771
77.12000 -0.649
77.14000 1.538
77.16000 2.745
77.18000 5.880
77.20000 4.630
77.22000 4.674
77.24000 2.536
77.26000 2.604
77.28000 1.707
77.30000 3.431
77.32000 1.885
77.34000 -0.163
77.36000 4.219
77.38000 5.105
77.40000 3.923
77.42000 2.285
77.44000 -0.188
77.46000 2.908
77.48000 3.015
77.50000 3.232
77.52000 5.108
77.54000 -0.530
77.56000 0.376
77.58000 -0.295
77.60000 -0.631
77.62000 -2.181
77.64000 0.788
77.66000 1.173
77.68000 -0.078
77.70000 1.759
77.72000 4.069
77.74000 0.451
77.76000 -1.810
77.78000 -1.104
77.80000 2.910
77.82000 4.217
77.84000 2.853
77.86000 3.005
77.88000 5.742
77.90000 7.213
77.92000 2.004
77.94000 -1.572
77.96000 -1.853
77.98000 0.363
78.00000 3.058
78.02000 0.541
78.04000 0.825
78.06000 3.211
78.08000 5.918
78.10000 2.883
78.12000 3.041
78.14000 2.949
78.16000 3.219
78.18000 2.100
78.20000 1.266
78.22000 1.020
78.24000 5.399
78.26000 6.054
78.28000 2.466
78.30000 2.723
78.32000 0.206
78.34000 3.925
78.36000 1.410
78.38000 0.760
78.40000 1.549
78.42000 2.809
78.44000 0.345
78.46000 1.840
78.48000 3.585
78.50000 1.904
78.52000 0.076
78.54000 0.263
78.56000 -0.173
78.58000 4.499
78.60000 -0.201
78.62000 2.140
78.64000 -0.158
78.66000 1.898
78.68000 6.284
78.70000 5.725
78.72000 4.193
78.74000 2.665
78.76000 2.435
78.78000 1.420
78.80000 5.951
78.82000 1.659
78.84000 1.149
78.86000 -0.578
78.88000 0.130
78.90000 4.093
78.92000 5.803
78.94000 2.839
78.96000 1.966
78.98000 0.377
79.00000 -0.743
79.02000 2.431
79.04000 5.722
79.06000 4.512
79.08000 2.402
79.10000 4.791
79.12000 4.931
79.14000 5.743
79.16000 5.373
79.18000 6.626
79.20000 6.150
79.22000 5.610
79.24000 -0.652
79.26000 -2.194
79.28000 1.629
79.30000 1.365
79.32000 4.864
79.34000 3.445
79.36000 3.847
79.38000 4.352
79.40000 1.985
79.42000 0.009
79.44000 2.295
79.46000 5.328
79.48000 1.856
79.50000 2.419
79.52000 4.586
79.54000 4.414
79.56000 0.992
79.58000 3.630
79.60000 -0.363
79.62000 1.622
79.64000 1.924
79.66000 2.030
79.68000 -0.849
79.70000 3.756
79.72000 1.405
79.74000 2.830
79.76000 7.381
79.78000 4.000
79.80000 4.926
79.82000 5.229
79.84000 2.364
79.86000 2.577
79.88000 7.350
79.90000 4.832
79.92000 2.101
79.94000 5.266
79.96000 3.204
79.98000 2.470
80.00000 1.114
80.02000 4.680
80.04000 4.950
80.06000 1.920
80.08000 0.106
80.10000 0.970
80.12000 4.198
80.14000 3.180
80.16000 2.325
80.18000 4.334
80.20000 2.907
80.22000 1.661
80.24000 0.834
80.26000 -0.243
80.28000 -0.340
80.30000 2.511
80.32000 3.931
80.34000 4.864
80.36000 5.119
80.38000 3.916
80.40000 6.629
80.42000 3.637
80.44000 2.809
80.46000 4.616
80.48000 5.155
80.50000 0.640
80.52000 -2.340
80.54000 0.603
80.56000 3.341
80.58000 6.277
80.60000 7.128
80.62000 7.612
80.64000 6.952
80.66000 5.798
80.68000 2.132
80.70000 2.502
80.72000 0.649
80.74000 5.512
80.76000 2.921
80.78000 0.644
80.80000 6.743
80.82000 6.850
80.84000 2.678
80.86000 4.854
80.88000 5.368
80.90000 5.363
80.92000 9.038
80.94000 11.012
80.96000 5.418
80.98000 4.183
81.00000 -0.285
81.02000 4.738
81.04000 5.412
81.06000 9.534
81.08000 8.739
81.10000 6.047
81.12000 6.622
81.14000 8.369
81.16000 9.808
81.18000 11.749
81.20000 13.332
81.22000 11.586
81.24000 10.853
81.26000 10.354
81.28000 9.454
81.30000 9.470
81.32000 10.046
81.34000 7.323
81.36000 10.614
81.38000 13.386
81.40000 14.487
81.42000 11.947
81.44000 10.171
81.46000 17.103
81.48000 14.516
81.50000 13.498
81.52000 14.385
81.54000 14.187
81.56000 13.703
81.58000 13.629
81.60000 14.636
81.62000 12.425
81.64000 12.478
81.66000 18.294
81.68000 19.375
81.70000 20.021
81.72000 23.804
81.74000 15.738
81.76000 15.714
81.78000 18.190
81.80000 17.173
81.82000 18.719
81.84000 20.860
81.86000 23.299
81.88000 24.812
81.90000 21.810
81.92000 23.194
81.94000 23.196
81.96000 22.507
81.98000 23.739
82.00000 24.448
82.02000 26.832
82.04000 30.779
82.06000 29.973
82.08000 26.270
82.10000 33.106
82.12000 28.220
82.14000 27.951
82.16000 32.802
82.18000 34.530
82.20000 34.246
82.22000 35.154
82.24000 35.899
82.26000 34.016
82.28000 34.170
82.30000 32.556
82.32000 32.857
82.34000 33.164
82.36000 37.362
82.38000 36.619
82.40000 34.732
82.42000 34.781
82.44000 35.530
82.46000 34.544
82.48000 31.298
82.50000 32.527
82.52000 34.104
82.54000 34.767
82.56000 34.118
82.58000 35.633
82.60000 35.811
82.62000 38.868
82.64000 34.445
82.66000 36.015
82.68000 33.350
82.70000 29.502
82.72000 31.654
82.74000 33.018
82.76000 32.738
82.78000 34.437
82.80000 34.205
82.82000 29.522
82.84000 30.627
82.86000 31.211
82.88000 29.224
82.90000 29.316
82.92000 29.125
82.94000 22.274
82.96000 20.378
82.98000 22.296
83.00000 22.092
83.02000 19.632
83.04000 21.120
83.06000 17.904
83.08000 15.779
83.10000 15.958
83.12000 17.541
83.14000 12.451
83.16000 19.501
83.18000 26.141
83.20000 16.867
83.22000 18.099
83.24000 20.192
83.26000 19.486
83.28000 14.805
83.30000 9.644
83.32000 13.270
83.34000 13.353
83.36000 8.909
83.38000 6.135
83.40000 7.626
83.42000 11.915
83.44000 14.689
83.46000 16.045
83.48000 11.741
83.50000 5.454
83.52000 5.227
83.54000 9.884
83.56000 6.699
83.58000 5.692
83.60000 7.814
83.62000 9.332
83.64000 5.939
83.66000 10.046
83.68000 11.879
83.70000 10.783
83.72000 10.288
83.74000 4.865
83.76000 6.085
83.78000 3.016
83.80000 2.888
83.82000 6.114
83.84000 5.265
83.86000 4.594
83.88000 5.487
83.90000 5.501
83.92000 9.054
83.94000 8.285
83.96000 -2.322
83.98000 0.722
84.00000 4.519
84.02000 6.177
84.04000 4.759
84.06000 3.242
84.08000 0.655
84.10000 0.670
84.12000 -1.703
84.14000 2.826
84.16000 3.517
84.18000 1.438
84.20000 0.357
84.22000 2.238
84.24000 -0.296
84.26000 0.879
84.28000 1.269
84.30000 4.492
84.32000 7.731
84.34000 1.652
84.36000 3.057
84.38000 2.313
84.40000 -1.713
84.42000 1.738
84.44000 -1.149
84.46000 0.472
84.48000 0.247
84.50000 -1.167
84.52000 -2.085
84.54000 0.252
84.56000 0.464
84.58000 1.024
84.60000 4.798
84.62000 4.483
84.64000 5.838
84.66000 4.705
84.68000 2.456
84.70000 0.670
84.72000 -2.235
84.74000 0.025
84.76000 3.648
84.78000 0.702
84.80000 1.126
84.82000 3.242
84.84000 6.953
84.86000 8.248
84.88000 4.809
84.90000 5.168
84.92000 1.354
84.94000 -0.666
84.96000 1.658
84.98000 -0.693
85.00000 -0.850
85.02000 -2.283
85.04000 0.258
85.06000 1.572
85.08000 2.708
85.10000 4.315
85.12000 3.711
85.14000 2.461
85.16000 4.308
85.18000 3.716
85.20000 6.909
85.22000 6.325
85.24000 7.206
85.26000 8.788
85.28000 6.529
85.30000 0.090
85.32000 2.144
85.34000 4.173
85.36000 3.103
85.38000 2.251
85.40000 2.394
85.42000 2.795
85.44000 2.120
85.46000 0.507
85.48000 4.884
85.50000 6.192
85.52000 2.885
85.54000 4.152
85.56000 1.182
85.58000 1.711
85.60000 2.397
85.62000 2.975
85.64000 7.024
85.66000 10.302
85.68000 10.935
85.70000 6.770
85.72000 5.129
85.74000 7.417
85.76000 7.322
85.78000 5.634
85.80000 4.685
85.82000 2.427
85.84000 5.334
85.86000 9.780
85.88000 12.388
85.90000 13.098
85.92000 12.156
85.94000 9.938
85.96000 12.486
85.98000 14.352
86.00000 11.068
86.02000 12.036
86.04000 14.660
86.06000 16.168
86.08000 17.478
86.10000 16.065
86.12000 16.430
86.14000 17.396
86.16000 17.865
86.18000 19.525
86.20000 21.951
86.22000 20.663
86.24000 23.547
86.26000 21.993
86.28000 22.939
86.30000 24.615
86.32000 23.530
86.34000 21.884
86.36000 26.390
86.38000 25.941
86.40000 26.430
86.42000 24.872
86.44000 26.969
86.46000 29.095
86.48000 28.153
86.50000 29.621
86.52000 30.390
86.54000 26.239
86.56000 24.550
86.58000 30.536
86.60000 32.271
86.62000 30.779
86.64000 31.751
86.66000 28.317
86.68000 29.691
86.70000 30.093
86.72000 29.723
86.74000 29.758
86.76000 24.233
86.78000 25.443
86.80000 23.995
86.82000 25.704
86.84000 32.494
86.86000 28.524
86.88000 26.774
86.90000 27.141
86.92000 25.592
86.94000 23.523
86.96000 21.681
86.98000 25.528
87.00000 28.073
87.02000 23.380
87.04000 23.413
87.06000 23.244
87.08000 22.787
87.10000 21.985
87.12000 17.857
87.14000 15.025
87.16000 16.400
87.18000 16.129
87.20000 15.977
87.22000 14.002
87.24000 14.642
87.26000 20.329
87.28000 17.904
87.30000 12.435
87.32000 9.983
87.34000 11.445
87.36000 13.336
87.38000 10.481
87.40000 11.985
87.42000 9.305
87.44000 11.189
87.46000 8.207
87.48000 11.569
87.50000 8.053
87.52000 2.668
87.54000 6.996
87.56000 11.490
87.58000 10.301
87.60000 6.860
87.62000 9.066
87.64000 8.656
87.66000 9.902
87.68000 10.418
87.70000 4.565
87.72000 2.259
87.74000 3.271
87.76000 6.118
87.78000 5.336
87.80000 5.050
87.82000 0.748
87.84000 1.322
87.86000 7.738
87.88000 8.970
87.90000 7.344
87.92000 5.391
87.94000 0.543
87.96000 0.510
87.98000 0.597
88.00000 4.361
88.02000 3.422
88.04000 -0.675
88.06000 -1.123
88.08000 2.736
88.10000 4.051
88.12000 0.843
88.14000 -2.185
88.16000 3.829
88.18000 7.771
88.20000 3.498
88.22000 0.575
88.24000 -0.621
88.26000 2.250
88.28000 0.161
88.30000 0.202
88.32000 0.498
88.34000 4.010
88.36000 3.214
88.38000 3.089
88.40000 3.060
88.42000 -0.131
88.44000 1.369
88.46000 0.679
88.48000 -2.120
88.50000 1.125
88.52000 4.931
88.54000 1.017
88.56000 2.633
88.58000 1.976
88.60000 0.805
88.62000 3.655
88.64000 3.922
88.66000 2.556
88.68000 0.893
88.70000 3.854
88.72000 4.519
88.74000 1.820
88.76000 2.887
88.78000 3.579
88.80000 1.729
88.82000 4.016
88.84000 5.605
88.86000 1.403
88.88000 1.139
88.90000 0.778
88.92000 0.757
88.94000 1.142
88.96000 5.207
88.98000 4.098
89.00000 4.921
89.02000 2.197
89.04000 2.104
89.06000 4.057
89.08000 2.738
89.10000 1.557
89.12000 0.184
89.14000 0.540
89.16000 -2.080
89.18000 -1.051
89.20000 2.323
89.22000 -0.940
89.24000 -1.143
89.26000 2.392
89.28000 3.494
89.30000 -0.792
89.32000 1.771
89.34000 2.651
89.36000 1.157
89.38000 1.184
89.40000 0.215
89.42000 -1.828
89.44000 3.549
89.46000 3.299
89.48000 3.449
89.50000 0.448
89.52000 -1.186
89.54000 0.305
89.56000 0.647
89.58000 2.687
89.60000 -0.831
89.62000 -0.209
89.64000 -0.924
89.66000 0.400
89.68000 2.189
89.70000 4.670
89.72000 1.899
89.74000 -0.940
89.76000 0.412
89.78000 2.100
89.80000 0.024
89.82000 2.233
89.84000 3.916
89.86000 3.636
89.88000 -1.789
89.90000 1.373
89.92000 4.650
89.94000 1.306
89.96000 1.192
89.98000 3.142
90.00000 6.175
90.02000 7.007
90.04000 4.547
90.06000 3.357
90.08000 1.635
90.10000 0.234
90.12000 -1.151
90.14000 3.435
90.16000 7.307
90.18000 2.987
90.20000 3.289
90.22000 3.530
90.24000 4.455
90.26000 6.138
90.28000 4.430
90.30000 2.640
90.32000 2.898
90.34000 0.131
90.36000 -2.018
90.38000 1.914
90.40000 5.418
90.42000 2.933
90.44000 -0.221
90.46000 0.036
90.48000 1.049
90.50000 -0.197
90.52000 3.100
90.54000 3.779
90.56000 1.461
90.58000 4.678
90.60000 5.815
90.62000 5.895
90.64000 6.450
90.66000 4.926
90.68000 -1.297
90.70000 -1.523
90.72000 1.643
90.74000 2.521
90.76000 3.299
90.78000 4.028
90.80000 0.340
90.82000 -1.625
90.84000 0.327
90.86000 4.376
90.88000 1.630
90.90000 0.379
90.92000 3.931
90.94000 2.380
90.96000 1.715
90.98000 4.670
91.00000 2.930
91.02000 0.137
91.04000 1.059
91.06000 0.272
91.08000 0.162
91.10000 1.617
91.12000 3.178
91.14000 5.183
91.16000 4.461
91.18000 1.823
91.20000 -0.439
91.22000 -0.755
91.24000 -1.348
91.26000 -0.017
91.28000 1.957
91.30000 1.150
91.32000 3.429
91.34000 6.203
91.36000 2.350
91.38000 3.035
91.40000 1.832
91.42000 3.311
91.44000 2.132
91.46000 0.987
91.48000 -1.133
91.50000 -1.257
91.52000 4.490
91.54000 0.663
91.56000 2.511
91.58000 0.792
91.60000 4.756
91.62000 2.445
91.64000 0.187
91.66000 -0.794
91.68000 3.471
91.70000 1.674
91.72000 -0.551
91.74000 -1.658
91.76000 1.808
91.78000 3.757
91.80000 3.469
91.82000 6.020
91.84000 3.824
91.86000 5.658
91.88000 3.591
91.90000 2.296
91.92000 0.930
91.94000 2.108
91.96000 1.059
91.98000 1.185
92.00000 -0.781
92.02000 0.565
92.04000 5.156
92.06000 4.968
92.08000 1.366
92.10000 4.386
92.12000 5.192
92.14000 2.738
92.16000 -1.024
92.18000 3.453
92.20000 4.642
92.22000 1.613
92.24000 1.851
92.26000 -1.615
92.28000 2.188
92.30000 1.465
92.32000 0.782
92.34000 -2.001
92.36000 1.953
92.38000 3.351
92.40000 1.096
92.42000 6.677
92.44000 6.896
92.46000 3.627
92.48000 3.421
92.50000 -1.508
92.52000 0.587
92.54000 1.595
92.56000 3.023
92.58000 5.825
92.60000 6.669
92.62000 4.287
92.64000 5.398
92.66000 4.242
92.68000 3.973
92.70000 6.682
92.72000 3.436
92.74000 4.322
92.76000 6.012
92.78000 4.979
92.80000 1.868
92.82000 4.698
92.84000 4.905
92.86000 4.337
92.88000 1.748
92.90000 3.577
92.92000 5.061
92.94000 6.355
92.96000 6.267
92.98000 6.378
93.00000 3.140
93.02000 2.111
93.04000 4.151
93.06000 4.506
93.08000 4.542
93.10000 -0.277
93.12000 -0.526
93.14000 -2.037
93.16000 0.992
93.18000 1.234
93.20000 0.214
93.22000 -0.927
93.24000 2.225
93.26000 5.309
93.28000 6.568
93.30000 3.872
93.32000 3.897
93.34000 0.654
93.36000 3.254
93.38000 2.866
93.40000 0.414
93.42000 1.666
93.44000 0.745
93.46000 -0.569
93.48000 0.579
93.50000 0.287
93.52000 2.796
93.54000 1.841
93.56000 -0.978
93.58000 2.362
93.60000 6.926
93.62000 1.176
93.64000 0.986
93.66000 2.259
93.68000 3.726
93.70000 3.320
93.72000 1.547
93.74000 -0.415
93.76000 1.431
93.78000 -0.099
93.80000 -0.282
93.82000 3.360
93.84000 5.062
93.86000 1.014
93.88000 -0.382
93.90000 3.074
93.92000 2.896
93.94000 3.940
93.96000 -1.015
93.98000 -0.405
94.00000 -0.819
94.02000 -2.065
94.04000 2.901
94.06000 2.723
94.08000 -1.364
94.10000 -2.024
94.12000 0.045
94.14000 1.638
94.16000 4.131
94.18000 1.190
94.20000 -0.900
94.22000 0.767
94.24000 2.276
94.26000 3.889
94.28000 4.944
94.30000 4.570
94.32000 3.942
94.34000 0.072
94.36000 2.499
94.38000 1.617
94.40000 -1.097
94.42000 -0.847
94.44000 1.313
94.46000 1.540
94.48000 6.039
94.50000 3.688
94.52000 0.617
94.54000 -0.979
94.56000 -2.027
94.58000 1.420
94.60000 2.178
94.62000 1.840
94.64000 -0.974
94.66000 0.462
94.68000 0.036
94.70000 3.682
94.72000 2.811
94.74000 -2.052
94.76000 -2.028
94.78000 3.168
94.80000 4.465
94.82000 6.854
94.84000 6.082
94.86000 4.861
94.88000 3.492
94.90000 4.324
94.92000 7.605
94.94000 6.900
94.96000 3.348
94.98000 4.305
95.00000 5.627
95.02000 5.407
95.04000 1.952
95.06000 5.189
95.08000 4.187
95.10000 4.419
95.12000 -1.457
95.14000 -2.045
95.16000 -1.193
95.18000 4.858
95.20000 3.980
95.22000 7.294
95.24000 3.698
95.26000 0.653
95.28000 5.904
95.30000 5.432
95.32000 2.866
95.34000 4.694
95.36000 3.778
95.38000 4.670
95.40000 5.425
95.42000 3.884
95.44000 1.991
95.46000 0.802
95.48000 2.271
95.50000 2.210
95.52000 3.573
95.54000 4.669
95.56000 4.033
95.58000 2.076
95.60000 8.280
95.62000 3.820
95.64000 1.959
95.66000 4.822
95.68000 -2.072
95.70000 0.524
95.72000 0.168
95.74000 -0.002
95.76000 -1.009
95.78000 2.404
95.80000 4.344
95.82000 8.466
95.84000 4.773
95.86000 3.308
95.88000 5.454
95.90000 5.202
95.92000 1.301
95.94000 0.322
95.96000 2.806
95.98000 3.735
96.00000 0.734
96.02000 -0.693
96.04000 0.682
96.06000 3.619
96.08000 4.335
96.10000 8.699
96.12000 5.974
96.14000 3.495
96.16000 2.743
96.18000 4.962
96.20000 7.947
96.22000 9.979
96.24000 4.065
96.26000 5.371
96.28000 4.999
96.30000 2.565
96.32000 1.920
96.34000 7.087
96.36000 0.450
96.38000 1.793
96.40000 0.205
96.42000 1.347
96.44000 2.468
96.46000 3.152
96.48000 3.582
96.50000 6.621
96.52000 3.700
96.54000 1.005
96.56000 0.234
96.58000 5.454
96.60000 5.175
96.62000 2.028
96.64000 5.863
96.66000 4.199
96.68000 -0.398
96.70000 0.096
96.72000 -2.048
96.74000 0.358
96.76000 1.818
96.78000 0.515
96.80000 1.589
96.82000 1.172
96.84000 2.281
96.86000 -1.390
96.88000 3.242
96.90000 5.491
96.92000 11.451
96.94000 8.238
96.96000 9.963
96.98000 4.833
97.00000 3.241
97.02000 -1.933
97.04000 -0.489
97.06000 2.867
97.08000 0.803
97.10000 -0.032
97.12000 3.343
97.14000 1.345
97.16000 -0.761
97.18000 3.831
97.20000 4.200
97.22000 -0.205
97.24000 0.796
97.26000 4.837
97.28000 2.746
97.30000 1.086
97.32000 4.174
97.34000 3.335
97.36000 3.370
97.38000 1.526
97.40000 3.294
97.42000 -0.149
97.44000 3.470
97.46000 1.589
97.48000 5.193
97.50000 6.519
97.52000 4.397
97.54000 7.740
97.56000 5.561
97.58000 2.584
97.60000 4.920
97.62000 7.140
97.64000 5.437
97.66000 1.905
97.68000 1.242
97.70000 2.348
97.72000 5.842
97.74000 7.086
97.76000 5.492
97.78000 3.534
97.80000 3.357
97.82000 -0.257
97.84000 0.730
97.86000 4.769
97.88000 4.054
97.90000 5.104
97.92000 6.396
97.94000 2.052
97.96000 -1.103
97.98000 2.003
98.00000 10.152
98.02000 7.247
98.04000 7.329
98.06000 8.081
98.08000 3.979
98.10000 3.656
98.12000 8.378
98.14000 8.815
98.16000 8.106
98.18000 -0.276
98.20000 3.636
98.22000 -1.977
98.24000 0.381
98.26000 0.898
98.28000 0.380
98.30000 8.146
98.32000 8.435
98.34000 2.886
98.36000 1.399
98.38000 3.495
98.40000 5.902
98.42000 2.217
98.44000 -1.981
98.46000 3.462
98.48000 7.515
98.50000 11.326
98.52000 15.368
98.54000 7.612
98.56000 6.810
98.58000 6.601
98.60000 1.271
98.62000 1.154
98.64000 2.257
98.66000 4.308
98.68000 7.102
98.70000 3.614
98.72000 1.512
98.74000 -1.988
98.76000 1.230
98.78000 7.858
98.80000 6.749
98.82000 7.874
98.84000 5.353
98.86000 6.821
98.88000 0.966
98.90000 10.956
98.92000 7.662
98.94000 4.887
98.96000 -0.693
98.98000 -1.990
99.00000 4.051
99.02000 13.827
99.04000 7.611
99.06000 1.030
99.08000 4.580
99.10000 4.391
99.12000 5.569
99.14000 4.352
99.16000 3.672
99.18000 12.834
99.20000 5.301
99.22000 16.246
99.24000 18.942
99.26000 12.491
99.28000 4.494
99.30000 3.554
99.32000 7.877
99.34000 8.486
99.36000 1.485
99.38000 4.308
99.40000 8.628
99.42000 3.105
99.44000 6.335
99.46000 1.389
99.48000 5.523
99.50000 10.576
99.52000 5.554
99.54000 5.162
99.56000 5.297
99.58000 9.643
99.60000 9.813
99.62000 3.196
99.64000 4.490
99.66000 3.873
99.68000 -2.024
99.70000 6.100
99.72000 15.304
99.74000 7.569
99.76000 0.473
99.78000 -2.355
99.80000 9.105
99.82000 6.851
99.84000 -0.982
99.86000 -1.892
99.88000 -0.702
99.90000 3.472
99.92000 13.045
99.94000 -2.274
99.96000 -2.246
99.98000 0.000
