'Id: "0011387" Comment: "Integrate frame 0011387_Au-Ir-Rh_Rh-rich_XRD-Mapping-315-0000.gfrmwith cursor Wedge Cursor #5" Operator: "B?rgel" Anode: "Cu" Wavelength: "1.5406" Scantype: "2Theta (TwoTheta)" TimePerStep: "1" X: "-9" Y: "36" Z: "5.95" 
10.00000 0.000
10.02000 8.485
10.04000 4.790
10.06000 3.199
10.08000 14.642
10.10000 30.089
10.12000 18.976
10.14000 4.982
10.16000 8.340
10.18000 6.541
10.20000 -4.322
10.22000 11.374
10.24000 25.579
10.26000 16.686
10.28000 28.417
10.30000 23.453
10.32000 20.009
10.34000 16.597
10.36000 18.976
10.38000 9.959
10.40000 23.114
10.42000 25.329
10.44000 11.369
10.46000 21.885
10.48000 22.895
10.50000 19.886
10.52000 16.666
10.54000 32.201
10.56000 18.642
10.58000 32.541
10.60000 30.367
10.62000 23.034
10.64000 14.507
10.66000 28.756
10.68000 23.027
10.70000 5.553
10.72000 -1.608
10.74000 -1.079
10.76000 7.792
10.78000 10.895
10.80000 6.879
10.82000 13.850
10.84000 21.842
10.86000 11.569
10.88000 19.884
10.90000 31.562
10.92000 27.069
10.94000 11.929
10.96000 10.828
10.98000 12.468
11.00000 11.486
11.02000 9.170
11.04000 15.827
11.06000 20.441
11.08000 19.448
11.10000 12.411
11.12000 16.813
11.14000 15.382
11.16000 22.371
11.18000 8.184
11.20000 22.378
11.22000 17.682
11.24000 15.360
11.26000 19.875
11.28000 10.736
11.30000 13.241
11.32000 18.675
11.34000 12.378
11.36000 11.349
11.38000 14.865
11.40000 18.720
11.42000 19.565
11.44000 25.471
11.46000 8.465
11.48000 -3.253
11.50000 4.256
11.52000 6.107
11.54000 5.200
11.56000 0.069
11.58000 11.213
11.60000 23.704
11.62000 25.698
11.64000 9.744
11.66000 14.482
11.68000 25.100
11.70000 27.565
11.72000 25.801
11.74000 21.452
11.76000 11.082
11.78000 13.825
11.80000 13.321
11.82000 17.033
11.84000 8.702
11.86000 11.246
11.88000 13.202
11.90000 10.448
11.92000 12.208
11.94000 0.305
11.96000 4.180
11.98000 2.044
12.00000 17.893
12.02000 18.793
12.04000 10.119
12.06000 24.710
12.08000 22.444
12.10000 12.286
12.12000 5.482
12.14000 13.914
12.16000 22.611
12.18000 15.427
12.20000 9.033
12.22000 -4.249
12.24000 2.715
12.26000 4.957
12.28000 7.105
12.30000 3.355
12.32000 12.950
12.34000 13.466
12.36000 22.102
12.38000 17.536
12.40000 9.979
12.42000 5.733
12.44000 4.604
12.46000 12.404
12.48000 25.997
12.50000 23.530
12.52000 19.237
12.54000 15.385
12.56000 16.690
12.58000 21.902
12.60000 22.790
12.62000 13.722
12.64000 25.670
12.66000 33.310
12.68000 18.492
12.70000 15.871
12.72000 13.111
12.74000 21.265
12.76000 20.615
12.78000 16.369
12.80000 18.818
12.82000 12.007
12.84000 4.697
12.86000 8.085
12.88000 15.436
12.90000 11.572
12.92000 16.343
12.94000 18.805
12.96000 14.062
12.98000 22.346
13.00000 21.304
13.02000 16.452
13.04000 22.296
13.06000 19.470
13.08000 14.033
13.10000 3.552
13.12000 10.118
13.14000 8.573
13.16000 14.844
13.18000 11.831
13.20000 9.294
13.22000 4.122
13.24000 9.268
13.26000 13.299
13.28000 8.801
13.30000 14.743
13.32000 19.931
13.34000 13.577
13.36000 12.703
13.38000 24.210
13.40000 4.817
13.42000 -4.483
13.44000 -4.483
13.46000 1.050
13.48000 9.109
13.50000 11.472
13.52000 13.915
13.54000 11.041
13.56000 2.774
13.58000 9.727
13.60000 13.606
13.62000 13.538
13.64000 19.643
13.66000 16.713
13.68000 16.735
13.70000 18.778
13.72000 15.009
13.74000 17.148
13.76000 17.312
13.78000 20.004
13.80000 4.970
13.82000 3.057
13.84000 10.256
13.86000 -0.501
13.88000 6.858
13.90000 13.267
13.92000 16.880
13.94000 5.597
13.96000 9.451
13.98000 3.203
14.00000 6.113
14.02000 7.175
14.04000 8.553
14.06000 4.670
14.08000 2.195
14.10000 2.271
14.12000 7.972
14.14000 0.399
14.16000 0.706
14.18000 1.416
14.20000 1.494
14.22000 2.652
14.24000 9.079
14.26000 7.742
14.28000 2.784
14.30000 -2.323
14.32000 5.604
14.34000 0.567
14.36000 2.178
14.38000 6.811
14.40000 3.091
14.42000 2.598
14.44000 10.593
14.46000 3.243
14.48000 1.948
14.50000 1.688
14.52000 6.672
14.54000 4.857
14.56000 -0.626
14.58000 0.696
14.60000 -1.866
14.62000 2.616
14.64000 14.379
14.66000 11.146
14.68000 3.272
14.70000 7.169
14.72000 13.045
14.74000 9.945
14.76000 6.514
14.78000 13.473
14.80000 11.427
14.82000 -0.659
14.84000 1.686
14.86000 5.130
14.88000 14.407
14.90000 7.078
14.92000 13.393
14.94000 13.243
14.96000 9.586
14.98000 9.074
15.00000 6.001
15.02000 10.224
15.04000 7.311
15.06000 11.178
15.08000 11.175
15.10000 8.153
15.12000 10.925
15.14000 4.739
15.16000 9.248
15.18000 4.080
15.20000 4.284
15.22000 14.189
15.24000 2.308
15.26000 0.748
15.28000 10.439
15.30000 5.051
15.32000 2.219
15.34000 5.281
15.36000 7.059
15.38000 6.619
15.40000 3.914
15.42000 7.508
15.44000 13.192
15.46000 5.281
15.48000 18.475
15.50000 14.070
15.52000 1.165
15.54000 -0.988
15.56000 2.341
15.58000 8.101
15.60000 3.029
15.62000 4.280
15.64000 10.127
15.66000 7.422
15.68000 4.150
15.70000 5.157
15.72000 4.504
15.74000 -1.853
15.76000 2.066
15.78000 5.851
15.80000 8.070
15.82000 8.458
15.84000 7.466
15.86000 4.193
15.88000 -1.400
15.90000 10.312
15.92000 11.521
15.94000 5.334
15.96000 2.829
15.98000 0.257
16.00000 0.111
16.02000 4.235
16.04000 9.198
16.06000 7.522
16.08000 11.915
16.10000 15.535
16.12000 7.178
16.14000 -0.921
16.16000 2.229
16.18000 0.695
16.20000 4.488
16.22000 -2.038
16.24000 -3.403
16.26000 3.718
16.28000 3.108
16.30000 4.979
16.32000 6.352
16.34000 2.168
16.36000 5.407
16.38000 1.925
16.40000 -4.459
16.42000 0.377
16.44000 17.015
16.46000 10.650
16.48000 5.784
16.50000 2.740
16.52000 -0.722
16.54000 14.079
16.56000 9.804
16.58000 13.421
16.60000 5.508
16.62000 -0.529
16.64000 2.787
16.66000 6.596
16.68000 2.148
16.70000 4.476
16.72000 12.237
16.74000 11.908
16.76000 0.654
16.78000 5.864
16.80000 10.255
16.82000 7.887
16.84000 8.744
16.86000 3.741
16.88000 -1.209
16.90000 -4.419
16.92000 0.883
16.94000 11.760
16.96000 8.435
16.98000 12.754
17.00000 7.794
17.02000 9.658
17.04000 12.576
17.06000 10.321
17.08000 12.215
17.10000 0.859
17.12000 0.102
17.14000 0.878
17.16000 1.794
17.18000 4.149
17.20000 10.754
17.22000 13.884
17.24000 4.921
17.26000 7.540
17.28000 4.743
17.30000 -0.156
17.32000 6.556
17.34000 2.346
17.36000 -0.351
17.38000 2.394
17.40000 -1.738
17.42000 -0.993
17.44000 2.152
17.46000 11.723
17.48000 12.067
17.50000 9.564
17.52000 4.467
17.54000 1.729
17.56000 -2.635
17.58000 0.935
17.60000 8.555
17.62000 8.952
17.64000 -0.311
17.66000 6.276
17.68000 5.909
17.70000 3.021
17.72000 1.938
17.74000 -2.885
17.76000 1.572
17.78000 5.928
17.80000 3.201
17.82000 0.715
17.84000 1.407
17.86000 1.899
17.88000 3.783
17.90000 8.055
17.92000 4.122
17.94000 8.600
17.96000 10.626
17.98000 7.576
18.00000 -0.712
18.02000 -3.557
18.04000 1.489
18.06000 6.795
18.08000 9.983
18.10000 11.261
18.12000 5.502
18.14000 0.918
18.16000 -1.064
18.18000 9.821
18.20000 14.169
18.22000 5.405
18.24000 -0.018
18.26000 -2.257
18.28000 -2.609
18.30000 0.254
18.32000 3.255
18.34000 -0.216
18.36000 -2.076
18.38000 8.493
18.40000 6.876
18.42000 -2.248
18.44000 -0.380
18.46000 2.305
18.48000 1.350
18.50000 5.251
18.52000 3.847
18.54000 1.940
18.56000 1.242
18.58000 4.229
18.60000 5.370
18.62000 1.230
18.64000 -0.344
18.66000 10.872
18.68000 2.310
18.70000 -4.323
18.72000 3.240
18.74000 11.032
18.76000 6.766
18.78000 7.511
18.80000 2.138
18.82000 -4.005
18.84000 -2.367
18.86000 1.526
18.88000 5.336
18.90000 4.803
18.92000 8.265
18.94000 3.024
18.96000 4.016
18.98000 10.191
19.00000 5.668
19.02000 2.987
19.04000 2.618
19.06000 5.845
19.08000 8.214
19.10000 4.024
19.12000 1.394
19.14000 0.717
19.16000 8.634
19.18000 7.253
19.20000 6.898
19.22000 2.190
19.24000 4.718
19.26000 3.964
19.28000 2.605
19.30000 7.946
19.32000 10.693
19.34000 7.873
19.36000 3.043
19.38000 4.721
19.40000 2.363
19.42000 7.073
19.44000 6.989
19.46000 6.057
19.48000 2.439
19.50000 -0.677
19.52000 -0.876
19.54000 1.653
19.56000 -4.299
19.58000 1.623
19.60000 4.647
19.62000 0.551
19.64000 0.396
19.66000 0.049
19.68000 3.875
19.70000 5.896
19.72000 5.833
19.74000 0.649
19.76000 2.914
19.78000 -3.100
19.80000 -3.097
19.82000 4.983
19.84000 6.781
19.86000 8.241
19.88000 4.116
19.90000 5.396
19.92000 3.832
19.94000 -1.388
19.96000 -0.162
19.98000 4.014
20.00000 5.149
20.02000 7.932
20.04000 4.102
20.06000 5.726
20.08000 7.987
20.10000 6.342
20.12000 2.818
20.14000 4.280
20.16000 0.819
20.18000 1.165
20.20000 5.737
20.22000 5.104
20.24000 2.549
20.26000 -2.013
20.28000 -4.258
20.30000 1.835
20.32000 3.427
20.34000 3.948
20.36000 -0.383
20.38000 2.464
20.40000 -2.411
20.42000 0.487
20.44000 13.522
20.46000 6.415
20.48000 8.423
20.50000 10.740
20.52000 6.931
20.54000 0.825
20.56000 -1.307
20.58000 7.092
20.60000 7.540
20.62000 5.166
20.64000 6.447
20.66000 5.656
20.68000 4.956
20.70000 2.317
20.72000 -0.167
20.74000 -3.187
20.76000 -4.230
20.78000 -0.622
20.80000 3.489
20.82000 3.291
20.84000 2.988
20.86000 4.497
20.88000 6.937
20.90000 4.241
20.92000 7.120
20.94000 8.139
20.96000 5.618
20.98000 2.598
21.00000 1.731
21.02000 4.311
21.04000 2.805
21.06000 -1.519
21.08000 3.141
21.10000 4.040
21.12000 2.669
21.14000 7.286
21.16000 2.213
21.18000 6.426
21.20000 6.884
21.22000 0.879
21.24000 5.777
21.26000 6.997
21.28000 6.859
21.30000 5.063
21.32000 6.592
21.34000 5.927
21.36000 5.135
21.38000 6.396
21.40000 2.554
21.42000 0.285
21.44000 1.419
21.46000 2.967
21.48000 3.687
21.50000 5.134
21.52000 3.012
21.54000 4.316
21.56000 4.606
21.58000 7.572
21.60000 6.567
21.62000 -1.756
21.64000 -4.170
21.66000 2.282
21.68000 14.220
21.70000 8.462
21.72000 -1.081
21.74000 -1.625
21.76000 3.458
21.78000 3.019
21.80000 1.256
21.82000 0.131
21.84000 7.872
21.86000 4.330
21.88000 0.290
21.90000 -1.210
21.92000 6.245
21.94000 9.865
21.96000 14.954
21.98000 8.998
22.00000 5.831
22.02000 7.491
22.04000 8.901
22.06000 16.382
22.08000 17.106
22.10000 8.420
22.12000 0.857
22.14000 -0.880
22.16000 -2.131
22.18000 1.480
22.20000 1.099
22.22000 0.895
22.24000 -0.965
22.26000 -0.907
22.28000 4.228
22.30000 5.402
22.32000 6.390
22.34000 12.195
22.36000 7.857
22.38000 1.384
22.40000 1.323
22.42000 0.007
22.44000 1.539
22.46000 0.695
22.48000 1.429
22.50000 2.226
22.52000 -1.164
22.54000 -4.122
22.56000 3.151
22.58000 12.476
22.60000 8.141
22.62000 6.715
22.64000 5.902
22.66000 8.943
22.68000 8.674
22.70000 6.208
22.72000 4.690
22.74000 2.007
22.76000 6.290
22.78000 10.746
22.80000 6.209
22.82000 8.011
22.84000 3.437
22.86000 0.277
22.88000 0.516
22.90000 5.732
22.92000 6.531
22.94000 7.007
22.96000 4.154
22.98000 0.551
23.00000 1.469
23.02000 -0.651
23.04000 -0.075
23.06000 1.944
23.08000 4.443
23.10000 5.340
23.12000 5.364
23.14000 -4.105
23.16000 -0.414
23.18000 6.384
23.20000 2.750
23.22000 4.142
23.24000 -0.039
23.26000 1.166
23.28000 -0.913
23.30000 2.979
23.32000 4.686
23.34000 7.773
23.36000 -2.615
23.38000 -2.153
23.40000 3.104
23.42000 2.740
23.44000 5.936
23.46000 9.304
23.48000 3.975
23.50000 -0.981
23.52000 -2.021
23.54000 -2.454
23.56000 -2.913
23.58000 2.676
23.60000 4.079
23.62000 3.123
23.64000 1.374
23.66000 0.107
23.68000 6.822
23.70000 5.153
23.72000 4.554
23.74000 3.969
23.76000 4.537
23.78000 3.340
23.80000 4.550
23.82000 5.657
23.84000 1.084
23.86000 -2.306
23.88000 -1.214
23.90000 2.402
23.92000 1.229
23.94000 2.662
23.96000 -1.240
23.98000 -3.909
24.00000 -4.056
24.02000 1.170
24.04000 -0.228
24.06000 0.322
24.08000 10.177
24.10000 6.495
24.12000 1.633
24.14000 3.201
24.16000 3.193
24.18000 3.698
24.20000 4.243
24.22000 -0.602
24.24000 4.089
24.26000 2.471
24.28000 4.074
24.30000 -1.851
24.32000 4.447
24.34000 5.152
24.36000 -1.845
24.38000 -0.941
24.40000 -1.444
24.42000 1.966
24.44000 4.143
24.46000 1.645
24.48000 1.009
24.50000 -3.601
24.52000 -3.236
24.54000 2.288
24.56000 -3.407
24.58000 -4.011
24.60000 4.514
24.62000 6.426
24.64000 6.174
24.66000 5.617
24.68000 1.303
24.70000 -0.200
24.72000 4.569
24.74000 2.560
24.76000 -0.687
24.78000 -3.996
24.80000 2.075
24.82000 3.189
24.84000 -0.879
24.86000 -3.658
24.88000 0.081
24.90000 6.241
24.92000 -0.551
24.94000 -3.988
24.96000 -0.940
24.98000 -0.636
25.00000 4.775
25.02000 8.705
25.04000 5.163
25.06000 2.511
25.08000 -0.151
25.10000 4.486
25.12000 0.707
25.14000 2.292
25.16000 0.892
25.18000 5.083
25.20000 4.133
25.22000 -0.853
25.24000 7.046
25.26000 7.487
25.28000 4.198
25.30000 -2.455
25.32000 2.683
25.34000 0.189
25.36000 -1.231
25.38000 3.579
25.40000 2.580
25.42000 2.028
25.44000 4.379
25.46000 5.667
25.48000 8.234
25.50000 6.660
25.52000 3.680
25.54000 -3.916
25.56000 0.574
25.58000 1.185
25.60000 3.670
25.62000 -0.546
25.64000 -3.378
25.66000 -1.453
25.68000 2.554
25.70000 1.894
25.72000 -0.487
25.74000 6.224
25.76000 7.773
25.78000 4.080
25.80000 2.106
25.82000 3.314
25.84000 0.159
25.86000 5.450
25.88000 6.958
25.90000 9.697
25.92000 6.721
25.94000 0.730
25.96000 0.696
25.98000 2.397
26.00000 4.241
26.02000 3.738
26.04000 3.906
26.06000 1.408
26.08000 -0.959
26.10000 -1.437
26.12000 -3.926
26.14000 -2.622
26.16000 2.813
26.18000 3.428
26.20000 6.327
26.22000 6.089
26.24000 6.699
26.26000 4.500
26.28000 3.260
26.30000 -0.711
26.32000 1.169
26.34000 0.419
26.36000 -2.492
26.38000 1.974
26.40000 1.529
26.42000 0.844
26.44000 -1.824
26.46000 -3.915
26.48000 3.450
26.50000 6.712
26.52000 3.431
26.54000 3.419
26.56000 3.779
26.58000 3.409
26.60000 2.029
26.62000 8.173
26.64000 7.065
26.66000 6.477
26.68000 2.561
26.70000 1.506
26.72000 2.955
26.74000 -0.092
26.76000 2.894
26.78000 3.195
26.80000 1.914
26.82000 -3.216
26.84000 -3.898
26.86000 -1.187
26.88000 2.505
26.90000 -0.618
26.92000 -0.619
26.94000 1.104
26.96000 3.683
26.98000 2.356
27.00000 -2.571
27.02000 -1.257
27.04000 2.503
27.06000 0.034
27.08000 0.055
27.10000 -1.996
27.12000 3.110
27.14000 0.038
27.16000 0.267
27.18000 4.686
27.20000 0.141
27.22000 -2.381
27.24000 -3.493
27.26000 -3.881
27.28000 -2.169
27.30000 -2.510
27.32000 0.234
27.34000 5.859
27.36000 -0.428
27.38000 2.686
27.40000 5.146
27.42000 -0.026
27.44000 0.123
27.46000 3.147
27.48000 4.384
27.50000 6.249
27.52000 3.985
27.54000 8.045
27.56000 5.314
27.58000 -1.209
27.60000 2.074
27.62000 4.154
27.64000 1.617
27.66000 4.043
27.68000 4.678
27.70000 1.380
27.72000 2.538
27.74000 -1.739
27.76000 -2.737
27.78000 -0.002
27.80000 -0.177
27.82000 -1.986
27.84000 1.263
27.86000 2.094
27.88000 -0.530
27.90000 -0.600
27.92000 1.215
27.94000 3.086
27.96000 1.656
27.98000 4.206
28.00000 4.534
28.02000 5.741
28.04000 -0.223
28.06000 0.559
28.08000 0.114
28.10000 3.843
28.12000 6.134
28.14000 4.782
28.16000 4.555
28.18000 8.099
28.20000 4.677
28.22000 2.965
28.24000 3.655
28.26000 4.374
28.28000 5.362
28.30000 -0.222
28.32000 -0.729
28.34000 2.052
28.36000 8.541
28.38000 8.616
28.40000 3.425
28.42000 7.224
28.44000 5.486
28.46000 2.785
28.48000 -2.835
28.50000 0.809
28.52000 3.156
28.54000 7.229
28.56000 6.592
28.58000 8.967
28.60000 6.803
28.62000 5.993
28.64000 4.779
28.66000 8.393
28.68000 1.829
28.70000 -0.491
28.72000 5.804
28.74000 5.031
28.76000 1.883
28.78000 3.498
28.80000 9.507
28.82000 10.489
28.84000 8.003
28.86000 5.955
28.88000 -0.531
28.90000 -3.733
28.92000 3.311
28.94000 2.401
28.96000 0.960
28.98000 7.925
29.00000 7.611
29.02000 3.880
29.04000 2.357
29.06000 3.062
29.08000 3.033
29.10000 3.051
29.12000 3.288
29.14000 1.667
29.16000 -2.393
29.18000 2.064
29.20000 3.149
29.22000 4.751
29.24000 6.140
29.26000 4.206
29.28000 8.285
29.30000 5.820
29.32000 5.973
29.34000 2.764
29.36000 3.121
29.38000 3.414
29.40000 -1.499
29.42000 6.462
29.44000 11.022
29.46000 4.682
29.48000 1.580
29.50000 2.464
29.52000 7.863
29.54000 10.985
29.56000 5.350
29.58000 3.329
29.60000 3.648
29.62000 5.094
29.64000 4.708
29.66000 4.762
29.68000 2.363
29.70000 0.185
29.72000 -2.328
29.74000 -1.617
29.76000 -3.710
29.78000 2.634
29.80000 5.179
29.82000 1.040
29.84000 1.996
29.86000 1.748
29.88000 1.686
29.90000 4.942
29.92000 1.768
29.94000 3.640
29.96000 2.128
29.98000 2.174
30.00000 1.586
30.02000 3.030
30.04000 7.410
30.06000 8.951
30.08000 8.028
30.10000 5.834
30.12000 2.448
30.14000 6.126
30.16000 7.314
30.18000 8.623
30.20000 5.570
30.22000 -3.076
30.24000 4.161
30.26000 2.976
30.28000 -0.228
30.30000 4.264
30.32000 5.683
30.34000 -1.468
30.36000 3.774
30.38000 7.155
30.40000 4.677
30.42000 1.683
30.44000 0.914
30.46000 0.674
30.48000 0.374
30.50000 4.546
30.52000 1.964
30.54000 1.055
30.56000 -1.465
30.58000 -2.168
30.60000 2.965
30.62000 4.394
30.64000 2.199
30.66000 4.270
30.68000 2.112
30.70000 -0.727
30.72000 -0.279
30.74000 3.683
30.76000 3.373
30.78000 0.350
30.80000 -2.686
30.82000 -3.674
30.84000 1.016
30.86000 1.301
30.88000 4.415
30.90000 2.550
30.92000 5.076
30.94000 3.505
30.96000 2.180
30.98000 4.886
31.00000 -0.811
31.02000 2.299
31.04000 2.966
31.06000 8.805
31.08000 5.923
31.10000 3.690
31.12000 0.300
31.14000 5.202
31.16000 4.031
31.18000 1.528
31.20000 6.900
31.22000 6.171
31.24000 3.443
31.26000 1.637
31.28000 1.736
31.30000 6.242
31.32000 8.222
31.34000 4.303
31.36000 3.134
31.38000 7.080
31.40000 6.668
31.42000 6.373
31.44000 1.989
31.46000 3.134
31.48000 5.509
31.50000 -0.178
31.52000 0.303
31.54000 1.821
31.56000 4.447
31.58000 6.556
31.60000 2.696
31.62000 0.093
31.64000 -3.628
31.66000 -0.490
31.68000 1.970
31.70000 3.627
31.72000 4.677
31.74000 8.841
31.76000 6.398
31.78000 4.142
31.80000 1.871
31.82000 3.034
31.84000 1.071
31.86000 2.054
31.88000 2.980
31.90000 10.211
31.92000 7.183
31.94000 0.728
31.96000 2.629
31.98000 4.747
32.00000 10.193
32.02000 4.159
32.04000 -3.605
32.06000 3.675
32.08000 3.712
32.10000 5.859
32.12000 8.243
32.14000 8.103
32.16000 1.954
32.18000 0.901
32.20000 2.172
32.22000 -2.020
32.24000 2.773
32.26000 6.603
32.28000 4.253
32.30000 -0.025
32.32000 -3.350
32.34000 -0.257
32.36000 -0.446
32.38000 5.737
32.40000 4.857
32.42000 6.269
32.44000 -0.222
32.46000 5.012
32.48000 5.091
32.50000 1.293
32.52000 3.536
32.54000 3.531
32.56000 5.221
32.58000 0.811
32.60000 -1.208
32.62000 3.997
32.64000 2.396
32.66000 2.975
32.68000 1.998
32.70000 -1.896
32.72000 0.374
32.74000 -2.581
32.76000 -3.547
32.78000 -2.525
32.80000 -0.875
32.82000 0.620
32.84000 1.328
32.86000 -0.322
32.88000 -0.134
32.90000 0.484
32.92000 2.311
32.94000 0.970
32.96000 -1.787
32.98000 2.452
33.00000 -3.246
33.02000 1.493
33.04000 6.663
33.06000 0.034
33.08000 -2.141
33.10000 -0.674
33.12000 4.607
33.14000 6.791
33.16000 0.888
33.18000 1.595
33.20000 3.710
33.22000 0.584
33.24000 0.270
33.26000 1.185
33.28000 6.842
33.30000 3.653
33.32000 -1.801
33.34000 1.120
33.36000 2.517
33.38000 2.757
33.40000 3.131
33.42000 2.349
33.44000 1.512
33.46000 3.284
33.48000 5.916
33.50000 1.881
33.52000 4.879
33.54000 -0.463
33.56000 2.887
33.58000 -0.260
33.60000 4.696
33.62000 5.215
33.64000 -0.686
33.66000 -1.377
33.68000 0.461
33.70000 2.475
33.72000 3.051
33.74000 5.141
33.76000 11.593
33.78000 5.128
33.80000 -0.695
33.82000 -0.376
33.84000 3.525
33.86000 1.789
33.88000 3.034
33.90000 0.041
33.92000 3.744
33.94000 8.543
33.96000 6.291
33.98000 6.178
34.00000 2.826
34.02000 2.074
34.04000 7.726
34.06000 2.992
34.08000 -0.185
34.10000 -3.588
34.12000 0.834
34.14000 0.428
34.16000 3.647
34.18000 7.016
34.20000 7.999
34.22000 5.485
34.24000 5.152
34.26000 1.958
34.28000 1.785
34.30000 3.012
34.32000 7.382
34.34000 8.382
34.36000 4.883
34.38000 8.653
34.40000 3.875
34.42000 4.321
34.44000 4.173
34.46000 2.649
34.48000 -0.471
34.50000 6.739
34.52000 5.829
34.54000 -1.347
34.56000 4.366
34.58000 8.685
34.60000 5.080
34.62000 4.487
34.64000 2.228
34.66000 5.643
34.68000 1.527
34.70000 -0.515
34.72000 -2.267
34.74000 3.929
34.76000 6.760
34.78000 5.374
34.80000 0.974
34.82000 4.691
34.84000 2.700
34.86000 0.946
34.88000 3.619
34.90000 7.067
34.92000 10.112
34.94000 15.303
34.96000 2.805
34.98000 6.278
35.00000 7.378
35.02000 10.260
35.04000 7.844
35.06000 2.232
35.08000 4.400
35.10000 7.306
35.12000 10.921
35.14000 11.223
35.16000 4.631
35.18000 5.065
35.20000 7.644
35.22000 -1.322
35.24000 4.604
35.26000 6.063
35.28000 8.212
35.30000 10.150
35.32000 8.674
35.34000 6.188
35.36000 3.029
35.38000 4.627
35.40000 13.750
35.42000 7.994
35.44000 -3.483
35.46000 1.490
35.48000 5.815
35.50000 4.925
35.52000 7.088
35.54000 8.394
35.56000 8.061
35.58000 5.647
35.60000 5.248
35.62000 6.422
35.64000 6.038
35.66000 9.640
35.68000 4.047
35.70000 1.677
35.72000 2.047
35.74000 4.033
35.76000 3.683
35.78000 -0.205
35.80000 5.288
35.82000 3.338
35.84000 2.304
35.86000 5.367
35.88000 6.814
35.90000 0.696
35.92000 4.269
35.94000 5.423
35.96000 4.507
35.98000 2.286
36.00000 3.349
36.02000 7.631
36.04000 6.579
36.06000 3.342
36.08000 1.185
36.10000 4.829
36.12000 9.645
36.14000 7.863
36.16000 8.017
36.18000 1.768
36.20000 2.865
36.22000 0.034
36.24000 0.479
36.26000 0.312
36.28000 -0.356
36.30000 1.439
36.32000 4.333
36.34000 0.817
36.36000 -2.147
36.38000 -0.934
36.40000 -0.373
36.42000 0.532
36.44000 2.256
36.46000 1.339
36.48000 2.966
36.50000 5.963
36.52000 3.023
36.54000 -2.193
36.56000 -3.623
36.58000 0.642
36.60000 0.958
36.62000 2.125
36.64000 3.505
36.66000 4.349
36.68000 6.722
36.70000 10.943
36.72000 5.829
36.74000 0.741
36.76000 1.787
36.78000 -2.486
36.80000 -1.597
36.82000 0.671
36.84000 -1.226
36.86000 -0.957
36.88000 -0.421
36.90000 -3.657
36.92000 0.110
36.94000 4.757
36.96000 1.068
36.98000 -1.386
37.00000 0.637
37.02000 1.355
37.04000 -0.297
37.06000 -0.244
37.08000 3.103
37.10000 -2.820
37.12000 0.801
37.14000 1.370
37.16000 2.198
37.18000 1.152
37.20000 -0.811
37.22000 0.868
37.24000 8.585
37.26000 6.784
37.28000 4.350
37.30000 3.864
37.32000 4.134
37.34000 0.782
37.36000 -2.518
37.38000 -0.846
37.40000 4.037
37.42000 8.093
37.44000 1.429
37.46000 2.673
37.48000 2.405
37.50000 6.634
37.52000 4.792
37.54000 3.570
37.56000 7.761
37.58000 4.674
37.60000 4.597
37.62000 4.535
37.64000 4.721
37.66000 4.329
37.68000 10.613
37.70000 7.089
37.72000 6.799
37.74000 9.409
37.76000 7.869
37.78000 8.566
37.80000 5.696
37.82000 7.222
37.84000 10.828
37.86000 9.903
37.88000 8.330
37.90000 13.959
37.92000 14.013
37.94000 16.209
37.96000 18.662
37.98000 16.376
38.00000 17.396
38.02000 20.826
38.04000 23.242
38.06000 21.345
38.08000 16.062
38.10000 15.245
38.12000 20.619
38.14000 19.671
38.16000 19.237
38.18000 24.973
38.20000 29.938
38.22000 35.136
38.24000 32.682
38.26000 28.022
38.28000 26.729
38.30000 33.721
38.32000 33.143
38.34000 35.494
38.36000 36.661
38.38000 36.170
38.40000 37.274
38.42000 37.298
38.44000 39.709
38.46000 38.554
38.48000 35.837
38.50000 42.082
38.52000 41.031
38.54000 49.375
38.56000 52.459
38.58000 56.838
38.60000 52.390
38.62000 53.632
38.64000 60.048
38.66000 65.563
38.68000 64.016
38.70000 63.113
38.72000 66.112
38.74000 76.858
38.76000 76.205
38.78000 79.414
38.80000 86.029
38.82000 81.473
38.84000 87.781
38.86000 87.569
38.88000 89.763
38.90000 94.323
38.92000 99.435
38.94000 107.320
38.96000 112.560
38.98000 121.210
39.00000 122.019
39.02000 119.791
39.04000 129.873
39.06000 138.730
39.08000 145.565
39.10000 152.948
39.12000 155.902
39.14000 171.360
39.16000 182.220
39.18000 183.653
39.20000 194.434
39.22000 203.798
39.24000 213.570
39.26000 221.043
39.28000 236.957
39.30000 253.186
39.32000 257.780
39.34000 264.371
39.36000 283.919
39.38000 299.040
39.40000 318.463
39.42000 333.785
39.44000 351.873
39.46000 361.450
39.48000 377.446
39.50000 399.960
39.52000 420.358
39.54000 438.256
39.56000 463.659
39.58000 477.784
39.60000 503.456
39.62000 524.554
39.64000 543.082
39.66000 571.290
39.68000 585.377
39.70000 605.057
39.72000 638.504
39.74000 656.961
39.76000 673.910
39.78000 679.321
39.80000 694.868
39.82000 705.396
39.84000 709.385
39.86000 730.294
39.88000 735.580
39.90000 738.120
39.92000 741.218
39.94000 732.736
39.96000 729.669
39.98000 725.696
40.00000 712.360
40.02000 696.815
40.04000 700.114
40.06000 690.862
40.08000 669.043
40.10000 668.606
40.12000 652.919
40.14000 625.022
40.16000 606.361
40.18000 591.068
40.20000 574.581
40.22000 549.724
40.24000 529.476
40.26000 513.514
40.28000 496.623
40.30000 463.221
40.32000 429.844
40.34000 415.881
40.36000 400.024
40.38000 379.080
40.40000 361.594
40.42000 331.768
40.44000 323.297
40.46000 311.262
40.48000 282.587
40.50000 265.790
40.52000 257.680
40.54000 252.067
40.56000 236.262
40.58000 216.011
40.60000 207.712
40.62000 188.366
40.64000 181.236
40.66000 177.308
40.68000 161.629
40.70000 145.416
40.72000 139.050
40.74000 127.998
40.76000 121.524
40.78000 116.808
40.80000 108.443
40.82000 98.906
40.84000 92.324
40.86000 87.403
40.88000 80.745
40.90000 78.007
40.92000 77.211
40.94000 76.331
40.96000 67.700
40.98000 63.688
41.00000 63.427
41.02000 62.462
41.04000 55.354
41.06000 47.848
41.08000 46.922
41.10000 43.992
41.12000 39.301
41.14000 39.594
41.16000 39.775
41.18000 37.230
41.20000 36.048
41.22000 38.360
41.24000 36.549
41.26000 32.484
41.28000 29.176
41.30000 24.807
41.32000 24.955
41.34000 23.732
41.36000 18.925
41.38000 20.912
41.40000 20.352
41.42000 19.967
41.44000 20.312
41.46000 19.362
41.48000 14.069
41.50000 15.493
41.52000 11.146
41.54000 10.812
41.56000 14.535
41.58000 16.995
41.60000 17.019
41.62000 11.976
41.64000 10.791
41.66000 11.341
41.68000 8.747
41.70000 10.574
41.72000 10.730
41.74000 7.023
41.76000 5.607
41.78000 6.892
41.80000 7.693
41.82000 8.108
41.84000 7.757
41.86000 6.797
41.88000 0.889
41.90000 4.900
41.92000 6.510
41.94000 4.485
41.96000 0.796
41.98000 3.610
42.00000 5.272
42.02000 8.111
42.04000 10.459
42.06000 9.031
42.08000 5.241
42.10000 2.905
42.12000 -1.454
42.14000 1.292
42.16000 3.709
42.18000 5.932
42.20000 5.102
42.22000 0.347
42.24000 1.133
42.26000 1.541
42.28000 7.474
42.30000 3.819
42.32000 1.422
42.34000 -3.501
42.36000 0.420
42.38000 1.658
42.40000 4.455
42.42000 3.887
42.44000 2.770
42.46000 -3.484
42.48000 -3.475
42.50000 2.540
42.52000 4.856
42.54000 4.872
42.56000 0.625
42.58000 0.007
42.60000 -0.656
42.62000 -2.833
42.64000 -2.397
42.66000 -0.037
42.68000 0.791
42.70000 2.425
42.72000 0.054
42.74000 0.991
42.76000 2.430
42.78000 1.938
42.80000 -1.190
42.82000 -0.342
42.84000 0.535
42.86000 1.668
42.88000 0.219
42.90000 0.404
42.92000 3.129
42.94000 4.249
42.96000 2.516
42.98000 3.248
43.00000 3.745
43.02000 0.610
43.04000 0.563
43.06000 -3.392
43.08000 -2.606
43.10000 1.857
43.12000 0.615
43.14000 3.872
43.16000 0.879
43.18000 0.788
43.20000 1.795
43.22000 -2.527
43.24000 -3.384
43.26000 -2.905
43.28000 -1.495
43.30000 -1.162
43.32000 -1.444
43.34000 1.267
43.36000 -3.085
43.38000 -1.022
43.40000 -3.378
43.42000 2.281
43.44000 3.846
43.46000 3.809
43.48000 -1.248
43.50000 -2.755
43.52000 1.037
43.54000 0.413
43.56000 0.591
43.58000 0.590
43.60000 -1.594
43.62000 0.962
43.64000 -0.916
43.66000 -3.368
43.68000 -2.483
43.70000 -0.094
43.72000 -0.400
43.74000 -0.145
43.76000 -2.046
43.78000 -0.969
43.80000 -0.188
43.82000 -1.073
43.84000 -1.009
43.86000 0.708
43.88000 -1.860
43.90000 -3.304
43.92000 3.308
43.94000 1.121
43.96000 -3.219
43.98000 -0.595
44.00000 -1.301
44.02000 1.638
44.04000 2.314
44.06000 2.234
44.08000 -2.121
44.10000 1.431
44.12000 2.098
44.14000 1.103
44.16000 -1.679
44.18000 1.932
44.20000 -2.165
44.22000 -2.310
44.24000 -0.824
44.26000 1.044
44.28000 0.342
44.30000 -2.433
44.32000 -1.176
44.34000 -3.327
44.36000 0.631
44.38000 4.166
44.40000 -0.513
44.42000 3.058
44.44000 4.921
44.46000 -1.407
44.48000 3.775
44.50000 6.242
44.52000 6.620
44.54000 3.479
44.56000 0.500
44.58000 7.962
44.60000 7.961
44.62000 4.092
44.64000 6.620
44.66000 5.805
44.68000 0.894
44.70000 2.597
44.72000 6.446
44.74000 5.604
44.76000 1.572
44.78000 -0.821
44.80000 0.727
44.82000 3.745
44.84000 3.727
44.86000 3.576
44.88000 6.155
44.90000 4.067
44.92000 3.673
44.94000 7.372
44.96000 9.766
44.98000 8.228
45.00000 5.274
45.02000 7.252
45.04000 5.645
45.06000 8.652
45.08000 10.585
45.10000 15.725
45.12000 12.812
45.14000 12.339
45.16000 9.155
45.18000 12.251
45.20000 12.942
45.22000 15.233
45.24000 13.260
45.26000 15.737
45.28000 17.526
45.30000 15.849
45.32000 17.041
45.34000 18.087
45.36000 17.844
45.38000 18.165
45.40000 20.858
45.42000 24.788
45.44000 30.382
45.46000 31.101
45.48000 30.115
45.50000 30.623
45.52000 27.309
45.54000 22.911
45.56000 27.396
45.58000 28.310
45.60000 31.495
45.62000 35.305
45.64000 31.154
45.66000 27.435
45.68000 34.785
45.70000 41.018
45.72000 41.375
45.74000 39.964
45.76000 40.979
45.78000 46.746
45.80000 47.830
45.82000 41.463
45.84000 46.362
45.86000 49.770
45.88000 53.345
45.90000 54.012
45.92000 54.936
45.94000 60.549
45.96000 61.804
45.98000 61.293
46.00000 60.906
46.02000 65.351
46.04000 67.449
46.06000 69.402
46.08000 70.112
46.10000 70.911
46.12000 72.104
46.14000 73.874
46.16000 78.927
46.18000 79.032
46.20000 79.957
46.22000 81.154
46.24000 82.553
46.26000 84.653
46.28000 84.954
46.30000 89.728
46.32000 90.791
46.34000 90.401
46.36000 101.667
46.38000 109.920
46.40000 109.947
46.42000 108.637
46.44000 104.456
46.46000 102.564
46.48000 108.547
46.50000 107.224
46.52000 110.442
46.54000 108.076
46.56000 113.139
46.58000 117.971
46.60000 106.571
46.62000 104.174
46.64000 104.961
46.66000 111.085
46.68000 116.112
46.70000 110.840
46.72000 107.122
46.74000 111.279
46.76000 112.582
46.78000 115.974
46.80000 105.531
46.82000 101.444
46.84000 102.780
46.86000 99.895
46.88000 95.972
46.90000 93.597
46.92000 91.690
46.94000 96.603
46.96000 94.905
46.98000 90.060
47.00000 80.976
47.02000 81.138
47.04000 84.396
47.06000 81.479
47.08000 77.875
47.10000 72.080
47.12000 71.891
47.14000 65.165
47.16000 61.579
47.18000 54.159
47.20000 53.042
47.22000 60.160
47.24000 54.569
47.26000 50.769
47.28000 51.832
47.30000 50.679
47.32000 44.297
47.34000 41.986
47.36000 37.851
47.38000 34.169
47.40000 39.517
47.42000 37.506
47.44000 30.574
47.46000 30.969
47.48000 30.767
47.50000 27.712
47.52000 22.864
47.54000 24.231
47.56000 22.422
47.58000 23.649
47.60000 23.294
47.62000 22.091
47.64000 20.974
47.66000 16.736
47.68000 15.141
47.70000 12.284
47.72000 13.309
47.74000 18.682
47.76000 16.159
47.78000 12.869
47.80000 7.320
47.82000 7.085
47.84000 11.141
47.86000 6.829
47.88000 9.782
47.90000 12.067
47.92000 3.751
47.94000 2.317
47.96000 8.027
47.98000 11.450
48.00000 6.634
48.02000 5.369
48.04000 4.475
48.06000 0.789
48.08000 -0.579
48.10000 2.293
48.12000 4.078
48.14000 -0.589
48.16000 3.411
48.18000 5.208
48.20000 5.478
48.22000 2.201
48.24000 1.307
48.26000 1.442
48.28000 6.684
48.30000 6.773
48.32000 1.084
48.34000 -2.966
48.36000 -0.350
48.38000 5.785
48.40000 6.147
48.42000 3.282
48.44000 0.322
48.46000 0.357
48.48000 0.006
48.50000 6.519
48.52000 3.226
48.54000 5.180
48.56000 4.343
48.58000 2.637
48.60000 0.080
48.62000 1.242
48.64000 2.674
48.66000 0.592
48.68000 5.658
48.70000 7.829
48.72000 3.283
48.74000 -0.912
48.76000 -0.981
48.78000 1.781
48.80000 -2.880
48.82000 -1.184
48.84000 1.541
48.86000 -0.727
48.88000 -0.975
48.90000 3.203
48.92000 2.380
48.94000 -2.863
48.96000 -2.849
48.98000 2.775
49.00000 5.340
49.02000 4.220
49.04000 1.489
49.06000 2.435
49.08000 2.041
49.10000 -0.425
49.12000 0.386
49.14000 6.758
49.16000 5.452
49.18000 3.722
49.20000 3.358
49.22000 4.760
49.24000 0.959
49.26000 2.945
49.28000 0.302
49.30000 -0.832
49.32000 1.169
49.34000 0.800
49.36000 1.762
49.38000 0.046
49.40000 3.952
49.42000 2.740
49.44000 0.419
49.46000 2.932
49.48000 -1.683
49.50000 -1.476
49.52000 4.445
49.54000 6.386
49.56000 4.386
49.58000 2.887
49.60000 2.440
49.62000 2.109
49.64000 4.391
49.66000 2.274
49.68000 0.546
49.70000 2.027
49.72000 5.343
49.74000 8.013
49.76000 3.171
49.78000 -0.025
49.80000 -2.734
49.82000 -0.248
49.84000 5.114
49.86000 5.116
49.88000 1.246
49.90000 -0.508
49.92000 -1.598
49.94000 2.419
49.96000 4.400
49.98000 1.678
50.00000 7.079
50.02000 7.761
50.04000 6.499
50.06000 5.323
50.08000 0.725
50.10000 0.946
50.12000 7.752
50.14000 6.869
50.16000 4.478
50.18000 1.647
50.20000 3.090
50.22000 4.407
50.24000 3.351
50.26000 4.376
50.28000 5.433
50.30000 4.119
50.32000 5.540
50.34000 5.316
50.36000 -0.626
50.38000 -2.708
50.40000 2.309
50.42000 6.051
50.44000 2.618
50.46000 2.811
50.48000 3.756
50.50000 5.826
50.52000 5.937
50.54000 4.993
50.56000 4.217
50.58000 8.761
50.60000 8.142
50.62000 4.537
50.64000 4.329
50.66000 4.833
50.68000 4.536
50.70000 2.041
50.72000 -0.093
50.74000 2.220
50.76000 2.915
50.78000 0.453
50.80000 3.620
50.82000 4.709
50.84000 1.100
50.86000 0.251
50.88000 -0.433
50.90000 4.663
50.92000 6.935
50.94000 2.396
50.96000 0.641
50.98000 -2.149
51.00000 -2.702
51.02000 0.195
51.04000 2.029
51.06000 2.503
51.08000 3.833
51.10000 2.065
51.12000 1.113
51.14000 4.246
51.16000 3.168
51.18000 -0.647
51.20000 -0.270
51.22000 0.511
51.24000 -2.458
51.26000 1.108
51.28000 3.841
51.30000 7.671
51.32000 2.974
51.34000 1.814
51.36000 0.517
51.38000 1.394
51.40000 -2.264
51.42000 1.718
51.44000 1.624
51.46000 2.004
51.48000 1.380
51.50000 3.352
51.52000 3.904
51.54000 6.193
51.56000 8.761
51.58000 6.752
51.60000 1.572
51.62000 1.446
51.64000 3.316
51.66000 0.800
51.68000 3.971
51.70000 -0.087
51.72000 -2.683
51.74000 2.224
51.76000 1.578
51.78000 0.618
51.80000 1.243
51.82000 3.256
51.84000 2.611
51.86000 2.952
51.88000 2.068
51.90000 3.411
51.92000 3.719
51.94000 2.816
51.96000 2.903
51.98000 2.256
52.00000 4.943
52.02000 5.709
52.04000 2.397
52.06000 4.320
52.08000 0.916
52.10000 -1.323
52.12000 1.091
52.14000 -1.237
52.16000 -1.466
52.18000 4.056
52.20000 2.954
52.22000 5.434
52.24000 1.039
52.26000 3.041
52.28000 3.125
52.30000 0.029
52.32000 4.988
52.34000 1.885
52.36000 -2.667
52.38000 -1.378
52.40000 4.133
52.42000 2.631
52.44000 3.976
52.46000 -0.259
52.48000 -1.897
52.50000 -0.906
52.52000 0.272
52.54000 -1.308
52.56000 5.587
52.58000 7.710
52.60000 3.504
52.62000 -1.863
52.64000 1.450
52.66000 -0.375
52.68000 2.570
52.70000 1.507
52.72000 1.284
52.74000 1.557
52.76000 2.807
52.78000 0.896
52.80000 2.427
52.82000 0.820
52.84000 0.882
52.86000 5.925
52.88000 4.820
52.90000 3.507
52.92000 6.420
52.94000 2.441
52.96000 0.073
52.98000 2.877
53.00000 -1.021
53.02000 -0.554
53.04000 2.743
53.06000 -0.245
53.08000 -1.922
53.10000 2.500
53.12000 5.215
53.14000 1.141
53.16000 -0.005
53.18000 2.535
53.20000 -0.568
53.22000 2.409
53.24000 0.874
53.26000 2.234
53.28000 0.315
53.30000 1.386
53.32000 6.667
53.34000 8.359
53.36000 5.572
53.38000 0.330
53.40000 -1.364
53.42000 -2.607
53.44000 -1.852
53.46000 0.774
53.48000 -0.767
53.50000 2.016
53.52000 4.055
53.54000 4.389
53.56000 5.984
53.58000 2.583
53.60000 3.474
53.62000 6.537
53.64000 2.659
53.66000 -2.611
53.68000 -0.066
53.70000 0.723
53.72000 0.842
53.74000 0.709
53.76000 4.299
53.78000 2.792
53.80000 4.376
53.82000 4.247
53.84000 4.213
53.86000 4.776
53.88000 4.239
53.90000 2.081
53.92000 1.815
53.94000 -0.113
53.96000 5.564
53.98000 1.920
54.00000 0.094
54.02000 2.403
54.04000 3.456
54.06000 2.200
54.08000 0.893
54.10000 2.471
54.12000 2.434
54.14000 0.793
54.16000 3.483
54.18000 4.544
54.20000 5.934
54.22000 8.113
54.24000 2.732
54.26000 1.556
54.28000 -0.583
54.30000 -0.681
54.32000 2.188
54.34000 3.007
54.36000 0.964
54.38000 2.819
54.40000 4.625
54.42000 2.041
54.44000 3.830
54.46000 3.416
54.48000 0.494
54.50000 1.914
54.52000 1.699
54.54000 2.721
54.56000 2.879
54.58000 3.646
54.60000 1.091
54.62000 1.830
54.64000 4.464
54.66000 3.339
54.68000 4.245
54.70000 2.817
54.72000 1.882
54.74000 1.768
54.76000 2.409
54.78000 1.997
54.80000 4.904
54.82000 3.572
54.84000 -0.622
54.86000 0.618
54.88000 5.702
54.90000 2.361
54.92000 -2.570
54.94000 -1.599
54.96000 2.832
54.98000 6.335
55.00000 6.508
55.02000 4.266
55.04000 2.494
55.06000 2.687
55.08000 -0.456
55.10000 4.307
55.12000 2.586
55.14000 2.068
55.16000 1.745
55.18000 -0.981
55.20000 -0.837
55.22000 0.755
55.24000 -0.650
55.26000 -1.518
55.28000 -1.041
55.30000 3.270
55.32000 4.867
55.34000 1.976
55.36000 1.551
55.38000 0.560
55.40000 4.818
55.42000 0.457
55.44000 3.962
55.46000 2.942
55.48000 0.873
55.50000 0.170
55.52000 3.788
55.54000 5.684
55.56000 3.983
55.58000 7.257
55.60000 6.593
55.62000 0.701
55.64000 3.625
55.66000 4.345
55.68000 3.714
55.70000 5.864
55.72000 3.260
55.74000 1.378
55.76000 -0.034
55.78000 2.307
55.80000 4.541
55.82000 1.388
55.84000 2.067
55.86000 2.825
55.88000 2.907
55.90000 0.059
55.92000 2.485
55.94000 0.892
55.96000 5.634
55.98000 10.051
56.00000 8.197
56.02000 3.876
56.04000 4.929
56.06000 0.877
56.08000 4.883
56.10000 4.623
56.12000 4.727
56.14000 3.015
56.16000 3.929
56.18000 1.871
56.20000 2.618
56.22000 2.498
56.24000 -0.866
56.26000 2.077
56.28000 -2.525
56.30000 -1.743
56.32000 0.434
56.34000 3.065
56.36000 8.124
56.38000 2.423
56.40000 3.463
56.42000 0.888
56.44000 -1.450
56.46000 4.225
56.48000 7.706
56.50000 5.116
56.52000 1.645
56.54000 0.149
56.56000 0.860
56.58000 3.835
56.60000 6.495
56.62000 7.903
56.64000 6.326
56.66000 7.065
56.68000 2.703
56.70000 2.425
56.72000 5.766
56.74000 1.106
56.76000 1.127
56.78000 2.062
56.80000 0.427
56.82000 -2.446
56.84000 -1.254
56.86000 -0.513
56.88000 1.891
56.90000 -0.840
56.92000 2.218
56.94000 10.231
56.96000 9.536
56.98000 7.841
57.00000 4.309
57.02000 1.442
57.04000 1.391
57.06000 -2.499
57.08000 -1.188
57.10000 1.032
57.12000 1.128
57.14000 1.576
57.16000 -0.139
57.18000 -1.126
57.20000 3.580
57.22000 3.476
57.24000 0.755
57.26000 0.149
57.28000 2.290
57.30000 5.930
57.32000 7.104
57.34000 5.973
57.36000 4.254
57.38000 8.582
57.40000 4.907
57.42000 3.854
57.44000 4.270
57.46000 6.565
57.48000 6.682
57.50000 -0.776
57.52000 0.852
57.54000 4.076
57.56000 2.352
57.58000 2.685
57.60000 1.836
57.62000 1.691
57.64000 1.100
57.66000 2.100
57.68000 2.455
57.70000 2.115
57.72000 2.282
57.74000 4.833
57.76000 3.162
57.78000 6.449
57.80000 6.920
57.82000 3.288
57.84000 5.825
57.86000 5.239
57.88000 -0.129
57.90000 1.657
57.92000 0.449
57.94000 1.907
57.96000 3.456
57.98000 0.742
58.00000 2.811
58.02000 4.891
58.04000 3.790
58.06000 0.750
58.08000 7.860
58.10000 4.657
58.12000 2.184
58.14000 -0.687
58.16000 -0.597
58.18000 1.415
58.20000 4.742
58.22000 4.051
58.24000 2.244
58.26000 4.576
58.28000 5.593
58.30000 4.937
58.32000 1.939
58.34000 1.127
58.36000 3.052
58.38000 3.745
58.40000 2.250
58.42000 0.948
58.44000 4.313
58.46000 2.521
58.48000 3.312
58.50000 2.351
58.52000 2.328
58.54000 0.797
58.56000 -0.569
58.58000 1.354
58.60000 -2.478
58.62000 -0.443
58.64000 -1.974
58.66000 -2.031
58.68000 3.151
58.70000 4.068
58.72000 0.776
58.74000 -1.060
58.76000 1.093
58.78000 5.953
58.80000 0.937
58.82000 1.384
58.84000 5.025
58.86000 6.327
58.88000 3.404
58.90000 0.060
58.92000 -0.371
58.94000 4.712
58.96000 8.236
58.98000 3.212
59.00000 5.152
59.02000 6.626
59.04000 5.572
59.06000 6.789
59.08000 2.960
59.10000 2.040
59.12000 5.591
59.14000 1.612
59.16000 2.573
59.18000 1.869
59.20000 -2.446
59.22000 -0.390
59.24000 2.626
59.26000 5.298
59.28000 3.817
59.30000 3.481
59.32000 1.851
59.34000 2.902
59.36000 6.589
59.38000 4.987
59.40000 3.852
59.42000 4.847
59.44000 2.251
59.46000 2.456
59.48000 2.858
59.50000 4.098
59.52000 5.135
59.54000 3.442
59.56000 4.182
59.58000 4.114
59.60000 7.404
59.62000 2.518
59.64000 0.441
59.66000 0.876
59.68000 0.732
59.70000 0.500
59.72000 4.424
59.74000 4.556
59.76000 1.924
59.78000 3.837
59.80000 5.597
59.82000 5.091
59.84000 3.075
59.86000 3.530
59.88000 3.817
59.90000 1.437
59.92000 2.013
59.94000 3.224
59.96000 3.961
59.98000 9.152
60.00000 3.015
60.02000 1.336
60.04000 1.165
60.06000 -2.420
60.08000 1.284
60.10000 5.135
60.12000 4.070
60.14000 8.516
60.16000 7.234
60.18000 4.056
60.20000 1.811
60.22000 1.777
60.24000 2.410
60.26000 2.777
60.28000 3.135
60.30000 0.131
60.32000 -1.178
60.34000 1.736
60.36000 -0.116
60.38000 4.228
60.40000 4.030
60.42000 3.367
60.44000 0.590
60.46000 3.557
60.48000 1.927
60.50000 0.877
60.52000 4.498
60.54000 3.508
60.56000 1.409
60.58000 -1.920
60.60000 1.677
60.62000 0.562
60.64000 0.868
60.66000 1.622
60.68000 0.807
60.70000 -2.419
60.72000 -0.614
60.74000 3.240
60.76000 5.041
60.78000 5.976
60.80000 5.258
60.82000 4.122
60.84000 2.327
60.86000 0.187
60.88000 3.089
60.90000 1.874
60.92000 1.012
60.94000 1.041
60.96000 2.767
60.98000 3.850
61.00000 4.910
61.02000 3.695
61.04000 1.878
61.06000 0.168
61.08000 0.857
61.10000 2.917
61.12000 1.500
61.14000 -1.755
61.16000 -2.425
61.18000 -2.075
61.20000 -1.968
61.22000 -1.024
61.24000 -0.033
61.26000 -0.034
61.28000 -0.310
61.30000 -0.084
61.32000 -0.216
61.34000 0.884
61.36000 0.175
61.38000 -0.622
61.40000 2.253
61.42000 0.562
61.44000 -1.815
61.46000 0.188
61.48000 -1.024
61.50000 -0.207
61.52000 -0.384
61.54000 1.960
61.56000 1.758
61.58000 0.297
61.60000 2.431
61.62000 3.279
61.64000 2.264
61.66000 -0.963
61.68000 4.031
61.70000 4.558
61.72000 1.862
61.74000 -0.554
61.76000 -0.667
61.78000 3.503
61.80000 1.915
61.82000 3.730
61.84000 1.607
61.86000 2.750
61.88000 1.054
61.90000 1.886
61.92000 -2.422
61.94000 1.712
61.96000 2.692
61.98000 2.638
62.00000 -0.466
62.02000 -1.176
62.04000 -1.375
62.06000 -0.188
62.08000 0.688
62.10000 -0.182
62.12000 3.836
62.14000 2.584
62.16000 0.292
62.18000 1.770
62.20000 3.428
62.22000 3.502
62.24000 3.382
62.26000 1.829
62.28000 0.889
62.30000 1.118
62.32000 1.919
62.34000 -2.136
62.36000 -2.407
62.38000 -0.988
62.40000 -1.227
62.42000 -0.957
62.44000 2.507
62.46000 2.794
62.48000 2.974
62.50000 1.513
62.52000 -0.451
62.54000 -1.743
62.56000 -1.106
62.58000 0.542
62.60000 1.617
62.62000 1.849
62.64000 -1.080
62.66000 -1.833
62.68000 0.717
62.70000 -0.281
62.72000 -0.341
62.74000 1.104
62.76000 -1.860
62.78000 -0.675
62.80000 0.240
62.82000 2.920
62.84000 3.114
62.86000 3.598
62.88000 2.610
62.90000 2.113
62.92000 2.477
62.94000 1.353
62.96000 0.259
62.98000 -0.708
63.00000 -1.373
63.02000 0.853
63.04000 1.320
63.06000 2.400
63.08000 3.612
63.10000 0.228
63.12000 0.845
63.14000 -1.297
63.16000 -2.093
63.18000 -2.409
63.20000 0.183
63.22000 -1.566
63.24000 0.707
63.26000 2.806
63.28000 4.159
63.30000 3.278
63.32000 3.052
63.34000 1.642
63.36000 2.562
63.38000 1.845
63.40000 2.236
63.42000 2.542
63.44000 1.156
63.46000 -0.130
63.48000 0.244
63.50000 -0.175
63.52000 -0.474
63.54000 4.027
63.56000 2.607
63.58000 -2.394
63.60000 0.830
63.62000 0.786
63.64000 1.798
63.66000 3.273
63.68000 0.666
63.70000 2.124
63.72000 2.579
63.74000 2.907
63.76000 1.436
63.78000 2.664
63.80000 2.138
63.82000 -1.240
63.84000 -1.753
63.86000 0.399
63.88000 2.459
63.90000 -1.183
63.92000 -0.391
63.94000 1.027
63.96000 -2.411
63.98000 -0.958
64.00000 0.315
64.02000 -0.278
64.04000 -1.105
64.06000 0.494
64.08000 0.093
64.10000 0.522
64.12000 0.228
64.14000 0.642
64.16000 -0.752
64.18000 0.423
64.20000 -0.495
64.22000 -2.053
64.24000 -2.101
64.26000 1.507
64.28000 4.001
64.30000 2.162
64.32000 3.238
64.34000 -0.047
64.36000 0.231
64.38000 3.456
64.40000 2.849
64.42000 0.683
64.44000 1.958
64.46000 2.147
64.48000 0.094
64.50000 1.896
64.52000 -1.159
64.54000 -1.790
64.56000 1.104
64.58000 5.751
64.60000 3.221
64.62000 0.478
64.64000 -0.678
64.66000 -1.309
64.68000 0.612
64.70000 0.559
64.72000 -1.427
64.74000 0.985
64.76000 1.403
64.78000 1.249
64.80000 2.267
64.82000 0.752
64.84000 5.190
64.86000 4.354
64.88000 3.480
64.90000 0.299
64.92000 -2.033
64.94000 1.183
64.96000 5.270
64.98000 3.795
65.00000 -0.092
65.02000 1.196
65.04000 -1.242
65.06000 -0.597
65.08000 -0.496
65.10000 1.478
65.12000 2.322
65.14000 1.974
65.16000 0.745
65.18000 -1.639
65.20000 -0.324
65.22000 0.677
65.24000 1.636
65.26000 4.144
65.28000 1.440
65.30000 2.438
65.32000 0.011
65.34000 1.751
65.36000 3.645
65.38000 3.131
65.40000 3.744
65.42000 5.212
65.44000 5.844
65.46000 4.664
65.48000 0.596
65.50000 3.040
65.52000 1.430
65.54000 -0.862
65.56000 -2.405
65.58000 3.064
65.60000 2.250
65.62000 1.476
65.64000 3.315
65.66000 1.199
65.68000 1.228
65.70000 1.392
65.72000 2.086
65.74000 4.667
65.76000 4.621
65.78000 1.402
65.80000 2.858
65.82000 0.894
65.84000 -1.004
65.86000 -1.405
65.88000 1.897
65.90000 0.868
65.92000 0.928
65.94000 3.894
65.96000 0.501
65.98000 2.774
66.00000 2.910
66.02000 5.012
66.04000 2.731
66.06000 -2.447
66.08000 -2.043
66.10000 0.418
66.12000 3.090
66.14000 5.272
66.16000 3.865
66.18000 4.677
66.20000 1.577
66.22000 1.807
66.24000 3.724
66.26000 4.345
66.28000 3.003
66.30000 5.798
66.32000 4.501
66.34000 2.492
66.36000 2.189
66.38000 2.340
66.40000 0.251
66.42000 3.587
66.44000 5.112
66.46000 6.298
66.48000 3.399
66.50000 3.318
66.52000 4.910
66.54000 6.412
66.56000 3.964
66.58000 6.723
66.60000 4.750
66.62000 6.126
66.64000 8.242
66.66000 6.544
66.68000 5.401
66.70000 4.729
66.72000 4.708
66.74000 6.282
66.76000 8.332
66.78000 7.516
66.80000 4.796
66.82000 6.094
66.84000 5.982
66.86000 6.451
66.88000 8.879
66.90000 7.971
66.92000 6.637
66.94000 6.605
66.96000 5.137
66.98000 7.806
67.00000 10.862
67.02000 10.509
67.04000 11.139
67.06000 7.781
67.08000 6.383
67.10000 7.790
67.12000 7.236
67.14000 9.851
67.16000 7.758
67.18000 7.465
67.20000 8.237
67.22000 11.594
67.24000 10.809
67.26000 10.805
67.28000 13.679
67.30000 11.701
67.32000 11.397
67.34000 11.893
67.36000 12.565
67.38000 15.379
67.40000 18.714
67.42000 14.400
67.44000 11.582
67.46000 12.403
67.48000 13.498
67.50000 11.943
67.52000 14.492
67.54000 16.365
67.56000 16.100
67.58000 16.170
67.60000 15.578
67.62000 18.150
67.64000 15.957
67.66000 18.939
67.68000 20.471
67.70000 19.221
67.72000 19.029
67.74000 21.243
67.76000 23.462
67.78000 20.650
67.80000 21.390
67.82000 18.406
67.84000 20.887
67.86000 20.074
67.88000 19.794
67.90000 24.780
67.92000 22.601
67.94000 18.775
67.96000 23.529
67.98000 23.333
68.00000 24.903
68.02000 24.928
68.04000 24.356
68.06000 22.993
68.08000 23.539
68.10000 19.632
68.12000 18.325
68.14000 20.487
68.16000 18.706
68.18000 19.405
68.20000 19.471
68.22000 19.547
68.24000 16.091
68.26000 18.538
68.28000 18.190
68.30000 17.666
68.32000 18.447
68.34000 18.264
68.36000 19.287
68.38000 21.887
68.40000 21.817
68.42000 17.348
68.44000 16.933
68.46000 19.521
68.48000 17.551
68.50000 14.669
68.52000 13.983
68.54000 15.911
68.56000 14.375
68.58000 11.188
68.60000 10.653
68.62000 9.936
68.64000 12.203
68.66000 10.822
68.68000 8.000
68.70000 11.101
68.72000 12.292
68.74000 9.015
68.76000 7.312
68.78000 9.454
68.80000 8.609
68.82000 7.755
68.84000 5.738
68.86000 7.360
68.88000 8.235
68.90000 9.077
68.92000 7.503
68.94000 5.066
68.96000 1.475
68.98000 1.239
69.00000 0.848
69.02000 -0.285
69.04000 3.525
69.06000 2.913
69.08000 3.574
69.10000 4.455
69.12000 2.938
69.14000 1.174
69.16000 -0.082
69.18000 0.547
69.20000 1.187
69.22000 0.198
69.24000 6.937
69.26000 7.177
69.28000 5.277
69.30000 2.724
69.32000 2.293
69.34000 1.520
69.36000 0.057
69.38000 2.231
69.40000 1.663
69.42000 3.827
69.44000 3.605
69.46000 1.496
69.48000 2.224
69.50000 2.246
69.52000 -1.215
69.54000 0.142
69.56000 0.025
69.58000 5.252
69.60000 5.725
69.62000 5.099
69.64000 2.187
69.66000 0.253
69.68000 1.518
69.70000 0.700
69.72000 2.066
69.74000 4.471
69.76000 -0.707
69.78000 -2.356
69.80000 0.923
69.82000 -0.707
69.84000 3.011
69.86000 5.245
69.88000 2.167
69.90000 0.419
69.92000 2.928
69.94000 3.954
69.96000 3.168
69.98000 2.227
70.00000 1.738
70.02000 3.854
70.04000 1.403
70.06000 2.871
70.08000 4.140
70.10000 3.569
70.12000 0.826
70.14000 0.898
70.16000 2.394
70.18000 1.525
70.20000 0.872
70.22000 3.757
70.24000 1.405
70.26000 -2.276
70.28000 4.481
70.30000 7.374
70.32000 5.286
70.34000 4.206
70.36000 3.605
70.38000 1.280
70.40000 3.748
70.42000 2.099
70.44000 -0.878
70.46000 1.271
70.48000 2.851
70.50000 5.005
70.52000 6.886
70.54000 3.733
70.56000 4.376
70.58000 7.085
70.60000 5.015
70.62000 6.329
70.64000 7.389
70.66000 3.210
70.68000 2.328
70.70000 -2.058
70.72000 -1.009
70.74000 -1.606
70.76000 1.190
70.78000 3.414
70.80000 4.242
70.82000 2.530
70.84000 2.105
70.86000 0.982
70.88000 2.009
70.90000 3.505
70.92000 3.260
70.94000 2.219
70.96000 -0.251
70.98000 1.827
71.00000 4.810
71.02000 2.503
71.04000 2.185
71.06000 2.464
71.08000 -0.898
71.10000 -0.029
71.12000 2.551
71.14000 3.052
71.16000 -2.281
71.18000 0.742
71.20000 3.862
71.22000 3.644
71.24000 -0.731
71.26000 4.684
71.28000 5.441
71.30000 4.313
71.32000 4.379
71.34000 6.225
71.36000 6.749
71.38000 5.369
71.40000 1.888
71.42000 1.250
71.44000 -0.800
71.46000 -0.611
71.48000 1.190
71.50000 0.860
71.52000 -0.064
71.54000 -1.116
71.56000 -2.276
71.58000 2.690
71.60000 1.473
71.62000 1.670
71.64000 4.861
71.66000 1.958
71.68000 -0.224
71.70000 3.152
71.72000 2.988
71.74000 1.018
71.76000 -0.300
71.78000 -0.478
71.80000 -0.002
71.82000 2.952
71.84000 4.258
71.86000 4.357
71.88000 1.522
71.90000 5.296
71.92000 3.275
71.94000 0.699
71.96000 1.537
71.98000 -0.479
72.00000 1.633
72.02000 0.858
72.04000 0.287
72.06000 1.927
72.08000 2.634
72.10000 3.639
72.12000 2.560
72.14000 1.790
72.16000 2.231
72.18000 4.248
72.20000 7.880
72.22000 5.531
72.24000 1.554
72.26000 0.172
72.28000 0.830
72.30000 2.329
72.32000 1.360
72.34000 -2.240
72.36000 0.130
72.38000 3.656
72.40000 5.250
72.42000 2.571
72.44000 0.792
72.46000 2.939
72.48000 1.534
72.50000 2.614
72.52000 0.296
72.54000 -2.239
72.56000 4.529
72.58000 4.092
72.60000 6.024
72.62000 4.764
72.64000 5.727
72.66000 5.633
72.68000 4.086
72.70000 4.237
72.72000 1.192
72.74000 1.840
72.76000 8.275
72.78000 5.233
72.80000 7.886
72.82000 1.158
72.84000 -0.100
72.86000 4.914
72.88000 7.754
72.90000 4.149
72.92000 1.860
72.94000 2.439
72.96000 -1.172
72.98000 2.942
73.00000 6.602
73.02000 4.556
73.04000 3.221
73.06000 0.188
73.08000 0.102
73.10000 -2.229
73.12000 -1.101
73.14000 0.970
73.16000 2.368
73.18000 -0.345
73.20000 -0.834
73.22000 3.601
73.24000 2.909
73.26000 4.635
73.28000 5.084
73.30000 3.305
73.32000 3.266
73.34000 2.621
73.36000 2.167
73.38000 0.387
73.40000 -0.367
73.42000 1.006
73.44000 2.855
73.46000 3.662
73.48000 1.356
73.50000 -0.006
73.52000 3.275
73.54000 3.042
73.56000 1.584
73.58000 0.878
73.60000 1.126
73.62000 -0.841
73.64000 -0.752
73.66000 -1.993
73.68000 0.183
73.70000 3.064
73.72000 5.362
73.74000 4.850
73.76000 5.867
73.78000 5.578
73.80000 2.546
73.82000 -0.473
73.84000 1.549
73.86000 1.700
73.88000 1.365
73.90000 2.505
73.92000 2.142
73.94000 -1.117
73.96000 0.798
73.98000 0.783
74.00000 2.194
74.02000 1.396
74.04000 2.311
74.06000 2.045
74.08000 2.603
74.10000 2.023
74.12000 -2.212
74.14000 -0.105
74.16000 5.028
74.18000 5.772
74.20000 4.360
74.22000 1.831
74.24000 2.880
74.26000 3.754
74.28000 3.971
74.30000 1.923
74.32000 3.889
74.34000 5.085
74.36000 3.009
74.38000 -0.289
74.40000 5.089
74.42000 5.522
74.44000 3.402
74.46000 4.688
74.48000 3.657
74.50000 2.922
74.52000 0.262
74.54000 0.091
74.56000 3.017
74.58000 4.824
74.60000 3.033
74.62000 1.941
74.64000 3.527
74.66000 -2.210
74.68000 1.951
74.70000 3.232
74.72000 3.846
74.74000 -0.189
74.76000 1.880
74.78000 2.722
74.80000 0.165
74.82000 4.592
74.84000 10.498
74.86000 8.421
74.88000 7.270
74.90000 3.516
74.92000 3.432
74.94000 2.194
74.96000 3.642
74.98000 3.032
75.00000 4.802
75.02000 3.866
75.04000 2.415
75.06000 1.367
75.08000 0.683
75.10000 3.783
75.12000 8.492
75.14000 6.932
75.16000 4.521
75.18000 6.436
75.20000 4.038
75.22000 0.967
75.24000 2.367
75.26000 1.354
75.28000 0.676
75.30000 -2.222
75.32000 -2.121
75.34000 1.095
75.36000 0.109
75.38000 0.781
75.40000 3.075
75.42000 1.588
75.44000 2.178
75.46000 2.882
75.48000 4.058
75.50000 3.645
75.52000 3.209
75.54000 -2.227
75.56000 -1.053
75.58000 3.568
75.60000 -0.050
75.62000 6.326
75.64000 5.121
75.66000 6.809
75.68000 8.999
75.70000 5.246
75.72000 0.518
75.74000 5.172
75.76000 2.167
75.78000 4.682
75.80000 5.169
75.82000 2.930
75.84000 1.794
75.86000 1.573
75.88000 3.611
75.90000 1.021
75.92000 1.448
75.94000 -0.204
75.96000 1.032
75.98000 1.012
76.00000 0.942
76.02000 0.644
76.04000 4.601
76.06000 6.082
76.08000 2.249
76.10000 0.917
76.12000 -1.164
76.14000 -1.820
76.16000 -0.364
76.18000 -0.257
76.20000 8.479
76.22000 3.658
76.24000 3.876
76.26000 0.134
76.28000 0.593
76.30000 2.758
76.32000 -0.199
76.34000 -1.141
76.36000 -0.570
76.38000 -0.858
76.40000 1.434
76.42000 1.862
76.44000 -0.386
76.46000 5.618
76.48000 6.222
76.50000 1.912
76.52000 2.160
76.54000 2.781
76.56000 -1.147
76.58000 -0.995
76.60000 -2.258
76.62000 2.959
76.64000 2.421
76.66000 3.009
76.68000 3.209
76.70000 3.331
76.72000 4.662
76.74000 6.535
76.76000 0.322
76.78000 -0.161
76.80000 0.931
76.82000 0.201
76.84000 5.496
76.86000 -0.618
76.88000 1.296
76.90000 4.532
76.92000 3.468
76.94000 4.279
76.96000 5.279
76.98000 0.245
77.00000 -1.735
77.02000 0.763
77.04000 0.178
77.06000 1.637
77.08000 3.401
77.10000 4.722
77.12000 1.089
77.14000 1.253
77.16000 1.666
77.18000 5.036
77.20000 1.563
77.22000 2.723
77.24000 -0.066
77.26000 0.264
77.28000 0.800
77.30000 5.820
77.32000 3.082
77.34000 0.727
77.36000 0.868
77.38000 0.823
77.40000 5.511
77.42000 0.909
77.44000 -2.262
77.46000 0.473
77.48000 5.099
77.50000 1.164
77.52000 0.830
77.54000 4.706
77.56000 2.109
77.58000 4.472
77.60000 5.202
77.62000 5.393
77.64000 3.694
77.66000 4.441
77.68000 3.090
77.70000 5.816
77.72000 5.223
77.74000 4.982
77.76000 5.092
77.78000 0.173
77.80000 5.302
77.82000 5.591
77.84000 5.340
77.86000 4.519
77.88000 6.524
77.90000 7.399
77.92000 6.009
77.94000 5.152
77.96000 3.229
77.98000 1.035
78.00000 2.861
78.02000 3.528
78.04000 6.259
78.06000 4.976
78.08000 1.633
78.10000 4.277
78.12000 0.463
78.14000 1.165
78.16000 3.444
78.18000 4.136
78.20000 4.271
78.22000 3.031
78.24000 3.896
78.26000 8.558
78.28000 6.840
78.30000 2.252
78.32000 1.239
78.34000 5.399
78.36000 5.141
78.38000 5.044
78.40000 4.611
78.42000 1.320
78.44000 4.731
78.46000 5.265
78.48000 4.169
78.50000 4.398
78.52000 4.137
78.54000 0.096
78.56000 -2.260
78.58000 0.548
78.60000 3.104
78.62000 7.387
78.64000 3.587
78.66000 0.038
78.68000 2.051
78.70000 3.112
78.72000 5.530
78.74000 3.996
78.76000 3.142
78.78000 1.502
78.80000 2.182
78.82000 3.690
78.84000 4.763
78.86000 5.026
78.88000 3.600
78.90000 9.378
78.92000 6.565
78.94000 7.337
78.96000 4.426
78.98000 2.564
79.00000 4.217
79.02000 0.907
79.04000 3.155
79.06000 4.116
79.08000 5.848
79.10000 3.138
79.12000 -1.333
79.14000 1.250
79.16000 -0.772
79.18000 -2.323
79.20000 1.799
79.22000 5.457
79.24000 3.759
79.26000 4.920
79.28000 2.753
79.30000 2.226
79.32000 1.236
79.34000 2.799
79.36000 2.779
79.38000 1.573
79.40000 2.559
79.42000 3.515
79.44000 1.346
79.46000 6.787
79.48000 6.165
79.50000 2.870
79.52000 4.604
79.54000 0.927
79.56000 3.452
79.58000 5.154
79.60000 1.858
79.62000 1.076
79.64000 2.453
79.66000 2.140
79.68000 3.001
79.70000 3.013
79.72000 -2.095
79.74000 -0.624
79.76000 2.935
79.78000 0.795
79.80000 0.697
79.82000 -0.046
79.84000 2.323
79.86000 0.803
79.88000 0.646
79.90000 0.367
79.92000 4.503
79.94000 7.868
79.96000 1.954
79.98000 3.151
80.00000 3.767
80.02000 1.948
80.04000 2.427
80.06000 2.263
80.08000 4.542
80.10000 5.450
80.12000 7.040
80.14000 1.967
80.16000 -2.433
80.18000 1.275
80.20000 3.489
80.22000 6.381
80.24000 0.467
80.26000 0.889
80.28000 2.727
80.30000 6.264
80.32000 11.838
80.34000 8.046
80.36000 5.685
80.38000 10.089
80.40000 9.113
80.42000 5.298
80.44000 5.983
80.46000 8.383
80.48000 2.169
80.50000 1.268
80.52000 5.993
80.54000 4.589
80.56000 3.270
80.58000 0.547
80.60000 2.242
80.62000 7.919
80.64000 7.777
80.66000 4.291
80.68000 6.345
80.70000 7.493
80.72000 8.131
80.74000 6.500
80.76000 4.929
80.78000 5.296
80.80000 2.779
80.82000 5.630
80.84000 8.047
80.86000 8.461
80.88000 4.230
80.90000 6.885
80.92000 7.711
80.94000 12.712
80.96000 13.128
80.98000 8.812
81.00000 9.268
81.02000 12.430
81.04000 13.855
81.06000 9.826
81.08000 10.175
81.10000 13.045
81.12000 10.760
81.14000 10.669
81.16000 10.547
81.18000 14.181
81.20000 14.518
81.22000 12.578
81.24000 12.752
81.26000 14.519
81.28000 13.166
81.30000 15.753
81.32000 14.619
81.34000 18.349
81.36000 17.486
81.38000 19.930
81.40000 18.157
81.42000 18.262
81.44000 18.027
81.46000 20.349
81.48000 17.581
81.50000 21.134
81.52000 20.365
81.54000 26.021
81.56000 20.175
81.58000 17.229
81.60000 15.744
81.62000 20.676
81.64000 19.065
81.66000 22.151
81.68000 22.982
81.70000 23.368
81.72000 25.705
81.74000 24.724
81.76000 26.689
81.78000 29.308
81.80000 27.697
81.82000 27.781
81.84000 26.080
81.86000 28.464
81.88000 26.955
81.90000 27.845
81.92000 26.227
81.94000 24.138
81.96000 24.617
81.98000 25.461
82.00000 26.907
82.02000 33.404
82.04000 34.436
82.06000 28.831
82.08000 23.985
82.10000 26.886
82.12000 26.920
82.14000 26.626
82.16000 25.940
82.18000 31.143
82.20000 33.721
82.22000 30.060
82.24000 26.362
82.26000 29.016
82.28000 30.815
82.30000 29.616
82.32000 27.520
82.34000 26.902
82.36000 24.486
82.38000 23.125
82.40000 21.601
82.42000 23.486
82.44000 23.775
82.46000 20.905
82.48000 20.842
82.50000 18.407
82.52000 21.780
82.54000 20.958
82.56000 21.129
82.58000 19.499
82.60000 15.256
82.62000 19.006
82.64000 20.081
82.66000 17.524
82.68000 16.121
82.70000 14.905
82.72000 17.690
82.74000 12.414
82.76000 10.067
82.78000 13.414
82.80000 13.341
82.82000 10.840
82.84000 12.571
82.86000 8.215
82.88000 10.090
82.90000 12.547
82.92000 11.652
82.94000 11.784
82.96000 13.850
82.98000 11.715
83.00000 12.375
83.02000 9.802
83.04000 10.295
83.06000 12.457
83.08000 14.853
83.10000 9.763
83.12000 5.986
83.14000 2.732
83.16000 3.799
83.18000 4.816
83.20000 3.267
83.22000 2.900
83.24000 10.155
83.26000 8.286
83.28000 5.583
83.30000 4.501
83.32000 3.602
83.34000 4.734
83.36000 0.082
83.38000 3.109
83.40000 5.863
83.42000 1.569
83.44000 0.673
83.46000 1.607
83.48000 3.321
83.50000 0.870
83.52000 -0.543
83.54000 2.572
83.56000 3.270
83.58000 1.238
83.60000 1.176
83.62000 2.018
83.64000 0.318
83.66000 1.739
83.68000 6.259
83.70000 5.172
83.72000 0.547
83.74000 -2.428
83.76000 2.204
83.78000 2.343
83.80000 1.983
83.82000 0.476
83.84000 3.750
83.86000 -1.534
83.88000 3.004
83.90000 3.564
83.92000 1.579
83.94000 1.431
83.96000 -1.904
83.98000 2.179
84.00000 4.387
84.02000 1.571
84.04000 0.189
84.06000 0.963
84.08000 -0.800
84.10000 2.597
84.12000 4.346
84.14000 0.938
84.16000 -2.196
84.18000 -2.391
84.20000 2.888
84.22000 4.330
84.24000 -0.128
84.26000 -1.281
84.28000 4.038
84.30000 2.912
84.32000 4.888
84.34000 0.005
84.36000 2.585
84.38000 4.077
84.40000 1.713
84.42000 3.406
84.44000 -0.426
84.46000 1.925
84.48000 4.595
84.50000 4.182
84.52000 2.880
84.54000 2.306
84.56000 0.523
84.58000 2.007
84.60000 -0.781
84.62000 -2.409
84.64000 -0.495
84.66000 2.069
84.68000 1.758
84.70000 1.432
84.72000 -0.386
84.74000 -0.505
84.76000 2.512
84.78000 1.255
84.80000 2.276
84.82000 6.064
84.84000 2.816
84.86000 4.322
84.88000 3.231
84.90000 2.421
84.92000 3.169
84.94000 4.309
84.96000 2.041
84.98000 0.995
85.00000 1.321
85.02000 3.866
85.04000 4.559
85.06000 4.760
85.08000 4.503
85.10000 7.230
85.12000 6.137
85.14000 8.057
85.16000 8.893
85.18000 5.537
85.20000 5.159
85.22000 4.861
85.24000 5.547
85.26000 1.769
85.28000 2.350
85.30000 6.607
85.32000 8.331
85.34000 10.288
85.36000 10.329
85.38000 10.082
85.40000 7.497
85.42000 7.035
85.44000 9.498
85.46000 8.414
85.48000 12.481
85.50000 16.317
85.52000 14.595
85.54000 10.108
85.56000 4.769
85.58000 10.637
85.60000 15.530
85.62000 10.511
85.64000 12.429
85.66000 18.021
85.68000 18.357
85.70000 17.354
85.72000 16.653
85.74000 13.373
85.76000 16.416
85.78000 17.161
85.80000 25.228
85.82000 19.706
85.84000 22.526
85.86000 20.842
85.88000 20.425
85.90000 23.127
85.92000 26.901
85.94000 28.025
85.96000 24.127
85.98000 22.488
86.00000 19.734
86.02000 23.259
86.04000 28.548
86.06000 23.085
86.08000 22.640
86.10000 18.450
86.12000 23.794
86.14000 25.364
86.16000 26.399
86.18000 24.948
86.20000 23.846
86.22000 24.574
86.24000 26.461
86.26000 27.513
86.28000 24.574
86.30000 21.618
86.32000 24.268
86.34000 25.437
86.36000 25.164
86.38000 20.377
86.40000 19.921
86.42000 18.518
86.44000 18.433
86.46000 22.788
86.48000 26.054
86.50000 22.404
86.52000 19.402
86.54000 17.812
86.56000 18.212
86.58000 22.901
86.60000 27.429
86.62000 21.926
86.64000 17.442
86.66000 17.565
86.68000 16.898
86.70000 18.406
86.72000 13.856
86.74000 13.349
86.76000 11.518
86.78000 12.638
86.80000 13.338
86.82000 15.766
86.84000 12.833
86.86000 12.225
86.88000 10.088
86.90000 8.820
86.92000 8.769
86.94000 10.140
86.96000 14.997
86.98000 9.011
87.00000 7.775
87.02000 8.327
87.04000 6.598
87.06000 9.112
87.08000 10.512
87.10000 11.419
87.12000 12.590
87.14000 9.404
87.16000 9.731
87.18000 4.839
87.20000 1.152
87.22000 1.026
87.24000 -0.009
87.26000 1.166
87.28000 1.313
87.30000 5.311
87.32000 7.765
87.34000 9.345
87.36000 5.526
87.38000 2.993
87.40000 1.895
87.42000 2.809
87.44000 6.042
87.46000 5.797
87.48000 3.028
87.50000 6.870
87.52000 5.877
87.54000 2.187
87.56000 -0.843
87.58000 -2.249
87.60000 -0.239
87.62000 -0.359
87.64000 0.657
87.66000 2.749
87.68000 2.329
87.70000 2.027
87.72000 2.078
87.74000 3.159
87.76000 -1.627
87.78000 -1.247
87.80000 0.935
87.82000 -0.108
87.84000 3.125
87.86000 1.853
87.88000 0.860
87.90000 1.495
87.92000 2.280
87.94000 2.556
87.96000 1.554
87.98000 3.698
88.00000 1.152
88.02000 5.269
88.04000 3.992
88.06000 2.427
88.08000 3.086
88.10000 7.105
88.12000 -2.174
88.14000 1.428
88.16000 3.522
88.18000 -0.544
88.20000 7.841
88.22000 6.303
88.24000 1.398
88.26000 4.133
88.28000 0.321
88.30000 -0.886
88.32000 -2.141
88.34000 1.694
88.36000 4.089
88.38000 5.692
88.40000 2.478
88.42000 0.310
88.44000 6.579
88.46000 8.344
88.48000 5.863
88.50000 4.748
88.52000 4.355
88.54000 4.647
88.56000 4.208
88.58000 3.487
88.60000 0.034
88.62000 3.231
88.64000 4.744
88.66000 3.283
88.68000 2.080
88.70000 4.322
88.72000 4.634
88.74000 0.042
88.76000 -0.098
88.78000 -0.874
88.80000 -0.035
88.82000 4.782
88.84000 3.914
88.86000 1.697
88.88000 0.929
88.90000 4.512
88.92000 3.070
88.94000 5.396
88.96000 2.174
88.98000 0.671
89.00000 -0.681
89.02000 1.305
89.04000 0.413
89.06000 -0.818
89.08000 1.065
89.10000 0.902
89.12000 -0.048
89.14000 7.276
89.16000 2.359
89.18000 2.047
89.20000 -0.933
89.22000 -0.338
89.24000 -2.047
89.26000 0.873
89.28000 -0.342
89.30000 1.857
89.32000 0.720
89.34000 -1.202
89.36000 0.798
89.38000 1.474
89.40000 0.193
89.42000 -2.118
89.44000 -2.115
89.46000 -1.501
89.48000 0.148
89.50000 2.598
89.52000 3.887
89.54000 3.458
89.56000 0.887
89.58000 2.179
89.60000 3.129
89.62000 3.311
89.64000 3.073
89.66000 -2.109
89.68000 0.796
89.70000 4.384
89.72000 4.514
89.74000 2.676
89.76000 4.210
89.78000 3.341
89.80000 3.028
89.82000 1.411
89.84000 2.609
89.86000 2.662
89.88000 3.795
89.90000 -0.868
89.92000 1.041
89.94000 3.418
89.96000 5.859
89.98000 6.351
90.00000 7.044
90.02000 6.495
90.04000 2.747
90.06000 1.657
90.08000 -0.823
90.10000 2.446
90.12000 2.921
90.14000 1.825
90.16000 6.385
90.18000 5.639
90.20000 3.641
90.22000 4.820
90.24000 3.532
90.26000 1.387
90.28000 3.797
90.30000 4.869
90.32000 1.770
90.34000 1.708
90.36000 -2.093
90.38000 -1.309
90.40000 1.063
90.42000 5.969
90.44000 5.284
90.46000 1.646
90.48000 5.131
90.50000 5.238
90.52000 5.641
90.54000 2.247
90.56000 -1.237
90.58000 -1.139
90.60000 4.229
90.62000 4.102
90.64000 4.214
90.66000 1.887
90.68000 8.331
90.70000 6.645
90.72000 3.820
90.74000 0.346
90.76000 5.009
90.78000 2.164
90.80000 1.069
90.82000 5.056
90.84000 6.404
90.86000 6.433
90.88000 2.066
90.90000 2.600
90.92000 5.618
90.94000 4.060
90.96000 5.419
90.98000 5.000
91.00000 7.330
91.02000 5.596
91.04000 -0.037
91.06000 -2.066
91.08000 3.579
91.10000 10.305
91.12000 8.496
91.14000 1.726
91.16000 3.442
91.18000 2.505
91.20000 5.209
91.22000 6.742
91.24000 3.824
91.26000 3.099
91.28000 2.235
91.30000 2.396
91.32000 5.080
91.34000 3.419
91.36000 2.072
91.38000 -0.003
91.40000 -1.164
91.42000 -0.404
91.44000 3.134
91.46000 0.659
91.48000 1.921
91.50000 5.672
91.52000 4.246
91.54000 -0.459
91.56000 0.004
91.58000 -2.084
91.60000 5.200
91.62000 7.276
91.64000 0.932
91.66000 1.352
91.68000 2.902
91.70000 4.467
91.72000 4.599
91.74000 4.296
91.76000 4.893
91.78000 5.423
91.80000 -2.091
91.82000 -0.264
91.84000 1.526
91.86000 2.580
91.88000 2.866
91.90000 7.933
91.92000 4.402
91.94000 4.841
91.96000 4.125
91.98000 3.309
92.00000 5.549
92.02000 6.122
92.04000 1.536
92.06000 0.600
92.08000 2.752
92.10000 3.025
92.12000 -1.737
92.14000 -0.510
92.16000 2.826
92.18000 2.706
92.20000 3.180
92.22000 4.044
92.24000 3.157
92.26000 1.109
92.28000 3.626
92.30000 3.206
92.32000 3.050
92.34000 4.642
92.36000 0.622
92.38000 2.295
92.40000 4.754
92.42000 -1.068
92.44000 1.778
92.46000 2.664
92.48000 4.014
92.50000 3.098
92.52000 3.753
92.54000 4.556
92.56000 5.379
92.58000 4.160
92.60000 2.907
92.62000 -0.350
92.64000 -0.024
92.66000 1.868
92.68000 1.889
92.70000 2.531
92.72000 8.905
92.74000 3.864
92.76000 4.391
92.78000 0.501
92.80000 2.319
92.82000 4.584
92.84000 1.825
92.86000 1.039
92.88000 5.497
92.90000 2.945
92.92000 -0.383
92.94000 -2.091
92.96000 1.722
92.98000 3.642
93.00000 4.701
93.02000 2.899
93.04000 1.307
93.06000 0.170
93.08000 2.178
93.10000 3.558
93.12000 3.028
93.14000 6.540
93.16000 3.073
93.18000 6.093
93.20000 0.534
93.22000 -1.302
93.24000 4.878
93.26000 1.456
93.28000 -1.207
93.30000 1.788
93.32000 1.578
93.34000 3.387
93.36000 2.966
93.38000 0.899
93.40000 2.967
93.42000 3.071
93.44000 2.513
93.46000 3.270
93.48000 0.784
93.50000 4.618
93.52000 2.835
93.54000 0.783
93.56000 -2.123
93.58000 1.663
93.60000 3.148
93.62000 1.316
93.64000 2.516
93.66000 4.900
93.68000 5.335
93.70000 6.132
93.72000 5.682
93.74000 -1.037
93.76000 1.450
93.78000 6.543
93.80000 6.595
93.82000 3.391
93.84000 1.244
93.86000 3.265
93.88000 6.279
93.90000 -1.548
93.92000 2.211
93.94000 3.826
93.96000 0.684
93.98000 2.171
94.00000 2.723
94.02000 5.796
94.04000 1.786
94.06000 -1.051
94.08000 5.922
94.10000 3.427
94.12000 3.046
94.14000 -0.370
94.16000 -0.756
94.18000 2.674
94.20000 3.475
94.22000 3.571
94.24000 1.906
94.26000 2.160
94.28000 0.587
94.30000 1.121
94.32000 2.375
94.34000 5.142
94.36000 5.276
94.38000 2.260
94.40000 4.240
94.42000 2.681
94.44000 -0.366
94.46000 -1.889
94.48000 0.409
94.50000 -0.167
94.52000 5.091
94.54000 6.143
94.56000 3.610
94.58000 4.899
94.60000 6.164
94.62000 5.354
94.64000 4.697
94.66000 8.121
94.68000 7.602
94.70000 3.173
94.72000 2.431
94.74000 2.490
94.76000 1.108
94.78000 -2.125
94.80000 -1.458
94.82000 -0.859
94.84000 1.726
94.86000 1.137
94.88000 0.878
94.90000 2.295
94.92000 1.901
94.94000 -0.030
94.96000 0.834
94.98000 7.233
95.00000 4.233
95.02000 6.452
95.04000 3.836
95.06000 2.348
95.08000 -0.963
95.10000 2.719
95.12000 4.455
95.14000 10.714
95.16000 3.423
95.18000 0.404
95.20000 -1.321
95.22000 -2.107
95.24000 1.697
95.26000 0.195
95.28000 4.920
95.30000 4.429
95.32000 3.180
95.34000 3.897
95.36000 6.582
95.38000 4.393
95.40000 2.427
95.42000 2.664
95.44000 0.205
95.46000 2.981
95.48000 0.063
95.50000 3.026
95.52000 10.230
95.54000 7.914
95.56000 2.171
95.58000 4.402
95.60000 4.329
95.62000 2.788
95.64000 4.764
95.66000 7.432
95.68000 7.605
95.70000 5.282
95.72000 3.276
95.74000 0.108
95.76000 0.710
95.78000 2.359
95.80000 1.550
95.82000 3.795
95.84000 6.972
95.86000 10.276
95.88000 11.533
95.90000 9.304
95.92000 8.755
95.94000 6.226
95.96000 3.043
95.98000 2.866
96.00000 3.018
96.02000 5.030
96.04000 4.686
96.06000 6.905
96.08000 3.572
96.10000 0.889
96.12000 0.463
96.14000 5.116
96.16000 0.669
96.18000 3.905
96.20000 5.033
96.22000 5.893
96.24000 4.422
96.26000 2.294
96.28000 2.043
96.30000 9.150
96.32000 4.822
96.34000 3.119
96.36000 6.995
96.38000 4.692
96.40000 4.967
96.42000 10.798
96.44000 8.889
96.46000 7.941
96.48000 7.669
96.50000 4.903
96.52000 6.376
96.54000 7.387
96.56000 2.244
96.58000 3.322
96.60000 7.461
96.62000 9.188
96.64000 4.196
96.66000 2.080
96.68000 7.838
96.70000 8.228
96.72000 1.883
96.74000 0.520
96.76000 7.374
96.78000 9.185
96.80000 7.417
96.82000 5.897
96.84000 11.410
96.86000 7.029
96.88000 10.271
96.90000 7.253
96.92000 5.917
96.94000 5.006
96.96000 4.519
96.98000 3.149
97.00000 6.061
97.02000 3.657
97.04000 6.223
97.06000 10.006
97.08000 5.881
97.10000 12.049
97.12000 4.925
97.14000 -2.005
97.16000 1.378
97.18000 1.862
97.20000 5.442
97.22000 8.753
97.24000 13.581
97.26000 11.538
97.28000 7.594
97.30000 8.398
97.32000 7.827
97.34000 8.203
97.36000 6.365
97.38000 10.710
97.40000 6.150
97.42000 6.767
97.44000 9.916
97.46000 8.702
97.48000 7.738
97.50000 6.504
97.52000 10.180
97.54000 5.827
97.56000 4.487
97.58000 8.900
97.60000 9.722
97.62000 5.769
97.64000 3.285
97.66000 7.752
97.68000 10.143
97.70000 7.603
97.72000 7.221
97.74000 10.832
97.76000 9.794
97.78000 5.898
97.80000 4.762
97.82000 10.538
97.84000 4.992
97.86000 2.008
97.88000 -1.980
97.90000 4.826
97.92000 8.942
97.94000 0.662
97.96000 0.009
97.98000 2.551
98.00000 5.839
98.02000 8.876
98.04000 10.935
98.06000 9.173
98.08000 10.200
98.10000 10.332
98.12000 5.264
98.14000 0.289
98.16000 5.072
98.18000 12.080
98.20000 4.021
98.22000 2.852
98.24000 5.011
98.26000 12.917
98.28000 10.437
98.30000 8.046
98.32000 8.890
98.34000 8.301
98.36000 12.060
98.38000 8.927
98.40000 3.531
98.42000 2.565
98.44000 11.162
98.46000 6.820
98.48000 4.743
98.50000 2.205
98.52000 8.018
98.54000 8.835
98.56000 0.808
98.58000 2.349
98.60000 2.395
98.62000 8.896
98.64000 10.761
98.66000 12.896
98.68000 11.515
98.70000 -1.444
98.72000 1.634
98.74000 2.659
98.76000 5.753
98.78000 8.983
98.80000 1.290
98.82000 3.169
98.84000 9.904
98.86000 6.264
98.88000 7.836
98.90000 1.319
98.92000 12.348
98.94000 9.250
98.96000 9.278
98.98000 -0.641
99.00000 8.145
99.02000 0.997
99.04000 4.084
99.06000 0.257
99.08000 5.578
99.10000 4.141
99.12000 -0.908
99.14000 1.456
99.16000 5.951
99.18000 7.086
99.20000 11.885
99.22000 12.570
99.24000 5.020
99.26000 6.849
99.28000 11.143
99.30000 10.156
99.32000 8.939
99.34000 5.445
99.36000 7.783
99.38000 10.647
99.40000 2.277
99.42000 10.678
99.44000 11.728
99.46000 1.082
99.48000 1.685
99.50000 14.604
99.52000 10.225
99.54000 5.126
99.56000 8.757
99.58000 9.183
99.60000 12.538
99.62000 15.847
99.64000 12.770
99.66000 11.219
99.68000 11.364
99.70000 5.755
99.72000 -4.116
99.74000 3.994
99.76000 4.210
99.78000 10.653
99.80000 8.218
99.82000 9.694
99.84000 3.953
99.86000 0.412
99.88000 11.935
99.90000 11.578
99.92000 14.537
99.94000 5.219
99.96000 8.236
99.98000 0.000
