'Id: "0011387" Comment: "Integrate frame 0011387_Au-Ir-Rh_Rh-rich_XRD-Mapping-223-0000.gfrmwith cursor Wedge Cursor #5" Operator: "B?rgel" Anode: "Cu" Wavelength: "1.5406" Scantype: "2Theta (TwoTheta)" TimePerStep: "1" X: "-31.5" Y: "13.5" Z: "5.95" 
10.00000 0.000
10.02000 18.402
10.04000 8.208
10.06000 -1.402
10.08000 -4.345
10.10000 15.679
10.12000 28.869
10.14000 36.697
10.16000 20.788
10.18000 8.011
10.20000 14.778
10.22000 12.037
10.24000 16.561
10.26000 22.342
10.28000 28.557
10.30000 40.350
10.32000 36.751
10.34000 37.521
10.36000 25.491
10.38000 15.115
10.40000 22.164
10.42000 44.369
10.44000 36.089
10.46000 28.576
10.48000 30.806
10.50000 40.038
10.52000 24.187
10.54000 11.716
10.56000 10.936
10.58000 11.867
10.60000 32.537
10.62000 18.923
10.64000 3.657
10.66000 9.802
10.68000 7.497
10.70000 13.526
10.72000 12.647
10.74000 11.591
10.76000 15.340
10.78000 18.489
10.80000 34.463
10.82000 9.004
10.84000 4.797
10.86000 13.524
10.88000 16.044
10.90000 18.137
10.92000 14.499
10.94000 19.822
10.96000 21.991
10.98000 19.629
11.00000 13.300
11.02000 12.379
11.04000 24.096
11.06000 19.362
11.08000 18.180
11.10000 21.662
11.12000 19.233
11.14000 13.427
11.16000 8.789
11.18000 13.382
11.20000 27.918
11.22000 16.283
11.24000 15.091
11.26000 12.739
11.28000 12.223
11.30000 3.486
11.32000 8.887
11.34000 23.086
11.36000 10.565
11.38000 16.249
11.40000 15.203
11.42000 16.165
11.44000 17.323
11.46000 18.090
11.48000 -1.034
11.50000 -2.925
11.52000 1.179
11.54000 4.267
11.56000 6.768
11.58000 3.458
11.60000 9.625
11.62000 13.056
11.64000 -1.376
11.66000 4.994
11.68000 15.569
11.70000 16.636
11.72000 18.771
11.74000 6.028
11.76000 13.578
11.78000 30.926
11.80000 16.393
11.82000 0.110
11.84000 2.648
11.86000 2.851
11.88000 2.701
11.90000 3.618
11.92000 14.829
11.94000 20.000
11.96000 15.718
11.98000 11.087
12.00000 6.883
12.02000 4.107
12.04000 8.120
12.06000 19.499
12.08000 23.383
12.10000 6.936
12.12000 4.312
12.14000 4.107
12.16000 7.326
12.18000 4.051
12.20000 5.295
12.22000 3.704
12.24000 7.877
12.26000 8.146
12.28000 7.933
12.30000 5.365
12.32000 3.343
12.34000 3.670
12.36000 8.830
12.38000 12.873
12.40000 19.014
12.42000 11.004
12.44000 21.150
12.46000 19.979
12.48000 10.937
12.50000 11.016
12.52000 14.389
12.54000 12.718
12.56000 8.451
12.58000 -3.490
12.60000 6.921
12.62000 7.141
12.64000 7.323
12.66000 18.614
12.68000 23.316
12.70000 16.121
12.72000 17.703
12.74000 6.067
12.76000 -4.521
12.78000 7.013
12.80000 17.826
12.82000 16.558
12.84000 20.050
12.86000 11.083
12.88000 1.692
12.90000 5.452
12.92000 11.140
12.94000 9.164
12.96000 5.334
12.98000 1.322
13.00000 2.432
13.02000 8.199
13.04000 19.269
13.06000 18.313
13.08000 8.061
13.10000 8.471
13.12000 3.291
13.14000 -0.853
13.16000 -0.129
13.18000 2.895
13.20000 4.670
13.22000 10.641
13.24000 6.240
13.26000 -3.299
13.28000 2.133
13.30000 5.252
13.32000 4.760
13.34000 19.695
13.36000 18.534
13.38000 13.953
13.40000 17.700
13.42000 11.637
13.44000 4.685
13.46000 1.552
13.48000 4.130
13.50000 8.616
13.52000 4.418
13.54000 3.331
13.56000 6.995
13.58000 5.328
13.60000 0.001
13.62000 4.621
13.64000 6.276
13.66000 3.693
13.68000 2.387
13.70000 1.962
13.72000 -3.168
13.74000 5.230
13.76000 7.746
13.78000 8.380
13.80000 5.726
13.82000 4.398
13.84000 6.031
13.86000 -2.175
13.88000 -4.384
13.90000 5.657
13.92000 -4.516
13.94000 -3.495
13.96000 4.013
13.98000 -4.279
14.00000 -2.185
14.02000 -2.155
14.04000 -1.503
14.06000 7.698
14.08000 0.227
14.10000 0.469
14.12000 -2.757
14.14000 0.418
14.16000 1.589
14.18000 -1.257
14.20000 -2.861
14.22000 6.658
14.24000 7.068
14.26000 4.669
14.28000 13.843
14.30000 4.608
14.32000 1.096
14.34000 13.313
14.36000 7.750
14.38000 2.826
14.40000 -0.621
14.42000 14.221
14.44000 21.906
14.46000 13.079
14.48000 12.321
14.50000 9.781
14.52000 5.374
14.54000 4.610
14.56000 -4.494
14.58000 -4.491
14.60000 -0.017
14.62000 7.020
14.64000 10.619
14.66000 6.601
14.68000 11.077
14.70000 6.652
14.72000 -0.298
14.74000 1.374
14.76000 0.764
14.78000 7.128
14.80000 8.157
14.82000 6.054
14.84000 5.489
14.86000 3.587
14.88000 -0.166
14.90000 0.066
14.92000 -4.477
14.94000 7.250
14.96000 11.044
14.98000 7.648
15.00000 7.339
15.02000 8.739
15.04000 6.991
15.06000 4.335
15.08000 2.698
15.10000 12.611
15.12000 12.020
15.14000 7.693
15.16000 6.818
15.18000 12.881
15.20000 17.012
15.22000 8.855
15.24000 7.518
15.26000 3.643
15.28000 12.929
15.30000 5.870
15.32000 2.480
15.34000 8.529
15.36000 7.969
15.38000 7.913
15.40000 3.748
15.42000 5.782
15.44000 7.379
15.46000 6.916
15.48000 13.940
15.50000 7.428
15.52000 6.812
15.54000 4.471
15.56000 -2.885
15.58000 -3.701
15.60000 5.315
15.62000 10.016
15.64000 5.757
15.66000 4.865
15.68000 15.259
15.70000 12.915
15.72000 13.001
15.74000 14.920
15.76000 4.907
15.78000 3.633
15.80000 11.876
15.82000 13.636
15.84000 11.187
15.86000 7.394
15.88000 14.856
15.90000 5.234
15.92000 4.103
15.94000 6.054
15.96000 10.124
15.98000 13.913
16.00000 8.410
16.02000 1.648
16.04000 1.755
16.06000 6.610
16.08000 4.139
16.10000 5.820
16.12000 10.709
16.14000 2.250
16.16000 -4.409
16.18000 6.537
16.20000 9.954
16.22000 4.149
16.24000 -4.404
16.26000 4.142
16.28000 5.121
16.30000 5.192
16.32000 6.249
16.34000 9.497
16.36000 6.178
16.38000 3.824
16.40000 5.052
16.42000 3.286
16.44000 7.196
16.46000 11.758
16.48000 11.138
16.50000 6.003
16.52000 8.676
16.54000 5.768
16.56000 6.704
16.58000 12.664
16.60000 14.168
16.62000 8.023
16.64000 9.785
16.66000 7.618
16.68000 8.402
16.70000 8.068
16.72000 1.620
16.74000 6.528
16.76000 7.296
16.78000 8.775
16.80000 10.882
16.82000 10.769
16.84000 12.967
16.86000 8.436
16.88000 2.436
16.90000 6.609
16.92000 5.279
16.94000 4.964
16.96000 6.707
16.98000 5.753
17.00000 6.003
17.02000 6.874
17.04000 5.968
17.06000 5.797
17.08000 8.295
17.10000 14.845
17.12000 11.719
17.14000 8.311
17.16000 6.974
17.18000 1.856
17.20000 3.209
17.22000 6.309
17.24000 10.240
17.26000 6.370
17.28000 10.573
17.30000 5.815
17.32000 2.987
17.34000 -0.249
17.36000 0.930
17.38000 -0.228
17.40000 2.408
17.42000 -1.175
17.44000 -0.491
17.46000 -1.608
17.48000 3.157
17.50000 8.001
17.52000 3.902
17.54000 3.999
17.56000 2.876
17.58000 3.890
17.60000 12.781
17.62000 17.249
17.64000 6.516
17.66000 8.604
17.68000 7.657
17.70000 8.646
17.72000 7.070
17.74000 -1.488
17.76000 0.026
17.78000 5.410
17.80000 9.898
17.82000 3.939
17.84000 -3.370
17.86000 -1.219
17.88000 11.847
17.90000 12.869
17.92000 7.575
17.94000 5.152
17.96000 8.385
17.98000 5.531
18.00000 -4.336
18.02000 4.546
18.04000 3.028
18.06000 -1.518
18.08000 -2.845
18.10000 5.880
18.12000 10.721
18.14000 9.604
18.16000 2.068
18.18000 0.704
18.20000 0.317
18.22000 4.537
18.24000 1.332
18.26000 5.004
18.28000 2.687
18.30000 1.465
18.32000 -1.254
18.34000 -4.313
18.36000 12.236
18.38000 15.567
18.40000 5.054
18.42000 -0.370
18.44000 -1.686
18.46000 0.991
18.48000 1.582
18.50000 11.827
18.52000 7.700
18.54000 9.130
18.56000 4.181
18.58000 -3.623
18.60000 3.173
18.62000 3.189
18.64000 5.850
18.66000 2.195
18.68000 8.819
18.70000 7.637
18.72000 -1.305
18.74000 -2.442
18.76000 4.395
18.78000 12.384
18.80000 11.223
18.82000 4.003
18.84000 6.696
18.86000 6.269
18.88000 8.591
18.90000 11.980
18.92000 3.897
18.94000 4.421
18.96000 3.661
18.98000 -1.390
19.00000 -2.942
19.02000 -4.272
19.04000 3.044
19.06000 9.063
19.08000 6.317
19.10000 10.259
19.12000 8.950
19.14000 3.443
19.16000 3.982
19.18000 3.946
19.20000 1.189
19.22000 -1.600
19.24000 0.343
19.26000 3.548
19.28000 -1.314
19.30000 1.052
19.32000 2.373
19.34000 7.117
19.36000 2.788
19.38000 2.194
19.40000 3.301
19.42000 -4.252
19.44000 4.348
19.46000 4.145
19.48000 9.533
19.50000 10.526
19.52000 7.980
19.54000 6.133
19.56000 4.287
19.58000 9.956
19.60000 6.343
19.62000 5.406
19.64000 1.708
19.66000 3.327
19.68000 7.068
19.70000 5.802
19.72000 8.778
19.74000 9.651
19.76000 -2.181
19.78000 -4.230
19.80000 6.369
19.82000 6.289
19.84000 8.312
19.86000 5.963
19.88000 2.971
19.90000 10.088
19.92000 4.295
19.94000 1.903
19.96000 4.433
19.98000 4.330
20.00000 -3.225
20.02000 -4.220
20.04000 -4.165
20.06000 -1.201
20.08000 -0.381
20.10000 3.091
20.12000 5.641
20.14000 1.693
20.16000 1.627
20.18000 4.117
20.20000 4.290
20.22000 6.642
20.24000 8.569
20.26000 3.724
20.28000 4.324
20.30000 4.477
20.32000 -1.362
20.34000 -0.618
20.36000 0.888
20.38000 6.506
20.40000 3.137
20.42000 0.009
20.44000 -2.294
20.46000 0.243
20.48000 5.686
20.50000 9.813
20.52000 1.408
20.54000 3.044
20.56000 6.259
20.58000 10.200
20.60000 3.850
20.62000 4.398
20.64000 2.219
20.66000 7.587
20.68000 3.363
20.70000 0.820
20.72000 0.711
20.74000 -0.459
20.76000 5.543
20.78000 3.625
20.80000 5.448
20.82000 8.377
20.84000 2.086
20.86000 -2.262
20.88000 4.398
20.90000 3.152
20.92000 7.430
20.94000 5.372
20.96000 3.246
20.98000 3.383
21.00000 4.887
21.02000 6.686
21.04000 3.531
21.06000 -4.169
21.08000 0.122
21.10000 5.066
21.12000 2.192
21.14000 -1.027
21.16000 0.721
21.18000 -1.820
21.20000 2.645
21.22000 11.285
21.24000 9.874
21.26000 -2.010
21.28000 -2.964
21.30000 -1.777
21.32000 4.856
21.34000 3.365
21.36000 5.397
21.38000 1.922
21.40000 -3.551
21.42000 -1.972
21.44000 2.835
21.46000 -1.988
21.48000 0.273
21.50000 -0.197
21.52000 3.192
21.54000 8.359
21.56000 12.746
21.58000 4.257
21.60000 2.260
21.62000 4.888
21.64000 0.984
21.66000 4.740
21.68000 14.041
21.70000 13.162
21.72000 2.837
21.74000 -1.877
21.76000 -4.126
21.78000 -4.124
21.80000 7.102
21.82000 4.731
21.84000 3.132
21.86000 0.104
21.88000 -0.001
21.90000 0.790
21.92000 4.764
21.94000 6.693
21.96000 6.797
21.98000 6.203
22.00000 6.073
22.02000 -1.205
22.04000 -4.106
22.06000 -3.215
22.08000 3.612
22.10000 15.727
22.12000 13.120
22.14000 9.664
22.16000 7.193
22.18000 4.606
22.20000 2.467
22.22000 5.348
22.24000 7.184
22.26000 4.138
22.28000 1.161
22.30000 0.734
22.32000 11.084
22.34000 10.255
22.36000 9.966
22.38000 4.558
22.40000 1.096
22.42000 3.099
22.44000 6.879
22.46000 1.435
22.48000 4.241
22.50000 2.868
22.52000 4.524
22.54000 3.140
22.56000 -0.222
22.58000 -0.106
22.60000 -0.111
22.62000 3.404
22.64000 4.915
22.66000 -0.561
22.68000 3.628
22.70000 2.708
22.72000 5.193
22.74000 4.746
22.76000 2.356
22.78000 5.984
22.80000 6.438
22.82000 3.295
22.84000 3.151
22.86000 0.453
22.88000 5.096
22.90000 2.692
22.92000 7.969
22.94000 10.814
22.96000 9.307
22.98000 8.600
23.00000 3.364
23.02000 -1.653
23.04000 -0.952
23.06000 3.149
23.08000 2.640
23.10000 3.767
23.12000 3.720
23.14000 6.237
23.16000 5.660
23.18000 3.278
23.20000 5.673
23.22000 12.413
23.24000 12.867
23.26000 11.549
23.28000 8.805
23.30000 8.618
23.32000 4.361
23.34000 9.184
23.36000 2.898
23.38000 -3.499
23.40000 -4.011
23.42000 -0.801
23.44000 7.577
23.46000 8.958
23.48000 1.069
23.50000 -0.491
23.52000 -1.969
23.54000 1.455
23.56000 -0.697
23.58000 -2.770
23.60000 0.380
23.62000 8.215
23.64000 10.923
23.66000 4.141
23.68000 2.665
23.70000 8.463
23.72000 5.553
23.74000 1.768
23.76000 1.820
23.78000 8.449
23.80000 4.947
23.82000 -0.577
23.84000 3.926
23.86000 8.375
23.88000 7.492
23.90000 -0.060
23.92000 8.439
23.94000 13.065
23.96000 7.646
23.98000 1.602
24.00000 1.366
24.02000 3.521
24.04000 6.966
24.06000 -1.116
24.08000 -0.895
24.10000 5.426
24.12000 4.275
24.14000 7.593
24.16000 4.886
24.18000 -3.997
24.20000 -2.939
24.22000 1.984
24.24000 4.368
24.26000 -3.494
24.28000 -0.393
24.30000 1.606
24.32000 1.169
24.34000 -3.368
24.36000 1.746
24.38000 1.108
24.40000 1.839
24.42000 0.817
24.44000 -1.309
24.46000 -0.903
24.48000 4.646
24.50000 8.019
24.52000 9.140
24.54000 2.017
24.56000 1.987
24.58000 1.113
24.60000 0.589
24.62000 -3.721
24.64000 -0.091
24.66000 4.391
24.68000 6.256
24.70000 2.785
24.72000 -2.532
24.74000 -2.965
24.76000 2.034
24.78000 -1.336
24.80000 0.846
24.82000 2.327
24.84000 5.796
24.86000 5.720
24.88000 2.397
24.90000 0.297
24.92000 2.883
24.94000 5.408
24.96000 3.094
24.98000 3.269
25.00000 6.358
25.02000 4.304
25.04000 2.323
25.06000 3.738
25.08000 1.052
25.10000 3.798
25.12000 -0.657
25.14000 -0.461
25.16000 -3.952
25.18000 -0.594
25.20000 3.412
25.22000 -0.141
25.24000 4.519
25.26000 4.536
25.28000 -2.734
25.30000 -1.348
25.32000 6.088
25.34000 7.748
25.36000 2.901
25.38000 -1.067
25.40000 -1.653
25.42000 1.203
25.44000 1.989
25.46000 -2.114
25.48000 2.549
25.50000 5.191
25.52000 6.503
25.54000 6.048
25.56000 2.984
25.58000 3.492
25.60000 2.097
25.62000 -1.856
25.64000 -2.633
25.66000 -1.551
25.68000 -0.699
25.70000 -2.795
25.72000 -2.179
25.74000 2.076
25.76000 6.936
25.78000 5.528
25.80000 3.726
25.82000 3.549
25.84000 0.476
25.86000 -3.905
25.88000 4.875
25.90000 5.528
25.92000 2.087
25.94000 0.704
25.96000 5.818
25.98000 3.081
26.00000 3.250
26.02000 3.699
26.04000 8.750
26.06000 9.637
26.08000 2.433
26.10000 -1.369
26.12000 0.852
26.14000 6.765
26.16000 9.166
26.18000 5.211
26.20000 1.301
26.22000 3.020
26.24000 -0.809
26.26000 -3.226
26.28000 0.943
26.30000 1.328
26.32000 2.703
26.34000 3.573
26.36000 -1.067
26.38000 -2.403
26.40000 -0.761
26.42000 1.089
26.44000 4.925
26.46000 1.098
26.48000 -0.916
26.50000 4.167
26.52000 5.209
26.54000 7.034
26.56000 4.381
26.58000 1.671
26.60000 2.844
26.62000 4.489
26.64000 1.560
26.66000 -1.914
26.68000 0.784
26.70000 2.984
26.72000 3.577
26.74000 2.602
26.76000 6.636
26.78000 3.258
26.80000 -0.981
26.82000 0.189
26.84000 1.114
26.86000 0.072
26.88000 0.105
26.90000 -3.850
26.92000 0.655
26.94000 7.479
26.96000 8.650
26.98000 4.253
27.00000 6.678
27.02000 1.951
27.04000 0.554
27.06000 -0.222
27.08000 -0.583
27.10000 0.215
27.12000 0.309
27.14000 0.944
27.16000 3.294
27.18000 0.508
27.20000 5.081
27.22000 8.717
27.24000 3.212
27.26000 0.999
27.28000 -0.438
27.30000 1.225
27.32000 7.213
27.34000 7.601
27.36000 2.856
27.38000 6.853
27.40000 7.232
27.42000 0.202
27.44000 -3.805
27.46000 -2.464
27.48000 -0.059
27.50000 -0.104
27.52000 2.814
27.54000 0.995
27.56000 5.196
27.58000 3.728
27.60000 1.571
27.62000 4.510
27.64000 7.567
27.66000 6.952
27.68000 3.435
27.70000 7.309
27.72000 2.593
27.74000 6.767
27.76000 1.251
27.78000 -1.067
27.80000 -0.050
27.82000 5.052
27.84000 0.622
27.86000 -3.791
27.88000 0.205
27.90000 0.395
27.92000 -1.644
27.94000 3.517
27.96000 7.488
27.98000 7.089
28.00000 5.188
28.02000 3.928
28.04000 2.338
28.06000 -1.164
28.08000 2.949
28.10000 1.190
28.12000 0.535
28.14000 2.305
28.16000 4.670
28.18000 2.627
28.20000 2.314
28.22000 1.234
28.24000 -1.442
28.26000 0.610
28.28000 -0.307
28.30000 1.653
28.32000 1.372
28.34000 -1.967
28.36000 -2.488
28.38000 1.734
28.40000 2.897
28.42000 2.397
28.44000 4.792
28.46000 2.162
28.48000 1.886
28.50000 -3.482
28.52000 -1.964
28.54000 0.498
28.56000 -2.552
28.58000 -3.764
28.60000 -1.544
28.62000 2.410
28.64000 5.732
28.66000 1.666
28.68000 2.495
28.70000 0.542
28.72000 0.523
28.74000 -0.442
28.76000 -3.653
28.78000 -3.180
28.80000 -2.012
28.82000 0.462
28.84000 6.214
28.86000 4.193
28.88000 7.602
28.90000 8.385
28.92000 3.943
28.94000 1.778
28.96000 -3.735
28.98000 -0.339
29.00000 1.581
29.02000 -1.783
29.04000 -2.774
29.06000 -0.796
29.08000 -3.658
29.10000 -1.483
29.12000 8.908
29.14000 5.295
29.16000 1.108
29.18000 1.753
29.20000 -0.043
29.22000 -1.171
29.24000 -0.725
29.26000 -2.853
29.28000 -3.731
29.30000 0.572
29.32000 3.079
29.34000 6.120
29.36000 2.341
29.38000 -1.899
29.40000 -1.254
29.42000 1.368
29.44000 1.960
29.46000 7.296
29.48000 4.480
29.50000 -1.509
29.52000 -2.677
29.54000 -0.632
29.56000 4.168
29.58000 0.900
29.60000 0.729
29.62000 2.932
29.64000 4.678
29.66000 7.224
29.68000 2.846
29.70000 -0.202
29.72000 3.969
29.74000 8.263
29.76000 3.888
29.78000 1.082
29.80000 6.042
29.82000 4.448
29.84000 1.195
29.86000 0.319
29.88000 -0.978
29.90000 3.186
29.92000 5.273
29.94000 5.231
29.96000 1.384
29.98000 2.260
30.00000 1.401
30.02000 4.652
30.04000 6.035
30.06000 5.054
30.08000 2.541
30.10000 4.205
30.12000 3.025
30.14000 2.939
30.16000 4.031
30.18000 5.326
30.20000 4.919
30.22000 6.044
30.24000 4.108
30.26000 0.183
30.28000 3.830
30.30000 4.655
30.32000 4.422
30.34000 6.343
30.36000 3.904
30.38000 0.815
30.40000 3.116
30.42000 9.003
30.44000 5.336
30.46000 -1.834
30.48000 2.390
30.50000 2.785
30.52000 2.535
30.54000 2.527
30.56000 1.273
30.58000 2.616
30.60000 4.471
30.62000 4.490
30.64000 0.267
30.66000 -3.613
30.68000 -0.925
30.70000 3.160
30.72000 7.700
30.74000 8.120
30.76000 10.726
30.78000 6.524
30.80000 2.768
30.82000 1.140
30.84000 0.923
30.86000 3.732
30.88000 5.786
30.90000 0.903
30.92000 4.738
30.94000 9.613
30.96000 9.187
30.98000 5.899
31.00000 2.648
31.02000 0.619
31.04000 3.935
31.06000 3.572
31.08000 0.895
31.10000 1.289
31.12000 1.888
31.14000 -1.686
31.16000 -3.608
31.18000 0.787
31.20000 7.115
31.22000 4.542
31.24000 2.517
31.26000 6.899
31.28000 7.629
31.30000 0.452
31.32000 0.319
31.34000 3.148
31.36000 5.910
31.38000 2.109
31.40000 -0.699
31.42000 -1.882
31.44000 -1.046
31.46000 2.533
31.48000 4.518
31.50000 5.864
31.52000 3.995
31.54000 1.182
31.56000 3.136
31.58000 4.225
31.60000 7.226
31.62000 6.485
31.64000 -0.666
31.66000 2.675
31.68000 0.652
31.70000 3.974
31.72000 5.945
31.74000 -1.806
31.76000 -1.118
31.78000 3.799
31.80000 1.292
31.82000 -2.514
31.84000 -0.122
31.86000 -0.689
31.88000 7.231
31.90000 9.527
31.92000 5.777
31.94000 4.089
31.96000 0.431
31.98000 -0.352
32.00000 2.630
32.02000 1.569
32.04000 -0.542
32.06000 4.055
32.08000 3.269
32.10000 0.327
32.12000 -1.147
32.14000 0.423
32.16000 1.483
32.18000 -0.755
32.20000 -1.796
32.22000 -0.557
32.24000 -0.323
32.26000 -1.079
32.28000 -0.405
32.30000 2.290
32.32000 -1.697
32.34000 -1.646
32.36000 2.563
32.38000 2.220
32.40000 -0.822
32.42000 1.670
32.44000 1.645
32.46000 1.124
32.48000 -1.611
32.50000 1.176
32.52000 0.673
32.54000 4.904
32.56000 6.346
32.58000 1.988
32.60000 4.877
32.62000 6.174
32.64000 4.988
32.66000 2.886
32.68000 -1.943
32.70000 1.689
32.72000 4.823
32.74000 2.458
32.76000 3.346
32.78000 7.277
32.80000 6.701
32.82000 3.180
32.84000 0.269
32.86000 1.055
32.88000 5.833
32.90000 3.268
32.92000 2.997
32.94000 -3.543
32.96000 1.831
32.98000 2.664
33.00000 5.277
33.02000 2.427
33.04000 7.232
33.06000 9.455
33.08000 8.946
33.10000 3.031
33.12000 8.923
33.14000 6.316
33.16000 -0.089
33.18000 2.282
33.20000 2.808
33.22000 4.302
33.24000 7.433
33.26000 7.345
33.28000 6.006
33.30000 5.008
33.32000 7.838
33.34000 7.965
33.36000 3.707
33.38000 3.052
33.40000 3.059
33.42000 3.267
33.44000 2.768
33.46000 7.399
33.48000 10.214
33.50000 11.364
33.52000 3.016
33.54000 0.183
33.56000 4.747
33.58000 4.677
33.60000 7.617
33.62000 4.200
33.64000 5.286
33.66000 3.013
33.68000 7.400
33.70000 6.060
33.72000 8.343
33.74000 4.544
33.76000 2.563
33.78000 2.138
33.80000 2.105
33.82000 7.792
33.84000 6.117
33.86000 -1.087
33.88000 2.595
33.90000 5.631
33.92000 5.337
33.94000 2.591
33.96000 0.759
33.98000 4.410
34.00000 -1.387
34.02000 -0.249
34.04000 3.899
34.06000 -0.017
34.08000 -0.105
34.10000 1.743
34.12000 6.482
34.14000 6.377
34.16000 6.606
34.18000 2.256
34.20000 -1.161
34.22000 6.304
34.24000 10.045
34.26000 11.483
34.28000 6.709
34.30000 -1.502
34.32000 -1.883
34.34000 2.031
34.36000 0.988
34.38000 0.492
34.40000 7.251
34.42000 5.371
34.44000 1.570
34.46000 4.977
34.48000 6.745
34.50000 6.059
34.52000 2.248
34.54000 6.091
34.56000 5.768
34.58000 5.243
34.60000 2.906
34.62000 5.446
34.64000 3.313
34.66000 0.748
34.68000 5.084
34.70000 2.464
34.72000 -0.043
34.74000 5.305
34.76000 7.306
34.78000 6.514
34.80000 5.180
34.82000 4.149
34.84000 2.192
34.86000 1.724
34.88000 2.259
34.90000 7.887
34.92000 8.795
34.94000 8.206
34.96000 5.703
34.98000 5.729
35.00000 7.562
35.02000 10.296
35.04000 3.685
35.06000 5.801
35.08000 4.057
35.10000 7.843
35.12000 8.972
35.14000 11.250
35.16000 7.972
35.18000 4.267
35.20000 4.184
35.22000 4.862
35.24000 9.356
35.26000 8.250
35.28000 9.259
35.30000 1.252
35.32000 -3.264
35.34000 3.354
35.36000 2.240
35.38000 -3.457
35.40000 2.777
35.42000 2.804
35.44000 4.992
35.46000 11.186
35.48000 8.368
35.50000 6.001
35.52000 9.210
35.54000 9.301
35.56000 6.418
35.58000 7.189
35.60000 3.063
35.62000 2.109
35.64000 7.531
35.66000 6.782
35.68000 6.211
35.70000 5.192
35.72000 4.456
35.74000 6.500
35.76000 8.343
35.78000 12.793
35.80000 14.081
35.82000 3.943
35.84000 7.007
35.86000 8.166
35.88000 5.883
35.90000 -3.494
35.92000 0.254
35.94000 1.551
35.96000 2.801
35.98000 7.822
36.00000 1.745
36.02000 2.762
36.04000 9.519
36.06000 4.478
36.08000 5.014
36.10000 5.520
36.12000 6.196
36.14000 -0.066
36.16000 4.506
36.18000 5.633
36.20000 6.104
36.22000 1.756
36.24000 -0.273
36.26000 0.071
36.28000 0.224
36.30000 7.616
36.32000 5.029
36.34000 3.569
36.36000 1.917
36.38000 3.881
36.40000 1.500
36.42000 -0.009
36.44000 1.042
36.46000 2.847
36.48000 4.583
36.50000 0.974
36.52000 -0.587
36.54000 -0.485
36.56000 4.849
36.58000 6.629
36.60000 3.466
36.62000 1.471
36.64000 0.087
36.66000 4.643
36.68000 4.686
36.70000 0.650
36.72000 3.254
36.74000 3.917
36.76000 3.696
36.78000 0.500
36.80000 3.206
36.82000 2.883
36.84000 1.078
36.86000 4.123
36.88000 5.134
36.90000 4.540
36.92000 1.702
36.94000 -1.366
36.96000 -0.276
36.98000 0.722
37.00000 0.186
37.02000 2.450
37.04000 1.924
37.06000 2.416
37.08000 0.631
37.10000 7.053
37.12000 1.400
37.14000 1.769
37.16000 5.690
37.18000 1.559
37.20000 1.154
37.22000 4.018
37.24000 4.798
37.26000 -0.109
37.28000 -2.450
37.30000 5.542
37.32000 5.117
37.34000 1.301
37.36000 -3.588
37.38000 -3.436
37.40000 2.108
37.42000 4.631
37.44000 3.465
37.46000 3.648
37.48000 3.179
37.50000 2.458
37.52000 5.420
37.54000 6.320
37.56000 2.997
37.58000 3.557
37.60000 5.815
37.62000 5.811
37.64000 4.544
37.66000 6.174
37.68000 11.198
37.70000 13.138
37.72000 4.121
37.74000 4.232
37.76000 4.890
37.78000 5.442
37.80000 6.379
37.82000 4.055
37.84000 4.645
37.86000 4.659
37.88000 11.536
37.90000 11.530
37.92000 11.643
37.94000 13.706
37.96000 7.763
37.98000 11.350
38.00000 11.205
38.02000 14.273
38.04000 14.186
38.06000 11.572
38.08000 11.591
38.10000 16.858
38.12000 16.504
38.14000 16.487
38.16000 20.696
38.18000 20.849
38.20000 16.519
38.22000 15.001
38.24000 15.820
38.26000 17.754
38.28000 22.522
38.30000 22.978
38.32000 16.459
38.34000 14.017
38.36000 17.860
38.38000 21.235
38.40000 23.966
38.42000 27.895
38.44000 28.888
38.46000 27.814
38.48000 26.254
38.50000 32.350
38.52000 33.430
38.54000 29.901
38.56000 28.867
38.58000 31.290
38.60000 32.764
38.62000 29.420
38.64000 29.624
38.66000 30.120
38.68000 32.820
38.70000 37.240
38.72000 39.844
38.74000 42.662
38.76000 42.441
38.78000 41.646
38.80000 43.873
38.82000 44.210
38.84000 51.477
38.86000 51.362
38.88000 55.097
38.90000 56.142
38.92000 60.321
38.94000 59.561
38.96000 59.036
38.98000 63.371
39.00000 64.260
39.02000 66.921
39.04000 70.241
39.06000 75.721
39.08000 81.157
39.10000 84.938
39.12000 84.349
39.14000 90.433
39.16000 91.371
39.18000 93.388
39.20000 94.871
39.22000 103.107
39.24000 112.369
39.26000 111.463
39.28000 113.663
39.30000 117.509
39.32000 125.101
39.34000 132.402
39.36000 139.476
39.38000 150.228
39.40000 159.304
39.42000 162.251
39.44000 170.134
39.46000 180.896
39.48000 195.401
39.50000 200.325
39.52000 205.340
39.54000 219.316
39.56000 235.387
39.58000 244.472
39.60000 256.491
39.62000 272.688
39.64000 284.923
39.66000 306.808
39.68000 316.722
39.70000 332.353
39.72000 356.663
39.74000 373.944
39.76000 390.990
39.78000 414.372
39.80000 437.781
39.82000 460.776
39.84000 488.626
39.86000 520.591
39.88000 539.664
39.90000 555.977
39.92000 585.447
39.94000 613.358
39.96000 635.910
39.98000 666.302
40.00000 695.813
40.02000 716.075
40.04000 738.606
40.06000 758.902
40.08000 786.868
40.10000 798.752
40.12000 815.525
40.14000 832.402
40.16000 836.789
40.18000 832.726
40.20000 836.878
40.22000 846.629
40.24000 853.370
40.26000 845.531
40.28000 837.074
40.30000 824.761
40.32000 820.845
40.34000 791.821
40.36000 784.837
40.38000 778.601
40.40000 759.282
40.42000 726.237
40.44000 711.716
40.46000 699.126
40.48000 674.151
40.50000 637.165
40.52000 612.052
40.54000 599.888
40.56000 563.407
40.58000 546.992
40.60000 526.053
40.62000 497.301
40.64000 476.589
40.66000 458.734
40.68000 430.136
40.70000 396.922
40.72000 378.315
40.74000 357.533
40.76000 346.186
40.78000 332.399
40.80000 308.613
40.82000 296.551
40.84000 281.933
40.86000 261.938
40.88000 243.879
40.90000 234.662
40.92000 221.311
40.94000 200.267
40.96000 193.633
40.98000 170.365
41.00000 170.912
41.02000 166.696
41.04000 160.035
41.06000 142.551
41.08000 134.624
41.10000 128.988
41.12000 125.733
41.14000 118.838
41.16000 105.738
41.18000 98.090
41.20000 103.265
41.22000 96.556
41.24000 86.127
41.26000 76.757
41.28000 78.716
41.30000 72.519
41.32000 67.865
41.34000 65.406
41.36000 63.429
41.38000 55.807
41.40000 52.600
41.42000 51.961
41.44000 50.629
41.46000 54.045
41.48000 50.824
41.50000 39.339
41.52000 38.663
41.54000 38.926
41.56000 37.177
41.58000 37.753
41.60000 35.667
41.62000 35.485
41.64000 32.456
41.66000 31.799
41.68000 28.719
41.70000 27.280
41.72000 24.236
41.74000 25.374
41.76000 25.814
41.78000 28.315
41.80000 26.216
41.82000 24.394
41.84000 25.740
41.86000 19.444
41.88000 9.570
41.90000 9.724
41.92000 12.520
41.94000 13.540
41.96000 12.750
41.98000 8.483
42.00000 9.616
42.02000 12.084
42.04000 9.529
42.06000 7.704
42.08000 10.134
42.10000 9.864
42.12000 11.122
42.14000 6.536
42.16000 2.714
42.18000 3.334
42.20000 4.622
42.22000 2.703
42.24000 7.083
42.26000 6.795
42.28000 4.970
42.30000 5.442
42.32000 3.454
42.34000 -2.193
42.36000 1.354
42.38000 3.844
42.40000 6.814
42.42000 7.680
42.44000 3.728
42.46000 2.095
42.48000 2.272
42.50000 -0.958
42.52000 -2.959
42.54000 -0.733
42.56000 2.248
42.58000 2.595
42.60000 1.407
42.62000 -1.991
42.64000 -1.104
42.66000 -1.112
42.68000 -0.758
42.70000 -0.061
42.72000 1.499
42.74000 2.983
42.76000 -0.312
42.78000 0.144
42.80000 0.085
42.82000 0.108
42.84000 0.691
42.86000 -3.404
42.88000 0.016
42.90000 -1.248
42.92000 -0.170
42.94000 -0.351
42.96000 2.072
42.98000 -2.244
43.00000 -0.460
43.02000 -1.804
43.04000 1.559
43.06000 1.302
43.08000 1.997
43.10000 1.065
43.12000 -0.498
43.14000 -2.035
43.16000 -2.397
43.18000 -2.782
43.20000 -3.441
43.22000 -1.110
43.24000 1.327
43.26000 -2.077
43.28000 -0.216
43.30000 0.598
43.32000 1.615
43.34000 0.578
43.36000 0.088
43.38000 0.970
43.40000 -1.404
43.42000 -0.070
43.44000 3.526
43.46000 2.951
43.48000 5.868
43.50000 6.365
43.52000 6.948
43.54000 3.197
43.56000 -3.372
43.58000 -3.371
43.60000 -3.370
43.62000 -0.887
43.64000 1.676
43.66000 4.061
43.68000 4.791
43.70000 4.379
43.72000 7.703
43.74000 4.263
43.76000 2.005
43.78000 1.069
43.80000 -2.335
43.82000 -2.062
43.84000 1.582
43.86000 4.842
43.88000 4.255
43.90000 0.081
43.92000 2.554
43.94000 1.225
43.96000 -0.448
43.98000 3.554
44.00000 2.186
44.02000 0.048
44.04000 0.243
44.06000 1.502
44.08000 4.356
44.10000 4.615
44.12000 3.778
44.14000 2.987
44.16000 0.456
44.18000 1.116
44.20000 -0.404
44.22000 -2.115
44.24000 -0.030
44.26000 2.456
44.28000 1.385
44.30000 0.922
44.32000 1.895
44.34000 -0.843
44.36000 -0.003
44.38000 0.478
44.40000 -2.372
44.42000 0.285
44.44000 -1.758
44.46000 -1.812
44.48000 -1.862
44.50000 -3.316
44.52000 1.993
44.54000 3.646
44.56000 -0.122
44.58000 3.194
44.60000 7.250
44.62000 5.424
44.64000 2.938
44.66000 2.836
44.68000 6.981
44.70000 7.693
44.72000 7.323
44.74000 5.989
44.76000 4.844
44.78000 3.663
44.80000 7.638
44.82000 6.005
44.84000 2.523
44.86000 -1.106
44.88000 -1.129
44.90000 4.760
44.92000 6.625
44.94000 7.554
44.96000 5.344
44.98000 1.840
45.00000 0.774
45.02000 5.169
45.04000 6.424
45.06000 -0.658
45.08000 -1.786
45.10000 1.005
45.12000 3.067
45.14000 7.966
45.16000 9.484
45.18000 10.260
45.20000 9.520
45.22000 9.827
45.24000 13.948
45.26000 18.535
45.28000 14.005
45.30000 14.649
45.32000 14.619
45.34000 9.806
45.36000 12.799
45.38000 12.878
45.40000 10.611
45.42000 12.366
45.44000 16.063
45.46000 14.380
45.48000 13.484
45.50000 17.289
45.52000 19.057
45.54000 17.794
45.56000 20.530
45.58000 19.686
45.60000 18.873
45.62000 22.658
45.64000 25.009
45.66000 22.365
45.68000 22.361
45.70000 22.799
45.72000 27.471
45.74000 25.732
45.76000 24.752
45.78000 24.760
45.80000 28.071
45.82000 31.463
45.84000 35.854
45.86000 39.705
45.88000 38.556
45.90000 44.331
45.92000 47.402
45.94000 45.962
45.96000 43.138
45.98000 49.060
46.00000 44.917
46.02000 48.097
46.04000 52.244
46.06000 57.191
46.08000 57.089
46.10000 56.234
46.12000 61.381
46.14000 60.388
46.16000 63.363
46.18000 69.888
46.20000 72.782
46.22000 74.885
46.24000 78.695
46.26000 79.509
46.28000 81.107
46.30000 83.158
46.32000 89.256
46.34000 91.234
46.36000 90.636
46.38000 93.909
46.40000 100.679
46.42000 106.757
46.44000 105.405
46.46000 109.317
46.48000 111.519
46.50000 111.159
46.52000 115.348
46.54000 119.402
46.56000 124.339
46.58000 125.180
46.60000 132.573
46.62000 129.396
46.64000 130.286
46.66000 131.257
46.68000 144.006
46.70000 147.042
46.72000 150.300
46.74000 149.157
46.76000 144.365
46.78000 149.992
46.80000 158.881
46.82000 163.096
46.84000 159.377
46.86000 156.141
46.88000 155.651
46.90000 158.533
46.92000 157.089
46.94000 152.427
46.96000 150.200
46.98000 149.326
47.00000 146.058
47.02000 149.613
47.04000 148.539
47.06000 144.449
47.08000 140.224
47.10000 133.714
47.12000 130.909
47.14000 132.590
47.16000 137.950
47.18000 130.020
47.20000 122.706
47.22000 116.033
47.24000 112.612
47.26000 103.520
47.28000 95.724
47.30000 97.127
47.32000 103.147
47.34000 91.151
47.36000 84.258
47.38000 81.315
47.40000 79.643
47.42000 79.952
47.44000 77.136
47.46000 65.268
47.48000 60.088
47.50000 57.625
47.52000 54.826
47.54000 55.500
47.56000 50.936
47.58000 55.330
47.60000 47.757
47.62000 40.432
47.64000 33.315
47.66000 35.602
47.68000 35.873
47.70000 31.779
47.72000 33.979
47.74000 33.503
47.76000 31.990
47.78000 33.838
47.80000 29.885
47.82000 25.194
47.84000 25.380
47.86000 28.464
47.88000 22.449
47.90000 21.562
47.92000 26.155
47.94000 16.751
47.96000 12.985
47.98000 10.625
48.00000 16.205
48.02000 16.534
48.04000 9.296
48.06000 9.057
48.08000 8.437
48.10000 8.374
48.12000 7.523
48.14000 5.010
48.16000 6.403
48.18000 6.256
48.20000 -1.234
48.22000 -1.839
48.24000 2.681
48.26000 7.529
48.28000 9.426
48.30000 5.267
48.32000 2.339
48.34000 -1.451
48.36000 -2.499
48.38000 0.421
48.40000 3.281
48.42000 6.345
48.44000 4.582
48.46000 4.524
48.48000 5.105
48.50000 5.716
48.52000 7.349
48.54000 1.213
48.56000 -1.857
48.58000 1.023
48.60000 2.660
48.62000 2.642
48.64000 5.890
48.66000 5.680
48.68000 1.073
48.70000 -0.512
48.72000 -2.918
48.74000 -0.649
48.76000 -1.295
48.78000 -0.032
48.80000 -1.175
48.82000 0.670
48.84000 4.393
48.86000 4.505
48.88000 1.287
48.90000 -1.090
48.92000 -2.334
48.94000 -1.727
48.96000 -2.713
48.98000 0.096
49.00000 0.256
49.02000 2.323
49.04000 0.128
49.06000 -2.155
49.08000 1.785
49.10000 3.475
49.12000 2.651
49.14000 0.819
49.16000 1.484
49.18000 1.646
49.20000 3.944
49.22000 5.496
49.24000 5.234
49.26000 0.021
49.28000 -2.840
49.30000 0.516
49.32000 -0.341
49.34000 0.180
49.36000 -0.872
49.38000 0.701
49.40000 0.703
49.42000 1.905
49.44000 2.625
49.46000 0.673
49.48000 0.874
49.50000 3.423
49.52000 7.733
49.54000 5.631
49.56000 6.876
49.58000 4.562
49.60000 -1.717
49.62000 -2.786
49.64000 2.388
49.66000 2.304
49.68000 5.196
49.70000 6.710
49.72000 6.973
49.74000 2.244
49.76000 1.096
49.78000 4.930
49.80000 2.245
49.82000 2.919
49.84000 5.438
49.86000 3.339
49.88000 6.952
49.90000 2.448
49.92000 0.818
49.94000 0.865
49.96000 1.138
49.98000 2.034
50.00000 1.088
50.02000 5.921
50.04000 4.926
50.06000 4.863
50.08000 0.940
50.10000 -1.683
50.12000 0.747
50.14000 2.201
50.16000 3.159
50.18000 1.049
50.20000 3.926
50.22000 4.782
50.24000 1.394
50.26000 -0.110
50.28000 2.984
50.30000 4.311
50.32000 2.366
50.34000 -0.290
50.36000 4.948
50.38000 4.645
50.40000 2.283
50.42000 -0.325
50.44000 0.382
50.46000 0.901
50.48000 2.999
50.50000 3.917
50.52000 4.562
50.54000 2.199
50.56000 1.076
50.58000 0.068
50.60000 3.614
50.62000 -2.069
50.64000 -2.089
50.66000 0.957
50.68000 2.363
50.70000 1.682
50.72000 3.437
50.74000 4.034
50.76000 3.382
50.78000 2.021
50.80000 4.277
50.82000 3.900
50.84000 0.411
50.86000 6.132
50.88000 4.536
50.90000 1.422
50.92000 4.828
50.94000 5.864
50.96000 7.050
50.98000 5.799
51.00000 2.341
51.02000 4.988
51.04000 4.206
51.06000 5.426
51.08000 5.491
51.10000 1.668
51.12000 2.319
51.14000 3.887
51.16000 8.347
51.18000 7.317
51.20000 -0.842
51.22000 -2.629
51.24000 0.736
51.26000 3.127
51.28000 5.141
51.30000 2.985
51.32000 1.244
51.34000 2.526
51.36000 2.978
51.38000 3.665
51.40000 2.289
51.42000 4.076
51.44000 3.912
51.46000 4.457
51.48000 6.400
51.50000 7.542
51.52000 7.882
51.54000 7.510
51.56000 9.594
51.58000 6.565
51.60000 7.074
51.62000 8.136
51.64000 7.749
51.66000 2.729
51.68000 1.054
51.70000 4.485
51.72000 3.380
51.74000 4.268
51.76000 3.293
51.78000 -2.641
51.80000 -1.315
51.82000 7.184
51.84000 4.219
51.86000 1.383
51.88000 0.644
51.90000 1.684
51.92000 3.393
51.94000 5.293
51.96000 6.380
51.98000 3.247
52.00000 -0.876
52.02000 1.159
52.04000 0.699
52.06000 3.556
52.08000 2.185
52.10000 1.872
52.12000 0.751
52.14000 -2.018
52.16000 3.735
52.18000 4.985
52.20000 2.128
52.22000 5.469
52.24000 6.171
52.26000 0.908
52.28000 3.379
52.30000 2.799
52.32000 6.357
52.34000 1.725
52.36000 0.294
52.38000 3.820
52.40000 3.291
52.42000 5.287
52.44000 4.050
52.46000 4.603
52.48000 0.902
52.50000 2.353
52.52000 2.498
52.54000 -1.573
52.56000 1.952
52.58000 1.806
52.60000 -1.615
52.62000 -2.616
52.64000 1.021
52.66000 3.291
52.68000 4.514
52.70000 4.842
52.72000 1.578
52.74000 0.967
52.76000 0.904
52.78000 3.265
52.80000 0.491
52.82000 3.558
52.84000 3.242
52.86000 2.667
52.88000 2.471
52.90000 4.355
52.92000 4.406
52.94000 4.517
52.96000 5.595
52.98000 4.088
53.00000 4.089
53.02000 0.227
53.04000 3.301
53.06000 3.754
53.08000 3.707
53.10000 -0.780
53.12000 1.819
53.14000 1.770
53.16000 6.919
53.18000 2.949
53.20000 -0.156
53.22000 6.047
53.24000 4.443
53.26000 2.393
53.28000 3.110
53.30000 3.752
53.32000 3.340
53.34000 8.086
53.36000 5.280
53.38000 2.887
53.40000 5.789
53.42000 2.195
53.44000 -2.546
53.46000 4.274
53.48000 6.250
53.50000 9.477
53.52000 7.270
53.54000 5.466
53.56000 3.496
53.58000 4.471
53.60000 6.521
53.62000 1.942
53.64000 -0.220
53.66000 -0.409
53.68000 0.796
53.70000 2.825
53.72000 4.025
53.74000 5.688
53.76000 6.057
53.78000 3.570
53.80000 3.069
53.82000 2.673
53.84000 4.288
53.86000 3.536
53.88000 3.048
53.90000 1.267
53.92000 1.331
53.94000 5.046
53.96000 6.228
53.98000 4.140
54.00000 1.698
54.02000 4.056
54.04000 3.556
54.06000 -0.527
54.08000 3.069
54.10000 2.194
54.12000 2.073
54.14000 3.551
54.16000 2.809
54.18000 1.634
54.20000 3.848
54.22000 7.199
54.24000 5.538
54.26000 5.008
54.28000 7.515
54.30000 7.148
54.32000 4.626
54.34000 1.939
54.36000 -1.084
54.38000 -0.588
54.40000 0.506
54.42000 1.949
54.44000 1.510
54.46000 3.659
54.48000 3.359
54.50000 2.039
54.52000 4.039
54.54000 5.479
54.56000 3.620
54.58000 2.219
54.60000 1.918
54.62000 3.628
54.64000 3.685
54.66000 2.964
54.68000 3.109
54.70000 2.254
54.72000 4.657
54.74000 5.468
54.76000 3.821
54.78000 3.253
54.80000 0.055
54.82000 0.694
54.84000 6.351
54.86000 8.544
54.88000 2.379
54.90000 1.504
54.92000 5.807
54.94000 5.589
54.96000 4.553
54.98000 4.532
55.00000 6.077
55.02000 4.597
55.04000 6.099
55.06000 9.241
55.08000 7.422
55.10000 5.814
55.12000 3.716
55.14000 7.202
55.16000 6.986
55.18000 3.293
55.20000 0.367
55.22000 4.487
55.24000 3.428
55.26000 1.881
55.28000 0.986
55.30000 6.894
55.32000 5.704
55.34000 3.538
55.36000 4.882
55.38000 3.425
55.40000 3.924
55.42000 1.118
55.44000 -2.493
55.46000 4.730
55.48000 3.294
55.50000 1.241
55.52000 4.533
55.54000 3.290
55.56000 3.457
55.58000 -1.844
55.60000 4.365
55.62000 3.012
55.64000 6.145
55.66000 5.845
55.68000 3.196
55.70000 1.853
55.72000 2.768
55.74000 7.541
55.76000 5.166
55.78000 1.950
55.80000 0.456
55.82000 3.495
55.84000 4.269
55.86000 2.173
55.88000 3.493
55.90000 3.503
55.92000 5.849
55.94000 3.320
55.96000 1.434
55.98000 4.616
56.00000 5.222
56.02000 5.430
56.04000 -0.125
56.06000 2.082
56.08000 1.743
56.10000 0.249
56.12000 1.858
56.14000 2.732
56.16000 1.875
56.18000 1.338
56.20000 3.550
56.22000 5.505
56.24000 4.437
56.26000 2.217
56.28000 2.722
56.30000 4.199
56.32000 8.569
56.34000 8.645
56.36000 3.807
56.38000 5.148
56.40000 2.722
56.42000 3.220
56.44000 5.100
56.46000 0.748
56.48000 1.865
56.50000 2.858
56.52000 1.013
56.54000 -0.104
56.56000 -2.498
56.58000 -0.676
56.60000 0.693
56.62000 0.430
56.64000 2.252
56.66000 2.586
56.68000 3.557
56.70000 5.991
56.72000 4.498
56.74000 1.703
56.76000 1.702
56.78000 1.553
56.80000 3.088
56.82000 3.623
56.84000 3.161
56.86000 4.282
56.88000 1.182
56.90000 3.842
56.92000 4.770
56.94000 1.517
56.96000 6.197
56.98000 2.807
57.00000 -0.896
57.02000 2.335
57.04000 0.961
57.06000 -0.238
57.08000 0.513
57.10000 3.211
57.12000 -0.790
57.14000 2.768
57.16000 2.724
57.18000 8.175
57.20000 3.065
57.22000 0.336
57.24000 7.527
57.26000 7.811
57.28000 5.855
57.30000 7.544
57.32000 4.415
57.34000 2.024
57.36000 1.162
57.38000 1.168
57.40000 -2.478
57.42000 1.061
57.44000 2.466
57.46000 2.047
57.48000 3.253
57.50000 2.059
57.52000 0.948
57.54000 1.017
57.56000 0.787
57.58000 0.528
57.60000 -1.118
57.62000 0.068
57.64000 1.345
57.66000 5.197
57.68000 1.324
57.70000 -2.482
57.72000 -1.697
57.74000 -1.669
57.76000 0.203
57.78000 3.656
57.80000 1.824
57.82000 -2.199
57.84000 2.733
57.86000 3.088
57.88000 1.432
57.90000 -0.810
57.92000 -1.923
57.94000 -1.042
57.96000 1.849
57.98000 2.236
58.00000 -1.945
58.02000 -0.732
58.04000 0.474
58.06000 -0.942
58.08000 3.146
58.10000 3.108
58.12000 -0.755
58.14000 -2.405
58.16000 -1.359
58.18000 -0.713
58.20000 -2.096
58.22000 -1.733
58.24000 -0.985
58.26000 1.018
58.28000 0.427
58.30000 2.340
58.32000 2.858
58.34000 -1.612
58.36000 0.801
58.38000 -0.169
58.40000 -0.954
58.42000 -1.843
58.44000 0.595
58.46000 3.015
58.48000 2.006
58.50000 1.249
58.52000 0.789
58.54000 0.711
58.56000 4.433
58.58000 4.707
58.60000 -1.737
58.62000 -1.668
58.64000 -0.613
58.66000 -2.064
58.68000 0.130
58.70000 4.331
58.72000 2.082
58.74000 1.608
58.76000 -0.905
58.78000 3.572
58.80000 3.530
58.82000 -0.930
58.84000 0.122
58.86000 0.076
58.88000 1.374
58.90000 1.795
58.92000 -1.296
58.94000 -2.468
58.96000 -1.197
58.98000 -0.215
59.00000 -1.384
59.02000 3.801
59.04000 1.274
59.06000 3.057
59.08000 1.712
59.10000 3.962
59.12000 5.383
59.14000 4.181
59.16000 4.010
59.18000 0.612
59.20000 -0.202
59.22000 -1.034
59.24000 1.649
59.26000 -1.174
59.28000 -1.758
59.30000 -2.302
59.32000 -1.108
59.34000 -0.885
59.36000 -1.275
59.38000 -2.447
59.40000 -0.114
59.42000 2.938
59.44000 1.143
59.46000 -0.649
59.48000 0.687
59.50000 2.110
59.52000 1.084
59.54000 1.661
59.56000 -0.346
59.58000 0.573
59.60000 0.563
59.62000 -1.126
59.64000 1.797
59.66000 -2.042
59.68000 -0.080
59.70000 1.110
59.72000 -0.545
59.74000 0.750
59.76000 2.159
59.78000 2.741
59.80000 -0.277
59.82000 -1.015
59.84000 -2.430
59.86000 -0.805
59.88000 -1.196
59.90000 -0.207
59.92000 2.210
59.94000 1.494
59.96000 2.821
59.98000 0.449
60.00000 -0.945
60.02000 -0.580
60.04000 1.799
60.06000 4.013
60.08000 2.352
60.10000 -0.413
60.12000 2.567
60.14000 4.523
60.16000 3.691
60.18000 -0.094
60.20000 0.291
60.22000 -0.432
60.24000 3.112
60.26000 1.656
60.28000 -0.918
60.30000 -2.419
60.32000 1.762
60.34000 2.944
60.36000 1.253
60.38000 0.713
60.40000 -0.339
60.42000 2.092
60.44000 2.324
60.46000 -0.661
60.48000 1.212
60.50000 3.714
60.52000 4.140
60.54000 1.386
60.56000 -0.008
60.58000 0.235
60.60000 2.135
60.62000 1.502
60.64000 0.036
60.66000 3.984
60.68000 4.837
60.70000 1.266
60.72000 0.339
60.74000 2.428
60.76000 2.568
60.78000 3.590
60.80000 4.324
60.82000 4.455
60.84000 4.136
60.86000 1.776
60.88000 1.736
60.90000 0.817
60.92000 2.367
60.94000 -0.454
60.96000 -0.715
60.98000 2.074
61.00000 1.828
61.02000 -0.111
61.04000 -0.222
61.06000 -0.997
61.08000 -2.382
61.10000 2.537
61.12000 -0.191
61.14000 -1.254
61.16000 5.662
61.18000 1.980
61.20000 2.275
61.22000 0.434
61.24000 4.019
61.26000 5.249
61.28000 5.779
61.30000 2.703
61.32000 1.100
61.34000 3.295
61.36000 1.167
61.38000 2.519
61.40000 0.302
61.42000 1.415
61.44000 4.355
61.46000 1.222
61.48000 2.592
61.50000 -0.976
61.52000 -1.572
61.54000 0.603
61.56000 -0.035
61.58000 -1.409
61.60000 -0.112
61.62000 2.344
61.64000 2.835
61.66000 2.305
61.68000 2.976
61.70000 4.849
61.72000 8.414
61.74000 6.282
61.76000 3.584
61.78000 1.793
61.80000 1.100
61.82000 -0.314
61.84000 0.228
61.86000 1.143
61.88000 -1.060
61.90000 0.254
61.92000 3.066
61.94000 4.228
61.96000 4.087
61.98000 2.223
62.00000 3.313
62.02000 7.898
62.04000 2.906
62.06000 3.066
62.08000 4.928
62.10000 3.531
62.12000 4.814
62.14000 5.437
62.16000 6.240
62.18000 3.417
62.20000 3.692
62.22000 0.646
62.24000 1.900
62.26000 2.566
62.28000 3.792
62.30000 2.251
62.32000 3.468
62.34000 3.377
62.36000 4.439
62.38000 2.121
62.40000 -2.303
62.42000 1.899
62.44000 3.575
62.46000 3.660
62.48000 3.250
62.50000 1.368
62.52000 2.237
62.54000 3.049
62.56000 -0.187
62.58000 5.589
62.60000 3.319
62.62000 2.240
62.64000 4.292
62.66000 5.257
62.68000 1.673
62.70000 1.316
62.72000 1.466
62.74000 1.901
62.76000 2.891
62.78000 5.363
62.80000 2.944
62.82000 2.021
62.84000 3.187
62.86000 2.873
62.88000 1.527
62.90000 3.157
62.92000 3.619
62.94000 4.179
62.96000 1.617
62.98000 2.755
63.00000 -0.964
63.02000 0.702
63.04000 0.044
63.06000 -2.057
63.08000 -2.176
63.10000 0.141
63.12000 1.442
63.14000 2.112
63.16000 4.570
63.18000 0.827
63.20000 0.292
63.22000 4.245
63.24000 1.853
63.26000 2.638
63.28000 4.764
63.30000 1.682
63.32000 3.269
63.34000 5.182
63.36000 2.295
63.38000 2.494
63.40000 0.625
63.42000 2.072
63.44000 2.634
63.46000 1.622
63.48000 3.845
63.50000 3.443
63.52000 1.282
63.54000 -1.542
63.56000 0.353
63.58000 2.192
63.60000 3.309
63.62000 1.405
63.64000 3.556
63.66000 2.954
63.68000 1.033
63.70000 -0.190
63.72000 1.773
63.74000 0.397
63.76000 -1.680
63.78000 0.134
63.80000 0.951
63.82000 -0.887
63.84000 0.485
63.86000 3.933
63.88000 0.696
63.90000 -2.358
63.92000 -0.977
63.94000 -2.317
63.96000 0.768
63.98000 1.681
64.00000 1.676
64.02000 2.314
64.04000 7.478
64.06000 5.990
64.08000 2.759
64.10000 0.191
64.12000 0.042
64.14000 3.873
64.16000 3.246
64.18000 5.444
64.20000 4.842
64.22000 2.000
64.24000 -1.036
64.26000 -2.366
64.28000 3.633
64.30000 3.432
64.32000 4.308
64.34000 0.506
64.36000 1.761
64.38000 3.863
64.40000 2.656
64.42000 1.868
64.44000 -0.476
64.46000 -0.641
64.48000 1.647
64.50000 2.655
64.52000 0.583
64.54000 -2.368
64.56000 -0.471
64.58000 -0.107
64.60000 -0.273
64.62000 2.847
64.64000 4.046
64.66000 2.114
64.68000 1.662
64.70000 -0.133
64.72000 -0.858
64.74000 -0.094
64.76000 0.663
64.78000 0.423
64.80000 0.945
64.82000 0.213
64.84000 -2.370
64.86000 -2.184
64.88000 1.429
64.90000 4.602
64.92000 3.042
64.94000 1.718
64.96000 3.230
64.98000 2.036
65.00000 -2.113
65.02000 0.051
65.04000 1.420
65.06000 0.864
65.08000 -0.235
65.10000 2.138
65.12000 -1.627
65.14000 0.426
65.16000 1.374
65.18000 0.062
65.20000 1.156
65.22000 0.910
65.24000 -2.401
65.26000 0.153
65.28000 3.349
65.30000 3.011
65.32000 0.207
65.34000 -1.395
65.36000 0.500
65.38000 -0.764
65.40000 -0.790
65.42000 1.153
65.44000 2.957
65.46000 0.478
65.48000 -0.397
65.50000 2.724
65.52000 3.730
65.54000 1.365
65.56000 -0.820
65.58000 1.277
65.60000 -0.154
65.62000 -1.847
65.64000 0.820
65.66000 0.407
65.68000 0.235
65.70000 -1.275
65.72000 1.372
65.74000 1.170
65.76000 -0.452
65.78000 1.145
65.80000 0.911
65.82000 0.242
65.84000 0.241
65.86000 -0.564
65.88000 0.647
65.90000 -0.088
65.92000 -1.410
65.94000 -0.213
65.96000 0.381
65.98000 -2.429
66.00000 0.786
66.02000 4.233
66.04000 2.683
66.06000 0.859
66.08000 0.133
66.10000 1.830
66.12000 -0.941
66.14000 -2.182
66.16000 -1.105
66.18000 1.034
66.20000 -0.463
66.22000 -2.348
66.24000 -1.140
66.26000 1.920
66.28000 -1.879
66.30000 -1.674
66.32000 -1.171
66.34000 0.754
66.36000 2.957
66.38000 1.417
66.40000 -0.232
66.42000 -1.796
66.44000 -2.428
66.46000 -0.756
66.48000 -0.121
66.50000 -0.138
66.52000 1.479
66.54000 -1.093
66.56000 0.307
66.58000 2.041
66.60000 3.434
66.62000 3.691
66.64000 3.270
66.66000 4.842
66.68000 2.468
66.70000 1.591
66.72000 5.028
66.74000 6.238
66.76000 4.902
66.78000 1.051
66.80000 -1.637
66.82000 1.955
66.84000 4.334
66.86000 2.935
66.88000 2.612
66.90000 1.536
66.92000 3.360
66.94000 3.530
66.96000 0.435
66.98000 1.267
67.00000 1.621
67.02000 2.833
67.04000 2.846
67.06000 3.879
67.08000 3.017
67.10000 0.146
67.12000 -0.085
67.14000 2.053
67.16000 0.783
67.18000 -0.460
67.20000 3.816
67.22000 6.591
67.24000 5.902
67.26000 5.689
67.28000 6.508
67.30000 2.953
67.32000 5.767
67.34000 6.035
67.36000 6.470
67.38000 7.902
67.40000 5.127
67.42000 5.698
67.44000 9.831
67.46000 11.011
67.48000 8.543
67.50000 7.443
67.52000 9.482
67.54000 9.770
67.56000 9.894
67.58000 8.860
67.60000 7.212
67.62000 7.899
67.64000 10.542
67.66000 13.356
67.68000 13.930
67.70000 14.346
67.72000 14.127
67.74000 12.120
67.76000 15.754
67.78000 16.495
67.80000 15.527
67.82000 14.362
67.84000 15.008
67.86000 15.991
67.88000 15.886
67.90000 17.020
67.92000 16.722
67.94000 17.952
67.96000 21.588
67.98000 22.628
68.00000 21.213
68.02000 21.756
68.04000 22.609
68.06000 23.722
68.08000 25.369
68.10000 26.143
68.12000 26.378
68.14000 26.267
68.16000 29.449
68.18000 30.045
68.20000 27.573
68.22000 26.605
68.24000 25.991
68.26000 28.829
68.28000 31.198
68.30000 30.121
68.32000 34.013
68.34000 33.508
68.36000 32.790
68.38000 28.761
68.40000 31.088
68.42000 30.617
68.44000 30.587
68.46000 33.804
68.48000 33.807
68.50000 32.655
68.52000 31.279
68.54000 32.411
68.56000 31.398
68.58000 32.030
68.60000 30.746
68.62000 35.893
68.64000 31.268
68.66000 31.450
68.68000 30.994
68.70000 26.672
68.72000 27.492
68.74000 29.276
68.76000 26.597
68.78000 25.368
68.80000 26.949
68.82000 27.290
68.84000 28.194
68.86000 28.021
68.88000 26.893
68.90000 25.649
68.92000 20.610
68.94000 20.432
68.96000 15.752
68.98000 17.217
69.00000 20.606
69.02000 19.653
69.04000 17.861
69.06000 15.491
69.08000 15.404
69.10000 13.101
69.12000 14.612
69.14000 12.457
69.16000 13.787
69.18000 12.916
69.20000 15.454
69.22000 15.600
69.24000 14.624
69.26000 13.155
69.28000 11.021
69.30000 11.343
69.32000 10.505
69.34000 7.942
69.36000 5.357
69.38000 2.940
69.40000 5.727
69.42000 7.529
69.44000 3.339
69.46000 3.306
69.48000 1.311
69.50000 1.020
69.52000 2.327
69.54000 2.644
69.56000 3.717
69.58000 5.432
69.60000 3.973
69.62000 1.678
69.64000 2.960
69.66000 4.110
69.68000 3.403
69.70000 0.555
69.72000 -2.399
69.74000 1.606
69.76000 1.584
69.78000 1.485
69.80000 3.179
69.82000 1.045
69.84000 -2.384
69.86000 -0.399
69.88000 0.812
69.90000 -0.998
69.92000 -0.533
69.94000 -0.695
69.96000 -1.236
69.98000 -1.678
70.00000 -0.594
70.02000 0.269
70.04000 0.242
70.06000 -2.359
70.08000 -0.180
70.10000 1.891
70.12000 -0.468
70.14000 2.045
70.16000 3.378
70.18000 0.926
70.20000 0.773
70.22000 4.779
70.24000 0.715
70.26000 0.208
70.28000 0.402
70.30000 1.000
70.32000 2.931
70.34000 2.142
70.36000 -1.075
70.38000 3.285
70.40000 3.827
70.42000 5.136
70.44000 2.182
70.46000 0.347
70.48000 3.875
70.50000 3.818
70.52000 2.777
70.54000 1.657
70.56000 1.233
70.58000 1.033
70.60000 -0.105
70.62000 2.298
70.64000 4.017
70.66000 4.582
70.68000 7.454
70.70000 4.887
70.72000 -2.296
70.74000 -1.399
70.76000 2.238
70.78000 0.872
70.80000 0.026
70.82000 2.126
70.84000 3.654
70.86000 2.208
70.88000 1.126
70.90000 2.046
70.92000 2.711
70.94000 1.639
70.96000 2.451
70.98000 1.839
71.00000 2.482
71.02000 0.084
71.04000 1.143
71.06000 1.947
71.08000 -0.834
71.10000 3.754
71.12000 3.781
71.14000 5.041
71.16000 2.877
71.18000 2.050
71.20000 2.173
71.22000 2.674
71.24000 3.639
71.26000 5.952
71.28000 1.954
71.30000 -0.241
71.32000 1.600
71.34000 3.286
71.36000 -0.241
71.38000 -2.244
71.40000 0.621
71.42000 -0.614
71.44000 -0.017
71.46000 1.282
71.48000 1.891
71.50000 2.536
71.52000 5.730
71.54000 3.821
71.56000 3.716
71.58000 1.442
71.60000 1.156
71.62000 1.567
71.64000 1.387
71.66000 3.042
71.68000 4.207
71.70000 2.635
71.72000 2.129
71.74000 1.267
71.76000 0.319
71.78000 0.621
71.80000 1.994
71.82000 0.984
71.84000 -0.079
71.86000 2.791
71.88000 2.474
71.90000 3.108
71.92000 0.313
71.94000 2.341
71.96000 -0.323
71.98000 0.895
72.00000 -0.346
72.02000 4.395
72.04000 2.184
72.06000 1.525
72.08000 1.131
72.10000 3.641
72.12000 0.084
72.14000 5.220
72.16000 7.042
72.18000 2.526
72.20000 2.079
72.22000 0.327
72.24000 2.497
72.26000 3.292
72.28000 1.643
72.30000 2.232
72.32000 0.566
72.34000 3.277
72.36000 2.528
72.38000 4.527
72.40000 3.396
72.42000 6.044
72.44000 5.869
72.46000 5.537
72.48000 5.428
72.50000 1.582
72.52000 1.673
72.54000 3.002
72.56000 3.517
72.58000 6.163
72.60000 5.021
72.62000 2.115
72.64000 0.221
72.66000 1.069
72.68000 1.569
72.70000 2.279
72.72000 6.225
72.74000 5.806
72.76000 7.671
72.78000 5.164
72.80000 1.739
72.82000 -2.130
72.84000 2.350
72.86000 5.944
72.88000 7.566
72.90000 4.702
72.92000 6.224
72.94000 2.398
72.96000 2.457
72.98000 5.324
73.00000 5.803
73.02000 4.701
73.04000 6.745
73.06000 7.601
73.08000 4.357
73.10000 3.758
73.12000 2.413
73.14000 3.182
73.16000 2.444
73.18000 4.021
73.20000 1.943
73.22000 -1.286
73.24000 1.710
73.26000 2.079
73.28000 4.203
73.30000 1.783
73.32000 0.749
73.34000 0.223
73.36000 2.112
73.38000 4.990
73.40000 5.570
73.42000 1.107
73.44000 0.082
73.46000 1.316
73.48000 2.362
73.50000 4.596
73.52000 3.859
73.54000 4.538
73.56000 3.958
73.58000 1.705
73.60000 -0.272
73.62000 0.328
73.64000 1.365
73.66000 1.137
73.68000 2.682
73.70000 0.786
73.72000 -0.650
73.74000 0.199
73.76000 5.920
73.78000 4.928
73.80000 5.717
73.82000 4.723
73.84000 5.058
73.86000 4.696
73.88000 3.515
73.90000 1.195
73.92000 4.409
73.94000 1.003
73.96000 -0.049
73.98000 1.075
74.00000 3.433
74.02000 4.282
74.04000 3.468
74.06000 -0.766
74.08000 0.539
74.10000 0.559
74.12000 5.427
74.14000 6.008
74.16000 3.572
74.18000 1.435
74.20000 6.055
74.22000 4.783
74.24000 3.775
74.26000 -2.185
74.28000 0.341
74.30000 3.215
74.32000 -2.113
74.34000 0.813
74.36000 -1.296
74.38000 -0.337
74.40000 2.610
74.42000 0.780
74.44000 -0.233
74.46000 0.540
74.48000 -0.478
74.50000 0.537
74.52000 -1.509
74.54000 1.794
74.56000 0.141
74.58000 0.218
74.60000 0.406
74.62000 1.247
74.64000 1.180
74.66000 1.524
74.68000 1.828
74.70000 2.839
74.72000 2.731
74.74000 1.251
74.76000 1.767
74.78000 0.261
74.80000 -0.104
74.82000 3.666
74.84000 4.850
74.86000 -0.086
74.88000 -1.442
74.90000 4.709
74.92000 4.484
74.94000 -1.625
74.96000 3.436
74.98000 3.175
75.00000 1.602
75.02000 6.145
75.04000 1.427
75.06000 -1.104
75.08000 -2.193
75.10000 0.245
75.12000 3.698
75.14000 1.113
75.16000 1.833
75.18000 2.993
75.20000 1.379
75.22000 3.152
75.24000 4.785
75.26000 5.066
75.28000 2.794
75.30000 3.350
75.32000 -0.088
75.34000 -1.414
75.36000 -1.034
75.38000 1.401
75.40000 3.164
75.42000 3.740
75.44000 3.340
75.46000 2.199
75.48000 5.994
75.50000 2.845
75.52000 -0.730
75.54000 3.404
75.56000 5.278
75.58000 2.961
75.60000 2.869
75.62000 1.602
75.64000 -1.881
75.66000 -1.742
75.68000 -1.645
75.70000 -2.136
75.72000 0.719
75.74000 -0.799
75.76000 0.735
75.78000 0.170
75.80000 -0.282
75.82000 -2.202
75.84000 -1.497
75.86000 -0.886
75.88000 3.263
75.90000 3.052
75.92000 2.750
75.94000 2.493
75.96000 3.066
75.98000 2.781
76.00000 1.017
76.02000 1.041
76.04000 1.464
76.06000 2.995
76.08000 1.723
76.10000 3.894
76.12000 0.936
76.14000 2.600
76.16000 4.372
76.18000 0.095
76.20000 -0.750
76.22000 2.962
76.24000 4.763
76.26000 2.443
76.28000 0.230
76.30000 1.027
76.32000 1.706
76.34000 4.886
76.36000 3.513
76.38000 6.503
76.40000 2.832
76.42000 -0.023
76.44000 2.507
76.46000 1.778
76.48000 1.587
76.50000 1.045
76.52000 -1.117
76.54000 -0.569
76.56000 1.642
76.58000 2.553
76.60000 4.592
76.62000 7.796
76.64000 7.987
76.66000 7.141
76.68000 2.716
76.70000 -0.106
76.72000 2.983
76.74000 4.110
76.76000 3.275
76.78000 4.778
76.80000 1.531
76.82000 4.224
76.84000 3.327
76.86000 5.798
76.88000 2.547
76.90000 0.754
76.92000 -2.169
76.94000 0.515
76.96000 3.141
76.98000 4.780
77.00000 4.542
77.02000 2.169
77.04000 -0.293
77.06000 0.511
77.08000 5.497
77.10000 6.512
77.12000 5.580
77.14000 3.605
77.16000 2.880
77.18000 1.768
77.20000 6.650
77.22000 5.581
77.24000 2.065
77.26000 -0.536
77.28000 5.228
77.30000 1.935
77.32000 3.351
77.34000 4.428
77.36000 1.812
77.38000 2.370
77.40000 1.762
77.42000 1.620
77.44000 -0.873
77.46000 1.730
77.48000 2.656
77.50000 3.820
77.52000 4.747
77.54000 0.887
77.56000 3.602
77.58000 0.599
77.60000 0.093
77.62000 4.773
77.64000 3.351
77.66000 -0.207
77.68000 0.853
77.70000 3.479
77.72000 4.472
77.74000 5.517
77.76000 1.238
77.78000 1.466
77.80000 2.803
77.82000 3.569
77.84000 2.640
77.86000 1.336
77.88000 1.368
77.90000 1.776
77.92000 -1.531
77.94000 -0.149
77.96000 0.250
77.98000 4.692
78.00000 2.946
78.02000 -0.594
78.04000 1.457
78.06000 1.036
78.08000 0.778
78.10000 0.692
78.12000 2.570
78.14000 4.042
78.16000 1.173
78.18000 2.220
78.20000 2.455
78.22000 1.352
78.24000 -2.210
78.26000 -2.263
78.28000 -1.013
78.30000 -0.115
78.32000 -0.995
78.34000 0.189
78.36000 6.025
78.38000 8.151
78.40000 9.011
78.42000 3.276
78.44000 -0.334
78.46000 -1.516
78.48000 -0.626
78.50000 3.026
78.52000 3.533
78.54000 -1.849
78.56000 -2.088
78.58000 1.806
78.60000 0.235
78.62000 -2.269
78.64000 2.274
78.66000 2.505
78.68000 1.352
78.70000 2.333
78.72000 0.754
78.74000 2.236
78.76000 1.938
78.78000 0.938
78.80000 -0.779
78.82000 1.955
78.84000 -0.397
78.86000 -2.074
78.88000 -0.599
78.90000 0.864
78.92000 5.015
78.94000 7.270
78.96000 5.279
78.98000 2.560
79.00000 -0.075
79.02000 -1.414
79.04000 -0.531
79.06000 1.344
79.08000 6.040
79.10000 2.626
79.12000 0.811
79.14000 1.351
79.16000 4.047
79.18000 4.567
79.20000 3.417
79.22000 1.492
79.24000 0.783
79.26000 -2.156
79.28000 -2.266
79.30000 -0.533
79.32000 0.354
79.34000 4.499
79.36000 2.749
79.38000 -1.252
79.40000 3.213
79.42000 1.995
79.44000 3.592
79.46000 3.757
79.48000 3.023
79.50000 5.402
79.52000 0.035
79.54000 -0.083
79.56000 2.539
79.58000 5.570
79.60000 -1.329
79.62000 1.168
79.64000 -2.146
79.66000 0.682
79.68000 3.197
79.70000 -1.101
79.72000 -0.554
79.74000 2.532
79.76000 -0.055
79.78000 0.622
79.80000 1.349
79.82000 -0.143
79.84000 4.602
79.86000 4.845
79.88000 4.456
79.90000 3.020
79.92000 2.235
79.94000 5.844
79.96000 1.043
79.98000 2.055
80.00000 3.356
80.02000 0.668
80.04000 -2.317
80.06000 0.503
80.08000 2.964
80.10000 0.989
80.12000 1.699
80.14000 0.927
80.16000 3.368
80.18000 2.427
80.20000 3.089
80.22000 5.382
80.24000 2.443
80.26000 -0.788
80.28000 0.051
80.30000 -0.310
80.32000 -0.637
80.34000 -2.365
80.36000 -0.850
80.38000 -1.469
80.40000 3.135
80.42000 1.336
80.44000 3.989
80.46000 2.812
80.48000 0.666
80.50000 0.889
80.52000 1.216
80.54000 6.927
80.56000 -2.195
80.58000 -1.947
80.60000 -1.419
80.62000 -1.163
80.64000 1.713
80.66000 1.127
80.68000 2.890
80.70000 5.281
80.72000 1.596
80.74000 0.394
80.76000 -0.230
80.78000 0.654
80.80000 4.352
80.82000 2.500
80.84000 0.535
80.86000 -0.597
80.88000 -0.894
80.90000 1.304
80.92000 3.935
80.94000 1.999
80.96000 2.066
80.98000 2.254
81.00000 -0.505
81.02000 -0.144
81.04000 -0.655
81.06000 4.846
81.08000 1.432
81.10000 1.388
81.12000 2.991
81.14000 2.817
81.16000 4.381
81.18000 3.695
81.20000 4.043
81.22000 7.862
81.24000 8.288
81.26000 9.522
81.28000 4.412
81.30000 5.805
81.32000 8.825
81.34000 9.357
81.36000 10.810
81.38000 7.871
81.40000 3.963
81.42000 7.664
81.44000 9.551
81.46000 11.644
81.48000 13.499
81.50000 12.000
81.52000 10.957
81.54000 14.914
81.56000 14.738
81.58000 15.826
81.60000 15.623
81.62000 13.219
81.64000 12.035
81.66000 14.420
81.68000 17.095
81.70000 14.208
81.72000 16.891
81.74000 13.228
81.76000 14.308
81.78000 18.713
81.80000 15.834
81.82000 16.616
81.84000 18.874
81.86000 15.677
81.88000 17.589
81.90000 19.727
81.92000 22.501
81.94000 23.516
81.96000 20.613
81.98000 26.704
82.00000 32.618
82.02000 31.789
82.04000 30.188
82.06000 26.791
82.08000 28.145
82.10000 31.120
82.12000 40.022
82.14000 31.540
82.16000 27.290
82.18000 27.575
82.20000 33.082
82.22000 37.414
82.24000 35.104
82.26000 33.950
82.28000 32.239
82.30000 36.569
82.32000 37.583
82.34000 36.754
82.36000 37.361
82.38000 41.107
82.40000 41.081
82.42000 39.386
82.44000 41.518
82.46000 45.452
82.48000 45.151
82.50000 40.498
82.52000 37.879
82.54000 37.658
82.56000 41.872
82.58000 44.351
82.60000 44.384
82.62000 41.249
82.64000 41.763
82.66000 44.988
82.68000 50.111
82.70000 48.720
82.72000 43.399
82.74000 41.925
82.76000 38.429
82.78000 43.826
82.80000 44.647
82.82000 44.509
82.84000 43.122
82.86000 42.457
82.88000 38.198
82.90000 41.635
82.92000 33.543
82.94000 30.685
82.96000 29.666
82.98000 31.875
83.00000 35.632
83.02000 34.830
83.04000 32.128
83.06000 33.405
83.08000 33.971
83.10000 27.763
83.12000 25.198
83.14000 29.049
83.16000 32.627
83.18000 18.992
83.20000 23.353
83.22000 30.663
83.24000 25.925
83.26000 20.473
83.28000 14.293
83.30000 16.764
83.32000 20.750
83.34000 22.291
83.36000 25.711
83.38000 21.375
83.40000 15.745
83.42000 19.537
83.44000 16.419
83.46000 16.506
83.48000 17.133
83.50000 13.373
83.52000 13.062
83.54000 15.447
83.56000 15.683
83.58000 13.002
83.60000 9.820
83.62000 10.142
83.64000 12.010
83.66000 9.586
83.68000 8.864
83.70000 6.446
83.72000 6.607
83.74000 11.271
83.76000 8.229
83.78000 5.620
83.80000 9.048
83.82000 11.981
83.84000 11.766
83.86000 5.602
83.88000 2.332
83.90000 -2.397
83.92000 0.275
83.94000 5.394
83.96000 5.198
83.98000 -0.332
84.00000 0.620
84.02000 8.606
84.04000 7.745
84.06000 4.761
84.08000 1.434
84.10000 0.098
84.12000 8.125
84.14000 5.477
84.16000 5.832
84.18000 4.710
84.20000 4.227
84.22000 3.907
84.24000 3.675
84.26000 4.981
84.28000 6.317
84.30000 3.142
84.32000 5.963
84.34000 2.375
84.36000 4.959
84.38000 3.486
84.40000 8.379
84.42000 3.794
84.44000 1.368
84.46000 4.579
84.48000 6.066
84.50000 5.120
84.52000 0.613
84.54000 -1.454
84.56000 -0.210
84.58000 0.330
84.60000 1.560
84.62000 2.615
84.64000 -0.132
84.66000 -1.778
84.68000 -1.566
84.70000 2.287
84.72000 1.654
84.74000 4.597
84.76000 5.331
84.78000 0.153
84.80000 -2.297
84.82000 1.200
84.84000 1.584
84.86000 2.650
84.88000 3.182
84.90000 1.863
84.92000 1.124
84.94000 2.320
84.96000 1.086
84.98000 1.316
85.00000 5.562
85.02000 2.271
85.04000 1.449
85.06000 2.711
85.08000 2.398
85.10000 3.125
85.12000 1.124
85.14000 0.601
85.16000 -0.784
85.18000 1.328
85.20000 2.170
85.22000 -2.326
85.24000 -1.172
85.26000 -0.022
85.28000 -0.598
85.30000 2.743
85.32000 -1.187
85.34000 -0.540
85.36000 2.498
85.38000 2.924
85.40000 7.919
85.42000 3.699
85.44000 4.963
85.46000 3.304
85.48000 1.563
85.50000 1.138
85.52000 0.079
85.54000 0.057
85.56000 -0.912
85.58000 0.407
85.60000 -0.447
85.62000 -1.385
85.64000 0.756
85.66000 1.851
85.68000 -2.350
85.70000 -1.708
85.72000 6.982
85.74000 7.476
85.76000 -1.357
85.78000 -2.353
85.80000 4.284
85.82000 4.339
85.84000 2.696
85.86000 4.995
85.88000 4.700
85.90000 3.638
85.92000 7.289
85.94000 4.993
85.96000 11.389
85.98000 10.506
86.00000 5.187
86.02000 -0.594
86.04000 8.948
86.06000 10.878
86.08000 9.497
86.10000 5.379
86.12000 1.919
86.14000 4.790
86.16000 8.216
86.18000 7.444
86.20000 8.350
86.22000 11.104
86.24000 11.516
86.26000 11.712
86.28000 14.584
86.30000 20.010
86.32000 17.200
86.34000 18.500
86.36000 20.093
86.38000 18.663
86.40000 21.163
86.42000 20.745
86.44000 19.805
86.46000 19.314
86.48000 21.862
86.50000 18.676
86.52000 17.964
86.54000 19.216
86.56000 24.004
86.58000 24.705
86.60000 23.995
86.62000 23.086
86.64000 22.690
86.66000 28.198
86.68000 31.098
86.70000 27.709
86.72000 30.133
86.74000 27.130
86.76000 25.848
86.78000 29.762
86.80000 28.431
86.82000 28.453
86.84000 28.403
86.86000 22.952
86.88000 29.385
86.90000 29.533
86.92000 24.630
86.94000 26.992
86.96000 28.702
86.98000 31.384
87.00000 25.953
87.02000 25.294
87.04000 24.178
87.06000 27.109
87.08000 27.146
87.10000 24.204
87.12000 24.077
87.14000 17.346
87.16000 19.717
87.18000 20.052
87.20000 17.904
87.22000 23.490
87.24000 24.240
87.26000 19.718
87.28000 19.312
87.30000 20.824
87.32000 23.518
87.34000 15.705
87.36000 13.485
87.38000 9.739
87.40000 8.856
87.42000 15.863
87.44000 18.487
87.46000 16.294
87.48000 16.494
87.50000 17.104
87.52000 14.439
87.54000 14.763
87.56000 13.370
87.58000 13.537
87.60000 11.651
87.62000 13.823
87.64000 12.861
87.66000 16.282
87.68000 12.326
87.70000 6.728
87.72000 6.737
87.74000 5.691
87.76000 8.175
87.78000 8.537
87.80000 10.539
87.82000 11.077
87.84000 9.821
87.86000 6.297
87.88000 2.948
87.90000 -0.251
87.92000 4.725
87.94000 4.050
87.96000 3.355
87.98000 5.155
88.00000 3.171
88.02000 2.467
88.04000 1.806
88.06000 7.503
88.08000 9.492
88.10000 6.670
88.12000 8.445
88.14000 3.183
88.16000 3.060
88.18000 7.380
88.20000 2.065
88.22000 1.658
88.24000 3.870
88.26000 7.247
88.28000 6.215
88.30000 2.379
88.32000 0.030
88.34000 2.280
88.36000 1.668
88.38000 3.069
88.40000 1.641
88.42000 4.000
88.44000 2.451
88.46000 0.726
88.48000 -0.512
88.50000 0.164
88.52000 -2.167
88.54000 1.565
88.56000 3.980
88.58000 1.729
88.60000 5.829
88.62000 8.644
88.64000 11.202
88.66000 2.408
88.68000 3.083
88.70000 0.536
88.72000 -2.145
88.74000 -0.597
88.76000 0.509
88.78000 -1.045
88.80000 2.806
88.82000 3.621
88.84000 2.348
88.86000 2.131
88.88000 1.722
88.90000 -0.940
88.92000 1.687
88.94000 0.121
88.96000 -0.434
88.98000 -2.130
89.00000 4.685
89.02000 1.112
89.04000 0.669
89.06000 4.674
89.08000 5.360
89.10000 5.109
89.12000 3.387
89.14000 2.196
89.16000 0.510
89.18000 -1.240
89.20000 -1.602
89.22000 -1.830
89.24000 3.584
89.26000 2.499
89.28000 -0.137
89.30000 -2.061
89.32000 -0.074
89.34000 0.386
89.36000 -1.671
89.38000 -0.950
89.40000 -0.244
89.42000 0.999
89.44000 1.907
89.46000 1.821
89.48000 0.417
89.50000 0.247
89.52000 2.445
89.54000 2.747
89.56000 2.348
89.58000 5.193
89.60000 0.147
89.62000 -0.454
89.64000 5.816
89.66000 2.974
89.68000 -0.046
89.70000 -1.904
89.72000 -0.853
89.74000 -2.086
89.76000 2.308
89.78000 7.054
89.80000 7.025
89.82000 3.660
89.84000 3.265
89.86000 1.851
89.88000 6.691
89.90000 6.604
89.92000 6.672
89.94000 4.503
89.96000 4.204
89.98000 4.911
90.00000 3.969
90.02000 2.192
90.04000 -0.483
90.06000 -1.200
90.08000 3.264
90.10000 7.317
90.12000 5.696
90.14000 3.492
90.16000 4.819
90.18000 6.585
90.20000 7.112
90.22000 4.241
90.24000 0.423
90.26000 -2.052
90.28000 3.289
90.30000 3.524
90.32000 2.216
90.34000 2.718
90.36000 4.270
90.38000 4.257
90.40000 4.329
90.42000 5.918
90.44000 8.007
90.46000 5.577
90.48000 5.232
90.50000 2.723
90.52000 4.698
90.54000 4.729
90.56000 5.549
90.58000 5.354
90.60000 2.956
90.62000 3.477
90.64000 2.192
90.66000 1.637
90.68000 -0.068
90.70000 2.734
90.72000 2.314
90.74000 4.403
90.76000 5.333
90.78000 2.062
90.80000 2.694
90.82000 3.713
90.84000 2.541
90.86000 0.646
90.88000 2.450
90.90000 0.750
90.92000 0.470
90.94000 2.915
90.96000 3.657
90.98000 2.897
91.00000 -2.046
91.02000 1.713
91.04000 3.006
91.06000 0.027
91.08000 4.071
91.10000 4.441
91.12000 3.622
91.14000 3.951
91.16000 4.586
91.18000 6.381
91.20000 5.622
91.22000 7.306
91.24000 8.934
91.26000 6.964
91.28000 3.575
91.30000 3.686
91.32000 3.213
91.34000 0.542
91.36000 1.866
91.38000 2.198
91.40000 3.503
91.42000 3.289
91.44000 4.316
91.46000 5.258
91.48000 2.660
91.50000 1.703
91.52000 1.848
91.54000 3.918
91.56000 1.912
91.58000 8.818
91.60000 8.601
91.62000 5.024
91.64000 4.721
91.66000 5.108
91.68000 3.837
91.70000 6.175
91.72000 4.633
91.74000 2.758
91.76000 -1.987
91.78000 0.592
91.80000 5.808
91.82000 3.339
91.84000 7.266
91.86000 7.826
91.88000 7.899
91.90000 5.022
91.92000 6.860
91.94000 7.188
91.96000 9.052
91.98000 8.077
92.00000 5.655
92.02000 1.426
92.04000 2.071
92.06000 6.955
92.08000 4.757
92.10000 1.688
92.12000 2.094
92.14000 6.538
92.16000 4.519
92.18000 9.798
92.20000 5.864
92.22000 4.405
92.24000 3.734
92.26000 3.668
92.28000 3.486
92.30000 3.129
92.32000 4.194
92.34000 2.551
92.36000 0.369
92.38000 1.977
92.40000 3.607
92.42000 4.432
92.44000 -0.876
92.46000 -2.050
92.48000 5.804
92.50000 7.117
92.52000 3.582
92.54000 3.081
92.56000 7.883
92.58000 2.455
92.60000 -1.425
92.62000 -0.450
92.64000 -0.867
92.66000 4.524
92.68000 1.827
92.70000 0.864
92.72000 -0.325
92.74000 0.273
92.76000 2.579
92.78000 1.927
92.80000 2.805
92.82000 2.093
92.84000 2.389
92.86000 3.541
92.88000 3.515
92.90000 8.919
92.92000 4.205
92.94000 0.832
92.96000 0.739
92.98000 0.443
93.00000 -1.128
93.02000 0.583
93.04000 1.424
93.06000 0.711
93.08000 1.595
93.10000 4.214
93.12000 -0.278
93.14000 1.152
93.16000 2.886
93.18000 3.011
93.20000 1.636
93.22000 -0.051
93.24000 -0.411
93.26000 -0.844
93.28000 -0.510
93.30000 0.418
93.32000 3.989
93.34000 4.251
93.36000 4.409
93.38000 2.204
93.40000 1.861
93.42000 4.618
93.44000 2.151
93.46000 -0.923
93.48000 0.428
93.50000 3.061
93.52000 4.542
93.54000 3.779
93.56000 2.996
93.58000 1.838
93.60000 2.760
93.62000 1.288
93.64000 -0.167
93.66000 1.459
93.68000 5.161
93.70000 3.813
93.72000 5.153
93.74000 3.130
93.76000 2.941
93.78000 2.155
93.80000 0.728
93.82000 1.207
93.84000 3.712
93.86000 1.076
93.88000 -2.076
93.90000 0.827
93.92000 5.007
93.94000 4.979
93.96000 2.467
93.98000 4.633
94.00000 5.358
94.02000 5.533
94.04000 6.949
94.06000 5.303
94.08000 -0.411
94.10000 0.839
94.12000 5.372
94.14000 4.398
94.16000 0.580
94.18000 -0.723
94.20000 1.730
94.22000 2.644
94.24000 3.761
94.26000 -0.606
94.28000 2.475
94.30000 0.500
94.32000 -1.367
94.34000 -0.781
94.36000 1.688
94.38000 4.446
94.40000 5.014
94.42000 2.799
94.44000 7.154
94.46000 6.261
94.48000 5.659
94.50000 3.775
94.52000 3.265
94.54000 3.445
94.56000 2.575
94.58000 0.794
94.60000 2.175
94.62000 6.387
94.64000 9.349
94.66000 5.032
94.68000 1.189
94.70000 0.797
94.72000 2.896
94.74000 5.052
94.76000 2.153
94.78000 4.232
94.80000 4.759
94.82000 6.251
94.84000 4.180
94.86000 -0.014
94.88000 2.800
94.90000 3.408
94.92000 2.876
94.94000 0.717
94.96000 2.773
94.98000 1.390
95.00000 1.117
95.02000 2.746
95.04000 3.330
95.06000 4.145
95.08000 1.171
95.10000 3.478
95.12000 5.151
95.14000 3.455
95.16000 1.013
95.18000 4.319
95.20000 -0.173
95.22000 0.805
95.24000 -0.492
95.26000 3.987
95.28000 1.257
95.30000 2.455
95.32000 0.547
95.34000 6.521
95.36000 9.003
95.38000 6.825
95.40000 2.392
95.42000 4.074
95.44000 2.278
95.46000 7.463
95.48000 6.682
95.50000 3.248
95.52000 2.984
95.54000 4.132
95.56000 4.221
95.58000 1.201
95.60000 -0.992
95.62000 -0.067
95.64000 3.403
95.66000 6.340
95.68000 4.887
95.70000 9.581
95.72000 8.637
95.74000 6.432
95.76000 1.268
95.78000 5.880
95.80000 6.430
95.82000 7.047
95.84000 5.711
95.86000 4.571
95.88000 6.959
95.90000 7.739
95.92000 4.790
95.94000 3.255
95.96000 2.633
95.98000 -2.067
96.00000 -0.891
96.02000 -1.117
96.04000 1.415
96.06000 7.064
96.08000 10.064
96.10000 7.390
96.12000 5.642
96.14000 5.151
96.16000 5.791
96.18000 6.509
96.20000 3.142
96.22000 6.184
96.24000 6.951
96.26000 8.663
96.28000 5.388
96.30000 3.794
96.32000 4.851
96.34000 3.733
96.36000 4.254
96.38000 5.099
96.40000 7.033
96.42000 0.566
96.44000 4.685
96.46000 8.500
96.48000 4.049
96.50000 4.433
96.52000 6.683
96.54000 9.496
96.56000 3.965
96.58000 5.642
96.60000 2.684
96.62000 -2.032
96.64000 2.647
96.66000 4.819
96.68000 3.038
96.70000 6.065
96.72000 6.719
96.74000 5.393
96.76000 7.125
96.78000 6.982
96.80000 7.468
96.82000 7.378
96.84000 8.230
96.86000 4.202
96.88000 8.282
96.90000 9.500
96.92000 7.906
96.94000 4.239
96.96000 4.323
96.98000 2.492
97.00000 5.404
97.02000 5.477
97.04000 9.277
97.06000 7.126
97.08000 9.576
97.10000 10.580
97.12000 10.226
97.14000 8.907
97.16000 7.603
97.18000 7.341
97.20000 9.348
97.22000 6.868
97.24000 6.580
97.26000 5.440
97.28000 6.065
97.30000 3.935
97.32000 4.250
97.34000 4.168
97.36000 8.444
97.38000 7.867
97.40000 5.388
97.42000 7.335
97.44000 6.261
97.46000 4.584
97.48000 3.074
97.50000 3.849
97.52000 2.671
97.54000 4.007
97.56000 8.637
97.58000 5.763
97.60000 6.110
97.62000 6.256
97.64000 2.370
97.66000 1.742
97.68000 5.312
97.70000 8.251
97.72000 6.621
97.74000 7.964
97.76000 9.654
97.78000 9.154
97.80000 0.888
97.82000 -1.981
97.84000 3.294
97.86000 8.509
97.88000 12.292
97.90000 9.121
97.92000 7.916
97.94000 2.741
97.96000 8.330
97.98000 9.294
98.00000 4.347
98.02000 7.683
98.04000 6.951
98.06000 9.466
98.08000 1.078
98.10000 1.730
98.12000 1.412
98.14000 6.395
98.16000 7.308
98.18000 5.853
98.20000 9.116
98.22000 8.610
98.24000 9.875
98.26000 7.731
98.28000 6.993
98.30000 10.301
98.32000 14.395
98.34000 13.652
98.36000 5.502
98.38000 11.127
98.40000 8.367
98.42000 7.036
98.44000 9.892
98.46000 3.603
98.48000 4.238
98.50000 6.148
98.52000 3.758
98.54000 0.974
98.56000 -1.906
98.58000 6.083
98.60000 7.501
98.62000 6.177
98.64000 6.074
98.66000 12.636
98.68000 6.571
98.70000 4.515
98.72000 4.258
98.74000 7.464
98.76000 13.428
98.78000 10.540
98.80000 9.168
98.82000 8.180
98.84000 5.136
98.86000 7.617
98.88000 4.206
98.90000 12.001
98.92000 18.376
98.94000 13.284
98.96000 11.115
98.98000 8.098
99.00000 7.633
99.02000 5.709
99.04000 4.275
99.06000 5.029
99.08000 0.882
99.10000 4.742
99.12000 4.861
99.14000 6.261
99.16000 2.590
99.18000 0.306
99.20000 1.232
99.22000 11.334
99.24000 5.403
99.26000 5.665
99.28000 2.261
99.30000 10.586
99.32000 4.921
99.34000 -0.398
99.36000 -1.099
99.38000 2.611
99.40000 8.885
99.42000 1.827
99.44000 -2.760
99.46000 8.693
99.48000 5.296
99.50000 5.704
99.52000 0.467
99.54000 4.971
99.56000 8.795
99.58000 -3.604
99.60000 4.351
99.62000 4.104
99.64000 0.394
99.66000 0.961
99.68000 -1.236
99.70000 -0.059
99.72000 6.359
99.74000 0.788
99.76000 1.464
99.78000 6.028
99.80000 -2.077
99.82000 1.368
99.84000 11.502
99.86000 5.313
99.88000 4.263
99.90000 2.940
99.92000 -1.008
99.94000 0.632
99.96000 -2.226
99.98000 0.000
