'Id: "0011389" Comment: "Integrate frame 0011389_Au-Ir-Rh_Au-Rich_XRD_Mapping-046-0000.gfrmwith cursor Wedge Cursor #5" Operator: "B?rgel" Anode: "Cu" Wavelength: "1.5406" Scantype: "2Theta (TwoTheta)" TimePerStep: "1" X: "-4.5" Y: "-27" Z: "5.95" 
10.00000 0.000
10.02000 -0.510
10.04000 -4.347
10.06000 11.010
10.08000 9.073
10.10000 9.562
10.12000 -1.512
10.14000 -4.488
10.16000 21.737
10.18000 22.567
10.20000 19.319
10.22000 15.136
10.24000 9.066
10.26000 -2.374
10.28000 9.159
10.30000 15.045
10.32000 13.056
10.34000 15.870
10.36000 20.104
10.38000 7.287
10.40000 5.440
10.42000 19.892
10.44000 20.398
10.46000 12.713
10.48000 1.523
10.50000 7.781
10.52000 -6.363
10.54000 13.212
10.56000 25.926
10.58000 17.204
10.60000 14.567
10.62000 19.743
10.64000 20.298
10.66000 14.453
10.68000 6.519
10.70000 -0.408
10.72000 10.807
10.74000 10.522
10.76000 7.729
10.78000 4.446
10.80000 2.012
10.82000 4.970
10.84000 15.121
10.86000 9.767
10.88000 13.398
10.90000 12.685
10.92000 10.654
10.94000 21.793
10.96000 16.988
10.98000 13.677
11.00000 5.505
11.02000 11.909
11.04000 15.242
11.06000 29.142
11.08000 18.099
11.10000 8.455
11.12000 7.222
11.14000 10.344
11.16000 26.023
11.18000 14.198
11.20000 -1.216
11.22000 -4.336
11.24000 3.073
11.26000 14.148
11.28000 15.427
11.30000 4.617
11.32000 0.891
11.34000 0.381
11.36000 3.321
11.38000 14.685
11.40000 29.666
11.42000 19.877
11.44000 19.159
11.46000 1.382
11.48000 8.358
11.50000 15.856
11.52000 4.966
11.54000 11.310
11.56000 8.829
11.58000 6.114
11.60000 12.014
11.62000 10.413
11.64000 4.059
11.66000 8.567
11.68000 6.042
11.70000 5.030
11.72000 25.710
11.74000 18.165
11.76000 16.474
11.78000 23.574
11.80000 10.409
11.82000 13.313
11.84000 8.328
11.86000 0.440
11.88000 8.254
11.90000 13.799
11.92000 19.069
11.94000 11.320
11.96000 10.939
11.98000 8.876
12.00000 4.900
12.02000 15.380
12.04000 13.117
12.06000 12.597
12.08000 18.292
12.10000 22.942
12.12000 21.652
12.14000 17.624
12.16000 6.213
12.18000 9.957
12.20000 3.661
12.22000 -4.398
12.24000 3.696
12.26000 16.656
12.28000 27.314
12.30000 16.676
12.32000 13.391
12.34000 15.690
12.36000 18.947
12.38000 4.132
12.40000 15.054
12.42000 23.005
12.44000 3.492
12.46000 -2.622
12.48000 12.797
12.50000 13.281
12.52000 15.091
12.54000 9.525
12.56000 7.269
12.58000 9.380
12.60000 18.442
12.62000 14.417
12.64000 10.848
12.66000 21.525
12.68000 23.017
12.70000 9.448
12.72000 7.834
12.74000 -0.355
12.76000 10.756
12.78000 11.688
12.80000 14.595
12.82000 4.868
12.84000 2.203
12.86000 2.253
12.88000 6.193
12.90000 10.594
12.92000 4.632
12.94000 4.937
12.96000 3.704
12.98000 2.188
13.00000 10.559
13.02000 8.278
13.04000 9.605
13.06000 13.542
13.08000 11.654
13.10000 10.610
13.12000 13.471
13.14000 18.161
13.16000 19.381
13.18000 9.568
13.20000 11.423
13.22000 15.293
13.24000 19.613
13.26000 12.759
13.28000 13.730
13.30000 11.590
13.32000 10.111
13.34000 17.084
13.36000 7.527
13.38000 -0.869
13.40000 6.847
13.42000 7.209
13.44000 -0.700
13.46000 1.062
13.48000 4.775
13.50000 9.050
13.52000 14.520
13.54000 11.965
13.56000 10.753
13.58000 11.867
13.60000 8.146
13.62000 7.390
13.64000 3.737
13.66000 11.058
13.68000 21.764
13.70000 18.223
13.72000 9.954
13.74000 15.877
13.76000 15.056
13.78000 30.148
13.80000 19.376
13.82000 10.835
13.84000 14.867
13.86000 18.058
13.88000 7.629
13.90000 2.640
13.92000 -3.786
13.94000 -4.240
13.96000 11.449
13.98000 10.734
14.00000 5.015
14.02000 10.219
14.04000 7.780
14.06000 10.217
14.08000 10.117
14.10000 17.950
14.12000 17.529
14.14000 12.586
14.16000 9.996
14.18000 9.818
14.20000 12.846
14.22000 9.540
14.24000 15.205
14.26000 7.458
14.28000 -1.828
14.30000 6.483
14.32000 5.601
14.34000 -4.442
14.36000 -2.743
14.38000 14.326
14.40000 8.392
14.42000 7.269
14.44000 11.526
14.46000 11.468
14.48000 13.162
14.50000 10.712
14.52000 8.748
14.54000 1.867
14.56000 6.650
14.58000 13.137
14.60000 5.786
14.62000 12.754
14.64000 7.971
14.66000 4.496
14.68000 2.256
14.70000 5.428
14.72000 2.120
14.74000 0.173
14.76000 6.825
14.78000 7.822
14.80000 9.764
14.82000 14.628
14.84000 16.113
14.86000 16.761
14.88000 15.152
14.90000 10.627
14.92000 9.819
14.94000 10.384
14.96000 13.892
14.98000 1.373
15.00000 -2.560
15.02000 0.939
15.04000 16.227
15.06000 30.386
15.08000 19.783
15.10000 2.871
15.12000 3.173
15.14000 1.560
15.16000 -1.095
15.18000 2.067
15.20000 14.338
15.22000 8.716
15.24000 -3.297
15.26000 0.778
15.28000 10.191
15.30000 13.794
15.32000 1.112
15.34000 -0.877
15.36000 1.382
15.38000 4.374
15.40000 10.359
15.42000 5.451
15.44000 0.969
15.46000 5.351
15.48000 5.139
15.50000 0.338
15.52000 3.911
15.54000 2.589
15.56000 1.955
15.58000 0.709
15.60000 3.800
15.62000 7.601
15.64000 10.715
15.66000 10.750
15.68000 7.771
15.70000 5.984
15.72000 8.736
15.74000 8.927
15.76000 2.402
15.78000 1.664
15.80000 13.427
15.82000 12.861
15.84000 5.566
15.86000 6.820
15.88000 6.081
15.90000 6.952
15.92000 11.098
15.94000 13.912
15.96000 6.755
15.98000 11.765
16.00000 8.599
16.02000 8.061
16.04000 8.687
16.06000 3.288
16.08000 3.552
16.10000 7.841
16.12000 5.361
16.14000 9.146
16.16000 7.478
16.18000 6.333
16.20000 13.957
16.22000 15.175
16.24000 16.559
16.26000 13.527
16.28000 4.175
16.30000 -0.800
16.32000 4.641
16.34000 9.890
16.36000 6.692
16.38000 7.211
16.40000 14.353
16.42000 3.172
16.44000 5.716
16.46000 2.029
16.48000 -2.091
16.50000 4.397
16.52000 7.079
16.54000 0.838
16.56000 -4.383
16.58000 3.850
16.60000 3.063
16.62000 6.180
16.64000 3.324
16.66000 -3.697
16.68000 13.924
16.70000 20.304
16.72000 4.973
16.74000 4.850
16.76000 4.617
16.78000 10.644
16.80000 10.191
16.82000 6.721
16.84000 7.717
16.86000 14.976
16.88000 14.649
16.90000 10.202
16.92000 10.855
16.94000 14.819
16.96000 13.706
16.98000 8.136
17.00000 3.511
17.02000 2.864
17.04000 5.876
17.06000 5.336
17.08000 16.390
17.10000 16.350
17.12000 13.339
17.14000 6.509
17.16000 6.466
17.18000 10.870
17.20000 11.082
17.22000 10.919
17.24000 2.437
17.26000 2.754
17.28000 8.611
17.30000 11.858
17.32000 7.733
17.34000 6.041
17.36000 11.101
17.38000 9.779
17.40000 3.982
17.42000 5.006
17.44000 10.883
17.46000 8.614
17.48000 8.954
17.50000 18.340
17.52000 7.167
17.54000 5.601
17.56000 6.724
17.58000 9.828
17.60000 11.620
17.62000 9.809
17.64000 6.128
17.66000 5.235
17.68000 10.505
17.70000 12.309
17.72000 6.494
17.74000 15.297
17.76000 14.116
17.78000 3.912
17.80000 0.070
17.82000 6.545
17.84000 13.204
17.86000 5.928
17.88000 5.040
17.90000 -0.493
17.92000 -1.711
17.94000 -2.407
17.96000 -4.290
17.98000 2.516
18.00000 5.601
18.02000 7.122
18.04000 7.982
18.06000 14.769
18.08000 9.459
18.10000 15.550
18.12000 12.039
18.14000 0.989
18.16000 3.136
18.18000 12.019
18.20000 13.666
18.22000 10.605
18.24000 5.822
18.26000 8.309
18.28000 5.747
18.30000 5.872
18.32000 8.092
18.34000 5.353
18.36000 3.699
18.38000 2.885
18.40000 15.719
18.42000 13.707
18.44000 7.523
18.46000 10.783
18.48000 6.028
18.50000 3.834
18.52000 3.265
18.54000 -2.138
18.56000 -1.938
18.58000 4.111
18.60000 0.305
18.62000 4.370
18.64000 7.824
18.66000 3.938
18.68000 6.488
18.70000 4.831
18.72000 7.365
18.74000 10.175
18.76000 3.700
18.78000 3.568
18.80000 1.574
18.82000 1.605
18.84000 10.055
18.86000 8.101
18.88000 4.010
18.90000 6.088
18.92000 8.999
18.94000 11.134
18.96000 6.884
18.98000 3.368
19.00000 4.988
19.02000 0.674
19.04000 -1.388
19.06000 0.530
19.08000 2.477
19.10000 2.911
19.12000 -1.210
19.14000 3.134
19.16000 1.216
19.18000 7.148
19.20000 10.885
19.22000 1.354
19.24000 -1.942
19.26000 -3.785
19.28000 3.930
19.30000 7.199
19.32000 2.507
19.34000 6.630
19.36000 -0.946
19.38000 -0.061
19.40000 5.145
19.42000 5.413
19.44000 -1.473
19.46000 -0.162
19.48000 5.312
19.50000 -0.174
19.52000 6.028
19.54000 7.531
19.56000 3.352
19.58000 4.281
19.60000 -1.284
19.62000 -0.167
19.64000 5.392
19.66000 -2.262
19.68000 -3.736
19.70000 0.573
19.72000 4.190
19.74000 3.480
19.76000 6.345
19.78000 9.705
19.80000 8.578
19.82000 6.811
19.84000 5.515
19.86000 0.356
19.88000 6.704
19.90000 7.376
19.92000 0.462
19.94000 -1.060
19.96000 -2.693
19.98000 -4.199
20.00000 4.017
20.02000 6.408
20.04000 9.244
20.06000 9.244
20.08000 8.245
20.10000 7.664
20.12000 6.942
20.14000 4.630
20.16000 2.574
20.18000 1.833
20.20000 0.757
20.22000 -3.990
20.24000 2.291
20.26000 3.307
20.28000 -0.160
20.30000 3.008
20.32000 8.647
20.34000 -1.172
20.36000 -3.187
20.38000 1.889
20.40000 3.112
20.42000 5.073
20.44000 1.745
20.46000 5.750
20.48000 7.947
20.50000 0.781
20.52000 3.876
20.54000 2.535
20.56000 1.499
20.58000 0.286
20.60000 -3.491
20.62000 1.106
20.64000 2.359
20.66000 1.324
20.68000 6.299
20.70000 2.886
20.72000 7.455
20.74000 10.741
20.76000 2.122
20.78000 1.250
20.80000 10.391
20.82000 3.372
20.84000 5.992
20.86000 10.927
20.88000 12.693
20.90000 2.183
20.92000 0.452
20.94000 5.604
20.96000 0.306
20.98000 -2.021
21.00000 0.965
21.02000 -0.668
21.04000 4.248
21.06000 8.353
21.08000 7.873
21.10000 3.980
21.12000 4.613
21.14000 2.502
21.16000 3.131
21.18000 -0.790
21.20000 -2.625
21.22000 -0.236
21.24000 -4.140
21.26000 4.128
21.28000 7.262
21.30000 7.808
21.32000 6.906
21.34000 1.214
21.36000 -0.406
21.38000 3.718
21.40000 11.189
21.42000 6.930
21.44000 1.514
21.46000 3.519
21.48000 4.836
21.50000 -2.444
21.52000 3.572
21.54000 10.573
21.56000 13.259
21.58000 12.002
21.60000 7.510
21.62000 4.355
21.64000 3.255
21.66000 5.052
21.68000 1.665
21.70000 -0.186
21.72000 -1.299
21.74000 3.354
21.76000 5.957
21.78000 1.564
21.80000 5.922
21.82000 2.188
21.84000 1.843
21.86000 1.065
21.88000 -0.279
21.90000 -0.303
21.92000 -0.792
21.94000 1.905
21.96000 6.136
21.98000 6.416
22.00000 3.934
22.02000 4.757
22.04000 7.691
22.06000 12.255
22.08000 4.780
22.10000 2.834
22.12000 7.210
22.14000 10.848
22.16000 5.431
22.18000 1.096
22.20000 0.714
22.22000 0.811
22.24000 2.443
22.26000 4.681
22.28000 6.533
22.30000 9.653
22.32000 13.636
22.34000 6.141
22.36000 8.932
22.38000 8.671
22.40000 -0.106
22.42000 -2.203
22.44000 7.254
22.46000 8.076
22.48000 5.121
22.50000 4.383
22.52000 2.170
22.54000 6.401
22.56000 5.197
22.58000 4.175
22.60000 6.790
22.62000 6.155
22.64000 4.325
22.66000 5.907
22.68000 9.015
22.70000 10.446
22.72000 3.565
22.74000 7.107
22.76000 4.494
22.78000 -4.018
22.80000 3.892
22.82000 12.432
22.84000 5.374
22.86000 5.368
22.88000 6.195
22.90000 1.261
22.92000 3.312
22.94000 5.114
22.96000 5.911
22.98000 -0.272
23.00000 2.119
23.02000 1.740
23.04000 4.135
23.06000 -2.576
23.08000 0.327
23.10000 6.409
23.12000 5.893
23.14000 7.120
23.16000 3.485
23.18000 3.839
23.20000 2.412
23.22000 4.651
23.24000 2.326
23.26000 -1.032
23.28000 8.560
23.30000 12.872
23.32000 10.975
23.34000 3.198
23.36000 -0.300
23.38000 5.679
23.40000 0.642
23.42000 2.930
23.44000 3.969
23.46000 1.313
23.48000 2.595
23.50000 3.256
23.52000 6.574
23.54000 10.535
23.56000 3.289
23.58000 -2.067
23.60000 1.605
23.62000 7.314
23.64000 3.342
23.66000 5.072
23.68000 7.635
23.70000 4.318
23.72000 2.521
23.74000 0.532
23.76000 2.880
23.78000 6.284
23.80000 8.443
23.82000 8.345
23.84000 1.721
23.86000 2.005
23.88000 3.246
23.90000 -3.988
23.92000 -0.187
23.94000 6.203
23.96000 4.697
23.98000 -3.042
24.00000 -2.499
24.02000 -2.117
24.04000 1.646
24.06000 6.626
24.08000 4.233
24.10000 1.400
24.12000 1.344
24.14000 0.340
24.16000 -1.011
24.18000 2.429
24.20000 2.700
24.22000 1.302
24.24000 1.596
24.26000 4.392
24.28000 2.499
24.30000 3.292
24.32000 5.195
24.34000 8.360
24.36000 2.113
24.38000 -1.791
24.40000 6.303
24.42000 8.203
24.44000 8.099
24.46000 7.466
24.48000 6.258
24.50000 1.060
24.52000 0.190
24.54000 0.346
24.56000 0.181
24.58000 3.732
24.60000 1.876
24.62000 3.568
24.64000 7.840
24.66000 7.373
24.68000 2.097
24.70000 1.683
24.72000 2.078
24.74000 -3.321
24.76000 -2.086
24.78000 -0.826
24.80000 3.710
24.82000 1.551
24.84000 -3.947
24.86000 -2.090
24.88000 4.766
24.90000 3.083
24.92000 4.428
24.94000 7.265
24.96000 2.764
24.98000 0.904
25.00000 -2.321
25.02000 -0.823
25.04000 0.188
25.06000 1.723
25.08000 3.625
25.10000 6.053
25.12000 11.440
25.14000 2.287
25.16000 3.098
25.18000 -2.256
25.20000 -0.147
25.22000 4.410
25.24000 6.756
25.26000 3.343
25.28000 0.092
25.30000 -1.195
25.32000 1.638
25.34000 1.695
25.36000 1.867
25.38000 -3.910
25.40000 2.777
25.42000 10.080
25.44000 7.010
25.46000 6.534
25.48000 7.247
25.50000 8.966
25.52000 5.533
25.54000 2.105
25.56000 2.848
25.58000 -0.695
25.60000 2.848
25.62000 8.331
25.64000 1.490
25.66000 0.964
25.68000 -2.308
25.70000 -0.010
25.72000 1.215
25.74000 3.930
25.76000 -0.115
25.78000 -0.799
25.80000 3.735
25.82000 6.559
25.84000 6.326
25.86000 7.693
25.88000 3.460
25.90000 2.486
25.92000 3.198
25.94000 3.452
25.96000 8.387
25.98000 6.396
26.00000 5.512
26.02000 5.691
26.04000 2.103
26.06000 7.413
26.08000 1.610
26.10000 0.867
26.12000 4.195
26.14000 3.242
26.16000 0.584
26.18000 3.658
26.20000 4.422
26.22000 4.264
26.24000 3.582
26.26000 1.577
26.28000 1.295
26.30000 7.083
26.32000 6.640
26.34000 4.376
26.36000 5.033
26.38000 3.683
26.40000 2.959
26.42000 3.039
26.44000 0.033
26.46000 6.818
26.48000 5.426
26.50000 6.981
26.52000 6.406
26.54000 2.978
26.56000 6.022
26.58000 8.123
26.60000 5.704
26.62000 4.781
26.64000 1.205
26.66000 -3.820
26.68000 1.570
26.70000 4.233
26.72000 8.156
26.74000 9.374
26.76000 6.240
26.78000 10.832
26.80000 9.534
26.82000 2.143
26.84000 2.882
26.86000 7.150
26.88000 9.367
26.90000 8.732
26.92000 2.773
26.94000 5.952
26.96000 3.238
26.98000 0.489
27.00000 1.172
27.02000 5.850
27.04000 10.465
27.06000 4.985
27.08000 8.011
27.10000 3.881
27.12000 6.013
27.14000 6.051
27.16000 6.112
27.18000 10.295
27.20000 3.739
27.22000 1.114
27.24000 0.710
27.26000 -0.669
27.28000 0.163
27.30000 5.443
27.32000 -2.322
27.34000 -3.201
27.36000 1.299
27.38000 0.957
27.40000 2.597
27.42000 -3.151
27.44000 1.591
27.46000 9.877
27.48000 10.788
27.50000 7.761
27.52000 5.788
27.54000 6.005
27.56000 2.312
27.58000 1.473
27.60000 0.148
27.62000 -3.562
27.64000 -0.765
27.66000 4.185
27.68000 6.509
27.70000 5.730
27.72000 -1.509
27.74000 -0.018
27.76000 4.378
27.78000 2.888
27.80000 4.348
27.82000 2.666
27.84000 -1.196
27.86000 0.259
27.88000 -0.959
27.90000 1.754
27.92000 0.625
27.94000 0.813
27.96000 9.227
27.98000 9.032
28.00000 4.111
28.02000 -0.433
28.04000 1.091
28.06000 2.497
28.08000 4.259
28.10000 3.177
28.12000 -2.157
28.14000 -0.089
28.16000 -2.069
28.18000 -0.518
28.20000 -0.017
28.22000 2.614
28.24000 2.126
28.26000 -0.376
28.28000 -1.544
28.30000 -1.824
28.32000 0.014
28.34000 3.462
28.36000 -1.050
28.38000 -0.122
28.40000 4.233
28.42000 0.526
28.44000 -2.047
28.46000 0.635
28.48000 4.531
28.50000 1.283
28.52000 5.250
28.54000 6.328
28.56000 3.628
28.58000 8.220
28.60000 9.792
28.62000 3.892
28.64000 3.744
28.66000 3.258
28.68000 4.573
28.70000 2.479
28.72000 2.423
28.74000 -1.595
28.76000 -1.082
28.78000 -1.314
28.80000 -1.628
28.82000 2.484
28.84000 1.165
28.86000 0.271
28.88000 2.593
28.90000 4.098
28.92000 6.467
28.94000 1.825
28.96000 -0.486
28.98000 0.790
29.00000 8.621
29.02000 1.246
29.04000 -0.660
29.06000 2.378
29.08000 -1.978
29.10000 0.273
29.12000 3.389
29.14000 8.362
29.16000 9.600
29.18000 7.376
29.20000 4.380
29.22000 2.255
29.24000 7.599
29.26000 6.173
29.28000 2.395
29.30000 0.878
29.32000 4.227
29.34000 7.490
29.36000 11.981
29.38000 10.928
29.40000 3.932
29.42000 -0.208
29.44000 -3.674
29.46000 5.454
29.48000 3.582
29.50000 3.291
29.52000 7.704
29.54000 8.739
29.56000 7.532
29.58000 8.756
29.60000 -3.665
29.62000 -0.854
29.64000 3.780
29.66000 1.894
29.68000 3.955
29.70000 6.697
29.72000 7.677
29.74000 5.547
29.76000 1.640
29.78000 3.267
29.80000 8.215
29.82000 9.427
29.84000 11.174
29.86000 6.832
29.88000 5.368
29.90000 1.950
29.92000 -0.934
29.94000 3.812
29.96000 3.362
29.98000 5.180
30.00000 10.284
30.02000 2.920
30.04000 2.710
30.06000 4.924
30.08000 0.028
30.10000 5.312
30.12000 0.034
30.14000 2.250
30.16000 7.486
30.18000 4.411
30.20000 2.410
30.22000 0.954
30.24000 -0.536
30.26000 0.223
30.28000 1.524
30.30000 -0.926
30.32000 0.386
30.34000 3.609
30.36000 3.406
30.38000 7.039
30.40000 3.234
30.42000 3.780
30.44000 4.138
30.46000 0.308
30.48000 2.650
30.50000 2.192
30.52000 1.350
30.54000 2.357
30.56000 1.558
30.58000 4.910
30.60000 5.176
30.62000 -1.012
30.64000 -1.368
30.66000 -0.550
30.68000 -3.645
30.70000 -2.623
30.72000 3.884
30.74000 4.074
30.76000 0.078
30.78000 0.791
30.80000 1.316
30.82000 5.546
30.84000 8.413
30.86000 -0.027
30.88000 0.383
30.90000 0.734
30.92000 5.197
30.94000 1.953
30.96000 -2.400
30.98000 5.376
31.00000 8.259
31.02000 8.511
31.04000 3.345
31.06000 8.495
31.08000 6.936
31.10000 1.972
31.12000 4.047
31.14000 4.173
31.16000 2.934
31.18000 3.817
31.20000 7.291
31.22000 8.252
31.24000 3.542
31.26000 1.052
31.28000 0.181
31.30000 5.802
31.32000 2.819
31.34000 2.518
31.36000 1.957
31.38000 5.276
31.40000 3.366
31.42000 0.749
31.44000 -0.580
31.46000 2.208
31.48000 0.326
31.50000 1.415
31.52000 1.281
31.54000 1.701
31.56000 6.466
31.58000 4.648
31.60000 1.216
31.62000 4.853
31.64000 2.421
31.66000 -3.598
31.68000 -2.874
31.70000 0.574
31.72000 2.863
31.74000 4.626
31.76000 0.500
31.78000 2.641
31.80000 3.050
31.82000 -0.646
31.84000 -0.204
31.86000 4.883
31.88000 6.957
31.90000 7.195
31.92000 7.821
31.94000 6.349
31.96000 1.275
31.98000 1.867
32.00000 -1.931
32.02000 -1.883
32.04000 2.361
32.06000 8.464
32.08000 1.719
32.10000 2.030
32.12000 4.481
32.14000 2.642
32.16000 2.587
32.18000 2.524
32.20000 1.693
32.22000 4.291
32.24000 6.390
32.26000 5.445
32.28000 1.132
32.30000 2.782
32.32000 5.965
32.34000 5.621
32.36000 3.139
32.38000 3.952
32.40000 4.130
32.42000 5.424
32.44000 6.747
32.46000 3.560
32.48000 -0.582
32.50000 1.219
32.52000 0.166
32.54000 -0.557
32.56000 3.302
32.58000 3.185
32.60000 5.112
32.62000 7.580
32.64000 9.292
32.66000 7.226
32.68000 2.313
32.70000 2.520
32.72000 2.917
32.74000 5.665
32.76000 6.071
32.78000 -0.165
32.80000 -2.507
32.82000 -3.535
32.84000 1.604
32.86000 11.236
32.88000 9.661
32.90000 4.538
32.92000 7.376
32.94000 8.112
32.96000 8.019
32.98000 9.051
33.00000 8.509
33.02000 3.059
33.04000 3.810
33.06000 2.762
33.08000 7.145
33.10000 4.970
33.12000 2.729
33.14000 -1.437
33.16000 3.303
33.18000 4.076
33.20000 3.281
33.22000 1.304
33.24000 0.183
33.26000 4.588
33.28000 5.129
33.30000 6.417
33.32000 6.649
33.34000 3.729
33.36000 5.682
33.38000 3.292
33.40000 3.198
33.42000 6.941
33.44000 8.353
33.46000 9.780
33.48000 9.604
33.50000 10.503
33.52000 9.302
33.54000 7.162
33.56000 4.364
33.58000 6.682
33.60000 8.246
33.62000 7.705
33.64000 3.480
33.66000 3.450
33.68000 7.293
33.70000 10.155
33.72000 2.605
33.74000 1.935
33.76000 5.978
33.78000 5.303
33.80000 3.305
33.82000 5.373
33.84000 5.326
33.86000 7.458
33.88000 9.311
33.90000 7.993
33.92000 2.921
33.94000 0.620
33.96000 4.618
33.98000 7.089
34.00000 4.558
34.02000 6.074
34.04000 2.316
34.06000 -0.787
34.08000 1.137
34.10000 6.141
34.12000 8.189
34.14000 2.454
34.16000 -1.460
34.18000 5.815
34.20000 5.929
34.22000 3.615
34.24000 1.461
34.26000 7.170
34.28000 5.976
34.30000 4.643
34.32000 -0.110
34.34000 3.480
34.36000 4.619
34.38000 6.762
34.40000 7.551
34.42000 6.323
34.44000 0.171
34.46000 -3.542
34.48000 -1.152
34.50000 4.046
34.52000 8.089
34.54000 5.947
34.56000 3.619
34.58000 -1.373
34.60000 0.328
34.62000 3.682
34.64000 5.903
34.66000 2.432
34.68000 -1.250
34.70000 -0.860
34.72000 0.050
34.74000 -0.917
34.76000 2.901
34.78000 0.480
34.80000 -3.541
34.82000 -2.241
34.84000 -3.136
34.86000 -2.693
34.88000 0.589
34.90000 -1.534
34.92000 -3.540
34.94000 1.541
34.96000 -1.077
34.98000 -0.754
35.00000 1.147
35.02000 -2.362
35.04000 -0.195
35.06000 3.496
35.08000 4.495
35.10000 2.693
35.12000 2.820
35.14000 3.061
35.16000 3.358
35.18000 4.230
35.20000 3.280
35.22000 0.626
35.24000 1.205
35.26000 2.943
35.28000 -0.986
35.30000 -2.468
35.32000 -1.413
35.34000 5.506
35.36000 4.430
35.38000 -0.147
35.40000 4.240
35.42000 3.470
35.44000 2.488
35.46000 1.918
35.48000 2.307
35.50000 2.238
35.52000 2.085
35.54000 -0.559
35.56000 0.665
35.58000 5.561
35.60000 4.681
35.62000 1.122
35.64000 -2.744
35.66000 -3.530
35.68000 3.278
35.70000 4.485
35.72000 4.166
35.74000 6.490
35.76000 1.493
35.78000 3.269
35.80000 1.068
35.82000 6.046
35.84000 2.113
35.86000 -1.322
35.88000 -3.537
35.90000 -1.383
35.92000 2.916
35.94000 2.859
35.96000 5.074
35.98000 2.820
36.00000 0.419
36.02000 2.099
36.04000 -0.138
36.06000 0.358
36.08000 6.535
36.10000 4.950
36.12000 4.975
36.14000 7.243
36.16000 4.687
36.18000 3.068
36.20000 4.248
36.22000 3.061
36.24000 0.656
36.26000 -0.400
36.28000 -3.473
36.30000 -3.568
36.32000 -1.265
36.34000 -1.507
36.36000 -2.300
36.38000 1.993
36.40000 5.389
36.42000 1.241
36.44000 0.558
36.46000 0.865
36.48000 1.575
36.50000 3.735
36.52000 -2.564
36.54000 -2.794
36.56000 0.456
36.58000 -2.998
36.60000 -3.279
36.62000 0.105
36.64000 1.729
36.66000 1.731
36.68000 2.617
36.70000 5.933
36.72000 2.879
36.74000 0.363
36.76000 -0.669
36.78000 -1.160
36.80000 -1.979
36.82000 -0.153
36.84000 5.862
36.86000 4.842
36.88000 3.562
36.90000 3.159
36.92000 0.844
36.94000 0.596
36.96000 6.439
36.98000 6.962
37.00000 0.906
37.02000 -1.046
37.04000 -0.514
37.06000 2.153
37.08000 0.866
37.10000 -2.615
37.12000 -3.606
37.14000 1.131
37.16000 1.670
37.18000 -0.036
37.20000 1.309
37.22000 7.342
37.24000 4.445
37.26000 6.325
37.28000 8.142
37.30000 13.250
37.32000 11.767
37.34000 9.222
37.36000 5.739
37.38000 1.600
37.40000 2.110
37.42000 6.864
37.44000 7.985
37.46000 6.286
37.48000 5.043
37.50000 8.485
37.52000 9.428
37.54000 11.935
37.56000 10.510
37.58000 8.127
37.60000 11.512
37.62000 11.965
37.64000 7.883
37.66000 10.700
37.68000 11.102
37.70000 10.757
37.72000 11.251
37.74000 7.483
37.76000 11.553
37.78000 10.519
37.80000 13.690
37.82000 15.956
37.84000 16.581
37.86000 17.348
37.88000 21.521
37.90000 21.918
37.92000 15.735
37.94000 15.707
37.96000 17.894
37.98000 18.285
38.00000 15.888
38.02000 16.926
38.04000 26.414
38.06000 27.585
38.08000 27.466
38.10000 27.000
38.12000 30.524
38.14000 24.094
38.16000 20.014
38.18000 21.879
38.20000 28.610
38.22000 28.025
38.24000 30.427
38.26000 34.012
38.28000 36.652
38.30000 30.313
38.32000 30.924
38.34000 35.162
38.36000 38.055
38.38000 39.762
38.40000 37.199
38.42000 35.479
38.44000 41.086
38.46000 42.705
38.48000 47.987
38.50000 44.911
38.52000 47.772
38.54000 47.713
38.56000 52.200
38.58000 52.712
38.60000 54.576
38.62000 58.217
38.64000 63.912
38.66000 65.750
38.68000 62.199
38.70000 64.993
38.72000 70.656
38.74000 72.368
38.76000 66.995
38.78000 73.395
38.80000 73.822
38.82000 80.913
38.84000 85.897
38.86000 88.946
38.88000 98.687
38.90000 99.046
38.92000 98.751
38.94000 107.224
38.96000 117.367
38.98000 123.354
39.00000 127.561
39.02000 130.365
39.04000 146.011
39.06000 157.233
39.08000 164.908
39.10000 169.269
39.12000 180.382
39.14000 192.687
39.16000 200.139
39.18000 205.698
39.20000 216.958
39.22000 235.443
39.24000 253.656
39.26000 275.188
39.28000 295.908
39.30000 309.075
39.32000 320.760
39.34000 336.467
39.36000 357.768
39.38000 376.836
39.40000 397.419
39.42000 418.647
39.44000 444.896
39.46000 477.942
39.48000 499.601
39.50000 514.139
39.52000 540.923
39.54000 565.266
39.56000 587.292
39.58000 616.158
39.60000 636.445
39.62000 656.225
39.64000 675.424
39.66000 692.277
39.68000 704.768
39.70000 717.546
39.72000 733.122
39.74000 746.200
39.76000 738.730
39.78000 746.572
39.80000 739.379
39.82000 734.789
39.84000 737.410
39.86000 729.698
39.88000 722.603
39.90000 706.918
39.92000 682.625
39.94000 662.267
39.96000 654.318
39.98000 630.570
40.00000 605.352
40.02000 576.100
40.04000 559.100
40.06000 533.189
40.08000 508.653
40.10000 490.992
40.12000 473.452
40.14000 454.740
40.16000 423.743
40.18000 402.163
40.20000 378.796
40.22000 360.904
40.24000 341.561
40.26000 306.429
40.28000 281.230
40.30000 273.806
40.32000 253.840
40.34000 242.241
40.36000 219.039
40.38000 200.384
40.40000 190.802
40.42000 184.135
40.44000 176.541
40.46000 167.835
40.48000 150.477
40.50000 141.715
40.52000 126.203
40.54000 115.474
40.56000 109.897
40.58000 105.334
40.60000 98.160
40.62000 91.813
40.64000 90.160
40.66000 85.268
40.68000 83.606
40.70000 77.105
40.72000 65.187
40.74000 62.828
40.76000 64.262
40.78000 63.455
40.80000 55.906
40.82000 50.005
40.84000 41.752
40.86000 43.202
40.88000 46.231
40.90000 44.450
40.92000 45.962
40.94000 39.804
40.96000 33.504
40.98000 33.764
41.00000 35.498
41.02000 35.556
41.04000 31.218
41.06000 26.993
41.08000 29.794
41.10000 28.182
41.12000 26.084
41.14000 27.085
41.16000 23.413
41.18000 19.002
41.20000 17.931
41.22000 20.013
41.24000 18.110
41.26000 15.659
41.28000 15.120
41.30000 14.765
41.32000 17.276
41.34000 12.579
41.36000 6.857
41.38000 11.908
41.40000 13.583
41.42000 12.991
41.44000 11.562
41.46000 11.181
41.48000 9.331
41.50000 7.860
41.52000 9.724
41.54000 9.248
41.56000 3.875
41.58000 7.134
41.60000 8.136
41.62000 7.490
41.64000 3.809
41.66000 1.718
41.68000 5.884
41.70000 5.622
41.72000 4.555
41.74000 0.861
41.76000 -0.475
41.78000 1.881
41.80000 4.331
41.82000 -0.891
41.84000 -3.469
41.86000 -3.428
41.88000 -0.386
41.90000 3.246
41.92000 2.328
41.94000 2.584
41.96000 -0.114
41.98000 -2.157
42.00000 0.865
42.02000 4.015
42.04000 3.027
42.06000 2.455
42.08000 -1.182
42.10000 4.325
42.12000 4.030
42.14000 2.312
42.16000 2.362
42.18000 -0.600
42.20000 -2.077
42.22000 2.144
42.24000 2.934
42.26000 -1.330
42.28000 -3.212
42.30000 -0.144
42.32000 1.796
42.34000 -0.950
42.36000 -2.907
42.38000 -0.084
42.40000 1.681
42.42000 -2.381
42.44000 -0.298
42.46000 -2.817
42.48000 3.615
42.50000 2.851
42.52000 -2.486
42.54000 -1.695
42.56000 1.254
42.58000 0.425
42.60000 1.193
42.62000 -0.891
42.64000 0.614
42.66000 2.273
42.68000 -0.231
42.70000 0.939
42.72000 0.463
42.74000 0.971
42.76000 1.503
42.78000 2.437
42.80000 1.573
42.82000 4.848
42.84000 -0.491
42.86000 -0.590
42.88000 1.066
42.90000 2.513
42.92000 1.351
42.94000 -3.267
42.96000 -2.082
42.98000 2.247
43.00000 3.509
43.02000 -0.940
43.04000 0.215
43.06000 -1.539
43.08000 1.549
43.10000 2.362
43.12000 2.564
43.14000 3.041
43.16000 -0.301
43.18000 0.074
43.20000 0.524
43.22000 1.821
43.24000 2.372
43.26000 3.311
43.28000 -0.011
43.30000 3.301
43.32000 2.243
43.34000 -1.270
43.36000 -0.506
43.38000 5.245
43.40000 1.953
43.42000 1.542
43.44000 2.253
43.46000 2.694
43.48000 1.278
43.50000 -1.130
43.52000 -3.186
43.54000 1.089
43.56000 5.323
43.58000 5.732
43.60000 0.784
43.62000 -0.083
43.64000 0.738
43.66000 2.715
43.68000 1.842
43.70000 3.429
43.72000 2.988
43.74000 3.517
43.76000 2.569
43.78000 1.834
43.80000 3.873
43.82000 6.437
43.84000 4.041
43.86000 1.932
43.88000 0.169
43.90000 5.353
43.92000 0.769
43.94000 2.809
43.96000 1.046
43.98000 1.123
44.00000 2.024
44.02000 3.741
44.04000 1.524
44.06000 -0.137
44.08000 0.577
44.10000 -1.826
44.12000 2.680
44.14000 3.483
44.16000 3.180
44.18000 4.335
44.20000 2.222
44.22000 -0.695
44.24000 -1.606
44.26000 0.739
44.28000 -1.229
44.30000 -3.166
44.32000 1.726
44.34000 0.926
44.36000 2.654
44.38000 5.690
44.40000 3.849
44.42000 0.082
44.44000 -1.268
44.46000 -1.906
44.48000 -1.965
44.50000 -3.161
44.52000 -0.995
44.54000 3.398
44.56000 5.083
44.58000 3.170
44.60000 1.282
44.62000 2.076
44.64000 2.260
44.66000 1.499
44.68000 6.310
44.70000 4.460
44.72000 2.361
44.74000 -0.807
44.76000 0.578
44.78000 -0.541
44.80000 -1.305
44.82000 2.235
44.84000 3.854
44.86000 3.977
44.88000 1.549
44.90000 0.209
44.92000 5.743
44.94000 7.169
44.96000 7.028
44.98000 4.622
45.00000 7.537
45.02000 3.721
45.04000 4.035
45.06000 0.589
45.08000 2.508
45.10000 3.111
45.12000 5.366
45.14000 4.409
45.16000 4.571
45.18000 3.322
45.20000 3.462
45.22000 7.879
45.24000 9.491
45.26000 9.596
45.28000 10.995
45.30000 6.745
45.32000 9.720
45.34000 10.169
45.36000 8.290
45.38000 8.562
45.40000 8.293
45.42000 10.707
45.44000 10.182
45.46000 10.889
45.48000 14.435
45.50000 14.048
45.52000 15.757
45.54000 13.173
45.56000 17.461
45.58000 18.601
45.60000 17.375
45.62000 17.484
45.64000 21.559
45.66000 22.617
45.68000 21.577
45.70000 24.942
45.72000 26.204
45.74000 23.372
45.76000 28.689
45.78000 28.824
45.80000 30.765
45.82000 30.564
45.84000 33.000
45.86000 32.351
45.88000 35.050
45.90000 34.284
45.92000 35.771
45.94000 42.349
45.96000 44.912
45.98000 46.121
46.00000 42.972
46.02000 43.089
46.04000 46.069
46.06000 48.994
46.08000 49.852
46.10000 54.260
46.12000 48.392
46.14000 52.270
46.16000 57.493
46.18000 59.042
46.20000 65.423
46.22000 64.413
46.24000 63.540
46.26000 62.615
46.28000 65.852
46.30000 65.618
46.32000 71.851
46.34000 75.481
46.36000 73.534
46.38000 74.196
46.40000 80.162
46.42000 72.384
46.44000 70.799
46.46000 70.390
46.48000 69.034
46.50000 72.182
46.52000 73.040
46.54000 75.419
46.56000 74.262
46.58000 71.208
46.60000 72.739
46.62000 72.669
46.64000 73.817
46.66000 70.313
46.68000 71.046
46.70000 68.909
46.72000 72.482
46.74000 68.896
46.76000 67.676
46.78000 66.580
46.80000 61.401
46.82000 56.779
46.84000 55.445
46.86000 55.514
46.88000 51.415
46.90000 52.396
46.92000 51.384
46.94000 51.338
46.96000 46.199
46.98000 36.770
47.00000 35.459
47.02000 38.413
47.04000 39.651
47.06000 36.514
47.08000 31.871
47.10000 26.405
47.12000 26.569
47.14000 26.343
47.16000 24.130
47.18000 22.764
47.20000 19.819
47.22000 23.131
47.24000 20.644
47.26000 18.442
47.28000 15.448
47.30000 13.542
47.32000 10.707
47.34000 8.266
47.36000 12.098
47.38000 13.977
47.40000 12.199
47.42000 7.300
47.44000 7.123
47.46000 9.449
47.48000 8.203
47.50000 6.692
47.52000 6.357
47.54000 5.288
47.56000 3.103
47.58000 4.969
47.60000 6.246
47.62000 5.322
47.64000 4.347
47.66000 4.370
47.68000 5.318
47.70000 2.448
47.72000 0.310
47.74000 1.394
47.76000 1.446
47.78000 1.408
47.80000 4.205
47.82000 5.917
47.84000 4.931
47.86000 0.571
47.88000 2.722
47.90000 6.205
47.92000 7.211
47.94000 3.714
47.96000 1.130
47.98000 3.309
48.00000 3.256
48.02000 -2.803
48.04000 -2.492
48.06000 0.064
48.08000 0.975
48.10000 -1.840
48.12000 1.497
48.14000 2.301
48.16000 -1.019
48.18000 -1.467
48.20000 -2.771
48.22000 1.250
48.24000 2.402
48.26000 0.284
48.28000 0.233
48.30000 0.846
48.32000 0.997
48.34000 0.907
48.36000 1.670
48.38000 -0.179
48.40000 1.720
48.42000 -0.544
48.44000 -2.577
48.46000 -1.503
48.48000 -1.045
48.50000 -2.719
48.52000 1.883
48.54000 -1.128
48.56000 3.455
48.58000 2.266
48.60000 1.610
48.62000 0.768
48.64000 -0.841
48.66000 0.185
48.68000 0.594
48.70000 4.705
48.72000 5.019
48.74000 1.791
48.76000 -0.717
48.78000 -2.688
48.80000 -1.308
48.82000 6.573
48.84000 1.905
48.86000 1.567
48.88000 1.137
48.90000 -0.192
48.92000 1.899
48.94000 0.972
48.96000 1.082
48.98000 -0.673
49.00000 5.498
49.02000 2.483
49.04000 -1.065
49.06000 4.392
49.08000 8.023
49.10000 1.513
49.12000 2.384
49.14000 4.988
49.16000 3.461
49.18000 2.592
49.20000 1.730
49.22000 4.591
49.24000 2.257
49.26000 0.107
49.28000 1.275
49.30000 1.127
49.32000 -1.257
49.34000 -2.649
49.36000 -0.531
49.38000 1.346
49.40000 -1.632
49.42000 2.866
49.44000 4.859
49.46000 -0.407
49.48000 -1.934
49.50000 1.174
49.52000 3.696
49.54000 2.282
49.56000 -1.392
49.58000 -0.189
49.60000 -1.291
49.62000 -0.442
49.64000 1.591
49.66000 -0.300
49.68000 -0.610
49.70000 1.504
49.72000 4.843
49.74000 3.196
49.76000 4.072
49.78000 -0.531
49.80000 1.467
49.82000 4.202
49.84000 2.008
49.86000 1.201
49.88000 -1.736
49.90000 -0.056
49.92000 2.134
49.94000 0.441
49.96000 0.783
49.98000 3.839
50.00000 3.799
50.02000 1.126
50.04000 -1.705
50.06000 -2.602
50.08000 -0.748
50.10000 3.534
50.12000 4.266
50.14000 0.658
50.16000 0.618
50.18000 3.290
50.20000 2.356
50.22000 -0.994
50.24000 -0.362
50.26000 -2.562
50.28000 -0.449
50.30000 -0.410
50.32000 2.742
50.34000 1.930
50.36000 0.108
50.38000 -1.492
50.40000 0.137
50.42000 0.373
50.44000 1.955
50.46000 0.367
50.48000 -1.412
50.50000 -1.186
50.52000 -0.343
50.54000 0.689
50.56000 3.411
50.58000 4.087
50.60000 2.271
50.62000 2.281
50.64000 4.507
50.66000 0.870
50.68000 -0.864
50.70000 1.570
50.72000 1.524
50.74000 -0.758
50.76000 0.192
50.78000 -1.331
50.80000 0.368
50.82000 2.644
50.84000 3.164
50.86000 -2.412
50.88000 -1.146
50.90000 0.596
50.92000 -0.406
50.94000 1.529
50.96000 1.208
50.98000 2.042
51.00000 0.607
51.02000 3.786
51.04000 3.627
51.06000 2.735
51.08000 1.302
51.10000 -1.189
51.12000 -0.497
51.14000 -1.473
51.16000 3.110
51.18000 4.305
51.20000 4.175
51.22000 -0.673
51.24000 0.977
51.26000 1.992
51.28000 3.151
51.30000 0.381
51.32000 -2.551
51.34000 2.647
51.36000 0.885
51.38000 1.177
51.40000 2.990
51.42000 2.635
51.44000 1.985
51.46000 0.777
51.48000 -1.252
51.50000 3.317
51.52000 4.290
51.54000 2.175
51.56000 0.649
51.58000 4.268
51.60000 0.086
51.62000 -0.825
51.64000 0.751
51.66000 3.512
51.68000 3.393
51.70000 2.473
51.72000 -0.608
51.74000 -1.202
51.76000 -0.722
51.78000 2.133
51.80000 1.683
51.82000 -2.540
51.84000 -0.786
51.86000 0.624
51.88000 -1.701
51.90000 0.508
51.92000 1.781
51.94000 1.640
51.96000 0.091
51.98000 1.658
52.00000 4.597
52.02000 3.238
52.04000 2.274
52.06000 1.417
52.08000 2.211
52.10000 1.950
52.12000 0.682
52.14000 5.745
52.16000 6.854
52.18000 2.255
52.20000 0.526
52.22000 2.018
52.24000 -0.947
52.26000 -0.635
52.28000 2.634
52.30000 0.109
52.32000 1.063
52.34000 1.298
52.36000 0.808
52.38000 0.669
52.40000 1.312
52.42000 1.710
52.44000 1.026
52.46000 1.319
52.48000 -0.968
52.50000 2.158
52.52000 5.429
52.54000 0.772
52.56000 0.252
52.58000 0.360
52.60000 -1.134
52.62000 -2.517
52.64000 1.859
52.66000 2.542
52.68000 4.333
52.70000 2.117
52.72000 2.263
52.74000 -0.980
52.76000 -2.514
52.78000 1.936
52.80000 4.238
52.82000 3.581
52.84000 3.921
52.86000 3.058
52.88000 1.115
52.90000 -1.943
52.92000 0.407
52.94000 3.931
52.96000 6.444
52.98000 1.461
53.00000 -1.418
53.02000 0.938
53.04000 0.794
53.06000 -0.829
53.08000 -2.509
53.10000 -0.988
53.12000 1.805
53.14000 2.221
53.16000 0.536
53.18000 -1.586
53.20000 -0.605
53.22000 1.358
53.24000 0.783
53.26000 -1.321
53.28000 0.636
53.30000 -0.056
53.32000 -0.758
53.34000 1.766
53.36000 -0.145
53.38000 -1.329
53.40000 -1.810
53.42000 1.990
53.44000 2.464
53.46000 2.368
53.48000 3.256
53.50000 -2.498
53.52000 0.305
53.54000 1.350
53.56000 4.011
53.58000 2.355
53.60000 1.903
53.62000 3.865
53.64000 5.355
53.66000 1.047
53.68000 -1.952
53.70000 0.626
53.72000 3.224
53.74000 4.937
53.76000 3.633
53.78000 2.683
53.80000 2.657
53.82000 -2.253
53.84000 1.293
53.86000 5.319
53.88000 5.246
53.90000 3.868
53.92000 1.057
53.94000 1.309
53.96000 0.720
53.98000 -0.121
54.00000 0.270
54.02000 -0.529
54.04000 -1.036
54.06000 -1.146
54.08000 2.998
54.10000 3.804
54.12000 1.610
54.14000 0.751
54.16000 -2.473
54.18000 -1.896
54.20000 -1.201
54.22000 1.165
54.24000 3.294
54.26000 3.228
54.28000 -0.273
54.30000 1.611
54.32000 4.489
54.34000 2.250
54.36000 2.341
54.38000 4.100
54.40000 -1.143
54.42000 -2.219
54.44000 0.449
54.46000 2.769
54.48000 1.938
54.50000 1.361
54.52000 -1.923
54.54000 5.494
54.56000 3.735
54.58000 2.257
54.60000 2.429
54.62000 1.900
54.64000 2.238
54.66000 0.380
54.68000 3.219
54.70000 3.964
54.72000 3.010
54.74000 2.573
54.76000 4.466
54.78000 4.881
54.80000 2.287
54.82000 -1.113
54.84000 -0.039
54.86000 1.514
54.88000 4.656
54.90000 1.982
54.92000 0.497
54.94000 -1.060
54.96000 1.238
54.98000 2.970
55.00000 1.360
55.02000 2.766
55.04000 3.651
55.06000 5.582
55.08000 1.919
55.10000 -2.442
55.12000 -0.988
55.14000 3.137
55.16000 3.160
55.18000 2.832
55.20000 5.696
55.22000 2.108
55.24000 0.987
55.26000 4.210
55.28000 5.151
55.30000 4.258
55.32000 2.044
55.34000 1.351
55.36000 2.823
55.38000 0.240
55.40000 0.374
55.42000 -1.576
55.44000 -0.676
55.46000 0.593
55.48000 0.608
55.50000 1.865
55.52000 1.709
55.54000 3.357
55.56000 2.323
55.58000 3.467
55.60000 1.934
55.62000 -0.662
55.64000 0.397
55.66000 2.426
55.68000 5.933
55.70000 6.131
55.72000 3.406
55.74000 2.921
55.76000 1.540
55.78000 1.975
55.80000 1.385
55.82000 -0.013
55.84000 -0.721
55.86000 1.026
55.88000 1.990
55.90000 6.226
55.92000 3.673
55.94000 2.375
55.96000 0.648
55.98000 -2.393
56.00000 1.545
56.02000 6.761
56.04000 4.841
56.06000 4.352
56.08000 4.450
56.10000 3.436
56.12000 5.034
56.14000 2.890
56.16000 2.211
56.18000 1.959
56.20000 2.725
56.22000 2.090
56.24000 2.098
56.26000 2.181
56.28000 -0.834
56.30000 4.519
56.32000 4.382
56.34000 1.267
56.36000 2.665
56.38000 4.472
56.40000 5.935
56.42000 2.247
56.44000 1.084
56.46000 7.975
56.48000 2.710
56.50000 0.612
56.52000 -0.153
56.54000 2.883
56.56000 13.020
56.58000 9.642
56.60000 5.958
56.62000 2.507
56.64000 1.711
56.66000 4.823
56.68000 3.964
56.70000 1.842
56.72000 0.131
56.74000 2.548
56.76000 1.140
56.78000 -1.974
56.80000 3.757
56.82000 2.187
56.84000 1.298
56.86000 1.852
56.88000 3.618
56.90000 6.493
56.92000 5.071
56.94000 2.496
56.96000 3.056
56.98000 -2.391
57.00000 3.500
57.02000 3.028
57.04000 5.689
57.06000 4.788
57.08000 4.601
57.10000 3.664
57.12000 4.859
57.14000 1.646
57.16000 4.830
57.18000 2.055
57.20000 3.260
57.22000 3.132
57.24000 5.453
57.26000 5.388
57.28000 2.199
57.30000 1.683
57.32000 1.765
57.34000 1.385
57.36000 0.536
57.38000 4.145
57.40000 0.120
57.42000 0.425
57.44000 3.389
57.46000 4.528
57.48000 3.094
57.50000 3.020
57.52000 4.349
57.54000 3.300
57.56000 5.047
57.58000 -0.525
57.60000 1.225
57.62000 1.908
57.64000 2.948
57.66000 2.605
57.68000 1.925
57.70000 2.872
57.72000 1.681
57.74000 1.304
57.76000 1.733
57.78000 3.087
57.80000 0.969
57.82000 -1.421
57.84000 -2.371
57.86000 1.227
57.88000 0.934
57.90000 0.998
57.92000 1.608
57.94000 3.013
57.96000 1.388
57.98000 1.764
58.00000 1.853
58.02000 1.958
58.04000 -0.175
58.06000 2.948
58.08000 1.843
58.10000 3.388
58.12000 3.092
58.14000 3.951
58.16000 0.879
58.18000 0.200
58.20000 2.014
58.22000 3.709
58.24000 -0.375
58.26000 -1.491
58.28000 -1.303
58.30000 3.333
58.32000 2.818
58.34000 2.369
58.36000 4.582
58.38000 2.826
58.40000 -2.152
58.42000 0.241
58.44000 3.791
58.46000 5.418
58.48000 1.988
58.50000 3.798
58.52000 3.926
58.54000 3.094
58.56000 3.489
58.58000 4.592
58.60000 1.815
58.62000 0.781
58.64000 3.691
58.66000 2.729
58.68000 -0.165
58.70000 0.443
58.72000 1.644
58.74000 1.737
58.76000 0.725
58.78000 -0.551
58.80000 1.046
58.82000 1.689
58.84000 2.120
58.86000 2.921
58.88000 3.833
58.90000 3.820
58.92000 1.179
58.94000 1.336
58.96000 4.726
58.98000 1.694
59.00000 -2.037
59.02000 -2.348
59.04000 2.416
59.06000 3.442
59.08000 2.279
59.10000 1.562
59.12000 3.248
59.14000 0.275
59.16000 0.777
59.18000 1.522
59.20000 0.169
59.22000 3.592
59.24000 2.234
59.26000 1.425
59.28000 4.273
59.30000 1.455
59.32000 0.779
59.34000 3.345
59.36000 3.747
59.38000 2.591
59.40000 0.757
59.42000 1.989
59.44000 2.250
59.46000 5.561
59.48000 5.188
59.50000 0.848
59.52000 -0.245
59.54000 2.529
59.56000 6.136
59.58000 4.481
59.60000 -1.829
59.62000 0.501
59.64000 -1.061
59.66000 -1.510
59.68000 3.317
59.70000 3.382
59.72000 3.158
59.74000 1.976
59.76000 1.052
59.78000 4.414
59.80000 -2.294
59.82000 0.169
59.84000 2.394
59.86000 3.349
59.88000 3.230
59.90000 5.117
59.92000 4.005
59.94000 3.488
59.96000 -1.867
59.98000 -0.815
60.00000 0.376
60.02000 0.764
60.04000 4.619
60.06000 2.284
60.08000 0.913
60.10000 1.878
60.12000 4.056
60.14000 3.500
60.16000 -1.053
60.18000 0.757
60.20000 2.379
60.22000 0.921
60.24000 -2.309
60.26000 -0.215
60.28000 -0.071
60.30000 0.252
60.32000 3.409
60.34000 1.768
60.36000 2.076
60.38000 1.010
60.40000 3.581
60.42000 1.343
60.44000 -1.971
60.46000 0.448
60.48000 -1.986
60.50000 -2.311
60.52000 1.882
60.54000 -1.185
60.56000 -2.244
60.58000 0.019
60.60000 3.615
60.62000 2.860
60.64000 4.546
60.66000 0.610
60.68000 -0.167
60.70000 1.319
60.72000 2.833
60.74000 0.844
60.76000 -0.536
60.78000 0.872
60.80000 3.071
60.82000 3.028
60.84000 1.794
60.86000 1.339
60.88000 0.112
60.90000 1.773
60.92000 -2.151
60.94000 -2.310
60.96000 0.737
60.98000 1.249
61.00000 1.469
61.02000 2.992
61.04000 2.023
61.06000 1.506
61.08000 4.555
61.10000 4.215
61.12000 4.637
61.14000 3.920
61.16000 3.090
61.18000 1.362
61.20000 0.108
61.22000 0.528
61.24000 2.118
61.26000 2.383
61.28000 0.017
61.30000 -1.503
61.32000 -0.645
61.34000 -2.276
61.36000 -0.035
61.38000 1.720
61.40000 3.250
61.42000 4.660
61.44000 1.626
61.46000 -0.374
61.48000 -1.805
61.50000 -0.661
61.52000 1.631
61.54000 2.387
61.56000 -0.666
61.58000 2.594
61.60000 3.067
61.62000 0.225
61.64000 -0.956
61.66000 2.123
61.68000 3.245
61.70000 0.201
61.72000 -0.051
61.74000 0.105
61.76000 0.348
61.78000 2.393
61.80000 -0.976
61.82000 -2.282
61.84000 3.088
61.86000 5.156
61.88000 2.539
61.90000 3.772
61.92000 2.483
61.94000 2.087
61.96000 3.340
61.98000 0.749
62.00000 -0.803
62.02000 0.067
62.04000 1.069
62.06000 4.377
62.08000 2.454
62.10000 -1.404
62.12000 -2.265
62.14000 0.255
62.16000 4.594
62.18000 3.028
62.20000 1.390
62.22000 0.243
62.24000 0.507
62.26000 -1.315
62.28000 0.921
62.30000 2.665
62.32000 2.688
62.34000 0.149
62.36000 0.794
62.38000 0.242
62.40000 0.903
62.42000 1.483
62.44000 1.180
62.46000 0.156
62.48000 -0.286
62.50000 0.296
62.52000 -0.487
62.54000 1.576
62.56000 1.603
62.58000 2.502
62.60000 1.790
62.62000 2.328
62.64000 5.732
62.66000 3.204
62.68000 2.772
62.70000 2.943
62.72000 2.109
62.74000 -0.326
62.76000 0.364
62.78000 1.157
62.80000 1.397
62.82000 2.091
62.84000 -2.226
62.86000 -0.854
62.88000 0.867
62.90000 2.635
62.92000 3.224
62.94000 0.842
62.96000 1.855
62.98000 1.693
63.00000 1.613
63.02000 0.263
63.04000 2.154
63.06000 0.854
63.08000 3.394
63.10000 6.610
63.12000 3.561
63.14000 0.900
63.16000 1.414
63.18000 3.946
63.20000 1.975
63.22000 1.976
63.24000 3.422
63.26000 3.250
63.28000 1.515
63.30000 -0.309
63.32000 -1.504
63.34000 1.997
63.36000 1.381
63.38000 -1.204
63.40000 1.321
63.42000 0.759
63.44000 1.682
63.46000 3.445
63.48000 2.212
63.50000 2.790
63.52000 3.732
63.54000 2.557
63.56000 3.857
63.58000 3.855
63.60000 1.286
63.62000 -0.699
63.64000 -2.214
63.66000 1.128
63.68000 2.824
63.70000 0.461
63.72000 2.193
63.74000 0.646
63.76000 -0.172
63.78000 1.547
63.80000 1.823
63.82000 2.792
63.84000 1.966
63.86000 1.779
63.88000 6.966
63.90000 3.030
63.92000 0.181
63.94000 5.320
63.96000 4.888
63.98000 3.877
64.00000 2.701
64.02000 3.349
64.04000 2.529
64.06000 4.037
64.08000 1.717
64.10000 3.685
64.12000 6.717
64.14000 2.927
64.16000 0.356
64.18000 -0.425
64.20000 2.776
64.22000 3.986
64.24000 1.335
64.26000 3.043
64.28000 0.595
64.30000 3.842
64.32000 1.911
64.34000 0.624
64.36000 -0.814
64.38000 -1.285
64.40000 0.243
64.42000 0.938
64.44000 0.282
64.46000 0.328
64.48000 2.031
64.50000 0.820
64.52000 1.081
64.54000 0.272
64.56000 0.997
64.58000 1.635
64.60000 0.291
64.62000 2.827
64.64000 5.176
64.66000 3.084
64.68000 2.235
64.70000 0.670
64.72000 0.754
64.74000 0.778
64.76000 3.016
64.78000 1.541
64.80000 -0.834
64.82000 -2.227
64.84000 1.337
64.86000 2.324
64.88000 0.065
64.90000 0.588
64.92000 -1.499
64.94000 -2.094
64.96000 -0.973
64.98000 -0.452
65.00000 0.511
65.02000 0.032
65.04000 0.446
65.06000 2.221
65.08000 1.920
65.10000 0.398
65.12000 5.937
65.14000 4.308
65.16000 1.612
65.18000 4.098
65.20000 1.799
65.22000 3.735
65.24000 3.864
65.26000 4.414
65.28000 0.693
65.30000 1.895
65.32000 2.420
65.34000 1.237
65.36000 2.091
65.38000 2.896
65.40000 2.288
65.42000 1.669
65.44000 3.051
65.46000 3.195
65.48000 2.241
65.50000 1.360
65.52000 0.270
65.54000 0.643
65.56000 -0.934
65.58000 3.860
65.60000 5.560
65.62000 4.441
65.64000 0.282
65.66000 -2.215
65.68000 2.283
65.70000 1.278
65.72000 0.640
65.74000 0.195
65.76000 -1.150
65.78000 -2.044
65.80000 0.594
65.82000 1.394
65.84000 1.488
65.86000 0.444
65.88000 -0.296
65.90000 -0.180
65.92000 -0.345
65.94000 1.591
65.96000 -1.114
65.98000 -0.007
66.00000 0.072
66.02000 -0.871
66.04000 1.280
66.06000 1.178
66.08000 -0.426
66.10000 -0.003
66.12000 -1.033
66.14000 -0.585
66.16000 1.757
66.18000 0.769
66.20000 1.288
66.22000 2.074
66.24000 2.304
66.26000 0.030
66.28000 2.294
66.30000 -0.838
66.32000 0.444
66.34000 -2.250
66.36000 -2.173
66.38000 -1.184
66.40000 1.367
66.42000 -0.768
66.44000 0.040
66.46000 1.960
66.48000 2.995
66.50000 0.293
66.52000 1.396
66.54000 3.138
66.56000 1.813
66.58000 -1.349
66.60000 0.891
66.62000 3.147
66.64000 3.302
66.66000 1.929
66.68000 -0.229
66.70000 -1.300
66.72000 3.258
66.74000 2.407
66.76000 2.008
66.78000 2.700
66.80000 2.841
66.82000 5.032
66.84000 4.475
66.86000 2.704
66.88000 1.501
66.90000 2.276
66.92000 2.484
66.94000 -0.901
66.96000 3.694
66.98000 5.670
67.00000 3.903
67.02000 6.834
67.04000 7.849
67.06000 3.908
67.08000 2.656
67.10000 3.609
67.12000 5.944
67.14000 4.101
67.16000 3.301
67.18000 8.208
67.20000 7.673
67.22000 8.545
67.24000 8.850
67.26000 10.099
67.28000 10.080
67.30000 9.896
67.32000 7.425
67.34000 4.460
67.36000 6.306
67.38000 9.594
67.40000 11.136
67.42000 9.498
67.44000 11.676
67.46000 11.792
67.48000 13.178
67.50000 12.208
67.52000 7.986
67.54000 7.818
67.56000 10.891
67.58000 11.806
67.60000 11.952
67.62000 14.164
67.64000 16.177
67.66000 13.560
67.68000 13.872
67.70000 10.378
67.72000 10.912
67.74000 11.852
67.76000 11.971
67.78000 16.738
67.80000 15.785
67.82000 13.312
67.84000 13.063
67.86000 13.680
67.88000 11.722
67.90000 12.192
67.92000 12.833
67.94000 14.455
67.96000 15.588
67.98000 14.735
68.00000 12.468
68.02000 8.847
68.04000 9.780
68.06000 9.811
68.08000 8.654
68.10000 9.788
68.12000 8.341
68.14000 5.423
68.16000 5.160
68.18000 7.564
68.20000 7.791
68.22000 6.361
68.24000 4.606
68.26000 2.542
68.28000 5.391
68.30000 6.441
68.32000 6.453
68.34000 5.135
68.36000 7.225
68.38000 5.592
68.40000 3.872
68.42000 1.981
68.44000 4.004
68.46000 3.168
68.48000 1.440
68.50000 1.164
68.52000 -0.305
68.54000 0.179
68.56000 1.502
68.58000 0.988
68.60000 0.989
68.62000 -1.023
68.64000 -1.132
68.66000 -0.153
68.68000 -0.384
68.70000 1.159
68.72000 -0.416
68.74000 2.821
68.76000 2.353
68.78000 -1.045
68.80000 -1.120
68.82000 -0.105
68.84000 0.433
68.86000 0.812
68.88000 0.638
68.90000 2.297
68.92000 2.420
68.94000 4.740
68.96000 3.365
68.98000 2.923
69.00000 1.507
69.02000 0.118
69.04000 -0.831
69.06000 -1.696
69.08000 1.385
69.10000 1.491
69.12000 1.131
69.14000 -0.181
69.16000 -2.110
69.18000 -1.278
69.20000 -1.599
69.22000 1.368
69.24000 4.108
69.26000 1.897
69.28000 1.516
69.30000 1.613
69.32000 1.957
69.34000 -0.084
69.36000 -0.561
69.38000 2.597
69.40000 2.147
69.42000 0.390
69.44000 -1.772
69.46000 -1.563
69.48000 2.518
69.50000 3.355
69.52000 0.868
69.54000 -2.090
69.56000 -0.887
69.58000 -0.689
69.60000 1.758
69.62000 1.858
69.64000 2.772
69.66000 1.834
69.68000 -0.849
69.70000 -1.474
69.72000 1.564
69.74000 0.405
69.76000 -0.216
69.78000 -1.072
69.80000 -1.376
69.82000 -0.107
69.84000 1.131
69.86000 2.607
69.88000 0.243
69.90000 -2.074
69.92000 -1.562
69.94000 -0.703
69.96000 1.545
69.98000 2.083
70.00000 1.423
70.02000 -0.539
70.04000 -2.065
70.06000 0.135
70.08000 -0.455
70.10000 1.377
70.12000 1.136
70.14000 2.834
70.16000 1.750
70.18000 2.179
70.20000 0.329
70.22000 0.811
70.24000 0.905
70.26000 -0.943
70.28000 -0.926
70.30000 0.879
70.32000 1.591
70.34000 1.415
70.36000 1.662
70.38000 1.747
70.40000 -0.636
70.42000 -1.922
70.44000 1.669
70.46000 2.373
70.48000 1.265
70.50000 0.473
70.52000 -0.153
70.54000 -0.538
70.56000 1.881
70.58000 1.325
70.60000 0.704
70.62000 0.076
70.64000 0.716
70.66000 3.392
70.68000 0.933
70.70000 1.722
70.72000 -0.090
70.74000 -2.022
70.76000 0.468
70.78000 2.857
70.80000 4.935
70.82000 2.579
70.84000 0.610
70.86000 1.814
70.88000 1.399
70.90000 1.174
70.92000 0.302
70.94000 1.551
70.96000 4.487
70.98000 4.460
71.00000 3.811
71.02000 -0.817
71.04000 -0.543
71.06000 1.586
71.08000 1.989
71.10000 -0.507
71.12000 0.643
71.14000 1.108
71.16000 -0.059
71.18000 1.509
71.20000 2.027
71.22000 0.899
71.24000 1.822
71.26000 2.569
71.28000 2.309
71.30000 0.728
71.32000 1.194
71.34000 0.501
71.36000 3.207
71.38000 3.826
71.40000 3.081
71.42000 1.854
71.44000 1.222
71.46000 0.475
71.48000 -1.500
71.50000 -1.613
71.52000 0.848
71.54000 3.616
71.56000 2.935
71.58000 2.984
71.60000 3.429
71.62000 -1.552
71.64000 1.423
71.66000 3.937
71.68000 2.917
71.70000 1.031
71.72000 2.345
71.74000 1.084
71.76000 -0.009
71.78000 1.272
71.80000 3.815
71.82000 2.775
71.84000 2.103
71.86000 2.009
71.88000 1.403
71.90000 3.839
71.92000 4.856
71.94000 3.567
71.96000 -1.039
71.98000 -1.930
72.00000 1.481
72.02000 4.105
72.04000 2.639
72.06000 1.730
72.08000 2.916
72.10000 3.638
72.12000 -0.118
72.14000 0.946
72.16000 0.267
72.18000 0.037
72.20000 0.406
72.22000 0.873
72.24000 0.382
72.26000 2.559
72.28000 4.988
72.30000 1.086
72.32000 2.022
72.34000 1.735
72.36000 3.304
72.38000 3.527
72.40000 3.067
72.42000 3.237
72.44000 0.890
72.46000 0.898
72.48000 2.986
72.50000 1.072
72.52000 0.461
72.54000 0.944
72.56000 1.903
72.58000 0.634
72.60000 1.948
72.62000 4.987
72.64000 3.677
72.66000 1.919
72.68000 0.663
72.70000 0.642
72.72000 1.239
72.74000 4.883
72.76000 2.119
72.78000 -1.117
72.80000 1.271
72.82000 4.298
72.84000 3.116
72.86000 4.146
72.88000 1.977
72.90000 0.059
72.92000 3.396
72.94000 3.001
72.96000 1.442
72.98000 0.283
73.00000 -1.927
73.02000 1.525
73.04000 2.859
73.06000 1.427
73.08000 2.815
73.10000 0.952
73.12000 2.084
73.14000 5.137
73.16000 4.729
73.18000 2.616
73.20000 0.236
73.22000 0.843
73.24000 1.284
73.26000 1.891
73.28000 5.023
73.30000 1.806
73.32000 0.342
73.34000 0.896
73.36000 -0.759
73.38000 -1.885
73.40000 -1.939
73.42000 -0.084
73.44000 0.138
73.46000 1.314
73.48000 1.324
73.50000 0.387
73.52000 0.720
73.54000 1.449
73.56000 1.284
73.58000 1.223
73.60000 -1.317
73.62000 -1.792
73.64000 -0.924
73.66000 0.492
73.68000 2.981
73.70000 2.697
73.72000 2.824
73.74000 0.187
73.76000 0.757
73.78000 3.981
73.80000 1.423
73.82000 -0.076
73.84000 2.752
73.86000 5.383
73.88000 1.789
73.90000 2.025
73.92000 -0.466
73.94000 0.519
73.96000 -0.232
73.98000 -0.486
74.00000 2.646
74.02000 3.209
74.04000 1.288
74.06000 2.321
74.08000 4.799
74.10000 3.819
74.12000 0.881
74.14000 -0.769
74.16000 2.468
74.18000 0.127
74.20000 2.370
74.22000 1.385
74.24000 -0.896
74.26000 -1.929
74.28000 2.506
74.30000 3.082
74.32000 0.895
74.34000 1.173
74.36000 4.195
74.38000 6.015
74.40000 2.148
74.42000 0.212
74.44000 -1.191
74.46000 -0.247
74.48000 -1.635
74.50000 0.676
74.52000 2.876
74.54000 4.830
74.56000 1.828
74.58000 0.290
74.60000 0.014
74.62000 1.138
74.64000 0.554
74.66000 0.634
74.68000 3.276
74.70000 1.692
74.72000 0.983
74.74000 2.255
74.76000 3.525
74.78000 2.834
74.80000 1.547
74.82000 2.769
74.84000 2.353
74.86000 2.811
74.88000 4.055
74.90000 2.498
74.92000 0.493
74.94000 0.837
74.96000 -0.182
74.98000 0.855
75.00000 1.287
75.02000 -0.074
75.04000 0.246
75.06000 1.967
75.08000 0.793
75.10000 2.124
75.12000 1.961
75.14000 2.273
75.16000 3.893
75.18000 5.581
75.20000 1.944
75.22000 -0.098
75.24000 0.936
75.26000 -0.120
75.28000 0.758
75.30000 4.067
75.32000 2.927
75.34000 2.398
75.36000 0.870
75.38000 -0.144
75.40000 -1.894
75.42000 1.174
75.44000 1.585
75.46000 3.238
75.48000 1.647
75.50000 2.061
75.52000 1.619
75.54000 1.978
75.56000 2.453
75.58000 1.611
75.60000 -0.971
75.62000 -0.305
75.64000 5.029
75.66000 5.115
75.68000 -0.685
75.70000 -0.159
75.72000 -0.384
75.74000 0.356
75.76000 3.448
75.78000 1.792
75.80000 -0.848
75.82000 -0.117
75.84000 -1.877
75.86000 0.598
75.88000 3.309
75.90000 3.209
75.92000 1.914
75.94000 -0.662
75.96000 0.945
75.98000 1.975
76.00000 -1.687
76.02000 1.155
76.04000 1.370
76.06000 2.986
76.08000 0.665
76.10000 0.033
76.12000 1.202
76.14000 1.290
76.16000 2.178
76.18000 2.768
76.20000 2.385
76.22000 2.367
76.24000 0.905
76.26000 2.115
76.28000 4.438
76.30000 2.637
76.32000 -0.802
76.34000 -1.938
76.36000 -0.800
76.38000 -1.208
76.40000 1.454
76.42000 1.319
76.44000 5.268
76.46000 6.688
76.48000 3.066
76.50000 0.189
76.52000 1.888
76.54000 -0.218
76.56000 2.788
76.58000 3.105
76.60000 1.838
76.62000 1.790
76.64000 6.087
76.66000 4.978
76.68000 1.300
76.70000 0.891
76.72000 3.022
76.74000 1.622
76.76000 -0.534
76.78000 -0.157
76.80000 0.341
76.82000 1.215
76.84000 0.058
76.86000 1.692
76.88000 1.621
76.90000 0.534
76.92000 1.152
76.94000 5.376
76.96000 3.505
76.98000 4.171
77.00000 1.354
77.02000 3.023
77.04000 0.638
77.06000 -1.597
77.08000 0.280
77.10000 -1.011
77.12000 1.434
77.14000 -0.237
77.16000 0.654
77.18000 4.107
77.20000 5.591
77.22000 4.599
77.24000 2.374
77.26000 1.006
77.28000 0.062
77.30000 -1.924
77.32000 -0.441
77.34000 0.633
77.36000 5.210
77.38000 4.583
77.40000 2.487
77.42000 -0.891
77.44000 -1.964
77.46000 1.178
77.48000 1.752
77.50000 1.194
77.52000 3.331
77.54000 0.020
77.56000 0.182
77.58000 1.451
77.60000 2.810
77.62000 1.749
77.64000 2.528
77.66000 1.615
77.68000 1.247
77.70000 1.222
77.72000 1.525
77.74000 0.233
77.76000 0.999
77.78000 1.965
77.80000 0.987
77.82000 2.323
77.84000 3.415
77.86000 2.575
77.88000 1.473
77.90000 1.219
77.92000 -1.176
77.94000 -1.962
77.96000 0.311
77.98000 1.096
78.00000 3.648
78.02000 1.673
78.04000 1.333
78.06000 0.656
78.08000 1.107
78.10000 0.294
78.12000 0.990
78.14000 3.114
78.16000 4.498
78.18000 1.901
78.20000 -0.529
78.22000 -1.637
78.24000 2.720
78.26000 -0.786
78.28000 3.242
78.30000 1.048
78.32000 0.260
78.34000 0.212
78.36000 2.138
78.38000 1.716
78.40000 4.986
78.42000 1.804
78.44000 -0.262
78.46000 -0.750
78.48000 0.294
78.50000 1.464
78.52000 3.198
78.54000 1.906
78.56000 -0.303
78.58000 0.676
78.60000 1.123
78.62000 0.151
78.64000 4.540
78.66000 2.658
78.68000 0.286
78.70000 2.019
78.72000 3.413
78.74000 3.819
78.76000 2.151
78.78000 -1.992
78.80000 -0.356
78.82000 2.736
78.84000 0.602
78.86000 1.647
78.88000 3.990
78.90000 1.888
78.92000 1.204
78.94000 5.227
78.96000 4.235
78.98000 4.345
79.00000 -1.355
79.02000 0.275
79.04000 1.120
79.06000 0.400
79.08000 -2.004
79.10000 -0.738
79.12000 1.585
79.14000 1.027
79.16000 0.941
79.18000 3.377
79.20000 0.027
79.22000 0.837
79.24000 2.425
79.26000 1.217
79.28000 4.571
79.30000 2.777
79.32000 -0.568
79.34000 -2.022
79.36000 1.527
79.38000 1.392
79.40000 3.260
79.42000 3.112
79.44000 0.419
79.46000 1.010
79.48000 1.141
79.50000 0.009
79.52000 1.933
79.54000 4.814
79.56000 3.821
79.58000 -0.351
79.60000 -0.609
79.62000 -2.042
79.64000 1.089
79.66000 1.265
79.68000 1.090
79.70000 1.964
79.72000 1.380
79.74000 3.760
79.76000 0.679
79.78000 -0.572
79.80000 -0.329
79.82000 -0.887
79.84000 0.609
79.86000 0.075
79.88000 -1.055
79.90000 1.247
79.92000 2.722
79.94000 2.217
79.96000 0.028
79.98000 4.765
80.00000 1.576
80.02000 1.725
80.04000 1.851
80.06000 5.492
80.08000 5.585
80.10000 3.225
80.12000 0.167
80.14000 -2.087
80.16000 -1.185
80.18000 2.125
80.20000 0.817
80.22000 2.138
80.24000 2.858
80.26000 2.049
80.28000 1.340
80.30000 2.676
80.32000 2.994
80.34000 1.725
80.36000 0.223
80.38000 2.538
80.40000 4.173
80.42000 5.111
80.44000 6.709
80.46000 4.731
80.48000 1.676
80.50000 1.799
80.52000 2.898
80.54000 4.430
80.56000 1.690
80.58000 4.604
80.60000 11.927
80.62000 6.395
80.64000 5.870
80.66000 5.327
80.68000 6.521
80.70000 9.749
80.72000 6.160
80.74000 8.949
80.76000 4.397
80.78000 2.192
80.80000 5.696
80.82000 7.597
80.84000 7.935
80.86000 8.631
80.88000 11.244
80.90000 11.194
80.92000 10.383
80.94000 12.073
80.96000 12.705
80.98000 13.112
81.00000 13.256
81.02000 12.282
81.04000 12.521
81.06000 11.155
81.08000 14.403
81.10000 12.492
81.12000 9.792
81.14000 9.331
81.16000 12.276
81.18000 12.562
81.20000 12.876
81.22000 13.223
81.24000 14.097
81.26000 15.432
81.28000 15.138
81.30000 15.618
81.32000 15.773
81.34000 17.946
81.36000 18.239
81.38000 19.661
81.40000 19.511
81.42000 18.068
81.44000 17.432
81.46000 17.476
81.48000 20.909
81.50000 21.574
81.52000 22.959
81.54000 24.376
81.56000 20.748
81.58000 20.196
81.60000 24.199
81.62000 22.002
81.64000 18.508
81.66000 22.336
81.68000 20.211
81.70000 20.390
81.72000 19.568
81.74000 21.712
81.76000 21.396
81.78000 18.130
81.80000 20.912
81.82000 18.740
81.84000 19.575
81.86000 20.079
81.88000 19.769
81.90000 23.574
81.92000 19.099
81.94000 19.053
81.96000 21.113
81.98000 19.958
82.00000 19.879
82.02000 16.308
82.04000 17.989
82.06000 18.757
82.08000 14.829
82.10000 15.334
82.12000 13.872
82.14000 10.343
82.16000 12.292
82.18000 15.341
82.20000 13.954
82.22000 14.985
82.24000 12.182
82.26000 10.115
82.28000 8.962
82.30000 13.063
82.32000 11.985
82.34000 9.400
82.36000 4.752
82.38000 6.739
82.40000 2.834
82.42000 2.523
82.44000 0.848
82.46000 4.143
82.48000 10.429
82.50000 10.082
82.52000 5.221
82.54000 7.394
82.56000 10.513
82.58000 7.818
82.60000 5.618
82.62000 5.509
82.64000 5.919
82.66000 4.632
82.68000 4.684
82.70000 4.848
82.72000 3.612
82.74000 3.328
82.76000 2.173
82.78000 0.144
82.80000 -1.673
82.82000 0.953
82.84000 3.491
82.86000 5.383
82.88000 0.650
82.90000 -0.588
82.92000 0.108
82.94000 -1.071
82.96000 -0.231
82.98000 1.209
83.00000 -0.703
83.02000 0.129
83.04000 -1.831
83.06000 -0.879
83.08000 -0.748
83.10000 -1.265
83.12000 -2.146
83.14000 -2.144
83.16000 3.317
83.18000 1.932
83.20000 -0.210
83.22000 -0.954
83.24000 -0.041
83.26000 0.870
83.28000 1.122
83.30000 0.782
83.32000 0.757
83.34000 -0.072
83.36000 -1.787
83.38000 -1.139
83.40000 0.857
83.42000 3.559
83.44000 1.805
83.46000 1.462
83.48000 0.875
83.50000 0.153
83.52000 -0.598
83.54000 2.119
83.56000 0.007
83.58000 1.277
83.60000 0.220
83.62000 -0.304
83.64000 -2.088
83.66000 -0.718
83.68000 0.436
83.70000 0.234
83.72000 3.946
83.74000 3.527
83.76000 3.535
83.78000 4.110
83.80000 1.378
83.82000 0.553
83.84000 -0.266
83.86000 0.991
83.88000 2.039
83.90000 3.604
83.92000 2.064
83.94000 0.158
83.96000 -0.080
83.98000 -2.105
84.00000 -1.484
84.02000 -1.921
84.04000 -0.882
84.06000 -0.375
84.08000 -0.993
84.10000 1.626
84.12000 3.504
84.14000 -2.115
84.16000 -1.710
84.18000 0.327
84.20000 2.937
84.22000 4.302
84.24000 2.476
84.26000 0.085
84.28000 0.789
84.30000 -0.346
84.32000 -2.018
84.34000 -0.079
84.36000 1.331
84.38000 1.282
84.40000 1.710
84.42000 3.400
84.44000 -0.454
84.46000 -1.116
84.48000 -2.132
84.50000 2.531
84.52000 4.728
84.54000 5.398
84.56000 2.618
84.58000 2.477
84.60000 2.225
84.62000 5.766
84.64000 4.995
84.66000 7.070
84.68000 3.854
84.70000 3.745
84.72000 3.760
84.74000 0.496
84.76000 3.917
84.78000 4.130
84.80000 6.828
84.82000 7.054
84.84000 7.682
84.86000 6.513
84.88000 8.106
84.90000 9.556
84.92000 4.417
84.94000 4.006
84.96000 8.836
84.98000 6.890
85.00000 9.402
85.02000 9.131
85.04000 12.455
85.06000 15.110
85.08000 12.883
85.10000 11.374
85.12000 14.124
85.14000 13.826
85.16000 11.979
85.18000 14.774
85.20000 17.389
85.22000 11.419
85.24000 12.714
85.26000 15.377
85.28000 15.050
85.30000 16.150
85.32000 16.032
85.34000 14.463
85.36000 15.033
85.38000 17.734
85.40000 20.075
85.42000 18.614
85.44000 15.423
85.46000 16.687
85.48000 18.305
85.50000 22.940
85.52000 20.454
85.54000 21.036
85.56000 20.658
85.58000 18.322
85.60000 23.443
85.62000 23.512
85.64000 20.061
85.66000 19.500
85.68000 21.385
85.70000 22.436
85.72000 18.055
85.74000 18.761
85.76000 21.839
85.78000 19.743
85.80000 19.942
85.82000 21.794
85.84000 20.714
85.86000 21.225
85.88000 20.730
85.90000 20.718
85.92000 21.802
85.94000 19.594
85.96000 20.460
85.98000 20.335
86.00000 17.752
86.02000 19.888
86.04000 21.079
86.06000 19.065
86.08000 18.381
86.10000 18.091
86.12000 18.745
86.14000 14.231
86.16000 10.388
86.18000 11.046
86.20000 12.053
86.22000 12.296
86.24000 11.384
86.26000 14.610
86.28000 11.913
86.30000 7.780
86.32000 9.557
86.34000 11.230
86.36000 10.527
86.38000 8.916
86.40000 5.445
86.42000 5.234
86.44000 7.165
86.46000 9.659
86.48000 8.592
86.50000 8.922
86.52000 3.556
86.54000 2.532
86.56000 1.337
86.58000 2.939
86.60000 4.320
86.62000 3.543
86.64000 4.461
86.66000 6.127
86.68000 2.265
86.70000 1.088
86.72000 2.438
86.74000 4.586
86.76000 4.407
86.78000 2.225
86.80000 4.551
86.82000 2.046
86.84000 2.383
86.86000 2.381
86.88000 1.766
86.90000 5.038
86.92000 1.292
86.94000 -0.287
86.96000 2.750
86.98000 1.207
87.00000 1.028
87.02000 2.194
87.04000 1.747
87.06000 0.659
87.08000 0.616
87.10000 1.982
87.12000 2.798
87.14000 -1.525
87.16000 0.236
87.18000 0.785
87.20000 -1.928
87.22000 -0.251
87.24000 0.514
87.26000 1.393
87.28000 1.991
87.30000 0.254
87.32000 1.182
87.34000 0.313
87.36000 -0.662
87.38000 -1.554
87.40000 -0.071
87.42000 1.314
87.44000 -0.295
87.46000 2.146
87.48000 1.087
87.50000 0.223
87.52000 1.286
87.54000 0.229
87.56000 1.578
87.58000 0.492
87.60000 0.694
87.62000 0.201
87.64000 -0.613
87.66000 0.224
87.68000 2.409
87.70000 4.311
87.72000 2.034
87.74000 2.296
87.76000 -0.107
87.78000 1.475
87.80000 4.605
87.82000 1.001
87.84000 -1.847
87.86000 2.059
87.88000 4.221
87.90000 0.821
87.92000 1.079
87.94000 3.371
87.96000 3.421
87.98000 2.060
88.00000 1.872
88.02000 0.957
88.04000 0.756
88.06000 2.575
88.08000 0.874
88.10000 3.068
88.12000 5.067
88.14000 1.386
88.16000 0.237
88.18000 2.133
88.20000 1.895
88.22000 1.967
88.24000 1.355
88.26000 0.369
88.28000 3.182
88.30000 0.460
88.32000 0.528
88.34000 2.841
88.36000 1.444
88.38000 3.573
88.40000 3.483
88.42000 1.991
88.44000 -0.609
88.46000 -0.532
88.48000 1.236
88.50000 2.482
88.52000 5.441
88.54000 2.832
88.56000 -0.238
88.58000 -1.822
88.60000 -0.132
88.62000 0.989
88.64000 1.107
88.66000 -0.071
88.68000 -0.086
88.70000 0.268
88.72000 -0.077
88.74000 0.801
88.76000 -0.953
88.78000 0.580
88.80000 3.288
88.82000 1.018
88.84000 2.971
88.86000 1.240
88.88000 2.288
88.90000 1.352
88.92000 0.219
88.94000 -0.456
88.96000 2.597
88.98000 0.496
89.00000 1.061
89.02000 0.567
89.04000 -0.447
89.06000 1.331
89.08000 1.903
89.10000 0.440
89.12000 0.977
89.14000 0.446
89.16000 1.131
89.18000 1.568
89.20000 2.450
89.22000 2.554
89.24000 2.632
89.26000 0.801
89.28000 0.733
89.30000 -0.105
89.32000 1.156
89.34000 3.177
89.36000 1.400
89.38000 1.227
89.40000 1.681
89.42000 2.166
89.44000 3.866
89.46000 -0.151
89.48000 0.184
89.50000 0.289
89.52000 3.448
89.54000 4.513
89.56000 1.077
89.58000 2.172
89.60000 5.608
89.62000 4.142
89.64000 0.667
89.66000 -1.285
89.68000 -1.796
89.70000 2.599
89.72000 6.121
89.74000 2.558
89.76000 0.529
89.78000 2.832
89.80000 -0.218
89.82000 2.475
89.84000 2.280
89.86000 1.812
89.88000 1.144
89.90000 3.352
89.92000 4.653
89.94000 1.406
89.96000 -0.771
89.98000 -0.653
90.00000 0.414
90.02000 1.393
90.04000 1.338
90.06000 0.709
90.08000 2.152
90.10000 1.922
90.12000 -0.770
90.14000 0.425
90.16000 0.143
90.18000 1.618
90.20000 0.290
90.22000 -0.718
90.24000 2.508
90.26000 3.636
90.28000 1.664
90.30000 1.225
90.32000 0.925
90.34000 2.766
90.36000 0.419
90.38000 2.720
90.40000 -0.115
90.42000 1.603
90.44000 1.274
90.46000 0.513
90.48000 0.841
90.50000 2.366
90.52000 3.399
90.54000 1.471
90.56000 2.100
90.58000 2.484
90.60000 0.825
90.62000 2.127
90.64000 3.751
90.66000 4.578
90.68000 -0.262
90.70000 1.659
90.72000 -1.322
90.74000 -1.229
90.76000 0.556
90.78000 -0.255
90.80000 1.591
90.82000 1.402
90.84000 0.421
90.86000 -0.848
90.88000 1.770
90.90000 1.681
90.92000 0.916
90.94000 0.552
90.96000 -0.318
90.98000 0.552
91.00000 4.078
91.02000 4.680
91.04000 0.253
91.06000 0.965
91.08000 0.728
91.10000 0.784
91.12000 0.182
91.14000 -0.618
91.16000 1.692
91.18000 0.355
91.20000 -1.828
91.22000 -1.058
91.24000 1.141
91.26000 2.086
91.28000 -0.386
91.30000 0.281
91.32000 3.893
91.34000 2.797
91.36000 0.284
91.38000 0.653
91.40000 -0.807
91.42000 0.464
91.44000 -1.815
91.46000 -0.300
91.48000 1.108
91.50000 -0.188
91.52000 1.867
91.54000 3.121
91.56000 2.315
91.58000 -1.815
91.60000 1.132
91.62000 4.174
91.64000 1.353
91.66000 -1.619
91.68000 -1.759
91.70000 -0.153
91.72000 2.518
91.74000 1.582
91.76000 -1.433
91.78000 -0.953
91.80000 -0.065
91.82000 0.395
91.84000 -0.379
91.86000 1.847
91.88000 0.821
91.90000 1.598
91.92000 2.563
91.94000 1.228
91.96000 1.235
91.98000 1.566
92.00000 0.477
92.02000 -0.609
92.04000 -0.993
92.06000 0.413
92.08000 -0.599
92.10000 1.751
92.12000 3.326
92.14000 3.068
92.16000 0.860
92.18000 1.647
92.20000 0.754
92.22000 3.272
92.24000 3.926
92.26000 0.057
92.28000 -1.846
92.30000 0.533
92.32000 -0.545
92.34000 -1.103
92.36000 -1.008
92.38000 0.650
92.40000 0.694
92.42000 1.172
92.44000 0.584
92.46000 0.629
92.48000 -0.806
92.50000 0.319
92.52000 4.026
92.54000 3.399
92.56000 2.154
92.58000 2.671
92.60000 2.133
92.62000 2.838
92.64000 1.516
92.66000 2.084
92.68000 0.240
92.70000 4.172
92.72000 4.664
92.74000 2.360
92.76000 3.514
92.78000 2.241
92.80000 1.575
92.82000 1.578
92.84000 0.489
92.86000 -1.288
92.88000 0.550
92.90000 2.976
92.92000 1.613
92.94000 0.460
92.96000 -1.346
92.98000 2.465
93.00000 8.367
93.02000 4.871
93.04000 4.740
93.06000 1.283
93.08000 0.882
93.10000 1.830
93.12000 1.589
93.14000 5.226
93.16000 3.885
93.18000 4.398
93.20000 3.578
93.22000 2.473
93.24000 2.338
93.26000 2.940
93.28000 0.098
93.30000 -1.811
93.32000 0.078
93.34000 2.004
93.36000 2.349
93.38000 -0.519
93.40000 0.083
93.42000 1.288
93.44000 3.812
93.46000 3.289
93.48000 -0.231
93.50000 2.333
93.52000 2.918
93.54000 0.381
93.56000 4.883
93.58000 2.438
93.60000 2.707
93.62000 4.798
93.64000 2.229
93.66000 1.158
93.68000 2.090
93.70000 1.909
93.72000 1.924
93.74000 -0.946
93.76000 0.682
93.78000 1.455
93.80000 0.263
93.82000 -0.203
93.84000 5.254
93.86000 1.552
93.88000 1.814
93.90000 1.031
93.92000 1.669
93.94000 -0.492
93.96000 4.197
93.98000 4.764
94.00000 2.493
94.02000 4.133
94.04000 3.840
94.06000 1.840
94.08000 0.313
94.10000 2.460
94.12000 2.816
94.14000 2.249
94.16000 -0.504
94.18000 3.785
94.20000 6.058
94.22000 1.723
94.24000 0.172
94.26000 1.820
94.28000 4.254
94.30000 3.569
94.32000 5.133
94.34000 4.224
94.36000 1.888
94.38000 2.227
94.40000 1.257
94.42000 3.416
94.44000 3.494
94.46000 4.411
94.48000 3.928
94.50000 6.847
94.52000 6.389
94.54000 1.069
94.56000 1.004
94.58000 -1.806
94.60000 -0.165
94.62000 2.279
94.64000 7.559
94.66000 7.104
94.68000 4.752
94.70000 2.772
94.72000 3.868
94.74000 4.413
94.76000 3.322
94.78000 -1.819
94.80000 2.911
94.82000 1.055
94.84000 2.135
94.86000 1.518
94.88000 3.088
94.90000 2.044
94.92000 5.613
94.94000 3.593
94.96000 3.936
94.98000 -0.145
95.00000 0.052
95.02000 1.540
95.04000 2.165
95.06000 1.179
95.08000 2.241
95.10000 3.988
95.12000 2.092
95.14000 3.316
95.16000 7.682
95.18000 5.382
95.20000 6.140
95.22000 3.720
95.24000 1.164
95.26000 -0.924
95.28000 0.500
95.30000 -1.429
95.32000 3.007
95.34000 6.641
95.36000 4.325
95.38000 3.827
95.40000 0.661
95.42000 2.315
95.44000 4.587
95.46000 2.602
95.48000 1.081
95.50000 5.077
95.52000 4.877
95.54000 2.662
95.56000 7.005
95.58000 2.774
95.60000 2.452
95.62000 4.660
95.64000 1.374
95.66000 0.017
95.68000 3.232
95.70000 -0.106
95.72000 5.139
95.74000 5.727
95.76000 6.112
95.78000 6.403
95.80000 4.597
95.82000 1.540
95.84000 3.525
95.86000 4.114
95.88000 3.285
95.90000 5.323
95.92000 2.083
95.94000 -1.822
95.96000 2.081
95.98000 5.020
96.00000 7.450
96.02000 5.656
96.04000 5.775
96.06000 6.018
96.08000 4.434
96.10000 2.334
96.12000 5.861
96.14000 2.494
96.16000 0.156
96.18000 3.433
96.20000 1.987
96.22000 3.511
96.24000 4.469
96.26000 4.582
96.28000 4.126
96.30000 3.431
96.32000 5.594
96.34000 6.648
96.36000 3.457
96.38000 5.103
96.40000 4.906
96.42000 3.358
96.44000 0.563
96.46000 -1.814
96.48000 1.825
96.50000 5.193
96.52000 5.477
96.54000 4.540
96.56000 5.337
96.58000 5.023
96.60000 5.914
96.62000 5.553
96.64000 1.566
96.66000 4.111
96.68000 2.584
96.70000 3.087
96.72000 6.366
96.74000 5.178
96.76000 2.964
96.78000 5.511
96.80000 3.737
96.82000 0.763
96.84000 5.082
96.86000 5.079
96.88000 5.868
96.90000 3.617
96.92000 3.195
96.94000 2.121
96.96000 1.122
96.98000 4.651
97.00000 6.680
97.02000 6.466
97.04000 5.620
97.06000 7.536
97.08000 5.643
97.10000 3.792
97.12000 -0.634
97.14000 -0.035
97.16000 3.448
97.18000 7.564
97.20000 4.119
97.22000 2.111
97.24000 4.132
97.26000 4.194
97.28000 3.485
97.30000 3.564
97.32000 6.462
97.34000 6.060
97.36000 6.467
97.38000 3.984
97.40000 6.090
97.42000 6.250
97.44000 7.330
97.46000 5.581
97.48000 6.315
97.50000 5.083
97.52000 7.687
97.54000 7.526
97.56000 5.122
97.58000 3.792
97.60000 4.602
97.62000 7.140
97.64000 4.828
97.66000 4.955
97.68000 6.988
97.70000 10.720
97.72000 4.580
97.74000 0.973
97.76000 -1.749
97.78000 6.703
97.80000 9.179
97.82000 7.066
97.84000 8.168
97.86000 5.652
97.88000 2.999
97.90000 3.666
97.92000 4.746
97.94000 6.035
97.96000 3.596
97.98000 1.315
98.00000 4.902
98.02000 8.639
98.04000 9.934
98.06000 8.579
98.08000 2.503
98.10000 3.459
98.12000 6.208
98.14000 4.072
98.16000 9.631
98.18000 6.913
98.20000 9.020
98.22000 8.690
98.24000 7.699
98.26000 5.672
98.28000 1.019
98.30000 -0.191
98.32000 5.333
98.34000 6.316
98.36000 6.176
98.38000 7.163
98.40000 4.669
98.42000 4.417
98.44000 6.133
98.46000 4.713
98.48000 8.999
98.50000 8.547
98.52000 3.534
98.54000 -1.710
98.56000 3.020
98.58000 4.782
98.60000 2.913
98.62000 6.743
98.64000 6.074
98.66000 4.773
98.68000 4.565
98.70000 2.823
98.72000 -0.646
98.74000 0.035
98.76000 7.011
98.78000 8.925
98.80000 9.347
98.82000 6.691
98.84000 5.428
98.86000 5.261
98.88000 4.877
98.90000 3.164
98.92000 3.986
98.94000 2.775
98.96000 6.698
98.98000 9.062
99.00000 5.803
99.02000 4.356
99.04000 3.515
99.06000 7.432
99.08000 9.101
99.10000 7.932
99.12000 2.635
99.14000 3.925
99.16000 7.879
99.18000 5.523
99.20000 2.950
99.22000 7.774
99.24000 9.392
99.26000 11.848
99.28000 9.116
99.30000 9.186
99.32000 5.817
99.34000 6.087
99.36000 4.696
99.38000 3.666
99.40000 5.638
99.42000 2.812
99.44000 4.209
99.46000 11.608
99.48000 7.737
99.50000 0.006
99.52000 1.197
99.54000 5.320
99.56000 5.366
99.58000 4.389
99.60000 -3.679
99.62000 4.649
99.64000 12.143
99.66000 7.425
99.68000 1.310
99.70000 6.407
99.72000 9.370
99.74000 2.050
99.76000 5.801
99.78000 11.187
99.80000 5.553
99.82000 5.798
99.84000 5.312
99.86000 3.855
99.88000 10.438
99.90000 11.045
99.92000 3.706
99.94000 -2.753
99.96000 0.163
99.98000 0.000
