'Id: "0011388" Comment: "Integrate frame 0011388_Au-Ir-Rh_Rh-rich_XRD-Mapping-280-0000.gfrmwith cursor Wedge Cursor #5" Operator: "B?rgel" Anode: "Cu" Wavelength: "1.5406" Scantype: "2Theta (TwoTheta)" TimePerStep: "1" X: "-31.5" Y: "27" Z: "5.95" 
10.00000 0.000
10.02000 17.724
10.04000 -4.654
10.06000 -4.632
10.08000 6.948
10.10000 6.766
10.12000 1.388
10.14000 8.099
10.16000 12.860
10.18000 16.606
10.20000 19.340
10.22000 2.407
10.24000 5.661
10.26000 7.301
10.28000 -1.586
10.30000 3.736
10.32000 12.270
10.34000 9.294
10.36000 21.911
10.38000 8.043
10.40000 10.460
10.42000 -2.783
10.44000 0.875
10.46000 13.107
10.48000 12.056
10.50000 14.286
10.52000 6.463
10.54000 -4.539
10.56000 11.805
10.58000 14.337
10.60000 1.698
10.62000 10.282
10.64000 6.370
10.66000 11.268
10.68000 4.547
10.70000 4.652
10.72000 0.613
10.74000 4.256
10.76000 12.149
10.78000 -2.127
10.80000 3.406
10.82000 9.247
10.84000 2.243
10.86000 -3.369
10.88000 3.396
10.90000 7.975
10.92000 19.346
10.94000 17.585
10.96000 18.130
10.98000 11.973
11.00000 3.184
11.02000 14.994
11.04000 16.769
11.06000 13.399
11.08000 21.146
11.10000 6.648
11.12000 -4.544
11.14000 4.985
11.16000 5.689
11.18000 3.358
11.20000 17.182
11.22000 21.686
11.24000 17.948
11.26000 11.176
11.28000 9.751
11.30000 -1.374
11.32000 2.869
11.34000 0.133
11.36000 0.359
11.38000 11.907
11.40000 6.667
11.42000 16.279
11.44000 20.584
11.46000 15.123
11.48000 20.393
11.50000 12.334
11.52000 13.193
11.54000 9.670
11.56000 15.810
11.58000 4.971
11.60000 11.912
11.62000 25.821
11.64000 19.552
11.66000 1.206
11.68000 13.860
11.70000 19.968
11.72000 18.508
11.74000 11.083
11.76000 10.192
11.78000 12.313
11.80000 8.975
11.82000 1.460
11.84000 11.144
11.86000 8.753
11.88000 -1.706
11.90000 0.336
11.92000 6.343
11.94000 12.883
11.96000 21.729
11.98000 15.486
12.00000 6.731
12.02000 2.505
12.04000 1.429
12.06000 8.953
12.08000 10.966
12.10000 6.517
12.12000 0.146
12.14000 8.847
12.16000 10.071
12.18000 7.732
12.20000 2.816
12.22000 3.611
12.24000 0.760
12.26000 4.214
12.28000 12.086
12.30000 15.343
12.32000 11.256
12.34000 5.072
12.36000 6.348
12.38000 3.601
12.40000 0.897
12.42000 5.102
12.44000 8.984
12.46000 9.286
12.48000 17.619
12.50000 8.643
12.52000 4.593
12.54000 14.277
12.56000 15.690
12.58000 13.025
12.60000 -0.292
12.62000 -3.300
12.64000 5.750
12.66000 4.085
12.68000 8.272
12.70000 8.879
12.72000 12.349
12.74000 10.671
12.76000 0.429
12.78000 12.763
12.80000 16.578
12.82000 3.187
12.84000 4.029
12.86000 10.876
12.88000 18.144
12.90000 11.729
12.92000 7.016
12.94000 12.907
12.96000 7.565
12.98000 13.518
13.00000 11.480
13.02000 4.076
13.04000 4.347
13.06000 7.406
13.08000 14.346
13.10000 13.780
13.12000 8.145
13.14000 8.200
13.16000 13.956
13.18000 16.199
13.20000 10.228
13.22000 14.329
13.24000 16.126
13.26000 11.716
13.28000 15.483
13.30000 12.065
13.32000 17.220
13.34000 26.520
13.36000 20.425
13.38000 14.223
13.40000 7.540
13.42000 7.122
13.44000 3.068
13.46000 11.115
13.48000 13.567
13.50000 18.823
13.52000 14.095
13.54000 18.267
13.56000 16.398
13.58000 7.384
13.60000 7.287
13.62000 2.870
13.64000 16.917
13.66000 16.842
13.68000 21.963
13.70000 23.547
13.72000 28.464
13.74000 19.451
13.76000 20.836
13.78000 26.382
13.80000 13.054
13.82000 -3.023
13.84000 -4.448
13.86000 14.040
13.88000 22.270
13.90000 25.934
13.92000 21.556
13.94000 26.580
13.96000 26.861
13.98000 21.520
14.00000 12.549
14.02000 15.183
14.04000 16.231
14.06000 16.151
14.08000 13.124
14.10000 20.972
14.12000 14.974
14.14000 9.650
14.16000 10.937
14.18000 10.263
14.20000 9.623
14.22000 14.054
14.24000 11.176
14.26000 12.516
14.28000 20.296
14.30000 14.399
14.32000 11.016
14.34000 12.006
14.36000 14.975
14.38000 12.463
14.40000 5.093
14.42000 3.734
14.44000 5.561
14.46000 5.462
14.48000 7.314
14.50000 12.282
14.52000 11.327
14.54000 9.455
14.56000 16.542
14.58000 4.934
14.60000 5.439
14.62000 7.784
14.64000 12.853
14.66000 20.088
14.68000 8.997
14.70000 12.196
14.72000 18.326
14.74000 13.124
14.76000 17.371
14.78000 16.421
14.80000 19.292
14.82000 18.001
14.84000 16.362
14.86000 10.903
14.88000 6.407
14.90000 14.415
14.92000 9.832
14.94000 13.692
14.96000 8.340
14.98000 7.777
15.00000 9.999
15.02000 7.144
15.04000 9.790
15.06000 12.923
15.08000 9.429
15.10000 11.922
15.12000 3.254
15.14000 8.514
15.16000 6.658
15.18000 6.256
15.20000 7.239
15.22000 -0.550
15.24000 5.445
15.26000 4.401
15.28000 4.448
15.30000 6.801
15.32000 11.183
15.34000 11.434
15.36000 10.281
15.38000 1.900
15.40000 -1.874
15.42000 -2.022
15.44000 4.526
15.46000 8.381
15.48000 1.923
15.50000 2.678
15.52000 5.107
15.54000 6.862
15.56000 0.425
15.58000 -2.714
15.60000 4.828
15.62000 4.911
15.64000 2.619
15.66000 5.847
15.68000 -0.512
15.70000 3.186
15.72000 9.735
15.74000 -0.024
15.76000 3.802
15.78000 7.051
15.80000 8.991
15.82000 3.672
15.84000 6.621
15.86000 4.740
15.88000 -2.180
15.90000 2.381
15.92000 1.308
15.94000 0.264
15.96000 6.035
15.98000 11.590
16.00000 10.996
16.02000 11.221
16.04000 10.676
16.06000 8.788
16.08000 4.941
16.10000 4.968
16.12000 4.328
16.14000 -2.681
16.16000 12.602
16.18000 16.148
16.20000 15.383
16.22000 10.432
16.24000 3.701
16.26000 3.125
16.28000 6.193
16.30000 7.136
16.32000 2.420
16.34000 7.935
16.36000 1.899
16.38000 -4.442
16.40000 -3.953
16.42000 1.070
16.44000 2.302
16.46000 6.712
16.48000 15.285
16.50000 9.017
16.52000 7.421
16.54000 6.241
16.56000 3.713
16.58000 3.733
16.60000 9.195
16.62000 9.117
16.64000 4.286
16.66000 7.046
16.68000 4.793
16.70000 6.526
16.72000 6.160
16.74000 -0.172
16.76000 -0.151
16.78000 9.811
16.80000 17.832
16.82000 4.404
16.84000 2.565
16.86000 2.724
16.88000 -2.193
16.90000 -3.365
16.92000 1.499
16.94000 8.973
16.96000 12.694
16.98000 9.601
17.00000 11.231
17.02000 9.690
17.04000 11.217
17.06000 8.625
17.08000 5.128
17.10000 13.388
17.12000 13.654
17.14000 10.381
17.16000 6.807
17.18000 6.613
17.20000 10.858
17.22000 11.334
17.24000 8.927
17.26000 19.595
17.28000 16.808
17.30000 12.461
17.32000 1.556
17.34000 5.189
17.36000 14.432
17.38000 16.657
17.40000 14.836
17.42000 15.120
17.44000 17.585
17.46000 11.053
17.48000 6.928
17.50000 11.856
17.52000 7.905
17.54000 9.115
17.56000 13.933
17.58000 15.121
17.60000 5.450
17.62000 -4.348
17.64000 -1.660
17.66000 0.597
17.68000 6.925
17.70000 8.794
17.72000 11.261
17.74000 6.418
17.76000 2.128
17.78000 1.534
17.80000 1.135
17.82000 7.827
17.84000 2.785
17.86000 8.360
17.88000 6.710
17.90000 11.862
17.92000 6.653
17.94000 7.255
17.96000 10.209
17.98000 1.354
18.00000 -2.006
18.02000 -0.571
18.04000 7.980
18.06000 8.367
18.08000 11.257
18.10000 12.233
18.12000 13.893
18.14000 11.776
18.16000 18.503
18.18000 18.182
18.20000 16.438
18.22000 14.715
18.24000 5.754
18.26000 2.607
18.28000 3.022
18.30000 -1.724
18.32000 0.970
18.34000 4.302
18.36000 8.250
18.38000 5.001
18.40000 4.007
18.42000 6.451
18.44000 5.878
18.46000 8.522
18.48000 9.359
18.50000 7.660
18.52000 -0.194
18.54000 0.748
18.56000 9.872
18.58000 7.209
18.60000 0.047
18.62000 -1.090
18.64000 -4.316
18.66000 -3.793
18.68000 8.317
18.70000 10.964
18.72000 7.286
18.74000 1.947
18.76000 3.797
18.78000 6.986
18.80000 11.059
18.82000 11.534
18.84000 8.248
18.86000 10.465
18.88000 8.138
18.90000 4.626
18.92000 4.389
18.94000 1.501
18.96000 0.227
18.98000 2.152
19.00000 8.510
19.02000 8.549
19.04000 11.019
19.06000 3.412
19.08000 1.320
19.10000 3.834
19.12000 6.709
19.14000 4.211
19.16000 7.774
19.18000 5.989
19.20000 1.689
19.22000 6.697
19.24000 4.364
19.26000 4.370
19.28000 8.090
19.30000 8.457
19.32000 1.933
19.34000 3.393
19.36000 4.727
19.38000 9.049
19.40000 0.533
19.42000 0.186
19.44000 2.170
19.46000 -1.634
19.48000 -0.469
19.50000 -0.539
19.52000 -1.448
19.54000 5.315
19.56000 3.823
19.58000 8.425
19.60000 4.347
19.62000 -2.102
19.64000 -4.283
19.66000 5.102
19.68000 6.342
19.70000 0.381
19.72000 3.613
19.74000 1.741
19.76000 -0.844
19.78000 5.267
19.80000 7.850
19.82000 7.096
19.84000 5.331
19.86000 0.586
19.88000 8.351
19.90000 12.819
19.92000 5.511
19.94000 3.881
19.96000 6.325
19.98000 7.590
20.00000 3.945
20.02000 8.701
20.04000 8.027
20.06000 3.061
20.08000 9.176
20.10000 10.257
20.12000 5.394
20.14000 7.465
20.16000 -0.678
20.18000 7.465
20.20000 6.345
20.22000 0.419
20.24000 0.617
20.26000 1.143
20.28000 10.948
20.30000 13.075
20.32000 2.336
20.34000 3.815
20.36000 8.470
20.38000 6.692
20.40000 5.869
20.42000 3.994
20.44000 -0.709
20.46000 -2.690
20.48000 -2.160
20.50000 2.545
20.52000 3.698
20.54000 3.508
20.56000 7.271
20.58000 7.995
20.60000 7.769
20.62000 11.823
20.64000 9.198
20.66000 1.064
20.68000 6.887
20.70000 10.193
20.72000 8.528
20.74000 5.829
20.76000 3.530
20.78000 -4.197
20.80000 3.694
20.82000 8.401
20.84000 5.702
20.86000 1.399
20.88000 12.416
20.90000 7.677
20.92000 5.526
20.94000 7.849
20.96000 5.064
20.98000 3.957
21.00000 3.814
21.02000 8.642
21.04000 6.974
21.06000 10.264
21.08000 9.354
21.10000 7.613
21.12000 5.898
21.14000 7.948
21.16000 4.124
21.18000 1.869
21.20000 2.445
21.22000 -4.181
21.24000 -2.284
21.26000 -2.095
21.28000 8.644
21.30000 11.547
21.32000 12.152
21.34000 3.963
21.36000 2.328
21.38000 1.991
21.40000 2.911
21.42000 2.431
21.44000 -1.730
21.46000 6.789
21.48000 7.358
21.50000 6.730
21.52000 6.020
21.54000 11.518
21.56000 3.837
21.58000 3.382
21.60000 3.220
21.62000 9.549
21.64000 10.878
21.66000 4.023
21.68000 6.789
21.70000 9.599
21.72000 5.381
21.74000 1.517
21.76000 -2.665
21.78000 5.619
21.80000 14.331
21.82000 5.048
21.84000 2.931
21.86000 4.496
21.88000 -1.222
21.90000 1.556
21.92000 5.562
21.94000 3.780
21.96000 8.161
21.98000 8.585
22.00000 4.278
22.02000 1.873
22.04000 4.045
22.06000 6.082
22.08000 4.951
22.10000 6.019
22.12000 4.239
22.14000 1.983
22.16000 1.148
22.18000 3.929
22.20000 10.406
22.22000 10.201
22.24000 2.155
22.26000 -1.050
22.28000 -4.117
22.30000 0.840
22.32000 11.345
22.34000 6.682
22.36000 9.152
22.38000 7.372
22.40000 8.768
22.42000 8.914
22.44000 4.794
22.46000 -1.935
22.48000 0.667
22.50000 3.484
22.52000 5.091
22.54000 2.703
22.56000 3.636
22.58000 4.541
22.60000 2.858
22.62000 3.639
22.64000 -2.941
22.66000 1.693
22.68000 1.976
22.70000 4.304
22.72000 7.441
22.74000 10.899
22.76000 2.964
22.78000 5.483
22.80000 9.610
22.82000 4.146
22.84000 -4.083
22.86000 0.434
22.88000 6.263
22.90000 13.768
22.92000 9.813
22.94000 11.632
22.96000 3.067
22.98000 4.801
23.00000 4.052
23.02000 4.479
23.04000 7.114
23.06000 1.743
23.08000 1.042
23.10000 0.506
23.12000 -3.673
23.14000 0.470
23.16000 3.992
23.18000 4.611
23.20000 5.588
23.22000 -0.486
23.24000 3.373
23.26000 5.836
23.28000 2.195
23.30000 3.250
23.32000 0.619
23.34000 1.953
23.36000 5.818
23.38000 0.319
23.40000 -2.231
23.42000 0.235
23.44000 5.201
23.46000 2.737
23.48000 -0.329
23.50000 -1.330
23.52000 2.953
23.54000 3.036
23.56000 5.235
23.58000 10.551
23.60000 10.774
23.62000 9.105
23.64000 -0.681
23.66000 3.905
23.68000 5.243
23.70000 4.010
23.72000 3.003
23.74000 6.043
23.76000 5.637
23.78000 7.584
23.80000 6.619
23.82000 6.623
23.84000 3.068
23.86000 -0.063
23.88000 2.843
23.90000 -0.181
23.92000 4.141
23.94000 3.940
23.96000 2.017
23.98000 2.072
24.00000 4.976
24.02000 2.606
24.04000 -0.284
24.06000 4.347
24.08000 4.747
24.10000 -0.292
24.12000 -1.947
24.14000 -1.464
24.16000 2.861
24.18000 6.240
24.20000 8.304
24.22000 6.479
24.24000 2.355
24.26000 -4.023
24.28000 1.214
24.30000 1.314
24.32000 4.893
24.34000 8.763
24.36000 0.643
24.38000 -3.531
24.40000 -0.815
24.42000 -2.731
24.44000 -3.120
24.46000 1.539
24.48000 3.540
24.50000 1.233
24.52000 1.739
24.54000 4.351
24.56000 3.102
24.58000 1.706
24.60000 1.270
24.62000 3.221
24.64000 2.714
24.66000 2.047
24.68000 0.575
24.70000 -1.584
24.72000 -0.271
24.74000 0.757
24.76000 -0.012
24.78000 1.877
24.80000 5.791
24.82000 -3.139
24.84000 1.499
24.86000 7.514
24.88000 6.061
24.90000 4.953
24.92000 5.787
24.94000 5.596
24.96000 8.356
24.98000 5.470
25.00000 2.876
25.02000 4.550
25.04000 9.207
25.06000 7.219
25.08000 2.126
25.10000 2.418
25.12000 0.399
25.14000 -3.811
25.16000 -3.943
25.18000 -2.502
25.20000 0.554
25.22000 2.245
25.24000 7.384
25.26000 6.765
25.28000 0.864
25.30000 0.845
25.32000 4.793
25.34000 4.920
25.36000 4.434
25.38000 4.952
25.40000 6.863
25.42000 4.915
25.44000 1.268
25.46000 7.816
25.48000 16.128
25.50000 12.467
25.52000 9.178
25.54000 0.711
25.56000 -3.918
25.58000 3.367
25.60000 4.055
25.62000 7.039
25.64000 10.089
25.66000 6.603
25.68000 6.109
25.70000 5.926
25.72000 5.993
25.74000 8.575
25.76000 4.757
25.78000 6.379
25.80000 4.599
25.82000 0.112
25.84000 2.920
25.86000 3.550
25.88000 4.070
25.90000 6.404
25.92000 5.903
25.94000 8.733
25.96000 2.412
25.98000 -2.756
26.00000 1.142
26.02000 0.402
26.04000 1.685
26.06000 2.007
26.08000 1.973
26.10000 4.487
26.12000 6.590
26.14000 2.810
26.16000 4.420
26.18000 5.704
26.20000 6.561
26.22000 5.473
26.24000 5.490
26.26000 8.175
26.28000 6.332
26.30000 1.819
26.32000 12.580
26.34000 9.766
26.36000 1.366
26.38000 5.765
26.40000 5.392
26.42000 4.658
26.44000 2.803
26.46000 0.852
26.48000 4.412
26.50000 3.873
26.52000 0.597
26.54000 -1.430
26.56000 4.156
26.58000 7.207
26.60000 3.153
26.62000 3.053
26.64000 -1.990
26.66000 3.449
26.68000 8.349
26.70000 1.747
26.72000 3.591
26.74000 4.927
26.76000 4.276
26.78000 3.573
26.80000 9.555
26.82000 -0.501
26.84000 -3.880
26.86000 -0.668
26.88000 2.238
26.90000 7.062
26.92000 8.207
26.94000 2.031
26.96000 0.693
26.98000 -2.576
27.00000 0.022
27.02000 -0.463
27.04000 0.705
27.06000 3.761
27.08000 2.560
27.10000 2.369
27.12000 3.872
27.14000 7.355
27.16000 5.970
27.18000 2.406
27.20000 1.945
27.22000 4.160
27.24000 -2.256
27.26000 -0.752
27.28000 5.692
27.30000 0.879
27.32000 -3.853
27.34000 -0.532
27.36000 3.277
27.38000 2.990
27.40000 4.170
27.42000 8.710
27.44000 7.066
27.46000 3.876
27.48000 8.014
27.50000 6.641
27.52000 -0.170
27.54000 1.270
27.56000 4.302
27.58000 0.395
27.60000 2.703
27.62000 0.741
27.64000 1.252
27.66000 3.354
27.68000 6.799
27.70000 5.574
27.72000 4.580
27.74000 4.382
27.76000 2.945
27.78000 3.378
27.80000 1.656
27.82000 4.833
27.84000 7.691
27.86000 4.565
27.88000 2.218
27.90000 2.439
27.92000 -0.202
27.94000 -2.215
27.96000 -0.470
27.98000 4.438
28.00000 1.656
28.02000 1.820
28.04000 0.441
28.06000 -3.393
28.08000 1.188
28.10000 6.915
28.12000 6.944
28.14000 -0.150
28.16000 3.067
28.18000 1.448
28.20000 2.609
28.22000 2.515
28.24000 4.684
28.26000 0.224
28.28000 -1.240
28.30000 -1.050
28.32000 3.607
28.34000 1.970
28.36000 3.232
28.38000 0.106
28.40000 -0.246
28.42000 3.383
28.44000 2.736
28.46000 1.314
28.48000 -2.643
28.50000 2.370
28.52000 5.073
28.54000 1.238
28.56000 2.570
28.58000 1.406
28.60000 1.929
28.62000 4.259
28.64000 3.718
28.66000 -3.785
28.68000 -2.682
28.70000 -0.283
28.72000 -0.617
28.74000 6.129
28.76000 -0.171
28.78000 -0.471
28.80000 1.201
28.82000 5.076
28.84000 2.822
28.86000 1.999
28.88000 6.090
28.90000 2.745
28.92000 1.576
28.94000 -3.580
28.96000 -1.994
28.98000 -2.525
29.00000 -1.558
29.02000 -3.776
29.04000 -0.777
29.06000 2.069
29.08000 2.385
29.10000 -1.342
29.12000 -1.004
29.14000 4.124
29.16000 6.336
29.18000 5.379
29.20000 6.974
29.22000 2.291
29.24000 5.047
29.26000 3.625
29.28000 8.697
29.30000 2.893
29.32000 5.732
29.34000 3.761
29.36000 0.965
29.38000 2.604
29.40000 -2.900
29.42000 0.597
29.44000 1.512
29.46000 -0.257
29.48000 -2.707
29.50000 2.838
29.52000 6.411
29.54000 1.298
29.56000 1.984
29.58000 4.883
29.60000 4.150
29.62000 -0.911
29.64000 0.153
29.66000 1.169
29.68000 1.288
29.70000 1.769
29.72000 3.879
29.74000 6.933
29.76000 -0.057
29.78000 -1.095
29.80000 0.971
29.82000 -0.758
29.84000 3.386
29.86000 -3.744
29.88000 -1.165
29.90000 1.236
29.92000 -0.074
29.94000 -0.099
29.96000 -1.130
29.98000 1.774
30.00000 6.694
30.02000 1.540
30.04000 2.387
30.06000 1.998
30.08000 -2.022
30.10000 -2.644
30.12000 -1.398
30.14000 1.357
30.16000 1.665
30.18000 1.515
30.20000 3.401
30.22000 4.389
30.24000 6.320
30.26000 4.289
30.28000 2.962
30.30000 3.491
30.32000 1.735
30.34000 2.186
30.36000 2.364
30.38000 2.094
30.40000 -2.082
30.42000 1.383
30.44000 4.171
30.46000 4.389
30.48000 -1.303
30.50000 -2.461
30.52000 -3.491
30.54000 1.486
30.56000 -2.745
30.58000 2.218
30.60000 -0.157
30.62000 -2.600
30.64000 0.837
30.66000 6.388
30.68000 2.130
30.70000 3.988
30.72000 2.986
30.74000 1.915
30.76000 0.594
30.78000 1.898
30.80000 3.702
30.82000 6.413
30.84000 2.009
30.86000 7.100
30.88000 8.801
30.90000 9.435
30.92000 9.769
30.94000 8.628
30.96000 3.910
30.98000 5.316
31.00000 6.110
31.02000 8.892
31.04000 7.049
31.06000 3.928
31.08000 6.059
31.10000 4.066
31.12000 -0.373
31.14000 -3.636
31.16000 -0.310
31.18000 6.088
31.20000 1.793
31.22000 3.148
31.24000 5.538
31.26000 3.458
31.28000 -1.870
31.30000 1.862
31.32000 11.979
31.34000 10.769
31.36000 7.487
31.38000 3.416
31.40000 1.427
31.42000 5.201
31.44000 8.560
31.46000 9.589
31.48000 10.795
31.50000 5.568
31.52000 8.143
31.54000 5.446
31.56000 5.291
31.58000 2.784
31.60000 1.199
31.62000 0.633
31.64000 1.541
31.66000 2.899
31.68000 3.816
31.70000 6.321
31.72000 2.802
31.74000 4.279
31.76000 7.876
31.78000 2.186
31.80000 -2.234
31.82000 1.667
31.84000 2.404
31.86000 2.960
31.88000 7.199
31.90000 6.369
31.92000 6.578
31.94000 1.493
31.96000 1.301
31.98000 -1.391
32.00000 0.918
32.02000 6.215
32.04000 4.516
32.06000 3.649
32.08000 5.605
32.10000 1.904
32.12000 1.700
32.14000 0.918
32.16000 -1.480
32.18000 -3.633
32.20000 4.011
32.22000 1.938
32.24000 5.450
32.26000 3.199
32.28000 3.439
32.30000 3.700
32.32000 0.729
32.34000 2.259
32.36000 2.163
32.38000 4.708
32.40000 6.389
32.42000 5.623
32.44000 2.276
32.46000 -0.204
32.48000 3.633
32.50000 1.778
32.52000 4.362
32.54000 4.754
32.56000 1.081
32.58000 -0.911
32.60000 -2.477
32.62000 -1.631
32.64000 4.402
32.66000 -1.143
32.68000 -3.619
32.70000 1.430
32.72000 2.391
32.74000 1.041
32.76000 0.696
32.78000 -0.033
32.80000 -0.333
32.82000 4.024
32.84000 5.219
32.86000 2.655
32.88000 2.800
32.90000 4.574
32.92000 0.017
32.94000 0.791
32.96000 1.272
32.98000 0.009
33.00000 1.125
33.02000 6.929
33.04000 5.852
33.06000 5.985
33.08000 1.922
33.10000 0.822
33.12000 2.982
33.14000 0.439
33.16000 2.428
33.18000 4.528
33.20000 7.259
33.22000 3.316
33.24000 4.424
33.26000 2.066
33.28000 -1.462
33.30000 0.510
33.32000 0.343
33.34000 1.059
33.36000 2.353
33.38000 2.981
33.40000 -0.648
33.42000 -0.762
33.44000 2.991
33.46000 6.692
33.48000 2.042
33.50000 2.845
33.52000 5.713
33.54000 5.427
33.56000 0.688
33.58000 -1.614
33.60000 4.187
33.62000 4.490
33.64000 6.427
33.66000 2.972
33.68000 -0.758
33.70000 -0.282
33.72000 8.812
33.74000 4.729
33.76000 3.953
33.78000 6.079
33.80000 8.943
33.82000 2.446
33.84000 3.768
33.86000 3.998
33.88000 4.076
33.90000 6.988
33.92000 10.833
33.94000 5.878
33.96000 4.041
33.98000 2.840
34.00000 6.721
34.02000 10.230
34.04000 3.718
34.06000 2.948
34.08000 2.512
34.10000 4.384
34.12000 2.976
34.14000 -0.193
34.16000 0.156
34.18000 7.465
34.20000 9.914
34.22000 6.848
34.24000 3.390
34.26000 1.319
34.28000 2.525
34.30000 2.005
34.32000 -3.597
34.34000 -1.111
34.36000 -2.269
34.38000 -2.926
34.40000 4.881
34.42000 8.146
34.44000 3.043
34.46000 6.585
34.48000 3.387
34.50000 3.217
34.52000 6.244
34.54000 3.539
34.56000 1.743
34.58000 -0.862
34.60000 -0.055
34.62000 1.915
34.64000 2.213
34.66000 3.253
34.68000 0.377
34.70000 3.429
34.72000 0.791
34.74000 7.754
34.76000 6.259
34.78000 5.313
34.80000 9.393
34.82000 4.771
34.84000 2.810
34.86000 0.620
34.88000 -0.918
34.90000 5.857
34.92000 12.177
34.94000 8.143
34.96000 4.397
34.98000 -1.593
35.00000 -3.590
35.02000 -2.332
35.04000 -1.145
35.06000 0.097
35.08000 -0.171
35.10000 0.107
35.12000 3.908
35.14000 -3.540
35.16000 -0.923
35.18000 1.079
35.20000 2.591
35.22000 6.829
35.24000 2.773
35.26000 -0.296
35.28000 0.609
35.30000 0.749
35.32000 0.458
35.34000 6.310
35.36000 2.824
35.38000 1.137
35.40000 2.540
35.42000 6.850
35.44000 2.286
35.46000 5.291
35.48000 3.420
35.50000 0.909
35.52000 3.577
35.54000 8.874
35.56000 5.534
35.58000 2.824
35.60000 -0.592
35.62000 3.585
35.64000 4.560
35.66000 3.506
35.68000 2.787
35.70000 -0.046
35.72000 -2.440
35.74000 -3.581
35.76000 4.609
35.78000 7.172
35.80000 6.496
35.82000 2.028
35.84000 -2.169
35.86000 -2.846
35.88000 0.339
35.90000 1.228
35.92000 6.509
35.94000 8.395
35.96000 6.637
35.98000 4.011
36.00000 3.369
36.02000 2.496
36.04000 -0.051
36.06000 -0.789
36.08000 5.255
36.10000 8.158
36.12000 7.105
36.14000 5.606
36.16000 1.468
36.18000 -0.539
36.20000 1.300
36.22000 1.114
36.24000 3.438
36.26000 5.151
36.28000 4.957
36.30000 1.755
36.32000 6.921
36.34000 10.932
36.36000 6.803
36.38000 3.925
36.40000 -3.624
36.42000 1.521
36.44000 6.422
36.46000 6.111
36.48000 2.318
36.50000 3.859
36.52000 4.432
36.54000 3.842
36.56000 7.895
36.58000 3.060
36.60000 -3.272
36.62000 -3.658
36.64000 0.600
36.66000 -2.146
36.68000 0.030
36.70000 5.135
36.72000 3.095
36.74000 1.249
36.76000 2.170
36.78000 4.483
36.80000 3.634
36.82000 1.418
36.84000 -1.529
36.86000 -3.187
36.88000 -0.097
36.90000 4.807
36.92000 3.687
36.94000 2.458
36.96000 3.543
36.98000 -0.707
37.00000 1.242
37.02000 1.303
37.04000 -0.172
37.06000 -1.253
37.08000 -1.424
37.10000 -1.059
37.12000 -3.726
37.14000 -1.743
37.16000 0.950
37.18000 2.021
37.20000 10.890
37.22000 5.685
37.24000 4.499
37.26000 6.060
37.28000 2.482
37.30000 1.490
37.32000 2.129
37.34000 -2.023
37.36000 3.323
37.38000 7.636
37.40000 5.091
37.42000 4.617
37.44000 3.087
37.46000 4.122
37.48000 5.294
37.50000 2.657
37.52000 8.591
37.54000 11.337
37.56000 6.021
37.58000 1.448
37.60000 4.776
37.62000 5.196
37.64000 11.241
37.66000 10.885
37.68000 12.269
37.70000 12.382
37.72000 11.977
37.74000 12.638
37.76000 10.358
37.78000 11.048
37.80000 10.821
37.82000 7.954
37.84000 9.696
37.86000 13.637
37.88000 18.277
37.90000 20.698
37.92000 18.045
37.94000 20.284
37.96000 23.364
37.98000 17.906
38.00000 17.385
38.02000 18.827
38.04000 19.499
38.06000 20.239
38.08000 19.920
38.10000 21.736
38.12000 23.136
38.14000 25.412
38.16000 28.621
38.18000 27.472
38.20000 27.494
38.22000 23.853
38.24000 26.427
38.26000 27.919
38.28000 30.264
38.30000 28.176
38.32000 30.512
38.34000 34.486
38.36000 29.054
38.38000 28.360
38.40000 34.758
38.42000 42.272
38.44000 47.399
38.46000 45.824
38.48000 43.173
38.50000 47.948
38.52000 46.750
38.54000 49.559
38.56000 51.010
38.58000 56.807
38.60000 60.668
38.62000 56.336
38.64000 54.924
38.66000 57.963
38.68000 59.585
38.70000 60.578
38.72000 65.863
38.74000 68.614
38.76000 75.827
38.78000 82.383
38.80000 79.595
38.82000 85.921
38.84000 90.842
38.86000 94.783
38.88000 98.527
38.90000 102.049
38.92000 110.240
38.94000 105.596
38.96000 113.775
38.98000 116.331
39.00000 123.375
39.02000 131.044
39.04000 143.863
39.06000 148.589
39.08000 151.823
39.10000 155.008
39.12000 164.254
39.14000 170.142
39.16000 175.147
39.18000 177.459
39.20000 193.614
39.22000 205.324
39.24000 213.794
39.26000 223.398
39.28000 231.895
39.30000 240.987
39.32000 253.763
39.34000 266.190
39.36000 277.395
39.38000 292.890
39.40000 307.148
39.42000 318.361
39.44000 336.121
39.46000 355.837
39.48000 369.457
39.50000 388.680
39.52000 408.672
39.54000 431.274
39.56000 455.149
39.58000 477.309
39.60000 488.416
39.62000 512.940
39.64000 530.667
39.66000 555.317
39.68000 579.096
39.70000 594.760
39.72000 620.673
39.74000 643.198
39.76000 670.461
39.78000 679.751
39.80000 697.297
39.82000 715.559
39.84000 735.781
39.86000 754.464
39.88000 768.007
39.90000 785.229
39.92000 788.164
39.94000 790.835
39.96000 792.714
39.98000 804.102
40.00000 809.230
40.02000 800.851
40.04000 792.540
40.06000 792.391
40.08000 799.295
40.10000 782.899
40.12000 767.754
40.14000 756.015
40.16000 738.725
40.18000 711.701
40.20000 688.194
40.22000 672.330
40.24000 650.324
40.26000 632.174
40.28000 605.755
40.30000 579.787
40.32000 573.140
40.34000 534.678
40.36000 496.593
40.38000 483.447
40.40000 466.219
40.42000 441.899
40.44000 420.916
40.46000 407.324
40.48000 385.273
40.50000 354.381
40.52000 327.964
40.54000 305.494
40.56000 286.778
40.58000 273.017
40.60000 262.930
40.62000 251.474
40.64000 232.205
40.66000 218.040
40.68000 201.644
40.70000 190.169
40.72000 177.903
40.74000 168.946
40.76000 156.432
40.78000 150.556
40.80000 147.057
40.82000 132.622
40.84000 126.088
40.86000 115.477
40.88000 109.567
40.90000 104.654
40.92000 98.671
40.94000 94.543
40.96000 89.683
40.98000 81.153
41.00000 76.392
41.02000 75.769
41.04000 66.998
41.06000 56.504
41.08000 55.708
41.10000 55.131
41.12000 56.713
41.14000 49.714
41.16000 47.435
41.18000 45.786
41.20000 42.736
41.22000 45.399
41.24000 40.381
41.26000 37.169
41.28000 34.980
41.30000 32.289
41.32000 31.198
41.34000 28.530
41.36000 26.618
41.38000 24.737
41.40000 25.000
41.42000 19.455
41.44000 16.931
41.46000 18.003
41.48000 20.394
41.50000 16.732
41.52000 13.848
41.54000 16.573
41.56000 14.494
41.58000 9.185
41.60000 11.666
41.62000 13.725
41.64000 14.802
41.66000 16.659
41.68000 14.978
41.70000 5.835
41.72000 5.510
41.74000 3.224
41.76000 2.917
41.78000 5.209
41.80000 8.010
41.82000 8.644
41.84000 8.949
41.86000 3.079
41.88000 4.022
41.90000 6.147
41.92000 4.408
41.94000 -0.961
41.96000 -1.113
41.98000 3.564
42.00000 4.397
42.02000 4.752
42.04000 4.819
42.06000 3.762
42.08000 -0.851
42.10000 -2.554
42.12000 0.106
42.14000 0.569
42.16000 -2.366
42.18000 0.193
42.20000 -1.332
42.22000 4.118
42.24000 2.622
42.26000 1.509
42.28000 2.904
42.30000 2.873
42.32000 -0.022
42.34000 0.038
42.36000 3.419
42.38000 3.226
42.40000 -1.168
42.42000 -1.161
42.44000 0.319
42.46000 2.147
42.48000 2.254
42.50000 1.160
42.52000 1.163
42.54000 -0.613
42.56000 2.568
42.58000 5.608
42.60000 3.941
42.62000 1.338
42.64000 -0.316
42.66000 1.066
42.68000 0.975
42.70000 2.827
42.72000 2.488
42.74000 -1.970
42.76000 1.548
42.78000 2.982
42.80000 -1.336
42.82000 -1.280
42.84000 -0.476
42.86000 3.327
42.88000 6.337
42.90000 7.181
42.92000 7.565
42.94000 3.529
42.96000 -0.636
42.98000 -1.315
43.00000 -0.348
43.02000 -3.567
43.04000 -0.539
43.06000 3.452
43.08000 2.602
43.10000 2.742
43.12000 1.877
43.14000 -1.089
43.16000 -2.104
43.18000 -2.715
43.20000 0.703
43.22000 2.577
43.24000 6.160
43.26000 5.742
43.28000 -0.026
43.30000 3.428
43.32000 7.336
43.34000 1.976
43.36000 -1.124
43.38000 -1.078
43.40000 -3.259
43.42000 1.382
43.44000 2.120
43.46000 3.202
43.48000 2.889
43.50000 2.877
43.52000 2.858
43.54000 2.313
43.56000 0.055
43.58000 3.442
43.60000 1.403
43.62000 5.057
43.64000 1.070
43.66000 -0.395
43.68000 5.131
43.70000 7.723
43.72000 0.702
43.74000 -3.532
43.76000 1.212
43.78000 4.134
43.80000 4.331
43.82000 0.360
43.84000 6.101
43.86000 5.021
43.88000 0.999
43.90000 -3.529
43.92000 -0.864
43.94000 6.486
43.96000 6.089
43.98000 2.320
44.00000 2.210
44.02000 -3.051
44.04000 1.801
44.06000 5.011
44.08000 9.919
44.10000 3.023
44.12000 0.604
44.14000 1.203
44.16000 3.254
44.18000 2.409
44.20000 2.812
44.22000 -0.317
44.24000 1.002
44.26000 -0.192
44.28000 1.251
44.30000 2.902
44.32000 4.531
44.34000 0.337
44.36000 -3.540
44.38000 1.675
44.40000 0.495
44.42000 3.964
44.44000 7.116
44.46000 2.328
44.48000 4.247
44.50000 5.192
44.52000 5.828
44.54000 7.317
44.56000 3.748
44.58000 10.171
44.60000 10.211
44.62000 6.823
44.64000 10.001
44.66000 9.740
44.68000 10.864
44.70000 10.121
44.72000 5.205
44.74000 5.873
44.76000 8.894
44.78000 7.443
44.80000 2.539
44.82000 8.011
44.84000 9.222
44.86000 12.590
44.88000 19.336
44.90000 15.620
44.92000 7.172
44.94000 12.549
44.96000 12.621
44.98000 13.672
45.00000 10.957
45.02000 13.657
45.04000 12.812
45.06000 18.127
45.08000 12.140
45.10000 12.034
45.12000 8.697
45.14000 11.787
45.16000 9.714
45.18000 9.391
45.20000 12.426
45.22000 17.867
45.24000 13.529
45.26000 17.969
45.28000 17.696
45.30000 14.584
45.32000 14.911
45.34000 14.467
45.36000 25.480
45.38000 19.744
45.40000 20.357
45.42000 23.055
45.44000 19.286
45.46000 23.864
45.48000 26.441
45.50000 23.333
45.52000 28.163
45.54000 29.376
45.56000 28.091
45.58000 27.412
45.60000 26.002
45.62000 27.069
45.64000 35.361
45.66000 42.280
45.68000 42.353
45.70000 42.687
45.72000 38.491
45.74000 36.458
45.76000 38.519
45.78000 40.460
45.80000 38.370
45.82000 38.732
45.84000 39.956
45.86000 44.335
45.88000 46.681
45.90000 51.576
45.92000 48.859
45.94000 51.081
45.96000 49.461
45.98000 51.504
46.00000 55.067
46.02000 59.173
46.04000 64.057
46.06000 62.344
46.08000 58.333
46.10000 56.978
46.12000 62.425
46.14000 59.372
46.16000 62.108
46.18000 63.012
46.20000 68.222
46.22000 70.437
46.24000 66.611
46.26000 66.537
46.28000 70.107
46.30000 67.103
46.32000 73.192
46.34000 75.953
46.36000 79.940
46.38000 73.882
46.40000 76.878
46.42000 72.292
46.44000 76.395
46.46000 76.502
46.48000 80.045
46.50000 85.681
46.52000 80.196
46.54000 76.499
46.56000 83.436
46.58000 82.412
46.60000 75.112
46.62000 78.774
46.64000 79.142
46.66000 73.978
46.68000 77.844
46.70000 79.016
46.72000 83.839
46.74000 90.471
46.76000 85.474
46.78000 79.217
46.80000 82.210
46.82000 72.503
46.84000 74.096
46.86000 68.286
46.88000 65.112
46.90000 62.672
46.92000 60.659
46.94000 61.172
46.96000 65.164
46.98000 64.955
47.00000 65.771
47.02000 58.321
47.04000 55.031
47.06000 60.942
47.08000 59.152
47.10000 48.199
47.12000 46.671
47.14000 47.083
47.16000 41.846
47.18000 39.433
47.20000 45.740
47.22000 45.162
47.24000 36.629
47.26000 37.582
47.28000 33.647
47.30000 34.857
47.32000 35.431
47.34000 38.011
47.36000 30.793
47.38000 24.949
47.40000 27.041
47.42000 23.447
47.44000 24.484
47.46000 21.879
47.48000 22.695
47.50000 23.073
47.52000 22.066
47.54000 25.271
47.56000 19.679
47.58000 18.466
47.60000 15.976
47.62000 19.453
47.64000 15.458
47.66000 13.360
47.68000 9.538
47.70000 13.761
47.72000 15.828
47.74000 17.071
47.76000 9.681
47.78000 9.877
47.80000 8.089
47.82000 6.673
47.84000 7.499
47.86000 12.753
47.88000 14.032
47.90000 17.307
47.92000 10.898
47.94000 3.001
47.96000 5.132
47.98000 10.268
48.00000 8.981
48.02000 9.757
48.04000 2.908
48.06000 1.594
48.08000 3.029
48.10000 3.538
48.12000 9.193
48.14000 7.159
48.16000 9.511
48.18000 8.768
48.20000 5.018
48.22000 5.024
48.24000 7.086
48.26000 -0.054
48.28000 1.314
48.30000 0.569
48.32000 0.443
48.34000 3.336
48.36000 4.349
48.38000 7.697
48.40000 3.681
48.42000 8.325
48.44000 0.973
48.46000 -1.242
48.48000 4.749
48.50000 6.628
48.52000 1.696
48.54000 4.253
48.56000 5.337
48.58000 6.744
48.60000 4.000
48.62000 2.340
48.64000 1.829
48.66000 5.307
48.68000 7.418
48.70000 1.507
48.72000 4.754
48.74000 -3.225
48.76000 -0.185
48.78000 -0.935
48.80000 0.267
48.82000 5.582
48.84000 4.874
48.86000 7.343
48.88000 8.702
48.90000 2.498
48.92000 4.070
48.94000 2.460
48.96000 2.714
48.98000 9.385
49.00000 2.759
49.02000 0.440
49.04000 -2.642
49.06000 -0.819
49.08000 5.619
49.10000 4.841
49.12000 0.943
49.14000 2.607
49.16000 0.949
49.18000 -1.560
49.20000 6.656
49.22000 5.343
49.24000 4.741
49.26000 3.334
49.28000 -1.209
49.30000 3.604
49.32000 9.387
49.34000 8.973
49.36000 5.294
49.38000 4.786
49.40000 7.199
49.42000 1.954
49.44000 0.365
49.46000 1.221
49.48000 -2.549
49.50000 -0.419
49.52000 8.822
49.54000 11.822
49.56000 4.151
49.58000 4.524
49.60000 -0.012
49.62000 -3.136
49.64000 2.876
49.66000 7.912
49.68000 14.298
49.70000 8.647
49.72000 5.172
49.74000 11.427
49.76000 11.400
49.78000 10.315
49.80000 9.657
49.82000 0.350
49.84000 -0.452
49.86000 4.429
49.88000 3.548
49.90000 5.435
49.92000 -0.556
49.94000 1.674
49.96000 6.070
49.98000 6.610
50.00000 -2.302
50.02000 1.440
50.04000 2.964
50.06000 2.784
50.08000 0.324
50.10000 -1.436
50.12000 -1.961
50.14000 -2.139
50.16000 -0.005
50.18000 0.964
50.20000 -1.475
50.22000 4.040
50.24000 8.502
50.26000 8.949
50.28000 2.599
50.30000 -2.507
50.32000 -0.866
50.34000 -0.339
50.36000 -1.979
50.38000 2.747
50.40000 5.081
50.42000 1.597
50.44000 1.582
50.46000 1.807
50.48000 3.235
50.50000 -2.921
50.52000 1.075
50.54000 2.131
50.56000 4.493
50.58000 1.792
50.60000 0.062
50.62000 -3.104
50.64000 -0.225
50.66000 4.216
50.68000 3.426
50.70000 5.212
50.72000 1.859
50.74000 1.106
50.76000 3.154
50.78000 2.364
50.80000 4.472
50.82000 4.723
50.84000 2.351
50.86000 4.000
50.88000 4.936
50.90000 7.157
50.92000 4.217
50.94000 1.170
50.96000 -1.333
50.98000 6.407
51.00000 8.941
51.02000 3.056
51.04000 6.586
51.06000 3.533
51.08000 -1.548
51.10000 -3.081
51.12000 6.288
51.14000 5.874
51.16000 -0.226
51.18000 0.789
51.20000 7.866
51.22000 10.885
51.24000 6.597
51.26000 2.768
51.28000 2.892
51.30000 2.831
51.32000 1.749
51.34000 2.441
51.36000 -0.460
51.38000 -2.775
51.40000 1.801
51.42000 4.000
51.44000 6.771
51.46000 8.435
51.48000 8.611
51.50000 2.478
51.52000 2.896
51.54000 3.077
51.56000 1.645
51.58000 3.482
51.60000 2.038
51.62000 3.543
51.64000 2.992
51.66000 2.625
51.68000 0.921
51.70000 5.811
51.72000 6.930
51.74000 3.105
51.76000 7.512
51.78000 5.635
51.80000 9.331
51.82000 9.039
51.84000 6.496
51.86000 5.527
51.88000 7.615
51.90000 6.502
51.92000 0.990
51.94000 -0.387
51.96000 0.257
51.98000 4.589
52.00000 11.035
52.02000 9.838
52.04000 8.528
52.06000 7.089
52.08000 5.809
52.10000 2.475
52.12000 5.009
52.14000 2.295
52.16000 4.314
52.18000 7.079
52.20000 7.309
52.22000 6.666
52.24000 7.768
52.26000 6.742
52.28000 8.757
52.30000 6.679
52.32000 4.216
52.34000 6.426
52.36000 6.172
52.38000 1.185
52.40000 -2.999
52.42000 -1.825
52.44000 -0.398
52.46000 5.345
52.48000 7.196
52.50000 7.166
52.52000 2.248
52.54000 3.844
52.56000 6.870
52.58000 7.989
52.60000 9.527
52.62000 5.725
52.64000 4.828
52.66000 0.025
52.68000 2.416
52.70000 8.923
52.72000 6.385
52.74000 5.336
52.76000 4.787
52.78000 4.517
52.80000 7.681
52.82000 9.322
52.84000 8.340
52.86000 6.770
52.88000 9.746
52.90000 8.629
52.92000 12.671
52.94000 8.198
52.96000 5.075
52.98000 3.103
53.00000 2.528
53.02000 5.751
53.04000 0.219
53.06000 -1.799
53.08000 4.262
53.10000 5.714
53.12000 1.160
53.14000 -0.313
53.16000 3.129
53.18000 -2.877
53.20000 -0.771
53.22000 0.373
53.24000 2.405
53.26000 2.589
53.28000 5.201
53.30000 5.797
53.32000 4.574
53.34000 0.826
53.36000 3.404
53.38000 8.937
53.40000 7.474
53.42000 3.738
53.44000 1.650
53.46000 -1.225
53.48000 3.671
53.50000 8.238
53.52000 3.936
53.54000 1.608
53.56000 -0.576
53.58000 0.009
53.60000 -1.916
53.62000 -2.984
53.64000 -2.530
53.66000 0.602
53.68000 -1.104
53.70000 -1.247
53.72000 9.321
53.74000 7.689
53.76000 1.000
53.78000 5.724
53.80000 11.036
53.82000 3.106
53.84000 2.548
53.86000 4.663
53.88000 3.949
53.90000 8.184
53.92000 6.338
53.94000 7.541
53.96000 6.905
53.98000 3.244
54.00000 6.745
54.02000 5.684
54.04000 2.982
54.06000 -0.626
54.08000 4.876
54.10000 3.972
54.12000 0.220
54.14000 3.573
54.16000 0.686
54.18000 4.182
54.20000 3.447
54.22000 2.929
54.24000 2.153
54.26000 -2.946
54.28000 2.273
54.30000 0.311
54.32000 3.232
54.34000 3.611
54.36000 -1.030
54.38000 1.287
54.40000 5.683
54.42000 0.276
54.44000 6.081
54.46000 2.885
54.48000 -0.546
54.50000 5.545
54.52000 4.959
54.54000 4.724
54.56000 -0.276
54.58000 -0.123
54.60000 2.142
54.62000 6.618
54.64000 7.132
54.66000 5.845
54.68000 2.036
54.70000 6.633
54.72000 9.715
54.74000 6.819
54.76000 11.493
54.78000 2.253
54.80000 4.029
54.82000 8.694
54.84000 9.649
54.86000 5.484
54.88000 3.887
54.90000 7.904
54.92000 8.650
54.94000 1.600
54.96000 -0.469
54.98000 -2.879
55.00000 -0.930
55.02000 -2.933
55.04000 3.884
55.06000 -2.014
55.08000 -2.930
55.10000 -0.316
55.12000 1.541
55.14000 1.204
55.16000 5.039
55.18000 6.219
55.20000 2.434
55.22000 1.941
55.24000 9.026
55.26000 2.964
55.28000 3.145
55.30000 3.850
55.32000 3.797
55.34000 8.040
55.36000 8.131
55.38000 8.537
55.40000 7.141
55.42000 5.294
55.44000 2.436
55.46000 4.693
55.48000 1.773
55.50000 3.821
55.52000 5.328
55.54000 9.160
55.56000 3.562
55.58000 2.044
55.60000 1.139
55.62000 7.017
55.64000 5.203
55.66000 2.635
55.68000 1.089
55.70000 1.321
55.72000 4.474
55.74000 1.748
55.76000 3.125
55.78000 6.140
55.80000 4.878
55.82000 3.061
55.84000 1.254
55.86000 1.661
55.88000 6.667
55.90000 6.043
55.92000 6.528
55.94000 3.271
55.96000 6.348
55.98000 3.012
56.00000 4.741
56.02000 3.980
56.04000 4.868
56.06000 3.541
56.08000 -2.884
56.10000 0.019
56.12000 6.035
56.14000 9.865
56.16000 8.816
56.18000 3.638
56.20000 1.477
56.22000 11.116
56.24000 7.351
56.26000 8.947
56.28000 5.617
56.30000 1.449
56.32000 4.594
56.34000 6.339
56.36000 3.689
56.38000 3.906
56.40000 6.241
56.42000 6.306
56.44000 10.466
56.46000 5.487
56.48000 5.217
56.50000 9.043
56.52000 7.800
56.54000 8.825
56.56000 5.145
56.58000 3.910
56.60000 8.160
56.62000 5.407
56.64000 5.024
56.66000 6.319
56.68000 8.639
56.70000 5.108
56.72000 -1.460
56.74000 3.898
56.76000 9.683
56.78000 5.559
56.80000 4.814
56.82000 4.166
56.84000 7.385
56.86000 7.449
56.88000 11.243
56.90000 8.253
56.92000 5.690
56.94000 4.718
56.96000 3.799
56.98000 8.166
57.00000 9.299
57.02000 4.837
57.04000 4.781
57.06000 3.621
57.08000 4.243
57.10000 3.988
57.12000 8.678
57.14000 10.077
57.16000 6.150
57.18000 2.880
57.20000 7.395
57.22000 4.567
57.24000 3.939
57.26000 5.742
57.28000 5.814
57.30000 7.545
57.32000 6.754
57.34000 5.288
57.36000 3.516
57.38000 4.476
57.40000 8.585
57.42000 7.097
57.44000 1.992
57.46000 5.581
57.48000 8.336
57.50000 2.061
57.52000 6.195
57.54000 3.278
57.56000 -2.197
57.58000 -2.821
57.60000 2.307
57.62000 4.942
57.64000 7.852
57.66000 5.824
57.68000 7.023
57.70000 7.382
57.72000 6.854
57.74000 5.463
57.76000 2.470
57.78000 5.075
57.80000 8.041
57.82000 4.265
57.84000 5.573
57.86000 6.840
57.88000 5.357
57.90000 1.577
57.92000 3.051
57.94000 -0.348
57.96000 0.477
57.98000 1.592
58.00000 3.116
58.02000 3.675
58.04000 8.419
58.06000 7.449
58.08000 4.727
58.10000 4.294
58.12000 4.585
58.14000 5.021
58.16000 2.754
58.18000 -0.747
58.20000 4.367
58.22000 4.750
58.24000 3.722
58.26000 -2.827
58.28000 -1.390
58.30000 6.899
58.32000 3.009
58.34000 1.597
58.36000 1.250
58.38000 5.012
58.40000 8.239
58.42000 5.725
58.44000 4.919
58.46000 7.288
58.48000 7.779
58.50000 4.248
58.52000 -1.513
58.54000 -0.670
58.56000 4.332
58.58000 5.063
58.60000 2.685
58.62000 1.525
58.64000 6.006
58.66000 3.894
58.68000 -1.626
58.70000 -0.019
58.72000 2.365
58.74000 -0.461
58.76000 3.359
58.78000 0.987
58.80000 4.918
58.82000 3.475
58.84000 2.859
58.86000 3.904
58.88000 4.189
58.90000 1.015
58.92000 8.752
58.94000 7.628
58.96000 6.931
58.98000 -1.411
59.00000 2.189
59.02000 5.245
59.04000 4.684
59.06000 4.824
59.08000 -2.687
59.10000 -1.477
59.12000 3.512
59.14000 2.449
59.16000 1.720
59.18000 -1.710
59.20000 -1.711
59.22000 -0.487
59.24000 3.383
59.26000 2.064
59.28000 0.282
59.30000 -1.628
59.32000 -0.229
59.34000 1.253
59.36000 -2.811
59.38000 0.535
59.40000 3.359
59.42000 4.434
59.44000 4.132
59.46000 5.147
59.48000 3.146
59.50000 2.134
59.52000 -2.050
59.54000 -0.106
59.56000 -0.373
59.58000 0.991
59.60000 1.799
59.62000 1.534
59.64000 -1.518
59.66000 -0.030
59.68000 -0.623
59.70000 0.407
59.72000 4.436
59.74000 1.512
59.76000 1.664
59.78000 1.756
59.80000 5.033
59.82000 4.254
59.84000 3.612
59.86000 3.265
59.88000 -1.720
59.90000 4.212
59.92000 3.323
59.94000 2.826
59.96000 4.478
59.98000 5.217
60.00000 5.654
60.02000 8.266
60.04000 6.466
60.06000 1.721
60.08000 5.228
60.10000 6.639
60.12000 6.643
60.14000 5.489
60.16000 -1.254
60.18000 -2.765
60.20000 -1.208
60.22000 0.087
60.24000 1.787
60.26000 1.727
60.28000 1.999
60.30000 2.611
60.32000 4.776
60.34000 0.013
60.36000 3.180
60.38000 2.515
60.40000 2.170
60.42000 1.099
60.44000 -0.069
60.46000 0.466
60.48000 0.449
60.50000 0.166
60.52000 2.751
60.54000 5.155
60.56000 3.045
60.58000 2.661
60.60000 6.323
60.62000 5.152
60.64000 5.328
60.66000 3.352
60.68000 0.356
60.70000 1.006
60.72000 0.827
60.74000 -0.415
60.76000 -2.730
60.78000 -0.427
60.80000 3.147
60.82000 2.218
60.84000 1.707
60.86000 7.379
60.88000 7.546
60.90000 1.923
60.92000 0.872
60.94000 5.418
60.96000 4.657
60.98000 6.685
61.00000 7.258
61.02000 8.077
61.04000 5.999
61.06000 3.877
61.08000 4.570
61.10000 1.118
61.12000 0.596
61.14000 -2.184
61.16000 -1.055
61.18000 5.492
61.20000 8.849
61.22000 6.234
61.24000 8.170
61.26000 -0.293
61.28000 -0.449
61.30000 5.793
61.32000 8.200
61.34000 3.979
61.36000 4.557
61.38000 2.822
61.40000 2.684
61.42000 4.506
61.44000 5.483
61.46000 2.450
61.48000 4.200
61.50000 2.996
61.52000 0.963
61.54000 2.866
61.56000 -0.158
61.58000 0.437
61.60000 1.363
61.62000 0.950
61.64000 6.281
61.66000 8.778
61.68000 11.747
61.70000 1.707
61.72000 4.637
61.74000 4.098
61.76000 1.704
61.78000 -0.164
61.80000 -1.404
61.82000 -2.700
61.84000 0.775
61.86000 4.658
61.88000 6.557
61.90000 5.818
61.92000 4.095
61.94000 2.540
61.96000 5.949
61.98000 5.473
62.00000 2.323
62.02000 3.014
62.04000 5.468
62.06000 5.382
62.08000 6.670
62.10000 7.508
62.12000 6.447
62.14000 2.870
62.16000 3.061
62.18000 2.578
62.20000 3.413
62.22000 5.286
62.24000 1.766
62.26000 3.498
62.28000 11.368
62.30000 7.874
62.32000 4.077
62.34000 1.034
62.36000 3.098
62.38000 2.905
62.40000 3.279
62.42000 -0.001
62.44000 3.815
62.46000 5.697
62.48000 4.591
62.50000 4.266
62.52000 5.849
62.54000 4.636
62.56000 2.951
62.58000 3.150
62.60000 -0.092
62.62000 0.054
62.64000 3.459
62.66000 5.144
62.68000 2.457
62.70000 5.987
62.72000 3.889
62.74000 1.348
62.76000 5.347
62.78000 0.090
62.80000 -0.730
62.82000 5.297
62.84000 2.810
62.86000 5.987
62.88000 5.538
62.90000 7.709
62.92000 7.637
62.94000 6.867
62.96000 6.058
62.98000 7.408
63.00000 6.175
63.02000 2.219
63.04000 2.371
63.06000 2.556
63.08000 1.962
63.10000 -2.680
63.12000 -2.681
63.14000 -1.246
63.16000 3.181
63.18000 1.149
63.20000 5.291
63.22000 4.991
63.24000 7.597
63.26000 5.471
63.28000 2.792
63.30000 4.652
63.32000 1.822
63.34000 2.322
63.36000 4.763
63.38000 6.869
63.40000 4.073
63.42000 5.847
63.44000 3.117
63.46000 1.636
63.48000 4.830
63.50000 2.321
63.52000 -1.058
63.54000 5.013
63.56000 6.527
63.58000 3.654
63.60000 5.042
63.62000 4.445
63.64000 2.383
63.66000 3.783
63.68000 -0.462
63.70000 -2.700
63.72000 3.571
63.74000 1.112
63.76000 4.623
63.78000 6.437
63.80000 5.244
63.82000 4.566
63.84000 4.374
63.86000 2.481
63.88000 5.475
63.90000 5.039
63.92000 2.226
63.94000 2.294
63.96000 3.385
63.98000 0.838
64.00000 -0.389
64.02000 6.029
64.04000 10.194
64.06000 1.381
64.08000 1.537
64.10000 -0.255
64.12000 -0.479
64.14000 2.951
64.16000 -1.210
64.18000 1.281
64.20000 2.693
64.22000 3.994
64.24000 2.172
64.26000 0.052
64.28000 3.383
64.30000 2.394
64.32000 1.321
64.34000 2.861
64.36000 1.305
64.38000 1.556
64.40000 6.121
64.42000 2.423
64.44000 -0.121
64.46000 1.510
64.48000 -0.995
64.50000 -2.748
64.52000 -2.383
64.54000 2.031
64.56000 2.558
64.58000 4.083
64.60000 2.374
64.62000 0.592
64.64000 3.095
64.66000 4.117
64.68000 -0.736
64.70000 2.710
64.72000 -1.278
64.74000 -2.012
64.76000 -0.203
64.78000 0.751
64.80000 3.979
64.82000 4.578
64.84000 -0.790
64.86000 -0.387
64.88000 4.336
64.90000 2.393
64.92000 -0.114
64.94000 1.198
64.96000 1.346
64.98000 -0.173
65.00000 2.460
65.02000 4.345
65.04000 2.887
65.06000 0.135
65.08000 -0.483
65.10000 4.598
65.12000 2.040
65.14000 0.479
65.16000 1.789
65.18000 3.884
65.20000 5.250
65.22000 1.620
65.24000 1.207
65.26000 1.688
65.28000 1.206
65.30000 -2.778
65.32000 0.099
65.34000 1.283
65.36000 -1.464
65.38000 -0.550
65.40000 1.876
65.42000 5.586
65.44000 -0.732
65.46000 -0.479
65.48000 0.886
65.50000 0.588
65.52000 2.604
65.54000 4.156
65.56000 1.097
65.58000 0.726
65.60000 -1.939
65.62000 2.010
65.64000 5.806
65.66000 6.223
65.68000 1.669
65.70000 2.053
65.72000 1.870
65.74000 0.732
65.76000 3.220
65.78000 4.162
65.80000 1.444
65.82000 -1.298
65.84000 0.838
65.86000 0.722
65.88000 -2.782
65.90000 1.317
65.92000 3.703
65.94000 1.424
65.96000 4.608
65.98000 3.668
66.00000 1.696
66.02000 1.900
66.04000 3.311
66.06000 2.635
66.08000 1.921
66.10000 0.639
66.12000 -0.200
66.14000 -2.798
66.16000 2.556
66.18000 6.656
66.20000 1.589
66.22000 4.663
66.24000 4.116
66.26000 1.999
66.28000 4.110
66.30000 3.810
66.32000 2.885
66.34000 2.134
66.36000 3.257
66.38000 5.169
66.40000 8.948
66.42000 3.823
66.44000 1.943
66.46000 4.740
66.48000 9.345
66.50000 8.155
66.52000 2.819
66.54000 4.629
66.56000 6.474
66.58000 6.596
66.60000 6.047
66.62000 5.730
66.64000 -0.124
66.66000 4.608
66.68000 6.447
66.70000 5.748
66.72000 5.934
66.74000 5.442
66.76000 9.453
66.78000 9.133
66.80000 8.575
66.82000 12.803
66.84000 15.102
66.86000 9.982
66.88000 7.407
66.90000 8.415
66.92000 7.234
66.94000 4.647
66.96000 7.410
66.98000 10.510
67.00000 10.246
67.02000 11.140
67.04000 12.660
67.06000 13.409
67.08000 12.042
67.10000 12.469
67.12000 13.927
67.14000 12.271
67.16000 13.029
67.18000 12.891
67.20000 18.717
67.22000 19.052
67.24000 14.123
67.26000 12.817
67.28000 15.388
67.30000 14.486
67.32000 17.497
67.34000 18.250
67.36000 15.188
67.38000 16.643
67.40000 21.847
67.42000 17.959
67.44000 17.398
67.46000 19.501
67.48000 21.132
67.50000 16.395
67.52000 17.458
67.54000 16.149
67.56000 18.202
67.58000 20.266
67.60000 23.185
67.62000 24.504
67.64000 25.555
67.66000 28.272
67.68000 23.965
67.70000 19.525
67.72000 24.500
67.74000 26.283
67.76000 21.139
67.78000 20.223
67.80000 17.649
67.82000 20.654
67.84000 24.483
67.86000 23.729
67.88000 25.836
67.90000 27.521
67.92000 26.222
67.94000 26.248
67.96000 26.099
67.98000 22.367
68.00000 23.722
68.02000 25.163
68.04000 21.749
68.06000 21.983
68.08000 22.091
68.10000 18.975
68.12000 17.172
68.14000 19.504
68.16000 19.197
68.18000 16.790
68.20000 21.345
68.22000 18.624
68.24000 22.322
68.26000 20.978
68.28000 17.887
68.30000 21.119
68.32000 19.058
68.34000 19.211
68.36000 21.351
68.38000 14.673
68.40000 12.747
68.42000 13.556
68.44000 15.284
68.46000 10.466
68.48000 9.423
68.50000 10.167
68.52000 10.957
68.54000 16.222
68.56000 13.311
68.58000 9.767
68.60000 15.136
68.62000 11.281
68.64000 8.673
68.66000 5.745
68.68000 6.657
68.70000 8.878
68.72000 8.947
68.74000 8.003
68.76000 7.775
68.78000 9.110
68.80000 8.258
68.82000 5.330
68.84000 1.729
68.86000 5.117
68.88000 4.516
68.90000 5.127
68.92000 5.530
68.94000 4.697
68.96000 4.304
68.98000 5.050
69.00000 4.858
69.02000 2.406
69.04000 3.349
69.06000 4.680
69.08000 4.084
69.10000 1.821
69.12000 4.031
69.14000 2.829
69.16000 1.313
69.18000 0.117
69.20000 1.753
69.22000 3.711
69.24000 1.486
69.26000 3.732
69.28000 0.891
69.30000 0.252
69.32000 -2.727
69.34000 7.209
69.36000 6.967
69.38000 1.901
69.40000 -1.444
69.42000 5.288
69.44000 3.429
69.46000 4.616
69.48000 0.655
69.50000 -1.883
69.52000 6.415
69.54000 7.059
69.56000 2.665
69.58000 2.174
69.60000 5.315
69.62000 3.873
69.64000 4.427
69.66000 3.163
69.68000 0.688
69.70000 3.461
69.72000 5.553
69.74000 -1.854
69.76000 -1.142
69.78000 2.159
69.80000 0.000
69.82000 0.134
69.84000 2.612
69.86000 5.841
69.88000 3.653
69.90000 -0.962
69.92000 2.915
69.94000 3.572
69.96000 2.918
69.98000 2.606
70.00000 -2.656
70.02000 -2.535
70.04000 0.679
70.06000 2.741
70.08000 7.177
70.10000 6.459
70.12000 -0.711
70.14000 0.758
70.16000 2.357
70.18000 4.124
70.20000 3.304
70.22000 -2.203
70.24000 0.904
70.26000 6.561
70.28000 5.922
70.30000 5.689
70.32000 6.013
70.34000 9.234
70.36000 5.186
70.38000 3.632
70.40000 3.163
70.42000 3.938
70.44000 4.249
70.46000 1.224
70.48000 -0.163
70.50000 -2.622
70.52000 3.228
70.54000 7.172
70.56000 7.615
70.58000 4.242
70.60000 3.143
70.62000 1.710
70.64000 0.810
70.66000 3.720
70.68000 4.261
70.70000 3.001
70.72000 0.890
70.74000 1.642
70.76000 6.062
70.78000 1.118
70.80000 -2.609
70.82000 1.936
70.84000 4.845
70.86000 3.835
70.88000 -0.609
70.90000 6.129
70.92000 6.813
70.94000 2.559
70.96000 8.183
70.98000 7.409
71.00000 -1.147
71.02000 1.967
71.04000 1.099
71.06000 1.533
71.08000 0.229
71.10000 3.780
71.12000 3.054
71.14000 0.070
71.16000 2.508
71.18000 3.881
71.20000 2.562
71.22000 4.445
71.24000 7.644
71.26000 4.075
71.28000 2.436
71.30000 3.523
71.32000 0.253
71.34000 2.883
71.36000 2.194
71.38000 0.681
71.40000 2.928
71.42000 3.643
71.44000 -2.577
71.46000 2.795
71.48000 6.068
71.50000 7.648
71.52000 6.552
71.54000 2.242
71.56000 1.672
71.58000 6.395
71.60000 3.789
71.62000 5.113
71.64000 7.168
71.66000 4.011
71.68000 3.897
71.70000 5.432
71.72000 5.840
71.74000 2.441
71.76000 0.858
71.78000 1.302
71.80000 1.408
71.82000 0.681
71.84000 0.897
71.86000 2.253
71.88000 2.454
71.90000 2.141
71.92000 5.420
71.94000 6.831
71.96000 2.009
71.98000 -0.391
72.00000 2.176
72.02000 3.641
72.04000 2.664
72.06000 3.982
72.08000 3.379
72.10000 -0.128
72.12000 0.222
72.14000 1.984
72.16000 4.563
72.18000 7.289
72.20000 11.478
72.22000 8.857
72.24000 5.828
72.26000 6.000
72.28000 0.453
72.30000 2.081
72.32000 2.934
72.34000 0.603
72.36000 -2.559
72.38000 -1.787
72.40000 3.667
72.42000 0.264
72.44000 -1.067
72.46000 0.466
72.48000 3.655
72.50000 3.036
72.52000 2.758
72.54000 2.674
72.56000 -0.534
72.58000 2.899
72.60000 1.322
72.62000 3.642
72.64000 2.613
72.66000 0.782
72.68000 -2.550
72.70000 1.532
72.72000 2.343
72.74000 4.856
72.76000 7.768
72.78000 6.755
72.80000 5.606
72.82000 4.394
72.84000 4.482
72.86000 2.541
72.88000 -2.040
72.90000 0.578
72.92000 1.889
72.94000 5.143
72.96000 3.873
72.98000 2.729
73.00000 3.250
73.02000 0.354
73.04000 2.353
73.06000 4.081
73.08000 4.680
73.10000 3.223
73.12000 2.756
73.14000 -1.745
73.16000 -2.526
73.18000 0.539
73.20000 0.176
73.22000 3.827
73.24000 3.479
73.26000 1.448
73.28000 6.865
73.30000 4.895
73.32000 3.151
73.34000 3.036
73.36000 1.725
73.38000 0.493
73.40000 1.780
73.42000 0.102
73.44000 1.826
73.46000 5.075
73.48000 3.580
73.50000 5.069
73.52000 3.490
73.54000 -2.524
73.56000 0.860
73.58000 7.467
73.60000 3.397
73.62000 2.372
73.64000 1.641
73.66000 -0.072
73.68000 1.992
73.70000 -1.252
73.72000 1.977
73.74000 2.375
73.76000 4.423
73.78000 4.210
73.80000 3.117
73.82000 0.304
73.84000 1.857
73.86000 4.975
73.88000 3.342
73.90000 5.419
73.92000 1.227
73.94000 -0.532
73.96000 -0.368
73.98000 2.912
74.00000 1.070
74.02000 -0.794
74.04000 -1.784
74.06000 -2.120
74.08000 -2.532
74.10000 -0.810
74.12000 5.951
74.14000 8.298
74.16000 3.532
74.18000 2.330
74.20000 -0.692
74.22000 -0.365
74.24000 1.136
74.26000 -0.797
74.28000 6.054
74.30000 5.673
74.32000 3.170
74.34000 9.197
74.36000 5.616
74.38000 0.083
74.40000 3.003
74.42000 1.944
74.44000 -0.613
74.46000 -0.083
74.48000 -0.297
74.50000 -1.832
74.52000 -1.963
74.54000 2.477
74.56000 3.558
74.58000 -2.519
74.60000 1.706
74.62000 3.409
74.64000 4.209
74.66000 1.907
74.68000 5.703
74.70000 4.001
74.72000 6.077
74.74000 6.792
74.76000 4.308
74.78000 0.040
74.80000 2.404
74.82000 1.431
74.84000 -0.959
74.86000 -1.032
74.88000 0.861
74.90000 0.991
74.92000 1.753
74.94000 4.579
74.96000 6.856
74.98000 3.896
75.00000 2.958
75.02000 4.688
75.04000 9.871
75.06000 8.795
75.08000 6.107
75.10000 5.488
75.12000 8.191
75.14000 5.574
75.16000 -0.444
75.18000 0.804
75.20000 2.221
75.22000 7.432
75.24000 9.341
75.26000 7.901
75.28000 1.890
75.30000 4.398
75.32000 4.738
75.34000 6.320
75.36000 9.404
75.38000 6.043
75.40000 4.652
75.42000 8.563
75.44000 7.232
75.46000 5.339
75.48000 4.191
75.50000 2.322
75.52000 0.958
75.54000 6.780
75.56000 4.310
75.58000 8.907
75.60000 4.894
75.62000 6.777
75.64000 9.043
75.66000 8.073
75.68000 3.270
75.70000 8.085
75.72000 8.503
75.74000 5.515
75.76000 7.494
75.78000 9.474
75.80000 9.561
75.82000 3.182
75.84000 -2.463
75.86000 2.806
75.88000 6.553
75.90000 7.866
75.92000 10.822
75.94000 8.204
75.96000 6.151
75.98000 4.420
76.00000 5.944
76.02000 2.740
76.04000 2.608
76.06000 5.225
76.08000 5.436
76.10000 3.425
76.12000 11.280
76.14000 9.275
76.16000 7.503
76.18000 7.011
76.20000 2.101
76.22000 2.389
76.24000 2.404
76.26000 2.632
76.28000 4.150
76.30000 -0.268
76.32000 1.307
76.34000 5.038
76.36000 7.817
76.38000 8.849
76.40000 6.487
76.42000 3.594
76.44000 4.122
76.46000 4.034
76.48000 4.001
76.50000 5.691
76.52000 5.218
76.54000 1.587
76.56000 3.756
76.58000 7.106
76.60000 4.848
76.62000 11.676
76.64000 8.743
76.66000 9.694
76.68000 7.074
76.70000 6.570
76.72000 3.873
76.74000 8.634
76.76000 10.065
76.78000 3.721
76.80000 0.450
76.82000 3.627
76.84000 3.356
76.86000 1.337
76.88000 3.012
76.90000 0.089
76.92000 0.645
76.94000 7.030
76.96000 1.271
76.98000 -0.116
77.00000 -0.429
77.02000 0.624
77.04000 3.269
77.06000 0.610
77.08000 0.771
77.10000 5.283
77.12000 0.643
77.14000 4.353
77.16000 4.147
77.18000 6.652
77.20000 3.671
77.22000 1.705
77.24000 2.055
77.26000 1.387
77.28000 5.357
77.30000 3.019
77.32000 3.096
77.34000 2.209
77.36000 4.836
77.38000 5.356
77.40000 2.978
77.42000 -0.795
77.44000 0.818
77.46000 -1.342
77.48000 0.807
77.50000 7.161
77.52000 5.026
77.54000 2.258
77.56000 -2.559
77.58000 3.876
77.60000 0.914
77.62000 1.548
77.64000 7.242
77.66000 6.908
77.68000 6.162
77.70000 2.175
77.72000 6.380
77.74000 6.450
77.76000 6.993
77.78000 7.377
77.80000 7.697
77.82000 2.701
77.84000 0.575
77.86000 1.025
77.88000 -1.140
77.90000 5.160
77.92000 4.331
77.94000 3.844
77.96000 6.138
77.98000 8.246
78.00000 5.108
78.02000 5.150
78.04000 4.598
78.06000 7.621
78.08000 2.841
78.10000 7.784
78.12000 3.580
78.14000 9.080
78.16000 11.146
78.18000 8.566
78.20000 3.850
78.22000 4.395
78.24000 3.962
78.26000 2.497
78.28000 3.519
78.30000 5.425
78.32000 0.270
78.34000 2.469
78.36000 6.452
78.38000 4.677
78.40000 6.618
78.42000 -1.656
78.44000 -0.825
78.46000 3.873
78.48000 8.536
78.50000 9.633
78.52000 3.660
78.54000 1.642
78.56000 2.549
78.58000 2.406
78.60000 6.947
78.62000 10.286
78.64000 8.915
78.66000 7.285
78.68000 5.136
78.70000 9.493
78.72000 13.257
78.74000 11.477
78.76000 10.691
78.78000 5.470
78.80000 -2.570
78.82000 -2.182
78.84000 6.425
78.86000 5.958
78.88000 4.048
78.90000 3.260
78.92000 7.256
78.94000 6.090
78.96000 8.053
78.98000 5.093
79.00000 12.013
79.02000 6.609
79.04000 -1.584
79.06000 5.169
79.08000 8.153
79.10000 4.575
79.12000 6.773
79.14000 4.005
79.16000 5.611
79.18000 2.712
79.20000 2.783
79.22000 2.844
79.24000 3.264
79.26000 3.831
79.28000 8.610
79.30000 11.113
79.32000 4.368
79.34000 3.196
79.36000 1.527
79.38000 5.848
79.40000 3.151
79.42000 1.792
79.44000 3.784
79.46000 4.646
79.48000 4.577
79.50000 4.645
79.52000 0.276
79.54000 0.993
79.56000 6.473
79.58000 9.744
79.60000 4.424
79.62000 0.476
79.64000 9.603
79.66000 7.279
79.68000 1.973
79.70000 9.947
79.72000 4.454
79.74000 5.791
79.76000 7.643
79.78000 4.503
79.80000 7.307
79.82000 7.565
79.84000 8.375
79.86000 8.251
79.88000 6.487
79.90000 2.256
79.92000 -2.649
79.94000 2.872
79.96000 2.645
79.98000 6.054
80.00000 5.770
80.02000 9.655
80.04000 7.279
80.06000 6.439
80.08000 5.804
80.10000 7.252
80.12000 10.165
80.14000 4.218
80.16000 8.648
80.18000 15.874
80.20000 11.366
80.22000 10.868
80.24000 10.173
80.26000 8.092
80.28000 12.136
80.30000 6.266
80.32000 6.810
80.34000 13.241
80.36000 8.840
80.38000 5.802
80.40000 8.027
80.42000 5.246
80.44000 9.438
80.46000 8.480
80.48000 10.397
80.50000 8.664
80.52000 15.324
80.54000 20.684
80.56000 17.733
80.58000 11.336
80.60000 9.396
80.62000 8.658
80.64000 10.231
80.66000 11.277
80.68000 14.412
80.70000 13.455
80.72000 8.316
80.74000 7.239
80.76000 11.433
80.78000 14.053
80.80000 10.911
80.82000 11.541
80.84000 9.000
80.86000 13.908
80.88000 13.917
80.90000 5.291
80.92000 12.307
80.94000 14.035
80.96000 6.321
80.98000 8.787
81.00000 7.646
81.02000 11.834
81.04000 17.892
81.06000 22.443
81.08000 18.175
81.10000 11.845
81.12000 16.200
81.14000 14.102
81.16000 13.749
81.18000 15.996
81.20000 18.234
81.22000 12.965
81.24000 13.368
81.26000 15.072
81.28000 17.256
81.30000 16.559
81.32000 18.713
81.34000 22.732
81.36000 23.165
81.38000 17.538
81.40000 14.888
81.42000 20.255
81.44000 21.242
81.46000 17.804
81.48000 24.507
81.50000 23.936
81.52000 18.203
81.54000 15.494
81.56000 14.605
81.58000 18.945
81.60000 20.473
81.62000 16.192
81.64000 25.899
81.66000 30.106
81.68000 26.168
81.70000 26.402
81.72000 26.242
81.74000 24.197
81.76000 19.547
81.78000 20.096
81.80000 19.371
81.82000 28.573
81.84000 34.490
81.86000 34.739
81.88000 27.470
81.90000 22.028
81.92000 21.609
81.94000 22.884
81.96000 29.002
81.98000 24.443
82.00000 23.695
82.02000 24.602
82.04000 23.190
82.06000 23.152
82.08000 30.859
82.10000 34.215
82.12000 26.201
82.14000 20.201
82.16000 19.179
82.18000 19.562
82.20000 21.321
82.22000 21.691
82.24000 28.847
82.26000 24.718
82.28000 24.952
82.30000 23.447
82.32000 19.732
82.34000 20.479
82.36000 21.202
82.38000 24.783
82.40000 11.446
82.42000 8.457
82.44000 20.023
82.46000 20.633
82.48000 18.834
82.50000 16.707
82.52000 24.114
82.54000 20.627
82.56000 16.157
82.58000 19.133
82.60000 16.920
82.62000 13.540
82.64000 16.201
82.66000 19.064
82.68000 14.538
82.70000 8.609
82.72000 13.141
82.74000 12.757
82.76000 9.223
82.78000 12.844
82.80000 12.786
82.82000 12.993
82.84000 8.037
82.86000 11.271
82.88000 9.257
82.90000 9.526
82.92000 8.239
82.94000 8.666
82.96000 8.371
82.98000 4.067
83.00000 11.022
83.02000 10.808
83.04000 9.637
83.06000 11.995
83.08000 9.231
83.10000 7.224
83.12000 11.280
83.14000 9.273
83.16000 8.035
83.18000 4.952
83.20000 6.416
83.22000 7.025
83.24000 6.663
83.26000 4.542
83.28000 4.006
83.30000 9.254
83.32000 4.969
83.34000 3.554
83.36000 8.670
83.38000 4.713
83.40000 5.154
83.42000 6.099
83.44000 3.531
83.46000 1.226
83.48000 2.184
83.50000 3.847
83.52000 1.100
83.54000 5.089
83.56000 3.184
83.58000 3.484
83.60000 2.123
83.62000 -2.786
83.64000 -2.021
83.66000 5.314
83.68000 4.709
83.70000 5.038
83.72000 2.135
83.74000 0.683
83.76000 1.416
83.78000 0.844
83.80000 -1.697
83.82000 1.568
83.84000 2.053
83.86000 1.693
83.88000 0.892
83.90000 -1.884
83.92000 -0.487
83.94000 1.574
83.96000 0.885
83.98000 1.798
84.00000 5.686
84.02000 6.053
84.04000 4.259
84.06000 1.029
84.08000 -0.542
84.10000 -0.501
84.12000 6.265
84.14000 2.880
84.16000 -1.168
84.18000 -1.200
84.20000 5.409
84.22000 2.613
84.24000 7.434
84.26000 2.105
84.28000 -2.740
84.30000 0.618
84.32000 -0.020
84.34000 0.838
84.36000 1.349
84.38000 1.267
84.40000 2.777
84.42000 3.129
84.44000 0.380
84.46000 -1.122
84.48000 -2.220
84.50000 3.298
84.52000 4.015
84.54000 2.556
84.56000 0.773
84.58000 2.070
84.60000 5.338
84.62000 5.719
84.64000 3.015
84.66000 4.543
84.68000 1.655
84.70000 5.553
84.72000 11.297
84.74000 10.769
84.76000 5.451
84.78000 3.922
84.80000 7.249
84.82000 9.794
84.84000 8.849
84.86000 8.550
84.88000 5.424
84.90000 7.102
84.92000 12.394
84.94000 9.955
84.96000 8.589
84.98000 13.151
85.00000 6.522
85.02000 7.320
85.04000 5.459
85.06000 9.066
85.08000 6.274
85.10000 7.543
85.12000 10.079
85.14000 10.750
85.16000 5.888
85.18000 9.362
85.20000 14.080
85.22000 16.194
85.24000 14.278
85.26000 16.450
85.28000 19.580
85.30000 17.395
85.32000 17.236
85.34000 21.136
85.36000 18.605
85.38000 17.474
85.40000 16.005
85.42000 20.626
85.44000 20.751
85.46000 18.771
85.48000 22.474
85.50000 21.863
85.52000 24.899
85.54000 23.462
85.56000 25.918
85.58000 29.845
85.60000 29.775
85.62000 27.814
85.64000 29.622
85.66000 27.412
85.68000 26.557
85.70000 27.583
85.72000 32.485
85.74000 35.101
85.76000 30.467
85.78000 28.802
85.80000 35.260
85.82000 35.605
85.84000 36.321
85.86000 35.590
85.88000 42.988
85.90000 45.124
85.92000 40.613
85.94000 36.208
85.96000 37.884
85.98000 43.188
86.00000 47.627
86.02000 45.269
86.04000 43.861
86.06000 46.360
86.08000 40.550
86.10000 40.436
86.12000 43.494
86.14000 45.564
86.16000 40.329
86.18000 39.456
86.20000 44.370
86.22000 45.190
86.24000 45.444
86.26000 44.334
86.28000 45.811
86.30000 49.698
86.32000 54.851
86.34000 49.252
86.36000 43.981
86.38000 44.282
86.40000 44.901
86.42000 40.761
86.44000 40.432
86.46000 39.034
86.48000 36.354
86.50000 37.794
86.52000 36.376
86.54000 40.626
86.56000 42.262
86.58000 36.189
86.60000 35.735
86.62000 38.358
86.64000 34.529
86.66000 32.388
86.68000 33.409
86.70000 31.232
86.72000 30.295
86.74000 29.138
86.76000 30.172
86.78000 25.332
86.80000 26.864
86.82000 27.760
86.84000 26.119
86.86000 31.539
86.88000 30.538
86.90000 27.135
86.92000 22.806
86.94000 24.339
86.96000 19.834
86.98000 15.776
87.00000 17.188
87.02000 25.019
87.04000 17.160
87.06000 13.558
87.08000 18.918
87.10000 20.227
87.12000 20.057
87.14000 17.443
87.16000 16.898
87.18000 13.839
87.20000 15.187
87.22000 17.494
87.24000 9.039
87.26000 10.460
87.28000 12.285
87.30000 6.160
87.32000 7.853
87.34000 13.223
87.36000 17.417
87.38000 13.490
87.40000 13.936
87.42000 11.239
87.44000 8.495
87.46000 10.851
87.48000 8.437
87.50000 7.441
87.52000 15.051
87.54000 13.880
87.56000 10.620
87.58000 6.506
87.60000 6.609
87.62000 8.211
87.64000 9.414
87.66000 9.224
87.68000 4.481
87.70000 -1.207
87.72000 6.283
87.74000 8.380
87.76000 5.656
87.78000 9.846
87.80000 4.473
87.82000 3.528
87.84000 6.321
87.86000 1.032
87.88000 0.957
87.90000 -2.531
87.92000 -1.019
87.94000 3.766
87.96000 4.071
87.98000 2.789
88.00000 1.648
88.02000 3.031
88.04000 3.142
88.06000 3.516
88.08000 6.127
88.10000 7.055
88.12000 2.761
88.14000 6.001
88.16000 5.938
88.18000 4.494
88.20000 7.608
88.22000 6.482
88.24000 7.401
88.26000 3.828
88.28000 2.034
88.30000 2.674
88.32000 1.701
88.34000 6.934
88.36000 8.146
88.38000 3.025
88.40000 1.087
88.42000 4.512
88.44000 1.636
88.46000 3.610
88.48000 6.314
88.50000 6.025
88.52000 7.466
88.54000 5.408
88.56000 4.180
88.58000 7.485
88.60000 7.428
88.62000 2.710
88.64000 7.403
88.66000 7.769
88.68000 10.337
88.70000 6.128
88.72000 -2.362
88.74000 1.600
88.76000 6.272
88.78000 6.904
88.80000 12.064
88.82000 8.295
88.84000 4.467
88.86000 4.233
88.88000 2.121
88.90000 5.825
88.92000 7.654
88.94000 7.648
88.96000 4.667
88.98000 0.543
89.00000 -1.403
89.02000 4.167
89.04000 3.943
89.06000 4.416
89.08000 5.789
89.10000 3.447
89.12000 -0.683
89.14000 -1.259
89.16000 2.586
89.18000 3.002
89.20000 1.874
89.22000 1.775
89.24000 2.861
89.26000 2.762
89.28000 4.132
89.30000 4.280
89.32000 1.930
89.34000 0.435
89.36000 0.568
89.38000 -1.776
89.40000 3.048
89.42000 1.855
89.44000 3.005
89.46000 5.703
89.48000 1.511
89.50000 -0.728
89.52000 6.026
89.54000 0.281
89.56000 -2.338
89.58000 2.393
89.60000 7.939
89.62000 9.315
89.64000 9.288
89.66000 0.669
89.68000 -2.382
89.70000 0.171
89.72000 4.459
89.74000 7.792
89.76000 3.189
89.78000 -1.802
89.80000 1.469
89.82000 5.059
89.84000 2.427
89.86000 -0.819
89.88000 5.923
89.90000 2.929
89.92000 4.775
89.94000 4.741
89.96000 5.908
89.98000 5.423
90.00000 3.105
90.02000 -0.466
90.04000 -2.391
90.06000 0.230
90.08000 0.208
90.10000 3.643
90.12000 7.394
90.14000 8.002
90.16000 4.925
90.18000 2.627
90.20000 4.308
90.22000 2.032
90.24000 1.946
90.26000 5.793
90.28000 5.739
90.30000 5.924
90.32000 4.752
90.34000 9.976
90.36000 5.481
90.38000 4.369
90.40000 0.306
90.42000 2.710
90.44000 3.608
90.46000 10.163
90.48000 5.751
90.50000 3.983
90.52000 3.260
90.54000 3.930
90.56000 0.524
90.58000 -1.580
90.60000 -1.602
90.62000 6.881
90.64000 6.663
90.66000 -0.263
90.68000 -0.917
90.70000 7.427
90.72000 4.038
90.74000 4.627
90.76000 6.826
90.78000 5.545
90.80000 1.576
90.82000 2.630
90.84000 6.283
90.86000 8.484
90.88000 3.839
90.90000 2.629
90.92000 4.958
90.94000 5.618
90.96000 3.483
90.98000 -2.309
91.00000 4.767
91.02000 1.257
91.04000 3.768
91.06000 1.196
91.08000 -2.384
91.10000 1.206
91.12000 7.075
91.14000 3.480
91.16000 -0.170
91.18000 4.303
91.20000 2.413
91.22000 2.789
91.24000 3.836
91.26000 8.379
91.28000 5.115
91.30000 4.938
91.32000 5.805
91.34000 3.157
91.36000 2.203
91.38000 3.929
91.40000 3.888
91.42000 1.864
91.44000 1.325
91.46000 2.676
91.48000 4.412
91.50000 1.000
91.52000 3.388
91.54000 0.938
91.56000 0.969
91.58000 0.150
91.60000 -0.164
91.62000 2.442
91.64000 -1.478
91.66000 0.548
91.68000 2.791
91.70000 6.238
91.72000 6.978
91.74000 8.358
91.76000 8.561
91.78000 0.641
91.80000 3.965
91.82000 7.549
91.84000 7.109
91.86000 6.245
91.88000 9.247
91.90000 4.940
91.92000 3.387
91.94000 8.939
91.96000 8.505
91.98000 8.327
92.00000 10.278
92.02000 10.255
92.04000 7.039
92.06000 7.427
92.08000 5.283
92.10000 4.441
92.12000 -0.002
92.14000 6.995
92.16000 11.305
92.18000 10.705
92.20000 5.575
92.22000 3.434
92.24000 6.854
92.26000 8.016
92.28000 5.661
92.30000 3.224
92.32000 3.728
92.34000 5.039
92.36000 6.679
92.38000 8.939
92.40000 3.699
92.42000 4.921
92.44000 8.264
92.46000 5.984
92.48000 10.101
92.50000 8.613
92.52000 6.764
92.54000 4.664
92.56000 5.506
92.58000 7.689
92.60000 4.339
92.62000 -2.311
92.64000 -1.664
92.66000 2.441
92.68000 8.909
92.70000 10.027
92.72000 3.877
92.74000 8.910
92.76000 12.629
92.78000 11.338
92.80000 7.780
92.82000 7.858
92.84000 8.119
92.86000 9.950
92.88000 9.173
92.90000 10.033
92.92000 10.041
92.94000 12.514
92.96000 13.090
92.98000 4.088
93.00000 -1.145
93.02000 0.311
93.04000 0.796
93.06000 7.087
93.08000 8.383
93.10000 6.820
93.12000 0.620
93.14000 6.135
93.16000 9.188
93.18000 12.076
93.20000 6.555
93.22000 6.183
93.24000 4.621
93.26000 11.112
93.28000 11.063
93.30000 6.524
93.32000 1.732
93.34000 4.653
93.36000 5.719
93.38000 6.879
93.40000 7.907
93.42000 5.083
93.44000 1.827
93.46000 0.806
93.48000 -1.344
93.50000 1.401
93.52000 -0.275
93.54000 4.910
93.56000 4.885
93.58000 5.917
93.60000 2.692
93.62000 -1.007
93.64000 -0.486
93.66000 -2.010
93.68000 6.202
93.70000 15.107
93.72000 16.036
93.74000 10.107
93.76000 7.817
93.78000 5.956
93.80000 -0.194
93.82000 -1.824
93.84000 -2.394
93.86000 -0.488
93.88000 5.652
93.90000 7.303
93.92000 5.994
93.94000 3.158
93.96000 6.205
93.98000 5.336
94.00000 0.502
94.02000 3.181
94.04000 0.455
94.06000 4.962
94.08000 -0.039
94.10000 -2.397
94.12000 2.734
94.14000 6.871
94.16000 4.629
94.18000 3.646
94.20000 8.259
94.22000 8.633
94.24000 7.212
94.26000 8.558
94.28000 7.993
94.30000 5.778
94.32000 5.571
94.34000 12.237
94.36000 11.970
94.38000 3.523
94.40000 4.994
94.42000 2.486
94.44000 7.715
94.46000 7.746
94.48000 9.483
94.50000 4.725
94.52000 7.477
94.54000 9.578
94.56000 5.929
94.58000 0.225
94.60000 -0.417
94.62000 1.726
94.64000 2.025
94.66000 3.120
94.68000 6.281
94.70000 3.997
94.72000 2.650
94.74000 5.881
94.76000 4.243
94.78000 5.708
94.80000 5.169
94.82000 7.494
94.84000 13.498
94.86000 6.151
94.88000 3.653
94.90000 4.537
94.92000 3.059
94.94000 7.988
94.96000 7.691
94.98000 6.576
95.00000 9.631
95.02000 1.611
95.04000 -2.400
95.06000 0.811
95.08000 10.500
95.10000 9.689
95.12000 6.220
95.14000 3.983
95.16000 4.546
95.18000 4.410
95.20000 6.261
95.22000 4.875
95.24000 4.379
95.26000 3.769
95.28000 3.352
95.30000 1.102
95.32000 -0.019
95.34000 -0.874
95.36000 4.994
95.38000 7.758
95.40000 5.836
95.42000 0.089
95.44000 -0.687
95.46000 1.279
95.48000 6.404
95.50000 9.036
95.52000 11.817
95.54000 8.743
95.56000 2.573
95.58000 6.970
95.60000 10.264
95.62000 6.005
95.64000 5.081
95.66000 1.794
95.68000 7.515
95.70000 3.281
95.72000 2.274
95.74000 1.533
95.76000 2.829
95.78000 5.841
95.80000 3.967
95.82000 4.574
95.84000 -0.540
95.86000 5.015
95.88000 8.378
95.90000 7.828
95.92000 0.441
95.94000 3.903
95.96000 4.194
95.98000 -2.380
96.00000 4.781
96.02000 6.189
96.04000 7.287
96.06000 8.924
96.08000 8.379
96.10000 12.552
96.12000 7.579
96.14000 6.354
96.16000 -2.371
96.18000 4.436
96.20000 4.882
96.22000 1.463
96.24000 3.838
96.26000 7.309
96.28000 16.466
96.30000 7.431
96.32000 3.285
96.34000 4.722
96.36000 4.193
96.38000 7.040
96.40000 5.357
96.42000 5.508
96.44000 2.626
96.46000 2.268
96.48000 10.109
96.50000 4.774
96.52000 2.193
96.54000 0.853
96.56000 3.920
96.58000 8.349
96.60000 8.906
96.62000 9.871
96.64000 7.640
96.66000 3.057
96.68000 5.291
96.70000 8.748
96.72000 11.922
96.74000 10.942
96.76000 8.417
96.78000 6.279
96.80000 4.705
96.82000 3.820
96.84000 4.025
96.86000 9.396
96.88000 11.045
96.90000 9.410
96.92000 1.736
96.94000 3.883
96.96000 9.940
96.98000 1.263
97.00000 7.964
97.02000 11.735
97.04000 11.247
97.06000 9.804
97.08000 11.740
97.10000 3.860
97.12000 9.956
97.14000 12.097
97.16000 6.778
97.18000 6.464
97.20000 1.811
97.22000 9.561
97.24000 7.350
97.26000 11.736
97.28000 7.135
97.30000 7.633
97.32000 5.405
97.34000 5.701
97.36000 9.000
97.38000 2.371
97.40000 7.578
97.42000 12.087
97.44000 8.614
97.46000 11.374
97.48000 9.494
97.50000 12.160
97.52000 12.910
97.54000 10.502
97.56000 7.227
97.58000 0.285
97.60000 3.160
97.62000 8.650
97.64000 1.970
97.66000 -2.302
97.68000 4.888
97.70000 8.857
97.72000 9.103
97.74000 6.315
97.76000 2.645
97.78000 2.330
97.80000 1.286
97.82000 8.363
97.84000 7.454
97.86000 4.153
97.88000 9.193
97.90000 9.935
97.92000 5.504
97.94000 7.688
97.96000 11.647
97.98000 13.131
98.00000 10.219
98.02000 7.848
98.04000 9.639
98.06000 10.583
98.08000 1.970
98.10000 2.692
98.12000 1.805
98.14000 10.343
98.16000 9.550
98.18000 8.081
98.20000 10.486
98.22000 21.572
98.24000 6.034
98.26000 0.939
98.28000 -1.340
98.30000 1.013
98.32000 8.125
98.34000 11.771
98.36000 6.007
98.38000 6.374
98.40000 6.822
98.42000 -0.233
98.44000 -0.644
98.46000 7.388
98.48000 8.474
98.50000 7.595
98.52000 12.860
98.54000 7.397
98.56000 3.157
98.58000 10.863
98.60000 5.898
98.62000 8.645
98.64000 6.489
98.66000 4.229
98.68000 4.671
98.70000 4.826
98.72000 -2.311
98.74000 2.741
98.76000 5.266
98.78000 10.310
98.80000 12.329
98.82000 8.290
98.84000 4.430
98.86000 0.502
98.88000 -1.667
98.90000 0.464
98.92000 -2.328
98.94000 2.658
98.96000 1.120
98.98000 -0.882
99.00000 -0.625
99.02000 10.372
99.04000 12.165
99.06000 4.643
99.08000 2.041
99.10000 2.735
99.12000 8.681
99.14000 12.397
99.16000 12.947
99.18000 5.396
99.20000 6.759
99.22000 7.825
99.24000 4.961
99.26000 1.809
99.28000 3.131
99.30000 5.325
99.32000 10.779
99.34000 7.478
99.36000 12.120
99.38000 2.530
99.40000 -0.179
99.42000 8.006
99.44000 11.280
99.46000 13.657
99.48000 7.490
99.50000 6.958
99.52000 9.934
99.54000 15.285
99.56000 12.247
99.58000 10.973
99.60000 4.275
99.62000 2.281
99.64000 -0.207
99.66000 17.030
99.68000 8.526
99.70000 -3.411
99.72000 11.355
99.74000 6.986
99.76000 11.194
99.78000 10.218
99.80000 21.144
99.82000 19.749
99.84000 9.374
99.86000 2.487
99.88000 -0.214
99.90000 -2.389
99.92000 1.331
99.94000 4.103
99.96000 3.082
99.98000 0.000
