'Id: "0011387" Comment: "Integrate frame 0011387_Au-Ir-Rh_Rh-rich_XRD-Mapping-161-0000.gfrmwith cursor Wedge Cursor #5" Operator: "B?rgel" Anode: "Cu" Wavelength: "1.5406" Scantype: "2Theta (TwoTheta)" TimePerStep: "1" X: "-27" Y: "0" Z: "5.95" 
10.00000 0.000
10.02000 8.937
10.04000 10.984
10.06000 7.686
10.08000 4.530
10.10000 -0.205
10.12000 -4.491
10.14000 -3.302
10.16000 17.222
10.18000 16.111
10.20000 8.928
10.22000 0.431
10.24000 -0.599
10.26000 15.895
10.28000 19.329
10.30000 8.088
10.32000 14.884
10.34000 17.702
10.36000 21.046
10.38000 16.587
10.40000 -9.443
10.42000 3.709
10.44000 13.134
10.46000 21.366
10.48000 21.905
10.50000 3.265
10.52000 2.188
10.54000 25.292
10.56000 32.392
10.58000 19.733
10.60000 13.609
10.62000 12.390
10.64000 15.288
10.66000 3.756
10.68000 9.925
10.70000 11.537
10.72000 9.579
10.74000 17.744
10.76000 17.195
10.78000 13.801
10.80000 21.876
10.82000 13.611
10.84000 9.897
10.86000 8.296
10.88000 6.526
10.90000 4.167
10.92000 4.594
10.94000 11.218
10.96000 29.396
10.98000 23.292
11.00000 3.677
11.02000 13.321
11.04000 22.476
11.06000 23.657
11.08000 17.874
11.10000 22.743
11.12000 21.683
11.14000 23.222
11.16000 19.052
11.18000 19.054
11.20000 23.451
11.22000 20.864
11.24000 17.412
11.26000 22.933
11.28000 25.373
11.30000 13.874
11.32000 20.393
11.34000 29.253
11.36000 28.028
11.38000 20.696
11.40000 8.624
11.42000 5.780
11.44000 15.377
11.46000 21.653
11.48000 20.043
11.50000 20.065
11.52000 23.954
11.54000 22.006
11.56000 16.828
11.58000 23.630
11.60000 26.214
11.62000 24.595
11.64000 17.385
11.66000 3.261
11.68000 -3.407
11.70000 11.170
11.72000 25.265
11.74000 13.995
11.76000 8.773
11.78000 15.027
11.80000 17.417
11.82000 10.012
11.84000 -4.381
11.86000 4.477
11.88000 7.803
11.90000 13.374
11.92000 27.672
11.94000 26.540
11.96000 11.275
11.98000 8.978
12.00000 12.189
12.02000 28.613
12.04000 24.950
12.06000 10.810
12.08000 9.364
12.10000 10.530
12.12000 11.947
12.14000 30.163
12.16000 24.397
12.18000 14.555
12.20000 16.157
12.22000 14.051
12.24000 13.431
12.26000 15.978
12.28000 23.256
12.30000 29.210
12.32000 7.474
12.34000 -4.417
12.36000 12.076
12.38000 18.919
12.40000 13.807
12.42000 20.076
12.44000 30.503
12.46000 27.653
12.48000 20.742
12.50000 9.908
12.52000 11.885
12.54000 17.133
12.56000 19.824
12.58000 17.314
12.60000 19.103
12.62000 5.289
12.64000 0.964
12.66000 14.410
12.68000 10.487
12.70000 12.972
12.72000 18.493
12.74000 20.079
12.76000 15.462
12.78000 15.604
12.80000 14.819
12.82000 4.810
12.84000 5.366
12.86000 14.678
12.88000 18.579
12.90000 11.362
12.92000 -1.412
12.94000 4.306
12.96000 15.502
12.98000 10.677
13.00000 18.701
13.02000 16.636
13.04000 5.123
13.06000 0.028
13.08000 13.909
13.10000 11.195
13.12000 5.638
13.14000 20.544
13.16000 23.484
13.18000 11.580
13.20000 16.368
13.22000 11.618
13.24000 9.911
13.26000 7.009
13.28000 10.266
13.30000 5.033
13.32000 4.384
13.34000 11.072
13.36000 8.158
13.38000 13.146
13.40000 11.012
13.42000 5.867
13.44000 0.622
13.46000 3.895
13.48000 7.038
13.50000 4.488
13.52000 10.064
13.54000 12.881
13.56000 18.128
13.58000 19.516
13.60000 15.805
13.62000 4.189
13.64000 4.606
13.66000 10.877
13.68000 6.289
13.70000 -3.964
13.72000 3.700
13.74000 15.371
13.76000 12.306
13.78000 11.811
13.80000 6.764
13.82000 4.653
13.84000 8.760
13.86000 6.156
13.88000 8.623
13.90000 12.869
13.92000 11.854
13.94000 9.367
13.96000 12.682
13.98000 6.614
14.00000 12.402
14.02000 13.629
14.04000 4.836
14.06000 11.073
14.08000 10.909
14.10000 -0.561
14.12000 5.198
14.14000 10.711
14.16000 -2.491
14.18000 6.176
14.20000 -0.859
14.22000 -4.091
14.24000 2.421
14.26000 10.543
14.28000 10.545
14.30000 11.276
14.32000 7.213
14.34000 2.892
14.36000 -3.661
14.38000 3.724
14.40000 11.149
14.42000 6.457
14.44000 5.742
14.46000 3.743
14.48000 -4.477
14.50000 1.358
14.52000 2.308
14.54000 2.760
14.56000 2.367
14.58000 -4.482
14.60000 5.057
14.62000 11.229
14.64000 10.767
14.66000 4.803
14.68000 7.945
14.70000 11.152
14.72000 13.402
14.74000 13.633
14.76000 5.447
14.78000 9.638
14.80000 9.342
14.82000 1.058
14.84000 9.419
14.86000 16.615
14.88000 1.918
14.90000 8.541
14.92000 8.765
14.94000 2.270
14.96000 4.132
14.98000 4.632
15.00000 1.329
15.02000 -2.739
15.04000 -4.469
15.06000 -0.624
15.08000 5.140
15.10000 -0.194
15.12000 4.680
15.14000 12.728
15.16000 14.178
15.18000 -0.491
15.20000 -0.303
15.22000 6.738
15.24000 2.252
15.26000 5.948
15.28000 0.292
15.30000 2.264
15.32000 6.593
15.34000 -1.044
15.36000 5.791
15.38000 5.503
15.40000 9.002
15.42000 8.184
15.44000 1.093
15.46000 -2.083
15.48000 6.617
15.50000 7.902
15.52000 9.658
15.54000 10.361
15.56000 4.982
15.58000 -0.052
15.60000 5.429
15.62000 6.623
15.64000 7.207
15.66000 14.302
15.68000 9.867
15.70000 4.658
15.72000 3.940
15.74000 2.038
15.76000 -1.274
15.78000 0.711
15.80000 3.988
15.82000 3.358
15.84000 8.183
15.86000 16.899
15.88000 1.117
15.90000 -4.439
15.92000 2.761
15.94000 2.938
15.96000 6.533
15.98000 7.864
16.00000 13.334
16.02000 6.944
16.04000 3.253
16.06000 1.437
16.08000 1.703
16.10000 -1.250
16.12000 3.628
16.14000 6.789
16.16000 -0.505
16.18000 -3.254
16.20000 3.198
16.22000 4.636
16.24000 0.634
16.26000 5.601
16.28000 16.728
16.30000 9.915
16.32000 0.650
16.34000 5.110
16.36000 4.179
16.38000 3.269
16.40000 -1.998
16.42000 -3.289
16.44000 5.343
16.46000 4.840
16.48000 -1.275
16.50000 3.124
16.52000 11.679
16.54000 10.094
16.56000 9.885
16.58000 12.810
16.60000 -1.480
16.62000 -0.159
16.64000 8.023
16.66000 9.439
16.68000 7.171
16.70000 2.209
16.72000 -3.720
16.74000 1.351
16.76000 11.375
16.78000 10.876
16.80000 14.458
16.82000 6.002
16.84000 -0.651
16.86000 -0.564
16.88000 0.790
16.90000 -3.121
16.92000 9.076
16.94000 11.355
16.96000 0.231
16.98000 0.227
17.00000 8.585
17.02000 4.530
17.04000 3.256
17.06000 -4.393
17.08000 -3.762
17.10000 0.377
17.12000 6.893
17.14000 5.191
17.16000 3.155
17.18000 0.071
17.20000 -1.414
17.22000 8.107
17.24000 9.144
17.26000 5.533
17.28000 -0.010
17.30000 2.102
17.32000 4.013
17.34000 -1.285
17.36000 -0.078
17.38000 2.689
17.40000 3.304
17.42000 4.605
17.44000 6.632
17.46000 7.098
17.48000 9.040
17.50000 7.316
17.52000 8.204
17.54000 1.582
17.56000 6.735
17.58000 4.243
17.60000 4.817
17.62000 3.795
17.64000 5.577
17.66000 4.420
17.68000 1.060
17.70000 -3.407
17.72000 -2.093
17.74000 0.857
17.76000 6.170
17.78000 7.110
17.80000 12.041
17.82000 2.262
17.84000 -4.335
17.86000 1.487
17.88000 6.199
17.90000 8.621
17.92000 9.437
17.94000 3.316
17.96000 7.066
17.98000 11.742
18.00000 5.558
18.02000 0.884
18.04000 0.032
18.06000 4.178
18.08000 9.127
18.10000 7.439
18.12000 5.936
18.14000 4.673
18.16000 -0.483
18.18000 -3.644
18.20000 -0.299
18.22000 0.285
18.24000 7.870
18.26000 14.358
18.28000 10.495
18.30000 -1.378
18.32000 -1.024
18.34000 8.189
18.36000 4.138
18.38000 5.660
18.40000 4.543
18.42000 10.056
18.44000 2.377
18.46000 0.497
18.48000 3.739
18.50000 11.056
18.52000 9.910
18.54000 -1.936
18.56000 -0.606
18.58000 -0.820
18.60000 1.975
18.62000 0.000
18.64000 -0.005
18.66000 0.070
18.68000 3.321
18.70000 8.508
18.72000 8.214
18.74000 6.989
18.76000 5.446
18.78000 3.944
18.80000 -0.574
18.82000 4.452
18.84000 -3.863
18.86000 -3.479
18.88000 -2.258
18.90000 7.684
18.92000 9.246
18.94000 1.647
18.96000 0.305
18.98000 2.441
19.00000 2.186
19.02000 0.423
19.04000 2.513
19.06000 2.748
19.08000 2.477
19.10000 3.285
19.12000 2.088
19.14000 -2.845
19.16000 1.226
19.18000 -1.269
19.20000 -0.807
19.22000 4.489
19.24000 1.430
19.26000 4.607
19.28000 5.893
19.30000 4.305
19.32000 4.197
19.34000 9.409
19.36000 7.383
19.38000 8.169
19.40000 2.641
19.42000 -3.069
19.44000 -3.199
19.46000 3.371
19.48000 5.243
19.50000 1.872
19.52000 0.893
19.54000 2.862
19.56000 3.839
19.58000 -1.607
19.60000 -2.169
19.62000 -4.215
19.64000 -0.770
19.66000 8.147
19.68000 11.842
19.70000 7.434
19.72000 4.307
19.74000 2.998
19.76000 -3.061
19.78000 -1.073
19.80000 7.859
19.82000 9.776
19.84000 5.581
19.86000 7.562
19.88000 8.043
19.90000 3.890
19.92000 8.755
19.94000 4.489
19.96000 13.364
19.98000 11.552
20.00000 4.637
20.02000 10.461
20.04000 14.099
20.06000 1.755
20.08000 -4.176
20.10000 2.383
20.12000 6.493
20.14000 1.131
20.16000 2.109
20.18000 2.896
20.20000 -1.401
20.22000 -0.095
20.24000 -0.139
20.26000 1.968
20.28000 5.625
20.30000 6.393
20.32000 4.754
20.34000 7.100
20.36000 13.575
20.38000 11.534
20.40000 4.273
20.42000 2.523
20.44000 -0.310
20.46000 3.894
20.48000 7.241
20.50000 8.466
20.52000 11.599
20.54000 10.365
20.56000 -0.389
20.58000 8.923
20.60000 11.320
20.62000 7.761
20.64000 6.273
20.66000 5.067
20.68000 1.761
20.70000 2.452
20.72000 1.848
20.74000 3.145
20.76000 3.113
20.78000 0.478
20.80000 5.353
20.82000 1.025
20.84000 2.630
20.86000 3.122
20.88000 4.464
20.90000 4.948
20.92000 4.719
20.94000 1.173
20.96000 2.638
20.98000 -4.149
21.00000 4.053
21.02000 9.588
21.04000 3.390
21.06000 -3.627
21.08000 -4.146
21.10000 -2.926
21.12000 2.759
21.14000 0.617
21.16000 -1.977
21.18000 3.559
21.20000 6.120
21.22000 3.092
21.24000 2.061
21.26000 5.338
21.28000 6.671
21.30000 6.910
21.32000 3.146
21.34000 2.848
21.36000 -2.502
21.38000 -0.120
21.40000 10.287
21.42000 -0.339
21.44000 0.733
21.46000 2.023
21.48000 8.898
21.50000 10.711
21.52000 4.288
21.54000 4.341
21.56000 5.035
21.58000 2.526
21.60000 0.098
21.62000 0.522
21.64000 1.125
21.66000 1.748
21.68000 -0.737
21.70000 9.591
21.72000 9.954
21.74000 -0.504
21.76000 -0.695
21.78000 3.234
21.80000 4.934
21.82000 7.425
21.84000 3.725
21.86000 4.885
21.88000 8.762
21.90000 13.382
21.92000 12.800
21.94000 8.282
21.96000 -1.694
21.98000 -4.105
22.00000 4.126
22.02000 6.177
22.04000 6.950
22.06000 7.490
22.08000 0.107
22.10000 3.496
22.12000 5.956
22.14000 3.059
22.16000 -2.507
22.18000 -2.288
22.20000 5.809
22.22000 10.794
22.24000 9.436
22.26000 -2.945
22.28000 -0.593
22.30000 4.630
22.32000 1.788
22.34000 1.473
22.36000 7.528
22.38000 -0.139
22.40000 7.670
22.42000 3.275
22.44000 3.368
22.46000 0.275
22.48000 -3.385
22.50000 1.114
22.52000 3.791
22.54000 5.703
22.56000 -3.949
22.58000 3.838
22.60000 11.297
22.62000 3.288
22.64000 -4.061
22.66000 -1.397
22.68000 10.536
22.70000 10.591
22.72000 9.046
22.74000 1.965
22.76000 3.255
22.78000 3.840
22.80000 4.220
22.82000 3.303
22.84000 3.182
22.86000 4.105
22.88000 3.020
22.90000 5.698
22.92000 6.794
22.94000 10.294
22.96000 11.056
22.98000 5.061
23.00000 4.441
23.02000 -0.496
23.04000 7.047
23.06000 11.826
23.08000 12.460
23.10000 9.340
23.12000 4.271
23.14000 4.231
23.16000 8.210
23.18000 8.111
23.20000 4.964
23.22000 0.936
23.24000 5.517
23.26000 12.496
23.28000 8.289
23.30000 2.168
23.32000 2.347
23.34000 -0.213
23.36000 1.581
23.38000 5.072
23.40000 4.546
23.42000 3.114
23.44000 7.215
23.46000 12.828
23.48000 8.933
23.50000 4.153
23.52000 7.490
23.54000 1.755
23.56000 -1.473
23.58000 2.013
23.60000 4.862
23.62000 5.711
23.64000 6.126
23.66000 1.487
23.68000 0.835
23.70000 -0.092
23.72000 -1.013
23.74000 1.660
23.76000 -0.647
23.78000 -3.978
23.80000 4.103
23.82000 9.440
23.84000 8.321
23.86000 2.865
23.88000 2.210
23.90000 7.880
23.92000 4.626
23.94000 6.155
23.96000 7.661
23.98000 8.490
24.00000 8.862
24.02000 1.165
24.04000 3.774
24.06000 11.418
24.08000 3.904
24.10000 0.238
24.12000 3.545
24.14000 6.380
24.16000 4.826
24.18000 5.841
24.20000 4.058
24.22000 2.831
24.24000 4.888
24.26000 4.762
24.28000 6.224
24.30000 7.253
24.32000 0.429
24.34000 3.129
24.36000 6.850
24.38000 9.259
24.40000 5.614
24.42000 1.245
24.44000 3.909
24.46000 2.517
24.48000 -2.850
24.50000 -1.532
24.52000 2.619
24.54000 1.940
24.56000 3.975
24.58000 10.430
24.60000 9.149
24.62000 -1.203
24.64000 -3.035
24.66000 -1.894
24.68000 -3.955
24.70000 -0.806
24.72000 2.242
24.74000 3.618
24.76000 4.878
24.78000 3.746
24.80000 10.061
24.82000 9.566
24.84000 7.316
24.86000 8.276
24.88000 3.831
24.90000 4.373
24.92000 3.946
24.94000 6.476
24.96000 -0.877
24.98000 -0.032
25.00000 1.216
25.02000 -1.771
25.04000 -2.539
25.06000 -0.147
25.08000 3.196
25.10000 1.049
25.12000 -0.444
25.14000 2.364
25.16000 7.772
25.18000 4.945
25.20000 4.550
25.22000 4.629
25.24000 7.240
25.26000 5.824
25.28000 2.209
25.30000 5.351
25.32000 1.963
25.34000 -2.841
25.36000 -0.240
25.38000 0.185
25.40000 -0.266
25.42000 -1.096
25.44000 -2.971
25.46000 -0.487
25.48000 1.793
25.50000 -3.046
25.52000 -1.906
25.54000 -3.915
25.56000 -2.126
25.58000 1.802
25.60000 6.362
25.62000 0.060
25.64000 -2.325
25.66000 4.397
25.68000 3.345
25.70000 5.190
25.72000 3.510
25.74000 -1.093
25.76000 -1.394
25.78000 3.947
25.80000 2.213
25.82000 -2.693
25.84000 3.571
25.86000 0.727
25.88000 -0.001
25.90000 1.651
25.92000 2.908
25.94000 1.158
25.96000 -0.728
25.98000 4.880
26.00000 4.951
26.02000 0.525
26.04000 -1.225
26.06000 1.187
26.08000 -0.695
26.10000 -3.598
26.12000 2.528
26.14000 5.046
26.16000 4.316
26.18000 4.720
26.20000 7.086
26.22000 3.534
26.24000 1.281
26.26000 5.145
26.28000 -0.884
26.30000 0.034
26.32000 -3.869
26.34000 0.096
26.36000 2.231
26.38000 2.132
26.40000 0.167
26.42000 0.998
26.44000 6.573
26.46000 4.748
26.48000 2.097
26.50000 4.263
26.52000 0.210
26.54000 2.706
26.56000 5.202
26.58000 7.605
26.60000 2.380
26.62000 0.403
26.64000 4.017
26.66000 0.228
26.68000 2.940
26.70000 4.766
26.72000 -0.964
26.74000 -3.843
26.76000 -0.518
26.78000 6.183
26.80000 9.292
26.82000 7.203
26.84000 10.258
26.86000 6.053
26.88000 -1.488
26.90000 -1.498
26.92000 5.992
26.94000 -2.425
26.96000 0.600
26.98000 5.568
27.00000 4.904
27.02000 4.572
27.04000 4.636
27.06000 7.213
27.08000 3.555
27.10000 2.424
27.12000 3.046
27.14000 -2.782
27.16000 -1.035
27.18000 5.670
27.20000 6.848
27.22000 4.624
27.24000 5.091
27.26000 -1.176
27.28000 -3.798
27.30000 1.628
27.32000 6.395
27.34000 6.959
27.36000 1.428
27.38000 2.042
27.40000 3.240
27.42000 2.808
27.44000 1.908
27.46000 -2.082
27.48000 1.014
27.50000 4.590
27.52000 5.227
27.54000 6.836
27.56000 0.525
27.58000 -2.004
27.60000 1.326
27.62000 1.110
27.64000 0.581
27.66000 -0.058
27.68000 3.276
27.70000 -1.980
27.72000 -0.552
27.74000 3.976
27.76000 5.580
27.78000 1.972
27.80000 3.769
27.82000 -0.293
27.84000 -0.283
27.86000 3.927
27.88000 2.276
27.90000 0.587
27.92000 1.784
27.94000 -0.353
27.96000 2.403
27.98000 1.322
28.00000 3.728
28.02000 1.467
28.04000 -3.775
28.06000 -1.131
28.08000 0.450
28.10000 0.550
28.12000 -0.538
28.14000 0.739
28.16000 2.156
28.18000 5.216
28.20000 -0.400
28.22000 -1.796
28.24000 -1.764
28.26000 0.631
28.28000 -1.732
28.30000 -2.169
28.32000 2.746
28.34000 6.111
28.36000 10.134
28.38000 9.373
28.40000 2.240
28.42000 2.999
28.44000 5.657
28.46000 7.624
28.48000 1.074
28.50000 4.959
28.52000 7.387
28.54000 4.472
28.56000 1.043
28.58000 2.335
28.60000 6.752
28.62000 7.987
28.64000 8.309
28.66000 3.659
28.68000 3.818
28.70000 5.321
28.72000 4.358
28.74000 -0.334
28.76000 0.662
28.78000 1.215
28.80000 2.222
28.82000 1.326
28.84000 -3.292
28.86000 -3.300
28.88000 1.065
28.90000 3.272
28.92000 0.826
28.94000 0.063
28.96000 -3.721
28.98000 -2.783
29.00000 1.242
29.02000 3.339
29.04000 0.206
29.06000 2.913
29.08000 4.044
29.10000 8.323
29.12000 7.352
29.14000 -0.032
29.16000 3.348
29.18000 1.991
29.20000 3.100
29.22000 4.794
29.24000 4.062
29.26000 1.704
29.28000 -0.223
29.30000 -2.203
29.32000 -0.952
29.34000 5.920
29.36000 6.965
29.38000 8.035
29.40000 11.911
29.42000 13.880
29.44000 8.824
29.46000 8.805
29.48000 9.197
29.50000 4.675
29.52000 2.385
29.54000 2.236
29.56000 2.686
29.58000 3.797
29.60000 -2.065
29.62000 -3.656
29.64000 -2.482
29.66000 -1.339
29.68000 2.471
29.70000 6.873
29.72000 3.981
29.74000 0.222
29.76000 0.616
29.78000 4.282
29.80000 4.977
29.82000 1.613
29.84000 2.329
29.86000 3.929
29.88000 10.425
29.90000 8.598
29.92000 9.774
29.94000 12.537
29.96000 8.978
29.98000 3.751
30.00000 2.261
30.02000 6.434
30.04000 7.013
30.06000 5.790
30.08000 6.869
30.10000 3.147
30.12000 2.786
30.14000 2.483
30.16000 7.526
30.18000 6.614
30.20000 2.612
30.22000 6.192
30.24000 3.185
30.26000 3.148
30.28000 4.082
30.30000 7.387
30.32000 2.594
30.34000 0.613
30.36000 3.825
30.38000 4.955
30.40000 3.871
30.42000 -2.373
30.44000 1.097
30.46000 1.389
30.48000 4.813
30.50000 6.864
30.52000 2.325
30.54000 1.638
30.56000 4.304
30.58000 5.767
30.60000 2.347
30.62000 2.926
30.64000 2.697
30.66000 5.262
30.68000 5.944
30.70000 8.064
30.72000 6.612
30.74000 6.385
30.76000 4.117
30.78000 0.354
30.80000 1.838
30.82000 1.354
30.84000 3.259
30.86000 2.825
30.88000 0.238
30.90000 -2.996
30.92000 0.087
30.94000 1.858
30.96000 -1.871
30.98000 -2.218
31.00000 0.684
31.02000 0.897
31.04000 3.558
31.06000 6.503
31.08000 6.901
31.10000 1.800
31.12000 4.592
31.14000 4.183
31.16000 1.106
31.18000 2.365
31.20000 4.618
31.22000 7.028
31.24000 4.975
31.26000 5.181
31.28000 2.724
31.30000 2.025
31.32000 2.906
31.34000 4.898
31.36000 5.987
31.38000 4.067
31.40000 4.274
31.42000 5.176
31.44000 3.160
31.46000 -1.069
31.48000 -3.572
31.50000 3.048
31.52000 6.929
31.54000 6.039
31.56000 1.472
31.58000 -3.550
31.60000 5.217
31.62000 7.937
31.64000 7.347
31.66000 3.931
31.68000 5.530
31.70000 2.730
31.72000 -2.928
31.74000 -0.189
31.76000 3.782
31.78000 4.217
31.80000 3.607
31.82000 2.370
31.84000 2.049
31.86000 3.652
31.88000 4.294
31.90000 5.988
31.92000 6.370
31.94000 5.751
31.96000 -1.601
31.98000 3.595
32.00000 1.560
32.02000 1.594
32.04000 -1.193
32.06000 -0.573
32.08000 1.978
32.10000 0.538
32.12000 -0.862
32.14000 1.201
32.16000 0.299
32.18000 3.454
32.20000 2.273
32.22000 0.871
32.24000 7.401
32.26000 4.729
32.28000 0.969
32.30000 1.961
32.32000 2.175
32.34000 4.412
32.36000 2.937
32.38000 2.630
32.40000 -1.826
32.42000 -0.703
32.44000 0.426
32.46000 -1.620
32.48000 -0.586
32.50000 -1.837
32.52000 -1.977
32.54000 -0.431
32.56000 4.654
32.58000 4.462
32.60000 0.569
32.62000 0.826
32.64000 -0.637
32.66000 -1.238
32.68000 2.643
32.70000 4.901
32.72000 6.468
32.74000 1.560
32.76000 4.643
32.78000 3.257
32.80000 2.223
32.82000 2.920
32.84000 7.856
32.86000 2.440
32.88000 2.395
32.90000 -3.542
32.92000 -0.408
32.94000 7.000
32.96000 6.083
32.98000 6.733
33.00000 2.691
33.02000 8.371
33.04000 3.004
33.06000 2.010
33.08000 -0.014
33.10000 0.413
33.12000 1.779
33.14000 3.271
33.16000 -0.089
33.18000 5.070
33.20000 5.716
33.22000 3.858
33.24000 5.893
33.26000 0.943
33.28000 3.942
33.30000 1.220
33.32000 -2.507
33.34000 4.307
33.36000 5.058
33.38000 -0.797
33.40000 5.044
33.42000 1.352
33.44000 3.138
33.46000 4.164
33.48000 4.881
33.50000 5.949
33.52000 1.975
33.54000 2.502
33.56000 5.062
33.58000 8.409
33.60000 11.204
33.62000 5.397
33.64000 1.462
33.66000 -0.864
33.68000 1.051
33.70000 4.507
33.72000 4.155
33.74000 7.607
33.76000 3.376
33.78000 7.207
33.80000 2.198
33.82000 -0.378
33.84000 1.088
33.86000 6.948
33.88000 2.653
33.90000 2.673
33.92000 1.028
33.94000 2.014
33.96000 2.659
33.98000 6.098
34.00000 5.306
34.02000 5.479
34.04000 7.567
34.06000 4.137
34.08000 3.232
34.10000 -0.576
34.12000 1.675
34.14000 5.667
34.16000 6.607
34.18000 2.891
34.20000 4.433
34.22000 4.357
34.24000 4.016
34.26000 4.453
34.28000 4.838
34.30000 10.716
34.32000 9.726
34.34000 4.932
34.36000 1.741
34.38000 -3.499
34.40000 0.079
34.42000 3.042
34.44000 1.958
34.46000 1.759
34.48000 5.379
34.50000 2.830
34.52000 1.114
34.54000 1.355
34.56000 3.895
34.58000 6.866
34.60000 7.617
34.62000 4.225
34.64000 0.266
34.66000 -0.526
34.68000 -1.826
34.70000 0.524
34.72000 4.504
34.74000 5.585
34.76000 7.450
34.78000 7.045
34.80000 6.331
34.82000 6.928
34.84000 4.806
34.86000 4.851
34.88000 0.271
34.90000 1.234
34.92000 2.581
34.94000 3.543
34.96000 -0.750
34.98000 1.559
35.00000 2.666
35.02000 1.012
35.04000 3.217
35.06000 -2.128
35.08000 -3.490
35.10000 -2.138
35.12000 2.668
35.14000 7.882
35.16000 5.602
35.18000 3.722
35.20000 5.026
35.22000 1.439
35.24000 3.781
35.26000 0.855
35.28000 0.125
35.30000 1.458
35.32000 4.494
35.34000 5.550
35.36000 0.169
35.38000 -3.482
35.40000 3.073
35.42000 2.225
35.44000 1.063
35.46000 3.181
35.48000 2.069
35.50000 -0.992
35.52000 -0.511
35.54000 2.720
35.56000 5.581
35.58000 5.593
35.60000 4.640
35.62000 5.394
35.64000 4.249
35.66000 5.147
35.68000 1.137
35.70000 -0.198
35.72000 4.886
35.74000 4.863
35.76000 -1.145
35.78000 -0.372
35.80000 -1.100
35.82000 -2.906
35.84000 1.062
35.86000 1.883
35.88000 6.814
35.90000 8.706
35.92000 3.958
35.94000 5.491
35.96000 2.086
35.98000 3.661
36.00000 2.604
36.02000 -0.532
36.04000 2.352
36.06000 3.272
36.08000 2.282
36.10000 0.027
36.12000 1.795
36.14000 1.906
36.16000 4.674
36.18000 6.717
36.20000 7.176
36.22000 5.470
36.24000 -2.159
36.26000 -3.468
36.28000 5.706
36.30000 7.792
36.32000 6.461
36.34000 5.204
36.36000 5.393
36.38000 5.416
36.40000 5.716
36.42000 1.617
36.44000 6.187
36.46000 7.397
36.48000 4.222
36.50000 -1.992
36.52000 -0.942
36.54000 1.800
36.56000 6.828
36.58000 6.816
36.60000 -1.424
36.62000 -1.257
36.64000 4.880
36.66000 5.756
36.68000 3.431
36.70000 3.141
36.72000 -3.409
36.74000 0.552
36.76000 5.718
36.78000 5.986
36.80000 -2.356
36.82000 -3.509
36.84000 -2.445
36.86000 -0.866
36.88000 1.575
36.90000 4.501
36.92000 -0.692
36.94000 -1.199
36.96000 -0.665
36.98000 -3.530
37.00000 0.700
37.02000 3.903
37.04000 2.839
37.06000 -0.876
37.08000 -2.720
37.10000 0.893
37.12000 0.150
37.14000 -0.163
37.16000 0.691
37.18000 3.347
37.20000 0.827
37.22000 0.772
37.24000 5.755
37.26000 1.859
37.28000 1.088
37.30000 -1.532
37.32000 -1.207
37.34000 -0.185
37.36000 -3.576
37.38000 0.115
37.40000 0.129
37.42000 0.915
37.44000 1.227
37.46000 1.114
37.48000 0.384
37.50000 1.983
37.52000 0.861
37.54000 -1.839
37.56000 -1.225
37.58000 -1.550
37.60000 6.003
37.62000 3.415
37.64000 3.050
37.66000 0.051
37.68000 -2.955
37.70000 -3.084
37.72000 0.179
37.74000 1.332
37.76000 1.853
37.78000 2.785
37.80000 0.096
37.82000 5.302
37.84000 7.170
37.86000 6.689
37.88000 8.386
37.90000 5.637
37.92000 6.113
37.94000 5.804
37.96000 4.364
37.98000 5.345
38.00000 8.899
38.02000 6.280
38.04000 8.269
38.06000 8.898
38.08000 7.685
38.10000 7.628
38.12000 8.324
38.14000 10.973
38.16000 11.570
38.18000 11.702
38.20000 14.071
38.22000 14.597
38.24000 10.752
38.26000 12.408
38.28000 15.599
38.30000 16.479
38.32000 13.006
38.34000 15.363
38.36000 16.210
38.38000 14.919
38.40000 15.509
38.42000 16.446
38.44000 15.401
38.46000 17.687
38.48000 20.514
38.50000 23.195
38.52000 23.676
38.54000 20.604
38.56000 16.984
38.58000 13.401
38.60000 19.060
38.62000 20.716
38.64000 24.742
38.66000 29.900
38.68000 24.450
38.70000 27.390
38.72000 25.065
38.74000 23.644
38.76000 26.570
38.78000 30.869
38.80000 29.637
38.82000 27.982
38.84000 31.688
38.86000 38.030
38.88000 39.405
38.90000 38.842
38.92000 36.331
38.94000 39.422
38.96000 46.972
38.98000 39.811
39.00000 40.688
39.02000 44.009
39.04000 44.036
39.06000 41.855
39.08000 43.488
39.10000 38.845
39.12000 45.711
39.14000 48.887
39.16000 47.486
39.18000 56.065
39.20000 63.138
39.22000 63.394
39.24000 67.961
39.26000 72.005
39.28000 68.820
39.30000 72.435
39.32000 76.241
39.34000 80.440
39.36000 86.562
39.38000 93.515
39.40000 92.656
39.42000 98.172
39.44000 104.684
39.46000 109.286
39.48000 118.946
39.50000 124.576
39.52000 133.018
39.54000 133.135
39.56000 139.562
39.58000 154.136
39.60000 162.671
39.62000 170.117
39.64000 179.961
39.66000 185.958
39.68000 196.182
39.70000 210.356
39.72000 220.712
39.74000 236.307
39.76000 248.720
39.78000 261.492
39.80000 282.740
39.82000 306.034
39.84000 318.487
39.86000 342.625
39.88000 365.496
39.90000 392.767
39.92000 418.955
39.94000 432.007
39.96000 459.681
39.98000 486.527
40.00000 527.010
40.02000 553.748
40.04000 584.380
40.06000 620.175
40.08000 651.145
40.10000 682.523
40.12000 709.386
40.14000 746.238
40.16000 775.652
40.18000 798.305
40.20000 831.782
40.22000 862.834
40.24000 891.239
40.26000 915.804
40.28000 920.423
40.30000 942.641
40.32000 945.353
40.34000 947.487
40.36000 956.539
40.38000 962.157
40.40000 961.740
40.42000 954.318
40.44000 942.208
40.46000 937.950
40.48000 924.792
40.50000 890.039
40.52000 871.483
40.54000 851.231
40.56000 822.914
40.58000 803.008
40.60000 782.664
40.62000 744.924
40.64000 722.655
40.66000 685.799
40.68000 654.809
40.70000 630.223
40.72000 600.788
40.74000 577.866
40.76000 553.695
40.78000 534.352
40.80000 509.414
40.82000 478.278
40.84000 450.342
40.86000 411.410
40.88000 385.758
40.90000 366.826
40.92000 358.905
40.94000 335.093
40.96000 318.382
40.98000 307.826
41.00000 289.372
41.02000 273.644
41.04000 248.279
41.06000 236.284
41.08000 224.720
41.10000 213.100
41.12000 195.355
41.14000 185.694
41.16000 180.204
41.18000 168.774
41.20000 159.185
41.22000 144.636
41.24000 134.677
41.26000 128.421
41.28000 126.148
41.30000 122.522
41.32000 119.738
41.34000 108.783
41.36000 104.760
41.38000 92.000
41.40000 86.458
41.42000 83.200
41.44000 79.479
41.46000 75.976
41.48000 74.746
41.50000 66.886
41.52000 64.639
41.54000 61.855
41.56000 54.568
41.58000 51.920
41.60000 49.726
41.62000 51.281
41.64000 52.729
41.66000 47.610
41.68000 40.993
41.70000 38.786
41.72000 35.225
41.74000 37.956
41.76000 35.860
41.78000 32.968
41.80000 34.757
41.82000 35.621
41.84000 32.983
41.86000 34.165
41.88000 29.378
41.90000 24.682
41.92000 24.308
41.94000 29.270
41.96000 25.466
41.98000 18.254
42.00000 14.714
42.02000 22.645
42.04000 20.663
42.06000 16.989
42.08000 18.853
42.10000 22.357
42.12000 20.626
42.14000 15.006
42.16000 13.730
42.18000 15.139
42.20000 16.079
42.22000 14.549
42.24000 10.982
42.26000 8.427
42.28000 8.124
42.30000 12.000
42.32000 10.436
42.34000 9.776
42.36000 9.426
42.38000 8.545
42.40000 3.707
42.42000 4.830
42.44000 8.114
42.46000 7.882
42.48000 5.980
42.50000 3.839
42.52000 1.913
42.54000 0.902
42.56000 2.928
42.58000 3.029
42.60000 4.014
42.62000 10.630
42.64000 -3.227
42.66000 -3.041
42.68000 -0.734
42.70000 1.449
42.72000 0.599
42.74000 -1.190
42.76000 -0.157
42.78000 0.419
42.80000 0.062
42.82000 -0.964
42.84000 -0.104
42.86000 2.346
42.88000 0.344
42.90000 3.701
42.92000 5.123
42.94000 0.363
42.96000 1.974
42.98000 1.883
43.00000 -0.914
43.02000 1.254
43.04000 3.386
43.06000 -0.784
43.08000 -1.554
43.10000 -0.626
43.12000 -0.632
43.14000 -1.927
43.16000 -0.920
43.18000 -1.858
43.20000 -0.596
43.22000 -3.396
43.24000 -2.139
43.26000 0.374
43.28000 3.050
43.30000 0.863
43.32000 -1.928
43.34000 -1.058
43.36000 1.728
43.38000 2.155
43.40000 -3.364
43.42000 -3.180
43.44000 -3.428
43.46000 -2.280
43.48000 0.693
43.50000 0.537
43.52000 -1.572
43.54000 1.121
43.56000 0.447
43.58000 3.300
43.60000 2.681
43.62000 0.308
43.64000 0.764
43.66000 -0.288
43.68000 1.935
43.70000 2.286
43.72000 0.219
43.74000 -0.671
43.76000 -2.329
43.78000 -1.503
43.80000 0.491
43.82000 2.427
43.84000 -2.071
43.86000 -0.716
43.88000 -1.802
43.90000 -2.647
43.92000 -2.148
43.94000 -2.341
43.96000 1.682
43.98000 1.943
44.00000 -3.382
44.02000 -1.927
44.04000 -1.899
44.06000 3.785
44.08000 5.025
44.10000 0.551
44.12000 0.329
44.14000 -1.487
44.16000 1.402
44.18000 -0.410
44.20000 -1.785
44.22000 2.068
44.24000 4.213
44.26000 3.921
44.28000 3.062
44.30000 2.519
44.32000 -1.096
44.34000 -1.301
44.36000 1.611
44.38000 2.012
44.40000 0.164
44.42000 1.372
44.44000 2.521
44.46000 2.100
44.48000 0.049
44.50000 2.055
44.52000 4.905
44.54000 3.343
44.56000 4.745
44.58000 3.597
44.60000 0.372
44.62000 2.214
44.64000 3.822
44.66000 5.205
44.68000 3.124
44.70000 1.975
44.72000 -3.299
44.74000 -2.551
44.76000 -0.992
44.78000 -1.201
44.80000 1.756
44.82000 5.092
44.84000 7.162
44.86000 5.157
44.88000 3.182
44.90000 4.317
44.92000 2.370
44.94000 -0.848
44.96000 -3.006
44.98000 -0.988
45.00000 -0.288
45.02000 0.136
45.04000 1.163
45.06000 3.756
45.08000 4.758
45.10000 5.432
45.12000 4.597
45.14000 6.444
45.16000 4.625
45.18000 5.258
45.20000 6.895
45.22000 8.711
45.24000 5.628
45.26000 3.267
45.28000 2.735
45.30000 3.233
45.32000 7.696
45.34000 12.573
45.36000 9.876
45.38000 3.102
45.40000 3.322
45.42000 4.898
45.44000 6.862
45.46000 8.925
45.48000 9.737
45.50000 12.514
45.52000 12.833
45.54000 12.120
45.56000 15.539
45.58000 13.633
45.60000 12.446
45.62000 8.629
45.64000 16.330
45.66000 16.785
45.68000 17.483
45.70000 13.303
45.72000 11.202
45.74000 13.259
45.76000 16.094
45.78000 16.210
45.80000 18.355
45.82000 27.816
45.84000 27.625
45.86000 26.978
45.88000 21.046
45.90000 19.401
45.92000 28.795
45.94000 29.971
45.96000 33.103
45.98000 31.497
46.00000 31.869
46.02000 31.665
46.04000 35.795
46.06000 33.025
46.08000 37.585
46.10000 40.190
46.12000 36.380
46.14000 40.863
46.16000 42.649
46.18000 49.631
46.20000 55.290
46.22000 54.626
46.24000 51.768
46.26000 55.829
46.28000 59.433
46.30000 62.715
46.32000 62.343
46.34000 67.710
46.36000 70.628
46.38000 71.203
46.40000 74.117
46.42000 74.952
46.44000 83.514
46.46000 82.127
46.48000 89.429
46.50000 97.693
46.52000 101.206
46.54000 102.365
46.56000 104.530
46.58000 105.862
46.60000 110.395
46.62000 117.923
46.64000 126.574
46.66000 126.203
46.68000 128.655
46.70000 131.743
46.72000 134.952
46.74000 145.331
46.76000 153.270
46.78000 151.334
46.80000 155.320
46.82000 151.760
46.84000 161.191
46.86000 164.558
46.88000 165.632
46.90000 167.910
46.92000 169.642
46.94000 173.235
46.96000 172.151
46.98000 175.259
47.00000 175.719
47.02000 176.229
47.04000 177.929
47.06000 177.759
47.08000 175.918
47.10000 169.134
47.12000 164.976
47.14000 162.933
47.16000 160.971
47.18000 154.787
47.20000 151.689
47.22000 145.690
47.24000 140.993
47.26000 134.196
47.28000 136.844
47.30000 126.223
47.32000 119.582
47.34000 121.944
47.36000 112.755
47.38000 109.758
47.40000 109.553
47.42000 101.871
47.44000 96.049
47.46000 94.256
47.48000 86.374
47.50000 86.894
47.52000 86.637
47.54000 80.538
47.56000 67.319
47.58000 64.774
47.60000 58.190
47.62000 55.372
47.64000 50.632
47.66000 51.086
47.68000 52.346
47.70000 50.741
47.72000 48.873
47.74000 47.664
47.76000 46.645
47.78000 43.393
47.80000 40.585
47.82000 33.814
47.84000 33.413
47.86000 32.182
47.88000 32.424
47.90000 26.838
47.92000 25.197
47.94000 22.998
47.96000 21.003
47.98000 22.086
48.00000 20.015
48.02000 18.749
48.04000 16.556
48.06000 17.113
48.08000 16.609
48.10000 10.906
48.12000 8.527
48.14000 11.916
48.16000 9.270
48.18000 6.467
48.20000 10.323
48.22000 8.007
48.24000 7.492
48.26000 3.332
48.28000 8.903
48.30000 12.273
48.32000 8.216
48.34000 5.852
48.36000 1.228
48.38000 2.668
48.40000 5.576
48.42000 4.969
48.44000 8.836
48.46000 4.791
48.48000 5.257
48.50000 3.764
48.52000 4.873
48.54000 -1.306
48.56000 -2.957
48.58000 2.287
48.60000 0.532
48.62000 -1.064
48.64000 -1.542
48.66000 4.010
48.68000 0.375
48.70000 -1.437
48.72000 2.292
48.74000 1.754
48.76000 0.753
48.78000 2.255
48.80000 4.358
48.82000 1.870
48.84000 -0.447
48.86000 1.741
48.88000 4.772
48.90000 3.776
48.92000 -0.800
48.94000 1.510
48.96000 0.877
48.98000 -1.518
49.00000 -0.281
49.02000 -0.724
49.04000 -2.085
49.06000 -0.392
49.08000 5.943
49.10000 5.065
49.12000 -0.727
49.14000 -2.856
49.16000 -1.673
49.18000 -0.434
49.20000 -1.660
49.22000 -1.428
49.24000 -2.176
49.26000 1.021
49.28000 4.324
49.30000 3.930
49.32000 3.065
49.34000 1.906
49.36000 0.322
49.38000 3.636
49.40000 1.502
49.42000 -2.236
49.44000 1.158
49.46000 2.681
49.48000 2.147
49.50000 3.766
49.52000 -1.259
49.54000 0.799
49.56000 3.113
49.58000 1.407
49.60000 -1.384
49.62000 -2.777
49.64000 1.252
49.66000 1.655
49.68000 -0.925
49.70000 -2.766
49.72000 -0.755
49.74000 3.024
49.76000 2.301
49.78000 0.878
49.80000 2.427
49.82000 6.507
49.84000 3.217
49.86000 3.741
49.88000 3.894
49.90000 1.753
49.92000 -2.169
49.94000 -0.863
49.96000 2.805
49.98000 -2.520
50.00000 -1.230
50.02000 -0.292
50.04000 1.456
50.06000 -0.824
50.08000 4.133
50.10000 -2.023
50.12000 -2.726
50.14000 -0.654
50.16000 1.294
50.18000 0.525
50.20000 0.001
50.22000 0.906
50.24000 3.607
50.26000 1.500
50.28000 0.940
50.30000 0.028
50.32000 4.264
50.34000 1.339
50.36000 1.704
50.38000 3.979
50.40000 0.651
50.42000 2.188
50.44000 5.361
50.46000 3.557
50.48000 0.844
50.50000 1.051
50.52000 2.527
50.54000 2.778
50.56000 3.092
50.58000 4.343
50.60000 5.222
50.62000 5.077
50.64000 1.434
50.66000 -2.671
50.68000 -0.868
50.70000 1.094
50.72000 3.939
50.74000 1.882
50.76000 1.738
50.78000 -0.461
50.80000 0.424
50.82000 1.913
50.84000 -0.391
50.86000 2.120
50.88000 5.016
50.90000 4.058
50.92000 1.550
50.94000 0.312
50.96000 -2.660
50.98000 -1.858
51.00000 1.037
51.02000 2.791
51.04000 -0.881
51.06000 -0.597
51.08000 6.349
51.10000 6.994
51.12000 6.706
51.14000 2.451
51.16000 0.867
51.18000 -2.065
51.20000 -1.769
51.22000 0.380
51.24000 3.659
51.26000 3.426
51.28000 7.963
51.30000 1.976
51.32000 -0.845
51.34000 1.498
51.36000 1.653
51.38000 3.180
51.40000 1.836
51.42000 -0.739
51.44000 -1.454
51.46000 -1.213
51.48000 -1.043
51.50000 -0.414
51.52000 1.731
51.54000 1.909
51.56000 2.159
51.58000 0.139
51.60000 -0.927
51.62000 -2.553
51.64000 -1.205
51.66000 0.987
51.68000 -1.703
51.70000 2.314
51.72000 3.569
51.74000 2.356
51.76000 -2.026
51.78000 0.452
51.80000 1.426
51.82000 0.021
51.84000 -2.621
51.86000 0.955
51.88000 0.386
51.90000 0.469
51.92000 -2.302
51.94000 -0.900
51.96000 3.635
51.98000 4.201
52.00000 -2.280
52.02000 1.083
52.04000 1.345
52.06000 4.045
52.08000 3.523
52.10000 3.591
52.12000 3.042
52.14000 1.306
52.16000 3.542
52.18000 3.675
52.20000 0.097
52.22000 0.309
52.24000 3.168
52.26000 3.545
52.28000 0.956
52.30000 0.124
52.32000 1.413
52.34000 -0.969
52.36000 0.154
52.38000 -0.370
52.40000 -0.782
52.42000 1.443
52.44000 1.279
52.46000 1.008
52.48000 3.095
52.50000 6.259
52.52000 5.052
52.54000 -1.068
52.56000 4.563
52.58000 -0.338
52.60000 -0.729
52.62000 -0.867
52.64000 0.706
52.66000 -0.571
52.68000 -2.597
52.70000 -1.057
52.72000 0.796
52.74000 1.243
52.76000 2.451
52.78000 1.005
52.80000 1.089
52.82000 2.868
52.84000 -2.587
52.86000 0.608
52.88000 0.785
52.90000 -0.046
52.92000 0.360
52.94000 2.274
52.96000 5.238
52.98000 4.034
53.00000 1.927
53.02000 4.992
53.04000 4.803
53.06000 1.586
53.08000 2.077
53.10000 4.795
53.12000 1.452
53.14000 2.020
53.16000 6.683
53.18000 2.565
53.20000 4.176
53.22000 -0.027
53.24000 -1.905
53.26000 1.697
53.28000 3.281
53.30000 1.983
53.32000 2.552
53.34000 5.645
53.36000 2.799
53.38000 3.958
53.40000 -0.477
53.42000 -2.537
53.44000 -1.384
53.46000 0.165
53.48000 1.068
53.50000 3.776
53.52000 1.738
53.54000 2.741
53.56000 0.452
53.58000 2.830
53.60000 4.412
53.62000 3.293
53.64000 1.887
53.66000 2.608
53.68000 4.725
53.70000 6.616
53.72000 7.302
53.74000 7.244
53.76000 1.035
53.78000 -1.155
53.80000 1.847
53.82000 -1.564
53.84000 1.035
53.86000 1.162
53.88000 0.455
53.90000 -2.533
53.92000 0.114
53.94000 4.769
53.96000 0.127
53.98000 0.533
54.00000 6.424
54.02000 -0.189
54.04000 2.044
54.06000 3.202
54.08000 3.171
54.10000 1.004
54.12000 1.948
54.14000 4.539
54.16000 5.213
54.18000 3.296
54.20000 0.472
54.22000 2.995
54.24000 1.922
54.26000 2.478
54.28000 4.983
54.30000 6.899
54.32000 4.353
54.34000 4.908
54.36000 3.231
54.38000 5.299
54.40000 5.456
54.42000 2.313
54.44000 5.229
54.46000 7.166
54.48000 5.354
54.50000 2.568
54.52000 3.446
54.54000 2.956
54.56000 2.988
54.58000 3.714
54.60000 3.751
54.62000 2.422
54.64000 -1.537
54.66000 -0.319
54.68000 0.197
54.70000 -0.548
54.72000 -0.019
54.74000 1.417
54.76000 2.743
54.78000 0.858
54.80000 5.544
54.82000 2.793
54.84000 1.529
54.86000 3.478
54.88000 0.054
54.90000 1.802
54.92000 5.263
54.94000 5.257
54.96000 2.576
54.98000 -1.344
55.00000 -1.427
55.02000 2.437
55.04000 2.783
55.06000 -2.503
55.08000 -2.253
55.10000 5.266
55.12000 3.962
55.14000 6.450
55.16000 2.672
55.18000 -0.112
55.20000 -1.989
55.22000 0.279
55.24000 0.621
55.26000 2.599
55.28000 3.277
55.30000 0.766
55.32000 -0.039
55.34000 0.814
55.36000 0.796
55.38000 5.219
55.40000 5.304
55.42000 3.755
55.44000 2.935
55.46000 3.920
55.48000 1.728
55.50000 3.280
55.52000 -0.430
55.54000 -0.617
55.56000 2.283
55.58000 3.441
55.60000 3.269
55.62000 4.096
55.64000 0.737
55.66000 -2.490
55.68000 1.443
55.70000 3.670
55.72000 0.021
55.74000 5.306
55.76000 5.981
55.78000 2.907
55.80000 3.614
55.82000 1.096
55.84000 3.624
55.86000 2.273
55.88000 5.481
55.90000 5.376
55.92000 2.396
55.94000 4.520
55.96000 4.654
55.98000 1.919
56.00000 3.526
56.02000 3.895
56.04000 2.016
56.06000 5.117
56.08000 3.255
56.10000 3.598
56.12000 4.350
56.14000 1.117
56.16000 -2.468
56.18000 0.193
56.20000 -1.384
56.22000 -1.823
56.24000 1.552
56.26000 3.181
56.28000 1.914
56.30000 5.580
56.32000 4.698
56.34000 2.836
56.36000 6.552
56.38000 8.566
56.40000 2.243
56.42000 0.351
56.44000 1.685
56.46000 2.289
56.48000 3.886
56.50000 3.675
56.52000 6.363
56.54000 1.685
56.56000 2.936
56.58000 5.113
56.60000 4.549
56.62000 1.869
56.64000 2.016
56.66000 1.268
56.68000 1.452
56.70000 3.835
56.72000 4.169
56.74000 1.889
56.76000 2.871
56.78000 6.175
56.80000 5.425
56.82000 2.581
56.84000 2.598
56.86000 4.558
56.88000 0.206
56.90000 1.519
56.92000 -2.000
56.94000 0.162
56.96000 2.505
56.98000 2.627
57.00000 1.888
57.02000 4.337
57.04000 7.770
57.06000 2.103
57.08000 0.621
57.10000 2.735
57.12000 3.517
57.14000 2.095
57.16000 3.722
57.18000 3.250
57.20000 2.893
57.22000 1.023
57.24000 2.239
57.26000 3.044
57.28000 2.728
57.30000 1.735
57.32000 0.736
57.34000 -2.416
57.36000 5.705
57.38000 8.473
57.40000 9.190
57.42000 4.787
57.44000 2.768
57.46000 3.060
57.48000 4.385
57.50000 7.076
57.52000 6.855
57.54000 2.109
57.56000 1.200
57.58000 1.151
57.60000 2.440
57.62000 2.972
57.64000 2.707
57.66000 0.786
57.68000 0.886
57.70000 2.246
57.72000 0.973
57.74000 0.808
57.76000 2.605
57.78000 7.049
57.80000 2.224
57.82000 3.862
57.84000 4.569
57.86000 6.791
57.88000 6.031
57.90000 3.102
57.92000 2.352
57.94000 0.139
57.96000 -0.611
57.98000 3.208
58.00000 2.655
58.02000 2.772
58.04000 3.926
58.06000 -0.905
58.08000 -0.803
58.10000 0.903
58.12000 0.024
58.14000 -1.393
58.16000 -1.135
58.18000 0.640
58.20000 -2.092
58.22000 0.724
58.24000 8.035
58.26000 6.602
58.28000 1.749
58.30000 0.079
58.32000 3.327
58.34000 5.286
58.36000 4.097
58.38000 2.112
58.40000 0.776
58.42000 -1.907
58.44000 0.766
58.46000 0.527
58.48000 3.027
58.50000 7.582
58.52000 5.323
58.54000 2.653
58.56000 5.409
58.58000 5.142
58.60000 -1.571
58.62000 0.226
58.64000 1.265
58.66000 -2.413
58.68000 1.278
58.70000 2.328
58.72000 -1.242
58.74000 -0.324
58.76000 2.087
58.78000 -0.423
58.80000 -1.110
58.82000 -1.716
58.84000 4.966
58.86000 3.280
58.88000 1.985
58.90000 0.911
58.92000 3.551
58.94000 0.702
58.96000 -1.234
58.98000 1.696
59.00000 -0.897
59.02000 0.293
59.04000 0.326
59.06000 0.992
59.08000 1.204
59.10000 2.041
59.12000 -0.094
59.14000 -2.401
59.16000 4.051
59.18000 4.612
59.20000 5.710
59.22000 3.901
59.24000 2.436
59.26000 2.436
59.28000 -0.019
59.30000 -1.871
59.32000 -0.283
59.34000 -0.467
59.36000 -1.020
59.38000 -0.942
59.40000 -0.188
59.42000 4.506
59.44000 3.946
59.46000 0.679
59.48000 1.133
59.50000 0.866
59.52000 -1.619
59.54000 4.922
59.56000 0.448
59.58000 -2.377
59.60000 1.164
59.62000 4.053
59.64000 5.150
59.66000 1.746
59.68000 -0.901
59.70000 -0.699
59.72000 0.461
59.74000 5.603
59.76000 5.865
59.78000 3.572
59.80000 3.444
59.82000 2.836
59.84000 2.451
59.86000 0.918
59.88000 2.643
59.90000 4.457
59.92000 2.447
59.94000 2.545
59.96000 2.155
59.98000 -0.525
60.00000 2.916
60.02000 3.233
60.04000 2.880
60.06000 0.807
60.08000 0.856
60.10000 -1.729
60.12000 0.701
60.14000 3.991
60.16000 3.165
60.18000 3.626
60.20000 0.200
60.22000 1.927
60.24000 1.894
60.26000 1.387
60.28000 1.114
60.30000 -1.479
60.32000 -0.261
60.34000 0.896
60.36000 1.953
60.38000 1.309
60.40000 0.183
60.42000 0.363
60.44000 -1.429
60.46000 -0.812
60.48000 -2.341
60.50000 -1.014
60.52000 0.503
60.54000 1.219
60.56000 3.146
60.58000 2.436
60.60000 0.646
60.62000 -1.938
60.64000 0.389
60.66000 -0.647
60.68000 2.081
60.70000 1.612
60.72000 -1.331
60.74000 2.496
60.76000 4.136
60.78000 2.809
60.80000 -1.050
60.82000 0.078
60.84000 0.901
60.86000 0.536
60.88000 0.614
60.90000 0.619
60.92000 -0.917
60.94000 0.644
60.96000 1.895
60.98000 3.412
61.00000 2.814
61.02000 -1.214
61.04000 1.423
61.06000 3.281
61.08000 0.295
61.10000 1.676
61.12000 2.091
61.14000 2.429
61.16000 3.536
61.18000 3.487
61.20000 4.585
61.22000 3.313
61.24000 2.316
61.26000 4.139
61.28000 5.012
61.30000 1.837
61.32000 0.413
61.34000 1.262
61.36000 3.856
61.38000 4.725
61.40000 2.742
61.42000 -2.327
61.44000 0.861
61.46000 0.812
61.48000 4.538
61.50000 3.550
61.52000 3.150
61.54000 7.247
61.56000 3.715
61.58000 1.837
61.60000 3.637
61.62000 5.912
61.64000 4.966
61.66000 3.961
61.68000 -0.967
61.70000 1.987
61.72000 1.389
61.74000 -0.493
61.76000 3.176
61.78000 2.543
61.80000 3.543
61.82000 4.535
61.84000 1.857
61.86000 2.646
61.88000 1.538
61.90000 0.462
61.92000 2.785
61.94000 -0.780
61.96000 2.824
61.98000 2.360
62.00000 1.629
62.02000 0.513
62.04000 1.302
62.06000 -0.479
62.08000 0.041
62.10000 0.671
62.12000 0.979
62.14000 2.311
62.16000 4.968
62.18000 -2.314
62.20000 -0.120
62.22000 1.044
62.24000 -1.730
62.26000 -0.490
62.28000 3.097
62.30000 2.535
62.32000 0.305
62.34000 -0.110
62.36000 -0.845
62.38000 3.248
62.40000 5.403
62.42000 0.213
62.44000 -1.404
62.46000 0.674
62.48000 3.012
62.50000 2.797
62.52000 0.496
62.54000 -1.184
62.56000 1.861
62.58000 3.525
62.60000 1.316
62.62000 -0.240
62.64000 0.981
62.66000 -0.918
62.68000 -0.635
62.70000 -0.817
62.72000 -1.393
62.74000 -0.347
62.76000 -2.319
62.78000 1.798
62.80000 -1.385
62.82000 0.707
62.84000 -0.974
62.86000 -2.262
62.88000 -1.187
62.90000 1.134
62.92000 3.573
62.94000 1.536
62.96000 3.606
62.98000 1.445
63.00000 -0.243
63.02000 0.995
63.04000 -0.115
63.06000 1.965
63.08000 1.882
63.10000 1.637
63.12000 1.904
63.14000 0.083
63.16000 2.600
63.18000 4.144
63.20000 3.462
63.22000 1.110
63.24000 0.103
63.26000 -1.960
63.28000 -2.319
63.30000 -0.926
63.32000 0.811
63.34000 0.571
63.36000 3.551
63.38000 4.540
63.40000 5.112
63.42000 3.224
63.44000 1.486
63.46000 0.839
63.48000 -1.987
63.50000 -0.148
63.52000 -1.952
63.54000 0.363
63.56000 0.665
63.58000 -0.467
63.60000 -2.313
63.62000 0.381
63.64000 1.815
63.66000 0.782
63.68000 0.318
63.70000 0.994
63.72000 0.349
63.74000 0.458
63.76000 1.677
63.78000 3.785
63.80000 2.602
63.82000 0.499
63.84000 0.643
63.86000 3.068
63.88000 3.515
63.90000 2.327
63.92000 0.603
63.94000 -1.281
63.96000 0.440
63.98000 0.697
64.00000 0.157
64.02000 2.874
64.04000 2.046
64.06000 1.920
64.08000 -0.288
64.10000 1.149
64.12000 5.219
64.14000 1.563
64.16000 1.465
64.18000 1.949
64.20000 0.993
64.22000 -0.290
64.24000 1.195
64.26000 3.825
64.28000 1.361
64.30000 -0.526
64.32000 3.470
64.34000 2.535
64.36000 -0.253
64.38000 1.783
64.40000 1.991
64.42000 -1.411
64.44000 -2.299
64.46000 -0.366
64.48000 -1.507
64.50000 -1.534
64.52000 3.952
64.54000 4.741
64.56000 2.194
64.58000 2.493
64.60000 4.586
64.62000 2.647
64.64000 2.190
64.66000 3.028
64.68000 4.099
64.70000 5.518
64.72000 4.202
64.74000 1.066
64.76000 2.547
64.78000 4.919
64.80000 2.053
64.82000 4.298
64.84000 0.680
64.86000 -1.081
64.88000 0.889
64.90000 1.554
64.92000 1.980
64.94000 1.520
64.96000 3.963
64.98000 3.030
65.00000 0.768
65.02000 -0.375
65.04000 -0.760
65.06000 0.793
65.08000 2.252
65.10000 3.234
65.12000 2.063
65.14000 2.745
65.16000 0.745
65.18000 1.102
65.20000 2.090
65.22000 2.758
65.24000 -2.115
65.26000 -2.338
65.28000 0.916
65.30000 1.021
65.32000 -0.377
65.34000 0.036
65.36000 0.900
65.38000 0.832
65.40000 2.756
65.42000 2.316
65.44000 -1.118
65.46000 -0.145
65.48000 3.367
65.50000 0.485
65.52000 -0.927
65.54000 1.936
65.56000 3.213
65.58000 1.324
65.60000 -0.518
65.62000 -1.288
65.64000 -0.426
65.66000 1.746
65.68000 1.043
65.70000 0.112
65.72000 -0.777
65.74000 0.043
65.76000 0.884
65.78000 0.773
65.80000 1.716
65.82000 2.677
65.84000 0.301
65.86000 -0.660
65.88000 -0.276
65.90000 1.785
65.92000 1.482
65.94000 -0.818
65.96000 0.451
65.98000 0.419
66.00000 0.313
66.02000 -0.037
66.04000 1.003
66.06000 0.495
66.08000 -2.343
66.10000 -0.257
66.12000 5.312
66.14000 3.813
66.16000 1.490
66.18000 -1.567
66.20000 0.808
66.22000 0.061
66.24000 0.295
66.26000 1.011
66.28000 -1.043
66.30000 -0.523
66.32000 3.306
66.34000 0.751
66.36000 1.240
66.38000 2.372
66.40000 1.464
66.42000 0.376
66.44000 0.929
66.46000 -2.354
66.48000 -1.449
66.50000 0.549
66.52000 0.596
66.54000 2.598
66.56000 3.482
66.58000 0.090
66.60000 -2.264
66.62000 2.892
66.64000 3.478
66.66000 1.408
66.68000 -0.975
66.70000 1.509
66.72000 -1.481
66.74000 -0.491
66.76000 -0.477
66.78000 -0.137
66.80000 2.052
66.82000 2.140
66.84000 2.464
66.86000 4.287
66.88000 6.239
66.90000 2.972
66.92000 -0.312
66.94000 -2.376
66.96000 -1.049
66.98000 1.177
67.00000 1.192
67.02000 1.377
67.04000 2.268
67.06000 1.366
67.08000 0.773
67.10000 -0.029
67.12000 -0.580
67.14000 2.196
67.16000 1.434
67.18000 3.721
67.20000 -0.507
67.22000 1.407
67.24000 4.656
67.26000 4.833
67.28000 3.116
67.30000 1.398
67.32000 2.978
67.34000 0.966
67.36000 2.358
67.38000 4.357
67.40000 2.356
67.42000 1.869
67.44000 3.793
67.46000 1.003
67.48000 1.862
67.50000 3.130
67.52000 4.358
67.54000 6.080
67.56000 6.101
67.58000 6.641
67.60000 5.659
67.62000 4.907
67.64000 5.179
67.66000 3.871
67.68000 4.152
67.70000 3.813
67.72000 6.559
67.74000 9.617
67.76000 8.543
67.78000 6.150
67.80000 9.062
67.82000 10.217
67.84000 8.377
67.86000 8.578
67.88000 7.726
67.90000 7.773
67.92000 11.323
67.94000 12.634
67.96000 16.335
67.98000 14.756
68.00000 11.033
68.02000 12.142
68.04000 15.477
68.06000 17.659
68.08000 18.537
68.10000 18.126
68.12000 20.562
68.14000 21.023
68.16000 20.050
68.18000 19.632
68.20000 21.628
68.22000 22.699
68.24000 22.731
68.26000 25.411
68.28000 28.010
68.30000 25.142
68.32000 28.127
68.34000 25.790
68.36000 30.542
68.38000 29.744
68.40000 30.149
68.42000 28.356
68.44000 29.106
68.46000 30.874
68.48000 31.398
68.50000 34.330
68.52000 37.359
68.54000 36.680
68.56000 34.384
68.58000 35.847
68.60000 34.689
68.62000 34.560
68.64000 37.521
68.66000 36.250
68.68000 36.580
68.70000 37.328
68.72000 36.018
68.74000 37.549
68.76000 37.033
68.78000 37.667
68.80000 38.732
68.82000 39.663
68.84000 37.026
68.86000 33.849
68.88000 32.049
68.90000 30.558
68.92000 31.108
68.94000 34.085
68.96000 31.503
68.98000 29.015
69.00000 26.964
69.02000 24.946
69.04000 25.227
69.06000 25.848
69.08000 23.630
69.10000 20.768
69.12000 22.667
69.14000 21.530
69.16000 20.659
69.18000 17.724
69.20000 18.600
69.22000 22.517
69.24000 19.706
69.26000 17.299
69.28000 14.125
69.30000 15.495
69.32000 11.316
69.34000 12.799
69.36000 12.124
69.38000 11.460
69.40000 10.323
69.42000 10.198
69.44000 10.080
69.46000 9.644
69.48000 9.817
69.50000 8.733
69.52000 10.464
69.54000 5.851
69.56000 5.892
69.58000 5.546
69.60000 6.795
69.62000 6.564
69.64000 6.699
69.66000 5.689
69.68000 2.806
69.70000 2.702
69.72000 1.387
69.74000 5.064
69.76000 5.832
69.78000 5.604
69.80000 3.384
69.82000 2.101
69.84000 -0.544
69.86000 1.090
69.88000 4.141
69.90000 2.300
69.92000 -0.451
69.94000 -1.751
69.96000 -0.177
69.98000 2.430
70.00000 2.039
70.02000 7.086
70.04000 5.487
70.06000 -0.667
70.08000 -2.325
70.10000 -0.853
70.12000 -1.126
70.14000 3.435
70.16000 1.150
70.18000 0.417
70.20000 0.962
70.22000 4.416
70.24000 5.576
70.26000 5.812
70.28000 1.624
70.30000 1.735
70.32000 0.989
70.34000 -2.289
70.36000 1.201
70.38000 5.282
70.40000 4.211
70.42000 -0.488
70.44000 -0.089
70.46000 -2.274
70.48000 0.194
70.50000 -0.062
70.52000 4.589
70.54000 5.027
70.56000 1.858
70.58000 1.049
70.60000 -0.161
70.62000 3.760
70.64000 5.217
70.66000 -0.195
70.68000 2.451
70.70000 2.684
70.72000 -1.439
70.74000 -1.418
70.76000 -1.441
70.78000 2.910
70.80000 4.803
70.82000 5.201
70.84000 3.515
70.86000 3.012
70.88000 2.141
70.90000 3.094
70.92000 -0.348
70.94000 0.368
70.96000 0.773
70.98000 0.459
71.00000 0.275
71.02000 3.377
71.04000 4.188
71.06000 3.689
71.08000 3.923
71.10000 1.730
71.12000 1.418
71.14000 0.360
71.16000 -1.542
71.18000 -0.194
71.20000 1.499
71.22000 -0.512
71.24000 -0.973
71.26000 1.641
71.28000 0.887
71.30000 3.187
71.32000 4.593
71.34000 3.173
71.36000 3.675
71.38000 2.233
71.40000 1.877
71.42000 0.213
71.44000 4.093
71.46000 7.108
71.48000 6.957
71.50000 4.480
71.52000 3.730
71.54000 3.659
71.56000 -2.163
71.58000 -1.094
71.60000 3.373
71.62000 3.586
71.64000 3.150
71.66000 5.276
71.68000 8.725
71.70000 3.782
71.72000 4.984
71.74000 6.278
71.76000 4.295
71.78000 3.687
71.80000 3.654
71.82000 4.344
71.84000 3.364
71.86000 3.089
71.88000 3.089
71.90000 2.123
71.92000 5.214
71.94000 5.391
71.96000 4.287
71.98000 5.933
72.00000 3.658
72.02000 6.085
72.04000 4.434
72.06000 3.492
72.08000 0.479
72.10000 2.996
72.12000 2.665
72.14000 -2.175
72.16000 0.461
72.18000 3.060
72.20000 5.612
72.22000 5.534
72.24000 4.792
72.26000 1.030
72.28000 5.457
72.30000 5.936
72.32000 4.175
72.34000 2.217
72.36000 -1.938
72.38000 1.617
72.40000 0.888
72.42000 2.000
72.44000 3.412
72.46000 3.201
72.48000 2.837
72.50000 2.873
72.52000 4.395
72.54000 2.555
72.56000 2.224
72.58000 4.363
72.60000 -0.709
72.62000 2.294
72.64000 2.205
72.66000 2.742
72.68000 3.520
72.70000 4.432
72.72000 0.320
72.74000 2.387
72.76000 4.873
72.78000 8.757
72.80000 6.815
72.82000 1.084
72.84000 -1.757
72.86000 1.512
72.88000 1.426
72.90000 0.736
72.92000 -1.183
72.94000 0.498
72.96000 -2.165
72.98000 -1.146
73.00000 2.115
73.02000 0.734
73.04000 3.006
73.06000 2.500
73.08000 0.250
73.10000 2.093
73.12000 3.622
73.14000 4.480
73.16000 0.146
73.18000 -0.847
73.20000 1.183
73.22000 1.616
73.24000 1.718
73.26000 2.115
73.28000 2.521
73.30000 3.148
73.32000 2.067
73.34000 -2.139
73.36000 -0.017
73.38000 4.487
73.40000 2.720
73.42000 1.277
73.44000 4.864
73.46000 4.030
73.48000 3.228
73.50000 8.103
73.52000 3.596
73.54000 -0.917
73.56000 -1.202
73.58000 2.504
73.60000 5.780
73.62000 4.024
73.64000 3.340
73.66000 3.133
73.68000 5.657
73.70000 4.095
73.72000 4.180
73.74000 3.445
73.76000 3.649
73.78000 0.845
73.80000 0.682
73.82000 -0.223
73.84000 7.464
73.86000 10.343
73.88000 9.217
73.90000 8.706
73.92000 2.467
73.94000 2.451
73.96000 4.590
73.98000 0.425
74.00000 4.104
74.02000 2.308
74.04000 4.711
74.06000 4.720
74.08000 -2.077
74.10000 -1.077
74.12000 3.194
74.14000 6.767
74.16000 5.265
74.18000 4.106
74.20000 5.602
74.22000 2.112
74.24000 2.940
74.26000 1.940
74.28000 4.108
74.30000 4.738
74.32000 0.265
74.34000 1.873
74.36000 1.324
74.38000 2.744
74.40000 6.024
74.42000 6.859
74.44000 6.148
74.46000 3.323
74.48000 -0.293
74.50000 1.548
74.52000 6.382
74.54000 5.294
74.56000 1.564
74.58000 0.150
74.60000 5.937
74.62000 8.532
74.64000 8.019
74.66000 7.037
74.68000 8.634
74.70000 3.816
74.72000 1.987
74.74000 2.574
74.76000 2.043
74.78000 4.513
74.80000 5.816
74.82000 5.538
74.84000 5.272
74.86000 5.250
74.88000 4.171
74.90000 0.794
74.92000 -2.113
74.94000 -0.444
74.96000 2.245
74.98000 4.999
75.00000 1.663
75.02000 -0.619
75.04000 3.304
75.06000 8.926
75.08000 7.758
75.10000 2.169
75.12000 3.293
75.14000 5.657
75.16000 4.265
75.18000 2.687
75.20000 1.051
75.22000 4.634
75.24000 6.834
75.26000 5.653
75.28000 5.668
75.30000 4.089
75.32000 -0.954
75.34000 2.228
75.36000 5.385
75.38000 2.584
75.40000 2.976
75.42000 2.116
75.44000 4.183
75.46000 5.419
75.48000 3.850
75.50000 1.173
75.52000 1.024
75.54000 3.156
75.56000 0.618
75.58000 4.233
75.60000 -0.715
75.62000 1.434
75.64000 3.329
75.66000 4.630
75.68000 4.509
75.70000 2.250
75.72000 4.438
75.74000 4.991
75.76000 6.856
75.78000 2.062
75.80000 2.861
75.82000 1.975
75.84000 -2.130
75.86000 -0.026
75.88000 2.428
75.90000 2.502
75.92000 4.300
75.94000 2.832
75.96000 2.844
75.98000 3.110
76.00000 0.812
76.02000 3.560
76.04000 3.374
76.06000 2.948
76.08000 2.969
76.10000 4.489
76.12000 0.951
76.14000 1.462
76.16000 0.946
76.18000 2.134
76.20000 -1.640
76.22000 1.884
76.24000 3.296
76.26000 0.783
76.28000 1.409
76.30000 2.889
76.32000 6.239
76.34000 5.517
76.36000 -0.685
76.38000 -0.922
76.40000 0.310
76.42000 1.398
76.44000 3.052
76.46000 3.506
76.48000 3.457
76.50000 -1.140
76.52000 3.238
76.54000 2.324
76.56000 1.167
76.58000 5.284
76.60000 4.210
76.62000 -0.645
76.64000 0.985
76.66000 5.104
76.68000 4.270
76.70000 3.832
76.72000 2.959
76.74000 0.451
76.76000 -0.013
76.78000 1.777
76.80000 4.000
76.82000 6.349
76.84000 3.785
76.86000 3.029
76.88000 3.198
76.90000 2.171
76.92000 1.674
76.94000 5.270
76.96000 5.382
76.98000 6.366
77.00000 5.962
77.02000 3.696
77.04000 -1.020
77.06000 -2.146
77.08000 2.645
77.10000 2.710
77.12000 4.139
77.14000 3.243
77.16000 2.274
77.18000 2.272
77.20000 3.550
77.22000 2.192
77.24000 0.504
77.26000 -1.414
77.28000 1.287
77.30000 -1.839
77.32000 -0.330
77.34000 2.005
77.36000 4.293
77.38000 5.734
77.40000 1.784
77.42000 0.364
77.44000 1.817
77.46000 1.787
77.48000 3.045
77.50000 3.491
77.52000 3.466
77.54000 2.905
77.56000 5.142
77.58000 4.587
77.60000 2.694
77.62000 2.079
77.64000 6.537
77.66000 6.379
77.68000 3.727
77.70000 -1.363
77.72000 1.546
77.74000 3.402
77.76000 1.801
77.78000 0.214
77.80000 0.602
77.82000 -0.311
77.84000 2.156
77.86000 3.510
77.88000 4.690
77.90000 1.116
77.92000 -1.752
77.94000 -0.445
77.96000 0.139
77.98000 4.555
78.00000 4.284
78.02000 2.032
78.04000 0.862
78.06000 3.788
78.08000 5.384
78.10000 5.349
78.12000 3.908
78.14000 5.830
78.16000 3.353
78.18000 -2.146
78.20000 2.475
78.22000 3.772
78.24000 4.658
78.26000 2.920
78.28000 2.242
78.30000 2.722
78.32000 3.103
78.34000 -0.471
78.36000 -0.896
78.38000 1.960
78.40000 4.614
78.42000 8.749
78.44000 9.371
78.46000 6.349
78.48000 1.787
78.50000 3.999
78.52000 2.591
78.54000 1.862
78.56000 3.092
78.58000 4.158
78.60000 4.153
78.62000 2.659
78.64000 5.173
78.66000 5.620
78.68000 5.243
78.70000 2.972
78.72000 6.959
78.74000 3.445
78.76000 4.441
78.78000 5.895
78.80000 4.206
78.82000 2.886
78.84000 4.448
78.86000 3.123
78.88000 3.154
78.90000 3.446
78.92000 2.710
78.94000 3.783
78.96000 1.615
78.98000 1.204
79.00000 1.103
79.02000 -2.146
79.04000 -1.049
79.06000 5.638
79.08000 7.341
79.10000 8.236
79.12000 7.167
79.14000 0.785
79.16000 -2.063
79.18000 5.027
79.20000 4.590
79.22000 2.218
79.24000 4.929
79.26000 4.753
79.28000 3.970
79.30000 5.621
79.32000 3.465
79.34000 0.702
79.36000 2.240
79.38000 3.318
79.40000 1.999
79.42000 5.410
79.44000 5.089
79.46000 3.968
79.48000 0.056
79.50000 4.203
79.52000 3.959
79.54000 6.053
79.56000 3.643
79.58000 3.123
79.60000 6.126
79.62000 3.505
79.64000 1.015
79.66000 -0.471
79.68000 0.529
79.70000 0.375
79.72000 1.817
79.74000 6.316
79.76000 4.936
79.78000 3.404
79.80000 3.653
79.82000 1.830
79.84000 2.180
79.86000 2.038
79.88000 4.703
79.90000 10.195
79.92000 2.929
79.94000 2.192
79.96000 2.128
79.98000 0.559
80.00000 2.275
80.02000 2.385
80.04000 3.668
80.06000 6.192
80.08000 5.033
80.10000 1.783
80.12000 -2.225
80.14000 -0.385
80.16000 3.533
80.18000 6.537
80.20000 6.951
80.22000 2.072
80.24000 0.267
80.26000 0.978
80.28000 -2.240
80.30000 -1.392
80.32000 2.781
80.34000 4.756
80.36000 5.663
80.38000 4.424
80.40000 1.482
80.42000 -0.299
80.44000 -0.475
80.46000 1.030
80.48000 0.757
80.50000 -0.769
80.52000 -0.639
80.54000 3.629
80.56000 8.552
80.58000 5.085
80.60000 2.090
80.62000 -1.964
80.64000 -0.544
80.66000 1.001
80.68000 4.237
80.70000 2.734
80.72000 2.093
80.74000 2.133
80.76000 1.792
80.78000 2.947
80.80000 4.181
80.82000 -0.198
80.84000 -2.342
80.86000 -1.033
80.88000 1.763
80.90000 2.009
80.92000 1.199
80.94000 1.114
80.96000 0.630
80.98000 1.071
81.00000 0.242
81.02000 -0.344
81.04000 4.397
81.06000 2.941
81.08000 -0.436
81.10000 -0.416
81.12000 1.783
81.14000 1.767
81.16000 0.973
81.18000 4.216
81.20000 1.024
81.22000 -2.393
81.24000 0.326
81.26000 3.850
81.28000 0.861
81.30000 -0.002
81.32000 4.600
81.34000 6.849
81.36000 2.737
81.38000 1.787
81.40000 2.925
81.42000 4.032
81.44000 2.272
81.46000 2.163
81.48000 1.639
81.50000 3.000
81.52000 7.797
81.54000 8.888
81.56000 5.251
81.58000 4.848
81.60000 3.931
81.62000 2.877
81.64000 3.372
81.66000 5.139
81.68000 6.994
81.70000 7.570
81.72000 9.654
81.74000 11.644
81.76000 9.335
81.78000 11.545
81.80000 10.951
81.82000 13.599
81.84000 14.173
81.86000 14.037
81.88000 15.763
81.90000 13.922
81.92000 13.739
81.94000 12.491
81.96000 9.926
81.98000 14.598
82.00000 17.298
82.02000 19.829
82.04000 24.543
82.06000 22.203
82.08000 20.882
82.10000 22.740
82.12000 23.162
82.14000 21.373
82.16000 16.861
82.18000 19.614
82.20000 22.643
82.22000 31.370
82.24000 29.788
82.26000 28.379
82.28000 29.421
82.30000 30.417
82.32000 32.617
82.34000 33.894
82.36000 36.067
82.38000 34.051
82.40000 33.794
82.42000 39.273
82.44000 38.143
82.46000 37.491
82.48000 43.471
82.50000 43.145
82.52000 41.504
82.54000 45.414
82.56000 47.999
82.58000 46.444
82.60000 42.615
82.62000 46.371
82.64000 49.070
82.66000 52.118
82.68000 46.725
82.70000 49.513
82.72000 49.520
82.74000 51.646
82.76000 51.503
82.78000 55.349
82.80000 57.149
82.82000 55.895
82.84000 57.916
82.86000 57.492
82.88000 60.100
82.90000 56.875
82.92000 53.717
82.94000 58.356
82.96000 54.628
82.98000 49.009
83.00000 49.113
83.02000 51.025
83.04000 51.750
83.06000 57.772
83.08000 54.480
83.10000 54.897
83.12000 50.592
83.14000 46.949
83.16000 47.416
83.18000 46.897
83.20000 47.130
83.22000 47.529
83.24000 48.126
83.26000 39.409
83.28000 39.105
83.30000 38.926
83.32000 40.994
83.34000 39.298
83.36000 30.914
83.38000 31.257
83.40000 33.342
83.42000 30.974
83.44000 29.912
83.46000 27.429
83.48000 29.635
83.50000 27.649
83.52000 24.524
83.54000 23.960
83.56000 20.766
83.58000 18.365
83.60000 20.335
83.62000 20.668
83.64000 18.912
83.66000 13.252
83.68000 15.231
83.70000 15.969
83.72000 17.812
83.74000 18.202
83.76000 12.888
83.78000 12.191
83.80000 11.202
83.82000 13.493
83.84000 12.436
83.86000 13.329
83.88000 8.837
83.90000 3.427
83.92000 3.101
83.94000 6.271
83.96000 9.069
83.98000 6.219
84.00000 7.079
84.02000 9.678
84.04000 10.266
84.06000 4.709
84.08000 7.115
84.10000 9.899
84.12000 9.698
84.14000 6.955
84.16000 7.097
84.18000 5.490
84.20000 3.011
84.22000 5.776
84.24000 4.725
84.26000 2.177
84.28000 -0.161
84.30000 0.868
84.32000 -2.354
84.34000 3.328
84.36000 2.754
84.38000 1.343
84.40000 2.568
84.42000 2.796
84.44000 0.602
84.46000 2.560
84.48000 2.734
84.50000 5.270
84.52000 5.279
84.54000 1.082
84.56000 -2.317
84.58000 2.592
84.60000 1.425
84.62000 0.297
84.64000 3.092
84.66000 4.517
84.68000 0.894
84.70000 3.932
84.72000 5.213
84.74000 3.722
84.76000 3.394
84.78000 3.442
84.80000 1.461
84.82000 0.039
84.84000 -0.875
84.86000 1.468
84.88000 3.375
84.90000 6.238
84.92000 5.026
84.94000 2.305
84.96000 1.491
84.98000 3.844
85.00000 2.110
85.02000 -0.190
85.04000 -1.710
85.06000 -2.244
85.08000 1.171
85.10000 3.844
85.12000 0.416
85.14000 0.816
85.16000 3.869
85.18000 4.997
85.20000 1.875
85.22000 0.781
85.24000 4.579
85.26000 2.115
85.28000 1.960
85.30000 2.538
85.32000 -1.923
85.34000 -1.323
85.36000 0.127
85.38000 -0.935
85.40000 -0.561
85.42000 0.601
85.44000 0.718
85.46000 2.062
85.48000 3.976
85.50000 4.337
85.52000 6.505
85.54000 3.356
85.56000 2.330
85.58000 4.618
85.60000 7.037
85.62000 3.312
85.64000 3.854
85.66000 4.380
85.68000 -0.485
85.70000 -2.263
85.72000 0.089
85.74000 2.927
85.76000 1.462
85.78000 0.204
85.80000 1.907
85.82000 1.224
85.84000 2.634
85.86000 8.056
85.88000 5.549
85.90000 2.171
85.92000 2.435
85.94000 3.385
85.96000 4.356
85.98000 7.346
86.00000 9.275
86.02000 6.497
86.04000 -0.899
86.06000 0.223
86.08000 4.310
86.10000 4.673
86.12000 5.795
86.14000 5.607
86.16000 1.739
86.18000 1.603
86.20000 4.376
86.22000 11.657
86.24000 11.483
86.26000 9.412
86.28000 11.599
86.30000 4.463
86.32000 4.887
86.34000 3.809
86.36000 6.208
86.38000 6.591
86.40000 4.884
86.42000 6.865
86.44000 7.740
86.46000 5.022
86.48000 5.429
86.50000 9.827
86.52000 9.527
86.54000 13.841
86.56000 11.856
86.58000 11.455
86.60000 14.142
86.62000 14.861
86.64000 13.677
86.66000 15.045
86.68000 14.459
86.70000 12.874
86.72000 16.750
86.74000 17.335
86.76000 19.614
86.78000 18.157
86.80000 22.158
86.82000 24.585
86.84000 20.131
86.86000 22.628
86.88000 27.127
86.90000 25.963
86.92000 23.627
86.94000 27.031
86.96000 28.327
86.98000 30.269
87.00000 27.983
87.02000 24.651
87.04000 29.000
87.06000 31.986
87.08000 30.325
87.10000 30.152
87.12000 32.451
87.14000 33.668
87.16000 28.926
87.18000 30.256
87.20000 34.520
87.22000 32.126
87.24000 35.714
87.26000 31.680
87.28000 28.080
87.30000 32.145
87.32000 36.718
87.34000 35.428
87.36000 31.036
87.38000 27.108
87.40000 30.669
87.42000 35.250
87.44000 33.696
87.46000 27.810
87.48000 26.925
87.50000 23.650
87.52000 19.851
87.54000 29.175
87.56000 31.014
87.58000 30.300
87.60000 24.880
87.62000 30.622
87.64000 31.135
87.66000 22.006
87.68000 19.991
87.70000 22.460
87.72000 22.373
87.74000 20.385
87.76000 21.267
87.78000 17.933
87.80000 18.203
87.82000 14.803
87.84000 15.274
87.86000 14.291
87.88000 16.571
87.90000 15.027
87.92000 16.797
87.94000 13.315
87.96000 13.071
87.98000 14.332
88.00000 14.224
88.02000 7.326
88.04000 8.549
88.06000 7.587
88.08000 9.736
88.10000 12.218
88.12000 8.496
88.14000 6.660
88.16000 6.827
88.18000 12.780
88.20000 13.933
88.22000 7.649
88.24000 5.727
88.26000 7.366
88.28000 9.825
88.30000 4.754
88.32000 5.964
88.34000 7.099
88.36000 4.877
88.38000 3.303
88.40000 3.592
88.42000 3.065
88.44000 6.903
88.46000 7.830
88.48000 6.610
88.50000 5.349
88.52000 5.365
88.54000 4.568
88.56000 1.430
88.58000 2.897
88.60000 6.382
88.62000 7.582
88.64000 3.328
88.66000 2.388
88.68000 3.199
88.70000 6.509
88.72000 2.599
88.74000 5.392
88.76000 6.165
88.78000 3.889
88.80000 3.165
88.82000 0.933
88.84000 -2.116
88.86000 6.259
88.88000 6.209
88.90000 7.611
88.92000 7.196
88.94000 6.102
88.96000 9.519
88.98000 4.128
89.00000 4.159
89.02000 7.711
89.04000 2.672
89.06000 3.811
89.08000 3.011
89.10000 4.119
89.12000 -1.520
89.14000 -0.484
89.16000 2.868
89.18000 3.496
89.20000 2.215
89.22000 1.279
89.24000 1.021
89.26000 0.204
89.28000 -0.703
89.30000 0.225
89.32000 0.049
89.34000 3.973
89.36000 9.486
89.38000 -0.684
89.40000 -2.069
89.42000 1.388
89.44000 -0.216
89.46000 -0.803
89.48000 1.720
89.50000 1.260
89.52000 2.507
89.54000 4.357
89.56000 2.122
89.58000 1.624
89.60000 3.149
89.62000 6.492
89.64000 1.017
89.66000 2.283
89.68000 1.809
89.70000 0.843
89.72000 0.460
89.74000 4.195
89.76000 5.458
89.78000 7.493
89.80000 3.054
89.82000 3.523
89.84000 1.676
89.86000 1.188
89.88000 3.517
89.90000 3.188
89.92000 2.481
89.94000 3.530
89.96000 2.781
89.98000 4.370
90.00000 5.067
90.02000 1.451
90.04000 -0.570
90.06000 1.300
90.08000 2.365
90.10000 7.284
90.12000 6.351
90.14000 3.392
90.16000 4.007
90.18000 -2.024
90.20000 0.915
90.22000 3.163
90.24000 4.121
90.26000 0.013
90.28000 -1.673
90.30000 0.389
90.32000 0.442
90.34000 2.562
90.36000 4.470
90.38000 5.934
90.40000 4.501
90.42000 5.342
90.44000 2.957
90.46000 -0.303
90.48000 2.080
90.50000 4.391
90.52000 3.838
90.54000 4.989
90.56000 4.915
90.58000 1.389
90.60000 1.804
90.62000 4.697
90.64000 2.410
90.66000 2.066
90.68000 2.771
90.70000 2.498
90.72000 0.341
90.74000 2.488
90.76000 1.202
90.78000 2.334
90.80000 2.895
90.82000 4.277
90.84000 1.171
90.86000 3.272
90.88000 0.334
90.90000 -2.050
90.92000 0.063
90.94000 -1.330
90.96000 -0.032
90.98000 1.254
91.00000 -0.411
91.02000 1.999
91.04000 1.287
91.06000 2.633
91.08000 2.582
91.10000 2.022
91.12000 2.131
91.14000 4.057
91.16000 5.571
91.18000 5.397
91.20000 4.385
91.22000 6.227
91.24000 3.111
91.26000 3.960
91.28000 4.021
91.30000 3.585
91.32000 2.534
91.34000 4.098
91.36000 3.203
91.38000 1.719
91.40000 1.515
91.42000 0.588
91.44000 1.452
91.46000 3.911
91.48000 4.736
91.50000 3.420
91.52000 6.011
91.54000 5.469
91.56000 3.583
91.58000 1.815
91.60000 2.216
91.62000 3.501
91.64000 -0.810
91.66000 -2.022
91.68000 1.106
91.70000 4.968
91.72000 6.579
91.74000 7.543
91.76000 5.418
91.78000 2.088
91.80000 1.145
91.82000 6.622
91.84000 5.638
91.86000 1.686
91.88000 2.734
91.90000 4.857
91.92000 8.940
91.94000 7.573
91.96000 3.616
91.98000 3.019
92.00000 2.442
92.02000 1.637
92.04000 -2.020
92.06000 -0.083
92.08000 2.712
92.10000 3.053
92.12000 -2.033
92.14000 7.363
92.16000 7.528
92.18000 3.341
92.20000 6.933
92.22000 4.687
92.24000 1.440
92.26000 1.501
92.28000 1.304
92.30000 0.575
92.32000 1.619
92.34000 2.621
92.36000 0.282
92.38000 2.744
92.40000 3.766
92.42000 4.139
92.44000 2.210
92.46000 7.546
92.48000 2.936
92.50000 4.373
92.52000 1.845
92.54000 5.502
92.56000 3.548
92.58000 5.496
92.60000 4.734
92.62000 1.221
92.64000 1.606
92.66000 6.724
92.68000 6.033
92.70000 0.480
92.72000 1.058
92.74000 5.832
92.76000 5.935
92.78000 5.444
92.80000 6.354
92.82000 4.733
92.84000 2.014
92.86000 2.200
92.88000 2.459
92.90000 2.125
92.92000 3.158
92.94000 3.039
92.96000 2.998
92.98000 2.359
93.00000 0.555
93.02000 3.383
93.04000 5.086
93.06000 6.167
93.08000 4.727
93.10000 -1.489
93.12000 1.741
93.14000 4.108
93.16000 0.690
93.18000 -1.665
93.20000 1.908
93.22000 0.476
93.24000 2.035
93.26000 0.956
93.28000 5.342
93.30000 4.548
93.32000 5.274
93.34000 3.131
93.36000 1.649
93.38000 -2.021
93.40000 1.682
93.42000 4.750
93.44000 6.330
93.46000 4.175
93.48000 0.294
93.50000 0.323
93.52000 5.470
93.54000 4.108
93.56000 6.677
93.58000 4.628
93.60000 3.555
93.62000 0.768
93.64000 3.419
93.66000 3.693
93.68000 6.790
93.70000 5.653
93.72000 7.201
93.74000 3.182
93.76000 -2.009
93.78000 -1.998
93.80000 0.977
93.82000 1.691
93.84000 0.321
93.86000 1.110
93.88000 1.782
93.90000 2.959
93.92000 2.935
93.94000 3.351
93.96000 7.348
93.98000 3.386
94.00000 4.916
94.02000 2.032
94.04000 5.399
94.06000 3.923
94.08000 1.612
94.10000 4.240
94.12000 6.928
94.14000 7.394
94.16000 4.292
94.18000 5.867
94.20000 8.966
94.22000 9.332
94.24000 8.075
94.26000 10.325
94.28000 8.298
94.30000 3.826
94.32000 2.477
94.34000 5.191
94.36000 4.526
94.38000 6.904
94.40000 3.342
94.42000 5.684
94.44000 2.849
94.46000 2.185
94.48000 5.548
94.50000 5.738
94.52000 3.839
94.54000 0.993
94.56000 2.405
94.58000 3.937
94.60000 6.140
94.62000 5.432
94.64000 6.579
94.66000 6.874
94.68000 7.765
94.70000 8.007
94.72000 9.576
94.74000 6.031
94.76000 6.015
94.78000 4.831
94.80000 8.155
94.82000 6.361
94.84000 6.172
94.86000 -1.993
94.88000 0.455
94.90000 3.198
94.92000 4.338
94.94000 4.824
94.96000 6.237
94.98000 6.120
95.00000 8.243
95.02000 7.446
95.04000 5.081
95.06000 4.051
95.08000 2.971
95.10000 6.218
95.12000 6.492
95.14000 7.370
95.16000 3.988
95.18000 5.707
95.20000 5.479
95.22000 6.132
95.24000 6.325
95.26000 3.288
95.28000 5.092
95.30000 5.074
95.32000 5.674
95.34000 5.175
95.36000 3.688
95.38000 4.248
95.40000 2.521
95.42000 1.041
95.44000 2.084
95.46000 3.473
95.48000 3.592
95.50000 4.197
95.52000 1.937
95.54000 5.071
95.56000 5.617
95.58000 3.410
95.60000 3.661
95.62000 8.202
95.64000 2.345
95.66000 1.523
95.68000 1.461
95.70000 3.064
95.72000 2.670
95.74000 -0.069
95.76000 4.963
95.78000 3.570
95.80000 -0.473
95.82000 2.854
95.84000 3.978
95.86000 5.188
95.88000 4.300
95.90000 3.143
95.92000 2.959
95.94000 4.831
95.96000 4.499
95.98000 7.305
96.00000 7.822
96.02000 1.371
96.04000 7.134
96.06000 4.941
96.08000 2.668
96.10000 2.622
96.12000 6.179
96.14000 4.425
96.16000 2.418
96.18000 -2.036
96.20000 -1.097
96.22000 -1.501
96.24000 1.866
96.26000 -0.018
96.28000 3.645
96.30000 4.082
96.32000 5.724
96.34000 1.890
96.36000 5.914
96.38000 5.019
96.40000 8.839
96.42000 5.138
96.44000 6.432
96.46000 6.591
96.48000 0.579
96.50000 2.033
96.52000 8.347
96.54000 8.919
96.56000 11.455
96.58000 5.195
96.60000 1.588
96.62000 4.193
96.64000 6.784
96.66000 7.402
96.68000 2.189
96.70000 1.991
96.72000 5.020
96.74000 5.185
96.76000 3.669
96.78000 0.687
96.80000 -2.004
96.82000 1.519
96.84000 0.897
96.86000 3.469
96.88000 7.835
96.90000 7.163
96.92000 11.346
96.94000 6.609
96.96000 6.521
96.98000 7.324
97.00000 6.679
97.02000 -0.791
97.04000 -1.389
97.06000 0.497
97.08000 9.079
97.10000 2.974
97.12000 3.372
97.14000 6.656
97.16000 4.819
97.18000 5.938
97.20000 7.917
97.22000 6.774
97.24000 1.902
97.26000 5.431
97.28000 5.601
97.30000 2.549
97.32000 3.161
97.34000 8.265
97.36000 2.064
97.38000 1.948
97.40000 2.519
97.42000 7.510
97.44000 7.641
97.46000 5.016
97.48000 4.961
97.50000 4.138
97.52000 4.365
97.54000 3.497
97.56000 3.353
97.58000 6.182
97.60000 5.473
97.62000 7.100
97.64000 9.353
97.66000 7.540
97.68000 5.394
97.70000 7.528
97.72000 8.899
97.74000 8.044
97.76000 3.895
97.78000 2.989
97.80000 4.819
97.82000 0.249
97.84000 -1.964
97.86000 7.078
97.88000 12.132
97.90000 5.978
97.92000 1.284
97.94000 4.129
97.96000 3.907
97.98000 7.673
98.00000 7.810
98.02000 13.304
98.04000 7.737
98.06000 4.200
98.08000 3.863
98.10000 2.343
98.12000 7.487
98.14000 7.510
98.16000 5.584
98.18000 2.097
98.20000 4.917
98.22000 3.794
98.24000 1.374
98.26000 4.945
98.28000 4.109
98.30000 2.562
98.32000 8.842
98.34000 8.083
98.36000 5.915
98.38000 7.432
98.40000 4.921
98.42000 -1.550
98.44000 0.619
98.46000 7.281
98.48000 4.750
98.50000 5.739
98.52000 3.982
98.54000 8.165
98.56000 -0.524
98.58000 -1.548
98.60000 3.355
98.62000 5.709
98.64000 0.677
98.66000 1.088
98.68000 2.261
98.70000 0.190
98.72000 1.712
98.74000 6.786
98.76000 3.122
98.78000 10.179
98.80000 8.143
98.82000 1.729
98.84000 -1.975
98.86000 1.323
98.88000 1.608
98.90000 5.493
98.92000 7.967
98.94000 5.199
98.96000 -0.443
98.98000 3.051
99.00000 5.309
99.02000 1.123
99.04000 3.712
99.06000 3.070
99.08000 6.239
99.10000 9.588
99.12000 4.753
99.14000 3.343
99.16000 2.722
99.18000 4.733
99.20000 3.295
99.22000 5.961
99.24000 9.354
99.26000 3.852
99.28000 1.306
99.30000 5.185
99.32000 -1.373
99.34000 4.038
99.36000 7.856
99.38000 4.133
99.40000 2.336
99.42000 7.622
99.44000 6.717
99.46000 5.128
99.48000 12.288
99.50000 0.804
99.52000 3.411
99.54000 1.609
99.56000 5.156
99.58000 5.798
99.60000 5.335
99.62000 7.285
99.64000 3.215
99.66000 1.411
99.68000 -2.074
99.70000 0.009
99.72000 4.033
99.74000 6.767
99.76000 2.030
99.78000 4.245
99.80000 9.635
99.82000 3.827
99.84000 8.978
99.86000 3.218
99.88000 3.788
99.90000 -2.013
99.92000 -2.104
99.94000 4.188
99.96000 2.827
99.98000 0.000
