'Id: "0011388" Comment: "Integrate frame 0011388_Au-Ir-Rh_Rh-rich_XRD-Mapping-013-0000.gfrmwith cursor Wedge Cursor #5" Operator: "B?rgel" Anode: "Cu" Wavelength: "1.5406" Scantype: "2Theta (TwoTheta)" TimePerStep: "1" X: "-18" Y: "-36" Z: "5.95" 
10.00000 0.000
10.02000 -4.491
10.04000 -4.469
10.06000 9.259
10.08000 5.704
10.10000 11.467
10.12000 12.996
10.14000 8.379
10.16000 13.349
10.18000 21.481
10.20000 18.358
10.22000 19.103
10.24000 -0.262
10.26000 -4.451
10.28000 12.291
10.30000 36.423
10.32000 17.125
10.34000 -8.052
10.36000 4.594
10.38000 22.289
10.40000 25.256
10.42000 12.589
10.44000 22.055
10.46000 22.899
10.48000 12.274
10.50000 24.158
10.52000 40.897
10.54000 20.748
10.56000 10.590
10.58000 17.027
10.60000 28.490
10.62000 29.556
10.64000 29.770
10.66000 13.061
10.68000 5.391
10.70000 6.942
10.72000 10.510
10.74000 10.762
10.76000 14.507
10.78000 17.423
10.80000 17.055
10.82000 17.107
10.84000 21.843
10.86000 14.018
10.88000 18.622
10.90000 21.730
10.92000 21.309
10.94000 18.111
10.96000 5.220
10.98000 3.482
11.00000 2.621
11.02000 18.114
11.04000 12.833
11.06000 5.036
11.08000 13.212
11.10000 11.446
11.12000 7.940
11.14000 -4.412
11.16000 1.157
11.18000 14.885
11.20000 14.446
11.22000 14.245
11.24000 17.375
11.26000 24.253
11.28000 12.463
11.30000 20.635
11.32000 11.009
11.34000 11.948
11.36000 12.594
11.38000 8.857
11.40000 12.216
11.42000 11.665
11.44000 16.653
11.46000 18.598
11.48000 8.817
11.50000 8.528
11.52000 9.348
11.54000 12.970
11.56000 9.841
11.58000 16.341
11.60000 8.040
11.62000 -3.360
11.64000 8.468
11.66000 7.220
11.68000 5.209
11.70000 4.095
11.72000 13.028
11.74000 18.583
11.76000 10.992
11.78000 12.639
11.80000 11.799
11.82000 13.007
11.84000 22.630
11.86000 11.587
11.88000 25.332
11.90000 19.810
11.92000 12.762
11.94000 27.384
11.96000 20.299
11.98000 11.653
12.00000 15.550
12.02000 14.603
12.04000 17.987
12.06000 23.022
12.08000 14.414
12.10000 5.571
12.12000 6.169
12.14000 10.769
12.16000 11.395
12.18000 8.038
12.20000 16.826
12.22000 27.436
12.24000 15.882
12.26000 18.121
12.28000 22.808
12.30000 12.175
12.32000 0.830
12.34000 9.345
12.36000 3.359
12.38000 0.564
12.40000 9.363
12.42000 8.515
12.44000 10.759
12.46000 10.888
12.48000 10.385
12.50000 19.700
12.52000 16.500
12.54000 19.668
12.56000 17.098
12.58000 15.456
12.60000 15.732
12.62000 8.501
12.64000 2.974
12.66000 0.904
12.68000 10.180
12.70000 14.677
12.72000 10.814
12.74000 10.373
12.76000 3.095
12.78000 5.032
12.80000 8.531
12.82000 18.395
12.84000 16.304
12.86000 16.139
12.88000 17.609
12.90000 14.459
12.92000 10.750
12.94000 7.429
12.96000 2.328
12.98000 9.660
13.00000 20.812
13.02000 22.663
13.04000 15.471
13.06000 0.623
13.08000 -0.372
13.10000 8.568
13.12000 10.909
13.14000 18.441
13.16000 16.001
13.18000 13.004
13.20000 5.171
13.22000 11.925
13.24000 7.114
13.26000 17.663
13.28000 15.598
13.30000 11.578
13.32000 12.344
13.34000 27.580
13.36000 16.543
13.38000 11.583
13.40000 11.668
13.42000 7.268
13.44000 9.303
13.46000 8.272
13.48000 16.538
13.50000 11.254
13.52000 8.532
13.54000 15.101
13.56000 17.022
13.58000 10.444
13.60000 -2.284
13.62000 8.143
13.64000 17.763
13.66000 14.469
13.68000 12.914
13.70000 17.007
13.72000 13.075
13.74000 20.916
13.76000 20.887
13.78000 16.434
13.80000 11.883
13.82000 11.270
13.84000 6.423
13.86000 9.030
13.88000 15.902
13.90000 23.857
13.92000 21.805
13.94000 19.104
13.96000 15.030
13.98000 21.099
14.00000 19.944
14.02000 10.675
14.04000 12.676
14.06000 10.609
14.08000 14.309
14.10000 25.437
14.12000 24.314
14.14000 7.221
14.16000 -4.393
14.18000 4.818
14.20000 10.619
14.22000 15.357
14.24000 2.569
14.26000 6.447
14.28000 11.742
14.30000 11.975
14.32000 17.962
14.34000 7.929
14.36000 -2.040
14.38000 1.324
14.40000 6.337
14.42000 10.898
14.44000 11.582
14.46000 14.333
14.48000 15.220
14.50000 21.608
14.52000 11.820
14.54000 12.932
14.56000 11.319
14.58000 12.796
14.60000 14.881
14.62000 14.109
14.64000 6.939
14.66000 3.744
14.68000 9.045
14.70000 16.122
14.72000 19.376
14.74000 13.857
14.76000 13.136
14.78000 16.963
14.80000 16.787
14.82000 9.349
14.84000 8.091
14.86000 6.837
14.88000 9.348
14.90000 7.127
14.92000 14.942
14.94000 19.608
14.96000 12.751
14.98000 3.584
15.00000 9.282
15.02000 5.551
15.04000 13.918
15.06000 20.024
15.08000 14.999
15.10000 18.428
15.12000 16.935
15.14000 10.474
15.16000 5.419
15.18000 7.191
15.20000 9.530
15.22000 10.493
15.24000 9.979
15.26000 13.194
15.28000 13.658
15.30000 1.620
15.32000 4.377
15.34000 -1.215
15.36000 -1.063
15.38000 4.214
15.40000 15.341
15.42000 14.150
15.44000 11.814
15.46000 9.522
15.48000 12.679
15.50000 3.296
15.52000 10.192
15.54000 9.851
15.56000 14.889
15.58000 18.348
15.60000 16.739
15.62000 8.163
15.64000 5.321
15.66000 8.503
15.68000 12.149
15.70000 11.418
15.72000 1.862
15.74000 -2.417
15.76000 6.336
15.78000 14.338
15.80000 13.438
15.82000 11.812
15.84000 3.684
15.86000 4.156
15.88000 9.127
15.90000 16.754
15.92000 11.545
15.94000 1.234
15.96000 9.959
15.98000 11.163
16.00000 4.833
16.02000 3.954
16.04000 10.325
16.06000 15.084
16.08000 17.173
16.10000 13.241
16.12000 7.181
16.14000 1.372
16.16000 5.216
16.18000 9.556
16.20000 8.531
16.22000 1.765
16.24000 2.500
16.26000 4.467
16.28000 16.033
16.30000 6.362
16.32000 -4.354
16.34000 6.063
16.36000 13.826
16.38000 19.048
16.40000 12.631
16.42000 10.267
16.44000 13.376
16.46000 6.065
16.48000 8.633
16.50000 10.159
16.52000 8.946
16.54000 1.622
16.56000 -0.047
16.58000 10.844
16.60000 11.289
16.62000 5.262
16.64000 4.066
16.66000 14.316
16.68000 11.325
16.70000 5.116
16.72000 1.596
16.74000 3.230
16.76000 2.405
16.78000 -1.128
16.80000 -1.299
16.82000 4.846
16.84000 11.076
16.86000 8.066
16.88000 -4.327
16.90000 0.174
16.92000 4.046
16.94000 5.739
16.96000 5.052
16.98000 1.736
17.00000 3.238
17.02000 8.339
17.04000 6.682
17.06000 11.147
17.08000 4.410
17.10000 1.343
17.12000 6.166
17.14000 9.629
17.16000 7.714
17.18000 3.855
17.20000 0.925
17.22000 -2.254
17.24000 2.104
17.26000 6.273
17.28000 2.885
17.30000 9.234
17.32000 14.183
17.34000 16.229
17.36000 2.654
17.38000 4.481
17.40000 9.655
17.42000 5.347
17.44000 -0.045
17.46000 -1.839
17.48000 3.875
17.50000 -2.817
17.52000 0.190
17.54000 4.156
17.56000 11.160
17.58000 5.903
17.60000 0.571
17.62000 8.107
17.64000 6.968
17.66000 2.029
17.68000 -1.175
17.70000 1.572
17.72000 9.593
17.74000 12.178
17.76000 16.639
17.78000 19.471
17.80000 11.817
17.82000 6.634
17.84000 2.242
17.86000 -0.465
17.88000 3.564
17.90000 2.488
17.92000 0.824
17.94000 1.609
17.96000 3.803
17.98000 10.010
18.00000 11.461
18.02000 7.630
18.04000 7.956
18.06000 7.304
18.08000 -0.930
18.10000 2.395
18.12000 6.838
18.14000 5.830
18.16000 7.743
18.18000 11.421
18.20000 12.854
18.22000 11.879
18.24000 1.823
18.26000 -4.278
18.28000 2.364
18.30000 5.288
18.32000 5.619
18.34000 3.810
18.36000 3.342
18.38000 10.462
18.40000 8.529
18.42000 2.364
18.44000 4.130
18.46000 10.131
18.48000 8.762
18.50000 2.906
18.52000 5.799
18.54000 13.631
18.56000 13.541
18.58000 8.734
18.60000 4.073
18.62000 7.613
18.64000 5.954
18.66000 6.946
18.68000 14.273
18.70000 15.488
18.72000 8.143
18.74000 2.899
18.76000 4.188
18.78000 5.511
18.80000 1.819
18.82000 2.231
18.84000 4.086
18.86000 3.495
18.88000 2.794
18.90000 5.723
18.92000 2.172
18.94000 -2.188
18.96000 1.676
18.98000 5.904
19.00000 8.166
19.02000 10.756
19.04000 1.847
19.06000 1.553
19.08000 8.363
19.10000 5.591
19.12000 4.813
19.14000 10.943
19.16000 12.236
19.18000 -0.201
19.20000 0.514
19.22000 7.527
19.24000 3.627
19.26000 7.531
19.28000 6.302
19.30000 5.555
19.32000 7.430
19.34000 7.424
19.36000 8.963
19.38000 8.329
19.40000 4.452
19.42000 -1.616
19.44000 -4.211
19.46000 -0.417
19.48000 3.000
19.50000 -1.255
19.52000 -0.328
19.54000 4.126
19.56000 5.708
19.58000 1.015
19.60000 1.550
19.62000 1.484
19.64000 -1.336
19.66000 0.477
19.68000 1.851
19.70000 5.068
19.72000 5.211
19.74000 8.539
19.76000 7.186
19.78000 8.037
19.80000 9.696
19.82000 5.000
19.84000 0.076
19.86000 2.820
19.88000 0.039
19.90000 -4.171
19.92000 2.259
19.94000 7.737
19.96000 9.529
19.98000 7.845
20.00000 9.171
20.02000 2.735
20.04000 2.514
20.06000 5.985
20.08000 3.282
20.10000 6.371
20.12000 7.722
20.14000 0.001
20.16000 1.670
20.18000 2.364
20.20000 8.189
20.22000 5.893
20.24000 2.753
20.26000 4.277
20.28000 2.767
20.30000 7.201
20.32000 6.395
20.34000 0.994
20.36000 4.355
20.38000 5.617
20.40000 2.534
20.42000 5.280
20.44000 4.135
20.46000 6.530
20.48000 3.827
20.50000 5.636
20.52000 0.767
20.54000 -0.040
20.56000 9.679
20.58000 10.531
20.60000 10.997
20.62000 5.392
20.64000 2.837
20.66000 0.135
20.68000 2.891
20.70000 4.531
20.72000 8.852
20.74000 9.663
20.76000 6.761
20.78000 7.099
20.80000 6.677
20.82000 7.026
20.84000 6.086
20.86000 5.285
20.88000 8.179
20.90000 1.841
20.92000 -4.089
20.94000 -0.523
20.96000 5.642
20.98000 4.355
21.00000 8.625
21.02000 12.137
21.04000 10.885
21.06000 5.401
21.08000 6.293
21.10000 2.924
21.12000 6.746
21.14000 5.661
21.16000 7.810
21.18000 15.039
21.20000 12.847
21.22000 10.532
21.24000 5.714
21.26000 4.700
21.28000 2.103
21.30000 2.259
21.32000 -0.834
21.34000 -4.050
21.36000 1.549
21.38000 2.620
21.40000 2.337
21.42000 4.137
21.44000 2.302
21.46000 7.648
21.48000 9.897
21.50000 11.275
21.52000 13.565
21.54000 14.674
21.56000 10.667
21.58000 9.182
21.60000 6.968
21.62000 4.631
21.64000 11.364
21.66000 16.736
21.68000 13.118
21.70000 13.036
21.72000 8.166
21.74000 6.920
21.76000 7.590
21.78000 1.026
21.80000 -4.032
21.82000 5.934
21.84000 10.469
21.86000 12.395
21.88000 11.472
21.90000 7.725
21.92000 2.934
21.94000 0.409
21.96000 2.924
21.98000 6.810
22.00000 9.649
22.02000 7.101
22.04000 3.054
22.06000 5.915
22.08000 6.350
22.10000 3.057
22.12000 4.642
22.14000 11.455
22.16000 4.147
22.18000 1.698
22.20000 1.268
22.22000 5.137
22.24000 5.007
22.26000 0.972
22.28000 -1.613
22.30000 -1.371
22.32000 -4.026
22.34000 4.180
22.36000 6.031
22.38000 6.985
22.40000 4.876
22.42000 5.278
22.44000 2.827
22.46000 3.485
22.48000 1.283
22.50000 -0.365
22.52000 7.490
22.54000 4.802
22.56000 8.299
22.58000 9.843
22.60000 5.218
22.62000 2.148
22.64000 1.144
22.66000 2.303
22.68000 5.074
22.70000 3.870
22.72000 8.499
22.74000 4.594
22.76000 5.140
22.78000 10.258
22.80000 2.996
22.82000 1.982
22.84000 0.725
22.86000 0.815
22.88000 2.273
22.90000 1.419
22.92000 3.528
22.94000 5.712
22.96000 6.432
22.98000 -0.417
23.00000 3.581
23.02000 4.495
23.04000 6.870
23.06000 5.444
23.08000 4.564
23.10000 6.539
23.12000 5.627
23.14000 13.268
23.16000 7.587
23.18000 2.567
23.20000 3.709
23.22000 2.721
23.24000 1.077
23.26000 4.126
23.28000 4.912
23.30000 3.594
23.32000 0.224
23.34000 4.335
23.36000 4.692
23.38000 0.965
23.40000 2.134
23.42000 3.131
23.44000 3.073
23.46000 6.720
23.48000 0.732
23.50000 -3.974
23.52000 -0.363
23.54000 0.574
23.56000 3.213
23.58000 -0.860
23.60000 0.898
23.62000 4.428
23.64000 7.228
23.66000 8.625
23.68000 9.275
23.70000 4.495
23.72000 4.795
23.74000 6.523
23.76000 5.543
23.78000 7.830
23.80000 3.424
23.82000 -1.242
23.84000 0.953
23.86000 -0.386
23.88000 5.333
23.90000 -1.195
23.92000 -3.519
23.94000 3.683
23.96000 6.464
23.98000 2.209
24.00000 -2.008
24.02000 -1.081
24.04000 3.510
24.06000 3.147
24.08000 2.035
24.10000 1.538
24.12000 4.643
24.14000 -2.213
24.16000 -2.676
24.18000 2.308
24.20000 5.284
24.22000 3.526
24.24000 0.013
24.26000 3.778
24.28000 7.569
24.30000 0.568
24.32000 -3.916
24.34000 -1.780
24.36000 -1.724
24.38000 3.741
24.40000 6.274
24.42000 1.111
24.44000 3.352
24.46000 0.591
24.48000 -0.706
24.50000 -0.209
24.52000 7.426
24.54000 7.723
24.56000 6.455
24.58000 0.012
24.60000 1.168
24.62000 0.777
24.64000 0.852
24.66000 2.248
24.68000 0.896
24.70000 2.330
24.72000 -1.083
24.74000 -3.471
24.76000 -1.540
24.78000 4.772
24.80000 0.150
24.82000 3.295
24.84000 5.700
24.86000 7.086
24.88000 1.595
24.90000 3.854
24.92000 5.300
24.94000 1.257
24.96000 3.365
24.98000 4.910
25.00000 3.366
25.02000 -0.570
25.04000 1.321
25.06000 3.265
25.08000 0.936
25.10000 -3.374
25.12000 0.038
25.14000 3.526
25.16000 -1.024
25.18000 -3.086
25.20000 3.497
25.22000 6.097
25.24000 2.910
25.26000 5.057
25.28000 5.535
25.30000 5.605
25.32000 -3.113
25.34000 -3.879
25.36000 4.028
25.38000 8.924
25.40000 6.474
25.42000 2.882
25.44000 6.925
25.46000 8.217
25.48000 3.838
25.50000 4.582
25.52000 1.435
25.54000 -2.990
25.56000 7.469
25.58000 7.805
25.60000 3.255
25.62000 5.335
25.64000 6.015
25.66000 7.134
25.68000 4.116
25.70000 3.447
25.72000 -3.854
25.74000 -1.679
25.76000 4.836
25.78000 11.922
25.80000 11.497
25.82000 4.688
25.84000 -1.889
25.86000 -0.838
25.88000 -0.410
25.90000 -0.743
25.92000 0.452
25.94000 -3.846
25.96000 5.934
25.98000 6.210
26.00000 11.007
26.02000 5.193
26.04000 -1.102
26.06000 -1.298
26.08000 -3.046
26.10000 3.768
26.12000 -0.116
26.14000 5.155
26.16000 9.093
26.18000 7.744
26.20000 1.952
26.22000 -2.638
26.24000 -2.134
26.26000 -1.390
26.28000 4.918
26.30000 6.927
26.32000 7.570
26.34000 5.208
26.36000 1.289
26.38000 -1.264
26.40000 2.455
26.42000 9.632
26.44000 7.658
26.46000 7.885
26.48000 -1.528
26.50000 -0.018
26.52000 0.996
26.54000 4.440
26.56000 -0.049
26.58000 5.689
26.60000 -1.823
26.62000 -0.029
26.64000 4.054
26.66000 -1.334
26.68000 -0.540
26.70000 0.085
26.72000 0.501
26.74000 -1.411
26.76000 0.322
26.78000 0.042
26.80000 1.633
26.82000 1.007
26.84000 2.811
26.86000 1.093
26.88000 -0.744
26.90000 -1.782
26.92000 1.294
26.94000 -0.641
26.96000 -3.210
26.98000 3.875
27.00000 5.739
27.02000 10.174
27.04000 2.714
27.06000 -2.655
27.08000 3.720
27.10000 3.258
27.12000 -0.834
27.14000 -0.872
27.16000 -1.102
27.18000 5.912
27.20000 3.064
27.22000 5.750
27.24000 6.841
27.26000 3.552
27.28000 4.925
27.30000 3.525
27.32000 -3.783
27.34000 -1.885
27.36000 2.616
27.38000 2.467
27.40000 -2.130
27.42000 0.019
27.44000 -3.776
27.46000 -0.885
27.48000 3.393
27.50000 2.571
27.52000 0.273
27.54000 2.207
27.56000 4.425
27.58000 7.794
27.60000 2.388
27.62000 -0.728
27.64000 0.390
27.66000 3.981
27.68000 3.689
27.70000 5.298
27.72000 2.109
27.74000 2.613
27.76000 0.276
27.78000 -1.613
27.80000 0.052
27.82000 3.596
27.84000 4.470
27.86000 3.045
27.88000 4.802
27.90000 4.698
27.92000 -2.729
27.94000 -2.857
27.96000 6.029
27.98000 5.251
28.00000 0.620
28.02000 3.609
28.04000 2.489
28.06000 3.602
28.08000 5.600
28.10000 5.159
28.12000 2.962
28.14000 3.898
28.16000 7.318
28.18000 1.064
28.20000 -0.917
28.22000 -3.713
28.24000 -3.008
28.26000 3.264
28.28000 0.019
28.30000 4.245
28.32000 7.947
28.34000 4.143
28.36000 0.914
28.38000 4.806
28.40000 2.748
28.42000 0.587
28.44000 1.470
28.46000 -1.627
28.48000 0.782
28.50000 4.289
28.52000 4.944
28.54000 1.149
28.56000 -0.220
28.58000 -0.400
28.60000 -0.225
28.62000 3.919
28.64000 0.384
28.66000 -2.424
28.68000 0.550
28.70000 0.389
28.72000 -0.445
28.74000 -1.270
28.76000 -2.980
28.78000 0.574
28.80000 -1.613
28.82000 -3.690
28.84000 -0.729
28.86000 2.841
28.88000 5.453
28.90000 0.277
28.92000 0.375
28.94000 1.879
28.96000 0.495
28.98000 3.792
29.00000 7.254
29.02000 8.014
29.04000 6.881
29.06000 5.106
29.08000 4.981
29.10000 8.061
29.12000 6.237
29.14000 5.072
29.16000 6.695
29.18000 5.686
29.20000 5.407
29.22000 4.510
29.24000 1.287
29.26000 7.770
29.28000 9.156
29.30000 6.500
29.32000 4.613
29.34000 4.197
29.36000 6.358
29.38000 10.525
29.40000 6.972
29.42000 5.125
29.44000 6.468
29.46000 4.238
29.48000 1.991
29.50000 3.275
29.52000 6.299
29.54000 6.124
29.56000 -1.246
29.58000 -2.358
29.60000 -0.261
29.62000 7.323
29.64000 4.631
29.66000 -0.088
29.68000 2.778
29.70000 3.849
29.72000 6.160
29.74000 5.591
29.76000 5.769
29.78000 1.526
29.80000 0.503
29.82000 4.590
29.84000 5.881
29.86000 -0.036
29.88000 -3.230
29.90000 -3.632
29.92000 0.590
29.94000 8.526
29.96000 9.530
29.98000 11.391
30.00000 8.570
30.02000 3.474
30.04000 1.017
30.06000 2.357
30.08000 3.458
30.10000 6.531
30.12000 6.586
30.14000 0.824
30.16000 1.103
30.18000 3.463
30.20000 2.517
30.22000 -2.438
30.24000 -0.593
30.26000 3.204
30.28000 5.466
30.30000 6.367
30.32000 0.034
30.34000 -2.850
30.36000 -1.320
30.38000 0.938
30.40000 -1.053
30.42000 3.198
30.44000 2.144
30.46000 3.165
30.48000 3.683
30.50000 -0.525
30.52000 0.257
30.54000 1.503
30.56000 2.303
30.58000 -1.077
30.60000 -1.860
30.62000 0.999
30.64000 -0.446
30.66000 0.429
30.68000 0.910
30.70000 2.805
30.72000 1.714
30.74000 6.452
30.76000 10.851
30.78000 11.407
30.80000 2.548
30.82000 -1.014
30.84000 2.789
30.86000 -1.139
30.88000 -2.470
30.90000 3.807
30.92000 5.772
30.94000 9.663
30.96000 7.580
30.98000 2.994
31.00000 -0.217
31.02000 -0.569
31.04000 4.047
31.06000 6.370
31.08000 7.461
31.10000 6.946
31.12000 4.994
31.14000 0.953
31.16000 -1.469
31.18000 2.587
31.20000 3.918
31.22000 8.604
31.24000 7.384
31.26000 3.974
31.28000 -0.723
31.30000 -3.580
31.32000 -2.551
31.34000 1.097
31.36000 9.458
31.38000 13.121
31.40000 2.788
31.42000 0.724
31.44000 3.891
31.46000 1.544
31.48000 1.578
31.50000 2.936
31.52000 5.863
31.54000 4.747
31.56000 3.366
31.58000 3.848
31.60000 1.426
31.62000 1.989
31.64000 5.064
31.66000 2.312
31.68000 1.911
31.70000 -1.454
31.72000 5.207
31.74000 7.058
31.76000 3.160
31.78000 3.352
31.80000 6.253
31.82000 9.602
31.84000 5.599
31.86000 4.203
31.88000 7.033
31.90000 6.502
31.92000 4.217
31.94000 0.660
31.96000 5.131
31.98000 3.548
32.00000 3.110
32.02000 6.277
32.04000 4.769
32.06000 4.233
32.08000 3.563
32.10000 1.552
32.12000 1.282
32.14000 2.813
32.16000 4.342
32.18000 5.415
32.20000 4.130
32.22000 5.539
32.24000 7.550
32.26000 5.162
32.28000 5.705
32.30000 4.815
32.32000 4.482
32.34000 9.331
32.36000 4.472
32.38000 2.831
32.40000 3.157
32.42000 3.040
32.44000 5.140
32.46000 1.244
32.48000 1.770
32.50000 3.343
32.52000 3.231
32.54000 -3.508
32.56000 3.470
32.58000 8.353
32.60000 6.122
32.62000 4.785
32.64000 4.699
32.66000 2.774
32.68000 3.363
32.70000 0.527
32.72000 3.232
32.74000 -2.242
32.76000 -0.968
32.78000 1.708
32.80000 -0.079
32.82000 3.255
32.84000 8.630
32.86000 3.367
32.88000 -0.401
32.90000 4.850
32.92000 7.397
32.94000 10.895
32.96000 5.936
32.98000 7.351
33.00000 8.774
33.02000 8.164
33.04000 5.883
33.06000 6.229
33.08000 3.592
33.10000 2.546
33.12000 2.862
33.14000 2.377
33.16000 0.972
33.18000 0.998
33.20000 3.007
33.22000 -1.071
33.24000 -1.870
33.26000 1.585
33.28000 4.381
33.30000 7.660
33.32000 2.092
33.34000 -3.513
33.36000 -0.503
33.38000 1.214
33.40000 -1.002
33.42000 -0.730
33.44000 6.560
33.46000 10.391
33.48000 5.630
33.50000 7.744
33.52000 6.035
33.54000 2.604
33.56000 5.304
33.58000 8.516
33.60000 5.322
33.62000 5.977
33.64000 2.686
33.66000 3.151
33.68000 9.136
33.70000 9.188
33.72000 3.647
33.74000 1.650
33.76000 -0.836
33.78000 0.543
33.80000 2.269
33.82000 -2.656
33.84000 -3.510
33.86000 0.245
33.88000 0.408
33.90000 -0.344
33.92000 3.267
33.94000 4.949
33.96000 0.996
33.98000 0.256
34.00000 1.024
34.02000 2.451
34.04000 3.417
34.06000 3.392
34.08000 2.791
34.10000 2.571
34.12000 3.451
34.14000 6.572
34.16000 9.159
34.18000 4.111
34.20000 0.422
34.22000 -2.526
34.24000 -1.363
34.26000 1.174
34.28000 4.714
34.30000 4.142
34.32000 0.846
34.34000 -1.495
34.36000 -2.787
34.38000 -3.159
34.40000 -0.688
34.42000 -0.103
34.44000 0.171
34.46000 0.215
34.48000 6.778
34.50000 4.494
34.52000 8.141
34.54000 6.598
34.56000 -0.320
34.58000 1.712
34.60000 4.013
34.62000 1.355
34.64000 -2.228
34.66000 -2.545
34.68000 -3.478
34.70000 1.940
34.72000 3.233
34.74000 2.435
34.76000 3.888
34.78000 3.512
34.80000 4.669
34.82000 4.288
34.84000 1.378
34.86000 4.881
34.88000 6.888
34.90000 -1.618
34.92000 1.087
34.94000 4.249
34.96000 4.018
34.98000 4.899
35.00000 7.229
35.02000 3.740
35.04000 -1.266
35.06000 -1.212
35.08000 0.709
35.10000 0.889
35.12000 1.654
35.14000 2.564
35.16000 -2.333
35.18000 -2.882
35.20000 0.164
35.22000 0.866
35.24000 4.152
35.26000 2.433
35.28000 -1.342
35.30000 0.321
35.32000 3.904
35.34000 4.489
35.36000 5.931
35.38000 4.363
35.40000 1.065
35.42000 7.620
35.44000 4.200
35.46000 7.724
35.48000 5.142
35.50000 3.299
35.52000 4.033
35.54000 3.308
35.56000 3.738
35.58000 -0.323
35.60000 4.533
35.62000 5.722
35.64000 2.856
35.66000 -1.190
35.68000 1.541
35.70000 0.140
35.72000 -3.414
35.74000 2.390
35.76000 5.962
35.78000 4.618
35.80000 2.657
35.82000 4.966
35.84000 3.829
35.86000 2.208
35.88000 -0.094
35.90000 0.729
35.92000 2.848
35.94000 -0.641
35.96000 -2.600
35.98000 -1.732
36.00000 3.929
36.02000 0.846
36.04000 0.838
36.06000 3.525
36.08000 7.758
36.10000 4.030
36.12000 2.808
36.14000 0.444
36.16000 4.153
36.18000 2.827
36.20000 0.015
36.22000 1.811
36.24000 4.927
36.26000 0.929
36.28000 3.014
36.30000 1.113
36.32000 3.100
36.34000 7.420
36.36000 1.219
36.38000 3.250
36.40000 5.366
36.42000 0.782
36.44000 0.913
36.46000 1.043
36.48000 0.023
36.50000 0.739
36.52000 0.775
36.54000 5.288
36.56000 1.795
36.58000 3.124
36.60000 2.818
36.62000 0.209
36.64000 2.417
36.66000 1.858
36.68000 0.664
36.70000 1.088
36.72000 -0.470
36.74000 -3.434
36.76000 -2.957
36.78000 0.246
36.80000 3.015
36.82000 7.648
36.84000 3.630
36.86000 4.288
36.88000 5.326
36.90000 0.287
36.92000 -3.446
36.94000 2.498
36.96000 2.789
36.98000 1.309
37.00000 2.284
37.02000 4.622
37.04000 4.669
37.06000 0.271
37.08000 0.908
37.10000 3.192
37.12000 2.553
37.14000 5.077
37.16000 5.598
37.18000 1.838
37.20000 1.027
37.22000 2.231
37.24000 0.042
37.26000 -3.059
37.28000 -2.560
37.30000 -1.286
37.32000 -1.585
37.34000 -0.657
37.36000 -0.261
37.38000 2.041
37.40000 4.791
37.42000 3.308
37.44000 0.609
37.46000 1.622
37.48000 -0.784
37.50000 0.199
37.52000 -0.109
37.54000 -2.498
37.56000 1.908
37.58000 4.546
37.60000 5.228
37.62000 1.700
37.64000 1.062
37.66000 -0.922
37.68000 -3.547
37.70000 -0.645
37.72000 -0.048
37.74000 -1.730
37.76000 -1.856
37.78000 0.080
37.80000 0.660
37.82000 -0.028
37.84000 0.024
37.86000 -2.732
37.88000 -3.284
37.90000 0.612
37.92000 2.543
37.94000 4.310
37.96000 -2.836
37.98000 -0.695
38.00000 7.186
38.02000 3.697
38.04000 1.176
38.06000 6.874
38.08000 1.888
38.10000 1.494
38.12000 5.374
38.14000 6.112
38.16000 2.909
38.18000 3.687
38.20000 5.360
38.22000 4.566
38.24000 4.516
38.26000 1.794
38.28000 1.163
38.30000 6.065
38.32000 8.273
38.34000 8.470
38.36000 8.318
38.38000 9.531
38.40000 7.494
38.42000 10.057
38.44000 8.867
38.46000 6.789
38.48000 12.512
38.50000 12.222
38.52000 11.771
38.54000 7.436
38.56000 10.272
38.58000 13.263
38.60000 11.740
38.62000 9.770
38.64000 8.791
38.66000 18.683
38.68000 16.189
38.70000 12.630
38.72000 13.618
38.74000 14.926
38.76000 11.665
38.78000 12.991
38.80000 9.504
38.82000 11.515
38.84000 16.522
38.86000 19.274
38.88000 16.064
38.90000 20.722
38.92000 25.418
38.94000 19.617
38.96000 15.444
38.98000 21.637
39.00000 12.894
39.02000 19.400
39.04000 22.481
39.06000 16.984
39.08000 20.496
39.10000 22.470
39.12000 24.149
39.14000 25.075
39.16000 24.541
39.18000 21.454
39.20000 25.838
39.22000 35.151
39.24000 35.267
39.26000 32.281
39.28000 35.574
39.30000 36.709
39.32000 34.196
39.34000 34.392
39.36000 41.537
39.38000 37.519
39.40000 40.115
39.42000 49.442
39.44000 47.998
39.46000 48.593
39.48000 51.384
39.50000 51.217
39.52000 51.947
39.54000 55.873
39.56000 59.616
39.58000 60.905
39.60000 69.873
39.62000 68.775
39.64000 73.470
39.66000 78.063
39.68000 81.832
39.70000 81.321
39.72000 86.443
39.74000 93.358
39.76000 97.590
39.78000 100.215
39.80000 104.276
39.82000 113.670
39.84000 118.401
39.86000 123.760
39.88000 131.261
39.90000 141.539
39.92000 144.669
39.94000 151.417
39.96000 162.474
39.98000 174.273
40.00000 178.243
40.02000 177.270
40.04000 196.394
40.06000 217.351
40.08000 231.354
40.10000 243.295
40.12000 255.955
40.14000 258.058
40.16000 269.341
40.18000 291.567
40.20000 313.782
40.22000 329.743
40.24000 338.030
40.26000 362.395
40.28000 377.363
40.30000 394.567
40.32000 412.736
40.34000 433.161
40.36000 455.065
40.38000 468.002
40.40000 478.428
40.42000 496.117
40.44000 523.863
40.46000 534.736
40.48000 545.319
40.50000 559.871
40.52000 581.494
40.54000 596.459
40.56000 601.552
40.58000 600.341
40.60000 603.467
40.62000 619.478
40.64000 622.797
40.66000 620.387
40.68000 615.605
40.70000 610.746
40.72000 602.663
40.74000 602.404
40.76000 591.576
40.78000 576.183
40.80000 574.114
40.82000 570.420
40.84000 553.863
40.86000 536.110
40.88000 512.702
40.90000 494.819
40.92000 472.064
40.94000 463.894
40.96000 440.670
40.98000 426.435
41.00000 410.622
41.02000 383.362
41.04000 361.708
41.06000 348.202
41.08000 329.075
41.10000 313.353
41.12000 293.682
41.14000 281.499
41.16000 263.141
41.18000 250.408
41.20000 234.925
41.22000 226.129
41.24000 213.678
41.26000 202.817
41.28000 184.909
41.30000 176.248
41.32000 165.500
41.34000 158.292
41.36000 151.609
41.38000 141.083
41.40000 136.574
41.42000 135.233
41.44000 121.160
41.46000 113.032
41.48000 112.125
41.50000 102.094
41.52000 99.829
41.54000 91.889
41.56000 91.294
41.58000 87.610
41.60000 79.556
41.62000 73.289
41.64000 71.139
41.66000 71.706
41.68000 63.051
41.70000 61.572
41.72000 63.041
41.74000 63.647
41.76000 59.359
41.78000 48.447
41.80000 43.137
41.82000 48.194
41.84000 42.391
41.86000 38.832
41.88000 40.281
41.90000 33.292
41.92000 31.988
41.94000 30.396
41.96000 30.703
41.98000 31.136
42.00000 31.890
42.02000 30.785
42.04000 28.440
42.06000 28.479
42.08000 25.503
42.10000 26.443
42.12000 24.288
42.14000 17.995
42.16000 17.279
42.18000 18.545
42.20000 24.239
42.22000 19.790
42.24000 22.720
42.26000 15.561
42.28000 9.210
42.30000 13.035
42.32000 13.685
42.34000 12.743
42.36000 7.867
42.38000 7.092
42.40000 12.827
42.42000 13.205
42.44000 11.820
42.46000 14.185
42.48000 13.218
42.50000 11.003
42.52000 8.207
42.54000 6.459
42.56000 7.823
42.58000 10.763
42.60000 13.593
42.62000 6.814
42.64000 7.244
42.66000 3.670
42.68000 4.122
42.70000 7.432
42.72000 4.696
42.74000 2.893
42.76000 1.650
42.78000 -1.295
42.80000 -2.881
42.82000 3.956
42.84000 4.620
42.86000 1.626
42.88000 3.182
42.90000 0.907
42.92000 -2.459
42.94000 -0.170
42.96000 1.500
42.98000 1.788
43.00000 -1.056
43.02000 -1.917
43.04000 0.126
43.06000 3.344
43.08000 3.160
43.10000 0.590
43.12000 1.797
43.14000 0.581
43.16000 -2.319
43.18000 -3.498
43.20000 1.898
43.22000 7.197
43.24000 8.417
43.26000 6.634
43.28000 0.305
43.30000 2.043
43.32000 2.198
43.34000 0.221
43.36000 -1.048
43.38000 1.723
43.40000 0.419
43.42000 1.588
43.44000 1.833
43.46000 1.273
43.48000 2.090
43.50000 4.844
43.52000 3.498
43.54000 1.245
43.56000 3.254
43.58000 1.588
43.60000 -0.877
43.62000 2.305
43.64000 4.618
43.66000 7.263
43.68000 6.305
43.70000 1.517
43.72000 1.744
43.74000 -0.923
43.76000 6.288
43.78000 3.742
43.80000 0.905
43.82000 -1.764
43.84000 -3.404
43.86000 0.027
43.88000 2.444
43.90000 2.063
43.92000 0.721
43.94000 1.436
43.96000 0.174
43.98000 0.650
44.00000 -0.706
44.02000 -0.575
44.04000 -0.905
44.06000 -0.833
44.08000 0.497
44.10000 -0.656
44.12000 2.382
44.14000 5.912
44.16000 0.690
44.18000 -1.100
44.20000 2.393
44.22000 3.200
44.24000 3.399
44.26000 2.233
44.28000 -2.350
44.30000 -3.375
44.32000 -0.267
44.34000 2.551
44.36000 6.166
44.38000 4.968
44.40000 4.456
44.42000 2.735
44.44000 7.017
44.46000 4.115
44.48000 -0.519
44.50000 -1.177
44.52000 4.671
44.54000 5.038
44.56000 3.389
44.58000 5.048
44.60000 0.072
44.62000 -1.860
44.64000 2.339
44.66000 7.185
44.68000 7.441
44.70000 2.942
44.72000 -1.681
44.74000 -3.343
44.76000 0.184
44.78000 2.655
44.80000 -1.569
44.82000 0.775
44.84000 4.617
44.86000 1.770
44.88000 2.745
44.90000 6.029
44.92000 4.555
44.94000 3.557
44.96000 -0.654
44.98000 5.839
45.00000 4.759
45.02000 0.104
45.04000 1.705
45.06000 1.122
45.08000 2.519
45.10000 3.015
45.12000 4.553
45.14000 3.680
45.16000 4.986
45.18000 0.230
45.20000 2.704
45.22000 2.062
45.24000 -2.805
45.26000 3.333
45.28000 4.054
45.30000 4.024
45.32000 2.899
45.34000 4.625
45.36000 2.788
45.38000 6.065
45.40000 2.418
45.42000 0.982
45.44000 3.255
45.46000 2.127
45.48000 3.463
45.50000 4.532
45.52000 5.079
45.54000 2.699
45.56000 2.550
45.58000 3.508
45.60000 8.094
45.62000 8.413
45.64000 8.060
45.66000 2.172
45.68000 5.441
45.70000 6.979
45.72000 5.514
45.74000 8.174
45.76000 9.103
45.78000 8.026
45.80000 1.771
45.82000 9.099
45.84000 14.133
45.86000 7.810
45.88000 5.621
45.90000 7.587
45.92000 9.454
45.94000 9.963
45.96000 7.594
45.98000 12.646
46.00000 12.729
46.02000 13.183
46.04000 18.095
46.06000 19.754
46.08000 19.391
46.10000 19.002
46.12000 20.901
46.14000 18.968
46.16000 19.362
46.18000 16.121
46.20000 15.172
46.22000 20.855
46.24000 25.224
46.26000 20.961
46.28000 22.439
46.30000 28.872
46.32000 28.875
46.34000 27.133
46.36000 28.957
46.38000 35.114
46.40000 34.227
46.42000 36.473
46.44000 35.847
46.46000 34.955
46.48000 37.944
46.50000 35.037
46.52000 34.831
46.54000 37.848
46.56000 39.907
46.58000 41.541
46.60000 49.739
46.62000 51.261
46.64000 48.260
46.66000 40.800
46.68000 43.837
46.70000 45.626
46.72000 51.187
46.74000 50.538
46.76000 49.675
46.78000 46.844
46.80000 51.702
46.82000 58.631
46.84000 56.872
46.86000 58.416
46.88000 57.358
46.90000 66.939
46.92000 65.257
46.94000 58.190
46.96000 63.157
46.98000 68.165
47.00000 69.631
47.02000 73.410
47.04000 72.134
47.06000 74.438
47.08000 80.167
47.10000 80.480
47.12000 77.047
47.14000 78.088
47.16000 78.553
47.18000 78.771
47.20000 79.897
47.22000 80.775
47.24000 73.802
47.26000 73.833
47.28000 81.562
47.30000 80.523
47.32000 75.505
47.34000 74.319
47.36000 80.386
47.38000 79.312
47.40000 70.974
47.42000 73.675
47.44000 73.762
47.46000 77.881
47.48000 68.324
47.50000 68.914
47.52000 68.360
47.54000 65.575
47.56000 62.448
47.58000 65.914
47.60000 62.498
47.62000 58.683
47.64000 58.944
47.66000 57.453
47.68000 58.119
47.70000 55.148
47.72000 57.259
47.74000 51.002
47.76000 51.200
47.78000 50.677
47.80000 48.656
47.82000 49.949
47.84000 47.106
47.86000 41.175
47.88000 41.478
47.90000 37.947
47.92000 38.958
47.94000 38.309
47.96000 40.778
47.98000 33.334
48.00000 29.190
48.02000 31.114
48.04000 28.877
48.06000 24.433
48.08000 23.499
48.10000 29.435
48.12000 29.436
48.14000 23.910
48.16000 22.960
48.18000 24.083
48.20000 21.422
48.22000 19.949
48.24000 18.948
48.26000 18.177
48.28000 13.955
48.30000 13.887
48.32000 13.015
48.34000 17.909
48.36000 20.459
48.38000 22.422
48.40000 17.314
48.42000 15.246
48.44000 11.880
48.46000 12.282
48.48000 12.277
48.50000 13.770
48.52000 10.927
48.54000 9.450
48.56000 6.189
48.58000 3.280
48.60000 3.421
48.62000 4.832
48.64000 2.946
48.66000 2.223
48.68000 5.611
48.70000 3.437
48.72000 1.837
48.74000 8.155
48.76000 9.140
48.78000 4.775
48.80000 1.901
48.82000 5.284
48.84000 2.831
48.86000 4.490
48.88000 6.712
48.90000 3.294
48.92000 -2.984
48.94000 -1.021
48.96000 5.336
48.98000 5.590
49.00000 6.816
49.02000 4.535
49.04000 -2.373
49.06000 1.919
49.08000 4.571
49.10000 5.988
49.12000 7.805
49.14000 2.743
49.16000 0.105
49.18000 4.006
49.20000 2.146
49.22000 3.763
49.24000 4.029
49.26000 3.929
49.28000 6.308
49.30000 2.630
49.32000 1.985
49.34000 4.364
49.36000 3.670
49.38000 1.046
49.40000 2.844
49.42000 1.882
49.44000 2.534
49.46000 4.168
49.48000 1.771
49.50000 -0.056
49.52000 1.331
49.54000 2.445
49.56000 3.653
49.58000 -2.904
49.60000 0.472
49.62000 3.426
49.64000 2.434
49.66000 1.056
49.68000 1.618
49.70000 5.634
49.72000 3.562
49.74000 1.497
49.76000 3.340
49.78000 3.540
49.80000 2.934
49.82000 5.711
49.84000 5.876
49.86000 2.588
49.88000 3.180
49.90000 5.273
49.92000 4.228
49.94000 4.311
49.96000 2.829
49.98000 3.407
50.00000 2.766
50.02000 5.590
50.04000 1.810
50.06000 -1.463
50.08000 -1.162
50.10000 1.598
50.12000 4.505
50.14000 2.058
50.16000 -2.811
50.18000 0.387
50.20000 5.590
50.22000 11.242
50.24000 7.909
50.26000 3.377
50.28000 2.193
50.30000 1.453
50.32000 5.320
50.34000 7.626
50.36000 4.002
50.38000 4.342
50.40000 3.662
50.42000 -2.700
50.44000 -1.607
50.46000 1.008
50.48000 2.627
50.50000 2.935
50.52000 5.810
50.54000 1.130
50.56000 2.980
50.58000 4.639
50.60000 -0.316
50.62000 -0.213
50.64000 0.364
50.66000 2.707
50.68000 1.888
50.70000 4.720
50.72000 3.551
50.74000 9.014
50.76000 2.872
50.78000 4.343
50.80000 7.277
50.82000 3.445
50.84000 4.412
50.86000 2.931
50.88000 7.185
50.90000 6.831
50.92000 2.496
50.94000 2.551
50.96000 5.295
50.98000 8.402
51.00000 0.533
51.02000 -2.750
51.04000 2.998
51.06000 6.685
51.08000 9.923
51.10000 7.601
51.12000 7.158
51.14000 5.345
51.16000 7.681
51.18000 3.612
51.20000 0.983
51.22000 6.637
51.24000 6.587
51.26000 7.436
51.28000 8.676
51.30000 9.862
51.32000 7.487
51.34000 -2.314
51.36000 -1.409
51.38000 -0.572
51.40000 6.080
51.42000 1.823
51.44000 2.091
51.46000 2.218
51.48000 7.543
51.50000 8.998
51.52000 11.022
51.54000 9.377
51.56000 7.172
51.58000 1.001
51.60000 2.097
51.62000 4.949
51.64000 7.456
51.66000 2.082
51.68000 1.821
51.70000 5.462
51.72000 -0.782
51.74000 -2.736
51.76000 6.274
51.78000 5.946
51.80000 3.557
51.82000 5.034
51.84000 5.534
51.86000 3.382
51.88000 2.136
51.90000 3.254
51.92000 6.692
51.94000 6.089
51.96000 8.069
51.98000 7.917
52.00000 5.144
52.02000 9.692
52.04000 8.778
52.06000 9.220
52.08000 6.855
52.10000 3.136
52.12000 3.871
52.14000 4.532
52.16000 1.961
52.18000 -2.607
52.20000 -1.316
52.22000 -2.453
52.24000 2.548
52.26000 2.061
52.28000 5.378
52.30000 6.574
52.32000 2.439
52.34000 1.673
52.36000 6.430
52.38000 7.105
52.40000 3.311
52.42000 -1.888
52.44000 0.049
52.46000 2.212
52.48000 2.908
52.50000 1.977
52.52000 -0.561
52.54000 1.828
52.56000 3.664
52.58000 3.210
52.60000 4.871
52.62000 0.000
52.64000 2.836
52.66000 0.182
52.68000 -0.200
52.70000 -0.044
52.72000 2.556
52.74000 6.074
52.76000 3.888
52.78000 1.432
52.80000 1.583
52.82000 -0.173
52.84000 -0.302
52.86000 2.514
52.88000 4.902
52.90000 5.139
52.92000 4.497
52.94000 3.203
52.96000 1.564
52.98000 2.091
53.00000 2.182
53.02000 2.145
53.04000 1.351
53.06000 -2.718
53.08000 3.485
53.10000 6.223
53.12000 3.085
53.14000 0.558
53.16000 2.019
53.18000 4.409
53.20000 5.029
53.22000 -2.339
53.24000 4.782
53.26000 7.191
53.28000 1.277
53.30000 0.866
53.32000 1.623
53.34000 1.308
53.36000 4.659
53.38000 2.273
53.40000 0.702
53.42000 -0.620
53.44000 2.240
53.46000 -1.041
53.48000 1.220
53.50000 4.791
53.52000 5.252
53.54000 5.089
53.56000 3.987
53.58000 4.133
53.60000 3.413
53.62000 6.783
53.64000 7.178
53.66000 5.486
53.68000 2.777
53.70000 4.486
53.72000 1.831
53.74000 1.367
53.76000 1.916
53.78000 0.970
53.80000 3.045
53.82000 1.865
53.84000 5.107
53.86000 2.971
53.88000 -2.143
53.90000 -2.697
53.92000 3.211
53.94000 3.482
53.96000 5.339
53.98000 0.869
54.00000 4.001
54.02000 2.349
54.04000 1.793
54.06000 2.316
54.08000 5.659
54.10000 3.741
54.12000 4.697
54.14000 2.197
54.16000 0.810
54.18000 5.721
54.20000 4.444
54.22000 2.469
54.24000 0.416
54.26000 -0.940
54.28000 4.157
54.30000 4.871
54.32000 0.623
54.34000 2.187
54.36000 0.729
54.38000 3.432
54.40000 9.577
54.42000 10.293
54.44000 6.523
54.46000 2.504
54.48000 3.235
54.50000 1.223
54.52000 1.773
54.54000 1.334
54.56000 6.172
54.58000 7.159
54.60000 3.219
54.62000 3.355
54.64000 2.834
54.66000 0.875
54.68000 6.724
54.70000 5.524
54.72000 5.899
54.74000 5.639
54.76000 2.294
54.78000 3.687
54.80000 2.060
54.82000 1.288
54.84000 1.537
54.86000 2.909
54.88000 1.551
54.90000 2.854
54.92000 1.515
54.94000 1.509
54.96000 1.972
54.98000 1.392
55.00000 4.483
55.02000 4.327
55.04000 8.010
55.06000 3.910
55.08000 2.329
55.10000 2.955
55.12000 2.259
55.14000 -1.579
55.16000 1.573
55.18000 7.644
55.20000 9.917
55.22000 7.070
55.24000 1.786
55.26000 -2.006
55.28000 -0.156
55.30000 3.854
55.32000 0.298
55.34000 -2.646
55.36000 1.877
55.38000 6.043
55.40000 5.914
55.42000 2.957
55.44000 4.576
55.46000 2.775
55.48000 2.108
55.50000 3.515
55.52000 6.264
55.54000 6.902
55.56000 5.629
55.58000 5.207
55.60000 4.678
55.62000 3.569
55.64000 2.163
55.66000 4.967
55.68000 6.041
55.70000 4.041
55.72000 3.969
55.74000 4.680
55.76000 6.835
55.78000 7.510
55.80000 1.802
55.82000 -2.624
55.84000 1.480
55.86000 4.255
55.88000 7.351
55.90000 7.274
55.92000 -0.162
55.94000 0.159
55.96000 0.849
55.98000 3.446
56.00000 2.738
56.02000 3.181
56.04000 6.706
56.06000 10.880
56.08000 10.171
56.10000 13.864
56.12000 8.779
56.14000 5.647
56.16000 7.518
56.18000 5.849
56.20000 4.424
56.22000 1.581
56.24000 6.692
56.26000 4.559
56.28000 3.225
56.30000 -1.308
56.32000 3.462
56.34000 6.140
56.36000 0.839
56.38000 3.084
56.40000 4.317
56.42000 1.796
56.44000 1.421
56.46000 4.413
56.48000 5.526
56.50000 5.676
56.52000 3.511
56.54000 2.329
56.56000 2.568
56.58000 1.518
56.60000 3.148
56.62000 -0.023
56.64000 -0.651
56.66000 4.664
56.68000 0.754
56.70000 0.927
56.72000 1.080
56.74000 1.604
56.76000 1.936
56.78000 0.752
56.80000 4.240
56.82000 6.366
56.84000 1.661
56.86000 3.747
56.88000 1.741
56.90000 5.284
56.92000 4.289
56.94000 2.454
56.96000 6.057
56.98000 4.783
57.00000 0.914
57.02000 4.002
57.04000 2.330
57.06000 1.598
57.08000 0.772
57.10000 -1.187
57.12000 3.188
57.14000 2.594
57.16000 -2.624
57.18000 2.214
57.20000 9.672
57.22000 7.267
57.24000 7.737
57.26000 0.760
57.28000 -0.485
57.30000 2.501
57.32000 0.619
57.34000 0.782
57.36000 3.347
57.38000 2.730
57.40000 2.441
57.42000 5.228
57.44000 5.095
57.46000 1.281
57.48000 0.902
57.50000 -1.084
57.52000 -0.273
57.54000 0.016
57.56000 0.331
57.58000 5.629
57.60000 6.838
57.62000 8.053
57.64000 3.476
57.66000 2.678
57.68000 6.306
57.70000 5.805
57.72000 5.349
57.74000 6.044
57.76000 -0.283
57.78000 -1.488
57.80000 -1.406
57.82000 0.207
57.84000 2.061
57.86000 2.623
57.88000 1.587
57.90000 1.030
57.92000 2.604
57.94000 2.969
57.96000 3.753
57.98000 5.689
58.00000 3.727
58.02000 1.917
58.04000 4.665
58.06000 -2.559
58.08000 -0.734
58.10000 4.309
58.12000 2.162
58.14000 1.594
58.16000 1.328
58.18000 1.127
58.20000 4.077
58.22000 1.001
58.24000 4.785
58.26000 3.092
58.28000 1.632
58.30000 3.599
58.32000 5.828
58.34000 4.369
58.36000 3.724
58.38000 0.378
58.40000 -0.308
58.42000 2.261
58.44000 1.847
58.46000 1.470
58.48000 0.976
58.50000 3.739
58.52000 6.746
58.54000 7.322
58.56000 0.037
58.58000 1.166
58.60000 3.561
58.62000 0.521
58.64000 1.821
58.66000 3.838
58.68000 0.977
58.70000 1.575
58.72000 -0.318
58.74000 4.549
58.76000 7.241
58.78000 3.253
58.80000 0.992
58.82000 -2.498
58.84000 4.724
58.86000 9.477
58.88000 2.861
58.90000 -2.540
58.92000 0.262
58.94000 4.474
58.96000 3.384
58.98000 5.616
59.00000 -0.484
59.02000 -0.877
59.04000 1.118
59.06000 5.115
59.08000 5.619
59.10000 3.003
59.12000 2.247
59.14000 4.690
59.16000 4.660
59.18000 5.142
59.20000 2.476
59.22000 4.051
59.24000 0.591
59.26000 -1.303
59.28000 -2.526
59.30000 1.339
59.32000 4.924
59.34000 2.825
59.36000 3.786
59.38000 2.720
59.40000 3.089
59.42000 3.152
59.44000 0.578
59.46000 1.251
59.48000 4.688
59.50000 5.794
59.52000 3.679
59.54000 1.978
59.56000 0.576
59.58000 -0.699
59.60000 0.490
59.62000 -0.223
59.64000 3.374
59.66000 4.693
59.68000 5.367
59.70000 1.037
59.72000 1.948
59.74000 -0.576
59.76000 -1.886
59.78000 0.390
59.80000 0.560
59.82000 2.979
59.84000 4.728
59.86000 3.354
59.88000 1.902
59.90000 1.624
59.92000 -2.391
59.94000 2.922
59.96000 4.264
59.98000 6.675
60.00000 -0.140
60.02000 2.841
60.04000 2.776
60.06000 2.429
60.08000 1.693
60.10000 3.793
60.12000 4.240
60.14000 6.163
60.16000 5.868
60.18000 4.557
60.20000 -0.243
60.22000 4.106
60.24000 6.729
60.26000 4.093
60.28000 3.514
60.30000 1.551
60.32000 -2.475
60.34000 1.995
60.36000 6.882
60.38000 5.321
60.40000 6.164
60.42000 7.524
60.44000 3.748
60.46000 5.700
60.48000 5.448
60.50000 5.931
60.52000 2.185
60.54000 2.759
60.56000 -0.563
60.58000 -0.222
60.60000 6.935
60.62000 7.074
60.64000 1.650
60.66000 5.551
60.68000 6.369
60.70000 2.930
60.72000 4.055
60.74000 3.520
60.76000 3.964
60.78000 4.088
60.80000 0.304
60.82000 1.543
60.84000 3.980
60.86000 3.199
60.88000 1.132
60.90000 -0.559
60.92000 0.550
60.94000 3.000
60.96000 2.559
60.98000 1.667
61.00000 1.654
61.02000 2.130
61.04000 4.713
61.06000 4.275
61.08000 1.988
61.10000 -0.762
61.12000 4.314
61.14000 4.532
61.16000 7.846
61.18000 5.218
61.20000 1.984
61.22000 2.114
61.24000 1.196
61.26000 5.148
61.28000 0.092
61.30000 -2.087
61.32000 1.075
61.34000 4.862
61.36000 3.640
61.38000 4.311
61.40000 3.978
61.42000 -1.968
61.44000 1.020
61.46000 2.651
61.48000 2.062
61.50000 0.203
61.52000 -0.236
61.54000 4.128
61.56000 -0.553
61.58000 2.426
61.60000 3.221
61.62000 4.824
61.64000 7.112
61.66000 3.288
61.68000 -0.565
61.70000 -1.112
61.72000 -1.099
61.74000 1.332
61.76000 2.989
61.78000 0.467
61.80000 -2.432
61.82000 5.508
61.84000 5.692
61.86000 0.636
61.88000 2.691
61.90000 3.736
61.92000 0.869
61.94000 3.165
61.96000 4.773
61.98000 1.257
62.00000 2.145
62.02000 3.290
62.04000 1.139
62.06000 -1.207
62.08000 0.763
62.10000 1.050
62.12000 -0.500
62.14000 -0.710
62.16000 1.454
62.18000 2.537
62.20000 1.885
62.22000 -0.133
62.24000 0.201
62.26000 7.571
62.28000 2.231
62.30000 0.758
62.32000 -0.084
62.34000 1.283
62.36000 1.288
62.38000 0.705
62.40000 2.241
62.42000 3.892
62.44000 0.144
62.46000 -1.881
62.48000 1.292
62.50000 -0.643
62.52000 -1.099
62.54000 -1.541
62.56000 2.265
62.58000 2.698
62.60000 5.537
62.62000 6.639
62.64000 3.836
62.66000 2.567
62.68000 0.335
62.70000 -0.095
62.72000 2.376
62.74000 1.454
62.76000 2.449
62.78000 1.157
62.80000 -2.434
62.82000 0.602
62.84000 0.870
62.86000 3.117
62.88000 2.884
62.90000 1.691
62.92000 0.958
62.94000 0.673
62.96000 -0.776
62.98000 0.879
63.00000 2.692
63.02000 0.869
63.04000 -0.046
63.06000 0.607
63.08000 2.612
63.10000 3.011
63.12000 3.797
63.14000 2.237
63.16000 0.501
63.18000 2.763
63.20000 2.402
63.22000 3.588
63.24000 2.529
63.26000 3.939
63.28000 -1.823
63.30000 -2.423
63.32000 0.059
63.34000 3.445
63.36000 5.581
63.38000 4.216
63.40000 -0.304
63.42000 -1.795
63.44000 -0.429
63.46000 0.929
63.48000 1.731
63.50000 3.645
63.52000 1.547
63.54000 2.196
63.56000 1.057
63.58000 -2.150
63.60000 -0.416
63.62000 1.695
63.64000 4.611
63.66000 0.295
63.68000 1.065
63.70000 0.629
63.72000 2.118
63.74000 3.524
63.76000 2.052
63.78000 1.335
63.80000 1.791
63.82000 3.002
63.84000 2.446
63.86000 5.561
63.88000 4.737
63.90000 2.587
63.92000 2.335
63.94000 -0.349
63.96000 0.750
63.98000 4.108
64.00000 3.074
64.02000 3.258
64.04000 3.247
64.06000 4.590
64.08000 8.269
64.10000 3.152
64.12000 3.129
64.14000 2.946
64.16000 1.140
64.18000 1.592
64.20000 3.164
64.22000 4.093
64.24000 5.590
64.26000 2.764
64.28000 -2.264
64.30000 -0.311
64.32000 0.665
64.34000 1.359
64.36000 3.327
64.38000 2.908
64.40000 -1.502
64.42000 0.098
64.44000 -2.198
64.46000 -2.433
64.48000 0.174
64.50000 1.891
64.52000 -0.028
64.54000 1.627
64.56000 3.330
64.58000 3.565
64.60000 4.018
64.62000 5.974
64.64000 3.141
64.66000 1.204
64.68000 0.858
64.70000 1.456
64.72000 1.563
64.74000 2.930
64.76000 3.941
64.78000 6.204
64.80000 2.353
64.82000 4.388
64.84000 3.741
64.86000 2.946
64.88000 -0.460
64.90000 -0.546
64.92000 0.121
64.94000 0.774
64.96000 3.320
64.98000 4.518
65.00000 1.620
65.02000 3.885
65.04000 1.601
65.06000 0.085
65.08000 -0.528
65.10000 2.105
65.12000 1.797
65.14000 5.027
65.16000 0.790
65.18000 1.515
65.20000 2.896
65.22000 2.903
65.24000 -1.187
65.26000 -0.351
65.28000 2.405
65.30000 -0.285
65.32000 -1.634
65.34000 1.085
65.36000 0.508
65.38000 -2.451
65.40000 0.316
65.42000 3.210
65.44000 -0.061
65.46000 -2.431
65.48000 -1.290
65.50000 1.058
65.52000 1.223
65.54000 4.543
65.56000 3.904
65.58000 2.622
65.60000 3.408
65.62000 1.745
65.64000 0.088
65.66000 0.896
65.68000 1.320
65.70000 2.565
65.72000 2.110
65.74000 0.258
65.76000 0.431
65.78000 1.314
65.80000 0.346
65.82000 -1.137
65.84000 -2.469
65.86000 -0.050
65.88000 3.437
65.90000 2.953
65.92000 0.836
65.94000 0.622
65.96000 1.197
65.98000 -1.410
66.00000 2.240
66.02000 0.328
66.04000 -1.772
66.06000 -2.477
66.08000 2.026
66.10000 1.677
66.12000 2.674
66.14000 3.993
66.16000 2.624
66.18000 -0.050
66.20000 0.745
66.22000 2.202
66.24000 -0.682
66.26000 -0.496
66.28000 2.105
66.30000 1.669
66.32000 0.176
66.34000 -1.195
66.36000 -0.004
66.38000 -0.870
66.40000 -0.503
66.42000 -0.854
66.44000 -2.080
66.46000 0.118
66.48000 1.148
66.50000 -0.396
66.52000 0.074
66.54000 -0.673
66.56000 -0.911
66.58000 -1.308
66.60000 2.281
66.62000 1.572
66.64000 -2.492
66.66000 0.795
66.68000 0.654
66.70000 -0.742
66.72000 -0.702
66.74000 2.311
66.76000 0.946
66.78000 0.582
66.80000 -1.178
66.82000 0.202
66.84000 0.822
66.86000 -0.479
66.88000 -2.499
66.90000 -1.511
66.92000 2.457
66.94000 0.778
66.96000 1.410
66.98000 3.161
67.00000 0.926
67.02000 1.133
67.04000 2.874
67.06000 -2.234
67.08000 -1.079
67.10000 -0.304
67.12000 2.531
67.14000 0.432
67.16000 -2.169
67.18000 -1.427
67.20000 0.580
67.22000 3.347
67.24000 -1.057
67.26000 2.761
67.28000 3.942
67.30000 0.431
67.32000 -2.128
67.34000 -0.014
67.36000 0.280
67.38000 2.023
67.40000 1.425
67.42000 1.101
67.44000 1.226
67.46000 3.311
67.48000 2.050
67.50000 -0.454
67.52000 -1.194
67.54000 -0.847
67.56000 -2.499
67.58000 -1.464
67.60000 -1.110
67.62000 0.531
67.64000 2.531
67.66000 -2.533
67.68000 -1.688
67.70000 2.893
67.72000 0.461
67.74000 -1.135
67.76000 2.047
67.78000 2.139
67.80000 -0.305
67.82000 -1.463
67.84000 -1.097
67.86000 -1.144
67.88000 2.837
67.90000 0.896
67.92000 2.646
67.94000 2.339
67.96000 2.895
67.98000 1.408
68.00000 5.176
68.02000 7.924
68.04000 3.330
68.06000 1.780
68.08000 1.011
68.10000 1.555
68.12000 2.852
68.14000 4.469
68.16000 6.492
68.18000 5.098
68.20000 6.200
68.22000 6.330
68.24000 7.922
68.26000 9.077
68.28000 8.173
68.30000 6.968
68.32000 5.223
68.34000 6.910
68.36000 8.855
68.38000 8.926
68.40000 9.359
68.42000 7.790
68.44000 7.018
68.46000 5.924
68.48000 9.793
68.50000 12.495
68.52000 10.356
68.54000 9.650
68.56000 12.176
68.58000 12.581
68.60000 10.859
68.62000 13.613
68.64000 13.596
68.66000 13.894
68.68000 16.360
68.70000 17.889
68.72000 18.137
68.74000 18.211
68.76000 19.361
68.78000 17.270
68.80000 15.682
68.82000 15.974
68.84000 18.661
68.86000 20.909
68.88000 20.290
68.90000 20.071
68.92000 19.820
68.94000 21.518
68.96000 19.750
68.98000 16.298
69.00000 18.853
69.02000 18.175
69.04000 20.235
69.06000 22.231
69.08000 22.030
69.10000 22.169
69.12000 20.811
69.14000 19.191
69.16000 22.345
69.18000 23.428
69.20000 24.346
69.22000 21.332
69.24000 21.032
69.26000 19.582
69.28000 20.954
69.30000 18.806
69.32000 15.334
69.34000 12.826
69.36000 14.959
69.38000 20.645
69.40000 19.689
69.42000 17.348
69.44000 16.331
69.46000 19.062
69.48000 15.572
69.50000 13.018
69.52000 11.450
69.54000 13.332
69.56000 13.274
69.58000 14.860
69.60000 14.186
69.62000 11.583
69.64000 14.650
69.66000 11.627
69.68000 8.068
69.70000 8.214
69.72000 9.454
69.74000 7.951
69.76000 4.903
69.78000 11.013
69.80000 8.783
69.82000 5.582
69.84000 4.208
69.86000 5.568
69.88000 8.481
69.90000 7.968
69.92000 4.791
69.94000 5.480
69.96000 5.497
69.98000 5.432
70.00000 8.525
70.02000 6.303
70.04000 5.219
70.06000 4.958
70.08000 8.941
70.10000 4.740
70.12000 4.438
70.14000 3.841
70.16000 2.148
70.18000 4.289
70.20000 2.827
70.22000 2.123
70.24000 0.440
70.26000 4.789
70.28000 6.612
70.30000 4.950
70.32000 1.560
70.34000 2.384
70.36000 3.198
70.38000 8.191
70.40000 3.526
70.42000 5.490
70.44000 7.632
70.46000 7.497
70.48000 4.826
70.50000 4.273
70.52000 2.597
70.54000 -2.362
70.56000 0.394
70.58000 1.698
70.60000 3.607
70.62000 5.815
70.64000 2.633
70.66000 3.921
70.68000 3.291
70.70000 3.478
70.72000 7.067
70.74000 2.171
70.76000 3.105
70.78000 6.828
70.80000 3.193
70.82000 -0.415
70.84000 -0.199
70.86000 6.129
70.88000 4.456
70.90000 1.040
70.92000 2.811
70.94000 -0.565
70.96000 -0.319
70.98000 1.808
71.00000 4.138
71.02000 4.584
71.04000 4.339
71.06000 0.996
71.08000 1.470
71.10000 4.008
71.12000 5.210
71.14000 3.283
71.16000 2.072
71.18000 0.714
71.20000 2.582
71.22000 2.991
71.24000 5.098
71.26000 2.437
71.28000 -1.338
71.30000 2.100
71.32000 4.722
71.34000 0.650
71.36000 0.366
71.38000 3.332
71.40000 2.171
71.42000 2.227
71.44000 4.770
71.46000 1.919
71.48000 1.071
71.50000 0.729
71.52000 -1.712
71.54000 -0.363
71.56000 2.042
71.58000 5.650
71.60000 3.071
71.62000 1.973
71.64000 -0.127
71.66000 2.027
71.68000 1.625
71.70000 3.235
71.72000 2.005
71.74000 0.810
71.76000 0.548
71.78000 1.276
71.80000 4.285
71.82000 2.197
71.84000 1.359
71.86000 0.626
71.88000 2.853
71.90000 1.755
71.92000 3.930
71.94000 -0.945
71.96000 -1.631
71.98000 -2.154
72.00000 0.535
72.02000 6.966
72.04000 6.254
72.06000 2.801
72.08000 -1.727
72.10000 -2.127
72.12000 4.089
72.14000 -1.924
72.16000 -2.294
72.18000 2.265
72.20000 4.639
72.22000 5.682
72.24000 1.952
72.26000 3.172
72.28000 6.218
72.30000 3.335
72.32000 -0.073
72.34000 -1.751
72.36000 -0.572
72.38000 1.100
72.40000 6.108
72.42000 2.694
72.44000 3.383
72.46000 1.750
72.48000 4.162
72.50000 3.702
72.52000 4.832
72.54000 3.476
72.56000 2.001
72.58000 0.980
72.60000 3.282
72.62000 1.892
72.64000 -0.593
72.66000 1.662
72.68000 0.365
72.70000 7.560
72.72000 5.377
72.74000 -2.250
72.76000 0.412
72.78000 -0.141
72.80000 3.645
72.82000 2.065
72.84000 5.254
72.86000 7.104
72.88000 4.395
72.90000 -1.707
72.92000 -2.245
72.94000 -2.076
72.96000 1.804
72.98000 5.797
73.00000 7.253
73.02000 5.477
73.04000 0.512
73.06000 1.803
73.08000 3.859
73.10000 0.381
73.12000 1.972
73.14000 1.396
73.16000 -0.199
73.18000 -0.092
73.20000 3.859
73.22000 1.319
73.24000 4.218
73.26000 6.216
73.28000 1.629
73.30000 0.670
73.32000 3.867
73.34000 1.485
73.36000 0.204
73.38000 -2.230
73.40000 0.238
73.42000 4.742
73.44000 5.691
73.46000 6.469
73.48000 6.614
73.50000 2.708
73.52000 4.076
73.54000 8.304
73.56000 4.492
73.58000 4.937
73.60000 5.452
73.62000 3.316
73.64000 4.286
73.66000 5.276
73.68000 4.113
73.70000 7.154
73.72000 5.184
73.74000 4.387
73.76000 1.712
73.78000 1.742
73.80000 2.123
73.82000 3.446
73.84000 2.751
73.86000 3.916
73.88000 1.779
73.90000 1.339
73.92000 1.475
73.94000 2.313
73.96000 2.670
73.98000 0.324
74.00000 2.471
74.02000 1.894
74.04000 1.575
74.06000 -0.920
74.08000 2.772
74.10000 3.710
74.12000 1.601
74.14000 1.376
74.16000 6.706
74.18000 3.309
74.20000 -2.216
74.22000 0.992
74.24000 3.799
74.26000 8.139
74.28000 2.890
74.30000 -2.216
74.32000 0.627
74.34000 1.339
74.36000 5.583
74.38000 6.608
74.40000 4.714
74.42000 7.297
74.44000 6.229
74.46000 4.684
74.48000 2.670
74.50000 2.678
74.52000 3.494
74.54000 5.476
74.56000 5.591
74.58000 2.637
74.60000 2.590
74.62000 5.460
74.64000 5.241
74.66000 5.093
74.68000 2.881
74.70000 2.627
74.72000 -2.222
74.74000 -1.013
74.76000 2.749
74.78000 0.968
74.80000 2.949
74.82000 1.257
74.84000 1.502
74.86000 5.857
74.88000 9.435
74.90000 3.115
74.92000 0.191
74.94000 1.995
74.96000 -0.628
74.98000 1.628
75.00000 -1.073
75.02000 3.099
75.04000 8.666
75.06000 4.953
75.08000 -0.386
75.10000 1.654
75.12000 2.686
75.14000 2.032
75.16000 4.550
75.18000 -0.664
75.20000 -1.960
75.22000 2.543
75.24000 1.850
75.26000 0.322
75.28000 -0.706
75.30000 -1.288
75.32000 -1.864
75.34000 1.171
75.36000 1.654
75.38000 0.791
75.40000 1.746
75.42000 1.171
75.44000 -1.532
75.46000 0.866
75.48000 0.520
75.50000 2.242
75.52000 1.724
75.54000 2.101
75.56000 -0.662
75.58000 0.304
75.60000 4.199
75.62000 0.403
75.64000 -2.263
75.66000 1.307
75.68000 4.134
75.70000 4.764
75.72000 6.687
75.74000 2.317
75.76000 -0.067
75.78000 2.996
75.80000 3.458
75.82000 7.209
75.84000 5.732
75.86000 4.515
75.88000 6.569
75.90000 6.249
75.92000 3.443
75.94000 2.844
75.96000 2.120
75.98000 1.947
76.00000 -0.617
76.02000 2.150
76.04000 0.978
76.06000 4.414
76.08000 3.915
76.10000 6.565
76.12000 1.464
76.14000 2.552
76.16000 2.494
76.18000 -1.613
76.20000 0.641
76.22000 1.765
76.24000 -0.589
76.26000 0.806
76.28000 3.383
76.30000 2.475
76.32000 5.994
76.34000 3.778
76.36000 5.389
76.38000 4.051
76.40000 1.260
76.42000 4.065
76.44000 1.334
76.46000 1.622
76.48000 -1.466
76.50000 0.960
76.52000 3.102
76.54000 0.962
76.56000 2.210
76.58000 2.547
76.60000 -2.272
76.62000 1.286
76.64000 4.016
76.66000 3.053
76.68000 2.254
76.70000 2.523
76.72000 2.107
76.74000 4.326
76.76000 1.581
76.78000 4.588
76.80000 3.824
76.82000 5.805
76.84000 5.812
76.86000 7.846
76.88000 8.764
76.90000 4.626
76.92000 2.878
76.94000 3.688
76.96000 4.243
76.98000 2.299
77.00000 4.035
77.02000 4.278
77.04000 4.620
77.06000 4.682
77.08000 4.313
77.10000 10.710
77.12000 8.644
77.14000 7.049
77.16000 3.665
77.18000 2.807
77.20000 4.304
77.22000 1.801
77.24000 0.339
77.26000 2.389
77.28000 4.279
77.30000 7.940
77.32000 7.193
77.34000 4.540
77.36000 3.066
77.38000 3.620
77.40000 2.065
77.42000 3.135
77.44000 1.008
77.46000 1.605
77.48000 -2.244
77.50000 1.570
77.52000 3.762
77.54000 0.077
77.56000 3.554
77.58000 7.813
77.60000 5.964
77.62000 7.498
77.64000 6.803
77.66000 5.330
77.68000 4.621
77.70000 5.354
77.72000 0.877
77.74000 6.602
77.76000 6.419
77.78000 4.957
77.80000 0.737
77.82000 -0.665
77.84000 4.940
77.86000 5.947
77.88000 3.665
77.90000 4.998
77.92000 0.396
77.94000 -1.106
77.96000 -0.459
77.98000 0.055
78.00000 1.926
78.02000 2.142
78.04000 0.655
78.06000 2.555
78.08000 1.164
78.10000 2.751
78.12000 1.071
78.14000 6.436
78.16000 9.106
78.18000 6.298
78.20000 4.940
78.22000 1.510
78.24000 5.784
78.26000 3.992
78.28000 2.574
78.30000 2.841
78.32000 2.142
78.34000 0.811
78.36000 5.972
78.38000 9.510
78.40000 8.824
78.42000 6.263
78.44000 1.619
78.46000 1.871
78.48000 3.974
78.50000 2.756
78.52000 -2.312
78.54000 -1.118
78.56000 3.913
78.58000 4.943
78.60000 3.909
78.62000 0.410
78.64000 0.677
78.66000 1.694
78.68000 3.522
78.70000 4.488
78.72000 0.373
78.74000 3.973
78.76000 -0.696
78.78000 -1.734
78.80000 2.855
78.82000 2.136
78.84000 -1.680
78.86000 -0.136
78.88000 -0.635
78.90000 -1.921
78.92000 2.614
78.94000 4.993
78.96000 2.071
78.98000 -1.455
79.00000 1.595
79.02000 1.725
79.04000 4.113
79.06000 1.022
79.08000 -1.321
79.10000 3.212
79.12000 7.133
79.14000 4.374
79.16000 4.896
79.18000 2.836
79.20000 -2.135
79.22000 3.711
79.24000 4.632
79.26000 7.179
79.28000 1.311
79.30000 0.176
79.32000 3.653
79.34000 -0.100
79.36000 1.909
79.38000 4.731
79.40000 1.339
79.42000 -0.351
79.44000 -2.327
79.46000 1.132
79.48000 6.304
79.50000 3.287
79.52000 6.492
79.54000 4.155
79.56000 6.504
79.58000 7.459
79.60000 7.807
79.62000 3.220
79.64000 -0.379
79.66000 1.121
79.68000 2.329
79.70000 1.812
79.72000 2.791
79.74000 4.432
79.76000 1.404
79.78000 -1.727
79.80000 -2.331
79.82000 1.086
79.84000 0.079
79.86000 5.449
79.88000 2.686
79.90000 1.484
79.92000 2.768
79.94000 0.675
79.96000 1.729
79.98000 2.618
80.00000 0.215
80.02000 2.332
80.04000 1.260
80.06000 3.492
80.08000 3.645
80.10000 5.136
80.12000 1.840
80.14000 1.648
80.16000 1.283
80.18000 -2.326
80.20000 0.879
80.22000 4.291
80.24000 4.188
80.26000 2.074
80.28000 -1.374
80.30000 0.330
80.32000 5.315
80.34000 5.790
80.36000 5.562
80.38000 4.761
80.40000 0.643
80.42000 -0.096
80.44000 6.900
80.46000 3.539
80.48000 2.123
80.50000 -2.335
80.52000 2.046
80.54000 7.132
80.56000 1.847
80.58000 1.847
80.60000 -0.689
80.62000 -0.801
80.64000 2.464
80.66000 3.762
80.68000 5.808
80.70000 1.804
80.72000 0.955
80.74000 3.921
80.76000 3.396
80.78000 1.603
80.80000 1.321
80.82000 -1.971
80.84000 1.931
80.86000 1.131
80.88000 0.830
80.90000 1.711
80.92000 3.858
80.94000 4.570
80.96000 2.168
80.98000 -2.353
81.00000 1.308
81.02000 1.406
81.04000 4.569
81.06000 3.761
81.08000 3.040
81.10000 3.622
81.12000 2.354
81.14000 5.135
81.16000 3.029
81.18000 0.920
81.20000 7.404
81.22000 5.189
81.24000 6.112
81.26000 7.063
81.28000 5.413
81.30000 3.084
81.32000 3.574
81.34000 8.489
81.36000 5.569
81.38000 7.073
81.40000 7.068
81.42000 3.319
81.44000 3.926
81.46000 7.908
81.48000 7.692
81.50000 9.092
81.52000 6.338
81.54000 0.822
81.56000 2.066
81.58000 5.585
81.60000 3.211
81.62000 2.119
81.64000 3.641
81.66000 2.699
81.68000 -2.368
81.70000 1.194
81.72000 5.341
81.74000 7.730
81.76000 9.915
81.78000 8.376
81.80000 6.137
81.82000 5.963
81.84000 9.844
81.86000 10.582
81.88000 11.558
81.90000 11.475
81.92000 8.119
81.94000 5.882
81.96000 13.146
81.98000 12.272
82.00000 7.528
82.02000 6.539
82.04000 9.617
82.06000 10.128
82.08000 15.409
82.10000 14.208
82.12000 10.869
82.14000 11.932
82.16000 10.290
82.18000 7.244
82.20000 7.780
82.22000 6.792
82.24000 6.966
82.26000 8.492
82.28000 10.861
82.30000 12.518
82.32000 12.345
82.34000 11.466
82.36000 16.994
82.38000 15.593
82.40000 9.580
82.42000 16.276
82.44000 17.399
82.46000 13.415
82.48000 9.540
82.50000 13.395
82.52000 17.026
82.54000 19.260
82.56000 17.984
82.58000 23.532
82.60000 23.599
82.62000 17.130
82.64000 12.863
82.66000 21.214
82.68000 25.796
82.70000 24.560
82.72000 23.129
82.74000 21.312
82.76000 23.651
82.78000 23.825
82.80000 22.286
82.82000 23.578
82.84000 24.259
82.86000 25.383
82.88000 24.787
82.90000 23.304
82.92000 24.618
82.94000 23.017
82.96000 24.169
82.98000 25.467
83.00000 24.811
83.02000 24.481
83.04000 28.109
83.06000 31.466
83.08000 30.787
83.10000 33.069
83.12000 34.429
83.14000 29.647
83.16000 31.124
83.18000 34.071
83.20000 32.702
83.22000 29.528
83.24000 30.839
83.26000 32.663
83.28000 34.216
83.30000 30.782
83.32000 30.884
83.34000 30.277
83.36000 32.784
83.38000 29.246
83.40000 32.479
83.42000 33.582
83.44000 31.552
83.46000 28.017
83.48000 26.050
83.50000 33.736
83.52000 36.435
83.54000 31.394
83.56000 28.706
83.58000 27.852
83.60000 34.006
83.62000 32.208
83.64000 31.131
83.66000 30.817
83.68000 31.731
83.70000 27.313
83.72000 30.127
83.74000 34.180
83.76000 28.161
83.78000 27.506
83.80000 25.793
83.82000 28.435
83.84000 25.534
83.86000 21.596
83.88000 21.719
83.90000 20.949
83.92000 20.536
83.94000 17.070
83.96000 15.716
83.98000 14.618
84.00000 18.237
84.02000 17.483
84.04000 17.702
84.06000 14.478
84.08000 16.412
84.10000 19.344
84.12000 19.090
84.14000 15.348
84.16000 11.350
84.18000 7.125
84.20000 7.360
84.22000 10.865
84.24000 15.061
84.26000 14.580
84.28000 15.909
84.30000 15.418
84.32000 14.661
84.34000 14.928
84.36000 16.670
84.38000 12.440
84.40000 9.319
84.42000 7.946
84.44000 8.820
84.46000 6.845
84.48000 10.533
84.50000 7.208
84.52000 7.197
84.54000 10.702
84.56000 13.216
84.58000 12.429
84.60000 11.364
84.62000 12.423
84.64000 10.968
84.66000 11.867
84.68000 8.785
84.70000 6.636
84.72000 6.152
84.74000 2.839
84.76000 1.873
84.78000 -0.944
84.80000 4.235
84.82000 3.929
84.84000 3.751
84.86000 2.839
84.88000 8.928
84.90000 8.230
84.92000 9.307
84.94000 5.948
84.96000 4.082
84.98000 2.546
85.00000 4.977
85.02000 4.760
85.04000 2.455
85.06000 -0.667
85.08000 0.471
85.10000 0.971
85.12000 3.938
85.14000 7.983
85.16000 0.747
85.18000 2.572
85.20000 5.197
85.22000 6.232
85.24000 8.526
85.26000 5.027
85.28000 0.164
85.30000 2.452
85.32000 1.255
85.34000 2.896
85.36000 4.398
85.38000 6.185
85.40000 6.880
85.42000 4.178
85.44000 3.647
85.46000 0.638
85.48000 -2.295
85.50000 -1.900
85.52000 2.184
85.54000 4.468
85.56000 4.745
85.58000 4.835
85.60000 6.890
85.62000 4.631
85.64000 0.881
85.66000 2.825
85.68000 3.755
85.70000 1.934
85.72000 3.125
85.74000 4.474
85.76000 4.181
85.78000 0.591
85.80000 3.209
85.82000 8.535
85.84000 7.869
85.86000 5.435
85.88000 2.883
85.90000 1.202
85.92000 1.447
85.94000 2.198
85.96000 5.104
85.98000 3.125
86.00000 5.213
86.02000 9.322
86.04000 3.885
86.06000 2.395
86.08000 0.629
86.10000 -2.326
86.12000 -1.801
86.14000 0.890
86.16000 6.381
86.18000 3.827
86.20000 3.403
86.22000 2.187
86.24000 0.539
86.26000 -0.214
86.28000 -1.343
86.30000 0.288
86.32000 2.367
86.34000 -1.843
86.36000 0.104
86.38000 -1.438
86.40000 -0.203
86.42000 2.219
86.44000 4.885
86.46000 4.030
86.48000 4.597
86.50000 6.008
86.52000 4.460
86.54000 3.615
86.56000 4.222
86.58000 6.395
86.60000 9.060
86.62000 8.442
86.64000 6.170
86.66000 5.157
86.68000 1.088
86.70000 6.163
86.72000 8.722
86.74000 11.978
86.76000 8.598
86.78000 3.449
86.80000 5.159
86.82000 5.842
86.84000 9.650
86.86000 7.902
86.88000 3.559
86.90000 6.217
86.92000 12.293
86.94000 14.518
86.96000 12.576
86.98000 10.477
87.00000 10.284
87.02000 8.105
87.04000 6.861
87.06000 12.272
87.08000 10.608
87.10000 14.355
87.12000 14.626
87.14000 9.463
87.16000 10.783
87.18000 14.095
87.20000 15.909
87.22000 13.446
87.24000 14.228
87.26000 20.632
87.28000 19.110
87.30000 19.767
87.32000 25.649
87.34000 22.539
87.36000 19.320
87.38000 17.760
87.40000 19.526
87.42000 17.708
87.44000 23.017
87.46000 21.458
87.48000 24.281
87.50000 25.378
87.52000 30.406
87.54000 31.766
87.56000 28.400
87.58000 27.581
87.60000 25.383
87.62000 21.436
87.64000 27.596
87.66000 27.510
87.68000 22.695
87.70000 28.270
87.72000 27.380
87.74000 27.153
87.76000 22.172
87.78000 28.343
87.80000 29.677
87.82000 27.911
87.84000 26.531
87.86000 28.809
87.88000 27.775
87.90000 29.643
87.92000 31.021
87.94000 26.064
87.96000 24.909
87.98000 30.480
88.00000 29.402
88.02000 25.490
88.04000 27.058
88.06000 32.518
88.08000 25.352
88.10000 26.110
88.12000 26.466
88.14000 22.741
88.16000 24.866
88.18000 16.954
88.20000 15.011
88.22000 22.892
88.24000 20.359
88.26000 23.507
88.28000 24.725
88.30000 20.425
88.32000 18.356
88.34000 21.774
88.36000 17.372
88.38000 12.940
88.40000 13.760
88.42000 16.920
88.44000 17.629
88.46000 17.608
88.48000 14.579
88.50000 13.812
88.52000 16.347
88.54000 15.798
88.56000 17.673
88.58000 16.636
88.60000 17.695
88.62000 14.554
88.64000 10.681
88.66000 11.615
88.68000 15.948
88.70000 17.042
88.72000 11.923
88.74000 9.415
88.76000 7.187
88.78000 8.883
88.80000 7.811
88.82000 10.433
88.84000 9.906
88.86000 7.987
88.88000 5.518
88.90000 14.093
88.92000 13.223
88.94000 8.144
88.96000 7.243
88.98000 5.305
89.00000 1.773
89.02000 2.859
89.04000 7.229
89.06000 7.948
89.08000 7.320
89.10000 7.124
89.12000 1.391
89.14000 -0.722
89.16000 4.785
89.18000 2.318
89.20000 1.944
89.22000 -0.355
89.24000 -0.395
89.26000 2.088
89.28000 0.575
89.30000 0.390
89.32000 1.931
89.34000 10.068
89.36000 7.704
89.38000 3.743
89.40000 4.121
89.42000 6.363
89.44000 1.727
89.46000 3.105
89.48000 6.463
89.50000 7.988
89.52000 3.091
89.54000 1.961
89.56000 4.303
89.58000 3.668
89.60000 3.025
89.62000 2.424
89.64000 2.249
89.66000 3.948
89.68000 2.795
89.70000 2.487
89.72000 -1.179
89.74000 -2.155
89.76000 2.496
89.78000 9.407
89.80000 5.991
89.82000 6.205
89.84000 3.230
89.86000 2.170
89.88000 9.161
89.90000 3.001
89.92000 2.603
89.94000 4.659
89.96000 5.447
89.98000 5.238
90.00000 3.916
90.02000 3.626
90.04000 5.468
90.06000 6.764
90.08000 9.499
90.10000 10.322
90.12000 6.195
90.14000 -1.875
90.16000 5.721
90.18000 9.086
90.20000 7.137
90.22000 1.992
90.24000 3.953
90.26000 7.017
90.28000 5.395
90.30000 3.829
90.32000 1.885
90.34000 -0.356
90.36000 -2.131
90.38000 2.537
90.40000 2.397
90.42000 3.438
90.44000 4.932
90.46000 8.639
90.48000 1.569
90.50000 3.131
90.52000 5.245
90.54000 10.051
90.56000 6.779
90.58000 5.284
90.60000 9.283
90.62000 3.579
90.64000 2.764
90.66000 5.283
90.68000 4.790
90.70000 6.151
90.72000 4.884
90.74000 2.386
90.76000 2.243
90.78000 5.266
90.80000 4.711
90.82000 1.253
90.84000 1.744
90.86000 0.938
90.88000 -2.110
90.90000 2.906
90.92000 6.656
90.94000 2.396
90.96000 7.182
90.98000 8.024
91.00000 4.478
91.02000 2.991
91.04000 3.495
91.06000 6.799
91.08000 2.342
91.10000 2.656
91.12000 1.944
91.14000 2.810
91.16000 9.260
91.18000 8.122
91.20000 0.047
91.22000 2.941
91.24000 6.933
91.26000 6.796
91.28000 7.982
91.30000 5.657
91.32000 4.608
91.34000 3.988
91.36000 7.875
91.38000 7.768
91.40000 5.444
91.42000 2.306
91.44000 3.258
91.46000 5.202
91.48000 5.028
91.50000 3.425
91.52000 5.209
91.54000 -2.101
91.56000 0.302
91.58000 -0.869
91.60000 1.348
91.62000 1.987
91.64000 4.795
91.66000 1.601
91.68000 4.243
91.70000 3.132
91.72000 4.364
91.74000 1.094
91.76000 3.170
91.78000 3.173
91.80000 3.446
91.82000 6.155
91.84000 8.642
91.86000 6.798
91.88000 3.898
91.90000 4.313
91.92000 5.315
91.94000 8.701
91.96000 7.319
91.98000 7.823
92.00000 10.303
92.02000 7.610
92.04000 0.304
92.06000 0.682
92.08000 10.125
92.10000 4.918
92.12000 4.653
92.14000 4.404
92.16000 3.923
92.18000 -0.024
92.20000 7.237
92.22000 8.714
92.24000 0.386
92.26000 -0.897
92.28000 0.315
92.30000 4.889
92.32000 5.661
92.34000 -1.042
92.36000 3.851
92.38000 3.280
92.40000 0.124
92.42000 1.101
92.44000 -1.628
92.46000 2.435
92.48000 -0.656
92.50000 6.723
92.52000 9.610
92.54000 2.761
92.56000 -1.177
92.58000 1.093
92.60000 7.203
92.62000 8.253
92.64000 3.882
92.66000 1.618
92.68000 4.127
92.70000 3.984
92.72000 3.915
92.74000 0.099
92.76000 -0.376
92.78000 -1.515
92.80000 3.210
92.82000 7.496
92.84000 7.545
92.86000 4.870
92.88000 6.940
92.90000 -1.551
92.92000 0.342
92.94000 7.660
92.96000 6.509
92.98000 6.702
93.00000 3.408
93.02000 3.030
93.04000 1.770
93.06000 3.618
93.08000 0.603
93.10000 -1.387
93.12000 6.709
93.14000 8.983
93.16000 3.382
93.18000 4.231
93.20000 0.166
93.22000 1.966
93.24000 1.082
93.26000 3.575
93.28000 0.779
93.30000 0.780
93.32000 2.404
93.34000 4.730
93.36000 3.939
93.38000 3.775
93.40000 -1.416
93.42000 1.344
93.44000 1.843
93.46000 0.325
93.48000 0.296
93.50000 0.072
93.52000 -0.897
93.54000 2.219
93.56000 6.003
93.58000 0.739
93.60000 -2.158
93.62000 1.799
93.64000 3.080
93.66000 7.460
93.68000 8.078
93.70000 4.150
93.72000 0.124
93.74000 -1.924
93.76000 1.244
93.78000 8.854
93.80000 5.246
93.82000 5.561
93.84000 4.311
93.86000 -2.147
93.88000 2.149
93.90000 7.560
93.92000 6.321
93.94000 2.693
93.96000 6.222
93.98000 6.826
94.00000 7.968
94.02000 4.364
94.04000 6.525
94.06000 10.344
94.08000 6.974
94.10000 5.122
94.12000 3.677
94.14000 -0.888
94.16000 4.418
94.18000 4.123
94.20000 1.676
94.22000 0.677
94.24000 2.662
94.26000 4.811
94.28000 1.467
94.30000 2.917
94.32000 4.439
94.34000 -2.078
94.36000 -0.492
94.38000 1.399
94.40000 2.562
94.42000 3.561
94.44000 1.504
94.46000 3.620
94.48000 6.251
94.50000 2.042
94.52000 0.733
94.54000 -0.414
94.56000 5.229
94.58000 6.684
94.60000 4.850
94.62000 3.908
94.64000 2.626
94.66000 2.044
94.68000 5.089
94.70000 3.444
94.72000 1.263
94.74000 -0.086
94.76000 3.355
94.78000 5.579
94.80000 6.207
94.82000 5.815
94.84000 7.465
94.86000 7.109
94.88000 6.143
94.90000 3.857
94.92000 5.147
94.94000 9.498
94.96000 10.866
94.98000 9.238
95.00000 5.367
95.02000 5.562
95.04000 10.513
95.06000 9.965
95.08000 12.502
95.10000 14.815
95.12000 8.250
95.14000 4.450
95.16000 6.950
95.18000 5.203
95.20000 6.573
95.22000 4.501
95.24000 -0.777
95.26000 -2.149
95.28000 2.688
95.30000 11.783
95.32000 12.551
95.34000 13.293
95.36000 9.125
95.38000 6.561
95.40000 4.545
95.42000 2.738
95.44000 4.874
95.46000 3.732
95.48000 0.733
95.50000 4.687
95.52000 4.715
95.54000 2.865
95.56000 0.394
95.58000 6.108
95.60000 8.203
95.62000 4.741
95.64000 5.765
95.66000 7.771
95.68000 5.765
95.70000 8.877
95.72000 9.687
95.74000 8.449
95.76000 8.111
95.78000 4.549
95.80000 1.075
95.82000 4.228
95.84000 5.541
95.86000 8.017
95.88000 6.437
95.90000 7.907
95.92000 9.420
95.94000 6.748
95.96000 6.005
95.98000 6.404
96.00000 6.530
96.02000 4.416
96.04000 6.568
96.06000 -0.393
96.08000 3.132
96.10000 6.205
96.12000 -2.185
96.14000 4.077
96.16000 7.475
96.18000 1.520
96.20000 3.620
96.22000 5.962
96.24000 5.219
96.26000 3.588
96.28000 3.393
96.30000 1.428
96.32000 4.317
96.34000 3.866
96.36000 5.117
96.38000 5.042
96.40000 5.142
96.42000 7.839
96.44000 9.542
96.46000 3.573
96.48000 4.237
96.50000 1.929
96.52000 2.228
96.54000 5.013
96.56000 5.177
96.58000 2.504
96.60000 5.542
96.62000 2.375
96.64000 2.364
96.66000 2.566
96.68000 0.961
96.70000 -2.178
96.72000 5.448
96.74000 5.580
96.76000 -2.039
96.78000 1.276
96.80000 7.277
96.82000 -4.261
96.84000 3.840
96.86000 8.767
96.88000 5.114
96.90000 5.345
96.92000 6.007
96.94000 5.791
96.96000 6.048
96.98000 0.768
97.00000 1.171
97.02000 -0.385
97.04000 3.341
97.06000 3.337
97.08000 -0.736
97.10000 3.821
97.12000 2.321
97.14000 1.424
97.16000 1.812
97.18000 5.154
97.20000 9.083
97.22000 10.404
97.24000 7.098
97.26000 8.343
97.28000 3.871
97.30000 5.137
97.32000 2.726
97.34000 5.306
97.36000 6.739
97.38000 6.142
97.40000 5.570
97.42000 3.847
97.44000 2.683
97.46000 1.012
97.48000 -0.996
97.50000 5.282
97.52000 5.466
97.54000 5.766
97.56000 7.599
97.58000 3.060
97.60000 4.484
97.62000 2.352
97.64000 1.502
97.66000 2.484
97.68000 2.281
97.70000 9.436
97.72000 9.747
97.74000 12.244
97.76000 8.034
97.78000 3.657
97.80000 7.117
97.82000 8.253
97.84000 0.069
97.86000 4.361
97.88000 7.468
97.90000 5.410
97.92000 2.331
97.94000 5.871
97.96000 7.910
97.98000 4.972
98.00000 -1.353
98.02000 2.038
98.04000 1.799
98.06000 2.856
98.08000 5.228
98.10000 4.015
98.12000 8.585
98.14000 3.650
98.16000 2.223
98.18000 1.780
98.20000 7.717
98.22000 4.439
98.24000 4.053
98.26000 9.397
98.28000 7.393
98.30000 10.415
98.32000 3.859
98.34000 1.754
98.36000 3.708
98.38000 6.832
98.40000 7.963
98.42000 10.726
98.44000 1.030
98.46000 5.911
98.48000 9.529
98.50000 13.740
98.52000 6.057
98.54000 5.431
98.56000 3.527
98.58000 5.134
98.60000 10.490
98.62000 10.152
98.64000 11.372
98.66000 15.275
98.68000 11.808
98.70000 5.224
98.72000 1.182
98.74000 8.556
98.76000 8.069
98.78000 3.788
98.80000 -2.460
98.82000 6.741
98.84000 7.079
98.86000 10.396
98.88000 7.533
98.90000 11.815
98.92000 10.933
98.94000 3.822
98.96000 9.139
98.98000 5.134
99.00000 -1.823
99.02000 4.502
99.04000 12.153
99.06000 14.454
99.08000 12.459
99.10000 1.671
99.12000 6.909
99.14000 6.083
99.16000 9.153
99.18000 10.418
99.20000 8.097
99.22000 -1.185
99.24000 4.500
99.26000 12.318
99.28000 10.646
99.30000 5.574
99.32000 -0.313
99.34000 2.677
99.36000 2.283
99.38000 4.598
99.40000 -0.266
99.42000 -0.430
99.44000 9.023
99.46000 13.291
99.48000 5.897
99.50000 9.456
99.52000 3.293
99.54000 2.597
99.56000 13.685
99.58000 13.345
99.60000 11.242
99.62000 10.039
99.64000 4.481
99.66000 11.364
99.68000 2.814
99.70000 -0.883
99.72000 2.776
99.74000 -2.122
99.76000 5.201
99.78000 3.480
99.80000 -1.025
99.82000 -0.710
99.84000 -1.516
99.86000 -1.503
99.88000 -2.282
99.90000 6.517
99.92000 5.272
99.94000 11.178
99.96000 -2.393
99.98000 0.000
