'Id: "0011387" Comment: "Integrate frame 0011387_Au-Ir-Rh_Rh-rich_XRD-Mapping-301-0000.gfrmwith cursor Wedge Cursor #5" Operator: "B?rgel" Anode: "Cu" Wavelength: "1.5406" Scantype: "2Theta (TwoTheta)" TimePerStep: "1" X: "-9" Y: "31.5" Z: "5.95" 
10.00000 0.000
10.02000 -4.486
10.04000 3.504
10.06000 7.901
10.08000 0.663
10.10000 -4.450
10.12000 0.641
10.14000 3.679
10.16000 1.151
10.18000 -0.754
10.20000 9.687
10.22000 25.656
10.24000 18.021
10.26000 16.680
10.28000 3.515
10.30000 -2.831
10.32000 1.133
10.34000 3.554
10.36000 10.169
10.38000 -4.399
10.40000 2.194
10.42000 27.305
10.44000 32.664
10.46000 17.465
10.48000 17.632
10.50000 19.919
10.52000 11.182
10.54000 12.038
10.56000 12.240
10.58000 16.544
10.60000 13.021
10.62000 2.963
10.64000 -1.145
10.66000 0.743
10.68000 1.031
10.70000 2.420
10.72000 1.429
10.74000 10.583
10.76000 23.195
10.78000 14.133
10.80000 -1.853
10.82000 -1.382
10.84000 0.738
10.86000 -0.032
10.88000 4.270
10.90000 28.864
10.92000 26.477
10.94000 32.309
10.96000 15.771
10.98000 3.996
11.00000 9.992
11.02000 9.329
11.04000 18.924
11.06000 6.258
11.08000 17.118
11.10000 19.633
11.12000 7.927
11.14000 2.365
11.16000 6.071
11.18000 8.483
11.20000 18.441
11.22000 12.072
11.24000 5.060
11.26000 17.578
11.28000 30.046
11.30000 13.369
11.32000 16.734
11.34000 14.277
11.36000 7.773
11.38000 8.287
11.40000 11.419
11.42000 23.492
11.44000 21.670
11.46000 4.505
11.48000 0.932
11.50000 2.336
11.52000 20.582
11.54000 8.919
11.56000 3.655
11.58000 2.002
11.60000 13.687
11.62000 17.619
11.64000 9.011
11.66000 -4.441
11.68000 -4.314
11.70000 8.283
11.72000 8.940
11.74000 3.885
11.76000 2.136
11.78000 12.136
11.80000 6.044
11.82000 5.747
11.84000 8.798
11.86000 18.743
11.88000 14.824
11.90000 14.965
11.92000 14.864
11.94000 11.961
11.96000 10.026
11.98000 12.268
12.00000 8.164
12.02000 3.039
12.04000 5.104
12.06000 0.312
12.08000 -2.263
12.10000 6.765
12.12000 7.224
12.14000 11.412
12.16000 17.335
12.18000 16.546
12.20000 5.738
12.22000 0.510
12.24000 8.073
12.26000 9.538
12.28000 12.741
12.30000 7.512
12.32000 14.833
12.34000 10.969
12.36000 10.482
12.38000 9.243
12.40000 13.923
12.42000 2.955
12.44000 7.338
12.46000 13.501
12.48000 9.560
12.50000 7.888
12.52000 4.856
12.54000 4.862
12.56000 2.850
12.58000 12.031
12.60000 13.775
12.62000 16.788
12.64000 11.595
12.66000 7.009
12.68000 5.760
12.70000 8.095
12.72000 6.868
12.74000 3.381
12.76000 5.842
12.78000 7.966
12.80000 12.678
12.82000 15.045
12.84000 9.788
12.86000 13.045
12.88000 14.309
12.90000 6.906
12.92000 15.169
12.94000 10.506
12.96000 15.754
12.98000 4.945
13.00000 8.744
13.02000 10.155
13.04000 10.690
13.06000 8.521
13.08000 3.901
13.10000 9.428
13.12000 4.839
13.14000 6.792
13.16000 3.196
13.18000 2.227
13.20000 4.416
13.22000 9.916
13.24000 15.269
13.26000 9.870
13.28000 11.179
13.30000 12.331
13.32000 2.149
13.34000 2.700
13.36000 0.996
13.38000 6.935
13.40000 16.653
13.42000 4.263
13.44000 1.138
13.46000 2.797
13.48000 7.116
13.50000 6.513
13.52000 11.564
13.54000 15.392
13.56000 -1.499
13.58000 -0.289
13.60000 5.683
13.62000 12.533
13.64000 8.990
13.66000 -0.712
13.68000 7.882
13.70000 7.910
13.72000 8.529
13.74000 10.074
13.76000 10.792
13.78000 7.760
13.80000 5.812
13.82000 0.971
13.84000 12.106
13.86000 11.288
13.88000 3.851
13.90000 7.290
13.92000 2.530
13.94000 3.743
13.96000 13.201
13.98000 5.973
14.00000 -2.090
14.02000 -0.718
14.04000 6.467
14.06000 4.358
14.08000 2.304
14.10000 3.489
14.12000 1.523
14.14000 5.350
14.16000 8.217
14.18000 7.384
14.20000 5.496
14.22000 8.822
14.24000 6.231
14.26000 2.598
14.28000 5.731
14.30000 11.269
14.32000 11.078
14.34000 10.993
14.36000 8.574
14.38000 14.359
14.40000 6.582
14.42000 4.165
14.44000 11.170
14.46000 11.645
14.48000 14.842
14.50000 12.611
14.52000 15.359
14.54000 11.975
14.56000 8.195
14.58000 4.874
14.60000 10.573
14.62000 8.243
14.64000 1.323
14.66000 -4.510
14.68000 -1.597
14.70000 0.326
14.72000 0.137
14.74000 6.291
14.76000 6.692
14.78000 12.747
14.80000 15.869
14.82000 19.147
14.84000 9.351
14.86000 1.080
14.88000 -3.551
14.90000 2.856
14.92000 9.424
14.94000 12.200
14.96000 1.690
14.98000 -2.154
15.00000 -0.463
15.02000 1.593
15.04000 -3.464
15.06000 -2.546
15.08000 8.979
15.10000 11.016
15.12000 7.502
15.14000 8.697
15.16000 7.105
15.18000 -1.659
15.20000 -4.490
15.22000 5.340
15.24000 3.616
15.26000 0.131
15.28000 2.683
15.30000 11.304
15.32000 -0.161
15.34000 -0.576
15.36000 5.717
15.38000 4.194
15.40000 6.725
15.42000 9.170
15.44000 2.098
15.46000 -2.764
15.48000 -4.389
15.50000 -1.673
15.52000 1.927
15.54000 5.412
15.56000 12.034
15.58000 14.637
15.60000 5.329
15.62000 -1.151
15.64000 0.381
15.66000 5.378
15.68000 -0.392
15.70000 8.887
15.72000 9.117
15.74000 3.038
15.76000 8.133
15.78000 11.082
15.80000 3.176
15.82000 8.127
15.84000 11.399
15.86000 5.877
15.88000 5.578
15.90000 5.205
15.92000 6.755
15.94000 16.200
15.96000 11.555
15.98000 9.541
16.00000 8.551
16.02000 3.341
16.04000 2.646
16.06000 -1.836
16.08000 0.904
16.10000 -2.590
16.12000 -4.440
16.14000 9.022
16.16000 20.484
16.18000 13.387
16.20000 7.371
16.22000 5.239
16.24000 7.760
16.26000 14.634
16.28000 10.661
16.30000 3.255
16.32000 10.362
16.34000 14.657
16.36000 5.382
16.38000 -1.071
16.40000 5.330
16.42000 7.313
16.44000 9.545
16.46000 8.992
16.48000 6.986
16.50000 7.985
16.52000 3.663
16.54000 7.517
16.56000 3.494
16.58000 7.196
16.60000 6.832
16.62000 6.789
16.64000 3.215
16.66000 -1.266
16.68000 0.607
16.70000 0.171
16.72000 0.686
16.74000 7.718
16.76000 4.731
16.78000 8.364
16.80000 4.278
16.82000 4.547
16.84000 12.376
16.86000 11.777
16.88000 2.458
16.90000 7.505
16.92000 6.982
16.94000 0.188
16.96000 7.028
16.98000 10.120
17.00000 9.053
17.02000 4.216
17.04000 11.273
17.06000 7.987
17.08000 2.174
17.10000 3.083
17.12000 8.032
17.14000 10.939
17.16000 6.003
17.18000 3.272
17.20000 0.644
17.22000 1.822
17.24000 1.204
17.26000 5.949
17.28000 3.479
17.30000 3.391
17.32000 3.925
17.34000 7.074
17.36000 7.633
17.38000 8.826
17.40000 10.641
17.42000 14.789
17.44000 13.091
17.46000 10.981
17.48000 13.932
17.50000 15.080
17.52000 7.731
17.54000 -0.728
17.56000 6.112
17.58000 2.757
17.60000 2.652
17.62000 -1.765
17.64000 3.970
17.66000 2.112
17.68000 5.361
17.70000 0.089
17.72000 4.860
17.74000 9.842
17.76000 11.511
17.78000 4.841
17.80000 5.952
17.82000 6.394
17.84000 -3.004
17.86000 -4.371
17.88000 8.774
17.90000 12.165
17.92000 3.379
17.94000 6.245
17.96000 8.481
17.98000 9.300
18.00000 3.305
18.02000 10.284
18.04000 12.754
18.06000 6.919
18.08000 9.940
18.10000 15.713
18.12000 11.685
18.14000 3.408
18.16000 1.535
18.18000 7.279
18.20000 -0.454
18.22000 3.800
18.24000 10.255
18.26000 7.912
18.28000 5.143
18.30000 6.535
18.32000 6.087
18.34000 4.004
18.36000 -0.646
18.38000 -1.644
18.40000 3.637
18.42000 10.896
18.44000 8.452
18.46000 3.328
18.48000 1.721
18.50000 1.613
18.52000 -0.934
18.54000 7.366
18.56000 11.626
18.58000 4.580
18.60000 2.956
18.62000 -3.872
18.64000 -4.309
18.66000 6.245
18.68000 3.775
18.70000 -2.104
18.72000 -4.215
18.74000 0.006
18.76000 5.363
18.78000 6.790
18.80000 9.775
18.82000 6.392
18.84000 9.047
18.86000 8.533
18.88000 9.177
18.90000 12.266
18.92000 9.259
18.94000 10.197
18.96000 6.138
18.98000 5.015
19.00000 6.448
19.02000 8.254
19.04000 3.372
19.06000 4.693
19.08000 9.870
19.10000 9.047
19.12000 11.159
19.14000 3.438
19.16000 1.404
19.18000 7.083
19.20000 9.367
19.22000 9.791
19.24000 10.322
19.26000 5.144
19.28000 2.941
19.30000 -4.274
19.32000 4.100
19.34000 7.232
19.36000 3.362
19.38000 3.652
19.40000 0.823
19.42000 -4.269
19.44000 -0.247
19.46000 3.013
19.48000 2.027
19.50000 2.912
19.52000 4.929
19.54000 -0.002
19.56000 4.063
19.58000 8.555
19.60000 4.148
19.62000 4.419
19.64000 7.767
19.66000 9.121
19.68000 5.057
19.70000 7.460
19.72000 4.816
19.74000 1.702
19.76000 2.003
19.78000 -0.399
19.80000 3.612
19.82000 9.039
19.84000 5.121
19.86000 5.622
19.88000 1.272
19.90000 0.241
19.92000 12.691
19.94000 9.473
19.96000 7.921
19.98000 8.501
20.00000 4.613
20.02000 6.262
20.04000 8.001
20.06000 10.039
20.08000 8.338
20.10000 7.478
20.12000 8.682
20.14000 0.490
20.16000 -4.095
20.18000 6.361
20.20000 8.198
20.22000 4.223
20.24000 5.633
20.26000 3.097
20.28000 2.437
20.30000 1.939
20.32000 0.075
20.34000 6.403
20.36000 7.817
20.38000 2.669
20.40000 -4.229
20.42000 3.443
20.44000 5.806
20.46000 1.545
20.48000 2.397
20.50000 -0.029
20.52000 7.095
20.54000 7.552
20.56000 7.982
20.58000 9.199
20.60000 0.829
20.62000 -1.679
20.64000 3.611
20.66000 1.224
20.68000 -1.448
20.70000 -0.257
20.72000 2.126
20.74000 4.100
20.76000 2.497
20.78000 3.580
20.80000 1.993
20.82000 -3.091
20.84000 -2.860
20.86000 -0.581
20.88000 3.715
20.90000 2.869
20.92000 3.073
20.94000 2.029
20.96000 2.321
20.98000 3.002
21.00000 -2.458
21.02000 -1.072
21.04000 2.447
21.06000 -0.372
21.08000 -0.157
21.10000 2.327
21.12000 4.715
21.14000 -1.626
21.16000 2.202
21.18000 -0.955
21.20000 1.108
21.22000 2.355
21.24000 1.897
21.26000 -0.365
21.28000 4.482
21.30000 5.643
21.32000 -0.031
21.34000 -4.183
21.36000 5.381
21.38000 2.069
21.40000 4.197
21.42000 2.527
21.44000 6.298
21.46000 3.884
21.48000 -0.923
21.50000 -0.702
21.52000 4.362
21.54000 8.727
21.56000 9.623
21.58000 5.409
21.60000 -0.979
21.62000 3.270
21.64000 8.238
21.66000 1.062
21.68000 -3.394
21.70000 2.261
21.72000 2.476
21.74000 -1.700
21.76000 1.467
21.78000 -0.026
21.80000 4.742
21.82000 4.450
21.84000 -3.057
21.86000 1.377
21.88000 3.468
21.90000 4.498
21.92000 5.040
21.94000 2.623
21.96000 2.805
21.98000 9.610
22.00000 10.849
22.02000 10.490
22.04000 5.678
22.06000 -1.927
22.08000 -0.309
22.10000 1.117
22.12000 1.308
22.14000 -2.710
22.16000 0.526
22.18000 0.434
22.20000 1.000
22.22000 0.930
22.24000 0.247
22.26000 -0.454
22.28000 -4.132
22.30000 -2.842
22.32000 3.085
22.34000 9.487
22.36000 10.210
22.38000 6.329
22.40000 3.591
22.42000 5.343
22.44000 5.630
22.46000 6.959
22.48000 8.525
22.50000 9.942
22.52000 5.923
22.54000 3.871
22.56000 1.563
22.58000 8.005
22.60000 10.103
22.62000 9.747
22.64000 1.801
22.66000 1.603
22.68000 1.052
22.70000 2.810
22.72000 3.114
22.74000 0.773
22.76000 5.947
22.78000 8.039
22.80000 4.426
22.82000 2.560
22.84000 0.334
22.86000 3.274
22.88000 5.085
22.90000 9.504
22.92000 6.802
22.94000 4.510
22.96000 0.372
22.98000 1.343
23.00000 4.375
23.02000 -4.080
23.04000 -1.874
23.06000 4.705
23.08000 2.675
23.10000 -1.966
23.12000 -1.846
23.14000 -2.923
23.16000 -4.070
23.18000 3.149
23.20000 4.511
23.22000 6.797
23.24000 8.502
23.26000 6.530
23.28000 3.000
23.30000 5.087
23.32000 7.531
23.34000 4.724
23.36000 3.596
23.38000 4.080
23.40000 3.813
23.42000 3.291
23.44000 3.474
23.46000 7.151
23.48000 12.041
23.50000 14.051
23.52000 10.906
23.54000 5.103
23.56000 4.272
23.58000 2.649
23.60000 5.288
23.62000 4.880
23.64000 6.571
23.66000 5.823
23.68000 1.187
23.70000 -4.040
23.72000 5.834
23.74000 15.621
23.76000 9.774
23.78000 1.059
23.80000 0.014
23.82000 -0.269
23.84000 0.100
23.86000 0.275
23.88000 4.498
23.90000 1.675
23.92000 0.984
23.94000 1.163
23.96000 4.057
23.98000 4.558
24.00000 0.130
24.02000 -2.588
24.04000 7.523
24.06000 3.890
24.08000 -4.006
24.10000 1.908
24.12000 3.614
24.14000 2.539
24.16000 0.811
24.18000 -1.820
24.20000 4.355
24.22000 7.580
24.24000 5.448
24.26000 3.636
24.28000 6.696
24.30000 4.137
24.32000 -3.633
24.34000 0.085
24.36000 0.978
24.38000 0.795
24.40000 1.321
24.42000 -4.005
24.44000 0.553
24.46000 3.831
24.48000 7.234
24.50000 19.428
24.52000 11.688
24.54000 -0.030
24.56000 -3.046
24.58000 4.103
24.60000 7.167
24.62000 -0.009
24.64000 -0.152
24.66000 3.918
24.68000 8.325
24.70000 8.202
24.72000 12.955
24.74000 11.319
24.76000 10.876
24.78000 11.937
24.80000 12.146
24.82000 11.303
24.84000 5.517
24.86000 1.962
24.88000 4.387
24.90000 5.466
24.92000 0.770
24.94000 4.505
24.96000 6.798
24.98000 5.293
25.00000 4.431
25.02000 3.095
25.04000 4.238
25.06000 7.429
25.08000 3.933
25.10000 -0.811
25.12000 3.101
25.14000 9.012
25.16000 8.361
25.18000 0.500
25.20000 -0.962
25.22000 3.470
25.24000 10.464
25.26000 5.144
25.28000 2.611
25.30000 1.364
25.32000 5.961
25.34000 1.689
25.36000 2.562
25.38000 5.696
25.40000 2.858
25.42000 -2.191
25.44000 0.957
25.46000 6.043
25.48000 5.780
25.50000 6.059
25.52000 2.667
25.54000 -3.908
25.56000 1.047
25.58000 4.502
25.60000 -1.535
25.62000 -0.650
25.64000 2.066
25.66000 5.124
25.68000 1.288
25.70000 -0.966
25.72000 2.404
25.74000 3.643
25.76000 7.002
25.78000 13.148
25.80000 12.717
25.82000 7.617
25.84000 -1.497
25.86000 0.265
25.88000 -0.040
25.90000 -1.656
25.92000 4.248
25.94000 9.314
25.96000 4.911
25.98000 3.694
26.00000 4.196
26.02000 7.294
26.04000 6.542
26.06000 6.308
26.08000 5.570
26.10000 9.968
26.12000 13.843
26.14000 7.824
26.16000 3.812
26.18000 7.924
26.20000 16.441
26.22000 6.779
26.24000 0.796
26.26000 3.950
26.28000 8.199
26.30000 5.312
26.32000 1.186
26.34000 2.737
26.36000 0.102
26.38000 4.432
26.40000 7.918
26.42000 5.882
26.44000 3.439
26.46000 1.354
26.48000 3.360
26.50000 6.990
26.52000 6.056
26.54000 3.491
26.56000 6.553
26.58000 4.984
26.60000 4.321
26.62000 2.342
26.64000 1.667
26.66000 5.359
26.68000 3.560
26.70000 3.630
26.72000 8.167
26.74000 6.283
26.76000 6.669
26.78000 13.121
26.80000 9.550
26.82000 11.771
26.84000 9.885
26.86000 3.685
26.88000 3.991
26.90000 9.678
26.92000 7.111
26.94000 8.234
26.96000 10.324
26.98000 5.671
27.00000 -2.514
27.02000 0.081
27.04000 4.996
27.06000 0.291
27.08000 2.189
27.10000 10.308
27.12000 7.408
27.14000 5.720
27.16000 9.612
27.18000 8.047
27.20000 7.252
27.22000 6.120
27.24000 5.123
27.26000 8.961
27.28000 6.430
27.30000 7.731
27.32000 4.956
27.34000 6.353
27.36000 12.494
27.38000 8.106
27.40000 7.763
27.42000 5.199
27.44000 6.412
27.46000 9.662
27.48000 11.290
27.50000 7.630
27.52000 8.902
27.54000 7.477
27.56000 1.514
27.58000 -3.785
27.60000 -0.059
27.62000 4.348
27.64000 6.134
27.66000 6.882
27.68000 5.784
27.70000 9.763
27.72000 11.953
27.74000 10.427
27.76000 3.668
27.78000 8.844
27.80000 15.400
27.82000 13.675
27.84000 5.352
27.86000 8.730
27.88000 4.015
27.90000 7.687
27.92000 6.348
27.94000 8.705
27.96000 11.649
27.98000 14.571
28.00000 11.946
28.02000 6.117
28.04000 10.173
28.06000 7.889
28.08000 4.504
28.10000 6.542
28.12000 7.313
28.14000 8.409
28.16000 3.014
28.18000 5.896
28.20000 3.779
28.22000 3.657
28.24000 6.309
28.26000 5.824
28.28000 7.041
28.30000 5.886
28.32000 2.257
28.34000 5.704
28.36000 10.741
28.38000 8.965
28.40000 6.642
28.42000 6.640
28.44000 2.838
28.46000 4.554
28.48000 3.949
28.50000 1.341
28.52000 0.559
28.54000 2.895
28.56000 -0.720
28.58000 -0.424
28.60000 4.128
28.62000 5.658
28.64000 3.235
28.66000 2.105
28.68000 11.994
28.70000 7.955
28.72000 2.965
28.74000 2.842
28.76000 2.501
28.78000 2.203
28.80000 5.895
28.82000 3.524
28.84000 3.150
28.86000 6.512
28.88000 4.795
28.90000 2.180
28.92000 2.319
28.94000 6.696
28.96000 5.965
28.98000 -1.592
29.00000 3.203
29.02000 6.886
29.04000 6.596
29.06000 7.143
29.08000 3.927
29.10000 2.549
29.12000 5.304
29.14000 5.391
29.16000 3.682
29.18000 2.255
29.20000 6.881
29.22000 10.679
29.24000 8.220
29.26000 1.085
29.28000 8.076
29.30000 8.215
29.32000 6.286
29.34000 4.435
29.36000 0.816
29.38000 1.413
29.40000 6.310
29.42000 2.857
29.44000 0.473
29.46000 -3.716
29.48000 0.820
29.50000 3.766
29.52000 5.602
29.54000 6.446
29.56000 5.688
29.58000 6.824
29.60000 5.339
29.62000 -1.543
29.64000 5.355
29.66000 2.982
29.68000 4.455
29.70000 3.206
29.72000 5.659
29.74000 1.926
29.76000 3.871
29.78000 4.749
29.80000 3.018
29.82000 -3.688
29.84000 0.464
29.86000 -1.339
29.88000 3.031
29.90000 4.286
29.92000 6.820
29.94000 8.181
29.96000 3.395
29.98000 2.321
30.00000 6.268
30.02000 1.274
30.04000 1.319
30.06000 5.596
30.08000 7.338
30.10000 9.542
30.12000 7.358
30.14000 1.740
30.16000 4.118
30.18000 2.774
30.20000 -0.649
30.22000 -2.026
30.24000 1.210
30.26000 4.830
30.28000 5.900
30.30000 3.029
30.32000 1.986
30.34000 2.781
30.36000 0.856
30.38000 2.044
30.40000 3.147
30.42000 5.532
30.44000 4.472
30.46000 -0.095
30.48000 0.876
30.50000 -0.068
30.52000 1.697
30.54000 5.844
30.56000 4.901
30.58000 2.780
30.60000 2.259
30.62000 0.067
30.64000 2.999
30.66000 3.919
30.68000 -2.138
30.70000 1.052
30.72000 8.976
30.74000 5.400
30.76000 4.097
30.78000 -0.647
30.80000 3.416
30.82000 0.125
30.84000 0.412
30.86000 3.595
30.88000 3.681
30.90000 2.986
30.92000 5.240
30.94000 4.388
30.96000 2.190
30.98000 6.859
31.00000 5.624
31.02000 2.389
31.04000 3.196
31.06000 4.692
31.08000 2.621
31.10000 2.649
31.12000 6.918
31.14000 9.215
31.16000 1.338
31.18000 2.931
31.20000 3.980
31.22000 1.708
31.24000 3.119
31.26000 -3.641
31.28000 4.381
31.30000 5.081
31.32000 4.512
31.34000 2.218
31.36000 6.371
31.38000 2.688
31.40000 -0.443
31.42000 2.118
31.44000 4.082
31.46000 4.736
31.48000 1.532
31.50000 2.576
31.52000 4.782
31.54000 7.580
31.56000 4.642
31.58000 6.398
31.60000 1.994
31.62000 2.439
31.64000 4.975
31.66000 7.342
31.68000 3.044
31.70000 2.796
31.72000 2.534
31.74000 -1.892
31.76000 -2.062
31.78000 1.066
31.80000 -0.410
31.82000 8.330
31.84000 5.234
31.86000 -1.778
31.88000 0.540
31.90000 0.101
31.92000 -0.604
31.94000 -1.366
31.96000 4.285
31.98000 0.272
32.00000 -3.280
32.02000 -2.028
32.04000 -2.155
32.06000 5.719
32.08000 2.359
32.10000 -2.225
32.12000 1.593
32.14000 1.565
32.16000 -1.225
32.18000 1.309
32.20000 -2.066
32.22000 -3.628
32.24000 -0.462
32.26000 2.612
32.28000 -0.826
32.30000 0.073
32.32000 0.442
32.34000 2.651
32.36000 3.905
32.38000 2.694
32.40000 0.085
32.42000 0.627
32.44000 -2.013
32.46000 -2.521
32.48000 0.696
32.50000 0.685
32.52000 0.571
32.54000 -2.108
32.56000 -1.275
32.58000 1.548
32.60000 7.635
32.62000 3.006
32.64000 -0.682
32.66000 2.748
32.68000 0.727
32.70000 -0.265
32.72000 2.754
32.74000 4.191
32.76000 2.141
32.78000 1.657
32.80000 3.979
32.82000 0.628
32.84000 -1.675
32.86000 -2.317
32.88000 0.510
32.90000 2.619
32.92000 -1.382
32.94000 1.182
32.96000 0.338
32.98000 1.434
33.00000 -0.370
33.02000 -3.625
33.04000 -2.112
33.06000 -2.294
33.08000 -2.487
33.10000 -1.166
33.12000 2.568
33.14000 3.917
33.16000 0.363
33.18000 2.089
33.20000 5.961
33.22000 5.667
33.24000 4.629
33.26000 0.876
33.28000 0.519
33.30000 -1.465
33.32000 -0.828
33.34000 -3.028
33.36000 -3.622
33.38000 -3.489
33.40000 1.179
33.42000 -3.208
33.44000 -2.029
33.46000 0.646
33.48000 -1.937
33.50000 0.868
33.52000 3.918
33.54000 3.611
33.56000 3.169
33.58000 -0.730
33.60000 0.186
33.62000 1.459
33.64000 2.643
33.66000 3.990
33.68000 -1.644
33.70000 -0.465
33.72000 3.403
33.74000 4.444
33.76000 4.379
33.78000 4.332
33.80000 1.758
33.82000 -1.403
33.84000 -1.134
33.86000 5.613
33.88000 8.759
33.90000 3.344
33.92000 4.444
33.94000 -0.560
33.96000 -3.210
33.98000 -1.445
34.00000 2.907
34.02000 2.414
34.04000 0.113
34.06000 2.065
34.08000 4.749
34.10000 2.277
34.12000 3.353
34.14000 3.671
34.16000 1.009
34.18000 1.311
34.20000 4.265
34.22000 2.986
34.24000 4.019
34.26000 3.791
34.28000 5.146
34.30000 4.505
34.32000 1.642
34.34000 2.770
34.36000 4.247
34.38000 -0.242
34.40000 -0.437
34.42000 -3.435
34.44000 2.792
34.46000 2.120
34.48000 -3.569
34.50000 0.644
34.52000 0.836
34.54000 4.415
34.56000 7.170
34.58000 3.096
34.60000 -0.169
34.62000 1.496
34.64000 2.262
34.66000 5.042
34.68000 4.928
34.70000 0.602
34.72000 1.315
34.74000 -0.199
34.76000 2.579
34.78000 2.968
34.80000 0.042
34.82000 5.268
34.84000 2.313
34.86000 4.539
34.88000 3.605
34.90000 4.162
34.92000 5.648
34.94000 1.639
34.96000 -0.404
34.98000 -0.094
35.00000 -2.812
35.02000 0.131
35.04000 1.584
35.06000 2.526
35.08000 2.999
35.10000 1.654
35.12000 -1.210
35.14000 -3.533
35.16000 -2.120
35.18000 2.459
35.20000 8.106
35.22000 7.573
35.24000 6.210
35.26000 1.271
35.28000 4.734
35.30000 4.461
35.32000 8.424
35.34000 7.882
35.36000 10.060
35.38000 5.455
35.40000 1.698
35.42000 1.975
35.44000 4.890
35.46000 2.601
35.48000 3.379
35.50000 3.411
35.52000 4.286
35.54000 5.797
35.56000 9.017
35.58000 10.249
35.60000 6.135
35.62000 4.472
35.64000 7.940
35.66000 4.782
35.68000 1.170
35.70000 2.335
35.72000 4.021
35.74000 1.877
35.76000 2.097
35.78000 3.942
35.80000 8.619
35.82000 6.088
35.84000 -2.087
35.86000 -3.551
35.88000 3.299
35.90000 4.807
35.92000 1.270
35.94000 1.501
35.96000 -2.572
35.98000 0.182
36.00000 5.302
36.02000 5.338
36.04000 0.734
36.06000 1.972
36.08000 -0.288
36.10000 -1.865
36.12000 -3.572
36.14000 1.164
36.16000 0.941
36.18000 -1.017
36.20000 0.022
36.22000 -1.052
36.24000 1.477
36.26000 1.536
36.28000 0.945
36.30000 4.121
36.32000 1.032
36.34000 -1.850
36.36000 -2.283
36.38000 -0.679
36.40000 1.357
36.42000 -1.971
36.44000 -0.906
36.46000 0.059
36.48000 0.367
36.50000 1.486
36.52000 1.521
36.54000 2.347
36.56000 -0.219
36.58000 2.171
36.60000 5.747
36.62000 1.100
36.64000 0.037
36.66000 1.016
36.68000 1.534
36.70000 1.771
36.72000 -1.699
36.74000 -3.561
36.76000 -1.336
36.78000 -1.594
36.80000 1.978
36.82000 4.574
36.84000 7.109
36.86000 2.594
36.88000 -0.354
36.90000 1.309
36.92000 2.207
36.94000 -0.337
36.96000 -0.688
36.98000 -0.759
37.00000 -3.624
37.02000 3.133
37.04000 1.519
37.06000 5.023
37.08000 0.705
37.10000 3.861
37.12000 1.153
37.14000 2.923
37.16000 -0.675
37.18000 -0.752
37.20000 0.327
37.22000 4.672
37.24000 3.098
37.26000 -0.012
37.28000 2.382
37.30000 5.454
37.32000 2.507
37.34000 4.429
37.36000 2.783
37.38000 5.672
37.40000 4.432
37.42000 6.863
37.44000 9.459
37.46000 9.349
37.48000 6.843
37.50000 7.347
37.52000 4.864
37.54000 2.404
37.56000 5.850
37.58000 7.483
37.60000 8.015
37.62000 7.742
37.64000 6.402
37.66000 2.452
37.68000 3.275
37.70000 4.851
37.72000 9.530
37.74000 8.785
37.76000 14.251
37.78000 11.047
37.80000 10.086
37.82000 11.449
37.84000 13.627
37.86000 12.238
37.88000 13.804
37.90000 15.865
37.92000 18.010
37.94000 13.164
37.96000 10.697
37.98000 14.825
38.00000 15.373
38.02000 16.908
38.04000 21.809
38.06000 23.662
38.08000 19.974
38.10000 19.484
38.12000 20.816
38.14000 21.640
38.16000 22.064
38.18000 26.331
38.20000 23.235
38.22000 21.438
38.24000 20.243
38.26000 25.656
38.28000 28.236
38.30000 29.569
38.32000 31.599
38.34000 29.235
38.36000 36.016
38.38000 34.683
38.40000 28.881
38.42000 29.953
38.44000 29.745
38.46000 34.638
38.48000 33.797
38.50000 36.217
38.52000 42.364
38.54000 48.692
38.56000 46.487
38.58000 47.436
38.60000 47.075
38.62000 51.608
38.64000 52.446
38.66000 51.766
38.68000 55.827
38.70000 56.168
38.72000 58.775
38.74000 60.053
38.76000 57.741
38.78000 65.896
38.80000 67.623
38.82000 71.570
38.84000 77.302
38.86000 77.454
38.88000 82.468
38.90000 88.165
38.92000 94.206
38.94000 98.900
38.96000 97.619
38.98000 100.217
39.00000 111.642
39.02000 110.747
39.04000 114.525
39.06000 114.237
39.08000 120.425
39.10000 128.598
39.12000 140.131
39.14000 141.586
39.16000 146.406
39.18000 156.425
39.20000 158.272
39.22000 164.420
39.24000 179.848
39.26000 188.646
39.28000 196.051
39.30000 204.988
39.32000 212.496
39.34000 222.653
39.36000 227.422
39.38000 243.739
39.40000 266.521
39.42000 278.578
39.44000 289.193
39.46000 301.473
39.48000 318.809
39.50000 331.367
39.52000 352.776
39.54000 372.816
39.56000 388.598
39.58000 404.546
39.60000 423.560
39.62000 443.158
39.64000 460.770
39.66000 485.958
39.68000 512.567
39.70000 531.827
39.72000 546.038
39.74000 563.432
39.76000 572.658
39.78000 600.199
39.80000 619.579
39.82000 636.401
39.84000 656.992
39.86000 674.240
39.88000 691.027
39.90000 707.186
39.92000 712.523
39.94000 719.186
39.96000 731.079
39.98000 727.909
40.00000 723.666
40.02000 714.745
40.04000 706.569
40.06000 708.807
40.08000 704.261
40.10000 696.307
40.12000 681.447
40.14000 671.972
40.16000 661.134
40.18000 638.639
40.20000 617.183
40.22000 601.814
40.24000 591.981
40.26000 579.578
40.28000 552.328
40.30000 533.012
40.32000 513.515
40.34000 495.606
40.36000 472.714
40.38000 450.672
40.40000 426.494
40.42000 405.171
40.44000 378.609
40.46000 358.365
40.48000 346.528
40.50000 331.645
40.52000 304.119
40.54000 291.224
40.56000 279.093
40.58000 262.798
40.60000 253.392
40.62000 240.966
40.64000 231.829
40.66000 216.395
40.68000 200.870
40.70000 193.356
40.72000 174.459
40.74000 165.661
40.76000 151.342
40.78000 147.070
40.80000 146.318
40.82000 136.163
40.84000 126.528
40.86000 124.881
40.88000 108.549
40.90000 99.773
40.92000 100.385
40.94000 95.653
40.96000 88.427
40.98000 80.306
41.00000 78.739
41.02000 70.369
41.04000 65.639
41.06000 58.457
41.08000 60.795
41.10000 61.848
41.12000 60.561
41.14000 56.723
41.16000 51.933
41.18000 45.469
41.20000 45.091
41.22000 43.264
41.24000 43.991
41.26000 42.003
41.28000 38.510
41.30000 35.129
41.32000 32.892
41.34000 31.585
41.36000 28.940
41.38000 27.507
41.40000 22.729
41.42000 22.186
41.44000 23.376
41.46000 22.146
41.48000 15.799
41.50000 17.630
41.52000 18.442
41.54000 16.377
41.56000 14.710
41.58000 14.586
41.60000 10.115
41.62000 14.219
41.64000 13.999
41.66000 15.509
41.68000 19.517
41.70000 21.499
41.72000 14.787
41.74000 7.930
41.76000 9.964
41.78000 9.136
41.80000 3.792
41.82000 7.811
41.84000 7.754
41.86000 12.881
41.88000 13.601
41.90000 9.103
41.92000 3.694
41.94000 5.426
41.96000 10.150
41.98000 8.833
42.00000 8.377
42.02000 10.535
42.04000 7.340
42.06000 8.668
42.08000 7.539
42.10000 7.666
42.12000 4.743
42.14000 6.211
42.16000 5.061
42.18000 -1.292
42.20000 0.039
42.22000 5.070
42.24000 2.994
42.26000 2.038
42.28000 -0.624
42.30000 0.584
42.32000 3.331
42.34000 8.665
42.36000 4.553
42.38000 2.194
42.40000 1.220
42.42000 -0.466
42.44000 4.332
42.46000 3.370
42.48000 0.994
42.50000 2.180
42.52000 -0.270
42.54000 1.472
42.56000 0.092
42.58000 0.488
42.60000 1.764
42.62000 3.589
42.64000 3.833
42.66000 4.738
42.68000 3.543
42.70000 1.072
42.72000 4.032
42.74000 3.957
42.76000 8.741
42.78000 5.037
42.80000 -0.340
42.82000 5.807
42.84000 4.473
42.86000 3.247
42.88000 7.661
42.90000 3.308
42.92000 3.358
42.94000 5.303
42.96000 4.302
42.98000 -0.490
43.00000 -3.385
43.02000 2.254
43.04000 2.065
43.06000 3.232
43.08000 4.884
43.10000 1.652
43.12000 1.968
43.14000 6.760
43.16000 7.178
43.18000 2.726
43.20000 3.245
43.22000 2.635
43.24000 1.217
43.26000 1.092
43.28000 1.182
43.30000 0.084
43.32000 3.808
43.34000 2.046
43.36000 -0.638
43.38000 0.867
43.40000 3.829
43.42000 4.066
43.44000 4.833
43.46000 5.733
43.48000 5.062
43.50000 2.662
43.52000 1.352
43.54000 -0.659
43.56000 2.129
43.58000 0.893
43.60000 3.756
43.62000 2.725
43.64000 2.196
43.66000 1.788
43.68000 1.528
43.70000 1.382
43.72000 1.463
43.74000 2.678
43.76000 -1.045
43.78000 2.339
43.80000 4.294
43.82000 3.689
43.84000 -0.316
43.86000 -2.258
43.88000 -1.326
43.90000 -3.341
43.92000 -1.144
43.94000 2.911
43.96000 0.150
43.98000 0.287
44.00000 2.401
44.02000 2.332
44.04000 1.802
44.06000 0.967
44.08000 -1.743
44.10000 1.350
44.12000 4.668
44.14000 1.458
44.16000 1.690
44.18000 4.132
44.20000 2.316
44.22000 3.586
44.24000 0.593
44.26000 2.708
44.28000 5.446
44.30000 -0.699
44.32000 -3.342
44.34000 4.210
44.36000 6.928
44.38000 3.294
44.40000 2.710
44.42000 7.016
44.44000 8.630
44.46000 5.875
44.48000 5.204
44.50000 2.716
44.52000 1.642
44.54000 4.835
44.56000 4.058
44.58000 3.744
44.60000 6.579
44.62000 3.943
44.64000 2.281
44.66000 0.902
44.68000 6.012
44.70000 8.242
44.72000 2.310
44.74000 0.739
44.76000 0.893
44.78000 0.817
44.80000 7.322
44.82000 6.760
44.84000 5.551
44.86000 2.908
44.88000 6.215
44.90000 11.980
44.92000 8.648
44.94000 4.641
44.96000 8.228
44.98000 11.142
45.00000 8.994
45.02000 6.633
45.04000 11.062
45.06000 9.576
45.08000 8.392
45.10000 11.486
45.12000 16.302
45.14000 13.958
45.16000 15.339
45.18000 16.413
45.20000 12.945
45.22000 10.069
45.24000 10.098
45.26000 19.488
45.28000 18.171
45.30000 17.168
45.32000 19.334
45.34000 18.074
45.36000 18.666
45.38000 18.742
45.40000 19.017
45.42000 21.897
45.44000 25.579
45.46000 23.352
45.48000 22.767
45.50000 25.994
45.52000 29.112
45.54000 29.563
45.56000 30.710
45.58000 33.703
45.60000 28.345
45.62000 30.741
45.64000 33.099
45.66000 33.428
45.68000 30.200
45.70000 34.496
45.72000 37.634
45.74000 39.520
45.76000 38.335
45.78000 43.762
45.80000 40.142
45.82000 40.113
45.84000 40.752
45.86000 48.719
45.88000 51.051
45.90000 50.395
45.92000 51.873
45.94000 53.257
45.96000 56.782
45.98000 61.797
46.00000 57.104
46.02000 58.633
46.04000 61.744
46.06000 63.315
46.08000 65.402
46.10000 70.950
46.12000 71.377
46.14000 70.879
46.16000 72.397
46.18000 80.027
46.20000 80.615
46.22000 82.727
46.24000 78.102
46.26000 89.808
46.28000 91.593
46.30000 88.835
46.32000 88.473
46.34000 87.744
46.36000 92.467
46.38000 102.064
46.40000 103.206
46.42000 102.811
46.44000 102.336
46.46000 99.262
46.48000 104.579
46.50000 105.601
46.52000 102.561
46.54000 108.895
46.56000 111.440
46.58000 111.759
46.60000 110.576
46.62000 110.538
46.64000 111.217
46.66000 115.895
46.68000 112.199
46.70000 110.416
46.72000 118.527
46.74000 117.930
46.76000 111.146
46.78000 118.548
46.80000 120.066
46.82000 120.105
46.84000 117.326
46.86000 106.548
46.88000 101.168
46.90000 100.173
46.92000 106.307
46.94000 105.480
46.96000 109.294
46.98000 100.789
47.00000 91.227
47.02000 92.093
47.04000 95.612
47.06000 95.695
47.08000 91.560
47.10000 86.178
47.12000 81.036
47.14000 80.195
47.16000 78.061
47.18000 71.430
47.20000 68.747
47.22000 63.050
47.24000 65.067
47.26000 64.632
47.28000 61.168
47.30000 54.005
47.32000 50.061
47.34000 52.217
47.36000 52.902
47.38000 48.234
47.40000 50.410
47.42000 45.045
47.44000 44.251
47.46000 41.842
47.48000 36.247
47.50000 34.015
47.52000 35.195
47.54000 35.597
47.56000 30.605
47.58000 28.192
47.60000 27.084
47.62000 25.653
47.64000 23.337
47.66000 28.648
47.68000 17.766
47.70000 15.184
47.72000 15.946
47.74000 22.790
47.76000 19.321
47.78000 15.575
47.80000 10.792
47.82000 9.021
47.84000 10.776
47.86000 11.260
47.88000 9.140
47.90000 11.763
47.92000 5.261
47.94000 3.191
47.96000 11.072
47.98000 8.426
48.00000 7.261
48.02000 6.268
48.04000 9.232
48.06000 7.758
48.08000 8.754
48.10000 6.265
48.12000 8.384
48.14000 7.390
48.16000 3.481
48.18000 -0.194
48.20000 1.393
48.22000 -0.644
48.24000 0.455
48.26000 -0.098
48.28000 -3.001
48.30000 0.684
48.32000 5.577
48.34000 3.668
48.36000 4.740
48.38000 3.777
48.40000 2.929
48.42000 6.326
48.44000 5.679
48.46000 2.932
48.48000 2.985
48.50000 0.464
48.52000 0.945
48.54000 1.271
48.56000 4.080
48.58000 2.797
48.60000 1.957
48.62000 2.723
48.64000 0.723
48.66000 0.153
48.68000 -1.955
48.70000 -1.538
48.72000 0.152
48.74000 2.707
48.76000 4.165
48.78000 -1.541
48.80000 0.695
48.82000 5.595
48.84000 0.459
48.86000 3.792
48.88000 7.631
48.90000 9.197
48.92000 6.224
48.94000 -1.775
48.96000 -2.663
48.98000 -1.976
49.00000 3.516
49.02000 3.345
49.04000 -0.640
49.06000 -2.869
49.08000 0.052
49.10000 1.736
49.12000 -0.822
49.14000 -0.843
49.16000 0.065
49.18000 3.693
49.20000 3.720
49.22000 0.674
49.24000 -0.864
49.26000 7.836
49.28000 3.262
49.30000 -0.988
49.32000 4.235
49.34000 8.507
49.36000 3.673
49.38000 4.517
49.40000 2.645
49.42000 1.169
49.44000 2.720
49.46000 -0.957
49.48000 2.641
49.50000 3.105
49.52000 2.484
49.54000 2.718
49.56000 4.044
49.58000 0.412
49.60000 0.722
49.62000 6.366
49.64000 3.517
49.66000 1.893
49.68000 4.537
49.70000 8.126
49.72000 6.348
49.74000 5.331
49.76000 4.086
49.78000 1.495
49.80000 -0.856
49.82000 1.760
49.84000 1.094
49.86000 5.643
49.88000 3.510
49.90000 -0.724
49.92000 -0.141
49.94000 -2.729
49.96000 0.021
49.98000 3.666
50.00000 2.408
50.02000 4.629
50.04000 4.918
50.06000 3.769
50.08000 4.584
50.10000 8.061
50.12000 2.641
50.14000 4.420
50.16000 5.860
50.18000 6.918
50.20000 8.952
50.22000 8.753
50.24000 3.485
50.26000 1.527
50.28000 0.659
50.30000 5.071
50.32000 4.286
50.34000 6.316
50.36000 5.273
50.38000 7.974
50.40000 4.808
50.42000 1.164
50.44000 6.620
50.46000 3.939
50.48000 3.089
50.50000 2.827
50.52000 5.244
50.54000 3.091
50.56000 3.861
50.58000 4.984
50.60000 8.899
50.62000 6.315
50.64000 3.920
50.66000 2.436
50.68000 -0.281
50.70000 2.179
50.72000 2.832
50.74000 1.855
50.76000 3.392
50.78000 7.724
50.80000 9.277
50.82000 1.398
50.84000 -1.171
50.86000 -2.670
50.88000 0.854
50.90000 4.838
50.92000 3.059
50.94000 4.535
50.96000 5.030
50.98000 4.765
51.00000 5.026
51.02000 8.277
51.04000 7.106
51.06000 4.661
51.08000 3.752
51.10000 6.687
51.12000 6.556
51.14000 8.975
51.16000 8.434
51.18000 5.997
51.20000 8.426
51.22000 9.039
51.24000 8.610
51.26000 8.699
51.28000 6.002
51.30000 2.354
51.32000 1.820
51.34000 2.298
51.36000 2.985
51.38000 4.327
51.40000 5.369
51.42000 3.928
51.44000 4.493
51.46000 2.566
51.48000 -1.180
51.50000 2.392
51.52000 2.020
51.54000 1.459
51.56000 1.289
51.58000 8.832
51.60000 5.210
51.62000 4.044
51.64000 5.885
51.66000 4.630
51.68000 3.032
51.70000 1.815
51.72000 -0.294
51.74000 3.936
51.76000 4.200
51.78000 5.834
51.80000 3.665
51.82000 2.489
51.84000 6.126
51.86000 0.040
51.88000 -2.666
51.90000 0.785
51.92000 2.141
51.94000 1.499
51.96000 2.353
51.98000 6.222
52.00000 6.066
52.02000 2.434
52.04000 0.939
52.06000 2.054
52.08000 1.361
52.10000 2.449
52.12000 -0.198
52.14000 0.253
52.16000 2.724
52.18000 2.744
52.20000 3.609
52.22000 2.154
52.24000 2.707
52.26000 2.018
52.28000 6.707
52.30000 3.513
52.32000 -2.651
52.34000 2.174
52.36000 -0.787
52.38000 0.233
52.40000 1.828
52.42000 2.170
52.44000 2.588
52.46000 -0.158
52.48000 2.433
52.50000 2.719
52.52000 2.591
52.54000 0.406
52.56000 2.797
52.58000 4.126
52.60000 3.206
52.62000 3.915
52.64000 1.311
52.66000 3.157
52.68000 1.670
52.70000 3.641
52.72000 3.229
52.74000 -0.177
52.76000 0.726
52.78000 0.561
52.80000 0.179
52.82000 -0.140
52.84000 0.891
52.86000 3.670
52.88000 4.453
52.90000 1.019
52.92000 -0.521
52.94000 1.954
52.96000 0.261
52.98000 -2.634
53.00000 1.147
53.02000 3.992
53.04000 2.657
53.06000 4.293
53.08000 0.669
53.10000 1.262
53.12000 4.020
53.14000 6.602
53.16000 4.158
53.18000 0.792
53.20000 -1.151
53.22000 -0.052
53.24000 2.160
53.26000 4.534
53.28000 1.828
53.30000 -0.301
53.32000 0.129
53.34000 -0.211
53.36000 2.286
53.38000 1.488
53.40000 2.113
53.42000 0.756
53.44000 -1.329
53.46000 1.467
53.48000 0.073
53.50000 -0.722
53.52000 0.457
53.54000 2.705
53.56000 1.591
53.58000 0.952
53.60000 -0.595
53.62000 -0.115
53.64000 0.544
53.66000 3.221
53.68000 1.422
53.70000 2.077
53.72000 1.317
53.74000 2.652
53.76000 0.455
53.78000 1.019
53.80000 -1.319
53.82000 0.450
53.84000 1.863
53.86000 4.349
53.88000 3.484
53.90000 -1.270
53.92000 3.059
53.94000 3.698
53.96000 3.357
53.98000 1.256
54.00000 -2.428
54.02000 -1.355
54.04000 1.823
54.06000 0.853
54.08000 2.458
54.10000 2.857
54.12000 2.570
54.14000 6.235
54.16000 7.253
54.18000 1.959
54.20000 4.320
54.22000 5.154
54.24000 7.628
54.26000 4.351
54.28000 -1.721
54.30000 -1.696
54.32000 -1.905
54.34000 -0.840
54.36000 -2.615
54.38000 2.190
54.40000 4.880
54.42000 0.889
54.44000 4.212
54.46000 0.946
54.48000 0.834
54.50000 1.281
54.52000 -2.037
54.54000 2.985
54.56000 1.470
54.58000 0.447
54.60000 3.651
54.62000 0.599
54.64000 -1.442
54.66000 0.905
54.68000 1.623
54.70000 2.005
54.72000 -1.006
54.74000 -2.588
54.76000 0.982
54.78000 0.926
54.80000 5.657
54.82000 3.227
54.84000 3.465
54.86000 2.019
54.88000 2.362
54.90000 1.681
54.92000 3.438
54.94000 3.511
54.96000 1.763
54.98000 2.424
55.00000 1.897
55.02000 1.522
55.04000 2.005
55.06000 4.207
55.08000 3.598
55.10000 -0.146
55.12000 3.456
55.14000 -0.059
55.16000 -0.871
55.18000 3.797
55.20000 0.419
55.22000 1.632
55.24000 6.299
55.26000 5.746
55.28000 4.434
55.30000 1.609
55.32000 3.056
55.34000 1.821
55.36000 5.841
55.38000 7.688
55.40000 7.566
55.42000 7.431
55.44000 5.539
55.46000 4.186
55.48000 3.246
55.50000 1.867
55.52000 3.546
55.54000 0.078
55.56000 0.291
55.58000 -1.553
55.60000 1.059
55.62000 3.661
55.64000 0.241
55.66000 2.268
55.68000 4.972
55.70000 5.200
55.72000 2.957
55.74000 -2.546
55.76000 -1.541
55.78000 0.890
55.80000 2.373
55.82000 0.675
55.84000 -1.138
55.86000 3.002
55.88000 6.009
55.90000 2.921
55.92000 4.702
55.94000 6.142
55.96000 -0.024
55.98000 1.635
56.00000 6.466
56.02000 5.594
56.04000 4.555
56.06000 4.369
56.08000 2.225
56.10000 -0.430
56.12000 0.429
56.14000 2.730
56.16000 7.485
56.18000 6.926
56.20000 10.068
56.22000 6.733
56.24000 4.893
56.26000 3.352
56.28000 4.628
56.30000 3.039
56.32000 -2.543
56.34000 3.741
56.36000 1.832
56.38000 1.402
56.40000 2.241
56.42000 5.495
56.44000 3.516
56.46000 1.208
56.48000 1.926
56.50000 5.492
56.52000 5.979
56.54000 2.853
56.56000 2.906
56.58000 4.837
56.60000 3.530
56.62000 0.993
56.64000 -0.293
56.66000 1.153
56.68000 -0.698
56.70000 4.184
56.72000 5.385
56.74000 3.299
56.76000 0.558
56.78000 2.538
56.80000 4.862
56.82000 4.208
56.84000 -0.293
56.86000 5.510
56.88000 2.853
56.90000 -1.202
56.92000 -1.771
56.94000 -2.378
56.96000 4.900
56.98000 4.897
57.00000 4.187
57.02000 0.393
57.04000 1.987
57.06000 0.502
57.08000 5.262
57.10000 6.971
57.12000 4.884
57.14000 4.047
57.16000 0.600
57.18000 2.369
57.20000 5.440
57.22000 3.493
57.24000 5.646
57.26000 4.874
57.28000 3.317
57.30000 2.962
57.32000 1.368
57.34000 2.162
57.36000 3.737
57.38000 6.747
57.40000 3.858
57.42000 1.362
57.44000 4.577
57.46000 1.741
57.48000 1.245
57.50000 0.024
57.52000 -0.076
57.54000 2.467
57.56000 2.730
57.58000 4.456
57.60000 -2.501
57.62000 1.720
57.64000 5.213
57.66000 2.886
57.68000 1.964
57.70000 5.674
57.72000 3.135
57.74000 3.818
57.76000 6.607
57.78000 1.742
57.80000 2.154
57.82000 7.968
57.84000 9.152
57.86000 6.768
57.88000 2.983
57.90000 6.764
57.92000 5.832
57.94000 6.059
57.96000 3.581
57.98000 0.824
58.00000 0.535
58.02000 3.430
58.04000 4.443
58.06000 3.652
58.08000 4.582
58.10000 1.850
58.12000 0.567
58.14000 1.618
58.16000 2.429
58.18000 2.839
58.20000 5.302
58.22000 2.669
58.24000 1.164
58.26000 5.714
58.28000 5.235
58.30000 3.656
58.32000 2.099
58.34000 0.530
58.36000 2.304
58.38000 2.467
58.40000 2.584
58.42000 4.081
58.44000 4.522
58.46000 4.130
58.48000 3.680
58.50000 3.399
58.52000 2.255
58.54000 1.524
58.56000 1.178
58.58000 1.708
58.60000 4.431
58.62000 1.168
58.64000 2.383
58.66000 5.463
58.68000 5.154
58.70000 2.497
58.72000 3.357
58.74000 -2.452
58.76000 1.948
58.78000 5.558
58.80000 3.550
58.82000 2.540
58.84000 0.731
58.86000 2.219
58.88000 3.996
58.90000 2.131
58.92000 6.029
58.94000 1.355
58.96000 2.415
58.98000 4.839
59.00000 5.806
59.02000 4.172
59.04000 1.129
59.06000 0.715
59.08000 3.322
59.10000 6.844
59.12000 1.526
59.14000 1.365
59.16000 2.029
59.18000 4.152
59.20000 -0.981
59.22000 3.501
59.24000 2.554
59.26000 -0.098
59.28000 2.586
59.30000 -0.308
59.32000 1.323
59.34000 -0.150
59.36000 1.391
59.38000 5.112
59.40000 5.649
59.42000 0.810
59.44000 -1.856
59.46000 -2.437
59.48000 -2.035
59.50000 0.721
59.52000 3.777
59.54000 5.715
59.56000 5.369
59.58000 1.713
59.60000 6.006
59.62000 3.203
59.64000 5.949
59.66000 5.454
59.68000 2.087
59.70000 4.973
59.72000 1.820
59.74000 3.758
59.76000 4.361
59.78000 6.274
59.80000 0.467
59.82000 1.995
59.84000 6.573
59.86000 7.733
59.88000 2.684
59.90000 3.059
59.92000 2.546
59.94000 0.452
59.96000 2.508
59.98000 2.326
60.00000 1.757
60.02000 2.173
60.04000 1.756
60.06000 1.905
60.08000 0.923
60.10000 -0.024
60.12000 2.432
60.14000 -0.211
60.16000 0.419
60.18000 0.020
60.20000 -0.124
60.22000 0.963
60.24000 2.257
60.26000 -0.053
60.28000 1.958
60.30000 3.868
60.32000 0.404
60.34000 -2.436
60.36000 0.841
60.38000 3.516
60.40000 3.637
60.42000 3.126
60.44000 1.595
60.46000 3.986
60.48000 1.448
60.50000 0.380
60.52000 0.881
60.54000 0.339
60.56000 3.485
60.58000 3.595
60.60000 0.598
60.62000 2.336
60.64000 1.989
60.66000 -0.804
60.68000 -0.982
60.70000 3.204
60.72000 -0.315
60.74000 -1.760
60.76000 -0.707
60.78000 2.553
60.80000 0.595
60.82000 0.491
60.84000 1.727
60.86000 2.281
60.88000 1.739
60.90000 3.490
60.92000 3.606
60.94000 1.674
60.96000 -1.311
60.98000 -2.436
61.00000 3.197
61.02000 3.322
61.04000 3.793
61.06000 0.737
61.08000 -0.303
61.10000 -0.904
61.12000 1.949
61.14000 5.993
61.16000 3.936
61.18000 1.429
61.20000 -1.112
61.22000 -2.437
61.24000 -0.341
61.26000 0.284
61.28000 3.498
61.30000 2.026
61.32000 1.378
61.34000 0.610
61.36000 1.149
61.38000 1.145
61.40000 -0.878
61.42000 0.364
61.44000 2.453
61.46000 2.970
61.48000 3.698
61.50000 4.443
61.52000 5.256
61.54000 2.940
61.56000 1.794
61.58000 -2.435
61.60000 0.711
61.62000 -0.289
61.64000 -1.120
61.66000 1.394
61.68000 3.481
61.70000 -0.572
61.72000 -0.927
61.74000 1.011
61.76000 2.737
61.78000 0.324
61.80000 0.385
61.82000 2.688
61.84000 0.661
61.86000 2.082
61.88000 1.312
61.90000 -2.425
61.92000 -0.215
61.94000 3.325
61.96000 3.512
61.98000 0.920
62.00000 -0.273
62.02000 -1.271
62.04000 0.137
62.06000 1.930
62.08000 0.988
62.10000 0.485
62.12000 3.836
62.14000 3.507
62.16000 0.594
62.18000 2.249
62.20000 4.044
62.22000 1.700
62.24000 0.371
62.26000 0.662
62.28000 1.281
62.30000 0.798
62.32000 2.028
62.34000 2.778
62.36000 -2.176
62.38000 0.906
62.40000 2.181
62.42000 0.446
62.44000 1.009
62.46000 1.441
62.48000 4.306
62.50000 -0.923
62.52000 1.401
62.54000 -1.304
62.56000 -1.686
62.58000 -0.712
62.60000 -1.535
62.62000 -1.424
62.64000 -0.452
62.66000 -0.662
62.68000 4.264
62.70000 1.978
62.72000 1.365
62.74000 0.936
62.76000 1.164
62.78000 2.001
62.80000 1.707
62.82000 -0.137
62.84000 2.372
62.86000 4.278
62.88000 1.693
62.90000 3.178
62.92000 5.651
62.94000 3.653
62.96000 2.476
62.98000 2.853
63.00000 0.657
63.02000 -2.379
63.04000 3.327
63.06000 5.517
63.08000 1.360
63.10000 3.205
63.12000 1.677
63.14000 2.345
63.16000 6.787
63.18000 4.244
63.20000 0.783
63.22000 0.883
63.24000 1.918
63.26000 -2.390
63.28000 0.284
63.30000 3.051
63.32000 7.806
63.34000 6.408
63.36000 0.054
63.38000 0.690
63.40000 2.318
63.42000 0.573
63.44000 0.263
63.46000 0.297
63.48000 2.494
63.50000 3.873
63.52000 2.544
63.54000 6.423
63.56000 6.121
63.58000 7.290
63.60000 3.143
63.62000 3.517
63.64000 2.234
63.66000 2.490
63.68000 1.867
63.70000 2.686
63.72000 1.733
63.74000 1.939
63.76000 2.880
63.78000 2.169
63.80000 1.496
63.82000 5.403
63.84000 -0.099
63.86000 -1.689
63.88000 -2.193
63.90000 -0.712
63.92000 -0.642
63.94000 0.417
63.96000 0.912
63.98000 0.894
64.00000 1.213
64.02000 0.728
64.04000 0.253
64.06000 1.831
64.08000 1.123
64.10000 0.633
64.12000 2.767
64.14000 3.789
64.16000 3.397
64.18000 2.914
64.20000 1.310
64.22000 1.973
64.24000 -0.601
64.26000 -2.412
64.28000 1.091
64.30000 0.446
64.32000 -0.765
64.34000 1.536
64.36000 2.681
64.38000 3.380
64.40000 6.871
64.42000 5.148
64.44000 2.329
64.46000 1.367
64.48000 2.652
64.50000 4.647
64.52000 3.198
64.54000 -0.409
64.56000 -2.406
64.58000 0.641
64.60000 0.050
64.62000 0.712
64.64000 1.089
64.66000 3.108
64.68000 1.026
64.70000 0.957
64.72000 0.915
64.74000 2.328
64.76000 0.271
64.78000 1.144
64.80000 1.769
64.82000 -0.503
64.84000 1.169
64.86000 3.305
64.88000 3.369
64.90000 1.247
64.92000 -2.424
64.94000 -0.634
64.96000 0.716
64.98000 -1.057
65.00000 -0.528
65.02000 1.973
65.04000 1.148
65.06000 -0.529
65.08000 0.819
65.10000 0.492
65.12000 -0.599
65.14000 -2.390
65.16000 -0.037
65.18000 1.477
65.20000 0.249
65.22000 3.792
65.24000 0.504
65.26000 -0.430
65.28000 0.566
65.30000 1.260
65.32000 3.115
65.34000 -1.493
65.36000 -1.335
65.38000 -0.272
65.40000 1.587
65.42000 -0.671
65.44000 -1.197
65.46000 1.215
65.48000 3.620
65.50000 0.188
65.52000 -2.351
65.54000 2.027
65.56000 3.245
65.58000 2.290
65.60000 2.133
65.62000 1.697
65.64000 2.202
65.66000 1.085
65.68000 1.793
65.70000 1.128
65.72000 0.895
65.74000 3.825
65.76000 0.815
65.78000 2.335
65.80000 1.457
65.82000 -0.284
65.84000 1.532
65.86000 3.916
65.88000 2.980
65.90000 -2.276
65.92000 -2.456
65.94000 1.474
65.96000 1.198
65.98000 2.199
66.00000 1.253
66.02000 2.936
66.04000 2.148
66.06000 2.703
66.08000 1.770
66.10000 0.329
66.12000 0.473
66.14000 0.586
66.16000 1.590
66.18000 1.561
66.20000 1.878
66.22000 0.011
66.24000 3.790
66.26000 4.547
66.28000 3.635
66.30000 2.996
66.32000 3.006
66.34000 1.572
66.36000 0.365
66.38000 1.928
66.40000 7.476
66.42000 8.220
66.44000 4.651
66.46000 0.963
66.48000 -2.499
66.50000 0.145
66.52000 2.404
66.54000 2.870
66.56000 2.805
66.58000 2.203
66.60000 0.873
66.62000 2.291
66.64000 4.865
66.66000 3.568
66.68000 2.757
66.70000 3.288
66.72000 3.030
66.74000 4.798
66.76000 5.237
66.78000 5.509
66.80000 5.544
66.82000 3.521
66.84000 7.147
66.86000 10.337
66.88000 8.867
66.90000 5.115
66.92000 6.493
66.94000 5.357
66.96000 5.230
66.98000 5.911
67.00000 7.582
67.02000 6.201
67.04000 4.518
67.06000 5.341
67.08000 6.615
67.10000 7.922
67.12000 7.237
67.14000 12.737
67.16000 11.063
67.18000 6.774
67.20000 9.032
67.22000 10.671
67.24000 8.543
67.26000 9.303
67.28000 13.618
67.30000 12.020
67.32000 12.682
67.34000 11.766
67.36000 9.973
67.38000 11.760
67.40000 13.509
67.42000 14.388
67.44000 15.793
67.46000 14.123
67.48000 13.987
67.50000 14.172
67.52000 17.335
67.54000 16.361
67.56000 19.078
67.58000 15.218
67.60000 16.970
67.62000 19.199
67.64000 17.746
67.66000 19.300
67.68000 21.267
67.70000 18.668
67.72000 19.889
67.74000 21.429
67.76000 18.518
67.78000 19.242
67.80000 20.523
67.82000 21.379
67.84000 20.237
67.86000 22.035
67.88000 18.081
67.90000 19.158
67.92000 21.935
67.94000 25.528
67.96000 27.207
67.98000 23.492
68.00000 28.453
68.02000 26.994
68.04000 23.758
68.06000 21.312
68.08000 23.022
68.10000 25.318
68.12000 25.469
68.14000 28.396
68.16000 23.969
68.18000 27.022
68.20000 24.948
68.22000 24.763
68.24000 26.604
68.26000 31.134
68.28000 28.392
68.30000 29.732
68.32000 24.157
68.34000 23.490
68.36000 23.271
68.38000 22.583
68.40000 21.357
68.42000 20.763
68.44000 21.230
68.46000 19.015
68.48000 22.691
68.50000 22.942
68.52000 21.273
68.54000 17.091
68.56000 15.667
68.58000 12.622
68.60000 16.179
68.62000 21.102
68.64000 18.927
68.66000 19.753
68.68000 15.343
68.70000 14.639
68.72000 15.191
68.74000 15.191
68.76000 16.389
68.78000 12.761
68.80000 13.033
68.82000 12.161
68.84000 14.389
68.86000 14.634
68.88000 8.457
68.90000 8.221
68.92000 9.387
68.94000 9.408
68.96000 9.238
68.98000 5.228
69.00000 2.965
69.02000 5.109
69.04000 11.396
69.06000 9.747
69.08000 6.719
69.10000 4.882
69.12000 3.316
69.14000 1.761
69.16000 2.551
69.18000 3.620
69.20000 6.360
69.22000 3.850
69.24000 4.759
69.26000 7.141
69.28000 3.356
69.30000 1.810
69.32000 3.143
69.34000 5.501
69.36000 2.197
69.38000 3.387
69.40000 6.745
69.42000 3.400
69.44000 1.901
69.46000 3.636
69.48000 2.078
69.50000 1.576
69.52000 2.845
69.54000 4.841
69.56000 3.055
69.58000 2.712
69.60000 2.679
69.62000 4.289
69.64000 5.554
69.66000 1.599
69.68000 -2.368
69.70000 0.766
69.72000 0.062
69.74000 2.083
69.76000 4.504
69.78000 3.313
69.80000 3.005
69.82000 1.313
69.84000 4.398
69.86000 2.481
69.88000 -0.241
69.90000 2.422
69.92000 1.866
69.94000 2.196
69.96000 0.748
69.98000 1.775
70.00000 0.048
70.02000 -2.086
70.04000 0.994
70.06000 2.369
70.08000 0.871
70.10000 0.651
70.12000 1.129
70.14000 -0.956
70.16000 -0.521
70.18000 1.728
70.20000 -0.222
70.22000 -1.928
70.24000 -2.356
70.26000 -1.415
70.28000 1.408
70.30000 2.622
70.32000 -2.356
70.34000 -2.333
70.36000 0.537
70.38000 -0.339
70.40000 -2.166
70.42000 -1.101
70.44000 -1.315
70.46000 -0.858
70.48000 -1.591
70.50000 -0.583
70.52000 -1.168
70.54000 0.056
70.56000 -0.055
70.58000 -0.334
70.60000 0.525
70.62000 -1.141
70.64000 1.360
70.66000 1.019
70.68000 1.437
70.70000 -0.951
70.72000 -1.868
70.74000 1.746
70.76000 1.211
70.78000 0.098
70.80000 0.828
70.82000 -1.261
70.84000 0.819
70.86000 1.092
70.88000 -0.472
70.90000 -1.099
70.92000 1.076
70.94000 3.420
70.96000 2.524
70.98000 -0.084
71.00000 0.877
71.02000 2.101
71.04000 0.559
71.06000 -0.520
71.08000 -1.174
71.10000 2.613
71.12000 1.577
71.14000 0.312
71.16000 2.088
71.18000 3.096
71.20000 1.874
71.22000 -0.629
71.24000 3.315
71.26000 1.868
71.28000 -0.275
71.30000 0.540
71.32000 1.890
71.34000 -1.149
71.36000 1.329
71.38000 -0.602
71.40000 -1.196
71.42000 0.683
71.44000 3.844
71.46000 4.325
71.48000 1.660
71.50000 1.571
71.52000 -2.307
71.54000 -0.316
71.56000 2.656
71.58000 1.850
71.60000 1.217
71.62000 1.947
71.64000 2.171
71.66000 -1.189
71.68000 -1.662
71.70000 -0.064
71.72000 0.171
71.74000 3.197
71.76000 3.892
71.78000 3.604
71.80000 -0.637
71.82000 -2.148
71.84000 1.354
71.86000 1.421
71.88000 1.570
71.90000 3.641
71.92000 0.150
71.94000 -0.867
71.96000 -1.073
71.98000 -0.860
72.00000 -1.190
72.02000 -0.449
72.04000 3.184
72.06000 2.141
72.08000 -1.172
72.10000 -1.792
72.12000 3.124
72.14000 5.383
72.16000 4.647
72.18000 3.906
72.20000 2.859
72.22000 1.319
72.24000 2.878
72.26000 -0.665
72.28000 3.626
72.30000 5.540
72.32000 3.533
72.34000 3.087
72.36000 3.698
72.38000 1.458
72.40000 1.021
72.42000 2.774
72.44000 -1.218
72.46000 1.428
72.48000 2.434
72.50000 3.451
72.52000 3.272
72.54000 3.701
72.56000 3.765
72.58000 0.795
72.60000 -2.266
72.62000 -0.424
72.64000 3.939
72.66000 1.988
72.68000 -0.551
72.70000 0.845
72.72000 3.390
72.74000 3.513
72.76000 0.822
72.78000 1.237
72.80000 -0.394
72.82000 0.196
72.84000 0.208
72.86000 2.179
72.88000 4.410
72.90000 2.927
72.92000 -0.345
72.94000 -0.763
72.96000 3.907
72.98000 3.901
73.00000 2.521
73.02000 2.250
73.04000 4.967
73.06000 6.831
73.08000 8.539
73.10000 8.670
73.12000 5.004
73.14000 3.131
73.16000 1.655
73.18000 2.387
73.20000 1.826
73.22000 2.422
73.24000 -1.836
73.26000 -2.226
73.28000 2.430
73.30000 6.378
73.32000 3.033
73.34000 3.840
73.36000 1.658
73.38000 4.729
73.40000 2.749
73.42000 1.533
73.44000 -1.631
73.46000 2.136
73.48000 2.527
73.50000 0.213
73.52000 3.456
73.54000 5.137
73.56000 2.306
73.58000 0.976
73.60000 -1.253
73.62000 1.489
73.64000 4.725
73.66000 7.487
73.68000 5.835
73.70000 5.326
73.72000 4.280
73.74000 0.191
73.76000 2.065
73.78000 2.249
73.80000 3.977
73.82000 3.276
73.84000 4.407
73.86000 4.190
73.88000 8.425
73.90000 6.206
73.92000 0.995
73.94000 0.725
73.96000 -0.968
73.98000 -0.571
74.00000 -2.206
74.02000 -0.640
74.04000 3.466
74.06000 1.520
74.08000 3.801
74.10000 5.162
74.12000 4.174
74.14000 5.708
74.16000 7.527
74.18000 6.419
74.20000 5.615
74.22000 1.000
74.24000 -1.732
74.26000 -2.164
74.28000 0.307
74.30000 3.153
74.32000 5.238
74.34000 5.248
74.36000 1.773
74.38000 3.300
74.40000 6.343
74.42000 1.462
74.44000 0.022
74.46000 3.289
74.48000 3.594
74.50000 4.562
74.52000 0.092
74.54000 -0.941
74.56000 -0.119
74.58000 2.060
74.60000 0.452
74.62000 0.289
74.64000 2.549
74.66000 2.554
74.68000 3.801
74.70000 2.022
74.72000 0.259
74.74000 1.177
74.76000 2.129
74.78000 2.697
74.80000 -0.523
74.82000 4.283
74.84000 6.525
74.86000 2.742
74.88000 5.791
74.90000 4.101
74.92000 2.168
74.94000 7.000
74.96000 5.402
74.98000 5.019
75.00000 4.342
75.02000 -0.972
75.04000 -2.192
75.06000 -0.539
75.08000 0.663
75.10000 2.894
75.12000 3.731
75.14000 5.991
75.16000 5.274
75.18000 4.782
75.20000 4.261
75.22000 3.381
75.24000 1.954
75.26000 3.385
75.28000 3.185
75.30000 2.409
75.32000 3.067
75.34000 1.327
75.36000 2.772
75.38000 4.567
75.40000 4.327
75.42000 -0.611
75.44000 -0.966
75.46000 0.723
75.48000 5.914
75.50000 7.973
75.52000 3.811
75.54000 0.292
75.56000 1.810
75.58000 4.278
75.60000 6.641
75.62000 2.305
75.64000 3.091
75.66000 -0.625
75.68000 -2.202
75.70000 1.522
75.72000 2.691
75.74000 4.961
75.76000 5.111
75.78000 -0.701
75.80000 1.541
75.82000 5.272
75.84000 3.110
75.86000 1.700
75.88000 5.391
75.90000 7.266
75.92000 6.524
75.94000 4.744
75.96000 2.613
75.98000 5.205
76.00000 4.874
76.02000 7.330
76.04000 6.776
76.06000 7.307
76.08000 0.377
76.10000 4.345
76.12000 4.269
76.14000 5.201
76.16000 6.481
76.18000 6.196
76.20000 3.426
76.22000 -0.380
76.24000 -2.199
76.26000 0.375
76.28000 5.734
76.30000 9.940
76.32000 9.664
76.34000 7.813
76.36000 9.405
76.38000 6.025
76.40000 5.107
76.42000 4.473
76.44000 5.406
76.46000 0.667
76.48000 0.984
76.50000 3.729
76.52000 4.326
76.54000 0.683
76.56000 1.224
76.58000 -2.209
76.60000 1.238
76.62000 2.912
76.64000 0.771
76.66000 1.681
76.68000 1.452
76.70000 5.147
76.72000 2.868
76.74000 -0.782
76.76000 3.650
76.78000 1.953
76.80000 4.103
76.82000 8.672
76.84000 3.719
76.86000 3.263
76.88000 2.270
76.90000 2.544
76.92000 2.468
76.94000 1.243
76.96000 2.783
76.98000 6.230
77.00000 3.869
77.02000 2.410
77.04000 4.416
77.06000 3.174
77.08000 -1.069
77.10000 -2.256
77.12000 3.663
77.14000 3.292
77.16000 3.897
77.18000 6.858
77.20000 2.582
77.22000 4.278
77.24000 4.875
77.26000 2.101
77.28000 3.903
77.30000 2.407
77.32000 -1.962
77.34000 -2.272
77.36000 2.798
77.38000 6.591
77.40000 3.928
77.42000 1.714
77.44000 -0.225
77.46000 4.401
77.48000 -1.683
77.50000 1.300
77.52000 2.123
77.54000 3.853
77.56000 2.908
77.58000 2.682
77.60000 -0.594
77.62000 1.585
77.64000 7.742
77.66000 1.967
77.68000 0.263
77.70000 -0.064
77.72000 0.265
77.74000 0.106
77.76000 -0.736
77.78000 2.404
77.80000 3.587
77.82000 1.324
77.84000 2.899
77.86000 3.967
77.88000 0.060
77.90000 -0.311
77.92000 -1.006
77.94000 -1.066
77.96000 -0.405
77.98000 0.542
78.00000 1.865
78.02000 1.326
78.04000 1.789
78.06000 4.141
78.08000 3.744
78.10000 4.175
78.12000 -1.093
78.14000 -1.814
78.16000 3.291
78.18000 2.868
78.20000 2.157
78.22000 5.566
78.24000 6.666
78.26000 5.651
78.28000 2.565
78.30000 -1.817
78.32000 0.358
78.34000 1.025
78.36000 0.809
78.38000 0.313
78.40000 -0.005
78.42000 -2.287
78.44000 3.343
78.46000 3.263
78.48000 3.312
78.50000 3.085
78.52000 2.952
78.54000 2.915
78.56000 1.602
78.58000 -0.041
78.60000 0.121
78.62000 0.512
78.64000 1.531
78.66000 -0.255
78.68000 0.743
78.70000 -0.475
78.72000 -0.211
78.74000 5.394
78.76000 6.924
78.78000 4.734
78.80000 3.633
78.82000 5.769
78.84000 1.102
78.86000 -0.243
78.88000 2.781
78.90000 5.409
78.92000 -0.324
78.94000 2.937
78.96000 1.537
78.98000 4.232
79.00000 4.361
79.02000 2.730
79.04000 6.184
79.06000 4.344
79.08000 4.283
79.10000 3.423
79.12000 -0.064
79.14000 -2.296
79.16000 -2.138
79.18000 -0.636
79.20000 -1.583
79.22000 -2.301
79.24000 1.995
79.26000 2.107
79.28000 1.153
79.30000 2.407
79.32000 5.253
79.34000 4.262
79.36000 0.558
79.38000 0.337
79.40000 1.273
79.42000 3.337
79.44000 0.014
79.46000 1.916
79.48000 2.109
79.50000 6.221
79.52000 1.183
79.54000 -1.375
79.56000 -1.066
79.58000 3.483
79.60000 2.099
79.62000 2.114
79.64000 3.627
79.66000 3.998
79.68000 1.604
79.70000 2.649
79.72000 3.339
79.74000 3.655
79.76000 0.119
79.78000 0.374
79.80000 2.193
79.82000 5.215
79.84000 5.262
79.86000 3.796
79.88000 1.681
79.90000 -0.421
79.92000 4.105
79.94000 5.634
79.96000 3.524
79.98000 8.198
80.00000 4.442
80.02000 0.205
80.04000 3.062
80.06000 3.918
80.08000 4.532
80.10000 2.029
80.12000 1.152
80.14000 0.384
80.16000 2.038
80.18000 -0.129
80.20000 0.255
80.22000 3.695
80.24000 7.146
80.26000 3.187
80.28000 -0.469
80.30000 1.433
80.32000 3.302
80.34000 4.549
80.36000 6.490
80.38000 2.243
80.40000 -0.423
80.42000 0.349
80.44000 -2.460
80.46000 -2.468
80.48000 0.650
80.50000 1.744
80.52000 1.788
80.54000 3.817
80.56000 3.762
80.58000 4.068
80.60000 9.838
80.62000 10.656
80.64000 4.197
80.66000 4.686
80.68000 2.005
80.70000 2.169
80.72000 2.549
80.74000 1.497
80.76000 5.051
80.78000 8.474
80.80000 3.186
80.82000 -0.466
80.84000 -0.707
80.86000 5.321
80.88000 8.416
80.90000 8.410
80.92000 7.101
80.94000 8.609
80.96000 4.846
80.98000 3.633
81.00000 6.250
81.02000 9.703
81.04000 6.848
81.06000 8.540
81.08000 13.133
81.10000 10.459
81.12000 9.292
81.14000 8.521
81.16000 13.667
81.18000 15.939
81.20000 13.634
81.22000 17.699
81.24000 14.841
81.26000 16.295
81.28000 14.333
81.30000 13.815
81.32000 13.537
81.34000 16.136
81.36000 17.129
81.38000 14.163
81.40000 17.032
81.42000 17.261
81.44000 21.961
81.46000 21.772
81.48000 15.437
81.50000 14.296
81.52000 14.784
81.54000 18.849
81.56000 22.856
81.58000 21.963
81.60000 18.992
81.62000 22.028
81.64000 21.487
81.66000 22.647
81.68000 19.279
81.70000 17.780
81.72000 22.660
81.74000 24.029
81.76000 21.855
81.78000 19.071
81.80000 22.391
81.82000 26.061
81.84000 22.832
81.86000 22.982
81.88000 23.395
81.90000 25.937
81.92000 27.892
81.94000 26.792
81.96000 26.814
81.98000 27.244
82.00000 28.291
82.02000 26.978
82.04000 30.773
82.06000 32.384
82.08000 37.515
82.10000 35.947
82.12000 26.187
82.14000 22.359
82.16000 24.888
82.18000 29.961
82.20000 29.575
82.22000 26.461
82.24000 27.563
82.26000 30.082
82.28000 33.604
82.30000 37.235
82.32000 34.414
82.34000 28.846
82.36000 27.657
82.38000 28.799
82.40000 31.327
82.42000 31.122
82.44000 30.743
82.46000 29.921
82.48000 25.881
82.50000 27.441
82.52000 24.410
82.54000 25.271
82.56000 24.824
82.58000 20.622
82.60000 29.212
82.62000 30.744
82.64000 23.530
82.66000 25.553
82.68000 25.930
82.70000 23.881
82.72000 18.541
82.74000 16.871
82.76000 20.260
82.78000 20.309
82.80000 19.799
82.82000 18.031
82.84000 19.743
82.86000 19.357
82.88000 16.011
82.90000 13.849
82.92000 11.812
82.94000 13.930
82.96000 12.596
82.98000 11.024
83.00000 9.327
83.02000 8.838
83.04000 9.691
83.06000 14.839
83.08000 16.777
83.10000 10.574
83.12000 9.779
83.14000 11.026
83.16000 7.138
83.18000 5.103
83.20000 6.352
83.22000 3.406
83.24000 7.631
83.26000 9.159
83.28000 5.337
83.30000 6.392
83.32000 7.103
83.34000 8.048
83.36000 5.125
83.38000 1.706
83.40000 3.550
83.42000 1.442
83.44000 2.535
83.46000 6.012
83.48000 5.967
83.50000 3.933
83.52000 6.170
83.54000 1.500
83.56000 -0.993
83.58000 -0.557
83.60000 5.369
83.62000 8.969
83.64000 7.430
83.66000 5.323
83.68000 5.181
83.70000 3.727
83.72000 4.469
83.74000 4.886
83.76000 3.978
83.78000 0.527
83.80000 1.877
83.82000 1.642
83.84000 2.058
83.86000 4.900
83.88000 4.854
83.90000 4.698
83.92000 2.525
83.94000 -2.404
83.96000 1.183
83.98000 5.244
84.00000 1.841
84.02000 0.810
84.04000 2.269
84.06000 1.805
84.08000 4.963
84.10000 5.059
84.12000 1.619
84.14000 -2.373
84.16000 2.148
84.18000 4.760
84.20000 5.750
84.22000 4.721
84.24000 4.471
84.26000 0.213
84.28000 0.609
84.30000 0.321
84.32000 2.518
84.34000 1.826
84.36000 1.550
84.38000 3.743
84.40000 6.632
84.42000 4.197
84.44000 3.191
84.46000 1.582
84.48000 4.731
84.50000 6.316
84.52000 2.795
84.54000 2.201
84.56000 3.083
84.58000 4.046
84.60000 2.928
84.62000 3.863
84.64000 3.183
84.66000 1.450
84.68000 3.220
84.70000 7.649
84.72000 10.196
84.74000 8.079
84.76000 6.853
84.78000 -0.784
84.80000 -2.331
84.82000 -1.979
84.84000 4.174
84.86000 9.143
84.88000 5.972
84.90000 3.219
84.92000 3.472
84.94000 5.528
84.96000 4.269
84.98000 0.040
85.00000 1.152
85.02000 2.222
85.04000 2.986
85.06000 10.955
85.08000 8.992
85.10000 5.456
85.12000 8.471
85.14000 9.766
85.16000 3.558
85.18000 -0.732
85.20000 0.609
85.22000 9.893
85.24000 11.209
85.26000 6.819
85.28000 6.125
85.30000 4.113
85.32000 7.735
85.34000 10.254
85.36000 9.063
85.38000 10.277
85.40000 7.666
85.42000 6.760
85.44000 3.031
85.46000 5.563
85.48000 9.949
85.50000 11.286
85.52000 7.201
85.54000 4.596
85.56000 4.726
85.58000 7.474
85.60000 7.855
85.62000 13.938
85.64000 14.737
85.66000 13.214
85.68000 12.603
85.70000 19.049
85.72000 17.776
85.74000 15.794
85.76000 17.300
85.78000 16.009
85.80000 16.637
85.82000 16.382
85.84000 17.318
85.86000 16.140
85.88000 17.730
85.90000 21.759
85.92000 26.065
85.94000 21.686
85.96000 19.267
85.98000 19.823
86.00000 18.329
86.02000 22.775
86.04000 19.745
86.06000 17.015
86.08000 18.017
86.10000 22.586
86.12000 28.029
86.14000 28.222
86.16000 24.467
86.18000 23.535
86.20000 23.845
86.22000 28.653
86.24000 29.844
86.26000 28.024
86.28000 24.107
86.30000 20.026
86.32000 26.432
86.34000 26.563
86.36000 27.403
86.38000 24.880
86.40000 24.233
86.42000 21.692
86.44000 23.586
86.46000 21.882
86.48000 19.921
86.50000 22.272
86.52000 22.371
86.54000 21.619
86.56000 23.429
86.58000 20.959
86.60000 16.815
86.62000 19.860
86.64000 19.254
86.66000 20.897
86.68000 17.581
86.70000 22.137
86.72000 20.803
86.74000 20.898
86.76000 19.713
86.78000 18.281
86.80000 17.821
86.82000 18.153
86.84000 17.146
86.86000 11.745
86.88000 13.991
86.90000 14.986
86.92000 15.752
86.94000 17.138
86.96000 15.020
86.98000 15.071
87.00000 19.108
87.02000 18.742
87.04000 13.690
87.06000 9.901
87.08000 8.485
87.10000 12.448
87.12000 13.884
87.14000 15.839
87.16000 13.092
87.18000 12.813
87.20000 12.619
87.22000 11.180
87.24000 14.164
87.26000 16.584
87.28000 10.349
87.30000 5.620
87.32000 3.348
87.34000 7.731
87.36000 9.074
87.38000 6.137
87.40000 3.718
87.42000 6.299
87.44000 11.324
87.46000 13.285
87.48000 7.959
87.50000 7.183
87.52000 2.659
87.54000 1.479
87.56000 2.922
87.58000 2.053
87.60000 3.734
87.62000 3.440
87.64000 2.621
87.66000 4.362
87.68000 6.251
87.70000 0.598
87.72000 1.552
87.74000 3.085
87.76000 3.026
87.78000 2.662
87.80000 3.733
87.82000 0.327
87.84000 -1.447
87.86000 3.273
87.88000 5.289
87.90000 3.758
87.92000 1.151
87.94000 -0.241
87.96000 -2.187
87.98000 -0.811
88.00000 5.275
88.02000 5.065
88.04000 5.771
88.06000 2.517
88.08000 2.677
88.10000 1.280
88.12000 4.039
88.14000 3.017
88.16000 3.331
88.18000 4.937
88.20000 2.050
88.22000 1.621
88.24000 2.153
88.26000 0.192
88.28000 0.914
88.30000 3.613
88.32000 6.704
88.34000 5.469
88.36000 4.015
88.38000 3.176
88.40000 0.908
88.42000 2.949
88.44000 4.518
88.46000 4.701
88.48000 4.293
88.50000 6.166
88.52000 5.551
88.54000 5.198
88.56000 3.182
88.58000 1.558
88.60000 2.504
88.62000 4.292
88.64000 4.198
88.66000 3.695
88.68000 2.324
88.70000 1.193
88.72000 -0.634
88.74000 0.740
88.76000 -1.717
88.78000 -2.143
88.80000 2.419
88.82000 -0.788
88.84000 2.548
88.86000 8.503
88.88000 7.377
88.90000 3.856
88.92000 5.291
88.94000 5.406
88.96000 4.534
88.98000 1.950
89.00000 4.275
89.02000 5.287
89.04000 4.013
89.06000 -2.116
89.08000 1.489
89.10000 3.611
89.12000 0.820
89.14000 3.769
89.16000 8.049
89.18000 5.377
89.20000 3.460
89.22000 2.560
89.24000 1.648
89.26000 4.482
89.28000 2.753
89.30000 3.592
89.32000 7.354
89.34000 5.220
89.36000 3.052
89.38000 3.236
89.40000 6.339
89.42000 8.452
89.44000 7.138
89.46000 5.567
89.48000 2.800
89.50000 -0.173
89.52000 1.090
89.54000 0.261
89.56000 3.286
89.58000 -2.078
89.60000 -1.171
89.62000 2.665
89.64000 4.433
89.66000 2.891
89.68000 3.782
89.70000 3.840
89.72000 2.079
89.74000 1.152
89.76000 0.512
89.78000 -0.496
89.80000 0.178
89.82000 1.223
89.84000 3.612
89.86000 4.600
89.88000 1.428
89.90000 0.716
89.92000 -1.089
89.94000 0.011
89.96000 1.301
89.98000 3.520
90.00000 5.579
90.02000 4.873
90.04000 2.676
90.06000 3.590
90.08000 7.343
90.10000 1.640
90.12000 3.544
90.14000 4.934
90.16000 5.362
90.18000 4.497
90.20000 4.101
90.22000 0.007
90.24000 2.538
90.26000 3.174
90.28000 4.446
90.30000 2.035
90.32000 0.839
90.34000 -1.446
90.36000 -0.512
90.38000 -1.260
90.40000 -0.464
90.42000 2.657
90.44000 6.861
90.46000 2.794
90.48000 0.680
90.50000 2.808
90.52000 1.728
90.54000 1.787
90.56000 1.653
90.58000 4.402
90.60000 7.018
90.62000 2.229
90.64000 1.326
90.66000 2.901
90.68000 3.390
90.70000 0.866
90.72000 0.621
90.74000 1.020
90.76000 1.214
90.78000 2.712
90.80000 5.071
90.82000 3.981
90.84000 4.612
90.86000 3.787
90.88000 5.084
90.90000 4.386
90.92000 3.849
90.94000 0.784
90.96000 3.751
90.98000 3.316
91.00000 5.665
91.02000 3.739
91.04000 3.092
91.06000 0.451
91.08000 -2.109
91.10000 1.059
91.12000 3.844
91.14000 4.011
91.16000 3.731
91.18000 4.088
91.20000 4.375
91.22000 5.121
91.24000 5.349
91.26000 2.289
91.28000 -1.627
91.30000 1.179
91.32000 1.349
91.34000 2.877
91.36000 2.682
91.38000 3.412
91.40000 7.548
91.42000 4.241
91.44000 7.336
91.46000 3.694
91.48000 4.431
91.50000 7.298
91.52000 3.528
91.54000 5.365
91.56000 1.507
91.58000 0.490
91.60000 2.756
91.62000 3.824
91.64000 4.123
91.66000 4.348
91.68000 4.700
91.70000 6.847
91.72000 4.485
91.74000 2.399
91.76000 -0.171
91.78000 -0.346
91.80000 -0.603
91.82000 3.825
91.84000 4.499
91.86000 6.662
91.88000 1.528
91.90000 2.105
91.92000 4.741
91.94000 2.157
91.96000 6.518
91.98000 7.982
92.00000 4.736
92.02000 7.568
92.04000 6.101
92.06000 5.376
92.08000 -0.034
92.10000 1.635
92.12000 2.603
92.14000 2.292
92.16000 4.332
92.18000 5.242
92.20000 -1.942
92.22000 -2.104
92.24000 2.288
92.26000 4.350
92.28000 2.271
92.30000 3.046
92.32000 1.858
92.34000 7.319
92.36000 7.635
92.38000 6.402
92.40000 3.113
92.42000 6.075
92.44000 4.872
92.46000 5.991
92.48000 2.596
92.50000 5.848
92.52000 4.952
92.54000 10.552
92.56000 7.566
92.58000 5.390
92.60000 5.380
92.62000 3.268
92.64000 2.017
92.66000 0.730
92.68000 3.117
92.70000 5.703
92.72000 -0.384
92.74000 2.008
92.76000 0.712
92.78000 2.819
92.80000 2.343
92.82000 3.813
92.84000 -0.138
92.86000 4.258
92.88000 1.214
92.90000 0.882
92.92000 6.393
92.94000 7.580
92.96000 3.040
92.98000 0.403
93.00000 1.701
93.02000 6.481
93.04000 0.393
93.06000 -0.800
93.08000 6.398
93.10000 5.938
93.12000 2.812
93.14000 2.587
93.16000 6.553
93.18000 5.527
93.20000 5.282
93.22000 1.579
93.24000 -0.948
93.26000 2.698
93.28000 3.856
93.30000 4.403
93.32000 6.944
93.34000 3.537
93.36000 2.693
93.38000 5.691
93.40000 4.958
93.42000 2.960
93.44000 -2.070
93.46000 2.158
93.48000 5.480
93.50000 5.594
93.52000 4.796
93.54000 8.653
93.56000 4.267
93.58000 1.805
93.60000 3.347
93.62000 3.899
93.64000 2.289
93.66000 3.077
93.68000 5.016
93.70000 4.478
93.72000 1.724
93.74000 4.668
93.76000 4.694
93.78000 7.843
93.80000 6.584
93.82000 5.313
93.84000 2.764
93.86000 4.805
93.88000 2.809
93.90000 5.773
93.92000 8.675
93.94000 0.726
93.96000 4.584
93.98000 1.944
94.00000 -2.097
94.02000 -0.093
94.04000 4.285
94.06000 4.261
94.08000 2.926
94.10000 5.774
94.12000 6.386
94.14000 5.081
94.16000 2.392
94.18000 0.858
94.20000 4.220
94.22000 4.114
94.24000 7.748
94.26000 8.499
94.28000 5.372
94.30000 6.998
94.32000 5.091
94.34000 3.410
94.36000 0.696
94.38000 3.511
94.40000 0.922
94.42000 0.380
94.44000 3.831
94.46000 4.757
94.48000 -0.068
94.50000 1.006
94.52000 3.996
94.54000 1.790
94.56000 -0.935
94.58000 4.393
94.60000 4.472
94.62000 0.305
94.64000 2.430
94.66000 2.624
94.68000 0.584
94.70000 3.283
94.72000 1.688
94.74000 3.032
94.76000 6.829
94.78000 2.028
94.80000 2.796
94.82000 5.677
94.84000 7.707
94.86000 8.793
94.88000 7.658
94.90000 2.197
94.92000 -1.310
94.94000 1.873
94.96000 6.081
94.98000 4.433
95.00000 0.286
95.02000 2.401
95.04000 -0.267
95.06000 -1.407
95.08000 2.428
95.10000 7.866
95.12000 2.988
95.14000 4.657
95.16000 1.581
95.18000 3.451
95.20000 4.028
95.22000 7.714
95.24000 4.264
95.26000 -1.655
95.28000 2.124
95.30000 5.501
95.32000 1.136
95.34000 4.290
95.36000 0.988
95.38000 -0.854
95.40000 -1.738
95.42000 2.737
95.44000 4.502
95.46000 3.372
95.48000 -0.268
95.50000 -2.128
95.52000 1.046
95.54000 5.051
95.56000 3.817
95.58000 4.773
95.60000 5.297
95.62000 4.986
95.64000 3.426
95.66000 4.981
95.68000 3.512
95.70000 3.637
95.72000 2.417
95.74000 2.969
95.76000 0.690
95.78000 -1.728
95.80000 0.946
95.82000 1.436
95.84000 -1.071
95.86000 -1.354
95.88000 5.256
95.90000 3.319
95.92000 0.085
95.94000 -0.287
95.96000 3.000
95.98000 2.913
96.00000 -0.043
96.02000 3.147
96.04000 3.333
96.06000 1.270
96.08000 2.796
96.10000 -0.050
96.12000 -1.491
96.14000 6.222
96.16000 5.401
96.18000 3.044
96.20000 4.334
96.22000 11.782
96.24000 2.318
96.26000 -1.072
96.28000 6.197
96.30000 6.591
96.32000 5.366
96.34000 2.118
96.36000 0.277
96.38000 -0.151
96.40000 -0.420
96.42000 2.249
96.44000 9.917
96.46000 6.884
96.48000 4.079
96.50000 3.676
96.52000 6.393
96.54000 6.936
96.56000 0.225
96.58000 3.389
96.60000 6.418
96.62000 1.934
96.64000 -0.319
96.66000 -0.657
96.68000 1.453
96.70000 2.922
96.72000 7.538
96.74000 6.195
96.76000 9.568
96.78000 5.257
96.80000 2.956
96.82000 4.096
96.84000 3.673
96.86000 3.493
96.88000 -0.099
96.90000 -2.082
96.92000 3.384
96.94000 10.001
96.96000 6.263
96.98000 0.864
97.00000 5.135
97.02000 4.394
97.04000 6.978
97.06000 4.753
97.08000 10.656
97.10000 4.822
97.12000 1.696
97.14000 6.623
97.16000 5.707
97.18000 4.583
97.20000 7.416
97.22000 11.666
97.24000 5.077
97.26000 -1.625
97.28000 -2.094
97.30000 0.244
97.32000 4.489
97.34000 2.862
97.36000 3.664
97.38000 7.821
97.40000 7.551
97.42000 3.771
97.44000 0.727
97.46000 7.224
97.48000 3.323
97.50000 4.570
97.52000 2.036
97.54000 9.644
97.56000 7.448
97.58000 5.378
97.60000 1.998
97.62000 5.121
97.64000 1.640
97.66000 3.995
97.68000 8.702
97.70000 6.648
97.72000 2.602
97.74000 2.377
97.76000 4.178
97.78000 1.855
97.80000 -0.410
97.82000 4.328
97.84000 2.405
97.86000 2.497
97.88000 6.888
97.90000 5.502
97.92000 3.523
97.94000 -0.097
97.96000 2.367
97.98000 0.011
98.00000 0.379
98.02000 -2.104
98.04000 -0.533
98.06000 10.200
98.08000 6.070
98.10000 0.697
98.12000 0.512
98.14000 4.614
98.16000 1.281
98.18000 8.443
98.20000 -1.972
98.22000 3.854
98.24000 1.791
98.26000 2.283
98.28000 0.667
98.30000 6.987
98.32000 2.425
98.34000 4.524
98.36000 2.549
98.38000 -1.102
98.40000 -0.990
98.42000 4.058
98.44000 5.036
98.46000 1.989
98.48000 1.802
98.50000 6.554
98.52000 3.448
98.54000 4.566
98.56000 2.711
98.58000 -0.398
98.60000 2.081
98.62000 2.505
98.64000 10.146
98.66000 4.083
98.68000 10.575
98.70000 0.107
98.72000 1.064
98.74000 6.269
98.76000 9.006
98.78000 3.404
98.80000 -2.073
98.82000 -1.119
98.84000 -1.062
98.86000 3.756
98.88000 2.768
98.90000 4.801
98.92000 2.384
98.94000 6.641
98.96000 4.114
98.98000 5.070
99.00000 7.475
99.02000 3.640
99.04000 -1.399
99.06000 -0.162
99.08000 4.678
99.10000 6.638
99.12000 8.640
99.14000 4.858
99.16000 -0.634
99.18000 1.146
99.20000 3.817
99.22000 9.128
99.24000 11.082
99.26000 8.718
99.28000 2.218
99.30000 6.659
99.32000 8.997
99.34000 3.731
99.36000 2.651
99.38000 4.965
99.40000 1.748
99.42000 4.757
99.44000 4.513
99.46000 3.417
99.48000 -0.591
99.50000 1.629
99.52000 4.394
99.54000 3.716
99.56000 5.248
99.58000 6.508
99.60000 4.929
99.62000 9.403
99.64000 8.330
99.66000 1.263
99.68000 -0.231
99.70000 -2.060
99.72000 8.419
99.74000 18.950
99.76000 11.242
99.78000 5.354
99.80000 9.162
99.82000 17.883
99.84000 17.926
99.86000 11.525
99.88000 0.787
99.90000 6.184
99.92000 13.242
99.94000 14.756
99.96000 7.054
99.98000 0.000
