'Id: "0011387" Comment: "Integrate frame 0011387_Au-Ir-Rh_Rh-rich_XRD-Mapping-255-0000.gfrmwith cursor Wedge Cursor #5" Operator: "B?rgel" Anode: "Cu" Wavelength: "1.5406" Scantype: "2Theta (TwoTheta)" TimePerStep: "1" X: "22.5" Y: "18" Z: "5.95" 
10.00000 0.000
10.02000 6.994
10.04000 10.279
10.06000 -3.718
10.08000 7.040
10.10000 3.396
10.12000 4.904
10.14000 17.543
10.16000 15.316
10.18000 10.792
10.20000 12.853
10.22000 4.165
10.24000 9.270
10.26000 8.654
10.28000 7.394
10.30000 4.313
10.32000 3.770
10.34000 -1.274
10.36000 -3.784
10.38000 2.062
10.40000 18.334
10.42000 28.137
10.44000 24.203
10.46000 22.641
10.48000 19.634
10.50000 5.457
10.52000 3.727
10.54000 9.199
10.56000 19.600
10.58000 9.828
10.60000 0.976
10.62000 9.436
10.64000 12.598
10.66000 14.567
10.68000 16.139
10.70000 18.543
10.72000 19.603
10.74000 9.104
10.76000 15.481
10.78000 9.865
10.80000 12.069
10.82000 6.833
10.84000 7.833
10.86000 8.743
10.88000 13.444
10.90000 18.635
10.92000 23.078
10.94000 18.282
10.96000 18.568
10.98000 18.702
11.00000 19.770
11.02000 18.435
11.04000 25.780
11.06000 27.553
11.08000 27.899
11.10000 27.481
11.12000 16.777
11.14000 19.552
11.16000 26.667
11.18000 19.289
11.20000 11.725
11.22000 13.454
11.24000 23.767
11.26000 30.369
11.28000 22.028
11.30000 21.078
11.32000 16.166
11.34000 10.795
11.36000 7.683
11.38000 23.710
11.40000 23.104
11.42000 24.083
11.44000 19.308
11.46000 24.071
11.48000 9.643
11.50000 1.565
11.52000 14.219
11.54000 22.336
11.56000 24.527
11.58000 28.830
11.60000 26.171
11.62000 22.306
11.64000 25.092
11.66000 25.940
11.68000 31.941
11.70000 35.364
11.72000 34.235
11.74000 34.699
11.76000 30.646
11.78000 24.815
11.80000 29.468
11.82000 30.640
11.84000 20.374
11.86000 14.610
11.88000 16.247
11.90000 6.302
11.92000 17.019
11.94000 29.270
11.96000 26.088
11.98000 17.647
12.00000 18.136
12.02000 17.735
12.04000 21.765
12.06000 28.093
12.08000 27.086
12.10000 25.541
12.12000 21.766
12.14000 25.364
12.16000 26.234
12.18000 16.393
12.20000 17.620
12.22000 18.259
12.24000 18.615
12.26000 17.036
12.28000 27.529
12.30000 19.714
12.32000 17.418
12.34000 17.956
12.36000 24.065
12.38000 16.030
12.40000 20.477
12.42000 26.430
12.44000 26.463
12.46000 14.650
12.48000 23.872
12.50000 30.548
12.52000 35.110
12.54000 29.966
12.56000 32.256
12.58000 36.218
12.60000 32.391
12.62000 27.432
12.64000 19.775
12.66000 27.851
12.68000 20.729
12.70000 21.681
12.72000 16.292
12.74000 17.956
12.76000 21.944
12.78000 17.192
12.80000 17.718
12.82000 19.371
12.84000 18.156
12.86000 27.541
12.88000 24.150
12.90000 27.979
12.92000 31.661
12.94000 23.709
12.96000 28.655
12.98000 19.113
13.00000 19.638
13.02000 27.322
13.04000 25.052
13.06000 22.285
13.08000 21.856
13.10000 26.087
13.12000 21.127
13.14000 24.317
13.16000 23.362
13.18000 22.223
13.20000 17.115
13.22000 15.458
13.24000 22.650
13.26000 28.073
13.28000 30.077
13.30000 19.819
13.32000 19.591
13.34000 24.778
13.36000 22.670
13.38000 25.562
13.40000 34.434
13.42000 26.965
13.44000 22.951
13.46000 17.393
13.48000 16.252
13.50000 21.288
13.52000 24.278
13.54000 20.101
13.56000 22.651
13.58000 13.169
13.60000 12.675
13.62000 15.296
13.64000 18.396
13.66000 18.780
13.68000 27.044
13.70000 23.225
13.72000 12.732
13.74000 24.592
13.76000 31.718
13.78000 25.185
13.80000 17.314
13.82000 23.256
13.84000 13.878
13.86000 11.116
13.88000 15.402
13.90000 15.537
13.92000 17.332
13.94000 21.077
13.96000 20.806
13.98000 17.886
14.00000 20.086
14.02000 13.362
14.04000 10.023
14.06000 7.176
14.08000 11.902
14.10000 13.047
14.12000 19.109
14.14000 13.956
14.16000 12.923
14.18000 18.104
14.20000 20.574
14.22000 13.957
14.24000 16.674
14.26000 26.822
14.28000 32.308
14.30000 10.438
14.32000 13.804
14.34000 17.028
14.36000 16.665
14.38000 3.428
14.40000 -1.237
14.42000 7.593
14.44000 8.662
14.46000 15.584
14.48000 8.821
14.50000 7.041
14.52000 3.071
14.54000 2.891
14.56000 10.943
14.58000 9.568
14.60000 10.992
14.62000 10.916
14.64000 6.137
14.66000 13.555
14.68000 13.912
14.70000 12.556
14.72000 16.641
14.74000 18.134
14.76000 15.939
14.78000 19.019
14.80000 19.999
14.82000 16.227
14.84000 14.126
14.86000 5.555
14.88000 9.919
14.90000 9.538
14.92000 18.686
14.94000 13.573
14.96000 14.045
14.98000 15.922
15.00000 16.065
15.02000 16.095
15.04000 16.311
15.06000 11.196
15.08000 8.672
15.10000 14.550
15.12000 9.939
15.14000 5.264
15.16000 10.663
15.18000 15.001
15.20000 8.757
15.22000 4.503
15.24000 10.366
15.26000 20.459
15.28000 15.649
15.30000 9.074
15.32000 6.152
15.34000 10.429
15.36000 13.545
15.38000 6.746
15.40000 1.188
15.42000 6.746
15.44000 6.918
15.46000 5.294
15.48000 8.599
15.50000 11.155
15.52000 13.966
15.54000 15.777
15.56000 14.046
15.58000 14.978
15.60000 15.450
15.62000 8.825
15.64000 7.319
15.66000 11.656
15.68000 12.981
15.70000 12.608
15.72000 10.645
15.74000 1.708
15.76000 1.447
15.78000 0.010
15.80000 5.904
15.82000 5.761
15.84000 0.443
15.86000 2.844
15.88000 3.603
15.90000 13.529
15.92000 8.567
15.94000 6.866
15.96000 4.995
15.98000 9.715
16.00000 5.348
16.02000 -0.023
16.04000 3.861
16.06000 5.209
16.08000 8.231
16.10000 5.719
16.12000 12.941
16.14000 11.216
16.16000 17.605
16.18000 8.539
16.20000 2.532
16.22000 3.898
16.24000 7.844
16.26000 9.118
16.28000 6.833
16.30000 -1.075
16.32000 -1.149
16.34000 -1.259
16.36000 -3.140
16.38000 3.918
16.40000 5.558
16.42000 3.936
16.44000 6.434
16.46000 12.200
16.48000 12.437
16.50000 14.324
16.52000 7.719
16.54000 11.216
16.56000 6.205
16.58000 5.068
16.60000 14.235
16.62000 18.055
16.64000 17.959
16.66000 8.599
16.68000 10.540
16.70000 14.950
16.72000 16.019
16.74000 12.885
16.76000 -1.914
16.78000 2.204
16.80000 3.318
16.82000 0.827
16.84000 1.976
16.86000 1.924
16.88000 2.018
16.90000 2.613
16.92000 3.588
16.94000 6.651
16.96000 9.694
16.98000 9.780
17.00000 0.999
17.02000 0.226
17.04000 8.222
17.06000 6.246
17.08000 13.131
17.10000 0.896
17.12000 -2.060
17.14000 4.977
17.16000 2.591
17.18000 -0.058
17.20000 -3.231
17.22000 3.348
17.24000 5.155
17.26000 9.615
17.28000 12.797
17.30000 8.724
17.32000 2.332
17.34000 8.553
17.36000 9.711
17.38000 8.790
17.40000 7.826
17.42000 1.952
17.44000 6.427
17.46000 0.797
17.48000 8.126
17.50000 8.410
17.52000 8.967
17.54000 10.367
17.56000 3.669
17.58000 4.921
17.60000 4.399
17.62000 2.614
17.64000 6.275
17.66000 6.209
17.68000 3.297
17.70000 0.788
17.72000 -0.431
17.74000 -2.852
17.76000 7.804
17.78000 10.085
17.80000 -2.569
17.82000 -4.367
17.84000 5.385
17.86000 2.916
17.88000 0.053
17.90000 -0.264
17.92000 -1.485
17.94000 0.578
17.96000 9.697
17.98000 11.466
18.00000 10.347
18.02000 5.870
18.04000 8.154
18.06000 2.776
18.08000 5.861
18.10000 2.859
18.12000 0.385
18.14000 1.061
18.16000 9.249
18.18000 9.522
18.20000 7.224
18.22000 5.334
18.24000 -4.339
18.26000 3.901
18.28000 4.953
18.30000 4.960
18.32000 4.530
18.34000 4.917
18.36000 4.953
18.38000 5.511
18.40000 2.374
18.42000 8.192
18.44000 -0.065
18.46000 1.019
18.48000 1.166
18.50000 10.572
18.52000 1.993
18.54000 -1.040
18.56000 8.049
18.58000 3.993
18.60000 -0.621
18.62000 1.147
18.64000 2.175
18.66000 1.900
18.68000 2.693
18.70000 2.445
18.72000 -2.563
18.74000 5.985
18.76000 2.626
18.78000 -0.353
18.80000 6.729
18.82000 8.819
18.84000 5.049
18.86000 10.006
18.88000 8.171
18.90000 5.228
18.92000 1.975
18.94000 4.905
18.96000 7.078
18.98000 0.233
19.00000 -2.424
19.02000 2.174
19.04000 5.343
19.06000 3.562
19.08000 5.084
19.10000 9.191
19.12000 6.464
19.14000 -0.535
19.16000 3.380
19.18000 7.904
19.20000 3.991
19.22000 2.938
19.24000 3.152
19.26000 4.750
19.28000 12.088
19.30000 6.632
19.32000 13.227
19.34000 9.351
19.36000 4.497
19.38000 10.078
19.40000 6.221
19.42000 -0.260
19.44000 -4.272
19.46000 3.485
19.48000 -0.508
19.50000 -4.271
19.52000 -0.336
19.54000 4.209
19.56000 7.360
19.58000 2.985
19.60000 8.069
19.62000 6.596
19.64000 6.947
19.66000 9.837
19.68000 4.432
19.70000 1.692
19.72000 4.903
19.74000 7.167
19.76000 1.701
19.78000 -0.870
19.80000 2.235
19.82000 -0.628
19.84000 3.574
19.86000 4.621
19.88000 3.586
19.90000 0.527
19.92000 2.531
19.94000 2.633
19.96000 8.081
19.98000 5.087
20.00000 7.496
20.02000 7.208
20.04000 6.287
20.06000 8.090
20.08000 4.461
20.10000 7.414
20.12000 0.240
20.14000 2.657
20.16000 4.394
20.18000 11.435
20.20000 5.500
20.22000 2.913
20.24000 8.212
20.26000 9.083
20.28000 4.277
20.30000 1.020
20.32000 1.099
20.34000 -1.956
20.36000 -4.242
20.38000 0.592
20.40000 3.385
20.42000 4.644
20.44000 3.266
20.46000 1.097
20.48000 0.098
20.50000 1.162
20.52000 10.317
20.54000 6.706
20.56000 3.967
20.58000 7.447
20.60000 4.637
20.62000 -0.732
20.64000 -1.072
20.66000 2.105
20.68000 3.763
20.70000 4.342
20.72000 -0.718
20.74000 -0.723
20.76000 6.299
20.78000 6.390
20.80000 1.672
20.82000 -0.954
20.84000 0.674
20.86000 7.317
20.88000 2.291
20.90000 2.452
20.92000 2.639
20.94000 1.241
20.96000 -1.984
20.98000 -3.738
21.00000 1.998
21.02000 5.471
21.04000 6.016
21.06000 0.127
21.08000 -3.501
21.10000 1.949
21.12000 9.425
21.14000 4.488
21.16000 5.647
21.18000 6.484
21.20000 6.269
21.22000 0.642
21.24000 3.645
21.26000 3.691
21.28000 2.343
21.30000 5.368
21.32000 5.543
21.34000 5.599
21.36000 2.636
21.38000 -1.219
21.40000 -4.177
21.42000 5.119
21.44000 2.312
21.46000 4.750
21.48000 7.023
21.50000 4.984
21.52000 1.899
21.54000 -0.582
21.56000 1.033
21.58000 3.172
21.60000 3.733
21.62000 0.072
21.64000 3.482
21.66000 3.300
21.68000 1.697
21.70000 4.696
21.72000 2.779
21.74000 -0.903
21.76000 1.165
21.78000 13.468
21.80000 6.400
21.82000 2.351
21.84000 5.134
21.86000 11.063
21.88000 2.429
21.90000 0.499
21.92000 3.549
21.94000 6.726
21.96000 6.258
21.98000 7.302
22.00000 5.902
22.02000 6.813
22.04000 0.204
22.06000 3.170
22.08000 2.992
22.10000 3.636
22.12000 2.682
22.14000 -2.861
22.16000 5.949
22.18000 1.196
22.20000 0.319
22.22000 5.727
22.24000 4.601
22.26000 4.043
22.28000 0.319
22.30000 1.769
22.32000 2.510
22.34000 8.935
22.36000 8.994
22.38000 1.781
22.40000 -4.105
22.42000 -0.428
22.44000 4.410
22.46000 7.985
22.48000 7.483
22.50000 5.065
22.52000 2.804
22.54000 3.125
22.56000 6.953
22.58000 5.521
22.60000 7.384
22.62000 4.111
22.64000 -4.083
22.66000 -0.515
22.68000 6.694
22.70000 10.068
22.72000 9.204
22.74000 3.121
22.76000 7.811
22.78000 10.185
22.80000 9.086
22.82000 5.041
22.84000 5.438
22.86000 3.501
22.88000 4.294
22.90000 0.709
22.92000 0.964
22.94000 1.634
22.96000 3.393
22.98000 3.854
23.00000 2.815
23.02000 -2.881
23.04000 -4.058
23.06000 -3.053
23.08000 2.671
23.10000 7.653
23.12000 9.481
23.14000 9.164
23.16000 10.229
23.18000 7.949
23.20000 6.201
23.22000 5.725
23.24000 6.540
23.26000 4.261
23.28000 3.939
23.30000 5.076
23.32000 7.649
23.34000 6.924
23.36000 6.376
23.38000 7.285
23.40000 3.311
23.42000 7.085
23.44000 8.684
23.46000 8.832
23.48000 9.536
23.50000 4.633
23.52000 2.654
23.54000 4.296
23.56000 8.466
23.58000 6.769
23.60000 4.522
23.62000 8.842
23.64000 7.828
23.66000 3.816
23.68000 8.253
23.70000 9.787
23.72000 4.861
23.74000 3.998
23.76000 3.084
23.78000 2.142
23.80000 3.863
23.82000 4.219
23.84000 6.077
23.86000 3.010
23.88000 -1.003
23.90000 -2.062
23.92000 2.204
23.94000 2.420
23.96000 1.871
23.98000 4.036
24.00000 5.489
24.02000 2.671
24.04000 1.628
24.06000 1.897
24.08000 0.744
24.10000 4.519
24.12000 5.879
24.14000 4.257
24.16000 1.038
24.18000 0.838
24.20000 0.069
24.22000 2.165
24.24000 -4.016
24.26000 -3.114
24.28000 4.208
24.30000 2.890
24.32000 9.084
24.34000 6.617
24.36000 9.438
24.38000 0.632
24.40000 -0.261
24.42000 -1.162
24.44000 -1.692
24.46000 3.914
24.48000 4.843
24.50000 -1.600
24.52000 -1.625
24.54000 -1.871
24.56000 1.761
24.58000 2.319
24.60000 4.678
24.62000 7.725
24.64000 3.195
24.66000 0.338
24.68000 0.600
24.70000 8.470
24.72000 5.875
24.74000 5.693
24.76000 0.875
24.78000 -3.988
24.80000 -0.963
24.82000 3.971
24.84000 5.794
24.86000 2.997
24.88000 3.182
24.90000 3.513
24.92000 1.386
24.94000 4.070
24.96000 4.266
24.98000 -1.385
25.00000 -1.005
25.02000 5.499
25.04000 6.298
25.06000 6.981
25.08000 3.870
25.10000 -2.386
25.12000 0.419
25.14000 3.786
25.16000 4.204
25.18000 1.172
25.20000 -2.521
25.22000 -0.061
25.24000 2.211
25.26000 2.779
25.28000 -3.965
25.30000 -1.471
25.32000 4.348
25.34000 3.225
25.36000 3.017
25.38000 9.070
25.40000 5.267
25.42000 3.432
25.44000 3.121
25.46000 -2.151
25.48000 0.343
25.50000 3.455
25.52000 0.725
25.54000 -1.820
25.56000 -1.463
25.58000 -1.217
25.60000 3.324
25.62000 8.767
25.64000 6.012
25.66000 6.657
25.68000 2.610
25.70000 -0.993
25.72000 -1.260
25.74000 0.977
25.76000 -2.423
25.78000 3.659
25.80000 7.776
25.82000 4.399
25.84000 1.516
25.86000 -2.846
25.88000 3.207
25.90000 5.908
25.92000 1.684
25.94000 0.233
25.96000 2.537
25.98000 8.199
26.00000 3.556
26.02000 5.659
26.04000 4.825
26.06000 6.531
26.08000 4.482
26.10000 -2.599
26.12000 4.949
26.14000 5.747
26.16000 3.913
26.18000 3.775
26.20000 2.128
26.22000 -3.899
26.24000 -1.301
26.26000 2.152
26.28000 -2.163
26.30000 -2.164
26.32000 3.395
26.34000 8.565
26.36000 3.349
26.38000 3.741
26.40000 1.041
26.42000 8.291
26.44000 8.410
26.46000 1.181
26.48000 -0.318
26.50000 -2.764
26.52000 -1.772
26.54000 -2.915
26.56000 0.257
26.58000 0.062
26.60000 -2.215
26.62000 -1.422
26.64000 4.910
26.66000 5.410
26.68000 5.112
26.70000 -0.052
26.72000 0.277
26.74000 2.164
26.76000 4.519
26.78000 1.039
26.80000 -3.479
26.82000 -2.038
26.84000 -0.505
26.86000 -1.068
26.88000 -2.319
26.90000 -1.139
26.92000 2.141
26.94000 -2.816
26.96000 -3.878
26.98000 -0.599
27.00000 1.557
27.02000 4.605
27.04000 2.638
27.06000 2.268
27.08000 -2.085
27.10000 -2.456
27.12000 7.349
27.14000 8.881
27.16000 2.371
27.18000 2.873
27.20000 4.913
27.22000 4.898
27.24000 3.498
27.26000 0.973
27.28000 -1.135
27.30000 0.671
27.32000 8.696
27.34000 6.234
27.36000 4.960
27.38000 2.157
27.40000 -0.653
27.42000 -0.037
27.44000 -2.373
27.46000 -2.124
27.48000 -0.500
27.50000 2.701
27.52000 4.035
27.54000 3.561
27.56000 5.085
27.58000 0.639
27.60000 -2.183
27.62000 4.917
27.64000 5.153
27.66000 1.848
27.68000 2.027
27.70000 4.319
27.72000 3.915
27.74000 0.685
27.76000 -0.713
27.78000 2.416
27.80000 6.118
27.82000 3.443
27.84000 1.966
27.86000 2.983
27.88000 0.023
27.90000 -1.942
27.92000 3.412
27.94000 5.698
27.96000 1.542
27.98000 1.805
28.00000 6.115
28.02000 4.378
28.04000 2.380
28.06000 8.078
28.08000 4.074
28.10000 2.031
28.12000 6.192
28.14000 6.918
28.16000 4.173
28.18000 1.717
28.20000 0.937
28.22000 3.537
28.24000 7.701
28.26000 6.468
28.28000 4.003
28.30000 2.192
28.32000 1.969
28.34000 5.681
28.36000 2.566
28.38000 -1.374
28.40000 -1.302
28.42000 6.160
28.44000 5.012
28.46000 4.806
28.48000 7.570
28.50000 8.556
28.52000 0.814
28.54000 0.673
28.56000 5.447
28.58000 3.864
28.60000 -3.762
28.62000 5.442
28.64000 7.325
28.66000 8.182
28.68000 4.158
28.70000 2.579
28.72000 4.294
28.74000 4.808
28.76000 3.027
28.78000 -2.341
28.80000 -0.562
28.82000 2.762
28.84000 6.966
28.86000 3.261
28.88000 1.025
28.90000 0.023
28.92000 10.552
28.94000 7.059
28.96000 -1.649
28.98000 2.831
29.00000 6.557
29.02000 5.900
29.04000 0.394
29.06000 3.505
29.08000 3.663
29.10000 2.842
29.12000 2.947
29.14000 5.350
29.16000 1.903
29.18000 -0.952
29.20000 -2.145
29.22000 0.645
29.24000 0.532
29.26000 3.603
29.28000 1.485
29.30000 1.713
29.32000 4.792
29.34000 4.504
29.36000 8.643
29.38000 6.609
29.40000 10.280
29.42000 7.132
29.44000 0.523
29.46000 3.091
29.48000 3.911
29.50000 2.920
29.52000 5.126
29.54000 3.719
29.56000 0.375
29.58000 -1.691
29.60000 -1.656
29.62000 5.306
29.64000 5.704
29.66000 3.475
29.68000 1.734
29.70000 -0.654
29.72000 1.869
29.74000 5.581
29.76000 -0.323
29.78000 4.060
29.80000 2.205
29.82000 2.786
29.84000 3.116
29.86000 3.334
29.88000 2.377
29.90000 -0.108
29.92000 0.643
29.94000 -2.053
29.96000 5.944
29.98000 3.055
30.00000 0.465
30.02000 -3.147
30.04000 2.570
30.06000 4.762
30.08000 1.915
30.10000 4.083
30.12000 4.718
30.14000 6.742
30.16000 4.707
30.18000 2.798
30.20000 -0.625
30.22000 0.769
30.24000 0.725
30.26000 -3.701
30.28000 -2.070
30.30000 1.688
30.32000 0.561
30.34000 0.461
30.36000 6.959
30.38000 4.979
30.40000 0.642
30.42000 2.972
30.44000 3.380
30.46000 -0.157
30.48000 0.354
30.50000 -1.110
30.52000 -1.506
30.54000 4.749
30.56000 1.369
30.58000 4.986
30.60000 0.760
30.62000 -0.524
30.64000 0.044
30.66000 2.303
30.68000 0.978
30.70000 -0.106
30.72000 -0.068
30.74000 -1.530
30.76000 -0.243
30.78000 -2.460
30.80000 -3.250
30.82000 -2.214
30.84000 1.503
30.86000 0.269
30.88000 3.055
30.90000 3.710
30.92000 0.803
30.94000 3.236
30.96000 8.798
30.98000 12.333
31.00000 5.473
31.02000 1.074
31.04000 -1.669
31.06000 3.665
31.08000 4.411
31.10000 0.265
31.12000 0.173
31.14000 -2.612
31.16000 -2.041
31.18000 1.954
31.20000 6.619
31.22000 0.407
31.24000 2.368
31.26000 5.288
31.28000 5.684
31.30000 0.061
31.32000 0.947
31.34000 0.660
31.36000 1.743
31.38000 5.192
31.40000 -0.219
31.42000 -2.774
31.44000 4.130
31.46000 -1.223
31.48000 -1.214
31.50000 0.209
31.52000 0.774
31.54000 3.651
31.56000 8.460
31.58000 9.279
31.60000 3.141
31.62000 1.146
31.64000 5.244
31.66000 2.227
31.68000 -0.177
31.70000 0.749
31.72000 1.593
31.74000 -0.129
31.76000 -3.635
31.78000 0.284
31.80000 1.730
31.82000 0.742
31.84000 3.040
31.86000 1.101
31.88000 -0.848
31.90000 -1.170
31.92000 1.384
31.94000 1.991
31.96000 2.599
31.98000 3.794
32.00000 4.924
32.02000 3.976
32.04000 6.316
32.06000 2.089
32.08000 0.499
32.10000 -0.871
32.12000 0.585
32.14000 5.553
32.16000 3.680
32.18000 1.160
32.20000 -3.605
32.22000 -0.303
32.24000 7.060
32.26000 1.301
32.28000 0.356
32.30000 4.830
32.32000 2.272
32.34000 5.285
32.36000 4.125
32.38000 3.454
32.40000 1.487
32.42000 4.231
32.44000 4.389
32.46000 2.040
32.48000 0.920
32.50000 -3.600
32.52000 -1.260
32.54000 -0.285
32.56000 1.871
32.58000 0.658
32.60000 1.393
32.62000 5.538
32.64000 8.949
32.66000 7.787
32.68000 4.581
32.70000 0.080
32.72000 -3.272
32.74000 2.471
32.76000 1.870
32.78000 1.934
32.80000 2.067
32.82000 5.687
32.84000 2.305
32.86000 -0.309
32.88000 3.356
32.90000 -3.023
32.92000 1.113
32.94000 4.436
32.96000 4.255
32.98000 1.170
33.00000 1.349
33.02000 1.876
33.04000 1.305
33.06000 3.993
33.08000 3.754
33.10000 -2.073
33.12000 -3.464
33.14000 -2.556
33.16000 1.299
33.18000 4.261
33.20000 5.008
33.22000 1.459
33.24000 0.191
33.26000 2.941
33.28000 1.373
33.30000 -0.731
33.32000 -0.277
33.34000 1.922
33.36000 4.320
33.38000 7.554
33.40000 3.878
33.42000 3.153
33.44000 2.657
33.46000 8.040
33.48000 1.419
33.50000 1.035
33.52000 0.609
33.54000 4.754
33.56000 6.280
33.58000 4.700
33.60000 6.120
33.62000 4.187
33.64000 -1.986
33.66000 -1.307
33.68000 4.506
33.70000 9.337
33.72000 0.885
33.74000 -2.347
33.76000 -3.568
33.78000 0.649
33.80000 7.498
33.82000 9.098
33.84000 6.893
33.86000 5.713
33.88000 3.438
33.90000 1.829
33.92000 2.075
33.94000 3.618
33.96000 2.114
33.98000 4.057
34.00000 5.938
34.02000 2.494
34.04000 3.936
34.06000 2.614
34.08000 3.528
34.10000 0.219
34.12000 1.590
34.14000 6.690
34.16000 3.996
34.18000 2.515
34.20000 1.377
34.22000 0.683
34.24000 3.373
34.26000 2.959
34.28000 1.446
34.30000 1.947
34.32000 3.438
34.34000 3.843
34.36000 1.327
34.38000 -0.984
34.40000 2.089
34.42000 4.167
34.44000 4.659
34.46000 -1.353
34.48000 -0.264
34.50000 0.847
34.52000 -3.039
34.54000 -0.002
34.56000 -0.150
34.58000 -2.178
34.60000 2.669
34.62000 8.211
34.64000 6.113
34.66000 3.510
34.68000 4.285
34.70000 5.728
34.72000 5.556
34.74000 3.539
34.76000 3.580
34.78000 -3.553
34.80000 -1.766
34.82000 -1.988
34.84000 -0.791
34.86000 -2.023
34.88000 1.619
34.90000 -0.894
34.92000 -0.657
34.94000 1.574
34.96000 2.470
34.98000 2.358
35.00000 3.873
35.02000 -2.736
35.04000 1.167
35.06000 3.583
35.08000 2.740
35.10000 8.867
35.12000 8.698
35.14000 3.592
35.16000 1.217
35.18000 -0.405
35.20000 -0.090
35.22000 1.015
35.24000 5.598
35.26000 6.850
35.28000 5.933
35.30000 2.692
35.32000 1.340
35.34000 -0.950
35.36000 -0.907
35.38000 3.295
35.40000 5.291
35.42000 0.868
35.44000 3.206
35.46000 0.213
35.48000 3.692
35.50000 2.676
35.52000 -1.360
35.54000 -3.521
35.56000 -2.674
35.58000 -1.756
35.60000 3.201
35.62000 3.567
35.64000 6.501
35.66000 6.765
35.68000 4.563
35.70000 4.765
35.72000 2.542
35.74000 1.848
35.76000 1.639
35.78000 -1.965
35.80000 -1.864
35.82000 -1.509
35.84000 -2.333
35.86000 1.450
35.88000 7.219
35.90000 6.847
35.92000 1.426
35.94000 5.248
35.96000 7.632
35.98000 5.166
36.00000 3.788
36.02000 7.996
36.04000 10.001
36.06000 10.704
36.08000 4.292
36.10000 0.404
36.12000 -2.609
36.14000 -2.555
36.16000 -2.358
36.18000 3.888
36.20000 1.566
36.22000 4.308
36.24000 1.588
36.26000 -2.253
36.28000 0.957
36.30000 8.014
36.32000 10.944
36.34000 4.666
36.36000 1.794
36.38000 2.477
36.40000 3.343
36.42000 4.566
36.44000 5.240
36.46000 -0.942
36.48000 -3.522
36.50000 0.723
36.52000 0.472
36.54000 4.160
36.56000 2.039
36.58000 2.342
36.60000 1.509
36.62000 -1.582
36.64000 -0.154
36.66000 4.287
36.68000 6.252
36.70000 4.812
36.72000 1.821
36.74000 0.221
36.76000 1.272
36.78000 4.026
36.80000 4.455
36.82000 4.754
36.84000 2.275
36.86000 1.668
36.88000 2.407
36.90000 4.554
36.92000 8.272
36.94000 4.760
36.96000 4.015
36.98000 -1.511
37.00000 1.573
37.02000 6.416
37.04000 8.248
37.06000 4.551
37.08000 2.795
37.10000 2.059
37.12000 7.562
37.14000 4.772
37.16000 7.444
37.18000 6.240
37.20000 6.631
37.22000 3.323
37.24000 -1.461
37.26000 -3.541
37.28000 -0.376
37.30000 4.168
37.32000 6.727
37.34000 8.413
37.36000 4.193
37.38000 6.716
37.40000 4.225
37.42000 5.581
37.44000 7.525
37.46000 10.222
37.48000 14.073
37.50000 11.370
37.52000 8.361
37.54000 8.226
37.56000 8.036
37.58000 5.620
37.60000 5.058
37.62000 6.729
37.64000 6.312
37.66000 1.947
37.68000 5.937
37.70000 6.722
37.72000 6.554
37.74000 5.290
37.76000 4.545
37.78000 4.604
37.80000 6.185
37.82000 9.512
37.84000 12.146
37.86000 12.842
37.88000 9.162
37.90000 8.479
37.92000 6.611
37.94000 10.013
37.96000 12.870
37.98000 12.107
38.00000 9.264
38.02000 11.370
38.04000 15.965
38.06000 14.905
38.08000 15.350
38.10000 13.160
38.12000 14.170
38.14000 17.801
38.16000 14.145
38.18000 10.752
38.20000 16.724
38.22000 20.003
38.24000 13.073
38.26000 16.413
38.28000 17.301
38.30000 16.612
38.32000 17.281
38.34000 20.412
38.36000 24.707
38.38000 21.761
38.40000 15.731
38.42000 15.392
38.44000 16.118
38.46000 16.548
38.48000 19.391
38.50000 23.260
38.52000 28.209
38.54000 26.041
38.56000 24.575
38.58000 27.150
38.60000 27.093
38.62000 25.965
38.64000 28.169
38.66000 28.911
38.68000 28.086
38.70000 26.099
38.72000 25.608
38.74000 26.863
38.76000 26.813
38.78000 29.836
38.80000 31.234
38.82000 35.122
38.84000 36.079
38.86000 35.913
38.88000 45.019
38.90000 44.796
38.92000 42.912
38.94000 43.790
38.96000 41.220
38.98000 42.338
39.00000 46.876
39.02000 48.769
39.04000 50.136
39.06000 56.206
39.08000 53.552
39.10000 54.581
39.12000 57.583
39.14000 55.117
39.16000 56.422
39.18000 65.004
39.20000 68.718
39.22000 72.922
39.24000 75.826
39.26000 73.533
39.28000 81.042
39.30000 83.444
39.32000 86.738
39.34000 89.267
39.36000 89.986
39.38000 101.349
39.40000 99.786
39.42000 102.732
39.44000 105.875
39.46000 118.148
39.48000 121.567
39.50000 128.288
39.52000 139.810
39.54000 142.186
39.56000 149.680
39.58000 156.023
39.60000 161.912
39.62000 174.870
39.64000 183.965
39.66000 186.208
39.68000 200.666
39.70000 210.838
39.72000 223.858
39.74000 233.661
39.76000 248.602
39.78000 257.543
39.80000 266.903
39.82000 280.617
39.84000 288.570
39.86000 310.338
39.88000 331.506
39.90000 345.056
39.92000 363.093
39.94000 385.861
39.96000 391.369
39.98000 403.141
40.00000 419.580
40.02000 437.075
40.04000 457.352
40.06000 468.493
40.08000 488.887
40.10000 499.048
40.12000 514.722
40.14000 531.643
40.16000 534.984
40.18000 545.029
40.20000 549.961
40.22000 554.190
40.24000 562.667
40.26000 566.986
40.28000 573.811
40.30000 573.900
40.32000 573.779
40.34000 572.239
40.36000 566.082
40.38000 562.419
40.40000 558.238
40.42000 542.250
40.44000 529.653
40.46000 522.750
40.48000 514.260
40.50000 500.583
40.52000 490.734
40.54000 471.936
40.56000 452.354
40.58000 434.092
40.60000 422.246
40.62000 407.027
40.64000 387.654
40.66000 372.946
40.68000 354.613
40.70000 343.597
40.72000 324.319
40.74000 310.884
40.76000 298.840
40.78000 286.652
40.80000 272.695
40.82000 255.849
40.84000 243.743
40.86000 237.222
40.88000 223.684
40.90000 213.655
40.92000 197.383
40.94000 187.005
40.96000 178.338
40.98000 173.618
41.00000 169.445
41.02000 150.350
41.04000 140.391
41.06000 134.360
41.08000 131.889
41.10000 120.982
41.12000 115.589
41.14000 110.697
41.16000 107.415
41.18000 102.730
41.20000 96.429
41.22000 92.182
41.24000 84.563
41.26000 87.931
41.28000 84.265
41.30000 77.072
41.32000 70.251
41.34000 64.250
41.36000 61.733
41.38000 55.612
41.40000 52.530
41.42000 51.433
41.44000 50.020
41.46000 49.980
41.48000 49.328
41.50000 50.312
41.52000 49.089
41.54000 44.737
41.56000 41.909
41.58000 38.371
41.60000 36.226
41.62000 31.407
41.64000 35.582
41.66000 31.695
41.68000 28.574
41.70000 31.079
41.72000 27.051
41.74000 20.812
41.76000 23.585
41.78000 24.504
41.80000 23.842
41.82000 25.650
41.84000 22.930
41.86000 21.000
41.88000 18.560
41.90000 15.355
41.92000 11.326
41.94000 10.630
41.96000 13.916
41.98000 14.720
42.00000 11.464
42.02000 7.349
42.04000 9.643
42.06000 10.509
42.08000 11.612
42.10000 14.225
42.12000 10.214
42.14000 7.290
42.16000 6.573
42.18000 10.640
42.20000 8.781
42.22000 7.226
42.24000 7.406
42.26000 7.136
42.28000 5.488
42.30000 6.844
42.32000 4.691
42.34000 4.687
42.36000 5.029
42.38000 10.736
42.40000 7.440
42.42000 5.827
42.44000 5.417
42.46000 4.228
42.48000 4.790
42.50000 3.959
42.52000 4.906
42.54000 3.157
42.56000 3.526
42.58000 3.468
42.60000 4.906
42.62000 5.990
42.64000 2.534
42.66000 2.581
42.68000 1.475
42.70000 0.822
42.72000 1.421
42.74000 4.463
42.76000 4.117
42.78000 1.916
42.80000 2.737
42.82000 3.595
42.84000 2.588
42.86000 5.460
42.88000 3.204
42.90000 3.657
42.92000 2.286
42.94000 3.445
42.96000 4.787
42.98000 3.900
43.00000 1.211
43.02000 -1.784
43.04000 5.966
43.06000 8.999
43.08000 5.955
43.10000 6.479
43.12000 5.169
43.14000 3.553
43.16000 0.852
43.18000 -3.412
43.20000 0.297
43.22000 0.419
43.24000 -3.406
43.26000 -1.277
43.28000 0.365
43.30000 -1.031
43.32000 -2.285
43.34000 -0.848
43.36000 1.934
43.38000 1.283
43.40000 4.457
43.42000 1.799
43.44000 -1.336
43.46000 -0.274
43.48000 -0.457
43.50000 1.769
43.52000 2.756
43.54000 2.399
43.56000 1.838
43.58000 0.925
43.60000 -0.470
43.62000 -0.444
43.64000 -0.563
43.66000 -0.109
43.68000 2.524
43.70000 0.909
43.72000 -2.400
43.74000 -1.219
43.76000 0.869
43.78000 1.164
43.80000 -0.153
43.82000 -0.100
43.84000 -0.436
43.86000 2.646
43.88000 1.412
43.90000 -1.485
43.92000 -0.252
43.94000 0.703
43.96000 -0.905
43.98000 -2.165
44.00000 -0.770
44.02000 -1.058
44.04000 -2.345
44.06000 -2.218
44.08000 -1.870
44.10000 -3.381
44.12000 -1.870
44.14000 -0.373
44.16000 3.830
44.18000 0.836
44.20000 5.199
44.22000 3.712
44.24000 2.997
44.26000 0.814
44.28000 0.890
44.30000 2.555
44.32000 2.968
44.34000 0.089
44.36000 -2.969
44.38000 -0.417
44.40000 0.521
44.42000 -1.178
44.44000 1.510
44.46000 6.397
44.48000 1.949
44.50000 1.090
44.52000 0.168
44.54000 0.619
44.56000 1.113
44.58000 -2.239
44.60000 1.691
44.62000 3.283
44.64000 6.453
44.66000 2.247
44.68000 -0.268
44.70000 -2.916
44.72000 -3.128
44.74000 -1.300
44.76000 -1.315
44.78000 -0.901
44.80000 3.102
44.82000 0.683
44.84000 -1.626
44.86000 -3.373
44.88000 1.960
44.90000 5.017
44.92000 5.500
44.94000 6.702
44.96000 5.998
44.98000 4.608
45.00000 2.618
45.02000 3.638
45.04000 5.948
45.06000 4.517
45.08000 4.827
45.10000 5.091
45.12000 2.232
45.14000 4.846
45.16000 4.133
45.18000 4.608
45.20000 11.008
45.22000 4.495
45.24000 7.014
45.26000 8.419
45.28000 2.188
45.30000 -1.214
45.32000 2.615
45.34000 7.757
45.36000 9.371
45.38000 9.283
45.40000 5.622
45.42000 5.379
45.44000 9.062
45.46000 13.653
45.48000 12.381
45.50000 14.521
45.52000 17.563
45.54000 18.484
45.56000 16.983
45.58000 14.481
45.60000 17.956
45.62000 18.772
45.64000 15.234
45.66000 15.041
45.68000 22.931
45.70000 19.917
45.72000 18.777
45.74000 24.536
45.76000 24.025
45.78000 21.211
45.80000 21.067
45.82000 24.405
45.84000 26.393
45.86000 23.788
45.88000 25.045
45.90000 28.255
45.92000 27.504
45.94000 27.938
45.96000 28.214
45.98000 29.515
46.00000 37.623
46.02000 35.576
46.04000 34.337
46.06000 35.221
46.08000 37.604
46.10000 41.654
46.12000 42.733
46.14000 44.414
46.16000 40.748
46.18000 42.627
46.20000 50.267
46.22000 48.630
46.24000 49.694
46.26000 57.984
46.28000 59.313
46.30000 52.637
46.32000 56.104
46.34000 62.537
46.36000 62.662
46.38000 61.369
46.40000 64.594
46.42000 65.931
46.44000 68.649
46.46000 66.499
46.48000 71.914
46.50000 76.428
46.52000 78.920
46.54000 74.839
46.56000 74.729
46.58000 79.489
46.60000 81.587
46.62000 90.933
46.64000 93.178
46.66000 90.314
46.68000 85.928
46.70000 83.226
46.72000 87.287
46.74000 89.655
46.76000 92.871
46.78000 95.567
46.80000 98.325
46.82000 98.553
46.84000 94.168
46.86000 94.418
46.88000 94.920
46.90000 97.614
46.92000 94.866
46.94000 90.254
46.96000 89.578
46.98000 90.242
47.00000 95.081
47.02000 98.202
47.04000 98.523
47.06000 96.743
47.08000 101.303
47.10000 100.025
47.12000 89.325
47.14000 88.757
47.16000 86.504
47.18000 85.529
47.20000 83.619
47.22000 82.597
47.24000 80.948
47.26000 80.435
47.28000 78.539
47.30000 79.236
47.32000 82.294
47.34000 77.996
47.36000 76.659
47.38000 77.605
47.40000 76.765
47.42000 67.054
47.44000 58.501
47.46000 62.815
47.48000 57.522
47.50000 60.691
47.52000 51.906
47.54000 55.875
47.56000 52.575
47.58000 51.394
47.60000 56.022
47.62000 46.117
47.64000 43.089
47.66000 40.369
47.68000 38.580
47.70000 38.859
47.72000 38.562
47.74000 33.855
47.76000 30.077
47.78000 39.334
47.80000 32.496
47.82000 33.117
47.84000 30.026
47.86000 30.503
47.88000 24.934
47.90000 23.735
47.92000 21.002
47.94000 15.774
47.96000 18.341
47.98000 19.751
48.00000 18.690
48.02000 17.891
48.04000 14.056
48.06000 13.399
48.08000 13.749
48.10000 14.519
48.12000 13.763
48.14000 8.671
48.16000 8.468
48.18000 11.210
48.20000 11.065
48.22000 12.270
48.24000 12.071
48.26000 8.295
48.28000 5.753
48.30000 9.362
48.32000 5.521
48.34000 4.733
48.36000 6.215
48.38000 5.430
48.40000 3.264
48.42000 2.462
48.44000 5.358
48.46000 5.253
48.48000 0.927
48.50000 4.545
48.52000 4.346
48.54000 1.670
48.56000 -0.067
48.58000 1.708
48.60000 3.314
48.62000 4.627
48.64000 -0.507
48.66000 0.550
48.68000 -0.808
48.70000 2.062
48.72000 0.316
48.74000 1.800
48.76000 -3.031
48.78000 -2.104
48.80000 1.671
48.82000 -1.875
48.84000 2.138
48.86000 3.974
48.88000 2.902
48.90000 5.717
48.92000 4.048
48.94000 3.262
48.96000 -1.075
48.98000 -1.562
49.00000 0.019
49.02000 -1.946
49.04000 -1.276
49.06000 2.101
49.08000 2.699
49.10000 1.018
49.12000 3.555
49.14000 2.728
49.16000 3.223
49.18000 -0.081
49.20000 0.120
49.22000 0.345
49.24000 -2.438
49.26000 -1.129
49.28000 3.475
49.30000 4.893
49.32000 1.865
49.34000 2.931
49.36000 5.418
49.38000 4.161
49.40000 4.419
49.42000 -0.650
49.44000 6.044
49.46000 6.583
49.48000 8.165
49.50000 5.878
49.52000 4.148
49.54000 2.536
49.56000 3.850
49.58000 1.705
49.60000 4.201
49.62000 1.364
49.64000 5.661
49.66000 5.897
49.68000 -1.386
49.70000 -0.423
49.72000 1.544
49.74000 -0.536
49.76000 1.878
49.78000 3.638
49.80000 -2.803
49.82000 -1.951
49.84000 2.139
49.86000 4.593
49.88000 2.832
49.90000 5.132
49.92000 4.723
49.94000 8.181
49.96000 5.500
49.98000 5.066
50.00000 6.937
50.02000 6.598
50.04000 5.262
50.06000 6.779
50.08000 2.400
50.10000 3.575
50.12000 4.463
50.14000 7.406
50.16000 5.959
50.18000 2.743
50.20000 5.455
50.22000 -0.067
50.24000 3.136
50.26000 3.659
50.28000 5.646
50.30000 4.182
50.32000 1.160
50.34000 0.121
50.36000 10.227
50.38000 7.589
50.40000 7.396
50.42000 6.247
50.44000 4.664
50.46000 5.333
50.48000 1.263
50.50000 0.691
50.52000 2.779
50.54000 -2.759
50.56000 1.423
50.58000 10.107
50.60000 7.954
50.62000 6.345
50.64000 5.828
50.66000 2.576
50.68000 5.344
50.70000 5.320
50.72000 3.381
50.74000 3.906
50.76000 4.559
50.78000 3.498
50.80000 4.737
50.82000 5.500
50.84000 6.119
50.86000 2.050
50.88000 3.728
50.90000 1.345
50.92000 0.303
50.94000 4.971
50.96000 6.861
50.98000 3.350
51.00000 3.704
51.02000 -0.200
51.04000 -0.148
51.06000 1.512
51.08000 -2.752
51.10000 -1.986
51.12000 -0.311
51.14000 0.115
51.16000 7.952
51.18000 4.391
51.20000 6.419
51.22000 6.229
51.24000 3.612
51.26000 1.748
51.28000 0.844
51.30000 4.674
51.32000 4.047
51.34000 2.924
51.36000 1.016
51.38000 -0.226
51.40000 2.131
51.42000 1.788
51.44000 6.656
51.46000 4.594
51.48000 4.869
51.50000 10.501
51.52000 7.338
51.54000 -0.438
51.56000 -0.251
51.58000 3.504
51.60000 -0.115
51.62000 1.153
51.64000 -0.217
51.66000 3.594
51.68000 7.044
51.70000 3.314
51.72000 4.090
51.74000 -0.504
51.76000 -2.719
51.78000 1.306
51.80000 1.161
51.82000 2.993
51.84000 6.569
51.86000 2.995
51.88000 2.813
51.90000 4.120
51.92000 3.879
51.94000 1.662
51.96000 5.842
51.98000 8.979
52.00000 5.306
52.02000 3.451
52.04000 1.688
52.06000 -0.103
52.08000 1.399
52.10000 3.162
52.12000 2.385
52.14000 0.189
52.16000 2.190
52.18000 5.916
52.20000 2.686
52.22000 4.268
52.24000 5.777
52.26000 5.182
52.28000 3.833
52.30000 1.757
52.32000 1.804
52.34000 -2.147
52.36000 -0.116
52.38000 -2.703
52.40000 -1.141
52.42000 2.792
52.44000 5.377
52.46000 8.595
52.48000 5.235
52.50000 0.027
52.52000 -2.707
52.54000 -0.186
52.56000 -2.409
52.58000 -0.875
52.60000 2.406
52.62000 1.596
52.64000 0.688
52.66000 3.451
52.68000 0.400
52.70000 -0.783
52.72000 0.007
52.74000 4.060
52.76000 1.202
52.78000 1.499
52.80000 -0.507
52.82000 0.794
52.84000 -1.384
52.86000 2.814
52.88000 3.086
52.90000 3.463
52.92000 6.112
52.94000 4.886
52.96000 2.423
52.98000 3.822
53.00000 -0.980
53.02000 0.117
53.04000 3.478
53.06000 2.146
53.08000 -1.002
53.10000 -2.710
53.12000 -1.153
53.14000 1.973
53.16000 0.969
53.18000 -1.171
53.20000 -0.651
53.22000 3.110
53.24000 -1.359
53.26000 -1.245
53.28000 -1.049
53.30000 1.166
53.32000 -0.335
53.34000 1.164
53.36000 2.592
53.38000 0.711
53.40000 -0.234
53.42000 0.269
53.44000 0.371
53.46000 -1.173
53.48000 -1.047
53.50000 0.328
53.52000 1.505
53.54000 4.761
53.56000 4.463
53.58000 0.189
53.60000 0.095
53.62000 3.749
53.64000 -0.137
53.66000 3.528
53.68000 0.437
53.70000 0.892
53.72000 -0.176
53.74000 -0.600
53.76000 -2.031
53.78000 2.328
53.80000 0.380
53.82000 -2.686
53.84000 3.007
53.86000 4.001
53.88000 2.747
53.90000 4.115
53.92000 1.586
53.94000 1.627
53.96000 -2.680
53.98000 1.128
54.00000 2.449
54.02000 4.755
54.04000 2.152
54.06000 -2.196
54.08000 -1.335
54.10000 1.287
54.12000 -1.348
54.14000 -2.462
54.16000 2.408
54.18000 5.225
54.20000 2.718
54.22000 4.037
54.24000 2.662
54.26000 0.970
54.28000 -2.165
54.30000 -1.415
54.32000 -2.667
54.34000 -0.032
54.36000 1.875
54.38000 3.926
54.40000 5.805
54.42000 1.607
54.44000 2.314
54.46000 4.593
54.48000 3.920
54.50000 3.723
54.52000 2.711
54.54000 4.142
54.56000 -2.025
54.58000 1.806
54.60000 5.142
54.62000 6.679
54.64000 3.727
54.66000 7.880
54.68000 1.243
54.70000 0.249
54.72000 2.482
54.74000 3.819
54.76000 3.630
54.78000 3.180
54.80000 1.536
54.82000 1.146
54.84000 3.012
54.86000 3.378
54.88000 -0.127
54.90000 0.023
54.92000 2.588
54.94000 4.277
54.96000 5.702
54.98000 3.855
55.00000 5.413
55.02000 3.178
55.04000 3.846
55.06000 -2.417
55.08000 -0.373
55.10000 2.201
55.12000 5.002
55.14000 2.172
55.16000 -0.104
55.18000 0.838
55.20000 0.814
55.22000 4.027
55.24000 0.919
55.26000 -0.230
55.28000 -0.185
55.30000 -1.157
55.32000 0.811
55.34000 1.809
55.36000 1.194
55.38000 1.553
55.40000 0.914
55.42000 -1.064
55.44000 -1.590
55.46000 0.039
55.48000 1.691
55.50000 -2.632
55.52000 -0.069
55.54000 -0.950
55.56000 -1.346
55.58000 0.271
55.60000 5.221
55.62000 2.529
55.64000 -1.210
55.66000 -1.924
55.68000 1.765
55.70000 3.628
55.72000 6.064
55.74000 1.615
55.76000 -1.145
55.78000 0.234
55.80000 3.932
55.82000 4.924
55.84000 5.297
55.86000 1.646
55.88000 -2.565
55.90000 0.173
55.92000 5.814
55.94000 5.234
55.96000 3.457
55.98000 2.914
56.00000 5.554
56.02000 2.674
56.04000 0.297
56.06000 5.064
56.08000 6.247
56.10000 1.033
56.12000 0.138
56.14000 3.291
56.16000 4.692
56.18000 3.649
56.20000 3.202
56.22000 -0.578
56.24000 0.021
56.26000 4.136
56.28000 6.715
56.30000 3.623
56.32000 0.961
56.34000 2.562
56.36000 2.694
56.38000 1.968
56.40000 8.285
56.42000 2.766
56.44000 1.548
56.46000 1.530
56.48000 0.948
56.50000 -0.869
56.52000 2.905
56.54000 5.016
56.56000 3.843
56.58000 -0.050
56.60000 -2.599
56.62000 -0.845
56.64000 -0.129
56.66000 2.117
56.68000 3.878
56.70000 3.025
56.72000 6.828
56.74000 3.702
56.76000 1.047
56.78000 -2.591
56.80000 1.546
56.82000 6.148
56.84000 1.966
56.86000 1.691
56.88000 -2.418
56.90000 -1.792
56.92000 0.992
56.94000 2.379
56.96000 4.520
56.98000 4.850
57.00000 4.314
57.02000 1.922
57.04000 1.802
57.06000 5.401
57.08000 2.380
57.10000 6.954
57.12000 9.008
57.14000 5.341
57.16000 2.260
57.18000 1.224
57.20000 0.531
57.22000 0.586
57.24000 3.118
57.26000 4.464
57.28000 3.519
57.30000 6.117
57.32000 4.398
57.34000 3.348
57.36000 4.163
57.38000 0.403
57.40000 0.185
57.42000 5.579
57.44000 2.781
57.46000 0.028
57.48000 1.195
57.50000 -2.561
57.52000 2.341
57.54000 1.445
57.56000 -2.140
57.58000 1.359
57.60000 1.910
57.62000 1.287
57.64000 4.485
57.66000 3.524
57.68000 3.101
57.70000 4.412
57.72000 4.704
57.74000 3.163
57.76000 1.041
57.78000 2.292
57.80000 3.241
57.82000 1.903
57.84000 1.190
57.86000 1.455
57.88000 0.104
57.90000 3.049
57.92000 3.641
57.94000 5.164
57.96000 3.993
57.98000 3.904
58.00000 2.314
58.02000 3.996
58.04000 2.222
58.06000 -0.689
58.08000 2.198
58.10000 4.416
58.12000 6.561
58.14000 2.285
58.16000 0.384
58.18000 3.643
58.20000 0.779
58.22000 0.910
58.24000 1.911
58.26000 4.408
58.28000 5.113
58.30000 2.747
58.32000 2.848
58.34000 7.258
58.36000 4.622
58.38000 0.067
58.40000 1.042
58.42000 3.936
58.44000 4.331
58.46000 3.003
58.48000 0.587
58.50000 -0.401
58.52000 4.579
58.54000 1.507
58.56000 2.599
58.58000 7.004
58.60000 3.633
58.62000 1.324
58.64000 2.604
58.66000 0.605
58.68000 -2.521
58.70000 -1.300
58.72000 3.991
58.74000 3.075
58.76000 1.793
58.78000 0.293
58.80000 4.164
58.82000 4.575
58.84000 1.065
58.86000 2.277
58.88000 5.733
58.90000 4.039
58.92000 2.761
58.94000 3.884
58.96000 2.331
58.98000 2.948
59.00000 -0.174
59.02000 -0.161
59.04000 1.556
59.06000 2.840
59.08000 5.747
59.10000 1.574
59.12000 1.796
59.14000 -0.542
59.16000 -0.615
59.18000 -1.021
59.20000 2.920
59.22000 0.063
59.24000 1.101
59.26000 5.115
59.28000 7.140
59.30000 2.551
59.32000 2.047
59.34000 -2.524
59.36000 -1.133
59.38000 1.326
59.40000 4.040
59.42000 2.787
59.44000 5.277
59.46000 4.475
59.48000 4.598
59.50000 4.741
59.52000 3.203
59.54000 4.562
59.56000 2.764
59.58000 2.638
59.60000 -2.479
59.62000 -0.626
59.64000 0.451
59.66000 1.893
59.68000 2.036
59.70000 -1.667
59.72000 -1.036
59.74000 0.464
59.76000 1.466
59.78000 -2.093
59.80000 -1.973
59.82000 -2.205
59.84000 -1.667
59.86000 2.749
59.88000 -0.292
59.90000 -0.461
59.92000 2.787
59.94000 3.274
59.96000 0.957
59.98000 2.730
60.00000 4.044
60.02000 2.319
60.04000 5.072
60.06000 4.420
60.08000 1.310
60.10000 2.024
60.12000 2.677
60.14000 -2.497
60.16000 -1.901
60.18000 2.586
60.20000 2.413
60.22000 4.539
60.24000 0.331
60.26000 -0.746
60.28000 -2.168
60.30000 1.439
60.32000 2.061
60.34000 1.929
60.36000 4.654
60.38000 4.022
60.40000 -0.213
60.42000 0.299
60.44000 0.340
60.46000 3.650
60.48000 3.006
60.50000 1.262
60.52000 0.903
60.54000 2.297
60.56000 -0.361
60.58000 -2.106
60.60000 -0.274
60.62000 3.383
60.64000 4.111
60.66000 0.101
60.68000 0.525
60.70000 -0.725
60.72000 0.649
60.74000 2.770
60.76000 2.039
60.78000 1.726
60.80000 0.735
60.82000 -0.208
60.84000 3.507
60.86000 3.145
60.88000 5.699
60.90000 5.939
60.92000 5.137
60.94000 2.207
60.96000 1.937
60.98000 7.283
61.00000 9.616
61.02000 6.565
61.04000 5.399
61.06000 -2.447
61.08000 3.550
61.10000 5.597
61.12000 6.330
61.14000 3.692
61.16000 2.405
61.18000 3.603
61.20000 3.292
61.22000 2.841
61.24000 4.721
61.26000 2.268
61.28000 3.306
61.30000 2.072
61.32000 1.834
61.34000 -0.383
61.36000 1.368
61.38000 6.190
61.40000 7.971
61.42000 5.902
61.44000 1.341
61.46000 0.435
61.48000 1.173
61.50000 0.800
61.52000 -2.425
61.54000 -2.424
61.56000 1.645
61.58000 1.927
61.60000 5.263
61.62000 6.424
61.64000 3.310
61.66000 5.267
61.68000 5.259
61.70000 2.543
61.72000 0.857
61.74000 1.489
61.76000 5.207
61.78000 1.271
61.80000 0.341
61.82000 -0.925
61.84000 4.550
61.86000 4.031
61.88000 4.076
61.90000 1.291
61.92000 3.315
61.94000 4.105
61.96000 5.782
61.98000 5.681
62.00000 1.391
62.02000 0.197
62.04000 2.752
62.06000 -0.542
62.08000 0.383
62.10000 1.780
62.12000 1.859
62.14000 1.870
62.16000 5.646
62.18000 2.753
62.20000 2.290
62.22000 -0.043
62.24000 -2.222
62.26000 0.620
62.28000 1.276
62.30000 3.446
62.32000 2.864
62.34000 2.977
62.36000 2.386
62.38000 -1.788
62.40000 -1.975
62.42000 0.596
62.44000 1.767
62.46000 2.045
62.48000 0.103
62.50000 -2.437
62.52000 -0.119
62.54000 -0.652
62.56000 2.074
62.58000 2.268
62.60000 4.661
62.62000 6.381
62.64000 0.353
62.66000 -1.268
62.68000 -1.242
62.70000 1.759
62.72000 3.010
62.74000 3.614
62.76000 4.718
62.78000 2.187
62.80000 0.170
62.82000 -1.007
62.84000 0.949
62.86000 3.177
62.88000 -0.764
62.90000 -1.649
62.92000 -0.544
62.94000 2.031
62.96000 2.690
62.98000 1.237
63.00000 1.617
63.02000 2.528
63.04000 3.699
63.06000 1.605
63.08000 2.038
63.10000 0.378
63.12000 1.043
63.14000 5.626
63.16000 4.583
63.18000 0.339
63.20000 -2.052
63.22000 1.895
63.24000 3.061
63.26000 0.362
63.28000 1.797
63.30000 3.187
63.32000 3.630
63.34000 4.596
63.36000 2.415
63.38000 1.857
63.40000 0.345
63.42000 -1.363
63.44000 -0.999
63.46000 -0.596
63.48000 0.781
63.50000 1.279
63.52000 4.721
63.54000 1.166
63.56000 2.919
63.58000 3.469
63.60000 4.846
63.62000 4.789
63.64000 4.023
63.66000 3.081
63.68000 1.278
63.70000 1.754
63.72000 2.153
63.74000 0.330
63.76000 0.640
63.78000 1.477
63.80000 0.405
63.82000 -2.422
63.84000 0.202
63.86000 4.321
63.88000 7.166
63.90000 5.905
63.92000 -0.377
63.94000 -2.416
63.96000 -0.720
63.98000 2.175
64.00000 0.639
64.02000 -0.339
64.04000 1.474
64.06000 -1.432
64.08000 2.745
64.10000 2.462
64.12000 0.821
64.14000 2.204
64.16000 1.080
64.18000 1.474
64.20000 -0.074
64.22000 4.399
64.24000 3.368
64.26000 1.581
64.28000 2.931
64.30000 2.414
64.32000 0.519
64.34000 3.460
64.36000 6.830
64.38000 1.916
64.40000 -0.261
64.42000 -0.507
64.44000 1.110
64.46000 0.838
64.48000 0.583
64.50000 0.284
64.52000 -0.690
64.54000 -0.701
64.56000 0.962
64.58000 1.814
64.60000 5.432
64.62000 0.228
64.64000 1.048
64.66000 0.492
64.68000 0.619
64.70000 -0.825
64.72000 -2.060
64.74000 -1.820
64.76000 -1.942
64.78000 -1.598
64.80000 0.734
64.82000 0.163
64.84000 0.138
64.86000 2.117
64.88000 -0.415
64.90000 1.307
64.92000 -1.066
64.94000 -0.755
64.96000 -0.177
64.98000 0.547
65.00000 3.651
65.02000 1.277
65.04000 0.812
65.06000 2.777
65.08000 1.096
65.10000 4.244
65.12000 3.537
65.14000 3.507
65.16000 1.421
65.18000 2.792
65.20000 0.156
65.22000 -2.361
65.24000 1.932
65.26000 2.493
65.28000 2.127
65.30000 2.171
65.32000 2.397
65.34000 -0.817
65.36000 0.536
65.38000 1.678
65.40000 1.625
65.42000 2.018
65.44000 3.372
65.46000 3.188
65.48000 3.253
65.50000 4.489
65.52000 3.364
65.54000 1.584
65.56000 -0.841
65.58000 2.679
65.60000 6.810
65.62000 4.649
65.64000 8.052
65.66000 4.863
65.68000 -0.371
65.70000 0.345
65.72000 -1.617
65.74000 1.124
65.76000 -2.448
65.78000 -0.088
65.80000 -1.546
65.82000 -0.025
65.84000 3.916
65.86000 2.420
65.88000 3.024
65.90000 2.336
65.92000 3.176
65.94000 5.297
65.96000 4.677
65.98000 1.436
66.00000 0.392
66.02000 -0.348
66.04000 0.399
66.06000 3.657
66.08000 2.895
66.10000 -2.220
66.12000 2.949
66.14000 6.947
66.16000 4.986
66.18000 3.105
66.20000 2.619
66.22000 0.836
66.24000 0.308
66.26000 0.006
66.28000 1.543
66.30000 2.530
66.32000 2.800
66.34000 2.798
66.36000 0.123
66.38000 2.549
66.40000 0.289
66.42000 0.476
66.44000 3.194
66.46000 2.228
66.48000 -0.993
66.50000 0.369
66.52000 3.551
66.54000 0.234
66.56000 -2.491
66.58000 1.609
66.60000 3.829
66.62000 -0.254
66.64000 1.912
66.66000 2.859
66.68000 3.166
66.70000 0.692
66.72000 0.244
66.74000 -0.567
66.76000 4.219
66.78000 3.439
66.80000 3.481
66.82000 4.173
66.84000 1.186
66.86000 1.447
66.88000 3.032
66.90000 1.805
66.92000 1.549
66.94000 2.272
66.96000 2.075
66.98000 2.306
67.00000 2.303
67.02000 5.597
67.04000 4.582
67.06000 3.697
67.08000 3.421
67.10000 3.042
67.12000 3.728
67.14000 8.803
67.16000 7.105
67.18000 4.990
67.20000 3.610
67.22000 5.694
67.24000 5.859
67.26000 4.519
67.28000 7.530
67.30000 8.236
67.32000 9.351
67.34000 6.512
67.36000 6.347
67.38000 10.566
67.40000 6.070
67.42000 2.901
67.44000 2.744
67.46000 4.626
67.48000 6.947
67.50000 6.144
67.52000 8.840
67.54000 7.640
67.56000 7.665
67.58000 8.264
67.60000 11.619
67.62000 8.924
67.64000 6.396
67.66000 7.457
67.68000 10.433
67.70000 9.117
67.72000 9.163
67.74000 9.185
67.76000 9.420
67.78000 12.493
67.80000 11.829
67.82000 10.781
67.84000 11.331
67.86000 12.800
67.88000 12.908
67.90000 13.231
67.92000 14.551
67.94000 15.986
67.96000 14.234
67.98000 13.506
68.00000 12.358
68.02000 19.347
68.04000 20.271
68.06000 21.970
68.08000 20.402
68.10000 17.581
68.12000 20.017
68.14000 22.472
68.16000 17.126
68.18000 17.831
68.20000 18.811
68.22000 16.187
68.24000 20.184
68.26000 23.485
68.28000 24.813
68.30000 21.445
68.32000 24.822
68.34000 22.894
68.36000 23.927
68.38000 22.265
68.40000 24.679
68.42000 24.982
68.44000 24.632
68.46000 27.935
68.48000 25.388
68.50000 25.564
68.52000 27.091
68.54000 27.846
68.56000 28.079
68.58000 26.490
68.60000 25.089
68.62000 22.909
68.64000 24.693
68.66000 22.958
68.68000 24.705
68.70000 28.356
68.72000 27.204
68.74000 27.690
68.76000 25.442
68.78000 21.288
68.80000 20.329
68.82000 15.465
68.84000 19.577
68.86000 21.659
68.88000 23.770
68.90000 20.563
68.92000 21.555
68.94000 22.166
68.96000 20.794
68.98000 18.094
69.00000 15.041
69.02000 16.918
69.04000 17.653
69.06000 20.961
69.08000 21.220
69.10000 19.449
69.12000 17.160
69.14000 15.480
69.16000 10.242
69.18000 8.497
69.20000 13.017
69.22000 13.175
69.24000 11.499
69.26000 15.339
69.28000 13.740
69.30000 10.682
69.32000 8.444
69.34000 5.066
69.36000 9.349
69.38000 12.393
69.40000 8.547
69.42000 12.037
69.44000 8.338
69.46000 4.493
69.48000 5.315
69.50000 1.776
69.52000 7.125
69.54000 9.248
69.56000 5.137
69.58000 1.322
69.60000 5.681
69.62000 7.129
69.64000 5.886
69.66000 3.111
69.68000 0.503
69.70000 1.963
69.72000 2.308
69.74000 3.837
69.76000 8.151
69.78000 2.010
69.80000 -0.825
69.82000 2.827
69.84000 3.323
69.86000 0.634
69.88000 3.013
69.90000 4.079
69.92000 1.453
69.94000 2.755
69.96000 3.763
69.98000 3.828
70.00000 3.569
70.02000 3.337
70.04000 2.895
70.06000 7.092
70.08000 1.879
70.10000 -0.739
70.12000 3.026
70.14000 2.096
70.16000 -1.297
70.18000 -2.419
70.20000 -1.654
70.22000 -0.618
70.24000 2.501
70.26000 2.108
70.28000 6.631
70.30000 5.368
70.32000 4.171
70.34000 2.136
70.36000 1.435
70.38000 1.654
70.40000 1.833
70.42000 1.216
70.44000 3.369
70.46000 1.450
70.48000 4.509
70.50000 8.340
70.52000 3.446
70.54000 -2.369
70.56000 0.718
70.58000 3.267
70.60000 3.411
70.62000 1.193
70.64000 -2.041
70.66000 1.906
70.68000 3.467
70.70000 1.323
70.72000 0.964
70.74000 3.247
70.76000 -1.428
70.78000 1.221
70.80000 -2.123
70.82000 -0.270
70.84000 0.935
70.86000 0.371
70.88000 3.614
70.90000 3.270
70.92000 2.758
70.94000 2.403
70.96000 3.609
70.98000 1.544
71.00000 1.660
71.02000 0.078
71.04000 -2.206
71.06000 1.718
71.08000 2.007
71.10000 3.145
71.12000 4.887
71.14000 4.594
71.16000 3.541
71.18000 4.409
71.20000 -0.549
71.22000 1.408
71.24000 3.670
71.26000 2.772
71.28000 3.106
71.30000 5.224
71.32000 3.894
71.34000 3.698
71.36000 3.108
71.38000 4.925
71.40000 2.465
71.42000 4.705
71.44000 6.172
71.46000 -0.115
71.48000 -1.681
71.50000 0.036
71.52000 0.681
71.54000 2.111
71.56000 -2.349
71.58000 0.524
71.60000 6.747
71.62000 5.024
71.64000 3.621
71.66000 0.417
71.68000 -0.160
71.70000 0.081
71.72000 0.412
71.74000 1.019
71.76000 1.265
71.78000 3.700
71.80000 4.132
71.82000 0.565
71.84000 0.753
71.86000 3.760
71.88000 4.256
71.90000 2.686
71.92000 1.440
71.94000 0.312
71.96000 -0.509
71.98000 0.105
72.00000 1.382
72.02000 0.072
72.04000 -0.008
72.06000 0.771
72.08000 -1.896
72.10000 -1.140
72.12000 -2.309
72.14000 3.644
72.16000 8.133
72.18000 6.594
72.20000 6.849
72.22000 2.564
72.24000 2.584
72.26000 2.061
72.28000 0.808
72.30000 0.855
72.32000 1.774
72.34000 7.561
72.36000 4.333
72.38000 2.791
72.40000 10.490
72.42000 3.747
72.44000 -2.302
72.46000 -1.317
72.48000 1.925
72.50000 1.206
72.52000 2.576
72.54000 3.826
72.56000 4.270
72.58000 3.369
72.60000 4.120
72.62000 -0.850
72.64000 2.912
72.66000 2.835
72.68000 1.739
72.70000 2.385
72.72000 0.879
72.74000 -0.325
72.76000 4.079
72.78000 4.819
72.80000 2.481
72.82000 3.346
72.84000 4.994
72.86000 0.266
72.88000 1.877
72.90000 2.282
72.92000 7.101
72.94000 4.097
72.96000 6.370
72.98000 4.347
73.00000 3.447
73.02000 0.723
73.04000 -0.170
73.06000 2.977
73.08000 3.469
73.10000 1.889
73.12000 -2.265
73.14000 -0.500
73.16000 3.289
73.18000 3.113
73.20000 3.535
73.22000 3.709
73.24000 0.152
73.26000 2.255
73.28000 1.952
73.30000 0.468
73.32000 3.176
73.34000 4.570
73.36000 8.587
73.38000 5.814
73.40000 -0.320
73.42000 0.998
73.44000 1.562
73.46000 4.052
73.48000 3.361
73.50000 1.821
73.52000 -0.811
73.54000 2.137
73.56000 4.889
73.58000 4.312
73.60000 4.765
73.62000 2.260
73.64000 2.398
73.66000 0.366
73.68000 3.235
73.70000 4.783
73.72000 2.357
73.74000 3.170
73.76000 0.658
73.78000 -0.463
73.80000 -1.224
73.82000 0.532
73.84000 2.948
73.86000 7.857
73.88000 6.364
73.90000 3.060
73.92000 3.378
73.94000 -1.160
73.96000 -1.719
73.98000 0.756
74.00000 3.787
74.02000 3.067
74.04000 -0.231
74.06000 5.488
74.08000 3.047
74.10000 3.554
74.12000 4.102
74.14000 5.208
74.16000 4.973
74.18000 4.875
74.20000 1.068
74.22000 -1.832
74.24000 -1.452
74.26000 -2.254
74.28000 1.329
74.30000 4.635
74.32000 7.828
74.34000 7.805
74.36000 6.041
74.38000 1.295
74.40000 1.655
74.42000 3.217
74.44000 3.524
74.46000 3.203
74.48000 5.996
74.50000 3.118
74.52000 3.324
74.54000 8.794
74.56000 2.484
74.58000 0.159
74.60000 -1.410
74.62000 0.527
74.64000 4.597
74.66000 6.688
74.68000 5.982
74.70000 3.523
74.72000 4.797
74.74000 0.592
74.76000 5.246
74.78000 2.922
74.80000 1.897
74.82000 3.321
74.84000 5.550
74.86000 7.834
74.88000 3.811
74.90000 2.873
74.92000 3.238
74.94000 5.306
74.96000 3.962
74.98000 6.087
75.00000 5.684
75.02000 2.574
75.04000 0.428
75.06000 1.132
75.08000 3.606
75.10000 1.556
75.12000 2.293
75.14000 -0.490
75.16000 -2.249
75.18000 2.403
75.20000 5.351
75.22000 8.983
75.24000 5.676
75.26000 3.658
75.28000 4.820
75.30000 2.194
75.32000 -0.812
75.34000 5.356
75.36000 3.763
75.38000 3.945
75.40000 3.101
75.42000 -0.315
75.44000 4.650
75.46000 5.604
75.48000 4.828
75.50000 5.059
75.52000 5.852
75.54000 5.712
75.56000 8.055
75.58000 4.301
75.60000 1.276
75.62000 1.398
75.64000 3.229
75.66000 4.313
75.68000 6.687
75.70000 8.687
75.72000 5.990
75.74000 2.022
75.76000 -0.055
75.78000 0.315
75.80000 -1.279
75.82000 -2.075
75.84000 -0.840
75.86000 2.680
75.88000 2.494
75.90000 4.244
75.92000 5.631
75.94000 5.545
75.96000 1.885
75.98000 5.089
76.00000 3.757
76.02000 2.583
76.04000 0.046
76.06000 -2.213
76.08000 3.545
76.10000 3.728
76.12000 1.974
76.14000 5.211
76.16000 3.552
76.18000 2.552
76.20000 3.917
76.22000 4.405
76.24000 1.865
76.26000 4.507
76.28000 7.748
76.30000 5.580
76.32000 5.297
76.34000 4.482
76.36000 3.910
76.38000 4.473
76.40000 5.156
76.42000 4.844
76.44000 6.463
76.46000 2.284
76.48000 6.864
76.50000 8.579
76.52000 8.530
76.54000 2.739
76.56000 0.836
76.58000 1.464
76.60000 3.803
76.62000 3.729
76.64000 6.326
76.66000 6.599
76.68000 5.869
76.70000 5.164
76.72000 5.475
76.74000 9.939
76.76000 4.985
76.78000 3.446
76.80000 4.253
76.82000 2.168
76.84000 -1.383
76.86000 1.206
76.88000 3.250
76.90000 1.764
76.92000 0.684
76.94000 -0.837
76.96000 -0.205
76.98000 2.752
77.00000 3.635
77.02000 3.397
77.04000 1.115
77.06000 -2.194
77.08000 0.478
77.10000 1.878
77.12000 3.421
77.14000 6.519
77.16000 6.292
77.18000 8.131
77.20000 7.055
77.22000 6.877
77.24000 1.588
77.26000 2.266
77.28000 3.998
77.30000 1.684
77.32000 1.926
77.34000 2.879
77.36000 6.658
77.38000 8.545
77.40000 -0.194
77.42000 1.181
77.44000 3.132
77.46000 1.323
77.48000 4.370
77.50000 6.346
77.52000 7.608
77.54000 1.926
77.56000 -1.695
77.58000 -2.286
77.60000 1.615
77.62000 2.838
77.64000 1.165
77.66000 -1.004
77.68000 0.536
77.70000 1.560
77.72000 1.602
77.74000 4.131
77.76000 5.481
77.78000 4.009
77.80000 6.789
77.82000 5.054
77.84000 0.509
77.86000 4.767
77.88000 0.943
77.90000 1.087
77.92000 3.829
77.94000 7.660
77.96000 5.691
77.98000 1.770
78.00000 -1.273
78.02000 2.707
78.04000 3.707
78.06000 2.417
78.08000 -0.316
78.10000 3.620
78.12000 4.881
78.14000 6.987
78.16000 3.316
78.18000 1.531
78.20000 4.989
78.22000 7.753
78.24000 8.389
78.26000 2.572
78.28000 1.275
78.30000 4.753
78.32000 4.004
78.34000 2.908
78.36000 2.058
78.38000 5.893
78.40000 4.949
78.42000 2.421
78.44000 2.126
78.46000 3.828
78.48000 2.650
78.50000 5.055
78.52000 2.953
78.54000 -0.232
78.56000 -2.281
78.58000 3.817
78.60000 4.835
78.62000 0.595
78.64000 2.141
78.66000 5.171
78.68000 4.418
78.70000 1.817
78.72000 2.788
78.74000 7.723
78.76000 10.746
78.78000 6.685
78.80000 6.358
78.82000 7.487
78.84000 8.787
78.86000 6.238
78.88000 1.150
78.90000 0.978
78.92000 2.427
78.94000 3.089
78.96000 4.431
78.98000 0.547
79.00000 6.325
79.02000 5.432
79.04000 5.827
79.06000 5.897
79.08000 2.927
79.10000 2.338
79.12000 4.879
79.14000 4.983
79.16000 5.104
79.18000 3.309
79.20000 5.567
79.22000 3.367
79.24000 5.832
79.26000 3.732
79.28000 5.985
79.30000 1.795
79.32000 -2.317
79.34000 -0.809
79.36000 3.744
79.38000 4.027
79.40000 4.285
79.42000 6.348
79.44000 1.473
79.46000 0.606
79.48000 4.940
79.50000 6.713
79.52000 4.761
79.54000 1.996
79.56000 2.242
79.58000 0.900
79.60000 4.205
79.62000 4.253
79.64000 7.145
79.66000 3.884
79.68000 4.229
79.70000 3.906
79.72000 1.292
79.74000 -2.341
79.76000 -0.422
79.78000 2.785
79.80000 0.536
79.82000 -0.291
79.84000 4.028
79.86000 6.737
79.88000 5.475
79.90000 3.873
79.92000 3.427
79.94000 0.427
79.96000 -1.036
79.98000 0.475
80.00000 5.012
80.02000 6.215
80.04000 3.272
80.06000 0.522
80.08000 2.670
80.10000 4.606
80.12000 -1.315
80.14000 -0.249
80.16000 3.229
80.18000 1.368
80.20000 1.884
80.22000 0.943
80.24000 -1.459
80.26000 -1.013
80.28000 2.087
80.30000 2.519
80.32000 2.123
80.34000 3.751
80.36000 2.776
80.38000 3.515
80.40000 1.719
80.42000 0.787
80.44000 0.439
80.46000 -2.213
80.48000 -2.433
80.50000 0.755
80.52000 5.520
80.54000 -1.818
80.56000 0.578
80.58000 1.257
80.60000 -0.494
80.62000 0.205
80.64000 3.040
80.66000 2.931
80.68000 3.377
80.70000 1.050
80.72000 1.943
80.74000 2.018
80.76000 4.460
80.78000 2.033
80.80000 -0.592
80.82000 -0.078
80.84000 2.398
80.86000 0.821
80.88000 -1.385
80.90000 3.205
80.92000 -0.613
80.94000 -1.373
80.96000 -1.130
80.98000 -2.234
81.00000 -0.491
81.02000 2.449
81.04000 3.253
81.06000 -0.084
81.08000 1.201
81.10000 5.363
81.12000 5.903
81.14000 5.393
81.16000 4.075
81.18000 3.002
81.20000 2.694
81.22000 2.647
81.24000 3.241
81.26000 6.109
81.28000 -0.008
81.30000 1.744
81.32000 7.680
81.34000 4.877
81.36000 6.239
81.38000 3.272
81.40000 1.971
81.42000 3.820
81.44000 4.221
81.46000 4.967
81.48000 5.130
81.50000 4.177
81.52000 6.609
81.54000 10.477
81.56000 7.983
81.58000 9.330
81.60000 9.405
81.62000 2.368
81.64000 5.322
81.66000 12.478
81.68000 14.130
81.70000 12.040
81.72000 12.129
81.74000 8.546
81.76000 9.349
81.78000 14.489
81.80000 10.238
81.82000 10.197
81.84000 13.021
81.86000 9.086
81.88000 7.749
81.90000 11.275
81.92000 14.700
81.94000 19.150
81.96000 20.385
81.98000 15.424
82.00000 17.850
82.02000 18.976
82.04000 19.058
82.06000 15.589
82.08000 16.375
82.10000 15.231
82.12000 17.365
82.14000 18.961
82.16000 22.979
82.18000 25.503
82.20000 25.995
82.22000 26.279
82.24000 28.210
82.26000 28.241
82.28000 26.124
82.30000 28.332
82.32000 28.552
82.34000 26.042
82.36000 24.232
82.38000 21.033
82.40000 22.885
82.42000 29.545
82.44000 32.467
82.46000 25.897
82.48000 23.342
82.50000 22.891
82.52000 33.039
82.54000 32.721
82.56000 32.971
82.58000 30.228
82.60000 33.336
82.62000 33.830
82.64000 33.208
82.66000 28.275
82.68000 31.678
82.70000 28.660
82.72000 31.500
82.74000 34.937
82.76000 30.524
82.78000 33.279
82.80000 31.824
82.82000 30.046
82.84000 29.411
82.86000 28.672
82.88000 32.890
82.90000 34.113
82.92000 30.546
82.94000 26.965
82.96000 29.107
82.98000 26.537
83.00000 25.667
83.02000 27.761
83.04000 32.534
83.06000 32.062
83.08000 27.027
83.10000 27.481
83.12000 27.808
83.14000 23.213
83.16000 23.184
83.18000 33.268
83.20000 32.186
83.22000 29.982
83.24000 25.598
83.26000 27.173
83.28000 25.942
83.30000 24.138
83.32000 22.479
83.34000 22.424
83.36000 17.572
83.38000 17.417
83.40000 13.840
83.42000 14.420
83.44000 14.996
83.46000 17.826
83.48000 16.901
83.50000 15.115
83.52000 12.269
83.54000 15.364
83.56000 15.334
83.58000 16.573
83.60000 22.386
83.62000 16.360
83.64000 10.374
83.66000 15.884
83.68000 15.605
83.70000 11.795
83.72000 5.794
83.74000 8.494
83.76000 6.777
83.78000 11.715
83.80000 9.160
83.82000 8.432
83.84000 5.683
83.86000 6.892
83.88000 10.335
83.90000 8.630
83.92000 8.784
83.94000 7.994
83.96000 7.334
83.98000 3.917
84.00000 7.816
84.02000 7.565
84.04000 5.431
84.06000 4.232
84.08000 5.349
84.10000 4.329
84.12000 3.453
84.14000 4.547
84.16000 1.738
84.18000 2.960
84.20000 1.687
84.22000 3.899
84.24000 4.118
84.26000 6.741
84.28000 4.232
84.30000 3.389
84.32000 1.965
84.34000 5.715
84.36000 12.245
84.38000 8.167
84.40000 6.859
84.42000 7.015
84.44000 6.052
84.46000 9.100
84.48000 6.665
84.50000 7.122
84.52000 8.026
84.54000 7.984
84.56000 11.491
84.58000 7.525
84.60000 0.962
84.62000 -2.356
84.64000 0.747
84.66000 2.073
84.68000 6.155
84.70000 7.893
84.72000 6.804
84.74000 7.453
84.76000 5.411
84.78000 3.143
84.80000 5.168
84.82000 0.563
84.84000 4.641
84.86000 5.289
84.88000 1.966
84.90000 0.932
84.92000 0.362
84.94000 2.418
84.96000 4.824
84.98000 2.829
85.00000 2.745
85.02000 2.733
85.04000 -2.361
85.06000 2.908
85.08000 4.639
85.10000 5.873
85.12000 1.974
85.14000 2.520
85.16000 3.357
85.18000 -0.744
85.20000 -1.693
85.22000 1.253
85.24000 0.693
85.26000 -1.561
85.28000 -0.582
85.30000 1.590
85.32000 1.566
85.34000 1.898
85.36000 4.020
85.38000 2.871
85.40000 2.936
85.42000 3.761
85.44000 2.064
85.46000 2.239
85.48000 -1.331
85.50000 -0.560
85.52000 -0.061
85.54000 -1.068
85.56000 -2.352
85.58000 1.563
85.60000 1.513
85.62000 7.207
85.64000 6.065
85.66000 2.076
85.68000 3.394
85.70000 4.792
85.72000 5.098
85.74000 -0.792
85.76000 -0.210
85.78000 4.013
85.80000 3.478
85.82000 0.161
85.84000 0.688
85.86000 3.374
85.88000 4.304
85.90000 2.162
85.92000 -2.359
85.94000 -2.369
85.96000 -0.285
85.98000 -0.827
86.00000 4.989
86.02000 6.035
86.04000 6.502
86.06000 7.062
86.08000 3.984
86.10000 0.672
86.12000 0.998
86.14000 4.527
86.16000 5.084
86.18000 3.158
86.20000 4.617
86.22000 5.969
86.24000 2.765
86.26000 2.859
86.28000 5.666
86.30000 6.094
86.32000 11.247
86.34000 7.533
86.36000 7.056
86.38000 8.097
86.40000 9.444
86.42000 10.722
86.44000 11.335
86.46000 9.317
86.48000 8.729
86.50000 11.454
86.52000 11.801
86.54000 9.621
86.56000 10.863
86.58000 6.732
86.60000 14.542
86.62000 15.125
86.64000 15.189
86.66000 15.748
86.68000 11.583
86.70000 13.146
86.72000 16.828
86.74000 13.755
86.76000 15.704
86.78000 11.957
86.80000 13.928
86.82000 15.665
86.84000 17.489
86.86000 17.249
86.88000 21.212
86.90000 19.869
86.92000 18.294
86.94000 18.201
86.96000 18.564
86.98000 15.423
87.00000 18.885
87.02000 21.723
87.04000 17.216
87.06000 18.305
87.08000 18.147
87.10000 20.164
87.12000 18.735
87.14000 15.165
87.16000 15.682
87.18000 17.515
87.20000 17.328
87.22000 19.341
87.24000 16.250
87.26000 14.332
87.28000 15.060
87.30000 14.906
87.32000 15.544
87.34000 15.740
87.36000 16.276
87.38000 14.882
87.40000 10.992
87.42000 16.449
87.44000 15.920
87.46000 17.066
87.48000 16.209
87.50000 16.232
87.52000 12.603
87.54000 13.998
87.56000 13.745
87.58000 15.403
87.60000 17.087
87.62000 14.539
87.64000 10.952
87.66000 7.138
87.68000 9.140
87.70000 10.398
87.72000 11.477
87.74000 11.147
87.76000 10.185
87.78000 11.964
87.80000 10.003
87.82000 9.605
87.84000 6.733
87.86000 7.372
87.88000 5.043
87.90000 3.743
87.92000 6.902
87.94000 8.798
87.96000 7.893
87.98000 8.064
88.00000 5.546
88.02000 4.714
88.04000 6.617
88.06000 7.631
88.08000 7.925
88.10000 7.370
88.12000 7.431
88.14000 6.659
88.16000 6.172
88.18000 3.634
88.20000 5.747
88.22000 5.565
88.24000 6.897
88.26000 7.454
88.28000 1.489
88.30000 4.005
88.32000 3.117
88.34000 4.402
88.36000 7.792
88.38000 6.511
88.40000 3.873
88.42000 4.266
88.44000 2.905
88.46000 4.163
88.48000 9.366
88.50000 9.024
88.52000 5.053
88.54000 4.980
88.56000 3.889
88.58000 6.792
88.60000 5.269
88.62000 3.019
88.64000 4.209
88.66000 6.543
88.68000 8.474
88.70000 7.376
88.72000 10.142
88.74000 8.758
88.76000 2.702
88.78000 0.406
88.80000 2.439
88.82000 3.717
88.84000 6.151
88.86000 9.349
88.88000 4.870
88.90000 8.541
88.92000 6.848
88.94000 3.082
88.96000 -2.124
88.98000 1.747
89.00000 7.400
89.02000 7.130
89.04000 3.700
89.06000 4.528
89.08000 4.486
89.10000 6.558
89.12000 7.821
89.14000 2.978
89.16000 1.508
89.18000 -2.097
89.20000 5.183
89.22000 9.692
89.24000 6.237
89.26000 3.699
89.28000 3.983
89.30000 8.359
89.32000 6.210
89.34000 4.625
89.36000 2.443
89.38000 3.064
89.40000 6.796
89.42000 4.465
89.44000 7.582
89.46000 3.943
89.48000 2.179
89.50000 7.584
89.52000 4.515
89.54000 1.192
89.56000 4.312
89.58000 5.630
89.60000 6.654
89.62000 5.296
89.64000 4.108
89.66000 3.812
89.68000 2.242
89.70000 2.177
89.72000 5.481
89.74000 3.179
89.76000 4.251
89.78000 0.984
89.80000 2.441
89.82000 3.241
89.84000 6.261
89.86000 2.043
89.88000 9.014
89.90000 11.002
89.92000 8.296
89.94000 2.378
89.96000 0.627
89.98000 1.308
90.00000 0.193
90.02000 -0.402
90.04000 3.330
90.06000 6.687
90.08000 4.138
90.10000 -0.297
90.12000 -0.409
90.14000 3.825
90.16000 2.504
90.18000 4.377
90.20000 7.928
90.22000 0.297
90.24000 2.312
90.26000 4.482
90.28000 1.680
90.30000 2.587
90.32000 0.715
90.34000 0.592
90.36000 2.979
90.38000 6.581
90.40000 3.025
90.42000 0.922
90.44000 4.715
90.46000 7.808
90.48000 3.700
90.50000 1.945
90.52000 5.534
90.54000 5.757
90.56000 4.235
90.58000 4.777
90.60000 4.151
90.62000 4.151
90.64000 2.044
90.66000 3.236
90.68000 2.542
90.70000 4.454
90.72000 6.023
90.74000 5.356
90.76000 1.696
90.78000 2.253
90.80000 6.563
90.82000 5.544
90.84000 3.195
90.86000 1.043
90.88000 5.852
90.90000 4.592
90.92000 0.383
90.94000 1.804
90.96000 3.005
90.98000 7.664
91.00000 6.600
91.02000 1.905
91.04000 2.123
91.06000 1.512
91.08000 -0.958
91.10000 2.823
91.12000 5.161
91.14000 3.737
91.16000 5.871
91.18000 5.253
91.20000 4.640
91.22000 7.060
91.24000 7.437
91.26000 3.578
91.28000 -0.474
91.30000 -2.096
91.32000 2.709
91.34000 5.579
91.36000 5.660
91.38000 4.758
91.40000 4.462
91.42000 6.065
91.44000 9.121
91.46000 12.759
91.48000 7.615
91.50000 5.263
91.52000 1.165
91.54000 1.179
91.56000 -2.119
91.58000 0.023
91.60000 0.340
91.62000 4.187
91.64000 3.321
91.66000 3.796
91.68000 5.874
91.70000 4.336
91.72000 6.900
91.74000 3.809
91.76000 1.441
91.78000 0.075
91.80000 4.046
91.82000 2.461
91.84000 5.104
91.86000 6.019
91.88000 3.886
91.90000 2.641
91.92000 2.344
91.94000 2.752
91.96000 2.538
91.98000 3.131
92.00000 6.431
92.02000 4.377
92.04000 2.259
92.06000 -1.579
92.08000 0.391
92.10000 -0.122
92.12000 2.901
92.14000 5.716
92.16000 3.030
92.18000 -0.496
92.20000 1.623
92.22000 -1.153
92.24000 1.624
92.26000 0.262
92.28000 3.286
92.30000 3.185
92.32000 4.539
92.34000 3.944
92.36000 0.459
92.38000 1.506
92.40000 2.587
92.42000 0.583
92.44000 1.259
92.46000 5.060
92.48000 1.936
92.50000 3.443
92.52000 5.360
92.54000 4.307
92.56000 2.968
92.58000 -0.054
92.60000 2.326
92.62000 -0.357
92.64000 0.654
92.66000 0.288
92.68000 0.287
92.70000 1.652
92.72000 0.034
92.74000 1.195
92.76000 0.234
92.78000 0.138
92.80000 2.280
92.82000 5.288
92.84000 4.351
92.86000 5.107
92.88000 1.526
92.90000 -1.369
92.92000 2.617
92.94000 3.245
92.96000 2.715
92.98000 -0.656
93.00000 0.507
93.02000 1.394
93.04000 2.722
93.06000 3.382
93.08000 -1.367
93.10000 -2.160
93.12000 6.623
93.14000 5.625
93.16000 6.028
93.18000 2.077
93.20000 1.848
93.22000 -0.027
93.24000 2.358
93.26000 1.519
93.28000 3.729
93.30000 -1.077
93.32000 1.024
93.34000 2.338
93.36000 1.784
93.38000 1.726
93.40000 4.878
93.42000 4.780
93.44000 5.409
93.46000 4.420
93.48000 0.759
93.50000 -2.157
93.52000 0.242
93.54000 0.209
93.56000 3.305
93.58000 1.678
93.60000 1.953
93.62000 -0.482
93.64000 1.552
93.66000 3.602
93.68000 4.638
93.70000 3.319
93.72000 3.067
93.74000 0.122
93.76000 3.172
93.78000 3.664
93.80000 8.741
93.82000 7.050
93.84000 5.140
93.86000 6.291
93.88000 7.894
93.90000 5.061
93.92000 4.050
93.94000 7.696
93.96000 6.506
93.98000 1.475
94.00000 3.329
94.02000 6.712
94.04000 9.021
94.06000 6.470
94.08000 1.434
94.10000 -0.479
94.12000 -2.139
94.14000 0.421
94.16000 2.880
94.18000 6.379
94.20000 9.529
94.22000 8.118
94.24000 5.211
94.26000 0.790
94.28000 1.918
94.30000 9.624
94.32000 7.135
94.34000 4.584
94.36000 6.480
94.38000 3.054
94.40000 -1.918
94.42000 0.723
94.44000 3.161
94.46000 7.504
94.48000 6.847
94.50000 3.356
94.52000 2.316
94.54000 1.343
94.56000 1.647
94.58000 0.264
94.60000 1.797
94.62000 1.556
94.64000 3.951
94.66000 5.323
94.68000 4.094
94.70000 5.807
94.72000 5.492
94.74000 7.241
94.76000 5.392
94.78000 4.671
94.80000 5.653
94.82000 5.126
94.84000 3.204
94.86000 2.409
94.88000 0.905
94.90000 4.106
94.92000 5.950
94.94000 0.701
94.96000 -1.541
94.98000 1.437
95.00000 -1.592
95.02000 1.962
95.04000 8.303
95.06000 8.418
95.08000 4.673
95.10000 2.604
95.12000 2.772
95.14000 2.084
95.16000 5.148
95.18000 4.595
95.20000 4.842
95.22000 3.114
95.24000 1.232
95.26000 2.310
95.28000 4.911
95.30000 4.764
95.32000 2.068
95.34000 2.877
95.36000 3.731
95.38000 0.002
95.40000 -2.176
95.42000 -1.008
95.44000 2.485
95.46000 2.371
95.48000 0.648
95.50000 1.299
95.52000 2.293
95.54000 9.713
95.56000 7.144
95.58000 3.760
95.60000 6.502
95.62000 5.410
95.64000 5.532
95.66000 3.312
95.68000 -1.499
95.70000 -1.776
95.72000 1.159
95.74000 1.676
95.76000 4.302
95.78000 4.790
95.80000 2.509
95.82000 2.242
95.84000 3.163
95.86000 4.534
95.88000 1.610
95.90000 -0.074
95.92000 3.343
95.94000 2.248
95.96000 -1.236
95.98000 -2.169
96.00000 2.584
96.02000 2.841
96.04000 2.306
96.06000 3.506
96.08000 3.611
96.10000 3.473
96.12000 0.342
96.14000 -1.935
96.16000 1.558
96.18000 5.816
96.20000 5.154
96.22000 -0.381
96.24000 1.450
96.26000 2.226
96.28000 1.329
96.30000 7.285
96.32000 6.496
96.34000 0.816
96.36000 4.896
96.38000 5.616
96.40000 3.779
96.42000 -2.151
96.44000 3.993
96.46000 4.506
96.48000 1.364
96.50000 1.864
96.52000 0.871
96.54000 1.547
96.56000 0.801
96.58000 2.980
96.60000 7.949
96.62000 4.513
96.64000 0.026
96.66000 3.599
96.68000 3.843
96.70000 1.905
96.72000 5.833
96.74000 4.163
96.76000 6.772
96.78000 8.894
96.80000 9.253
96.82000 8.307
96.84000 3.975
96.86000 2.728
96.88000 5.833
96.90000 1.905
96.92000 2.132
96.94000 1.865
96.96000 3.297
96.98000 1.091
97.00000 -2.131
97.02000 2.661
97.04000 5.525
97.06000 10.742
97.08000 6.822
97.10000 9.688
97.12000 6.159
97.14000 -2.136
97.16000 1.717
97.18000 7.707
97.20000 7.130
97.22000 9.932
97.24000 7.412
97.26000 10.898
97.28000 4.523
97.30000 -0.608
97.32000 4.816
97.34000 6.458
97.36000 1.872
97.38000 5.867
97.40000 3.353
97.42000 0.936
97.44000 2.267
97.46000 1.785
97.48000 6.715
97.50000 5.537
97.52000 9.244
97.54000 9.470
97.56000 5.476
97.58000 3.055
97.60000 -2.012
97.62000 1.966
97.64000 3.808
97.66000 3.636
97.68000 0.216
97.70000 2.008
97.72000 -2.133
97.74000 1.030
97.76000 3.882
97.78000 2.350
97.80000 0.075
97.82000 -0.078
97.84000 3.792
97.86000 4.161
97.88000 7.029
97.90000 5.134
97.92000 4.592
97.94000 3.105
97.96000 2.186
97.98000 7.526
98.00000 3.255
98.02000 1.193
98.04000 4.843
98.06000 6.530
98.08000 -1.530
98.10000 -1.412
98.12000 -1.309
98.14000 0.473
98.16000 5.218
98.18000 8.424
98.20000 4.090
98.22000 -1.462
98.24000 1.171
98.26000 2.586
98.28000 4.894
98.30000 9.136
98.32000 6.727
98.34000 8.840
98.36000 2.579
98.38000 0.861
98.40000 4.247
98.42000 5.293
98.44000 5.976
98.46000 2.490
98.48000 1.393
98.50000 1.951
98.52000 5.283
98.54000 5.117
98.56000 1.432
98.58000 3.921
98.60000 -1.554
98.62000 -1.916
98.64000 1.662
98.66000 5.611
98.68000 13.174
98.70000 11.441
98.72000 6.949
98.74000 -1.166
98.76000 2.641
98.78000 9.060
98.80000 7.034
98.82000 6.906
98.84000 -0.656
98.86000 -2.133
98.88000 -1.706
98.90000 0.026
98.92000 4.816
98.94000 6.363
98.96000 0.727
98.98000 8.909
99.00000 6.823
99.02000 12.214
99.04000 6.190
99.06000 5.606
99.08000 8.098
99.10000 4.942
99.12000 4.813
99.14000 3.670
99.16000 7.755
99.18000 -1.126
99.20000 5.528
99.22000 1.823
99.24000 4.626
99.26000 4.746
99.28000 -2.085
99.30000 1.199
99.32000 0.138
99.34000 3.154
99.36000 3.323
99.38000 -0.193
99.40000 -2.125
99.42000 2.147
99.44000 7.618
99.46000 7.040
99.48000 8.614
99.50000 2.737
99.52000 12.512
99.54000 15.868
99.56000 6.775
99.58000 8.655
99.60000 8.338
99.62000 10.778
99.64000 5.202
99.66000 0.818
99.68000 12.217
99.70000 3.827
99.72000 5.768
99.74000 11.181
99.76000 5.696
99.78000 7.925
99.80000 6.062
99.82000 3.027
99.84000 6.409
99.86000 6.776
99.88000 4.449
99.90000 10.601
99.92000 8.757
99.94000 4.114
99.96000 8.409
99.98000 0.000
