'Id: "0011387" Comment: "Integrate frame 0011387_Au-Ir-Rh_Rh-rich_XRD-Mapping-299-0000.gfrmwith cursor Wedge Cursor #5" Operator: "B?rgel" Anode: "Cu" Wavelength: "1.5406" Scantype: "2Theta (TwoTheta)" TimePerStep: "1" X: "-18" Y: "31.5" Z: "5.95" 
10.00000 0.000
10.02000 -4.591
10.04000 -0.752
10.06000 -2.577
10.08000 2.100
10.10000 6.196
10.12000 -0.912
10.14000 0.389
10.16000 12.985
10.18000 5.247
10.20000 -4.516
10.22000 8.470
10.24000 11.984
10.26000 16.986
10.28000 31.645
10.30000 38.934
10.32000 25.161
10.34000 -0.668
10.36000 -4.460
10.38000 -1.600
10.40000 1.017
10.42000 14.101
10.44000 18.380
10.46000 15.116
10.48000 18.015
10.50000 7.746
10.52000 8.978
10.54000 7.366
10.56000 12.756
10.58000 1.922
10.60000 22.548
10.62000 19.410
10.64000 12.601
10.66000 14.731
10.68000 10.797
10.70000 23.130
10.72000 13.587
10.74000 5.344
10.76000 11.753
10.78000 2.753
10.80000 6.110
10.82000 16.205
10.84000 12.554
10.86000 9.965
10.88000 21.100
10.90000 19.620
10.92000 19.021
10.94000 13.623
10.96000 18.712
10.98000 35.090
11.00000 26.830
11.02000 19.066
11.04000 28.590
11.06000 24.435
11.08000 14.682
11.10000 13.102
11.12000 20.496
11.14000 18.386
11.16000 13.874
11.18000 19.223
11.20000 28.115
11.22000 26.656
11.24000 12.276
11.26000 -0.943
11.28000 12.421
11.30000 24.651
11.32000 11.449
11.34000 17.302
11.36000 21.118
11.38000 25.912
11.40000 36.532
11.42000 28.508
11.44000 19.937
11.46000 7.766
11.48000 -4.398
11.50000 -0.729
11.52000 8.050
11.54000 16.557
11.56000 26.950
11.58000 21.884
11.60000 24.420
11.62000 33.676
11.64000 24.615
11.66000 11.112
11.68000 11.110
11.70000 22.489
11.72000 26.579
11.74000 17.481
11.76000 10.836
11.78000 19.811
11.80000 18.337
11.82000 14.852
11.84000 14.870
11.86000 24.698
11.88000 19.795
11.90000 18.377
11.92000 13.247
11.94000 14.413
11.96000 11.300
11.98000 14.325
12.00000 17.274
12.02000 23.970
12.04000 26.119
12.06000 19.407
12.08000 17.278
12.10000 10.712
12.12000 11.984
12.14000 16.119
12.16000 4.987
12.18000 6.671
12.20000 20.039
12.22000 9.331
12.24000 8.143
12.26000 18.824
12.28000 17.251
12.30000 18.353
12.32000 15.209
12.34000 22.484
12.36000 12.592
12.38000 8.199
12.40000 15.252
12.42000 21.937
12.44000 14.354
12.46000 19.038
12.48000 6.734
12.50000 1.087
12.52000 8.699
12.54000 12.976
12.56000 19.431
12.58000 20.257
12.60000 15.572
12.62000 18.094
12.64000 16.686
12.66000 11.591
12.68000 13.879
12.70000 13.884
12.72000 4.590
12.74000 3.395
12.76000 5.262
12.78000 4.479
12.80000 12.456
12.82000 18.354
12.84000 19.310
12.86000 15.554
12.88000 21.357
12.90000 6.089
12.92000 11.060
12.94000 9.903
12.96000 6.815
12.98000 8.630
13.00000 14.217
13.02000 13.309
13.04000 8.038
13.06000 19.471
13.08000 20.201
13.10000 16.888
13.12000 8.265
13.14000 13.235
13.16000 15.937
13.18000 8.085
13.20000 9.563
13.22000 14.935
13.24000 13.890
13.26000 22.154
13.28000 24.113
13.30000 21.872
13.32000 19.449
13.34000 11.558
13.36000 10.583
13.38000 9.261
13.40000 10.232
13.42000 3.740
13.44000 7.840
13.46000 6.332
13.48000 7.650
13.50000 9.216
13.52000 11.059
13.54000 1.784
13.56000 0.432
13.58000 14.041
13.60000 14.580
13.62000 15.114
13.64000 10.220
13.66000 14.330
13.68000 16.660
13.70000 19.380
13.72000 20.608
13.74000 12.184
13.76000 2.463
13.78000 2.659
13.80000 6.029
13.82000 2.828
13.84000 9.659
13.86000 3.514
13.88000 3.868
13.90000 8.400
13.92000 15.790
13.94000 6.298
13.96000 1.896
13.98000 -1.918
14.00000 8.612
14.02000 15.382
14.04000 13.956
14.06000 12.855
14.08000 6.968
14.10000 8.112
14.12000 14.569
14.14000 22.179
14.16000 19.670
14.18000 19.596
14.20000 19.129
14.22000 3.429
14.24000 7.658
14.26000 5.271
14.28000 4.210
14.30000 0.408
14.32000 0.697
14.34000 3.835
14.36000 1.600
14.38000 -1.222
14.40000 5.026
14.42000 5.719
14.44000 10.809
14.46000 7.477
14.48000 13.228
14.50000 12.330
14.52000 11.198
14.54000 15.775
14.56000 14.318
14.58000 4.140
14.60000 17.394
14.62000 11.183
14.64000 7.625
14.66000 3.454
14.68000 4.365
14.70000 5.863
14.72000 7.459
14.74000 8.990
14.76000 5.801
14.78000 1.503
14.80000 5.301
14.82000 7.211
14.84000 8.329
14.86000 3.948
14.88000 7.086
14.90000 6.520
14.92000 1.196
14.94000 0.299
14.96000 1.689
14.98000 -1.306
15.00000 7.814
15.02000 13.094
15.04000 11.442
15.06000 13.262
15.08000 14.595
15.10000 6.463
15.12000 0.938
15.14000 7.227
15.16000 17.125
15.18000 20.156
15.20000 10.305
15.22000 4.744
15.24000 5.138
15.26000 12.756
15.28000 5.965
15.30000 5.554
15.32000 4.871
15.34000 13.386
15.36000 18.305
15.38000 17.012
15.40000 14.472
15.42000 15.195
15.44000 15.316
15.46000 11.553
15.48000 12.197
15.50000 7.650
15.52000 10.639
15.54000 14.332
15.56000 10.178
15.58000 13.684
15.60000 24.981
15.62000 22.495
15.64000 5.840
15.66000 7.783
15.68000 19.403
15.70000 6.982
15.72000 -2.561
15.74000 -4.432
15.76000 7.667
15.78000 17.084
15.80000 9.099
15.82000 7.201
15.84000 14.880
15.86000 8.114
15.88000 10.669
15.90000 12.190
15.92000 9.549
15.94000 14.197
15.96000 6.799
15.98000 6.620
16.00000 4.418
16.02000 4.406
16.04000 9.047
16.06000 0.996
16.08000 -0.384
16.10000 3.333
16.12000 0.579
16.14000 1.954
16.16000 7.899
16.18000 22.643
16.20000 16.458
16.22000 14.545
16.24000 13.515
16.26000 13.052
16.28000 3.350
16.30000 -4.431
16.32000 10.066
16.34000 12.961
16.36000 19.715
16.38000 11.047
16.40000 2.904
16.42000 3.672
16.44000 11.724
16.46000 10.865
16.48000 0.738
16.50000 3.359
16.52000 10.866
16.54000 4.901
16.56000 0.091
16.58000 5.115
16.60000 3.174
16.62000 4.429
16.64000 -1.437
16.66000 4.079
16.68000 9.398
16.70000 3.418
16.72000 8.488
16.74000 4.456
16.76000 -3.726
16.78000 -4.421
16.80000 3.351
16.82000 3.415
16.84000 19.540
16.86000 15.939
16.88000 12.804
16.90000 14.523
16.92000 17.627
16.94000 2.226
16.96000 3.659
16.98000 5.116
17.00000 5.674
17.02000 5.078
17.04000 5.915
17.06000 6.616
17.08000 10.126
17.10000 13.414
17.12000 13.424
17.14000 7.354
17.16000 7.584
17.18000 11.739
17.20000 12.381
17.22000 15.008
17.24000 2.540
17.26000 1.281
17.28000 -1.749
17.30000 0.268
17.32000 5.776
17.34000 2.698
17.36000 1.742
17.38000 6.939
17.40000 8.708
17.42000 8.690
17.44000 6.571
17.46000 9.989
17.48000 9.379
17.50000 2.841
17.52000 3.264
17.54000 2.773
17.56000 0.944
17.58000 9.755
17.60000 3.961
17.62000 4.168
17.64000 6.482
17.66000 8.117
17.68000 2.425
17.70000 0.400
17.72000 -1.227
17.74000 2.775
17.76000 6.443
17.78000 13.420
17.80000 12.852
17.82000 9.294
17.84000 8.236
17.86000 6.027
17.88000 6.978
17.90000 12.417
17.92000 10.225
17.94000 12.487
17.96000 8.812
17.98000 2.421
18.00000 6.891
18.02000 4.498
18.04000 6.840
18.06000 3.866
18.08000 6.696
18.10000 9.808
18.12000 16.615
18.14000 11.043
18.16000 -0.754
18.18000 2.499
18.20000 2.261
18.22000 3.369
18.24000 5.078
18.26000 7.596
18.28000 5.473
18.30000 10.055
18.32000 8.127
18.34000 -0.201
18.36000 -0.804
18.38000 5.804
18.40000 11.653
18.42000 8.236
18.44000 4.156
18.46000 8.605
18.48000 6.280
18.50000 3.821
18.52000 4.407
18.54000 1.735
18.56000 -4.319
18.58000 -2.549
18.60000 2.119
18.62000 -2.014
18.64000 -2.160
18.66000 4.540
18.68000 8.231
18.70000 8.713
18.72000 3.549
18.74000 3.851
18.76000 4.350
18.78000 3.717
18.80000 8.220
18.82000 8.357
18.84000 10.059
18.86000 9.219
18.88000 10.190
18.90000 2.677
18.92000 -1.734
18.94000 -1.348
18.96000 3.391
18.98000 6.512
19.00000 9.336
19.02000 13.289
19.04000 14.316
19.06000 11.397
19.08000 5.217
19.10000 5.551
19.12000 10.570
19.14000 10.736
19.16000 8.595
19.18000 8.751
19.20000 12.987
19.22000 11.438
19.24000 1.998
19.26000 9.086
19.28000 10.305
19.30000 10.894
19.32000 14.462
19.34000 9.396
19.36000 10.331
19.38000 10.271
19.40000 8.066
19.42000 1.992
19.44000 -4.242
19.46000 3.624
19.48000 5.053
19.50000 6.790
19.52000 6.647
19.54000 5.707
19.56000 9.783
19.58000 13.201
19.60000 9.026
19.62000 9.682
19.64000 14.430
19.66000 5.464
19.68000 10.532
19.70000 10.074
19.72000 6.975
19.74000 7.072
19.76000 14.111
19.78000 13.090
19.80000 9.043
19.82000 -0.804
19.84000 0.165
19.86000 6.496
19.88000 9.479
19.90000 7.269
19.92000 4.149
19.94000 9.510
19.96000 11.057
19.98000 12.402
20.00000 9.552
20.02000 8.596
20.04000 -1.285
20.06000 -1.573
20.08000 2.787
20.10000 16.278
20.12000 8.479
20.14000 8.961
20.16000 7.612
20.18000 7.920
20.20000 -1.533
20.22000 5.747
20.24000 9.426
20.26000 8.660
20.28000 4.117
20.30000 5.378
20.32000 9.506
20.34000 6.070
20.36000 1.105
20.38000 -4.204
20.40000 -0.603
20.42000 4.733
20.44000 4.198
20.46000 -0.869
20.48000 0.099
20.50000 9.235
20.52000 9.410
20.54000 1.162
20.56000 2.490
20.58000 5.778
20.60000 4.298
20.62000 2.452
20.64000 4.645
20.66000 6.024
20.68000 3.324
20.70000 -0.161
20.72000 5.924
20.74000 11.022
20.76000 9.881
20.78000 11.577
20.80000 4.901
20.82000 -4.182
20.84000 1.974
20.86000 4.930
20.88000 5.452
20.90000 4.290
20.92000 5.950
20.94000 5.375
20.96000 -2.449
20.98000 2.664
21.00000 4.807
21.02000 6.312
21.04000 3.248
21.06000 1.505
21.08000 3.925
21.10000 2.257
21.12000 0.057
21.14000 1.462
21.16000 10.741
21.18000 8.157
21.20000 14.948
21.22000 10.162
21.24000 4.826
21.26000 4.318
21.28000 3.703
21.30000 4.919
21.32000 1.463
21.34000 1.627
21.36000 6.528
21.38000 7.515
21.40000 10.753
21.42000 9.453
21.44000 1.280
21.46000 1.302
21.48000 2.822
21.50000 6.436
21.52000 4.981
21.54000 13.725
21.56000 8.674
21.58000 0.086
21.60000 4.771
21.62000 3.875
21.64000 4.599
21.66000 1.613
21.68000 8.532
21.70000 10.646
21.72000 8.928
21.74000 7.887
21.76000 2.994
21.78000 -4.155
21.80000 5.568
21.82000 5.016
21.84000 -0.644
21.86000 2.160
21.88000 9.169
21.90000 10.748
21.92000 5.788
21.94000 3.217
21.96000 5.302
21.98000 3.786
22.00000 5.310
22.02000 3.597
22.04000 0.446
22.06000 -4.141
22.08000 4.490
22.10000 1.970
22.12000 6.035
22.14000 1.975
22.16000 2.577
22.18000 1.456
22.20000 4.927
22.22000 3.682
22.24000 6.747
22.26000 1.673
22.28000 0.900
22.30000 2.787
22.32000 4.385
22.34000 0.451
22.36000 0.629
22.38000 5.561
22.40000 9.534
22.42000 5.471
22.44000 -2.743
22.46000 1.149
22.48000 7.478
22.50000 4.840
22.52000 6.225
22.54000 8.281
22.56000 3.942
22.58000 7.101
22.60000 1.822
22.62000 1.102
22.64000 -1.364
22.66000 -3.095
22.68000 -0.903
22.70000 0.670
22.72000 4.989
22.74000 7.381
22.76000 2.746
22.78000 -2.162
22.80000 -0.752
22.82000 3.583
22.84000 5.597
22.86000 0.303
22.88000 -0.238
22.90000 3.488
22.92000 6.243
22.94000 7.925
22.96000 7.651
22.98000 3.319
23.00000 4.859
23.02000 7.104
23.04000 1.317
23.06000 -4.084
23.08000 -1.928
23.10000 3.122
23.12000 8.087
23.14000 4.910
23.16000 2.662
23.18000 0.996
23.20000 3.200
23.22000 5.303
23.24000 1.599
23.26000 4.403
23.28000 5.932
23.30000 2.361
23.32000 -2.267
23.34000 2.032
23.36000 8.659
23.38000 5.428
23.40000 5.753
23.42000 4.449
23.44000 4.940
23.46000 -0.539
23.48000 5.129
23.50000 3.838
23.52000 1.489
23.54000 3.285
23.56000 0.857
23.58000 -4.063
23.60000 0.110
23.62000 5.242
23.64000 3.383
23.66000 1.647
23.68000 6.670
23.70000 4.930
23.72000 4.650
23.74000 4.828
23.76000 6.121
23.78000 8.119
23.80000 1.551
23.82000 1.895
23.84000 1.286
23.86000 6.347
23.88000 6.833
23.90000 7.955
23.92000 5.521
23.94000 6.243
23.96000 -1.926
23.98000 -2.190
24.00000 0.045
24.02000 5.343
24.04000 5.878
24.06000 -0.819
24.08000 0.053
24.10000 -3.670
24.12000 3.120
24.14000 5.574
24.16000 4.172
24.18000 2.621
24.20000 0.444
24.22000 1.638
24.24000 1.286
24.26000 1.877
24.28000 9.597
24.30000 8.652
24.32000 3.519
24.34000 1.620
24.36000 8.941
24.38000 5.361
24.40000 1.579
24.42000 3.474
24.44000 6.001
24.46000 7.251
24.48000 6.129
24.50000 7.017
24.52000 6.137
24.54000 2.157
24.56000 -0.766
24.58000 2.282
24.60000 7.702
24.62000 1.697
24.64000 3.015
24.66000 2.512
24.68000 0.513
24.70000 6.206
24.72000 4.558
24.74000 3.221
24.76000 7.408
24.78000 7.049
24.80000 5.870
24.82000 4.683
24.84000 -3.960
24.86000 -0.527
24.88000 4.431
24.90000 7.774
24.92000 4.295
24.94000 3.758
24.96000 6.702
24.98000 9.654
25.00000 11.221
25.02000 13.410
25.04000 14.902
25.06000 7.132
25.08000 2.598
25.10000 5.338
25.12000 6.694
25.14000 0.515
25.16000 6.611
25.18000 1.387
25.20000 0.291
25.22000 5.341
25.24000 6.450
25.26000 3.719
25.28000 6.393
25.30000 9.018
25.32000 5.557
25.34000 1.474
25.36000 2.951
25.38000 2.158
25.40000 5.091
25.42000 0.549
25.44000 1.623
25.46000 0.736
25.48000 0.424
25.50000 2.274
25.52000 0.444
25.54000 2.153
25.56000 7.010
25.58000 4.010
25.60000 3.985
25.62000 7.423
25.64000 8.044
25.66000 7.090
25.68000 3.356
25.70000 7.530
25.72000 5.716
25.74000 4.735
25.76000 5.240
25.78000 5.601
25.80000 2.319
25.82000 -1.806
25.84000 0.413
25.86000 1.694
25.88000 6.097
25.90000 4.710
25.92000 -3.917
25.94000 -2.292
25.96000 7.015
25.98000 2.527
26.00000 5.936
26.02000 3.831
26.04000 3.658
26.06000 2.131
26.08000 3.789
26.10000 4.747
26.12000 7.365
26.14000 3.524
26.16000 4.218
26.18000 12.744
26.20000 6.055
26.22000 1.164
26.24000 -1.229
26.26000 1.084
26.28000 2.464
26.30000 2.798
26.32000 8.030
26.34000 9.077
26.36000 3.477
26.38000 5.073
26.40000 -2.133
26.42000 -3.754
26.44000 -0.962
26.46000 2.932
26.48000 5.043
26.50000 3.100
26.52000 3.287
26.54000 -1.091
26.56000 -1.911
26.58000 4.537
26.60000 5.542
26.62000 1.197
26.64000 2.291
26.66000 5.257
26.68000 6.092
26.70000 7.645
26.72000 -0.704
26.74000 -2.102
26.76000 1.566
26.78000 8.368
26.80000 12.534
26.82000 13.564
26.84000 8.160
26.86000 3.628
26.88000 2.425
26.90000 3.149
26.92000 2.224
26.94000 -3.857
26.96000 2.968
26.98000 3.464
27.00000 4.306
27.02000 2.749
27.04000 8.430
27.06000 4.022
27.08000 -1.824
27.10000 1.718
27.12000 2.742
27.14000 2.545
27.16000 2.212
27.18000 0.735
27.20000 1.514
27.22000 5.132
27.24000 9.297
27.26000 11.477
27.28000 1.528
27.30000 -3.494
27.32000 -1.786
27.34000 1.846
27.36000 9.706
27.38000 2.397
27.40000 -3.381
27.42000 -1.265
27.44000 1.483
27.46000 2.042
27.48000 5.110
27.50000 2.560
27.52000 -1.471
27.54000 0.662
27.56000 4.293
27.58000 -0.096
27.60000 3.177
27.62000 8.389
27.64000 9.436
27.66000 6.725
27.68000 2.126
27.70000 0.265
27.72000 -1.669
27.74000 0.367
27.76000 0.583
27.78000 1.741
27.80000 0.080
27.82000 -0.867
27.84000 5.018
27.86000 2.707
27.88000 5.216
27.90000 0.544
27.92000 -1.237
27.94000 -3.368
27.96000 -0.680
27.98000 2.505
28.00000 4.464
28.02000 -0.917
28.04000 -3.747
28.06000 -1.312
28.08000 -0.393
28.10000 0.784
28.12000 -0.021
28.14000 -0.243
28.16000 1.452
28.18000 -0.637
28.20000 2.308
28.22000 -1.778
28.24000 -3.198
28.26000 -2.292
28.28000 -3.803
28.30000 1.396
28.32000 6.078
28.34000 3.744
28.36000 0.152
28.38000 2.621
28.40000 6.049
28.42000 5.964
28.44000 0.716
28.46000 3.995
28.48000 0.788
28.50000 4.697
28.52000 0.240
28.54000 0.112
28.56000 -0.620
28.58000 3.693
28.60000 5.963
28.62000 8.508
28.64000 0.448
28.66000 -3.772
28.68000 2.062
28.70000 4.725
28.72000 4.313
28.74000 -0.078
28.76000 7.828
28.78000 1.914
28.80000 4.743
28.82000 6.130
28.84000 2.084
28.86000 -3.695
28.88000 -3.491
28.90000 2.710
28.92000 -2.394
28.94000 -2.806
28.96000 -0.286
28.98000 5.954
29.00000 5.963
29.02000 6.984
29.04000 -0.675
29.06000 4.097
29.08000 7.845
29.10000 6.475
29.12000 3.029
29.14000 -1.590
29.16000 -1.186
29.18000 0.042
29.20000 2.431
29.22000 2.863
29.24000 3.466
29.26000 4.834
29.28000 5.814
29.30000 5.906
29.32000 2.290
29.34000 0.564
29.36000 0.256
29.38000 5.428
29.40000 7.552
29.42000 1.907
29.44000 4.916
29.46000 4.884
29.48000 1.157
29.50000 4.713
29.52000 5.722
29.54000 2.929
29.56000 2.262
29.58000 6.753
29.60000 7.846
29.62000 4.291
29.64000 4.322
29.66000 7.350
29.68000 3.288
29.70000 4.181
29.72000 5.326
29.74000 3.869
29.76000 -1.012
29.78000 -1.634
29.80000 3.056
29.82000 1.401
29.84000 -3.712
29.86000 4.012
29.88000 8.596
29.90000 3.862
29.92000 0.174
29.94000 4.906
29.96000 4.791
29.98000 2.951
30.00000 2.986
30.02000 -0.618
30.04000 -0.601
30.06000 4.358
30.08000 3.251
30.10000 5.350
30.12000 3.158
30.14000 2.523
30.16000 2.276
30.18000 2.314
30.20000 5.311
30.22000 3.420
30.24000 1.469
30.26000 -1.674
30.28000 4.292
30.30000 5.272
30.32000 -1.281
30.34000 6.162
30.36000 7.276
30.38000 2.138
30.40000 1.069
30.42000 3.392
30.44000 0.718
30.46000 1.953
30.48000 2.637
30.50000 4.458
30.52000 7.124
30.54000 4.240
30.56000 1.345
30.58000 5.899
30.60000 5.228
30.62000 3.297
30.64000 5.249
30.66000 -0.829
30.68000 -3.673
30.70000 -0.944
30.72000 3.236
30.74000 -0.013
30.76000 0.384
30.78000 -3.672
30.80000 -1.145
30.82000 0.902
30.84000 0.249
30.86000 3.937
30.88000 2.608
30.90000 3.640
30.92000 3.808
30.94000 1.339
30.96000 1.360
30.98000 5.824
31.00000 5.962
31.02000 2.507
31.04000 2.107
31.06000 -0.492
31.08000 4.050
31.10000 3.227
31.12000 -0.429
31.14000 -0.579
31.16000 0.459
31.18000 6.519
31.20000 6.745
31.22000 4.475
31.24000 4.241
31.26000 4.053
31.28000 0.351
31.30000 -0.636
31.32000 1.958
31.34000 0.854
31.36000 -0.795
31.38000 -3.658
31.40000 -1.158
31.42000 3.293
31.44000 1.513
31.46000 0.178
31.48000 2.229
31.50000 6.732
31.52000 4.243
31.54000 1.650
31.56000 3.505
31.58000 3.535
31.60000 4.839
31.62000 7.254
31.64000 3.255
31.66000 1.018
31.68000 2.817
31.70000 1.888
31.72000 -1.621
31.74000 0.929
31.76000 -3.642
31.78000 -0.680
31.80000 0.404
31.82000 1.939
31.84000 -2.184
31.86000 1.065
31.88000 0.360
31.90000 2.218
31.92000 4.424
31.94000 5.296
31.96000 1.297
31.98000 3.242
32.00000 3.178
32.02000 4.347
32.04000 -0.315
32.06000 2.094
32.08000 4.341
32.10000 2.925
32.12000 2.445
32.14000 3.253
32.16000 2.488
32.18000 -1.168
32.20000 0.874
32.22000 2.288
32.24000 0.555
32.26000 0.021
32.28000 3.143
32.30000 1.359
32.32000 -2.002
32.34000 1.316
32.36000 4.204
32.38000 2.386
32.40000 -1.150
32.42000 -1.340
32.44000 2.084
32.46000 1.200
32.48000 2.402
32.50000 -3.629
32.52000 -1.784
32.54000 1.828
32.56000 2.927
32.58000 4.218
32.60000 4.463
32.62000 5.224
32.64000 0.454
32.66000 -1.116
32.68000 0.516
32.70000 1.018
32.72000 -0.451
32.74000 2.859
32.76000 -1.183
32.78000 -0.856
32.80000 -0.008
32.82000 -1.835
32.84000 3.555
32.86000 5.704
32.88000 2.053
32.90000 -2.113
32.92000 4.455
32.94000 2.162
32.96000 -1.263
32.98000 -2.644
33.00000 3.536
33.02000 6.559
33.04000 4.075
33.06000 2.021
33.08000 -2.071
33.10000 5.335
33.12000 4.638
33.14000 2.209
33.16000 -3.503
33.18000 0.599
33.20000 2.182
33.22000 -1.865
33.24000 2.240
33.26000 2.341
33.28000 5.760
33.30000 2.371
33.32000 5.017
33.34000 0.645
33.36000 2.430
33.38000 -2.433
33.40000 -3.603
33.42000 4.403
33.44000 3.116
33.46000 0.855
33.48000 5.101
33.50000 3.665
33.52000 2.745
33.54000 8.794
33.56000 3.023
33.58000 3.720
33.60000 3.408
33.62000 2.726
33.64000 -0.785
33.66000 3.470
33.68000 4.737
33.70000 -0.630
33.72000 -1.859
33.74000 1.122
33.76000 -0.112
33.78000 -0.755
33.80000 -2.301
33.82000 -0.244
33.84000 2.870
33.86000 2.791
33.88000 6.303
33.90000 4.557
33.92000 3.613
33.94000 4.995
33.96000 10.330
33.98000 6.019
34.00000 7.255
34.02000 4.871
34.04000 1.334
34.06000 2.453
34.08000 1.963
34.10000 3.639
34.12000 0.301
34.14000 1.544
34.16000 5.647
34.18000 5.003
34.20000 3.724
34.22000 1.104
34.24000 4.598
34.26000 4.093
34.28000 2.816
34.30000 2.801
34.32000 2.342
34.34000 1.689
34.36000 2.515
34.38000 5.393
34.40000 1.002
34.42000 -2.013
34.44000 2.086
34.46000 3.087
34.48000 0.308
34.50000 0.227
34.52000 2.943
34.54000 4.256
34.56000 2.808
34.58000 3.397
34.60000 4.603
34.62000 7.236
34.64000 4.883
34.66000 2.113
34.68000 -0.669
34.70000 4.840
34.72000 10.871
34.74000 7.294
34.76000 7.302
34.78000 3.719
34.80000 5.124
34.82000 -0.924
34.84000 -3.548
34.86000 1.252
34.88000 4.102
34.90000 7.108
34.92000 0.858
34.94000 4.365
34.96000 3.499
34.98000 5.037
35.00000 5.326
35.02000 2.182
35.04000 -0.452
35.06000 -2.750
35.08000 -0.520
35.10000 4.888
35.12000 4.048
35.14000 2.340
35.16000 0.343
35.18000 4.097
35.20000 4.497
35.22000 0.834
35.24000 -0.362
35.26000 1.084
35.28000 3.012
35.30000 4.279
35.32000 3.732
35.34000 0.847
35.36000 1.691
35.38000 1.470
35.40000 1.133
35.42000 -0.001
35.44000 -2.717
35.46000 -2.726
35.48000 -2.287
35.50000 -2.736
35.52000 1.106
35.54000 1.632
35.56000 5.026
35.58000 0.924
35.60000 6.133
35.62000 -1.255
35.64000 5.060
35.66000 5.211
35.68000 2.197
35.70000 1.154
35.72000 0.147
35.74000 1.387
35.76000 0.153
35.78000 -1.956
35.80000 -1.232
35.82000 -1.647
35.84000 3.697
35.86000 2.992
35.88000 1.256
35.90000 2.605
35.92000 1.908
35.94000 5.062
35.96000 5.515
35.98000 3.946
36.00000 0.985
36.02000 1.643
36.04000 -0.438
36.06000 -1.086
36.08000 -0.016
36.10000 7.930
36.12000 8.153
36.14000 1.257
36.16000 2.912
36.18000 3.050
36.20000 -0.178
36.22000 0.039
36.24000 3.607
36.26000 -0.256
36.28000 -2.515
36.30000 -0.415
36.32000 0.640
36.34000 -0.192
36.36000 0.171
36.38000 -0.871
36.40000 5.082
36.42000 4.545
36.44000 4.813
36.46000 1.049
36.48000 0.800
36.50000 1.212
36.52000 0.637
36.54000 -0.742
36.56000 0.919
36.58000 -3.584
36.60000 -1.053
36.62000 2.574
36.64000 -0.156
36.66000 0.221
36.68000 7.120
36.70000 6.935
36.72000 4.466
36.74000 -0.411
36.76000 0.888
36.78000 0.191
36.80000 2.550
36.82000 2.114
36.84000 0.851
36.86000 -0.052
36.88000 -1.333
36.90000 0.295
36.92000 0.095
36.94000 -2.011
36.96000 2.946
36.98000 -1.887
37.00000 -2.364
37.02000 -1.223
37.04000 -3.205
37.06000 1.015
37.08000 -0.088
37.10000 0.197
37.12000 3.408
37.14000 -0.717
37.16000 0.332
37.18000 0.458
37.20000 0.753
37.22000 -3.335
37.24000 3.099
37.26000 2.958
37.28000 4.805
37.30000 3.819
37.32000 -3.041
37.34000 2.949
37.36000 7.119
37.38000 6.369
37.40000 10.344
37.42000 6.580
37.44000 3.926
37.46000 1.448
37.48000 7.362
37.50000 7.969
37.52000 9.787
37.54000 8.615
37.56000 9.510
37.58000 7.176
37.60000 6.538
37.62000 7.951
37.64000 7.589
37.66000 10.649
37.68000 12.307
37.70000 11.580
37.72000 5.961
37.74000 10.870
37.76000 11.337
37.78000 11.927
37.80000 10.040
37.82000 11.938
37.84000 15.970
37.86000 16.451
37.88000 19.014
37.90000 13.335
37.92000 8.674
37.94000 15.181
37.96000 20.173
37.98000 17.844
38.00000 17.982
38.02000 16.119
38.04000 14.772
38.06000 16.910
38.08000 16.226
38.10000 15.967
38.12000 22.695
38.14000 21.529
38.16000 20.293
38.18000 26.039
38.20000 27.181
38.22000 32.928
38.24000 28.505
38.26000 25.811
38.28000 27.080
38.30000 31.229
38.32000 33.073
38.34000 33.886
38.36000 33.061
38.38000 35.688
38.40000 37.204
38.42000 39.860
38.44000 38.800
38.46000 40.770
38.48000 41.933
38.50000 39.971
38.52000 46.174
38.54000 47.538
38.56000 47.727
38.58000 50.007
38.60000 50.708
38.62000 57.182
38.64000 56.927
38.66000 57.070
38.68000 63.274
38.70000 64.402
38.72000 64.114
38.74000 73.913
38.76000 74.364
38.78000 71.824
38.80000 86.352
38.82000 84.861
38.84000 79.348
38.86000 80.020
38.88000 94.567
38.90000 97.739
38.92000 97.459
38.94000 103.348
38.96000 107.454
38.98000 116.399
39.00000 116.632
39.02000 121.417
39.04000 127.822
39.06000 124.830
39.08000 135.266
39.10000 147.606
39.12000 155.383
39.14000 156.783
39.16000 163.417
39.18000 173.452
39.20000 182.749
39.22000 190.651
39.24000 196.023
39.26000 201.745
39.28000 216.008
39.30000 224.898
39.32000 246.582
39.34000 265.165
39.36000 269.570
39.38000 279.348
39.40000 296.044
39.42000 310.389
39.44000 320.619
39.46000 342.751
39.48000 364.830
39.50000 372.798
39.52000 392.490
39.54000 423.323
39.56000 435.687
39.58000 462.597
39.60000 479.627
39.62000 496.637
39.64000 517.590
39.66000 534.615
39.68000 560.086
39.70000 587.736
39.72000 619.689
39.74000 634.165
39.76000 644.705
39.78000 668.966
39.80000 686.633
39.82000 701.849
39.84000 715.870
39.86000 735.893
39.88000 751.054
39.90000 758.652
39.92000 768.591
39.94000 774.412
39.96000 768.403
39.98000 772.945
40.00000 770.968
40.02000 775.826
40.04000 764.550
40.06000 743.024
40.08000 734.264
40.10000 717.580
40.12000 702.039
40.14000 688.399
40.16000 666.216
40.18000 652.758
40.20000 636.568
40.22000 607.380
40.24000 587.319
40.26000 569.120
40.28000 552.368
40.30000 516.096
40.32000 492.818
40.34000 467.670
40.36000 453.693
40.38000 440.228
40.40000 414.594
40.42000 400.027
40.44000 377.124
40.46000 360.654
40.48000 345.524
40.50000 322.956
40.52000 303.538
40.54000 287.658
40.56000 274.656
40.58000 262.126
40.60000 238.798
40.62000 225.804
40.64000 221.431
40.66000 211.948
40.68000 193.190
40.70000 181.326
40.72000 167.089
40.74000 162.636
40.76000 157.756
40.78000 144.996
40.80000 134.069
40.82000 127.182
40.84000 119.127
40.86000 107.928
40.88000 103.277
40.90000 99.973
40.92000 90.348
40.94000 91.435
40.96000 90.890
40.98000 80.434
41.00000 74.672
41.02000 73.956
41.04000 68.129
41.06000 62.034
41.08000 56.944
41.10000 53.792
41.12000 47.509
41.14000 45.971
41.16000 48.359
41.18000 43.636
41.20000 38.911
41.22000 40.896
41.24000 38.279
41.26000 40.783
41.28000 38.109
41.30000 34.395
41.32000 35.072
41.34000 35.505
41.36000 33.745
41.38000 28.194
41.40000 26.036
41.42000 27.518
41.44000 26.620
41.46000 21.931
41.48000 18.170
41.50000 23.043
41.52000 22.173
41.54000 16.320
41.56000 14.725
41.58000 15.143
41.60000 15.794
41.62000 10.532
41.64000 11.087
41.66000 11.862
41.68000 12.655
41.70000 17.171
41.72000 17.088
41.74000 14.244
41.76000 5.750
41.78000 4.151
41.80000 9.384
41.82000 12.357
41.84000 15.186
41.86000 12.671
41.88000 7.354
41.90000 11.910
41.92000 9.102
41.94000 3.734
41.96000 4.132
41.98000 5.598
42.00000 6.999
42.02000 5.539
42.04000 6.580
42.06000 6.671
42.08000 6.984
42.10000 4.161
42.12000 -0.177
42.14000 1.044
42.16000 4.835
42.18000 3.915
42.20000 4.517
42.22000 -0.958
42.24000 -3.497
42.26000 2.338
42.28000 4.776
42.30000 3.928
42.32000 4.304
42.34000 4.194
42.36000 3.802
42.38000 4.370
42.40000 2.859
42.42000 2.338
42.44000 0.996
42.46000 0.507
42.48000 2.850
42.50000 2.444
42.52000 3.389
42.54000 2.925
42.56000 2.602
42.58000 3.844
42.60000 5.064
42.62000 -2.307
42.64000 -0.848
42.66000 3.462
42.68000 3.946
42.70000 4.617
42.72000 4.058
42.74000 0.717
42.76000 3.367
42.78000 3.801
42.80000 6.279
42.82000 8.678
42.84000 4.708
42.86000 1.334
42.88000 3.812
42.90000 2.673
42.92000 -3.397
42.94000 1.954
42.96000 2.420
42.98000 5.137
43.00000 3.845
43.02000 2.202
43.04000 -1.429
43.06000 1.698
43.08000 2.649
43.10000 -1.990
43.12000 -1.698
43.14000 -2.383
43.16000 -2.638
43.18000 0.022
43.20000 -0.296
43.22000 -1.208
43.24000 0.435
43.26000 7.298
43.28000 3.631
43.30000 0.206
43.32000 0.102
43.34000 0.669
43.36000 2.832
43.38000 4.030
43.40000 -0.886
43.42000 -2.446
43.44000 1.459
43.46000 5.343
43.48000 1.530
43.50000 5.035
43.52000 3.887
43.54000 4.630
43.56000 2.507
43.58000 -2.592
43.60000 -3.320
43.62000 2.432
43.64000 2.796
43.66000 0.384
43.68000 -0.666
43.70000 -1.570
43.72000 -1.271
43.74000 5.162
43.76000 6.029
43.78000 3.105
43.80000 2.785
43.82000 4.752
43.84000 1.268
43.86000 2.577
43.88000 0.517
43.90000 2.290
43.92000 4.475
43.94000 1.422
43.96000 3.138
43.98000 -1.460
44.00000 1.091
44.02000 2.795
44.04000 0.461
44.06000 0.675
44.08000 1.473
44.10000 1.321
44.12000 2.802
44.14000 4.883
44.16000 5.096
44.18000 1.789
44.20000 2.491
44.22000 6.002
44.24000 2.846
44.26000 -0.013
44.28000 -0.148
44.30000 -1.392
44.32000 -0.746
44.34000 2.353
44.36000 4.611
44.38000 5.984
44.40000 2.490
44.42000 0.198
44.44000 3.302
44.46000 6.150
44.48000 4.498
44.50000 3.692
44.52000 2.895
44.54000 6.684
44.56000 1.095
44.58000 1.893
44.60000 2.716
44.62000 6.282
44.64000 5.037
44.66000 3.360
44.68000 3.831
44.70000 4.923
44.72000 7.525
44.74000 1.273
44.76000 -3.318
44.78000 2.134
44.80000 6.659
44.82000 5.229
44.84000 6.409
44.86000 8.679
44.88000 3.193
44.90000 5.895
44.92000 7.762
44.94000 6.267
44.96000 5.943
44.98000 7.445
45.00000 10.099
45.02000 8.648
45.04000 4.759
45.06000 5.180
45.08000 10.754
45.10000 11.307
45.12000 9.401
45.14000 8.039
45.16000 11.603
45.18000 16.229
45.20000 16.758
45.22000 19.860
45.24000 16.641
45.26000 13.717
45.28000 13.099
45.30000 18.137
45.32000 20.867
45.34000 17.893
45.36000 18.326
45.38000 17.697
45.40000 20.394
45.42000 22.848
45.44000 20.556
45.46000 22.385
45.48000 26.283
45.50000 23.689
45.52000 24.279
45.54000 23.463
45.56000 27.093
45.58000 31.927
45.60000 28.170
45.62000 31.115
45.64000 32.834
45.66000 36.699
45.68000 36.353
45.70000 37.523
45.72000 41.853
45.74000 41.562
45.76000 38.781
45.78000 36.035
45.80000 36.552
45.82000 47.013
45.84000 49.073
45.86000 51.055
45.88000 54.735
45.90000 51.795
45.92000 55.593
45.94000 59.169
45.96000 58.630
45.98000 62.134
46.00000 58.809
46.02000 63.016
46.04000 64.821
46.06000 65.790
46.08000 68.612
46.10000 74.167
46.12000 77.447
46.14000 79.620
46.16000 82.500
46.18000 82.183
46.20000 81.634
46.22000 82.902
46.24000 81.531
46.26000 87.207
46.28000 92.779
46.30000 94.444
46.32000 104.620
46.34000 98.618
46.36000 98.005
46.38000 105.321
46.40000 102.118
46.42000 105.793
46.44000 104.548
46.46000 107.003
46.48000 111.517
46.50000 113.135
46.52000 110.411
46.54000 117.128
46.56000 116.229
46.58000 123.439
46.60000 119.788
46.62000 121.047
46.64000 122.753
46.66000 117.470
46.68000 117.304
46.70000 117.856
46.72000 117.489
46.74000 117.154
46.76000 115.853
46.78000 119.033
46.80000 122.163
46.82000 114.199
46.84000 110.825
46.86000 106.121
46.88000 113.075
46.90000 114.583
46.92000 113.131
46.94000 102.544
46.96000 95.637
46.98000 91.419
47.00000 99.068
47.02000 94.625
47.04000 91.834
47.06000 91.409
47.08000 84.393
47.10000 83.272
47.12000 76.137
47.14000 74.949
47.16000 73.085
47.18000 72.920
47.20000 68.913
47.22000 57.051
47.24000 59.435
47.26000 57.386
47.28000 59.427
47.30000 50.709
47.32000 49.559
47.34000 49.982
47.36000 46.679
47.38000 45.354
47.40000 45.762
47.42000 42.869
47.44000 41.498
47.46000 41.084
47.48000 39.149
47.50000 33.276
47.52000 26.252
47.54000 26.693
47.56000 32.983
47.58000 35.158
47.60000 30.327
47.62000 29.081
47.64000 17.624
47.66000 13.919
47.68000 17.889
47.70000 14.225
47.72000 14.609
47.74000 17.337
47.76000 16.581
47.78000 18.456
47.80000 19.184
47.82000 13.023
47.84000 13.224
47.86000 14.056
47.88000 13.612
47.90000 11.431
47.92000 12.230
47.94000 9.098
47.96000 5.410
47.98000 5.863
48.00000 6.398
48.02000 8.226
48.04000 4.683
48.06000 5.572
48.08000 2.965
48.10000 5.628
48.12000 7.748
48.14000 5.552
48.16000 10.713
48.18000 6.992
48.20000 3.476
48.22000 2.478
48.24000 3.735
48.26000 1.224
48.28000 -2.980
48.30000 2.752
48.32000 2.384
48.34000 -0.134
48.36000 2.936
48.38000 3.896
48.40000 7.263
48.42000 -1.661
48.44000 0.516
48.46000 3.151
48.48000 3.085
48.50000 -1.594
48.52000 -1.849
48.54000 -1.446
48.56000 3.433
48.58000 4.362
48.60000 3.336
48.62000 2.172
48.64000 -1.663
48.66000 2.361
48.68000 4.506
48.70000 4.067
48.72000 1.264
48.74000 -0.235
48.76000 3.516
48.78000 6.226
48.80000 3.956
48.82000 5.167
48.84000 0.209
48.86000 -2.200
48.88000 -2.845
48.90000 -2.095
48.92000 4.355
48.94000 4.556
48.96000 1.377
48.98000 1.603
49.00000 5.587
49.02000 3.515
49.04000 -0.565
49.06000 1.051
49.08000 0.882
49.10000 -0.361
49.12000 -1.536
49.14000 -1.626
49.16000 0.232
49.18000 1.412
49.20000 4.939
49.22000 4.017
49.24000 3.944
49.26000 1.232
49.28000 0.192
49.30000 2.090
49.32000 1.577
49.34000 4.357
49.36000 9.776
49.38000 6.288
49.40000 2.728
49.42000 -1.289
49.44000 0.774
49.46000 1.280
49.48000 6.629
49.50000 4.489
49.52000 3.527
49.54000 0.997
49.56000 -2.381
49.58000 -0.027
49.60000 2.759
49.62000 3.268
49.64000 2.793
49.66000 4.409
49.68000 5.256
49.70000 5.616
49.72000 5.831
49.74000 -1.841
49.76000 -1.888
49.78000 -2.294
49.80000 -0.986
49.82000 3.503
49.84000 6.425
49.86000 10.523
49.88000 9.891
49.90000 5.162
49.92000 3.250
49.94000 1.569
49.96000 1.522
49.98000 1.344
50.00000 4.858
50.02000 -1.324
50.04000 -2.715
50.06000 -0.883
50.08000 2.611
50.10000 4.135
50.12000 0.799
50.14000 6.039
50.16000 7.199
50.18000 6.001
50.20000 7.330
50.22000 5.601
50.24000 8.495
50.26000 13.649
50.28000 5.505
50.30000 0.225
50.32000 5.345
50.34000 2.500
50.36000 2.525
50.38000 6.710
50.40000 8.528
50.42000 3.541
50.44000 -0.233
50.46000 -2.689
50.48000 1.099
50.50000 6.532
50.52000 4.099
50.54000 1.433
50.56000 6.672
50.58000 1.327
50.60000 -0.634
50.62000 1.464
50.64000 1.504
50.66000 2.177
50.68000 2.577
50.70000 3.830
50.72000 1.077
50.74000 2.441
50.76000 1.862
50.78000 0.353
50.80000 4.059
50.82000 4.733
50.84000 4.544
50.86000 2.013
50.88000 0.122
50.90000 0.722
50.92000 1.486
50.94000 4.473
50.96000 0.682
50.98000 3.656
51.00000 3.284
51.02000 1.461
51.04000 -1.552
51.06000 3.549
51.08000 0.235
51.10000 1.640
51.12000 -0.058
51.14000 -0.483
51.16000 -0.409
51.18000 -0.285
51.20000 -0.202
51.22000 -0.475
51.24000 1.169
51.26000 2.380
51.28000 0.311
51.30000 2.984
51.32000 3.816
51.34000 1.254
51.36000 4.539
51.38000 3.346
51.40000 2.515
51.42000 0.629
51.44000 0.325
51.46000 2.089
51.48000 8.411
51.50000 7.058
51.52000 4.853
51.54000 4.684
51.56000 6.887
51.58000 3.580
51.60000 0.507
51.62000 7.606
51.64000 5.863
51.66000 3.189
51.68000 2.469
51.70000 3.158
51.72000 0.988
51.74000 0.939
51.76000 4.354
51.78000 4.044
51.80000 4.503
51.82000 4.889
51.84000 4.109
51.86000 2.897
51.88000 4.920
51.90000 5.546
51.92000 3.450
51.94000 -0.605
51.96000 3.143
51.98000 5.194
52.00000 0.010
52.02000 -2.633
52.04000 -2.192
52.06000 -1.173
52.08000 0.578
52.10000 0.447
52.12000 0.638
52.14000 -0.450
52.16000 -0.345
52.18000 0.014
52.20000 -1.233
52.22000 2.624
52.24000 3.700
52.26000 6.639
52.28000 0.847
52.30000 5.000
52.32000 3.940
52.34000 1.812
52.36000 2.750
52.38000 3.422
52.40000 2.169
52.42000 0.386
52.44000 0.415
52.46000 1.061
52.48000 2.457
52.50000 6.179
52.52000 6.897
52.54000 3.378
52.56000 3.715
52.58000 3.060
52.60000 2.125
52.62000 2.912
52.64000 3.698
52.66000 0.578
52.68000 1.623
52.70000 4.524
52.72000 -1.954
52.74000 -2.632
52.76000 0.010
52.78000 0.286
52.80000 4.010
52.82000 2.107
52.84000 2.656
52.86000 2.593
52.88000 0.936
52.90000 0.728
52.92000 -0.996
52.94000 0.047
52.96000 1.923
52.98000 -0.162
53.00000 2.687
53.02000 1.862
53.04000 0.005
53.06000 1.402
53.08000 3.934
53.10000 4.430
53.12000 -0.211
53.14000 1.367
53.16000 1.515
53.18000 2.090
53.20000 1.100
53.22000 5.079
53.24000 3.978
53.26000 3.553
53.28000 2.801
53.30000 0.097
53.32000 2.369
53.34000 2.269
53.36000 4.183
53.38000 2.754
53.40000 0.446
53.42000 0.311
53.44000 1.668
53.46000 -0.075
53.48000 0.692
53.50000 1.325
53.52000 -0.134
53.54000 1.473
53.56000 5.382
53.58000 0.678
53.60000 1.022
53.62000 0.831
53.64000 -0.417
53.66000 3.556
53.68000 5.692
53.70000 2.974
53.72000 -1.297
53.74000 0.030
53.76000 0.156
53.78000 0.428
53.80000 -2.590
53.82000 -0.852
53.84000 2.800
53.86000 6.274
53.88000 5.387
53.90000 2.365
53.92000 3.880
53.94000 3.120
53.96000 0.047
53.98000 1.186
54.00000 5.114
54.02000 6.684
54.04000 1.075
54.06000 0.423
54.08000 1.100
54.10000 1.717
54.12000 1.968
54.14000 -0.395
54.16000 1.153
54.18000 2.070
54.20000 2.277
54.22000 -1.012
54.24000 0.973
54.26000 -1.139
54.28000 -0.237
54.30000 0.035
54.32000 3.025
54.34000 1.094
54.36000 -0.232
54.38000 3.189
54.40000 5.756
54.42000 3.835
54.44000 0.534
54.46000 -0.520
54.48000 1.276
54.50000 0.884
54.52000 1.639
54.54000 2.037
54.56000 0.498
54.58000 0.220
54.60000 -2.281
54.62000 -0.342
54.64000 0.622
54.66000 -0.496
54.68000 1.302
54.70000 2.995
54.72000 -2.468
54.74000 2.109
54.76000 3.567
54.78000 4.482
54.80000 1.992
54.82000 0.110
54.84000 3.791
54.86000 4.324
54.88000 2.883
54.90000 1.264
54.92000 2.423
54.94000 3.405
54.96000 -1.771
54.98000 -2.341
55.00000 -0.535
55.02000 3.750
55.04000 1.715
55.06000 3.456
55.08000 2.918
55.10000 2.652
55.12000 1.558
55.14000 0.170
55.16000 -1.332
55.18000 -0.047
55.20000 0.669
55.22000 0.976
55.24000 3.128
55.26000 6.941
55.28000 4.191
55.30000 4.738
55.32000 4.056
55.34000 3.501
55.36000 1.601
55.38000 4.096
55.40000 7.598
55.42000 4.113
55.44000 -2.526
55.46000 -0.804
55.48000 3.361
55.50000 2.204
55.52000 1.249
55.54000 3.231
55.56000 2.339
55.58000 1.545
55.60000 2.559
55.62000 2.925
55.64000 7.164
55.66000 5.876
55.68000 1.832
55.70000 5.962
55.72000 9.319
55.74000 5.095
55.76000 2.114
55.78000 0.159
55.80000 2.835
55.82000 3.129
55.84000 -0.435
55.86000 0.957
55.88000 5.499
55.90000 3.542
55.92000 2.083
55.94000 -0.972
55.96000 0.998
55.98000 4.862
56.00000 7.762
56.02000 2.866
56.04000 2.066
56.06000 2.695
56.08000 0.137
56.10000 2.804
56.12000 2.084
56.14000 1.131
56.16000 0.417
56.18000 0.819
56.20000 0.059
56.22000 0.767
56.24000 3.837
56.26000 5.876
56.28000 2.086
56.30000 5.561
56.32000 2.830
56.34000 2.411
56.36000 2.554
56.38000 3.077
56.40000 2.304
56.42000 1.550
56.44000 5.467
56.46000 3.424
56.48000 3.761
56.50000 3.150
56.52000 -1.278
56.54000 -0.348
56.56000 5.572
56.58000 7.175
56.60000 5.133
56.62000 5.773
56.64000 4.818
56.66000 1.140
56.68000 2.985
56.70000 4.734
56.72000 4.529
56.74000 2.702
56.76000 2.176
56.78000 0.595
56.80000 1.151
56.82000 -2.494
56.84000 -0.106
56.86000 3.367
56.88000 2.294
56.90000 4.420
56.92000 0.190
56.94000 2.717
56.96000 2.940
56.98000 4.454
57.00000 2.876
57.02000 -0.959
57.04000 -2.359
57.06000 -2.497
57.08000 -0.305
57.10000 2.878
57.12000 2.926
57.14000 3.113
57.16000 1.155
57.18000 3.148
57.20000 1.644
57.22000 2.484
57.24000 0.234
57.26000 2.908
57.28000 3.247
57.30000 2.615
57.32000 2.577
57.34000 2.495
57.36000 3.530
57.38000 3.346
57.40000 -0.285
57.42000 1.604
57.44000 3.648
57.46000 2.123
57.48000 3.518
57.50000 2.344
57.52000 2.956
57.54000 3.661
57.56000 4.197
57.58000 1.052
57.60000 3.475
57.62000 1.672
57.64000 -0.180
57.66000 -1.664
57.68000 -2.487
57.70000 0.716
57.72000 5.521
57.74000 7.216
57.76000 5.281
57.78000 4.513
57.80000 4.156
57.82000 6.322
57.84000 3.229
57.86000 0.327
57.88000 -0.499
57.90000 -0.444
57.92000 2.753
57.94000 1.655
57.96000 -1.013
57.98000 -2.308
58.00000 0.073
58.02000 2.175
58.04000 3.906
58.06000 2.153
58.08000 3.196
58.10000 1.991
58.12000 4.377
58.14000 3.522
58.16000 2.876
58.18000 1.954
58.20000 0.343
58.22000 3.560
58.24000 2.959
58.26000 2.803
58.28000 0.867
58.30000 -0.698
58.32000 -2.091
58.34000 0.269
58.36000 0.438
58.38000 1.960
58.40000 2.640
58.42000 4.768
58.44000 6.750
58.46000 9.973
58.48000 6.863
58.50000 2.977
58.52000 4.692
58.54000 5.981
58.56000 3.564
58.58000 1.861
58.60000 2.872
58.62000 4.461
58.64000 1.544
58.66000 2.441
58.68000 4.991
58.70000 4.312
58.72000 -2.444
58.74000 -1.154
58.76000 4.333
58.78000 7.499
58.80000 1.132
58.82000 -0.683
58.84000 2.666
58.86000 2.564
58.88000 2.777
58.90000 2.767
58.92000 -0.026
58.94000 -0.803
58.96000 5.733
58.98000 8.457
59.00000 3.341
59.02000 1.967
59.04000 3.874
59.06000 0.846
59.08000 0.156
59.10000 2.077
59.12000 3.176
59.14000 1.028
59.16000 -1.645
59.18000 -2.398
59.20000 0.710
59.22000 1.066
59.24000 0.325
59.26000 0.856
59.28000 7.791
59.30000 7.738
59.32000 1.101
59.34000 -1.148
59.36000 -1.077
59.38000 -0.745
59.40000 1.448
59.42000 1.428
59.44000 0.808
59.46000 2.460
59.48000 -0.922
59.50000 0.617
59.52000 0.077
59.54000 1.151
59.56000 1.347
59.58000 1.291
59.60000 4.889
59.62000 3.480
59.64000 -0.146
59.66000 -1.029
59.68000 -1.026
59.70000 1.105
59.72000 -0.097
59.74000 0.126
59.76000 4.177
59.78000 6.493
59.80000 2.816
59.82000 3.213
59.84000 2.888
59.86000 5.811
59.88000 5.220
59.90000 7.467
59.92000 5.178
59.94000 -0.990
59.96000 -0.534
59.98000 1.220
60.00000 3.492
60.02000 7.226
60.04000 2.887
60.06000 0.384
60.08000 4.352
60.10000 2.476
60.12000 0.740
60.14000 4.382
60.16000 4.727
60.18000 4.520
60.20000 2.845
60.22000 2.878
60.24000 2.934
60.26000 2.736
60.28000 2.563
60.30000 4.321
60.32000 6.040
60.34000 3.690
60.36000 1.265
60.38000 3.022
60.40000 3.012
60.42000 5.554
60.44000 5.135
60.46000 0.392
60.48000 -0.158
60.50000 2.592
60.52000 1.563
60.54000 1.160
60.56000 -0.375
60.58000 -2.387
60.60000 2.299
60.62000 -0.373
60.64000 1.287
60.66000 5.172
60.68000 5.634
60.70000 3.095
60.72000 3.889
60.74000 1.357
60.76000 -2.378
60.78000 1.107
60.80000 4.260
60.82000 6.418
60.84000 7.209
60.86000 6.382
60.88000 4.731
60.90000 3.937
60.92000 2.910
60.94000 2.637
60.96000 2.763
60.98000 3.429
61.00000 7.477
61.02000 7.554
61.04000 4.821
61.06000 4.223
61.08000 4.821
61.10000 0.488
61.12000 -0.162
61.14000 3.359
61.16000 3.355
61.18000 3.422
61.20000 4.526
61.22000 4.674
61.24000 2.278
61.26000 4.058
61.28000 1.608
61.30000 3.244
61.32000 5.081
61.34000 2.486
61.36000 1.450
61.38000 -0.171
61.40000 1.006
61.42000 0.699
61.44000 4.566
61.46000 3.459
61.48000 2.703
61.50000 4.518
61.52000 1.563
61.54000 1.514
61.56000 2.775
61.58000 -0.187
61.60000 -1.859
61.62000 3.163
61.64000 5.577
61.66000 1.230
61.68000 2.046
61.70000 0.352
61.72000 -0.877
61.74000 1.323
61.76000 3.172
61.78000 3.075
61.80000 -2.362
61.82000 -1.795
61.84000 1.287
61.86000 5.027
61.88000 3.156
61.90000 -0.470
61.92000 0.768
61.94000 2.137
61.96000 4.781
61.98000 4.619
62.00000 2.582
62.02000 4.438
62.04000 4.932
62.06000 5.906
62.08000 2.629
62.10000 -2.349
62.12000 1.193
62.14000 -0.309
62.16000 2.539
62.18000 1.720
62.20000 3.068
62.22000 3.895
62.24000 1.291
62.26000 2.444
62.28000 1.420
62.30000 3.651
62.32000 2.462
62.34000 0.840
62.36000 3.109
62.38000 2.911
62.40000 -0.681
62.42000 0.630
62.44000 2.324
62.46000 4.919
62.48000 3.935
62.50000 -0.274
62.52000 -0.702
62.54000 -1.118
62.56000 -0.592
62.58000 2.490
62.60000 4.259
62.62000 4.552
62.64000 3.636
62.66000 1.138
62.68000 0.619
62.70000 2.578
62.72000 4.072
62.74000 4.094
62.76000 1.493
62.78000 0.653
62.80000 2.569
62.82000 3.645
62.84000 2.062
62.86000 -2.366
62.88000 0.259
62.90000 1.767
62.92000 2.274
62.94000 -1.995
62.96000 0.875
62.98000 -1.864
63.00000 -1.036
63.02000 2.339
63.04000 2.542
63.06000 7.002
63.08000 5.035
63.10000 3.468
63.12000 -1.368
63.14000 0.671
63.16000 2.452
63.18000 0.922
63.20000 -1.480
63.22000 0.167
63.24000 2.434
63.26000 3.267
63.28000 3.055
63.30000 6.002
63.32000 4.361
63.34000 4.168
63.36000 -0.332
63.38000 2.546
63.40000 -0.285
63.42000 1.062
63.44000 0.892
63.46000 0.909
63.48000 -0.206
63.50000 6.229
63.52000 4.803
63.54000 -2.358
63.56000 -0.307
63.58000 -1.331
63.60000 0.206
63.62000 2.653
63.64000 2.643
63.66000 1.231
63.68000 1.984
63.70000 3.003
63.72000 -0.820
63.74000 1.225
63.76000 0.794
63.78000 -1.534
63.80000 -0.713
63.82000 -0.075
63.84000 0.799
63.86000 -1.348
63.88000 0.382
63.90000 2.609
63.92000 2.014
63.94000 2.309
63.96000 4.553
63.98000 1.596
64.00000 0.785
64.02000 0.386
64.04000 -1.730
64.06000 -1.416
64.08000 -0.062
64.10000 -0.374
64.12000 0.762
64.14000 2.106
64.16000 3.134
64.18000 4.281
64.20000 -0.447
64.22000 1.113
64.24000 2.569
64.26000 2.688
64.28000 2.475
64.30000 1.575
64.32000 1.000
64.34000 0.053
64.36000 0.080
64.38000 1.287
64.40000 5.271
64.42000 4.531
64.44000 0.639
64.46000 3.802
64.48000 2.981
64.50000 1.340
64.52000 2.176
64.54000 3.015
64.56000 0.918
64.58000 1.504
64.60000 1.770
64.62000 -0.717
64.64000 -1.839
64.66000 0.469
64.68000 -1.109
64.70000 -2.377
64.72000 0.286
64.74000 1.713
64.76000 2.629
64.78000 0.870
64.80000 -0.282
64.82000 2.576
64.84000 2.992
64.86000 2.112
64.88000 4.265
64.90000 2.181
64.92000 0.844
64.94000 1.064
64.96000 1.968
64.98000 -0.444
65.00000 -1.534
65.02000 -1.047
65.04000 3.164
65.06000 4.047
65.08000 5.916
65.10000 5.314
65.12000 1.219
65.14000 1.590
65.16000 -2.218
65.18000 0.730
65.20000 2.618
65.22000 -0.076
65.24000 -1.040
65.26000 1.395
65.28000 1.573
65.30000 1.604
65.32000 2.356
65.34000 4.399
65.36000 4.702
65.38000 4.487
65.40000 3.744
65.42000 2.735
65.44000 2.885
65.46000 -0.373
65.48000 1.894
65.50000 3.275
65.52000 2.303
65.54000 1.652
65.56000 3.608
65.58000 2.456
65.60000 3.087
65.62000 1.775
65.64000 3.641
65.66000 3.847
65.68000 3.252
65.70000 4.761
65.72000 4.552
65.74000 1.711
65.76000 3.388
65.78000 4.744
65.80000 4.286
65.82000 5.379
65.84000 0.732
65.86000 -2.139
65.88000 -2.393
65.90000 1.833
65.92000 4.208
65.94000 1.800
65.96000 4.285
65.98000 3.962
66.00000 2.842
66.02000 3.936
66.04000 2.655
66.06000 1.574
66.08000 4.289
66.10000 3.763
66.12000 1.416
66.14000 4.369
66.16000 3.452
66.18000 2.843
66.20000 5.321
66.22000 3.943
66.24000 3.205
66.26000 3.464
66.28000 4.289
66.30000 4.452
66.32000 3.700
66.34000 4.641
66.36000 2.773
66.38000 1.064
66.40000 3.248
66.42000 5.252
66.44000 3.077
66.46000 2.333
66.48000 2.068
66.50000 3.021
66.52000 3.568
66.54000 4.296
66.56000 8.511
66.58000 6.779
66.60000 6.314
66.62000 2.724
66.64000 5.040
66.66000 3.746
66.68000 6.333
66.70000 7.156
66.72000 4.545
66.74000 3.382
66.76000 7.660
66.78000 4.917
66.80000 5.323
66.82000 5.030
66.84000 3.604
66.86000 7.628
66.88000 7.195
66.90000 7.150
66.92000 7.018
66.94000 6.132
66.96000 5.990
66.98000 9.423
67.00000 11.074
67.02000 10.623
67.04000 9.742
67.06000 9.623
67.08000 3.320
67.10000 6.626
67.12000 8.233
67.14000 7.981
67.16000 11.124
67.18000 9.157
67.20000 8.393
67.22000 9.067
67.24000 11.322
67.26000 11.179
67.28000 9.850
67.30000 9.246
67.32000 9.361
67.34000 10.728
67.36000 12.044
67.38000 11.875
67.40000 14.990
67.42000 13.065
67.44000 12.631
67.46000 14.708
67.48000 12.470
67.50000 15.796
67.52000 16.465
67.54000 18.295
67.56000 14.245
67.58000 18.180
67.60000 19.881
67.62000 19.471
67.64000 18.482
67.66000 19.219
67.68000 19.774
67.70000 18.148
67.72000 20.069
67.74000 23.376
67.76000 18.980
67.78000 21.297
67.80000 19.892
67.82000 18.237
67.84000 20.164
67.86000 22.569
67.88000 22.341
67.90000 20.557
67.92000 21.679
67.94000 23.851
67.96000 23.491
67.98000 24.685
68.00000 22.834
68.02000 23.967
68.04000 24.651
68.06000 24.900
68.08000 22.140
68.10000 23.531
68.12000 25.639
68.14000 24.952
68.16000 22.161
68.18000 19.620
68.20000 21.970
68.22000 24.133
68.24000 24.501
68.26000 20.575
68.28000 20.997
68.30000 21.215
68.32000 21.228
68.34000 23.073
68.36000 24.803
68.38000 23.062
68.40000 24.557
68.42000 24.492
68.44000 24.599
68.46000 21.459
68.48000 19.697
68.50000 16.327
68.52000 17.506
68.54000 18.123
68.56000 17.512
68.58000 15.155
68.60000 9.673
68.62000 11.798
68.64000 13.972
68.66000 14.452
68.68000 12.812
68.70000 12.061
68.72000 11.489
68.74000 9.407
68.76000 10.355
68.78000 13.010
68.80000 10.977
68.82000 8.648
68.84000 12.530
68.86000 11.028
68.88000 11.285
68.90000 11.936
68.92000 8.179
68.94000 6.540
68.96000 9.253
68.98000 8.139
69.00000 4.352
69.02000 1.842
69.04000 3.842
69.06000 6.755
69.08000 4.708
69.10000 2.492
69.12000 4.624
69.14000 3.826
69.16000 2.259
69.18000 2.737
69.20000 5.847
69.22000 5.297
69.24000 4.715
69.26000 5.271
69.28000 4.288
69.30000 1.312
69.32000 -0.676
69.34000 2.005
69.36000 3.214
69.38000 0.418
69.40000 -2.373
69.42000 1.183
69.44000 4.238
69.46000 0.857
69.48000 2.284
69.50000 0.148
69.52000 2.714
69.54000 4.829
69.56000 4.036
69.58000 1.982
69.60000 3.886
69.62000 4.585
69.64000 4.568
69.66000 3.845
69.68000 1.002
69.70000 2.852
69.72000 2.501
69.74000 3.221
69.76000 3.151
69.78000 1.384
69.80000 2.857
69.82000 6.805
69.84000 1.718
69.86000 0.281
69.88000 -2.309
69.90000 0.958
69.92000 5.543
69.94000 4.559
69.96000 2.378
69.98000 2.144
70.00000 2.337
70.02000 0.047
70.04000 -0.235
70.06000 -1.678
70.08000 0.285
70.10000 -0.854
70.12000 -0.504
70.14000 1.582
70.16000 2.379
70.18000 7.984
70.20000 5.754
70.22000 3.547
70.24000 1.527
70.26000 -1.884
70.28000 -0.584
70.30000 1.909
70.32000 3.701
70.34000 2.574
70.36000 -0.804
70.38000 -2.286
70.40000 0.709
70.42000 2.084
70.44000 4.103
70.46000 5.985
70.48000 4.397
70.50000 0.260
70.52000 0.780
70.54000 2.082
70.56000 0.934
70.58000 0.446
70.60000 -2.280
70.62000 -0.243
70.64000 3.336
70.66000 4.803
70.68000 3.879
70.70000 2.935
70.72000 1.089
70.74000 2.190
70.76000 1.233
70.78000 -0.409
70.80000 0.479
70.82000 4.291
70.84000 4.629
70.86000 3.434
70.88000 2.680
70.90000 2.526
70.92000 2.600
70.94000 3.174
70.96000 1.418
70.98000 -0.476
71.00000 0.236
71.02000 -0.044
71.04000 0.638
71.06000 0.932
71.08000 1.889
71.10000 0.048
71.12000 -1.151
71.14000 -0.932
71.16000 0.032
71.18000 0.705
71.20000 4.687
71.22000 2.999
71.24000 3.570
71.26000 2.446
71.28000 2.216
71.30000 4.206
71.32000 8.968
71.34000 3.324
71.36000 4.099
71.38000 2.651
71.40000 3.595
71.42000 4.092
71.44000 4.485
71.46000 3.851
71.48000 2.451
71.50000 -0.097
71.52000 0.582
71.54000 3.661
71.56000 4.507
71.58000 -0.833
71.60000 0.584
71.62000 3.637
71.64000 5.276
71.66000 4.331
71.68000 3.878
71.70000 4.390
71.72000 2.829
71.74000 3.182
71.76000 3.043
71.78000 -0.369
71.80000 4.464
71.82000 5.352
71.84000 3.758
71.86000 1.144
71.88000 2.842
71.90000 3.885
71.92000 2.401
71.94000 2.298
71.96000 5.001
71.98000 3.066
72.00000 -0.076
72.02000 4.195
72.04000 4.807
72.06000 -2.203
72.08000 0.846
72.10000 1.066
72.12000 2.888
72.14000 2.789
72.16000 3.226
72.18000 6.611
72.20000 5.572
72.22000 2.800
72.24000 6.055
72.26000 5.926
72.28000 5.854
72.30000 4.410
72.32000 4.640
72.34000 0.863
72.36000 4.386
72.38000 5.788
72.40000 3.497
72.42000 1.319
72.44000 -2.152
72.46000 3.706
72.48000 6.970
72.50000 7.528
72.52000 6.489
72.54000 5.263
72.56000 7.148
72.58000 9.244
72.60000 7.169
72.62000 6.949
72.64000 3.581
72.66000 2.103
72.68000 5.264
72.70000 3.959
72.72000 5.713
72.74000 2.735
72.76000 3.646
72.78000 4.134
72.80000 2.204
72.82000 -0.146
72.84000 0.484
72.86000 2.647
72.88000 3.470
72.90000 7.856
72.92000 5.662
72.94000 8.488
72.96000 7.693
72.98000 4.004
73.00000 1.716
73.02000 0.273
73.04000 3.824
73.06000 3.606
73.08000 5.175
73.10000 8.882
73.12000 3.594
73.14000 0.155
73.16000 7.617
73.18000 7.692
73.20000 5.552
73.22000 6.296
73.24000 7.301
73.26000 2.174
73.28000 -0.183
73.30000 1.157
73.32000 8.416
73.34000 6.451
73.36000 4.217
73.38000 3.263
73.40000 2.925
73.42000 1.584
73.44000 1.870
73.46000 4.821
73.48000 5.091
73.50000 1.553
73.52000 -2.178
73.54000 2.145
73.56000 3.663
73.58000 1.838
73.60000 1.795
73.62000 -0.770
73.64000 2.234
73.66000 5.020
73.68000 5.479
73.70000 3.538
73.72000 7.313
73.74000 3.830
73.76000 0.691
73.78000 3.587
73.80000 -1.824
73.82000 -1.814
73.84000 2.861
73.86000 0.551
73.88000 4.545
73.90000 5.455
73.92000 0.475
73.94000 -0.744
73.96000 2.211
73.98000 0.912
74.00000 2.307
74.02000 4.738
74.04000 1.499
74.06000 0.983
74.08000 4.508
74.10000 3.398
74.12000 2.764
74.14000 -0.311
74.16000 -1.368
74.18000 4.345
74.20000 7.122
74.22000 0.825
74.24000 -1.753
74.26000 2.499
74.28000 4.643
74.30000 2.125
74.32000 5.466
74.34000 6.237
74.36000 4.513
74.38000 5.973
74.40000 4.557
74.42000 3.823
74.44000 1.993
74.46000 3.203
74.48000 5.305
74.50000 3.286
74.52000 2.755
74.54000 -0.093
74.56000 -1.502
74.58000 -0.129
74.60000 1.670
74.62000 3.132
74.64000 -0.359
74.66000 1.766
74.68000 2.619
74.70000 -2.197
74.72000 -1.153
74.74000 2.791
74.76000 5.232
74.78000 3.666
74.80000 2.597
74.82000 2.060
74.84000 3.861
74.86000 0.903
74.88000 4.163
74.90000 5.118
74.92000 7.695
74.94000 5.757
74.96000 6.469
74.98000 7.904
75.00000 4.106
75.02000 5.451
75.04000 6.246
75.06000 2.246
75.08000 2.819
75.10000 4.507
75.12000 3.978
75.14000 2.715
75.16000 6.208
75.18000 1.949
75.20000 1.732
75.22000 3.528
75.24000 2.200
75.26000 6.092
75.28000 4.144
75.30000 3.846
75.32000 3.783
75.34000 2.256
75.36000 4.426
75.38000 7.213
75.40000 3.432
75.42000 1.986
75.44000 1.527
75.46000 -1.782
75.48000 2.084
75.50000 7.034
75.52000 4.236
75.54000 -0.312
75.56000 1.641
75.58000 9.915
75.60000 6.460
75.62000 4.232
75.64000 -0.673
75.66000 0.276
75.68000 -2.160
75.70000 1.018
75.72000 0.469
75.74000 6.063
75.76000 6.280
75.78000 7.058
75.80000 4.487
75.82000 2.444
75.84000 6.585
75.86000 4.689
75.88000 2.853
75.90000 -0.164
75.92000 3.798
75.94000 7.496
75.96000 6.863
75.98000 2.750
76.00000 2.706
76.02000 5.548
76.04000 3.229
76.06000 2.933
76.08000 3.921
76.10000 6.322
76.12000 5.127
76.14000 3.851
76.16000 -1.772
76.18000 -0.468
76.20000 0.962
76.22000 2.803
76.24000 6.129
76.26000 5.164
76.28000 4.436
76.30000 1.276
76.32000 3.466
76.34000 2.399
76.36000 0.906
76.38000 1.707
76.40000 -0.070
76.42000 -1.503
76.44000 0.859
76.46000 5.838
76.48000 6.713
76.50000 -0.910
76.52000 -1.109
76.54000 0.176
76.56000 1.290
76.58000 3.850
76.60000 3.859
76.62000 6.025
76.64000 3.094
76.66000 1.017
76.68000 1.125
76.70000 2.600
76.72000 -1.315
76.74000 -0.992
76.76000 -1.652
76.78000 1.416
76.80000 0.224
76.82000 1.773
76.84000 4.512
76.86000 5.243
76.88000 0.246
76.90000 4.959
76.92000 3.892
76.94000 4.725
76.96000 -0.060
76.98000 3.129
77.00000 5.047
77.02000 0.543
77.04000 0.639
77.06000 1.907
77.08000 2.081
77.10000 -0.474
77.12000 -0.775
77.14000 0.576
77.16000 -0.069
77.18000 -0.563
77.20000 1.406
77.22000 -0.565
77.24000 -2.228
77.26000 0.555
77.28000 3.289
77.30000 -1.835
77.32000 -1.966
77.34000 1.636
77.36000 2.477
77.38000 4.483
77.40000 1.212
77.42000 2.220
77.44000 0.572
77.46000 1.180
77.48000 0.244
77.50000 3.596
77.52000 5.701
77.54000 4.970
77.56000 3.764
77.58000 1.836
77.60000 -0.862
77.62000 -2.235
77.64000 2.458
77.66000 2.101
77.68000 3.463
77.70000 0.811
77.72000 3.704
77.74000 3.789
77.76000 1.523
77.78000 3.264
77.80000 7.015
77.82000 4.411
77.84000 -0.135
77.86000 -2.236
77.88000 1.527
77.90000 1.226
77.92000 2.055
77.94000 0.576
77.96000 -0.718
77.98000 2.381
78.00000 2.974
78.02000 1.615
78.04000 3.839
78.06000 3.071
78.08000 4.338
78.10000 3.554
78.12000 1.914
78.14000 1.416
78.16000 3.157
78.18000 2.092
78.20000 1.046
78.22000 -0.269
78.24000 8.793
78.26000 2.395
78.28000 -2.233
78.30000 3.160
78.32000 4.793
78.34000 4.611
78.36000 0.461
78.38000 -0.839
78.40000 0.778
78.42000 5.071
78.44000 4.805
78.46000 2.802
78.48000 5.040
78.50000 4.212
78.52000 5.087
78.54000 1.235
78.56000 0.425
78.58000 -1.154
78.60000 2.596
78.62000 3.404
78.64000 3.490
78.66000 7.605
78.68000 3.765
78.70000 1.072
78.72000 1.716
78.74000 4.613
78.76000 3.853
78.78000 -0.176
78.80000 -1.650
78.82000 0.435
78.84000 4.525
78.86000 3.432
78.88000 1.847
78.90000 0.825
78.92000 1.089
78.94000 2.172
78.96000 0.694
78.98000 0.675
79.00000 -0.299
79.02000 2.567
79.04000 3.486
79.06000 0.940
79.08000 -0.634
79.10000 1.158
79.12000 2.439
79.14000 4.033
79.16000 3.239
79.18000 2.086
79.20000 2.321
79.22000 0.420
79.24000 -0.447
79.26000 -1.128
79.28000 1.147
79.30000 3.372
79.32000 1.361
79.34000 -1.288
79.36000 -2.330
79.38000 -1.167
79.40000 7.850
79.42000 8.935
79.44000 3.952
79.46000 -2.234
79.48000 -0.312
79.50000 -1.082
79.52000 -0.114
79.54000 1.292
79.56000 -0.606
79.58000 1.734
79.60000 2.878
79.62000 4.123
79.64000 4.553
79.66000 0.637
79.68000 0.624
79.70000 1.757
79.72000 2.505
79.74000 1.438
79.76000 2.853
79.78000 -1.031
79.80000 0.665
79.82000 3.974
79.84000 1.488
79.86000 -1.955
79.88000 0.197
79.90000 0.438
79.92000 3.403
79.94000 1.675
79.96000 -1.601
79.98000 -1.427
80.00000 2.351
80.02000 3.738
80.04000 3.126
80.06000 4.972
80.08000 4.354
80.10000 2.267
80.12000 1.706
80.14000 1.428
80.16000 -0.005
80.18000 0.160
80.20000 1.037
80.22000 -0.579
80.24000 -0.398
80.26000 4.172
80.28000 8.171
80.30000 5.507
80.32000 8.539
80.34000 3.385
80.36000 5.859
80.38000 7.553
80.40000 5.165
80.42000 -2.434
80.44000 2.391
80.46000 4.969
80.48000 5.300
80.50000 -1.266
80.52000 -1.163
80.54000 6.635
80.56000 6.432
80.58000 4.697
80.60000 8.449
80.62000 8.890
80.64000 7.744
80.66000 8.813
80.68000 5.734
80.70000 4.702
80.72000 3.948
80.74000 9.082
80.76000 8.963
80.78000 11.298
80.80000 10.999
80.82000 3.954
80.84000 2.809
80.86000 2.046
80.88000 3.330
80.90000 5.092
80.92000 7.888
80.94000 9.220
80.96000 9.053
80.98000 11.105
81.00000 9.724
81.02000 7.666
81.04000 10.638
81.06000 9.538
81.08000 8.372
81.10000 7.030
81.12000 9.338
81.14000 10.828
81.16000 13.587
81.18000 13.070
81.20000 11.423
81.22000 8.409
81.24000 10.510
81.26000 12.591
81.28000 14.564
81.30000 17.785
81.32000 15.672
81.34000 16.403
81.36000 14.853
81.38000 14.536
81.40000 13.275
81.42000 17.450
81.44000 20.054
81.46000 19.838
81.48000 15.707
81.50000 18.010
81.52000 21.140
81.54000 17.705
81.56000 18.467
81.58000 19.879
81.60000 21.789
81.62000 21.393
81.64000 21.148
81.66000 21.133
81.68000 20.944
81.70000 19.455
81.72000 20.954
81.74000 23.064
81.76000 20.290
81.78000 21.478
81.80000 27.387
81.82000 24.992
81.84000 26.199
81.86000 22.834
81.88000 26.343
81.90000 30.667
81.92000 31.414
81.94000 28.821
81.96000 30.669
81.98000 27.377
82.00000 25.140
82.02000 29.461
82.04000 32.036
82.06000 35.008
82.08000 35.192
82.10000 32.171
82.12000 32.722
82.14000 32.607
82.16000 28.431
82.18000 25.962
82.20000 24.563
82.22000 25.517
82.24000 26.257
82.26000 28.308
82.28000 27.141
82.30000 28.555
82.32000 25.073
82.34000 24.816
82.36000 22.516
82.38000 23.399
82.40000 19.157
82.42000 29.216
82.44000 27.985
82.46000 24.043
82.48000 21.133
82.50000 21.009
82.52000 20.558
82.54000 25.446
82.56000 26.844
82.58000 20.932
82.60000 19.549
82.62000 20.807
82.64000 22.373
82.66000 19.606
82.68000 19.309
82.70000 19.076
82.72000 18.036
82.74000 14.318
82.76000 14.228
82.78000 16.299
82.80000 12.184
82.82000 12.002
82.84000 15.998
82.86000 19.237
82.88000 16.429
82.90000 12.604
82.92000 11.033
82.94000 14.786
82.96000 12.753
82.98000 13.367
83.00000 8.185
83.02000 10.948
83.04000 11.574
83.06000 11.026
83.08000 11.118
83.10000 9.227
83.12000 6.973
83.14000 9.142
83.16000 8.537
83.18000 8.397
83.20000 9.272
83.22000 7.974
83.24000 6.825
83.26000 3.522
83.28000 5.594
83.30000 4.867
83.32000 3.740
83.34000 4.545
83.36000 10.799
83.38000 10.631
83.40000 10.115
83.42000 7.518
83.44000 7.015
83.46000 5.624
83.48000 4.607
83.50000 5.983
83.52000 6.312
83.54000 3.075
83.56000 3.877
83.58000 5.477
83.60000 3.821
83.62000 1.836
83.64000 2.232
83.66000 2.247
83.68000 -2.111
83.70000 2.057
83.72000 6.165
83.74000 0.547
83.76000 -0.204
83.78000 2.209
83.80000 1.987
83.82000 3.203
83.84000 0.170
83.86000 1.727
83.88000 0.567
83.90000 0.029
83.92000 2.167
83.94000 -1.112
83.96000 4.107
83.98000 2.641
84.00000 5.659
84.02000 1.936
84.04000 2.625
84.06000 3.634
84.08000 -1.311
84.10000 0.247
84.12000 3.746
84.14000 4.617
84.16000 2.971
84.18000 2.176
84.20000 3.177
84.22000 4.461
84.24000 5.552
84.26000 1.776
84.28000 5.933
84.30000 4.755
84.32000 -2.313
84.34000 -1.935
84.36000 2.423
84.38000 1.712
84.40000 4.482
84.42000 3.172
84.44000 4.423
84.46000 1.882
84.48000 5.925
84.50000 5.417
84.52000 4.048
84.54000 2.740
84.56000 -2.337
84.58000 0.641
84.60000 0.864
84.62000 4.513
84.64000 1.911
84.66000 3.521
84.68000 1.367
84.70000 4.202
84.72000 2.618
84.74000 2.040
84.76000 -0.472
84.78000 3.846
84.80000 1.554
84.82000 2.370
84.84000 3.467
84.86000 1.326
84.88000 -0.264
84.90000 1.089
84.92000 4.928
84.94000 -2.097
84.96000 -0.347
84.98000 3.362
85.00000 3.228
85.02000 3.307
85.04000 3.771
85.06000 3.251
85.08000 5.883
85.10000 4.906
85.12000 4.970
85.14000 3.232
85.16000 5.053
85.18000 6.163
85.20000 9.969
85.22000 6.392
85.24000 5.277
85.26000 5.939
85.28000 7.520
85.30000 10.947
85.32000 9.554
85.34000 8.503
85.36000 7.409
85.38000 7.626
85.40000 11.708
85.42000 6.208
85.44000 6.561
85.46000 8.894
85.48000 9.378
85.50000 9.090
85.52000 10.602
85.54000 9.302
85.56000 8.495
85.58000 8.921
85.60000 8.357
85.62000 12.593
85.64000 11.320
85.66000 13.285
85.68000 15.452
85.70000 12.067
85.72000 15.082
85.74000 17.799
85.76000 17.499
85.78000 18.474
85.80000 15.296
85.82000 17.776
85.84000 17.317
85.86000 19.215
85.88000 21.428
85.90000 21.473
85.92000 24.826
85.94000 20.058
85.96000 17.651
85.98000 20.849
86.00000 24.250
86.02000 24.495
86.04000 24.301
86.06000 22.852
86.08000 20.846
86.10000 21.733
86.12000 21.915
86.14000 24.561
86.16000 27.114
86.18000 22.754
86.20000 24.909
86.22000 23.215
86.24000 24.292
86.26000 21.221
86.28000 23.663
86.30000 21.339
86.32000 20.664
86.34000 21.968
86.36000 20.833
86.38000 24.987
86.40000 27.710
86.42000 20.549
86.44000 16.967
86.46000 14.932
86.48000 18.996
86.50000 24.810
86.52000 22.020
86.54000 23.037
86.56000 22.612
86.58000 21.746
86.60000 23.642
86.62000 19.856
86.64000 18.162
86.66000 17.830
86.68000 13.613
86.70000 14.203
86.72000 17.115
86.74000 16.305
86.76000 18.423
86.78000 17.593
86.80000 11.370
86.82000 15.408
86.84000 17.945
86.86000 12.479
86.88000 9.535
86.90000 10.298
86.92000 8.512
86.94000 7.543
86.96000 9.092
86.98000 10.396
87.00000 12.540
87.02000 8.822
87.04000 6.350
87.06000 6.722
87.08000 4.863
87.10000 6.045
87.12000 4.647
87.14000 5.362
87.16000 5.902
87.18000 4.622
87.20000 2.700
87.22000 3.854
87.24000 0.041
87.26000 3.627
87.28000 0.734
87.30000 3.315
87.32000 4.939
87.34000 3.569
87.36000 2.052
87.38000 2.517
87.40000 2.290
87.42000 4.953
87.44000 4.659
87.46000 2.846
87.48000 -0.379
87.50000 2.447
87.52000 5.494
87.54000 5.458
87.56000 3.082
87.58000 1.213
87.60000 3.353
87.62000 2.355
87.64000 3.326
87.66000 2.006
87.68000 -1.516
87.70000 -1.463
87.72000 -0.175
87.74000 0.395
87.76000 -1.059
87.78000 0.482
87.80000 -2.091
87.82000 -0.667
87.84000 -0.549
87.86000 3.542
87.88000 2.464
87.90000 -1.123
87.92000 2.123
87.94000 3.839
87.96000 -0.424
87.98000 3.545
88.00000 7.403
88.02000 -0.197
88.04000 -1.105
88.06000 2.058
88.08000 0.473
88.10000 -2.172
88.12000 0.344
88.14000 -0.075
88.16000 2.380
88.18000 1.134
88.20000 -2.162
88.22000 2.890
88.24000 3.600
88.26000 -0.267
88.28000 3.254
88.30000 3.387
88.32000 2.625
88.34000 2.128
88.36000 3.695
88.38000 4.041
88.40000 3.684
88.42000 3.693
88.44000 1.968
88.46000 3.330
88.48000 3.370
88.50000 0.647
88.52000 3.914
88.54000 1.087
88.56000 2.540
88.58000 3.227
88.60000 3.569
88.62000 3.335
88.64000 4.150
88.66000 2.226
88.68000 2.662
88.70000 2.473
88.72000 2.668
88.74000 5.293
88.76000 3.203
88.78000 2.045
88.80000 -0.235
88.82000 -0.114
88.84000 -0.148
88.86000 1.774
88.88000 0.885
88.90000 -2.109
88.92000 0.470
88.94000 0.705
88.96000 4.147
88.98000 1.584
89.00000 1.300
89.02000 1.092
89.04000 -0.242
89.06000 4.124
89.08000 2.096
89.10000 5.686
89.12000 4.539
89.14000 0.563
89.16000 0.428
89.18000 -1.143
89.20000 0.880
89.22000 0.253
89.24000 1.566
89.26000 0.745
89.28000 3.183
89.30000 6.103
89.32000 3.416
89.34000 1.097
89.36000 -0.514
89.38000 0.126
89.40000 -1.879
89.42000 1.078
89.44000 1.419
89.46000 1.977
89.48000 0.188
89.50000 -0.894
89.52000 -1.661
89.54000 1.478
89.56000 3.941
89.58000 -1.326
89.60000 -2.103
89.62000 0.549
89.64000 -0.239
89.66000 1.688
89.68000 1.473
89.70000 1.127
89.72000 0.353
89.74000 -0.916
89.76000 0.711
89.78000 2.327
89.80000 -2.064
89.82000 0.661
89.84000 0.851
89.86000 5.122
89.88000 3.582
89.90000 4.367
89.92000 4.828
89.94000 1.466
89.96000 -0.638
89.98000 -1.124
90.00000 -1.193
90.02000 -0.358
90.04000 1.293
90.06000 2.113
90.08000 2.293
90.10000 0.832
90.12000 -2.108
90.14000 0.727
90.16000 -0.654
90.18000 -2.066
90.20000 -1.291
90.22000 1.991
90.24000 5.267
90.26000 3.600
90.28000 0.674
90.30000 -0.320
90.32000 -0.248
90.34000 0.353
90.36000 1.062
90.38000 0.659
90.40000 3.465
90.42000 3.737
90.44000 1.010
90.46000 -2.045
90.48000 -0.629
90.50000 4.477
90.52000 4.573
90.54000 -1.521
90.56000 0.481
90.58000 2.403
90.60000 0.851
90.62000 0.473
90.64000 -2.098
90.66000 0.122
90.68000 -0.389
90.70000 3.722
90.72000 4.145
90.74000 1.939
90.76000 -1.104
90.78000 -1.054
90.80000 5.863
90.82000 6.167
90.84000 4.527
90.86000 4.151
90.88000 1.915
90.90000 1.831
90.92000 2.477
90.94000 1.848
90.96000 4.649
90.98000 4.183
91.00000 2.924
91.02000 0.761
91.04000 2.171
91.06000 0.724
91.08000 2.870
91.10000 6.245
91.12000 6.569
91.14000 4.638
91.16000 3.368
91.18000 3.270
91.20000 4.802
91.22000 3.144
91.24000 4.641
91.26000 3.513
91.28000 6.847
91.30000 0.672
91.32000 -0.185
91.34000 1.358
91.36000 5.848
91.38000 2.081
91.40000 0.125
91.42000 0.953
91.44000 2.097
91.46000 -2.037
91.48000 -0.051
91.50000 3.993
91.52000 5.328
91.54000 8.104
91.56000 5.208
91.58000 1.745
91.60000 -0.357
91.62000 0.583
91.64000 -0.258
91.66000 4.944
91.68000 7.897
91.70000 5.623
91.72000 3.839
91.74000 2.646
91.76000 3.848
91.78000 2.730
91.80000 7.978
91.82000 6.638
91.84000 5.327
91.86000 4.417
91.88000 4.993
91.90000 5.896
91.92000 10.060
91.94000 8.377
91.96000 6.074
91.98000 2.742
92.00000 2.644
92.02000 7.501
92.04000 7.761
92.06000 6.359
92.08000 2.399
92.10000 0.134
92.12000 4.163
92.14000 5.256
92.16000 4.635
92.18000 7.233
92.20000 5.268
92.22000 4.306
92.24000 3.702
92.26000 4.713
92.28000 3.767
92.30000 7.055
92.32000 4.886
92.34000 6.518
92.36000 6.392
92.38000 7.274
92.40000 6.575
92.42000 5.996
92.44000 4.331
92.46000 -2.055
92.48000 1.057
92.50000 6.481
92.52000 7.815
92.54000 7.661
92.56000 8.462
92.58000 0.816
92.60000 -1.819
92.62000 2.269
92.64000 3.984
92.66000 3.928
92.68000 5.595
92.70000 3.827
92.72000 2.771
92.74000 3.042
92.76000 3.488
92.78000 5.915
92.80000 2.220
92.82000 5.731
92.84000 6.044
92.86000 3.950
92.88000 3.338
92.90000 4.871
92.92000 2.512
92.94000 0.740
92.96000 4.451
92.98000 4.762
93.00000 1.731
93.02000 1.077
93.04000 0.107
93.06000 4.188
93.08000 5.227
93.10000 8.128
93.12000 2.947
93.14000 3.411
93.16000 7.994
93.18000 6.182
93.20000 3.864
93.22000 5.690
93.24000 4.150
93.26000 1.281
93.28000 1.817
93.30000 3.844
93.32000 6.033
93.34000 2.789
93.36000 0.319
93.38000 -2.073
93.40000 2.359
93.42000 3.464
93.44000 4.046
93.46000 6.262
93.48000 1.475
93.50000 -0.414
93.52000 1.836
93.54000 1.385
93.56000 4.477
93.58000 9.011
93.60000 8.236
93.62000 2.813
93.64000 3.281
93.66000 2.676
93.68000 1.106
93.70000 2.032
93.72000 3.853
93.74000 1.925
93.76000 1.229
93.78000 1.971
93.80000 4.188
93.82000 3.073
93.84000 2.309
93.86000 0.818
93.88000 3.238
93.90000 2.840
93.92000 -0.710
93.94000 4.545
93.96000 2.737
93.98000 -0.878
94.00000 -1.424
94.02000 4.294
94.04000 3.239
94.06000 2.504
94.08000 1.179
94.10000 2.158
94.12000 1.795
94.14000 3.690
94.16000 2.461
94.18000 -1.328
94.20000 0.851
94.22000 0.947
94.24000 0.010
94.26000 0.412
94.28000 3.288
94.30000 1.968
94.32000 3.353
94.34000 3.239
94.36000 1.251
94.38000 0.587
94.40000 2.563
94.42000 1.622
94.44000 -0.168
94.46000 5.722
94.48000 5.496
94.50000 -0.517
94.52000 1.876
94.54000 1.779
94.56000 4.946
94.58000 4.628
94.60000 3.391
94.62000 -0.489
94.64000 0.857
94.66000 1.928
94.68000 0.286
94.70000 4.686
94.72000 5.794
94.74000 7.141
94.76000 8.002
94.78000 5.528
94.80000 3.749
94.82000 5.849
94.84000 2.097
94.86000 -0.548
94.88000 0.417
94.90000 4.257
94.92000 7.497
94.94000 5.065
94.96000 -0.533
94.98000 -2.104
95.00000 0.420
95.02000 2.935
95.04000 -0.181
95.06000 -1.101
95.08000 0.898
95.10000 3.790
95.12000 8.002
95.14000 8.071
95.16000 5.485
95.18000 6.048
95.20000 3.706
95.22000 2.413
95.24000 2.909
95.26000 5.002
95.28000 0.937
95.30000 2.873
95.32000 2.141
95.34000 -0.167
95.36000 1.919
95.38000 -0.668
95.40000 -2.095
95.42000 2.669
95.44000 5.530
95.46000 6.052
95.48000 6.640
95.50000 6.974
95.52000 4.219
95.54000 2.085
95.56000 0.661
95.58000 -0.116
95.60000 0.863
95.62000 2.271
95.64000 0.031
95.66000 -0.680
95.68000 -0.458
95.70000 2.691
95.72000 0.715
95.74000 -0.286
95.76000 -0.420
95.78000 5.006
95.80000 1.044
95.82000 0.607
95.84000 -0.527
95.86000 0.739
95.88000 5.995
95.90000 3.178
95.92000 1.690
95.94000 2.756
95.96000 4.440
95.98000 2.856
96.00000 5.252
96.02000 9.049
96.04000 2.960
96.06000 3.039
96.08000 9.009
96.10000 5.247
96.12000 2.159
96.14000 -0.402
96.16000 2.216
96.18000 0.859
96.20000 5.475
96.22000 6.334
96.24000 4.923
96.26000 5.737
96.28000 7.294
96.30000 7.858
96.32000 3.713
96.34000 3.487
96.36000 4.355
96.38000 3.624
96.40000 8.116
96.42000 4.033
96.44000 2.571
96.46000 -2.087
96.48000 -0.153
96.50000 3.032
96.52000 2.939
96.54000 -0.269
96.56000 4.592
96.58000 0.253
96.60000 4.673
96.62000 3.651
96.64000 4.069
96.66000 0.716
96.68000 3.336
96.70000 7.835
96.72000 5.656
96.74000 7.223
96.76000 4.377
96.78000 -1.652
96.80000 2.419
96.82000 5.137
96.84000 4.589
96.86000 5.019
96.88000 7.567
96.90000 3.918
96.92000 3.250
96.94000 -0.652
96.96000 2.234
96.98000 1.891
97.00000 -1.596
97.02000 2.554
97.04000 3.528
97.06000 8.231
97.08000 6.586
97.10000 -0.317
97.12000 0.062
97.14000 1.585
97.16000 -2.070
97.18000 1.922
97.20000 3.564
97.22000 6.633
97.24000 4.802
97.26000 3.745
97.28000 5.963
97.30000 10.729
97.32000 4.773
97.34000 2.382
97.36000 5.525
97.38000 7.070
97.40000 10.504
97.42000 5.260
97.44000 7.734
97.46000 6.085
97.48000 -2.068
97.50000 2.966
97.52000 5.892
97.54000 5.253
97.56000 7.509
97.58000 9.350
97.60000 4.165
97.62000 2.090
97.64000 2.352
97.66000 0.335
97.68000 8.275
97.70000 15.985
97.72000 13.399
97.74000 4.016
97.76000 3.898
97.78000 0.856
97.80000 -0.141
97.82000 1.893
97.84000 5.410
97.86000 5.897
97.88000 0.822
97.90000 5.693
97.92000 2.999
97.94000 -0.494
97.96000 -0.420
97.98000 3.332
98.00000 5.687
98.02000 8.782
98.04000 6.579
98.06000 2.153
98.08000 1.905
98.10000 3.089
98.12000 0.478
98.14000 1.924
98.16000 4.780
98.18000 4.150
98.20000 0.358
98.22000 1.606
98.24000 3.852
98.26000 5.097
98.28000 1.700
98.30000 2.311
98.32000 4.249
98.34000 3.219
98.36000 5.286
98.38000 1.733
98.40000 -0.172
98.42000 4.812
98.44000 13.399
98.46000 3.113
98.48000 8.993
98.50000 4.011
98.52000 2.399
98.54000 0.714
98.56000 4.589
98.58000 4.426
98.60000 3.150
98.62000 0.654
98.64000 0.982
98.66000 3.353
98.68000 4.857
98.70000 4.053
98.72000 2.216
98.74000 3.747
98.76000 3.107
98.78000 13.497
98.80000 12.981
98.82000 3.215
98.84000 5.824
98.86000 4.683
98.88000 1.788
98.90000 3.683
98.92000 -1.709
98.94000 7.317
98.96000 6.280
98.98000 2.363
99.00000 -2.033
99.02000 3.181
99.04000 6.895
99.06000 9.071
99.08000 3.356
99.10000 5.443
99.12000 5.060
99.14000 -0.417
99.16000 5.279
99.18000 7.037
99.20000 1.292
99.22000 6.184
99.24000 7.421
99.26000 2.478
99.28000 5.226
99.30000 10.974
99.32000 17.650
99.34000 5.938
99.36000 2.120
99.38000 4.537
99.40000 10.065
99.42000 10.644
99.44000 5.042
99.46000 11.488
99.48000 9.753
99.50000 5.621
99.52000 3.315
99.54000 5.085
99.56000 4.282
99.58000 8.447
99.60000 4.100
99.62000 7.265
99.64000 5.284
99.66000 8.884
99.68000 5.773
99.70000 7.430
99.72000 4.178
99.74000 13.306
99.76000 12.841
99.78000 8.122
99.80000 -2.086
99.82000 0.747
99.84000 15.612
99.86000 7.484
99.88000 -0.603
99.90000 2.629
99.92000 1.341
99.94000 8.404
99.96000 -2.207
99.98000 0.000
