'Id: "0011389" Comment: "Integrate frame 0011389_Au-Ir-Rh_Au-Rich_XRD_Mapping-028-0000.gfrmwith cursor Wedge Cursor #5" Operator: "B?rgel" Anode: "Cu" Wavelength: "1.5406" Scantype: "2Theta (TwoTheta)" TimePerStep: "1" X: "-13.5" Y: "-31.5" Z: "5.95" 
10.00000 0.000
10.02000 3.946
10.04000 13.258
10.06000 11.804
10.08000 17.225
10.10000 3.228
10.12000 18.293
10.14000 33.300
10.16000 15.989
10.18000 14.606
10.20000 20.950
10.22000 14.241
10.24000 33.299
10.26000 27.171
10.28000 10.252
10.30000 14.777
10.32000 18.325
10.34000 7.094
10.36000 9.609
10.38000 13.408
10.40000 16.787
10.42000 21.269
10.44000 30.915
10.46000 21.025
10.48000 22.392
10.50000 24.372
10.52000 23.592
10.54000 29.141
10.56000 23.030
10.58000 18.755
10.60000 26.790
10.62000 3.586
10.64000 -4.389
10.66000 12.587
10.68000 17.465
10.70000 2.567
10.72000 4.781
10.74000 10.116
10.76000 6.458
10.78000 6.569
10.80000 14.379
10.82000 15.901
10.84000 12.935
10.86000 9.518
10.88000 0.573
10.90000 12.170
10.92000 12.687
10.94000 17.642
10.96000 24.231
10.98000 16.226
11.00000 9.876
11.02000 24.168
11.04000 11.569
11.06000 18.795
11.08000 44.541
11.10000 28.228
11.12000 10.434
11.14000 14.889
11.16000 16.555
11.18000 18.995
11.20000 20.277
11.22000 11.972
11.24000 4.590
11.26000 3.986
11.28000 5.800
11.30000 0.457
11.32000 21.054
11.34000 15.713
11.36000 5.618
11.38000 7.046
11.40000 17.775
11.42000 25.043
11.44000 29.877
11.46000 14.694
11.48000 -4.435
11.50000 -1.022
11.52000 6.267
11.54000 4.655
11.56000 5.182
11.58000 12.254
11.60000 19.821
11.62000 25.651
11.64000 10.511
11.66000 -1.900
11.68000 2.441
11.70000 19.033
11.72000 25.368
11.74000 18.947
11.76000 11.720
11.78000 4.768
11.80000 -4.452
11.82000 1.365
11.84000 16.501
11.86000 4.966
11.88000 6.962
11.90000 11.254
11.92000 7.141
11.94000 18.830
11.96000 11.451
11.98000 -0.587
12.00000 10.622
12.02000 6.181
12.04000 12.786
12.06000 16.115
12.08000 18.617
12.10000 18.656
12.12000 14.136
12.14000 4.563
12.16000 1.956
12.18000 9.004
12.20000 19.696
12.22000 15.765
12.24000 9.450
12.26000 13.397
12.28000 12.869
12.30000 8.677
12.32000 2.492
12.34000 12.743
12.36000 5.165
12.38000 3.007
12.40000 9.641
12.42000 2.309
12.44000 -1.589
12.46000 7.222
12.48000 13.143
12.50000 13.475
12.52000 5.815
12.54000 4.200
12.56000 6.253
12.58000 11.003
12.60000 10.567
12.62000 5.238
12.64000 2.380
12.66000 9.435
12.68000 11.211
12.70000 4.681
12.72000 2.999
12.74000 6.674
12.76000 4.009
12.78000 13.320
12.80000 17.419
12.82000 15.360
12.84000 7.851
12.86000 5.233
12.88000 17.773
12.90000 24.210
12.92000 11.295
12.94000 10.417
12.96000 7.676
12.98000 5.924
13.00000 6.767
13.02000 2.500
13.04000 1.368
13.06000 -2.252
13.08000 4.266
13.10000 13.364
13.12000 13.314
13.14000 15.173
13.16000 10.546
13.18000 15.050
13.20000 11.685
13.22000 4.791
13.24000 13.613
13.26000 21.705
13.28000 22.115
13.30000 14.822
13.32000 8.053
13.34000 3.177
13.36000 5.992
13.38000 15.870
13.40000 18.888
13.42000 25.017
13.44000 12.982
13.46000 2.636
13.48000 -3.392
13.50000 -1.878
13.52000 18.009
13.54000 22.447
13.56000 16.990
13.58000 7.539
13.60000 3.787
13.62000 13.133
13.64000 10.816
13.66000 12.535
13.68000 7.651
13.70000 14.478
13.72000 13.882
13.74000 9.254
13.76000 15.491
13.78000 13.282
13.80000 7.093
13.82000 8.472
13.84000 6.045
13.86000 0.228
13.88000 1.648
13.90000 8.350
13.92000 17.238
13.94000 9.037
13.96000 2.493
13.98000 3.281
14.00000 -4.450
14.02000 6.758
14.04000 6.494
14.06000 7.691
14.08000 12.991
14.10000 9.323
14.12000 5.910
14.14000 9.041
14.16000 6.177
14.18000 3.438
14.20000 7.824
14.22000 11.150
14.24000 8.494
14.26000 8.713
14.28000 9.878
14.30000 11.210
14.32000 12.446
14.34000 10.296
14.36000 10.208
14.38000 6.373
14.40000 5.007
14.42000 8.196
14.44000 3.382
14.46000 13.759
14.48000 17.093
14.50000 12.002
14.52000 13.662
14.54000 12.535
14.56000 16.732
14.58000 8.176
14.60000 10.294
14.62000 -3.732
14.64000 -4.453
14.66000 10.848
14.68000 15.670
14.70000 5.925
14.72000 5.678
14.74000 2.978
14.76000 5.639
14.78000 9.084
14.80000 7.007
14.82000 0.663
14.84000 2.869
14.86000 5.178
14.88000 7.753
14.90000 7.617
14.92000 8.060
14.94000 5.524
14.96000 4.946
14.98000 4.533
15.00000 13.411
15.02000 10.583
15.04000 6.011
15.06000 6.936
15.08000 12.334
15.10000 7.577
15.12000 5.306
15.14000 8.350
15.16000 5.027
15.18000 9.638
15.20000 6.636
15.22000 8.079
15.24000 17.182
15.26000 17.325
15.28000 7.976
15.30000 10.851
15.32000 9.163
15.34000 16.644
15.36000 11.596
15.38000 4.008
15.40000 4.491
15.42000 4.280
15.44000 0.949
15.46000 4.515
15.48000 10.438
15.50000 3.046
15.52000 -4.435
15.54000 0.619
15.56000 6.184
15.58000 7.930
15.60000 3.423
15.62000 5.203
15.64000 18.520
15.66000 19.999
15.68000 15.482
15.70000 3.405
15.72000 5.069
15.74000 5.764
15.76000 -0.118
15.78000 1.425
15.80000 -1.178
15.82000 2.777
15.84000 7.029
15.86000 11.491
15.88000 9.753
15.90000 3.554
15.92000 -3.811
15.94000 2.945
15.96000 8.283
15.98000 3.810
16.00000 0.766
16.02000 1.593
16.04000 5.862
16.06000 6.737
16.08000 8.770
16.10000 12.787
16.12000 6.327
16.14000 6.134
16.16000 17.086
16.18000 14.536
16.20000 -0.918
16.22000 1.976
16.24000 8.439
16.26000 10.509
16.28000 4.502
16.30000 8.192
16.32000 14.396
16.34000 14.267
16.36000 6.461
16.38000 -4.394
16.40000 -1.928
16.42000 0.275
16.44000 4.174
16.46000 10.748
16.48000 7.055
16.50000 9.397
16.52000 16.599
16.54000 14.786
16.56000 8.083
16.58000 5.823
16.60000 11.262
16.62000 4.391
16.64000 5.502
16.66000 8.486
16.68000 8.878
16.70000 9.556
16.72000 6.561
16.74000 4.979
16.76000 0.620
16.78000 4.994
16.80000 10.050
16.82000 6.166
16.84000 2.999
16.86000 2.412
16.88000 6.174
16.90000 8.939
16.92000 9.402
16.94000 7.389
16.96000 6.313
16.98000 9.746
17.00000 14.703
17.02000 8.614
17.04000 6.620
17.06000 7.998
17.08000 8.542
17.10000 7.322
17.12000 6.474
17.14000 1.012
17.16000 2.478
17.18000 3.419
17.20000 11.026
17.22000 11.655
17.24000 2.958
17.26000 -0.698
17.28000 0.684
17.30000 7.021
17.32000 9.394
17.34000 12.362
17.36000 3.298
17.38000 2.046
17.40000 6.791
17.42000 2.363
17.44000 4.701
17.46000 1.480
17.48000 5.666
17.50000 9.779
17.52000 6.899
17.54000 10.165
17.56000 11.341
17.58000 6.322
17.60000 2.269
17.62000 5.107
17.64000 7.690
17.66000 6.373
17.68000 5.076
17.70000 5.798
17.72000 6.015
17.74000 -0.156
17.76000 7.037
17.78000 7.032
17.80000 1.774
17.82000 -4.283
17.84000 6.814
17.86000 4.421
17.88000 2.994
17.90000 1.155
17.92000 3.530
17.94000 8.038
17.96000 11.944
17.98000 13.593
18.00000 7.855
18.02000 14.919
18.04000 11.923
18.06000 2.642
18.08000 7.193
18.10000 10.231
18.12000 10.750
18.14000 11.250
18.16000 3.525
18.18000 3.769
18.20000 10.577
18.22000 14.248
18.24000 15.945
18.26000 2.356
18.28000 6.978
18.30000 12.408
18.32000 11.986
18.34000 10.230
18.36000 10.062
18.38000 6.452
18.40000 6.734
18.42000 6.139
18.44000 6.762
18.46000 14.430
18.48000 12.680
18.50000 16.884
18.52000 11.264
18.54000 10.267
18.56000 16.500
18.58000 18.067
18.60000 15.543
18.62000 15.808
18.64000 5.797
18.66000 7.567
18.68000 16.191
18.70000 8.334
18.72000 7.068
18.74000 11.417
18.76000 7.100
18.78000 6.163
18.80000 10.550
18.82000 12.328
18.84000 12.389
18.86000 9.390
18.88000 2.175
18.90000 -4.161
18.92000 6.846
18.94000 13.841
18.96000 11.139
18.98000 6.528
19.00000 5.993
19.02000 13.462
19.04000 12.957
19.06000 14.181
19.08000 10.065
19.10000 12.385
19.12000 20.078
19.14000 13.903
19.16000 4.291
19.18000 3.740
19.20000 7.201
19.22000 11.947
19.24000 12.966
19.26000 16.555
19.28000 17.088
19.30000 12.671
19.32000 12.344
19.34000 12.948
19.36000 11.949
19.38000 13.173
19.40000 14.454
19.42000 8.476
19.44000 8.178
19.46000 12.857
19.48000 10.481
19.50000 4.252
19.52000 8.065
19.54000 14.922
19.56000 15.105
19.58000 12.050
19.60000 10.672
19.62000 4.181
19.64000 4.029
19.66000 12.133
19.68000 6.903
19.70000 0.295
19.72000 9.983
19.74000 10.459
19.76000 10.089
19.78000 14.379
19.80000 11.468
19.82000 8.313
19.84000 4.473
19.86000 2.448
19.88000 8.609
19.90000 9.126
19.92000 5.213
19.94000 3.837
19.96000 12.943
19.98000 12.799
20.00000 11.736
20.02000 7.959
20.04000 3.588
20.06000 14.747
20.08000 14.844
20.10000 12.680
20.12000 11.462
20.14000 5.731
20.16000 5.724
20.18000 4.620
20.20000 14.226
20.22000 17.509
20.24000 11.902
20.26000 9.074
20.28000 2.739
20.30000 4.753
20.32000 7.924
20.34000 1.880
20.36000 -0.448
20.38000 10.334
20.40000 8.288
20.42000 5.787
20.44000 8.539
20.46000 8.128
20.48000 8.253
20.50000 10.309
20.52000 6.649
20.54000 4.835
20.56000 5.356
20.58000 9.563
20.60000 7.787
20.62000 4.224
20.64000 1.904
20.66000 10.011
20.68000 16.011
20.70000 13.766
20.72000 3.734
20.74000 -4.115
20.76000 4.796
20.78000 12.134
20.80000 7.106
20.82000 8.255
20.84000 5.959
20.86000 0.558
20.88000 4.849
20.90000 13.466
20.92000 10.488
20.94000 6.027
20.96000 0.800
20.98000 1.576
21.00000 5.137
21.02000 17.426
21.04000 8.983
21.06000 4.673
21.08000 9.439
21.10000 6.458
21.12000 2.834
21.14000 -0.489
21.16000 3.510
21.18000 5.242
21.20000 1.359
21.22000 3.547
21.24000 5.555
21.26000 3.318
21.28000 1.983
21.30000 6.947
21.32000 8.783
21.34000 -2.554
21.36000 -3.568
21.38000 -0.423
21.40000 3.903
21.42000 6.524
21.44000 8.097
21.46000 2.440
21.48000 5.265
21.50000 7.510
21.52000 6.518
21.54000 5.533
21.56000 5.796
21.58000 3.679
21.60000 4.780
21.62000 9.594
21.64000 12.256
21.66000 8.687
21.68000 5.218
21.70000 4.583
21.72000 -1.594
21.74000 -1.359
21.76000 4.521
21.78000 4.344
21.80000 6.128
21.82000 6.877
21.84000 2.553
21.86000 9.924
21.88000 4.824
21.90000 9.221
21.92000 6.649
21.94000 5.538
21.96000 -0.435
21.98000 3.496
22.00000 3.541
22.02000 0.415
22.04000 -3.575
22.06000 5.423
22.08000 2.828
22.10000 3.307
22.12000 2.792
22.14000 -0.414
22.16000 0.798
22.18000 0.313
22.20000 8.524
22.22000 7.087
22.24000 1.078
22.26000 -1.119
22.28000 -4.041
22.30000 -0.295
22.32000 5.581
22.34000 1.093
22.36000 1.197
22.38000 2.109
22.40000 6.445
22.42000 -4.038
22.44000 -3.564
22.46000 5.874
22.48000 9.218
22.50000 5.400
22.52000 -0.463
22.54000 3.149
22.56000 8.332
22.58000 7.208
22.60000 1.883
22.62000 6.251
22.64000 5.395
22.66000 0.702
22.68000 -2.636
22.70000 4.494
22.72000 6.460
22.74000 6.116
22.76000 5.008
22.78000 6.319
22.80000 2.721
22.82000 -0.774
22.84000 -0.517
22.86000 9.376
22.88000 12.575
22.90000 5.265
22.92000 3.990
22.94000 0.239
22.96000 5.465
22.98000 2.555
23.00000 4.529
23.02000 3.661
23.04000 -0.685
23.06000 1.777
23.08000 4.519
23.10000 6.486
23.12000 1.763
23.14000 1.528
23.16000 5.687
23.18000 9.849
23.20000 5.504
23.22000 1.243
23.24000 -0.804
23.26000 5.485
23.28000 6.132
23.30000 3.444
23.32000 1.011
23.34000 0.182
23.36000 4.256
23.38000 6.726
23.40000 3.667
23.42000 1.627
23.44000 0.409
23.46000 3.179
23.48000 0.461
23.50000 -3.263
23.52000 5.235
23.54000 4.147
23.56000 -2.858
23.58000 -3.045
23.60000 -3.780
23.62000 1.090
23.64000 6.325
23.66000 3.531
23.68000 -1.628
23.70000 2.637
23.72000 1.473
23.74000 1.301
23.76000 3.380
23.78000 5.233
23.80000 8.659
23.82000 8.280
23.84000 7.355
23.86000 8.933
23.88000 6.182
23.90000 0.000
23.92000 -1.405
23.94000 -3.447
23.96000 -0.970
23.98000 3.159
24.00000 5.425
24.02000 1.210
24.04000 -2.432
24.06000 -1.579
24.08000 1.074
24.10000 0.251
24.12000 2.485
24.14000 -0.458
24.16000 1.658
24.18000 9.562
24.20000 1.037
24.22000 -3.956
24.24000 -2.139
24.26000 -2.985
24.28000 2.564
24.30000 5.342
24.32000 4.964
24.34000 10.020
24.36000 10.286
24.38000 8.726
24.40000 7.477
24.42000 7.204
24.44000 -0.666
24.46000 -2.253
24.48000 -2.806
24.50000 2.002
24.52000 4.322
24.54000 2.756
24.56000 4.139
24.58000 7.300
24.60000 9.138
24.62000 5.086
24.64000 -1.702
24.66000 0.069
24.68000 -0.040
24.70000 0.178
24.72000 5.044
24.74000 6.212
24.76000 4.283
24.78000 2.505
24.80000 1.189
24.82000 5.763
24.84000 3.175
24.86000 -0.196
24.88000 0.390
24.90000 -0.593
24.92000 2.780
24.94000 1.515
24.96000 -0.395
24.98000 3.729
25.00000 4.855
25.02000 9.689
25.04000 6.584
25.06000 -0.237
25.08000 4.598
25.10000 6.260
25.12000 6.417
25.14000 0.348
25.16000 -3.624
25.18000 2.795
25.20000 2.577
25.22000 6.358
25.24000 5.948
25.26000 4.788
25.28000 1.399
25.30000 1.113
25.32000 1.488
25.34000 -3.876
25.36000 0.010
25.38000 2.911
25.40000 5.081
25.42000 5.166
25.44000 2.490
25.46000 8.552
25.48000 12.830
25.50000 9.571
25.52000 5.370
25.54000 4.322
25.56000 -0.400
25.58000 -2.533
25.60000 1.984
25.62000 7.413
25.64000 12.444
25.66000 10.329
25.68000 0.899
25.70000 -3.256
25.72000 0.958
25.74000 1.855
25.76000 -2.548
25.78000 -0.610
25.80000 8.719
25.82000 7.935
25.84000 5.155
25.86000 5.892
25.88000 7.836
25.90000 6.440
25.92000 4.961
25.94000 5.488
25.96000 4.626
25.98000 5.070
26.00000 1.371
26.02000 0.465
26.04000 2.729
26.06000 2.481
26.08000 2.832
26.10000 4.119
26.12000 2.380
26.14000 0.855
26.16000 0.525
26.18000 -0.777
26.20000 0.295
26.22000 3.927
26.24000 5.996
26.26000 7.152
26.28000 6.257
26.30000 4.546
26.32000 2.602
26.34000 2.548
26.36000 3.502
26.38000 2.889
26.40000 4.452
26.42000 2.237
26.44000 3.991
26.46000 3.631
26.48000 0.606
26.50000 6.740
26.52000 4.464
26.54000 2.370
26.56000 0.688
26.58000 0.157
26.60000 4.470
26.62000 4.419
26.64000 -1.381
26.66000 2.423
26.68000 5.349
26.70000 6.820
26.72000 3.097
26.74000 2.168
26.76000 5.258
26.78000 7.007
26.80000 2.859
26.82000 5.364
26.84000 7.526
26.86000 10.588
26.88000 7.653
26.90000 4.692
26.92000 1.779
26.94000 2.542
26.96000 1.522
26.98000 -1.599
27.00000 -3.787
27.02000 0.645
27.04000 9.063
27.06000 11.843
27.08000 7.317
27.10000 6.239
27.12000 -3.049
27.14000 -1.278
27.16000 11.247
27.18000 6.258
27.20000 7.280
27.22000 12.356
27.24000 10.454
27.26000 7.724
27.28000 -1.259
27.30000 0.042
27.32000 -0.967
27.34000 -1.317
27.36000 5.499
27.38000 4.506
27.40000 0.816
27.42000 -1.201
27.44000 7.035
27.46000 6.719
27.48000 4.813
27.50000 1.520
27.52000 1.105
27.54000 -0.140
27.56000 2.394
27.58000 6.751
27.60000 1.601
27.62000 1.237
27.64000 2.614
27.66000 5.386
27.68000 6.679
27.70000 7.462
27.72000 6.546
27.74000 7.030
27.76000 4.275
27.78000 3.234
27.80000 1.421
27.82000 6.494
27.84000 7.847
27.86000 3.009
27.88000 1.158
27.90000 2.374
27.92000 2.370
27.94000 3.051
27.96000 5.301
27.98000 2.474
28.00000 2.492
28.02000 2.522
28.04000 5.455
28.06000 0.573
28.08000 3.015
28.10000 2.797
28.12000 3.416
28.14000 6.212
28.16000 4.196
28.18000 2.834
28.20000 8.626
28.22000 5.805
28.24000 5.251
28.26000 4.166
28.28000 3.540
28.30000 3.423
28.32000 0.424
28.34000 1.828
28.36000 1.675
28.38000 1.846
28.40000 0.313
28.42000 3.542
28.44000 7.454
28.46000 7.288
28.48000 5.750
28.50000 9.923
28.52000 8.580
28.54000 1.059
28.56000 1.648
28.58000 2.309
28.60000 8.375
28.62000 9.165
28.64000 3.977
28.66000 5.494
28.68000 8.034
28.70000 3.758
28.72000 -3.707
28.74000 0.099
28.76000 6.362
28.78000 5.238
28.80000 5.050
28.82000 2.279
28.84000 -0.179
28.86000 3.259
28.88000 -0.105
28.90000 1.995
28.92000 3.665
28.94000 7.116
28.96000 4.910
28.98000 -2.617
29.00000 2.367
29.02000 4.979
29.04000 1.088
29.06000 8.289
29.08000 9.444
29.10000 3.756
29.12000 1.464
29.14000 3.298
29.16000 5.181
29.18000 6.550
29.20000 7.342
29.22000 4.791
29.24000 2.447
29.26000 6.852
29.28000 3.714
29.30000 8.118
29.32000 6.646
29.34000 1.833
29.36000 5.538
29.38000 2.733
29.40000 -0.600
29.42000 5.984
29.44000 5.878
29.46000 -1.892
29.48000 -1.474
29.50000 3.494
29.52000 7.437
29.54000 11.520
29.56000 9.431
29.58000 8.143
29.60000 4.756
29.62000 7.073
29.64000 6.575
29.66000 9.578
29.68000 9.014
29.70000 9.216
29.72000 5.630
29.74000 6.733
29.76000 8.844
29.78000 9.209
29.80000 7.780
29.82000 4.441
29.84000 7.895
29.86000 0.906
29.88000 2.751
29.90000 6.592
29.92000 3.841
29.94000 -2.882
29.96000 -0.708
29.98000 3.759
30.00000 5.232
30.02000 4.685
30.04000 5.304
30.06000 4.517
30.08000 2.501
30.10000 -3.612
30.12000 0.998
30.14000 -1.173
30.16000 1.853
30.18000 1.379
30.20000 0.601
30.22000 4.325
30.24000 3.687
30.26000 0.564
30.28000 8.901
30.30000 9.718
30.32000 6.407
30.34000 3.984
30.36000 1.619
30.38000 6.510
30.40000 4.364
30.42000 5.355
30.44000 7.894
30.46000 3.588
30.48000 5.617
30.50000 3.105
30.52000 0.835
30.54000 3.744
30.56000 1.687
30.58000 -1.261
30.60000 2.842
30.62000 6.033
30.64000 1.599
30.66000 3.812
30.68000 5.412
30.70000 5.542
30.72000 6.387
30.74000 9.815
30.76000 6.251
30.78000 4.223
30.80000 2.840
30.82000 4.859
30.84000 3.466
30.86000 1.872
30.88000 0.645
30.90000 2.207
30.92000 3.688
30.94000 1.642
30.96000 -1.663
30.98000 0.550
31.00000 2.652
31.02000 3.763
31.04000 0.619
31.06000 1.732
31.08000 4.259
31.10000 6.042
31.12000 4.679
31.14000 6.953
31.16000 3.149
31.18000 4.446
31.20000 2.835
31.22000 6.262
31.24000 8.319
31.26000 8.307
31.28000 9.403
31.30000 9.429
31.32000 1.428
31.34000 0.918
31.36000 2.668
31.38000 2.741
31.40000 3.622
31.42000 6.201
31.44000 4.458
31.46000 2.939
31.48000 1.939
31.50000 2.737
31.52000 1.984
31.54000 1.594
31.56000 3.092
31.58000 3.801
31.60000 4.355
31.62000 6.547
31.64000 4.508
31.66000 3.611
31.68000 3.326
31.70000 3.532
31.72000 1.656
31.74000 7.491
31.76000 8.660
31.78000 2.939
31.80000 3.426
31.82000 4.738
31.84000 6.070
31.86000 4.465
31.88000 -3.554
31.90000 3.789
31.92000 5.019
31.94000 3.273
31.96000 3.411
31.98000 0.129
32.00000 2.678
32.02000 -0.828
32.04000 0.570
32.06000 4.215
32.08000 3.280
32.10000 4.178
32.12000 6.157
32.14000 7.326
32.16000 3.870
32.18000 0.651
32.20000 4.053
32.22000 3.580
32.24000 1.703
32.26000 4.507
32.28000 2.154
32.30000 3.798
32.32000 2.764
32.34000 1.528
32.36000 3.098
32.38000 6.096
32.40000 5.566
32.42000 3.392
32.44000 0.659
32.46000 4.375
32.48000 3.312
32.50000 5.115
32.52000 5.159
32.54000 5.898
32.56000 5.829
32.58000 6.327
32.60000 1.610
32.62000 -1.334
32.64000 -1.783
32.66000 2.557
32.68000 6.010
32.70000 3.958
32.72000 4.743
32.74000 3.715
32.76000 7.991
32.78000 1.432
32.80000 -3.536
32.82000 -0.419
32.84000 4.487
32.86000 6.191
32.88000 5.319
32.90000 3.409
32.92000 -0.263
32.94000 0.158
32.96000 4.094
32.98000 5.919
33.00000 8.019
33.02000 4.380
33.04000 3.552
33.06000 -1.039
33.08000 0.125
33.10000 1.116
33.12000 4.310
33.14000 3.889
33.16000 5.240
33.18000 2.467
33.20000 5.662
33.22000 7.939
33.24000 4.893
33.26000 5.595
33.28000 2.705
33.30000 3.053
33.32000 2.312
33.34000 2.171
33.36000 3.181
33.38000 3.550
33.40000 1.100
33.42000 4.021
33.44000 5.617
33.46000 3.200
33.48000 1.763
33.50000 1.103
33.52000 5.262
33.54000 6.678
33.56000 6.876
33.58000 3.347
33.60000 2.291
33.62000 -1.756
33.64000 -2.656
33.66000 0.970
33.68000 4.971
33.70000 2.691
33.72000 0.506
33.74000 6.049
33.76000 2.817
33.78000 0.554
33.80000 3.880
33.82000 4.037
33.84000 3.301
33.86000 2.339
33.88000 1.846
33.90000 5.007
33.92000 2.421
33.94000 3.928
33.96000 4.237
33.98000 4.938
34.00000 4.069
34.02000 3.976
34.04000 4.855
34.06000 4.326
34.08000 4.783
34.10000 0.216
34.12000 0.396
34.14000 -0.496
34.16000 3.578
34.18000 4.274
34.20000 2.186
34.22000 5.479
34.24000 7.747
34.26000 4.061
34.28000 3.021
34.30000 2.751
34.32000 3.623
34.34000 2.528
34.36000 -1.663
34.38000 -0.173
34.40000 -2.774
34.42000 1.099
34.44000 4.542
34.46000 4.773
34.48000 -0.638
34.50000 0.580
34.52000 4.396
34.54000 3.579
34.56000 2.012
34.58000 0.489
34.60000 2.721
34.62000 -2.702
34.64000 -0.011
34.66000 3.389
34.68000 0.761
34.70000 -1.497
34.72000 3.873
34.74000 4.523
34.76000 0.808
34.78000 1.344
34.80000 0.321
34.82000 4.543
34.84000 -1.064
34.86000 1.901
34.88000 2.918
34.90000 1.912
34.92000 3.868
34.94000 2.707
34.96000 3.100
34.98000 1.782
35.00000 -1.856
35.02000 -3.508
35.04000 1.528
35.06000 4.608
35.08000 4.692
35.10000 7.284
35.12000 6.767
35.14000 5.465
35.16000 0.381
35.18000 -1.546
35.20000 6.611
35.22000 4.895
35.24000 4.810
35.26000 7.979
35.28000 11.080
35.30000 12.524
35.32000 7.611
35.34000 5.232
35.36000 6.095
35.38000 6.269
35.40000 4.096
35.42000 -0.279
35.44000 -3.474
35.46000 1.398
35.48000 2.244
35.50000 4.942
35.52000 7.793
35.54000 6.254
35.56000 7.639
35.58000 7.385
35.60000 -0.244
35.62000 2.100
35.64000 5.850
35.66000 4.983
35.68000 5.524
35.70000 4.845
35.72000 5.520
35.74000 3.313
35.76000 0.223
35.78000 5.257
35.80000 5.130
35.82000 6.687
35.84000 5.784
35.86000 4.143
35.88000 3.234
35.90000 3.760
35.92000 3.743
35.94000 3.557
35.96000 0.538
35.98000 2.894
36.00000 5.571
36.02000 4.948
36.04000 3.346
36.06000 5.770
36.08000 5.549
36.10000 0.880
36.12000 0.283
36.14000 3.292
36.16000 7.143
36.18000 5.605
36.20000 6.408
36.22000 5.730
36.24000 3.934
36.26000 -0.324
36.28000 0.518
36.30000 1.228
36.32000 -0.460
36.34000 0.433
36.36000 2.199
36.38000 3.379
36.40000 4.115
36.42000 0.297
36.44000 4.545
36.46000 3.580
36.48000 5.521
36.50000 6.803
36.52000 1.890
36.54000 3.707
36.56000 5.550
36.58000 4.476
36.60000 2.444
36.62000 1.851
36.64000 2.831
36.66000 -0.319
36.68000 -3.536
36.70000 -1.227
36.72000 -0.856
36.74000 0.007
36.76000 4.119
36.78000 5.450
36.80000 6.054
36.82000 3.796
36.84000 3.396
36.86000 3.687
36.88000 2.160
36.90000 1.744
36.92000 3.604
36.94000 2.023
36.96000 0.385
36.98000 -1.049
37.00000 2.959
37.02000 4.040
37.04000 6.706
37.06000 2.921
37.08000 -3.021
37.10000 0.416
37.12000 2.821
37.14000 -1.450
37.16000 4.447
37.18000 7.769
37.20000 2.156
37.22000 -1.306
37.24000 6.506
37.26000 3.545
37.28000 1.505
37.30000 5.523
37.32000 4.642
37.34000 4.258
37.36000 6.802
37.38000 6.899
37.40000 2.258
37.42000 3.653
37.44000 4.279
37.46000 5.602
37.48000 5.684
37.50000 5.035
37.52000 5.326
37.54000 12.478
37.56000 9.325
37.58000 7.987
37.60000 10.700
37.62000 7.305
37.64000 9.312
37.66000 5.620
37.68000 5.122
37.70000 10.179
37.72000 11.033
37.74000 6.825
37.76000 5.062
37.78000 6.025
37.80000 11.714
37.82000 16.554
37.84000 12.277
37.86000 12.588
37.88000 13.978
37.90000 14.600
37.92000 14.719
37.94000 19.430
37.96000 21.961
37.98000 16.268
38.00000 17.519
38.02000 17.499
38.04000 22.779
38.06000 23.697
38.08000 19.485
38.10000 21.653
38.12000 23.573
38.14000 25.551
38.16000 25.590
38.18000 32.942
38.20000 35.143
38.22000 28.423
38.24000 24.962
38.26000 28.067
38.28000 28.842
38.30000 29.624
38.32000 34.087
38.34000 33.555
38.36000 35.625
38.38000 39.336
38.40000 37.614
38.42000 38.025
38.44000 35.476
38.46000 40.100
38.48000 43.029
38.50000 39.608
38.52000 43.493
38.54000 47.163
38.56000 49.331
38.58000 48.074
38.60000 50.740
38.62000 54.927
38.64000 53.625
38.66000 55.939
38.68000 57.375
38.70000 61.279
38.72000 65.221
38.74000 70.278
38.76000 64.301
38.78000 68.487
38.80000 75.597
38.82000 81.615
38.84000 84.501
38.86000 87.047
38.88000 85.026
38.90000 90.236
38.92000 94.591
38.94000 98.272
38.96000 111.226
38.98000 116.210
39.00000 115.436
39.02000 122.880
39.04000 130.345
39.06000 137.048
39.08000 147.075
39.10000 147.845
39.12000 157.905
39.14000 167.628
39.16000 182.111
39.18000 191.887
39.20000 204.762
39.22000 217.048
39.24000 230.215
39.26000 236.796
39.28000 254.115
39.30000 276.446
39.32000 285.098
39.34000 301.922
39.36000 319.193
39.38000 339.778
39.40000 365.559
39.42000 389.578
39.44000 413.668
39.46000 433.661
39.48000 450.718
39.50000 478.726
39.52000 508.082
39.54000 536.735
39.56000 557.660
39.58000 584.014
39.60000 622.823
39.62000 639.342
39.64000 662.249
39.66000 684.691
39.68000 696.057
39.70000 726.148
39.72000 741.294
39.74000 753.833
39.76000 766.749
39.78000 755.736
39.80000 762.819
39.82000 774.018
39.84000 769.268
39.86000 775.507
39.88000 779.774
39.90000 774.633
39.92000 768.972
39.94000 747.019
39.96000 726.116
39.98000 710.405
40.00000 686.473
40.02000 668.732
40.04000 649.084
40.06000 627.005
40.08000 608.269
40.10000 591.032
40.12000 554.784
40.14000 523.744
40.16000 498.690
40.18000 473.538
40.20000 454.622
40.22000 429.577
40.24000 408.378
40.26000 385.322
40.28000 357.663
40.30000 327.324
40.32000 308.906
40.34000 296.660
40.36000 277.980
40.38000 262.831
40.40000 248.373
40.42000 228.100
40.44000 214.261
40.46000 195.683
40.48000 183.710
40.50000 174.104
40.52000 162.020
40.54000 154.193
40.56000 145.475
40.58000 135.464
40.60000 123.077
40.62000 119.621
40.64000 113.747
40.66000 100.181
40.68000 92.436
40.70000 86.893
40.72000 76.552
40.74000 76.194
40.76000 76.803
40.78000 71.027
40.80000 67.377
40.82000 66.531
40.84000 61.066
40.86000 60.459
40.88000 58.074
40.90000 55.725
40.92000 47.288
40.94000 44.939
40.96000 42.834
40.98000 45.198
41.00000 42.640
41.02000 36.918
41.04000 35.172
41.06000 35.228
41.08000 33.878
41.10000 32.903
41.12000 31.225
41.14000 24.382
41.16000 28.057
41.18000 27.115
41.20000 23.353
41.22000 23.527
41.24000 23.128
41.26000 18.634
41.28000 17.287
41.30000 14.391
41.32000 17.664
41.34000 17.156
41.36000 14.572
41.38000 13.865
41.40000 11.570
41.42000 11.368
41.44000 13.551
41.46000 14.136
41.48000 11.453
41.50000 14.961
41.52000 12.396
41.54000 8.782
41.56000 5.023
41.58000 9.093
41.60000 7.792
41.62000 3.932
41.64000 8.193
41.66000 8.531
41.68000 6.555
41.70000 6.216
41.72000 8.353
41.74000 5.548
41.76000 6.261
41.78000 7.335
41.80000 7.288
41.82000 4.484
41.84000 3.326
41.86000 2.482
41.88000 4.221
41.90000 3.518
41.92000 4.885
41.94000 4.191
41.96000 4.457
41.98000 1.814
42.00000 5.167
42.02000 7.839
42.04000 7.600
42.06000 4.487
42.08000 3.787
42.10000 3.180
42.12000 3.990
42.14000 0.101
42.16000 2.290
42.18000 2.187
42.20000 1.624
42.22000 3.601
42.24000 3.835
42.26000 2.089
42.28000 3.278
42.30000 2.292
42.32000 1.708
42.34000 1.832
42.36000 4.269
42.38000 3.003
42.40000 1.566
42.42000 1.798
42.44000 -1.128
42.46000 -0.104
42.48000 -0.871
42.50000 4.527
42.52000 0.994
42.54000 0.190
42.56000 -1.202
42.58000 1.117
42.60000 3.071
42.62000 0.626
42.64000 -0.583
42.66000 1.076
42.68000 -3.306
42.70000 -1.016
42.72000 3.338
42.74000 3.041
42.76000 3.653
42.78000 3.167
42.80000 -0.135
42.82000 -2.294
42.84000 -1.573
42.86000 -0.176
42.88000 -1.576
42.90000 -1.594
42.92000 -1.002
42.94000 0.681
42.96000 0.761
42.98000 -2.081
43.00000 2.813
43.02000 4.569
43.04000 3.028
43.06000 2.811
43.08000 5.863
43.10000 6.137
43.12000 4.729
43.14000 1.919
43.16000 -0.181
43.18000 -0.721
43.20000 0.676
43.22000 0.767
43.24000 -1.157
43.26000 -1.629
43.28000 -2.386
43.30000 2.043
43.32000 1.178
43.34000 -2.273
43.36000 -3.238
43.38000 -2.341
43.40000 -2.259
43.42000 2.243
43.44000 1.017
43.46000 0.976
43.48000 -0.581
43.50000 2.160
43.52000 1.475
43.54000 0.749
43.56000 -0.467
43.58000 0.299
43.60000 -2.606
43.62000 -0.194
43.64000 2.507
43.66000 -1.958
43.68000 -2.053
43.70000 -0.289
43.72000 -1.167
43.74000 -0.894
43.76000 -1.670
43.78000 0.481
43.80000 0.693
43.82000 -2.595
43.84000 -2.764
43.86000 0.294
43.88000 -2.043
43.90000 0.058
43.92000 -1.001
43.94000 -1.760
43.96000 5.029
43.98000 3.557
44.00000 0.001
44.02000 -1.701
44.04000 -0.754
44.06000 -1.003
44.08000 0.250
44.10000 0.809
44.12000 -0.638
44.14000 -2.082
44.16000 -1.751
44.18000 -0.042
44.20000 3.429
44.22000 4.053
44.24000 1.251
44.26000 0.934
44.28000 -1.472
44.30000 -3.153
44.32000 1.714
44.34000 1.234
44.36000 1.848
44.38000 -0.319
44.40000 0.630
44.42000 -0.841
44.44000 1.313
44.46000 -1.355
44.48000 -2.453
44.50000 3.607
44.52000 0.179
44.54000 -1.272
44.56000 -3.157
44.58000 1.757
44.60000 2.388
44.62000 -0.521
44.64000 2.277
44.66000 2.338
44.68000 -3.147
44.70000 -0.003
44.72000 0.416
44.74000 5.719
44.76000 2.807
44.78000 -2.995
44.80000 -1.637
44.82000 -0.213
44.84000 2.160
44.86000 1.753
44.88000 0.604
44.90000 0.955
44.92000 3.124
44.94000 3.204
44.96000 6.543
44.98000 6.985
45.00000 4.661
45.02000 7.605
45.04000 6.239
45.06000 10.558
45.08000 8.199
45.10000 4.819
45.12000 4.390
45.14000 1.874
45.16000 2.711
45.18000 3.297
45.20000 2.700
45.22000 7.635
45.24000 6.574
45.26000 8.304
45.28000 9.214
45.30000 6.906
45.32000 7.309
45.34000 8.716
45.36000 12.271
45.38000 13.795
45.40000 11.758
45.42000 12.500
45.44000 6.248
45.46000 4.690
45.48000 9.351
45.50000 11.440
45.52000 13.043
45.54000 15.431
45.56000 16.482
45.58000 18.247
45.60000 17.051
45.62000 19.055
45.64000 22.347
45.66000 24.160
45.68000 24.167
45.70000 19.302
45.72000 16.434
45.74000 24.621
45.76000 29.746
45.78000 27.158
45.80000 31.035
45.82000 30.973
45.84000 29.626
45.86000 32.294
45.88000 31.181
45.90000 33.368
45.92000 36.026
45.94000 36.514
45.96000 38.470
45.98000 38.037
46.00000 41.909
46.02000 43.620
46.04000 38.481
46.06000 40.692
46.08000 44.575
46.10000 48.665
46.12000 46.632
46.14000 50.930
46.16000 52.691
46.18000 55.441
46.20000 61.131
46.22000 66.018
46.24000 64.241
46.26000 61.706
46.28000 69.257
46.30000 70.870
46.32000 70.420
46.34000 72.856
46.36000 74.063
46.38000 71.994
46.40000 75.376
46.42000 79.608
46.44000 79.542
46.46000 77.518
46.48000 78.049
46.50000 76.955
46.52000 78.306
46.54000 75.690
46.56000 77.869
46.58000 79.351
46.60000 80.511
46.62000 78.100
46.64000 80.465
46.66000 81.525
46.68000 81.593
46.70000 75.910
46.72000 71.482
46.74000 75.294
46.76000 74.503
46.78000 69.825
46.80000 67.903
46.82000 66.534
46.84000 65.779
46.86000 63.470
46.88000 58.371
46.90000 58.499
46.92000 58.048
46.94000 57.889
46.96000 49.824
46.98000 50.022
47.00000 48.224
47.02000 49.895
47.04000 42.913
47.06000 38.230
47.08000 38.082
47.10000 39.270
47.12000 36.469
47.14000 34.253
47.16000 34.477
47.18000 28.761
47.20000 27.232
47.22000 22.833
47.24000 20.786
47.26000 18.630
47.28000 19.623
47.30000 22.781
47.32000 20.759
47.34000 21.033
47.36000 18.071
47.38000 14.974
47.40000 14.119
47.42000 14.598
47.44000 13.236
47.46000 8.727
47.48000 9.979
47.50000 12.265
47.52000 11.733
47.54000 9.021
47.56000 6.188
47.58000 7.228
47.60000 8.673
47.62000 6.232
47.64000 5.768
47.66000 4.657
47.68000 1.074
47.70000 0.815
47.72000 2.009
47.74000 1.994
47.76000 1.221
47.78000 -1.867
47.80000 1.283
47.82000 4.854
47.84000 0.860
47.86000 2.861
47.88000 2.286
47.90000 1.425
47.92000 1.469
47.94000 -0.214
47.96000 2.021
47.98000 5.073
48.00000 3.347
48.02000 -1.387
48.04000 -0.448
48.06000 2.445
48.08000 6.509
48.10000 5.883
48.12000 7.189
48.14000 2.861
48.16000 1.609
48.18000 3.118
48.20000 0.992
48.22000 0.899
48.24000 6.139
48.26000 4.705
48.28000 4.282
48.30000 7.801
48.32000 7.395
48.34000 4.473
48.36000 4.963
48.38000 3.768
48.40000 2.221
48.42000 -2.709
48.44000 -1.442
48.46000 0.892
48.48000 1.185
48.50000 -1.611
48.52000 4.197
48.54000 2.859
48.56000 1.121
48.58000 3.367
48.60000 4.129
48.62000 3.746
48.64000 3.085
48.66000 2.869
48.68000 0.728
48.70000 -1.658
48.72000 -1.285
48.74000 0.521
48.76000 -0.074
48.78000 1.786
48.80000 0.365
48.82000 0.370
48.84000 2.683
48.86000 0.556
48.88000 -1.986
48.90000 3.138
48.92000 3.384
48.94000 2.765
48.96000 -0.315
48.98000 -2.686
49.00000 -2.133
49.02000 1.034
49.04000 2.180
49.06000 2.285
49.08000 6.843
49.10000 8.011
49.12000 3.911
49.14000 -1.870
49.16000 -1.268
49.18000 0.571
49.20000 -1.599
49.22000 -1.304
49.24000 2.301
49.26000 -0.106
49.28000 1.485
49.30000 -0.451
49.32000 -0.200
49.34000 -0.299
49.36000 -0.681
49.38000 1.308
49.40000 0.467
49.42000 -0.206
49.44000 -0.545
49.46000 -1.444
49.48000 -1.729
49.50000 0.567
49.52000 -1.154
49.54000 0.043
49.56000 2.569
49.58000 0.194
49.60000 4.018
49.62000 4.161
49.64000 -2.635
49.66000 -0.111
49.68000 4.189
49.70000 4.724
49.72000 3.803
49.74000 2.100
49.76000 2.914
49.78000 -1.483
49.80000 -1.025
49.82000 1.526
49.84000 0.463
49.86000 -0.709
49.88000 4.603
49.90000 3.664
49.92000 0.354
49.94000 1.531
49.96000 0.799
49.98000 1.105
50.00000 4.214
50.02000 2.891
50.04000 2.195
50.06000 4.253
50.08000 2.935
50.10000 0.946
50.12000 -0.342
50.14000 -2.157
50.16000 -2.601
50.18000 -1.944
50.20000 -1.712
50.22000 -2.553
50.24000 1.073
50.26000 2.078
50.28000 1.797
50.30000 -0.884
50.32000 -2.597
50.34000 -1.638
50.36000 -0.300
50.38000 0.992
50.40000 2.701
50.42000 2.915
50.44000 1.392
50.46000 1.051
50.48000 3.918
50.50000 3.473
50.52000 -0.180
50.54000 -0.750
50.56000 1.104
50.58000 0.546
50.60000 0.250
50.62000 2.575
50.64000 4.345
50.66000 2.437
50.68000 4.483
50.70000 1.666
50.72000 1.583
50.74000 0.431
50.76000 -0.507
50.78000 -1.155
50.80000 -2.248
50.82000 -1.801
50.84000 -2.594
50.86000 -0.457
50.88000 2.522
50.90000 0.910
50.92000 2.069
50.94000 -0.703
50.96000 0.802
50.98000 -0.061
51.00000 -0.864
51.02000 -2.162
51.04000 0.593
51.06000 -1.672
51.08000 1.029
51.10000 2.077
51.12000 5.118
51.14000 6.812
51.16000 4.844
51.18000 -0.011
51.20000 1.219
51.22000 4.574
51.24000 2.243
51.26000 2.162
51.28000 -0.449
51.30000 1.713
51.32000 1.794
51.34000 -0.904
51.36000 -2.579
51.38000 0.280
51.40000 0.055
51.42000 -2.520
51.44000 2.708
51.46000 0.888
51.48000 -0.379
51.50000 1.034
51.52000 2.817
51.54000 6.292
51.56000 2.197
51.58000 -1.026
51.60000 -2.085
51.62000 -1.501
51.64000 -1.458
51.66000 -1.195
51.68000 3.601
51.70000 -0.738
51.72000 -1.721
51.74000 1.365
51.76000 0.902
51.78000 -1.797
51.80000 1.564
51.82000 4.586
51.84000 6.555
51.86000 1.935
51.88000 -1.225
51.90000 -2.543
51.92000 0.849
51.94000 4.507
51.96000 7.509
51.98000 3.305
52.00000 -0.134
52.02000 2.819
52.04000 1.207
52.06000 1.154
52.08000 0.699
52.10000 4.781
52.12000 3.362
52.14000 3.620
52.16000 -1.047
52.18000 -2.131
52.20000 4.471
52.22000 4.555
52.24000 -0.560
52.26000 1.710
52.28000 0.109
52.30000 -0.318
52.32000 -1.666
52.34000 2.592
52.36000 2.976
52.38000 -1.393
52.40000 0.810
52.42000 -0.162
52.44000 1.867
52.46000 -0.846
52.48000 1.220
52.50000 6.981
52.52000 0.973
52.54000 -1.736
52.56000 2.328
52.58000 3.663
52.60000 4.459
52.62000 2.674
52.64000 -0.225
52.66000 -2.520
52.68000 0.244
52.70000 2.181
52.72000 4.025
52.74000 0.701
52.76000 0.218
52.78000 -0.767
52.80000 3.999
52.82000 5.200
52.84000 3.444
52.86000 1.326
52.88000 0.507
52.90000 2.947
52.92000 3.772
52.94000 1.030
52.96000 3.635
52.98000 2.973
53.00000 1.904
53.02000 5.230
53.04000 7.284
53.06000 2.140
53.08000 4.126
53.10000 3.618
53.12000 5.314
53.14000 1.660
53.16000 8.444
53.18000 7.599
53.20000 -0.865
53.22000 1.736
53.24000 4.192
53.26000 4.995
53.28000 2.797
53.30000 0.560
53.32000 0.677
53.34000 3.942
53.36000 3.073
53.38000 2.294
53.40000 3.328
53.42000 0.872
53.44000 1.518
53.46000 4.274
53.48000 8.095
53.50000 5.398
53.52000 2.881
53.54000 3.657
53.56000 5.305
53.58000 4.334
53.60000 -2.462
53.62000 -1.567
53.64000 1.600
53.66000 4.282
53.68000 6.307
53.70000 3.804
53.72000 2.448
53.74000 3.662
53.76000 3.500
53.78000 7.131
53.80000 2.890
53.82000 1.321
53.84000 3.015
53.86000 3.304
53.88000 2.072
53.90000 7.507
53.92000 4.355
53.94000 1.085
53.96000 4.842
53.98000 3.070
54.00000 4.120
54.02000 2.369
54.04000 0.119
54.06000 1.763
54.08000 2.657
54.10000 5.675
54.12000 5.263
54.14000 3.603
54.16000 0.563
54.18000 5.368
54.20000 6.045
54.22000 3.589
54.24000 1.944
54.26000 3.419
54.28000 2.379
54.30000 3.382
54.32000 3.151
54.34000 5.405
54.36000 5.595
54.38000 4.662
54.40000 2.334
54.42000 2.998
54.44000 5.533
54.46000 5.227
54.48000 8.893
54.50000 4.673
54.52000 2.590
54.54000 3.942
54.56000 -0.246
54.58000 4.734
54.60000 7.030
54.62000 4.963
54.64000 2.736
54.66000 -0.681
54.68000 0.556
54.70000 2.853
54.72000 0.960
54.74000 5.806
54.76000 6.253
54.78000 3.727
54.80000 5.606
54.82000 4.355
54.84000 2.945
54.86000 3.687
54.88000 5.076
54.90000 0.479
54.92000 0.694
54.94000 2.877
54.96000 0.097
54.98000 0.267
55.00000 1.463
55.02000 -2.417
55.04000 0.425
55.06000 3.985
55.08000 2.316
55.10000 2.465
55.12000 0.758
55.14000 -1.511
55.16000 3.990
55.18000 6.089
55.20000 3.891
55.22000 1.879
55.24000 1.983
55.26000 2.735
55.28000 3.274
55.30000 1.601
55.32000 0.850
55.34000 0.510
55.36000 3.004
55.38000 6.795
55.40000 8.210
55.42000 8.110
55.44000 5.379
55.46000 3.710
55.48000 -1.062
55.50000 0.691
55.52000 4.923
55.54000 4.849
55.56000 7.607
55.58000 3.903
55.60000 2.661
55.62000 3.468
55.64000 -0.698
55.66000 1.964
55.68000 1.126
55.70000 0.041
55.72000 0.802
55.74000 0.684
55.76000 0.187
55.78000 2.377
55.80000 1.038
55.82000 -1.856
55.84000 -0.891
55.86000 0.788
55.88000 1.203
55.90000 -0.678
55.92000 -1.304
55.94000 3.477
55.96000 5.816
55.98000 4.281
56.00000 1.695
56.02000 0.161
56.04000 -0.206
56.06000 -1.959
56.08000 -0.908
56.10000 0.274
56.12000 1.586
56.14000 3.073
56.16000 0.106
56.18000 2.003
56.20000 3.283
56.22000 3.539
56.24000 2.624
56.26000 -1.105
56.28000 -1.398
56.30000 2.078
56.32000 0.417
56.34000 -1.254
56.36000 2.456
56.38000 2.306
56.40000 0.895
56.42000 -0.227
56.44000 2.650
56.46000 -0.527
56.48000 -2.363
56.50000 -2.440
56.52000 -1.718
56.54000 -0.502
56.56000 0.228
56.58000 -0.346
56.60000 2.306
56.62000 1.352
56.64000 0.953
56.66000 6.248
56.68000 4.232
56.70000 1.007
56.72000 0.467
56.74000 2.040
56.76000 1.111
56.78000 2.704
56.80000 1.556
56.82000 3.509
56.84000 0.857
56.86000 1.076
56.88000 0.790
56.90000 3.064
56.92000 4.789
56.94000 -0.741
56.96000 -2.423
56.98000 1.097
57.00000 -1.575
57.02000 1.144
57.04000 1.713
57.06000 0.423
57.08000 3.206
57.10000 0.006
57.12000 1.915
57.14000 4.539
57.16000 2.129
57.18000 4.466
57.20000 3.902
57.22000 1.326
57.24000 -0.591
57.26000 -0.505
57.28000 1.237
57.30000 2.424
57.32000 5.396
57.34000 5.424
57.36000 5.192
57.38000 1.924
57.40000 0.205
57.42000 3.704
57.44000 1.316
57.46000 -0.630
57.48000 3.261
57.50000 0.850
57.52000 1.472
57.54000 0.972
57.56000 3.140
57.58000 3.031
57.60000 5.129
57.62000 6.213
57.64000 3.237
57.66000 2.341
57.68000 4.721
57.70000 3.955
57.72000 2.569
57.74000 5.709
57.76000 4.908
57.78000 1.787
57.80000 2.995
57.82000 2.773
57.84000 0.771
57.86000 3.329
57.88000 2.751
57.90000 3.093
57.92000 1.120
57.94000 -2.339
57.96000 -1.691
57.98000 -1.551
58.00000 0.338
58.02000 3.289
58.04000 3.964
58.06000 1.083
58.08000 0.713
58.10000 -0.514
58.12000 -1.555
58.14000 0.016
58.16000 1.462
58.18000 -0.622
58.20000 2.827
58.22000 4.665
58.24000 5.987
58.26000 2.832
58.28000 2.085
58.30000 4.380
58.32000 1.941
58.34000 2.065
58.36000 1.912
58.38000 0.969
58.40000 1.622
58.42000 3.326
58.44000 5.717
58.46000 1.361
58.48000 1.381
58.50000 5.055
58.52000 1.370
58.54000 0.275
58.56000 3.255
58.58000 5.107
58.60000 3.927
58.62000 0.229
58.64000 -0.331
58.66000 1.309
58.68000 -1.160
58.70000 -1.002
58.72000 1.573
58.74000 2.834
58.76000 0.301
58.78000 -2.371
58.80000 0.883
58.82000 3.415
58.84000 4.011
58.86000 0.653
58.88000 1.433
58.90000 1.701
58.92000 2.964
58.94000 5.675
58.96000 2.200
58.98000 1.420
59.00000 1.528
59.02000 0.390
59.04000 2.045
59.06000 0.508
59.08000 1.408
59.10000 2.474
59.12000 3.547
59.14000 -0.175
59.16000 -0.427
59.18000 1.233
59.20000 -0.219
59.22000 -0.399
59.24000 1.301
59.26000 0.786
59.28000 -1.322
59.30000 0.583
59.32000 -0.864
59.34000 -1.467
59.36000 1.365
59.38000 3.124
59.40000 2.096
59.42000 1.616
59.44000 -0.002
59.46000 -2.358
59.48000 0.660
59.50000 4.390
59.52000 2.918
59.54000 0.476
59.56000 0.755
59.58000 -0.275
59.60000 1.075
59.62000 -0.072
59.64000 1.874
59.66000 1.441
59.68000 3.181
59.70000 1.512
59.72000 2.357
59.74000 0.248
59.76000 -1.502
59.78000 1.484
59.80000 0.579
59.82000 0.216
59.84000 -0.864
59.86000 -0.023
59.88000 0.375
59.90000 -1.228
59.92000 -0.317
59.94000 0.208
59.96000 -0.104
59.98000 1.634
60.00000 2.317
60.02000 0.475
60.04000 -1.454
60.06000 1.317
60.08000 -0.322
60.10000 0.192
60.12000 -0.708
60.14000 -0.125
60.16000 1.036
60.18000 0.691
60.20000 -2.322
60.22000 -0.518
60.24000 3.011
60.26000 1.957
60.28000 1.635
60.30000 3.674
60.32000 0.019
60.34000 1.753
60.36000 1.185
60.38000 3.131
60.40000 0.833
60.42000 1.242
60.44000 -0.825
60.46000 -0.309
60.48000 0.663
60.50000 3.371
60.52000 1.901
60.54000 0.488
60.56000 -1.579
60.58000 -2.002
60.60000 1.560
60.62000 2.668
60.64000 2.970
60.66000 -0.511
60.68000 -0.226
60.70000 3.707
60.72000 6.225
60.74000 2.630
60.76000 0.331
60.78000 -1.231
60.80000 -1.530
60.82000 0.207
60.84000 -0.286
60.86000 0.887
60.88000 6.134
60.90000 2.703
60.92000 0.634
60.94000 3.138
60.96000 4.483
60.98000 3.403
61.00000 1.477
61.02000 -2.281
61.04000 0.383
61.06000 3.942
61.08000 3.497
61.10000 1.241
61.12000 2.899
61.14000 0.848
61.16000 1.801
61.18000 3.574
61.20000 4.582
61.22000 3.772
61.24000 4.116
61.26000 4.878
61.28000 5.435
61.30000 3.008
61.32000 3.118
61.34000 1.146
61.36000 -0.283
61.38000 -1.937
61.40000 -0.749
61.42000 -0.008
61.44000 0.107
61.46000 -2.265
61.48000 0.576
61.50000 4.150
61.52000 2.467
61.54000 1.194
61.56000 1.941
61.58000 5.198
61.60000 1.773
61.62000 -1.024
61.64000 1.233
61.66000 -0.839
61.68000 -1.705
61.70000 2.007
61.72000 2.965
61.74000 4.376
61.76000 2.569
61.78000 2.818
61.80000 1.120
61.82000 0.263
61.84000 -1.018
61.86000 -0.886
61.88000 -1.035
61.90000 -2.273
61.92000 -1.076
61.94000 0.131
61.96000 2.081
61.98000 1.188
62.00000 -2.242
62.02000 -1.791
62.04000 0.420
62.06000 2.232
62.08000 1.366
62.10000 0.979
62.12000 2.288
62.14000 1.010
62.16000 3.090
62.18000 3.037
62.20000 -0.140
62.22000 1.339
62.24000 0.943
62.26000 -2.044
62.28000 0.195
62.30000 1.409
62.32000 0.389
62.34000 2.878
62.36000 2.240
62.38000 -0.600
62.40000 2.147
62.42000 -1.817
62.44000 -0.552
62.46000 -0.946
62.48000 2.440
62.50000 0.207
62.52000 -1.608
62.54000 1.726
62.56000 3.482
62.58000 4.869
62.60000 3.235
62.62000 3.523
62.64000 3.796
62.66000 5.197
62.68000 7.114
62.70000 5.481
62.72000 2.190
62.74000 3.500
62.76000 4.752
62.78000 1.711
62.80000 -0.635
62.82000 3.869
62.84000 5.446
62.86000 5.272
62.88000 5.192
62.90000 4.723
62.92000 4.200
62.94000 4.950
62.96000 1.497
62.98000 -2.229
63.00000 -0.383
63.02000 0.009
63.04000 0.505
63.06000 3.572
63.08000 3.190
63.10000 2.147
63.12000 4.509
63.14000 2.408
63.16000 -1.577
63.18000 0.640
63.20000 1.494
63.22000 2.866
63.24000 4.312
63.26000 2.684
63.28000 0.360
63.30000 1.055
63.32000 -0.651
63.34000 0.692
63.36000 3.539
63.38000 1.256
63.40000 2.717
63.42000 3.632
63.44000 2.185
63.46000 3.969
63.48000 3.362
63.50000 0.726
63.52000 -1.210
63.54000 -0.728
63.56000 2.534
63.58000 3.945
63.60000 1.384
63.62000 -0.214
63.64000 3.005
63.66000 1.537
63.68000 1.137
63.70000 0.520
63.72000 0.318
63.74000 0.808
63.76000 -1.442
63.78000 1.047
63.80000 1.849
63.82000 -1.530
63.84000 -2.244
63.86000 -0.720
63.88000 4.682
63.90000 5.716
63.92000 3.549
63.94000 -0.451
63.96000 1.071
63.98000 0.876
64.00000 0.769
64.02000 2.614
64.04000 2.486
64.06000 3.081
64.08000 -0.983
64.10000 -2.252
64.12000 2.753
64.14000 2.149
64.16000 3.256
64.18000 1.498
64.20000 -0.155
64.22000 1.633
64.24000 4.989
64.26000 1.980
64.28000 -2.036
64.30000 1.850
64.32000 2.636
64.34000 3.362
64.36000 3.442
64.38000 3.808
64.40000 1.361
64.42000 2.035
64.44000 1.763
64.46000 3.014
64.48000 6.157
64.50000 5.821
64.52000 1.220
64.54000 -0.720
64.56000 0.580
64.58000 1.871
64.60000 -1.086
64.62000 0.830
64.64000 3.692
64.66000 1.148
64.68000 -2.259
64.70000 1.867
64.72000 0.298
64.74000 -0.073
64.76000 -0.641
64.78000 0.412
64.80000 1.959
64.82000 4.051
64.84000 2.577
64.86000 0.055
64.88000 2.060
64.90000 2.912
64.92000 1.666
64.94000 6.239
64.96000 5.350
64.98000 1.245
65.00000 2.730
65.02000 5.033
65.04000 2.558
65.06000 5.330
65.08000 4.468
65.10000 5.608
65.12000 4.592
65.14000 0.672
65.16000 3.715
65.18000 3.008
65.20000 0.285
65.22000 2.983
65.24000 0.294
65.26000 -0.193
65.28000 -1.874
65.30000 -1.944
65.32000 -2.259
65.34000 0.392
65.36000 3.323
65.38000 2.488
65.40000 -1.026
65.42000 3.492
65.44000 4.238
65.46000 4.046
65.48000 5.187
65.50000 -0.748
65.52000 2.592
65.54000 -0.279
65.56000 0.368
65.58000 1.603
65.60000 2.185
65.62000 2.021
65.64000 1.000
65.66000 1.384
65.68000 4.048
65.70000 1.773
65.72000 0.250
65.74000 -0.430
65.76000 1.431
65.78000 4.965
65.80000 2.684
65.82000 2.418
65.84000 1.099
65.86000 1.793
65.88000 0.165
65.90000 0.442
65.92000 3.008
65.94000 3.480
65.96000 2.216
65.98000 2.663
66.00000 2.463
66.02000 2.298
66.04000 0.078
66.06000 -2.260
66.08000 0.921
66.10000 2.881
66.12000 2.803
66.14000 2.295
66.16000 3.541
66.18000 2.735
66.20000 -0.393
66.22000 -1.261
66.24000 -2.278
66.26000 1.607
66.28000 1.643
66.30000 2.102
66.32000 1.989
66.34000 3.629
66.36000 4.076
66.38000 2.032
66.40000 3.753
66.42000 0.950
66.44000 1.515
66.46000 3.814
66.48000 1.796
66.50000 3.873
66.52000 3.658
66.54000 3.423
66.56000 4.634
66.58000 2.960
66.60000 3.815
66.62000 4.805
66.64000 2.764
66.66000 5.447
66.68000 2.472
66.70000 0.673
66.72000 -0.104
66.74000 1.540
66.76000 5.989
66.78000 4.574
66.80000 2.624
66.82000 4.194
66.84000 1.914
66.86000 4.587
66.88000 6.436
66.90000 3.839
66.92000 4.195
66.94000 4.219
66.96000 7.785
66.98000 5.247
67.00000 3.320
67.02000 3.425
67.04000 2.639
67.06000 8.313
67.08000 8.303
67.10000 4.657
67.12000 4.836
67.14000 5.527
67.16000 10.104
67.18000 9.901
67.20000 11.505
67.22000 10.515
67.24000 8.223
67.26000 9.854
67.28000 8.533
67.30000 8.093
67.32000 6.692
67.34000 6.830
67.36000 10.353
67.38000 10.611
67.40000 12.508
67.42000 10.663
67.44000 10.694
67.46000 9.715
67.48000 10.240
67.50000 12.567
67.52000 13.472
67.54000 12.555
67.56000 12.440
67.58000 13.411
67.60000 15.593
67.62000 15.379
67.64000 13.731
67.66000 14.586
67.68000 12.531
67.70000 10.697
67.72000 12.099
67.74000 18.137
67.76000 19.242
67.78000 15.660
67.80000 15.549
67.82000 13.017
67.84000 16.925
67.86000 16.241
67.88000 17.543
67.90000 16.219
67.92000 16.706
67.94000 15.618
67.96000 15.891
67.98000 17.908
68.00000 18.217
68.02000 17.659
68.04000 15.883
68.06000 13.740
68.08000 15.228
68.10000 14.827
68.12000 13.374
68.14000 11.562
68.16000 8.818
68.18000 5.032
68.20000 8.098
68.22000 9.692
68.24000 9.570
68.26000 9.781
68.28000 11.728
68.30000 9.347
68.32000 8.626
68.34000 9.953
68.36000 11.931
68.38000 5.501
68.40000 6.351
68.42000 6.311
68.44000 5.126
68.46000 4.768
68.48000 4.259
68.50000 2.507
68.52000 6.535
68.54000 5.698
68.56000 3.429
68.58000 2.966
68.60000 2.518
68.62000 2.875
68.64000 2.726
68.66000 2.705
68.68000 3.952
68.70000 5.292
68.72000 2.790
68.74000 3.629
68.76000 -0.416
68.78000 0.449
68.80000 1.619
68.82000 6.727
68.84000 7.714
68.86000 5.822
68.88000 1.435
68.90000 3.076
68.92000 2.095
68.94000 1.399
68.96000 2.194
68.98000 2.306
69.00000 3.042
69.02000 1.485
69.04000 -1.207
69.06000 2.408
69.08000 2.158
69.10000 3.999
69.12000 2.113
69.14000 0.096
69.16000 1.465
69.18000 3.984
69.20000 1.678
69.22000 -0.637
69.24000 -2.200
69.26000 -0.434
69.28000 3.555
69.30000 4.511
69.32000 4.814
69.34000 5.718
69.36000 2.281
69.38000 2.941
69.40000 2.962
69.42000 2.595
69.44000 2.007
69.46000 2.617
69.48000 0.568
69.50000 1.445
69.52000 -0.463
69.54000 -0.902
69.56000 1.525
69.58000 4.194
69.60000 0.898
69.62000 1.850
69.64000 2.235
69.66000 1.876
69.68000 3.579
69.70000 3.196
69.72000 3.577
69.74000 4.794
69.76000 1.322
69.78000 1.068
69.80000 3.893
69.82000 7.455
69.84000 4.680
69.86000 2.136
69.88000 2.802
69.90000 2.374
69.92000 1.566
69.94000 1.569
69.96000 2.762
69.98000 1.328
70.00000 1.221
70.02000 0.227
70.04000 -1.303
70.06000 0.915
70.08000 2.070
70.10000 1.816
70.12000 1.304
70.14000 -0.527
70.16000 -2.162
70.18000 -0.258
70.20000 1.575
70.22000 2.126
70.24000 -0.256
70.26000 3.663
70.28000 2.529
70.30000 1.160
70.32000 -0.327
70.34000 1.588
70.36000 0.292
70.38000 1.040
70.40000 2.506
70.42000 3.115
70.44000 1.922
70.46000 3.239
70.48000 1.370
70.50000 2.062
70.52000 -0.329
70.54000 2.540
70.56000 5.320
70.58000 5.634
70.60000 2.732
70.62000 1.614
70.64000 1.032
70.66000 1.695
70.68000 5.412
70.70000 1.077
70.72000 1.464
70.74000 2.040
70.76000 2.122
70.78000 5.173
70.80000 4.390
70.82000 2.069
70.84000 4.869
70.86000 2.917
70.88000 0.361
70.90000 1.768
70.92000 1.295
70.94000 0.002
70.96000 1.240
70.98000 1.928
71.00000 0.610
71.02000 0.151
71.04000 -2.133
71.06000 3.847
71.08000 3.398
71.10000 -1.204
71.12000 -0.505
71.14000 0.447
71.16000 2.908
71.18000 3.346
71.20000 3.168
71.22000 2.239
71.24000 0.929
71.26000 3.457
71.28000 1.482
71.30000 -0.537
71.32000 1.683
71.34000 1.750
71.36000 0.299
71.38000 -1.046
71.40000 -0.738
71.42000 0.850
71.44000 0.666
71.46000 3.026
71.48000 1.741
71.50000 2.084
71.52000 1.255
71.54000 1.315
71.56000 2.120
71.58000 2.933
71.60000 2.541
71.62000 3.586
71.64000 3.415
71.66000 1.634
71.68000 3.096
71.70000 0.299
71.72000 -0.911
71.74000 0.951
71.76000 2.801
71.78000 0.235
71.80000 1.663
71.82000 1.701
71.84000 2.566
71.86000 1.194
71.88000 1.038
71.90000 0.232
71.92000 0.071
71.94000 0.650
71.96000 1.219
71.98000 -1.023
72.00000 -1.106
72.02000 1.994
72.04000 1.272
72.06000 0.736
72.08000 0.120
72.10000 -1.702
72.12000 2.150
72.14000 1.278
72.16000 2.203
72.18000 1.248
72.20000 2.175
72.22000 0.778
72.24000 0.954
72.26000 3.623
72.28000 3.036
72.30000 0.230
72.32000 1.666
72.34000 -0.696
72.36000 0.455
72.38000 1.409
72.40000 2.058
72.42000 1.130
72.44000 1.837
72.46000 0.898
72.48000 0.385
72.50000 0.613
72.52000 -2.098
72.54000 1.475
72.56000 6.058
72.58000 4.209
72.60000 3.131
72.62000 2.749
72.64000 2.130
72.66000 1.303
72.68000 1.853
72.70000 -0.514
72.72000 0.245
72.74000 -0.707
72.76000 0.655
72.78000 1.023
72.80000 0.564
72.82000 5.505
72.84000 4.650
72.86000 3.151
72.88000 0.218
72.90000 2.660
72.92000 0.933
72.94000 0.581
72.96000 4.372
72.98000 1.586
73.00000 -0.073
73.02000 6.323
73.04000 7.141
73.06000 6.479
73.08000 6.044
73.10000 7.074
73.12000 6.990
73.14000 4.042
73.16000 1.030
73.18000 3.837
73.20000 3.823
73.22000 3.726
73.24000 1.817
73.26000 2.544
73.28000 2.028
73.30000 3.024
73.32000 3.690
73.34000 0.433
73.36000 -0.108
73.38000 0.118
73.40000 0.763
73.42000 5.841
73.44000 6.182
73.46000 5.095
73.48000 1.721
73.50000 -2.046
73.52000 -0.845
73.54000 0.976
73.56000 2.084
73.58000 4.923
73.60000 7.408
73.62000 7.559
73.64000 2.495
73.66000 4.223
73.68000 1.801
73.70000 0.730
73.72000 2.939
73.74000 3.230
73.76000 2.911
73.78000 0.770
73.80000 3.592
73.82000 2.653
73.84000 1.164
73.86000 0.023
73.88000 0.011
73.90000 -1.246
73.92000 3.445
73.94000 2.610
73.96000 1.211
73.98000 4.509
74.00000 1.485
74.02000 0.391
74.04000 2.613
74.06000 3.356
74.08000 1.365
74.10000 0.979
74.12000 0.390
74.14000 1.639
74.16000 1.751
74.18000 2.042
74.20000 3.375
74.22000 1.159
74.24000 -0.108
74.26000 1.676
74.28000 0.242
74.30000 2.122
74.32000 -0.276
74.34000 -0.716
74.36000 -1.464
74.38000 -1.494
74.40000 2.476
74.42000 -0.570
74.44000 -1.810
74.46000 0.591
74.48000 3.629
74.50000 1.214
74.52000 1.897
74.54000 2.504
74.56000 1.485
74.58000 2.078
74.60000 2.260
74.62000 0.586
74.64000 0.231
74.66000 0.639
74.68000 1.083
74.70000 1.394
74.72000 -0.308
74.74000 -0.878
74.76000 -0.915
74.78000 -0.050
74.80000 0.030
74.82000 0.526
74.84000 -0.128
74.86000 2.442
74.88000 0.108
74.90000 -1.341
74.92000 -1.032
74.94000 3.449
74.96000 3.119
74.98000 -0.546
75.00000 1.504
75.02000 1.140
75.04000 -2.108
75.06000 -0.402
75.08000 4.365
75.10000 3.838
75.12000 2.044
75.14000 -2.108
75.16000 0.159
75.18000 -0.026
75.20000 -0.736
75.22000 -1.035
75.24000 0.163
75.26000 -1.739
75.28000 -0.914
75.30000 -0.059
75.32000 1.388
75.34000 1.979
75.36000 -1.228
75.38000 3.504
75.40000 1.580
75.42000 -0.221
75.44000 0.564
75.46000 3.160
75.48000 0.774
75.50000 2.849
75.52000 0.508
75.54000 -2.102
75.56000 -1.295
75.58000 0.735
75.60000 1.827
75.62000 2.290
75.64000 2.233
75.66000 -0.133
75.68000 -0.855
75.70000 1.837
75.72000 2.253
75.74000 2.845
75.76000 3.335
75.78000 5.324
75.80000 5.615
75.82000 2.825
75.84000 2.156
75.86000 1.567
75.88000 2.036
75.90000 4.984
75.92000 4.114
75.94000 2.240
75.96000 2.952
75.98000 2.588
76.00000 0.689
76.02000 1.746
76.04000 3.450
76.06000 3.181
76.08000 2.704
76.10000 -1.090
76.12000 2.076
76.14000 4.448
76.16000 2.177
76.18000 -0.802
76.20000 1.156
76.22000 2.199
76.24000 2.819
76.26000 3.827
76.28000 4.731
76.30000 3.737
76.32000 -0.103
76.34000 3.832
76.36000 1.688
76.38000 3.703
76.40000 3.533
76.42000 -0.163
76.44000 1.863
76.46000 3.552
76.48000 3.577
76.50000 3.048
76.52000 0.130
76.54000 0.267
76.56000 2.183
76.58000 1.088
76.60000 0.821
76.62000 5.114
76.64000 7.886
76.66000 4.874
76.68000 2.553
76.70000 -2.095
76.72000 2.006
76.74000 -0.798
76.76000 0.035
76.78000 1.200
76.80000 3.403
76.82000 0.641
76.84000 3.906
76.86000 0.260
76.88000 0.924
76.90000 4.590
76.92000 3.684
76.94000 1.061
76.96000 0.132
76.98000 -2.101
77.00000 0.439
77.02000 0.816
77.04000 1.418
77.06000 3.047
77.08000 1.531
77.10000 3.660
77.12000 4.596
77.14000 3.080
77.16000 1.102
77.18000 1.189
77.20000 2.963
77.22000 4.990
77.24000 0.526
77.26000 -1.761
77.28000 0.972
77.30000 3.292
77.32000 2.512
77.34000 1.582
77.36000 2.850
77.38000 4.023
77.40000 1.767
77.42000 1.258
77.44000 0.829
77.46000 1.572
77.48000 4.086
77.50000 4.312
77.52000 4.531
77.54000 2.693
77.56000 2.295
77.58000 1.839
77.60000 1.322
77.62000 1.086
77.64000 6.694
77.66000 4.484
77.68000 5.939
77.70000 6.638
77.72000 2.511
77.74000 -2.091
77.76000 0.549
77.78000 3.396
77.80000 3.107
77.82000 3.032
77.84000 1.967
77.86000 2.730
77.88000 2.944
77.90000 1.750
77.92000 3.349
77.94000 1.581
77.96000 0.819
77.98000 2.625
78.00000 3.048
78.02000 6.465
78.04000 8.815
78.06000 8.071
78.08000 5.332
78.10000 5.860
78.12000 4.449
78.14000 2.279
78.16000 1.993
78.18000 3.721
78.20000 5.201
78.22000 1.427
78.24000 4.521
78.26000 4.456
78.28000 3.869
78.30000 4.688
78.32000 5.403
78.34000 5.200
78.36000 3.718
78.38000 6.721
78.40000 4.645
78.42000 0.222
78.44000 1.525
78.46000 6.783
78.48000 0.272
78.50000 -2.117
78.52000 3.272
78.54000 6.631
78.56000 2.570
78.58000 2.327
78.60000 2.302
78.62000 3.536
78.64000 3.692
78.66000 6.403
78.68000 0.966
78.70000 2.406
78.72000 4.479
78.74000 2.889
78.76000 2.287
78.78000 1.288
78.80000 3.178
78.82000 3.003
78.84000 2.171
78.86000 2.406
78.88000 3.615
78.90000 6.213
78.92000 6.784
78.94000 7.327
78.96000 4.291
78.98000 0.400
79.00000 0.740
79.02000 1.488
79.04000 1.519
79.06000 0.448
79.08000 1.633
79.10000 1.665
79.12000 1.302
79.14000 0.568
79.16000 3.890
79.18000 10.151
79.20000 6.005
79.22000 5.133
79.24000 -0.934
79.26000 -0.841
79.28000 2.719
79.30000 5.878
79.32000 6.261
79.34000 2.079
79.36000 1.454
79.38000 1.362
79.40000 6.952
79.42000 3.597
79.44000 0.543
79.46000 -0.629
79.48000 1.180
79.50000 2.960
79.52000 1.998
79.54000 1.012
79.56000 1.402
79.58000 1.402
79.60000 3.273
79.62000 3.386
79.64000 3.258
79.66000 2.809
79.68000 0.279
79.70000 -2.194
79.72000 1.187
79.74000 5.619
79.76000 3.571
79.78000 2.994
79.80000 0.187
79.82000 4.724
79.84000 6.274
79.86000 1.187
79.88000 1.722
79.90000 1.488
79.92000 2.941
79.94000 -2.140
79.96000 0.470
79.98000 3.757
80.00000 2.898
80.02000 4.018
80.04000 5.971
80.06000 5.439
80.08000 5.726
80.10000 4.133
80.12000 7.076
80.14000 6.774
80.16000 -1.577
80.18000 0.184
80.20000 1.732
80.22000 3.472
80.24000 2.296
80.26000 5.311
80.28000 4.283
80.30000 2.532
80.32000 3.833
80.34000 3.785
80.36000 2.117
80.38000 6.616
80.40000 4.276
80.42000 7.075
80.44000 5.063
80.46000 1.567
80.48000 2.619
80.50000 3.623
80.52000 9.097
80.54000 6.149
80.56000 6.447
80.58000 8.596
80.60000 8.857
80.62000 5.705
80.64000 6.093
80.66000 7.864
80.68000 9.573
80.70000 6.766
80.72000 10.871
80.74000 11.646
80.76000 10.292
80.78000 5.646
80.80000 8.174
80.82000 13.455
80.84000 14.483
80.86000 13.193
80.88000 11.925
80.90000 8.379
80.92000 9.091
80.94000 14.402
80.96000 13.603
80.98000 16.168
81.00000 15.539
81.02000 15.382
81.04000 16.278
81.06000 16.670
81.08000 19.215
81.10000 19.853
81.12000 22.852
81.14000 22.911
81.16000 21.990
81.18000 21.856
81.20000 22.215
81.22000 23.192
81.24000 23.688
81.26000 21.246
81.28000 18.787
81.30000 20.837
81.32000 23.597
81.34000 21.605
81.36000 26.375
81.38000 23.763
81.40000 24.071
81.42000 24.267
81.44000 26.264
81.46000 22.194
81.48000 27.629
81.50000 28.803
81.52000 28.048
81.54000 27.648
81.56000 28.016
81.58000 28.357
81.60000 30.207
81.62000 25.339
81.64000 25.809
81.66000 34.588
81.68000 32.781
81.70000 31.642
81.72000 31.946
81.74000 29.263
81.76000 32.352
81.78000 32.676
81.80000 30.493
81.82000 30.303
81.84000 31.941
81.86000 32.226
81.88000 36.019
81.90000 31.703
81.92000 30.718
81.94000 31.267
81.96000 33.082
81.98000 32.601
82.00000 31.385
82.02000 31.994
82.04000 32.342
82.06000 30.638
82.08000 27.047
82.10000 24.927
82.12000 27.648
82.14000 28.217
82.16000 23.491
82.18000 20.763
82.20000 23.119
82.22000 21.491
82.24000 20.404
82.26000 18.439
82.28000 18.864
82.30000 21.853
82.32000 20.273
82.34000 19.353
82.36000 14.257
82.38000 13.076
82.40000 14.700
82.42000 14.966
82.44000 17.376
82.46000 13.864
82.48000 13.662
82.50000 14.765
82.52000 12.942
82.54000 12.727
82.56000 13.656
82.58000 10.170
82.60000 11.615
82.62000 10.171
82.64000 10.678
82.66000 13.076
82.68000 9.675
82.70000 9.492
82.72000 11.983
82.74000 10.383
82.76000 9.777
82.78000 6.269
82.80000 2.443
82.82000 0.817
82.84000 2.965
82.86000 3.428
82.88000 7.410
82.90000 3.296
82.92000 4.935
82.94000 3.592
82.96000 4.031
82.98000 4.137
83.00000 4.459
83.02000 3.644
83.04000 1.807
83.06000 -2.297
83.08000 -1.647
83.10000 2.439
83.12000 5.342
83.14000 4.615
83.16000 4.571
83.18000 5.049
83.20000 4.893
83.22000 4.065
83.24000 2.829
83.26000 1.066
83.28000 -0.772
83.30000 2.937
83.32000 3.874
83.34000 -0.331
83.36000 3.181
83.38000 2.167
83.40000 3.749
83.42000 0.680
83.44000 0.951
83.46000 3.484
83.48000 3.908
83.50000 0.977
83.52000 1.555
83.54000 4.482
83.56000 1.318
83.58000 -2.270
83.60000 3.706
83.62000 4.266
83.64000 4.593
83.66000 1.995
83.68000 3.915
83.70000 1.507
83.72000 4.122
83.74000 3.900
83.76000 2.939
83.78000 -1.659
83.80000 1.547
83.82000 1.414
83.84000 1.058
83.86000 4.130
83.88000 3.870
83.90000 2.405
83.92000 0.864
83.94000 -1.906
83.96000 -1.198
83.98000 -2.287
84.00000 -2.265
84.02000 0.796
84.04000 -0.968
84.06000 -0.416
84.08000 1.286
84.10000 3.480
84.12000 1.447
84.14000 -0.017
84.16000 0.510
84.18000 0.962
84.20000 -1.209
84.22000 -0.686
84.24000 -0.124
84.26000 0.782
84.28000 2.302
84.30000 6.075
84.32000 -0.500
84.34000 1.047
84.36000 4.128
84.38000 2.527
84.40000 5.359
84.42000 0.663
84.44000 -1.882
84.46000 -0.354
84.48000 -2.103
84.50000 -2.303
84.52000 -1.328
84.54000 -0.935
84.56000 1.213
84.58000 0.877
84.60000 4.221
84.62000 4.164
84.64000 3.133
84.66000 1.099
84.68000 3.779
84.70000 3.653
84.72000 8.379
84.74000 5.670
84.76000 5.765
84.78000 7.365
84.80000 8.689
84.82000 4.762
84.84000 5.697
84.86000 6.492
84.88000 4.425
84.90000 7.851
84.92000 9.795
84.94000 8.762
84.96000 5.460
84.98000 7.383
85.00000 7.107
85.02000 10.323
85.04000 11.146
85.06000 7.744
85.08000 10.006
85.10000 14.523
85.12000 13.405
85.14000 8.839
85.16000 12.176
85.18000 17.014
85.20000 14.133
85.22000 13.817
85.24000 14.137
85.26000 21.843
85.28000 18.603
85.30000 16.878
85.32000 23.845
85.34000 22.121
85.36000 19.226
85.38000 22.232
85.40000 23.068
85.42000 24.805
85.44000 26.475
85.46000 25.042
85.48000 23.658
85.50000 26.228
85.52000 29.091
85.54000 25.314
85.56000 26.217
85.58000 29.203
85.60000 25.640
85.62000 25.744
85.64000 28.287
85.66000 32.732
85.68000 33.154
85.70000 30.005
85.72000 31.760
85.74000 20.012
85.76000 24.132
85.78000 23.965
85.80000 30.974
85.82000 32.428
85.84000 30.066
85.86000 27.071
85.88000 27.710
85.90000 32.886
85.92000 30.337
85.94000 27.800
85.96000 27.052
85.98000 30.316
86.00000 29.167
86.02000 30.177
86.04000 29.635
86.06000 23.755
86.08000 23.308
86.10000 26.312
86.12000 29.269
86.14000 25.600
86.16000 24.248
86.18000 25.229
86.20000 21.244
86.22000 18.161
86.24000 16.499
86.26000 15.080
86.28000 14.948
86.30000 19.117
86.32000 14.558
86.34000 14.252
86.36000 15.481
86.38000 14.075
86.40000 13.192
86.42000 14.238
86.44000 10.576
86.46000 11.935
86.48000 13.114
86.50000 12.041
86.52000 9.138
86.54000 7.425
86.56000 6.761
86.58000 7.959
86.60000 9.891
86.62000 10.781
86.64000 7.337
86.66000 5.258
86.68000 6.360
86.70000 6.967
86.72000 7.435
86.74000 8.323
86.76000 6.450
86.78000 7.102
86.80000 6.006
86.82000 3.334
86.84000 3.666
86.86000 3.343
86.88000 5.646
86.90000 9.063
86.92000 9.425
86.94000 3.282
86.96000 1.611
86.98000 1.975
87.00000 3.053
87.02000 0.838
87.04000 2.471
87.06000 7.168
87.08000 2.830
87.10000 -2.127
87.12000 0.445
87.14000 1.226
87.16000 2.155
87.18000 -0.963
87.20000 1.306
87.22000 -1.378
87.24000 -1.005
87.26000 0.033
87.28000 4.105
87.30000 1.136
87.32000 1.503
87.34000 1.249
87.36000 4.364
87.38000 0.742
87.40000 2.472
87.42000 1.144
87.44000 1.915
87.46000 2.026
87.48000 6.825
87.50000 4.580
87.52000 0.375
87.54000 1.436
87.56000 0.302
87.58000 -1.053
87.60000 -2.042
87.62000 -1.236
87.64000 1.620
87.66000 1.697
87.68000 2.858
87.70000 3.272
87.72000 0.743
87.74000 1.752
87.76000 1.185
87.78000 2.142
87.80000 -0.827
87.82000 0.274
87.84000 2.235
87.86000 4.288
87.88000 3.877
87.90000 2.228
87.92000 2.721
87.94000 3.612
87.96000 2.435
87.98000 0.038
88.00000 0.581
88.02000 2.607
88.04000 2.724
88.06000 2.609
88.08000 2.909
88.10000 2.076
88.12000 2.281
88.14000 2.518
88.16000 1.631
88.18000 2.757
88.20000 0.698
88.22000 1.562
88.24000 3.473
88.26000 -0.854
88.28000 -1.979
88.30000 -1.764
88.32000 2.794
88.34000 3.951
88.36000 5.882
88.38000 3.984
88.40000 4.945
88.42000 4.566
88.44000 5.553
88.46000 5.190
88.48000 4.873
88.50000 2.562
88.52000 3.264
88.54000 2.775
88.56000 3.381
88.58000 2.939
88.60000 -0.871
88.62000 2.442
88.64000 4.968
88.66000 2.536
88.68000 3.134
88.70000 3.449
88.72000 3.429
88.74000 0.385
88.76000 -1.950
88.78000 -0.751
88.80000 1.062
88.82000 2.847
88.84000 4.761
88.86000 2.372
88.88000 1.848
88.90000 3.457
88.92000 3.250
88.94000 3.101
88.96000 2.204
88.98000 2.139
89.00000 5.065
89.02000 2.291
89.04000 4.340
89.06000 3.934
89.08000 6.608
89.10000 4.794
89.12000 6.143
89.14000 0.669
89.16000 1.690
89.18000 3.748
89.20000 1.928
89.22000 1.451
89.24000 3.491
89.26000 3.793
89.28000 0.165
89.30000 0.240
89.32000 2.952
89.34000 2.460
89.36000 1.305
89.38000 1.268
89.40000 -0.833
89.42000 -0.150
89.44000 2.368
89.46000 3.770
89.48000 4.089
89.50000 2.369
89.52000 6.515
89.54000 4.588
89.56000 3.980
89.58000 1.168
89.60000 1.510
89.62000 -0.872
89.64000 0.051
89.66000 2.064
89.68000 1.490
89.70000 0.336
89.72000 3.177
89.74000 3.394
89.76000 0.310
89.78000 -1.949
89.80000 3.853
89.82000 2.965
89.84000 3.036
89.86000 3.218
89.88000 4.623
89.90000 5.008
89.92000 2.213
89.94000 2.623
89.96000 4.460
89.98000 6.165
90.00000 4.835
90.02000 1.863
90.04000 2.093
90.06000 3.907
90.08000 4.250
90.10000 7.299
90.12000 2.249
90.14000 5.316
90.16000 1.613
90.18000 3.901
90.20000 2.639
90.22000 2.420
90.24000 2.633
90.26000 0.170
90.28000 -0.256
90.30000 1.432
90.32000 5.287
90.34000 1.005
90.36000 0.604
90.38000 5.707
90.40000 6.529
90.42000 5.710
90.44000 2.017
90.46000 1.941
90.48000 1.719
90.50000 0.940
90.52000 2.857
90.54000 0.918
90.56000 -1.953
90.58000 0.024
90.60000 4.214
90.62000 2.125
90.64000 2.320
90.66000 0.909
90.68000 -1.403
90.70000 2.947
90.72000 1.293
90.74000 1.570
90.76000 0.315
90.78000 0.967
90.80000 0.380
90.82000 0.857
90.84000 1.314
90.86000 -1.187
90.88000 6.613
90.90000 6.554
90.92000 5.451
90.94000 1.839
90.96000 1.400
90.98000 3.555
91.00000 5.681
91.02000 8.256
91.04000 2.086
91.06000 4.070
91.08000 3.351
91.10000 1.970
91.12000 1.164
91.14000 -0.634
91.16000 5.128
91.18000 5.245
91.20000 7.153
91.22000 5.809
91.24000 3.062
91.26000 0.773
91.28000 2.336
91.30000 6.287
91.32000 6.052
91.34000 5.244
91.36000 5.912
91.38000 3.018
91.40000 0.845
91.42000 1.324
91.44000 0.836
91.46000 5.393
91.48000 6.847
91.50000 5.277
91.52000 6.731
91.54000 4.862
91.56000 4.007
91.58000 1.264
91.60000 3.499
91.62000 3.244
91.64000 8.163
91.66000 6.051
91.68000 6.452
91.70000 3.561
91.72000 1.113
91.74000 2.511
91.76000 1.669
91.78000 -1.880
91.80000 4.388
91.82000 9.641
91.84000 5.964
91.86000 3.733
91.88000 6.736
91.90000 8.864
91.92000 8.675
91.94000 4.183
91.96000 7.212
91.98000 7.551
92.00000 2.700
92.02000 4.909
92.04000 4.083
92.06000 4.265
92.08000 2.670
92.10000 7.886
92.12000 7.022
92.14000 3.147
92.16000 5.869
92.18000 3.695
92.20000 4.563
92.22000 2.883
92.24000 -0.277
92.26000 1.196
92.28000 3.819
92.30000 2.647
92.32000 2.876
92.34000 4.381
92.36000 6.630
92.38000 7.488
92.40000 7.171
92.42000 5.296
92.44000 3.634
92.46000 -0.178
92.48000 2.858
92.50000 4.823
92.52000 2.886
92.54000 7.040
92.56000 8.754
92.58000 5.563
92.60000 2.732
92.62000 4.075
92.64000 5.034
92.66000 7.207
92.68000 5.820
92.70000 1.796
92.72000 0.318
92.74000 1.949
92.76000 -0.254
92.78000 2.217
92.80000 3.055
92.82000 5.174
92.84000 3.176
92.86000 0.992
92.88000 3.832
92.90000 -0.672
92.92000 -1.964
92.94000 4.372
92.96000 3.576
92.98000 0.099
93.00000 4.815
93.02000 8.649
93.04000 4.663
93.06000 3.701
93.08000 4.517
93.10000 3.769
93.12000 4.446
93.14000 1.115
93.16000 -0.794
93.18000 0.263
93.20000 0.833
93.22000 0.135
93.24000 0.965
93.26000 3.562
93.28000 1.803
93.30000 0.855
93.32000 5.509
93.34000 8.003
93.36000 2.233
93.38000 2.002
93.40000 2.971
93.42000 2.133
93.44000 2.798
93.46000 1.059
93.48000 2.085
93.50000 2.428
93.52000 1.024
93.54000 3.738
93.56000 -0.438
93.58000 1.942
93.60000 5.699
93.62000 3.800
93.64000 6.870
93.66000 4.785
93.68000 1.462
93.70000 4.534
93.72000 0.993
93.74000 -0.527
93.76000 1.190
93.78000 2.119
93.80000 2.207
93.82000 0.148
93.84000 3.416
93.86000 3.958
93.88000 1.783
93.90000 0.896
93.92000 0.686
93.94000 -2.005
93.96000 -0.280
93.98000 -0.838
94.00000 -1.294
94.02000 -0.727
94.04000 0.538
94.06000 3.174
94.08000 6.088
94.10000 1.724
94.12000 0.120
94.14000 -0.820
94.16000 -0.915
94.18000 4.001
94.20000 1.011
94.22000 2.410
94.24000 2.318
94.26000 1.228
94.28000 0.924
94.30000 0.118
94.32000 2.868
94.34000 4.104
94.36000 2.539
94.38000 2.021
94.40000 1.021
94.42000 -0.953
94.44000 2.529
94.46000 -0.308
94.48000 0.452
94.50000 -0.480
94.52000 -1.537
94.54000 -2.021
94.56000 2.024
94.58000 3.896
94.60000 6.765
94.62000 2.910
94.64000 3.981
94.66000 1.795
94.68000 1.382
94.70000 5.260
94.72000 1.210
94.74000 -0.699
94.76000 2.101
94.78000 2.122
94.80000 -1.630
94.82000 0.537
94.84000 0.771
94.86000 -0.367
94.88000 -2.027
94.90000 -0.117
94.92000 -0.958
94.94000 -0.748
94.96000 0.483
94.98000 4.146
95.00000 2.829
95.02000 3.637
95.04000 2.288
95.06000 1.818
95.08000 2.194
95.10000 2.106
95.12000 2.840
95.14000 3.689
95.16000 2.948
95.18000 5.712
95.20000 6.174
95.22000 5.977
95.24000 5.468
95.26000 1.751
95.28000 -0.610
95.30000 2.496
95.32000 6.419
95.34000 2.962
95.36000 0.726
95.38000 -0.024
95.40000 -0.144
95.42000 1.916
95.44000 5.090
95.46000 5.229
95.48000 1.946
95.50000 4.301
95.52000 3.570
95.54000 1.792
95.56000 3.299
95.58000 5.238
95.60000 5.606
95.62000 3.884
95.64000 2.807
95.66000 -2.001
95.68000 3.269
95.70000 5.236
95.72000 2.891
95.74000 3.252
95.76000 2.932
95.78000 -0.312
95.80000 -0.010
95.82000 2.232
95.84000 2.040
95.86000 -0.187
95.88000 -1.567
95.90000 0.042
95.92000 4.510
95.94000 4.128
95.96000 3.562
95.98000 1.267
96.00000 3.038
96.02000 2.292
96.04000 1.289
96.06000 3.073
96.08000 0.288
96.10000 2.289
96.12000 3.771
96.14000 1.367
96.16000 -1.990
96.18000 3.808
96.20000 1.199
96.22000 9.924
96.24000 6.849
96.26000 5.058
96.28000 1.499
96.30000 -0.134
96.32000 0.066
96.34000 4.016
96.36000 0.602
96.38000 -0.866
96.40000 1.034
96.42000 4.364
96.44000 3.927
96.46000 3.212
96.48000 1.689
96.50000 -1.193
96.52000 1.648
96.54000 3.321
96.56000 5.331
96.58000 1.210
96.60000 2.943
96.62000 1.534
96.64000 3.009
96.66000 3.766
96.68000 1.314
96.70000 6.219
96.72000 6.579
96.74000 8.999
96.76000 6.211
96.78000 3.388
96.80000 2.582
96.82000 5.063
96.84000 1.882
96.86000 2.534
96.88000 8.417
96.90000 5.024
96.92000 1.260
96.94000 -1.028
96.96000 1.209
96.98000 4.002
97.00000 0.547
97.02000 4.293
97.04000 4.861
97.06000 -1.029
97.08000 2.336
97.10000 5.662
97.12000 4.793
97.14000 2.543
97.16000 -0.619
97.18000 1.795
97.20000 5.487
97.22000 9.403
97.24000 8.350
97.26000 2.099
97.28000 0.252
97.30000 5.756
97.32000 3.924
97.34000 0.887
97.36000 3.932
97.38000 2.721
97.40000 -1.977
97.42000 6.670
97.44000 8.791
97.46000 6.589
97.48000 5.663
97.50000 1.736
97.52000 0.533
97.54000 4.570
97.56000 3.512
97.58000 4.261
97.60000 1.786
97.62000 1.514
97.64000 4.592
97.66000 5.274
97.68000 1.341
97.70000 2.711
97.72000 6.452
97.74000 2.206
97.76000 1.058
97.78000 1.716
97.80000 4.895
97.82000 -1.275
97.84000 -0.017
97.86000 2.136
97.88000 2.129
97.90000 4.578
97.92000 7.911
97.94000 0.995
97.96000 2.967
97.98000 6.466
98.00000 9.169
98.02000 7.580
98.04000 4.573
98.06000 3.374
98.08000 -0.544
98.10000 1.529
98.12000 7.373
98.14000 7.009
98.16000 5.850
98.18000 4.338
98.20000 -1.960
98.22000 5.385
98.24000 3.968
98.26000 10.931
98.28000 9.806
98.30000 5.172
98.32000 5.898
98.34000 8.736
98.36000 7.405
98.38000 5.501
98.40000 5.294
98.42000 0.380
98.44000 3.957
98.46000 2.729
98.48000 -1.950
98.50000 0.740
98.52000 3.020
98.54000 3.976
98.56000 1.427
98.58000 2.565
98.60000 2.595
98.62000 7.027
98.64000 10.702
98.66000 7.505
98.68000 0.767
98.70000 3.085
98.72000 5.944
98.74000 1.819
98.76000 0.461
98.78000 3.855
98.80000 9.659
98.82000 7.212
98.84000 6.355
98.86000 7.803
98.88000 -1.939
98.90000 -0.991
98.92000 4.884
98.94000 9.523
98.96000 -1.222
98.98000 1.311
99.00000 4.174
99.02000 6.217
99.04000 12.830
99.06000 12.209
99.08000 7.569
99.10000 9.925
99.12000 11.060
99.14000 15.384
99.16000 11.542
99.18000 1.573
99.20000 5.773
99.22000 3.025
99.24000 10.140
99.26000 11.885
99.28000 4.062
99.30000 -1.924
99.32000 4.741
99.34000 4.035
99.36000 1.457
99.38000 0.224
99.40000 -1.541
99.42000 2.496
99.44000 6.366
99.46000 8.988
99.48000 4.579
99.50000 -1.937
99.52000 3.794
99.54000 6.776
99.56000 2.827
99.58000 -0.653
99.60000 -0.371
99.62000 5.665
99.64000 2.784
99.66000 2.035
99.68000 7.651
99.70000 6.922
99.72000 -0.710
99.74000 5.680
99.76000 13.083
99.78000 14.047
99.80000 7.857
99.82000 -1.241
99.84000 4.127
99.86000 -2.035
99.88000 4.134
99.90000 12.197
99.92000 3.806
99.94000 4.513
99.96000 0.913
99.98000 0.000
