'Id: "0011387" Comment: "Integrate frame 0011387_Au-Ir-Rh_Rh-rich_XRD-Mapping-265-0000.gfrmwith cursor Wedge Cursor #5" Operator: "B?rgel" Anode: "Cu" Wavelength: "1.5406" Scantype: "2Theta (TwoTheta)" TimePerStep: "1" X: "-18" Y: "22.5" Z: "5.95" 
10.00000 0.000
10.02000 6.300
10.04000 6.467
10.06000 18.368
10.08000 1.197
10.10000 3.609
10.12000 6.783
10.14000 4.808
10.16000 19.373
10.18000 15.802
10.20000 9.374
10.22000 14.205
10.24000 12.641
10.26000 10.165
10.28000 19.219
10.30000 17.643
10.32000 18.941
10.34000 1.513
10.36000 11.129
10.38000 7.246
10.40000 15.273
10.42000 7.452
10.44000 15.838
10.46000 24.836
10.48000 20.586
10.50000 10.535
10.52000 -1.355
10.54000 -0.516
10.56000 2.244
10.58000 5.247
10.60000 12.360
10.62000 18.929
10.64000 2.603
10.66000 0.854
10.68000 -1.847
10.70000 -0.869
10.72000 -0.666
10.74000 18.964
10.76000 25.334
10.78000 12.365
10.80000 11.971
10.82000 18.648
10.84000 8.279
10.86000 -4.438
10.88000 6.446
10.90000 6.628
10.92000 4.861
10.94000 8.913
10.96000 13.416
10.98000 17.104
11.00000 32.590
11.02000 19.289
11.04000 18.028
11.06000 8.307
11.08000 8.146
11.10000 1.742
11.12000 0.886
11.14000 14.139
11.16000 2.383
11.18000 -0.793
11.20000 10.738
11.22000 10.595
11.24000 14.646
11.26000 8.908
11.28000 7.358
11.30000 13.670
11.32000 21.086
11.34000 0.008
11.36000 2.826
11.38000 -4.380
11.40000 4.440
11.42000 21.343
11.44000 17.384
11.46000 21.012
11.48000 13.356
11.50000 2.581
11.52000 10.585
11.54000 18.828
11.56000 13.300
11.58000 10.628
11.60000 18.164
11.62000 16.104
11.64000 4.035
11.66000 9.824
11.68000 4.184
11.70000 3.985
11.72000 15.310
11.74000 32.143
11.76000 14.013
11.78000 12.189
11.80000 8.702
11.82000 3.466
11.84000 5.426
11.86000 6.504
11.88000 4.599
11.90000 3.408
11.92000 4.320
11.94000 1.801
11.96000 13.294
11.98000 13.962
12.00000 3.034
12.02000 -2.163
12.04000 12.459
12.06000 7.594
12.08000 6.535
12.10000 18.806
12.12000 19.293
12.14000 11.944
12.16000 16.135
12.18000 19.241
12.20000 -1.058
12.22000 -0.547
12.24000 13.995
12.26000 18.414
12.28000 10.693
12.30000 14.337
12.32000 20.201
12.34000 10.565
12.36000 13.557
12.38000 5.518
12.40000 21.321
12.42000 22.519
12.44000 19.379
12.46000 15.275
12.48000 6.612
12.50000 15.084
12.52000 12.704
12.54000 6.814
12.56000 3.859
12.58000 11.282
12.60000 4.136
12.62000 3.850
12.64000 11.213
12.66000 19.065
12.68000 16.831
12.70000 20.863
12.72000 16.800
12.74000 10.029
12.76000 13.423
12.78000 24.435
12.80000 12.883
12.82000 2.769
12.84000 5.154
12.86000 6.919
12.88000 13.164
12.90000 7.217
12.92000 11.313
12.94000 8.232
12.96000 1.355
12.98000 4.028
13.00000 -4.508
13.02000 -0.530
13.04000 -1.602
13.06000 6.047
13.08000 10.262
13.10000 19.191
13.12000 10.805
13.14000 9.822
13.16000 3.050
13.18000 9.341
13.20000 4.612
13.22000 8.265
13.24000 10.235
13.26000 12.167
13.28000 10.115
13.30000 13.595
13.32000 15.379
13.34000 11.749
13.36000 10.932
13.38000 7.082
13.40000 7.262
13.42000 8.683
13.44000 11.190
13.46000 10.367
13.48000 16.182
13.50000 10.460
13.52000 7.727
13.54000 14.556
13.56000 25.197
13.58000 21.195
13.60000 13.461
13.62000 13.021
13.64000 5.057
13.66000 2.950
13.68000 5.920
13.70000 12.617
13.72000 4.116
13.74000 1.267
13.76000 13.737
13.78000 17.063
13.80000 13.495
13.82000 4.900
13.84000 5.051
13.86000 -0.276
13.88000 8.131
13.90000 1.134
13.92000 -1.672
13.94000 1.709
13.96000 10.709
13.98000 6.354
14.00000 9.305
14.02000 7.660
14.04000 2.786
14.06000 0.500
14.08000 5.994
14.10000 3.638
14.12000 9.856
14.14000 -0.629
14.16000 -2.131
14.18000 5.011
14.20000 8.289
14.22000 8.517
14.24000 8.200
14.26000 13.082
14.28000 13.135
14.30000 12.658
14.32000 10.689
14.34000 8.485
14.36000 7.353
14.38000 6.519
14.40000 2.143
14.42000 8.618
14.44000 13.648
14.46000 17.057
14.48000 13.463
14.50000 13.551
14.52000 22.539
14.54000 18.248
14.56000 14.552
14.58000 1.210
14.60000 11.582
14.62000 15.057
14.64000 4.908
14.66000 -1.204
14.68000 -1.142
14.70000 11.854
14.72000 15.856
14.74000 7.810
14.76000 2.291
14.78000 9.388
14.80000 6.025
14.82000 2.202
14.84000 0.861
14.86000 9.288
14.88000 11.190
14.90000 5.948
14.92000 3.039
14.94000 12.974
14.96000 11.271
14.98000 9.731
15.00000 18.348
15.02000 14.147
15.04000 15.082
15.06000 11.653
15.08000 12.962
15.10000 14.961
15.12000 16.016
15.14000 8.584
15.16000 11.763
15.18000 16.477
15.20000 14.565
15.22000 15.608
15.24000 6.115
15.26000 7.931
15.28000 10.575
15.30000 23.420
15.32000 17.901
15.34000 4.756
15.36000 7.605
15.38000 6.931
15.40000 14.581
15.42000 10.898
15.44000 -0.035
15.46000 -4.443
15.48000 5.006
15.50000 13.145
15.52000 4.241
15.54000 5.842
15.56000 11.803
15.58000 5.880
15.60000 10.242
15.62000 10.701
15.64000 2.403
15.66000 1.777
15.68000 10.486
15.70000 12.458
15.72000 16.713
15.74000 15.517
15.76000 10.890
15.78000 7.681
15.80000 6.970
15.82000 11.207
15.84000 20.237
15.86000 20.828
15.88000 12.195
15.90000 11.412
15.92000 6.801
15.94000 0.787
15.96000 3.684
15.98000 2.836
16.00000 3.728
16.02000 10.234
16.04000 4.024
16.06000 0.947
16.08000 8.710
16.10000 -0.530
16.12000 -4.395
16.14000 7.875
16.16000 8.877
16.18000 1.425
16.20000 1.234
16.22000 0.632
16.24000 3.527
16.26000 11.664
16.28000 9.054
16.30000 4.505
16.32000 13.884
16.34000 16.708
16.36000 9.724
16.38000 8.045
16.40000 10.203
16.42000 9.743
16.44000 11.215
16.46000 10.465
16.48000 11.328
16.50000 5.785
16.52000 8.810
16.54000 12.211
16.56000 14.081
16.58000 11.005
16.60000 13.607
16.62000 7.847
16.64000 5.586
16.66000 17.704
16.68000 18.158
16.70000 12.597
16.72000 10.226
16.74000 15.851
16.76000 15.201
16.78000 10.450
16.80000 10.622
16.82000 12.036
16.84000 18.844
16.86000 14.690
16.88000 11.211
16.90000 7.085
16.92000 4.133
16.94000 2.679
16.96000 5.205
16.98000 6.619
17.00000 9.612
17.02000 6.297
17.04000 10.684
17.06000 14.191
17.08000 18.325
17.10000 17.260
17.12000 21.028
17.14000 15.041
17.16000 16.872
17.18000 18.163
17.20000 5.695
17.22000 5.877
17.24000 9.746
17.26000 11.591
17.28000 11.668
17.30000 5.121
17.32000 -1.761
17.34000 1.549
17.36000 12.478
17.38000 10.367
17.40000 4.769
17.42000 8.733
17.44000 2.562
17.46000 8.234
17.48000 11.849
17.50000 15.819
17.52000 5.403
17.54000 3.498
17.56000 18.996
17.58000 17.714
17.60000 7.182
17.62000 1.529
17.64000 4.727
17.66000 6.505
17.68000 19.627
17.70000 7.839
17.72000 0.489
17.74000 9.297
17.76000 12.028
17.78000 9.739
17.80000 7.635
17.82000 8.045
17.84000 6.508
17.86000 8.926
17.88000 6.824
17.90000 7.221
17.92000 10.702
17.94000 5.704
17.96000 5.102
17.98000 5.918
18.00000 4.518
18.02000 9.324
18.04000 10.717
18.06000 7.920
18.08000 4.606
18.10000 5.374
18.12000 3.213
18.14000 4.154
18.16000 7.561
18.18000 6.747
18.20000 6.869
18.22000 6.828
18.24000 -2.580
18.26000 1.971
18.28000 3.780
18.30000 9.245
18.32000 -1.200
18.34000 0.465
18.36000 8.486
18.38000 16.146
18.40000 12.767
18.42000 14.649
18.44000 14.491
18.46000 16.767
18.48000 16.095
18.50000 14.264
18.52000 14.705
18.54000 15.243
18.56000 14.480
18.58000 3.516
18.60000 5.811
18.62000 3.008
18.64000 -4.255
18.66000 3.361
18.68000 9.271
18.70000 16.942
18.72000 12.984
18.74000 6.404
18.76000 7.514
18.78000 9.355
18.80000 7.747
18.82000 8.763
18.84000 2.682
18.86000 5.171
18.88000 13.235
18.90000 11.874
18.92000 10.880
18.94000 9.080
18.96000 9.395
18.98000 13.781
19.00000 14.177
19.02000 8.253
19.04000 5.060
19.06000 6.584
19.08000 2.272
19.10000 0.894
19.12000 -1.476
19.14000 -0.183
19.16000 6.821
19.18000 14.889
19.20000 6.483
19.22000 7.271
19.24000 6.578
19.26000 11.342
19.28000 7.360
19.30000 4.246
19.32000 7.119
19.34000 4.855
19.36000 -1.348
19.38000 5.747
19.40000 5.406
19.42000 5.292
19.44000 4.791
19.46000 7.304
19.48000 7.491
19.50000 12.059
19.52000 7.673
19.54000 6.015
19.56000 12.620
19.58000 6.106
19.60000 9.209
19.62000 8.125
19.64000 -0.513
19.66000 -2.939
19.68000 6.149
19.70000 4.226
19.72000 3.835
19.74000 6.105
19.76000 5.491
19.78000 2.780
19.80000 4.089
19.82000 5.296
19.84000 7.388
19.86000 3.109
19.88000 5.614
19.90000 8.674
19.92000 4.566
19.94000 0.351
19.96000 -0.117
19.98000 4.322
20.00000 -3.023
20.02000 -0.996
20.04000 -0.222
20.06000 7.959
20.08000 7.919
20.10000 3.291
20.12000 1.426
20.14000 2.002
20.16000 3.841
20.18000 -0.250
20.20000 6.657
20.22000 9.246
20.24000 9.116
20.26000 2.373
20.28000 -4.242
20.30000 0.498
20.32000 3.320
20.34000 3.278
20.36000 1.401
20.38000 7.111
20.40000 5.244
20.42000 3.821
20.44000 -0.467
20.46000 4.430
20.48000 11.325
20.50000 3.447
20.52000 4.141
20.54000 2.100
20.56000 -0.446
20.58000 3.084
20.60000 0.929
20.62000 1.338
20.64000 -2.589
20.66000 -1.389
20.68000 2.951
20.70000 7.435
20.72000 8.532
20.74000 0.344
20.76000 6.228
20.78000 4.685
20.80000 0.396
20.82000 2.721
20.84000 -2.630
20.86000 -3.033
20.88000 -3.075
20.90000 -3.207
20.92000 3.451
20.94000 4.635
20.96000 0.921
20.98000 2.947
21.00000 -0.440
21.02000 1.591
21.04000 1.068
21.06000 0.451
21.08000 0.841
21.10000 1.360
21.12000 -1.401
21.14000 -0.220
21.16000 -1.717
21.18000 0.972
21.20000 -0.752
21.22000 -0.815
21.24000 -1.570
21.26000 0.733
21.28000 4.127
21.30000 1.245
21.32000 3.912
21.34000 2.951
21.36000 2.549
21.38000 2.895
21.40000 8.077
21.42000 9.568
21.44000 -2.736
21.46000 2.738
21.48000 7.451
21.50000 12.270
21.52000 2.434
21.54000 2.826
21.56000 8.436
21.58000 10.343
21.60000 13.351
21.62000 5.184
21.64000 1.629
21.66000 -3.767
21.68000 0.088
21.70000 0.868
21.72000 6.693
21.74000 4.564
21.76000 4.964
21.78000 4.648
21.80000 -0.025
21.82000 -1.945
21.84000 -0.292
21.86000 1.368
21.88000 1.177
21.90000 4.613
21.92000 4.091
21.94000 5.514
21.96000 7.676
21.98000 6.259
22.00000 4.960
22.02000 1.465
22.04000 6.441
22.06000 11.704
22.08000 2.984
22.10000 -2.009
22.12000 -4.120
22.14000 7.641
22.16000 11.827
22.18000 9.741
22.20000 5.268
22.22000 2.675
22.24000 1.944
22.26000 10.033
22.28000 9.871
22.30000 9.480
22.32000 10.951
22.34000 5.257
22.36000 10.530
22.38000 8.543
22.40000 5.222
22.42000 6.277
22.44000 7.105
22.46000 9.725
22.48000 10.183
22.50000 12.219
22.52000 6.426
22.54000 3.502
22.56000 -1.295
22.58000 3.344
22.60000 7.573
22.62000 9.518
22.64000 5.910
22.66000 4.455
22.68000 4.716
22.70000 1.171
22.72000 -4.050
22.74000 0.532
22.76000 0.514
22.78000 0.326
22.80000 11.219
22.82000 11.567
22.84000 6.808
22.86000 2.951
22.88000 7.328
22.90000 6.537
22.92000 4.921
22.94000 7.098
22.96000 8.574
22.98000 8.082
23.00000 5.943
23.02000 3.541
23.04000 8.071
23.06000 8.665
23.08000 7.281
23.10000 13.439
23.12000 10.318
23.14000 6.893
23.16000 9.209
23.18000 5.412
23.20000 4.153
23.22000 -0.410
23.24000 -4.037
23.26000 -1.507
23.28000 5.820
23.30000 2.859
23.32000 5.983
23.34000 5.701
23.36000 0.654
23.38000 3.814
23.40000 0.280
23.42000 -2.162
23.44000 -1.875
23.46000 -2.661
23.48000 -1.360
23.50000 -1.596
23.52000 1.835
23.54000 -1.512
23.56000 -0.805
23.58000 -2.075
23.60000 3.857
23.62000 1.167
23.64000 5.719
23.66000 3.480
23.68000 -1.204
23.70000 3.536
23.72000 4.836
23.74000 0.726
23.76000 -1.213
23.78000 -2.502
23.80000 -0.952
23.82000 2.992
23.84000 4.123
23.86000 1.529
23.88000 3.006
23.90000 7.477
23.92000 3.654
23.94000 4.217
23.96000 5.854
23.98000 6.513
24.00000 5.036
24.02000 1.353
24.04000 1.985
24.06000 7.860
24.08000 2.264
24.10000 2.790
24.12000 5.262
24.14000 3.999
24.16000 5.595
24.18000 3.864
24.20000 5.588
24.22000 4.974
24.24000 4.591
24.26000 0.541
24.28000 -3.274
24.30000 -0.093
24.32000 2.281
24.34000 0.205
24.36000 1.876
24.38000 2.466
24.40000 8.926
24.42000 6.211
24.44000 4.252
24.46000 4.319
24.48000 7.945
24.50000 7.594
24.52000 0.108
24.54000 -2.998
24.56000 -3.838
24.58000 -1.237
24.60000 1.780
24.62000 4.167
24.64000 1.961
24.66000 -0.440
24.68000 -3.867
24.70000 2.796
24.72000 3.408
24.74000 3.190
24.76000 -2.010
24.78000 6.412
24.80000 7.266
24.82000 4.445
24.84000 3.628
24.86000 6.275
24.88000 1.292
24.90000 4.376
24.92000 3.140
24.94000 0.318
24.96000 0.901
24.98000 4.392
25.00000 4.241
25.02000 1.319
25.04000 -1.330
25.06000 -2.123
25.08000 3.017
25.10000 4.199
25.12000 5.493
25.14000 4.990
25.16000 6.661
25.18000 5.495
25.20000 -0.775
25.22000 -0.001
25.24000 6.307
25.26000 2.710
25.28000 3.534
25.30000 2.012
25.32000 5.703
25.34000 4.647
25.36000 -3.924
25.38000 -2.854
25.40000 4.748
25.42000 -0.268
25.44000 -0.074
25.46000 8.889
25.48000 4.613
25.50000 5.773
25.52000 4.151
25.54000 1.015
25.56000 0.824
25.58000 6.223
25.60000 10.111
25.62000 4.448
25.64000 8.652
25.66000 6.273
25.68000 3.680
25.70000 5.375
25.72000 -3.899
25.74000 1.326
25.76000 1.235
25.78000 10.283
25.80000 13.203
25.82000 2.398
25.84000 1.869
25.86000 2.245
25.88000 2.429
25.90000 5.017
25.92000 7.348
25.94000 4.838
25.96000 6.884
25.98000 2.059
26.00000 -0.351
26.02000 2.014
26.04000 7.397
26.06000 6.633
26.08000 3.210
26.10000 3.728
26.12000 1.887
26.14000 6.235
26.16000 5.075
26.18000 8.077
26.20000 5.276
26.22000 5.239
26.24000 5.229
26.26000 3.497
26.28000 0.922
26.30000 1.374
26.32000 5.140
26.34000 1.919
26.36000 0.837
26.38000 1.737
26.40000 4.906
26.42000 -1.806
26.44000 -3.277
26.46000 -3.876
26.48000 1.660
26.50000 7.515
26.52000 4.827
26.54000 3.548
26.56000 6.755
26.58000 5.145
26.60000 1.343
26.62000 -0.157
26.64000 2.578
26.66000 2.619
26.68000 8.584
26.70000 6.440
26.72000 2.776
26.74000 -0.769
26.76000 -0.871
26.78000 -2.392
26.80000 1.069
26.82000 4.979
26.84000 -1.909
26.86000 1.957
26.88000 2.531
26.90000 0.794
26.92000 2.606
26.94000 1.822
26.96000 1.736
26.98000 0.992
27.00000 6.471
27.02000 6.712
27.04000 4.920
27.06000 6.594
27.08000 5.394
27.10000 6.147
27.12000 6.818
27.14000 3.461
27.16000 4.953
27.18000 3.953
27.20000 1.262
27.22000 3.286
27.24000 0.979
27.26000 0.587
27.28000 2.146
27.30000 2.301
27.32000 3.351
27.34000 5.572
27.36000 -0.896
27.38000 1.473
27.40000 6.617
27.42000 5.920
27.44000 4.268
27.46000 5.617
27.48000 2.252
27.50000 2.030
27.52000 8.454
27.54000 8.104
27.56000 1.078
27.58000 -3.827
27.60000 0.844
27.62000 1.349
27.64000 -0.848
27.66000 -1.511
27.68000 -0.605
27.70000 -0.051
27.72000 0.212
27.74000 1.128
27.76000 -2.417
27.78000 -3.156
27.80000 -0.021
27.82000 0.243
27.84000 2.602
27.86000 4.527
27.88000 5.296
27.90000 6.987
27.92000 11.304
27.94000 8.503
27.96000 0.905
27.98000 -1.088
28.00000 -1.376
28.02000 1.264
28.04000 0.343
28.06000 5.277
28.08000 3.848
28.10000 -1.262
28.12000 -1.409
28.14000 -1.330
28.16000 0.956
28.18000 1.866
28.20000 3.288
28.22000 1.941
28.24000 0.429
28.26000 9.373
28.28000 6.409
28.30000 -1.703
28.32000 -2.069
28.34000 -1.987
28.36000 -1.798
28.38000 -2.278
28.40000 -0.125
28.42000 4.491
28.44000 2.882
28.46000 2.571
28.48000 -1.707
28.50000 1.783
28.52000 2.616
28.54000 -0.374
28.56000 -0.887
28.58000 0.526
28.60000 -2.050
28.62000 -0.079
28.64000 3.119
28.66000 1.234
28.68000 3.400
28.70000 4.581
28.72000 5.052
28.74000 4.675
28.76000 5.418
28.78000 6.548
28.80000 4.043
28.82000 0.018
28.84000 -1.752
28.86000 -1.859
28.88000 2.135
28.90000 0.922
28.92000 2.544
28.94000 5.318
28.96000 -1.765
28.98000 1.637
29.00000 8.770
29.02000 7.931
29.04000 6.573
29.06000 4.034
29.08000 4.203
29.10000 -0.604
29.12000 -3.743
29.14000 1.331
29.16000 0.077
29.18000 3.203
29.20000 3.053
29.22000 0.747
29.24000 1.954
29.26000 3.699
29.28000 2.344
29.30000 1.273
29.32000 -2.274
29.34000 -1.218
29.36000 1.310
29.38000 3.193
29.40000 2.778
29.42000 2.453
29.44000 3.651
29.46000 5.859
29.48000 7.323
29.50000 1.815
29.52000 2.311
29.54000 0.521
29.56000 4.741
29.58000 2.878
29.60000 -3.710
29.62000 5.380
29.64000 9.234
29.66000 8.751
29.68000 7.968
29.70000 5.057
29.72000 2.131
29.74000 -0.735
29.76000 2.139
29.78000 4.068
29.80000 1.812
29.82000 6.614
29.84000 7.001
29.86000 4.339
29.88000 3.331
29.90000 4.768
29.92000 1.671
29.94000 7.036
29.96000 9.506
29.98000 4.353
30.00000 4.541
30.02000 4.070
30.04000 5.996
30.06000 3.116
30.08000 1.226
30.10000 0.886
30.12000 6.003
30.14000 10.023
30.16000 6.900
30.18000 5.841
30.20000 4.095
30.22000 2.877
30.24000 3.018
30.26000 1.214
30.28000 3.806
30.30000 5.323
30.32000 4.714
30.34000 7.573
30.36000 7.900
30.38000 6.428
30.40000 4.239
30.42000 0.934
30.44000 1.080
30.46000 1.393
30.48000 0.366
30.50000 1.881
30.52000 4.235
30.54000 -0.171
30.56000 -0.411
30.58000 6.574
30.60000 5.815
30.62000 -0.076
30.64000 -1.011
30.66000 2.219
30.68000 -1.958
30.70000 -1.072
30.72000 2.232
30.74000 5.059
30.76000 2.142
30.78000 3.717
30.80000 3.157
30.82000 6.378
30.84000 3.911
30.86000 0.563
30.88000 -3.636
30.90000 -1.507
30.92000 -0.610
30.94000 -0.528
30.96000 4.273
30.98000 5.003
31.00000 2.472
31.02000 -0.548
31.04000 5.194
31.06000 2.114
31.08000 -0.022
31.10000 -0.645
31.12000 -0.881
31.14000 2.749
31.16000 9.030
31.18000 2.627
31.20000 3.519
31.22000 3.385
31.24000 5.984
31.26000 5.772
31.28000 3.447
31.30000 3.634
31.32000 3.455
31.34000 1.683
31.36000 -0.046
31.38000 3.625
31.40000 1.878
31.42000 2.022
31.44000 -0.860
31.46000 -0.917
31.48000 -2.483
31.50000 5.135
31.52000 3.401
31.54000 5.335
31.56000 3.550
31.58000 1.462
31.60000 0.304
31.62000 4.162
31.64000 3.439
31.66000 2.659
31.68000 6.241
31.70000 6.389
31.72000 4.309
31.74000 5.991
31.76000 2.383
31.78000 -0.307
31.80000 -0.904
31.82000 3.576
31.84000 5.003
31.86000 -1.627
31.88000 -0.438
31.90000 2.284
31.92000 0.257
31.94000 5.255
31.96000 5.124
31.98000 4.087
32.00000 -1.156
32.02000 -1.548
32.04000 -3.622
32.06000 0.151
32.08000 1.160
32.10000 -0.693
32.12000 5.513
32.14000 1.535
32.16000 -0.065
32.18000 -0.384
32.20000 0.800
32.22000 -0.993
32.24000 -0.428
32.26000 1.130
32.28000 -2.188
32.30000 0.141
32.32000 -0.028
32.34000 -1.355
32.36000 0.050
32.38000 3.432
32.40000 1.784
32.42000 4.635
32.44000 2.370
32.46000 -0.539
32.48000 -3.621
32.50000 -1.144
32.52000 -3.132
32.54000 3.437
32.56000 0.469
32.58000 0.933
32.60000 -1.737
32.62000 0.098
32.64000 0.018
32.66000 3.890
32.68000 10.052
32.70000 9.174
32.72000 3.256
32.74000 2.495
32.76000 -3.472
32.78000 -2.713
32.80000 -3.079
32.82000 4.307
32.84000 -0.284
32.86000 -2.117
32.88000 5.828
32.90000 3.352
32.92000 2.702
32.94000 3.056
32.96000 2.999
32.98000 2.851
33.00000 -1.837
33.02000 2.486
33.04000 4.228
33.06000 1.975
33.08000 4.336
33.10000 4.003
33.12000 4.129
33.14000 1.337
33.16000 1.648
33.18000 4.201
33.20000 6.677
33.22000 0.556
33.24000 2.920
33.26000 2.825
33.28000 1.650
33.30000 4.293
33.32000 2.343
33.34000 -3.578
33.36000 0.844
33.38000 3.312
33.40000 1.760
33.42000 3.165
33.44000 7.447
33.46000 5.732
33.48000 4.778
33.50000 4.825
33.52000 2.013
33.54000 3.207
33.56000 3.553
33.58000 4.772
33.60000 4.029
33.62000 1.732
33.64000 5.010
33.66000 2.552
33.68000 0.415
33.70000 4.433
33.72000 2.818
33.74000 5.681
33.76000 6.497
33.78000 3.520
33.80000 4.651
33.82000 5.734
33.84000 2.712
33.86000 2.917
33.88000 0.489
33.90000 2.206
33.92000 3.974
33.94000 5.199
33.96000 1.557
33.98000 -0.692
34.00000 0.485
34.02000 0.599
34.04000 4.907
34.06000 4.007
34.08000 6.466
34.10000 8.999
34.12000 2.032
34.14000 -3.557
34.16000 0.100
34.18000 4.943
34.20000 7.427
34.22000 7.787
34.24000 5.025
34.26000 4.299
34.28000 4.495
34.30000 4.780
34.32000 1.981
34.34000 -0.676
34.36000 6.776
34.38000 8.853
34.40000 5.226
34.42000 3.567
34.44000 2.031
34.46000 -1.301
34.48000 5.432
34.50000 5.875
34.52000 -0.495
34.54000 -3.515
34.56000 -3.108
34.58000 -1.932
34.60000 3.433
34.62000 5.919
34.64000 1.562
34.66000 -0.611
34.68000 1.125
34.70000 2.491
34.72000 1.990
34.74000 2.566
34.76000 3.813
34.78000 6.418
34.80000 7.817
34.82000 6.573
34.84000 1.913
34.86000 0.322
34.88000 4.382
34.90000 1.120
34.92000 1.294
34.94000 3.291
34.96000 -1.109
34.98000 -2.880
35.00000 1.228
35.02000 0.890
35.04000 -1.661
35.06000 0.223
35.08000 0.585
35.10000 -0.817
35.12000 -3.539
35.14000 3.076
35.16000 7.835
35.18000 4.328
35.20000 -0.448
35.22000 0.298
35.24000 -1.425
35.26000 1.374
35.28000 4.689
35.30000 1.989
35.32000 -0.591
35.34000 3.092
35.36000 4.468
35.38000 -1.768
35.40000 -3.005
35.42000 -0.826
35.44000 -1.985
35.46000 2.339
35.48000 3.500
35.50000 2.103
35.52000 -2.847
35.54000 0.233
35.56000 3.372
35.58000 -3.550
35.60000 -0.993
35.62000 2.712
35.64000 5.358
35.66000 2.461
35.68000 -0.311
35.70000 0.082
35.72000 -1.850
35.74000 1.357
35.76000 4.006
35.78000 -1.727
35.80000 -1.142
35.82000 -0.112
35.84000 1.831
35.86000 2.646
35.88000 1.111
35.90000 4.580
35.92000 5.498
35.94000 0.822
35.96000 3.944
35.98000 5.729
36.00000 0.771
36.02000 -3.562
36.04000 2.468
36.06000 1.703
36.08000 1.153
36.10000 2.066
36.12000 5.108
36.14000 2.281
36.16000 2.616
36.18000 0.785
36.20000 -0.535
36.22000 1.179
36.24000 3.643
36.26000 -0.355
36.28000 -1.122
36.30000 -1.457
36.32000 1.670
36.34000 -1.143
36.36000 -1.339
36.38000 -0.975
36.40000 -0.296
36.42000 -0.655
36.44000 -2.556
36.46000 -1.805
36.48000 -0.638
36.50000 6.071
36.52000 8.053
36.54000 3.854
36.56000 0.827
36.58000 0.044
36.60000 -1.597
36.62000 -3.572
36.64000 3.749
36.66000 3.804
36.68000 -3.078
36.70000 -1.495
36.72000 -3.216
36.74000 -2.670
36.76000 -1.276
36.78000 -1.337
36.80000 -3.573
36.82000 -0.679
36.84000 4.391
36.86000 6.213
36.88000 4.296
36.90000 0.310
36.92000 1.168
36.94000 1.941
36.96000 -3.586
36.98000 -2.870
37.00000 -0.667
37.02000 2.198
37.04000 1.584
37.06000 0.894
37.08000 -0.225
37.10000 0.899
37.12000 0.953
37.14000 3.863
37.16000 4.247
37.18000 5.494
37.20000 5.513
37.22000 4.118
37.24000 4.477
37.26000 0.284
37.28000 -1.411
37.30000 2.409
37.32000 3.088
37.34000 3.682
37.36000 3.232
37.38000 -0.029
37.40000 3.013
37.42000 2.904
37.44000 3.226
37.46000 0.302
37.48000 0.482
37.50000 0.916
37.52000 0.808
37.54000 3.425
37.56000 3.133
37.58000 5.095
37.60000 2.747
37.62000 9.764
37.64000 6.651
37.66000 7.395
37.68000 4.912
37.70000 6.497
37.72000 7.368
37.74000 6.742
37.76000 4.404
37.78000 1.745
37.80000 6.073
37.82000 10.327
37.84000 13.560
37.86000 9.730
37.88000 6.558
37.90000 13.515
37.92000 17.296
37.94000 14.316
37.96000 10.124
37.98000 7.118
38.00000 9.449
38.02000 12.878
38.04000 18.374
38.06000 20.836
38.08000 16.473
38.10000 17.273
38.12000 20.383
38.14000 19.985
38.16000 20.445
38.18000 21.556
38.20000 24.923
38.22000 24.041
38.24000 22.753
38.26000 26.213
38.28000 28.128
38.30000 22.620
38.32000 22.085
38.34000 23.763
38.36000 24.336
38.38000 31.483
38.40000 28.126
38.42000 28.495
38.44000 32.027
38.46000 25.580
38.48000 31.763
38.50000 33.603
38.52000 36.282
38.54000 33.239
38.56000 29.522
38.58000 34.026
38.60000 37.200
38.62000 42.274
38.64000 43.419
38.66000 41.302
38.68000 44.426
38.70000 47.718
38.72000 50.218
38.74000 48.584
38.76000 49.732
38.78000 54.192
38.80000 57.771
38.82000 61.219
38.84000 62.182
38.86000 65.397
38.88000 66.857
38.90000 69.469
38.92000 65.003
38.94000 68.330
38.96000 73.788
38.98000 80.398
39.00000 80.525
39.02000 85.733
39.04000 90.995
39.06000 91.963
39.08000 94.458
39.10000 101.714
39.12000 111.423
39.14000 118.781
39.16000 119.995
39.18000 115.896
39.20000 123.814
39.22000 132.111
39.24000 140.834
39.26000 151.373
39.28000 154.224
39.30000 165.069
39.32000 163.176
39.34000 176.481
39.36000 183.553
39.38000 193.532
39.40000 199.751
39.42000 207.726
39.44000 216.642
39.46000 229.750
39.48000 238.172
39.50000 248.085
39.52000 274.520
39.54000 288.122
39.56000 297.895
39.58000 310.090
39.60000 322.553
39.62000 340.893
39.64000 364.631
39.66000 378.422
39.68000 393.485
39.70000 422.405
39.72000 445.463
39.74000 461.596
39.76000 476.624
39.78000 494.470
39.80000 525.107
39.82000 542.643
39.84000 577.315
39.86000 593.292
39.88000 621.846
39.90000 637.678
39.92000 652.550
39.94000 667.580
39.96000 682.113
39.98000 704.288
40.00000 721.542
40.02000 723.491
40.04000 728.472
40.06000 745.668
40.08000 746.252
40.10000 749.637
40.12000 749.916
40.14000 752.868
40.16000 750.762
40.18000 737.359
40.20000 735.525
40.22000 725.747
40.24000 713.923
40.26000 687.831
40.28000 676.520
40.30000 658.952
40.32000 635.644
40.34000 618.369
40.36000 601.261
40.38000 582.242
40.40000 564.947
40.42000 541.969
40.44000 513.959
40.46000 501.721
40.48000 482.917
40.50000 455.982
40.52000 428.666
40.54000 409.673
40.56000 390.226
40.58000 376.758
40.60000 368.484
40.62000 341.001
40.64000 320.911
40.66000 303.103
40.68000 295.315
40.70000 275.299
40.72000 258.681
40.74000 243.435
40.76000 223.943
40.78000 213.048
40.80000 210.409
40.82000 198.523
40.84000 187.896
40.86000 175.475
40.88000 163.601
40.90000 156.460
40.92000 152.362
40.94000 141.259
40.96000 130.778
40.98000 124.971
41.00000 121.205
41.02000 112.597
41.04000 103.485
41.06000 105.386
41.08000 95.084
41.10000 83.472
41.12000 83.542
41.14000 83.391
41.16000 79.161
41.18000 71.814
41.20000 65.081
41.22000 67.583
41.24000 61.348
41.26000 58.188
41.28000 56.272
41.30000 51.377
41.32000 51.857
41.34000 49.145
41.36000 49.609
41.38000 45.268
41.40000 35.873
41.42000 35.328
41.44000 32.110
41.46000 35.877
41.48000 33.322
41.50000 28.055
41.52000 29.062
41.54000 28.804
41.56000 25.223
41.58000 24.562
41.60000 21.033
41.62000 17.030
41.64000 20.690
41.66000 18.737
41.68000 18.204
41.70000 19.706
41.72000 20.929
41.74000 16.818
41.76000 13.784
41.78000 11.007
41.80000 10.832
41.82000 12.360
41.84000 14.401
41.86000 13.493
41.88000 7.014
41.90000 3.554
41.92000 9.442
41.94000 14.185
41.96000 11.796
41.98000 9.041
42.00000 8.031
42.02000 8.855
42.04000 8.642
42.06000 6.026
42.08000 2.734
42.10000 0.718
42.12000 6.838
42.14000 6.848
42.16000 9.130
42.18000 5.115
42.20000 4.871
42.22000 4.970
42.24000 5.168
42.26000 8.480
42.28000 4.695
42.30000 -2.768
42.32000 0.134
42.34000 2.068
42.36000 3.300
42.38000 2.234
42.40000 1.440
42.42000 4.361
42.44000 4.425
42.46000 1.818
42.48000 2.373
42.50000 1.112
42.52000 0.087
42.54000 -2.573
42.56000 -3.506
42.58000 -2.967
42.60000 1.451
42.62000 0.962
42.64000 -1.251
42.66000 0.898
42.68000 2.305
42.70000 -0.020
42.72000 -2.207
42.74000 -0.335
42.76000 3.877
42.78000 1.384
42.80000 1.994
42.82000 1.379
42.84000 1.628
42.86000 -1.330
42.88000 -1.035
42.90000 3.544
42.92000 2.048
42.94000 -0.564
42.96000 -3.362
42.98000 -1.709
43.00000 -0.307
43.02000 -3.046
43.04000 0.311
43.06000 0.866
43.08000 0.508
43.10000 0.281
43.12000 3.608
43.14000 0.757
43.16000 -0.260
43.18000 0.368
43.20000 -0.105
43.22000 0.750
43.24000 -2.094
43.26000 -3.399
43.28000 -1.704
43.30000 1.304
43.32000 1.464
43.34000 4.726
43.36000 3.462
43.38000 0.424
43.40000 0.714
43.42000 -0.162
43.44000 -0.950
43.46000 1.588
43.48000 3.023
43.50000 0.906
43.52000 0.789
43.54000 -0.474
43.56000 -2.753
43.58000 1.004
43.60000 -1.414
43.62000 0.400
43.64000 1.783
43.66000 -1.928
43.68000 0.105
43.70000 1.962
43.72000 -0.510
43.74000 1.847
43.76000 1.851
43.78000 0.374
43.80000 0.749
43.82000 0.294
43.84000 -0.803
43.86000 3.562
43.88000 -1.439
43.90000 -2.234
43.92000 -0.265
43.94000 -1.692
43.96000 3.959
43.98000 2.103
44.00000 2.725
44.02000 3.414
44.04000 2.557
44.06000 1.570
44.08000 1.082
44.10000 1.139
44.12000 2.626
44.14000 2.869
44.16000 1.355
44.18000 4.207
44.20000 1.966
44.22000 -0.857
44.24000 -0.765
44.26000 -3.330
44.28000 0.248
44.30000 2.439
44.32000 3.299
44.34000 4.005
44.36000 3.382
44.38000 3.139
44.40000 0.696
44.42000 -0.550
44.44000 1.346
44.46000 0.690
44.48000 -0.304
44.50000 0.068
44.52000 -1.184
44.54000 2.014
44.56000 6.535
44.58000 6.596
44.60000 2.212
44.62000 4.040
44.64000 0.356
44.66000 0.958
44.68000 4.309
44.70000 3.652
44.72000 -1.791
44.74000 0.851
44.76000 3.268
44.78000 2.879
44.80000 2.694
44.82000 1.664
44.84000 7.420
44.86000 5.604
44.88000 7.211
44.90000 4.859
44.92000 8.318
44.94000 9.651
44.96000 2.891
44.98000 3.594
45.00000 6.854
45.02000 6.426
45.04000 7.524
45.06000 7.512
45.08000 10.269
45.10000 11.061
45.12000 11.065
45.14000 11.330
45.16000 9.976
45.18000 10.573
45.20000 9.652
45.22000 12.980
45.24000 17.061
45.26000 16.266
45.28000 13.298
45.30000 14.288
45.32000 13.356
45.34000 16.139
45.36000 18.392
45.38000 22.043
45.40000 16.624
45.42000 15.852
45.44000 18.614
45.46000 18.603
45.48000 21.704
45.50000 26.375
45.52000 22.223
45.54000 23.279
45.56000 27.462
45.58000 29.869
45.60000 25.956
45.62000 25.440
45.64000 27.816
45.66000 29.317
45.68000 34.355
45.70000 33.608
45.72000 34.736
45.74000 38.010
45.76000 35.559
45.78000 37.908
45.80000 42.105
45.82000 40.237
45.84000 41.072
45.86000 42.816
45.88000 44.329
45.90000 47.638
45.92000 53.778
45.94000 50.223
45.96000 53.512
45.98000 58.605
46.00000 58.961
46.02000 57.295
46.04000 58.620
46.06000 61.398
46.08000 63.414
46.10000 72.135
46.12000 70.720
46.14000 71.388
46.16000 75.647
46.18000 73.858
46.20000 73.043
46.22000 75.969
46.24000 77.822
46.26000 81.881
46.28000 83.275
46.30000 89.884
46.32000 87.404
46.34000 84.135
46.36000 90.340
46.38000 101.620
46.40000 107.303
46.42000 103.702
46.44000 106.760
46.46000 113.165
46.48000 115.676
46.50000 112.782
46.52000 113.708
46.54000 118.180
46.56000 122.990
46.58000 126.615
46.60000 130.575
46.62000 129.234
46.64000 126.216
46.66000 118.512
46.68000 121.429
46.70000 129.455
46.72000 129.538
46.74000 129.534
46.76000 126.919
46.78000 133.059
46.80000 134.921
46.82000 131.690
46.84000 127.922
46.86000 130.830
46.88000 135.329
46.90000 130.364
46.92000 137.431
46.94000 127.804
46.96000 124.285
46.98000 124.703
47.00000 120.830
47.02000 119.537
47.04000 114.646
47.06000 115.437
47.08000 111.961
47.10000 109.893
47.12000 109.567
47.14000 103.416
47.16000 96.284
47.18000 90.868
47.20000 91.573
47.22000 88.980
47.24000 90.302
47.26000 89.858
47.28000 86.795
47.30000 79.468
47.32000 73.443
47.34000 69.174
47.36000 78.474
47.38000 70.286
47.40000 67.123
47.42000 64.435
47.44000 63.592
47.46000 56.536
47.48000 47.227
47.50000 46.151
47.52000 50.308
47.54000 44.190
47.56000 37.924
47.58000 39.716
47.60000 32.410
47.62000 29.020
47.64000 29.561
47.66000 31.323
47.68000 28.427
47.70000 25.238
47.72000 26.588
47.74000 23.819
47.76000 26.668
47.78000 21.025
47.80000 20.846
47.82000 21.876
47.84000 23.757
47.86000 24.533
47.88000 17.140
47.90000 12.721
47.92000 14.992
47.94000 12.660
47.96000 9.011
47.98000 15.711
48.00000 10.899
48.02000 11.822
48.04000 12.003
48.06000 6.835
48.08000 9.790
48.10000 10.976
48.12000 7.258
48.14000 6.123
48.16000 5.179
48.18000 2.758
48.20000 5.505
48.22000 2.707
48.24000 5.432
48.26000 1.886
48.28000 2.519
48.30000 3.675
48.32000 4.083
48.34000 2.995
48.36000 8.367
48.38000 5.636
48.40000 0.510
48.42000 0.325
48.44000 1.211
48.46000 -2.192
48.48000 0.979
48.50000 1.707
48.52000 4.334
48.54000 4.116
48.56000 0.012
48.58000 -2.943
48.60000 0.794
48.62000 2.406
48.64000 1.074
48.66000 4.917
48.68000 1.851
48.70000 2.597
48.72000 1.055
48.74000 -2.662
48.76000 -0.016
48.78000 6.111
48.80000 4.421
48.82000 1.437
48.84000 0.446
48.86000 2.883
48.88000 0.259
48.90000 3.148
48.92000 2.488
48.94000 5.954
48.96000 4.119
48.98000 2.815
49.00000 3.517
49.02000 8.062
49.04000 7.580
49.06000 5.036
49.08000 10.004
49.10000 5.445
49.12000 2.945
49.14000 5.560
49.16000 1.705
49.18000 -2.840
49.20000 -1.451
49.22000 -0.247
49.24000 1.867
49.26000 6.067
49.28000 4.904
49.30000 6.826
49.32000 0.600
49.34000 3.776
49.36000 1.196
49.38000 1.772
49.40000 2.230
49.42000 3.467
49.44000 4.921
49.46000 1.485
49.48000 -0.882
49.50000 0.053
49.52000 -0.983
49.54000 6.696
49.56000 10.547
49.58000 3.832
49.60000 0.759
49.62000 -1.268
49.64000 0.856
49.66000 6.465
49.68000 0.974
49.70000 -2.170
49.72000 -2.256
49.74000 -1.260
49.76000 4.428
49.78000 6.064
49.80000 2.816
49.82000 2.253
49.84000 2.798
49.86000 2.368
49.88000 3.184
49.90000 8.270
49.92000 8.056
49.94000 1.526
49.96000 4.442
49.98000 5.208
50.00000 1.118
50.02000 -2.747
50.04000 1.763
50.06000 4.162
50.08000 4.739
50.10000 7.846
50.12000 4.330
50.14000 1.674
50.16000 5.757
50.18000 1.417
50.20000 -0.980
50.22000 -0.031
50.24000 3.231
50.26000 0.799
50.28000 2.734
50.30000 5.408
50.32000 -0.674
50.34000 1.936
50.36000 5.786
50.38000 6.070
50.40000 4.261
50.42000 1.104
50.44000 1.623
50.46000 1.747
50.48000 5.053
50.50000 6.503
50.52000 5.813
50.54000 4.880
50.56000 2.431
50.58000 3.700
50.60000 -0.295
50.62000 -2.670
50.64000 -0.315
50.66000 7.155
50.68000 2.611
50.70000 3.432
50.72000 7.107
50.74000 7.952
50.76000 5.163
50.78000 7.543
50.80000 9.415
50.82000 11.224
50.84000 5.696
50.86000 2.451
50.88000 2.675
50.90000 4.031
50.92000 7.631
50.94000 7.826
50.96000 0.382
50.98000 -2.163
51.00000 -2.669
51.02000 2.098
51.04000 0.960
51.06000 2.786
51.08000 0.356
51.10000 6.663
51.12000 7.237
51.14000 7.518
51.16000 0.348
51.18000 -2.669
51.20000 -0.136
51.22000 3.500
51.24000 2.083
51.26000 4.199
51.28000 4.622
51.30000 5.499
51.32000 1.610
51.34000 -1.600
51.36000 -0.950
51.38000 3.980
51.40000 5.342
51.42000 6.492
51.44000 7.793
51.46000 7.629
51.48000 1.306
51.50000 -0.033
51.52000 3.658
51.54000 6.083
51.56000 3.425
51.58000 4.600
51.60000 1.708
51.62000 -1.235
51.64000 3.465
51.66000 2.365
51.68000 0.768
51.70000 2.178
51.72000 1.847
51.74000 -0.282
51.76000 3.587
51.78000 0.705
51.80000 1.256
51.82000 -1.076
51.84000 -0.464
51.86000 -0.678
51.88000 0.142
51.90000 4.524
51.92000 5.231
51.94000 1.672
51.96000 -0.129
51.98000 -0.464
52.00000 -1.153
52.02000 -0.709
52.04000 2.551
52.06000 1.993
52.08000 1.249
52.10000 1.856
52.12000 0.348
52.14000 2.654
52.16000 1.543
52.18000 -0.850
52.20000 1.497
52.22000 4.704
52.24000 3.697
52.26000 7.510
52.28000 6.394
52.30000 5.654
52.32000 3.584
52.34000 0.855
52.36000 -1.389
52.38000 -0.601
52.40000 -1.766
52.42000 1.231
52.44000 -0.259
52.46000 2.701
52.48000 5.164
52.50000 2.846
52.52000 1.551
52.54000 0.367
52.56000 -2.627
52.58000 2.750
52.60000 5.784
52.62000 6.018
52.64000 3.899
52.66000 0.326
52.68000 -0.342
52.70000 0.247
52.72000 1.712
52.74000 0.505
52.76000 2.182
52.78000 1.886
52.80000 4.838
52.82000 5.279
52.84000 2.329
52.86000 2.400
52.88000 3.942
52.90000 6.637
52.92000 6.147
52.94000 4.914
52.96000 5.030
52.98000 3.810
53.00000 7.348
53.02000 4.229
53.04000 0.752
53.06000 4.158
53.08000 0.384
53.10000 2.671
53.12000 5.595
53.14000 5.269
53.16000 4.278
53.18000 3.450
53.20000 3.877
53.22000 -0.292
53.24000 1.117
53.26000 6.225
53.28000 4.984
53.30000 1.070
53.32000 -0.385
53.34000 5.732
53.36000 2.385
53.38000 7.496
53.40000 8.174
53.42000 5.340
53.44000 3.901
53.46000 4.508
53.48000 4.044
53.50000 1.943
53.52000 -0.472
53.54000 1.651
53.56000 3.341
53.58000 0.299
53.60000 -0.944
53.62000 0.046
53.64000 2.772
53.66000 3.288
53.68000 3.796
53.70000 4.080
53.72000 4.582
53.74000 6.375
53.76000 4.040
53.78000 4.799
53.80000 4.257
53.82000 5.333
53.84000 1.742
53.86000 1.846
53.88000 3.400
53.90000 2.074
53.92000 0.651
53.94000 -2.574
53.96000 2.121
53.98000 6.646
54.00000 5.929
54.02000 2.202
54.04000 0.697
54.06000 5.634
54.08000 6.730
54.10000 1.968
54.12000 -0.551
54.14000 2.899
54.16000 3.039
54.18000 4.214
54.20000 0.808
54.22000 -0.385
54.24000 -0.135
54.26000 0.391
54.28000 2.487
54.30000 4.415
54.32000 2.230
54.34000 0.174
54.36000 -1.836
54.38000 -0.711
54.40000 4.281
54.42000 2.545
54.44000 4.884
54.46000 4.303
54.48000 2.291
54.50000 2.874
54.52000 1.003
54.54000 2.078
54.56000 3.484
54.58000 1.797
54.60000 4.566
54.62000 5.056
54.64000 3.158
54.66000 3.813
54.68000 0.873
54.70000 3.288
54.72000 2.593
54.74000 2.189
54.76000 1.820
54.78000 0.297
54.80000 2.844
54.82000 2.438
54.84000 -0.749
54.86000 -1.104
54.88000 -0.457
54.90000 1.638
54.92000 2.274
54.94000 -0.328
54.96000 3.576
54.98000 8.041
55.00000 7.805
55.02000 2.117
55.04000 3.406
55.06000 3.506
55.08000 5.185
55.10000 5.323
55.12000 0.999
55.14000 1.742
55.16000 -1.756
55.18000 -1.260
55.20000 1.638
55.22000 0.406
55.24000 2.363
55.26000 3.212
55.28000 0.962
55.30000 4.777
55.32000 6.004
55.34000 4.674
55.36000 4.522
55.38000 1.326
55.40000 1.979
55.42000 0.764
55.44000 1.755
55.46000 3.238
55.48000 6.213
55.50000 5.956
55.52000 7.609
55.54000 7.038
55.56000 6.305
55.58000 3.228
55.60000 5.612
55.62000 8.323
55.64000 10.302
55.66000 6.135
55.68000 4.594
55.70000 2.328
55.72000 2.575
55.74000 5.848
55.76000 3.053
55.78000 3.274
55.80000 1.975
55.82000 3.356
55.84000 3.930
55.86000 2.148
55.88000 2.305
55.90000 2.849
55.92000 2.036
55.94000 -2.505
55.96000 0.004
55.98000 1.519
56.00000 1.863
56.02000 4.042
56.04000 4.558
56.06000 5.638
56.08000 7.730
56.10000 6.875
56.12000 5.501
56.14000 7.996
56.16000 5.670
56.18000 7.654
56.20000 5.444
56.22000 -0.167
56.24000 0.819
56.26000 0.584
56.28000 -0.053
56.30000 -1.129
56.32000 0.760
56.34000 -2.507
56.36000 -0.008
56.38000 5.089
56.40000 7.371
56.42000 5.283
56.44000 2.307
56.46000 5.118
56.48000 3.506
56.50000 2.150
56.52000 -0.114
56.54000 3.023
56.56000 7.674
56.58000 2.848
56.60000 4.576
56.62000 7.643
56.64000 8.366
56.66000 5.114
56.68000 3.174
56.70000 0.942
56.72000 2.147
56.74000 0.027
56.76000 4.543
56.78000 4.095
56.80000 3.117
56.82000 5.011
56.84000 2.778
56.86000 7.091
56.88000 6.079
56.90000 4.086
56.92000 6.093
56.94000 2.336
56.96000 5.109
56.98000 6.950
57.00000 7.198
57.02000 4.837
57.04000 1.642
57.06000 3.232
57.08000 -0.747
57.10000 2.474
57.12000 4.784
57.14000 2.280
57.16000 1.877
57.18000 -0.546
57.20000 -1.529
57.22000 0.037
57.24000 2.216
57.26000 2.828
57.28000 4.406
57.30000 6.512
57.32000 5.830
57.34000 5.237
57.36000 3.588
57.38000 6.439
57.40000 5.207
57.42000 2.206
57.44000 3.295
57.46000 3.674
57.48000 2.540
57.50000 0.521
57.52000 0.808
57.54000 2.301
57.56000 3.390
57.58000 2.787
57.60000 3.482
57.62000 4.068
57.64000 2.935
57.66000 3.997
57.68000 3.033
57.70000 3.665
57.72000 1.686
57.74000 -2.451
57.76000 2.002
57.78000 4.502
57.80000 5.628
57.82000 6.799
57.84000 3.694
57.86000 7.085
57.88000 5.859
57.90000 4.742
57.92000 2.179
57.94000 -0.028
57.96000 1.596
57.98000 -2.460
58.00000 1.400
58.02000 3.589
58.04000 3.030
58.06000 0.020
58.08000 2.486
58.10000 5.226
58.12000 5.377
58.14000 1.484
58.16000 1.274
58.18000 0.688
58.20000 5.847
58.22000 5.153
58.24000 1.282
58.26000 0.580
58.28000 2.962
58.30000 0.894
58.32000 2.508
58.34000 4.812
58.36000 2.330
58.38000 2.176
58.40000 5.462
58.42000 3.419
58.44000 2.043
58.46000 1.675
58.48000 4.840
58.50000 1.796
58.52000 -0.106
58.54000 0.295
58.56000 0.227
58.58000 0.899
58.60000 -0.211
58.62000 1.446
58.64000 1.845
58.66000 4.693
58.68000 3.353
58.70000 1.426
58.72000 0.349
58.74000 -0.360
58.76000 0.687
58.78000 2.314
58.80000 2.842
58.82000 5.471
58.84000 2.978
58.86000 2.175
58.88000 2.894
58.90000 3.499
58.92000 4.839
58.94000 2.205
58.96000 1.458
58.98000 0.361
59.00000 1.749
59.02000 -1.578
59.04000 0.678
59.06000 -1.132
59.08000 2.380
59.10000 2.085
59.12000 2.072
59.14000 1.363
59.16000 3.404
59.18000 -1.106
59.20000 2.573
59.22000 5.804
59.24000 5.602
59.26000 2.152
59.28000 1.836
59.30000 2.004
59.32000 2.797
59.34000 3.437
59.36000 6.312
59.38000 5.717
59.40000 2.970
59.42000 0.839
59.44000 0.742
59.46000 -1.166
59.48000 1.232
59.50000 -0.472
59.52000 3.072
59.54000 1.850
59.56000 0.002
59.58000 0.194
59.60000 0.625
59.62000 -1.041
59.64000 -1.411
59.66000 0.869
59.68000 3.832
59.70000 5.053
59.72000 6.149
59.74000 2.786
59.76000 4.393
59.78000 5.770
59.80000 4.183
59.82000 7.979
59.84000 4.514
59.86000 6.496
59.88000 9.500
59.90000 5.384
59.92000 -0.400
59.94000 0.907
59.96000 2.594
59.98000 -1.180
60.00000 0.352
60.02000 -2.394
60.04000 -1.358
60.06000 1.925
60.08000 2.598
60.10000 1.973
60.12000 4.353
60.14000 1.145
60.16000 5.009
60.18000 2.731
60.20000 3.742
60.22000 6.836
60.24000 2.897
60.26000 1.644
60.28000 2.485
60.30000 1.269
60.32000 -0.748
60.34000 1.909
60.36000 2.267
60.38000 4.059
60.40000 -0.054
60.42000 0.610
60.44000 -0.495
60.46000 1.039
60.48000 5.413
60.50000 2.960
60.52000 3.247
60.54000 2.381
60.56000 2.752
60.58000 1.004
60.60000 3.362
60.62000 2.680
60.64000 3.217
60.66000 2.737
60.68000 1.231
60.70000 -0.444
60.72000 3.282
60.74000 7.437
60.76000 3.293
60.78000 -1.975
60.80000 -1.795
60.82000 0.867
60.84000 0.272
60.86000 1.032
60.88000 -0.647
60.90000 1.752
60.92000 2.524
60.94000 2.350
60.96000 3.874
60.98000 2.449
61.00000 3.576
61.02000 1.217
61.04000 3.462
61.06000 3.429
61.08000 1.757
61.10000 1.526
61.12000 -0.123
61.14000 4.247
61.16000 -0.269
61.18000 0.786
61.20000 2.340
61.22000 2.983
61.24000 3.425
61.26000 3.555
61.28000 1.551
61.30000 -1.752
61.32000 -0.370
61.34000 -2.387
61.36000 -0.249
61.38000 4.066
61.40000 3.306
61.42000 2.379
61.44000 2.707
61.46000 2.263
61.48000 0.933
61.50000 2.638
61.52000 2.548
61.54000 2.837
61.56000 0.651
61.58000 2.276
61.60000 1.567
61.62000 0.329
61.64000 3.766
61.66000 4.136
61.68000 0.899
61.70000 -0.387
61.72000 0.030
61.74000 1.044
61.76000 3.902
61.78000 1.778
61.80000 1.450
61.82000 2.926
61.84000 -2.365
61.86000 -2.376
61.88000 0.613
61.90000 0.143
61.92000 0.209
61.94000 3.376
61.96000 1.334
61.98000 2.929
62.00000 3.621
62.02000 3.795
62.04000 4.274
62.06000 5.156
62.08000 3.368
62.10000 2.972
62.12000 3.792
62.14000 5.043
62.16000 4.865
62.18000 1.913
62.20000 0.752
62.22000 -0.101
62.24000 3.073
62.26000 3.343
62.28000 3.869
62.30000 0.684
62.32000 2.817
62.34000 1.905
62.36000 3.173
62.38000 0.118
62.40000 1.892
62.42000 1.411
62.44000 0.794
62.46000 1.359
62.48000 3.650
62.50000 1.091
62.52000 7.509
62.54000 7.225
62.56000 2.515
62.58000 2.440
62.60000 3.834
62.62000 -0.010
62.64000 1.363
62.66000 0.837
62.68000 0.973
62.70000 0.980
62.72000 5.135
62.74000 2.233
62.76000 -2.360
62.78000 -0.772
62.80000 2.346
62.82000 -0.187
62.84000 -1.219
62.86000 -2.357
62.88000 -1.762
62.90000 1.035
62.92000 1.177
62.94000 4.004
62.96000 3.129
62.98000 2.640
63.00000 0.607
63.02000 2.127
63.04000 2.547
63.06000 0.488
63.08000 1.459
63.10000 1.904
63.12000 4.626
63.14000 2.478
63.16000 0.734
63.18000 0.700
63.20000 0.882
63.22000 -0.638
63.24000 1.364
63.26000 1.019
63.28000 0.676
63.30000 0.348
63.32000 2.622
63.34000 0.977
63.36000 1.781
63.38000 1.156
63.40000 0.510
63.42000 -0.217
63.44000 0.883
63.46000 4.143
63.48000 2.780
63.50000 4.954
63.52000 3.508
63.54000 2.506
63.56000 3.283
63.58000 1.360
63.60000 0.811
63.62000 4.456
63.64000 1.225
63.66000 -2.368
63.68000 -0.910
63.70000 1.561
63.72000 0.838
63.74000 2.339
63.76000 2.482
63.78000 2.526
63.80000 2.622
63.82000 1.073
63.84000 -0.125
63.86000 -2.074
63.88000 -0.881
63.90000 2.045
63.92000 0.122
63.94000 -0.350
63.96000 0.134
63.98000 1.278
64.00000 1.802
64.02000 3.568
64.04000 5.214
64.06000 2.056
64.08000 1.732
64.10000 4.697
64.12000 3.738
64.14000 2.515
64.16000 1.442
64.18000 3.070
64.20000 4.160
64.22000 5.944
64.24000 3.713
64.26000 -1.119
64.28000 0.267
64.30000 2.539
64.32000 4.631
64.34000 -1.408
64.36000 -1.927
64.38000 -1.226
64.40000 -1.240
64.42000 -1.112
64.44000 4.076
64.46000 7.493
64.48000 7.282
64.50000 2.209
64.52000 0.369
64.54000 2.108
64.56000 3.163
64.58000 3.488
64.60000 -2.376
64.62000 1.686
64.64000 2.526
64.66000 4.421
64.68000 4.542
64.70000 0.733
64.72000 2.611
64.74000 2.083
64.76000 3.281
64.78000 0.286
64.80000 -0.389
64.82000 0.102
64.84000 2.241
64.86000 2.485
64.88000 0.714
64.90000 -0.392
64.92000 0.199
64.94000 -0.183
64.96000 1.786
64.98000 2.557
65.00000 -0.377
65.02000 -1.419
65.04000 -0.647
65.06000 0.604
65.08000 -0.893
65.10000 -0.740
65.12000 -1.752
65.14000 0.217
65.16000 2.584
65.18000 2.709
65.20000 0.432
65.22000 0.092
65.24000 -1.071
65.26000 1.212
65.28000 -0.985
65.30000 0.641
65.32000 -0.642
65.34000 -0.864
65.36000 0.612
65.38000 0.453
65.40000 1.146
65.42000 0.658
65.44000 -0.446
65.46000 2.817
65.48000 1.906
65.50000 0.017
65.52000 -2.423
65.54000 -0.977
65.56000 1.273
65.58000 1.666
65.60000 1.480
65.62000 1.030
65.64000 1.251
65.66000 -1.851
65.68000 -0.720
65.70000 -1.284
65.72000 -1.516
65.74000 -0.175
65.76000 -0.609
65.78000 0.427
65.80000 -0.146
65.82000 -2.457
65.84000 -1.721
65.86000 -2.424
65.88000 -1.092
65.90000 -0.147
65.92000 0.721
65.94000 -0.310
65.96000 2.926
65.98000 -0.215
66.00000 -1.760
66.02000 -0.397
66.04000 0.539
66.06000 -0.678
66.08000 0.122
66.10000 -1.271
66.12000 0.112
66.14000 1.691
66.16000 -0.423
66.18000 -1.736
66.20000 -2.112
66.22000 -1.541
66.24000 1.892
66.26000 3.630
66.28000 2.803
66.30000 2.213
66.32000 3.532
66.34000 -0.092
66.36000 -2.505
66.38000 1.610
66.40000 3.643
66.42000 -0.105
66.44000 -1.295
66.46000 -0.589
66.48000 0.824
66.50000 1.419
66.52000 -0.541
66.54000 -1.074
66.56000 1.763
66.58000 1.547
66.60000 -2.025
66.62000 0.052
66.64000 1.747
66.66000 -0.651
66.68000 -0.662
66.70000 1.227
66.72000 3.580
66.74000 3.197
66.76000 2.867
66.78000 2.612
66.80000 2.721
66.82000 4.523
66.84000 1.793
66.86000 4.436
66.88000 1.503
66.90000 1.768
66.92000 3.564
66.94000 1.302
66.96000 2.063
66.98000 0.734
67.00000 0.613
67.02000 2.626
67.04000 2.076
67.06000 2.652
67.08000 6.996
67.10000 5.869
67.12000 6.106
67.14000 7.452
67.16000 3.021
67.18000 3.626
67.20000 8.729
67.22000 5.973
67.24000 2.397
67.26000 6.344
67.28000 7.376
67.30000 7.436
67.32000 10.141
67.34000 10.016
67.36000 9.068
67.38000 8.205
67.40000 5.865
67.42000 9.498
67.44000 9.396
67.46000 8.738
67.48000 13.619
67.50000 10.547
67.52000 7.849
67.54000 7.174
67.56000 10.128
67.58000 11.279
67.60000 16.797
67.62000 17.085
67.64000 13.738
67.66000 15.802
67.68000 15.217
67.70000 15.097
67.72000 16.985
67.74000 16.324
67.76000 20.306
67.78000 16.625
67.80000 13.829
67.82000 16.962
67.84000 16.387
67.86000 18.241
67.88000 20.141
67.90000 23.394
67.92000 22.968
67.94000 24.876
67.96000 25.552
67.98000 25.995
68.00000 25.618
68.02000 23.646
68.04000 22.873
68.06000 24.033
68.08000 26.293
68.10000 22.878
68.12000 22.131
68.14000 22.227
68.16000 24.260
68.18000 28.420
68.20000 28.801
68.22000 30.425
68.24000 29.764
68.26000 32.188
68.28000 29.778
68.30000 27.425
68.32000 26.465
68.34000 26.870
68.36000 27.693
68.38000 26.681
68.40000 25.810
68.42000 30.046
68.44000 31.265
68.46000 28.131
68.48000 31.678
68.50000 28.531
68.52000 28.357
68.54000 24.554
68.56000 23.927
68.58000 23.357
68.60000 24.866
68.62000 25.473
68.64000 24.529
68.66000 20.769
68.68000 21.520
68.70000 26.405
68.72000 23.878
68.74000 22.139
68.76000 21.770
68.78000 19.932
68.80000 16.276
68.82000 16.228
68.84000 18.782
68.86000 16.161
68.88000 14.598
68.90000 13.685
68.92000 13.928
68.94000 14.320
68.96000 15.621
68.98000 13.431
69.00000 12.490
69.02000 12.321
69.04000 9.323
69.06000 10.452
69.08000 13.837
69.10000 12.623
69.12000 8.214
69.14000 9.025
69.16000 9.771
69.18000 8.386
69.20000 7.709
69.22000 8.873
69.24000 7.958
69.26000 8.629
69.28000 6.353
69.30000 4.534
69.32000 3.567
69.34000 6.355
69.36000 4.019
69.38000 2.555
69.40000 2.568
69.42000 5.197
69.44000 4.255
69.46000 4.270
69.48000 3.445
69.50000 4.339
69.52000 2.361
69.54000 5.968
69.56000 6.998
69.58000 5.210
69.60000 4.263
69.62000 4.635
69.64000 2.147
69.66000 2.976
69.68000 3.758
69.70000 5.460
69.72000 5.909
69.74000 3.824
69.76000 3.947
69.78000 4.867
69.80000 4.451
69.82000 3.449
69.84000 4.187
69.86000 9.418
69.88000 7.000
69.90000 5.410
69.92000 5.796
69.94000 2.666
69.96000 2.135
69.98000 2.854
70.00000 1.990
70.02000 -2.290
70.04000 1.286
70.06000 3.424
70.08000 4.167
70.10000 6.357
70.12000 5.278
70.14000 5.296
70.16000 5.869
70.18000 3.300
70.20000 5.987
70.22000 3.470
70.24000 3.746
70.26000 2.540
70.28000 1.536
70.30000 0.751
70.32000 -0.010
70.34000 2.581
70.36000 3.604
70.38000 3.304
70.40000 2.656
70.42000 -0.597
70.44000 1.534
70.46000 6.261
70.48000 6.215
70.50000 4.440
70.52000 4.026
70.54000 5.884
70.56000 4.826
70.58000 -0.713
70.60000 -1.619
70.62000 0.148
70.64000 3.438
70.66000 2.411
70.68000 -0.671
70.70000 0.530
70.72000 1.155
70.74000 0.161
70.76000 0.582
70.78000 4.060
70.80000 2.670
70.82000 3.448
70.84000 1.363
70.86000 2.027
70.88000 4.593
70.90000 4.186
70.92000 3.483
70.94000 2.825
70.96000 1.399
70.98000 2.047
71.00000 0.459
71.02000 3.125
71.04000 4.478
71.06000 3.855
71.08000 5.025
71.10000 3.254
71.12000 2.096
71.14000 0.011
71.16000 1.948
71.18000 2.820
71.20000 0.119
71.22000 0.137
71.24000 2.249
71.26000 5.275
71.28000 2.920
71.30000 3.089
71.32000 0.184
71.34000 2.740
71.36000 0.202
71.38000 -0.421
71.40000 0.126
71.42000 3.642
71.44000 3.067
71.46000 0.851
71.48000 3.541
71.50000 2.438
71.52000 3.979
71.54000 6.061
71.56000 6.950
71.58000 2.291
71.60000 3.132
71.62000 6.655
71.64000 5.287
71.66000 1.780
71.68000 -2.213
71.70000 0.564
71.72000 4.298
71.74000 2.806
71.76000 2.833
71.78000 4.563
71.80000 5.347
71.82000 3.886
71.84000 2.241
71.86000 5.798
71.88000 3.561
71.90000 0.512
71.92000 2.098
71.94000 4.116
71.96000 6.399
71.98000 8.209
72.00000 10.312
72.02000 5.726
72.04000 3.476
72.06000 -0.587
72.08000 -2.221
72.10000 -0.331
72.12000 1.016
72.14000 -1.057
72.16000 -0.430
72.18000 -1.599
72.20000 2.044
72.22000 1.795
72.24000 2.821
72.26000 3.253
72.28000 1.005
72.30000 -1.216
72.32000 1.355
72.34000 1.669
72.36000 6.922
72.38000 4.847
72.40000 5.161
72.42000 1.081
72.44000 1.759
72.46000 -0.317
72.48000 1.702
72.50000 2.134
72.52000 0.025
72.54000 -0.848
72.56000 1.010
72.58000 -0.307
72.60000 -0.023
72.62000 1.174
72.64000 -2.224
72.66000 5.187
72.68000 2.879
72.70000 -2.224
72.72000 -0.647
72.74000 -0.534
72.76000 2.032
72.78000 0.360
72.80000 1.871
72.82000 6.460
72.84000 1.117
72.86000 1.975
72.88000 4.959
72.90000 3.251
72.92000 -0.093
72.94000 3.585
72.96000 0.057
72.98000 -0.592
73.00000 -1.444
73.02000 2.593
73.04000 0.878
73.06000 5.063
73.08000 5.374
73.10000 4.469
73.12000 4.072
73.14000 1.661
73.16000 -0.098
73.18000 1.881
73.20000 2.252
73.22000 5.438
73.24000 3.852
73.26000 2.036
73.28000 1.032
73.30000 0.822
73.32000 0.781
73.34000 2.432
73.36000 0.583
73.38000 4.092
73.40000 5.694
73.42000 5.164
73.44000 5.703
73.46000 2.058
73.48000 0.875
73.50000 2.740
73.52000 0.717
73.54000 0.922
73.56000 4.224
73.58000 3.433
73.60000 3.418
73.62000 2.547
73.64000 4.358
73.66000 5.593
73.68000 4.388
73.70000 0.258
73.72000 2.994
73.74000 7.275
73.76000 4.331
73.78000 5.668
73.80000 6.385
73.82000 5.771
73.84000 1.880
73.86000 -2.188
73.88000 -1.824
73.90000 0.539
73.92000 4.872
73.94000 0.823
73.96000 2.576
73.98000 3.868
74.00000 2.077
74.02000 -1.104
74.04000 1.199
74.06000 2.479
74.08000 1.040
74.10000 2.662
74.12000 2.199
74.14000 0.608
74.16000 3.312
74.18000 3.420
74.20000 4.961
74.22000 2.154
74.24000 -0.662
74.26000 -1.910
74.28000 1.160
74.30000 1.210
74.32000 1.727
74.34000 3.157
74.36000 5.804
74.38000 5.143
74.40000 0.103
74.42000 -0.565
74.44000 1.084
74.46000 6.082
74.48000 5.995
74.50000 2.590
74.52000 3.902
74.54000 -0.057
74.56000 -0.831
74.58000 2.085
74.60000 1.537
74.62000 0.946
74.64000 2.763
74.66000 -0.972
74.68000 0.718
74.70000 0.895
74.72000 1.890
74.74000 3.892
74.76000 4.012
74.78000 1.818
74.80000 2.012
74.82000 -0.815
74.84000 -2.199
74.86000 3.392
74.88000 4.475
74.90000 0.963
74.92000 -1.798
74.94000 -0.785
74.96000 -1.787
74.98000 -1.319
75.00000 0.658
75.02000 6.473
75.04000 5.549
75.06000 3.312
75.08000 5.644
75.10000 1.714
75.12000 -1.732
75.14000 -1.644
75.16000 0.437
75.18000 2.308
75.20000 8.129
75.22000 2.967
75.24000 2.731
75.26000 3.933
75.28000 7.819
75.30000 5.075
75.32000 2.824
75.34000 5.576
75.36000 3.433
75.38000 -2.200
75.40000 -0.003
75.42000 2.257
75.44000 -0.795
75.46000 -0.414
75.48000 0.405
75.50000 5.269
75.52000 4.521
75.54000 3.113
75.56000 2.220
75.58000 0.129
75.60000 1.073
75.62000 -1.434
75.64000 -1.650
75.66000 0.359
75.68000 2.621
75.70000 1.968
75.72000 5.000
75.74000 6.329
75.76000 1.270
75.78000 2.758
75.80000 1.127
75.82000 -1.795
75.84000 -2.197
75.86000 1.319
75.88000 2.011
75.90000 3.274
75.92000 8.756
75.94000 7.535
75.96000 4.883
75.98000 2.854
76.00000 2.816
76.02000 1.093
76.04000 2.590
76.06000 3.841
76.08000 3.908
76.10000 3.384
76.12000 0.638
76.14000 0.905
76.16000 -1.079
76.18000 5.524
76.20000 3.413
76.22000 1.904
76.24000 3.579
76.26000 5.386
76.28000 4.146
76.30000 5.510
76.32000 4.282
76.34000 1.730
76.36000 4.773
76.38000 4.715
76.40000 2.406
76.42000 2.199
76.44000 1.872
76.46000 2.260
76.48000 3.691
76.50000 2.156
76.52000 2.322
76.54000 1.675
76.56000 4.259
76.58000 5.318
76.60000 5.789
76.62000 3.011
76.64000 2.550
76.66000 3.495
76.68000 3.200
76.70000 0.697
76.72000 5.351
76.74000 1.163
76.76000 2.764
76.78000 1.093
76.80000 0.742
76.82000 5.968
76.84000 4.432
76.86000 -0.382
76.88000 -2.228
76.90000 0.708
76.92000 -1.149
76.94000 0.623
76.96000 2.634
76.98000 4.744
77.00000 6.244
77.02000 1.314
77.04000 4.662
77.06000 5.144
77.08000 0.889
77.10000 -1.300
77.12000 0.239
77.14000 3.066
77.16000 8.295
77.18000 9.640
77.20000 5.060
77.22000 -2.229
77.24000 -0.790
77.26000 5.018
77.28000 4.050
77.30000 4.178
77.32000 7.458
77.34000 5.838
77.36000 3.437
77.38000 5.349
77.40000 2.572
77.42000 6.259
77.44000 4.846
77.46000 6.879
77.48000 7.170
77.50000 5.789
77.52000 0.048
77.54000 0.909
77.56000 1.078
77.58000 0.507
77.60000 1.733
77.62000 3.336
77.64000 2.892
77.66000 2.306
77.68000 2.112
77.70000 4.520
77.72000 3.334
77.74000 1.656
77.76000 0.336
77.78000 2.711
77.80000 5.579
77.82000 4.452
77.84000 6.213
77.86000 7.054
77.88000 5.110
77.90000 2.180
77.92000 4.437
77.94000 7.502
77.96000 4.150
77.98000 1.878
78.00000 7.916
78.02000 8.155
78.04000 0.498
78.06000 2.988
78.08000 1.849
78.10000 3.717
78.12000 8.449
78.14000 3.281
78.16000 -2.183
78.18000 3.705
78.20000 2.385
78.22000 1.534
78.24000 2.452
78.26000 7.091
78.28000 6.366
78.30000 3.832
78.32000 -0.855
78.34000 4.485
78.36000 3.453
78.38000 3.859
78.40000 4.081
78.42000 4.145
78.44000 3.755
78.46000 2.341
78.48000 4.376
78.50000 7.700
78.52000 4.069
78.54000 3.696
78.56000 4.094
78.58000 1.751
78.60000 2.779
78.62000 3.579
78.64000 5.220
78.66000 2.894
78.68000 2.880
78.70000 0.249
78.72000 2.263
78.74000 2.055
78.76000 4.040
78.78000 3.378
78.80000 3.149
78.82000 3.823
78.84000 6.619
78.86000 4.177
78.88000 3.172
78.90000 5.964
78.92000 6.307
78.94000 6.167
78.96000 2.850
78.98000 3.465
79.00000 3.530
79.02000 1.659
79.04000 3.020
79.06000 3.577
79.08000 4.918
79.10000 4.657
79.12000 6.335
79.14000 3.493
79.16000 2.935
79.18000 5.235
79.20000 5.885
79.22000 1.914
79.24000 0.689
79.26000 1.018
79.28000 2.463
79.30000 4.542
79.32000 3.567
79.34000 5.224
79.36000 2.823
79.38000 4.699
79.40000 4.571
79.42000 3.155
79.44000 5.120
79.46000 2.855
79.48000 4.887
79.50000 1.933
79.52000 4.454
79.54000 3.154
79.56000 1.793
79.58000 2.964
79.60000 3.297
79.62000 3.152
79.64000 2.987
79.66000 2.603
79.68000 1.280
79.70000 8.154
79.72000 6.120
79.74000 -2.280
79.76000 1.874
79.78000 4.050
79.80000 3.942
79.82000 5.546
79.84000 5.734
79.86000 5.131
79.88000 3.730
79.90000 3.494
79.92000 -1.295
79.94000 -0.461
79.96000 -0.094
79.98000 2.632
80.00000 0.685
80.02000 2.143
80.04000 2.131
80.06000 6.256
80.08000 3.726
80.10000 2.500
80.12000 1.681
80.14000 1.642
80.16000 5.545
80.18000 5.522
80.20000 4.182
80.22000 3.414
80.24000 4.709
80.26000 5.752
80.28000 4.433
80.30000 3.452
80.32000 2.280
80.34000 2.348
80.36000 1.352
80.38000 4.622
80.40000 4.957
80.42000 2.303
80.44000 1.608
80.46000 -0.156
80.48000 0.362
80.50000 1.847
80.52000 7.988
80.54000 7.375
80.56000 6.028
80.58000 1.392
80.60000 1.364
80.62000 1.105
80.64000 3.144
80.66000 3.645
80.68000 2.090
80.70000 5.573
80.72000 1.294
80.74000 1.748
80.76000 2.190
80.78000 -0.122
80.80000 1.100
80.82000 1.970
80.84000 2.326
80.86000 3.901
80.88000 6.028
80.90000 7.393
80.92000 5.306
80.94000 5.080
80.96000 4.750
80.98000 3.971
81.00000 7.862
81.02000 7.390
81.04000 8.077
81.06000 6.029
81.08000 7.955
81.10000 5.081
81.12000 6.572
81.14000 9.152
81.16000 12.920
81.18000 15.440
81.20000 12.208
81.22000 12.582
81.24000 9.979
81.26000 11.907
81.28000 11.208
81.30000 12.660
81.32000 9.445
81.34000 8.622
81.36000 11.976
81.38000 13.918
81.40000 11.263
81.42000 15.356
81.44000 14.851
81.46000 10.181
81.48000 11.292
81.50000 18.870
81.52000 17.284
81.54000 17.488
81.56000 12.300
81.58000 11.985
81.60000 15.689
81.62000 17.748
81.64000 20.357
81.66000 20.356
81.68000 18.941
81.70000 13.489
81.72000 14.935
81.74000 17.042
81.76000 20.244
81.78000 17.806
81.80000 19.723
81.82000 27.889
81.84000 26.618
81.86000 21.406
81.88000 24.320
81.90000 23.418
81.92000 26.001
81.94000 26.162
81.96000 29.433
81.98000 30.514
82.00000 28.706
82.02000 24.194
82.04000 26.495
82.06000 29.387
82.08000 32.298
82.10000 32.346
82.12000 28.511
82.14000 30.209
82.16000 32.562
82.18000 31.449
82.20000 32.985
82.22000 35.589
82.24000 36.251
82.26000 35.590
82.28000 32.662
82.30000 32.399
82.32000 35.605
82.34000 35.285
82.36000 32.978
82.38000 33.041
82.40000 34.721
82.42000 33.773
82.44000 32.423
82.46000 32.728
82.48000 31.370
82.50000 29.091
82.52000 27.784
82.54000 35.794
82.56000 33.722
82.58000 35.253
82.60000 36.570
82.62000 35.424
82.64000 31.868
82.66000 29.536
82.68000 32.549
82.70000 30.781
82.72000 28.497
82.74000 27.474
82.76000 28.357
82.78000 22.712
82.80000 24.269
82.82000 27.042
82.84000 28.718
82.86000 22.787
82.88000 23.478
82.90000 23.692
82.92000 20.586
82.94000 23.912
82.96000 24.498
82.98000 22.019
83.00000 18.338
83.02000 16.356
83.04000 11.720
83.06000 17.820
83.08000 22.425
83.10000 22.202
83.12000 17.700
83.14000 16.444
83.16000 17.291
83.18000 17.366
83.20000 15.140
83.22000 17.212
83.24000 14.560
83.26000 10.745
83.28000 10.979
83.30000 10.001
83.32000 11.187
83.34000 8.823
83.36000 15.716
83.38000 14.870
83.40000 15.708
83.42000 14.637
83.44000 8.277
83.46000 8.312
83.48000 8.914
83.50000 5.428
83.52000 0.095
83.54000 6.263
83.56000 10.694
83.58000 12.360
83.60000 8.948
83.62000 3.158
83.64000 2.589
83.66000 3.253
83.68000 8.365
83.70000 7.339
83.72000 3.492
83.74000 6.190
83.76000 3.807
83.78000 3.063
83.80000 2.571
83.82000 0.969
83.84000 -0.998
83.86000 4.688
83.88000 2.994
83.90000 5.465
83.92000 3.642
83.94000 2.306
83.96000 5.324
83.98000 7.050
84.00000 5.522
84.02000 5.180
84.04000 6.305
84.06000 0.340
84.08000 -0.274
84.10000 0.392
84.12000 1.296
84.14000 3.370
84.16000 5.864
84.18000 0.345
84.20000 -0.379
84.22000 -1.441
84.24000 0.147
84.26000 -1.456
84.28000 1.976
84.30000 2.384
84.32000 2.020
84.34000 0.530
84.36000 6.666
84.38000 3.967
84.40000 2.742
84.42000 2.200
84.44000 2.247
84.46000 2.622
84.48000 2.829
84.50000 -0.343
84.52000 1.259
84.54000 2.686
84.56000 1.824
84.58000 4.590
84.60000 3.966
84.62000 1.606
84.64000 1.090
84.66000 3.106
84.68000 0.931
84.70000 -2.304
84.72000 -0.958
84.74000 5.230
84.76000 3.425
84.78000 1.668
84.80000 6.256
84.82000 2.387
84.84000 2.909
84.86000 1.870
84.88000 2.691
84.90000 7.681
84.92000 5.738
84.94000 5.838
84.96000 2.179
84.98000 -0.940
85.00000 0.309
85.02000 5.172
85.04000 6.857
85.06000 5.927
85.08000 3.544
85.10000 5.588
85.12000 3.174
85.14000 1.355
85.16000 7.253
85.18000 4.689
85.20000 7.589
85.22000 2.802
85.24000 -0.828
85.26000 2.682
85.28000 2.017
85.30000 1.191
85.32000 -0.145
85.34000 0.181
85.36000 -0.481
85.38000 1.822
85.40000 4.115
85.42000 6.533
85.44000 1.699
85.46000 2.883
85.48000 2.037
85.50000 0.420
85.52000 1.624
85.54000 6.382
85.56000 7.648
85.58000 8.173
85.60000 8.531
85.62000 1.224
85.64000 6.003
85.66000 4.342
85.68000 1.120
85.70000 2.503
85.72000 2.766
85.74000 6.695
85.76000 8.562
85.78000 6.699
85.80000 10.957
85.82000 9.075
85.84000 7.654
85.86000 14.319
85.88000 15.728
85.90000 14.067
85.92000 15.032
85.94000 10.470
85.96000 9.816
85.98000 15.345
86.00000 15.243
86.02000 11.080
86.04000 6.963
86.06000 10.820
86.08000 15.426
86.10000 13.696
86.12000 14.900
86.14000 17.566
86.16000 18.328
86.18000 16.393
86.20000 18.860
86.22000 17.609
86.24000 18.775
86.26000 17.628
86.28000 16.507
86.30000 18.080
86.32000 20.977
86.34000 21.734
86.36000 21.113
86.38000 19.056
86.40000 24.954
86.42000 24.890
86.44000 23.078
86.46000 22.867
86.48000 19.810
86.50000 24.572
86.52000 25.956
86.54000 24.947
86.56000 20.927
86.58000 20.899
86.60000 25.432
86.62000 25.997
86.64000 25.492
86.66000 21.714
86.68000 23.637
86.70000 20.849
86.72000 21.412
86.74000 19.148
86.76000 18.403
86.78000 20.124
86.80000 23.635
86.82000 22.909
86.84000 17.091
86.86000 21.606
86.88000 22.307
86.90000 22.232
86.92000 26.033
86.94000 24.274
86.96000 18.224
86.98000 16.292
87.00000 18.707
87.02000 16.883
87.04000 19.260
87.06000 16.230
87.08000 17.715
87.10000 13.967
87.12000 15.012
87.14000 18.617
87.16000 15.369
87.18000 15.606
87.20000 14.179
87.22000 12.832
87.24000 13.272
87.26000 15.538
87.28000 15.844
87.30000 13.831
87.32000 11.078
87.34000 5.554
87.36000 6.617
87.38000 9.099
87.40000 6.655
87.42000 7.678
87.44000 7.747
87.46000 9.360
87.48000 12.956
87.50000 8.256
87.52000 6.900
87.54000 11.164
87.56000 12.823
87.58000 10.067
87.60000 11.299
87.62000 8.337
87.64000 6.786
87.66000 10.202
87.68000 6.821
87.70000 5.655
87.72000 5.443
87.74000 5.499
87.76000 5.452
87.78000 6.799
87.80000 7.110
87.82000 6.008
87.84000 1.356
87.86000 -2.215
87.88000 2.048
87.90000 -2.142
87.92000 4.737
87.94000 6.440
87.96000 4.575
87.98000 -0.069
88.00000 -0.505
88.02000 3.167
88.04000 3.794
88.06000 7.563
88.08000 3.698
88.10000 1.065
88.12000 1.108
88.14000 6.188
88.16000 2.838
88.18000 0.210
88.20000 0.042
88.22000 1.748
88.24000 6.406
88.26000 3.422
88.28000 5.740
88.30000 3.946
88.32000 1.949
88.34000 -0.885
88.36000 -2.139
88.38000 0.096
88.40000 0.861
88.42000 5.607
88.44000 6.069
88.46000 2.658
88.48000 5.473
88.50000 7.524
88.52000 5.137
88.54000 4.798
88.56000 5.556
88.58000 3.989
88.60000 -0.003
88.62000 3.273
88.64000 0.461
88.66000 3.783
88.68000 1.506
88.70000 1.652
88.72000 2.841
88.74000 5.161
88.76000 3.385
88.78000 0.581
88.80000 3.856
88.82000 0.270
88.84000 0.342
88.86000 2.573
88.88000 5.341
88.90000 4.248
88.92000 0.487
88.94000 -2.036
88.96000 -2.096
88.98000 -0.175
89.00000 1.210
89.02000 2.173
89.04000 5.700
89.06000 7.095
89.08000 2.352
89.10000 -1.224
89.12000 -0.703
89.14000 -0.671
89.16000 3.050
89.18000 5.322
89.20000 6.034
89.22000 7.462
89.24000 5.925
89.26000 5.566
89.28000 5.897
89.30000 7.378
89.32000 6.050
89.34000 9.089
89.36000 8.106
89.38000 4.258
89.40000 5.174
89.42000 3.886
89.44000 7.153
89.46000 5.128
89.48000 0.857
89.50000 1.823
89.52000 6.515
89.54000 7.425
89.56000 9.018
89.58000 1.769
89.60000 -2.051
89.62000 -1.828
89.64000 1.931
89.66000 6.177
89.68000 3.816
89.70000 1.228
89.72000 1.572
89.74000 1.156
89.76000 0.216
89.78000 4.310
89.80000 3.263
89.82000 -0.110
89.84000 -0.622
89.86000 4.026
89.88000 0.410
89.90000 1.990
89.92000 5.381
89.94000 4.615
89.96000 1.601
89.98000 -1.297
90.00000 -1.254
90.02000 0.854
90.04000 2.253
90.06000 1.862
90.08000 1.252
90.10000 8.058
90.12000 8.866
90.14000 4.489
90.16000 1.412
90.18000 0.840
90.20000 1.847
90.22000 6.570
90.24000 3.330
90.26000 -2.067
90.28000 -1.905
90.30000 0.371
90.32000 2.493
90.34000 3.331
90.36000 1.017
90.38000 4.748
90.40000 7.567
90.42000 5.139
90.44000 2.349
90.46000 -0.771
90.48000 -2.073
90.50000 -0.673
90.52000 0.200
90.54000 1.372
90.56000 3.054
90.58000 5.770
90.60000 2.260
90.62000 0.147
90.64000 2.403
90.66000 -0.240
90.68000 -1.059
90.70000 6.586
90.72000 3.368
90.74000 1.772
90.76000 3.170
90.78000 0.245
90.80000 1.194
90.82000 1.264
90.84000 6.088
90.86000 2.404
90.88000 1.302
90.90000 2.244
90.92000 1.821
90.94000 -0.685
90.96000 0.681
90.98000 -0.441
91.00000 -1.600
91.02000 -1.275
91.04000 2.594
91.06000 2.427
91.08000 -1.424
91.10000 0.418
91.12000 0.780
91.14000 4.593
91.16000 6.665
91.18000 4.915
91.20000 5.696
91.22000 3.315
91.24000 2.708
91.26000 -1.372
91.28000 -2.086
91.30000 -1.140
91.32000 5.324
91.34000 2.095
91.36000 -0.439
91.38000 0.789
91.40000 2.867
91.42000 3.762
91.44000 5.996
91.46000 5.875
91.48000 -2.082
91.50000 0.913
91.52000 3.933
91.54000 5.877
91.56000 3.280
91.58000 3.195
91.60000 3.684
91.62000 6.341
91.64000 4.879
91.66000 3.410
91.68000 2.915
91.70000 3.051
91.72000 2.805
91.74000 4.488
91.76000 5.665
91.78000 6.441
91.80000 3.771
91.82000 0.579
91.84000 0.687
91.86000 3.267
91.88000 1.112
91.90000 -1.955
91.92000 1.185
91.94000 1.637
91.96000 0.674
91.98000 1.488
92.00000 3.042
92.02000 4.645
92.04000 -0.319
92.06000 1.241
92.08000 7.065
92.10000 8.171
92.12000 4.285
92.14000 6.240
92.16000 4.212
92.18000 6.072
92.20000 6.957
92.22000 3.212
92.24000 3.775
92.26000 0.431
92.28000 2.730
92.30000 2.477
92.32000 0.155
92.34000 2.677
92.36000 4.847
92.38000 0.198
92.40000 0.694
92.42000 -2.083
92.44000 -1.735
92.46000 2.017
92.48000 2.576
92.50000 1.139
92.52000 -0.670
92.54000 -0.949
92.56000 4.054
92.58000 2.421
92.60000 0.498
92.62000 1.211
92.64000 -1.118
92.66000 2.247
92.68000 5.572
92.70000 4.583
92.72000 6.243
92.74000 2.652
92.76000 5.308
92.78000 5.472
92.80000 6.584
92.82000 4.188
92.84000 -0.641
92.86000 3.787
92.88000 5.387
92.90000 3.086
92.92000 3.081
92.94000 7.956
92.96000 4.710
92.98000 0.017
93.00000 1.821
93.02000 -0.029
93.04000 -2.088
93.06000 0.836
93.08000 4.133
93.10000 9.191
93.12000 7.086
93.14000 4.010
93.16000 1.086
93.18000 0.187
93.20000 2.357
93.22000 4.911
93.24000 5.462
93.26000 3.174
93.28000 3.276
93.30000 0.668
93.32000 -1.623
93.34000 2.073
93.36000 5.276
93.38000 5.374
93.40000 10.035
93.42000 4.936
93.44000 4.005
93.46000 6.295
93.48000 0.509
93.50000 -0.325
93.52000 3.066
93.54000 3.983
93.56000 5.159
93.58000 2.390
93.60000 5.938
93.62000 4.249
93.64000 1.884
93.66000 0.693
93.68000 -0.386
93.70000 2.064
93.72000 8.491
93.74000 6.331
93.76000 0.762
93.78000 5.436
93.80000 6.916
93.82000 5.777
93.84000 5.823
93.86000 0.625
93.88000 -0.009
93.90000 -1.106
93.92000 2.957
93.94000 5.480
93.96000 6.761
93.98000 2.658
94.00000 -2.106
94.02000 -1.416
94.04000 8.118
94.06000 12.356
94.08000 4.330
94.10000 3.643
94.12000 4.804
94.14000 2.484
94.16000 4.039
94.18000 0.137
94.20000 3.600
94.22000 3.061
94.24000 2.867
94.26000 -0.566
94.28000 1.340
94.30000 1.055
94.32000 4.831
94.34000 1.698
94.36000 2.896
94.38000 4.353
94.40000 3.659
94.42000 4.336
94.44000 10.468
94.46000 4.087
94.48000 3.832
94.50000 5.079
94.52000 7.539
94.54000 5.280
94.56000 2.885
94.58000 1.642
94.60000 1.956
94.62000 -2.092
94.64000 -1.511
94.66000 -0.680
94.68000 4.982
94.70000 9.537
94.72000 7.533
94.74000 1.439
94.76000 4.717
94.78000 6.302
94.80000 3.023
94.82000 0.954
94.84000 1.396
94.86000 1.342
94.88000 6.301
94.90000 5.523
94.92000 2.784
94.94000 3.896
94.96000 4.556
94.98000 5.244
95.00000 8.151
95.02000 5.259
95.04000 1.924
95.06000 4.793
95.08000 5.849
95.10000 -2.100
95.12000 1.612
95.14000 2.685
95.16000 0.618
95.18000 6.343
95.20000 3.870
95.22000 3.254
95.24000 2.337
95.26000 4.017
95.28000 4.893
95.30000 4.672
95.32000 5.566
95.34000 5.626
95.36000 7.374
95.38000 11.699
95.40000 5.704
95.42000 2.772
95.44000 6.096
95.46000 7.833
95.48000 8.408
95.50000 6.352
95.52000 6.865
95.54000 6.255
95.56000 7.506
95.58000 9.126
95.60000 9.208
95.62000 7.218
95.64000 2.746
95.66000 -2.086
95.68000 1.649
95.70000 4.513
95.72000 4.683
95.74000 7.822
95.76000 5.247
95.78000 4.746
95.80000 4.112
95.82000 5.429
95.84000 8.373
95.86000 5.114
95.88000 1.572
95.90000 0.777
95.92000 2.916
95.94000 1.792
95.96000 1.607
95.98000 3.990
96.00000 0.678
96.02000 4.516
96.04000 5.294
96.06000 3.519
96.08000 7.111
96.10000 0.899
96.12000 8.674
96.14000 3.120
96.16000 5.593
96.18000 4.483
96.20000 6.214
96.22000 1.706
96.24000 0.582
96.26000 8.262
96.28000 3.298
96.30000 4.589
96.32000 5.905
96.34000 5.022
96.36000 5.598
96.38000 10.096
96.40000 10.858
96.42000 11.109
96.44000 9.261
96.46000 10.928
96.48000 4.883
96.50000 -2.033
96.52000 1.350
96.54000 1.450
96.56000 3.013
96.58000 4.336
96.60000 5.710
96.62000 5.545
96.64000 5.873
96.66000 4.316
96.68000 0.724
96.70000 9.878
96.72000 8.538
96.74000 5.752
96.76000 6.057
96.78000 8.195
96.80000 4.122
96.82000 1.821
96.84000 4.642
96.86000 6.611
96.88000 9.636
96.90000 10.801
96.92000 6.742
96.94000 9.276
96.96000 7.796
96.98000 3.295
97.00000 5.574
97.02000 5.581
97.04000 9.021
97.06000 12.163
97.08000 7.869
97.10000 4.700
97.12000 1.718
97.14000 2.464
97.16000 5.054
97.18000 8.684
97.20000 11.291
97.22000 9.616
97.24000 8.583
97.26000 6.017
97.28000 1.359
97.30000 -2.032
97.32000 3.571
97.34000 5.336
97.36000 4.491
97.38000 7.208
97.40000 12.277
97.42000 5.626
97.44000 4.082
97.46000 1.535
97.48000 2.665
97.50000 4.282
97.52000 4.097
97.54000 4.076
97.56000 2.253
97.58000 7.250
97.60000 3.996
97.62000 1.982
97.64000 7.431
97.66000 10.800
97.68000 6.044
97.70000 7.655
97.72000 6.882
97.74000 5.924
97.76000 1.324
97.78000 3.005
97.80000 4.370
97.82000 8.250
97.84000 9.818
97.86000 9.895
97.88000 5.590
97.90000 8.297
97.92000 8.685
97.94000 1.893
97.96000 4.487
97.98000 3.836
98.00000 0.863
98.02000 -2.012
98.04000 6.611
98.06000 5.923
98.08000 8.065
98.10000 7.664
98.12000 4.041
98.14000 4.168
98.16000 6.108
98.18000 7.162
98.20000 5.665
98.22000 -0.807
98.24000 7.894
98.26000 8.670
98.28000 4.242
98.30000 8.590
98.32000 5.880
98.34000 6.719
98.36000 7.255
98.38000 2.596
98.40000 4.907
98.42000 1.128
98.44000 2.088
98.46000 9.309
98.48000 11.156
98.50000 10.302
98.52000 3.415
98.54000 3.110
98.56000 1.152
98.58000 4.406
98.60000 14.402
98.62000 10.694
98.64000 7.184
98.66000 12.068
98.68000 2.997
98.70000 -2.033
98.72000 6.481
98.74000 10.087
98.76000 4.816
98.78000 5.220
98.80000 8.396
98.82000 5.420
98.84000 5.644
98.86000 6.671
98.88000 1.267
98.90000 2.674
98.92000 -0.667
98.94000 8.000
98.96000 0.507
98.98000 5.484
99.00000 8.777
99.02000 2.344
99.04000 0.429
99.06000 4.394
99.08000 5.706
99.10000 1.173
99.12000 0.898
99.14000 5.962
99.16000 4.158
99.18000 4.374
99.20000 2.680
99.22000 11.257
99.24000 9.305
99.26000 6.668
99.28000 8.736
99.30000 3.489
99.32000 2.917
99.34000 7.994
99.36000 5.916
99.38000 11.085
99.40000 9.478
99.42000 -0.405
99.44000 13.018
99.46000 11.344
99.48000 2.863
99.50000 0.029
99.52000 3.237
99.54000 4.636
99.56000 7.115
99.58000 2.452
99.60000 6.714
99.62000 4.006
99.64000 0.448
99.66000 1.643
99.68000 -2.916
99.70000 8.337
99.72000 1.412
99.74000 11.116
99.76000 8.424
99.78000 8.276
99.80000 10.756
99.82000 3.598
99.84000 0.978
99.86000 8.166
99.88000 0.720
99.90000 4.646
99.92000 14.851
99.94000 17.924
99.96000 10.611
99.98000 0.000
