'Id: "0011387" Comment: "Integrate frame 0011387_Au-Ir-Rh_Rh-rich_XRD-Mapping-055-0000.gfrmwith cursor Wedge Cursor #5" Operator: "B?rgel" Anode: "Cu" Wavelength: "1.5406" Scantype: "2Theta (TwoTheta)" TimePerStep: "1" X: "36" Y: "-27" Z: "5.95" 
10.00000 0.000
10.02000 -3.494
10.04000 -3.309
10.06000 -1.940
10.08000 -2.116
10.10000 2.134
10.12000 9.463
10.14000 4.688
10.16000 -3.505
10.18000 1.854
10.20000 1.068
10.22000 7.446
10.24000 3.623
10.26000 16.475
10.28000 14.921
10.30000 9.463
10.32000 -2.253
10.34000 5.941
10.36000 1.643
10.38000 -3.525
10.40000 6.327
10.42000 11.836
10.44000 15.104
10.46000 22.801
10.48000 22.579
10.50000 2.177
10.52000 1.547
10.54000 18.178
10.56000 21.795
10.58000 22.521
10.60000 18.912
10.62000 5.143
10.64000 1.613
10.66000 9.300
10.68000 23.432
10.70000 8.402
10.72000 4.941
10.74000 11.285
10.76000 23.250
10.78000 22.795
10.80000 29.067
10.82000 19.276
10.84000 12.493
10.86000 6.051
10.88000 3.058
10.90000 19.203
10.92000 17.895
10.94000 25.576
10.96000 26.298
10.98000 13.140
11.00000 11.025
11.02000 13.928
11.04000 19.242
11.06000 20.800
11.08000 25.072
11.10000 30.853
11.12000 28.738
11.14000 19.196
11.16000 27.219
11.18000 25.667
11.20000 27.266
11.22000 18.810
11.24000 19.948
11.26000 25.336
11.28000 22.547
11.30000 29.164
11.32000 14.451
11.34000 14.290
11.36000 13.858
11.38000 21.593
11.40000 18.531
11.42000 22.718
11.44000 28.260
11.46000 36.770
11.48000 39.655
11.50000 30.111
11.52000 22.000
11.54000 25.111
11.56000 33.243
11.58000 34.521
11.60000 26.380
11.62000 24.312
11.64000 28.013
11.66000 28.076
11.68000 24.998
11.70000 16.078
11.72000 18.948
11.74000 24.232
11.76000 30.215
11.78000 24.969
11.80000 27.632
11.82000 40.229
11.84000 36.678
11.86000 29.762
11.88000 25.179
11.90000 30.410
11.92000 42.209
11.94000 31.433
11.96000 23.477
11.98000 21.216
12.00000 29.213
12.02000 33.343
12.04000 34.492
12.06000 30.066
12.08000 35.935
12.10000 45.309
12.12000 30.060
12.14000 20.592
12.16000 23.866
12.18000 29.341
12.20000 29.472
12.22000 29.089
12.24000 28.779
12.26000 22.276
12.28000 22.101
12.30000 34.599
12.32000 34.217
12.34000 31.428
12.36000 34.018
12.38000 27.911
12.40000 33.580
12.42000 37.448
12.44000 40.942
12.46000 40.778
12.48000 44.796
12.50000 41.962
12.52000 36.250
12.54000 36.900
12.56000 41.297
12.58000 35.349
12.60000 29.696
12.62000 34.928
12.64000 42.368
12.66000 30.395
12.68000 38.694
12.70000 46.048
12.72000 32.060
12.74000 24.199
12.76000 29.484
12.78000 47.504
12.80000 46.944
12.82000 43.880
12.84000 35.782
12.86000 29.806
12.88000 34.075
12.90000 30.230
12.92000 25.860
12.94000 31.541
12.96000 37.393
12.98000 29.417
13.00000 40.452
13.02000 42.026
13.04000 35.474
13.06000 37.023
13.08000 32.285
13.10000 34.518
13.12000 40.688
13.14000 46.782
13.16000 40.149
13.18000 33.716
13.20000 35.665
13.22000 29.212
13.24000 24.207
13.26000 32.196
13.28000 36.249
13.30000 43.788
13.32000 41.437
13.34000 44.518
13.36000 42.873
13.38000 35.704
13.40000 34.921
13.42000 29.942
13.44000 30.231
13.46000 29.217
13.48000 25.411
13.50000 28.025
13.52000 21.861
13.54000 26.817
13.56000 21.530
13.58000 29.496
13.60000 33.114
13.62000 28.942
13.64000 23.173
13.66000 19.957
13.68000 30.716
13.70000 27.036
13.72000 23.761
13.74000 24.907
13.76000 24.355
13.78000 30.253
13.80000 35.494
13.82000 36.057
13.84000 32.285
13.86000 29.184
13.88000 30.711
13.90000 29.626
13.92000 25.729
13.94000 32.580
13.96000 24.266
13.98000 15.252
14.00000 21.898
14.02000 26.468
14.04000 20.896
14.06000 28.011
14.08000 31.761
14.10000 22.379
14.12000 25.895
14.14000 23.801
14.16000 24.419
14.18000 20.085
14.20000 30.214
14.22000 31.681
14.24000 29.886
14.26000 24.756
14.28000 24.470
14.30000 30.638
14.32000 27.993
14.34000 30.359
14.36000 28.399
14.38000 29.468
14.40000 29.714
14.42000 29.471
14.44000 28.195
14.46000 22.303
14.48000 19.746
14.50000 16.692
14.52000 21.863
14.54000 23.521
14.56000 23.701
14.58000 11.030
14.60000 11.723
14.62000 23.373
14.64000 21.857
14.66000 15.935
14.68000 23.452
14.70000 21.954
14.72000 14.902
14.74000 18.463
14.76000 18.812
14.78000 17.551
14.80000 7.656
14.82000 5.751
14.84000 14.581
14.86000 22.640
14.88000 24.393
14.90000 15.271
14.92000 18.044
14.94000 22.221
14.96000 22.409
14.98000 20.796
15.00000 16.003
15.02000 11.676
15.04000 25.809
15.06000 26.081
15.08000 30.144
15.10000 21.994
15.12000 16.859
15.14000 21.292
15.16000 17.557
15.18000 16.984
15.20000 19.284
15.22000 20.279
15.24000 23.529
15.26000 25.073
15.28000 20.007
15.30000 9.073
15.32000 12.242
15.34000 14.237
15.36000 18.654
15.38000 16.027
15.40000 20.611
15.42000 16.694
15.44000 19.365
15.46000 22.498
15.48000 16.324
15.50000 17.991
15.52000 23.565
15.54000 23.956
15.56000 22.301
15.58000 18.039
15.60000 19.885
15.62000 14.298
15.64000 6.567
15.66000 11.382
15.68000 4.543
15.70000 7.310
15.72000 14.131
15.74000 10.401
15.76000 10.918
15.78000 16.333
15.80000 12.591
15.82000 17.483
15.84000 13.793
15.86000 6.337
15.88000 9.431
15.90000 8.130
15.92000 14.510
15.94000 11.960
15.96000 14.119
15.98000 17.159
16.00000 12.485
16.02000 9.349
16.04000 11.245
16.06000 12.352
16.08000 8.188
16.10000 9.867
16.12000 12.209
16.14000 3.848
16.16000 3.359
16.18000 9.267
16.20000 12.976
16.22000 17.006
16.24000 14.620
16.26000 9.534
16.28000 13.636
16.30000 5.998
16.32000 1.146
16.34000 5.000
16.36000 7.883
16.38000 12.975
16.40000 13.372
16.42000 12.283
16.44000 6.630
16.46000 13.504
16.48000 12.382
16.50000 14.695
16.52000 16.436
16.54000 16.309
16.56000 8.087
16.58000 6.229
16.60000 3.942
16.62000 3.788
16.64000 9.001
16.66000 18.480
16.68000 17.146
16.70000 12.279
16.72000 6.777
16.74000 7.578
16.76000 5.369
16.78000 11.759
16.80000 13.626
16.82000 6.330
16.84000 8.305
16.86000 7.609
16.88000 8.995
16.90000 10.935
16.92000 7.672
16.94000 17.053
16.96000 21.894
16.98000 13.929
17.00000 10.592
17.02000 13.200
17.04000 6.123
17.06000 4.643
17.08000 5.374
17.10000 7.250
17.12000 1.777
17.14000 10.666
17.16000 9.563
17.18000 5.988
17.20000 11.076
17.22000 8.734
17.24000 3.022
17.26000 9.953
17.28000 10.892
17.30000 11.511
17.32000 16.196
17.34000 7.958
17.36000 7.504
17.38000 11.339
17.40000 8.895
17.42000 8.963
17.44000 5.067
17.46000 7.403
17.48000 13.504
17.50000 9.454
17.52000 4.184
17.54000 3.816
17.56000 7.908
17.58000 5.935
17.60000 5.833
17.62000 6.715
17.64000 3.979
17.66000 1.070
17.68000 11.411
17.70000 8.421
17.72000 10.232
17.74000 7.145
17.76000 0.717
17.78000 1.008
17.80000 4.328
17.82000 5.430
17.84000 5.349
17.86000 9.362
17.88000 9.425
17.90000 7.533
17.92000 6.286
17.94000 5.348
17.96000 5.839
17.98000 9.794
18.00000 6.483
18.02000 2.711
18.04000 9.387
18.06000 5.716
18.08000 -4.262
18.10000 2.776
18.12000 7.419
18.14000 11.383
18.16000 11.585
18.18000 16.723
18.20000 13.091
18.22000 9.501
18.24000 13.848
18.26000 13.922
18.28000 13.187
18.30000 11.988
18.32000 0.573
18.34000 2.981
18.36000 1.082
18.38000 3.695
18.40000 17.836
18.42000 8.966
18.44000 -3.249
18.46000 5.400
18.48000 5.192
18.50000 5.538
18.52000 6.573
18.54000 6.306
18.56000 5.586
18.58000 2.688
18.60000 0.316
18.62000 3.368
18.64000 4.252
18.66000 6.807
18.68000 9.238
18.70000 9.939
18.72000 12.731
18.74000 -3.802
18.76000 -4.253
18.78000 -0.256
18.80000 4.255
18.82000 11.390
18.84000 14.124
18.86000 11.391
18.88000 9.243
18.90000 12.054
18.92000 6.903
18.94000 5.741
18.96000 3.615
18.98000 3.414
19.00000 -1.251
19.02000 2.521
19.04000 1.172
19.06000 -2.209
19.08000 6.773
19.10000 7.319
19.12000 11.421
19.14000 14.755
19.16000 6.965
19.18000 0.028
19.20000 0.021
19.22000 7.717
19.24000 8.208
19.26000 14.217
19.28000 11.493
19.30000 8.373
19.32000 -0.972
19.34000 2.451
19.36000 11.907
19.38000 12.227
19.40000 5.819
19.42000 3.707
19.44000 -0.757
19.46000 3.674
19.48000 2.269
19.50000 -0.332
19.52000 8.614
19.54000 11.122
19.56000 6.380
19.58000 5.385
19.60000 7.247
19.62000 6.652
19.64000 9.641
19.66000 6.777
19.68000 3.375
19.70000 0.371
19.72000 -3.235
19.74000 3.977
19.76000 1.735
19.78000 3.024
19.80000 3.605
19.82000 4.465
19.84000 0.782
19.86000 0.492
19.88000 4.947
19.90000 -1.155
19.92000 2.057
19.94000 5.942
19.96000 4.647
19.98000 9.545
20.00000 5.218
20.02000 5.860
20.04000 11.558
20.06000 8.255
20.08000 10.972
20.10000 10.516
20.12000 8.806
20.14000 1.328
20.16000 1.438
20.18000 4.606
20.20000 2.890
20.22000 5.112
20.24000 11.833
20.26000 4.976
20.28000 8.139
20.30000 2.162
20.32000 4.793
20.34000 11.884
20.36000 7.189
20.38000 -2.461
20.40000 -1.614
20.42000 7.527
20.44000 8.566
20.46000 5.386
20.48000 6.337
20.50000 1.203
20.52000 -3.482
20.54000 1.583
20.56000 6.012
20.58000 6.146
20.60000 3.454
20.62000 2.899
20.64000 -0.336
20.66000 -3.950
20.68000 -1.507
20.70000 4.819
20.72000 4.429
20.74000 1.933
20.76000 5.369
20.78000 10.968
20.80000 2.175
20.82000 2.812
20.84000 5.912
20.86000 15.084
20.88000 12.513
20.90000 9.728
20.92000 6.610
20.94000 3.263
20.96000 5.870
20.98000 4.207
21.00000 -4.145
21.02000 -1.364
21.04000 4.451
21.06000 5.525
21.08000 0.341
21.10000 1.241
21.12000 9.970
21.14000 13.399
21.16000 16.154
21.18000 6.339
21.20000 -2.315
21.22000 1.791
21.24000 -0.338
21.26000 2.769
21.28000 5.596
21.30000 -2.426
21.32000 -1.720
21.34000 2.505
21.36000 10.300
21.38000 10.140
21.40000 10.389
21.42000 13.957
21.44000 9.936
21.46000 8.208
21.48000 1.557
21.50000 3.255
21.52000 2.693
21.54000 -2.599
21.56000 1.924
21.58000 6.026
21.60000 -0.661
21.62000 -2.362
21.64000 -1.584
21.66000 7.613
21.68000 7.285
21.70000 5.858
21.72000 1.937
21.74000 2.299
21.76000 1.657
21.78000 1.892
21.80000 3.672
21.82000 7.669
21.84000 12.049
21.86000 9.901
21.88000 7.013
21.90000 5.528
21.92000 9.110
21.94000 4.973
21.96000 1.942
21.98000 4.554
22.00000 2.084
22.02000 9.017
22.04000 4.139
22.06000 7.758
22.08000 5.070
22.10000 0.935
22.12000 4.700
22.14000 3.309
22.16000 3.817
22.18000 -4.055
22.20000 1.677
22.22000 5.514
22.24000 3.695
22.26000 2.633
22.28000 4.682
22.30000 0.702
22.32000 3.298
22.34000 9.386
22.36000 6.477
22.38000 -2.463
22.40000 0.831
22.42000 6.404
22.44000 10.288
22.46000 7.789
22.48000 4.889
22.50000 1.228
22.52000 0.924
22.54000 5.666
22.56000 -0.223
22.58000 -1.571
22.60000 7.469
22.62000 8.198
22.64000 1.813
22.66000 2.670
22.68000 6.042
22.70000 6.054
22.72000 10.457
22.74000 5.604
22.76000 3.496
22.78000 2.589
22.80000 -1.506
22.82000 -1.889
22.84000 8.719
22.86000 4.701
22.88000 7.551
22.90000 11.867
22.92000 7.947
22.94000 8.253
22.96000 11.638
22.98000 8.355
23.00000 3.137
23.02000 -1.748
23.04000 5.351
23.06000 -0.752
23.08000 1.616
23.10000 9.985
23.12000 6.489
23.14000 2.203
23.16000 9.884
23.18000 10.561
23.20000 4.993
23.22000 6.071
23.24000 7.978
23.26000 8.823
23.28000 2.000
23.30000 4.365
23.32000 4.310
23.34000 5.474
23.36000 7.695
23.38000 16.009
23.40000 11.145
23.42000 5.541
23.44000 3.318
23.46000 6.679
23.48000 5.239
23.50000 -1.400
23.52000 -1.714
23.54000 0.857
23.56000 -0.183
23.58000 0.373
23.60000 2.307
23.62000 7.037
23.64000 10.779
23.66000 8.340
23.68000 5.128
23.70000 0.656
23.72000 -1.056
23.74000 0.689
23.76000 4.385
23.78000 7.755
23.80000 8.283
23.82000 8.158
23.84000 6.405
23.86000 3.313
23.88000 5.587
23.90000 6.697
23.92000 10.425
23.94000 9.128
23.96000 6.618
23.98000 1.613
24.00000 -2.220
24.02000 -2.393
24.04000 2.423
24.06000 2.159
24.08000 6.714
24.10000 5.621
24.12000 -1.635
24.14000 -1.086
24.16000 3.082
24.18000 4.820
24.20000 4.457
24.22000 4.694
24.24000 2.230
24.26000 5.369
24.28000 13.480
24.30000 7.841
24.32000 9.154
24.34000 4.260
24.36000 1.843
24.38000 6.952
24.40000 3.161
24.42000 2.632
24.44000 5.506
24.46000 7.559
24.48000 7.652
24.50000 14.683
24.52000 9.512
24.54000 2.684
24.56000 -3.907
24.58000 -3.905
24.60000 1.366
24.62000 5.881
24.64000 4.908
24.66000 6.481
24.68000 14.699
24.70000 16.544
24.72000 8.062
24.74000 6.354
24.76000 3.699
24.78000 3.182
24.80000 4.879
24.82000 2.959
24.84000 8.214
24.86000 3.167
24.88000 6.493
24.90000 6.697
24.92000 7.500
24.94000 8.821
24.96000 3.328
24.98000 8.376
25.00000 9.429
25.02000 8.360
25.04000 9.604
25.06000 4.018
25.08000 4.280
25.10000 7.047
25.12000 7.651
25.14000 7.641
25.16000 7.225
25.18000 3.212
25.20000 -1.799
25.22000 -2.587
25.24000 0.933
25.26000 5.609
25.28000 6.633
25.30000 2.526
25.32000 2.804
25.34000 5.586
25.36000 7.577
25.38000 5.634
25.40000 10.451
25.42000 10.296
25.44000 5.481
25.46000 3.177
25.48000 -3.867
25.50000 4.800
25.52000 8.967
25.54000 6.042
25.56000 2.953
25.58000 3.216
25.60000 6.162
25.62000 7.396
25.64000 3.180
25.66000 6.108
25.68000 4.716
25.70000 5.624
25.72000 9.176
25.74000 4.998
25.76000 3.423
25.78000 0.065
25.80000 2.939
25.82000 8.825
25.84000 7.366
25.86000 -0.118
25.88000 2.770
25.90000 3.747
25.92000 4.933
25.94000 8.554
25.96000 9.588
25.98000 2.651
26.00000 3.305
26.02000 4.614
26.04000 3.215
26.06000 4.442
26.08000 5.856
26.10000 -0.617
26.12000 1.900
26.14000 5.044
26.16000 2.698
26.18000 0.897
26.20000 2.170
26.22000 4.078
26.24000 1.946
26.26000 -1.506
26.28000 -2.508
26.30000 0.328
26.32000 0.620
26.34000 2.522
26.36000 0.018
26.38000 -0.639
26.40000 6.144
26.42000 2.579
26.44000 2.561
26.46000 1.120
26.48000 2.295
26.50000 4.195
26.52000 1.551
26.54000 0.642
26.56000 5.490
26.58000 -0.822
26.60000 4.891
26.62000 6.131
26.64000 2.542
26.66000 0.755
26.68000 0.144
26.70000 2.493
26.72000 3.569
26.74000 3.840
26.76000 3.916
26.78000 5.201
26.80000 8.550
26.82000 7.764
26.84000 5.163
26.86000 6.802
26.88000 3.373
26.90000 3.164
26.92000 5.954
26.94000 5.339
26.96000 8.164
26.98000 5.926
27.00000 -0.870
27.02000 -0.088
27.04000 -0.208
27.06000 3.389
27.08000 0.059
27.10000 -3.678
27.12000 -1.535
27.14000 -1.119
27.16000 5.498
27.18000 7.198
27.20000 3.810
27.22000 6.828
27.24000 5.899
27.26000 3.643
27.28000 6.011
27.30000 1.234
27.32000 -3.787
27.34000 0.535
27.36000 0.457
27.38000 -0.306
27.40000 4.863
27.42000 4.510
27.44000 2.246
27.46000 6.218
27.48000 5.781
27.50000 4.055
27.52000 2.313
27.54000 2.879
27.56000 4.236
27.58000 3.272
27.60000 4.822
27.62000 2.003
27.64000 1.335
27.66000 2.832
27.68000 6.507
27.70000 7.275
27.72000 3.878
27.74000 6.312
27.76000 3.294
27.78000 8.376
27.80000 13.210
27.82000 10.059
27.84000 10.882
27.86000 13.295
27.88000 8.950
27.90000 7.582
27.92000 6.471
27.94000 2.314
27.96000 5.163
27.98000 12.245
28.00000 14.044
28.02000 10.975
28.04000 2.546
28.06000 -3.706
28.08000 2.591
28.10000 3.848
28.12000 6.383
28.14000 7.720
28.16000 11.475
28.18000 11.077
28.20000 4.767
28.22000 7.003
28.24000 10.659
28.26000 6.201
28.28000 0.921
28.30000 6.197
28.32000 7.132
28.34000 4.617
28.36000 8.056
28.38000 8.081
28.40000 5.119
28.42000 8.413
28.44000 8.176
28.46000 7.841
28.48000 6.376
28.50000 11.049
28.52000 8.839
28.54000 4.613
28.56000 10.033
28.58000 3.661
28.60000 4.213
28.62000 5.190
28.64000 7.547
28.66000 3.517
28.68000 4.024
28.70000 4.669
28.72000 2.046
28.74000 6.480
28.76000 5.703
28.78000 0.023
28.80000 -3.149
28.82000 5.786
28.84000 12.420
28.86000 6.333
28.88000 1.896
28.90000 4.275
28.92000 3.462
28.94000 3.611
28.96000 6.507
28.98000 6.739
29.00000 5.225
29.02000 7.423
29.04000 6.280
29.06000 3.567
29.08000 -0.053
29.10000 4.441
29.12000 5.907
29.14000 6.818
29.16000 3.536
29.18000 -1.079
29.20000 1.328
29.22000 8.261
29.24000 10.796
29.26000 8.870
29.28000 10.439
29.30000 6.017
29.32000 3.597
29.34000 5.590
29.36000 3.765
29.38000 3.206
29.40000 2.385
29.42000 4.548
29.44000 2.971
29.46000 1.954
29.48000 6.959
29.50000 7.694
29.52000 6.905
29.54000 2.582
29.56000 0.283
29.58000 -3.659
29.60000 2.025
29.62000 8.107
29.64000 6.167
29.66000 -0.023
29.68000 1.444
29.70000 10.707
29.72000 7.479
29.74000 5.579
29.76000 3.334
29.78000 1.500
29.80000 4.826
29.82000 4.362
29.84000 4.124
29.86000 5.391
29.88000 5.117
29.90000 8.592
29.92000 3.366
29.94000 3.299
29.96000 2.125
29.98000 -0.513
30.00000 4.108
30.02000 7.172
30.04000 5.574
30.06000 4.788
30.08000 5.809
30.10000 8.676
30.12000 11.916
30.14000 4.008
30.16000 -1.235
30.18000 1.182
30.20000 7.427
30.22000 4.215
30.24000 3.421
30.26000 4.180
30.28000 0.883
30.30000 -2.160
30.32000 -1.031
30.34000 6.486
30.36000 5.037
30.38000 7.099
30.40000 8.453
30.42000 7.702
30.44000 5.302
30.46000 1.998
30.48000 2.505
30.50000 2.801
30.52000 1.927
30.54000 1.978
30.56000 5.684
30.58000 8.279
30.60000 4.443
30.62000 4.957
30.64000 4.445
30.66000 6.812
30.68000 5.218
30.70000 2.927
30.72000 3.813
30.74000 3.055
30.76000 2.215
30.78000 -2.747
30.80000 0.912
30.82000 6.004
30.84000 2.096
30.86000 4.229
30.88000 5.520
30.90000 5.944
30.92000 2.415
30.94000 2.649
30.96000 -0.331
30.98000 3.041
31.00000 4.210
31.02000 5.340
31.04000 1.150
31.06000 3.617
31.08000 4.662
31.10000 0.090
31.12000 0.187
31.14000 0.460
31.16000 -1.271
31.18000 -2.273
31.20000 -1.494
31.22000 4.688
31.24000 2.191
31.26000 0.572
31.28000 -3.606
31.30000 -2.020
31.32000 4.790
31.34000 5.461
31.36000 4.650
31.38000 1.217
31.40000 3.474
31.42000 2.076
31.44000 1.978
31.46000 2.644
31.48000 2.004
31.50000 3.264
31.52000 5.094
31.54000 5.872
31.56000 9.805
31.58000 7.639
31.60000 0.787
31.62000 0.466
31.64000 1.761
31.66000 -1.984
31.68000 -3.576
31.70000 4.272
31.72000 4.234
31.74000 5.095
31.76000 1.057
31.78000 0.388
31.80000 0.916
31.82000 4.816
31.84000 9.408
31.86000 10.270
31.88000 6.550
31.90000 4.795
31.92000 3.667
31.94000 2.450
31.96000 1.899
31.98000 -0.589
32.00000 4.434
32.02000 3.956
32.04000 7.624
32.06000 8.486
32.08000 4.452
32.10000 4.285
32.12000 6.811
32.14000 7.694
32.16000 9.730
32.18000 5.899
32.20000 6.256
32.22000 3.390
32.24000 1.101
32.26000 -1.716
32.28000 0.181
32.30000 0.470
32.32000 2.323
32.34000 6.298
32.36000 4.274
32.38000 1.051
32.40000 -1.414
32.42000 -0.275
32.44000 -2.435
32.46000 4.329
32.48000 7.113
32.50000 5.560
32.52000 3.313
32.54000 1.670
32.56000 1.403
32.58000 4.874
32.60000 8.480
32.62000 9.964
32.64000 1.935
32.66000 1.615
32.68000 4.061
32.70000 2.085
32.72000 1.956
32.74000 1.119
32.76000 3.520
32.78000 5.440
32.80000 4.962
32.82000 6.728
32.84000 0.469
32.86000 1.448
32.88000 4.837
32.90000 3.758
32.92000 4.232
32.94000 2.530
32.96000 4.056
32.98000 5.001
33.00000 0.382
33.02000 -2.866
33.04000 -3.509
33.06000 0.628
33.08000 2.734
33.10000 4.604
33.12000 6.187
33.14000 7.018
33.16000 4.761
33.18000 9.479
33.20000 9.069
33.22000 6.584
33.24000 7.302
33.26000 3.228
33.28000 2.911
33.30000 2.594
33.32000 10.123
33.34000 7.064
33.36000 3.702
33.38000 10.884
33.40000 10.200
33.42000 6.326
33.44000 8.777
33.46000 3.791
33.48000 1.481
33.50000 3.564
33.52000 4.925
33.54000 3.160
33.56000 5.671
33.58000 4.232
33.60000 5.280
33.62000 4.686
33.64000 4.685
33.66000 4.453
33.68000 0.636
33.70000 2.493
33.72000 8.091
33.74000 8.870
33.76000 5.912
33.78000 7.010
33.80000 2.353
33.82000 4.993
33.84000 9.033
33.86000 7.705
33.88000 3.238
33.90000 6.547
33.92000 7.269
33.94000 8.679
33.96000 4.819
33.98000 7.018
34.00000 5.773
34.02000 4.408
34.04000 8.214
34.06000 6.941
34.08000 7.587
34.10000 1.673
34.12000 -0.502
34.14000 1.924
34.16000 8.972
34.18000 10.994
34.20000 2.381
34.22000 2.692
34.24000 3.702
34.26000 3.491
34.28000 9.747
34.30000 8.930
34.32000 7.899
34.34000 7.599
34.36000 7.151
34.38000 5.486
34.40000 0.800
34.42000 -3.345
34.44000 4.705
34.46000 4.533
34.48000 2.942
34.50000 0.935
34.52000 3.277
34.54000 4.642
34.56000 1.116
34.58000 0.740
34.60000 -2.050
34.62000 -0.435
34.64000 3.763
34.66000 5.417
34.68000 7.542
34.70000 9.041
34.72000 2.247
34.74000 1.342
34.76000 3.244
34.78000 1.336
34.80000 2.305
34.82000 5.209
34.84000 4.943
34.86000 5.282
34.88000 -0.346
34.90000 0.824
34.92000 7.833
34.94000 5.654
34.96000 4.087
34.98000 3.118
35.00000 -1.365
35.02000 -3.435
35.04000 -0.700
35.06000 4.536
35.08000 5.109
35.10000 4.164
35.12000 4.761
35.14000 1.167
35.16000 5.993
35.18000 4.210
35.20000 4.498
35.22000 2.204
35.24000 5.217
35.26000 3.245
35.28000 6.535
35.30000 3.776
35.32000 6.067
35.34000 7.666
35.36000 2.052
35.38000 -3.403
35.40000 2.727
35.42000 4.984
35.44000 4.999
35.46000 6.591
35.48000 1.041
35.50000 1.993
35.52000 -1.780
35.54000 2.269
35.56000 5.738
35.58000 4.835
35.60000 5.341
35.62000 2.538
35.64000 3.538
35.66000 5.533
35.68000 5.983
35.70000 4.544
35.72000 3.781
35.74000 1.111
35.76000 1.098
35.78000 1.999
35.80000 4.033
35.82000 2.313
35.84000 4.239
35.86000 8.491
35.88000 7.089
35.90000 5.569
35.92000 1.820
35.94000 1.106
35.96000 2.796
35.98000 1.916
36.00000 1.167
36.02000 1.692
36.04000 4.741
36.06000 5.861
36.08000 6.608
36.10000 2.441
36.12000 3.993
36.14000 2.772
36.16000 -0.750
36.18000 -0.473
36.20000 -1.417
36.22000 -1.718
36.24000 4.927
36.26000 -2.372
36.28000 0.266
36.30000 3.854
36.32000 5.444
36.34000 0.446
36.36000 1.082
36.38000 1.862
36.40000 -0.057
36.42000 0.929
36.44000 5.143
36.46000 7.449
36.48000 7.872
36.50000 5.850
36.52000 2.248
36.54000 4.821
36.56000 6.595
36.58000 7.719
36.60000 7.530
36.62000 4.346
36.64000 3.265
36.66000 6.916
36.68000 4.480
36.70000 3.208
36.72000 3.964
36.74000 4.219
36.76000 9.205
36.78000 7.058
36.80000 0.944
36.82000 -0.182
36.84000 3.362
36.86000 6.816
36.88000 10.866
36.90000 5.099
36.92000 7.594
36.94000 7.185
36.96000 8.341
36.98000 4.893
37.00000 3.664
37.02000 1.802
37.04000 0.260
37.06000 2.287
37.08000 -3.412
37.10000 -1.561
37.12000 2.923
37.14000 0.992
37.16000 3.217
37.18000 2.145
37.20000 1.278
37.22000 5.438
37.24000 7.664
37.26000 8.690
37.28000 7.352
37.30000 7.418
37.32000 5.359
37.34000 2.950
37.36000 -3.045
37.38000 2.992
37.40000 5.536
37.42000 4.904
37.44000 3.829
37.46000 3.953
37.48000 3.819
37.50000 0.649
37.52000 2.672
37.54000 2.215
37.56000 1.953
37.58000 -1.470
37.60000 2.629
37.62000 2.235
37.64000 6.120
37.66000 3.606
37.68000 2.844
37.70000 4.549
37.72000 3.775
37.74000 -0.183
37.76000 0.627
37.78000 6.251
37.80000 5.097
37.82000 6.512
37.84000 4.362
37.86000 2.421
37.88000 5.002
37.90000 8.792
37.92000 6.077
37.94000 7.567
37.96000 6.954
37.98000 7.944
38.00000 5.790
38.02000 8.427
38.04000 5.987
38.06000 5.418
38.08000 9.416
38.10000 10.124
38.12000 7.451
38.14000 1.744
38.16000 9.126
38.18000 9.511
38.20000 9.607
38.22000 12.653
38.24000 12.346
38.26000 10.916
38.28000 9.944
38.30000 6.284
38.32000 9.712
38.34000 11.886
38.36000 12.733
38.38000 14.383
38.40000 17.306
38.42000 12.671
38.44000 17.538
38.46000 17.420
38.48000 14.405
38.50000 14.197
38.52000 14.616
38.54000 12.494
38.56000 19.813
38.58000 21.009
38.60000 16.582
38.62000 18.042
38.64000 23.162
38.66000 19.867
38.68000 16.697
38.70000 15.585
38.72000 18.500
38.74000 24.294
38.76000 22.684
38.78000 22.697
38.80000 18.543
38.82000 17.965
38.84000 14.553
38.86000 19.421
38.88000 24.626
38.90000 22.335
38.92000 23.384
38.94000 23.598
38.96000 22.045
38.98000 19.061
39.00000 22.021
39.02000 21.347
39.04000 26.613
39.06000 27.649
39.08000 27.107
39.10000 26.791
39.12000 27.194
39.14000 29.171
39.16000 32.669
39.18000 29.374
39.20000 28.650
39.22000 30.786
39.24000 32.127
39.26000 34.882
39.28000 38.761
39.30000 36.818
39.32000 36.762
39.34000 37.903
39.36000 37.927
39.38000 39.828
39.40000 41.095
39.42000 42.350
39.44000 46.576
39.46000 53.359
39.48000 54.667
39.50000 53.481
39.52000 56.544
39.54000 56.705
39.56000 64.715
39.58000 68.173
39.60000 69.735
39.62000 68.908
39.64000 74.766
39.66000 77.884
39.68000 82.010
39.70000 89.729
39.72000 93.531
39.74000 97.295
39.76000 104.205
39.78000 106.418
39.80000 111.313
39.82000 115.437
39.84000 124.842
39.86000 135.335
39.88000 144.274
39.90000 152.360
39.92000 161.881
39.94000 167.703
39.96000 175.389
39.98000 193.848
40.00000 206.640
40.02000 214.419
40.04000 232.179
40.06000 248.852
40.08000 264.285
40.10000 270.797
40.12000 292.526
40.14000 315.750
40.16000 328.843
40.18000 348.921
40.20000 376.187
40.22000 398.920
40.24000 418.838
40.26000 444.008
40.28000 469.712
40.30000 494.375
40.32000 511.421
40.34000 529.784
40.36000 561.248
40.38000 584.885
40.40000 623.995
40.42000 631.904
40.44000 656.720
40.46000 672.113
40.48000 689.371
40.50000 708.879
40.52000 722.160
40.54000 728.020
40.56000 739.258
40.58000 747.915
40.60000 751.728
40.62000 744.547
40.64000 738.605
40.66000 722.288
40.68000 702.602
40.70000 687.557
40.72000 690.984
40.74000 668.649
40.76000 645.823
40.78000 635.801
40.80000 621.092
40.82000 596.341
40.84000 580.069
40.86000 561.569
40.88000 535.804
40.90000 509.900
40.92000 490.988
40.94000 467.140
40.96000 452.193
40.98000 433.912
41.00000 416.774
41.02000 388.389
41.04000 362.387
41.06000 351.571
41.08000 335.550
41.10000 307.543
41.12000 296.051
41.14000 279.186
41.16000 272.684
41.18000 253.589
41.20000 242.250
41.22000 228.240
41.24000 222.411
41.26000 214.095
41.28000 195.345
41.30000 187.428
41.32000 177.899
41.34000 166.502
41.36000 162.884
41.38000 156.169
41.40000 145.950
41.42000 136.275
41.44000 123.759
41.46000 122.041
41.48000 113.564
41.50000 105.983
41.52000 107.597
41.54000 102.685
41.56000 98.343
41.58000 88.989
41.60000 80.206
41.62000 77.991
41.64000 78.052
41.66000 76.099
41.68000 73.360
41.70000 69.265
41.72000 65.896
41.74000 63.508
41.76000 58.405
41.78000 55.970
41.80000 54.526
41.82000 48.560
41.84000 47.880
41.86000 41.246
41.88000 39.845
41.90000 42.090
41.92000 39.168
41.94000 39.163
41.96000 39.793
41.98000 36.666
42.00000 30.673
42.02000 30.578
42.04000 32.182
42.06000 29.233
42.08000 27.542
42.10000 25.779
42.12000 26.360
42.14000 25.248
42.16000 27.185
42.18000 25.667
42.20000 25.611
42.22000 17.452
42.24000 20.552
42.26000 18.800
42.28000 17.045
42.30000 17.425
42.32000 16.214
42.34000 17.170
42.36000 17.588
42.38000 16.314
42.40000 14.152
42.42000 9.520
42.44000 7.990
42.46000 7.890
42.48000 11.709
42.50000 12.377
42.52000 11.454
42.54000 12.308
42.56000 14.404
42.58000 12.942
42.60000 7.492
42.62000 3.445
42.64000 5.131
42.66000 8.631
42.68000 5.819
42.70000 3.450
42.72000 4.105
42.74000 6.656
42.76000 6.590
42.78000 4.756
42.80000 7.575
42.82000 7.216
42.84000 8.830
42.86000 10.684
42.88000 6.126
42.90000 3.505
42.92000 3.051
42.94000 2.904
42.96000 1.068
42.98000 -2.839
43.00000 0.219
43.02000 0.209
43.04000 -2.312
43.06000 -0.115
43.08000 -0.680
43.10000 -0.117
43.12000 -2.907
43.14000 1.449
43.16000 -1.301
43.18000 -0.906
43.20000 -1.080
43.22000 2.360
43.24000 0.546
43.26000 -1.661
43.28000 3.393
43.30000 5.456
43.32000 2.977
43.34000 -1.245
43.36000 -3.357
43.38000 -3.392
43.40000 -1.188
43.42000 2.248
43.44000 1.303
43.46000 -0.861
43.48000 2.552
43.50000 0.512
43.52000 2.097
43.54000 0.877
43.56000 -1.519
43.58000 1.013
43.60000 5.926
43.62000 1.855
43.64000 2.501
43.66000 4.123
43.68000 3.425
43.70000 1.827
43.72000 -0.569
43.74000 -0.843
43.76000 2.343
43.78000 1.251
43.80000 -3.319
43.82000 0.039
43.84000 0.969
43.86000 3.607
43.88000 0.245
43.90000 -0.295
43.92000 0.670
43.94000 -0.663
43.96000 0.412
43.98000 2.963
44.00000 1.464
44.02000 -3.284
44.04000 -0.712
44.06000 -1.841
44.08000 -1.655
44.10000 1.271
44.12000 0.301
44.14000 1.609
44.16000 2.908
44.18000 4.516
44.20000 6.605
44.22000 1.274
44.24000 0.672
44.26000 0.747
44.28000 -1.543
44.30000 -0.473
44.32000 1.751
44.34000 2.023
44.36000 -0.015
44.38000 -0.148
44.40000 3.954
44.42000 2.266
44.44000 0.465
44.46000 -3.233
44.48000 -1.538
44.50000 3.318
44.52000 7.952
44.54000 6.803
44.56000 5.752
44.58000 2.844
44.60000 -0.897
44.62000 0.743
44.64000 4.813
44.66000 3.969
44.68000 1.657
44.70000 3.638
44.72000 3.250
44.74000 -1.525
44.76000 3.171
44.78000 0.379
44.80000 2.730
44.82000 3.234
44.84000 4.345
44.86000 0.793
44.88000 -3.205
44.90000 1.694
44.92000 6.223
44.94000 2.932
44.96000 2.784
44.98000 0.034
45.00000 1.945
45.02000 0.231
45.04000 1.374
45.06000 3.236
45.08000 4.493
45.10000 4.404
45.12000 1.891
45.14000 2.444
45.16000 -3.194
45.18000 -1.777
45.20000 -0.092
45.22000 1.303
45.24000 2.280
45.26000 2.707
45.28000 0.303
45.30000 -0.046
45.32000 0.019
45.34000 0.944
45.36000 -0.132
45.38000 1.958
45.40000 1.147
45.42000 0.483
45.44000 0.748
45.46000 -0.455
45.48000 1.556
45.50000 2.073
45.52000 -0.129
45.54000 1.312
45.56000 1.306
45.58000 2.483
45.60000 5.872
45.62000 4.633
45.64000 5.998
45.66000 4.617
45.68000 3.612
45.70000 4.673
45.72000 10.936
45.74000 7.619
45.76000 6.487
45.78000 9.404
45.80000 6.107
45.82000 4.701
45.84000 3.604
45.86000 4.545
45.88000 1.541
45.90000 5.573
45.92000 11.862
45.94000 12.398
45.96000 10.816
45.98000 6.959
46.00000 10.604
46.02000 15.575
46.04000 17.018
46.06000 11.259
46.08000 6.411
46.10000 12.987
46.12000 17.635
46.14000 21.124
46.16000 19.490
46.18000 12.999
46.20000 19.729
46.22000 23.301
46.24000 20.114
46.26000 18.389
46.28000 15.757
46.30000 16.861
46.32000 23.056
46.34000 26.211
46.36000 18.459
46.38000 19.509
46.40000 26.201
46.42000 27.111
46.44000 27.109
46.46000 37.122
46.48000 33.150
46.50000 31.873
46.52000 33.914
46.54000 33.762
46.56000 37.284
46.58000 38.485
46.60000 37.088
46.62000 46.301
46.64000 54.273
46.66000 55.706
46.68000 45.085
46.70000 46.233
46.72000 53.368
46.74000 51.583
46.76000 52.116
46.78000 58.280
46.80000 58.300
46.82000 56.574
46.84000 61.431
46.86000 62.285
46.88000 66.751
46.90000 73.161
46.92000 71.341
46.94000 68.165
46.96000 71.267
46.98000 76.501
47.00000 80.266
47.02000 84.266
47.04000 81.387
47.06000 86.098
47.08000 90.860
47.10000 91.453
47.12000 88.478
47.14000 91.884
47.16000 91.941
47.18000 86.667
47.20000 86.173
47.22000 89.925
47.24000 91.910
47.26000 89.900
47.28000 85.411
47.30000 85.322
47.32000 82.331
47.34000 78.736
47.36000 90.658
47.38000 90.731
47.40000 82.442
47.42000 76.871
47.44000 75.473
47.46000 78.263
47.48000 76.831
47.50000 75.323
47.52000 74.514
47.54000 72.791
47.56000 69.799
47.58000 75.878
47.60000 64.961
47.62000 60.539
47.64000 57.395
47.66000 57.162
47.68000 52.649
47.70000 52.400
47.72000 53.416
47.74000 51.374
47.76000 46.118
47.78000 38.925
47.80000 32.358
47.82000 34.922
47.84000 33.596
47.86000 40.695
47.88000 38.758
47.90000 34.346
47.92000 30.987
47.94000 27.991
47.96000 25.713
47.98000 26.134
48.00000 22.815
48.02000 19.999
48.04000 20.647
48.06000 15.415
48.08000 18.660
48.10000 19.830
48.12000 16.201
48.14000 17.172
48.16000 18.870
48.18000 14.402
48.20000 12.619
48.22000 15.696
48.24000 17.257
48.26000 13.777
48.28000 11.124
48.30000 14.100
48.32000 14.894
48.34000 16.727
48.36000 17.006
48.38000 11.508
48.40000 11.925
48.42000 9.644
48.44000 5.974
48.46000 4.050
48.48000 6.277
48.50000 5.676
48.52000 5.810
48.54000 4.628
48.56000 1.754
48.58000 -0.961
48.60000 -0.681
48.62000 0.147
48.64000 -0.338
48.66000 2.467
48.68000 1.748
48.70000 3.987
48.72000 4.344
48.74000 1.742
48.76000 -1.166
48.78000 -2.006
48.80000 -2.306
48.82000 1.218
48.84000 1.154
48.86000 1.097
48.88000 -0.370
48.90000 0.405
48.92000 0.874
48.94000 3.282
48.96000 -0.668
48.98000 -0.443
49.00000 3.607
49.02000 1.599
49.04000 -1.920
49.06000 0.091
49.08000 3.464
49.10000 -0.702
49.12000 -2.781
49.14000 -0.604
49.16000 2.629
49.18000 2.386
49.20000 -0.523
49.22000 -0.884
49.24000 -2.758
49.26000 0.099
49.28000 0.264
49.30000 -1.102
49.32000 -1.685
49.34000 1.017
49.36000 3.967
49.38000 3.879
49.40000 2.377
49.42000 -0.565
49.44000 0.630
49.46000 2.606
49.48000 2.420
49.50000 0.451
49.52000 -0.804
49.54000 1.803
49.56000 2.071
49.58000 3.672
49.60000 -0.040
49.62000 2.401
49.64000 1.252
49.66000 3.541
49.68000 5.700
49.70000 3.008
49.72000 1.143
49.74000 1.152
49.76000 -0.738
49.78000 2.579
49.80000 1.859
49.82000 0.979
49.84000 3.008
49.86000 4.012
49.88000 4.129
49.90000 3.544
49.92000 1.393
49.94000 0.179
49.96000 -1.637
49.98000 -2.644
50.00000 1.753
50.02000 0.098
50.04000 -1.985
50.06000 3.618
50.08000 2.627
50.10000 1.727
50.12000 0.213
50.14000 0.020
50.16000 4.740
50.18000 3.065
50.20000 3.986
50.22000 1.439
50.24000 1.578
50.26000 4.071
50.28000 5.656
50.30000 5.530
50.32000 5.720
50.34000 1.343
50.36000 1.813
50.38000 2.217
50.40000 2.558
50.42000 4.395
50.44000 0.265
50.46000 0.466
50.48000 0.181
50.50000 -0.416
50.52000 2.147
50.54000 2.633
50.56000 2.414
50.58000 0.371
50.60000 0.085
50.62000 -0.575
50.64000 -1.430
50.66000 0.736
50.68000 1.396
50.70000 4.610
50.72000 4.326
50.74000 1.122
50.76000 3.186
50.78000 6.896
50.80000 5.093
50.82000 1.000
50.84000 -2.584
50.86000 -1.136
50.88000 3.187
50.90000 5.734
50.92000 3.304
50.94000 1.135
50.96000 2.459
50.98000 4.167
51.00000 0.904
51.02000 0.635
51.04000 4.366
51.06000 1.617
51.08000 0.205
51.10000 2.512
51.12000 5.188
51.14000 5.779
51.16000 0.924
51.18000 0.073
51.20000 0.652
51.22000 1.725
51.24000 3.435
51.26000 1.898
51.28000 1.293
51.30000 0.428
51.32000 0.423
51.34000 1.553
51.36000 3.085
51.38000 3.761
51.40000 4.014
51.42000 4.965
51.44000 5.769
51.46000 2.113
51.48000 2.061
51.50000 4.396
51.52000 3.561
51.54000 1.454
51.56000 3.314
51.58000 4.054
51.60000 1.386
51.62000 2.252
51.64000 1.593
51.66000 2.141
51.68000 3.298
51.70000 1.963
51.72000 4.137
51.74000 5.211
51.76000 3.682
51.78000 2.299
51.80000 1.377
51.82000 2.227
51.84000 3.374
51.86000 0.009
51.88000 3.720
51.90000 8.240
51.92000 7.581
51.94000 5.008
51.96000 -0.891
51.98000 -2.531
52.00000 4.604
52.02000 3.078
52.04000 2.077
52.06000 1.328
52.08000 -0.403
52.10000 1.609
52.12000 3.412
52.14000 2.048
52.16000 1.939
52.18000 3.911
52.20000 4.305
52.22000 2.496
52.24000 1.486
52.26000 0.363
52.28000 2.154
52.30000 0.076
52.32000 2.706
52.34000 3.380
52.36000 1.761
52.38000 4.777
52.40000 3.508
52.42000 2.939
52.44000 2.261
52.46000 -0.132
52.48000 5.032
52.50000 2.229
52.52000 1.930
52.54000 2.629
52.56000 3.049
52.58000 4.750
52.60000 4.573
52.62000 4.056
52.64000 0.981
52.66000 0.038
52.68000 -2.269
52.70000 -0.613
52.72000 3.766
52.74000 2.972
52.76000 6.025
52.78000 5.278
52.80000 4.086
52.82000 -0.109
52.84000 0.767
52.86000 -2.488
52.88000 -0.727
52.90000 -0.895
52.92000 2.800
52.94000 1.234
52.96000 3.740
52.98000 4.962
53.00000 4.015
53.02000 2.732
53.04000 2.158
53.06000 3.527
53.08000 4.428
53.10000 3.625
53.12000 2.394
53.14000 1.541
53.16000 4.972
53.18000 6.493
53.20000 0.931
53.22000 3.968
53.24000 7.188
53.26000 4.027
53.28000 2.683
53.30000 2.875
53.32000 3.717
53.34000 1.404
53.36000 -1.156
53.38000 1.887
53.40000 8.466
53.42000 7.992
53.44000 6.733
53.46000 2.906
53.48000 -0.044
53.50000 -1.734
53.52000 1.586
53.54000 3.810
53.56000 5.569
53.58000 2.323
53.60000 0.796
53.62000 2.016
53.64000 5.882
53.66000 3.404
53.68000 3.329
53.70000 1.326
53.72000 -1.173
53.74000 -2.446
53.76000 0.028
53.78000 1.653
53.80000 4.723
53.82000 1.868
53.84000 2.076
53.86000 4.736
53.88000 4.023
53.90000 3.391
53.92000 4.102
53.94000 2.951
53.96000 5.606
53.98000 4.261
54.00000 8.078
54.02000 6.437
54.04000 6.225
54.06000 7.688
54.08000 4.709
54.10000 1.801
54.12000 2.332
54.14000 1.201
54.16000 3.074
54.18000 3.709
54.20000 2.307
54.22000 0.564
54.24000 -1.197
54.26000 2.049
54.28000 1.994
54.30000 -0.606
54.32000 -2.462
54.34000 1.600
54.36000 4.607
54.38000 2.255
54.40000 5.095
54.42000 5.152
54.44000 3.979
54.46000 0.794
54.48000 1.605
54.50000 -2.465
54.52000 -0.361
54.54000 1.269
54.56000 3.093
54.58000 4.047
54.60000 2.699
54.62000 0.407
54.64000 0.636
54.66000 0.261
54.68000 0.588
54.70000 0.467
54.72000 -0.512
54.74000 3.379
54.76000 8.287
54.78000 3.281
54.80000 3.374
54.82000 1.192
54.84000 -0.651
54.86000 0.713
54.88000 0.606
54.90000 1.224
54.92000 3.427
54.94000 1.395
54.96000 2.425
54.98000 -0.114
55.00000 -0.938
55.02000 0.274
55.04000 0.787
55.06000 0.702
55.08000 2.974
55.10000 3.184
55.12000 -0.198
55.14000 -0.606
55.16000 1.150
55.18000 0.550
55.20000 5.909
55.22000 5.679
55.24000 -1.494
55.26000 -1.204
55.28000 0.072
55.30000 2.308
55.32000 2.423
55.34000 -1.796
55.36000 1.005
55.38000 4.818
55.40000 3.104
55.42000 3.188
55.44000 1.287
55.46000 1.801
55.48000 4.445
55.50000 2.613
55.52000 3.087
55.54000 1.787
55.56000 3.039
55.58000 4.480
55.60000 6.827
55.62000 2.524
55.64000 -2.441
55.66000 2.017
55.68000 -0.294
55.70000 0.712
55.72000 1.725
55.74000 1.167
55.76000 0.120
55.78000 6.084
55.80000 3.736
55.82000 3.980
55.84000 0.894
55.86000 1.346
55.88000 -1.704
55.90000 -0.734
55.92000 0.303
55.94000 2.041
55.96000 1.849
55.98000 0.012
56.00000 -0.582
56.02000 0.911
56.04000 0.877
56.06000 -0.430
56.08000 -0.163
56.10000 1.419
56.12000 1.517
56.14000 1.558
56.16000 -1.368
56.18000 4.135
56.20000 3.289
56.22000 2.352
56.24000 -0.624
56.26000 -1.437
56.28000 0.818
56.30000 0.098
56.32000 0.678
56.34000 2.126
56.36000 0.811
56.38000 0.476
56.40000 0.622
56.42000 0.627
56.44000 -0.373
56.46000 -0.082
56.48000 0.767
56.50000 0.509
56.52000 2.003
56.54000 5.336
56.56000 1.367
56.58000 -1.967
56.60000 -1.766
56.62000 -0.472
56.64000 -1.146
56.66000 1.293
56.68000 0.586
56.70000 0.174
56.72000 -0.522
56.74000 -2.418
56.76000 -1.764
56.78000 2.698
56.80000 8.505
56.82000 4.879
56.84000 2.129
56.86000 1.788
56.88000 1.676
56.90000 0.304
56.92000 0.537
56.94000 0.852
56.96000 -0.002
56.98000 1.513
57.00000 3.036
57.02000 2.040
57.04000 -1.740
57.06000 -0.797
57.08000 2.231
57.10000 1.306
57.12000 0.225
57.14000 -2.040
57.16000 -2.391
57.18000 2.026
57.20000 3.659
57.22000 1.474
57.24000 3.539
57.26000 3.575
57.28000 3.077
57.30000 2.996
57.32000 0.265
57.34000 -1.908
57.36000 -0.151
57.38000 2.457
57.40000 1.412
57.42000 0.662
57.44000 4.657
57.46000 4.586
57.48000 -0.702
57.50000 -2.056
57.52000 -0.766
57.54000 -1.407
57.56000 0.266
57.58000 -1.183
57.60000 0.767
57.62000 2.881
57.64000 1.493
57.66000 0.704
57.68000 1.197
57.70000 1.017
57.72000 2.215
57.74000 2.922
57.76000 1.386
57.78000 -1.247
57.80000 0.626
57.82000 2.047
57.84000 1.686
57.86000 1.374
57.88000 -0.510
57.90000 3.684
57.92000 1.904
57.94000 1.798
57.96000 -0.837
57.98000 2.529
58.00000 0.464
58.02000 1.962
58.04000 0.661
58.06000 1.063
58.08000 -0.914
58.10000 -1.399
58.12000 0.673
58.14000 4.948
58.16000 2.207
58.18000 -0.377
58.20000 -0.117
58.22000 -0.616
58.24000 -0.955
58.26000 -2.352
58.28000 2.318
58.30000 2.501
58.32000 0.237
58.34000 0.275
58.36000 0.400
58.38000 1.712
58.40000 2.523
58.42000 0.779
58.44000 2.425
58.46000 5.333
58.48000 2.907
58.50000 -0.798
58.52000 0.480
58.54000 -0.625
58.56000 -2.347
58.58000 -1.183
58.60000 1.438
58.62000 1.120
58.64000 1.015
58.66000 -0.346
58.68000 4.453
58.70000 4.165
58.72000 0.249
58.74000 -1.712
58.76000 -0.701
58.78000 3.472
58.80000 4.966
58.82000 1.154
58.84000 1.654
58.86000 -0.182
58.88000 4.681
58.90000 2.028
58.92000 1.663
58.94000 4.066
58.96000 1.142
58.98000 -0.404
59.00000 -0.058
59.02000 -0.524
59.04000 0.623
59.06000 1.082
59.08000 -2.326
59.10000 -1.742
59.12000 -0.588
59.14000 1.588
59.16000 3.761
59.18000 4.088
59.20000 7.881
59.22000 4.017
59.24000 1.763
59.26000 1.896
59.28000 4.432
59.30000 0.614
59.32000 -0.916
59.34000 -0.461
59.36000 1.281
59.38000 0.552
59.40000 0.833
59.42000 3.624
59.44000 0.078
59.46000 0.983
59.48000 2.168
59.50000 -0.016
59.52000 -1.106
59.54000 3.606
59.56000 2.751
59.58000 3.008
59.60000 -1.037
59.62000 -1.235
59.64000 0.465
59.66000 5.552
59.68000 6.948
59.70000 0.858
59.72000 -2.283
59.74000 0.075
59.76000 2.203
59.78000 -0.414
59.80000 0.013
59.82000 2.205
59.84000 3.182
59.86000 4.246
59.88000 3.729
59.90000 3.253
59.92000 4.872
59.94000 3.428
59.96000 5.608
59.98000 0.292
60.00000 1.972
60.02000 2.066
60.04000 2.576
60.06000 4.741
60.08000 5.185
60.10000 4.965
60.12000 2.200
60.14000 1.751
60.16000 1.911
60.18000 3.760
60.20000 5.433
60.22000 4.325
60.24000 1.782
60.26000 2.411
60.28000 0.999
60.30000 4.035
60.32000 4.332
60.34000 1.050
60.36000 1.794
60.38000 8.670
60.40000 8.248
60.42000 3.732
60.44000 3.757
60.46000 2.575
60.48000 -1.923
60.50000 2.057
60.52000 -2.280
60.54000 -0.283
60.56000 0.146
60.58000 -0.587
60.60000 -1.542
60.62000 -2.280
60.64000 -2.103
60.66000 0.796
60.68000 1.141
60.70000 -0.530
60.72000 0.030
60.74000 1.281
60.76000 2.651
60.78000 2.402
60.80000 2.555
60.82000 -0.662
60.84000 -2.067
60.86000 0.737
60.88000 0.807
60.90000 -1.618
60.92000 -0.218
60.94000 -0.246
60.96000 1.360
60.98000 -1.711
61.00000 -0.505
61.02000 -0.873
61.04000 0.093
61.06000 1.603
61.08000 -0.980
61.10000 1.009
61.12000 -0.982
61.14000 -1.361
61.16000 -0.406
61.18000 5.411
61.20000 2.072
61.22000 2.496
61.24000 2.042
61.26000 -2.282
61.28000 -1.670
61.30000 0.874
61.32000 0.863
61.34000 1.254
61.36000 1.563
61.38000 -1.158
61.40000 -0.115
61.42000 2.375
61.44000 -0.085
61.46000 -0.734
61.48000 1.703
61.50000 1.315
61.52000 1.329
61.54000 0.289
61.56000 2.064
61.58000 0.351
61.60000 0.736
61.62000 3.835
61.64000 2.397
61.66000 -0.612
61.68000 3.013
61.70000 5.639
61.72000 -0.843
61.74000 -0.722
61.76000 2.727
61.78000 -1.444
61.80000 1.236
61.82000 1.584
61.84000 -0.451
61.86000 1.538
61.88000 4.636
61.90000 1.023
61.92000 1.370
61.94000 -0.750
61.96000 1.122
61.98000 1.275
62.00000 1.992
62.02000 1.849
62.04000 -0.760
62.06000 -1.335
62.08000 1.038
62.10000 -0.166
62.12000 1.980
62.14000 1.615
62.16000 1.405
62.18000 -2.021
62.20000 0.987
62.22000 1.339
62.24000 1.718
62.26000 2.818
62.28000 0.048
62.30000 1.389
62.32000 0.529
62.34000 2.339
62.36000 4.165
62.38000 1.224
62.40000 -1.351
62.42000 -1.459
62.44000 3.140
62.46000 4.103
62.48000 3.821
62.50000 3.581
62.52000 1.118
62.54000 2.211
62.56000 1.152
62.58000 -2.238
62.60000 1.906
62.62000 2.381
62.64000 1.251
62.66000 4.260
62.68000 2.328
62.70000 2.519
62.72000 0.037
62.74000 -1.120
62.76000 -0.979
62.78000 -0.207
62.80000 -0.021
62.82000 -0.757
62.84000 1.006
62.86000 1.068
62.88000 1.552
62.90000 3.792
62.92000 2.728
62.94000 -0.371
62.96000 1.519
62.98000 -1.508
63.00000 -2.213
63.02000 2.652
63.04000 2.545
63.06000 2.297
63.08000 2.290
63.10000 3.208
63.12000 5.788
63.14000 1.603
63.16000 0.106
63.18000 0.800
63.20000 2.298
63.22000 0.755
63.24000 1.026
63.26000 0.937
63.28000 3.155
63.30000 5.062
63.32000 2.737
63.34000 2.971
63.36000 1.907
63.38000 3.749
63.40000 3.210
63.42000 1.547
63.44000 0.866
63.46000 -1.571
63.48000 -0.375
63.50000 -1.557
63.52000 2.314
63.54000 3.965
63.56000 0.858
63.58000 -1.383
63.60000 1.024
63.62000 3.684
63.64000 1.432
63.66000 0.163
63.68000 0.422
63.70000 0.325
63.72000 0.436
63.74000 0.349
63.76000 2.292
63.78000 0.260
63.80000 -0.989
63.82000 -1.523
63.84000 -2.246
63.86000 -0.995
63.88000 2.223
63.90000 2.483
63.92000 1.372
63.94000 -0.930
63.96000 1.941
63.98000 1.932
64.00000 2.724
64.02000 1.479
64.04000 -1.552
64.06000 1.905
64.08000 1.336
64.10000 -1.398
64.12000 -1.885
64.14000 -2.239
64.16000 0.578
64.18000 4.393
64.20000 3.701
64.22000 4.349
64.24000 1.153
64.26000 1.585
64.28000 0.406
64.30000 -1.051
64.32000 -1.180
64.34000 0.538
64.36000 1.247
64.38000 0.681
64.40000 -0.982
64.42000 0.901
64.44000 0.767
64.46000 1.594
64.48000 -0.232
64.50000 -0.829
64.52000 3.466
64.54000 -0.073
64.56000 -1.722
64.58000 -0.889
64.60000 3.153
64.62000 3.329
64.64000 0.767
64.66000 -2.229
64.68000 -1.424
64.70000 -0.480
64.72000 1.991
64.74000 1.224
64.76000 0.001
64.78000 2.215
64.80000 2.575
64.82000 0.979
64.84000 -0.269
64.86000 1.891
64.88000 1.871
64.90000 3.609
64.92000 1.591
64.94000 5.418
64.96000 3.604
64.98000 2.310
65.00000 3.516
65.02000 4.423
65.04000 0.426
65.06000 -1.793
65.08000 1.314
65.10000 -2.235
65.12000 -1.026
65.14000 3.427
65.16000 4.584
65.18000 2.121
65.20000 0.793
65.22000 0.632
65.24000 0.270
65.26000 0.825
65.28000 0.065
65.30000 2.150
65.32000 1.193
65.34000 1.403
65.36000 0.293
65.38000 2.437
65.40000 2.755
65.42000 2.500
65.44000 3.445
65.46000 3.779
65.48000 5.087
65.50000 4.164
65.52000 1.649
65.54000 0.609
65.56000 -0.914
65.58000 0.830
65.60000 -0.349
65.62000 3.184
65.64000 2.430
65.66000 1.395
65.68000 -1.731
65.70000 -1.889
65.72000 -0.913
65.74000 3.857
65.76000 3.115
65.78000 2.423
65.80000 2.468
65.82000 3.514
65.84000 4.088
65.86000 4.189
65.88000 4.508
65.90000 4.813
65.92000 3.399
65.94000 5.931
65.96000 5.884
65.98000 2.457
66.00000 -1.955
66.02000 -2.221
66.04000 -1.005
66.06000 -1.380
66.08000 3.610
66.10000 6.083
66.12000 2.464
66.14000 2.146
66.16000 3.751
66.18000 2.476
66.20000 1.500
66.22000 1.486
66.24000 2.688
66.26000 0.917
66.28000 0.218
66.30000 2.119
66.32000 3.437
66.34000 6.009
66.36000 3.859
66.38000 1.059
66.40000 2.236
66.42000 2.698
66.44000 1.136
66.46000 0.513
66.48000 3.090
66.50000 0.250
66.52000 1.112
66.54000 2.470
66.56000 -0.068
66.58000 -2.197
66.60000 0.277
66.62000 1.649
66.64000 1.224
66.66000 1.686
66.68000 2.679
66.70000 1.214
66.72000 -1.735
66.74000 -0.269
66.76000 -0.198
66.78000 0.521
66.80000 -2.254
66.82000 -0.250
66.84000 4.359
66.86000 5.605
66.88000 1.260
66.90000 -0.812
66.92000 -1.362
66.94000 -1.462
66.96000 2.786
66.98000 0.000
67.00000 0.240
67.02000 -0.732
67.04000 -1.101
67.06000 -1.939
67.08000 -1.483
67.10000 0.842
67.12000 0.720
67.14000 2.307
67.16000 1.234
67.18000 3.076
67.20000 1.843
67.22000 -1.714
67.24000 0.490
67.26000 2.593
67.28000 1.139
67.30000 -2.284
67.32000 0.316
67.34000 3.196
67.36000 -0.808
67.38000 -0.815
67.40000 -0.236
67.42000 -0.562
67.44000 -0.382
67.46000 0.508
67.48000 -0.748
67.50000 -1.061
67.52000 -0.935
67.54000 0.207
67.56000 0.366
67.58000 2.552
67.60000 -1.470
67.62000 -1.693
67.64000 0.588
67.66000 3.693
67.68000 2.342
67.70000 1.732
67.72000 -0.459
67.74000 -0.098
67.76000 -0.410
67.78000 1.887
67.80000 4.334
67.82000 1.396
67.84000 0.614
67.86000 1.532
67.88000 2.462
67.90000 0.436
67.92000 0.940
67.94000 -0.164
67.96000 1.009
67.98000 -2.305
68.00000 0.815
68.02000 1.305
68.04000 4.577
68.06000 3.472
68.08000 3.484
68.10000 2.425
68.12000 1.794
68.14000 0.118
68.16000 -1.549
68.18000 0.733
68.20000 3.079
68.22000 6.382
68.24000 4.518
68.26000 4.532
68.28000 3.204
68.30000 3.970
68.32000 6.045
68.34000 4.573
68.36000 4.965
68.38000 4.713
68.40000 6.321
68.42000 7.107
68.44000 7.214
68.46000 8.044
68.48000 9.312
68.50000 10.185
68.52000 6.736
68.54000 6.000
68.56000 10.384
68.58000 13.425
68.60000 12.241
68.62000 11.575
68.64000 13.504
68.66000 13.887
68.68000 14.034
68.70000 12.649
68.72000 15.674
68.74000 16.151
68.76000 15.848
68.78000 16.679
68.80000 17.948
68.82000 19.938
68.84000 17.882
68.86000 17.087
68.88000 20.015
68.90000 19.713
68.92000 19.330
68.94000 20.384
68.96000 21.871
68.98000 24.197
69.00000 21.654
69.02000 20.512
69.04000 20.820
69.06000 18.740
69.08000 18.352
69.10000 20.450
69.12000 25.230
69.14000 21.113
69.16000 17.151
69.18000 16.592
69.20000 18.222
69.22000 13.295
69.24000 15.764
69.26000 17.445
69.28000 18.875
69.30000 16.787
69.32000 15.377
69.34000 16.208
69.36000 17.926
69.38000 16.194
69.40000 17.284
69.42000 19.448
69.44000 18.747
69.46000 17.478
69.48000 16.473
69.50000 14.341
69.52000 10.897
69.54000 10.038
69.56000 11.323
69.58000 14.737
69.60000 15.031
69.62000 11.774
69.64000 10.386
69.66000 6.158
69.68000 7.320
69.70000 4.306
69.72000 4.348
69.74000 6.095
69.76000 3.528
69.78000 4.323
69.80000 5.921
69.82000 4.879
69.84000 0.769
69.86000 4.413
69.88000 4.704
69.90000 3.406
69.92000 3.986
69.94000 2.936
69.96000 3.828
69.98000 0.352
70.00000 1.065
70.02000 4.518
70.04000 1.672
70.06000 -1.039
70.08000 3.860
70.10000 5.831
70.12000 0.938
70.14000 -0.964
70.16000 2.481
70.18000 1.401
70.20000 2.923
70.22000 -0.902
70.24000 -0.528
70.26000 2.262
70.28000 2.341
70.30000 -2.240
70.32000 0.061
70.34000 3.789
70.36000 4.298
70.38000 1.391
70.40000 -1.258
70.42000 -1.734
70.44000 -1.383
70.46000 1.212
70.48000 5.159
70.50000 3.003
70.52000 1.395
70.54000 4.571
70.56000 1.111
70.58000 1.271
70.60000 3.396
70.62000 2.360
70.64000 1.102
70.66000 1.438
70.68000 1.027
70.70000 -1.191
70.72000 0.336
70.74000 1.816
70.76000 2.193
70.78000 1.712
70.80000 -2.183
70.82000 -0.166
70.84000 3.746
70.86000 1.090
70.88000 2.227
70.90000 2.261
70.92000 -0.935
70.94000 0.085
70.96000 3.296
70.98000 3.839
71.00000 1.638
71.02000 1.842
71.04000 2.109
71.06000 2.509
71.08000 1.738
71.10000 -0.502
71.12000 1.931
71.14000 0.095
71.16000 1.642
71.18000 0.354
71.20000 -2.124
71.22000 0.170
71.24000 0.426
71.26000 3.529
71.28000 2.294
71.30000 0.484
71.32000 3.561
71.34000 4.296
71.36000 4.963
71.38000 7.312
71.40000 6.274
71.42000 1.688
71.44000 0.475
71.46000 1.366
71.48000 0.521
71.50000 2.865
71.52000 0.459
71.54000 1.851
71.56000 3.650
71.58000 4.184
71.60000 5.181
71.62000 0.752
71.64000 1.436
71.66000 2.050
71.68000 -0.272
71.70000 1.408
71.72000 -0.018
71.74000 0.015
71.76000 -0.200
71.78000 2.464
71.80000 0.855
71.82000 3.882
71.84000 5.751
71.86000 5.065
71.88000 0.435
71.90000 2.159
71.92000 1.609
71.94000 -1.772
71.96000 1.821
71.98000 4.422
72.00000 1.314
72.02000 -1.610
72.04000 1.689
72.06000 4.039
72.08000 4.925
72.10000 3.948
72.12000 5.217
72.14000 3.924
72.16000 4.321
72.18000 3.727
72.20000 3.668
72.22000 3.766
72.24000 2.611
72.26000 1.443
72.28000 -2.062
72.30000 -0.743
72.32000 1.898
72.34000 2.623
72.36000 2.150
72.38000 1.608
72.40000 4.609
72.42000 2.435
72.44000 0.775
72.46000 2.182
72.48000 4.999
72.50000 4.602
72.52000 3.585
72.54000 6.528
72.56000 5.770
72.58000 4.546
72.60000 3.319
72.62000 2.961
72.64000 3.977
72.66000 0.633
72.68000 0.847
72.70000 2.280
72.72000 1.255
72.74000 2.513
72.76000 2.846
72.78000 2.562
72.80000 5.385
72.82000 5.341
72.84000 2.681
72.86000 1.291
72.88000 1.632
72.90000 3.826
72.92000 6.161
72.94000 7.014
72.96000 4.357
72.98000 3.195
73.00000 2.953
73.02000 2.747
73.04000 2.437
73.06000 5.768
73.08000 4.942
73.10000 3.872
73.12000 0.477
73.14000 1.808
73.16000 3.700
73.18000 0.749
73.20000 0.892
73.22000 3.588
73.24000 3.609
73.26000 4.087
73.28000 3.157
73.30000 5.121
73.32000 5.396
73.34000 6.244
73.36000 -1.316
73.38000 -2.042
73.40000 -0.822
73.42000 1.356
73.44000 0.598
73.46000 2.717
73.48000 4.121
73.50000 1.218
73.52000 1.314
73.54000 2.602
73.56000 3.632
73.58000 1.902
73.60000 -0.888
73.62000 0.329
73.64000 1.931
73.66000 2.300
73.68000 -0.954
73.70000 0.057
73.72000 1.378
73.74000 2.066
73.76000 2.697
73.78000 3.067
73.80000 2.731
73.82000 3.373
73.84000 1.244
73.86000 -1.388
73.88000 1.690
73.90000 2.703
73.92000 1.394
73.94000 1.397
73.96000 1.726
73.98000 5.006
74.00000 5.058
74.02000 4.311
74.04000 3.176
74.06000 1.566
74.08000 2.204
74.10000 1.328
74.12000 3.574
74.14000 0.139
74.16000 3.260
74.18000 0.739
74.20000 2.447
74.22000 3.473
74.24000 0.144
74.26000 -0.608
74.28000 0.368
74.30000 0.927
74.32000 2.075
74.34000 1.378
74.36000 0.381
74.38000 2.281
74.40000 0.619
74.42000 -2.067
74.44000 3.369
74.46000 4.092
74.48000 2.901
74.50000 3.016
74.52000 1.597
74.54000 2.695
74.56000 1.449
74.58000 1.696
74.60000 2.006
74.62000 2.332
74.64000 3.503
74.66000 4.817
74.68000 4.987
74.70000 2.668
74.72000 0.885
74.74000 -1.706
74.76000 -0.537
74.78000 1.726
74.80000 4.062
74.82000 2.075
74.84000 0.904
74.86000 0.047
74.88000 3.651
74.90000 3.837
74.92000 0.143
74.94000 1.961
74.96000 1.807
74.98000 -0.177
75.00000 -0.192
75.02000 -0.741
75.04000 1.582
75.06000 -0.691
75.08000 -1.066
75.10000 -1.114
75.12000 -0.437
75.14000 -0.887
75.16000 -0.689
75.18000 1.276
75.20000 0.441
75.22000 1.543
75.24000 0.481
75.26000 2.809
75.28000 -0.034
75.30000 -2.059
75.32000 0.816
75.34000 -0.959
75.36000 0.853
75.38000 3.497
75.40000 3.958
75.42000 3.817
75.44000 2.174
75.46000 -0.544
75.48000 2.175
75.50000 3.425
75.52000 1.279
75.54000 0.644
75.56000 3.928
75.58000 3.060
75.60000 3.907
75.62000 0.597
75.64000 -1.262
75.66000 -0.439
75.68000 1.303
75.70000 3.537
75.72000 0.178
75.74000 -1.660
75.76000 2.889
75.78000 7.110
75.80000 4.751
75.82000 0.265
75.84000 -1.161
75.86000 2.713
75.88000 1.976
75.90000 1.463
75.92000 5.099
75.94000 4.262
75.96000 0.289
75.98000 -0.754
76.00000 2.043
76.02000 4.183
76.04000 0.644
76.06000 -0.529
76.08000 -1.596
76.10000 1.851
76.12000 2.666
76.14000 2.308
76.16000 2.586
76.18000 2.644
76.20000 2.914
76.22000 2.581
76.24000 3.360
76.26000 1.311
76.28000 2.239
76.30000 1.787
76.32000 1.904
76.34000 1.533
76.36000 4.313
76.38000 0.306
76.40000 0.595
76.42000 4.535
76.44000 4.888
76.46000 2.908
76.48000 2.526
76.50000 1.575
76.52000 3.480
76.54000 6.458
76.56000 4.560
76.58000 2.879
76.60000 3.489
76.62000 1.892
76.64000 1.583
76.66000 4.042
76.68000 3.100
76.70000 -2.021
76.72000 3.993
76.74000 0.882
76.76000 3.236
76.78000 5.948
76.80000 3.904
76.82000 2.412
76.84000 7.389
76.86000 3.845
76.88000 5.669
76.90000 5.193
76.92000 4.145
76.94000 8.791
76.96000 6.992
76.98000 3.880
77.00000 5.528
77.02000 8.163
77.04000 4.974
77.06000 4.663
77.08000 5.234
77.10000 4.306
77.12000 5.049
77.14000 7.202
77.16000 3.845
77.18000 2.179
77.20000 3.007
77.22000 2.245
77.24000 -0.247
77.26000 4.142
77.28000 4.762
77.30000 3.251
77.32000 5.060
77.34000 3.365
77.36000 5.242
77.38000 6.940
77.40000 3.879
77.42000 3.779
77.44000 0.560
77.46000 -2.060
77.48000 2.544
77.50000 1.904
77.52000 1.340
77.54000 3.687
77.56000 4.424
77.58000 4.278
77.60000 2.630
77.62000 6.168
77.64000 3.227
77.66000 2.424
77.68000 2.852
77.70000 2.875
77.72000 1.272
77.74000 -1.126
77.76000 -1.107
77.78000 -0.057
77.80000 1.380
77.82000 3.229
77.84000 3.696
77.86000 5.209
77.88000 2.282
77.90000 4.049
77.92000 2.642
77.94000 2.050
77.96000 1.837
77.98000 1.394
78.00000 2.848
78.02000 5.289
78.04000 5.209
78.06000 2.034
78.08000 0.528
78.10000 1.717
78.12000 2.390
78.14000 1.646
78.16000 1.342
78.18000 1.988
78.20000 2.635
78.22000 4.617
78.24000 2.743
78.26000 6.514
78.28000 7.043
78.30000 2.103
78.32000 4.886
78.34000 6.723
78.36000 6.550
78.38000 4.098
78.40000 1.112
78.42000 3.257
78.44000 4.677
78.46000 1.908
78.48000 1.785
78.50000 2.890
78.52000 0.727
78.54000 2.166
78.56000 0.626
78.58000 -0.515
78.60000 1.979
78.62000 1.349
78.64000 -1.117
78.66000 3.256
78.68000 1.807
78.70000 3.635
78.72000 2.622
78.74000 1.973
78.76000 4.495
78.78000 4.393
78.80000 4.023
78.82000 2.800
78.84000 4.778
78.86000 3.053
78.88000 1.656
78.90000 -2.062
78.92000 0.839
78.94000 -1.999
78.96000 -0.218
78.98000 0.350
79.00000 -0.041
79.02000 -0.471
79.04000 -0.476
79.06000 -0.193
79.08000 2.941
79.10000 3.916
79.12000 -1.596
79.14000 0.851
79.16000 2.003
79.18000 5.775
79.20000 4.595
79.22000 -0.420
79.24000 1.581
79.26000 5.680
79.28000 3.725
79.30000 2.107
79.32000 -0.410
79.34000 0.269
79.36000 0.566
79.38000 -0.976
79.40000 -0.668
79.42000 0.242
79.44000 3.394
79.46000 0.631
79.48000 -1.578
79.50000 1.318
79.52000 1.801
79.54000 1.755
79.56000 4.777
79.58000 1.857
79.60000 0.112
79.62000 0.414
79.64000 3.198
79.66000 4.596
79.68000 6.916
79.70000 7.736
79.72000 2.366
79.74000 0.514
79.76000 2.024
79.78000 1.611
79.80000 1.409
79.82000 4.080
79.84000 2.498
79.86000 -1.371
79.88000 0.920
79.90000 1.482
79.92000 0.683
79.94000 1.779
79.96000 2.366
79.98000 3.435
80.00000 2.617
80.02000 0.644
80.04000 0.792
80.06000 1.484
80.08000 1.949
80.10000 3.132
80.12000 5.143
80.14000 0.902
80.16000 -2.119
80.18000 -1.205
80.20000 1.230
80.22000 2.614
80.24000 1.270
80.26000 4.233
80.28000 5.821
80.30000 5.230
80.32000 7.948
80.34000 2.900
80.36000 2.117
80.38000 3.723
80.40000 3.811
80.42000 6.321
80.44000 0.892
80.46000 -0.092
80.48000 -2.133
80.50000 1.935
80.52000 0.089
80.54000 0.338
80.56000 0.743
80.58000 0.938
80.60000 0.644
80.62000 -0.354
80.64000 -1.937
80.66000 2.942
80.68000 5.240
80.70000 3.372
80.72000 0.956
80.74000 1.626
80.76000 1.828
80.78000 3.387
80.80000 0.337
80.82000 0.266
80.84000 -0.041
80.86000 -0.920
80.88000 1.148
80.90000 1.669
80.92000 3.744
80.94000 3.185
80.96000 2.109
80.98000 1.064
81.00000 1.569
81.02000 0.695
81.04000 -1.189
81.06000 1.039
81.08000 0.757
81.10000 4.904
81.12000 0.620
81.14000 -1.099
81.16000 1.694
81.18000 0.335
81.20000 -1.013
81.22000 0.514
81.24000 2.796
81.26000 2.225
81.28000 1.810
81.30000 1.886
81.32000 -0.534
81.34000 1.391
81.36000 2.097
81.38000 -2.207
81.40000 -0.086
81.42000 -1.961
81.44000 -1.948
81.46000 3.581
81.48000 0.954
81.50000 0.069
81.52000 0.787
81.54000 1.012
81.56000 3.326
81.58000 2.478
81.60000 -0.460
81.62000 0.817
81.64000 2.716
81.66000 0.658
81.68000 -0.522
81.70000 1.527
81.72000 0.884
81.74000 0.110
81.76000 -0.102
81.78000 -2.244
81.80000 0.274
81.82000 2.153
81.84000 2.968
81.86000 1.859
81.88000 3.430
81.90000 4.876
81.92000 1.788
81.94000 0.666
81.96000 2.152
81.98000 1.677
82.00000 0.358
82.02000 3.128
82.04000 2.948
82.06000 -2.269
82.08000 -1.275
82.10000 1.743
82.12000 4.598
82.14000 2.847
82.16000 2.135
82.18000 0.347
82.20000 0.092
82.22000 1.409
82.24000 2.619
82.26000 3.029
82.28000 4.047
82.30000 10.094
82.32000 8.864
82.34000 5.608
82.36000 4.208
82.38000 7.983
82.40000 6.347
82.42000 4.725
82.44000 8.447
82.46000 10.032
82.48000 7.094
82.50000 7.159
82.52000 9.098
82.54000 12.007
82.56000 13.307
82.58000 12.551
82.60000 15.471
82.62000 16.980
82.64000 13.615
82.66000 13.089
82.68000 13.794
82.70000 16.381
82.72000 18.751
82.74000 13.125
82.76000 18.696
82.78000 19.934
82.80000 19.318
82.82000 21.414
82.84000 20.756
82.86000 19.855
82.88000 14.519
82.90000 16.307
82.92000 24.797
82.94000 27.182
82.96000 26.440
82.98000 26.091
83.00000 27.090
83.02000 27.298
83.04000 27.393
83.06000 28.262
83.08000 34.267
83.10000 32.417
83.12000 35.719
83.14000 34.224
83.16000 37.345
83.18000 39.367
83.20000 34.199
83.22000 26.991
83.24000 32.225
83.26000 32.099
83.28000 33.048
83.30000 33.666
83.32000 34.966
83.34000 36.891
83.36000 39.151
83.38000 36.966
83.40000 33.069
83.42000 35.053
83.44000 34.003
83.46000 31.974
83.48000 37.629
83.50000 41.550
83.52000 37.576
83.54000 35.459
83.56000 31.816
83.58000 32.771
83.60000 27.833
83.62000 28.869
83.64000 31.574
83.66000 29.490
83.68000 29.697
83.70000 29.200
83.72000 29.209
83.74000 30.385
83.76000 27.897
83.78000 26.554
83.80000 32.269
83.82000 29.727
83.84000 25.235
83.86000 26.230
83.88000 21.660
83.90000 20.459
83.92000 21.563
83.94000 20.360
83.96000 20.005
83.98000 18.853
84.00000 17.238
84.02000 15.451
84.04000 17.196
84.06000 19.246
84.08000 15.879
84.10000 14.147
84.12000 15.826
84.14000 10.915
84.16000 10.693
84.18000 8.629
84.20000 12.533
84.22000 16.501
84.24000 9.698
84.26000 13.792
84.28000 8.132
84.30000 6.043
84.32000 5.291
84.34000 5.932
84.36000 7.539
84.38000 3.920
84.40000 7.283
84.42000 7.999
84.44000 4.781
84.46000 4.338
84.48000 5.378
84.50000 7.793
84.52000 4.184
84.54000 3.995
84.56000 5.741
84.58000 5.029
84.60000 4.870
84.62000 4.425
84.64000 1.746
84.66000 0.941
84.68000 0.373
84.70000 1.371
84.72000 3.022
84.74000 0.591
84.76000 -1.787
84.78000 1.937
84.80000 3.736
84.82000 2.228
84.84000 4.727
84.86000 3.729
84.88000 2.880
84.90000 0.299
84.92000 3.012
84.94000 5.701
84.96000 -0.455
84.98000 1.073
85.00000 0.636
85.02000 0.231
85.04000 2.183
85.06000 1.092
85.08000 2.026
85.10000 0.348
85.12000 -0.618
85.14000 3.193
85.16000 -0.588
85.18000 -0.992
85.20000 1.121
85.22000 1.819
85.24000 6.196
85.26000 5.280
85.28000 4.171
85.30000 1.506
85.32000 2.891
85.34000 0.024
85.36000 3.537
85.38000 4.118
85.40000 -2.131
85.42000 -2.038
85.44000 -0.466
85.46000 0.383
85.48000 -0.221
85.50000 3.081
85.52000 0.912
85.54000 1.219
85.56000 1.201
85.58000 1.571
85.60000 2.319
85.62000 3.175
85.64000 2.956
85.66000 1.685
85.68000 0.868
85.70000 2.015
85.72000 2.914
85.74000 0.689
85.76000 5.960
85.78000 3.708
85.80000 4.610
85.82000 4.041
85.84000 0.419
85.86000 -2.127
85.88000 -0.938
85.90000 0.898
85.92000 -0.577
85.94000 4.131
85.96000 4.606
85.98000 5.205
86.00000 1.773
86.02000 -0.684
86.04000 -0.178
86.06000 0.738
86.08000 0.654
86.10000 -2.133
86.12000 -1.648
86.14000 0.965
86.16000 5.295
86.18000 2.183
86.20000 1.671
86.22000 4.002
86.24000 4.430
86.26000 3.566
86.28000 -0.049
86.30000 0.615
86.32000 -0.124
86.34000 1.468
86.36000 2.537
86.38000 4.422
86.40000 3.249
86.42000 4.305
86.44000 0.094
86.46000 2.255
86.48000 5.056
86.50000 2.242
86.52000 2.861
86.54000 1.799
86.56000 2.679
86.58000 0.121
86.60000 2.469
86.62000 2.134
86.64000 -0.015
86.66000 2.645
86.68000 -2.134
86.70000 0.488
86.72000 3.887
86.74000 2.437
86.76000 1.853
86.78000 1.438
86.80000 3.063
86.82000 3.675
86.84000 3.767
86.86000 8.216
86.88000 5.505
86.90000 6.754
86.92000 6.835
86.94000 5.519
86.96000 4.735
86.98000 9.319
87.00000 9.178
87.02000 7.210
87.04000 8.824
87.06000 7.711
87.08000 3.998
87.10000 3.616
87.12000 4.401
87.14000 6.986
87.16000 6.522
87.18000 10.416
87.20000 8.238
87.22000 7.086
87.24000 8.296
87.26000 7.137
87.28000 6.526
87.30000 11.086
87.32000 11.202
87.34000 15.297
87.36000 16.987
87.38000 14.254
87.40000 14.575
87.42000 10.223
87.44000 13.592
87.46000 18.231
87.48000 13.993
87.50000 10.268
87.52000 16.603
87.54000 17.919
87.56000 14.661
87.58000 19.829
87.60000 19.700
87.62000 20.302
87.64000 20.264
87.66000 20.720
87.68000 24.920
87.70000 21.385
87.72000 18.890
87.74000 18.972
87.76000 17.574
87.78000 18.480
87.80000 23.118
87.82000 22.788
87.84000 18.752
87.86000 20.388
87.88000 20.886
87.90000 19.611
87.92000 23.221
87.94000 23.220
87.96000 19.017
87.98000 20.853
88.00000 22.734
88.02000 20.625
88.04000 26.081
88.06000 25.124
88.08000 21.145
88.10000 19.701
88.12000 18.284
88.14000 15.014
88.16000 19.408
88.18000 16.558
88.20000 19.396
88.22000 17.862
88.24000 15.008
88.26000 18.823
88.28000 16.735
88.30000 14.589
88.32000 13.320
88.34000 13.777
88.36000 10.958
88.38000 12.678
88.40000 14.833
88.42000 15.763
88.44000 17.438
88.46000 14.787
88.48000 14.405
88.50000 10.604
88.52000 12.432
88.54000 12.593
88.56000 12.892
88.58000 8.302
88.60000 5.199
88.62000 8.596
88.64000 8.472
88.66000 9.919
88.68000 8.497
88.70000 9.671
88.72000 8.935
88.74000 3.847
88.76000 5.423
88.78000 9.678
88.80000 7.729
88.82000 1.381
88.84000 4.431
88.86000 0.766
88.88000 5.085
88.90000 5.359
88.92000 5.494
88.94000 2.332
88.96000 1.834
88.98000 5.015
89.00000 3.809
89.02000 1.017
89.04000 -2.075
89.06000 5.039
89.08000 -0.626
89.10000 0.737
89.12000 4.208
89.14000 2.091
89.16000 6.002
89.18000 5.760
89.20000 2.203
89.22000 1.879
89.24000 -0.280
89.26000 1.275
89.28000 0.559
89.30000 0.891
89.32000 1.115
89.34000 0.720
89.36000 -1.568
89.38000 2.070
89.40000 0.050
89.42000 -1.631
89.44000 -0.110
89.46000 1.878
89.48000 1.695
89.50000 0.407
89.52000 -0.713
89.54000 -1.206
89.56000 2.627
89.58000 3.041
89.60000 -0.066
89.62000 -2.018
89.64000 1.686
89.66000 1.846
89.68000 1.906
89.70000 -1.412
89.72000 -1.100
89.74000 -1.040
89.76000 2.620
89.78000 5.517
89.80000 3.721
89.82000 0.526
89.84000 1.137
89.86000 1.314
89.88000 -1.721
89.90000 1.442
89.92000 4.134
89.94000 3.641
89.96000 0.109
89.98000 -0.862
90.00000 0.687
90.02000 2.679
90.04000 5.108
90.06000 4.152
90.08000 2.822
90.10000 3.617
90.12000 0.806
90.14000 4.889
90.16000 2.592
90.18000 3.020
90.20000 -1.975
90.22000 4.003
90.24000 6.155
90.26000 2.019
90.28000 0.916
90.30000 1.653
90.32000 2.590
90.34000 1.517
90.36000 2.134
90.38000 5.501
90.40000 -0.938
90.42000 -0.446
90.44000 -1.160
90.46000 -0.431
90.48000 -1.598
90.50000 -1.748
90.52000 1.898
90.54000 4.872
90.56000 3.471
90.58000 1.098
90.60000 3.494
90.62000 3.780
90.64000 0.234
90.66000 -1.409
90.68000 0.439
90.70000 -1.206
90.72000 -1.700
90.74000 1.472
90.76000 2.113
90.78000 3.121
90.80000 2.119
90.82000 1.837
90.84000 0.245
90.86000 -0.700
90.88000 -0.421
90.90000 2.269
90.92000 -0.062
90.94000 -0.462
90.96000 2.706
90.98000 -0.031
91.00000 1.347
91.02000 4.725
91.04000 3.937
91.06000 2.906
91.08000 0.874
91.10000 -1.914
91.12000 -0.740
91.14000 3.513
91.16000 1.783
91.18000 -1.973
91.20000 -0.108
91.22000 0.335
91.24000 0.596
91.26000 1.176
91.28000 3.407
91.30000 4.024
91.32000 3.653
91.34000 1.502
91.36000 -0.555
91.38000 0.175
91.40000 -0.567
91.42000 2.054
91.44000 2.095
91.46000 3.207
91.48000 4.433
91.50000 4.588
91.52000 5.566
91.54000 -0.203
91.56000 -1.971
91.58000 0.576
91.60000 -0.888
91.62000 2.838
91.64000 3.568
91.66000 4.675
91.68000 2.588
91.70000 4.062
91.72000 4.626
91.74000 2.041
91.76000 1.855
91.78000 0.191
91.80000 -0.456
91.82000 -1.379
91.84000 -0.819
91.86000 -0.864
91.88000 -1.513
91.90000 0.531
91.92000 4.177
91.94000 3.117
91.96000 1.981
91.98000 -0.977
92.00000 -0.221
92.02000 1.690
92.04000 6.327
92.06000 3.454
92.08000 5.854
92.10000 0.867
92.12000 0.262
92.14000 0.284
92.16000 4.773
92.18000 4.978
92.20000 4.156
92.22000 5.906
92.24000 3.901
92.26000 1.838
92.28000 0.750
92.30000 0.348
92.32000 -0.799
92.34000 2.227
92.36000 3.676
92.38000 1.669
92.40000 1.991
92.42000 0.450
92.44000 3.619
92.46000 4.920
92.48000 1.429
92.50000 -1.964
92.52000 0.672
92.54000 0.656
92.56000 0.106
92.58000 0.650
92.60000 1.486
92.62000 2.053
92.64000 2.983
92.66000 0.704
92.68000 1.582
92.70000 2.975
92.72000 4.519
92.74000 4.567
92.76000 3.781
92.78000 3.455
92.80000 -0.381
92.82000 0.299
92.84000 3.100
92.86000 4.186
92.88000 6.684
92.90000 6.945
92.92000 5.708
92.94000 4.263
92.96000 4.875
92.98000 2.579
93.00000 -1.710
93.02000 -1.973
93.04000 0.434
93.06000 2.337
93.08000 1.305
93.10000 1.060
93.12000 0.336
93.14000 -1.278
93.16000 0.847
93.18000 3.414
93.20000 3.007
93.22000 1.715
93.24000 2.966
93.26000 3.667
93.28000 5.745
93.30000 4.935
93.32000 3.282
93.34000 5.194
93.36000 1.931
93.38000 2.991
93.40000 5.853
93.42000 2.215
93.44000 1.506
93.46000 2.255
93.48000 3.456
93.50000 3.971
93.52000 2.111
93.54000 -0.292
93.56000 1.619
93.58000 2.828
93.60000 6.287
93.62000 5.283
93.64000 0.281
93.66000 0.714
93.68000 1.668
93.70000 2.158
93.72000 0.259
93.74000 1.486
93.76000 0.432
93.78000 1.931
93.80000 2.010
93.82000 -0.084
93.84000 2.806
93.86000 0.288
93.88000 0.918
93.90000 4.668
93.92000 2.269
93.94000 0.409
93.96000 -0.011
93.98000 2.948
94.00000 2.101
94.02000 5.576
94.04000 2.861
94.06000 2.954
94.08000 2.645
94.10000 2.138
94.12000 -1.930
94.14000 -1.432
94.16000 1.922
94.18000 3.296
94.20000 -1.525
94.22000 1.081
94.24000 0.891
94.26000 0.859
94.28000 1.621
94.30000 1.321
94.32000 1.799
94.34000 1.516
94.36000 4.851
94.38000 0.154
94.40000 1.527
94.42000 8.562
94.44000 8.348
94.46000 0.228
94.48000 0.437
94.50000 3.086
94.52000 5.966
94.54000 3.793
94.56000 4.149
94.58000 1.905
94.60000 1.497
94.62000 2.636
94.64000 -0.536
94.66000 -1.981
94.68000 -0.516
94.70000 4.268
94.72000 4.021
94.74000 4.015
94.76000 3.812
94.78000 2.272
94.80000 3.165
94.82000 1.776
94.84000 4.232
94.86000 6.652
94.88000 8.559
94.90000 5.702
94.92000 2.996
94.94000 1.783
94.96000 3.352
94.98000 1.493
95.00000 -1.558
95.02000 0.898
95.04000 3.458
95.06000 1.364
95.08000 -0.302
95.10000 4.006
95.12000 2.998
95.14000 2.065
95.16000 4.632
95.18000 1.408
95.20000 0.349
95.22000 4.483
95.24000 2.413
95.26000 3.144
95.28000 2.346
95.30000 4.416
95.32000 4.183
95.34000 3.273
95.36000 1.095
95.38000 -2.026
95.40000 -1.561
95.42000 1.597
95.44000 0.981
95.46000 3.567
95.48000 3.848
95.50000 4.476
95.52000 5.614
95.54000 8.850
95.56000 4.765
95.58000 -1.929
95.60000 -0.595
95.62000 -0.232
95.64000 0.057
95.66000 2.492
95.68000 -0.272
95.70000 1.600
95.72000 0.620
95.74000 0.640
95.76000 -1.242
95.78000 -0.113
95.80000 4.844
95.82000 1.729
95.84000 0.901
95.86000 1.334
95.88000 1.519
95.90000 3.463
95.92000 2.133
95.94000 1.558
95.96000 2.261
95.98000 2.610
96.00000 6.115
96.02000 4.605
96.04000 1.725
96.06000 3.941
96.08000 2.654
96.10000 -0.073
96.12000 0.873
96.14000 -0.805
96.16000 0.849
96.18000 0.287
96.20000 1.009
96.22000 -1.620
96.24000 -0.781
96.26000 0.636
96.28000 -1.693
96.30000 -0.063
96.32000 -2.014
96.34000 0.858
96.36000 5.276
96.38000 3.708
96.40000 0.339
96.42000 0.550
96.44000 4.107
96.46000 5.299
96.48000 2.497
96.50000 1.541
96.52000 1.559
96.54000 2.659
96.56000 1.399
96.58000 -0.429
96.60000 1.055
96.62000 -0.263
96.64000 -2.008
96.66000 -0.292
96.68000 2.549
96.70000 1.301
96.72000 3.479
96.74000 5.820
96.76000 3.930
96.78000 0.760
96.80000 6.901
96.82000 4.163
96.84000 5.336
96.86000 3.856
96.88000 1.066
96.90000 1.700
96.92000 -0.123
96.94000 1.932
96.96000 3.491
96.98000 5.383
97.00000 0.197
97.02000 1.608
97.04000 3.309
97.06000 1.497
97.08000 2.282
97.10000 -0.334
97.12000 0.639
97.14000 -0.499
97.16000 -1.053
97.18000 1.747
97.20000 5.796
97.22000 4.957
97.24000 1.056
97.26000 3.244
97.28000 6.362
97.30000 4.197
97.32000 3.852
97.34000 2.135
97.36000 -1.287
97.38000 -0.172
97.40000 3.045
97.42000 2.185
97.44000 5.825
97.46000 4.970
97.48000 0.643
97.50000 -0.096
97.52000 5.308
97.54000 2.598
97.56000 6.009
97.58000 6.739
97.60000 0.753
97.62000 -1.957
97.64000 -0.744
97.66000 3.559
97.68000 5.954
97.70000 5.374
97.72000 2.270
97.74000 3.783
97.76000 5.377
97.78000 2.861
97.80000 6.286
97.82000 2.445
97.84000 6.894
97.86000 8.026
97.88000 4.787
97.90000 2.125
97.92000 -0.091
97.94000 -1.807
97.96000 0.983
97.98000 7.723
98.00000 7.828
98.02000 7.447
98.04000 4.152
98.06000 1.140
98.08000 4.275
98.10000 2.762
98.12000 2.779
98.14000 8.056
98.16000 5.299
98.18000 4.398
98.20000 4.530
98.22000 4.664
98.24000 3.427
98.26000 2.418
98.28000 0.932
98.30000 1.668
98.32000 3.283
98.34000 3.557
98.36000 1.565
98.38000 6.317
98.40000 5.075
98.42000 2.546
98.44000 1.563
98.46000 1.804
98.48000 3.134
98.50000 10.126
98.52000 8.168
98.54000 4.473
98.56000 3.436
98.58000 2.510
98.60000 0.013
98.62000 4.754
98.64000 4.336
98.66000 7.959
98.68000 4.944
98.70000 0.750
98.72000 2.420
98.74000 5.116
98.76000 9.804
98.78000 2.401
98.80000 -0.024
98.82000 5.682
98.84000 3.774
98.86000 2.763
98.88000 -1.894
98.90000 2.656
98.92000 14.394
98.94000 13.396
98.96000 11.263
98.98000 12.319
99.00000 10.374
99.02000 9.715
99.04000 7.405
99.06000 5.077
99.08000 2.258
99.10000 6.457
99.12000 5.661
99.14000 4.263
99.16000 2.619
99.18000 7.919
99.20000 9.035
99.22000 7.573
99.24000 1.894
99.26000 0.442
99.28000 4.499
99.30000 2.416
99.32000 -1.417
99.34000 2.904
99.36000 4.898
99.38000 2.127
99.40000 -0.466
99.42000 3.303
99.44000 1.067
99.46000 3.152
99.48000 7.628
99.50000 9.235
99.52000 6.276
99.54000 7.533
99.56000 0.449
99.58000 -1.955
99.60000 1.998
99.62000 6.575
99.64000 2.452
99.66000 3.245
99.68000 6.119
99.70000 1.966
99.72000 4.098
99.74000 3.592
99.76000 10.872
99.78000 15.195
99.80000 13.273
99.82000 5.445
99.84000 0.052
99.86000 9.835
99.88000 7.017
99.90000 0.721
99.92000 0.147
99.94000 -1.931
99.96000 -1.993
99.98000 0.000
