'Id: "0011388" Comment: "Integrate frame 0011388_Au-Ir-Rh_Rh-rich_XRD-Mapping-300-0000.gfrmwith cursor Wedge Cursor #5" Operator: "B?rgel" Anode: "Cu" Wavelength: "1.5406" Scantype: "2Theta (TwoTheta)" TimePerStep: "1" X: "-13.5" Y: "31.5" Z: "5.95" 
10.00000 0.000
10.02000 3.321
10.04000 -4.395
10.06000 4.473
10.08000 18.983
10.10000 12.083
10.12000 10.698
10.14000 26.038
10.16000 31.522
10.18000 18.037
10.20000 5.415
10.22000 -4.345
10.24000 6.100
10.26000 10.712
10.28000 27.055
10.30000 36.990
10.32000 26.053
10.34000 11.533
10.36000 24.190
10.38000 17.092
10.40000 14.313
10.42000 0.051
10.44000 0.483
10.46000 19.625
10.48000 24.042
10.50000 19.906
10.52000 1.303
10.54000 7.742
10.56000 12.261
10.58000 17.005
10.60000 28.431
10.62000 16.985
10.64000 23.763
10.66000 26.077
10.68000 12.986
10.70000 7.337
10.72000 10.578
10.74000 18.711
10.76000 24.718
10.78000 16.573
10.80000 16.632
10.82000 17.489
10.84000 9.795
10.86000 23.729
10.88000 28.664
10.90000 29.017
10.92000 16.486
10.94000 15.770
10.96000 19.290
10.98000 14.723
11.00000 1.271
11.02000 3.186
11.04000 14.952
11.06000 20.448
11.08000 13.943
11.10000 20.099
11.12000 15.829
11.14000 4.417
11.16000 14.524
11.18000 19.492
11.20000 30.943
11.22000 26.498
11.24000 18.069
11.26000 18.629
11.28000 0.710
11.30000 6.341
11.32000 4.783
11.34000 13.302
11.36000 5.104
11.38000 7.208
11.40000 9.481
11.42000 18.135
11.44000 22.041
11.46000 1.459
11.48000 5.137
11.50000 9.127
11.52000 16.103
11.54000 26.830
11.56000 22.115
11.58000 23.020
11.60000 21.089
11.62000 6.330
11.64000 3.954
11.66000 11.783
11.68000 5.146
11.70000 3.737
11.72000 8.643
11.74000 14.048
11.76000 14.447
11.78000 19.484
11.80000 25.155
11.82000 12.845
11.84000 10.449
11.86000 -1.285
11.88000 5.186
11.90000 11.278
11.92000 6.477
11.94000 10.239
11.96000 15.235
11.98000 19.382
12.00000 16.957
12.02000 5.259
12.04000 10.228
12.06000 23.264
12.08000 21.708
12.10000 20.881
12.12000 21.328
12.14000 8.859
12.16000 13.934
12.18000 17.127
12.20000 9.014
12.22000 -3.421
12.24000 5.090
12.26000 13.509
12.28000 18.093
12.30000 11.155
12.32000 12.738
12.34000 6.992
12.36000 -1.583
12.38000 0.108
12.40000 10.753
12.42000 9.276
12.44000 12.989
12.46000 18.255
12.48000 13.304
12.50000 16.969
12.52000 13.056
12.54000 13.242
12.56000 14.940
12.58000 18.610
12.60000 17.352
12.62000 6.360
12.64000 -4.483
12.66000 3.215
12.68000 18.073
12.70000 8.372
12.72000 14.568
12.74000 28.329
12.76000 27.477
12.78000 23.021
12.80000 14.486
12.82000 9.543
12.84000 17.592
12.86000 20.880
12.88000 23.985
12.90000 26.306
12.92000 20.692
12.94000 13.959
12.96000 21.500
12.98000 29.806
13.00000 15.928
13.02000 5.042
13.04000 7.723
13.06000 -0.707
13.08000 5.902
13.10000 12.308
13.12000 3.211
13.14000 5.278
13.16000 5.134
13.18000 10.028
13.20000 4.176
13.22000 10.749
13.24000 2.217
13.26000 13.227
13.28000 10.276
13.30000 2.068
13.32000 2.738
13.34000 4.916
13.36000 12.817
13.38000 18.457
13.40000 22.272
13.42000 21.267
13.44000 24.251
13.46000 21.034
13.48000 11.602
13.50000 2.820
13.52000 4.577
13.54000 18.596
13.56000 15.445
13.58000 9.366
13.60000 5.077
13.62000 1.816
13.64000 1.343
13.66000 3.232
13.68000 9.986
13.70000 7.738
13.72000 9.661
13.74000 7.327
13.76000 15.738
13.78000 15.424
13.80000 13.325
13.82000 16.852
13.84000 13.225
13.86000 7.309
13.88000 -0.089
13.90000 -4.489
13.92000 5.546
13.94000 2.888
13.96000 5.246
13.98000 8.120
14.00000 7.652
14.02000 13.333
14.04000 12.341
14.06000 15.368
14.08000 17.514
14.10000 15.985
14.12000 6.458
14.14000 -1.070
14.16000 5.245
14.18000 14.563
14.20000 8.117
14.22000 12.558
14.24000 12.142
14.26000 11.456
14.28000 14.079
14.30000 19.441
14.32000 18.515
14.34000 14.359
14.36000 17.670
14.38000 15.790
14.40000 13.202
14.42000 15.052
14.44000 7.383
14.46000 4.054
14.48000 9.610
14.50000 11.211
14.52000 10.795
14.54000 12.703
14.56000 13.769
14.58000 8.494
14.60000 7.126
14.62000 9.223
14.64000 5.487
14.66000 4.901
14.68000 6.367
14.70000 -0.241
14.72000 9.954
14.74000 12.838
14.76000 7.528
14.78000 13.616
14.80000 17.699
14.82000 18.321
14.84000 7.535
14.86000 11.499
14.88000 17.116
14.90000 8.911
14.92000 7.631
14.94000 9.134
14.96000 7.087
14.98000 7.335
15.00000 5.707
15.02000 6.389
15.04000 9.251
15.06000 17.293
15.08000 13.077
15.10000 8.626
15.12000 21.923
15.14000 15.020
15.16000 9.335
15.18000 12.287
15.20000 14.033
15.22000 12.185
15.24000 -4.459
15.26000 -0.397
15.28000 10.508
15.30000 10.641
15.32000 -0.929
15.34000 6.091
15.36000 7.634
15.38000 12.569
15.40000 8.682
15.42000 8.489
15.44000 12.473
15.46000 8.892
15.48000 5.452
15.50000 17.087
15.52000 11.879
15.54000 12.158
15.56000 17.205
15.58000 13.442
15.60000 12.310
15.62000 10.457
15.64000 5.474
15.66000 13.005
15.68000 7.879
15.70000 9.523
15.72000 0.560
15.74000 4.673
15.76000 5.647
15.78000 5.533
15.80000 15.727
15.82000 13.496
15.84000 7.719
15.86000 16.613
15.88000 13.358
15.90000 10.523
15.92000 10.090
15.94000 11.516
15.96000 16.899
15.98000 10.134
16.00000 7.154
16.02000 6.536
16.04000 3.443
16.06000 8.036
16.08000 10.944
16.10000 7.246
16.12000 -0.426
16.14000 -4.453
16.16000 0.711
16.18000 -0.310
16.20000 3.196
16.22000 7.705
16.24000 7.858
16.26000 5.849
16.28000 8.522
16.30000 2.260
16.32000 0.981
16.34000 3.351
16.36000 5.369
16.38000 3.831
16.40000 1.676
16.42000 4.409
16.44000 0.897
16.46000 1.161
16.48000 9.527
16.50000 10.804
16.52000 10.839
16.54000 6.658
16.56000 6.159
16.58000 5.641
16.60000 5.503
16.62000 2.786
16.64000 4.966
16.66000 3.480
16.68000 8.216
16.70000 12.509
16.72000 15.270
16.74000 11.109
16.76000 3.538
16.78000 1.027
16.80000 5.753
16.82000 3.974
16.84000 8.431
16.86000 4.177
16.88000 8.388
16.90000 5.619
16.92000 -1.311
16.94000 1.196
16.96000 1.052
16.98000 1.531
17.00000 -0.555
17.02000 1.054
17.04000 -0.627
17.06000 7.684
17.08000 4.801
17.10000 5.477
17.12000 9.056
17.14000 9.929
17.16000 5.584
17.18000 -1.370
17.20000 3.911
17.22000 5.913
17.24000 2.388
17.26000 -2.207
17.28000 -0.154
17.30000 -2.431
17.32000 3.025
17.34000 10.145
17.36000 7.290
17.38000 0.068
17.40000 7.715
17.42000 -0.623
17.44000 2.382
17.46000 6.628
17.48000 8.300
17.50000 4.995
17.52000 3.965
17.54000 8.525
17.56000 1.991
17.58000 4.134
17.60000 13.441
17.62000 8.558
17.64000 -1.756
17.66000 -1.857
17.68000 2.363
17.70000 0.117
17.72000 0.086
17.74000 0.664
17.76000 4.052
17.78000 6.197
17.80000 3.893
17.82000 -0.688
17.84000 -3.407
17.86000 2.214
17.88000 9.404
17.90000 5.869
17.92000 6.179
17.94000 11.797
17.96000 3.095
17.98000 0.431
18.00000 4.763
18.02000 -4.391
18.04000 -1.935
18.06000 2.055
18.08000 -0.518
18.10000 3.992
18.12000 5.519
18.14000 6.936
18.16000 5.386
18.18000 0.867
18.20000 6.290
18.22000 7.794
18.24000 -1.169
18.26000 3.840
18.28000 7.454
18.30000 0.118
18.32000 2.766
18.34000 1.349
18.36000 -1.002
18.38000 3.217
18.40000 1.893
18.42000 2.843
18.44000 11.523
18.46000 8.973
18.48000 8.210
18.50000 5.340
18.52000 8.916
18.54000 4.202
18.56000 4.178
18.58000 7.955
18.60000 13.063
18.62000 11.231
18.64000 8.862
18.66000 1.333
18.68000 0.176
18.70000 0.067
18.72000 4.223
18.74000 0.041
18.76000 -1.119
18.78000 3.220
18.80000 -2.783
18.82000 1.612
18.84000 8.983
18.86000 9.031
18.88000 1.200
18.90000 0.806
18.92000 4.724
18.94000 11.787
18.96000 7.206
18.98000 5.281
19.00000 6.139
19.02000 7.672
19.04000 5.191
19.06000 0.434
19.08000 4.777
19.10000 15.542
19.12000 13.457
19.14000 2.884
19.16000 5.039
19.18000 7.819
19.20000 -0.498
19.22000 4.142
19.24000 10.297
19.26000 8.743
19.28000 11.084
19.30000 11.092
19.32000 7.676
19.34000 4.630
19.36000 2.891
19.38000 -3.025
19.40000 -4.281
19.42000 8.660
19.44000 12.069
19.46000 7.320
19.48000 4.156
19.50000 0.273
19.52000 4.533
19.54000 6.543
19.56000 9.874
19.58000 17.120
19.60000 11.979
19.62000 5.582
19.64000 5.855
19.66000 4.006
19.68000 6.337
19.70000 3.188
19.72000 2.870
19.74000 4.978
19.76000 5.527
19.78000 9.071
19.80000 1.518
19.82000 7.168
19.84000 7.178
19.86000 2.320
19.88000 2.321
19.90000 5.735
19.92000 2.900
19.94000 2.393
19.96000 5.085
19.98000 2.687
20.00000 8.200
20.02000 8.181
20.04000 1.298
20.06000 10.453
20.08000 3.330
20.10000 -2.052
20.12000 -2.013
20.14000 3.754
20.16000 5.742
20.18000 7.578
20.20000 6.898
20.22000 9.948
20.24000 11.892
20.26000 8.850
20.28000 14.096
20.30000 14.914
20.32000 7.600
20.34000 5.330
20.36000 14.918
20.38000 11.276
20.40000 3.929
20.42000 3.874
20.44000 6.836
20.46000 5.511
20.48000 9.855
20.50000 10.801
20.52000 11.944
20.54000 18.880
20.56000 11.492
20.58000 4.691
20.60000 9.170
20.62000 11.780
20.64000 16.129
20.66000 18.211
20.68000 9.144
20.70000 3.045
20.72000 5.558
20.74000 9.490
20.76000 11.522
20.78000 14.159
20.80000 7.896
20.82000 7.823
20.84000 10.275
20.86000 2.208
20.88000 -4.158
20.90000 2.738
20.92000 12.339
20.94000 12.069
20.96000 14.693
20.98000 11.512
21.00000 9.528
21.02000 5.281
21.04000 4.099
21.06000 5.141
21.08000 10.403
21.10000 11.187
21.12000 8.169
21.14000 8.958
21.16000 8.078
21.18000 9.517
21.20000 9.821
21.22000 12.127
21.24000 11.004
21.26000 4.218
21.28000 4.976
21.30000 10.191
21.32000 9.578
21.34000 5.546
21.36000 1.309
21.38000 4.978
21.40000 0.440
21.42000 3.560
21.44000 4.236
21.46000 3.404
21.48000 -0.788
21.50000 2.558
21.52000 5.077
21.54000 8.819
21.56000 7.469
21.58000 8.529
21.60000 2.310
21.62000 1.407
21.64000 12.593
21.66000 7.537
21.68000 8.510
21.70000 10.141
21.72000 12.550
21.74000 5.312
21.76000 5.625
21.78000 2.672
21.80000 -2.483
21.82000 0.496
21.84000 0.210
21.86000 -2.324
21.88000 0.737
21.90000 2.537
21.92000 9.916
21.94000 10.833
21.96000 9.919
21.98000 -0.291
22.00000 -3.247
22.02000 -0.059
22.04000 1.816
22.06000 2.112
22.08000 5.967
22.10000 4.237
22.12000 3.068
22.14000 1.980
22.16000 3.657
22.18000 2.985
22.20000 5.545
22.22000 4.314
22.24000 4.328
22.26000 4.476
22.28000 1.773
22.30000 8.203
22.32000 9.473
22.34000 5.826
22.36000 6.403
22.38000 0.028
22.40000 -0.410
22.42000 1.111
22.44000 -2.600
22.46000 -4.137
22.48000 4.087
22.50000 4.310
22.52000 3.043
22.54000 6.350
22.56000 5.644
22.58000 3.147
22.60000 -1.490
22.62000 3.794
22.64000 7.733
22.66000 2.174
22.68000 1.543
22.70000 4.950
22.72000 1.134
22.74000 -1.804
22.76000 2.765
22.78000 1.633
22.80000 -1.903
22.82000 4.257
22.84000 3.524
22.86000 8.003
22.88000 5.485
22.90000 2.828
22.92000 -0.720
22.94000 -0.316
22.96000 -1.663
22.98000 4.021
23.00000 10.336
23.02000 4.392
23.04000 -2.077
23.06000 0.425
23.08000 -2.334
23.10000 0.452
23.12000 4.692
23.14000 -1.720
23.16000 3.466
23.18000 3.104
23.20000 0.733
23.22000 -1.084
23.24000 5.359
23.26000 0.280
23.28000 -0.682
23.30000 1.219
23.32000 4.108
23.34000 -1.807
23.36000 -2.679
23.38000 -0.275
23.40000 0.351
23.42000 1.969
23.44000 2.172
23.46000 1.270
23.48000 4.220
23.50000 2.629
23.52000 3.330
23.54000 4.562
23.56000 0.794
23.58000 0.713
23.60000 0.578
23.62000 -4.069
23.64000 -2.745
23.66000 0.271
23.68000 2.970
23.70000 4.269
23.72000 1.895
23.74000 4.456
23.76000 3.361
23.78000 2.363
23.80000 3.117
23.82000 2.150
23.84000 3.312
23.86000 5.936
23.88000 6.714
23.90000 7.127
23.92000 5.144
23.94000 4.107
23.96000 6.968
23.98000 -0.691
24.00000 1.518
24.02000 3.903
24.04000 5.072
24.06000 3.999
24.08000 4.505
24.10000 7.857
24.12000 5.852
24.14000 1.577
24.16000 2.588
24.18000 5.644
24.20000 4.353
24.22000 4.132
24.24000 -2.147
24.26000 -0.034
24.28000 1.069
24.30000 2.861
24.32000 5.219
24.34000 0.139
24.36000 -2.053
24.38000 1.825
24.40000 -2.017
24.42000 -0.559
24.44000 1.269
24.46000 1.021
24.48000 2.314
24.50000 4.980
24.52000 3.380
24.54000 2.283
24.56000 8.207
24.58000 2.793
24.60000 -2.367
24.62000 1.844
24.64000 -1.060
24.66000 -4.013
24.68000 -2.757
24.70000 1.930
24.72000 0.685
24.74000 1.992
24.76000 5.880
24.78000 2.000
24.80000 1.505
24.82000 0.511
24.84000 1.943
24.86000 1.520
24.88000 -0.326
24.90000 3.094
24.92000 -2.838
24.94000 0.310
24.96000 4.312
24.98000 4.925
25.00000 2.763
25.02000 5.399
25.04000 6.082
25.06000 6.880
25.08000 10.837
25.10000 8.001
25.12000 7.214
25.14000 1.919
25.16000 1.233
25.18000 7.715
25.20000 9.216
25.22000 2.928
25.24000 -0.338
25.26000 1.832
25.28000 4.971
25.30000 2.103
25.32000 3.529
25.34000 7.088
25.36000 1.419
25.38000 8.281
25.40000 0.849
25.42000 -3.691
25.44000 -3.724
25.46000 -3.978
25.48000 1.971
25.50000 -1.104
25.52000 3.618
25.54000 3.660
25.56000 1.622
25.58000 -1.832
25.60000 -2.825
25.62000 -0.136
25.64000 3.096
25.66000 3.921
25.68000 2.967
25.70000 3.543
25.72000 5.682
25.74000 10.190
25.76000 12.118
25.78000 10.481
25.80000 -3.220
25.82000 -1.821
25.84000 0.060
25.86000 1.949
25.88000 2.303
25.90000 3.874
25.92000 6.727
25.94000 7.093
25.96000 8.725
25.98000 3.216
26.00000 2.983
26.02000 -1.360
26.04000 5.069
26.06000 9.467
26.08000 4.152
26.10000 2.917
26.12000 4.018
26.14000 2.672
26.16000 4.590
26.18000 4.144
26.20000 5.352
26.22000 -2.023
26.24000 1.059
26.26000 3.584
26.28000 0.666
26.30000 2.580
26.32000 1.162
26.34000 4.574
26.36000 2.860
26.38000 3.013
26.40000 0.561
26.42000 3.336
26.44000 -1.935
26.46000 -1.540
26.48000 5.396
26.50000 4.271
26.52000 1.551
26.54000 -1.272
26.56000 3.409
26.58000 4.170
26.60000 7.108
26.62000 4.046
26.64000 1.254
26.66000 3.457
26.68000 1.269
26.70000 1.266
26.72000 2.383
26.74000 5.598
26.76000 -2.376
26.78000 -3.877
26.80000 0.126
26.82000 1.424
26.84000 8.141
26.86000 11.182
26.88000 7.864
26.90000 1.713
26.92000 2.231
26.94000 3.822
26.96000 3.916
26.98000 3.558
27.00000 5.130
27.02000 9.166
27.04000 3.020
27.06000 4.324
27.08000 5.703
27.10000 7.275
27.12000 5.881
27.14000 2.410
27.16000 2.706
27.18000 1.156
27.20000 2.610
27.22000 5.660
27.24000 4.129
27.26000 1.117
27.28000 3.907
27.30000 3.635
27.32000 2.435
27.34000 1.945
27.36000 5.744
27.38000 7.372
27.40000 10.571
27.42000 9.223
27.44000 5.572
27.46000 2.690
27.48000 -0.325
27.50000 4.506
27.52000 3.569
27.54000 1.457
27.56000 6.827
27.58000 9.028
27.60000 2.609
27.62000 -1.640
27.64000 0.640
27.66000 1.696
27.68000 1.840
27.70000 10.048
27.72000 7.605
27.74000 7.410
27.76000 1.048
27.78000 -1.549
27.80000 -0.967
27.82000 -1.918
27.84000 -3.847
27.86000 -0.031
27.88000 4.001
27.90000 4.001
27.92000 6.080
27.94000 5.325
27.96000 2.655
27.98000 -2.265
28.00000 0.168
28.02000 5.787
28.04000 0.600
28.06000 1.008
28.08000 5.238
28.10000 5.260
28.12000 5.563
28.14000 1.838
28.16000 -1.957
28.18000 1.712
28.20000 2.403
28.22000 3.390
28.24000 1.085
28.26000 4.372
28.28000 3.965
28.30000 4.094
28.32000 4.595
28.34000 2.732
28.36000 1.423
28.38000 1.252
28.40000 0.480
28.42000 0.109
28.44000 1.941
28.46000 2.277
28.48000 2.992
28.50000 3.471
28.52000 3.353
28.54000 1.192
28.56000 1.865
28.58000 1.147
28.60000 1.233
28.62000 2.548
28.64000 3.861
28.66000 3.478
28.68000 2.636
28.70000 2.789
28.72000 5.571
28.74000 11.534
28.76000 9.532
28.78000 1.942
28.80000 -2.013
28.82000 2.173
28.84000 3.494
28.86000 -0.814
28.88000 0.040
28.90000 -3.209
28.92000 -1.887
28.94000 3.920
28.96000 7.097
28.98000 3.344
29.00000 -0.624
29.02000 0.256
29.04000 1.171
29.06000 1.231
29.08000 1.364
29.10000 0.974
29.12000 5.546
29.14000 -1.400
29.16000 -1.314
29.18000 -0.712
29.20000 2.015
29.22000 2.867
29.24000 -3.168
29.26000 -0.985
29.28000 1.126
29.30000 -2.087
29.32000 2.356
29.34000 3.245
29.36000 6.068
29.38000 1.391
29.40000 1.738
29.42000 0.897
29.44000 1.642
29.46000 5.548
29.48000 6.414
29.50000 4.412
29.52000 5.652
29.54000 6.180
29.56000 8.567
29.58000 8.568
29.60000 2.136
29.62000 -0.868
29.64000 0.367
29.66000 0.300
29.68000 1.946
29.70000 5.877
29.72000 -0.819
29.74000 3.516
29.76000 5.891
29.78000 5.748
29.80000 3.124
29.82000 0.851
29.84000 -3.726
29.86000 -1.994
29.88000 4.697
29.90000 3.188
29.92000 1.348
29.94000 6.624
29.96000 2.933
29.98000 -2.869
30.00000 -3.114
30.02000 1.100
30.04000 -0.402
30.06000 -3.506
30.08000 3.085
30.10000 3.303
30.12000 -0.673
30.14000 -2.167
30.16000 0.087
30.18000 -1.496
30.20000 1.733
30.22000 5.078
30.24000 1.195
30.26000 0.394
30.28000 2.648
30.30000 1.051
30.32000 6.375
30.34000 2.080
30.36000 1.238
30.38000 -3.181
30.40000 0.815
30.42000 1.272
30.44000 4.657
30.46000 0.888
30.48000 3.315
30.50000 3.515
30.52000 2.048
30.54000 2.036
30.56000 3.930
30.58000 7.759
30.60000 2.542
30.62000 1.753
30.64000 1.581
30.66000 0.129
30.68000 0.772
30.70000 4.532
30.72000 7.487
30.74000 -2.098
30.76000 3.415
30.78000 4.203
30.80000 3.259
30.82000 1.282
30.84000 -0.211
30.86000 5.460
30.88000 2.550
30.90000 0.892
30.92000 5.581
30.94000 7.833
30.96000 10.000
30.98000 7.879
31.00000 4.530
31.02000 0.254
31.04000 -1.006
31.06000 4.511
31.08000 2.286
31.10000 4.987
31.12000 4.258
31.14000 3.027
31.16000 4.616
31.18000 5.643
31.20000 3.793
31.22000 2.306
31.24000 -1.483
31.26000 -3.475
31.28000 -1.847
31.30000 0.478
31.32000 4.549
31.34000 6.640
31.36000 3.365
31.38000 0.922
31.40000 0.401
31.42000 -2.434
31.44000 -3.633
31.46000 -1.820
31.48000 1.998
31.50000 6.801
31.52000 9.219
31.54000 6.565
31.56000 8.070
31.58000 10.111
31.60000 1.260
31.62000 -0.466
31.64000 1.485
31.66000 1.452
31.68000 3.966
31.70000 5.099
31.72000 4.461
31.74000 4.761
31.76000 6.127
31.78000 5.231
31.80000 4.896
31.82000 0.124
31.84000 1.134
31.86000 1.348
31.88000 1.842
31.90000 8.619
31.92000 9.910
31.94000 3.127
31.96000 1.482
31.98000 -3.512
32.00000 -1.954
32.02000 -1.417
32.04000 2.174
32.06000 -2.666
32.08000 -3.532
32.10000 0.814
32.12000 3.526
32.14000 2.639
32.16000 3.404
32.18000 6.601
32.20000 6.929
32.22000 7.358
32.24000 7.153
32.26000 8.487
32.28000 1.887
32.30000 -0.310
32.32000 0.177
32.34000 4.459
32.36000 4.327
32.38000 4.917
32.40000 0.804
32.42000 0.563
32.44000 2.496
32.46000 -0.022
32.48000 -2.002
32.50000 0.139
32.52000 -0.177
32.54000 3.408
32.56000 -2.530
32.58000 0.020
32.60000 1.724
32.62000 0.930
32.64000 1.751
32.66000 2.290
32.68000 2.088
32.70000 3.196
32.72000 -3.651
32.74000 -2.095
32.76000 1.910
32.78000 1.738
32.80000 2.061
32.82000 -0.169
32.84000 2.240
32.86000 2.090
32.88000 -2.034
32.90000 1.929
32.92000 3.232
32.94000 1.475
32.96000 5.535
32.98000 1.729
33.00000 -0.653
33.02000 -3.019
33.04000 0.267
33.06000 -1.444
33.08000 -3.651
33.10000 -3.260
33.12000 -1.261
33.14000 -0.544
33.16000 1.907
33.18000 2.265
33.20000 2.935
33.22000 -0.130
33.24000 0.775
33.26000 0.532
33.28000 0.554
33.30000 1.590
33.32000 0.767
33.34000 1.611
33.36000 -1.113
33.38000 -2.488
33.40000 -2.123
33.42000 -2.050
33.44000 2.854
33.46000 0.558
33.48000 2.964
33.50000 3.725
33.52000 -1.627
33.54000 2.143
33.56000 4.358
33.58000 2.678
33.60000 2.777
33.62000 0.196
33.64000 1.977
33.66000 9.929
33.68000 5.915
33.70000 3.279
33.72000 4.086
33.74000 2.557
33.76000 3.107
33.78000 4.900
33.80000 7.123
33.82000 1.195
33.84000 -0.910
33.86000 1.811
33.88000 2.884
33.90000 -3.627
33.92000 1.910
33.94000 0.904
33.96000 1.889
33.98000 4.652
34.00000 4.234
34.02000 4.820
34.04000 6.561
34.06000 4.953
34.08000 1.128
34.10000 7.109
34.12000 2.374
34.14000 0.635
34.16000 0.862
34.18000 4.368
34.20000 5.442
34.22000 1.136
34.24000 -2.211
34.26000 -1.396
34.28000 4.945
34.30000 2.334
34.32000 0.592
34.34000 3.722
34.36000 5.100
34.38000 0.732
34.40000 -0.610
34.42000 -0.394
34.44000 4.150
34.46000 2.681
34.48000 0.673
34.50000 2.963
34.52000 3.451
34.54000 1.264
34.56000 0.682
34.58000 2.071
34.60000 3.154
34.62000 5.887
34.64000 6.137
34.66000 5.115
34.68000 1.911
34.70000 1.842
34.72000 0.342
34.74000 4.995
34.76000 3.549
34.78000 4.243
34.80000 4.868
34.82000 1.973
34.84000 0.781
34.86000 -1.573
34.88000 -3.375
34.90000 0.770
34.92000 1.000
34.94000 -0.574
34.96000 -0.878
34.98000 -2.581
35.00000 0.871
35.02000 5.041
35.04000 3.117
35.06000 4.979
35.08000 2.146
35.10000 3.019
35.12000 5.172
35.14000 4.607
35.16000 4.802
35.18000 2.408
35.20000 -0.526
35.22000 3.156
35.24000 -3.591
35.26000 -1.286
35.28000 5.630
35.30000 3.520
35.32000 3.756
35.34000 5.732
35.36000 0.086
35.38000 -2.926
35.40000 -1.611
35.42000 -0.079
35.44000 -1.683
35.46000 0.170
35.48000 2.123
35.50000 6.408
35.52000 7.931
35.54000 0.503
35.56000 -3.563
35.58000 -2.188
35.60000 1.452
35.62000 5.924
35.64000 2.557
35.66000 -0.740
35.68000 0.395
35.70000 5.480
35.72000 1.932
35.74000 3.021
35.76000 2.829
35.78000 1.356
35.80000 0.295
35.82000 -0.791
35.84000 0.556
35.86000 1.452
35.88000 2.432
35.90000 0.040
35.92000 -0.151
35.94000 0.411
35.96000 -0.755
35.98000 2.034
36.00000 -1.577
36.02000 -2.664
36.04000 -2.902
36.06000 -0.511
36.08000 4.496
36.10000 3.761
36.12000 5.168
36.14000 3.289
36.16000 1.153
36.18000 -2.193
36.20000 0.350
36.22000 0.798
36.24000 -1.581
36.26000 -0.900
36.28000 -0.730
36.30000 1.092
36.32000 4.019
36.34000 2.851
36.36000 4.762
36.38000 5.121
36.40000 1.979
36.42000 -1.259
36.44000 0.833
36.46000 1.632
36.48000 -1.031
36.50000 -3.629
36.52000 -1.075
36.54000 1.797
36.56000 4.447
36.58000 4.479
36.60000 4.937
36.62000 5.114
36.64000 1.742
36.66000 -1.395
36.68000 5.562
36.70000 3.394
36.72000 4.172
36.74000 4.170
36.76000 2.177
36.78000 4.186
36.80000 7.278
36.82000 6.079
36.84000 -1.540
36.86000 1.874
36.88000 4.305
36.90000 -2.000
36.92000 0.224
36.94000 3.557
36.96000 0.138
36.98000 -3.686
37.00000 0.546
37.02000 4.758
37.04000 3.901
37.06000 1.116
37.08000 -0.804
37.10000 -0.570
37.12000 0.635
37.14000 0.240
37.16000 1.275
37.18000 1.959
37.20000 3.759
37.22000 6.212
37.24000 0.567
37.26000 0.651
37.28000 3.583
37.30000 0.295
37.32000 -1.515
37.34000 5.937
37.36000 4.166
37.38000 4.533
37.40000 0.947
37.42000 1.946
37.44000 2.601
37.46000 4.733
37.48000 4.194
37.50000 2.994
37.52000 5.450
37.54000 9.733
37.56000 6.385
37.58000 8.041
37.60000 4.650
37.62000 4.954
37.64000 8.944
37.66000 8.295
37.68000 5.658
37.70000 6.129
37.72000 6.916
37.74000 11.076
37.76000 14.042
37.78000 12.992
37.80000 10.123
37.82000 8.564
37.84000 9.700
37.86000 13.407
37.88000 12.984
37.90000 11.130
37.92000 15.668
37.94000 10.852
37.96000 8.477
37.98000 13.581
38.00000 16.376
38.02000 12.869
38.04000 13.926
38.06000 13.978
38.08000 17.157
38.10000 26.025
38.12000 29.816
38.14000 21.649
38.16000 19.800
38.18000 28.683
38.20000 28.277
38.22000 25.450
38.24000 21.280
38.26000 22.998
38.28000 23.906
38.30000 22.996
38.32000 27.582
38.34000 36.380
38.36000 36.613
38.38000 31.143
38.40000 30.852
38.42000 29.801
38.44000 28.709
38.46000 35.206
38.48000 40.843
38.50000 36.933
38.52000 35.039
38.54000 39.163
38.56000 38.709
38.58000 42.665
38.60000 43.167
38.62000 44.634
38.64000 43.981
38.66000 49.524
38.68000 52.102
38.70000 52.102
38.72000 60.064
38.74000 58.861
38.76000 58.637
38.78000 66.933
38.80000 65.384
38.82000 64.581
38.84000 67.558
38.86000 73.262
38.88000 75.892
38.90000 84.597
38.92000 83.080
38.94000 85.750
38.96000 87.469
38.98000 89.370
39.00000 88.540
39.02000 94.513
39.04000 105.687
39.06000 106.409
39.08000 109.364
39.10000 111.742
39.12000 124.358
39.14000 132.109
39.16000 137.859
39.18000 143.299
39.20000 149.100
39.22000 158.744
39.24000 159.678
39.26000 172.482
39.28000 179.634
39.30000 186.170
39.32000 187.472
39.34000 208.962
39.36000 217.711
39.38000 227.195
39.40000 236.688
39.42000 250.710
39.44000 256.537
39.46000 258.987
39.48000 275.308
39.50000 295.969
39.52000 315.226
39.54000 323.985
39.56000 342.542
39.58000 357.833
39.60000 378.073
39.62000 396.273
39.64000 406.957
39.66000 422.095
39.68000 437.766
39.70000 465.381
39.72000 483.950
39.74000 501.465
39.76000 516.047
39.78000 534.776
39.80000 557.485
39.82000 580.062
39.84000 595.695
39.86000 615.855
39.88000 639.372
39.90000 654.873
39.92000 670.466
39.94000 683.222
39.96000 693.505
39.98000 709.396
40.00000 720.564
40.02000 732.780
40.04000 731.690
40.06000 737.975
40.08000 737.251
40.10000 740.277
40.12000 737.337
40.14000 735.112
40.16000 712.042
40.18000 713.901
40.20000 718.097
40.22000 722.422
40.24000 715.534
40.26000 697.458
40.28000 683.797
40.30000 660.220
40.32000 631.462
40.34000 609.692
40.36000 598.870
40.38000 588.543
40.40000 573.553
40.42000 535.472
40.44000 516.476
40.46000 493.892
40.48000 471.444
40.50000 456.900
40.52000 423.265
40.54000 405.576
40.56000 398.724
40.58000 379.623
40.60000 357.171
40.62000 334.323
40.64000 323.183
40.66000 312.274
40.68000 279.547
40.70000 271.839
40.72000 250.709
40.74000 239.207
40.76000 229.755
40.78000 221.899
40.80000 204.682
40.82000 189.183
40.84000 179.665
40.86000 167.989
40.88000 154.307
40.90000 145.296
40.92000 138.943
40.94000 133.611
40.96000 132.143
40.98000 120.298
41.00000 109.327
41.02000 101.987
41.04000 95.779
41.06000 93.825
41.08000 89.281
41.10000 78.504
41.12000 72.718
41.14000 70.215
41.16000 68.818
41.18000 59.043
41.20000 54.374
41.22000 55.304
41.24000 56.795
41.26000 56.112
41.28000 53.473
41.30000 54.421
41.32000 48.279
41.34000 46.563
41.36000 40.366
41.38000 36.989
41.40000 32.438
41.42000 31.790
41.44000 31.984
41.46000 25.382
41.48000 24.531
41.50000 24.210
41.52000 25.084
41.54000 23.146
41.56000 21.455
41.58000 17.276
41.60000 13.768
41.62000 14.248
41.64000 18.017
41.66000 14.128
41.68000 14.420
41.70000 17.746
41.72000 16.337
41.74000 17.650
41.76000 16.860
41.78000 13.498
41.80000 13.782
41.82000 11.321
41.84000 8.158
41.86000 8.058
41.88000 7.990
41.90000 5.952
41.92000 4.640
41.94000 5.735
41.96000 8.070
41.98000 0.734
42.00000 3.093
42.02000 6.989
42.04000 5.558
42.06000 5.421
42.08000 3.008
42.10000 -0.042
42.12000 3.538
42.14000 -0.037
42.16000 2.289
42.18000 6.176
42.20000 2.728
42.22000 2.419
42.24000 2.816
42.26000 4.139
42.28000 5.226
42.30000 3.681
42.32000 3.253
42.34000 4.147
42.36000 5.599
42.38000 5.739
42.40000 2.886
42.42000 -2.783
42.44000 -0.524
42.46000 -2.629
42.48000 1.162
42.50000 0.661
42.52000 -3.666
42.54000 1.784
42.56000 2.676
42.58000 -2.869
42.60000 0.564
42.62000 0.537
42.64000 -0.831
42.66000 -2.509
42.68000 2.034
42.70000 -0.719
42.72000 0.385
42.74000 4.887
42.76000 1.365
42.78000 -2.753
42.80000 -1.886
42.82000 -2.805
42.84000 -0.833
42.86000 -0.811
42.88000 1.370
42.90000 2.836
42.92000 0.035
42.94000 1.408
42.96000 6.025
42.98000 4.667
43.00000 1.628
43.02000 1.226
43.04000 4.853
43.06000 2.519
43.08000 6.166
43.10000 2.748
43.12000 1.030
43.14000 3.198
43.16000 0.283
43.18000 -1.118
43.20000 -3.585
43.22000 -2.460
43.24000 -1.732
43.26000 2.817
43.28000 2.802
43.30000 2.439
43.32000 -2.355
43.34000 0.847
43.36000 3.869
43.38000 6.633
43.40000 3.153
43.42000 3.049
43.44000 4.156
43.46000 3.058
43.48000 3.677
43.50000 1.427
43.52000 0.021
43.54000 2.494
43.56000 2.595
43.58000 -0.200
43.60000 -3.545
43.62000 -0.633
43.64000 5.578
43.66000 5.243
43.68000 4.686
43.70000 6.336
43.72000 7.087
43.74000 5.625
43.76000 -0.748
43.78000 2.171
43.80000 2.268
43.82000 2.934
43.84000 2.499
43.86000 2.261
43.88000 1.938
43.90000 -0.069
43.92000 -0.863
43.94000 2.482
43.96000 5.988
43.98000 5.710
44.00000 0.432
44.02000 2.115
44.04000 -3.439
44.06000 -3.343
44.08000 2.639
44.10000 5.935
44.12000 1.310
44.14000 5.746
44.16000 6.638
44.18000 6.931
44.20000 6.757
44.22000 -2.533
44.24000 -2.312
44.26000 -2.740
44.28000 -0.530
44.30000 -3.570
44.32000 -3.475
44.34000 0.944
44.36000 7.302
44.38000 10.605
44.40000 4.744
44.42000 6.273
44.44000 4.921
44.46000 5.584
44.48000 4.894
44.50000 3.800
44.52000 4.780
44.54000 4.166
44.56000 0.040
44.58000 3.862
44.60000 2.724
44.62000 1.107
44.64000 1.187
44.66000 0.593
44.68000 -2.190
44.70000 -0.068
44.72000 3.047
44.74000 4.666
44.76000 5.679
44.78000 6.086
44.80000 6.331
44.82000 3.285
44.84000 2.359
44.86000 2.048
44.88000 -2.754
44.90000 -0.069
44.92000 4.992
44.94000 11.735
44.96000 12.508
44.98000 10.858
45.00000 12.722
45.02000 12.235
45.04000 13.398
45.06000 7.588
45.08000 1.918
45.10000 4.116
45.12000 8.306
45.14000 9.001
45.16000 10.386
45.18000 11.502
45.20000 13.750
45.22000 18.852
45.24000 15.792
45.26000 17.251
45.28000 18.151
45.30000 14.371
45.32000 12.369
45.34000 13.193
45.36000 15.808
45.38000 17.983
45.40000 23.308
45.42000 18.681
45.44000 18.399
45.46000 15.963
45.48000 17.643
45.50000 21.520
45.52000 22.963
45.54000 28.047
45.56000 32.398
45.58000 26.291
45.60000 25.924
45.62000 28.971
45.64000 30.281
45.66000 32.125
45.68000 28.406
45.70000 28.762
45.72000 31.230
45.74000 34.570
45.76000 34.425
45.78000 34.928
45.80000 40.482
45.82000 44.351
45.84000 48.451
45.86000 47.117
45.88000 42.547
45.90000 41.568
45.92000 42.463
45.94000 49.684
45.96000 46.297
45.98000 49.167
46.00000 51.342
46.02000 49.149
46.04000 52.024
46.06000 56.125
46.08000 58.833
46.10000 60.413
46.12000 55.732
46.14000 59.369
46.16000 58.677
46.18000 62.187
46.20000 63.674
46.22000 61.962
46.24000 62.125
46.26000 64.376
46.28000 72.695
46.30000 72.397
46.32000 72.933
46.34000 71.644
46.36000 71.747
46.38000 66.363
46.40000 70.743
46.42000 77.110
46.44000 76.500
46.46000 78.386
46.48000 81.638
46.50000 80.851
46.52000 80.020
46.54000 79.902
46.56000 79.141
46.58000 74.698
46.60000 80.589
46.62000 87.597
46.64000 87.039
46.66000 85.427
46.68000 86.747
46.70000 87.941
46.72000 75.901
46.74000 84.130
46.76000 93.952
46.78000 83.525
46.80000 76.567
46.82000 79.322
46.84000 80.017
46.86000 77.205
46.88000 78.833
46.90000 79.810
46.92000 77.499
46.94000 78.798
46.96000 75.172
46.98000 68.041
47.00000 68.050
47.02000 67.568
47.04000 65.246
47.06000 62.060
47.08000 62.886
47.10000 62.434
47.12000 61.187
47.14000 60.302
47.16000 56.382
47.18000 53.937
47.20000 55.793
47.22000 52.151
47.24000 46.851
47.26000 45.495
47.28000 49.762
47.30000 50.048
47.32000 48.515
47.34000 44.057
47.36000 38.895
47.38000 43.686
47.40000 42.621
47.42000 37.007
47.44000 37.106
47.46000 36.452
47.48000 31.846
47.50000 31.575
47.52000 31.915
47.54000 29.494
47.56000 38.187
47.58000 33.028
47.60000 26.513
47.62000 16.140
47.64000 19.816
47.66000 26.640
47.68000 24.342
47.70000 17.745
47.72000 15.739
47.74000 17.001
47.76000 17.753
47.78000 18.506
47.80000 16.460
47.82000 21.309
47.84000 21.034
47.86000 10.003
47.88000 10.907
47.90000 15.038
47.92000 9.649
47.94000 10.135
47.96000 9.407
47.98000 5.105
48.00000 9.177
48.02000 6.201
48.04000 7.815
48.06000 8.049
48.08000 7.463
48.10000 7.243
48.12000 10.623
48.14000 5.838
48.16000 8.509
48.18000 11.135
48.20000 11.663
48.22000 11.271
48.24000 9.772
48.26000 5.931
48.28000 4.072
48.30000 5.450
48.32000 5.477
48.34000 7.402
48.36000 6.827
48.38000 -0.690
48.40000 4.529
48.42000 5.295
48.44000 2.525
48.46000 1.275
48.48000 4.185
48.50000 10.525
48.52000 7.152
48.54000 3.235
48.56000 3.659
48.58000 5.076
48.60000 1.262
48.62000 -0.294
48.64000 -0.444
48.66000 -3.254
48.68000 2.692
48.70000 3.225
48.72000 3.917
48.74000 0.639
48.76000 -2.868
48.78000 -1.620
48.80000 0.999
48.82000 1.250
48.84000 1.331
48.86000 -1.318
48.88000 -2.400
48.90000 -2.559
48.92000 -0.057
48.94000 1.556
48.96000 1.013
48.98000 4.058
49.00000 -1.836
49.02000 -1.477
49.04000 -2.872
49.06000 -1.715
49.08000 6.472
49.10000 12.370
49.12000 6.810
49.14000 2.555
49.16000 1.156
49.18000 5.413
49.20000 4.453
49.22000 1.595
49.24000 -0.942
49.26000 1.288
49.28000 -1.665
49.30000 -0.564
49.32000 -1.359
49.34000 -0.620
49.36000 2.355
49.38000 6.927
49.40000 5.216
49.42000 0.038
49.44000 3.222
49.46000 6.641
49.48000 2.724
49.50000 5.451
49.52000 6.363
49.54000 1.811
49.56000 4.014
49.58000 5.460
49.60000 5.932
49.62000 5.861
49.64000 5.742
49.66000 -1.030
49.68000 -3.118
49.70000 6.113
49.72000 2.876
49.74000 -0.229
49.76000 3.777
49.78000 1.434
49.80000 5.728
49.82000 6.893
49.84000 12.640
49.86000 9.611
49.88000 7.007
49.90000 8.751
49.92000 4.234
49.94000 2.378
49.96000 6.242
49.98000 2.826
50.00000 0.172
50.02000 0.984
50.04000 7.554
50.06000 6.967
50.08000 7.297
50.10000 3.873
50.12000 5.179
50.14000 4.601
50.16000 5.533
50.18000 3.910
50.20000 7.319
50.22000 3.987
50.24000 0.915
50.26000 1.291
50.28000 3.524
50.30000 1.907
50.32000 -1.215
50.34000 -0.132
50.36000 11.002
50.38000 9.588
50.40000 7.360
50.42000 4.008
50.44000 3.540
50.46000 -3.034
50.48000 1.091
50.50000 -0.998
50.52000 -0.122
50.54000 0.414
50.56000 1.964
50.58000 3.778
50.60000 5.262
50.62000 9.631
50.64000 9.764
50.66000 5.646
50.68000 2.715
50.70000 1.936
50.72000 4.830
50.74000 9.291
50.76000 8.025
50.78000 10.210
50.80000 7.501
50.82000 6.948
50.84000 6.990
50.86000 2.627
50.88000 1.973
50.90000 0.610
50.92000 6.388
50.94000 6.483
50.96000 3.826
50.98000 5.525
51.00000 2.416
51.02000 3.025
51.04000 5.541
51.06000 6.616
51.08000 2.538
51.10000 0.521
51.12000 5.024
51.14000 8.836
51.16000 7.072
51.18000 4.438
51.20000 2.704
51.22000 5.549
51.24000 4.038
51.26000 0.815
51.28000 3.908
51.30000 0.338
51.32000 1.725
51.34000 6.118
51.36000 -0.763
51.38000 3.287
51.40000 8.979
51.42000 17.888
51.44000 7.253
51.46000 -3.007
51.48000 4.769
51.50000 6.232
51.52000 10.445
51.54000 6.186
51.56000 -0.388
51.58000 -2.095
51.60000 0.568
51.62000 1.049
51.64000 3.472
51.66000 7.980
51.68000 10.737
51.70000 8.496
51.72000 7.832
51.74000 1.880
51.76000 5.155
51.78000 4.354
51.80000 3.601
51.82000 1.935
51.84000 0.654
51.86000 6.827
51.88000 7.207
51.90000 4.931
51.92000 3.043
51.94000 1.281
51.96000 2.614
51.98000 5.555
52.00000 5.532
52.02000 3.393
52.04000 3.371
52.06000 -1.066
52.08000 0.717
52.10000 4.886
52.12000 6.143
52.14000 4.253
52.16000 1.452
52.18000 7.463
52.20000 4.353
52.22000 6.852
52.24000 4.439
52.26000 0.480
52.28000 0.429
52.30000 1.047
52.32000 -1.912
52.34000 4.403
52.36000 -2.024
52.38000 -0.107
52.40000 -3.010
52.42000 -1.733
52.44000 2.283
52.46000 0.289
52.48000 -1.110
52.50000 1.860
52.52000 5.059
52.54000 8.272
52.56000 9.975
52.58000 5.946
52.60000 1.530
52.62000 1.928
52.64000 3.681
52.66000 -1.462
52.68000 -0.908
52.70000 3.399
52.72000 4.252
52.74000 4.675
52.76000 2.305
52.78000 0.278
52.80000 -1.875
52.82000 1.967
52.84000 5.144
52.86000 4.227
52.88000 -0.428
52.90000 -1.569
52.92000 3.555
52.94000 1.798
52.96000 1.992
52.98000 4.398
53.00000 3.431
53.02000 1.908
53.04000 5.529
53.06000 4.731
53.08000 6.926
53.10000 8.574
53.12000 5.592
53.14000 4.965
53.16000 5.798
53.18000 4.954
53.20000 4.418
53.22000 3.181
53.24000 3.628
53.26000 5.110
53.28000 4.375
53.30000 -0.241
53.32000 0.819
53.34000 6.261
53.36000 7.335
53.38000 10.680
53.40000 7.863
53.42000 10.838
53.44000 8.606
53.46000 6.165
53.48000 2.491
53.50000 7.248
53.52000 8.874
53.54000 11.559
53.56000 2.587
53.58000 1.314
53.60000 -1.129
53.62000 3.054
53.64000 4.323
53.66000 3.620
53.68000 6.341
53.70000 8.305
53.72000 1.980
53.74000 7.479
53.76000 12.149
53.78000 4.660
53.80000 3.545
53.82000 3.893
53.84000 2.532
53.86000 -2.937
53.88000 5.594
53.90000 6.375
53.92000 6.735
53.94000 5.910
53.96000 4.847
53.98000 4.392
54.00000 -0.594
54.02000 -2.926
54.04000 1.141
54.06000 8.126
54.08000 4.876
54.10000 1.380
54.12000 -0.647
54.14000 5.998
54.16000 8.652
54.18000 10.316
54.20000 7.893
54.22000 7.254
54.24000 3.624
54.26000 2.574
54.28000 3.564
54.30000 8.481
54.32000 6.910
54.34000 3.657
54.36000 0.210
54.38000 3.890
54.40000 0.830
54.42000 -0.892
54.44000 -0.293
54.46000 8.745
54.48000 2.712
54.50000 3.562
54.52000 4.458
54.54000 3.454
54.56000 -2.918
54.58000 1.137
54.60000 1.983
54.62000 3.973
54.64000 2.097
54.66000 1.480
54.68000 1.779
54.70000 2.548
54.72000 11.345
54.74000 6.525
54.76000 5.920
54.78000 6.895
54.80000 3.621
54.82000 4.534
54.84000 0.721
54.86000 1.366
54.88000 3.701
54.90000 5.167
54.92000 1.336
54.94000 5.672
54.96000 4.813
54.98000 4.430
55.00000 3.585
55.02000 1.538
55.04000 5.936
55.06000 4.012
55.08000 1.910
55.10000 3.052
55.12000 3.930
55.14000 6.218
55.16000 4.297
55.18000 3.479
55.20000 -1.487
55.22000 -0.063
55.24000 3.009
55.26000 6.001
55.28000 3.496
55.30000 7.837
55.32000 7.452
55.34000 1.933
55.36000 1.912
55.38000 3.118
55.40000 3.389
55.42000 1.017
55.44000 4.870
55.46000 5.828
55.48000 1.912
55.50000 2.633
55.52000 0.139
55.54000 7.834
55.56000 6.140
55.58000 7.108
55.60000 9.005
55.62000 7.464
55.64000 5.008
55.66000 5.722
55.68000 5.736
55.70000 1.855
55.72000 6.334
55.74000 3.581
55.76000 -0.088
55.78000 3.524
55.80000 7.681
55.82000 3.017
55.84000 -1.290
55.86000 0.927
55.88000 1.580
55.90000 -1.426
55.92000 -2.901
55.94000 -0.102
55.96000 9.113
55.98000 6.791
56.00000 7.685
56.02000 9.750
56.04000 4.928
56.06000 3.097
56.08000 3.015
56.10000 4.585
56.12000 4.051
56.14000 -0.614
56.16000 1.846
56.18000 3.193
56.20000 3.380
56.22000 3.902
56.24000 4.585
56.26000 -0.433
56.28000 0.284
56.30000 2.242
56.32000 7.151
56.34000 14.201
56.36000 9.386
56.38000 9.003
56.40000 3.752
56.42000 4.559
56.44000 3.755
56.46000 1.575
56.48000 6.127
56.50000 5.269
56.52000 7.372
56.54000 6.384
56.56000 7.376
56.58000 1.254
56.60000 1.491
56.62000 -0.449
56.64000 3.677
56.66000 4.031
56.68000 10.874
56.70000 9.638
56.72000 9.603
56.74000 12.233
56.76000 11.589
56.78000 4.434
56.80000 5.342
56.82000 6.045
56.84000 2.367
56.86000 5.223
56.88000 5.207
56.90000 6.009
56.92000 7.286
56.94000 8.966
56.96000 3.928
56.98000 -2.845
57.00000 -1.210
57.02000 9.947
57.04000 15.585
57.06000 13.487
57.08000 2.294
57.10000 3.516
57.12000 1.601
57.14000 5.590
57.16000 12.184
57.18000 9.996
57.20000 4.580
57.22000 -2.843
57.24000 3.300
57.26000 7.223
57.28000 5.760
57.30000 5.192
57.32000 6.143
57.34000 3.777
57.36000 4.147
57.38000 4.203
57.40000 1.243
57.42000 1.620
57.44000 4.812
57.46000 7.718
57.48000 12.048
57.50000 5.605
57.52000 4.561
57.54000 3.135
57.56000 1.780
57.58000 4.986
57.60000 3.317
57.62000 4.909
57.64000 6.319
57.66000 10.921
57.68000 6.864
57.70000 8.034
57.72000 4.177
57.74000 6.472
57.76000 5.947
57.78000 6.538
57.80000 2.580
57.82000 1.667
57.84000 -2.201
57.86000 1.322
57.88000 2.040
57.90000 7.497
57.92000 6.668
57.94000 3.664
57.96000 3.404
57.98000 3.578
58.00000 4.940
58.02000 1.688
58.04000 -2.815
58.06000 3.136
58.08000 7.104
58.10000 5.970
58.12000 4.778
58.14000 2.576
58.16000 2.834
58.18000 -1.389
58.20000 -0.533
58.22000 3.739
58.24000 2.945
58.26000 0.256
58.28000 -2.801
58.30000 1.963
58.32000 7.977
58.34000 4.299
58.36000 6.587
58.38000 7.373
58.40000 6.926
58.42000 3.545
58.44000 -2.802
58.46000 -2.787
58.48000 2.284
58.50000 4.404
58.52000 2.635
58.54000 5.320
58.56000 9.996
58.58000 7.111
58.60000 3.035
58.62000 0.422
58.64000 -1.399
58.66000 0.303
58.68000 5.882
58.70000 3.799
58.72000 5.661
58.74000 3.795
58.76000 0.534
58.78000 3.041
58.80000 9.486
58.82000 11.113
58.84000 5.992
58.86000 1.467
58.88000 -1.849
58.90000 0.852
58.92000 2.304
58.94000 3.912
58.96000 2.306
58.98000 6.238
59.00000 8.437
59.02000 8.593
59.04000 5.449
59.06000 3.559
59.08000 2.825
59.10000 0.126
59.12000 -1.042
59.14000 2.821
59.16000 2.352
59.18000 6.151
59.20000 4.942
59.22000 2.771
59.24000 4.885
59.26000 7.257
59.28000 6.040
59.30000 10.188
59.32000 4.742
59.34000 0.490
59.36000 7.402
59.38000 3.183
59.40000 8.825
59.42000 6.418
59.44000 4.529
59.46000 2.429
59.48000 -0.294
59.50000 1.765
59.52000 2.760
59.54000 0.675
59.56000 2.688
59.58000 5.226
59.60000 5.588
59.62000 7.839
59.64000 4.378
59.66000 -2.751
59.68000 6.239
59.70000 11.586
59.72000 6.569
59.74000 6.651
59.76000 2.386
59.78000 -0.072
59.80000 0.523
59.82000 4.558
59.84000 3.422
59.86000 2.182
59.88000 2.890
59.90000 5.352
59.92000 4.202
59.94000 6.053
59.96000 5.153
59.98000 4.991
60.00000 7.119
60.02000 9.874
60.04000 8.742
60.06000 6.735
60.08000 8.156
60.10000 5.196
60.12000 6.080
60.14000 4.030
60.16000 -1.561
60.18000 1.361
60.20000 6.535
60.22000 0.891
60.24000 1.755
60.26000 5.580
60.28000 4.555
60.30000 4.798
60.32000 4.687
60.34000 5.443
60.36000 0.940
60.38000 3.460
60.40000 4.656
60.42000 3.737
60.44000 1.976
60.46000 0.894
60.48000 1.563
60.50000 0.200
60.52000 5.888
60.54000 8.991
60.56000 6.574
60.58000 2.857
60.60000 1.500
60.62000 -2.012
60.64000 -0.043
60.66000 2.486
60.68000 0.873
60.70000 1.413
60.72000 -0.442
60.74000 -2.735
60.76000 -0.507
60.78000 5.047
60.80000 2.388
60.82000 -1.625
60.84000 -1.351
60.86000 0.011
60.88000 -1.056
60.90000 3.033
60.92000 3.658
60.94000 4.303
60.96000 1.133
60.98000 -0.798
61.00000 0.132
61.02000 4.051
61.04000 3.735
61.06000 2.753
61.08000 3.578
61.10000 3.964
61.12000 0.774
61.14000 5.027
61.16000 1.459
61.18000 -2.558
61.20000 4.193
61.22000 2.901
61.24000 3.399
61.26000 2.140
61.28000 3.683
61.30000 4.836
61.32000 -0.135
61.34000 0.870
61.36000 0.426
61.38000 -1.771
61.40000 0.859
61.42000 0.450
61.44000 2.207
61.46000 -0.475
61.48000 1.064
61.50000 6.238
61.52000 5.870
61.54000 -0.914
61.56000 -1.284
61.58000 -1.988
61.60000 -2.112
61.62000 0.607
61.64000 -1.366
61.66000 -2.751
61.68000 -1.378
61.70000 -0.860
61.72000 -1.819
61.74000 0.025
61.76000 3.273
61.78000 3.544
61.80000 2.243
61.82000 -0.304
61.84000 0.861
61.86000 8.360
61.88000 8.487
61.90000 -0.875
61.92000 1.119
61.94000 -1.162
61.96000 -1.744
61.98000 2.178
62.00000 4.776
62.02000 4.457
62.04000 5.726
62.06000 2.821
62.08000 1.586
62.10000 3.290
62.12000 3.849
62.14000 0.383
62.16000 1.157
62.18000 1.268
62.20000 3.532
62.22000 2.704
62.24000 1.376
62.26000 -2.709
62.28000 -0.492
62.30000 -0.056
62.32000 -2.737
62.34000 0.746
62.36000 2.751
62.38000 0.918
62.40000 0.784
62.42000 -1.003
62.44000 -1.654
62.46000 1.142
62.48000 3.401
62.50000 1.156
62.52000 0.650
62.54000 1.253
62.56000 -1.436
62.58000 3.537
62.60000 5.754
62.62000 3.061
62.64000 -0.633
62.66000 -1.026
62.68000 1.557
62.70000 0.380
62.72000 -0.262
62.74000 0.270
62.76000 2.895
62.78000 0.509
62.80000 0.486
62.82000 1.965
62.84000 1.239
62.86000 4.521
62.88000 0.782
62.90000 -2.722
62.92000 0.402
62.94000 3.146
62.96000 -0.198
62.98000 -1.938
63.00000 -1.195
63.02000 -1.887
63.04000 -2.619
63.06000 -1.383
63.08000 -1.516
63.10000 0.717
63.12000 2.299
63.14000 5.461
63.16000 4.648
63.18000 0.582
63.20000 0.704
63.22000 5.312
63.24000 4.895
63.26000 3.101
63.28000 3.246
63.30000 -0.802
63.32000 -2.711
63.34000 -0.758
63.36000 4.200
63.38000 9.047
63.40000 4.254
63.42000 -1.087
63.44000 -2.640
63.46000 0.685
63.48000 0.047
63.50000 3.272
63.52000 3.781
63.54000 -0.559
63.56000 0.535
63.58000 0.093
63.60000 2.401
63.62000 2.459
63.64000 0.317
63.66000 -2.235
63.68000 -2.059
63.70000 0.190
63.72000 3.487
63.74000 1.401
63.76000 1.589
63.78000 10.897
63.80000 6.820
63.82000 3.392
63.84000 1.886
63.86000 3.376
63.88000 0.144
63.90000 -2.590
63.92000 -1.065
63.94000 3.609
63.96000 3.286
63.98000 1.872
64.00000 0.897
64.02000 2.637
64.04000 2.643
64.06000 3.491
64.08000 2.619
64.10000 0.977
64.12000 2.449
64.14000 4.397
64.16000 2.499
64.18000 -1.170
64.20000 0.079
64.22000 2.156
64.24000 3.224
64.26000 0.141
64.28000 -2.702
64.30000 -1.638
64.32000 0.921
64.34000 5.445
64.36000 2.599
64.38000 1.554
64.40000 2.988
64.42000 8.163
64.44000 3.054
64.46000 2.566
64.48000 -1.381
64.50000 -2.711
64.52000 0.255
64.54000 6.985
64.56000 4.932
64.58000 6.577
64.60000 2.484
64.62000 -0.762
64.64000 0.458
64.66000 3.073
64.68000 -2.717
64.70000 0.442
64.72000 3.453
64.74000 3.348
64.76000 3.981
64.78000 6.834
64.80000 8.088
64.82000 0.548
64.84000 2.465
64.86000 4.738
64.88000 2.642
64.90000 0.200
64.92000 5.147
64.94000 2.272
64.96000 0.468
64.98000 -0.433
65.00000 0.653
65.02000 0.536
65.04000 3.359
65.06000 1.521
65.08000 0.404
65.10000 2.223
65.12000 2.756
65.14000 4.389
65.16000 1.102
65.18000 5.505
65.20000 2.200
65.22000 -2.003
65.24000 3.744
65.26000 1.691
65.28000 1.493
65.30000 -1.027
65.32000 -0.195
65.34000 -2.759
65.36000 -1.908
65.38000 -2.212
65.40000 2.461
65.42000 6.127
65.44000 1.507
65.46000 0.129
65.48000 -0.848
65.50000 -0.182
65.52000 0.848
65.54000 0.750
65.56000 1.744
65.58000 5.428
65.60000 4.345
65.62000 4.042
65.64000 -0.726
65.66000 -1.569
65.68000 3.370
65.70000 -0.458
65.72000 -0.257
65.74000 0.719
65.76000 2.566
65.78000 -0.019
65.80000 0.669
65.82000 -2.783
65.84000 2.754
65.86000 3.089
65.88000 0.336
65.90000 3.866
65.92000 4.329
65.94000 4.900
65.96000 2.372
65.98000 0.286
66.00000 -0.638
66.02000 0.829
66.04000 0.470
66.06000 1.544
66.08000 1.418
66.10000 1.186
66.12000 4.377
66.14000 3.278
66.16000 1.267
66.18000 -0.302
66.20000 -2.126
66.22000 0.834
66.24000 3.420
66.26000 2.945
66.28000 3.389
66.30000 -0.166
66.32000 0.651
66.34000 0.214
66.36000 -1.170
66.38000 1.518
66.40000 1.477
66.42000 1.702
66.44000 4.039
66.46000 1.250
66.48000 -2.798
66.50000 -1.345
66.52000 -1.047
66.54000 3.267
66.56000 3.062
66.58000 -0.488
66.60000 -0.240
66.62000 5.998
66.64000 1.937
66.66000 3.937
66.68000 5.475
66.70000 2.102
66.72000 -2.845
66.74000 2.490
66.76000 7.630
66.78000 7.613
66.80000 4.756
66.82000 2.784
66.84000 3.435
66.86000 4.956
66.88000 10.168
66.90000 6.054
66.92000 4.587
66.94000 4.743
66.96000 6.437
66.98000 5.467
67.00000 4.704
67.02000 6.366
67.04000 6.062
67.06000 6.001
67.08000 6.992
67.10000 10.529
67.12000 11.102
67.14000 13.269
67.16000 6.763
67.18000 5.627
67.20000 7.557
67.22000 9.361
67.24000 11.515
67.26000 7.490
67.28000 12.759
67.30000 10.647
67.32000 13.047
67.34000 14.633
67.36000 11.637
67.38000 12.619
67.40000 14.774
67.42000 16.584
67.44000 19.317
67.46000 14.985
67.48000 10.714
67.50000 15.549
67.52000 19.253
67.54000 17.140
67.56000 18.825
67.58000 18.731
67.60000 16.529
67.62000 19.629
67.64000 17.777
67.66000 21.120
67.68000 20.545
67.70000 14.062
67.72000 21.567
67.74000 19.995
67.76000 19.603
67.78000 20.879
67.80000 21.836
67.82000 17.190
67.84000 19.394
67.86000 24.580
67.88000 24.594
67.90000 20.577
67.92000 21.850
67.94000 22.178
67.96000 21.016
67.98000 26.272
68.00000 26.812
68.02000 24.474
68.04000 27.104
68.06000 21.156
68.08000 23.377
68.10000 22.747
68.12000 21.812
68.14000 23.989
68.16000 25.285
68.18000 26.277
68.20000 21.666
68.22000 22.654
68.24000 25.160
68.26000 21.694
68.28000 21.701
68.30000 24.500
68.32000 24.252
68.34000 23.598
68.36000 26.148
68.38000 25.647
68.40000 22.576
68.42000 20.765
68.44000 19.418
68.46000 16.091
68.48000 18.590
68.50000 17.648
68.52000 24.066
68.54000 27.316
68.56000 24.006
68.58000 18.067
68.60000 18.748
68.62000 20.737
68.64000 21.426
68.66000 21.277
68.68000 20.657
68.70000 15.602
68.72000 15.562
68.74000 12.241
68.76000 10.733
68.78000 13.589
68.80000 13.915
68.82000 12.269
68.84000 16.702
68.86000 12.480
68.88000 14.920
68.90000 14.037
68.92000 14.924
68.94000 14.988
68.96000 10.923
68.98000 12.107
69.00000 14.521
69.02000 15.394
69.04000 9.972
69.06000 9.587
69.08000 7.525
69.10000 8.997
69.12000 6.192
69.14000 5.766
69.16000 6.727
69.18000 8.827
69.20000 10.631
69.22000 9.266
69.24000 2.927
69.26000 4.681
69.28000 5.068
69.30000 5.110
69.32000 7.395
69.34000 4.747
69.36000 4.540
69.38000 6.459
69.40000 6.480
69.42000 4.940
69.44000 5.898
69.46000 4.934
69.48000 2.744
69.50000 2.654
69.52000 3.767
69.54000 1.314
69.56000 3.429
69.58000 3.284
69.60000 6.214
69.62000 6.142
69.64000 9.030
69.66000 7.482
69.68000 3.985
69.70000 5.386
69.72000 4.762
69.74000 3.702
69.76000 3.810
69.78000 5.340
69.80000 4.572
69.82000 0.887
69.84000 6.926
69.86000 6.655
69.88000 0.670
69.90000 5.377
69.92000 2.548
69.94000 2.554
69.96000 1.228
69.98000 3.986
70.00000 7.466
70.02000 5.802
70.04000 5.802
70.06000 5.026
70.08000 8.316
70.10000 5.213
70.12000 4.142
70.14000 5.925
70.16000 2.813
70.18000 4.027
70.20000 5.008
70.22000 1.876
70.24000 -2.583
70.26000 0.216
70.28000 5.487
70.30000 7.764
70.32000 4.837
70.34000 6.750
70.36000 4.682
70.38000 7.899
70.40000 3.559
70.42000 2.151
70.44000 -0.293
70.46000 1.287
70.48000 4.702
70.50000 9.848
70.52000 6.449
70.54000 0.120
70.56000 0.044
70.58000 3.063
70.60000 3.672
70.62000 4.424
70.64000 6.457
70.66000 3.320
70.68000 -2.588
70.70000 -1.091
70.72000 4.882
70.74000 3.913
70.76000 3.113
70.78000 4.241
70.80000 4.787
70.82000 4.456
70.84000 3.587
70.86000 5.393
70.88000 5.339
70.90000 6.334
70.92000 5.696
70.94000 2.808
70.96000 5.839
70.98000 4.066
71.00000 6.270
71.02000 3.511
71.04000 3.365
71.06000 1.263
71.08000 0.772
71.10000 1.661
71.12000 1.005
71.14000 -1.266
71.16000 -0.474
71.18000 3.824
71.20000 1.658
71.22000 1.032
71.24000 -2.538
71.26000 1.804
71.28000 5.167
71.30000 4.257
71.32000 3.809
71.34000 5.644
71.36000 0.381
71.38000 0.100
71.40000 -1.316
71.42000 2.182
71.44000 0.741
71.46000 -0.310
71.48000 0.556
71.50000 3.913
71.52000 4.251
71.54000 4.810
71.56000 6.293
71.58000 1.925
71.60000 4.237
71.62000 1.074
71.64000 1.974
71.66000 -1.320
71.68000 -1.258
71.70000 -0.447
71.72000 -2.035
71.74000 0.090
71.76000 3.704
71.78000 1.825
71.80000 -1.563
71.82000 -0.634
71.84000 -0.089
71.86000 2.359
71.88000 -0.340
71.90000 6.401
71.92000 2.013
71.94000 -1.349
71.96000 0.091
71.98000 2.386
72.00000 2.531
72.02000 2.923
72.04000 -1.683
72.06000 -2.194
72.08000 -1.076
72.10000 3.487
72.12000 2.402
72.14000 8.203
72.16000 5.312
72.18000 1.682
72.20000 1.804
72.22000 1.597
72.24000 1.734
72.26000 -1.018
72.28000 0.985
72.30000 0.872
72.32000 1.525
72.34000 4.960
72.36000 2.798
72.38000 -1.590
72.40000 3.525
72.42000 6.458
72.44000 3.741
72.46000 2.695
72.48000 1.536
72.50000 1.770
72.52000 4.446
72.54000 7.795
72.56000 11.466
72.58000 7.667
72.60000 -3.240
72.62000 4.902
72.64000 9.320
72.66000 2.450
72.68000 4.359
72.70000 4.246
72.72000 4.709
72.74000 5.307
72.76000 7.261
72.78000 1.471
72.80000 0.110
72.82000 0.084
72.84000 -0.797
72.86000 1.101
72.88000 0.886
72.90000 -0.169
72.92000 4.343
72.94000 2.572
72.96000 3.192
72.98000 3.086
73.00000 0.577
73.02000 7.807
73.04000 8.312
73.06000 3.744
73.08000 2.124
73.10000 5.809
73.12000 -0.091
73.14000 -0.010
73.16000 7.866
73.18000 5.637
73.20000 3.984
73.22000 3.328
73.24000 3.972
73.26000 -1.023
73.28000 1.382
73.30000 4.735
73.32000 1.616
73.34000 2.515
73.36000 3.941
73.38000 -2.482
73.40000 2.674
73.42000 9.630
73.44000 10.588
73.46000 10.768
73.48000 4.842
73.50000 -0.313
73.52000 -1.077
73.54000 0.360
73.56000 4.430
73.58000 1.685
73.60000 4.192
73.62000 5.465
73.64000 3.931
73.66000 -1.164
73.68000 5.037
73.70000 4.973
73.72000 2.448
73.74000 3.072
73.76000 4.387
73.78000 5.841
73.80000 4.795
73.82000 1.040
73.84000 3.474
73.86000 3.384
73.88000 -0.394
73.90000 1.425
73.92000 8.543
73.94000 5.963
73.96000 4.593
73.98000 3.054
74.00000 4.966
74.02000 5.745
74.04000 2.878
74.06000 0.569
74.08000 0.740
74.10000 0.258
74.12000 2.207
74.14000 9.130
74.16000 7.072
74.18000 3.661
74.20000 -2.128
74.22000 1.209
74.24000 5.460
74.26000 4.918
74.28000 4.166
74.30000 1.076
74.32000 -1.062
74.34000 1.408
74.36000 4.784
74.38000 3.365
74.40000 2.105
74.42000 4.573
74.44000 5.222
74.46000 5.074
74.48000 3.936
74.50000 -2.507
74.52000 -0.044
74.54000 3.151
74.56000 0.016
74.58000 4.449
74.60000 4.656
74.62000 1.553
74.64000 -1.452
74.66000 0.458
74.68000 1.959
74.70000 4.848
74.72000 6.753
74.74000 3.937
74.76000 3.484
74.78000 4.873
74.80000 3.693
74.82000 1.705
74.84000 -1.973
74.86000 -0.483
74.88000 4.229
74.90000 0.387
74.92000 0.075
74.94000 3.408
74.96000 -2.372
74.98000 0.929
75.00000 4.436
75.02000 2.566
75.04000 4.504
75.06000 7.955
75.08000 4.628
75.10000 4.149
75.12000 1.932
75.14000 3.962
75.16000 -2.130
75.18000 -2.485
75.20000 6.504
75.22000 4.138
75.24000 2.485
75.26000 4.014
75.28000 1.910
75.30000 3.854
75.32000 6.459
75.34000 0.039
75.36000 0.822
75.38000 3.555
75.40000 2.533
75.42000 -0.016
75.44000 0.813
75.46000 5.465
75.48000 -1.180
75.50000 1.861
75.52000 3.080
75.54000 8.029
75.56000 4.193
75.58000 2.004
75.60000 0.570
75.62000 0.850
75.64000 -0.738
75.66000 1.608
75.68000 3.656
75.70000 9.021
75.72000 8.995
75.74000 6.642
75.76000 5.871
75.78000 2.551
75.80000 2.786
75.82000 3.936
75.84000 4.365
75.86000 5.137
75.88000 6.923
75.90000 3.637
75.92000 3.778
75.94000 5.744
75.96000 1.619
75.98000 0.532
76.00000 -1.851
76.02000 -2.502
76.04000 -2.114
76.06000 4.811
76.08000 8.912
76.10000 5.224
76.12000 5.993
76.14000 4.291
76.16000 3.927
76.18000 6.954
76.20000 5.477
76.22000 7.240
76.24000 3.315
76.26000 1.569
76.28000 5.508
76.30000 4.600
76.32000 4.130
76.34000 5.995
76.36000 3.574
76.38000 4.740
76.40000 5.806
76.42000 4.211
76.44000 5.779
76.46000 4.172
76.48000 -2.501
76.50000 1.598
76.52000 5.780
76.54000 3.632
76.56000 1.447
76.58000 1.150
76.60000 1.104
76.62000 3.078
76.64000 3.569
76.66000 7.211
76.68000 6.054
76.70000 9.296
76.72000 10.187
76.74000 2.169
76.76000 7.272
76.78000 6.308
76.80000 4.611
76.82000 -1.027
76.84000 -0.229
76.86000 1.503
76.88000 3.268
76.90000 3.193
76.92000 1.245
76.94000 -2.532
76.96000 -1.624
76.98000 2.506
77.00000 0.281
77.02000 0.228
77.04000 3.767
77.06000 0.490
77.08000 -1.854
77.10000 0.885
77.12000 5.832
77.14000 4.051
77.16000 -0.746
77.18000 1.027
77.20000 5.224
77.22000 -0.232
77.24000 4.182
77.26000 3.605
77.28000 1.388
77.30000 -1.204
77.32000 0.360
77.34000 1.179
77.36000 0.515
77.38000 0.550
77.40000 -1.494
77.42000 1.209
77.44000 -1.875
77.46000 2.786
77.48000 2.232
77.50000 4.454
77.52000 8.411
77.54000 3.163
77.56000 2.313
77.58000 6.524
77.60000 5.667
77.62000 5.393
77.64000 6.347
77.66000 7.098
77.68000 8.445
77.70000 3.249
77.72000 6.177
77.74000 2.731
77.76000 0.011
77.78000 2.832
77.80000 4.713
77.82000 3.980
77.84000 1.003
77.86000 5.071
77.88000 4.643
77.90000 5.892
77.92000 -0.142
77.94000 0.825
77.96000 5.022
77.98000 6.303
78.00000 4.637
78.02000 8.733
78.04000 5.036
78.06000 5.742
78.08000 2.983
78.10000 1.935
78.12000 -0.373
78.14000 3.449
78.16000 3.182
78.18000 -0.930
78.20000 -2.211
78.22000 -2.539
78.24000 0.844
78.26000 4.137
78.28000 6.460
78.30000 7.270
78.32000 7.657
78.34000 7.006
78.36000 -0.740
78.38000 2.776
78.40000 2.463
78.42000 9.075
78.44000 5.133
78.46000 9.132
78.48000 6.144
78.50000 9.424
78.52000 11.231
78.54000 7.428
78.56000 3.164
78.58000 3.034
78.60000 -0.899
78.62000 -2.553
78.64000 -1.073
78.66000 5.763
78.68000 5.783
78.70000 2.982
78.72000 1.982
78.74000 3.520
78.76000 6.363
78.78000 2.770
78.80000 5.616
78.82000 -2.566
78.84000 1.199
78.86000 11.421
78.88000 9.407
78.90000 -0.223
78.92000 -0.391
78.94000 4.861
78.96000 4.569
78.98000 4.101
79.00000 -0.769
79.02000 7.475
79.04000 5.957
79.06000 -1.100
79.08000 6.214
79.10000 3.544
79.12000 2.844
79.14000 0.311
79.16000 -1.729
79.18000 -1.142
79.20000 1.359
79.22000 0.799
79.24000 -2.020
79.26000 2.048
79.28000 4.669
79.30000 5.882
79.32000 -0.004
79.34000 4.335
79.36000 3.710
79.38000 5.078
79.40000 4.338
79.42000 3.060
79.44000 4.276
79.46000 6.779
79.48000 2.658
79.50000 -0.824
79.52000 -2.474
79.54000 -0.675
79.56000 -0.454
79.58000 1.106
79.60000 7.599
79.62000 5.010
79.64000 -1.294
79.66000 -1.973
79.68000 1.775
79.70000 5.502
79.72000 0.304
79.74000 1.508
79.76000 -1.306
79.78000 -0.708
79.80000 -2.272
79.82000 1.203
79.84000 1.126
79.86000 -0.398
79.88000 1.694
79.90000 0.993
79.92000 -1.242
79.94000 1.803
79.96000 5.577
79.98000 0.129
80.00000 -2.711
80.02000 4.658
80.04000 5.398
80.06000 6.469
80.08000 1.155
80.10000 -1.995
80.12000 5.615
80.14000 2.384
80.16000 0.204
80.18000 -0.862
80.20000 -0.334
80.22000 -2.160
80.24000 2.264
80.26000 9.602
80.28000 5.342
80.30000 9.743
80.32000 9.174
80.34000 2.399
80.36000 3.904
80.38000 2.774
80.40000 2.223
80.42000 2.296
80.44000 5.616
80.46000 6.461
80.48000 3.489
80.50000 7.384
80.52000 5.119
80.54000 7.883
80.56000 6.613
80.58000 5.432
80.60000 0.903
80.62000 1.104
80.64000 5.829
80.66000 3.565
80.68000 4.770
80.70000 5.565
80.72000 3.393
80.74000 3.952
80.76000 7.140
80.78000 10.441
80.80000 8.953
80.82000 10.063
80.84000 5.455
80.86000 4.949
80.88000 7.088
80.90000 4.924
80.92000 10.794
80.94000 10.637
80.96000 4.672
80.98000 2.639
81.00000 5.604
81.02000 4.915
81.04000 2.995
81.06000 4.767
81.08000 9.911
81.10000 13.273
81.12000 4.711
81.14000 3.725
81.16000 3.301
81.18000 6.849
81.20000 8.240
81.22000 8.809
81.24000 11.398
81.26000 12.633
81.28000 14.591
81.30000 13.152
81.32000 7.626
81.34000 5.571
81.36000 16.020
81.38000 17.647
81.40000 14.629
81.42000 12.099
81.44000 17.601
81.46000 18.271
81.48000 17.518
81.50000 19.506
81.52000 18.023
81.54000 13.431
81.56000 16.525
81.58000 16.071
81.60000 21.886
81.62000 23.693
81.64000 15.079
81.66000 13.869
81.68000 18.575
81.70000 19.684
81.72000 22.797
81.74000 23.436
81.76000 25.757
81.78000 24.694
81.80000 28.833
81.82000 19.893
81.84000 18.671
81.86000 20.523
81.88000 20.541
81.90000 15.814
81.92000 15.718
81.94000 20.762
81.96000 18.510
81.98000 25.051
82.00000 25.961
82.02000 21.763
82.04000 25.866
82.06000 24.470
82.08000 24.389
82.10000 26.019
82.12000 32.855
82.14000 21.784
82.16000 17.243
82.18000 22.670
82.20000 21.845
82.22000 24.713
82.24000 20.481
82.26000 18.390
82.28000 19.476
82.30000 24.978
82.32000 23.541
82.34000 23.612
82.36000 22.432
82.38000 27.464
82.40000 27.516
82.42000 28.407
82.44000 16.417
82.46000 18.785
82.48000 23.346
82.50000 19.964
82.52000 15.092
82.54000 19.991
82.56000 24.728
82.58000 23.981
82.60000 20.996
82.62000 21.843
82.64000 16.409
82.66000 16.695
82.68000 18.458
82.70000 23.131
82.72000 32.703
82.74000 26.623
82.76000 15.979
82.78000 19.831
82.80000 24.707
82.82000 21.535
82.84000 23.701
82.86000 17.459
82.88000 13.879
82.90000 19.575
82.92000 16.160
82.94000 13.937
82.96000 17.700
82.98000 19.812
83.00000 14.990
83.02000 12.928
83.04000 19.743
83.06000 13.482
83.08000 3.333
83.10000 11.866
83.12000 14.191
83.14000 13.981
83.16000 11.900
83.18000 13.234
83.20000 12.367
83.22000 11.754
83.24000 14.403
83.26000 11.762
83.28000 11.966
83.30000 11.169
83.32000 9.272
83.34000 7.569
83.36000 6.273
83.38000 11.042
83.40000 8.947
83.42000 14.438
83.44000 13.542
83.46000 10.406
83.48000 8.899
83.50000 5.524
83.52000 3.839
83.54000 9.299
83.56000 3.895
83.58000 3.829
83.60000 3.890
83.62000 5.988
83.64000 2.175
83.66000 2.727
83.68000 4.018
83.70000 8.125
83.72000 10.437
83.74000 6.440
83.76000 2.921
83.78000 1.207
83.80000 4.097
83.82000 4.434
83.84000 4.950
83.86000 4.956
83.88000 2.759
83.90000 -0.942
83.92000 -0.352
83.94000 0.626
83.96000 3.640
83.98000 3.387
84.00000 4.475
84.02000 6.733
84.04000 4.158
84.06000 8.768
84.08000 2.645
84.10000 -2.680
84.12000 5.164
84.14000 7.420
84.16000 6.206
84.18000 8.321
84.20000 6.540
84.22000 3.678
84.24000 1.275
84.26000 6.113
84.28000 6.615
84.30000 6.281
84.32000 3.963
84.34000 1.963
84.36000 0.107
84.38000 -1.993
84.40000 1.084
84.42000 0.889
84.44000 -1.078
84.46000 3.671
84.48000 0.146
84.50000 1.790
84.52000 2.644
84.54000 5.580
84.56000 1.689
84.58000 3.227
84.60000 0.259
84.62000 1.148
84.64000 1.317
84.66000 -1.954
84.68000 3.383
84.70000 6.432
84.72000 1.453
84.74000 -2.663
84.76000 -0.189
84.78000 1.631
84.80000 3.526
84.82000 7.198
84.84000 3.929
84.86000 5.307
84.88000 6.547
84.90000 10.603
84.92000 1.730
84.94000 -0.411
84.96000 1.616
84.98000 4.510
85.00000 4.151
85.02000 4.056
85.04000 2.543
85.06000 3.366
85.08000 8.044
85.10000 7.107
85.12000 7.778
85.14000 7.532
85.16000 10.326
85.18000 6.749
85.20000 1.481
85.22000 3.942
85.24000 2.383
85.26000 4.841
85.28000 7.118
85.30000 3.355
85.32000 2.190
85.34000 8.041
85.36000 9.706
85.38000 10.965
85.40000 11.210
85.42000 8.085
85.44000 6.647
85.46000 6.223
85.48000 3.038
85.50000 3.390
85.52000 7.087
85.54000 7.340
85.56000 11.853
85.58000 16.777
85.60000 11.475
85.62000 11.823
85.64000 19.232
85.66000 15.754
85.68000 11.177
85.70000 6.444
85.72000 11.066
85.74000 7.593
85.76000 9.633
85.78000 15.696
85.80000 16.236
85.82000 21.907
85.84000 22.368
85.86000 22.562
85.88000 21.990
85.90000 18.609
85.92000 15.666
85.94000 23.136
85.96000 27.562
85.98000 17.346
86.00000 20.384
86.02000 23.787
86.04000 21.419
86.06000 19.283
86.08000 21.136
86.10000 23.886
86.12000 26.650
86.14000 28.658
86.16000 27.282
86.18000 33.335
86.20000 31.258
86.22000 33.479
86.24000 32.166
86.26000 29.883
86.28000 34.693
86.30000 40.150
86.32000 28.138
86.34000 24.557
86.36000 25.444
86.38000 27.961
86.40000 30.625
86.42000 31.926
86.44000 29.894
86.46000 35.753
86.48000 35.200
86.50000 35.422
86.52000 38.367
86.54000 38.620
86.56000 30.968
86.58000 36.796
86.60000 33.883
86.62000 35.372
86.64000 29.920
86.66000 33.371
86.68000 38.329
86.70000 34.887
86.72000 37.410
86.74000 37.109
86.76000 31.759
86.78000 30.449
86.80000 35.406
86.82000 35.734
86.84000 29.922
86.86000 26.525
86.88000 25.029
86.90000 27.983
86.92000 26.296
86.94000 29.851
86.96000 27.271
86.98000 27.250
87.00000 25.913
87.02000 31.863
87.04000 26.864
87.06000 28.878
87.08000 30.067
87.10000 22.456
87.12000 20.250
87.14000 15.110
87.16000 19.853
87.18000 24.796
87.20000 22.923
87.22000 20.091
87.24000 16.736
87.26000 25.429
87.28000 22.089
87.30000 23.311
87.32000 17.076
87.34000 15.216
87.36000 12.354
87.38000 12.506
87.40000 14.991
87.42000 14.076
87.44000 13.212
87.46000 16.803
87.48000 15.227
87.50000 13.079
87.52000 8.876
87.54000 9.011
87.56000 10.612
87.58000 9.562
87.60000 5.953
87.62000 5.292
87.64000 4.790
87.66000 6.374
87.68000 9.353
87.70000 12.273
87.72000 9.300
87.74000 2.812
87.76000 6.320
87.78000 9.329
87.80000 7.757
87.82000 6.597
87.84000 5.525
87.86000 3.040
87.88000 -0.311
87.90000 0.070
87.92000 2.427
87.94000 1.976
87.96000 8.487
87.98000 3.290
88.00000 3.364
88.02000 4.363
88.04000 6.439
88.06000 2.050
88.08000 1.701
88.10000 3.190
88.12000 9.892
88.14000 10.056
88.16000 5.050
88.18000 5.997
88.20000 5.164
88.22000 3.333
88.24000 0.185
88.26000 2.984
88.28000 1.985
88.30000 -2.494
88.32000 -2.127
88.34000 0.037
88.36000 -0.373
88.38000 4.075
88.40000 9.823
88.42000 6.018
88.44000 5.541
88.46000 3.247
88.48000 1.776
88.50000 3.859
88.52000 -0.421
88.54000 2.585
88.56000 4.372
88.58000 6.600
88.60000 8.746
88.62000 2.955
88.64000 -1.260
88.66000 0.290
88.68000 3.645
88.70000 1.957
88.72000 5.004
88.74000 4.474
88.76000 0.130
88.78000 2.008
88.80000 5.421
88.82000 5.663
88.84000 1.068
88.86000 -1.367
88.88000 -1.956
88.90000 0.549
88.92000 0.728
88.94000 -2.407
88.96000 0.206
88.98000 2.651
89.00000 -1.093
89.02000 0.065
89.04000 3.038
89.06000 0.298
89.08000 -0.760
89.10000 3.594
89.12000 5.633
89.14000 4.139
89.16000 5.999
89.18000 7.565
89.20000 6.678
89.22000 2.494
89.24000 3.155
89.26000 0.491
89.28000 1.854
89.30000 -0.993
89.32000 3.281
89.34000 10.027
89.36000 6.872
89.38000 5.928
89.40000 2.896
89.42000 6.132
89.44000 7.759
89.46000 5.945
89.48000 -2.352
89.50000 4.320
89.52000 7.821
89.54000 0.509
89.56000 0.159
89.58000 3.105
89.60000 3.108
89.62000 5.196
89.64000 5.109
89.66000 2.055
89.68000 5.716
89.70000 11.761
89.72000 8.472
89.74000 5.570
89.76000 5.380
89.78000 3.267
89.80000 3.099
89.82000 5.120
89.84000 4.015
89.86000 -1.419
89.88000 5.892
89.90000 8.870
89.92000 10.073
89.94000 7.776
89.96000 3.465
89.98000 4.231
90.00000 5.869
90.02000 4.689
90.04000 7.098
90.06000 10.190
90.08000 3.933
90.10000 3.554
90.12000 1.658
90.14000 0.977
90.16000 4.016
90.18000 3.780
90.20000 2.122
90.22000 8.143
90.24000 7.274
90.26000 9.754
90.28000 6.373
90.30000 3.164
90.32000 4.760
90.34000 5.423
90.36000 4.871
90.38000 5.145
90.40000 8.914
90.42000 7.871
90.44000 4.315
90.46000 2.453
90.48000 3.980
90.50000 5.482
90.52000 3.970
90.54000 3.032
90.56000 2.121
90.58000 6.068
90.60000 4.277
90.62000 0.627
90.64000 4.976
90.66000 7.995
90.68000 6.515
90.70000 3.932
90.72000 5.743
90.74000 2.862
90.76000 3.015
90.78000 9.117
90.80000 5.672
90.82000 5.301
90.84000 4.710
90.86000 3.326
90.88000 3.881
90.90000 7.135
90.92000 8.587
90.94000 4.612
90.96000 0.626
90.98000 5.045
91.00000 6.134
91.02000 5.420
91.04000 7.176
91.06000 9.959
91.08000 11.972
91.10000 6.936
91.12000 -0.187
91.14000 -2.301
91.16000 5.441
91.18000 7.988
91.20000 3.468
91.22000 1.503
91.24000 -0.022
91.26000 7.284
91.28000 6.673
91.30000 2.223
91.32000 7.013
91.34000 9.825
91.36000 6.069
91.38000 0.739
91.40000 -0.966
91.42000 5.528
91.44000 9.199
91.46000 9.051
91.48000 5.682
91.50000 2.168
91.52000 3.806
91.54000 3.454
91.56000 7.134
91.58000 6.615
91.60000 2.570
91.62000 0.098
91.64000 5.381
91.66000 9.153
91.68000 4.927
91.70000 8.897
91.72000 10.193
91.74000 -1.012
91.76000 1.734
91.78000 3.564
91.80000 1.699
91.82000 7.099
91.84000 5.621
91.86000 3.243
91.88000 2.671
91.90000 2.352
91.92000 -1.153
91.94000 2.184
91.96000 6.531
91.98000 6.413
92.00000 2.664
92.02000 2.371
92.04000 6.331
92.06000 8.383
92.08000 0.635
92.10000 3.782
92.12000 2.784
92.14000 2.597
92.16000 5.921
92.18000 6.198
92.20000 4.319
92.22000 2.013
92.24000 3.150
92.26000 7.575
92.28000 6.546
92.30000 7.936
92.32000 9.944
92.34000 5.717
92.36000 5.182
92.38000 4.661
92.40000 2.297
92.42000 -2.165
92.44000 -0.713
92.46000 0.008
92.48000 2.527
92.50000 8.017
92.52000 3.655
92.54000 2.479
92.56000 4.057
92.58000 -2.052
92.60000 0.010
92.62000 1.127
92.64000 -0.479
92.66000 -0.424
92.68000 3.657
92.70000 0.416
92.72000 0.888
92.74000 -2.368
92.76000 2.258
92.78000 6.151
92.80000 3.262
92.82000 2.553
92.84000 -0.407
92.86000 4.410
92.88000 9.549
92.90000 4.570
92.92000 4.100
92.94000 4.025
92.96000 -0.835
92.98000 -0.522
93.00000 -0.341
93.02000 -0.422
93.04000 3.616
93.06000 6.829
93.08000 0.393
93.10000 10.448
93.12000 10.081
93.14000 10.212
93.16000 4.603
93.18000 7.081
93.20000 7.471
93.22000 7.263
93.24000 8.333
93.26000 5.451
93.28000 8.458
93.30000 6.821
93.32000 -0.909
93.34000 3.254
93.36000 7.004
93.38000 9.313
93.40000 4.750
93.42000 -2.344
93.44000 -1.417
93.46000 5.637
93.48000 9.470
93.50000 8.922
93.52000 3.079
93.54000 2.193
93.56000 -0.791
93.58000 4.379
93.60000 8.620
93.62000 9.025
93.64000 7.569
93.66000 9.235
93.68000 2.825
93.70000 1.519
93.72000 6.934
93.74000 11.049
93.76000 6.119
93.78000 4.076
93.80000 6.306
93.82000 8.896
93.84000 8.863
93.86000 4.650
93.88000 5.206
93.90000 6.331
93.92000 5.974
93.94000 7.284
93.96000 4.054
93.98000 6.265
94.00000 8.343
94.02000 5.398
94.04000 7.631
94.06000 11.444
94.08000 13.590
94.10000 4.200
94.12000 4.372
94.14000 5.235
94.16000 6.444
94.18000 4.021
94.20000 4.647
94.22000 10.161
94.24000 12.578
94.26000 8.450
94.28000 6.243
94.30000 4.601
94.32000 1.370
94.34000 -2.317
94.36000 4.839
94.38000 7.436
94.40000 9.571
94.42000 9.062
94.44000 5.906
94.46000 4.982
94.48000 9.067
94.50000 6.447
94.52000 7.177
94.54000 11.810
94.56000 10.727
94.58000 3.616
94.60000 3.707
94.62000 6.894
94.64000 5.684
94.66000 10.695
94.68000 7.062
94.70000 3.586
94.72000 7.873
94.74000 8.683
94.76000 2.401
94.78000 8.324
94.80000 8.272
94.82000 8.837
94.84000 5.960
94.86000 2.348
94.88000 4.555
94.90000 4.083
94.92000 9.312
94.94000 7.799
94.96000 9.461
94.98000 7.490
95.00000 1.399
95.02000 2.522
95.04000 4.830
95.06000 5.593
95.08000 9.299
95.10000 6.873
95.12000 1.325
95.14000 3.347
95.16000 0.162
95.18000 0.398
95.20000 5.478
95.22000 8.016
95.24000 9.905
95.26000 9.605
95.28000 10.369
95.30000 6.623
95.32000 5.067
95.34000 1.953
95.36000 4.306
95.38000 2.991
95.40000 -2.143
95.42000 5.059
95.44000 11.057
95.46000 9.134
95.48000 6.421
95.50000 5.874
95.52000 5.550
95.54000 7.489
95.56000 10.018
95.58000 6.812
95.60000 -1.913
95.62000 2.250
95.64000 0.568
95.66000 5.003
95.68000 6.658
95.70000 0.407
95.72000 3.262
95.74000 7.687
95.76000 10.153
95.78000 6.722
95.80000 3.371
95.82000 2.971
95.84000 6.617
95.86000 7.480
95.88000 5.792
95.90000 7.307
95.92000 4.086
95.94000 4.348
95.96000 3.882
95.98000 1.730
96.00000 4.066
96.02000 9.356
96.04000 6.603
96.06000 2.056
96.08000 -2.341
96.10000 -1.492
96.12000 8.062
96.14000 10.723
96.16000 8.217
96.18000 1.355
96.20000 4.958
96.22000 2.312
96.24000 3.582
96.26000 5.417
96.28000 11.281
96.30000 7.561
96.32000 5.994
96.34000 0.519
96.36000 2.535
96.38000 2.516
96.40000 3.417
96.42000 0.005
96.44000 -1.338
96.46000 3.370
96.48000 3.965
96.50000 1.289
96.52000 4.024
96.54000 4.742
96.56000 5.137
96.58000 2.898
96.60000 3.524
96.62000 4.252
96.64000 0.881
96.66000 -0.031
96.68000 8.843
96.70000 10.924
96.72000 2.407
96.74000 8.139
96.76000 5.888
96.78000 6.745
96.80000 2.594
96.82000 -2.362
96.84000 -0.079
96.86000 17.288
96.88000 15.476
96.90000 10.402
96.92000 9.561
96.94000 1.357
96.96000 1.147
96.98000 1.464
97.00000 3.438
97.02000 5.020
97.04000 6.408
97.06000 9.633
97.08000 14.645
97.10000 3.042
97.12000 -2.360
97.14000 0.378
97.16000 2.335
97.18000 2.900
97.20000 3.504
97.22000 6.023
97.24000 8.528
97.26000 3.542
97.28000 4.287
97.30000 10.433
97.32000 9.433
97.34000 6.354
97.36000 9.144
97.38000 5.621
97.40000 12.055
97.42000 10.664
97.44000 7.217
97.46000 4.119
97.48000 1.093
97.50000 1.200
97.52000 1.031
97.54000 6.301
97.56000 2.738
97.58000 -0.238
97.60000 3.161
97.62000 4.212
97.64000 2.956
97.66000 -1.051
97.68000 3.187
97.70000 7.578
97.72000 10.451
97.74000 7.596
97.76000 6.024
97.78000 3.873
97.80000 2.318
97.82000 2.417
97.84000 10.393
97.86000 5.671
97.88000 10.883
97.90000 10.596
97.92000 4.593
97.94000 0.179
97.96000 1.430
97.98000 5.270
98.00000 7.316
98.02000 7.379
98.04000 5.386
98.06000 7.891
98.08000 4.002
98.10000 3.367
98.12000 -0.004
98.14000 2.950
98.16000 5.800
98.18000 4.436
98.20000 11.878
98.22000 12.445
98.24000 6.716
98.26000 1.295
98.28000 9.972
98.30000 12.821
98.32000 11.010
98.34000 6.632
98.36000 6.884
98.38000 2.345
98.40000 0.303
98.42000 2.046
98.44000 12.082
98.46000 2.431
98.48000 11.355
98.50000 3.199
98.52000 13.426
98.54000 9.790
98.56000 4.515
98.58000 4.715
98.60000 10.958
98.62000 14.628
98.64000 15.686
98.66000 14.780
98.68000 9.679
98.70000 8.238
98.72000 -0.776
98.74000 -2.289
98.76000 7.642
98.78000 5.389
98.80000 9.794
98.82000 5.389
98.84000 5.135
98.86000 5.895
98.88000 5.663
98.90000 0.653
98.92000 10.173
98.94000 16.553
98.96000 17.548
98.98000 16.876
99.00000 15.309
99.02000 6.169
99.04000 5.293
99.06000 15.468
99.08000 6.119
99.10000 1.514
99.12000 8.814
99.14000 10.495
99.16000 4.696
99.18000 2.426
99.20000 2.100
99.22000 -1.648
99.24000 8.906
99.26000 23.039
99.28000 15.762
99.30000 16.688
99.32000 14.473
99.34000 4.070
99.36000 10.668
99.38000 9.258
99.40000 13.251
99.42000 8.042
99.44000 3.617
99.46000 9.642
99.48000 8.824
99.50000 -3.249
99.52000 2.880
99.54000 15.297
99.56000 13.676
99.58000 9.997
99.60000 4.580
99.62000 0.780
99.64000 7.023
99.66000 3.593
99.68000 9.071
99.70000 7.219
99.72000 1.815
99.74000 3.229
99.76000 4.532
99.78000 1.188
99.80000 2.359
99.82000 1.572
99.84000 11.011
99.86000 -1.143
99.88000 5.437
99.90000 -2.404
99.92000 1.885
99.94000 11.151
99.96000 1.645
99.98000 0.000
