'Id: "0011389" Comment: "Integrate frame 0011389_Au-Ir-Rh_Au-Rich_XRD_Mapping-313-0000.gfrmwith cursor Wedge Cursor #5" Operator: "B?rgel" Anode: "Cu" Wavelength: "1.5406" Scantype: "2Theta (TwoTheta)" TimePerStep: "1" X: "-18" Y: "36" Z: "5.95" 
10.00000 0.000
10.02000 10.720
10.04000 -4.602
10.06000 -3.547
10.08000 9.375
10.10000 4.921
10.12000 13.503
10.14000 17.817
10.16000 11.503
10.18000 27.401
10.20000 12.416
10.22000 -0.573
10.24000 3.950
10.26000 24.529
10.28000 12.116
10.30000 5.712
10.32000 7.653
10.34000 -4.523
10.36000 1.104
10.38000 0.835
10.40000 7.220
10.42000 28.210
10.44000 19.804
10.46000 27.862
10.48000 24.349
10.50000 20.953
10.52000 9.751
10.54000 2.041
10.56000 8.364
10.58000 12.951
10.60000 15.294
10.62000 10.860
10.64000 17.696
10.66000 10.998
10.68000 1.131
10.70000 13.494
10.72000 18.019
10.74000 8.016
10.76000 8.033
10.78000 9.244
10.80000 17.678
10.82000 17.937
10.84000 -4.544
10.86000 2.524
10.88000 15.936
10.90000 10.874
10.92000 5.984
10.94000 8.084
10.96000 15.922
10.98000 3.197
11.00000 4.822
11.02000 4.545
11.04000 9.466
11.06000 15.723
11.08000 25.371
11.10000 20.817
11.12000 19.480
11.14000 18.623
11.16000 7.703
11.18000 4.869
11.20000 17.276
11.22000 18.585
11.24000 15.226
11.26000 13.495
11.28000 3.755
11.30000 17.916
11.32000 20.727
11.34000 11.117
11.36000 4.152
11.38000 19.543
11.40000 19.580
11.42000 10.456
11.44000 7.012
11.46000 4.008
11.48000 7.175
11.50000 3.657
11.52000 -0.102
11.54000 2.107
11.56000 18.417
11.58000 10.637
11.60000 10.668
11.62000 16.320
11.64000 3.897
11.66000 0.752
11.68000 -0.263
11.70000 4.073
11.72000 10.293
11.74000 5.376
11.76000 15.496
11.78000 21.255
11.80000 19.480
11.82000 9.410
11.84000 5.681
11.86000 15.910
11.88000 16.746
11.90000 12.641
11.92000 16.532
11.94000 13.313
11.96000 16.732
11.98000 9.019
12.00000 2.470
12.02000 7.999
12.04000 6.891
12.06000 3.091
12.08000 1.919
12.10000 10.609
12.12000 14.887
12.14000 18.613
12.16000 13.460
12.18000 6.283
12.20000 8.169
12.22000 15.437
12.24000 14.316
12.26000 18.607
12.28000 7.538
12.30000 -4.565
12.32000 2.501
12.34000 14.793
12.36000 10.224
12.38000 0.214
12.40000 6.609
12.42000 8.812
12.44000 15.587
12.46000 13.963
12.48000 10.433
12.50000 11.858
12.52000 5.315
12.54000 3.068
12.56000 6.415
12.58000 2.828
12.60000 0.560
12.62000 9.228
12.64000 14.042
12.66000 18.306
12.68000 8.770
12.70000 3.925
12.72000 3.540
12.74000 14.086
12.76000 3.641
12.78000 10.577
12.80000 17.185
12.82000 13.529
12.84000 21.352
12.86000 15.423
12.88000 18.951
12.90000 6.161
12.92000 2.984
12.94000 2.275
12.96000 3.586
12.98000 7.099
13.00000 7.899
13.02000 11.359
13.04000 5.959
13.06000 11.275
13.08000 3.155
13.10000 4.585
13.12000 7.387
13.14000 15.184
13.16000 6.405
13.18000 4.576
13.20000 5.374
13.22000 9.942
13.24000 24.884
13.26000 15.265
13.28000 4.579
13.30000 9.125
13.32000 12.957
13.34000 10.163
13.36000 10.822
13.38000 16.721
13.40000 13.304
13.42000 3.070
13.44000 1.625
13.46000 0.715
13.48000 0.959
13.50000 5.968
13.52000 9.501
13.54000 8.677
13.56000 14.053
13.58000 11.950
13.60000 -0.288
13.62000 6.068
13.64000 11.643
13.66000 14.963
13.68000 15.122
13.70000 9.907
13.72000 11.244
13.74000 19.776
13.76000 19.203
13.78000 17.773
13.80000 11.447
13.82000 4.289
13.84000 10.736
13.86000 1.813
13.88000 -2.322
13.90000 2.731
13.92000 21.288
13.94000 16.583
13.96000 4.094
13.98000 3.736
14.00000 4.511
14.02000 6.224
14.04000 15.020
14.06000 11.114
14.08000 5.044
14.10000 6.454
14.12000 11.104
14.14000 1.608
14.16000 -0.718
14.18000 0.557
14.20000 -4.567
14.22000 8.465
14.24000 3.495
14.26000 -3.032
14.28000 2.205
14.30000 8.544
14.32000 9.654
14.34000 11.349
14.36000 5.995
14.38000 11.749
14.40000 5.887
14.42000 5.838
14.44000 6.811
14.46000 12.341
14.48000 11.661
14.50000 7.897
14.52000 0.812
14.54000 7.413
14.56000 8.853
14.58000 11.893
14.60000 9.009
14.62000 4.045
14.64000 -1.809
14.66000 5.096
14.68000 1.609
14.70000 5.458
14.72000 10.025
14.74000 2.591
14.76000 10.958
14.78000 14.748
14.80000 13.388
14.82000 8.980
14.84000 6.062
14.86000 4.866
14.88000 -0.356
14.90000 0.737
14.92000 6.030
14.94000 9.739
14.96000 6.133
14.98000 8.835
15.00000 7.436
15.02000 6.873
15.04000 14.204
15.06000 5.908
15.08000 0.862
15.10000 2.912
15.12000 2.925
15.14000 13.991
15.16000 10.195
15.18000 5.798
15.20000 -3.461
15.22000 5.364
15.24000 6.765
15.26000 10.642
15.28000 14.298
15.30000 11.009
15.32000 12.178
15.34000 12.298
15.36000 7.596
15.38000 10.189
15.40000 -4.518
15.42000 0.866
15.44000 11.017
15.46000 7.062
15.48000 6.807
15.50000 4.357
15.52000 8.967
15.54000 -3.029
15.56000 1.533
15.58000 5.926
15.60000 3.791
15.62000 3.736
15.64000 8.668
15.66000 12.699
15.68000 11.462
15.70000 16.484
15.72000 16.701
15.74000 4.038
15.76000 5.972
15.78000 13.869
15.80000 5.367
15.82000 0.111
15.84000 3.143
15.86000 9.057
15.88000 13.715
15.90000 5.825
15.92000 8.368
15.94000 10.361
15.96000 1.934
15.98000 12.449
16.00000 14.288
16.02000 7.277
16.04000 8.182
16.06000 0.544
16.08000 6.220
16.10000 8.885
16.12000 8.805
16.14000 6.529
16.16000 10.106
16.18000 12.134
16.20000 -1.810
16.22000 -4.468
16.24000 -3.720
16.26000 4.340
16.28000 12.978
16.30000 6.742
16.32000 7.125
16.34000 9.630
16.36000 9.358
16.38000 15.218
16.40000 6.824
16.42000 6.864
16.44000 11.037
16.46000 12.039
16.48000 3.619
16.50000 8.478
16.52000 8.121
16.54000 5.336
16.56000 6.091
16.58000 3.196
16.60000 0.155
16.62000 -0.464
16.64000 -3.047
16.66000 1.536
16.68000 3.585
16.70000 5.697
16.72000 13.113
16.74000 11.470
16.76000 4.801
16.78000 5.980
16.80000 5.127
16.82000 3.339
16.84000 4.061
16.86000 14.039
16.88000 5.949
16.90000 7.127
16.92000 11.246
16.94000 12.568
16.96000 9.072
16.98000 8.692
17.00000 8.829
17.02000 8.053
17.04000 9.318
17.06000 12.789
17.08000 13.204
17.10000 11.928
17.12000 8.369
17.14000 2.953
17.16000 10.437
17.18000 10.092
17.20000 5.651
17.22000 7.382
17.24000 7.983
17.26000 10.849
17.28000 7.400
17.30000 8.671
17.32000 9.807
17.34000 10.251
17.36000 13.034
17.38000 17.361
17.40000 12.060
17.42000 12.434
17.44000 7.388
17.46000 12.686
17.48000 9.547
17.50000 8.906
17.52000 8.625
17.54000 18.446
17.56000 12.410
17.58000 5.909
17.60000 10.862
17.62000 12.983
17.64000 13.382
17.66000 11.551
17.68000 3.920
17.70000 10.842
17.72000 15.365
17.74000 9.847
17.76000 3.804
17.78000 -0.835
17.80000 -0.709
17.82000 8.889
17.84000 9.207
17.86000 8.517
17.88000 8.759
17.90000 3.252
17.92000 -4.338
17.94000 2.940
17.96000 5.359
17.98000 9.251
18.00000 6.625
18.02000 4.787
18.04000 5.392
18.06000 14.846
18.08000 16.619
18.10000 17.689
18.12000 18.935
18.14000 11.809
18.16000 3.576
18.18000 3.042
18.20000 6.367
18.22000 6.188
18.24000 7.106
18.26000 7.096
18.28000 1.861
18.30000 -1.110
18.32000 1.696
18.34000 14.303
18.36000 17.874
18.38000 12.242
18.40000 14.264
18.42000 11.902
18.44000 6.418
18.46000 5.109
18.48000 5.828
18.50000 10.102
18.52000 9.545
18.54000 7.595
18.56000 -1.922
18.58000 -3.331
18.60000 3.328
18.62000 10.294
18.64000 11.646
18.66000 7.223
18.68000 0.430
18.70000 -1.769
18.72000 -3.058
18.74000 2.880
18.76000 11.426
18.78000 11.454
18.80000 7.269
18.82000 5.769
18.84000 8.317
18.86000 6.056
18.88000 1.058
18.90000 6.949
18.92000 8.929
18.94000 5.570
18.96000 -1.421
18.98000 5.343
19.00000 8.963
19.02000 8.755
19.04000 11.747
19.06000 6.870
19.08000 4.084
19.10000 -1.571
19.12000 0.917
19.14000 4.768
19.16000 11.412
19.18000 9.856
19.20000 8.300
19.22000 8.287
19.24000 13.975
19.26000 11.828
19.28000 3.056
19.30000 3.145
19.32000 -4.284
19.34000 0.173
19.36000 5.669
19.38000 10.088
19.40000 9.426
19.42000 6.688
19.44000 5.049
19.46000 0.424
19.48000 3.007
19.50000 2.959
19.52000 1.253
19.54000 2.899
19.56000 0.845
19.58000 -0.536
19.60000 4.939
19.62000 4.939
19.64000 4.075
19.66000 5.246
19.68000 -0.208
19.70000 0.884
19.72000 -1.237
19.74000 5.363
19.76000 6.311
19.78000 10.755
19.80000 6.291
19.82000 9.241
19.84000 3.756
19.86000 -0.454
19.88000 6.096
19.90000 8.451
19.92000 10.404
19.94000 3.793
19.96000 3.614
19.98000 3.347
20.00000 4.936
20.02000 6.605
20.04000 7.059
20.06000 5.661
20.08000 6.733
20.10000 0.619
20.12000 -1.548
20.14000 4.400
20.16000 -1.141
20.18000 -3.501
20.20000 4.800
20.22000 6.919
20.24000 6.536
20.26000 8.092
20.28000 9.730
20.30000 9.779
20.32000 3.134
20.34000 3.204
20.36000 5.374
20.38000 3.246
20.40000 8.845
20.42000 7.860
20.44000 5.258
20.46000 6.226
20.48000 6.976
20.50000 10.578
20.52000 10.952
20.54000 3.193
20.56000 0.956
20.58000 -1.989
20.60000 -2.604
20.62000 -0.733
20.64000 5.144
20.66000 6.143
20.68000 7.685
20.70000 0.664
20.72000 3.985
20.74000 4.666
20.76000 5.340
20.78000 5.425
20.80000 1.566
20.82000 6.409
20.84000 0.535
20.86000 -0.612
20.88000 7.717
20.90000 5.911
20.92000 7.081
20.94000 8.889
20.96000 4.392
20.98000 7.330
21.00000 7.538
21.02000 8.026
21.04000 3.112
21.06000 6.185
21.08000 7.269
21.10000 8.227
21.12000 -1.301
21.14000 -2.584
21.16000 4.604
21.18000 1.612
21.20000 3.403
21.22000 -0.353
21.24000 11.359
21.26000 15.026
21.28000 12.812
21.30000 13.191
21.32000 6.430
21.34000 3.842
21.36000 9.866
21.38000 -0.377
21.40000 -1.477
21.42000 -1.112
21.44000 4.394
21.46000 11.049
21.48000 4.801
21.50000 4.598
21.52000 10.970
21.54000 8.843
21.56000 11.520
21.58000 16.444
21.60000 10.421
21.62000 5.797
21.64000 9.615
21.66000 9.673
21.68000 4.294
21.70000 5.341
21.72000 7.103
21.74000 -0.185
21.76000 -4.125
21.78000 4.205
21.80000 9.365
21.82000 6.678
21.84000 2.787
21.86000 1.530
21.88000 6.743
21.90000 9.861
21.92000 6.280
21.94000 0.212
21.96000 3.667
21.98000 9.126
22.00000 5.403
22.02000 5.568
22.04000 3.177
22.06000 0.023
22.08000 8.592
22.10000 7.969
22.12000 8.834
22.14000 3.530
22.16000 5.062
22.18000 5.870
22.20000 1.293
22.22000 -4.102
22.24000 3.905
22.26000 10.009
22.28000 12.445
22.30000 6.630
22.32000 2.815
22.34000 5.400
22.36000 11.815
22.38000 8.193
22.40000 11.631
22.42000 12.917
22.44000 9.060
22.46000 3.772
22.48000 9.485
22.50000 12.560
22.52000 5.948
22.54000 1.312
22.56000 2.194
22.58000 6.169
22.60000 11.038
22.62000 10.253
22.64000 11.345
22.66000 6.212
22.68000 -0.136
22.70000 -0.824
22.72000 5.170
22.74000 6.902
22.76000 7.651
22.78000 9.012
22.80000 6.091
22.82000 9.742
22.84000 3.095
22.86000 3.552
22.88000 5.311
22.90000 3.617
22.92000 4.818
22.94000 3.425
22.96000 3.994
22.98000 0.802
23.00000 4.620
23.02000 -0.770
23.04000 -2.911
23.06000 2.174
23.08000 3.235
23.10000 3.952
23.12000 10.269
23.14000 8.626
23.16000 2.722
23.18000 -3.106
23.20000 3.447
23.22000 4.253
23.24000 10.055
23.26000 13.675
23.28000 5.588
23.30000 1.447
23.32000 2.258
23.34000 3.567
23.36000 1.950
23.38000 -0.914
23.40000 3.764
23.42000 7.152
23.44000 4.979
23.46000 2.385
23.48000 -0.315
23.50000 -1.759
23.52000 1.322
23.54000 3.317
23.56000 -0.671
23.58000 -3.443
23.60000 3.096
23.62000 6.331
23.64000 5.283
23.66000 6.004
23.68000 7.473
23.70000 4.629
23.72000 2.995
23.74000 1.439
23.76000 1.836
23.78000 2.073
23.80000 6.100
23.82000 2.098
23.84000 2.772
23.86000 3.604
23.88000 1.845
23.90000 -4.057
23.92000 1.710
23.94000 0.367
23.96000 2.882
23.98000 4.107
24.00000 -0.741
24.02000 -4.000
24.04000 -4.050
24.06000 -1.153
24.08000 5.802
24.10000 -0.097
24.12000 1.163
24.14000 2.545
24.16000 2.285
24.18000 4.323
24.20000 5.505
24.22000 3.598
24.24000 3.923
24.26000 4.825
24.28000 2.410
24.30000 3.941
24.32000 1.056
24.34000 -0.599
24.36000 1.664
24.38000 3.856
24.40000 -1.499
24.42000 -0.326
24.44000 -2.131
24.46000 1.308
24.48000 -0.543
24.50000 2.995
24.52000 4.060
24.54000 3.062
24.56000 0.610
24.58000 -2.513
24.60000 3.287
24.62000 5.875
24.64000 5.888
24.66000 2.926
24.68000 0.600
24.70000 1.466
24.72000 -4.012
24.74000 -3.038
24.76000 2.579
24.78000 3.649
24.80000 3.544
24.82000 3.736
24.84000 -1.371
24.86000 -0.420
24.88000 2.413
24.90000 2.657
24.92000 -0.587
24.94000 -1.928
24.96000 0.171
24.98000 2.677
25.00000 1.246
25.02000 -2.031
25.04000 -0.583
25.06000 1.588
25.08000 -0.738
25.10000 1.441
25.12000 3.022
25.14000 -0.110
25.16000 0.124
25.18000 3.055
25.20000 1.026
25.22000 4.082
25.24000 6.132
25.26000 2.951
25.28000 -2.150
25.30000 -2.232
25.32000 1.842
25.34000 4.203
25.36000 -0.930
25.38000 4.821
25.40000 5.959
25.42000 5.063
25.44000 5.669
25.46000 7.279
25.48000 3.261
25.50000 4.581
25.52000 0.705
25.54000 2.333
25.56000 2.438
25.58000 7.890
25.60000 4.946
25.62000 -3.183
25.64000 0.512
25.66000 4.376
25.68000 6.109
25.70000 5.670
25.72000 -0.012
25.74000 -3.966
25.76000 -0.530
25.78000 1.720
25.80000 -1.767
25.82000 4.098
25.84000 3.143
25.86000 2.598
25.88000 -1.933
25.90000 -0.482
25.92000 2.928
25.94000 2.800
25.96000 2.724
25.98000 2.479
26.00000 -2.176
26.02000 0.358
26.04000 2.024
26.06000 2.206
26.08000 3.412
26.10000 4.582
26.12000 4.834
26.14000 7.395
26.16000 4.807
26.18000 3.352
26.20000 0.999
26.22000 1.313
26.24000 0.308
26.26000 -1.764
26.28000 -2.040
26.30000 3.714
26.32000 -0.706
26.34000 3.026
26.36000 0.034
26.38000 -0.656
26.40000 3.994
26.42000 -1.974
26.44000 -1.118
26.46000 -0.659
26.48000 4.207
26.50000 1.645
26.52000 0.721
26.54000 -1.441
26.56000 3.298
26.58000 7.170
26.60000 8.324
26.62000 0.321
26.64000 1.040
26.66000 0.912
26.68000 0.434
26.70000 2.717
26.72000 0.816
26.74000 4.727
26.76000 1.014
26.78000 3.163
26.80000 1.572
26.82000 -1.991
26.84000 -1.366
26.86000 6.007
26.88000 5.143
26.90000 -0.022
26.92000 -3.248
26.94000 -2.126
26.96000 4.340
26.98000 0.971
27.00000 0.328
27.02000 3.028
27.04000 4.624
27.06000 4.566
27.08000 1.476
27.10000 1.784
27.12000 4.266
27.14000 2.272
27.16000 -0.970
27.18000 1.493
27.20000 -1.827
27.22000 2.507
27.24000 7.170
27.26000 1.815
27.28000 1.874
27.30000 6.261
27.32000 6.302
27.34000 3.826
27.36000 -2.005
27.38000 0.040
27.40000 3.236
27.42000 0.612
27.44000 0.638
27.46000 -2.298
27.48000 -1.010
27.50000 0.178
27.52000 -0.234
27.54000 -0.728
27.56000 -2.144
27.58000 1.365
27.60000 -0.241
27.62000 -0.488
27.64000 -3.419
27.66000 0.656
27.68000 1.688
27.70000 -2.850
27.72000 -0.147
27.74000 1.860
27.76000 4.281
27.78000 5.341
27.80000 5.247
27.82000 0.335
27.84000 -3.849
27.86000 3.626
27.88000 6.078
27.90000 3.784
27.92000 4.690
27.94000 3.639
27.96000 0.061
27.98000 -1.537
28.00000 2.919
28.02000 3.117
28.04000 2.487
28.06000 8.540
28.08000 3.669
28.10000 -0.079
28.12000 -2.268
28.14000 1.852
28.16000 2.092
28.18000 0.534
28.20000 0.644
28.22000 -0.867
28.24000 -0.609
28.26000 1.823
28.28000 3.361
28.30000 1.261
28.32000 8.173
28.34000 5.184
28.36000 4.101
28.38000 4.031
28.40000 2.932
28.42000 4.854
28.44000 5.237
28.46000 2.939
28.48000 1.168
28.50000 0.242
28.52000 2.855
28.54000 8.040
28.56000 -1.183
28.58000 2.489
28.60000 6.401
28.62000 6.345
28.64000 3.928
28.66000 6.625
28.68000 2.488
28.70000 0.613
28.72000 0.032
28.74000 -0.294
28.76000 3.705
28.78000 -2.207
28.80000 -3.790
28.82000 -0.509
28.84000 2.624
28.86000 1.981
28.88000 -0.367
28.90000 1.770
28.92000 1.481
28.94000 1.449
28.96000 3.502
28.98000 -0.325
29.00000 0.593
29.02000 0.624
29.04000 4.568
29.06000 1.334
29.08000 3.933
29.10000 2.017
29.12000 3.491
29.14000 2.112
29.16000 6.040
29.18000 11.313
29.20000 5.816
29.22000 0.477
29.24000 4.806
29.26000 3.691
29.28000 0.790
29.30000 -0.331
29.32000 0.891
29.34000 3.393
29.36000 3.561
29.38000 1.752
29.40000 1.639
29.42000 4.489
29.44000 1.563
29.46000 3.917
29.48000 6.443
29.50000 9.504
29.52000 3.716
29.54000 0.730
29.56000 -0.486
29.58000 1.577
29.60000 5.228
29.62000 5.528
29.64000 -0.645
29.66000 3.530
29.68000 3.874
29.70000 4.062
29.72000 8.864
29.74000 11.069
29.76000 5.178
29.78000 1.821
29.80000 3.697
29.82000 3.835
29.84000 2.416
29.86000 4.177
29.88000 8.234
29.90000 5.885
29.92000 2.919
29.94000 5.348
29.96000 4.492
29.98000 6.482
30.00000 8.376
30.02000 5.441
30.04000 5.279
30.06000 3.329
30.08000 2.092
30.10000 5.223
30.12000 8.774
30.14000 2.883
30.16000 0.717
30.18000 -3.691
30.20000 -0.519
30.22000 3.445
30.24000 3.633
30.26000 5.543
30.28000 8.203
30.30000 7.163
30.32000 11.614
30.34000 6.666
30.36000 3.315
30.38000 7.916
30.40000 9.184
30.42000 0.286
30.44000 -0.264
30.46000 0.226
30.48000 2.269
30.50000 6.385
30.52000 13.025
30.54000 4.632
30.56000 0.553
30.58000 4.373
30.60000 3.662
30.62000 3.445
30.64000 3.513
30.66000 5.447
30.68000 6.509
30.70000 3.640
30.72000 5.359
30.74000 5.823
30.76000 5.101
30.78000 3.238
30.80000 -2.765
30.82000 -3.699
30.84000 1.881
30.86000 1.646
30.88000 2.358
30.90000 3.956
30.92000 2.549
30.94000 -2.731
30.96000 -2.018
30.98000 0.123
31.00000 1.815
31.02000 6.023
31.04000 5.644
31.06000 4.073
31.08000 3.809
31.10000 0.900
31.12000 -1.819
31.14000 -2.014
31.16000 0.607
31.18000 -0.423
31.20000 2.579
31.22000 5.644
31.24000 4.110
31.26000 -0.332
31.28000 2.431
31.30000 4.798
31.32000 2.510
31.34000 0.088
31.36000 2.607
31.38000 -0.008
31.40000 -0.032
31.42000 4.451
31.44000 3.475
31.46000 -0.097
31.48000 0.184
31.50000 3.010
31.52000 2.668
31.54000 1.694
31.56000 1.744
31.58000 0.095
31.60000 1.936
31.62000 0.268
31.64000 -0.182
31.66000 1.484
31.68000 1.101
31.70000 1.797
31.72000 2.149
31.74000 2.866
31.76000 -1.540
31.78000 -3.687
31.80000 -2.047
31.82000 -1.888
31.84000 -0.547
31.86000 2.388
31.88000 5.848
31.90000 4.427
31.92000 5.379
31.94000 3.004
31.96000 7.005
31.98000 4.741
32.00000 -0.250
32.02000 0.357
32.04000 8.967
32.06000 8.690
32.08000 4.128
32.10000 3.409
32.12000 5.306
32.14000 3.287
32.16000 5.349
32.18000 6.436
32.20000 2.676
32.22000 1.246
32.24000 2.788
32.26000 4.400
32.28000 4.976
32.30000 3.878
32.32000 2.494
32.34000 5.867
32.36000 5.358
32.38000 -3.298
32.40000 -2.849
32.42000 -3.208
32.44000 0.028
32.46000 7.034
32.48000 4.046
32.50000 -3.661
32.52000 2.559
32.54000 5.175
32.56000 1.143
32.58000 2.938
32.60000 5.054
32.62000 2.207
32.64000 -2.546
32.66000 -2.219
32.68000 -3.661
32.70000 -0.642
32.72000 0.672
32.74000 1.365
32.76000 2.879
32.78000 4.391
32.80000 5.441
32.82000 7.060
32.84000 4.214
32.86000 -2.964
32.88000 -0.934
32.90000 1.663
32.92000 2.065
32.94000 -1.436
32.96000 2.880
32.98000 5.687
33.00000 4.004
33.02000 0.418
33.04000 -2.098
33.06000 2.603
33.08000 -2.487
33.10000 -0.192
33.12000 2.500
33.14000 5.997
33.16000 4.424
33.18000 0.106
33.20000 -2.772
33.22000 3.634
33.24000 2.582
33.26000 -0.749
33.28000 -2.086
33.30000 0.407
33.32000 -3.661
33.34000 -3.612
33.36000 1.817
33.38000 1.692
33.40000 1.475
33.42000 2.013
33.44000 1.440
33.46000 -0.358
33.48000 -1.890
33.50000 -2.905
33.52000 3.468
33.54000 2.904
33.56000 0.949
33.58000 2.048
33.60000 -1.907
33.62000 1.829
33.64000 3.791
33.66000 10.035
33.68000 6.474
33.70000 -0.989
33.72000 -3.657
33.74000 -1.145
33.76000 0.377
33.78000 -0.649
33.80000 1.513
33.82000 6.503
33.84000 4.306
33.86000 2.804
33.88000 3.261
33.90000 1.241
33.92000 1.217
33.94000 1.533
33.96000 9.507
33.98000 5.265
34.00000 1.989
34.02000 3.730
34.04000 6.770
34.06000 5.956
34.08000 5.405
34.10000 7.195
34.12000 3.072
34.14000 2.201
34.16000 1.354
34.18000 -1.342
34.20000 2.912
34.22000 2.120
34.24000 2.023
34.26000 1.610
34.28000 3.855
34.30000 3.825
34.32000 3.614
34.34000 0.998
34.36000 1.410
34.38000 1.372
34.40000 2.023
34.42000 -0.572
34.44000 2.396
34.46000 1.907
34.48000 2.674
34.50000 5.639
34.52000 9.080
34.54000 2.527
34.56000 -3.640
34.58000 -2.474
34.60000 0.233
34.62000 -1.370
34.64000 0.959
34.66000 3.244
34.68000 3.065
34.70000 1.367
34.72000 2.354
34.74000 0.773
34.76000 0.112
34.78000 2.370
34.80000 -0.220
34.82000 -1.897
34.84000 3.101
34.86000 6.331
34.88000 1.775
34.90000 -1.616
34.92000 -0.237
34.94000 -2.518
34.96000 -0.763
34.98000 3.060
35.00000 4.488
35.02000 4.836
35.04000 -0.561
35.06000 -2.267
35.08000 2.293
35.10000 6.306
35.12000 2.241
35.14000 2.781
35.16000 3.613
35.18000 2.937
35.20000 4.364
35.22000 6.374
35.24000 0.676
35.26000 3.861
35.28000 6.804
35.30000 5.249
35.32000 6.109
35.34000 4.821
35.36000 1.348
35.38000 -0.486
35.40000 -1.162
35.42000 -1.461
35.44000 2.184
35.46000 3.274
35.48000 4.680
35.50000 2.562
35.52000 0.925
35.54000 6.204
35.56000 7.478
35.58000 4.228
35.60000 -0.953
35.62000 2.963
35.64000 0.639
35.66000 1.748
35.68000 2.196
35.70000 4.033
35.72000 2.555
35.74000 -3.627
35.76000 -0.225
35.78000 3.432
35.80000 6.927
35.82000 2.796
35.84000 5.038
35.86000 -0.256
35.88000 -0.558
35.90000 -0.846
35.92000 -3.463
35.94000 0.659
35.96000 5.224
35.98000 2.536
36.00000 1.172
36.02000 1.824
36.04000 1.413
36.06000 -0.505
36.08000 0.701
36.10000 -2.854
36.12000 -0.597
36.14000 0.480
36.16000 2.170
36.18000 12.022
36.20000 7.169
36.22000 4.620
36.24000 3.074
36.26000 0.935
36.28000 -0.158
36.30000 4.497
36.32000 5.272
36.34000 0.950
36.36000 2.557
36.38000 3.602
36.40000 1.585
36.42000 5.548
36.44000 6.694
36.46000 5.913
36.48000 0.149
36.50000 10.551
36.52000 5.193
36.54000 8.217
36.56000 7.737
36.58000 9.224
36.60000 6.371
36.62000 8.246
36.64000 14.150
36.66000 6.823
36.68000 9.194
36.70000 13.783
36.72000 10.102
36.74000 8.537
36.76000 7.808
36.78000 15.653
36.80000 15.076
36.82000 10.547
36.84000 13.920
36.86000 11.787
36.88000 12.682
36.90000 12.495
36.92000 12.784
36.94000 15.163
36.96000 17.076
36.98000 13.371
37.00000 13.894
37.02000 16.411
37.04000 12.808
37.06000 14.948
37.08000 12.752
37.10000 14.719
37.12000 19.712
37.14000 17.151
37.16000 14.664
37.18000 8.144
37.20000 13.084
37.22000 18.968
37.24000 20.585
37.26000 22.615
37.28000 23.987
37.30000 20.432
37.32000 22.154
37.34000 23.576
37.36000 26.274
37.38000 21.560
37.40000 20.147
37.42000 19.698
37.44000 26.422
37.46000 28.918
37.48000 28.366
37.50000 25.806
37.52000 21.976
37.54000 30.760
37.56000 32.289
37.58000 32.156
37.60000 29.112
37.62000 31.883
37.64000 34.360
37.66000 33.801
37.68000 32.487
37.70000 32.686
37.72000 35.743
37.74000 36.337
37.76000 37.378
37.78000 37.596
37.80000 39.687
37.82000 40.315
37.84000 43.261
37.86000 41.686
37.88000 43.390
37.90000 47.258
37.92000 41.474
37.94000 40.257
37.96000 50.893
37.98000 51.766
38.00000 49.741
38.02000 52.530
38.04000 52.739
38.06000 57.529
38.08000 53.113
38.10000 58.731
38.12000 71.124
38.14000 77.051
38.16000 74.177
38.18000 71.960
38.20000 73.451
38.22000 81.342
38.24000 90.603
38.26000 100.680
38.28000 100.255
38.30000 103.612
38.32000 108.667
38.34000 110.115
38.36000 120.051
38.38000 129.703
38.40000 128.931
38.42000 136.161
38.44000 151.062
38.46000 163.871
38.48000 179.372
38.50000 189.414
38.52000 194.538
38.54000 200.167
38.56000 210.889
38.58000 222.235
38.60000 242.686
38.62000 251.797
38.64000 262.890
38.66000 278.476
38.68000 277.434
38.70000 275.551
38.72000 278.668
38.74000 287.338
38.76000 288.897
38.78000 291.270
38.80000 295.827
38.82000 297.817
38.84000 293.266
38.86000 288.170
38.88000 289.831
38.90000 277.960
38.92000 269.657
38.94000 258.595
38.96000 248.530
38.98000 238.304
39.00000 232.025
39.02000 224.144
39.04000 208.854
39.06000 206.301
39.08000 190.545
39.10000 182.215
39.12000 170.210
39.14000 161.860
39.16000 150.534
39.18000 147.408
39.20000 136.054
39.22000 133.126
39.24000 126.121
39.26000 115.035
39.28000 106.288
39.30000 99.896
39.32000 102.233
39.34000 90.017
39.36000 81.512
39.38000 78.693
39.40000 75.188
39.42000 75.204
39.44000 73.650
39.46000 70.398
39.48000 63.863
39.50000 60.147
39.52000 51.699
39.54000 55.437
39.56000 50.984
39.58000 50.780
39.60000 50.053
39.62000 43.216
39.64000 38.670
39.66000 41.389
39.68000 37.895
39.70000 38.996
39.72000 44.884
39.74000 39.187
39.76000 36.390
39.78000 36.044
39.80000 32.595
39.82000 25.534
39.84000 20.440
39.86000 26.362
39.88000 27.928
39.90000 27.220
39.92000 28.233
39.94000 25.058
39.96000 20.606
39.98000 17.406
40.00000 18.336
40.02000 15.743
40.04000 16.836
40.06000 15.743
40.08000 22.805
40.10000 23.926
40.12000 20.741
40.14000 19.215
40.16000 17.968
40.18000 18.579
40.20000 15.715
40.22000 11.636
40.24000 15.394
40.26000 16.117
40.28000 15.724
40.30000 15.808
40.32000 12.691
40.34000 12.366
40.36000 10.401
40.38000 14.271
40.40000 12.239
40.42000 8.535
40.44000 10.055
40.46000 9.061
40.48000 8.556
40.50000 10.133
40.52000 9.147
40.54000 7.641
40.56000 10.813
40.58000 9.334
40.60000 7.719
40.62000 7.314
40.64000 10.338
40.66000 10.213
40.68000 8.221
40.70000 8.933
40.72000 6.340
40.74000 7.093
40.76000 7.992
40.78000 7.787
40.80000 4.403
40.82000 6.591
40.84000 8.204
40.86000 7.102
40.88000 7.567
40.90000 2.148
40.92000 2.203
40.94000 3.593
40.96000 3.977
40.98000 5.936
41.00000 4.619
41.02000 4.000
41.04000 3.185
41.06000 6.200
41.08000 4.225
41.10000 3.758
41.12000 5.871
41.14000 5.820
41.16000 4.494
41.18000 3.100
41.20000 2.265
41.22000 2.264
41.24000 0.759
41.26000 0.810
41.28000 0.429
41.30000 1.323
41.32000 -1.610
41.34000 -2.188
41.36000 2.359
41.38000 0.185
41.40000 -3.513
41.42000 0.299
41.44000 2.138
41.46000 3.414
41.48000 3.740
41.50000 1.943
41.52000 2.301
41.54000 5.329
41.56000 3.683
41.58000 -1.020
41.60000 -1.027
41.62000 0.562
41.64000 2.921
41.66000 5.606
41.68000 4.509
41.70000 3.187
41.72000 7.010
41.74000 2.104
41.76000 -2.422
41.78000 -2.780
41.80000 2.016
41.82000 1.592
41.84000 0.480
41.86000 2.360
41.88000 1.331
41.90000 -1.281
41.92000 -1.618
41.94000 0.546
41.96000 1.257
41.98000 3.678
42.00000 1.498
42.02000 -0.343
42.04000 -1.328
42.06000 3.069
42.08000 4.567
42.10000 4.096
42.12000 4.013
42.14000 -1.143
42.16000 -3.414
42.18000 -3.239
42.20000 -3.060
42.22000 -2.411
42.24000 2.655
42.26000 3.035
42.28000 5.615
42.30000 5.380
42.32000 3.575
42.34000 1.935
42.36000 0.795
42.38000 1.382
42.40000 5.586
42.42000 4.357
42.44000 1.419
42.46000 2.156
42.48000 3.608
42.50000 3.081
42.52000 -0.835
42.54000 1.769
42.56000 5.880
42.58000 6.268
42.60000 -0.561
42.62000 0.638
42.64000 3.256
42.66000 0.527
42.68000 1.531
42.70000 -0.190
42.72000 -2.947
42.74000 -2.319
42.76000 -0.897
42.78000 -3.068
42.80000 -2.366
42.82000 -0.211
42.84000 -0.923
42.86000 1.752
42.88000 1.035
42.90000 -1.830
42.92000 -0.172
42.94000 -0.226
42.96000 -1.513
42.98000 -2.821
43.00000 0.030
43.02000 2.719
43.04000 1.974
43.06000 0.897
43.08000 0.887
43.10000 -1.441
43.12000 -0.749
43.14000 2.784
43.16000 2.903
43.18000 1.131
43.20000 4.200
43.22000 -1.292
43.24000 -3.312
43.26000 -1.991
43.28000 -1.413
43.30000 -1.903
43.32000 0.068
43.34000 1.687
43.36000 3.951
43.38000 0.455
43.40000 -1.182
43.42000 1.796
43.44000 -1.047
43.46000 -0.414
43.48000 0.845
43.50000 0.999
43.52000 -0.985
43.54000 0.172
43.56000 2.762
43.58000 2.656
43.60000 0.930
43.62000 3.779
43.64000 3.980
43.66000 3.611
43.68000 2.983
43.70000 2.166
43.72000 0.489
43.74000 2.848
43.76000 7.187
43.78000 6.274
43.80000 3.569
43.82000 2.086
43.84000 2.995
43.86000 5.833
43.88000 4.193
43.90000 2.854
43.92000 6.835
43.94000 8.988
43.96000 8.198
43.98000 6.325
44.00000 6.883
44.02000 7.228
44.04000 7.684
44.06000 7.182
44.08000 6.681
44.10000 6.676
44.12000 7.959
44.14000 8.551
44.16000 8.671
44.18000 10.700
44.20000 14.730
44.22000 17.867
44.24000 14.697
44.26000 12.916
44.28000 13.126
44.30000 11.608
44.32000 13.042
44.34000 17.347
44.36000 14.584
44.38000 16.051
44.40000 20.590
44.42000 21.872
44.44000 22.411
44.46000 20.412
44.48000 20.940
44.50000 24.536
44.52000 29.521
44.54000 37.202
44.56000 32.728
44.58000 30.683
44.60000 38.152
44.62000 39.641
44.64000 38.172
44.66000 41.700
44.68000 45.706
44.70000 50.114
44.72000 51.654
44.74000 58.517
44.76000 61.104
44.78000 63.652
44.80000 65.731
44.82000 65.857
44.84000 70.073
44.86000 82.946
44.88000 87.019
44.90000 87.789
44.92000 95.197
44.94000 94.145
44.96000 95.719
44.98000 100.996
45.00000 107.938
45.02000 111.917
45.04000 108.115
45.06000 111.160
45.08000 113.935
45.10000 113.342
45.12000 117.063
45.14000 118.536
45.16000 117.966
45.18000 119.672
45.20000 116.630
45.22000 113.018
45.24000 113.024
45.26000 107.630
45.28000 106.658
45.30000 104.668
45.32000 100.158
45.34000 100.550
45.36000 96.486
45.38000 96.622
45.40000 90.005
45.42000 81.367
45.44000 76.651
45.46000 74.884
45.48000 72.263
45.50000 69.069
45.52000 65.022
45.54000 60.900
45.56000 60.134
45.58000 61.615
45.60000 55.350
45.62000 51.806
45.64000 49.597
45.66000 43.160
45.68000 39.964
45.70000 39.385
45.72000 32.783
45.74000 32.164
45.76000 26.558
45.78000 27.612
45.80000 29.310
45.82000 23.600
45.84000 20.521
45.86000 22.897
45.88000 22.796
45.90000 18.414
45.92000 12.620
45.94000 13.774
45.96000 13.305
45.98000 21.174
46.00000 17.102
46.02000 13.182
46.04000 14.204
46.06000 11.271
46.08000 11.439
46.10000 10.509
46.12000 7.254
46.14000 10.008
46.16000 13.830
46.18000 8.423
46.20000 7.855
46.22000 7.593
46.24000 9.589
46.26000 4.788
46.28000 4.587
46.30000 5.003
46.32000 6.020
46.34000 7.065
46.36000 5.797
46.38000 1.862
46.40000 0.515
46.42000 3.523
46.44000 2.842
46.46000 -2.993
46.48000 -1.374
46.50000 5.805
46.52000 5.692
46.54000 1.373
46.56000 0.451
46.58000 0.410
46.60000 2.765
46.62000 0.923
46.64000 1.050
46.66000 0.969
46.68000 1.424
46.70000 -0.118
46.72000 -0.987
46.74000 3.589
46.76000 2.382
46.78000 4.411
46.80000 5.004
46.82000 0.819
46.84000 3.571
46.86000 3.974
46.88000 5.972
46.90000 5.672
46.92000 7.364
46.94000 0.773
46.96000 -2.926
46.98000 0.718
47.00000 1.902
47.02000 3.458
47.04000 5.648
47.06000 3.221
47.08000 0.438
47.10000 3.644
47.12000 1.882
47.14000 1.585
47.16000 0.808
47.18000 1.229
47.20000 3.409
47.22000 2.269
47.24000 -1.746
47.26000 2.172
47.28000 1.632
47.30000 -1.353
47.32000 1.114
47.34000 3.045
47.36000 0.403
47.38000 4.841
47.40000 1.955
47.42000 -2.875
47.44000 -0.007
47.46000 6.437
47.48000 0.463
47.50000 -1.343
47.52000 -2.867
47.54000 2.010
47.56000 0.647
47.58000 -2.803
47.60000 2.132
47.62000 3.998
47.64000 1.429
47.66000 3.007
47.68000 4.046
47.70000 3.796
47.72000 2.762
47.74000 0.658
47.76000 -1.603
47.78000 2.351
47.80000 3.563
47.82000 1.891
47.84000 1.234
47.86000 1.525
47.88000 1.259
47.90000 3.603
47.92000 7.827
47.94000 5.888
47.96000 0.064
47.98000 4.191
48.00000 -1.718
48.02000 -1.424
48.04000 -1.297
48.06000 -0.419
48.08000 -0.265
48.10000 -0.440
48.12000 -0.376
48.14000 1.255
48.16000 3.599
48.18000 4.896
48.20000 4.957
48.22000 3.153
48.24000 0.720
48.26000 2.082
48.28000 3.281
48.30000 -1.068
48.32000 -2.019
48.34000 4.078
48.36000 4.551
48.38000 -2.796
48.40000 -2.401
48.42000 2.925
48.44000 5.595
48.46000 5.552
48.48000 1.514
48.50000 1.135
48.52000 -0.436
48.54000 3.521
48.56000 0.599
48.58000 -1.690
48.60000 4.957
48.62000 3.991
48.64000 3.713
48.66000 2.617
48.68000 -0.271
48.70000 1.845
48.72000 2.808
48.74000 0.093
48.76000 -1.087
48.78000 -1.094
48.80000 -0.485
48.82000 3.400
48.84000 -1.066
48.86000 1.700
48.88000 2.304
48.90000 4.658
48.92000 3.604
48.94000 -0.607
48.96000 4.429
48.98000 3.533
49.00000 5.404
49.02000 0.416
49.04000 -2.608
49.06000 -1.968
49.08000 -1.427
49.10000 2.637
49.12000 5.868
49.14000 3.084
49.16000 5.193
49.18000 1.299
49.20000 0.274
49.22000 -2.754
49.24000 -0.425
49.26000 -0.542
49.28000 2.137
49.30000 4.428
49.32000 2.429
49.34000 5.191
49.36000 4.075
49.38000 2.315
49.40000 2.552
49.42000 0.665
49.44000 -2.741
49.46000 -0.022
49.48000 4.004
49.50000 2.564
49.52000 2.561
49.54000 5.454
49.56000 1.128
49.58000 -0.103
49.60000 1.807
49.62000 -0.499
49.64000 4.450
49.66000 2.710
49.68000 3.182
49.70000 3.522
49.72000 3.075
49.74000 2.082
49.76000 3.123
49.78000 2.258
49.80000 -0.202
49.82000 -1.183
49.84000 -2.719
49.86000 -1.504
49.88000 3.660
49.90000 3.165
49.92000 0.043
49.94000 3.407
49.96000 3.765
49.98000 0.940
50.00000 -1.144
50.02000 -1.177
50.04000 2.596
50.06000 1.727
50.08000 0.592
50.10000 1.222
50.12000 3.222
50.14000 2.990
50.16000 -0.151
50.18000 3.488
50.20000 0.138
50.22000 -2.711
50.24000 -1.181
50.26000 -1.273
50.28000 0.410
50.30000 1.901
50.32000 6.305
50.34000 3.906
50.36000 1.449
50.38000 3.767
50.40000 6.190
50.42000 4.076
50.44000 3.485
50.46000 -0.841
50.48000 2.430
50.50000 -0.107
50.52000 0.173
50.54000 1.512
50.56000 1.712
50.58000 -0.178
50.60000 2.240
50.62000 2.930
50.64000 0.036
50.66000 -1.586
50.68000 -2.228
50.70000 1.210
50.72000 2.303
50.74000 4.913
50.76000 1.939
50.78000 -2.691
50.80000 -2.517
50.82000 -1.783
50.84000 -1.516
50.86000 2.772
50.88000 2.037
50.90000 1.523
50.92000 2.010
50.94000 5.969
50.96000 6.079
50.98000 6.407
51.00000 4.569
51.02000 3.965
51.04000 1.554
51.06000 3.304
51.08000 7.120
51.10000 -0.963
51.12000 -1.476
51.14000 0.136
51.16000 -0.938
51.18000 0.940
51.20000 0.701
51.22000 3.177
51.24000 4.629
51.26000 1.445
51.28000 3.028
51.30000 -0.451
51.32000 2.531
51.34000 -2.327
51.36000 1.753
51.38000 3.339
51.40000 0.696
51.42000 2.927
51.44000 4.516
51.46000 5.076
51.48000 3.060
51.50000 4.539
51.52000 6.144
51.54000 4.663
51.56000 1.960
51.58000 4.018
51.60000 3.740
51.62000 1.555
51.64000 4.765
51.66000 6.338
51.68000 10.044
51.70000 10.086
51.72000 4.476
51.74000 3.391
51.76000 5.355
51.78000 7.683
51.80000 1.669
51.82000 2.670
51.84000 6.434
51.86000 5.891
51.88000 4.714
51.90000 6.251
51.92000 4.736
51.94000 5.884
51.96000 1.954
51.98000 3.439
52.00000 6.449
52.02000 7.390
52.04000 6.313
52.06000 3.204
52.08000 1.941
52.10000 2.657
52.12000 1.899
52.14000 5.208
52.16000 6.258
52.18000 7.891
52.20000 4.487
52.22000 3.871
52.24000 7.324
52.26000 8.723
52.28000 10.913
52.30000 6.449
52.32000 -2.562
52.34000 3.450
52.36000 6.687
52.38000 5.494
52.40000 3.217
52.42000 5.723
52.44000 7.229
52.46000 7.388
52.48000 7.290
52.50000 5.780
52.52000 6.215
52.54000 5.735
52.56000 2.711
52.58000 4.573
52.60000 5.280
52.62000 2.647
52.64000 0.330
52.66000 5.642
52.68000 6.833
52.70000 2.327
52.72000 2.942
52.74000 2.410
52.76000 3.690
52.78000 6.508
52.80000 2.454
52.82000 4.848
52.84000 6.629
52.86000 4.472
52.88000 1.661
52.90000 0.549
52.92000 5.246
52.94000 3.638
52.96000 2.218
52.98000 4.120
53.00000 5.875
53.02000 6.842
53.04000 4.948
53.06000 8.982
53.08000 9.227
53.10000 7.878
53.12000 7.399
53.14000 8.448
53.16000 8.354
53.18000 3.622
53.20000 6.835
53.22000 4.972
53.24000 3.360
53.26000 -0.761
53.28000 -0.824
53.30000 1.719
53.32000 3.384
53.34000 -0.642
53.36000 1.616
53.38000 1.784
53.40000 1.404
53.42000 1.266
53.44000 -0.615
53.46000 1.874
53.48000 3.886
53.50000 1.515
53.52000 2.558
53.54000 2.998
53.56000 -0.248
53.58000 4.570
53.60000 6.486
53.62000 7.750
53.64000 5.397
53.66000 3.577
53.68000 3.718
53.70000 2.089
53.72000 2.411
53.74000 -2.291
53.76000 2.195
53.78000 5.738
53.80000 3.833
53.82000 -1.169
53.84000 3.324
53.86000 2.252
53.88000 -1.291
53.90000 -2.582
53.92000 -1.611
53.94000 3.921
53.96000 7.360
53.98000 7.046
54.00000 2.938
54.02000 4.152
54.04000 3.361
54.06000 4.750
54.08000 5.986
54.10000 4.567
54.12000 5.139
54.14000 5.449
54.16000 0.669
54.18000 1.318
54.20000 3.147
54.22000 3.123
54.24000 2.691
54.26000 0.268
54.28000 4.341
54.30000 3.641
54.32000 2.558
54.34000 0.706
54.36000 4.405
54.38000 6.869
54.40000 4.238
54.42000 -0.261
54.44000 -0.705
54.46000 -2.567
54.48000 -1.528
54.50000 0.511
54.52000 0.362
54.54000 -0.035
54.56000 3.616
54.58000 5.773
54.60000 1.858
54.62000 2.617
54.64000 -0.991
54.66000 -0.355
54.68000 3.446
54.70000 5.209
54.72000 2.238
54.74000 3.046
54.76000 5.273
54.78000 1.841
54.80000 1.976
54.82000 2.927
54.84000 1.883
54.86000 3.358
54.88000 2.690
54.90000 4.946
54.92000 4.231
54.94000 2.264
54.96000 5.244
54.98000 7.594
55.00000 4.221
55.02000 -1.385
55.04000 -1.028
55.06000 1.431
55.08000 0.509
55.10000 -0.425
55.12000 -2.504
55.14000 -0.705
55.16000 -2.558
55.18000 -1.565
55.20000 -1.362
55.22000 3.548
55.24000 6.628
55.26000 2.705
55.28000 4.836
55.30000 6.822
55.32000 3.998
55.34000 2.258
55.36000 5.380
55.38000 2.708
55.40000 3.320
55.42000 3.054
55.44000 4.911
55.46000 5.739
55.48000 6.220
55.50000 4.332
55.52000 2.263
55.54000 -0.127
55.56000 1.818
55.58000 2.219
55.60000 6.121
55.62000 4.414
55.64000 -1.378
55.66000 1.077
55.68000 3.469
55.70000 3.896
55.72000 1.959
55.74000 -0.368
55.76000 0.704
55.78000 1.113
55.80000 2.123
55.82000 2.308
55.84000 2.794
55.86000 5.272
55.88000 -0.225
55.90000 -0.438
55.92000 -0.955
55.94000 -2.535
55.96000 2.513
55.98000 4.045
56.00000 0.669
56.02000 2.054
56.04000 2.217
56.06000 1.865
56.08000 0.672
56.10000 2.784
56.12000 3.624
56.14000 0.964
56.16000 1.293
56.18000 0.581
56.20000 0.481
56.22000 2.252
56.24000 2.007
56.26000 0.722
56.28000 2.353
56.30000 2.574
56.32000 3.539
56.34000 3.132
56.36000 2.431
56.38000 2.424
56.40000 3.153
56.42000 2.361
56.44000 2.061
56.46000 3.865
56.48000 1.357
56.50000 1.039
56.52000 5.097
56.54000 1.636
56.56000 2.200
56.58000 3.598
56.60000 2.203
56.62000 -1.993
56.64000 0.099
56.66000 0.619
56.68000 3.045
56.70000 2.396
56.72000 1.559
56.74000 -0.070
56.76000 0.414
56.78000 0.317
56.80000 2.034
56.82000 -0.538
56.84000 1.977
56.86000 1.504
56.88000 2.556
56.90000 2.245
56.92000 0.358
56.94000 0.727
56.96000 3.461
56.98000 4.298
57.00000 1.478
57.02000 0.123
57.04000 -1.751
57.06000 -0.066
57.08000 2.322
57.10000 1.144
57.12000 4.221
57.14000 3.505
57.16000 1.264
57.18000 0.900
57.20000 3.399
57.22000 2.529
57.24000 0.501
57.26000 2.314
57.28000 6.073
57.30000 0.863
57.32000 0.400
57.34000 4.094
57.36000 2.013
57.38000 3.056
57.40000 1.360
57.42000 -2.486
57.44000 0.609
57.46000 3.483
57.48000 4.601
57.50000 3.210
57.52000 4.210
57.54000 4.619
57.56000 4.818
57.58000 6.021
57.60000 2.086
57.62000 2.994
57.64000 2.354
57.66000 2.426
57.68000 6.005
57.70000 4.417
57.72000 1.602
57.74000 1.962
57.76000 2.758
57.78000 1.585
57.80000 2.071
57.82000 0.103
57.84000 3.189
57.86000 4.764
57.88000 1.585
57.90000 4.823
57.92000 5.535
57.94000 4.947
57.96000 4.389
57.98000 -0.791
58.00000 2.407
58.02000 5.148
58.04000 4.119
58.06000 3.332
58.08000 4.724
58.10000 3.363
58.12000 1.336
58.14000 1.514
58.16000 6.882
58.18000 2.273
58.20000 3.117
58.22000 5.246
58.24000 3.194
58.26000 0.207
58.28000 1.781
58.30000 1.519
58.32000 1.192
58.34000 1.337
58.36000 2.935
58.38000 2.941
58.40000 4.326
58.42000 2.926
58.44000 4.733
58.46000 -0.007
58.48000 -2.438
58.50000 1.300
58.52000 4.527
58.54000 5.392
58.56000 0.678
58.58000 -0.934
58.60000 4.787
58.62000 4.636
58.64000 4.854
58.66000 6.367
58.68000 5.058
58.70000 2.657
58.72000 1.798
58.74000 2.775
58.76000 0.115
58.78000 6.532
58.80000 6.355
58.82000 3.966
58.84000 5.846
58.86000 2.656
58.88000 8.445
58.90000 4.974
58.92000 4.927
58.94000 2.710
58.96000 1.143
58.98000 4.853
59.00000 2.051
59.02000 -1.758
59.04000 1.221
59.06000 1.747
59.08000 1.047
59.10000 2.918
59.12000 4.689
59.14000 3.373
59.16000 2.326
59.18000 2.511
59.20000 4.242
59.22000 1.479
59.24000 2.495
59.26000 3.924
59.28000 6.635
59.30000 2.284
59.32000 2.202
59.34000 5.811
59.36000 4.105
59.38000 5.225
59.40000 7.052
59.42000 5.534
59.44000 5.552
59.46000 7.537
59.48000 6.316
59.50000 5.901
59.52000 6.088
59.54000 6.105
59.56000 7.805
59.58000 7.281
59.60000 7.689
59.62000 9.267
59.64000 6.778
59.66000 4.910
59.68000 2.336
59.70000 5.246
59.72000 2.837
59.74000 2.135
59.76000 1.974
59.78000 2.237
59.80000 0.190
59.82000 -2.355
59.84000 2.307
59.86000 6.192
59.88000 5.265
59.90000 4.070
59.92000 6.310
59.94000 4.428
59.96000 8.649
59.98000 6.450
60.00000 3.164
60.02000 4.362
60.04000 3.570
60.06000 2.809
60.08000 2.529
60.10000 5.663
60.12000 5.107
60.14000 5.153
60.16000 6.293
60.18000 4.014
60.20000 0.369
60.22000 2.509
60.24000 4.763
60.26000 2.749
60.28000 0.815
60.30000 1.905
60.32000 1.569
60.34000 -2.362
60.36000 -1.211
60.38000 4.732
60.40000 4.494
60.42000 2.436
60.44000 0.851
60.46000 -1.474
60.48000 1.906
60.50000 4.653
60.52000 3.613
60.54000 0.703
60.56000 -2.300
60.58000 1.759
60.60000 4.019
60.62000 1.306
60.64000 1.745
60.66000 -0.359
60.68000 2.404
60.70000 0.779
60.72000 0.419
60.74000 0.216
60.76000 0.825
60.78000 -0.122
60.80000 0.017
60.82000 3.331
60.84000 0.735
60.86000 -2.058
60.88000 1.052
60.90000 5.183
60.92000 5.315
60.94000 3.986
60.96000 2.663
60.98000 0.611
61.00000 -1.814
61.02000 0.199
61.04000 2.346
61.06000 1.241
61.08000 2.262
61.10000 3.083
61.12000 2.055
61.14000 0.661
61.16000 0.446
61.18000 0.542
61.20000 1.501
61.22000 2.831
61.24000 2.452
61.26000 1.011
61.28000 0.029
61.30000 2.117
61.32000 2.116
61.34000 1.256
61.36000 3.840
61.38000 1.276
61.40000 3.982
61.42000 4.178
61.44000 1.968
61.46000 3.730
61.48000 2.404
61.50000 1.105
61.52000 0.284
61.54000 2.864
61.56000 2.862
61.58000 0.686
61.60000 1.201
61.62000 1.767
61.64000 0.023
61.66000 1.551
61.68000 -1.206
61.70000 -1.914
61.72000 -1.755
61.74000 -2.367
61.76000 1.588
61.78000 3.388
61.80000 0.784
61.82000 1.695
61.84000 0.935
61.86000 2.625
61.88000 2.785
61.90000 -0.484
61.92000 0.234
61.94000 3.383
61.96000 -1.211
61.98000 1.682
62.00000 3.755
62.02000 -1.417
62.04000 -1.734
62.06000 -1.533
62.08000 0.629
62.10000 1.482
62.12000 -0.327
62.14000 1.874
62.16000 -1.782
62.18000 -0.566
62.20000 1.239
62.22000 -0.403
62.24000 -0.338
62.26000 -1.444
62.28000 1.913
62.30000 4.010
62.32000 4.231
62.34000 2.216
62.36000 4.208
62.38000 3.947
62.40000 -1.304
62.42000 -1.240
62.44000 -1.867
62.46000 0.808
62.48000 -1.030
62.50000 1.446
62.52000 0.734
62.54000 2.314
62.56000 2.115
62.58000 0.286
62.60000 1.568
62.62000 -0.016
62.64000 -2.327
62.66000 0.578
62.68000 3.219
62.70000 2.597
62.72000 2.625
62.74000 1.009
62.76000 1.011
62.78000 2.036
62.80000 1.463
62.82000 -0.088
62.84000 0.952
62.86000 4.144
62.88000 4.857
62.90000 5.081
62.92000 5.513
62.94000 2.926
62.96000 1.399
62.98000 -0.521
63.00000 0.012
63.02000 1.460
63.04000 0.751
63.06000 -0.148
63.08000 -2.302
63.10000 -2.163
63.12000 1.223
63.14000 6.270
63.16000 4.961
63.18000 1.992
63.20000 1.710
63.22000 -1.244
63.24000 3.056
63.26000 4.775
63.28000 5.514
63.30000 5.568
63.32000 7.222
63.34000 7.329
63.36000 4.000
63.38000 1.131
63.40000 -0.673
63.42000 1.736
63.44000 3.980
63.46000 1.799
63.48000 3.212
63.50000 2.752
63.52000 2.707
63.54000 2.563
63.56000 2.547
63.58000 1.700
63.60000 1.912
63.62000 1.709
63.64000 3.444
63.66000 4.399
63.68000 2.061
63.70000 -2.291
63.72000 -1.262
63.74000 0.202
63.76000 4.205
63.78000 0.769
63.80000 5.241
63.82000 4.591
63.84000 3.007
63.86000 4.514
63.88000 6.004
63.90000 4.241
63.92000 1.920
63.94000 1.198
63.96000 1.243
63.98000 -0.281
64.00000 -0.580
64.02000 -2.311
64.04000 -0.059
64.06000 0.688
64.08000 -0.455
64.10000 2.731
64.12000 1.732
64.14000 0.278
64.16000 3.205
64.18000 2.434
64.20000 2.019
64.22000 3.593
64.24000 0.640
64.26000 -0.944
64.28000 0.788
64.30000 0.840
64.32000 2.079
64.34000 0.383
64.36000 2.217
64.38000 3.413
64.40000 2.278
64.42000 0.049
64.44000 0.615
64.46000 0.908
64.48000 -0.229
64.50000 0.524
64.52000 4.269
64.54000 4.939
64.56000 3.688
64.58000 1.742
64.60000 -1.447
64.62000 0.196
64.64000 -1.153
64.66000 0.671
64.68000 3.505
64.70000 3.037
64.72000 0.841
64.74000 -0.773
64.76000 -0.229
64.78000 0.897
64.80000 2.756
64.82000 2.788
64.84000 2.715
64.86000 4.901
64.88000 4.901
64.90000 0.335
64.92000 -1.282
64.94000 0.339
64.96000 1.586
64.98000 4.865
65.00000 4.613
65.02000 3.358
65.04000 0.458
65.06000 -0.391
65.08000 1.166
65.10000 2.510
65.12000 3.132
65.14000 5.345
65.16000 1.954
65.18000 3.642
65.20000 2.565
65.22000 3.810
65.24000 4.825
65.26000 1.361
65.28000 3.268
65.30000 1.164
65.32000 2.387
65.34000 2.487
65.36000 4.129
65.38000 1.903
65.40000 0.240
65.42000 5.899
65.44000 5.680
65.46000 0.194
65.48000 2.842
65.50000 3.755
65.52000 5.576
65.54000 6.757
65.56000 5.599
65.58000 5.099
65.60000 8.279
65.62000 7.406
65.64000 7.252
65.66000 6.690
65.68000 4.836
65.70000 4.279
65.72000 0.359
65.74000 4.658
65.76000 10.165
65.78000 9.586
65.80000 8.616
65.82000 7.897
65.84000 6.159
65.86000 3.547
65.88000 3.247
65.90000 5.437
65.92000 4.845
65.94000 6.036
65.96000 6.348
65.98000 3.123
66.00000 4.085
66.02000 3.186
66.04000 0.848
66.06000 0.693
66.08000 0.081
66.10000 2.057
66.12000 0.217
66.14000 0.750
66.16000 1.911
66.18000 2.260
66.20000 1.365
66.22000 2.776
66.24000 2.175
66.26000 3.384
66.28000 1.783
66.30000 0.831
66.32000 1.025
66.34000 0.206
66.36000 1.920
66.38000 2.071
66.40000 -0.060
66.42000 0.050
66.44000 0.196
66.46000 -0.030
66.48000 2.152
66.50000 2.109
66.52000 -0.174
66.54000 2.074
66.56000 1.458
66.58000 -0.935
66.60000 -1.654
66.62000 -0.641
66.64000 -0.527
66.66000 2.970
66.68000 0.851
66.70000 0.602
66.72000 -0.769
66.74000 2.256
66.76000 0.934
66.78000 -0.879
66.80000 -0.017
66.82000 -0.572
66.84000 -0.244
66.86000 -2.290
66.88000 -1.718
66.90000 0.230
66.92000 -2.284
66.94000 0.771
66.96000 1.341
66.98000 -1.339
67.00000 2.446
67.02000 2.956
67.04000 5.696
67.06000 2.770
67.08000 0.126
67.10000 0.769
67.12000 1.399
67.14000 0.027
67.16000 0.439
67.18000 1.034
67.20000 -1.771
67.22000 -0.278
67.24000 2.303
67.26000 -2.165
67.28000 2.076
67.30000 0.589
67.32000 -1.472
67.34000 0.552
67.36000 1.011
67.38000 -1.728
67.40000 -0.614
67.42000 -0.754
67.44000 -0.709
67.46000 0.632
67.48000 2.684
67.50000 1.562
67.52000 -0.182
67.54000 0.088
67.56000 -0.350
67.58000 -0.733
67.60000 -1.770
67.62000 -0.082
67.64000 -2.248
67.66000 0.481
67.68000 -0.596
67.70000 -1.051
67.72000 -0.812
67.74000 0.247
67.76000 -0.186
67.78000 0.705
67.80000 -0.770
67.82000 -0.594
67.84000 -1.566
67.86000 -2.236
67.88000 0.658
67.90000 1.946
67.92000 1.854
67.94000 0.400
67.96000 -1.340
67.98000 -1.277
68.00000 -0.004
68.02000 2.627
68.04000 3.007
68.06000 1.090
68.08000 0.755
68.10000 2.157
68.12000 0.681
68.14000 0.866
68.16000 0.709
68.18000 -0.441
68.20000 0.684
68.22000 2.197
68.24000 1.041
68.26000 1.599
68.28000 1.243
68.30000 0.863
68.32000 1.410
68.34000 1.530
68.36000 -0.657
68.38000 -1.245
68.40000 -2.096
68.42000 -1.808
68.44000 -2.223
68.46000 -1.128
68.48000 1.529
68.50000 -0.225
68.52000 0.717
68.54000 0.910
68.56000 0.111
68.58000 -1.321
68.60000 -2.063
68.62000 -2.114
68.64000 -0.837
68.66000 -0.014
68.68000 2.067
68.70000 0.550
68.72000 0.510
68.74000 1.580
68.76000 -0.193
68.78000 -0.357
68.80000 -0.698
68.82000 -0.752
68.84000 2.181
68.86000 3.630
68.88000 0.696
68.90000 -2.208
68.92000 -1.321
68.94000 0.185
68.96000 0.102
68.98000 -0.312
69.00000 1.990
69.02000 1.083
69.04000 1.113
69.06000 -0.802
69.08000 -0.929
69.10000 1.803
69.12000 0.692
69.14000 -0.082
69.16000 -1.162
69.18000 -0.369
69.20000 -1.287
69.22000 -1.736
69.24000 -0.046
69.26000 -0.400
69.28000 1.245
69.30000 1.107
69.32000 0.156
69.34000 -0.423
69.36000 -1.445
69.38000 -0.719
69.40000 1.159
69.42000 -0.572
69.44000 -0.814
69.46000 -0.793
69.48000 1.902
69.50000 3.711
69.52000 -0.452
69.54000 1.775
69.56000 0.805
69.58000 0.162
69.60000 1.439
69.62000 -2.162
69.64000 0.473
69.66000 0.373
69.68000 1.313
69.70000 0.744
69.72000 1.545
69.74000 1.502
69.76000 -0.125
69.78000 1.002
69.80000 1.594
69.82000 0.549
69.84000 -1.354
69.86000 0.120
69.88000 -0.192
69.90000 -1.231
69.92000 -0.215
69.94000 1.109
69.96000 2.449
69.98000 3.029
70.00000 3.283
70.02000 3.270
70.04000 1.030
70.06000 2.533
70.08000 -2.141
70.10000 0.113
70.12000 3.555
70.14000 4.799
70.16000 2.628
70.18000 4.377
70.20000 2.870
70.22000 -0.726
70.24000 -0.061
70.26000 -0.965
70.28000 -1.282
70.30000 -0.866
70.32000 -0.094
70.34000 1.887
70.36000 -1.111
70.38000 1.385
70.40000 2.882
70.42000 0.094
70.44000 -2.137
70.46000 0.360
70.48000 0.966
70.50000 2.301
70.52000 1.073
70.54000 -0.090
70.56000 1.766
70.58000 2.718
70.60000 -0.388
70.62000 -0.349
70.64000 -0.509
70.66000 -0.158
70.68000 2.856
70.70000 2.254
70.72000 1.205
70.74000 2.980
70.76000 2.585
70.78000 -1.469
70.80000 -1.219
70.82000 -2.134
70.84000 0.249
70.86000 2.117
70.88000 1.451
70.90000 0.938
70.92000 0.550
70.94000 2.937
70.96000 -0.175
70.98000 -0.656
71.00000 -1.797
71.02000 -1.564
71.04000 -0.013
71.06000 -0.981
71.08000 -0.664
71.10000 0.725
71.12000 0.299
71.14000 2.493
71.16000 -0.052
71.18000 3.673
71.20000 3.998
71.22000 0.525
71.24000 -2.122
71.26000 -0.268
71.28000 2.492
71.30000 1.618
71.32000 -1.702
71.34000 0.511
71.36000 0.336
71.38000 0.700
71.40000 0.197
71.42000 2.801
71.44000 2.153
71.46000 -1.744
71.48000 -0.178
71.50000 2.016
71.52000 2.715
71.54000 2.351
71.56000 2.017
71.58000 0.693
71.60000 0.098
71.62000 -1.281
71.64000 -0.348
71.66000 -1.491
71.68000 1.214
71.70000 3.853
71.72000 5.135
71.74000 1.581
71.76000 1.513
71.78000 1.189
71.80000 2.159
71.82000 4.728
71.84000 2.760
71.86000 -0.032
71.88000 -0.318
71.90000 0.802
71.92000 -1.721
71.94000 -1.072
71.96000 -1.977
71.98000 2.129
72.00000 2.766
72.02000 1.626
72.04000 1.982
72.06000 1.741
72.08000 -0.602
72.10000 -0.826
72.12000 1.369
72.14000 2.295
72.16000 2.355
72.18000 6.137
72.20000 4.992
72.22000 5.111
72.24000 4.736
72.26000 2.317
72.28000 0.404
72.30000 1.591
72.32000 -0.894
72.34000 1.450
72.36000 3.007
72.38000 2.113
72.40000 0.126
72.42000 1.766
72.44000 0.687
72.46000 -2.040
72.48000 -0.676
72.50000 2.731
72.52000 1.689
72.54000 -0.153
72.56000 2.446
72.58000 2.556
72.60000 2.262
72.62000 -0.303
72.64000 5.379
72.66000 5.138
72.68000 1.780
72.70000 1.704
72.72000 1.829
72.74000 -0.740
72.76000 -1.354
72.78000 -0.524
72.80000 1.203
72.82000 0.253
72.84000 0.155
72.86000 2.449
72.88000 3.414
72.90000 4.073
72.92000 4.937
72.94000 3.770
72.96000 2.363
72.98000 4.494
73.00000 5.055
73.02000 1.301
73.04000 0.089
73.06000 -0.403
73.08000 4.775
73.10000 5.601
73.12000 1.485
73.14000 1.243
73.16000 2.300
73.18000 1.888
73.20000 2.186
73.22000 0.998
73.24000 -0.098
73.26000 4.310
73.28000 1.979
73.30000 -2.020
73.32000 -1.204
73.34000 3.436
73.36000 4.074
73.38000 2.377
73.40000 1.624
73.42000 6.086
73.44000 4.814
73.46000 4.449
73.48000 3.700
73.50000 2.550
73.52000 3.440
73.54000 3.055
73.56000 2.843
73.58000 0.270
73.60000 2.375
73.62000 4.425
73.64000 3.325
73.66000 3.378
73.68000 3.399
73.70000 2.509
73.72000 3.254
73.74000 0.920
73.76000 -0.644
73.78000 2.471
73.80000 2.284
73.82000 2.088
73.84000 3.269
73.86000 4.893
73.88000 3.695
73.90000 2.468
73.92000 3.299
73.94000 2.580
73.96000 -0.167
73.98000 2.411
74.00000 5.089
74.02000 3.315
74.04000 -0.003
74.06000 -1.276
74.08000 4.005
74.10000 5.001
74.12000 1.946
74.14000 4.920
74.16000 2.963
74.18000 -0.877
74.20000 -0.086
74.22000 0.830
74.24000 1.969
74.26000 2.246
74.28000 2.073
74.30000 1.416
74.32000 0.270
74.34000 2.045
74.36000 1.344
74.38000 1.803
74.40000 2.146
74.42000 0.397
74.44000 0.799
74.46000 3.445
74.48000 1.566
74.50000 -2.020
74.52000 1.822
74.54000 1.884
74.56000 2.312
74.58000 2.482
74.60000 -0.627
74.62000 1.622
74.64000 3.344
74.66000 5.097
74.68000 2.151
74.70000 2.592
74.72000 0.603
74.74000 0.017
74.76000 -0.285
74.78000 0.734
74.80000 3.760
74.82000 3.495
74.84000 3.644
74.86000 6.015
74.88000 4.085
74.90000 3.032
74.92000 4.911
74.94000 2.683
74.96000 -0.923
74.98000 1.118
75.00000 4.305
75.02000 4.270
75.04000 -0.399
75.06000 0.472
75.08000 2.856
75.10000 4.116
75.12000 2.391
75.14000 0.943
75.16000 -0.152
75.18000 3.145
75.20000 3.841
75.22000 4.669
75.24000 5.099
75.26000 1.438
75.28000 3.244
75.30000 0.815
75.32000 1.450
75.34000 2.306
75.36000 1.166
75.38000 1.045
75.40000 3.324
75.42000 1.430
75.44000 0.385
75.46000 1.548
75.48000 0.951
75.50000 3.078
75.52000 1.880
75.54000 2.648
75.56000 1.803
75.58000 5.824
75.60000 6.151
75.62000 3.903
75.64000 4.512
75.66000 3.301
75.68000 1.259
75.70000 2.716
75.72000 1.472
75.74000 2.098
75.76000 -0.071
75.78000 3.275
75.80000 3.900
75.82000 0.389
75.84000 -1.654
75.86000 -2.035
75.88000 1.354
75.90000 5.820
75.92000 7.884
75.94000 6.035
75.96000 5.588
75.98000 1.729
76.00000 0.390
76.02000 1.985
76.04000 1.225
76.06000 2.310
76.08000 4.021
76.10000 4.669
76.12000 4.052
76.14000 5.107
76.16000 3.049
76.18000 0.696
76.20000 1.312
76.22000 1.314
76.24000 2.997
76.26000 2.021
76.28000 1.059
76.30000 2.528
76.32000 2.540
76.34000 2.277
76.36000 -0.501
76.38000 3.009
76.40000 3.787
76.42000 4.695
76.44000 0.606
76.46000 0.756
76.48000 0.866
76.50000 -0.014
76.52000 0.438
76.54000 0.690
76.56000 -1.007
76.58000 -0.501
76.60000 1.595
76.62000 2.399
76.64000 2.239
76.66000 2.179
76.68000 -0.053
76.70000 0.388
76.72000 0.634
76.74000 -0.826
76.76000 -0.508
76.78000 0.458
76.80000 3.437
76.82000 0.456
76.84000 -0.475
76.86000 2.905
76.88000 -0.767
76.90000 -0.020
76.92000 1.572
76.94000 -2.136
76.96000 -0.182
76.98000 -0.486
77.00000 0.941
77.02000 -0.839
77.04000 0.255
77.06000 -2.146
77.08000 -1.464
77.10000 1.643
77.12000 2.429
77.14000 0.455
77.16000 0.782
77.18000 -1.880
77.20000 1.168
77.22000 1.843
77.24000 2.061
77.26000 2.207
77.28000 2.982
77.30000 -1.532
77.32000 -1.025
77.34000 2.938
77.36000 -0.287
77.38000 2.056
77.40000 2.426
77.42000 -0.261
77.44000 0.966
77.46000 0.760
77.48000 1.041
77.50000 0.931
77.52000 0.751
77.54000 0.650
77.56000 1.133
77.58000 1.203
77.60000 -2.187
77.62000 -1.128
77.64000 -0.724
77.66000 3.325
77.68000 2.952
77.70000 5.677
77.72000 4.980
77.74000 -0.808
77.76000 -1.109
77.78000 0.206
77.80000 1.504
77.82000 2.687
77.84000 3.876
77.86000 1.204
77.88000 1.310
77.90000 4.239
77.92000 1.698
77.94000 2.435
77.96000 5.637
77.98000 7.128
78.00000 4.719
78.02000 2.325
78.04000 3.001
78.06000 5.196
78.08000 8.568
78.10000 7.250
78.12000 7.364
78.14000 4.590
78.16000 2.696
78.18000 6.463
78.20000 4.202
78.22000 8.748
78.24000 10.463
78.26000 3.417
78.28000 4.759
78.30000 5.992
78.32000 5.684
78.34000 8.932
78.36000 9.534
78.38000 10.544
78.40000 10.312
78.42000 10.233
78.44000 12.124
78.46000 12.825
78.48000 13.718
78.50000 13.190
78.52000 14.118
78.54000 14.386
78.56000 18.720
78.58000 21.808
78.60000 17.669
78.62000 15.157
78.64000 17.175
78.66000 19.233
78.68000 23.629
78.70000 25.239
78.72000 23.813
78.74000 26.456
78.76000 24.831
78.78000 25.410
78.80000 24.663
78.82000 26.153
78.84000 29.313
78.86000 30.643
78.88000 30.964
78.90000 27.566
78.92000 26.663
78.94000 29.046
78.96000 29.707
78.98000 32.604
79.00000 34.415
79.02000 32.350
79.04000 29.353
79.06000 34.970
79.08000 30.012
79.10000 25.160
79.12000 30.429
79.14000 34.080
79.16000 32.208
79.18000 31.366
79.20000 30.002
79.22000 28.588
79.24000 27.797
79.26000 27.426
79.28000 27.768
79.30000 22.716
79.32000 25.686
79.34000 30.289
79.36000 22.252
79.38000 16.296
79.40000 17.323
79.42000 19.418
79.44000 19.067
79.46000 21.760
79.48000 17.927
79.50000 14.121
79.52000 19.729
79.54000 19.802
79.56000 15.852
79.58000 11.413
79.60000 7.549
79.62000 6.242
79.64000 8.687
79.66000 13.654
79.68000 9.206
79.70000 5.672
79.72000 3.096
79.74000 8.211
79.76000 9.435
79.78000 6.818
79.80000 5.778
79.82000 7.820
79.84000 1.237
79.86000 1.111
79.88000 3.535
79.90000 1.662
79.92000 2.552
79.94000 2.334
79.96000 3.346
79.98000 3.638
80.00000 6.111
80.02000 8.009
80.04000 5.103
80.06000 6.394
80.08000 4.022
80.10000 1.554
80.12000 -2.369
80.14000 -1.396
80.16000 0.138
80.18000 -0.521
80.20000 -0.964
80.22000 1.691
80.24000 1.853
80.26000 2.096
80.28000 -1.433
80.30000 1.853
80.32000 6.297
80.34000 3.257
80.36000 2.005
80.38000 2.717
80.40000 4.399
80.42000 2.694
80.44000 -2.369
80.46000 0.640
80.48000 3.510
80.50000 6.175
80.52000 2.987
80.54000 -1.002
80.56000 -0.136
80.58000 -1.264
80.60000 0.763
80.62000 1.118
80.64000 5.121
80.66000 1.040
80.68000 -1.858
80.70000 -1.211
80.72000 0.906
80.74000 -0.246
80.76000 -0.672
80.78000 -1.485
80.80000 -0.928
80.82000 2.086
80.84000 -0.472
80.86000 -1.921
80.88000 2.449
80.90000 3.709
80.92000 5.524
80.94000 1.588
80.96000 -0.477
80.98000 0.167
81.00000 0.065
81.02000 -1.694
81.04000 -0.257
81.06000 0.795
81.08000 0.105
81.10000 0.713
81.12000 3.530
81.14000 4.803
81.16000 -0.722
81.18000 -0.991
81.20000 -1.380
81.22000 2.132
81.24000 -1.715
81.26000 -1.512
81.28000 0.365
81.30000 3.039
81.32000 2.319
81.34000 1.232
81.36000 4.217
81.38000 2.102
81.40000 4.918
81.42000 5.192
81.44000 1.419
81.46000 -2.386
81.48000 0.221
81.50000 3.870
81.52000 6.185
81.54000 6.612
81.56000 6.191
81.58000 1.922
81.60000 0.469
81.62000 3.551
81.64000 0.553
81.66000 1.863
81.68000 5.676
81.70000 4.087
81.72000 7.868
81.74000 8.426
81.76000 8.427
81.78000 7.022
81.80000 6.674
81.82000 5.099
81.84000 8.196
81.86000 10.649
81.88000 9.290
81.90000 7.993
81.92000 6.262
81.94000 8.854
81.96000 10.705
81.98000 9.125
82.00000 12.279
82.02000 12.822
82.04000 12.568
82.06000 4.993
82.08000 6.495
82.10000 11.472
82.12000 12.444
82.14000 12.270
82.16000 12.816
82.18000 13.323
82.20000 13.389
82.22000 17.218
82.24000 18.407
82.26000 18.189
82.28000 17.054
82.30000 17.768
82.32000 19.797
82.34000 19.972
82.36000 22.648
82.38000 23.259
82.40000 18.205
82.42000 25.149
82.44000 28.129
82.46000 27.907
82.48000 33.381
82.50000 32.589
82.52000 30.685
82.54000 31.738
82.56000 34.147
82.58000 35.221
82.60000 36.711
82.62000 35.895
82.64000 35.271
82.66000 39.401
82.68000 39.824
82.70000 45.355
82.72000 48.412
82.74000 52.706
82.76000 53.653
82.78000 59.515
82.80000 62.115
82.82000 59.676
82.84000 61.500
82.86000 61.840
82.88000 64.691
82.90000 62.865
82.92000 65.962
82.94000 68.117
82.96000 75.185
82.98000 81.390
83.00000 83.666
83.02000 85.899
83.04000 90.012
83.06000 84.784
83.08000 79.080
83.10000 82.869
83.12000 86.247
83.14000 88.489
83.16000 93.613
83.18000 87.119
83.20000 84.735
83.22000 87.541
83.24000 83.729
83.26000 82.577
83.28000 84.381
83.30000 86.060
83.32000 84.084
83.34000 81.763
83.36000 71.757
83.38000 72.766
83.40000 72.325
83.42000 74.472
83.44000 75.465
83.46000 72.277
83.48000 68.530
83.50000 67.231
83.52000 63.778
83.54000 65.293
83.56000 61.652
83.58000 54.183
83.60000 48.526
83.62000 52.187
83.64000 54.365
83.66000 46.663
83.68000 42.372
83.70000 43.259
83.72000 38.952
83.74000 33.971
83.76000 34.245
83.78000 32.956
83.80000 34.782
83.82000 32.092
83.84000 26.700
83.86000 24.572
83.88000 22.168
83.90000 26.621
83.92000 22.097
83.94000 21.555
83.96000 22.243
83.98000 18.844
84.00000 20.634
84.02000 21.372
84.04000 17.097
84.06000 18.186
84.08000 16.453
84.10000 15.300
84.12000 12.900
84.14000 10.932
84.16000 11.302
84.18000 8.819
84.20000 4.677
84.22000 4.981
84.24000 9.295
84.26000 13.204
84.28000 11.042
84.30000 9.937
84.32000 7.809
84.34000 6.099
84.36000 6.127
84.38000 5.159
84.40000 3.940
84.42000 2.437
84.44000 7.238
84.46000 7.098
84.48000 5.575
84.50000 4.917
84.52000 2.388
84.54000 3.714
84.56000 4.881
84.58000 5.229
84.60000 5.728
84.62000 4.510
84.64000 6.706
84.66000 4.475
84.68000 3.265
84.70000 5.150
84.72000 2.846
84.74000 2.386
84.76000 3.673
84.78000 1.090
84.80000 0.319
84.82000 -2.109
84.84000 2.095
84.86000 2.195
84.88000 1.459
84.90000 3.068
84.92000 3.723
84.94000 2.558
84.96000 1.867
84.98000 0.802
85.00000 3.085
85.02000 2.768
85.04000 5.621
85.06000 0.899
85.08000 -0.673
85.10000 2.491
85.12000 4.203
85.14000 4.096
85.16000 3.918
85.18000 1.759
85.20000 1.748
85.22000 1.108
85.24000 -0.092
85.26000 2.507
85.28000 2.490
85.30000 -2.064
85.32000 3.049
85.34000 3.730
85.36000 4.647
85.38000 0.680
85.40000 -1.100
85.42000 3.950
85.44000 4.293
85.46000 5.136
85.48000 5.621
85.50000 4.872
85.52000 -0.089
85.54000 2.674
85.56000 2.354
85.58000 3.690
85.60000 3.956
85.62000 -0.295
85.64000 1.265
85.66000 2.938
85.68000 2.774
85.70000 2.448
85.72000 2.267
85.74000 4.209
85.76000 2.004
85.78000 0.245
85.80000 1.876
85.82000 6.133
85.84000 2.064
85.86000 0.368
85.88000 2.566
85.90000 1.824
85.92000 1.050
85.94000 0.038
85.96000 6.626
85.98000 3.636
86.00000 2.111
86.02000 3.256
86.04000 4.664
86.06000 1.106
86.08000 -0.348
86.10000 0.287
86.12000 1.946
86.14000 4.741
86.16000 5.415
86.18000 2.793
86.20000 -0.181
86.22000 -1.960
86.24000 -0.016
86.26000 3.328
86.28000 3.964
86.30000 3.631
86.32000 0.772
86.34000 -0.729
86.36000 -1.954
86.38000 -0.567
86.40000 4.664
86.42000 2.715
86.44000 2.611
86.46000 3.591
86.48000 5.015
86.50000 2.005
86.52000 1.470
86.54000 -0.988
86.56000 1.522
86.58000 -0.027
86.60000 1.663
86.62000 2.914
86.64000 3.550
86.66000 4.351
86.68000 2.366
86.70000 3.355
86.72000 2.814
86.74000 1.621
86.76000 4.160
86.78000 2.735
86.80000 3.894
86.82000 2.045
86.84000 3.502
86.86000 4.711
86.88000 0.295
86.90000 0.941
86.92000 4.149
86.94000 6.564
86.96000 7.125
86.98000 4.624
87.00000 1.266
87.02000 2.299
87.04000 2.870
87.06000 -1.710
87.08000 0.119
87.10000 2.190
87.12000 2.452
87.14000 4.987
87.16000 7.267
87.18000 5.841
87.20000 4.108
87.22000 2.460
87.24000 1.208
87.26000 -1.537
87.28000 -1.957
87.30000 -0.178
87.32000 2.653
87.34000 2.903
87.36000 4.736
87.38000 2.942
87.40000 -1.310
87.42000 -0.997
87.44000 0.569
87.46000 1.107
87.48000 0.940
87.50000 0.500
87.52000 -1.859
87.54000 -1.660
87.56000 0.820
87.58000 1.711
87.60000 3.303
87.62000 2.250
87.64000 4.160
87.66000 -0.606
87.68000 -0.170
87.70000 2.794
87.72000 4.095
87.74000 0.058
87.76000 1.299
87.78000 1.811
87.80000 0.128
87.82000 0.647
87.84000 0.606
87.86000 0.249
87.88000 -1.434
87.90000 -1.024
87.92000 0.659
87.94000 -1.033
87.96000 -0.446
87.98000 0.120
88.00000 0.828
88.02000 -1.208
88.04000 0.379
88.06000 -1.394
88.08000 -1.482
88.10000 2.034
88.12000 -1.940
88.14000 -1.469
88.16000 0.805
88.18000 1.421
88.20000 0.618
88.22000 3.790
88.24000 1.219
88.26000 -0.742
88.28000 -0.167
88.30000 1.446
88.32000 5.313
88.34000 5.877
88.36000 -0.027
88.38000 -0.782
88.40000 -1.806
88.42000 -1.912
88.44000 1.363
88.46000 1.461
88.48000 1.379
88.50000 0.242
88.52000 1.122
88.54000 -0.671
88.56000 2.915
88.58000 5.995
88.60000 6.581
88.62000 3.628
88.64000 -0.448
88.66000 0.202
88.68000 0.038
88.70000 2.398
88.72000 1.871
88.74000 -0.619
88.76000 0.196
88.78000 1.297
88.80000 3.171
88.82000 0.960
88.84000 1.083
88.86000 2.959
88.88000 2.245
88.90000 1.721
88.92000 3.456
88.94000 3.448
88.96000 -0.405
88.98000 0.341
89.00000 1.724
89.02000 2.680
89.04000 2.359
89.06000 3.044
89.08000 2.454
89.10000 4.829
89.12000 4.290
89.14000 2.193
89.16000 1.884
89.18000 2.090
89.20000 0.995
89.22000 2.429
89.24000 3.467
89.26000 4.498
89.28000 4.335
89.30000 5.600
89.32000 4.652
89.34000 0.876
89.36000 -1.869
89.38000 1.191
89.40000 1.970
89.42000 1.711
89.44000 1.994
89.46000 5.023
89.48000 3.127
89.50000 1.245
89.52000 2.757
89.54000 0.444
89.56000 0.138
89.58000 -0.475
89.60000 1.400
89.62000 6.278
89.64000 5.187
89.66000 4.099
89.68000 0.577
89.70000 5.511
89.72000 4.484
89.74000 1.150
89.76000 -1.401
89.78000 1.560
89.80000 5.335
89.82000 5.195
89.84000 2.940
89.86000 4.479
89.88000 5.439
89.90000 2.555
89.92000 1.178
89.94000 2.760
89.96000 3.819
89.98000 1.005
90.00000 -0.941
90.02000 1.706
90.04000 3.108
90.06000 1.523
90.08000 0.641
90.10000 2.835
90.12000 2.869
90.14000 2.056
90.16000 2.690
90.18000 1.320
90.20000 -0.478
90.22000 2.724
90.24000 2.641
90.26000 4.635
90.28000 1.744
90.30000 -0.824
90.32000 0.524
90.34000 1.898
90.36000 1.935
90.38000 2.662
90.40000 -1.423
90.42000 4.502
90.44000 5.843
90.46000 2.673
90.48000 5.326
90.50000 5.945
90.52000 2.933
90.54000 0.951
90.56000 -1.887
90.58000 -0.544
90.60000 1.060
90.62000 3.237
90.64000 3.370
90.66000 4.207
90.68000 1.269
90.70000 1.807
90.72000 3.687
90.74000 2.958
90.76000 4.466
90.78000 2.004
90.80000 1.540
90.82000 2.629
90.84000 5.219
90.86000 4.443
90.88000 3.151
90.90000 3.321
90.92000 2.402
90.94000 3.303
90.96000 4.694
90.98000 4.687
91.00000 2.725
91.02000 3.060
91.04000 5.048
91.06000 3.473
91.08000 0.543
91.10000 1.985
91.12000 3.386
91.14000 2.043
91.16000 3.661
91.18000 2.258
91.20000 0.094
91.22000 2.993
91.24000 1.915
91.26000 4.164
91.28000 2.096
91.30000 2.090
91.32000 1.026
91.34000 4.194
91.36000 4.594
91.38000 2.317
91.40000 1.429
91.42000 4.854
91.44000 5.853
91.46000 3.907
91.48000 2.019
91.50000 3.560
91.52000 5.668
91.54000 5.868
91.56000 3.807
91.58000 1.138
91.60000 -1.885
91.62000 0.524
91.64000 3.247
91.66000 3.141
91.68000 2.765
91.70000 4.660
91.72000 3.329
91.74000 1.571
91.76000 0.882
91.78000 3.769
91.80000 2.416
91.82000 4.271
91.84000 1.383
91.86000 -0.248
91.88000 -0.669
91.90000 1.385
91.92000 2.122
91.94000 3.600
91.96000 5.671
91.98000 3.253
92.00000 1.683
92.02000 2.110
92.04000 0.283
92.06000 0.223
92.08000 2.091
92.10000 1.707
92.12000 6.017
92.14000 4.521
92.16000 0.845
92.18000 5.931
92.20000 5.030
92.22000 1.962
92.24000 2.594
92.26000 0.448
92.28000 0.218
92.30000 -0.519
92.32000 -1.023
92.34000 0.908
92.36000 2.486
92.38000 3.053
92.40000 3.765
92.42000 -1.228
92.44000 -1.919
92.46000 0.629
92.48000 1.578
92.50000 4.865
92.52000 3.908
92.54000 2.851
92.56000 0.794
92.58000 1.900
92.60000 2.618
92.62000 0.630
92.64000 0.803
92.66000 1.452
92.68000 2.060
92.70000 0.323
92.72000 1.065
92.74000 3.390
92.76000 0.828
92.78000 -0.650
92.80000 -0.705
92.82000 1.086
92.84000 4.761
92.86000 4.278
92.88000 3.451
92.90000 2.609
92.92000 1.676
92.94000 2.415
92.96000 3.321
92.98000 2.912
93.00000 2.161
93.02000 -1.924
93.04000 0.592
93.06000 -0.249
93.08000 -0.915
93.10000 3.417
93.12000 2.899
93.14000 2.337
93.16000 1.254
93.18000 3.275
93.20000 0.386
93.22000 0.698
93.24000 3.410
93.26000 1.543
93.28000 1.777
93.30000 0.415
93.32000 -1.558
93.34000 1.419
93.36000 1.299
93.38000 1.963
93.40000 5.801
93.42000 2.190
93.44000 1.865
93.46000 6.283
93.48000 3.757
93.50000 3.335
93.52000 1.996
93.54000 -0.997
93.56000 0.361
93.58000 -0.454
93.60000 0.399
93.62000 0.832
93.64000 0.569
93.66000 4.557
93.68000 2.536
93.70000 -0.702
93.72000 -1.952
93.74000 0.550
93.76000 2.897
93.78000 -1.086
93.80000 -0.732
93.82000 3.946
93.84000 5.507
93.86000 0.620
93.88000 0.214
93.90000 0.520
93.92000 1.194
93.94000 0.010
93.96000 1.078
93.98000 2.105
94.00000 2.998
94.02000 7.624
94.04000 5.376
94.06000 0.809
94.08000 0.275
94.10000 -1.954
94.12000 0.226
94.14000 1.590
94.16000 1.648
94.18000 3.295
94.20000 2.674
94.22000 1.502
94.24000 0.478
94.26000 -0.626
94.28000 3.355
94.30000 5.486
94.32000 3.935
94.34000 1.788
94.36000 2.298
94.38000 5.459
94.40000 4.653
94.42000 5.139
94.44000 3.124
94.46000 3.414
94.48000 2.509
94.50000 -1.626
94.52000 2.633
94.54000 4.563
94.56000 5.541
94.58000 8.268
94.60000 7.269
94.62000 4.163
94.64000 3.182
94.66000 3.331
94.68000 4.338
94.70000 6.646
94.72000 5.741
94.74000 5.945
94.76000 3.015
94.78000 1.908
94.80000 1.793
94.82000 -0.120
94.84000 -1.124
94.86000 3.175
94.88000 3.821
94.90000 3.402
94.92000 3.237
94.94000 0.129
94.96000 0.668
94.98000 4.449
95.00000 2.174
95.02000 0.507
95.04000 1.382
95.06000 0.396
95.08000 -0.520
95.10000 1.385
95.12000 -1.916
95.14000 0.727
95.16000 4.189
95.18000 4.631
95.20000 1.429
95.22000 4.628
95.24000 5.690
95.26000 4.443
95.28000 4.113
95.30000 3.928
95.32000 1.591
95.34000 4.654
95.36000 1.895
95.38000 3.033
95.40000 0.491
95.42000 -0.283
95.44000 4.022
95.46000 2.920
95.48000 2.283
95.50000 3.150
95.52000 5.935
95.54000 5.750
95.56000 7.113
95.58000 4.608
95.60000 1.350
95.62000 0.814
95.64000 7.701
95.66000 6.104
95.68000 3.044
95.70000 -0.547
95.72000 1.033
95.74000 3.980
95.76000 2.681
95.78000 3.345
95.80000 4.511
95.82000 3.707
95.84000 2.230
95.86000 -0.220
95.88000 -1.198
95.90000 -0.435
95.92000 2.082
95.94000 3.358
95.96000 5.758
95.98000 4.758
96.00000 2.747
96.02000 6.786
96.04000 9.005
96.06000 2.686
96.08000 -1.323
96.10000 0.697
96.12000 4.806
96.14000 3.707
96.16000 8.022
96.18000 2.420
96.20000 2.508
96.22000 8.149
96.24000 3.150
96.26000 2.269
96.28000 2.057
96.30000 0.875
96.32000 2.546
96.34000 5.200
96.36000 5.596
96.38000 7.013
96.40000 8.682
96.42000 5.399
96.44000 -1.891
96.46000 -1.137
96.48000 -1.132
96.50000 1.958
96.52000 2.942
96.54000 3.842
96.56000 4.479
96.58000 5.493
96.60000 1.645
96.62000 5.072
96.64000 7.101
96.66000 9.214
96.68000 6.597
96.70000 4.295
96.72000 5.599
96.74000 6.064
96.76000 3.739
96.78000 4.262
96.80000 -0.266
96.82000 0.310
96.84000 -0.986
96.86000 1.139
96.88000 2.022
96.90000 2.223
96.92000 7.689
96.94000 7.294
96.96000 7.533
96.98000 2.575
97.00000 2.973
97.02000 5.051
97.04000 4.415
97.06000 5.702
97.08000 5.423
97.10000 3.159
97.12000 1.052
97.14000 1.244
97.16000 5.225
97.18000 7.410
97.20000 4.950
97.22000 0.050
97.24000 0.883
97.26000 4.280
97.28000 2.407
97.30000 4.279
97.32000 -1.416
97.34000 2.166
97.36000 8.276
97.38000 6.841
97.40000 4.804
97.42000 9.079
97.44000 5.731
97.46000 5.958
97.48000 4.267
97.50000 2.528
97.52000 1.504
97.54000 6.046
97.56000 6.625
97.58000 7.463
97.60000 2.115
97.62000 1.215
97.64000 5.242
97.66000 5.497
97.68000 3.076
97.70000 5.272
97.72000 4.473
97.74000 4.216
97.76000 4.119
97.78000 2.699
97.80000 3.456
97.82000 0.211
97.84000 1.801
97.86000 2.826
97.88000 4.374
97.90000 8.084
97.92000 6.893
97.94000 4.052
97.96000 0.731
97.98000 3.059
98.00000 4.196
98.02000 1.826
98.04000 8.105
98.06000 5.881
98.08000 -1.889
98.10000 1.595
98.12000 1.062
98.14000 0.401
98.16000 2.452
98.18000 0.352
98.20000 7.308
98.22000 1.905
98.24000 3.386
98.26000 6.821
98.28000 5.663
98.30000 3.371
98.32000 6.034
98.34000 10.630
98.36000 10.549
98.38000 5.295
98.40000 4.092
98.42000 6.424
98.44000 6.197
98.46000 4.274
98.48000 4.016
98.50000 1.535
98.52000 7.551
98.54000 3.916
98.56000 4.374
98.58000 1.264
98.60000 5.639
98.62000 4.143
98.64000 6.129
98.66000 5.356
98.68000 7.346
98.70000 9.193
98.72000 6.930
98.74000 8.065
98.76000 3.832
98.78000 8.346
98.80000 13.979
98.82000 10.681
98.84000 13.536
98.86000 8.125
98.88000 4.934
98.90000 12.946
98.92000 8.061
98.94000 11.338
98.96000 9.487
98.98000 11.059
99.00000 2.126
99.02000 0.237
99.04000 4.077
99.06000 6.199
99.08000 6.848
99.10000 7.467
99.12000 3.120
99.14000 -1.821
99.16000 3.288
99.18000 1.528
99.20000 4.324
99.22000 8.172
99.24000 7.751
99.26000 4.652
99.28000 8.325
99.30000 9.811
99.32000 1.922
99.34000 3.532
99.36000 9.397
99.38000 11.789
99.40000 4.062
99.42000 -1.853
99.44000 2.709
99.46000 1.667
99.48000 3.987
99.50000 -0.218
99.52000 1.967
99.54000 13.566
99.56000 9.088
99.58000 9.412
99.60000 8.604
99.62000 9.275
99.64000 17.822
99.66000 8.147
99.68000 10.179
99.70000 10.361
99.72000 7.980
99.74000 8.129
99.76000 4.811
99.78000 8.917
99.80000 8.650
99.82000 4.066
99.84000 -1.938
99.86000 -0.921
99.88000 0.156
99.90000 5.134
99.92000 8.533
99.94000 6.217
99.96000 7.993
99.98000 0.000
