'Id: "0011387" Comment: "Integrate frame 0011387_Au-Ir-Rh_Rh-rich_XRD-Mapping-206-0000.gfrmwith cursor Wedge Cursor #5" Operator: "B?rgel" Anode: "Cu" Wavelength: "1.5406" Scantype: "2Theta (TwoTheta)" TimePerStep: "1" X: "-13.5" Y: "9" Z: "5.95" 
10.00000 0.000
10.02000 -4.440
10.04000 0.243
10.06000 13.728
10.08000 18.560
10.10000 13.263
10.12000 10.825
10.14000 -9.779
10.16000 7.216
10.18000 4.209
10.20000 7.671
10.22000 15.003
10.24000 14.478
10.26000 13.366
10.28000 13.403
10.30000 19.755
10.32000 10.556
10.34000 17.572
10.36000 36.120
10.38000 30.324
10.40000 4.237
10.42000 10.597
10.44000 13.507
10.46000 5.660
10.48000 -4.290
10.50000 10.258
10.52000 13.403
10.54000 22.388
10.56000 22.763
10.58000 13.853
10.60000 6.771
10.62000 10.630
10.64000 0.706
10.66000 1.698
10.68000 8.461
10.70000 3.841
10.72000 3.782
10.74000 16.864
10.76000 14.147
10.78000 12.374
10.80000 16.843
10.82000 7.800
10.84000 2.504
10.86000 2.285
10.88000 0.626
10.90000 8.933
10.92000 12.411
10.94000 11.580
10.96000 11.584
10.98000 15.346
11.00000 15.519
11.02000 14.509
11.04000 9.166
11.06000 21.973
11.08000 26.245
11.10000 24.780
11.12000 21.764
11.14000 8.563
11.16000 7.107
11.18000 13.636
11.20000 8.917
11.22000 8.121
11.24000 9.455
11.26000 20.559
11.28000 12.794
11.30000 16.427
11.32000 10.091
11.34000 10.375
11.36000 13.849
11.38000 27.181
11.40000 12.218
11.42000 10.243
11.44000 14.190
11.46000 12.296
11.48000 -1.335
11.50000 0.554
11.52000 6.615
11.54000 7.961
11.56000 14.870
11.58000 11.286
11.60000 4.085
11.62000 -0.862
11.64000 8.912
11.66000 10.768
11.68000 9.837
11.70000 14.604
11.72000 13.882
11.74000 16.062
11.76000 15.183
11.78000 5.226
11.80000 4.295
11.82000 9.972
11.84000 11.228
11.86000 -1.085
11.88000 -0.496
11.90000 13.281
11.92000 11.331
11.94000 9.655
11.96000 12.694
11.98000 16.406
12.00000 16.334
12.02000 3.133
12.04000 4.660
12.06000 15.937
12.08000 2.662
12.10000 12.270
12.12000 17.804
12.14000 15.555
12.16000 17.759
12.18000 14.808
12.20000 14.684
12.22000 5.644
12.24000 4.266
12.26000 9.479
12.28000 3.868
12.30000 5.761
12.32000 11.449
12.34000 17.092
12.36000 14.077
12.38000 12.340
12.40000 19.019
12.42000 12.958
12.44000 6.018
12.46000 7.492
12.48000 6.307
12.50000 3.876
12.52000 -0.117
12.54000 3.610
12.56000 12.952
12.58000 8.900
12.60000 12.491
12.62000 16.189
12.64000 6.452
12.66000 5.452
12.68000 3.954
12.70000 9.562
12.72000 9.105
12.74000 11.046
12.76000 4.122
12.78000 12.477
12.80000 20.059
12.82000 12.654
12.84000 13.058
12.86000 14.731
12.88000 3.670
12.90000 15.095
12.92000 16.979
12.94000 18.206
12.96000 7.272
12.98000 7.284
13.00000 12.352
13.02000 10.644
13.04000 11.128
13.06000 12.403
13.08000 9.521
13.10000 11.663
13.12000 3.613
13.14000 9.204
13.16000 7.161
13.18000 8.101
13.20000 2.756
13.22000 4.215
13.24000 3.659
13.26000 9.894
13.28000 2.196
13.30000 10.690
13.32000 15.067
13.34000 14.860
13.36000 17.729
13.38000 6.247
13.40000 8.283
13.42000 18.410
13.44000 20.082
13.46000 11.473
13.48000 3.674
13.50000 3.688
13.52000 8.788
13.54000 5.635
13.56000 9.565
13.58000 22.807
13.60000 13.107
13.62000 1.675
13.64000 -0.921
13.66000 7.141
13.68000 8.781
13.70000 16.707
13.72000 24.760
13.74000 21.882
13.76000 22.805
13.78000 22.930
13.80000 15.685
13.82000 9.067
13.84000 13.298
13.86000 19.950
13.88000 13.146
13.90000 13.641
13.92000 28.664
13.94000 28.326
13.96000 21.048
13.98000 10.527
14.00000 7.617
14.02000 15.990
14.04000 10.683
14.06000 3.076
14.08000 4.786
14.10000 4.923
14.12000 1.700
14.14000 3.809
14.16000 5.553
14.18000 1.401
14.20000 -2.441
14.22000 -4.443
14.24000 2.915
14.26000 11.699
14.28000 11.138
14.30000 10.940
14.32000 8.383
14.34000 17.280
14.36000 20.323
14.38000 14.100
14.40000 10.608
14.42000 10.398
14.44000 15.347
14.46000 9.997
14.48000 8.577
14.50000 12.109
14.52000 12.708
14.54000 17.062
14.56000 12.709
14.58000 6.797
14.60000 10.644
14.62000 10.354
14.64000 12.365
14.66000 16.049
14.68000 13.128
14.70000 6.023
14.72000 1.282
14.74000 8.966
14.76000 12.250
14.78000 10.138
14.80000 0.581
14.82000 13.760
14.84000 13.726
14.86000 4.403
14.88000 11.435
14.90000 10.935
14.92000 13.956
14.94000 11.292
14.96000 10.463
14.98000 14.988
15.00000 11.165
15.02000 11.296
15.04000 12.282
15.06000 8.020
15.08000 9.686
15.10000 1.045
15.12000 5.270
15.14000 10.356
15.16000 2.717
15.18000 -0.001
15.20000 6.824
15.22000 15.441
15.24000 15.364
15.26000 12.867
15.28000 15.889
15.30000 19.838
15.32000 20.311
15.34000 16.765
15.36000 15.983
15.38000 18.250
15.40000 15.141
15.42000 5.969
15.44000 6.710
15.46000 9.522
15.48000 7.017
15.50000 10.378
15.52000 14.100
15.54000 4.164
15.56000 2.964
15.58000 9.504
15.60000 -3.257
15.62000 -4.420
15.64000 3.775
15.66000 8.427
15.68000 12.031
15.70000 10.332
15.72000 6.789
15.74000 7.487
15.76000 8.111
15.78000 4.996
15.80000 7.675
15.82000 8.565
15.84000 12.651
15.86000 10.478
15.88000 11.843
15.90000 15.574
15.92000 8.709
15.94000 5.162
15.96000 -0.487
15.98000 -0.767
16.00000 1.473
16.02000 0.969
16.04000 -3.991
16.06000 2.384
16.08000 6.267
16.10000 0.632
16.12000 1.489
16.14000 12.699
16.16000 7.423
16.18000 4.803
16.20000 7.354
16.22000 5.196
16.24000 0.701
16.26000 3.538
16.28000 7.223
16.30000 7.247
16.32000 -0.964
16.34000 -0.688
16.36000 1.841
16.38000 7.249
16.40000 -2.511
16.42000 1.948
16.44000 1.210
16.46000 0.794
16.48000 7.947
16.50000 -4.423
16.52000 4.880
16.54000 6.962
16.56000 1.859
16.58000 0.239
16.60000 -4.142
16.62000 1.981
16.64000 3.774
16.66000 -1.962
16.68000 3.578
16.70000 1.793
16.72000 6.750
16.74000 1.981
16.76000 0.823
16.78000 10.605
16.80000 6.433
16.82000 6.166
16.84000 8.239
16.86000 1.541
16.88000 2.007
16.90000 3.364
16.92000 3.557
16.94000 -0.868
16.96000 4.824
16.98000 10.010
17.00000 6.772
17.02000 2.993
17.04000 7.403
17.06000 10.438
17.08000 3.429
17.10000 5.827
17.12000 3.751
17.14000 2.805
17.16000 8.987
17.18000 3.812
17.20000 0.494
17.22000 0.185
17.24000 10.499
17.26000 14.558
17.28000 8.770
17.30000 7.020
17.32000 2.297
17.34000 -1.788
17.36000 1.879
17.38000 1.243
17.40000 4.661
17.42000 6.553
17.44000 -0.786
17.46000 -4.393
17.48000 -0.383
17.50000 -0.810
17.52000 -2.940
17.54000 1.569
17.56000 3.377
17.58000 3.010
17.60000 1.167
17.62000 3.279
17.64000 4.918
17.66000 9.351
17.68000 6.315
17.70000 4.585
17.72000 0.163
17.74000 0.710
17.76000 1.652
17.78000 4.614
17.80000 3.935
17.82000 1.284
17.84000 2.120
17.86000 0.799
17.88000 -0.161
17.90000 5.921
17.92000 -1.179
17.94000 -3.383
17.96000 9.194
17.98000 9.404
18.00000 -0.978
18.02000 1.518
18.04000 0.499
18.06000 0.976
18.08000 1.642
18.10000 -1.726
18.12000 -0.300
18.14000 0.179
18.16000 -1.705
18.18000 0.853
18.20000 2.943
18.22000 -0.310
18.24000 2.549
18.26000 -4.106
18.28000 -4.350
18.30000 6.141
18.32000 7.197
18.34000 6.763
18.36000 10.295
18.38000 7.307
18.40000 2.270
18.42000 -1.661
18.44000 -0.314
18.46000 6.974
18.48000 0.058
18.50000 0.601
18.52000 6.938
18.54000 0.435
18.56000 2.705
18.58000 -3.187
18.60000 2.020
18.62000 5.021
18.64000 5.054
18.66000 10.459
18.68000 8.727
18.70000 8.320
18.72000 7.842
18.74000 14.541
18.76000 3.508
18.78000 -1.718
18.80000 0.493
18.82000 4.827
18.84000 10.512
18.86000 6.585
18.88000 1.470
18.90000 2.179
18.92000 -0.415
18.94000 -1.920
18.96000 1.181
18.98000 9.240
19.00000 2.632
19.02000 -0.708
19.04000 0.296
19.06000 -0.010
19.08000 -2.457
19.10000 0.343
19.12000 0.953
19.14000 4.331
19.16000 -2.365
19.18000 2.073
19.20000 1.414
19.22000 4.156
19.24000 8.157
19.26000 -0.961
19.28000 3.606
19.30000 9.024
19.32000 2.220
19.34000 1.508
19.36000 8.484
19.38000 13.885
19.40000 9.007
19.42000 2.214
19.44000 -4.235
19.46000 -2.767
19.48000 2.820
19.50000 2.067
19.52000 6.452
19.54000 5.036
19.56000 8.138
19.58000 13.359
19.60000 11.190
19.62000 5.471
19.64000 5.755
19.66000 4.658
19.68000 3.367
19.70000 2.397
19.72000 2.647
19.74000 2.898
19.76000 7.605
19.78000 4.164
19.80000 -1.160
19.82000 -4.225
19.84000 1.106
19.86000 12.423
19.88000 16.043
19.90000 8.291
19.92000 3.315
19.94000 -4.221
19.96000 3.274
19.98000 5.380
20.00000 9.679
20.02000 5.255
20.04000 3.044
20.06000 3.849
20.08000 0.282
20.10000 -0.242
20.12000 -1.404
20.14000 -4.217
20.16000 -3.203
20.18000 5.200
20.20000 1.611
20.22000 -0.740
20.24000 7.939
20.26000 9.698
20.28000 5.896
20.30000 7.543
20.32000 6.744
20.34000 9.183
20.36000 10.988
20.38000 9.817
20.40000 1.011
20.42000 -3.899
20.44000 2.413
20.46000 -0.073
20.48000 4.065
20.50000 13.242
20.52000 11.412
20.54000 9.973
20.56000 3.535
20.58000 -2.575
20.60000 2.965
20.62000 8.128
20.64000 3.117
20.66000 1.583
20.68000 4.328
20.70000 5.638
20.72000 -1.108
20.74000 -0.349
20.76000 -2.621
20.78000 -1.682
20.80000 -2.517
20.82000 -2.113
20.84000 5.841
20.86000 9.325
20.88000 -1.020
20.90000 3.213
20.92000 9.029
20.94000 9.046
20.96000 3.675
20.98000 -0.663
21.00000 3.388
21.02000 5.943
21.04000 2.843
21.06000 0.361
21.08000 -1.884
21.10000 -2.438
21.12000 0.384
21.14000 4.406
21.16000 5.554
21.18000 5.136
21.20000 -0.640
21.22000 -4.139
21.24000 -1.320
21.26000 -3.145
21.28000 -3.103
21.30000 2.637
21.32000 2.160
21.34000 -4.182
21.36000 -3.313
21.38000 -2.386
21.40000 0.563
21.42000 4.340
21.44000 2.285
21.46000 3.515
21.48000 -1.786
21.50000 -2.115
21.52000 3.016
21.54000 4.185
21.56000 -2.989
21.58000 1.950
21.60000 1.806
21.62000 2.709
21.64000 4.436
21.66000 3.221
21.68000 7.042
21.70000 7.264
21.72000 -0.420
21.74000 5.023
21.76000 0.939
21.78000 -1.623
21.80000 -1.702
21.82000 -0.774
21.84000 -2.888
21.86000 5.134
21.88000 4.882
21.90000 -2.998
21.92000 -3.079
21.94000 0.791
21.96000 6.086
21.98000 4.143
22.00000 4.138
22.02000 6.944
22.04000 11.900
22.06000 9.608
22.08000 3.682
22.10000 -0.152
22.12000 4.113
22.14000 4.283
22.16000 0.973
22.18000 -1.683
22.20000 -4.116
22.22000 -3.690
22.24000 0.060
22.26000 2.350
22.28000 3.159
22.30000 2.915
22.32000 -0.949
22.34000 2.378
22.36000 5.941
22.38000 -1.341
22.40000 2.645
22.42000 1.004
22.44000 1.660
22.46000 1.164
22.48000 2.831
22.50000 1.833
22.52000 2.848
22.54000 3.830
22.56000 1.579
22.58000 0.768
22.60000 2.671
22.62000 -2.997
22.64000 -4.098
22.66000 -1.299
22.68000 0.090
22.70000 4.797
22.72000 5.157
22.74000 7.343
22.76000 2.906
22.78000 2.731
22.80000 1.599
22.82000 0.882
22.84000 1.113
22.86000 1.554
22.88000 3.000
22.90000 4.008
22.92000 2.940
22.94000 -1.776
22.96000 -3.575
22.98000 1.887
23.00000 1.448
23.02000 -4.076
23.04000 5.297
23.06000 2.347
23.08000 1.832
23.10000 2.063
23.12000 -1.538
23.14000 0.913
23.16000 3.002
23.18000 5.308
23.20000 6.969
23.22000 1.800
23.24000 -2.134
23.26000 0.756
23.28000 1.087
23.30000 -0.117
23.32000 -1.272
23.34000 2.552
23.36000 5.130
23.38000 0.292
23.40000 4.353
23.42000 8.834
23.44000 8.373
23.46000 6.120
23.48000 7.240
23.50000 4.178
23.52000 8.829
23.54000 3.093
23.56000 -3.038
23.58000 -0.534
23.60000 -0.064
23.62000 2.052
23.64000 6.356
23.66000 5.107
23.68000 3.268
23.70000 5.330
23.72000 3.283
23.74000 2.141
23.76000 5.813
23.78000 2.471
23.80000 -0.475
23.82000 0.961
23.84000 1.271
23.86000 3.335
23.88000 3.226
23.90000 3.446
23.92000 -0.321
23.94000 4.199
23.96000 5.450
23.98000 2.505
24.00000 6.507
24.02000 1.444
24.04000 -0.061
24.06000 -1.516
24.08000 1.583
24.10000 5.231
24.12000 1.775
24.14000 2.169
24.16000 1.751
24.18000 -0.738
24.20000 5.239
24.22000 9.711
24.24000 9.290
24.26000 4.030
24.28000 2.429
24.30000 9.130
24.32000 9.770
24.34000 9.001
24.36000 12.084
24.38000 11.867
24.40000 9.149
24.42000 6.435
24.44000 9.065
24.46000 12.166
24.48000 10.691
24.50000 8.488
24.52000 7.427
24.54000 5.708
24.56000 8.518
24.58000 6.331
24.60000 6.937
24.62000 6.566
24.64000 6.478
24.66000 6.366
24.68000 4.006
24.70000 5.590
24.72000 6.914
24.74000 9.401
24.76000 6.235
24.78000 -3.900
24.80000 -0.118
24.82000 4.541
24.84000 6.842
24.86000 3.715
24.88000 7.453
24.90000 8.317
24.92000 6.760
24.94000 7.063
24.96000 8.435
24.98000 10.339
25.00000 6.421
25.02000 4.427
25.04000 12.539
25.06000 9.012
25.08000 2.673
25.10000 -1.418
25.12000 -2.991
25.14000 2.442
25.16000 5.884
25.18000 7.392
25.20000 6.649
25.22000 2.645
25.24000 3.076
25.26000 1.492
25.28000 8.079
25.30000 5.660
25.32000 6.489
25.34000 6.154
25.36000 7.207
25.38000 4.931
25.40000 4.394
25.42000 -2.087
25.44000 0.278
25.46000 2.712
25.48000 4.509
25.50000 3.621
25.52000 1.679
25.54000 -1.206
25.56000 3.148
25.58000 6.118
25.60000 -1.132
25.62000 1.232
25.64000 5.793
25.66000 5.142
25.68000 2.144
25.70000 3.998
25.72000 4.574
25.74000 3.247
25.76000 2.440
25.78000 1.564
25.80000 -0.177
25.82000 1.463
25.84000 5.067
25.86000 4.279
25.88000 1.883
25.90000 -1.617
25.92000 -1.124
25.94000 8.601
25.96000 9.824
25.98000 5.882
26.00000 3.990
26.02000 3.640
26.04000 2.835
26.06000 2.183
26.08000 4.803
26.10000 1.556
26.12000 -3.891
26.14000 -0.582
26.16000 2.620
26.18000 -2.880
26.20000 -3.836
26.22000 1.592
26.24000 3.139
26.26000 2.813
26.28000 -3.606
26.30000 -2.965
26.32000 -1.136
26.34000 5.927
26.36000 5.848
26.38000 -2.210
26.40000 2.960
26.42000 5.294
26.44000 -0.174
26.46000 -2.868
26.48000 4.212
26.50000 7.631
26.52000 1.614
26.54000 -1.389
26.56000 0.159
26.58000 0.514
26.60000 6.299
26.62000 3.474
26.64000 1.893
26.66000 -1.440
26.68000 -0.711
26.70000 -1.841
26.72000 4.456
26.74000 5.166
26.76000 4.370
26.78000 1.642
26.80000 1.392
26.82000 -2.215
26.84000 0.237
26.86000 3.360
26.88000 5.622
26.90000 1.398
26.92000 5.371
26.94000 2.920
26.96000 3.680
26.98000 3.418
27.00000 -0.477
27.02000 5.415
27.04000 2.643
27.06000 -3.454
27.08000 -0.063
27.10000 2.689
27.12000 6.434
27.14000 -1.030
27.16000 5.200
27.18000 6.817
27.20000 10.505
27.22000 8.039
27.24000 4.801
27.26000 -1.728
27.28000 -0.387
27.30000 2.059
27.32000 7.285
27.34000 3.712
27.36000 0.176
27.38000 1.606
27.40000 3.661
27.42000 -2.400
27.44000 -0.224
27.46000 3.441
27.48000 0.127
27.50000 -3.814
27.52000 -0.015
27.54000 1.628
27.56000 2.552
27.58000 1.443
27.60000 4.627
27.62000 5.145
27.64000 5.133
27.66000 7.164
27.68000 3.209
27.70000 3.934
27.72000 6.582
27.74000 4.313
27.76000 1.007
27.78000 0.402
27.80000 5.311
27.82000 -1.918
27.84000 -3.780
27.86000 3.560
27.88000 3.563
27.90000 6.288
27.92000 5.407
27.94000 1.960
27.96000 -2.771
27.98000 -1.632
28.00000 -0.452
28.02000 0.044
28.04000 6.008
28.06000 5.473
28.08000 3.628
28.10000 5.002
28.12000 8.714
28.14000 6.199
28.16000 2.567
28.18000 -1.340
28.20000 4.246
28.22000 0.693
28.24000 0.066
28.26000 1.221
28.28000 0.039
28.30000 1.399
28.32000 -1.662
28.34000 0.822
28.36000 2.824
28.38000 3.113
28.40000 -1.978
28.42000 -3.110
28.44000 5.297
28.46000 1.521
28.48000 4.119
28.50000 3.127
28.52000 3.113
28.54000 3.048
28.56000 5.131
28.58000 8.110
28.60000 4.904
28.62000 3.270
28.64000 3.440
28.66000 1.768
28.68000 1.297
28.70000 4.563
28.72000 5.164
28.74000 2.949
28.76000 1.887
28.78000 -0.913
28.80000 -0.107
28.82000 0.908
28.84000 4.773
28.86000 4.139
28.88000 0.293
28.90000 -0.085
28.92000 1.726
28.94000 -1.655
28.96000 4.148
28.98000 7.919
29.00000 1.515
29.02000 1.038
29.04000 3.810
29.06000 7.355
29.08000 4.261
29.10000 -0.701
29.12000 -1.370
29.14000 2.862
29.16000 5.673
29.18000 4.244
29.20000 0.195
29.22000 2.880
29.24000 -1.577
29.26000 -2.103
29.28000 -0.607
29.30000 1.864
29.32000 -0.432
29.34000 2.089
29.36000 4.232
29.38000 4.113
29.40000 8.659
29.42000 5.514
29.44000 6.217
29.46000 8.083
29.48000 2.545
29.50000 -0.450
29.52000 0.686
29.54000 -0.687
29.56000 -3.005
29.58000 -3.708
29.60000 3.301
29.62000 5.198
29.64000 -1.183
29.66000 0.492
29.68000 -0.809
29.70000 -0.451
29.72000 0.382
29.74000 -3.614
29.76000 -3.660
29.78000 -0.598
29.80000 -3.227
29.82000 -1.459
29.84000 0.751
29.86000 7.144
29.88000 4.581
29.90000 1.463
29.92000 3.298
29.94000 3.431
29.96000 4.719
29.98000 -0.382
30.00000 -1.675
30.02000 -0.841
30.04000 0.005
30.06000 4.400
30.08000 4.455
30.10000 3.577
30.12000 0.208
30.14000 -1.481
30.16000 2.486
30.18000 4.219
30.20000 3.492
30.22000 5.526
30.24000 1.044
30.26000 1.592
30.28000 -0.613
30.30000 -0.703
30.32000 -2.229
30.34000 -1.259
30.36000 -0.917
30.38000 2.942
30.40000 3.974
30.42000 5.286
30.44000 1.032
30.46000 -1.627
30.48000 0.530
30.50000 -2.209
30.52000 -0.784
30.54000 0.653
30.56000 6.726
30.58000 4.724
30.60000 0.062
30.62000 2.604
30.64000 2.424
30.66000 1.647
30.68000 3.364
30.70000 6.416
30.72000 5.613
30.74000 4.475
30.76000 7.585
30.78000 1.903
30.80000 -1.727
30.82000 4.527
30.84000 4.881
30.86000 3.978
30.88000 1.639
30.90000 -0.327
30.92000 -0.424
30.94000 5.005
30.96000 1.501
30.98000 -1.557
31.00000 0.717
31.02000 2.007
31.04000 2.058
31.06000 5.473
31.08000 4.802
31.10000 5.379
31.12000 1.159
31.14000 0.519
31.16000 -0.114
31.18000 -0.816
31.20000 0.809
31.22000 2.036
31.24000 1.967
31.26000 5.044
31.28000 9.295
31.30000 5.032
31.32000 -0.849
31.34000 4.387
31.36000 3.320
31.38000 -3.314
31.40000 -3.582
31.42000 3.412
31.44000 2.970
31.46000 2.586
31.48000 2.793
31.50000 8.406
31.52000 8.448
31.54000 5.368
31.56000 7.051
31.58000 6.353
31.60000 -0.099
31.62000 -0.565
31.64000 4.244
31.66000 6.742
31.68000 7.401
31.70000 3.218
31.72000 4.049
31.74000 2.546
31.76000 5.306
31.78000 3.291
31.80000 3.709
31.82000 0.962
31.84000 -2.086
31.86000 2.927
31.88000 8.390
31.90000 8.909
31.92000 5.997
31.94000 2.123
31.96000 2.688
31.98000 3.244
32.00000 3.113
32.02000 2.175
32.04000 1.526
32.06000 1.494
32.08000 0.819
32.10000 2.252
32.12000 0.331
32.14000 0.187
32.16000 1.452
32.18000 5.895
32.20000 0.998
32.22000 0.637
32.24000 0.967
32.26000 4.126
32.28000 2.717
32.30000 4.713
32.32000 0.129
32.34000 -3.533
32.36000 -1.214
32.38000 3.340
32.40000 3.098
32.42000 0.983
32.44000 -3.581
32.46000 2.450
32.48000 5.576
32.50000 2.806
32.52000 0.321
32.54000 2.020
32.56000 3.833
32.58000 1.630
32.60000 2.457
32.62000 4.992
32.64000 -1.193
32.66000 -2.735
32.68000 1.368
32.70000 3.830
32.72000 6.076
32.74000 8.218
32.76000 3.780
32.78000 -2.406
32.80000 1.679
32.82000 4.215
32.84000 5.865
32.86000 2.066
32.88000 0.000
32.90000 2.547
32.92000 2.356
32.94000 2.229
32.96000 0.007
32.98000 3.805
33.00000 1.440
33.02000 2.404
33.04000 -0.442
33.06000 -3.581
33.08000 1.576
33.10000 4.815
33.12000 2.399
33.14000 2.533
33.16000 1.198
33.18000 2.954
33.20000 2.747
33.22000 -1.679
33.24000 -3.211
33.26000 -1.720
33.28000 -1.300
33.30000 -0.260
33.32000 1.684
33.34000 -3.068
33.36000 -0.242
33.38000 -0.136
33.40000 -2.244
33.42000 4.155
33.44000 1.666
33.46000 -1.899
33.48000 2.718
33.50000 -0.063
33.52000 4.423
33.54000 9.536
33.56000 6.053
33.58000 3.514
33.60000 0.186
33.62000 0.078
33.64000 -1.106
33.66000 0.614
33.68000 2.962
33.70000 -2.167
33.72000 -3.580
33.74000 -1.068
33.76000 4.364
33.78000 -1.801
33.80000 -3.400
33.82000 -2.624
33.84000 -0.612
33.86000 -1.093
33.88000 -0.330
33.90000 1.594
33.92000 0.521
33.94000 -0.775
33.96000 -0.998
33.98000 1.489
34.00000 -1.329
34.02000 0.871
34.04000 5.548
34.06000 5.466
34.08000 5.142
34.10000 0.393
34.12000 -0.641
34.14000 2.601
34.16000 1.568
34.18000 4.440
34.20000 5.641
34.22000 5.447
34.24000 -0.151
34.26000 -0.273
34.28000 4.648
34.30000 2.647
34.32000 0.781
34.34000 1.698
34.36000 0.200
34.38000 6.831
34.40000 7.485
34.42000 1.233
34.44000 2.022
34.46000 -0.547
34.48000 -1.654
34.50000 1.940
34.52000 4.045
34.54000 2.614
34.56000 3.713
34.58000 2.715
34.60000 -1.553
34.62000 -0.367
34.64000 -1.449
34.66000 -1.425
34.68000 3.432
34.70000 0.553
34.72000 2.477
34.74000 5.191
34.76000 2.962
34.78000 0.405
34.80000 -3.542
34.82000 1.347
34.84000 1.001
34.86000 1.312
34.88000 -2.216
34.90000 -1.004
34.92000 -1.556
34.94000 -2.451
34.96000 0.788
34.98000 4.082
35.00000 8.703
35.02000 3.821
35.04000 3.331
35.06000 -0.127
35.08000 -3.540
35.10000 -2.503
35.12000 2.789
35.14000 0.942
35.16000 1.308
35.18000 0.335
35.20000 -3.345
35.22000 -1.856
35.24000 1.200
35.26000 3.577
35.28000 1.532
35.30000 -2.117
35.32000 -1.139
35.34000 -2.708
35.36000 -1.102
35.38000 1.733
35.40000 4.419
35.42000 4.976
35.44000 3.727
35.46000 0.621
35.48000 1.516
35.50000 -0.162
35.52000 -1.043
35.54000 -3.530
35.56000 -2.092
35.58000 -0.664
35.60000 -0.095
35.62000 3.510
35.64000 0.323
35.66000 1.012
35.68000 -1.284
35.70000 0.769
35.72000 4.146
35.74000 0.410
35.76000 -0.795
35.78000 -3.447
35.80000 -0.457
35.82000 -1.204
35.84000 -1.300
35.86000 -2.525
35.88000 -1.342
35.90000 -3.523
35.92000 -3.524
35.94000 -0.839
35.96000 2.325
35.98000 2.295
36.00000 1.430
36.02000 -0.817
36.04000 3.171
36.06000 4.351
36.08000 3.983
36.10000 7.019
36.12000 3.935
36.14000 -0.119
36.16000 2.011
36.18000 3.626
36.20000 1.537
36.22000 4.094
36.24000 1.473
36.26000 8.263
36.28000 6.215
36.30000 2.733
36.32000 0.345
36.34000 0.349
36.36000 5.000
36.38000 3.000
36.40000 2.046
36.42000 2.588
36.44000 2.875
36.46000 -0.455
36.48000 4.272
36.50000 2.129
36.52000 0.651
36.54000 2.765
36.56000 6.814
36.58000 6.823
36.60000 5.793
36.62000 1.486
36.64000 2.674
36.66000 2.898
36.68000 1.171
36.70000 0.452
36.72000 1.503
36.74000 2.164
36.76000 0.781
36.78000 -3.531
36.80000 1.635
36.82000 4.295
36.84000 2.697
36.86000 2.931
36.88000 3.083
36.90000 -0.076
36.92000 -0.370
36.94000 3.416
36.96000 1.832
36.98000 5.046
37.00000 6.712
37.02000 1.909
37.04000 0.309
37.06000 0.077
37.08000 1.261
37.10000 -0.983
37.12000 -3.054
37.14000 -0.653
37.16000 2.209
37.18000 5.674
37.20000 7.247
37.22000 3.004
37.24000 3.201
37.26000 4.465
37.28000 7.982
37.30000 4.123
37.32000 -1.258
37.34000 1.559
37.36000 -3.571
37.38000 -1.608
37.40000 3.578
37.42000 12.739
37.44000 10.396
37.46000 2.137
37.48000 -2.705
37.50000 -0.307
37.52000 -0.394
37.54000 -0.581
37.56000 6.810
37.58000 10.103
37.60000 10.530
37.62000 6.470
37.64000 4.474
37.66000 4.871
37.68000 4.826
37.70000 9.909
37.72000 7.708
37.74000 2.085
37.76000 0.431
37.78000 6.481
37.80000 8.372
37.82000 4.806
37.84000 3.636
37.86000 6.207
37.88000 6.817
37.90000 4.217
37.92000 6.288
37.94000 11.264
37.96000 14.307
37.98000 11.515
38.00000 10.988
38.02000 11.621
38.04000 6.958
38.06000 9.058
38.08000 9.717
38.10000 6.715
38.12000 13.287
38.14000 15.867
38.16000 19.640
38.18000 19.257
38.20000 10.982
38.22000 12.627
38.24000 16.742
38.26000 17.384
38.28000 12.650
38.30000 9.121
38.32000 17.770
38.34000 19.587
38.36000 18.801
38.38000 21.358
38.40000 22.788
38.42000 20.573
38.44000 21.484
38.46000 18.051
38.48000 18.010
38.50000 22.693
38.52000 25.393
38.54000 26.284
38.56000 25.329
38.58000 27.328
38.60000 24.407
38.62000 27.929
38.64000 34.739
38.66000 24.973
38.68000 29.311
38.70000 31.291
38.72000 32.930
38.74000 37.842
38.76000 39.345
38.78000 40.007
38.80000 40.565
38.82000 42.406
38.84000 45.284
38.86000 38.175
38.88000 42.695
38.90000 41.018
38.92000 37.006
38.94000 40.511
38.96000 43.556
38.98000 49.673
39.00000 52.542
39.02000 59.719
39.04000 62.048
39.06000 56.180
39.08000 58.485
39.10000 64.288
39.12000 65.743
39.14000 71.828
39.16000 77.630
39.18000 72.291
39.20000 75.618
39.22000 77.687
39.24000 80.031
39.26000 91.954
39.28000 92.772
39.30000 94.699
39.32000 92.988
39.34000 100.799
39.36000 106.343
39.38000 108.236
39.40000 113.016
39.42000 115.269
39.44000 127.047
39.46000 134.644
39.48000 137.703
39.50000 144.562
39.52000 154.279
39.54000 162.386
39.56000 172.591
39.58000 187.144
39.60000 195.108
39.62000 198.127
39.64000 206.235
39.66000 219.481
39.68000 238.561
39.70000 255.575
39.72000 274.166
39.74000 286.988
39.76000 292.878
39.78000 312.980
39.80000 328.948
39.82000 348.229
39.84000 372.336
39.86000 396.820
39.88000 415.292
39.90000 435.546
39.92000 455.904
39.94000 483.099
39.96000 512.039
39.98000 537.797
40.00000 557.106
40.02000 580.977
40.04000 601.435
40.06000 627.362
40.08000 660.201
40.10000 685.202
40.12000 697.533
40.14000 715.234
40.16000 743.957
40.18000 742.351
40.20000 756.276
40.22000 770.827
40.24000 783.230
40.26000 782.334
40.28000 787.873
40.30000 787.561
40.32000 786.861
40.34000 779.359
40.36000 777.513
40.38000 769.664
40.40000 754.552
40.42000 744.358
40.44000 738.476
40.46000 720.814
40.48000 699.833
40.50000 669.483
40.52000 646.670
40.54000 627.084
40.56000 602.912
40.58000 575.376
40.60000 553.017
40.62000 534.936
40.64000 510.039
40.66000 499.302
40.68000 477.766
40.70000 454.004
40.72000 433.274
40.74000 409.980
40.76000 387.724
40.78000 371.083
40.80000 346.369
40.82000 336.536
40.84000 320.309
40.86000 299.531
40.88000 273.476
40.90000 254.396
40.92000 243.173
40.94000 233.943
40.96000 219.317
40.98000 210.888
41.00000 204.996
41.02000 186.697
41.04000 179.722
41.06000 164.819
41.08000 154.040
41.10000 148.284
41.12000 147.893
41.14000 136.468
41.16000 130.370
41.18000 122.559
41.20000 110.295
41.22000 107.519
41.24000 98.951
41.26000 94.880
41.28000 83.700
41.30000 83.845
41.32000 79.499
41.34000 75.352
41.36000 72.179
41.38000 69.454
41.40000 63.648
41.42000 54.899
41.44000 56.901
41.46000 55.826
41.48000 60.148
41.50000 52.533
41.52000 44.445
41.54000 47.638
41.56000 45.274
41.58000 46.135
41.60000 39.087
41.62000 33.013
41.64000 39.744
41.66000 35.696
41.68000 33.118
41.70000 32.229
41.72000 35.947
41.74000 29.362
41.76000 27.472
41.78000 29.486
41.80000 28.498
41.82000 22.229
41.84000 23.449
41.86000 22.846
41.88000 17.457
41.90000 19.723
41.92000 17.955
41.94000 16.545
41.96000 12.300
41.98000 12.296
42.00000 17.109
42.02000 13.595
42.04000 9.799
42.06000 10.644
42.08000 10.997
42.10000 9.984
42.12000 8.542
42.14000 9.514
42.16000 10.949
42.18000 9.732
42.20000 6.698
42.22000 4.202
42.24000 6.550
42.26000 9.802
42.28000 9.398
42.30000 4.350
42.32000 5.689
42.34000 4.459
42.36000 4.473
42.38000 4.869
42.40000 5.152
42.42000 4.787
42.44000 3.304
42.46000 5.260
42.48000 9.047
42.50000 4.052
42.52000 2.780
42.54000 3.901
42.56000 0.402
42.58000 2.364
42.60000 2.575
42.62000 4.240
42.64000 2.281
42.66000 1.430
42.68000 3.741
42.70000 1.366
42.72000 -0.123
42.74000 -0.655
42.76000 1.280
42.78000 0.929
42.80000 0.063
42.82000 -0.981
42.84000 2.349
42.86000 3.969
42.88000 3.177
42.90000 2.881
42.92000 1.673
42.94000 1.201
42.96000 2.382
42.98000 4.668
43.00000 0.461
43.02000 -1.123
43.04000 -2.648
43.06000 -3.480
43.08000 0.583
43.10000 1.941
43.12000 -1.514
43.14000 0.669
43.16000 2.184
43.18000 -0.099
43.20000 0.270
43.22000 0.219
43.24000 0.479
43.26000 3.169
43.28000 3.962
43.30000 0.779
43.32000 -2.022
43.34000 -0.443
43.36000 -2.078
43.38000 0.051
43.40000 1.071
43.42000 2.214
43.44000 3.841
43.46000 3.560
43.48000 2.007
43.50000 1.247
43.52000 2.398
43.54000 -0.734
43.56000 -3.386
43.58000 -0.423
43.60000 2.439
43.62000 2.453
43.64000 2.799
43.66000 1.995
43.68000 1.567
43.70000 3.092
43.72000 6.541
43.74000 0.167
43.76000 1.859
43.78000 3.286
43.80000 0.758
43.82000 -1.473
43.84000 -0.154
43.86000 0.930
43.88000 2.370
43.90000 0.589
43.92000 -2.511
43.94000 0.590
43.96000 -0.500
43.98000 0.688
44.00000 3.200
44.02000 2.899
44.04000 3.527
44.06000 0.355
44.08000 -0.094
44.10000 3.573
44.12000 4.580
44.14000 1.880
44.16000 -2.327
44.18000 0.106
44.20000 3.554
44.22000 3.804
44.24000 2.552
44.26000 2.351
44.28000 1.607
44.30000 0.079
44.32000 1.690
44.34000 -0.832
44.36000 -2.102
44.38000 -3.350
44.40000 -1.394
44.42000 2.405
44.44000 2.393
44.46000 2.141
44.48000 0.253
44.50000 -0.392
44.52000 5.490
44.54000 6.939
44.56000 2.399
44.58000 3.232
44.60000 4.160
44.62000 -2.432
44.64000 -1.092
44.66000 -1.629
44.68000 -1.526
44.70000 -0.819
44.72000 1.200
44.74000 3.083
44.76000 2.941
44.78000 3.966
44.80000 3.619
44.82000 2.393
44.84000 1.205
44.86000 -2.146
44.88000 0.027
44.90000 2.475
44.92000 0.281
44.94000 -3.352
44.96000 0.971
44.98000 2.925
45.00000 2.187
45.02000 1.758
45.04000 -0.638
45.06000 0.143
45.08000 4.453
45.10000 1.362
45.12000 1.071
45.14000 1.113
45.16000 2.221
45.18000 2.139
45.20000 4.509
45.22000 3.657
45.24000 4.881
45.26000 5.627
45.28000 3.176
45.30000 2.193
45.32000 5.347
45.34000 9.362
45.36000 3.703
45.38000 3.738
45.40000 6.043
45.42000 9.358
45.44000 9.434
45.46000 10.234
45.48000 14.761
45.50000 16.136
45.52000 13.487
45.54000 14.862
45.56000 15.083
45.58000 16.193
45.60000 16.366
45.62000 15.013
45.64000 23.121
45.66000 21.471
45.68000 17.709
45.70000 17.601
45.72000 19.780
45.74000 22.886
45.76000 23.803
45.78000 23.816
45.80000 24.720
45.82000 26.856
45.84000 31.578
45.86000 36.402
45.88000 37.746
45.90000 36.179
45.92000 34.294
45.94000 35.265
45.96000 39.909
45.98000 41.556
46.00000 39.705
46.02000 39.126
46.04000 41.260
46.06000 45.765
46.08000 52.141
46.10000 51.856
46.12000 48.377
46.14000 56.454
46.16000 54.114
46.18000 56.275
46.20000 61.190
46.22000 66.242
46.24000 67.329
46.26000 64.475
46.28000 64.593
46.30000 65.784
46.32000 71.169
46.34000 74.339
46.36000 83.800
46.38000 84.211
46.40000 88.191
46.42000 93.506
46.44000 89.817
46.46000 93.038
46.48000 95.495
46.50000 97.505
46.52000 104.255
46.54000 109.194
46.56000 110.293
46.58000 106.447
46.60000 113.607
46.62000 118.586
46.64000 119.178
46.66000 120.433
46.68000 127.520
46.70000 136.418
46.72000 140.369
46.74000 138.153
46.76000 142.475
46.78000 141.397
46.80000 142.352
46.82000 141.044
46.84000 148.591
46.86000 158.103
46.88000 153.389
46.90000 145.440
46.92000 150.110
46.94000 144.050
46.96000 143.966
46.98000 151.981
47.00000 147.303
47.02000 144.615
47.04000 140.442
47.06000 144.035
47.08000 144.284
47.10000 139.815
47.12000 137.160
47.14000 131.411
47.16000 138.167
47.18000 133.736
47.20000 123.888
47.22000 122.471
47.24000 124.147
47.26000 113.352
47.28000 108.714
47.30000 111.509
47.32000 102.897
47.34000 97.759
47.36000 101.197
47.38000 91.105
47.40000 84.247
47.42000 83.731
47.44000 82.673
47.46000 77.556
47.48000 73.842
47.50000 68.766
47.52000 69.967
47.54000 66.058
47.56000 61.577
47.58000 53.425
47.60000 55.134
47.62000 56.593
47.64000 49.611
47.66000 45.799
47.68000 41.681
47.70000 43.530
47.72000 40.962
47.74000 39.354
47.76000 34.668
47.78000 33.884
47.80000 33.967
47.82000 32.901
47.84000 32.411
47.86000 30.724
47.88000 30.191
47.90000 23.641
47.92000 24.789
47.94000 26.385
47.96000 22.235
47.98000 19.877
48.00000 14.256
48.02000 10.246
48.04000 11.472
48.06000 9.087
48.08000 9.597
48.10000 13.133
48.12000 12.781
48.14000 12.899
48.16000 6.466
48.18000 6.880
48.20000 10.239
48.22000 9.254
48.24000 6.797
48.26000 8.146
48.28000 3.806
48.30000 -0.249
48.32000 1.068
48.34000 2.136
48.36000 9.689
48.38000 10.296
48.40000 5.702
48.42000 6.164
48.44000 5.399
48.46000 5.152
48.48000 4.571
48.50000 4.014
48.52000 3.080
48.54000 6.399
48.56000 5.112
48.58000 2.133
48.60000 4.260
48.62000 10.425
48.64000 8.450
48.66000 2.248
48.68000 1.933
48.70000 0.802
48.72000 2.036
48.74000 3.831
48.76000 5.720
48.78000 4.462
48.80000 1.571
48.82000 -2.926
48.84000 -2.406
48.86000 2.128
48.88000 -0.393
48.90000 1.182
48.92000 2.566
48.94000 1.615
48.96000 1.992
48.98000 3.021
49.00000 5.361
49.02000 4.411
49.04000 2.646
49.06000 -1.012
49.08000 0.727
49.10000 -2.061
49.12000 1.362
49.14000 -0.178
49.16000 -1.751
49.18000 2.146
49.20000 4.483
49.22000 2.669
49.24000 1.232
49.26000 1.453
49.28000 0.821
49.30000 1.292
49.32000 0.842
49.34000 -2.135
49.36000 -2.851
49.38000 1.979
49.40000 6.229
49.42000 3.435
49.44000 3.244
49.46000 1.294
49.48000 1.254
49.50000 1.673
49.52000 3.991
49.54000 4.866
49.56000 4.811
49.58000 2.837
49.60000 7.257
49.62000 8.384
49.64000 1.269
49.66000 -0.565
49.68000 1.710
49.70000 2.801
49.72000 1.337
49.74000 1.247
49.76000 2.728
49.78000 6.172
49.80000 5.256
49.82000 2.171
49.84000 0.291
49.86000 0.957
49.88000 2.628
49.90000 2.946
49.92000 0.538
49.94000 -0.328
49.96000 3.148
49.98000 3.200
50.00000 -2.757
50.02000 -1.867
50.04000 2.457
50.06000 2.212
50.08000 2.397
50.10000 4.681
50.12000 1.935
50.14000 2.095
50.16000 4.369
50.18000 3.761
50.20000 4.888
50.22000 3.859
50.24000 7.414
50.26000 4.071
50.28000 1.358
50.30000 -0.316
50.32000 -2.442
50.34000 0.790
50.36000 5.109
50.38000 1.226
50.40000 -0.754
50.42000 2.142
50.44000 3.004
50.46000 1.801
50.48000 1.934
50.50000 1.242
50.52000 1.533
50.54000 0.712
50.56000 4.423
50.58000 4.320
50.60000 4.539
50.62000 5.100
50.64000 5.404
50.66000 5.794
50.68000 5.496
50.70000 4.807
50.72000 4.782
50.74000 3.523
50.76000 5.891
50.78000 4.899
50.80000 3.938
50.82000 3.734
50.84000 1.871
50.86000 -2.670
50.88000 0.317
50.90000 3.806
50.92000 1.954
50.94000 5.246
50.96000 2.904
50.98000 -2.660
51.00000 1.373
51.02000 4.402
51.04000 4.510
51.06000 4.041
51.08000 5.053
51.10000 5.339
51.12000 4.473
51.14000 6.873
51.16000 7.105
51.18000 3.649
51.20000 2.743
51.22000 2.992
51.24000 6.708
51.26000 6.537
51.28000 4.218
51.30000 5.418
51.32000 4.127
51.34000 -0.762
51.36000 -2.065
51.38000 -2.655
51.40000 2.257
51.42000 1.817
51.44000 1.495
51.46000 1.128
51.48000 -0.452
51.50000 4.873
51.52000 4.085
51.54000 1.470
51.56000 -0.923
51.58000 2.268
51.60000 3.401
51.62000 5.683
51.64000 4.029
51.66000 1.732
51.68000 5.340
51.70000 4.083
51.72000 2.979
51.74000 4.742
51.76000 1.768
51.78000 1.614
51.80000 6.831
51.82000 5.990
51.84000 2.387
51.86000 5.714
51.88000 6.052
51.90000 2.998
51.92000 0.852
51.94000 -0.027
51.96000 2.899
51.98000 0.417
52.00000 1.861
52.02000 3.993
52.04000 3.995
52.06000 4.126
52.08000 4.219
52.10000 1.825
52.12000 0.234
52.14000 1.180
52.16000 1.766
52.18000 4.372
52.20000 2.672
52.22000 4.921
52.24000 3.860
52.26000 3.786
52.28000 2.771
52.30000 -1.520
52.32000 -2.650
52.34000 3.623
52.36000 1.409
52.38000 2.078
52.40000 4.059
52.42000 0.532
52.44000 -1.830
52.46000 0.027
52.48000 3.931
52.50000 2.591
52.52000 6.763
52.54000 3.745
52.56000 7.080
52.58000 2.216
52.60000 -0.203
52.62000 2.474
52.64000 2.420
52.66000 2.493
52.68000 2.299
52.70000 2.698
52.72000 0.630
52.74000 3.130
52.76000 4.971
52.78000 1.200
52.80000 2.154
52.82000 4.507
52.84000 4.839
52.86000 2.745
52.88000 4.512
52.90000 4.975
52.92000 1.080
52.94000 3.100
52.96000 3.967
52.98000 5.235
53.00000 4.313
53.02000 2.990
53.04000 -0.152
53.06000 0.061
53.08000 5.035
53.10000 4.132
53.12000 5.485
53.14000 3.468
53.16000 2.656
53.18000 6.347
53.20000 8.634
53.22000 1.954
53.24000 -0.277
53.26000 0.123
53.28000 4.358
53.30000 7.546
53.32000 2.041
53.34000 5.846
53.36000 1.627
53.38000 -2.569
53.40000 3.639
53.42000 6.694
53.44000 7.118
53.46000 9.527
53.48000 8.813
53.50000 4.709
53.52000 2.375
53.54000 2.795
53.56000 5.723
53.58000 5.424
53.60000 5.471
53.62000 8.246
53.64000 6.432
53.66000 5.742
53.68000 5.901
53.70000 5.891
53.72000 5.500
53.74000 3.397
53.76000 1.357
53.78000 5.892
53.80000 8.781
53.82000 10.438
53.84000 8.005
53.86000 5.182
53.88000 3.341
53.90000 5.305
53.92000 5.086
53.94000 1.089
53.96000 1.871
53.98000 0.427
54.00000 0.635
54.02000 4.531
54.04000 4.578
54.06000 0.714
54.08000 0.423
54.10000 1.740
54.12000 4.151
54.14000 5.551
54.16000 3.404
54.18000 2.916
54.20000 0.557
54.22000 6.394
54.24000 4.578
54.26000 3.665
54.28000 3.630
54.30000 3.328
54.32000 2.149
54.34000 1.963
54.36000 4.491
54.38000 7.386
54.40000 2.318
54.42000 0.600
54.44000 2.013
54.46000 5.391
54.48000 11.418
54.50000 5.910
54.52000 3.961
54.54000 2.878
54.56000 -2.552
54.58000 -1.984
54.60000 8.147
54.62000 8.339
54.64000 -0.670
54.66000 -2.264
54.68000 -0.933
54.70000 2.575
54.72000 3.766
54.74000 2.110
54.76000 3.540
54.78000 2.112
54.80000 5.274
54.82000 4.428
54.84000 1.713
54.86000 1.942
54.88000 1.985
54.90000 3.990
54.92000 3.911
54.94000 3.451
54.96000 2.104
54.98000 4.895
55.00000 3.288
55.02000 3.011
55.04000 1.423
55.06000 1.276
55.08000 3.808
55.10000 4.047
55.12000 1.564
55.14000 3.670
55.16000 7.972
55.18000 1.841
55.20000 -0.445
55.22000 1.269
55.24000 0.272
55.26000 0.643
55.28000 7.407
55.30000 3.480
55.32000 0.895
55.34000 3.646
55.36000 6.021
55.38000 3.030
55.40000 3.127
55.42000 4.606
55.44000 3.995
55.46000 4.055
55.48000 6.375
55.50000 0.941
55.52000 -0.829
55.54000 -2.554
55.56000 0.627
55.58000 0.563
55.60000 1.010
55.62000 3.648
55.64000 4.654
55.66000 0.595
55.68000 -1.414
55.70000 0.420
55.72000 -1.755
55.74000 -0.347
55.76000 2.104
55.78000 5.555
55.80000 6.522
55.82000 4.423
55.84000 2.321
55.86000 -0.614
55.88000 0.872
55.90000 3.609
55.92000 -0.337
55.94000 3.635
55.96000 5.816
55.98000 3.759
56.00000 2.744
56.02000 5.343
56.04000 4.820
56.06000 4.113
56.08000 4.349
56.10000 1.658
56.12000 2.481
56.14000 4.349
56.16000 3.204
56.18000 1.670
56.20000 -2.526
56.22000 1.087
56.24000 5.489
56.26000 5.662
56.28000 1.155
56.30000 0.517
56.32000 1.876
56.34000 3.753
56.36000 0.211
56.38000 3.573
56.40000 4.655
56.42000 3.479
56.44000 3.855
56.46000 6.058
56.48000 4.999
56.50000 2.581
56.52000 -2.520
56.54000 -1.878
56.56000 -2.007
56.58000 0.015
56.60000 3.583
56.62000 4.284
56.64000 5.471
56.66000 2.875
56.68000 1.685
56.70000 -0.049
56.72000 -1.733
56.74000 -0.091
56.76000 3.066
56.78000 3.072
56.80000 2.569
56.82000 -0.240
56.84000 -0.270
56.86000 2.819
56.88000 3.950
56.90000 3.752
56.92000 4.459
56.94000 -0.926
56.96000 2.228
56.98000 2.336
57.00000 1.203
57.02000 0.029
57.04000 0.983
57.06000 0.846
57.08000 -1.430
57.10000 1.595
57.12000 -2.504
57.14000 1.533
57.16000 3.678
57.18000 3.253
57.20000 2.507
57.22000 0.177
57.24000 2.983
57.26000 5.146
57.28000 0.682
57.30000 4.063
57.32000 4.281
57.34000 3.647
57.36000 0.114
57.38000 -0.699
57.40000 0.870
57.42000 0.336
57.44000 0.089
57.46000 2.185
57.48000 4.306
57.50000 0.183
57.52000 3.542
57.54000 2.833
57.56000 0.660
57.58000 0.470
57.60000 2.857
57.62000 2.629
57.64000 1.257
57.66000 -1.297
57.68000 -0.020
57.70000 0.698
57.72000 0.884
57.74000 3.606
57.76000 0.085
57.78000 -0.847
57.80000 -0.469
57.82000 3.219
57.84000 -1.843
57.86000 -2.479
57.88000 0.955
57.90000 0.678
57.92000 2.703
57.94000 2.695
57.96000 2.082
57.98000 1.806
58.00000 0.531
58.02000 -0.429
58.04000 3.427
58.06000 0.655
58.08000 -0.630
58.10000 0.618
58.12000 -1.046
58.14000 -0.349
58.16000 3.100
58.18000 3.290
58.20000 3.701
58.22000 0.036
58.24000 1.178
58.26000 -0.662
58.28000 1.378
58.30000 4.075
58.32000 0.092
58.34000 0.956
58.36000 -2.088
58.38000 0.254
58.40000 2.335
58.42000 1.271
58.44000 3.095
58.46000 2.542
58.48000 1.614
58.50000 1.540
58.52000 0.404
58.54000 2.331
58.56000 -1.436
58.58000 -0.341
58.60000 1.976
58.62000 1.532
58.64000 -2.165
58.66000 1.805
58.68000 -0.026
58.70000 -0.380
58.72000 -2.208
58.74000 0.426
58.76000 0.577
58.78000 3.025
58.80000 2.129
58.82000 0.412
58.84000 -1.573
58.86000 -2.357
58.88000 0.810
58.90000 3.848
58.92000 1.560
58.94000 -0.030
58.96000 0.385
58.98000 0.863
59.00000 1.042
59.02000 0.646
59.04000 1.077
59.06000 1.295
59.08000 -0.319
59.10000 -0.589
59.12000 0.032
59.14000 -0.138
59.16000 0.155
59.18000 -2.452
59.20000 -1.941
59.22000 -1.772
59.24000 0.546
59.26000 3.396
59.28000 2.362
59.30000 0.183
59.32000 -1.107
59.34000 0.363
59.36000 3.205
59.38000 0.668
59.40000 0.537
59.42000 2.846
59.44000 -1.331
59.46000 -0.285
59.48000 -0.566
59.50000 -1.201
59.52000 2.887
59.54000 2.184
59.56000 2.161
59.58000 0.279
59.60000 1.039
59.62000 -0.402
59.64000 -1.673
59.66000 -0.930
59.68000 -1.952
59.70000 0.227
59.72000 1.596
59.74000 3.994
59.76000 4.270
59.78000 4.063
59.80000 4.303
59.82000 4.592
59.84000 3.164
59.86000 -0.114
59.88000 -1.874
59.90000 2.636
59.92000 2.336
59.94000 2.789
59.96000 3.079
59.98000 -1.003
60.00000 -2.164
60.02000 -2.424
60.04000 -1.442
60.06000 2.325
60.08000 3.536
60.10000 2.277
60.12000 2.255
60.14000 6.303
60.16000 4.134
60.18000 -0.416
60.20000 -1.827
60.22000 -0.883
60.24000 1.688
60.26000 2.486
60.28000 -1.073
60.30000 2.901
60.32000 4.809
60.34000 2.036
60.36000 3.875
60.38000 4.769
60.40000 3.182
60.42000 -1.841
60.44000 -0.428
60.46000 0.257
60.48000 1.211
60.50000 3.133
60.52000 -1.012
60.54000 -1.232
60.56000 -0.206
60.58000 6.708
60.60000 4.750
60.62000 -0.811
60.64000 2.462
60.66000 2.646
60.68000 -0.773
60.70000 2.839
60.72000 2.836
60.74000 5.017
60.76000 5.364
60.78000 5.240
60.80000 1.521
60.82000 0.009
60.84000 1.592
60.86000 2.610
60.88000 -0.046
60.90000 0.980
60.92000 1.776
60.94000 4.812
60.96000 2.876
60.98000 1.655
61.00000 -1.670
61.02000 -2.381
61.04000 -0.978
61.06000 2.367
61.08000 5.457
61.10000 1.008
61.12000 1.918
61.14000 1.890
61.16000 4.199
61.18000 2.405
61.20000 -2.156
61.22000 2.021
61.24000 4.499
61.26000 2.005
61.28000 -1.300
61.30000 1.365
61.32000 5.591
61.34000 3.953
61.36000 2.172
61.38000 3.039
61.40000 2.930
61.42000 2.882
61.44000 0.227
61.46000 0.154
61.48000 0.049
61.50000 -2.370
61.52000 0.882
61.54000 1.757
61.56000 -1.292
61.58000 3.915
61.60000 4.780
61.62000 1.193
61.64000 -0.105
61.66000 5.102
61.68000 4.286
61.70000 3.470
61.72000 3.987
61.74000 2.152
61.76000 -1.144
61.78000 3.694
61.80000 5.436
61.82000 2.096
61.84000 2.785
61.86000 2.108
61.88000 3.458
61.90000 0.720
61.92000 0.440
61.94000 -1.697
61.96000 -0.157
61.98000 1.093
62.00000 -1.301
62.02000 -0.748
62.04000 -0.660
62.06000 0.277
62.08000 3.226
62.10000 3.823
62.12000 3.952
62.14000 0.731
62.16000 1.550
62.18000 3.261
62.20000 0.504
62.22000 0.243
62.24000 2.087
62.26000 5.991
62.28000 5.924
62.30000 1.825
62.32000 -0.376
62.34000 2.050
62.36000 2.684
62.38000 3.855
62.40000 3.750
62.42000 0.941
62.44000 0.887
62.46000 2.450
62.48000 0.680
62.50000 -0.015
62.52000 0.916
62.54000 -0.910
62.56000 -2.367
62.58000 -0.013
62.60000 0.625
62.62000 2.963
62.64000 5.278
62.66000 3.593
62.68000 -1.155
62.70000 0.321
62.72000 1.372
62.74000 6.028
62.76000 2.088
62.78000 -1.936
62.80000 -0.562
62.82000 2.170
62.84000 0.513
62.86000 2.641
62.88000 4.394
62.90000 1.574
62.92000 0.668
62.94000 -1.255
62.96000 -0.766
62.98000 3.067
63.00000 -0.692
63.02000 2.130
63.04000 -0.288
63.06000 -1.693
63.08000 0.073
63.10000 1.354
63.12000 -1.191
63.14000 -1.509
63.16000 1.011
63.18000 8.543
63.20000 2.327
63.22000 0.276
63.24000 1.460
63.26000 0.621
63.28000 -2.337
63.30000 -0.567
63.32000 1.081
63.34000 0.084
63.36000 2.737
63.38000 3.113
63.40000 2.334
63.42000 6.081
63.44000 3.819
63.46000 4.094
63.48000 3.198
63.50000 1.934
63.52000 2.340
63.54000 1.761
63.56000 -2.332
63.58000 -0.358
63.60000 2.120
63.62000 -0.714
63.64000 -0.115
63.66000 -2.353
63.68000 1.824
63.70000 3.768
63.72000 5.201
63.74000 3.351
63.76000 4.388
63.78000 2.769
63.80000 3.531
63.82000 4.463
63.84000 1.921
63.86000 0.053
63.88000 1.209
63.90000 0.457
63.92000 2.047
63.94000 2.122
63.96000 -1.198
63.98000 -0.580
64.00000 1.402
64.02000 2.958
64.04000 2.060
64.06000 1.004
64.08000 2.846
64.10000 -0.139
64.12000 -0.116
64.14000 -1.556
64.16000 -0.517
64.18000 -0.347
64.20000 2.298
64.22000 -0.865
64.24000 0.234
64.26000 -1.946
64.28000 -2.355
64.30000 0.740
64.32000 2.033
64.34000 1.791
64.36000 2.075
64.38000 3.956
64.40000 3.563
64.42000 0.916
64.44000 2.329
64.46000 5.416
64.48000 1.095
64.50000 -1.541
64.52000 0.274
64.54000 2.741
64.56000 2.583
64.58000 2.041
64.60000 0.265
64.62000 -1.939
64.64000 -0.152
64.66000 0.418
64.68000 3.115
64.70000 4.403
64.72000 -0.914
64.74000 -0.005
64.76000 0.770
64.78000 0.339
64.80000 1.901
64.82000 0.930
64.84000 0.334
64.86000 -1.543
64.88000 0.039
64.90000 0.858
64.92000 1.069
64.94000 4.155
64.96000 2.220
64.98000 -0.848
65.00000 0.124
65.02000 -0.256
65.04000 0.132
65.06000 2.767
65.08000 0.010
65.10000 2.299
65.12000 2.943
65.14000 -0.574
65.16000 0.081
65.18000 0.945
65.20000 -0.818
65.22000 -0.241
65.24000 1.672
65.26000 1.906
65.28000 1.908
65.30000 3.043
65.32000 2.705
65.34000 0.935
65.36000 3.118
65.38000 1.592
65.40000 5.363
65.42000 0.727
65.44000 0.135
65.46000 3.406
65.48000 4.295
65.50000 0.693
65.52000 0.714
65.54000 0.148
65.56000 -2.368
65.58000 -1.525
65.60000 -0.736
65.62000 -0.577
65.64000 0.358
65.66000 0.410
65.68000 1.451
65.70000 1.186
65.72000 2.219
65.74000 1.460
65.76000 2.076
65.78000 1.665
65.80000 4.403
65.82000 2.855
65.84000 0.047
65.86000 2.451
65.88000 3.298
65.90000 2.723
65.92000 1.178
65.94000 0.012
65.96000 2.490
65.98000 1.506
66.00000 4.643
66.02000 5.652
66.04000 4.922
66.06000 1.383
66.08000 1.410
66.10000 1.694
66.12000 2.676
66.14000 3.817
66.16000 3.442
66.18000 0.466
66.20000 -0.812
66.22000 1.653
66.24000 1.041
66.26000 1.547
66.28000 3.444
66.30000 0.613
66.32000 1.800
66.34000 1.618
66.36000 0.910
66.38000 1.331
66.40000 1.798
66.42000 -2.401
66.44000 2.145
66.46000 4.140
66.48000 2.501
66.50000 2.708
66.52000 1.066
66.54000 0.803
66.56000 2.135
66.58000 0.731
66.60000 1.150
66.62000 -0.175
66.64000 3.001
66.66000 0.882
66.68000 0.791
66.70000 2.427
66.72000 7.461
66.74000 6.187
66.76000 2.431
66.78000 3.023
66.80000 3.057
66.82000 3.554
66.84000 1.776
66.86000 3.681
66.88000 3.937
66.90000 5.070
66.92000 3.798
66.94000 2.189
66.96000 2.052
66.98000 1.531
67.00000 0.727
67.02000 0.589
67.04000 1.006
67.06000 2.881
67.08000 4.183
67.10000 4.637
67.12000 3.756
67.14000 3.232
67.16000 2.997
67.18000 6.271
67.20000 2.812
67.22000 3.904
67.24000 3.888
67.26000 9.056
67.28000 8.848
67.30000 4.102
67.32000 5.055
67.34000 4.417
67.36000 5.379
67.38000 3.914
67.40000 5.105
67.42000 8.529
67.44000 9.098
67.46000 10.172
67.48000 6.323
67.50000 4.525
67.52000 5.038
67.54000 9.774
67.56000 7.425
67.58000 7.386
67.60000 3.985
67.62000 4.611
67.64000 5.979
67.66000 5.782
67.68000 9.242
67.70000 12.807
67.72000 15.051
67.74000 13.441
67.76000 13.719
67.78000 11.807
67.80000 16.170
67.82000 15.775
67.84000 16.237
67.86000 17.774
67.88000 17.012
67.90000 14.511
67.92000 17.940
67.94000 18.614
67.96000 20.714
67.98000 20.327
68.00000 21.338
68.02000 21.272
68.04000 16.486
68.06000 20.723
68.08000 22.988
68.10000 27.570
68.12000 27.574
68.14000 26.031
68.16000 28.992
68.18000 30.870
68.20000 32.543
68.22000 30.733
68.24000 29.994
68.26000 28.969
68.28000 29.455
68.30000 31.458
68.32000 29.832
68.34000 30.916
68.36000 33.525
68.38000 34.099
68.40000 32.985
68.42000 29.602
68.44000 33.749
68.46000 37.105
68.48000 38.808
68.50000 37.099
68.52000 37.445
68.54000 37.030
68.56000 37.216
68.58000 34.759
68.60000 34.204
68.62000 34.801
68.64000 34.928
68.66000 35.833
68.68000 37.504
68.70000 39.141
68.72000 36.045
68.74000 35.325
68.76000 31.307
68.78000 35.283
68.80000 36.055
68.82000 35.070
68.84000 32.869
68.86000 34.015
68.88000 33.355
68.90000 25.747
68.92000 26.640
68.94000 26.630
68.96000 24.635
68.98000 27.208
69.00000 26.951
69.02000 23.633
69.04000 23.654
69.06000 25.072
69.08000 23.376
69.10000 21.154
69.12000 19.435
69.14000 19.592
69.16000 17.272
69.18000 18.207
69.20000 16.384
69.22000 16.392
69.24000 14.983
69.26000 14.679
69.28000 14.906
69.30000 16.130
69.32000 12.213
69.34000 10.692
69.36000 8.083
69.38000 8.556
69.40000 8.965
69.42000 8.863
69.44000 6.116
69.46000 6.143
69.48000 10.795
69.50000 10.054
69.52000 7.615
69.54000 10.012
69.56000 10.115
69.58000 4.533
69.60000 4.516
69.62000 7.309
69.64000 5.160
69.66000 2.582
69.68000 5.354
69.70000 5.288
69.72000 6.132
69.74000 8.394
69.76000 7.376
69.78000 5.966
69.80000 9.265
69.82000 10.833
69.84000 6.297
69.86000 2.455
69.88000 5.415
69.90000 3.732
69.92000 3.617
69.94000 2.988
69.96000 2.884
69.98000 1.773
70.00000 -0.791
70.02000 1.440
70.04000 -2.327
70.06000 -2.092
70.08000 -0.075
70.10000 5.300
70.12000 4.550
70.14000 4.303
70.16000 4.857
70.18000 2.990
70.20000 -0.034
70.22000 4.409
70.24000 2.562
70.26000 1.484
70.28000 2.545
70.30000 1.530
70.32000 -0.496
70.34000 0.438
70.36000 4.519
70.38000 1.855
70.40000 2.649
70.42000 3.206
70.44000 0.648
70.46000 -0.534
70.48000 2.290
70.50000 4.079
70.52000 3.465
70.54000 2.679
70.56000 4.118
70.58000 0.628
70.60000 -1.343
70.62000 -0.015
70.64000 0.641
70.66000 2.525
70.68000 2.805
70.70000 2.752
70.72000 0.081
70.74000 0.149
70.76000 0.221
70.78000 0.647
70.80000 -2.291
70.82000 -0.928
70.84000 1.474
70.86000 4.117
70.88000 3.589
70.90000 4.885
70.92000 5.561
70.94000 6.883
70.96000 6.653
70.98000 6.630
71.00000 1.695
71.02000 0.310
71.04000 1.267
71.06000 2.009
71.08000 3.679
71.10000 5.429
71.12000 5.684
71.14000 1.474
71.16000 3.706
71.18000 4.291
71.20000 1.318
71.22000 2.182
71.24000 -0.539
71.26000 0.326
71.28000 2.417
71.30000 3.028
71.32000 4.005
71.34000 4.559
71.36000 7.759
71.38000 3.346
71.40000 -0.390
71.42000 1.258
71.44000 2.076
71.46000 1.188
71.48000 2.650
71.50000 1.574
71.52000 4.505
71.54000 2.600
71.56000 2.296
71.58000 3.975
71.60000 4.736
71.62000 3.984
71.64000 3.295
71.66000 6.967
71.68000 5.130
71.70000 1.355
71.72000 0.759
71.74000 -2.210
71.76000 1.446
71.78000 5.136
71.80000 5.467
71.82000 3.535
71.84000 6.815
71.86000 3.484
71.88000 3.874
71.90000 1.306
71.92000 3.104
71.94000 0.790
71.96000 2.057
71.98000 4.026
72.00000 4.333
72.02000 1.518
72.04000 2.403
72.06000 0.300
72.08000 1.177
72.10000 2.317
72.12000 5.611
72.14000 5.720
72.16000 3.290
72.18000 0.948
72.20000 1.926
72.22000 1.262
72.24000 1.107
72.26000 0.732
72.28000 -0.544
72.30000 -1.417
72.32000 0.428
72.34000 3.476
72.36000 5.454
72.38000 3.651
72.40000 0.256
72.42000 -1.033
72.44000 1.559
72.46000 2.952
72.48000 2.586
72.50000 5.368
72.52000 4.215
72.54000 5.535
72.56000 1.547
72.58000 1.021
72.60000 1.350
72.62000 3.325
72.64000 6.176
72.66000 6.792
72.68000 0.740
72.70000 -0.106
72.72000 1.588
72.74000 2.351
72.76000 2.249
72.78000 1.598
72.80000 -2.191
72.82000 -0.813
72.84000 0.485
72.86000 2.192
72.88000 -1.786
72.90000 1.929
72.92000 1.333
72.94000 3.037
72.96000 3.283
72.98000 0.432
73.00000 0.578
73.02000 1.902
73.04000 3.468
73.06000 4.223
73.08000 6.484
73.10000 6.242
73.12000 3.373
73.14000 0.258
73.16000 3.143
73.18000 0.876
73.20000 -0.620
73.22000 -2.197
73.24000 -1.214
73.26000 -0.023
73.28000 0.497
73.30000 -1.850
73.32000 -0.962
73.34000 1.314
73.36000 2.343
73.38000 2.425
73.40000 1.859
73.42000 2.759
73.44000 4.052
73.46000 5.838
73.48000 5.801
73.50000 4.810
73.52000 3.804
73.54000 4.301
73.56000 2.058
73.58000 3.236
73.60000 5.255
73.62000 0.341
73.64000 2.943
73.66000 4.973
73.68000 2.537
73.70000 -0.019
73.72000 -0.426
73.74000 2.544
73.76000 2.180
73.78000 2.675
73.80000 -0.293
73.82000 2.156
73.84000 0.747
73.86000 1.006
73.88000 0.378
73.90000 1.043
73.92000 2.533
73.94000 6.258
73.96000 6.025
73.98000 2.417
74.00000 0.387
74.02000 -0.996
74.04000 -1.255
74.06000 -0.434
74.08000 5.460
74.10000 3.512
74.12000 3.854
74.14000 2.308
74.16000 3.530
74.18000 4.501
74.20000 1.547
74.22000 0.625
74.24000 1.281
74.26000 0.984
74.28000 0.222
74.30000 0.794
74.32000 -0.577
74.34000 -0.890
74.36000 4.071
74.38000 3.316
74.40000 -1.674
74.42000 -2.130
74.44000 4.039
74.46000 4.927
74.48000 2.964
74.50000 -2.198
74.52000 -0.075
74.54000 0.136
74.56000 0.763
74.58000 -0.181
74.60000 0.115
74.62000 4.015
74.64000 5.047
74.66000 1.864
74.68000 2.725
74.70000 4.686
74.72000 3.294
74.74000 0.822
74.76000 1.149
74.78000 1.743
74.80000 5.698
74.82000 5.425
74.84000 1.218
74.86000 2.158
74.88000 1.978
74.90000 0.323
74.92000 -1.460
74.94000 0.320
74.96000 3.258
74.98000 2.825
75.00000 2.302
75.02000 3.744
75.04000 0.781
75.06000 3.014
75.08000 1.830
75.10000 -0.772
75.12000 -0.461
75.14000 1.681
75.16000 6.691
75.18000 3.425
75.20000 1.945
75.22000 2.593
75.24000 3.063
75.26000 2.676
75.28000 5.149
75.30000 6.176
75.32000 4.812
75.34000 3.943
75.36000 3.639
75.38000 4.608
75.40000 7.290
75.42000 1.475
75.44000 -2.148
75.46000 -1.244
75.48000 1.015
75.50000 3.269
75.52000 0.913
75.54000 0.478
75.56000 0.486
75.58000 1.974
75.60000 -0.004
75.62000 1.933
75.64000 4.772
75.66000 8.453
75.68000 5.037
75.70000 6.386
75.72000 3.968
75.74000 3.702
75.76000 4.256
75.78000 7.560
75.80000 4.266
75.82000 3.996
75.84000 2.899
75.86000 3.023
75.88000 1.844
75.90000 -2.102
75.92000 -0.174
75.94000 2.732
75.96000 2.490
75.98000 3.345
76.00000 5.195
76.02000 2.805
76.04000 2.124
76.06000 3.206
76.08000 3.332
76.10000 4.558
76.12000 6.810
76.14000 6.377
76.16000 6.343
76.18000 2.794
76.20000 4.211
76.22000 4.903
76.24000 7.124
76.26000 8.536
76.28000 5.797
76.30000 2.604
76.32000 0.866
76.34000 -1.257
76.36000 -2.168
76.38000 1.670
76.40000 3.266
76.42000 0.683
76.44000 3.200
76.46000 4.129
76.48000 8.420
76.50000 7.332
76.52000 0.951
76.54000 0.398
76.56000 4.971
76.58000 7.969
76.60000 2.339
76.62000 1.344
76.64000 2.031
76.66000 -0.590
76.68000 2.160
76.70000 3.725
76.72000 1.736
76.74000 2.846
76.76000 2.664
76.78000 2.728
76.80000 3.407
76.82000 5.559
76.84000 5.022
76.86000 3.958
76.88000 5.243
76.90000 3.130
76.92000 -2.175
76.94000 0.818
76.96000 1.092
76.98000 3.301
77.00000 9.010
77.02000 5.515
77.04000 1.646
77.06000 3.393
77.08000 5.445
77.10000 2.921
77.12000 6.362
77.14000 9.114
77.16000 6.939
77.18000 6.383
77.20000 3.644
77.22000 5.259
77.24000 4.809
77.26000 2.224
77.28000 2.628
77.30000 4.001
77.32000 5.476
77.34000 4.055
77.36000 8.044
77.38000 6.157
77.40000 8.490
77.42000 2.855
77.44000 0.547
77.46000 6.202
77.48000 3.414
77.50000 4.929
77.52000 9.272
77.54000 6.174
77.56000 2.307
77.58000 1.476
77.60000 -2.188
77.62000 2.998
77.64000 2.209
77.66000 1.739
77.68000 2.647
77.70000 -0.606
77.72000 3.095
77.74000 2.565
77.76000 -0.069
77.78000 0.985
77.80000 4.653
77.82000 4.812
77.84000 5.329
77.86000 4.028
77.88000 3.826
77.90000 3.204
77.92000 3.433
77.94000 3.913
77.96000 2.934
77.98000 3.960
78.00000 3.421
78.02000 5.939
78.04000 0.844
78.06000 1.748
78.08000 2.233
78.10000 2.228
78.12000 3.830
78.14000 1.167
78.16000 2.820
78.18000 4.670
78.20000 2.232
78.22000 -0.738
78.24000 1.988
78.26000 6.778
78.28000 7.056
78.30000 2.887
78.32000 -1.006
78.34000 -0.338
78.36000 4.335
78.38000 1.112
78.40000 1.896
78.42000 2.038
78.44000 -0.090
78.46000 -0.468
78.48000 0.800
78.50000 1.493
78.52000 3.100
78.54000 1.995
78.56000 4.488
78.58000 3.799
78.60000 4.148
78.62000 5.138
78.64000 4.421
78.66000 5.365
78.68000 6.665
78.70000 6.448
78.72000 3.085
78.74000 3.636
78.76000 3.582
78.78000 1.135
78.80000 -2.211
78.82000 6.703
78.84000 7.812
78.86000 2.881
78.88000 4.639
78.90000 6.603
78.92000 1.896
78.94000 2.522
78.96000 5.477
78.98000 5.383
79.00000 5.870
79.02000 1.986
79.04000 1.377
79.06000 2.072
79.08000 5.374
79.10000 6.502
79.12000 3.009
79.14000 -0.776
79.16000 -2.250
79.18000 0.466
79.20000 4.723
79.22000 3.540
79.24000 -0.112
79.26000 0.550
79.28000 6.230
79.30000 3.937
79.32000 2.508
79.34000 1.156
79.36000 4.537
79.38000 1.558
79.40000 1.774
79.42000 -0.490
79.44000 0.549
79.46000 -0.660
79.48000 -0.715
79.50000 -0.878
79.52000 0.718
79.54000 0.566
79.56000 3.318
79.58000 3.525
79.60000 0.761
79.62000 -2.299
79.64000 1.162
79.66000 1.626
79.68000 -0.902
79.70000 2.212
79.72000 6.713
79.74000 2.889
79.76000 -2.114
79.78000 -1.468
79.80000 -1.049
79.82000 4.342
79.84000 2.640
79.86000 3.572
79.88000 3.246
79.90000 1.525
79.92000 -0.499
79.94000 -1.171
79.96000 -0.992
79.98000 7.705
80.00000 2.329
80.02000 1.601
80.04000 1.911
80.06000 0.360
80.08000 -0.219
80.10000 0.168
80.12000 2.575
80.14000 -1.166
80.16000 -1.270
80.18000 -0.368
80.20000 0.228
80.22000 -0.581
80.24000 2.837
80.26000 3.629
80.28000 -0.357
80.30000 0.218
80.32000 2.792
80.34000 4.831
80.36000 2.784
80.38000 2.339
80.40000 2.600
80.42000 1.599
80.44000 -0.883
80.46000 -2.362
80.48000 -0.018
80.50000 0.824
80.52000 4.386
80.54000 3.129
80.56000 -1.125
80.58000 -2.373
80.60000 -1.518
80.62000 1.862
80.64000 2.677
80.66000 3.500
80.68000 3.433
80.70000 0.310
80.72000 -0.871
80.74000 0.413
80.76000 1.487
80.78000 4.442
80.80000 6.074
80.82000 2.809
80.84000 -0.157
80.86000 -1.663
80.88000 -0.170
80.90000 1.439
80.92000 -2.404
80.94000 2.808
80.96000 3.024
80.98000 1.504
81.00000 -0.383
81.02000 0.951
81.04000 7.794
81.06000 2.666
81.08000 0.937
81.10000 5.536
81.12000 -0.989
81.14000 3.319
81.16000 5.473
81.18000 -0.804
81.20000 3.733
81.22000 3.354
81.24000 4.652
81.26000 4.193
81.28000 5.586
81.30000 4.771
81.32000 1.272
81.34000 4.403
81.36000 9.403
81.38000 10.659
81.40000 7.706
81.42000 5.962
81.44000 4.287
81.46000 2.604
81.48000 5.243
81.50000 7.740
81.52000 3.780
81.54000 4.935
81.56000 6.316
81.58000 6.841
81.60000 7.205
81.62000 5.317
81.64000 3.530
81.66000 6.721
81.68000 10.784
81.70000 15.410
81.72000 18.091
81.74000 15.535
81.76000 14.986
81.78000 12.521
81.80000 10.353
81.82000 14.147
81.84000 16.670
81.86000 16.248
81.88000 15.700
81.90000 18.792
81.92000 20.031
81.94000 19.939
81.96000 18.737
81.98000 20.506
82.00000 22.525
82.02000 22.757
82.04000 17.196
82.06000 22.938
82.08000 28.203
82.10000 21.642
82.12000 21.051
82.14000 26.171
82.16000 26.356
82.18000 22.917
82.20000 20.115
82.22000 27.582
82.24000 28.910
82.26000 30.321
82.28000 33.897
82.30000 30.038
82.32000 32.434
82.34000 34.866
82.36000 37.230
82.38000 40.108
82.40000 42.580
82.42000 40.425
82.44000 37.138
82.46000 36.025
82.48000 34.008
82.50000 40.971
82.52000 49.122
82.54000 42.493
82.56000 42.003
82.58000 42.687
82.60000 46.459
82.62000 43.813
82.64000 47.578
82.66000 46.410
82.68000 42.722
82.70000 40.798
82.72000 43.063
82.74000 45.876
82.76000 44.009
82.78000 44.229
82.80000 36.930
82.82000 38.575
82.84000 41.206
82.86000 41.716
82.88000 43.009
82.90000 47.450
82.92000 50.825
82.94000 45.530
82.96000 42.367
82.98000 37.362
83.00000 37.847
83.02000 37.626
83.04000 36.865
83.06000 36.083
83.08000 37.665
83.10000 37.787
83.12000 35.094
83.14000 32.968
83.16000 32.181
83.18000 32.426
83.20000 32.593
83.22000 33.862
83.24000 33.124
83.26000 31.617
83.28000 32.466
83.30000 28.676
83.32000 24.862
83.34000 21.251
83.36000 24.538
83.38000 28.060
83.40000 32.151
83.42000 27.155
83.44000 19.435
83.46000 17.145
83.48000 17.617
83.50000 15.398
83.52000 14.846
83.54000 13.540
83.56000 10.740
83.58000 9.738
83.60000 14.978
83.62000 12.287
83.64000 9.952
83.66000 10.944
83.68000 11.684
83.70000 12.257
83.72000 8.503
83.74000 10.847
83.76000 10.483
83.78000 7.000
83.80000 7.471
83.82000 7.894
83.84000 7.396
83.86000 6.053
83.88000 9.350
83.90000 9.580
83.92000 4.051
83.94000 7.181
83.96000 9.174
83.98000 9.521
84.00000 6.131
84.02000 6.478
84.04000 5.209
84.06000 1.154
84.08000 4.020
84.10000 2.807
84.12000 3.316
84.14000 2.429
84.16000 5.089
84.18000 2.037
84.20000 0.740
84.22000 3.429
84.24000 5.355
84.26000 5.429
84.28000 3.285
84.30000 1.573
84.32000 -0.383
84.34000 -0.412
84.36000 1.755
84.38000 1.395
84.40000 -0.792
84.42000 0.239
84.44000 -0.560
84.46000 0.440
84.48000 0.568
84.50000 0.126
84.52000 0.118
84.54000 -2.337
84.56000 0.803
84.58000 2.902
84.60000 0.145
84.62000 1.327
84.64000 3.033
84.66000 3.217
84.68000 1.355
84.70000 0.167
84.72000 3.197
84.74000 5.692
84.76000 1.189
84.78000 -1.816
84.80000 -2.322
84.82000 1.980
84.84000 5.692
84.86000 5.401
84.88000 0.176
84.90000 -0.626
84.92000 2.028
84.94000 5.270
84.96000 0.524
84.98000 0.776
85.00000 2.953
85.02000 -0.814
85.04000 2.497
85.06000 1.611
85.08000 0.573
85.10000 -1.563
85.12000 -0.211
85.14000 -0.239
85.16000 2.105
85.18000 2.973
85.20000 0.923
85.22000 -0.218
85.24000 2.159
85.26000 3.463
85.28000 5.423
85.30000 6.083
85.32000 3.347
85.34000 2.221
85.36000 1.677
85.38000 -0.162
85.40000 -1.225
85.42000 -0.547
85.44000 1.004
85.46000 0.934
85.48000 1.963
85.50000 6.672
85.52000 1.152
85.54000 -1.155
85.56000 3.023
85.58000 5.405
85.60000 4.566
85.62000 -2.293
85.64000 -1.704
85.66000 1.674
85.68000 2.456
85.70000 1.751
85.72000 -1.487
85.74000 2.087
85.76000 2.508
85.78000 3.676
85.80000 2.952
85.82000 1.100
85.84000 4.115
85.86000 0.537
85.88000 2.638
85.90000 5.365
85.92000 3.779
85.94000 4.472
85.96000 5.464
85.98000 6.791
86.00000 5.161
86.02000 2.924
86.04000 5.863
86.06000 4.561
86.08000 1.902
86.10000 4.419
86.12000 6.370
86.14000 5.098
86.16000 6.695
86.18000 5.256
86.20000 4.971
86.22000 7.814
86.24000 7.102
86.26000 10.203
86.28000 9.091
86.30000 10.049
86.32000 12.121
86.34000 10.310
86.36000 5.098
86.38000 9.051
86.40000 9.995
86.42000 8.180
86.44000 12.640
86.46000 6.845
86.48000 11.155
86.50000 11.164
86.52000 11.475
86.54000 14.937
86.56000 17.374
86.58000 16.521
86.60000 14.412
86.62000 14.410
86.64000 17.298
86.66000 11.682
86.68000 17.101
86.70000 17.594
86.72000 21.949
86.74000 21.627
86.76000 21.222
86.78000 23.375
86.80000 25.408
86.82000 22.925
86.84000 26.774
86.86000 23.456
86.88000 24.009
86.90000 24.287
86.92000 25.506
86.94000 23.946
86.96000 25.158
86.98000 22.440
87.00000 21.015
87.02000 26.528
87.04000 26.395
87.06000 25.793
87.08000 21.945
87.10000 22.197
87.12000 24.332
87.14000 25.187
87.16000 24.294
87.18000 25.054
87.20000 27.351
87.22000 25.215
87.24000 25.942
87.26000 22.775
87.28000 22.561
87.30000 23.133
87.32000 19.895
87.34000 24.508
87.36000 23.071
87.38000 18.600
87.40000 21.519
87.42000 24.912
87.44000 23.212
87.46000 18.805
87.48000 17.198
87.50000 15.064
87.52000 14.874
87.54000 18.788
87.56000 18.988
87.58000 15.874
87.60000 18.376
87.62000 19.978
87.64000 13.405
87.66000 17.572
87.68000 14.984
87.70000 16.009
87.72000 14.786
87.74000 16.196
87.76000 11.765
87.78000 6.459
87.80000 4.043
87.82000 4.551
87.84000 5.613
87.86000 8.466
87.88000 10.519
87.90000 10.849
87.92000 8.481
87.94000 4.816
87.96000 6.637
87.98000 6.465
88.00000 4.832
88.02000 2.393
88.04000 -0.547
88.06000 3.517
88.08000 6.315
88.10000 10.566
88.12000 4.615
88.14000 5.288
88.16000 1.800
88.18000 2.335
88.20000 1.800
88.22000 5.055
88.24000 6.976
88.26000 4.494
88.28000 2.746
88.30000 1.904
88.32000 0.934
88.34000 -1.595
88.36000 -1.384
88.38000 3.294
88.40000 4.373
88.42000 3.788
88.44000 1.680
88.46000 0.095
88.48000 -0.504
88.50000 3.006
88.52000 2.723
88.54000 0.926
88.56000 2.140
88.58000 1.499
88.60000 0.679
88.62000 -2.206
88.64000 -0.975
88.66000 3.302
88.68000 4.497
88.70000 4.177
88.72000 2.912
88.74000 -1.829
88.76000 -0.721
88.78000 2.252
88.80000 2.273
88.82000 0.827
88.84000 -0.750
88.86000 -0.989
88.88000 2.957
88.90000 3.664
88.92000 0.231
88.94000 0.992
88.96000 1.967
88.98000 0.519
89.00000 -2.144
89.02000 -1.016
89.04000 0.131
89.06000 0.449
89.08000 2.231
89.10000 1.937
89.12000 2.739
89.14000 3.608
89.16000 4.997
89.18000 2.469
89.20000 6.187
89.22000 6.545
89.24000 4.064
89.26000 2.700
89.28000 0.641
89.30000 0.603
89.32000 0.819
89.34000 0.478
89.36000 -0.244
89.38000 1.164
89.40000 4.301
89.42000 1.169
89.44000 1.148
89.46000 5.152
89.48000 4.149
89.50000 1.099
89.52000 2.211
89.54000 3.775
89.56000 4.385
89.58000 -0.346
89.60000 2.764
89.62000 2.280
89.64000 2.698
89.66000 2.435
89.68000 -0.446
89.70000 0.888
89.72000 1.423
89.74000 3.937
89.76000 4.330
89.78000 2.805
89.80000 4.581
89.82000 5.113
89.84000 -2.010
89.86000 3.783
89.88000 9.281
89.90000 5.875
89.92000 4.517
89.94000 3.593
89.96000 5.646
89.98000 6.006
90.00000 4.937
90.02000 5.790
90.04000 6.812
90.06000 7.723
90.08000 6.070
90.10000 6.025
90.12000 6.457
90.14000 6.404
90.16000 3.262
90.18000 5.582
90.20000 3.309
90.22000 5.868
90.24000 8.172
90.26000 8.353
90.28000 6.736
90.30000 11.624
90.32000 6.997
90.34000 6.629
90.36000 3.285
90.38000 5.588
90.40000 6.132
90.42000 4.328
90.44000 9.329
90.46000 6.826
90.48000 3.887
90.50000 4.124
90.52000 5.807
90.54000 4.146
90.56000 2.870
90.58000 3.533
90.60000 3.371
90.62000 3.234
90.64000 1.186
90.66000 -0.504
90.68000 2.245
90.70000 4.499
90.72000 1.397
90.74000 -0.252
90.76000 2.920
90.78000 3.832
90.80000 2.899
90.82000 4.371
90.84000 1.923
90.86000 3.208
90.88000 2.172
90.90000 1.330
90.92000 1.901
90.94000 0.130
90.96000 -2.045
90.98000 3.379
91.00000 6.499
91.02000 4.296
91.04000 3.923
91.06000 2.557
91.08000 6.161
91.10000 5.542
91.12000 2.397
91.14000 2.545
91.16000 3.199
91.18000 2.242
91.20000 1.622
91.22000 1.008
91.24000 2.770
91.26000 4.604
91.28000 4.103
91.30000 6.668
91.32000 4.539
91.34000 1.990
91.36000 2.576
91.38000 5.528
91.40000 6.401
91.42000 6.809
91.44000 3.031
91.46000 4.108
91.48000 3.824
91.50000 -0.504
91.52000 0.888
91.54000 1.916
91.56000 5.396
91.58000 0.849
91.60000 2.672
91.62000 4.792
91.64000 5.336
91.66000 6.870
91.68000 0.953
91.70000 -0.620
91.72000 -2.063
91.74000 0.710
91.76000 6.353
91.78000 1.584
91.80000 0.393
91.82000 -0.672
91.84000 1.959
91.86000 1.299
91.88000 3.507
91.90000 5.543
91.92000 2.090
91.94000 0.881
91.96000 3.301
91.98000 -1.430
92.00000 3.148
92.02000 5.244
92.04000 3.752
92.06000 0.883
92.08000 3.479
92.10000 1.748
92.12000 5.518
92.14000 5.819
92.16000 5.785
92.18000 4.589
92.20000 6.055
92.22000 3.664
92.24000 4.946
92.26000 0.657
92.28000 -0.187
92.30000 1.352
92.32000 3.515
92.34000 1.621
92.36000 3.358
92.38000 4.724
92.40000 8.400
92.42000 5.137
92.44000 -2.086
92.46000 -0.287
92.48000 0.798
92.50000 4.957
92.52000 3.626
92.54000 4.164
92.56000 4.901
92.58000 2.485
92.60000 2.362
92.62000 2.510
92.64000 5.248
92.66000 6.603
92.68000 1.585
92.70000 2.860
92.72000 2.256
92.74000 -0.463
92.76000 -0.820
92.78000 1.241
92.80000 3.184
92.82000 2.165
92.84000 1.541
92.86000 1.662
92.88000 1.749
92.90000 -0.332
92.92000 -0.464
92.94000 -1.263
92.96000 -1.341
92.98000 0.400
93.00000 -0.319
93.02000 -0.049
93.04000 -0.589
93.06000 -0.911
93.08000 -0.820
93.10000 0.413
93.12000 -1.181
93.14000 -1.151
93.16000 4.662
93.18000 7.922
93.20000 4.253
93.22000 1.998
93.24000 1.624
93.26000 6.481
93.28000 5.116
93.30000 5.184
93.32000 7.075
93.34000 2.284
93.36000 -1.749
93.38000 2.417
93.40000 5.554
93.42000 3.303
93.44000 2.900
93.46000 2.352
93.48000 1.427
93.50000 3.086
93.52000 1.757
93.54000 0.450
93.56000 5.194
93.58000 4.264
93.60000 5.336
93.62000 0.547
93.64000 3.663
93.66000 2.323
93.68000 0.017
93.70000 1.395
93.72000 -2.080
93.74000 2.633
93.76000 2.206
93.78000 4.111
93.80000 2.924
93.82000 1.319
93.84000 1.252
93.86000 3.925
93.88000 5.841
93.90000 4.940
93.92000 2.764
93.94000 4.414
93.96000 3.470
93.98000 1.242
94.00000 0.350
94.02000 4.403
94.04000 5.150
94.06000 0.348
94.08000 -1.956
94.10000 4.104
94.12000 4.387
94.14000 6.749
94.16000 2.589
94.18000 3.177
94.20000 5.438
94.22000 -0.300
94.24000 2.660
94.26000 1.227
94.28000 3.815
94.30000 1.872
94.32000 6.803
94.34000 7.575
94.36000 7.049
94.38000 5.247
94.40000 0.679
94.42000 0.095
94.44000 0.776
94.46000 2.610
94.48000 4.121
94.50000 5.353
94.52000 2.644
94.54000 4.316
94.56000 1.573
94.58000 -0.107
94.60000 -1.701
94.62000 -2.110
94.64000 3.267
94.66000 3.668
94.68000 5.266
94.70000 0.883
94.72000 0.358
94.74000 0.274
94.76000 4.880
94.78000 10.370
94.80000 7.533
94.82000 0.838
94.84000 0.069
94.86000 1.072
94.88000 3.595
94.90000 4.040
94.92000 5.509
94.94000 4.102
94.96000 2.523
94.98000 1.124
95.00000 3.813
95.02000 -0.589
95.04000 -0.099
95.06000 -1.082
95.08000 -1.089
95.10000 0.156
95.12000 0.931
95.14000 6.452
95.16000 5.307
95.18000 1.943
95.20000 3.170
95.22000 6.341
95.24000 2.935
95.26000 0.686
95.28000 -1.301
95.30000 -0.967
95.32000 1.716
95.34000 1.162
95.36000 0.493
95.38000 1.503
95.40000 0.351
95.42000 2.362
95.44000 -0.539
95.46000 0.337
95.48000 2.046
95.50000 5.076
95.52000 4.168
95.54000 2.544
95.56000 4.034
95.58000 4.154
95.60000 0.574
95.62000 4.006
95.64000 4.473
95.66000 0.195
95.68000 -0.697
95.70000 -1.148
95.72000 4.338
95.74000 1.077
95.76000 4.035
95.78000 2.321
95.80000 2.689
95.82000 -2.116
95.84000 -0.092
95.86000 -1.931
95.88000 -1.721
95.90000 -1.730
95.92000 1.514
95.94000 1.529
95.96000 -0.752
95.98000 0.684
96.00000 7.444
96.02000 5.431
96.04000 3.373
96.06000 -1.124
96.08000 1.781
96.10000 0.577
96.12000 0.935
96.14000 -0.473
96.16000 3.730
96.18000 0.539
96.20000 -0.080
96.22000 -1.844
96.24000 4.513
96.26000 6.221
96.28000 6.153
96.30000 3.002
96.32000 -0.503
96.34000 6.612
96.36000 5.494
96.38000 4.437
96.40000 0.313
96.42000 1.226
96.44000 7.802
96.46000 6.124
96.48000 7.690
96.50000 -0.338
96.52000 -2.094
96.54000 0.710
96.56000 3.095
96.58000 1.860
96.60000 10.952
96.62000 10.830
96.64000 7.517
96.66000 2.251
96.68000 3.789
96.70000 4.526
96.72000 1.633
96.74000 0.156
96.76000 2.608
96.78000 0.563
96.80000 -0.541
96.82000 -0.076
96.84000 -0.197
96.86000 7.779
96.88000 4.714
96.90000 -1.050
96.92000 5.569
96.94000 7.168
96.96000 1.408
96.98000 0.986
97.00000 0.493
97.02000 6.804
97.04000 12.165
97.06000 9.451
97.08000 7.549
97.10000 3.458
97.12000 2.839
97.14000 4.831
97.16000 2.343
97.18000 4.311
97.20000 6.152
97.22000 0.097
97.24000 3.825
97.26000 7.842
97.28000 2.134
97.30000 1.391
97.32000 4.510
97.34000 3.425
97.36000 3.398
97.38000 5.897
97.40000 9.647
97.42000 13.501
97.44000 10.654
97.46000 0.695
97.48000 1.761
97.50000 3.132
97.52000 2.524
97.54000 7.159
97.56000 5.039
97.58000 6.726
97.60000 5.760
97.62000 0.222
97.64000 -2.024
97.66000 8.670
97.68000 5.131
97.70000 4.536
97.72000 1.434
97.74000 2.789
97.76000 0.246
97.78000 0.902
97.80000 7.788
97.82000 7.786
97.84000 9.253
97.86000 6.162
97.88000 6.561
97.90000 4.288
97.92000 0.249
97.94000 -0.430
97.96000 2.912
97.98000 0.101
98.00000 7.178
98.02000 5.897
98.04000 10.006
98.06000 5.188
98.08000 2.315
98.10000 -0.054
98.12000 1.849
98.14000 1.463
98.16000 -1.499
98.18000 1.809
98.20000 5.097
98.22000 1.962
98.24000 6.187
98.26000 5.164
98.28000 2.145
98.30000 3.469
98.32000 7.306
98.34000 4.654
98.36000 4.083
98.38000 -0.433
98.40000 -1.342
98.42000 9.930
98.44000 10.905
98.46000 8.253
98.48000 3.370
98.50000 7.837
98.52000 5.370
98.54000 -0.877
98.56000 6.420
98.58000 4.529
98.60000 4.175
98.62000 0.465
98.64000 5.175
98.66000 5.973
98.68000 3.862
98.70000 1.413
98.72000 6.513
98.74000 2.390
98.76000 2.791
98.78000 3.235
98.80000 5.379
98.82000 2.243
98.84000 4.552
98.86000 6.652
98.88000 5.594
98.90000 13.753
98.92000 6.903
98.94000 3.218
98.96000 7.811
98.98000 4.995
99.00000 0.034
99.02000 4.969
99.04000 5.639
99.06000 2.395
99.08000 6.297
99.10000 2.184
99.12000 1.865
99.14000 -1.985
99.16000 1.743
99.18000 6.235
99.20000 11.765
99.22000 8.534
99.24000 10.172
99.26000 12.481
99.28000 3.086
99.30000 7.951
99.32000 7.709
99.34000 2.579
99.36000 6.375
99.38000 1.703
99.40000 7.411
99.42000 15.787
99.44000 15.664
99.46000 6.478
99.48000 9.820
99.50000 7.091
99.52000 6.409
99.54000 7.928
99.56000 8.721
99.58000 7.524
99.60000 10.320
99.62000 11.950
99.64000 4.105
99.66000 3.656
99.68000 -1.943
99.70000 4.588
99.72000 2.377
99.74000 6.617
99.76000 10.933
99.78000 7.969
99.80000 0.481
99.82000 1.073
99.84000 0.012
99.86000 -2.099
99.88000 1.588
99.90000 10.633
99.92000 3.047
99.94000 -0.455
99.96000 1.375
99.98000 0.000
