'Id: "0011388" Comment: "Integrate frame 0011388_Au-Ir-Rh_Rh-rich_XRD-Mapping-188-0000.gfrmwith cursor Wedge Cursor #5" Operator: "B?rgel" Anode: "Cu" Wavelength: "1.5406" Scantype: "2Theta (TwoTheta)" TimePerStep: "1" X: "0" Y: "4.5" Z: "5.95" 
10.00000 0.000
10.02000 -4.310
10.04000 -4.173
10.06000 0.597
10.08000 10.922
10.10000 28.899
10.12000 30.366
10.14000 5.794
10.16000 4.280
10.18000 -4.094
10.20000 3.368
10.22000 3.447
10.24000 8.743
10.26000 7.552
10.28000 11.916
10.30000 8.238
10.32000 19.094
10.34000 12.027
10.36000 21.664
10.38000 6.935
10.40000 1.822
10.42000 1.436
10.44000 9.192
10.46000 19.228
10.48000 17.212
10.50000 5.437
10.52000 6.598
10.54000 5.808
10.56000 10.610
10.58000 15.937
10.60000 18.239
10.62000 23.657
10.64000 20.291
10.66000 15.139
10.68000 15.018
10.70000 14.899
10.72000 14.963
10.74000 25.223
10.76000 12.743
10.78000 16.137
10.80000 6.462
10.82000 20.380
10.84000 17.479
10.86000 10.753
10.88000 15.919
10.90000 20.054
10.92000 19.375
10.94000 18.522
10.96000 13.609
10.98000 4.331
11.00000 2.993
11.02000 9.450
11.04000 10.692
11.06000 16.978
11.08000 16.735
11.10000 21.243
11.12000 18.931
11.14000 5.303
11.16000 9.196
11.18000 6.063
11.20000 19.005
11.22000 19.826
11.24000 10.882
11.26000 14.272
11.28000 14.355
11.30000 21.450
11.32000 14.580
11.34000 3.982
11.36000 6.480
11.38000 21.814
11.40000 11.901
11.42000 5.588
11.44000 -1.642
11.46000 -4.266
11.48000 -1.921
11.50000 4.274
11.52000 14.352
11.54000 19.454
11.56000 29.337
11.58000 23.557
11.60000 14.115
11.62000 23.339
11.64000 24.628
11.66000 11.476
11.68000 12.015
11.70000 7.929
11.72000 -0.049
11.74000 4.928
11.76000 17.693
11.78000 20.620
11.80000 7.984
11.82000 10.582
11.84000 12.270
11.86000 10.779
11.88000 20.144
11.90000 23.400
11.92000 22.179
11.94000 15.175
11.96000 13.399
11.98000 6.890
12.00000 9.346
12.02000 12.744
12.04000 13.396
12.06000 12.469
12.08000 15.100
12.10000 14.932
12.12000 10.902
12.14000 10.455
12.16000 16.246
12.18000 11.912
12.20000 11.448
12.22000 6.292
12.24000 12.673
12.26000 15.770
12.28000 18.933
12.30000 18.820
12.32000 13.554
12.34000 12.821
12.36000 5.717
12.38000 8.185
12.40000 13.186
12.42000 24.132
12.44000 23.736
12.46000 19.076
12.48000 17.240
12.50000 4.863
12.52000 14.764
12.54000 19.351
12.56000 10.450
12.58000 9.353
12.60000 22.340
12.62000 15.841
12.64000 9.020
12.66000 8.435
12.68000 18.171
12.70000 21.909
12.72000 14.861
12.74000 7.496
12.76000 8.440
12.78000 12.357
12.80000 18.137
12.82000 14.552
12.84000 14.310
12.86000 18.429
12.88000 24.049
12.90000 8.986
12.92000 14.592
12.94000 15.481
12.96000 11.791
12.98000 18.590
13.00000 16.247
13.02000 7.159
13.04000 13.579
13.06000 5.208
13.08000 -2.506
13.10000 0.818
13.12000 12.345
13.14000 14.127
13.16000 10.545
13.18000 19.772
13.20000 15.952
13.22000 13.469
13.24000 14.926
13.26000 10.636
13.28000 15.321
13.30000 3.213
13.32000 5.888
13.34000 7.966
13.36000 11.412
13.38000 13.615
13.40000 13.120
13.42000 1.762
13.44000 11.727
13.46000 8.069
13.48000 6.171
13.50000 15.953
13.52000 8.321
13.54000 7.608
13.56000 13.811
13.58000 14.563
13.60000 5.854
13.62000 7.400
13.64000 3.508
13.66000 4.694
13.68000 7.755
13.70000 8.609
13.72000 13.267
13.74000 7.052
13.76000 4.664
13.78000 12.167
13.80000 13.150
13.82000 7.129
13.84000 5.292
13.86000 11.587
13.88000 15.233
13.90000 4.777
13.92000 10.424
13.94000 8.520
13.96000 12.453
13.98000 22.693
14.00000 23.127
14.02000 18.892
14.04000 11.951
14.06000 7.056
14.08000 14.967
14.10000 17.686
14.12000 11.116
14.14000 6.558
14.16000 -0.532
14.18000 10.264
14.20000 18.078
14.22000 9.741
14.24000 1.228
14.26000 9.841
14.28000 14.126
14.30000 14.860
14.32000 12.146
14.34000 11.301
14.36000 6.248
14.38000 -2.142
14.40000 -1.205
14.42000 2.194
14.44000 1.858
14.46000 3.472
14.48000 5.749
14.50000 12.764
14.52000 10.527
14.54000 3.065
14.56000 6.297
14.58000 4.748
14.60000 9.561
14.62000 3.469
14.64000 2.616
14.66000 0.290
14.68000 1.265
14.70000 11.176
14.72000 11.299
14.74000 8.798
14.76000 7.736
14.78000 9.475
14.80000 9.351
14.82000 7.069
14.84000 -0.918
14.86000 7.308
14.88000 12.935
14.90000 13.363
14.92000 15.174
14.94000 13.911
14.96000 7.672
14.98000 0.978
15.00000 8.797
15.02000 11.102
15.04000 3.621
15.06000 12.928
15.08000 7.536
15.10000 6.626
15.12000 15.927
15.14000 7.571
15.16000 3.236
15.18000 6.508
15.20000 5.447
15.22000 5.226
15.24000 -4.442
15.26000 1.605
15.28000 8.830
15.30000 11.399
15.32000 12.370
15.34000 10.013
15.36000 9.029
15.38000 4.776
15.40000 -0.878
15.42000 4.140
15.44000 -0.663
15.46000 -2.037
15.48000 -1.428
15.50000 6.718
15.52000 16.021
15.54000 4.108
15.56000 3.068
15.58000 4.716
15.60000 14.082
15.62000 9.749
15.64000 8.241
15.66000 12.148
15.68000 13.372
15.70000 8.158
15.72000 0.934
15.74000 -0.422
15.76000 0.011
15.78000 3.124
15.80000 14.701
15.82000 7.526
15.84000 -0.067
15.86000 8.359
15.88000 15.177
15.90000 10.796
15.92000 6.574
15.94000 6.015
15.96000 2.942
15.98000 4.488
16.00000 -1.348
16.02000 0.689
16.04000 6.156
16.06000 4.557
16.08000 1.222
16.10000 -1.081
16.12000 5.426
16.14000 -1.696
16.16000 4.718
16.18000 0.306
16.20000 1.849
16.22000 -3.608
16.24000 7.578
16.26000 2.697
16.28000 4.356
16.30000 2.505
16.32000 9.475
16.34000 5.337
16.36000 1.643
16.38000 2.726
16.40000 1.583
16.42000 5.276
16.44000 6.047
16.46000 5.804
16.48000 11.754
16.50000 12.137
16.52000 9.064
16.54000 7.930
16.56000 5.911
16.58000 7.453
16.60000 4.518
16.62000 -0.620
16.64000 -4.421
16.66000 5.661
16.68000 16.261
16.70000 12.231
16.72000 13.212
16.74000 11.309
16.76000 8.169
16.78000 1.771
16.80000 3.305
16.82000 9.393
16.84000 8.316
16.86000 4.398
16.88000 3.902
16.90000 -3.212
16.92000 0.122
16.94000 6.506
16.96000 4.671
16.98000 3.416
17.00000 3.523
17.02000 6.257
17.04000 2.571
17.06000 1.775
17.08000 5.603
17.10000 -0.414
17.12000 -4.374
17.14000 7.193
17.16000 11.316
17.18000 5.281
17.20000 1.444
17.22000 5.197
17.24000 3.485
17.26000 1.543
17.28000 3.900
17.30000 1.556
17.32000 -0.328
17.34000 4.066
17.36000 2.940
17.38000 7.869
17.40000 7.799
17.42000 4.198
17.44000 5.090
17.46000 7.294
17.48000 10.830
17.50000 5.697
17.52000 9.732
17.54000 10.612
17.56000 -1.411
17.58000 0.899
17.60000 1.097
17.62000 3.868
17.64000 7.760
17.66000 11.898
17.68000 7.956
17.70000 3.145
17.72000 -1.395
17.74000 1.904
17.76000 0.804
17.78000 10.045
17.80000 11.501
17.82000 4.977
17.84000 1.489
17.86000 4.482
17.88000 6.968
17.90000 10.539
17.92000 10.159
17.94000 12.356
17.96000 13.855
17.98000 6.597
18.00000 5.797
18.02000 1.640
18.04000 -4.335
18.06000 0.453
18.08000 8.242
18.10000 6.075
18.12000 5.585
18.14000 2.498
18.16000 8.313
18.18000 2.114
18.20000 -4.329
18.22000 -2.682
18.24000 2.189
18.26000 3.666
18.28000 -0.671
18.30000 3.837
18.32000 3.326
18.34000 13.165
18.36000 14.141
18.38000 -1.909
18.40000 -0.758
18.42000 2.728
18.44000 0.015
18.46000 4.616
18.48000 9.426
18.50000 3.252
18.52000 6.237
18.54000 9.685
18.56000 8.614
18.58000 12.128
18.60000 5.626
18.62000 2.585
18.64000 4.873
18.66000 6.742
18.68000 5.932
18.70000 3.783
18.72000 4.632
18.74000 12.196
18.76000 6.325
18.78000 2.776
18.80000 6.549
18.82000 5.850
18.84000 3.631
18.86000 0.537
18.88000 5.943
18.90000 14.889
18.92000 8.780
18.94000 3.706
18.96000 0.910
18.98000 0.479
19.00000 1.329
19.02000 4.183
19.04000 6.309
19.06000 7.835
19.08000 10.046
19.10000 5.761
19.12000 9.933
19.14000 6.980
19.16000 -0.632
19.18000 2.969
19.20000 5.471
19.22000 0.920
19.24000 4.919
19.26000 6.026
19.28000 9.583
19.30000 11.891
19.32000 5.900
19.34000 2.810
19.36000 -4.263
19.38000 -2.625
19.40000 2.929
19.42000 2.717
19.44000 2.416
19.46000 0.691
19.48000 -1.451
19.50000 3.178
19.52000 2.912
19.54000 -0.854
19.56000 -3.322
19.58000 -2.760
19.60000 3.032
19.62000 0.015
19.64000 1.549
19.66000 5.111
19.68000 6.932
19.70000 15.135
19.72000 13.843
19.74000 7.769
19.76000 0.415
19.78000 0.537
19.80000 -1.456
19.82000 7.710
19.84000 5.698
19.86000 4.788
19.88000 4.825
19.90000 -2.968
19.92000 -3.052
19.94000 -0.388
19.96000 2.543
19.98000 -0.221
20.00000 4.507
20.02000 11.090
20.04000 11.827
20.06000 8.594
20.08000 0.835
20.10000 6.041
20.12000 2.504
20.14000 3.258
20.16000 4.595
20.18000 2.674
20.20000 3.836
20.22000 6.759
20.24000 8.693
20.26000 5.072
20.28000 3.199
20.30000 2.611
20.32000 4.458
20.34000 1.541
20.36000 1.832
20.38000 0.253
20.40000 -2.060
20.42000 0.216
20.44000 9.090
20.46000 11.022
20.48000 8.285
20.50000 3.388
20.52000 0.315
20.54000 1.186
20.56000 -4.092
20.58000 -4.167
20.60000 3.251
20.62000 4.919
20.64000 1.353
20.66000 6.495
20.68000 4.345
20.70000 3.952
20.72000 6.080
20.74000 3.294
20.76000 1.259
20.78000 6.926
20.80000 6.158
20.82000 -0.759
20.84000 -1.411
20.86000 7.523
20.88000 6.090
20.90000 -2.943
20.92000 -1.900
20.94000 3.240
20.96000 1.861
20.98000 -4.203
21.00000 -1.269
21.02000 1.043
21.04000 -3.384
21.06000 -2.922
21.08000 0.575
21.10000 1.754
21.12000 -1.385
21.14000 -0.110
21.16000 1.772
21.18000 -2.576
21.20000 4.596
21.22000 7.030
21.24000 0.650
21.26000 1.923
21.28000 6.285
21.30000 8.116
21.32000 7.483
21.34000 8.758
21.36000 13.530
21.38000 7.008
21.40000 -1.015
21.42000 -0.391
21.44000 7.251
21.46000 0.917
21.48000 -0.047
21.50000 -2.978
21.52000 0.435
21.54000 0.714
21.56000 7.656
21.58000 7.478
21.60000 6.286
21.62000 5.178
21.64000 1.192
21.66000 2.090
21.68000 2.371
21.70000 5.287
21.72000 6.192
21.74000 3.897
21.76000 4.986
21.78000 4.071
21.80000 1.118
21.82000 -3.319
21.84000 -0.302
21.86000 2.615
21.88000 -1.767
21.90000 -3.224
21.92000 -1.074
21.94000 1.989
21.96000 3.112
21.98000 5.105
22.00000 2.017
22.02000 -3.697
22.04000 1.907
22.06000 4.763
22.08000 4.138
22.10000 -3.739
22.12000 0.705
22.14000 0.800
22.16000 2.227
22.18000 -0.694
22.20000 -0.587
22.22000 -1.556
22.24000 2.781
22.26000 -0.632
22.28000 0.039
22.30000 2.872
22.32000 3.480
22.34000 1.079
22.36000 3.507
22.38000 3.881
22.40000 3.912
22.42000 0.192
22.44000 4.526
22.46000 7.892
22.48000 5.581
22.50000 3.257
22.52000 2.507
22.54000 5.345
22.56000 4.216
22.58000 -0.292
22.60000 2.052
22.62000 5.682
22.64000 9.900
22.66000 5.282
22.68000 7.944
22.70000 10.736
22.72000 13.607
22.74000 4.309
22.76000 4.517
22.78000 6.491
22.80000 5.773
22.82000 1.783
22.84000 2.041
22.86000 2.241
22.88000 7.567
22.90000 14.216
22.92000 8.363
22.94000 3.234
22.96000 9.702
22.98000 14.332
23.00000 12.571
23.02000 7.723
23.04000 2.587
23.06000 6.300
23.08000 8.613
23.10000 9.889
23.12000 3.105
23.14000 1.219
23.16000 8.761
23.18000 9.170
23.20000 2.625
23.22000 -3.202
23.24000 -0.420
23.26000 2.287
23.28000 4.932
23.30000 6.754
23.32000 6.960
23.34000 4.430
23.36000 6.226
23.38000 6.161
23.40000 9.819
23.42000 8.949
23.44000 6.346
23.46000 8.921
23.48000 10.830
23.50000 11.561
23.52000 7.704
23.54000 2.086
23.56000 2.292
23.58000 -3.965
23.60000 4.591
23.62000 5.601
23.64000 7.324
23.66000 8.313
23.68000 5.566
23.70000 10.312
23.72000 11.306
23.74000 5.801
23.76000 7.543
23.78000 9.727
23.80000 6.357
23.82000 7.862
23.84000 7.122
23.86000 12.560
23.88000 11.910
23.90000 8.058
23.92000 9.420
23.94000 8.454
23.96000 2.437
23.98000 4.797
24.00000 9.076
24.02000 8.073
24.04000 4.549
24.06000 4.945
24.08000 10.960
24.10000 10.999
24.12000 5.707
24.14000 10.117
24.16000 8.035
24.18000 8.213
24.20000 9.693
24.22000 8.428
24.24000 9.080
24.26000 15.901
24.28000 13.081
24.30000 8.628
24.32000 7.933
24.34000 9.216
24.36000 2.824
24.38000 -0.465
24.40000 2.765
24.42000 4.934
24.44000 3.727
24.46000 6.731
24.48000 14.370
24.50000 9.418
24.52000 1.958
24.54000 6.237
24.56000 8.025
24.58000 6.115
24.60000 8.886
24.62000 5.015
24.64000 3.357
24.66000 8.780
24.68000 10.598
24.70000 7.438
24.72000 3.055
24.74000 4.992
24.76000 9.314
24.78000 8.495
24.80000 4.664
24.82000 1.654
24.84000 6.601
24.86000 8.111
24.88000 11.765
24.90000 15.727
24.92000 6.997
24.94000 1.450
24.96000 -1.697
24.98000 -0.645
25.00000 -1.961
25.02000 3.155
25.04000 7.552
25.06000 9.913
25.08000 5.855
25.10000 4.595
25.12000 7.907
25.14000 6.333
25.16000 11.915
25.18000 11.444
25.20000 7.559
25.22000 3.723
25.24000 2.609
25.26000 3.299
25.28000 0.715
25.30000 4.667
25.32000 4.822
25.34000 7.809
25.36000 9.852
25.38000 7.399
25.40000 4.533
25.42000 8.006
25.44000 12.410
25.46000 6.714
25.48000 11.291
25.50000 13.668
25.52000 8.668
25.54000 5.915
25.56000 8.173
25.58000 8.864
25.60000 4.470
25.62000 1.463
25.64000 10.065
25.66000 4.859
25.68000 8.762
25.70000 5.710
25.72000 -3.883
25.74000 1.821
25.76000 5.384
25.78000 2.911
25.80000 1.835
25.82000 4.075
25.84000 6.007
25.86000 8.908
25.88000 13.193
25.90000 8.442
25.92000 3.428
25.94000 4.590
25.96000 8.335
25.98000 6.489
26.00000 -0.181
26.02000 -2.911
26.04000 1.677
26.06000 2.696
26.08000 2.580
26.10000 5.859
26.12000 9.701
26.14000 6.633
26.16000 6.247
26.18000 9.745
26.20000 5.625
26.22000 2.566
26.24000 7.264
26.26000 10.457
26.28000 5.609
26.30000 5.412
26.32000 1.520
26.34000 -0.070
26.36000 4.866
26.38000 9.875
26.40000 5.626
26.42000 4.337
26.44000 0.507
26.46000 2.017
26.48000 6.845
26.50000 8.422
26.52000 3.371
26.54000 5.579
26.56000 2.906
26.58000 11.049
26.60000 10.693
26.62000 4.527
26.64000 4.599
26.66000 2.904
26.68000 3.555
26.70000 6.462
26.72000 4.688
26.74000 4.842
26.76000 2.225
26.78000 4.000
26.80000 8.639
26.82000 4.164
26.84000 1.184
26.86000 4.616
26.88000 10.564
26.90000 11.180
26.92000 13.637
26.94000 8.631
26.96000 4.374
26.98000 -0.166
27.00000 2.370
27.02000 7.035
27.04000 10.870
27.06000 7.638
27.08000 1.902
27.10000 2.205
27.12000 7.541
27.14000 5.631
27.16000 5.646
27.18000 6.107
27.20000 9.830
27.22000 9.823
27.24000 11.268
27.26000 7.517
27.28000 10.507
27.30000 5.272
27.32000 0.650
27.34000 -0.599
27.36000 -3.805
27.38000 -1.639
27.40000 4.791
27.42000 1.730
27.44000 2.384
27.46000 3.600
27.48000 2.763
27.50000 1.403
27.52000 3.214
27.54000 3.664
27.56000 1.639
27.58000 -3.789
27.60000 4.369
27.62000 11.337
27.64000 7.030
27.66000 9.522
27.68000 9.110
27.70000 6.033
27.72000 6.699
27.74000 7.560
27.76000 5.735
27.78000 -1.172
27.80000 -1.030
27.82000 2.158
27.84000 -0.009
27.86000 1.860
27.88000 4.703
27.90000 4.766
27.92000 1.362
27.94000 1.870
27.96000 1.910
27.98000 6.945
28.00000 5.972
28.02000 5.104
28.04000 4.081
28.06000 9.430
28.08000 7.131
28.10000 1.682
28.12000 4.431
28.14000 12.566
28.16000 5.836
28.18000 0.260
28.20000 1.884
28.22000 1.409
28.24000 6.952
28.26000 8.601
28.28000 6.881
28.30000 0.787
28.32000 5.359
28.34000 2.737
28.36000 3.193
28.38000 3.512
28.40000 6.431
28.42000 5.363
28.44000 3.644
28.46000 4.428
28.48000 5.161
28.50000 1.512
28.52000 0.882
28.54000 1.199
28.56000 4.967
28.58000 9.128
28.60000 3.777
28.62000 1.670
28.64000 8.603
28.66000 1.443
28.68000 2.415
28.70000 6.175
28.72000 1.204
28.74000 3.918
28.76000 0.743
28.78000 -3.750
28.80000 1.673
28.82000 9.943
28.84000 3.904
28.86000 3.427
28.88000 1.913
28.90000 -1.512
28.92000 0.919
28.94000 7.652
28.96000 4.127
28.98000 3.335
29.00000 -0.067
29.02000 1.501
29.04000 5.227
29.06000 1.843
29.08000 -1.744
29.10000 2.266
29.12000 5.929
29.14000 -0.951
29.16000 0.731
29.18000 2.342
29.20000 7.908
29.22000 8.290
29.24000 8.927
29.26000 7.236
29.28000 8.933
29.30000 5.697
29.32000 5.140
29.34000 3.684
29.36000 5.315
29.38000 1.600
29.40000 5.447
29.42000 3.422
29.44000 7.085
29.46000 5.714
29.48000 2.676
29.50000 0.805
29.52000 0.626
29.54000 5.287
29.56000 7.675
29.58000 7.083
29.60000 2.929
29.62000 4.768
29.64000 2.462
29.66000 2.654
29.68000 2.037
29.70000 2.588
29.72000 4.251
29.74000 2.928
29.76000 6.145
29.78000 3.421
29.80000 -3.677
29.82000 3.319
29.84000 0.870
29.86000 3.678
29.88000 5.914
29.90000 8.637
29.92000 9.903
29.94000 6.805
29.96000 4.350
29.98000 4.235
30.00000 5.588
30.02000 7.219
30.04000 7.037
30.06000 6.007
30.08000 3.842
30.10000 6.990
30.12000 7.104
30.14000 9.421
30.16000 6.363
30.18000 5.929
30.20000 4.345
30.22000 3.362
30.24000 2.788
30.26000 0.715
30.28000 -1.004
30.30000 8.226
30.32000 8.396
30.34000 8.349
30.36000 7.732
30.38000 8.967
30.40000 10.535
30.42000 6.103
30.44000 2.679
30.46000 7.097
30.48000 7.073
30.50000 5.344
30.52000 5.378
30.54000 4.402
30.56000 -3.644
30.58000 0.283
30.60000 7.359
30.62000 5.963
30.64000 7.734
30.66000 2.088
30.68000 7.966
30.70000 7.368
30.72000 6.673
30.74000 5.196
30.76000 3.572
30.78000 5.337
30.80000 2.965
30.82000 7.897
30.84000 4.333
30.86000 5.681
30.88000 4.022
30.90000 -3.642
30.92000 -0.233
30.94000 0.901
30.96000 5.645
30.98000 10.161
31.00000 6.024
31.02000 3.928
31.04000 0.472
31.06000 -0.325
31.08000 8.610
31.10000 6.689
31.12000 0.190
31.14000 2.665
31.16000 3.168
31.18000 2.019
31.20000 6.031
31.22000 3.841
31.24000 2.520
31.26000 -3.430
31.28000 -3.643
31.30000 -0.858
31.32000 1.791
31.34000 2.268
31.36000 -1.098
31.38000 -0.840
31.40000 0.380
31.42000 8.696
31.44000 5.739
31.46000 3.909
31.48000 3.649
31.50000 0.791
31.52000 1.992
31.54000 1.607
31.56000 -2.594
31.58000 -2.179
31.60000 6.110
31.62000 3.325
31.64000 1.891
31.66000 8.117
31.68000 9.616
31.70000 2.804
31.72000 -0.328
31.74000 4.874
31.76000 3.593
31.78000 1.165
31.80000 1.242
31.82000 3.231
31.84000 2.315
31.86000 5.478
31.88000 5.422
31.90000 2.934
31.92000 4.162
31.94000 6.897
31.96000 1.280
31.98000 -3.629
32.00000 -3.222
32.02000 2.752
32.04000 3.067
32.06000 0.275
32.08000 4.741
32.10000 2.313
32.12000 1.817
32.14000 5.016
32.16000 1.242
32.18000 2.211
32.20000 2.472
32.22000 -1.822
32.24000 2.027
32.26000 5.111
32.28000 4.577
32.30000 2.479
32.32000 3.905
32.34000 -2.288
32.36000 -3.617
32.38000 -2.709
32.40000 0.154
32.42000 -0.987
32.44000 -2.936
32.46000 1.328
32.48000 0.115
32.50000 3.331
32.52000 4.688
32.54000 -1.692
32.56000 -2.127
32.58000 3.073
32.60000 7.392
32.62000 5.216
32.64000 0.137
32.66000 0.722
32.68000 9.694
32.70000 9.396
32.72000 3.028
32.74000 1.578
32.76000 -0.701
32.78000 2.476
32.80000 4.621
32.82000 5.093
32.84000 4.918
32.86000 3.121
32.88000 2.674
32.90000 2.706
32.92000 1.410
32.94000 2.405
32.96000 3.715
32.98000 5.829
33.00000 2.690
33.02000 -3.595
33.04000 -0.990
33.06000 0.755
33.08000 1.508
33.10000 4.431
33.12000 1.668
33.14000 1.676
33.16000 0.418
33.18000 2.649
33.20000 -0.630
33.22000 -2.010
33.24000 4.788
33.26000 5.454
33.28000 2.502
33.30000 2.329
33.32000 4.218
33.34000 5.027
33.36000 5.840
33.38000 -3.588
33.40000 -1.518
33.42000 2.400
33.44000 1.141
33.46000 2.514
33.48000 1.553
33.50000 -0.796
33.52000 0.041
33.54000 -1.719
33.56000 6.495
33.58000 6.377
33.60000 -0.915
33.62000 3.119
33.64000 6.304
33.66000 6.541
33.68000 -0.128
33.70000 -0.983
33.72000 0.631
33.74000 5.401
33.76000 3.809
33.78000 4.131
33.80000 1.875
33.82000 -0.694
33.84000 2.059
33.86000 0.764
33.88000 0.173
33.90000 5.896
33.92000 7.117
33.94000 0.006
33.96000 -1.964
33.98000 2.795
34.00000 7.673
34.02000 3.003
34.04000 -2.239
34.06000 3.136
34.08000 -0.242
34.10000 -2.858
34.12000 -2.009
34.14000 -0.399
34.16000 4.977
34.18000 12.153
34.20000 9.319
34.22000 2.377
34.24000 -1.603
34.26000 1.853
34.28000 2.023
34.30000 5.393
34.32000 4.016
34.34000 3.455
34.36000 0.029
34.38000 -2.750
34.40000 -3.282
34.42000 0.477
34.44000 0.763
34.46000 3.595
34.48000 6.571
34.50000 6.573
34.52000 5.445
34.54000 1.245
34.56000 0.956
34.58000 2.063
34.60000 2.847
34.62000 -0.385
34.64000 -0.675
34.66000 -1.479
34.68000 -0.156
34.70000 -0.337
34.72000 0.478
34.74000 1.709
34.76000 2.977
34.78000 2.581
34.80000 3.088
34.82000 -0.150
34.84000 3.608
34.86000 4.073
34.88000 2.136
34.90000 2.085
34.92000 7.747
34.94000 3.709
34.96000 3.083
34.98000 8.461
35.00000 5.159
35.02000 3.883
35.04000 2.777
35.06000 -3.527
35.08000 -3.420
35.10000 0.105
35.12000 5.078
35.14000 6.712
35.16000 5.079
35.18000 6.017
35.20000 -0.319
35.22000 -2.921
35.24000 3.484
35.26000 5.072
35.28000 4.912
35.30000 4.839
35.32000 3.424
35.34000 0.666
35.36000 3.457
35.38000 -1.974
35.40000 0.635
35.42000 3.312
35.44000 2.794
35.46000 5.666
35.48000 5.968
35.50000 4.080
35.52000 2.009
35.54000 2.731
35.56000 1.979
35.58000 1.414
35.60000 0.153
35.62000 0.111
35.64000 1.341
35.66000 3.718
35.68000 2.690
35.70000 -1.173
35.72000 -0.041
35.74000 0.721
35.76000 3.322
35.78000 2.825
35.80000 1.977
35.82000 4.001
35.84000 -0.554
35.86000 -3.529
35.88000 -1.816
35.90000 4.456
35.92000 1.968
35.94000 0.838
35.96000 -0.316
35.98000 0.127
36.00000 6.480
36.02000 3.473
36.04000 -0.233
36.06000 -1.547
36.08000 1.006
36.10000 5.592
36.12000 6.043
36.14000 1.759
36.16000 1.654
36.18000 1.438
36.20000 1.441
36.22000 8.149
36.24000 6.683
36.26000 6.843
36.28000 5.188
36.30000 3.158
36.32000 1.613
36.34000 -1.267
36.36000 5.532
36.38000 3.487
36.40000 4.283
36.42000 4.332
36.44000 3.521
36.46000 1.321
36.48000 -0.506
36.50000 2.453
36.52000 3.889
36.54000 2.002
36.56000 -0.923
36.58000 0.916
36.60000 -0.101
36.62000 -0.804
36.64000 0.826
36.66000 2.329
36.68000 0.210
36.70000 -1.169
36.72000 2.865
36.74000 2.685
36.76000 -0.211
36.78000 -0.939
36.80000 -0.466
36.82000 2.684
36.84000 1.814
36.86000 2.766
36.88000 5.303
36.90000 3.214
36.92000 0.833
36.94000 -1.753
36.96000 -1.720
36.98000 2.567
37.00000 6.285
37.02000 0.746
37.04000 2.485
37.06000 5.896
37.08000 4.191
37.10000 2.555
37.12000 -1.423
37.14000 4.372
37.16000 -2.180
37.18000 0.210
37.20000 -1.849
37.22000 -3.571
37.24000 -1.080
37.26000 -1.336
37.28000 0.257
37.30000 6.430
37.32000 5.167
37.34000 3.688
37.36000 -0.193
37.38000 -2.977
37.40000 1.132
37.42000 4.826
37.44000 3.399
37.46000 1.637
37.48000 0.583
37.50000 -0.746
37.52000 0.041
37.54000 -0.713
37.56000 -0.102
37.58000 1.802
37.60000 3.387
37.62000 5.144
37.64000 1.405
37.66000 -1.619
37.68000 3.398
37.70000 5.313
37.72000 5.773
37.74000 8.503
37.76000 6.488
37.78000 8.318
37.80000 6.140
37.82000 4.794
37.84000 9.195
37.86000 7.111
37.88000 8.553
37.90000 3.368
37.92000 6.295
37.94000 8.204
37.96000 5.966
37.98000 6.180
38.00000 3.992
38.02000 4.644
38.04000 4.665
38.06000 3.715
38.08000 2.234
38.10000 7.522
38.12000 8.133
38.14000 11.747
38.16000 11.012
38.18000 10.185
38.20000 13.474
38.22000 10.026
38.24000 10.155
38.26000 12.957
38.28000 18.144
38.30000 18.547
38.32000 13.214
38.34000 8.707
38.36000 12.153
38.38000 9.650
38.40000 9.816
38.42000 7.130
38.44000 15.226
38.46000 22.298
38.48000 17.565
38.50000 17.052
38.52000 15.594
38.54000 16.568
38.56000 14.696
38.58000 19.170
38.60000 17.224
38.62000 16.272
38.64000 21.245
38.66000 18.529
38.68000 18.079
38.70000 23.628
38.72000 23.312
38.74000 21.510
38.76000 26.715
38.78000 24.654
38.80000 24.154
38.82000 28.800
38.84000 26.778
38.86000 26.584
38.88000 28.692
38.90000 26.068
38.92000 31.580
38.94000 32.760
38.96000 36.276
38.98000 38.140
39.00000 35.441
39.02000 37.585
39.04000 41.215
39.06000 42.372
39.08000 45.021
39.10000 47.443
39.12000 44.991
39.14000 46.453
39.16000 52.450
39.18000 54.301
39.20000 51.580
39.22000 49.669
39.24000 54.905
39.26000 60.914
39.28000 68.184
39.30000 67.834
39.32000 72.616
39.34000 71.194
39.36000 74.383
39.38000 78.686
39.40000 84.185
39.42000 81.294
39.44000 82.841
39.46000 93.376
39.48000 96.027
39.50000 100.041
39.52000 105.238
39.54000 113.625
39.56000 119.681
39.58000 123.763
39.60000 127.871
39.62000 131.371
39.64000 139.769
39.66000 146.000
39.68000 154.501
39.70000 159.554
39.72000 165.053
39.74000 174.408
39.76000 185.138
39.78000 191.708
39.80000 201.748
39.82000 208.698
39.84000 221.659
39.86000 234.976
39.88000 242.955
39.90000 253.763
39.92000 265.448
39.94000 273.612
39.96000 282.471
39.98000 299.611
40.00000 320.422
40.02000 329.836
40.04000 336.107
40.06000 352.967
40.08000 365.841
40.10000 379.789
40.12000 397.580
40.14000 413.913
40.16000 425.936
40.18000 436.426
40.20000 453.338
40.22000 460.622
40.24000 471.515
40.26000 492.096
40.28000 507.074
40.30000 513.633
40.32000 521.002
40.34000 519.971
40.36000 529.700
40.38000 525.475
40.40000 532.693
40.42000 539.977
40.44000 547.133
40.46000 554.562
40.48000 554.286
40.50000 539.681
40.52000 535.826
40.54000 534.288
40.56000 533.702
40.58000 525.532
40.60000 506.715
40.62000 495.220
40.64000 488.406
40.66000 485.777
40.68000 470.994
40.70000 446.002
40.72000 435.216
40.74000 429.729
40.76000 424.022
40.78000 407.531
40.80000 381.772
40.82000 372.244
40.84000 360.839
40.86000 342.516
40.88000 333.567
40.90000 314.441
40.92000 301.876
40.94000 286.809
40.96000 278.089
40.98000 268.174
41.00000 258.061
41.02000 240.827
41.04000 221.434
41.06000 210.574
41.08000 201.763
41.10000 190.069
41.12000 179.714
41.14000 173.162
41.16000 170.114
41.18000 162.069
41.20000 148.213
41.22000 134.720
41.24000 126.503
41.26000 125.074
41.28000 120.772
41.30000 116.448
41.32000 109.047
41.34000 100.478
41.36000 97.204
41.38000 94.055
41.40000 89.222
41.42000 82.906
41.44000 79.358
41.46000 73.945
41.48000 72.838
41.50000 66.651
41.52000 63.665
41.54000 60.550
41.56000 57.732
41.58000 54.756
41.60000 51.838
41.62000 52.597
41.64000 50.093
41.66000 47.394
41.68000 45.035
41.70000 39.743
41.72000 35.333
41.74000 38.638
41.76000 37.043
41.78000 31.765
41.80000 33.622
41.82000 30.840
41.84000 27.910
41.86000 26.312
41.88000 26.145
41.90000 23.640
41.92000 25.642
41.94000 22.556
41.96000 24.489
41.98000 17.880
42.00000 15.155
42.02000 20.461
42.04000 23.606
42.06000 16.471
42.08000 10.518
42.10000 10.802
42.12000 13.233
42.14000 14.866
42.16000 11.009
42.18000 6.810
42.20000 9.273
42.22000 9.537
42.24000 8.313
42.26000 8.962
42.28000 5.153
42.30000 3.608
42.32000 6.978
42.34000 5.308
42.36000 2.166
42.38000 2.313
42.40000 3.948
42.42000 8.782
42.44000 6.554
42.46000 5.705
42.48000 3.133
42.50000 2.112
42.52000 4.527
42.54000 1.317
42.56000 0.125
42.58000 3.222
42.60000 4.546
42.62000 4.867
42.64000 2.117
42.66000 3.249
42.68000 2.456
42.70000 2.315
42.72000 0.687
42.74000 2.194
42.76000 -0.230
42.78000 0.229
42.80000 1.188
42.82000 2.292
42.84000 -1.048
42.86000 0.219
42.88000 2.080
42.90000 3.695
42.92000 2.757
42.94000 1.224
42.96000 2.402
42.98000 3.310
43.00000 1.612
43.02000 -0.990
43.04000 -0.219
43.06000 -0.439
43.08000 -1.280
43.10000 -3.300
43.12000 -0.421
43.14000 0.265
43.16000 -1.154
43.18000 -3.535
43.20000 2.638
43.22000 5.769
43.24000 2.300
43.26000 -0.091
43.28000 1.116
43.30000 -1.102
43.32000 -3.520
43.34000 -3.092
43.36000 0.606
43.38000 2.639
43.40000 1.802
43.42000 0.509
43.44000 2.381
43.46000 -1.594
43.48000 -0.218
43.50000 -1.012
43.52000 -2.330
43.54000 2.698
43.56000 1.480
43.58000 1.175
43.60000 5.682
43.62000 2.784
43.64000 0.959
43.66000 -2.639
43.68000 -3.349
43.70000 -3.488
43.72000 1.098
43.74000 5.786
43.76000 2.976
43.78000 1.631
43.80000 -0.954
43.82000 -3.098
43.84000 1.290
43.86000 -0.951
43.88000 -1.236
43.90000 -1.981
43.92000 -0.004
43.94000 -3.120
43.96000 1.781
43.98000 -0.776
44.00000 -2.724
44.02000 -2.176
44.04000 2.972
44.06000 7.247
44.08000 6.187
44.10000 6.488
44.12000 8.087
44.14000 5.874
44.16000 -0.031
44.18000 -3.445
44.20000 -0.115
44.22000 -0.912
44.24000 0.351
44.26000 0.395
44.28000 1.498
44.30000 3.197
44.32000 3.174
44.34000 3.374
44.36000 3.772
44.38000 5.328
44.40000 3.708
44.42000 4.550
44.44000 5.336
44.46000 5.141
44.48000 5.433
44.50000 3.929
44.52000 0.901
44.54000 3.109
44.56000 3.227
44.58000 0.870
44.60000 -0.361
44.62000 3.054
44.64000 4.191
44.66000 1.393
44.68000 -1.026
44.70000 -3.452
44.72000 2.399
44.74000 5.408
44.76000 3.743
44.78000 5.630
44.80000 6.382
44.82000 5.309
44.84000 9.000
44.86000 6.810
44.88000 4.068
44.90000 11.932
44.92000 11.310
44.94000 6.506
44.96000 4.281
44.98000 1.569
45.00000 3.727
45.02000 8.067
45.04000 6.090
45.06000 4.524
45.08000 7.153
45.10000 6.505
45.12000 7.893
45.14000 4.235
45.16000 8.197
45.18000 7.834
45.20000 9.205
45.22000 4.913
45.24000 11.498
45.26000 11.615
45.28000 10.032
45.30000 12.752
45.32000 10.575
45.34000 8.767
45.36000 11.532
45.38000 14.365
45.40000 10.981
45.42000 12.102
45.44000 12.976
45.46000 16.055
45.48000 12.811
45.50000 12.960
45.52000 11.889
45.54000 12.050
45.56000 11.633
45.58000 10.444
45.60000 14.228
45.62000 21.909
45.64000 25.394
45.66000 21.998
45.68000 19.632
45.70000 21.445
45.72000 17.124
45.74000 20.802
45.76000 22.842
45.78000 28.959
45.80000 24.168
45.82000 18.721
45.84000 21.350
45.86000 25.543
45.88000 28.117
45.90000 30.857
45.92000 32.999
45.94000 26.956
45.96000 29.122
45.98000 29.733
46.00000 26.434
46.02000 30.910
46.04000 33.931
46.06000 33.380
46.08000 33.964
46.10000 39.426
46.12000 41.434
46.14000 42.768
46.16000 43.635
46.18000 44.816
46.20000 39.543
46.22000 41.282
46.24000 44.064
46.26000 45.406
46.28000 48.588
46.30000 50.988
46.32000 46.852
46.34000 47.943
46.36000 52.584
46.38000 52.074
46.40000 55.445
46.42000 58.241
46.44000 51.545
46.46000 54.609
46.48000 57.358
46.50000 60.187
46.52000 59.577
46.54000 56.124
46.56000 66.533
46.58000 70.569
46.60000 67.197
46.62000 72.295
46.64000 70.920
46.66000 70.882
46.68000 73.245
46.70000 69.538
46.72000 73.707
46.74000 75.859
46.76000 76.773
46.78000 75.538
46.80000 75.354
46.82000 71.939
46.84000 69.745
46.86000 77.762
46.88000 75.349
46.90000 75.474
46.92000 70.060
46.94000 69.327
46.96000 75.418
46.98000 83.721
47.00000 80.844
47.02000 83.210
47.04000 83.710
47.06000 84.346
47.08000 86.057
47.10000 84.812
47.12000 84.184
47.14000 84.471
47.16000 85.492
47.18000 82.726
47.20000 72.744
47.22000 70.923
47.24000 79.876
47.26000 82.237
47.28000 76.724
47.30000 71.329
47.32000 69.877
47.34000 72.783
47.36000 73.929
47.38000 69.843
47.40000 67.486
47.42000 64.355
47.44000 60.707
47.46000 59.898
47.48000 60.565
47.50000 58.129
47.52000 57.633
47.54000 63.587
47.56000 57.031
47.58000 60.414
47.60000 54.661
47.62000 50.285
47.64000 49.811
47.66000 45.669
47.68000 49.701
47.70000 42.896
47.72000 40.957
47.74000 38.861
47.76000 34.603
47.78000 31.449
47.80000 36.176
47.82000 38.738
47.84000 43.266
47.86000 35.119
47.88000 35.600
47.90000 39.925
47.92000 35.401
47.94000 25.611
47.96000 26.730
47.98000 24.588
48.00000 29.914
48.02000 25.929
48.04000 24.125
48.06000 22.719
48.08000 18.672
48.10000 22.893
48.12000 22.633
48.14000 15.171
48.16000 17.313
48.18000 14.995
48.20000 15.162
48.22000 10.743
48.24000 11.558
48.26000 14.394
48.28000 15.029
48.30000 13.605
48.32000 10.034
48.34000 4.637
48.36000 11.751
48.38000 13.915
48.40000 12.062
48.42000 10.735
48.44000 8.488
48.46000 13.270
48.48000 11.268
48.50000 8.002
48.52000 3.607
48.54000 6.364
48.56000 3.435
48.58000 8.995
48.60000 6.296
48.62000 2.626
48.64000 2.487
48.66000 2.815
48.68000 5.539
48.70000 9.163
48.72000 8.431
48.74000 11.654
48.76000 9.874
48.78000 3.192
48.80000 5.331
48.82000 3.005
48.84000 3.506
48.86000 1.239
48.88000 5.362
48.90000 3.550
48.92000 2.502
48.94000 6.012
48.96000 5.287
48.98000 -3.137
49.00000 -2.005
49.02000 5.211
49.04000 4.162
49.06000 -1.203
49.08000 4.671
49.10000 8.067
49.12000 2.125
49.14000 4.325
49.16000 4.088
49.18000 3.225
49.20000 2.282
49.22000 2.038
49.24000 2.605
49.26000 3.035
49.28000 -0.079
49.30000 1.197
49.32000 -1.112
49.34000 0.695
49.36000 0.706
49.38000 0.855
49.40000 -2.507
49.42000 -0.219
49.44000 1.057
49.46000 3.146
49.48000 2.242
49.50000 -0.146
49.52000 -1.171
49.54000 3.148
49.56000 5.097
49.58000 0.429
49.60000 1.762
49.62000 -0.576
49.64000 -1.036
49.66000 1.214
49.68000 3.792
49.70000 -3.061
49.72000 -1.856
49.74000 -0.990
49.76000 5.627
49.78000 6.363
49.80000 0.287
49.82000 2.437
49.84000 3.217
49.86000 1.404
49.88000 0.519
49.90000 3.513
49.92000 2.750
49.94000 -1.378
49.96000 -1.664
49.98000 4.760
50.00000 3.172
50.02000 3.923
50.04000 2.761
50.06000 -0.505
50.08000 -3.025
50.10000 -2.550
50.12000 -2.127
50.14000 -2.419
50.16000 -0.744
50.18000 -2.706
50.20000 -1.215
50.22000 5.352
50.24000 3.215
50.26000 -3.011
50.28000 -0.103
50.30000 -0.328
50.32000 0.368
50.34000 2.279
50.36000 -0.509
50.38000 -0.521
50.40000 2.945
50.42000 3.112
50.44000 3.031
50.46000 5.436
50.48000 0.498
50.50000 0.171
50.52000 1.837
50.54000 2.981
50.56000 1.822
50.58000 3.131
50.60000 -1.189
50.62000 -2.323
50.64000 1.550
50.66000 0.641
50.68000 1.945
50.70000 2.815
50.72000 7.126
50.74000 9.452
50.76000 8.057
50.78000 6.591
50.80000 6.318
50.82000 2.805
50.84000 0.851
50.86000 2.490
50.88000 3.042
50.90000 5.743
50.92000 11.727
50.94000 6.667
50.96000 3.227
50.98000 0.733
51.00000 -2.938
51.02000 1.520
51.04000 1.638
51.06000 0.510
51.08000 1.927
51.10000 -0.187
51.12000 3.549
51.14000 7.973
51.16000 6.979
51.18000 2.686
51.20000 0.407
51.22000 -0.472
51.24000 0.881
51.26000 -2.925
51.28000 0.772
51.30000 2.833
51.32000 4.483
51.34000 9.282
51.36000 2.687
51.38000 4.607
51.40000 5.433
51.42000 3.895
51.44000 2.059
51.46000 3.625
51.48000 6.016
51.50000 7.020
51.52000 7.424
51.54000 5.254
51.56000 4.461
51.58000 5.526
51.60000 4.564
51.62000 0.695
51.64000 -0.769
51.66000 3.284
51.68000 0.176
51.70000 2.864
51.72000 3.189
51.74000 5.590
51.76000 1.630
51.78000 1.838
51.80000 5.172
51.82000 1.522
51.84000 2.246
51.86000 2.098
51.88000 0.175
51.90000 -0.012
51.92000 -0.771
51.94000 0.239
51.96000 4.482
51.98000 6.678
52.00000 2.673
52.02000 -1.267
52.04000 2.062
52.06000 2.158
52.08000 8.119
52.10000 8.272
52.12000 -0.861
52.14000 -1.401
52.16000 1.891
52.18000 1.011
52.20000 3.807
52.22000 7.767
52.24000 2.777
52.26000 4.031
52.28000 -1.164
52.30000 -0.841
52.32000 -0.520
52.34000 8.536
52.36000 8.419
52.38000 2.785
52.40000 1.189
52.42000 -1.507
52.44000 -1.852
52.46000 1.910
52.48000 3.489
52.50000 2.526
52.52000 0.789
52.54000 1.485
52.56000 -2.881
52.58000 0.712
52.60000 1.671
52.62000 0.669
52.64000 3.045
52.66000 0.096
52.68000 1.256
52.70000 5.891
52.72000 4.605
52.74000 -0.686
52.76000 2.021
52.78000 5.492
52.80000 4.774
52.82000 6.011
52.84000 5.151
52.86000 5.553
52.88000 7.650
52.90000 3.768
52.92000 4.260
52.94000 4.182
52.96000 -0.221
52.98000 -0.397
53.00000 2.415
53.02000 4.157
53.04000 1.411
53.06000 3.470
53.08000 4.045
53.10000 1.885
53.12000 3.961
53.14000 4.118
53.16000 2.216
53.18000 3.176
53.20000 0.630
53.22000 -1.134
53.24000 2.095
53.26000 3.031
53.28000 7.421
53.30000 6.283
53.32000 2.504
53.34000 4.239
53.36000 7.406
53.38000 5.343
53.40000 3.778
53.42000 -0.049
53.44000 -2.870
53.46000 -2.424
53.48000 4.263
53.50000 4.077
53.52000 3.410
53.54000 5.317
53.56000 7.725
53.58000 3.465
53.60000 2.920
53.62000 0.726
53.64000 3.064
53.66000 2.443
53.68000 1.659
53.70000 4.016
53.72000 5.218
53.74000 2.075
53.76000 2.465
53.78000 -1.368
53.80000 0.604
53.82000 0.819
53.84000 0.743
53.86000 6.084
53.88000 2.449
53.90000 -1.198
53.92000 0.712
53.94000 8.130
53.96000 4.444
53.98000 -1.605
54.00000 1.298
54.02000 5.762
54.04000 2.164
54.06000 4.005
54.08000 3.170
54.10000 5.568
54.12000 3.597
54.14000 0.818
54.16000 1.512
54.18000 5.868
54.20000 2.441
54.22000 6.059
54.24000 2.926
54.26000 1.053
54.28000 -1.939
54.30000 1.848
54.32000 1.394
54.34000 1.863
54.36000 -1.399
54.38000 -0.073
54.40000 5.783
54.42000 5.126
54.44000 4.494
54.46000 7.100
54.48000 2.671
54.50000 -1.832
54.52000 3.807
54.54000 0.480
54.56000 3.759
54.58000 5.528
54.60000 3.665
54.62000 4.673
54.64000 2.701
54.66000 3.874
54.68000 5.201
54.70000 6.802
54.72000 9.352
54.74000 6.371
54.76000 6.099
54.78000 4.565
54.80000 7.130
54.82000 3.437
54.84000 6.867
54.86000 1.811
54.88000 -2.794
54.90000 3.077
54.92000 1.611
54.94000 7.054
54.96000 2.056
54.98000 4.923
55.00000 2.868
55.02000 2.691
55.04000 7.686
55.06000 4.771
55.08000 -0.813
55.10000 1.551
55.12000 3.048
55.14000 0.061
55.16000 1.865
55.18000 -0.228
55.20000 3.656
55.22000 1.911
55.24000 -0.269
55.26000 1.168
55.28000 -0.113
55.30000 0.978
55.32000 1.950
55.34000 4.238
55.36000 3.919
55.38000 5.355
55.40000 7.321
55.42000 2.509
55.44000 -0.005
55.46000 2.522
55.48000 5.259
55.50000 9.840
55.52000 6.702
55.54000 3.175
55.56000 -1.684
55.58000 0.874
55.60000 2.274
55.62000 -1.082
55.64000 2.294
55.66000 1.247
55.68000 0.863
55.70000 -1.499
55.72000 1.743
55.74000 1.271
55.76000 5.788
55.78000 4.439
55.80000 2.734
55.82000 2.534
55.84000 1.491
55.86000 3.358
55.88000 1.541
55.90000 3.774
55.92000 5.132
55.94000 2.972
55.96000 -0.115
55.98000 0.122
56.00000 5.647
56.02000 3.887
56.04000 1.610
56.06000 0.810
56.08000 -2.133
56.10000 2.920
56.12000 6.166
56.14000 7.193
56.16000 5.895
56.18000 1.208
56.20000 -2.789
56.22000 -0.747
56.24000 4.205
56.26000 6.025
56.28000 4.652
56.30000 1.285
56.32000 -1.806
56.34000 -0.210
56.36000 5.540
56.38000 1.522
56.40000 -2.041
56.42000 1.729
56.44000 0.628
56.46000 2.744
56.48000 3.579
56.50000 -0.090
56.52000 -1.619
56.54000 6.487
56.56000 5.036
56.58000 2.597
56.60000 -0.702
56.62000 0.458
56.64000 1.950
56.66000 -0.320
56.68000 0.196
56.70000 -2.209
56.72000 1.267
56.74000 -0.125
56.76000 5.121
56.78000 6.774
56.80000 3.480
56.82000 -1.589
56.84000 -0.917
56.86000 3.646
56.88000 8.633
56.90000 5.708
56.92000 4.687
56.94000 1.630
56.96000 -0.821
56.98000 -0.884
57.00000 0.791
57.02000 0.508
57.04000 -2.749
57.06000 3.010
57.08000 2.227
57.10000 4.295
57.12000 4.937
57.14000 2.333
57.16000 2.025
57.18000 3.532
57.20000 2.188
57.22000 1.013
57.24000 4.206
57.26000 2.199
57.28000 7.271
57.30000 9.448
57.32000 5.318
57.34000 2.042
57.36000 3.868
57.38000 0.004
57.40000 0.064
57.42000 2.263
57.44000 1.815
57.46000 3.564
57.48000 4.748
57.50000 2.295
57.52000 2.806
57.54000 2.018
57.56000 3.251
57.58000 1.256
57.60000 3.903
57.62000 5.146
57.64000 3.137
57.66000 3.728
57.68000 5.034
57.70000 6.294
57.72000 4.788
57.74000 1.654
57.76000 0.834
57.78000 5.021
57.80000 5.769
57.82000 2.696
57.84000 4.946
57.86000 4.112
57.88000 3.198
57.90000 5.015
57.92000 5.363
57.94000 2.079
57.96000 4.320
57.98000 4.523
58.00000 -1.226
58.02000 1.925
58.04000 4.038
58.06000 1.120
58.08000 6.483
58.10000 2.679
58.12000 -2.679
58.14000 0.366
58.16000 7.487
58.18000 8.604
58.20000 3.221
58.22000 1.032
58.24000 1.318
58.26000 -0.440
58.28000 2.290
58.30000 6.186
58.32000 6.057
58.34000 0.750
58.36000 -0.467
58.38000 6.276
58.40000 6.678
58.42000 4.902
58.44000 6.543
58.46000 0.509
58.48000 -1.026
58.50000 1.026
58.52000 1.628
58.54000 2.337
58.56000 1.333
58.58000 4.118
58.60000 0.856
58.62000 0.924
58.64000 -0.261
58.66000 1.479
58.68000 6.664
58.70000 6.118
58.72000 8.542
58.74000 6.153
58.76000 4.360
58.78000 2.385
58.80000 2.397
58.82000 0.038
58.84000 0.547
58.86000 0.466
58.88000 5.385
58.90000 8.837
58.92000 7.476
58.94000 3.790
58.96000 2.672
58.98000 8.147
59.00000 6.278
59.02000 0.938
59.04000 2.472
59.06000 -0.340
59.08000 -0.820
59.10000 -0.544
59.12000 3.072
59.14000 3.465
59.16000 4.738
59.18000 2.150
59.20000 3.117
59.22000 2.990
59.24000 4.226
59.26000 4.103
59.28000 5.628
59.30000 2.220
59.32000 1.073
59.34000 3.541
59.36000 9.403
59.38000 5.245
59.40000 2.391
59.42000 5.162
59.44000 7.044
59.46000 3.970
59.48000 4.371
59.50000 2.146
59.52000 4.096
59.54000 1.367
59.56000 2.851
59.58000 2.430
59.60000 1.873
59.62000 3.019
59.64000 0.754
59.66000 -0.231
59.68000 1.056
59.70000 1.471
59.72000 7.894
59.74000 8.898
59.76000 6.390
59.78000 1.595
59.80000 1.439
59.82000 -2.103
59.84000 2.128
59.86000 0.661
59.88000 1.041
59.90000 2.330
59.92000 2.254
59.94000 3.189
59.96000 -0.353
59.98000 -2.642
60.00000 0.717
60.02000 2.263
60.04000 1.501
60.06000 3.447
60.08000 7.504
60.10000 4.520
60.12000 7.034
60.14000 2.943
60.16000 4.991
60.18000 6.832
60.20000 2.512
60.22000 2.242
60.24000 0.877
60.26000 3.582
60.28000 1.174
60.30000 0.545
60.32000 0.117
60.34000 -1.458
60.36000 -1.287
60.38000 -0.344
60.40000 -2.141
60.42000 -1.716
60.44000 2.487
60.46000 6.904
60.48000 6.043
60.50000 4.475
60.52000 5.379
60.54000 0.782
60.56000 0.185
60.58000 2.143
60.60000 7.006
60.62000 5.726
60.64000 3.167
60.66000 -0.186
60.68000 1.632
60.70000 2.409
60.72000 5.762
60.74000 4.148
60.76000 0.631
60.78000 -0.169
60.80000 -0.093
60.82000 -2.619
60.84000 0.528
60.86000 1.647
60.88000 2.489
60.90000 4.173
60.92000 4.978
60.94000 0.988
60.96000 -1.500
60.98000 1.805
61.00000 3.192
61.02000 5.014
61.04000 6.259
61.06000 7.284
61.08000 4.274
61.10000 1.650
61.12000 4.229
61.14000 3.859
61.16000 2.443
61.18000 3.180
61.20000 2.939
61.22000 2.566
61.24000 0.350
61.26000 3.383
61.28000 2.637
61.30000 5.668
61.32000 6.152
61.34000 5.305
61.36000 2.306
61.38000 1.247
61.40000 -1.209
61.42000 2.042
61.44000 1.915
61.46000 4.178
61.48000 2.842
61.50000 1.083
61.52000 0.577
61.54000 -1.860
61.56000 1.685
61.58000 4.257
61.60000 3.374
61.62000 5.076
61.64000 -0.228
61.66000 -0.833
61.68000 3.578
61.70000 4.144
61.72000 1.111
61.74000 1.693
61.76000 3.391
61.78000 8.833
61.80000 1.625
61.82000 -1.608
61.84000 -2.570
61.86000 0.616
61.88000 4.460
61.90000 8.264
61.92000 8.591
61.94000 6.363
61.96000 8.010
61.98000 7.332
62.00000 4.047
62.02000 0.332
62.04000 0.669
62.06000 0.184
62.08000 2.661
62.10000 2.504
62.12000 3.213
62.14000 3.588
62.16000 3.982
62.18000 2.092
62.20000 2.296
62.22000 3.506
62.24000 3.284
62.26000 8.108
62.28000 3.315
62.30000 1.487
62.32000 0.350
62.34000 2.200
62.36000 4.039
62.38000 4.357
62.40000 2.560
62.42000 4.654
62.44000 -1.831
62.46000 2.518
62.48000 0.532
62.50000 0.175
62.52000 3.094
62.54000 4.572
62.56000 2.625
62.58000 3.312
62.60000 0.379
62.62000 -0.464
62.64000 2.764
62.66000 -0.002
62.68000 0.158
62.70000 -0.853
62.72000 0.255
62.74000 1.626
62.76000 3.260
62.78000 3.409
62.80000 3.587
62.82000 0.811
62.84000 2.483
62.86000 1.363
62.88000 4.079
62.90000 3.728
62.92000 3.107
62.94000 0.499
62.96000 3.823
62.98000 3.315
63.00000 2.219
63.02000 1.546
63.04000 1.592
63.06000 1.139
63.08000 3.970
63.10000 0.505
63.12000 -0.648
63.14000 -0.319
63.16000 -1.834
63.18000 5.840
63.20000 3.741
63.22000 -2.592
63.24000 -1.855
63.26000 2.374
63.28000 3.573
63.30000 -1.131
63.32000 4.844
63.34000 3.180
63.36000 1.109
63.38000 -1.392
63.40000 -1.872
63.42000 -1.826
63.44000 -0.745
63.46000 2.634
63.48000 -0.992
63.50000 -2.189
63.52000 -2.601
63.54000 2.545
63.56000 0.208
63.58000 -0.596
63.60000 1.939
63.62000 0.507
63.64000 -1.105
63.66000 1.130
63.68000 4.345
63.70000 0.324
63.72000 1.891
63.74000 0.703
63.76000 1.113
63.78000 -2.062
63.80000 0.105
63.82000 2.161
63.84000 -0.454
63.86000 -2.483
63.88000 0.787
63.90000 2.690
63.92000 -0.558
63.94000 -0.126
63.96000 -2.605
63.98000 -0.641
64.00000 -1.235
64.02000 -1.254
64.04000 -1.077
64.06000 1.892
64.08000 0.783
64.10000 0.382
64.12000 -0.170
64.14000 -1.378
64.16000 0.642
64.18000 0.779
64.20000 0.096
64.22000 1.104
64.24000 -0.418
64.26000 -1.263
64.28000 -0.345
64.30000 -1.839
64.32000 -1.720
64.34000 -0.567
64.36000 1.729
64.38000 2.717
64.40000 2.126
64.42000 -0.734
64.44000 3.238
64.46000 5.482
64.48000 3.120
64.50000 8.348
64.52000 2.887
64.54000 3.088
64.56000 4.078
64.58000 3.742
64.60000 2.406
64.62000 0.017
64.64000 -1.918
64.66000 1.523
64.68000 2.924
64.70000 0.601
64.72000 -1.273
64.74000 -1.243
64.76000 2.270
64.78000 5.726
64.80000 5.098
64.82000 6.101
64.84000 0.759
64.86000 3.952
64.88000 2.529
64.90000 2.104
64.92000 -0.583
64.94000 -1.479
64.96000 -1.748
64.98000 -2.609
65.00000 -1.698
65.02000 0.019
65.04000 1.600
65.06000 2.518
65.08000 3.554
65.10000 3.881
65.12000 2.352
65.14000 3.703
65.16000 3.053
65.18000 2.951
65.20000 0.238
65.22000 -0.213
65.24000 -0.062
65.26000 0.363
65.28000 0.884
65.30000 0.316
65.32000 -0.531
65.34000 2.636
65.36000 5.304
65.38000 1.458
65.40000 6.008
65.42000 6.256
65.44000 4.786
65.46000 4.048
65.48000 2.615
65.50000 4.111
65.52000 2.692
65.54000 1.891
65.56000 1.983
65.58000 -1.034
65.60000 -1.541
65.62000 0.445
65.64000 1.518
65.66000 -2.594
65.68000 2.088
65.70000 0.080
65.72000 -0.639
65.74000 -1.108
65.76000 1.937
65.78000 3.267
65.80000 4.630
65.82000 4.789
65.84000 -1.330
65.86000 0.360
65.88000 2.980
65.90000 5.191
65.92000 6.166
65.94000 3.530
65.96000 2.343
65.98000 2.555
66.00000 2.231
66.02000 -0.210
66.04000 -0.576
66.06000 0.010
66.08000 2.949
66.10000 1.905
66.12000 1.302
66.14000 -0.327
66.16000 1.002
66.18000 -1.740
66.20000 0.605
66.22000 1.793
66.24000 -0.131
66.26000 0.671
66.28000 0.787
66.30000 -0.179
66.32000 1.992
66.34000 1.357
66.36000 0.093
66.38000 1.034
66.40000 2.128
66.42000 1.798
66.44000 1.007
66.46000 -1.317
66.48000 -1.360
66.50000 -1.600
66.52000 -1.443
66.54000 -1.005
66.56000 0.080
66.58000 1.838
66.60000 1.580
66.62000 0.968
66.64000 -0.035
66.66000 -0.772
66.68000 0.227
66.70000 1.121
66.72000 3.806
66.74000 4.082
66.76000 0.089
66.78000 0.563
66.80000 2.451
66.82000 -1.307
66.84000 -2.255
66.86000 -0.507
66.88000 -0.057
66.90000 -0.518
66.92000 2.105
66.94000 8.664
66.96000 -0.045
66.98000 -1.001
67.00000 -2.028
67.02000 -0.088
67.04000 0.521
67.06000 -1.287
67.08000 -0.554
67.10000 -2.697
67.12000 -2.272
67.14000 1.121
67.16000 5.321
67.18000 7.260
67.20000 6.072
67.22000 3.500
67.24000 1.921
67.26000 4.408
67.28000 4.829
67.30000 6.101
67.32000 4.236
67.34000 4.327
67.36000 3.065
67.38000 1.043
67.40000 2.229
67.42000 4.553
67.44000 1.598
67.46000 3.192
67.48000 5.652
67.50000 4.639
67.52000 1.920
67.54000 4.751
67.56000 6.971
67.58000 8.444
67.60000 6.881
67.62000 7.309
67.64000 10.922
67.66000 6.518
67.68000 9.271
67.70000 9.668
67.72000 9.090
67.74000 12.255
67.76000 10.978
67.78000 9.637
67.80000 8.019
67.82000 7.546
67.84000 7.361
67.86000 9.971
67.88000 14.959
67.90000 14.814
67.92000 11.732
67.94000 10.206
67.96000 13.626
67.98000 16.657
68.00000 12.141
68.02000 6.549
68.04000 12.117
68.06000 13.723
68.08000 16.829
68.10000 15.033
68.12000 9.426
68.14000 13.243
68.16000 13.101
68.18000 19.735
68.20000 19.447
68.22000 18.544
68.24000 23.617
68.26000 24.711
68.28000 24.983
68.30000 26.085
68.32000 21.325
68.34000 17.896
68.36000 18.740
68.38000 18.644
68.40000 22.513
68.42000 22.794
68.44000 20.345
68.46000 22.018
68.48000 22.727
68.50000 21.378
68.52000 19.138
68.54000 16.610
68.56000 22.228
68.58000 19.145
68.60000 18.242
68.62000 21.780
68.64000 21.434
68.66000 22.180
68.68000 21.232
68.70000 24.063
68.72000 24.646
68.74000 26.871
68.76000 24.701
68.78000 24.076
68.80000 16.391
68.82000 22.334
68.84000 24.691
68.86000 30.104
68.88000 29.605
68.90000 28.001
68.92000 23.250
68.94000 26.755
68.96000 26.419
68.98000 22.760
69.00000 17.220
69.02000 21.336
69.04000 20.265
69.06000 19.563
69.08000 13.576
69.10000 17.667
69.12000 20.893
69.14000 17.677
69.16000 16.129
69.18000 18.605
69.20000 15.406
69.22000 15.770
69.24000 15.519
69.26000 12.935
69.28000 16.248
69.30000 15.322
69.32000 15.845
69.34000 13.894
69.36000 9.619
69.38000 13.336
69.40000 15.253
69.42000 14.228
69.44000 14.056
69.46000 13.413
69.48000 11.732
69.50000 16.299
69.52000 12.360
69.54000 8.519
69.56000 8.173
69.58000 10.988
69.60000 9.513
69.62000 13.387
69.64000 11.777
69.66000 10.034
69.68000 13.204
69.70000 8.576
69.72000 5.237
69.74000 6.161
69.76000 4.182
69.78000 5.087
69.80000 1.507
69.82000 0.091
69.84000 1.096
69.86000 3.172
69.88000 3.013
69.90000 1.071
69.92000 2.054
69.94000 1.077
69.96000 -2.617
69.98000 -0.076
70.00000 0.539
70.02000 1.379
70.04000 1.343
70.06000 3.373
70.08000 5.299
70.10000 6.076
70.12000 4.362
70.14000 2.067
70.16000 3.443
70.18000 4.589
70.20000 3.999
70.22000 3.030
70.24000 -2.515
70.26000 3.039
70.28000 2.463
70.30000 3.738
70.32000 2.517
70.34000 1.839
70.36000 -0.188
70.38000 -1.340
70.40000 -0.704
70.42000 2.494
70.44000 4.587
70.46000 0.297
70.48000 0.214
70.50000 2.757
70.52000 6.553
70.54000 -0.568
70.56000 1.943
70.58000 -1.702
70.60000 -0.456
70.62000 3.666
70.64000 2.874
70.66000 2.395
70.68000 1.702
70.70000 2.718
70.72000 0.601
70.74000 -0.488
70.76000 -1.759
70.78000 -0.336
70.80000 3.955
70.82000 1.578
70.84000 -2.464
70.86000 -0.882
70.88000 1.598
70.90000 -0.426
70.92000 2.591
70.94000 0.491
70.96000 2.940
70.98000 4.916
71.00000 -2.155
71.02000 1.157
71.04000 5.126
71.06000 3.174
71.08000 4.540
71.10000 4.981
71.12000 4.413
71.14000 0.901
71.16000 5.647
71.18000 3.408
71.20000 1.218
71.22000 -2.052
71.24000 1.752
71.26000 -0.430
71.28000 -1.699
71.30000 1.759
71.32000 -0.260
71.34000 -0.743
71.36000 2.759
71.38000 6.810
71.40000 0.771
71.42000 -2.468
71.44000 0.607
71.46000 0.129
71.48000 1.614
71.50000 4.737
71.52000 1.644
71.54000 0.081
71.56000 -0.149
71.58000 3.415
71.60000 4.197
71.62000 7.041
71.64000 2.003
71.66000 2.656
71.68000 -1.685
71.70000 -0.072
71.72000 0.268
71.74000 5.101
71.76000 4.229
71.78000 4.880
71.80000 1.565
71.82000 5.180
71.84000 3.260
71.86000 7.430
71.88000 1.308
71.90000 -1.536
71.92000 -0.595
71.94000 4.564
71.96000 4.828
71.98000 5.718
72.00000 8.119
72.02000 2.425
72.04000 4.243
72.06000 3.613
72.08000 5.895
72.10000 6.336
72.12000 8.592
72.14000 4.769
72.16000 1.314
72.18000 -0.816
72.20000 -1.978
72.22000 -1.070
72.24000 3.427
72.26000 4.988
72.28000 0.795
72.30000 0.154
72.32000 6.151
72.34000 0.693
72.36000 -1.577
72.38000 6.676
72.40000 3.022
72.42000 4.241
72.44000 9.286
72.46000 9.356
72.48000 8.064
72.50000 5.420
72.52000 2.560
72.54000 3.042
72.56000 -1.551
72.58000 6.714
72.60000 5.402
72.62000 3.360
72.64000 -0.989
72.66000 2.559
72.68000 2.018
72.70000 4.841
72.72000 6.433
72.74000 6.822
72.76000 0.903
72.78000 -2.381
72.80000 4.662
72.82000 5.686
72.84000 3.951
72.86000 1.805
72.88000 -0.900
72.90000 3.826
72.92000 3.148
72.94000 2.852
72.96000 3.659
72.98000 3.618
73.00000 4.671
73.02000 6.183
73.04000 4.759
73.06000 4.646
73.08000 1.220
73.10000 0.948
73.12000 5.024
73.14000 5.951
73.16000 1.001
73.18000 0.529
73.20000 0.519
73.22000 5.907
73.24000 2.898
73.26000 1.547
73.28000 1.904
73.30000 5.711
73.32000 5.286
73.34000 5.484
73.36000 5.603
73.38000 1.720
73.40000 3.288
73.42000 2.977
73.44000 3.556
73.46000 5.861
73.48000 5.946
73.50000 6.124
73.52000 3.198
73.54000 0.557
73.56000 -2.096
73.58000 -0.700
73.60000 -1.342
73.62000 -1.203
73.64000 -0.487
73.66000 -1.219
73.68000 -1.058
73.70000 0.913
73.72000 3.110
73.74000 6.051
73.76000 2.375
73.78000 -0.427
73.80000 2.231
73.82000 4.701
73.84000 1.798
73.86000 -1.785
73.88000 -0.514
73.90000 2.147
73.92000 2.512
73.94000 -2.416
73.96000 -2.204
73.98000 -0.332
74.00000 2.427
74.02000 5.115
74.04000 0.533
74.06000 2.272
74.08000 3.481
74.10000 1.478
74.12000 0.349
74.14000 -1.898
74.16000 -1.220
74.18000 3.107
74.20000 5.208
74.22000 2.903
74.24000 2.005
74.26000 6.015
74.28000 3.118
74.30000 2.607
74.32000 -2.407
74.34000 1.344
74.36000 3.653
74.38000 1.506
74.40000 1.586
74.42000 5.454
74.44000 1.684
74.46000 3.027
74.48000 -0.193
74.50000 2.563
74.52000 2.426
74.54000 -0.608
74.56000 2.260
74.58000 -0.400
74.60000 1.814
74.62000 5.503
74.64000 3.577
74.66000 1.292
74.68000 1.775
74.70000 3.639
74.72000 -1.684
74.74000 2.337
74.76000 2.315
74.78000 3.839
74.80000 2.890
74.82000 3.206
74.84000 -2.405
74.86000 1.105
74.88000 1.908
74.90000 4.297
74.92000 4.033
74.94000 1.903
74.96000 1.869
74.98000 2.363
75.00000 5.467
75.02000 4.146
75.04000 2.665
75.06000 -0.351
75.08000 1.419
75.10000 0.086
75.12000 4.036
75.14000 4.553
75.16000 1.369
75.18000 2.760
75.20000 6.347
75.22000 5.390
75.24000 2.212
75.26000 0.627
75.28000 1.088
75.30000 0.854
75.32000 1.912
75.34000 3.714
75.36000 3.065
75.38000 3.097
75.40000 5.841
75.42000 6.394
75.44000 5.868
75.46000 1.785
75.48000 1.036
75.50000 1.662
75.52000 -2.399
75.54000 -1.671
75.56000 2.581
75.58000 7.098
75.60000 3.839
75.62000 4.588
75.64000 11.215
75.66000 7.372
75.68000 0.511
75.70000 3.277
75.72000 3.755
75.74000 2.569
75.76000 7.606
75.78000 3.785
75.80000 3.594
75.82000 0.870
75.84000 6.618
75.86000 3.997
75.88000 5.741
75.90000 6.833
75.92000 3.221
75.94000 5.286
75.96000 5.319
75.98000 2.423
76.00000 0.252
76.02000 4.982
76.04000 -0.159
76.06000 0.362
76.08000 -0.208
76.10000 1.678
76.12000 5.251
76.14000 7.026
76.16000 3.575
76.18000 1.772
76.20000 2.676
76.22000 -0.093
76.24000 3.073
76.26000 1.057
76.28000 2.057
76.30000 0.601
76.32000 5.336
76.34000 3.394
76.36000 -0.131
76.38000 1.227
76.40000 0.265
76.42000 0.826
76.44000 0.808
76.46000 1.053
76.48000 -2.402
76.50000 1.548
76.52000 2.662
76.54000 2.638
76.56000 4.356
76.58000 4.610
76.60000 3.309
76.62000 5.573
76.64000 3.042
76.66000 2.223
76.68000 8.306
76.70000 5.616
76.72000 4.767
76.74000 1.841
76.76000 5.122
76.78000 5.110
76.80000 7.033
76.82000 5.667
76.84000 4.776
76.86000 1.945
76.88000 2.550
76.90000 1.658
76.92000 5.287
76.94000 3.861
76.96000 3.893
76.98000 6.735
77.00000 6.764
77.02000 6.559
77.04000 -2.397
77.06000 -0.515
77.08000 4.674
77.10000 10.056
77.12000 6.915
77.14000 4.584
77.16000 5.457
77.18000 4.959
77.20000 2.220
77.22000 2.911
77.24000 3.696
77.26000 5.679
77.28000 0.234
77.30000 2.909
77.32000 6.894
77.34000 13.217
77.36000 6.314
77.38000 1.972
77.40000 3.319
77.42000 0.071
77.44000 5.144
77.46000 3.877
77.48000 5.826
77.50000 3.510
77.52000 3.769
77.54000 3.516
77.56000 2.799
77.58000 2.971
77.60000 2.696
77.62000 2.463
77.64000 4.741
77.66000 2.155
77.68000 3.756
77.70000 6.344
77.72000 1.110
77.74000 -1.412
77.76000 2.362
77.78000 3.946
77.80000 6.566
77.82000 4.943
77.84000 4.360
77.86000 2.377
77.88000 2.055
77.90000 -0.081
77.92000 2.087
77.94000 7.721
77.96000 4.526
77.98000 7.453
78.00000 7.906
78.02000 7.620
78.04000 7.487
78.06000 3.297
78.08000 3.140
78.10000 2.657
78.12000 3.544
78.14000 1.739
78.16000 2.609
78.18000 -0.311
78.20000 -0.716
78.22000 7.369
78.24000 6.426
78.26000 3.342
78.28000 -0.302
78.30000 -2.415
78.32000 -0.415
78.34000 5.432
78.36000 7.560
78.38000 4.007
78.40000 2.724
78.42000 4.709
78.44000 2.505
78.46000 1.005
78.48000 2.776
78.50000 3.574
78.52000 0.976
78.54000 0.599
78.56000 -1.819
78.58000 4.150
78.60000 1.196
78.62000 3.048
78.64000 0.250
78.66000 0.472
78.68000 1.170
78.70000 2.943
78.72000 5.755
78.74000 -0.086
78.76000 3.220
78.78000 1.771
78.80000 -0.340
78.82000 -1.297
78.84000 3.896
78.86000 6.856
78.88000 4.017
78.90000 -0.534
78.92000 -1.050
78.94000 1.542
78.96000 1.696
78.98000 4.358
79.00000 7.056
79.02000 1.728
79.04000 -2.460
79.06000 1.920
79.08000 -0.474
79.10000 2.837
79.12000 1.359
79.14000 -0.614
79.16000 0.675
79.18000 6.232
79.20000 4.824
79.22000 3.575
79.24000 3.678
79.26000 1.368
79.28000 0.838
79.30000 1.874
79.32000 1.961
79.34000 3.202
79.36000 2.517
79.38000 6.572
79.40000 4.817
79.42000 4.255
79.44000 7.357
79.46000 5.910
79.48000 3.212
79.50000 -0.863
79.52000 -2.480
79.54000 2.567
79.56000 -1.906
79.58000 3.724
79.60000 4.458
79.62000 3.415
79.64000 -0.247
79.66000 -0.028
79.68000 2.220
79.70000 2.886
79.72000 0.965
79.74000 2.326
79.76000 -0.022
79.78000 0.641
79.80000 0.769
79.82000 0.104
79.84000 -0.901
79.86000 -1.254
79.88000 4.628
79.90000 3.050
79.92000 -1.397
79.94000 3.328
79.96000 1.764
79.98000 2.677
80.00000 2.182
80.02000 1.353
80.04000 0.977
80.06000 4.941
80.08000 3.872
80.10000 8.665
80.12000 6.672
80.14000 2.894
80.16000 4.180
80.18000 0.337
80.20000 1.687
80.22000 3.482
80.24000 1.980
80.26000 2.882
80.28000 0.910
80.30000 5.173
80.32000 5.332
80.34000 6.204
80.36000 6.767
80.38000 -0.886
80.40000 -2.526
80.42000 0.904
80.44000 3.876
80.46000 5.726
80.48000 7.831
80.50000 9.257
80.52000 5.157
80.54000 2.764
80.56000 4.185
80.58000 4.291
80.60000 4.026
80.62000 1.456
80.64000 1.814
80.66000 2.570
80.68000 -0.562
80.70000 2.531
80.72000 4.566
80.74000 7.707
80.76000 3.889
80.78000 0.678
80.80000 0.516
80.82000 6.946
80.84000 7.099
80.86000 -0.119
80.88000 1.763
80.90000 2.378
80.92000 2.819
80.94000 -0.734
80.96000 1.163
80.98000 5.455
81.00000 5.593
81.02000 2.553
81.04000 -1.232
81.06000 4.611
81.08000 10.761
81.10000 2.957
81.12000 0.850
81.14000 3.030
81.16000 6.413
81.18000 5.288
81.20000 2.025
81.22000 7.065
81.24000 2.617
81.26000 2.695
81.28000 7.567
81.30000 3.909
81.32000 2.931
81.34000 0.159
81.36000 -2.587
81.38000 -2.606
81.40000 0.247
81.42000 5.602
81.44000 8.872
81.46000 9.691
81.48000 6.718
81.50000 5.253
81.52000 4.127
81.54000 4.462
81.56000 3.906
81.58000 9.162
81.60000 9.586
81.62000 7.935
81.64000 7.436
81.66000 4.424
81.68000 10.222
81.70000 12.865
81.72000 16.154
81.74000 8.331
81.76000 3.926
81.78000 6.358
81.80000 9.920
81.82000 9.007
81.84000 6.446
81.86000 6.503
81.88000 9.047
81.90000 11.193
81.92000 9.345
81.94000 6.794
81.96000 7.501
81.98000 9.404
82.00000 10.676
82.02000 15.073
82.04000 12.022
82.06000 12.705
82.08000 12.244
82.10000 18.380
82.12000 17.196
82.14000 15.199
82.16000 15.898
82.18000 9.655
82.20000 14.877
82.22000 15.735
82.24000 17.756
82.26000 17.484
82.28000 20.843
82.30000 15.960
82.32000 14.659
82.34000 19.926
82.36000 16.525
82.38000 18.652
82.40000 21.588
82.42000 17.936
82.44000 19.590
82.46000 22.528
82.48000 21.256
82.50000 16.104
82.52000 22.997
82.54000 26.946
82.56000 21.109
82.58000 26.608
82.60000 21.565
82.62000 25.703
82.64000 21.498
82.66000 22.409
82.68000 23.182
82.70000 27.671
82.72000 27.474
82.74000 21.481
82.76000 18.161
82.78000 21.702
82.80000 26.470
82.82000 27.776
82.84000 27.025
82.86000 21.859
82.88000 25.697
82.90000 29.674
82.92000 27.428
82.94000 23.561
82.96000 22.818
82.98000 21.962
83.00000 23.691
83.02000 16.339
83.04000 18.803
83.06000 23.523
83.08000 22.560
83.10000 23.587
83.12000 22.360
83.14000 21.153
83.16000 24.018
83.18000 22.465
83.20000 23.959
83.22000 16.329
83.24000 22.005
83.26000 29.530
83.28000 30.431
83.30000 25.870
83.32000 26.966
83.34000 25.026
83.36000 15.910
83.38000 19.532
83.40000 22.805
83.42000 19.920
83.44000 16.242
83.46000 23.380
83.48000 18.254
83.50000 13.619
83.52000 15.289
83.54000 17.583
83.56000 17.370
83.58000 18.295
83.60000 15.381
83.62000 17.779
83.64000 18.672
83.66000 19.935
83.68000 17.946
83.70000 13.569
83.72000 16.599
83.74000 18.541
83.76000 16.086
83.78000 15.609
83.80000 9.627
83.82000 14.538
83.84000 16.146
83.86000 14.678
83.88000 14.979
83.90000 19.154
83.92000 15.768
83.94000 12.825
83.96000 11.592
83.98000 10.918
84.00000 9.626
84.02000 8.353
84.04000 10.294
84.06000 12.728
84.08000 11.987
84.10000 13.547
84.12000 8.078
84.14000 8.211
84.16000 12.588
84.18000 8.570
84.20000 10.891
84.22000 9.010
84.24000 6.815
84.26000 3.256
84.28000 6.092
84.30000 7.718
84.32000 7.336
84.34000 2.860
84.36000 4.851
84.38000 8.137
84.40000 7.675
84.42000 4.639
84.44000 1.642
84.46000 7.435
84.48000 4.648
84.50000 7.353
84.52000 8.326
84.54000 7.147
84.56000 6.931
84.58000 5.290
84.60000 7.799
84.62000 10.213
84.64000 9.079
84.66000 6.588
84.68000 6.168
84.70000 7.511
84.72000 6.231
84.74000 8.166
84.76000 4.615
84.78000 -1.143
84.80000 2.410
84.82000 2.656
84.84000 2.649
84.86000 3.242
84.88000 1.743
84.90000 3.164
84.92000 2.632
84.94000 6.459
84.96000 6.493
84.98000 9.007
85.00000 6.694
85.02000 8.514
85.04000 5.416
85.06000 3.976
85.08000 7.141
85.10000 4.115
85.12000 2.869
85.14000 3.203
85.16000 3.662
85.18000 4.633
85.20000 0.708
85.22000 -2.438
85.24000 1.254
85.26000 2.956
85.28000 3.413
85.30000 3.527
85.32000 0.282
85.34000 1.364
85.36000 4.324
85.38000 4.613
85.40000 4.531
85.42000 5.387
85.44000 6.693
85.46000 5.778
85.48000 5.277
85.50000 3.043
85.52000 3.562
85.54000 1.146
85.56000 7.195
85.58000 7.762
85.60000 2.418
85.62000 2.972
85.64000 6.442
85.66000 4.144
85.68000 2.691
85.70000 5.831
85.72000 5.200
85.74000 4.445
85.76000 4.888
85.78000 1.750
85.80000 -2.432
85.82000 3.930
85.84000 3.136
85.86000 2.726
85.88000 1.746
85.90000 6.844
85.92000 6.416
85.94000 5.819
85.96000 4.772
85.98000 6.542
86.00000 4.229
86.02000 2.576
86.04000 1.478
86.06000 5.262
86.08000 7.701
86.10000 4.124
86.12000 6.417
86.14000 3.286
86.16000 4.260
86.18000 10.748
86.20000 8.649
86.22000 11.248
86.24000 9.204
86.26000 5.352
86.28000 4.940
86.30000 5.940
86.32000 5.222
86.34000 5.103
86.36000 6.191
86.38000 7.784
86.40000 7.839
86.42000 4.105
86.44000 3.373
86.46000 3.280
86.48000 3.721
86.50000 1.525
86.52000 3.182
86.54000 5.216
86.56000 8.502
86.58000 5.311
86.60000 2.338
86.62000 5.509
86.64000 10.974
86.66000 13.301
86.68000 12.807
86.70000 13.665
86.72000 13.653
86.74000 11.929
86.76000 9.832
86.78000 15.617
86.80000 14.132
86.82000 12.407
86.84000 11.490
86.86000 10.849
86.88000 13.016
86.90000 13.002
86.92000 14.068
86.94000 19.838
86.96000 13.296
86.98000 9.553
87.00000 14.679
87.02000 14.195
87.04000 12.802
87.06000 14.639
87.08000 20.700
87.10000 18.583
87.12000 17.078
87.14000 17.588
87.16000 18.475
87.18000 16.264
87.20000 18.820
87.22000 17.940
87.24000 18.891
87.26000 16.812
87.28000 17.708
87.30000 24.011
87.32000 27.708
87.34000 25.928
87.36000 22.284
87.38000 18.395
87.40000 16.765
87.42000 20.869
87.44000 20.329
87.46000 20.476
87.48000 15.969
87.50000 20.248
87.52000 19.302
87.54000 22.110
87.56000 21.845
87.58000 20.698
87.60000 16.897
87.62000 17.479
87.64000 18.487
87.66000 18.303
87.68000 17.513
87.70000 20.853
87.72000 22.185
87.74000 18.997
87.76000 16.935
87.78000 17.488
87.80000 16.012
87.82000 13.927
87.84000 21.097
87.86000 22.874
87.88000 21.125
87.90000 16.319
87.92000 13.789
87.94000 21.561
87.96000 21.653
87.98000 14.506
88.00000 15.880
88.02000 12.017
88.04000 12.323
88.06000 10.702
88.08000 15.100
88.10000 11.477
88.12000 15.035
88.14000 15.859
88.16000 12.545
88.18000 11.277
88.20000 8.956
88.22000 9.800
88.24000 11.876
88.26000 11.273
88.28000 9.190
88.30000 9.094
88.32000 15.765
88.34000 10.490
88.36000 7.482
88.38000 7.392
88.40000 9.370
88.42000 4.675
88.44000 2.835
88.46000 1.941
88.48000 2.122
88.50000 5.868
88.52000 7.010
88.54000 5.911
88.56000 2.855
88.58000 2.709
88.60000 5.659
88.62000 6.974
88.64000 9.212
88.66000 4.486
88.68000 5.370
88.70000 3.790
88.72000 6.545
88.74000 7.220
88.76000 3.646
88.78000 7.615
88.80000 10.727
88.82000 8.749
88.84000 3.566
88.86000 2.048
88.88000 -0.664
88.90000 4.219
88.92000 4.847
88.94000 0.961
88.96000 5.817
88.98000 1.272
89.00000 -1.707
89.02000 -0.368
89.04000 2.337
89.06000 6.290
89.08000 7.381
89.10000 5.010
89.12000 8.537
89.14000 6.093
89.16000 0.175
89.18000 1.064
89.20000 7.438
89.22000 10.545
89.24000 6.165
89.26000 5.197
89.28000 3.259
89.30000 3.877
89.32000 4.193
89.34000 6.712
89.36000 6.871
89.38000 4.234
89.40000 4.654
89.42000 4.236
89.44000 7.407
89.46000 3.309
89.48000 3.979
89.50000 7.538
89.52000 8.642
89.54000 3.709
89.56000 -2.275
89.58000 3.378
89.60000 6.160
89.62000 5.556
89.64000 7.070
89.66000 8.184
89.68000 6.388
89.70000 5.476
89.72000 3.740
89.74000 8.442
89.76000 5.187
89.78000 3.152
89.80000 1.025
89.82000 3.081
89.84000 7.306
89.86000 7.051
89.88000 2.259
89.90000 1.233
89.92000 1.609
89.94000 3.505
89.96000 4.394
89.98000 6.327
90.00000 6.369
90.02000 3.239
90.04000 2.245
90.06000 3.767
90.08000 0.559
90.10000 0.141
90.12000 -2.283
90.14000 -0.481
90.16000 7.843
90.18000 6.867
90.20000 4.241
90.22000 -0.457
90.24000 4.154
90.26000 5.837
90.28000 4.055
90.30000 5.097
90.32000 4.351
90.34000 2.018
90.36000 5.344
90.38000 4.655
90.40000 2.733
90.42000 0.128
90.44000 2.780
90.46000 5.728
90.48000 2.721
90.50000 3.382
90.52000 5.823
90.54000 2.722
90.56000 2.662
90.58000 7.469
90.60000 7.662
90.62000 3.450
90.64000 -0.427
90.66000 0.393
90.68000 1.961
90.70000 4.330
90.72000 3.966
90.74000 5.620
90.76000 8.163
90.78000 10.653
90.80000 12.056
90.82000 6.319
90.84000 6.870
90.86000 7.143
90.88000 2.708
90.90000 1.256
90.92000 5.079
90.94000 4.624
90.96000 5.640
90.98000 -2.255
91.00000 0.849
91.02000 4.799
91.04000 4.872
91.06000 8.729
91.08000 7.958
91.10000 7.352
91.12000 7.400
91.14000 7.487
91.16000 11.834
91.18000 11.923
91.20000 4.016
91.22000 2.437
91.24000 1.478
91.26000 4.469
91.28000 7.815
91.30000 8.869
91.32000 9.710
91.34000 5.000
91.36000 2.830
91.38000 4.077
91.40000 5.132
91.42000 4.417
91.44000 1.777
91.46000 -2.252
91.48000 3.836
91.50000 10.200
91.52000 2.609
91.54000 -1.879
91.56000 -0.553
91.58000 3.467
91.60000 0.539
91.62000 0.780
91.64000 5.409
91.66000 3.630
91.68000 5.809
91.70000 8.302
91.72000 11.151
91.74000 9.242
91.76000 4.075
91.78000 8.963
91.80000 7.843
91.82000 7.007
91.84000 3.621
91.86000 4.166
91.88000 6.034
91.90000 5.709
91.92000 1.158
91.94000 -2.261
91.96000 4.787
91.98000 5.649
92.00000 2.562
92.02000 3.860
92.04000 1.178
92.06000 -0.045
92.08000 6.157
92.10000 2.707
92.12000 1.196
92.14000 3.477
92.16000 2.208
92.18000 -1.453
92.20000 5.059
92.22000 7.789
92.24000 8.810
92.26000 4.527
92.28000 0.280
92.30000 2.172
92.32000 5.026
92.34000 4.728
92.36000 4.654
92.38000 2.856
92.40000 0.463
92.42000 1.176
92.44000 -0.704
92.46000 -0.767
92.48000 0.629
92.50000 -1.453
92.52000 2.114
92.54000 6.465
92.56000 6.899
92.58000 10.943
92.60000 10.231
92.62000 1.642
92.64000 3.407
92.66000 1.795
92.68000 -0.520
92.70000 5.303
92.72000 10.619
92.74000 5.797
92.76000 4.770
92.78000 0.449
92.80000 2.747
92.82000 1.090
92.84000 2.267
92.86000 6.409
92.88000 7.150
92.90000 6.243
92.92000 2.154
92.94000 6.583
92.96000 9.468
92.98000 2.682
93.00000 -1.407
93.02000 -0.492
93.04000 5.424
93.06000 3.850
93.08000 3.298
93.10000 3.246
93.12000 6.492
93.14000 3.751
93.16000 3.398
93.18000 0.866
93.20000 1.989
93.22000 -1.799
93.24000 3.164
93.26000 1.072
93.28000 0.997
93.30000 1.268
93.32000 3.289
93.34000 1.942
93.36000 4.215
93.38000 5.877
93.40000 3.416
93.42000 0.478
93.44000 5.616
93.46000 5.763
93.48000 6.499
93.50000 -2.269
93.52000 1.648
93.54000 4.196
93.56000 4.834
93.58000 3.419
93.60000 0.347
93.62000 2.072
93.64000 3.937
93.66000 3.732
93.68000 7.422
93.70000 5.402
93.72000 4.434
93.74000 3.242
93.76000 4.469
93.78000 4.284
93.80000 6.137
93.82000 1.694
93.84000 5.663
93.86000 11.865
93.88000 8.058
93.90000 4.139
93.92000 7.227
93.94000 5.600
93.96000 3.132
93.98000 1.696
94.00000 5.045
94.02000 4.605
94.04000 4.818
94.06000 7.201
94.08000 10.480
94.10000 7.792
94.12000 5.207
94.14000 1.772
94.16000 -1.356
94.18000 -2.243
94.20000 4.400
94.22000 11.277
94.24000 6.852
94.26000 6.926
94.28000 9.007
94.30000 12.246
94.32000 10.088
94.34000 5.038
94.36000 4.792
94.38000 4.680
94.40000 10.070
94.42000 8.669
94.44000 6.931
94.46000 8.118
94.48000 3.362
94.50000 4.628
94.52000 4.962
94.54000 5.878
94.56000 5.201
94.58000 3.907
94.60000 2.210
94.62000 5.996
94.64000 7.861
94.66000 9.299
94.68000 10.338
94.70000 9.098
94.72000 7.821
94.74000 5.131
94.76000 6.062
94.78000 3.140
94.80000 3.126
94.82000 1.456
94.84000 -0.733
94.86000 1.105
94.88000 2.511
94.90000 4.727
94.92000 -1.374
94.94000 -1.238
94.96000 3.716
94.98000 3.363
95.00000 5.564
95.02000 -0.311
95.04000 0.637
95.06000 3.393
95.08000 -2.294
95.10000 3.834
95.12000 10.250
95.14000 11.747
95.16000 4.514
95.18000 1.126
95.20000 0.020
95.22000 3.420
95.24000 3.258
95.26000 2.358
95.28000 -1.352
95.30000 1.200
95.32000 -0.148
95.34000 3.644
95.36000 9.442
95.38000 9.959
95.40000 6.522
95.42000 2.023
95.44000 6.138
95.46000 5.495
95.48000 2.302
95.50000 9.299
95.52000 9.557
95.54000 8.155
95.56000 9.140
95.58000 9.310
95.60000 5.843
95.62000 2.955
95.64000 0.012
95.66000 1.400
95.68000 1.661
95.70000 2.034
95.72000 2.611
95.74000 4.785
95.76000 3.108
95.78000 1.805
95.80000 0.391
95.82000 1.398
95.84000 0.521
95.86000 4.160
95.88000 4.636
95.90000 -2.087
95.92000 -1.331
95.94000 1.069
95.96000 0.911
95.98000 2.606
96.00000 4.653
96.02000 6.349
96.04000 7.635
96.06000 6.287
96.08000 7.520
96.10000 2.420
96.12000 0.523
96.14000 -0.821
96.16000 -0.610
96.18000 2.336
96.20000 3.532
96.22000 6.841
96.24000 4.169
96.26000 0.999
96.28000 6.361
96.30000 -0.594
96.32000 -1.691
96.34000 -2.302
96.36000 2.063
96.38000 3.980
96.40000 4.240
96.42000 6.082
96.44000 6.980
96.46000 4.942
96.48000 7.443
96.50000 7.279
96.52000 9.332
96.54000 5.974
96.56000 2.266
96.58000 1.626
96.60000 -0.511
96.62000 -0.052
96.64000 -0.654
96.66000 5.930
96.68000 7.669
96.70000 6.620
96.72000 8.014
96.74000 7.716
96.76000 2.605
96.78000 0.203
96.80000 -2.282
96.82000 2.291
96.84000 6.142
96.86000 6.395
96.88000 6.123
96.90000 5.171
96.92000 5.237
96.94000 5.298
96.96000 5.978
96.98000 1.825
97.00000 -0.473
97.02000 2.938
97.04000 1.477
97.06000 6.069
97.08000 13.274
97.10000 5.105
97.12000 1.480
97.14000 6.259
97.16000 2.430
97.18000 0.683
97.20000 3.956
97.22000 5.806
97.24000 7.916
97.26000 2.353
97.28000 6.111
97.30000 5.559
97.32000 2.993
97.34000 2.584
97.36000 9.880
97.38000 9.269
97.40000 -0.339
97.42000 5.723
97.44000 5.659
97.46000 4.222
97.48000 0.561
97.50000 3.825
97.52000 7.899
97.54000 7.814
97.56000 0.170
97.58000 -2.233
97.60000 8.653
97.62000 6.919
97.64000 -0.044
97.66000 3.065
97.68000 10.048
97.70000 10.839
97.72000 9.779
97.74000 8.938
97.76000 11.358
97.78000 11.850
97.80000 8.187
97.82000 1.583
97.84000 6.659
97.86000 4.537
97.88000 3.060
97.90000 5.807
97.92000 -0.394
97.94000 1.224
97.96000 5.277
97.98000 2.531
98.00000 6.264
98.02000 7.753
98.04000 6.560
98.06000 2.399
98.08000 6.103
98.10000 2.659
98.12000 2.174
98.14000 2.591
98.16000 1.974
98.18000 7.544
98.20000 7.378
98.22000 2.204
98.24000 7.273
98.26000 7.531
98.28000 5.785
98.30000 4.264
98.32000 9.952
98.34000 7.948
98.36000 13.194
98.38000 6.720
98.40000 13.680
98.42000 8.504
98.44000 8.537
98.46000 6.292
98.48000 7.664
98.50000 8.169
98.52000 3.997
98.54000 10.182
98.56000 9.168
98.58000 7.156
98.60000 6.961
98.62000 12.424
98.64000 7.030
98.66000 2.255
98.68000 5.602
98.70000 6.445
98.72000 5.601
98.74000 13.580
98.76000 6.981
98.78000 2.889
98.80000 6.705
98.82000 11.112
98.84000 6.370
98.86000 1.377
98.88000 -2.088
98.90000 -2.164
98.92000 0.648
98.94000 11.219
98.96000 10.672
98.98000 14.593
99.00000 8.907
99.02000 12.585
99.04000 4.024
99.06000 3.588
99.08000 6.468
99.10000 15.053
99.12000 14.745
99.14000 13.328
99.16000 15.731
99.18000 10.099
99.20000 11.720
99.22000 6.081
99.24000 1.581
99.26000 6.828
99.28000 6.127
99.30000 4.444
99.32000 8.143
99.34000 8.645
99.36000 10.582
99.38000 14.333
99.40000 12.739
99.42000 11.551
99.44000 6.271
99.46000 -2.226
99.48000 1.851
99.50000 4.428
99.52000 9.541
99.54000 3.682
99.56000 9.012
99.58000 5.931
99.60000 7.747
99.62000 7.125
99.64000 6.229
99.66000 10.607
99.68000 12.392
99.70000 9.196
99.72000 9.596
99.74000 -2.253
99.76000 0.405
99.78000 6.237
99.80000 1.395
99.82000 10.286
99.84000 7.748
99.86000 17.285
99.88000 3.251
99.90000 -2.442
99.92000 -1.108
99.94000 -0.615
99.96000 0.745
99.98000 0.000
