'Id: "0011389" Comment: "Integrate frame 0011389_Au-Ir-Rh_Au-Rich_XRD_Mapping-300-0000.gfrmwith cursor Wedge Cursor #5" Operator: "B?rgel" Anode: "Cu" Wavelength: "1.5406" Scantype: "2Theta (TwoTheta)" TimePerStep: "1" X: "-13.5" Y: "31.5" Z: "5.95" 
10.00000 0.000
10.02000 -4.550
10.04000 10.831
10.06000 22.043
10.08000 15.593
10.10000 8.611
10.12000 3.776
10.14000 6.826
10.16000 16.431
10.18000 18.402
10.20000 1.764
10.22000 -4.515
10.24000 10.288
10.26000 12.769
10.28000 13.970
10.30000 13.103
10.32000 3.326
10.34000 13.514
10.36000 14.774
10.38000 2.266
10.40000 8.173
10.42000 18.080
10.44000 21.400
10.46000 19.580
10.48000 8.222
10.50000 -1.381
10.52000 12.641
10.54000 21.007
10.56000 24.856
10.58000 3.583
10.60000 0.594
10.62000 6.687
10.64000 -2.747
10.66000 -4.498
10.68000 1.141
10.70000 1.745
10.72000 4.067
10.74000 19.790
10.76000 20.436
10.78000 11.357
10.80000 33.477
10.82000 28.737
10.84000 12.717
10.86000 16.315
10.88000 14.727
10.90000 28.495
10.92000 22.469
10.94000 19.968
10.96000 7.058
10.98000 8.215
11.00000 8.601
11.02000 8.467
11.04000 1.140
11.06000 3.903
11.08000 20.056
11.10000 12.930
11.12000 11.581
11.14000 6.372
11.16000 8.505
11.18000 13.882
11.20000 15.162
11.22000 17.606
11.24000 15.097
11.26000 23.050
11.28000 26.692
11.30000 19.750
11.32000 20.450
11.34000 21.241
11.36000 13.388
11.38000 9.870
11.40000 18.077
11.42000 19.183
11.44000 5.008
11.46000 -3.379
11.48000 0.459
11.50000 5.147
11.52000 0.540
11.54000 1.311
11.56000 17.107
11.58000 13.060
11.60000 10.126
11.62000 14.055
11.64000 4.204
11.66000 -3.492
11.68000 -4.511
11.70000 1.992
11.72000 0.333
11.74000 7.642
11.76000 14.724
11.78000 16.923
11.80000 16.629
11.82000 9.287
11.84000 6.390
11.86000 -1.254
11.88000 4.115
11.90000 9.521
11.92000 9.332
11.94000 25.174
11.96000 24.984
11.98000 11.374
12.00000 5.257
12.02000 11.050
12.04000 13.329
12.06000 18.037
12.08000 13.440
12.10000 17.683
12.12000 10.436
12.14000 20.494
12.16000 21.454
12.18000 12.122
12.20000 14.902
12.22000 8.796
12.24000 9.778
12.26000 0.425
12.28000 12.503
12.30000 18.716
12.32000 15.611
12.34000 17.942
12.36000 3.328
12.38000 15.563
12.40000 21.465
12.42000 5.578
12.44000 16.039
12.46000 16.991
12.48000 16.458
12.50000 12.993
12.52000 18.235
12.54000 7.686
12.56000 2.435
12.58000 6.420
12.60000 9.458
12.62000 13.654
12.64000 14.609
12.66000 11.445
12.68000 8.294
12.70000 6.995
12.72000 4.428
12.74000 8.371
12.76000 8.773
12.78000 11.881
12.80000 14.493
12.82000 13.153
12.84000 6.906
12.86000 8.574
12.88000 1.396
12.90000 5.180
12.92000 7.462
12.94000 11.951
12.96000 5.294
12.98000 12.113
13.00000 8.612
13.02000 -0.898
13.04000 7.502
13.06000 17.368
13.08000 14.671
13.10000 17.799
13.12000 8.460
13.14000 8.495
13.16000 14.803
13.18000 17.395
13.20000 12.006
13.22000 8.509
13.24000 10.485
13.26000 14.141
13.28000 7.264
13.30000 11.419
13.32000 17.536
13.34000 13.410
13.36000 7.585
13.38000 8.079
13.40000 16.573
13.42000 14.287
13.44000 6.086
13.46000 8.718
13.48000 7.193
13.50000 10.604
13.52000 9.937
13.54000 20.300
13.56000 22.844
13.58000 25.419
13.60000 21.382
13.62000 9.516
13.64000 9.955
13.66000 18.495
13.68000 8.638
13.70000 -0.341
13.72000 6.086
13.74000 19.669
13.76000 10.452
13.78000 19.645
13.80000 25.703
13.82000 19.705
13.84000 9.481
13.86000 4.533
13.88000 10.282
13.90000 5.927
13.92000 10.792
13.94000 7.899
13.96000 7.016
13.98000 8.298
14.00000 8.937
14.02000 10.931
14.04000 10.040
14.06000 11.911
14.08000 17.610
14.10000 11.809
14.12000 4.949
14.14000 3.457
14.16000 6.221
14.18000 8.527
14.20000 2.671
14.22000 6.346
14.24000 10.162
14.26000 11.486
14.28000 9.927
14.30000 7.688
14.32000 6.522
14.34000 8.144
14.36000 4.222
14.38000 5.717
14.40000 12.914
14.42000 11.586
14.44000 11.757
14.46000 10.713
14.48000 14.579
14.50000 6.791
14.52000 5.977
14.54000 10.610
14.56000 2.856
14.58000 4.814
14.60000 17.084
14.62000 15.509
14.64000 10.551
14.66000 -0.921
14.68000 8.278
14.70000 4.923
14.72000 0.745
14.74000 3.858
14.76000 2.839
14.78000 3.744
14.80000 -4.500
14.82000 -2.386
14.84000 1.284
14.86000 7.334
14.88000 7.773
14.90000 7.076
14.92000 7.309
14.94000 12.321
14.96000 11.164
14.98000 7.762
15.00000 22.105
15.02000 18.413
15.04000 1.390
15.06000 -4.495
15.08000 8.749
15.10000 7.103
15.12000 10.228
15.14000 8.852
15.16000 -2.381
15.18000 -1.892
15.20000 1.028
15.22000 5.020
15.24000 3.729
15.26000 12.404
15.28000 9.642
15.30000 9.742
15.32000 8.560
15.34000 7.970
15.36000 3.516
15.38000 5.765
15.40000 7.853
15.42000 8.720
15.44000 5.723
15.46000 4.911
15.48000 12.579
15.50000 8.058
15.52000 9.881
15.54000 10.003
15.56000 11.060
15.58000 14.884
15.60000 5.489
15.62000 2.884
15.64000 6.879
15.66000 4.941
15.68000 0.387
15.70000 -3.122
15.72000 10.121
15.74000 7.965
15.76000 8.518
15.78000 8.970
15.80000 0.216
15.82000 2.188
15.84000 -2.173
15.86000 5.245
15.88000 5.786
15.90000 6.509
15.92000 13.852
15.94000 15.407
15.96000 12.927
15.98000 7.288
16.00000 5.826
16.02000 -3.140
16.04000 5.736
16.06000 -0.547
16.08000 -0.744
16.10000 4.788
16.12000 11.559
16.14000 5.758
16.16000 -2.297
16.18000 4.419
16.20000 7.317
16.22000 9.901
16.24000 6.404
16.26000 1.714
16.28000 4.872
16.30000 10.922
16.32000 12.950
16.34000 16.973
16.36000 15.412
16.38000 1.687
16.40000 -3.537
16.42000 4.688
16.44000 1.018
16.46000 -3.254
16.48000 1.812
16.50000 7.595
16.52000 9.354
16.54000 4.837
16.56000 4.728
16.58000 2.761
16.60000 7.056
16.62000 1.053
16.64000 3.313
16.66000 6.586
16.68000 11.169
16.70000 1.077
16.72000 -4.460
16.74000 4.495
16.76000 9.986
16.78000 8.814
16.80000 6.737
16.82000 11.117
16.84000 8.020
16.86000 9.700
16.88000 12.851
16.90000 11.111
16.92000 11.594
16.94000 4.393
16.96000 2.778
16.98000 6.681
17.00000 -0.847
17.02000 1.567
17.04000 2.469
17.06000 7.287
17.08000 6.225
17.10000 2.725
17.12000 6.862
17.14000 9.586
17.16000 6.748
17.18000 4.423
17.20000 1.686
17.22000 7.997
17.24000 13.612
17.26000 12.347
17.28000 7.474
17.30000 7.536
17.32000 -1.900
17.34000 -1.683
17.36000 1.484
17.38000 11.250
17.40000 6.081
17.42000 5.679
17.44000 11.122
17.46000 12.907
17.48000 6.029
17.50000 4.253
17.52000 -3.819
17.54000 0.879
17.56000 5.231
17.58000 0.426
17.60000 3.882
17.62000 5.441
17.64000 6.823
17.66000 2.887
17.68000 1.459
17.70000 7.606
17.72000 5.831
17.74000 5.598
17.76000 3.262
17.78000 1.046
17.80000 6.811
17.82000 4.792
17.84000 -2.394
17.86000 -0.069
17.88000 4.001
17.90000 -0.534
17.92000 -4.389
17.94000 2.080
17.96000 8.627
17.98000 15.309
18.00000 16.352
18.02000 9.461
18.04000 1.388
18.06000 0.131
18.08000 5.416
18.10000 9.007
18.12000 12.144
18.14000 7.638
18.16000 0.265
18.18000 1.395
18.20000 9.163
18.22000 6.277
18.24000 10.606
18.26000 8.652
18.28000 2.896
18.30000 0.615
18.32000 5.504
18.34000 5.830
18.36000 7.336
18.38000 0.639
18.40000 1.291
18.42000 0.859
18.44000 0.038
18.46000 0.321
18.48000 2.789
18.50000 6.385
18.52000 1.403
18.54000 -4.352
18.56000 1.201
18.58000 1.487
18.60000 1.606
18.62000 3.721
18.64000 3.419
18.66000 9.211
18.68000 11.535
18.70000 4.297
18.72000 2.287
18.74000 2.988
18.76000 4.984
18.78000 0.931
18.80000 3.033
18.82000 10.067
18.84000 10.030
18.86000 -1.996
18.88000 -3.349
18.90000 1.299
18.92000 9.021
18.94000 5.779
18.96000 4.990
18.98000 6.702
19.00000 3.592
19.02000 6.444
19.04000 7.115
19.06000 4.341
19.08000 4.659
19.10000 2.610
19.12000 0.891
19.14000 1.764
19.16000 5.069
19.18000 4.833
19.20000 3.381
19.22000 3.762
19.24000 6.834
19.26000 5.604
19.28000 0.875
19.30000 -4.318
19.32000 -0.665
19.34000 4.235
19.36000 6.469
19.38000 5.147
19.40000 -0.121
19.42000 -1.804
19.44000 2.649
19.46000 1.269
19.48000 0.060
19.50000 0.514
19.52000 0.530
19.54000 5.226
19.56000 0.653
19.58000 -0.554
19.60000 2.628
19.62000 2.114
19.64000 4.587
19.66000 -0.360
19.68000 0.015
19.70000 -1.270
19.72000 3.104
19.74000 8.574
19.76000 7.224
19.78000 4.502
19.80000 4.710
19.82000 -0.472
19.84000 -0.578
19.86000 2.453
19.88000 5.515
19.90000 -0.298
19.92000 7.514
19.94000 9.400
19.96000 1.168
19.98000 2.042
20.00000 5.105
20.02000 0.826
20.04000 2.021
20.06000 3.009
20.08000 8.409
20.10000 4.647
20.12000 -1.400
20.14000 -2.346
20.16000 -3.220
20.18000 0.808
20.20000 -2.000
20.22000 0.766
20.24000 2.873
20.26000 -4.254
20.28000 -0.351
20.30000 2.156
20.32000 2.064
20.34000 1.564
20.36000 2.718
20.38000 7.525
20.40000 3.686
20.42000 -2.609
20.44000 -1.801
20.46000 -4.144
20.48000 0.896
20.50000 3.048
20.52000 10.782
20.54000 1.862
20.56000 3.976
20.58000 5.606
20.60000 5.721
20.62000 4.626
20.64000 8.857
20.66000 8.991
20.68000 3.139
20.70000 4.588
20.72000 3.404
20.74000 -2.888
20.76000 2.031
20.78000 1.699
20.80000 7.569
20.82000 14.900
20.84000 7.227
20.86000 2.163
20.88000 9.961
20.90000 9.156
20.92000 8.027
20.94000 6.589
20.96000 2.488
20.98000 1.408
21.00000 1.196
21.02000 7.028
21.04000 -2.679
21.06000 -4.196
21.08000 -1.748
21.10000 3.679
21.12000 1.544
21.14000 4.992
21.16000 3.330
21.18000 0.420
21.20000 1.784
21.22000 2.971
21.24000 1.827
21.26000 4.122
21.28000 3.208
21.30000 3.903
21.32000 -0.161
21.34000 0.344
21.36000 4.586
21.38000 8.119
21.40000 7.842
21.42000 0.022
21.44000 7.297
21.46000 9.708
21.48000 6.647
21.50000 2.049
21.52000 10.829
21.54000 9.474
21.56000 4.034
21.58000 4.090
21.60000 4.233
21.62000 0.624
21.64000 2.593
21.66000 -3.775
21.68000 0.815
21.70000 4.998
21.72000 8.570
21.74000 8.657
21.76000 0.748
21.78000 7.180
21.80000 9.984
21.82000 7.089
21.84000 3.297
21.86000 4.757
21.88000 7.865
21.90000 0.751
21.92000 1.963
21.94000 5.471
21.96000 0.254
21.98000 4.761
22.00000 5.456
22.02000 3.893
22.04000 13.086
22.06000 6.025
22.08000 3.617
22.10000 6.660
22.12000 7.926
22.14000 7.265
22.16000 7.828
22.18000 0.139
22.20000 -0.740
22.22000 3.607
22.24000 3.292
22.26000 2.130
22.28000 5.738
22.30000 2.098
22.32000 4.152
22.34000 0.101
22.36000 -0.402
22.38000 -4.126
22.40000 -1.500
22.42000 9.486
22.44000 8.778
22.46000 9.216
22.48000 9.949
22.50000 8.279
22.52000 3.844
22.54000 5.599
22.56000 5.979
22.58000 0.374
22.60000 3.201
22.62000 5.745
22.64000 -1.353
22.66000 0.397
22.68000 -1.099
22.70000 8.147
22.72000 15.267
22.74000 8.200
22.76000 8.820
22.78000 12.199
22.80000 7.008
22.82000 6.986
22.84000 3.591
22.86000 2.634
22.88000 -1.085
22.90000 2.731
22.92000 6.014
22.94000 2.966
22.96000 5.895
22.98000 4.901
23.00000 3.438
23.02000 0.930
23.04000 6.157
23.06000 6.022
23.08000 2.486
23.10000 1.426
23.12000 4.593
23.14000 -3.467
23.16000 -2.594
23.18000 -2.633
23.20000 1.634
23.22000 3.677
23.24000 5.190
23.26000 5.599
23.28000 4.651
23.30000 3.743
23.32000 3.300
23.34000 1.435
23.36000 1.050
23.38000 7.358
23.40000 6.346
23.42000 3.673
23.44000 6.885
23.46000 -3.637
23.48000 -2.907
23.50000 3.510
23.52000 6.610
23.54000 -0.235
23.56000 -2.300
23.58000 1.846
23.60000 3.856
23.62000 -0.761
23.64000 -3.215
23.66000 -2.195
23.68000 3.416
23.70000 -0.880
23.72000 0.766
23.74000 12.364
23.76000 8.184
23.78000 -4.055
23.80000 -2.576
23.82000 0.253
23.84000 1.616
23.86000 1.256
23.88000 4.598
23.90000 7.493
23.92000 5.569
23.94000 -3.698
23.96000 0.319
23.98000 1.936
24.00000 1.580
24.02000 0.480
24.04000 9.732
24.06000 2.556
24.08000 -1.866
24.10000 2.621
24.12000 5.899
24.14000 3.630
24.16000 -1.445
24.18000 7.215
24.20000 2.866
24.22000 4.998
24.24000 2.530
24.26000 2.181
24.28000 3.245
24.30000 2.831
24.32000 -4.016
24.34000 0.090
24.36000 10.496
24.38000 11.821
24.40000 8.520
24.42000 4.493
24.44000 5.288
24.46000 5.582
24.48000 4.418
24.50000 -3.154
24.52000 -1.037
24.54000 -0.973
24.56000 8.694
24.58000 3.840
24.60000 2.723
24.62000 10.493
24.64000 8.543
24.66000 0.793
24.68000 0.930
24.70000 4.459
24.72000 -3.303
24.74000 0.801
24.76000 4.413
24.78000 2.475
24.80000 2.770
24.82000 6.781
24.84000 7.889
24.86000 6.296
24.88000 7.180
24.90000 6.393
24.92000 2.587
24.94000 -0.971
24.96000 -1.030
24.98000 0.836
25.00000 -2.070
25.02000 3.882
25.04000 1.227
25.06000 2.836
25.08000 3.572
25.10000 -1.266
25.12000 -1.623
25.14000 0.959
25.16000 4.413
25.18000 7.169
25.20000 8.195
25.22000 5.174
25.24000 4.819
25.26000 4.694
25.28000 6.965
25.30000 4.707
25.32000 2.671
25.34000 6.458
25.36000 6.707
25.38000 8.095
25.40000 0.524
25.42000 -3.258
25.44000 2.978
25.46000 8.019
25.48000 6.452
25.50000 1.337
25.52000 6.443
25.54000 5.001
25.56000 3.791
25.58000 5.842
25.60000 1.103
25.62000 1.305
25.64000 10.059
25.66000 7.308
25.68000 4.400
25.70000 -0.557
25.72000 -3.944
25.74000 -0.491
25.76000 5.417
25.78000 9.607
25.80000 9.461
25.82000 5.787
25.84000 2.973
25.86000 5.019
25.88000 6.030
25.90000 8.546
25.92000 2.076
25.94000 1.136
25.96000 4.149
25.98000 3.408
26.00000 3.561
26.02000 4.396
26.04000 6.066
26.06000 1.631
26.08000 2.168
26.10000 4.598
26.12000 -2.861
26.14000 4.571
26.16000 3.829
26.18000 3.802
26.20000 5.419
26.22000 -0.573
26.24000 -1.789
26.26000 7.141
26.28000 6.342
26.30000 4.781
26.32000 1.693
26.34000 -2.630
26.36000 4.002
26.38000 5.973
26.40000 1.525
26.42000 -1.454
26.44000 -2.493
26.46000 -2.958
26.48000 6.368
26.50000 12.580
26.52000 5.543
26.54000 -3.249
26.56000 2.696
26.58000 5.652
26.60000 3.289
26.62000 3.104
26.64000 7.024
26.66000 5.525
26.68000 2.342
26.70000 0.624
26.72000 3.178
26.74000 1.362
26.76000 1.104
26.78000 0.901
26.80000 6.143
26.82000 4.841
26.84000 -2.192
26.86000 3.081
26.88000 1.436
26.90000 -0.975
26.92000 -0.339
26.94000 2.685
26.96000 5.820
26.98000 3.448
27.00000 -0.103
27.02000 -0.259
27.04000 6.772
27.06000 6.340
27.08000 4.310
27.10000 -1.455
27.12000 -0.537
27.14000 1.298
27.16000 1.050
27.18000 2.937
27.20000 5.828
27.22000 8.983
27.24000 4.900
27.26000 -0.334
27.28000 -3.863
27.30000 -0.911
27.32000 6.932
27.34000 6.417
27.36000 3.814
27.38000 2.285
27.40000 5.407
27.42000 6.225
27.44000 5.324
27.46000 2.322
27.48000 -1.756
27.50000 0.182
27.52000 4.600
27.54000 2.882
27.56000 5.282
27.58000 5.605
27.60000 7.066
27.62000 4.350
27.64000 6.018
27.66000 7.604
27.68000 2.411
27.70000 1.475
27.72000 4.922
27.74000 9.745
27.76000 6.096
27.78000 9.447
27.80000 7.443
27.82000 1.122
27.84000 5.113
27.86000 6.001
27.88000 2.611
27.90000 3.764
27.92000 7.811
27.94000 2.165
27.96000 3.198
27.98000 7.366
28.00000 5.115
28.02000 3.475
28.04000 1.424
28.06000 2.033
28.08000 2.926
28.10000 4.905
28.12000 1.608
28.14000 -2.745
28.16000 0.712
28.18000 4.239
28.20000 3.782
28.22000 3.875
28.24000 4.265
28.26000 4.853
28.28000 5.232
28.30000 2.945
28.32000 -1.508
28.34000 0.220
28.36000 3.306
28.38000 7.530
28.40000 8.968
28.42000 2.999
28.44000 2.268
28.46000 1.813
28.48000 1.444
28.50000 4.485
28.52000 3.078
28.54000 5.941
28.56000 1.144
28.58000 -0.156
28.60000 1.967
28.62000 5.529
28.64000 1.812
28.66000 5.193
28.68000 5.820
28.70000 5.471
28.72000 2.664
28.74000 2.838
28.76000 9.428
28.78000 7.693
28.80000 7.546
28.82000 9.153
28.84000 4.079
28.86000 6.277
28.88000 5.477
28.90000 4.151
28.92000 9.211
28.94000 11.312
28.96000 6.747
28.98000 7.831
29.00000 10.575
29.02000 4.941
29.04000 5.236
29.06000 5.359
29.08000 12.396
29.10000 7.606
29.12000 1.013
29.14000 1.316
29.16000 5.364
29.18000 8.929
29.20000 9.678
29.22000 10.077
29.24000 8.793
29.26000 2.692
29.28000 -3.707
29.30000 -0.385
29.32000 2.750
29.34000 6.345
29.36000 20.398
29.38000 12.419
29.40000 3.159
29.42000 2.892
29.44000 8.304
29.46000 6.182
29.48000 4.465
29.50000 8.108
29.52000 3.566
29.54000 2.407
29.56000 4.626
29.58000 7.962
29.60000 3.641
29.62000 -0.890
29.64000 3.132
29.66000 4.635
29.68000 7.445
29.70000 5.773
29.72000 7.526
29.74000 2.587
29.76000 2.527
29.78000 2.540
29.80000 4.234
29.82000 6.328
29.84000 8.910
29.86000 7.250
29.88000 8.755
29.90000 12.029
29.92000 6.887
29.94000 4.272
29.96000 3.175
29.98000 0.799
30.00000 1.129
30.02000 6.900
30.04000 7.076
30.06000 7.015
30.08000 8.655
30.10000 7.295
30.12000 3.031
30.14000 5.363
30.16000 8.068
30.18000 4.760
30.20000 2.140
30.22000 1.212
30.24000 3.969
30.26000 2.017
30.28000 1.350
30.30000 3.997
30.32000 5.136
30.34000 0.160
30.36000 0.807
30.38000 4.517
30.40000 3.457
30.42000 8.330
30.44000 5.174
30.46000 0.058
30.48000 -0.254
30.50000 -1.271
30.52000 0.191
30.54000 5.204
30.56000 6.033
30.58000 5.525
30.60000 6.237
30.62000 2.734
30.64000 2.527
30.66000 3.978
30.68000 6.871
30.70000 8.267
30.72000 10.668
30.74000 3.156
30.76000 -0.324
30.78000 0.226
30.80000 4.699
30.82000 3.148
30.84000 2.644
30.86000 0.764
30.88000 -0.410
30.90000 0.745
30.92000 2.696
30.94000 2.246
30.96000 1.509
30.98000 2.643
31.00000 2.727
31.02000 0.661
31.04000 5.053
31.06000 5.805
31.08000 7.018
31.10000 6.067
31.12000 1.989
31.14000 0.898
31.16000 7.214
31.18000 4.063
31.20000 2.536
31.22000 4.156
31.24000 3.129
31.26000 3.578
31.28000 5.434
31.30000 4.453
31.32000 4.332
31.34000 6.604
31.36000 0.702
31.38000 -3.672
31.40000 6.108
31.42000 2.277
31.44000 -1.849
31.46000 -3.672
31.48000 5.535
31.50000 4.966
31.52000 6.817
31.54000 7.299
31.56000 0.958
31.58000 -0.120
31.60000 2.540
31.62000 3.653
31.64000 3.484
31.66000 2.220
31.68000 1.139
31.70000 3.337
31.72000 4.347
31.74000 2.929
31.76000 2.546
31.78000 2.544
31.80000 6.639
31.82000 5.413
31.84000 6.337
31.86000 4.805
31.88000 0.979
31.90000 2.753
31.92000 3.043
31.94000 4.323
31.96000 6.522
31.98000 0.754
32.00000 3.722
32.02000 3.436
32.04000 -0.265
32.06000 5.345
32.08000 -0.746
32.10000 -0.640
32.12000 -3.674
32.14000 -3.033
32.16000 2.552
32.18000 6.385
32.20000 5.479
32.22000 0.486
32.24000 3.334
32.26000 2.895
32.28000 6.032
32.30000 4.426
32.32000 0.360
32.34000 -0.835
32.36000 2.083
32.38000 2.949
32.40000 0.263
32.42000 -3.022
32.44000 -1.319
32.46000 0.123
32.48000 -2.662
32.50000 -0.279
32.52000 -3.180
32.54000 0.287
32.56000 -0.985
32.58000 -1.034
32.60000 3.768
32.62000 6.126
32.64000 -1.824
32.66000 -0.962
32.68000 2.396
32.70000 3.489
32.72000 4.420
32.74000 0.040
32.76000 2.336
32.78000 0.692
32.80000 -0.478
32.82000 2.839
32.84000 2.331
32.86000 -0.027
32.88000 0.739
32.90000 -1.920
32.92000 1.941
32.94000 4.353
32.96000 1.693
32.98000 2.893
33.00000 2.006
33.02000 -0.919
33.04000 -1.592
33.06000 -1.068
33.08000 -3.650
33.10000 -1.831
33.12000 4.026
33.14000 5.139
33.16000 7.972
33.18000 2.786
33.20000 -3.282
33.22000 -0.970
33.24000 2.010
33.26000 -0.571
33.28000 -0.471
33.30000 1.843
33.32000 -3.646
33.34000 1.049
33.36000 3.157
33.38000 5.725
33.40000 5.653
33.42000 2.331
33.44000 1.991
33.46000 0.729
33.48000 4.250
33.50000 1.426
33.52000 2.975
33.54000 5.757
33.56000 5.513
33.58000 2.439
33.60000 -0.345
33.62000 6.421
33.64000 5.589
33.66000 5.248
33.68000 4.103
33.70000 5.104
33.72000 6.838
33.74000 2.562
33.76000 3.850
33.78000 6.237
33.80000 3.637
33.82000 4.303
33.84000 0.418
33.86000 -0.658
33.88000 4.105
33.90000 6.359
33.92000 2.866
33.94000 0.653
33.96000 0.569
33.98000 0.724
34.00000 -3.644
34.02000 -2.094
34.04000 1.963
34.06000 0.509
34.08000 9.403
34.10000 7.421
34.12000 0.122
34.14000 -2.315
34.16000 1.119
34.18000 2.166
34.20000 1.198
34.22000 0.181
34.24000 3.137
34.26000 5.051
34.28000 2.040
34.30000 2.751
34.32000 -0.772
34.34000 4.051
34.36000 -0.600
34.38000 1.737
34.40000 5.033
34.42000 7.959
34.44000 5.526
34.46000 8.189
34.48000 5.067
34.50000 0.350
34.52000 0.958
34.54000 4.184
34.56000 3.002
34.58000 -0.998
34.60000 1.275
34.62000 3.271
34.64000 -2.674
34.66000 -0.304
34.68000 0.763
34.70000 -3.632
34.72000 0.650
34.74000 4.415
34.76000 1.207
34.78000 -1.112
34.80000 -0.093
34.82000 2.985
34.84000 4.446
34.86000 4.689
34.88000 10.988
34.90000 6.566
34.92000 1.901
34.94000 1.878
34.96000 1.227
34.98000 5.545
35.00000 7.229
35.02000 0.629
35.04000 -0.911
35.06000 0.459
35.08000 -0.246
35.10000 0.587
35.12000 2.438
35.14000 5.965
35.16000 7.742
35.18000 1.930
35.20000 1.224
35.22000 0.027
35.24000 4.441
35.26000 3.440
35.28000 -2.213
35.30000 -3.624
35.32000 1.840
35.34000 3.766
35.36000 2.661
35.38000 3.893
35.40000 8.862
35.42000 3.344
35.44000 5.569
35.46000 10.509
35.48000 6.824
35.50000 1.293
35.52000 -2.216
35.54000 1.470
35.56000 -1.008
35.58000 1.207
35.60000 2.880
35.62000 -1.264
35.64000 -1.942
35.66000 -2.581
35.68000 3.118
35.70000 12.663
35.72000 6.241
35.74000 -1.180
35.76000 1.222
35.78000 2.315
35.80000 3.697
35.82000 6.367
35.84000 0.151
35.86000 0.166
35.88000 4.199
35.90000 3.853
35.92000 -3.655
35.94000 -2.263
35.96000 0.761
35.98000 5.065
36.00000 2.087
36.02000 0.511
36.04000 -0.355
36.06000 1.064
36.08000 0.312
36.10000 1.999
36.12000 -0.841
36.14000 0.012
36.16000 1.313
36.18000 6.657
36.20000 8.312
36.22000 9.024
36.24000 6.631
36.26000 3.182
36.28000 2.109
36.30000 3.180
36.32000 6.216
36.34000 5.746
36.36000 3.705
36.38000 4.003
36.40000 7.426
36.42000 4.771
36.44000 0.419
36.46000 0.844
36.48000 1.241
36.50000 0.886
36.52000 2.941
36.54000 2.352
36.56000 4.662
36.58000 3.425
36.60000 3.691
36.62000 4.733
36.64000 6.379
36.66000 7.172
36.68000 10.781
36.70000 10.374
36.72000 9.276
36.74000 6.906
36.76000 11.672
36.78000 9.202
36.80000 8.613
36.82000 10.553
36.84000 10.434
36.86000 7.027
36.88000 5.512
36.90000 9.609
36.92000 17.366
36.94000 9.542
36.96000 5.921
36.98000 6.686
37.00000 9.535
37.02000 9.199
37.04000 6.243
37.06000 8.100
37.08000 13.362
37.10000 14.734
37.12000 21.058
37.14000 17.251
37.16000 20.095
37.18000 16.429
37.20000 13.638
37.22000 8.076
37.24000 13.123
37.26000 14.636
37.28000 18.441
37.30000 19.749
37.32000 21.148
37.34000 22.476
37.36000 24.686
37.38000 21.045
37.40000 18.108
37.42000 15.396
37.44000 11.894
37.46000 21.000
37.48000 19.257
37.50000 17.929
37.52000 19.188
37.54000 22.614
37.56000 24.791
37.58000 23.542
37.60000 21.650
37.62000 25.125
37.64000 26.541
37.66000 30.926
37.68000 32.394
37.70000 32.405
37.72000 29.658
37.74000 32.716
37.76000 30.324
37.78000 31.612
37.80000 32.590
37.82000 34.605
37.84000 34.174
37.86000 38.910
37.88000 41.418
37.90000 41.883
37.92000 39.174
37.94000 38.355
37.96000 40.614
37.98000 43.521
38.00000 46.488
38.02000 51.282
38.04000 50.840
38.06000 49.100
38.08000 48.636
38.10000 51.004
38.12000 54.545
38.14000 60.122
38.16000 64.026
38.18000 70.985
38.20000 67.978
38.22000 67.745
38.24000 74.069
38.26000 84.805
38.28000 88.476
38.30000 92.226
38.32000 92.523
38.34000 100.592
38.36000 102.581
38.38000 112.220
38.40000 119.971
38.42000 121.525
38.44000 121.421
38.46000 134.047
38.48000 146.168
38.50000 154.046
38.52000 160.484
38.54000 168.870
38.56000 177.838
38.58000 186.714
38.60000 191.287
38.62000 208.726
38.64000 225.791
38.66000 234.724
38.68000 243.504
38.70000 258.044
38.72000 267.560
38.74000 266.869
38.76000 283.393
38.78000 285.262
38.80000 287.571
38.82000 292.355
38.84000 292.624
38.86000 299.166
38.88000 311.093
38.90000 298.464
38.92000 291.350
38.94000 297.482
38.96000 292.834
38.98000 289.506
39.00000 285.455
39.02000 273.354
39.04000 263.087
39.06000 257.471
39.08000 240.936
39.10000 228.686
39.12000 211.516
39.14000 204.298
39.16000 200.053
39.18000 184.224
39.20000 174.088
39.22000 170.683
39.24000 161.051
39.26000 148.764
39.28000 140.061
39.30000 132.646
39.32000 126.220
39.34000 117.469
39.36000 109.949
39.38000 103.156
39.40000 99.415
39.42000 94.805
39.44000 82.772
39.46000 78.576
39.48000 81.392
39.50000 75.204
39.52000 74.640
39.54000 72.664
39.56000 64.524
39.58000 57.214
39.60000 61.481
39.62000 54.098
39.64000 49.630
39.66000 48.524
39.68000 49.285
39.70000 46.413
39.72000 47.396
39.74000 41.121
39.76000 43.793
39.78000 38.125
39.80000 32.323
39.82000 34.380
39.84000 27.774
39.86000 30.354
39.88000 33.082
39.90000 32.857
39.92000 28.201
39.94000 21.981
39.96000 24.988
39.98000 23.249
40.00000 24.124
40.02000 23.701
40.04000 20.449
40.06000 20.641
40.08000 23.180
40.10000 25.444
40.12000 23.705
40.14000 26.972
40.16000 23.652
40.18000 18.101
40.20000 17.196
40.22000 18.441
40.24000 17.556
40.26000 15.386
40.28000 17.897
40.30000 16.802
40.32000 16.841
40.34000 14.061
40.36000 15.453
40.38000 12.829
40.40000 12.298
40.42000 10.437
40.44000 10.383
40.46000 7.340
40.48000 6.584
40.50000 6.261
40.52000 10.439
40.54000 10.062
40.56000 7.448
40.58000 11.255
40.60000 11.978
40.62000 7.868
40.64000 7.526
40.66000 8.894
40.68000 9.461
40.70000 4.469
40.72000 1.278
40.74000 2.843
40.76000 3.574
40.78000 5.185
40.80000 4.599
40.82000 4.767
40.84000 3.516
40.86000 4.239
40.88000 2.675
40.90000 2.367
40.92000 6.355
40.94000 5.936
40.96000 1.953
40.98000 4.126
41.00000 2.487
41.02000 3.648
41.04000 0.496
41.06000 1.686
41.08000 3.991
41.10000 2.122
41.12000 0.556
41.14000 3.675
41.16000 5.291
41.18000 0.627
41.20000 -0.794
41.22000 2.421
41.24000 1.484
41.26000 0.132
41.28000 1.741
41.30000 0.929
41.32000 4.784
41.34000 7.452
41.36000 1.539
41.38000 1.105
41.40000 0.960
41.42000 -1.101
41.44000 -0.064
41.46000 2.302
41.48000 2.192
41.50000 2.535
41.52000 2.239
41.54000 -1.470
41.56000 1.347
41.58000 0.274
41.60000 -1.323
41.62000 -2.254
41.64000 -2.302
41.66000 -0.467
41.68000 2.014
41.70000 -3.221
41.72000 -2.240
41.74000 2.131
41.76000 4.072
41.78000 -2.349
41.80000 -2.790
41.82000 -2.011
41.84000 -1.076
41.86000 -0.684
41.88000 0.106
41.90000 -0.858
41.92000 1.359
41.94000 0.086
41.96000 1.914
41.98000 -2.083
42.00000 -0.234
42.02000 1.616
42.04000 -0.876
42.06000 0.636
42.08000 0.562
42.10000 5.086
42.12000 5.862
42.14000 0.516
42.16000 -0.775
42.18000 2.552
42.20000 1.609
42.22000 1.404
42.24000 5.566
42.26000 4.348
42.28000 4.050
42.30000 -2.892
42.32000 -1.168
42.34000 4.028
42.36000 1.306
42.38000 -3.381
42.40000 -3.062
42.42000 -1.016
42.44000 0.504
42.46000 2.165
42.48000 2.606
42.50000 1.130
42.52000 1.154
42.54000 -1.277
42.56000 0.692
42.58000 -0.118
42.60000 -2.765
42.62000 -0.039
42.64000 -0.369
42.66000 -0.099
42.68000 -1.970
42.70000 0.948
42.72000 1.688
42.74000 -0.332
42.76000 2.003
42.78000 2.465
42.80000 1.766
42.82000 1.086
42.84000 1.848
42.86000 1.143
42.88000 0.894
42.90000 -1.597
42.92000 1.183
42.94000 -1.383
42.96000 3.655
42.98000 0.078
43.00000 -2.371
43.02000 -0.185
43.04000 2.448
43.06000 3.303
43.08000 1.806
43.10000 0.152
43.12000 2.681
43.14000 4.676
43.16000 1.377
43.18000 4.620
43.20000 5.136
43.22000 0.524
43.24000 1.144
43.26000 1.603
43.28000 3.827
43.30000 1.844
43.32000 -3.278
43.34000 1.569
43.36000 5.367
43.38000 0.355
43.40000 0.125
43.42000 6.345
43.44000 6.125
43.46000 7.082
43.48000 6.920
43.50000 7.251
43.52000 3.356
43.54000 3.188
43.56000 2.885
43.58000 2.692
43.60000 2.221
43.62000 3.828
43.64000 5.419
43.66000 3.948
43.68000 1.371
43.70000 4.163
43.72000 6.692
43.74000 7.606
43.76000 6.816
43.78000 3.476
43.80000 4.842
43.82000 3.191
43.84000 5.370
43.86000 5.539
43.88000 5.898
43.90000 7.157
43.92000 0.920
43.94000 1.024
43.96000 3.539
43.98000 3.317
44.00000 4.503
44.02000 6.692
44.04000 5.459
44.06000 7.893
44.08000 13.174
44.10000 12.710
44.12000 11.264
44.14000 10.206
44.16000 13.652
44.18000 10.402
44.20000 8.486
44.22000 9.303
44.24000 5.840
44.26000 8.508
44.28000 11.047
44.30000 10.652
44.32000 15.419
44.34000 17.540
44.36000 19.520
44.38000 18.044
44.40000 15.853
44.42000 19.755
44.44000 24.043
44.46000 25.066
44.48000 24.626
44.50000 24.111
44.52000 20.316
44.54000 21.275
44.56000 27.621
44.58000 30.922
44.60000 28.871
44.62000 27.283
44.64000 30.481
44.66000 36.637
44.68000 36.569
44.70000 37.003
44.72000 39.187
44.74000 46.848
44.76000 49.730
44.78000 49.312
44.80000 49.270
44.82000 53.642
44.84000 53.292
44.86000 58.355
44.88000 59.456
44.90000 64.248
44.92000 70.504
44.94000 77.166
44.96000 81.926
44.98000 82.634
45.00000 79.389
45.02000 84.210
45.04000 87.802
45.06000 89.526
45.08000 91.365
45.10000 99.445
45.12000 103.754
45.14000 104.958
45.16000 105.755
45.18000 107.496
45.20000 111.442
45.22000 115.061
45.24000 119.764
45.26000 116.569
45.28000 120.188
45.30000 122.338
45.32000 117.341
45.34000 112.357
45.36000 113.156
45.38000 111.607
45.40000 107.926
45.42000 107.782
45.44000 100.345
45.46000 95.663
45.48000 99.343
45.50000 97.927
45.52000 95.956
45.54000 101.079
45.56000 95.646
45.58000 88.941
45.60000 80.278
45.62000 79.703
45.64000 78.800
45.66000 71.116
45.68000 67.444
45.70000 64.536
45.72000 61.069
45.74000 57.258
45.76000 47.584
45.78000 47.604
45.80000 47.480
45.82000 43.615
45.84000 40.681
45.86000 40.517
45.88000 37.773
45.90000 33.013
45.92000 25.606
45.94000 26.966
45.96000 27.850
45.98000 26.096
46.00000 22.355
46.02000 20.410
46.04000 21.176
46.06000 18.198
46.08000 21.102
46.10000 22.098
46.12000 18.614
46.14000 14.691
46.16000 16.152
46.18000 20.085
46.20000 16.356
46.22000 15.235
46.24000 17.270
46.26000 14.221
46.28000 11.730
46.30000 10.064
46.32000 10.482
46.34000 10.735
46.36000 12.271
46.38000 8.712
46.40000 8.795
46.42000 5.928
46.44000 3.655
46.46000 5.853
46.48000 5.744
46.50000 6.090
46.52000 8.952
46.54000 9.612
46.56000 5.904
46.58000 2.984
46.60000 4.599
46.62000 7.466
46.64000 7.623
46.66000 3.726
46.68000 4.617
46.70000 2.432
46.72000 4.824
46.74000 2.380
46.76000 5.732
46.78000 2.152
46.80000 -0.471
46.82000 3.320
46.84000 3.571
46.86000 -0.814
46.88000 -1.324
46.90000 1.406
46.92000 4.478
46.94000 2.959
46.96000 2.833
46.98000 0.791
47.00000 0.370
47.02000 3.251
47.04000 3.292
47.06000 3.230
47.08000 2.321
47.10000 2.410
47.12000 4.286
47.14000 4.155
47.16000 5.328
47.18000 2.728
47.20000 4.471
47.22000 4.173
47.24000 0.128
47.26000 -2.841
47.28000 1.691
47.30000 6.927
47.32000 5.572
47.34000 5.408
47.36000 4.328
47.38000 1.746
47.40000 5.205
47.42000 3.876
47.44000 4.517
47.46000 5.342
47.48000 3.406
47.50000 1.375
47.52000 4.352
47.54000 4.293
47.56000 5.892
47.58000 -1.141
47.60000 -0.427
47.62000 0.964
47.64000 -0.290
47.66000 -1.921
47.68000 2.011
47.70000 3.690
47.72000 3.143
47.74000 0.359
47.76000 0.283
47.78000 1.848
47.80000 2.244
47.82000 5.086
47.84000 8.719
47.86000 5.188
47.88000 6.863
47.90000 2.731
47.92000 2.389
47.94000 -0.718
47.96000 4.581
47.98000 5.010
48.00000 3.417
48.02000 4.013
48.04000 3.347
48.06000 3.138
48.08000 5.652
48.10000 1.981
48.12000 0.153
48.14000 0.058
48.16000 -2.781
48.18000 -2.015
48.20000 3.814
48.22000 5.622
48.24000 3.594
48.26000 4.094
48.28000 3.259
48.30000 4.779
48.32000 -0.520
48.34000 3.844
48.36000 6.104
48.38000 2.745
48.40000 5.420
48.42000 7.275
48.44000 2.944
48.46000 4.189
48.48000 1.941
48.50000 2.762
48.52000 0.334
48.54000 2.725
48.56000 5.493
48.58000 5.556
48.60000 3.614
48.62000 -0.706
48.64000 -0.595
48.66000 2.431
48.68000 0.730
48.70000 0.493
48.72000 0.960
48.74000 -0.301
48.76000 3.206
48.78000 5.897
48.80000 2.520
48.82000 -0.068
48.84000 -0.278
48.86000 -0.976
48.88000 4.029
48.90000 2.877
48.92000 1.659
48.94000 -2.606
48.96000 0.779
48.98000 3.700
49.00000 3.931
49.02000 2.544
49.04000 4.098
49.06000 -0.978
49.08000 -1.587
49.10000 1.660
49.12000 1.101
49.14000 3.639
49.16000 -0.265
49.18000 10.523
49.20000 9.807
49.22000 7.054
49.24000 7.378
49.26000 6.211
49.28000 6.867
49.30000 6.623
49.32000 7.281
49.34000 3.181
49.36000 1.917
49.38000 2.896
49.40000 7.214
49.42000 5.762
49.44000 0.660
49.46000 6.191
49.48000 5.755
49.50000 4.484
49.52000 0.626
49.54000 2.612
49.56000 4.706
49.58000 3.363
49.60000 4.929
49.62000 7.109
49.64000 4.638
49.66000 4.249
49.68000 4.339
49.70000 9.056
49.72000 5.972
49.74000 0.726
49.76000 -2.657
49.78000 -1.391
49.80000 6.295
49.82000 11.713
49.84000 11.503
49.86000 11.602
49.88000 7.244
49.90000 5.326
49.92000 4.356
49.94000 2.543
49.96000 7.271
49.98000 8.802
50.00000 4.457
50.02000 3.448
50.04000 1.901
50.06000 0.718
50.08000 -1.287
50.10000 1.333
50.12000 4.080
50.14000 5.982
50.16000 3.310
50.18000 1.010
50.20000 1.200
50.22000 4.956
50.24000 6.500
50.26000 6.201
50.28000 4.254
50.30000 0.995
50.32000 1.857
50.34000 1.218
50.36000 2.952
50.38000 4.090
50.40000 5.120
50.42000 2.013
50.44000 -0.416
50.46000 -2.656
50.48000 -1.667
50.50000 1.211
50.52000 -0.177
50.54000 1.924
50.56000 3.091
50.58000 5.854
50.60000 1.615
50.62000 1.067
50.64000 5.805
50.66000 7.275
50.68000 7.033
50.70000 4.352
50.72000 0.547
50.74000 3.191
50.76000 4.631
50.78000 0.667
50.80000 -1.747
50.82000 -0.003
50.84000 -1.092
50.86000 -0.963
50.88000 -0.575
50.90000 2.249
50.92000 4.749
50.94000 2.343
50.96000 5.010
50.98000 4.602
51.00000 4.721
51.02000 6.845
51.04000 2.830
51.06000 1.676
51.08000 -2.656
51.10000 -2.027
51.12000 -0.191
51.14000 -2.120
51.16000 -0.615
51.18000 2.459
51.20000 -0.341
51.22000 1.738
51.24000 0.171
51.26000 -0.896
51.28000 0.105
51.30000 3.004
51.32000 2.741
51.34000 3.300
51.36000 4.814
51.38000 3.405
51.40000 -1.182
51.42000 -2.062
51.44000 -2.653
51.46000 0.069
51.48000 5.026
51.50000 8.314
51.52000 5.682
51.54000 1.598
51.56000 1.598
51.58000 1.678
51.60000 2.232
51.62000 1.802
51.64000 -0.577
51.66000 -1.666
51.68000 -1.082
51.70000 2.015
51.72000 2.372
51.74000 4.503
51.76000 1.387
51.78000 3.478
51.80000 4.354
51.82000 6.050
51.84000 -2.586
51.86000 -1.129
51.88000 2.688
51.90000 5.459
51.92000 -1.399
51.94000 0.710
51.96000 2.041
51.98000 5.312
52.00000 4.173
52.02000 2.542
52.04000 -2.378
52.06000 -2.649
52.08000 1.099
52.10000 2.602
52.12000 2.159
52.14000 6.388
52.16000 9.140
52.18000 5.553
52.20000 2.252
52.22000 1.646
52.24000 -1.037
52.26000 0.385
52.28000 2.605
52.30000 3.548
52.32000 1.797
52.34000 -0.281
52.36000 0.692
52.38000 -1.811
52.40000 1.903
52.42000 3.970
52.44000 5.428
52.46000 2.309
52.48000 1.278
52.50000 4.855
52.52000 4.792
52.54000 5.181
52.56000 4.531
52.58000 -2.252
52.60000 -2.268
52.62000 -1.347
52.64000 0.985
52.66000 2.934
52.68000 1.800
52.70000 -0.849
52.72000 -2.514
52.74000 1.424
52.76000 0.940
52.78000 -0.102
52.80000 1.102
52.82000 1.834
52.84000 2.093
52.86000 1.938
52.88000 3.243
52.90000 4.365
52.92000 4.121
52.94000 3.342
52.96000 4.648
52.98000 3.762
53.00000 -0.631
53.02000 0.560
53.04000 2.226
53.06000 3.013
53.08000 0.896
53.10000 0.873
53.12000 -0.381
53.14000 2.890
53.16000 2.229
53.18000 2.867
53.20000 2.217
53.22000 2.004
53.24000 0.785
53.26000 -0.287
53.28000 -2.618
53.30000 -1.007
53.32000 2.920
53.34000 5.020
53.36000 1.920
53.38000 -1.950
53.40000 -2.612
53.42000 -0.459
53.44000 2.296
53.46000 1.173
53.48000 -1.572
53.50000 -1.489
53.52000 0.363
53.54000 2.419
53.56000 2.722
53.58000 1.935
53.60000 5.243
53.62000 5.018
53.64000 0.512
53.66000 -0.288
53.68000 3.072
53.70000 1.451
53.72000 -1.967
53.74000 3.136
53.76000 0.831
53.78000 0.976
53.80000 0.067
53.82000 1.100
53.84000 0.937
53.86000 -0.144
53.88000 -2.595
53.90000 -2.172
53.92000 1.117
53.94000 2.292
53.96000 0.056
53.98000 3.041
54.00000 6.823
54.02000 2.518
54.04000 2.214
54.06000 4.143
54.08000 2.102
54.10000 5.902
54.12000 8.206
54.14000 11.237
54.16000 5.612
54.18000 2.515
54.20000 3.935
54.22000 0.454
54.24000 -0.644
54.26000 2.235
54.28000 4.173
54.30000 3.134
54.32000 3.781
54.34000 0.616
54.36000 -1.222
54.38000 -0.031
54.40000 -2.582
54.42000 -0.743
54.44000 2.327
54.46000 2.750
54.48000 5.740
54.50000 7.107
54.52000 5.333
54.54000 -0.024
54.56000 -0.340
54.58000 3.031
54.60000 6.040
54.62000 2.152
54.64000 3.920
54.66000 2.692
54.68000 3.124
54.70000 3.463
54.72000 4.279
54.74000 1.706
54.76000 3.052
54.78000 1.926
54.80000 1.086
54.82000 1.192
54.84000 1.070
54.86000 0.454
54.88000 -2.091
54.90000 -0.209
54.92000 3.427
54.94000 1.835
54.96000 0.324
54.98000 3.786
55.00000 -0.125
55.02000 1.200
55.04000 1.038
55.06000 4.203
55.08000 1.948
55.10000 2.209
55.12000 0.466
55.14000 2.241
55.16000 2.008
55.18000 0.314
55.20000 2.948
55.22000 4.597
55.24000 0.137
55.26000 4.725
55.28000 1.701
55.30000 -0.737
55.32000 1.361
55.34000 6.099
55.36000 5.521
55.38000 -2.559
55.40000 1.766
55.42000 6.138
55.44000 1.032
55.46000 1.730
55.48000 -0.619
55.50000 -0.889
55.52000 3.803
55.54000 -1.405
55.56000 0.442
55.58000 4.889
55.60000 4.839
55.62000 2.841
55.64000 1.176
55.66000 -1.769
55.68000 -1.556
55.70000 2.688
55.72000 2.460
55.74000 -1.151
55.76000 0.183
55.78000 4.288
55.80000 3.825
55.82000 2.144
55.84000 3.567
55.86000 3.980
55.88000 1.930
55.90000 0.184
55.92000 1.335
55.94000 2.494
55.96000 1.465
55.98000 2.619
56.00000 3.269
56.02000 6.491
56.04000 3.320
56.06000 3.008
56.08000 3.084
56.10000 2.987
56.12000 6.087
56.14000 7.869
56.16000 3.085
56.18000 3.179
56.20000 2.742
56.22000 5.213
56.24000 4.044
56.26000 2.794
56.28000 -0.643
56.30000 1.404
56.32000 1.451
56.34000 -1.292
56.36000 -2.008
56.38000 4.028
56.40000 5.028
56.42000 4.803
56.44000 9.906
56.46000 6.246
56.48000 0.438
56.50000 3.592
56.52000 5.171
56.54000 1.433
56.56000 3.439
56.58000 3.303
56.60000 -0.978
56.62000 -2.489
56.64000 -0.466
56.66000 -1.717
56.68000 1.978
56.70000 1.583
56.72000 -1.822
56.74000 -0.826
56.76000 -0.182
56.78000 -1.383
56.80000 0.151
56.82000 2.080
56.84000 3.784
56.86000 3.052
56.88000 2.022
56.90000 -2.428
56.92000 -2.476
56.94000 0.084
56.96000 3.710
56.98000 1.697
57.00000 1.735
57.02000 3.322
57.04000 4.758
57.06000 5.674
57.08000 4.698
57.10000 5.735
57.12000 4.905
57.14000 3.422
57.16000 7.434
57.18000 8.525
57.20000 3.472
57.22000 1.899
57.24000 0.171
57.26000 -0.621
57.28000 2.395
57.30000 3.011
57.32000 2.762
57.34000 5.396
57.36000 4.660
57.38000 2.717
57.40000 1.596
57.42000 -2.477
57.44000 2.743
57.46000 2.642
57.48000 5.638
57.50000 8.755
57.52000 6.978
57.54000 4.320
57.56000 1.374
57.58000 -1.638
57.60000 -0.415
57.62000 1.037
57.64000 4.707
57.66000 7.406
57.68000 2.939
57.70000 4.724
57.72000 1.812
57.74000 2.165
57.76000 1.962
57.78000 4.351
57.80000 3.853
57.82000 3.262
57.84000 1.963
57.86000 2.311
57.88000 1.554
57.90000 0.703
57.92000 1.303
57.94000 4.938
57.96000 0.879
57.98000 -0.035
58.00000 -0.729
58.02000 0.044
58.04000 3.366
58.06000 4.166
58.08000 2.046
58.10000 3.552
58.12000 5.984
58.14000 5.716
58.16000 2.579
58.18000 7.739
58.20000 9.501
58.22000 3.619
58.24000 3.606
58.26000 2.492
58.28000 0.843
58.30000 1.412
58.32000 1.545
58.34000 -1.039
58.36000 -2.463
58.38000 2.686
58.40000 1.577
58.42000 2.420
58.44000 4.391
58.46000 1.528
58.48000 0.233
58.50000 -0.831
58.52000 1.865
58.54000 1.155
58.56000 2.646
58.58000 0.519
58.60000 1.517
58.62000 1.758
58.64000 1.471
58.66000 -0.873
58.68000 -1.927
58.70000 2.131
58.72000 1.257
58.74000 -0.742
58.76000 3.649
58.78000 4.593
58.80000 4.577
58.82000 2.808
58.84000 -0.343
58.86000 -0.535
58.88000 1.342
58.90000 2.806
58.92000 0.832
58.94000 2.391
58.96000 0.550
58.98000 2.343
59.00000 2.610
59.02000 -2.452
59.04000 1.896
59.06000 -0.004
59.08000 -0.986
59.10000 -0.921
59.12000 1.498
59.14000 -0.920
59.16000 -1.329
59.18000 -0.669
59.20000 0.267
59.22000 -0.442
59.24000 -1.096
59.26000 -1.474
59.28000 -0.218
59.30000 0.504
59.32000 0.852
59.34000 -2.109
59.36000 2.753
59.38000 0.515
59.40000 3.325
59.42000 0.057
59.44000 -0.270
59.46000 0.798
59.48000 0.641
59.50000 0.236
59.52000 4.227
59.54000 1.874
59.56000 1.588
59.58000 0.382
59.60000 1.849
59.62000 0.752
59.64000 1.363
59.66000 5.610
59.68000 3.176
59.70000 0.573
59.72000 -0.287
59.74000 1.977
59.76000 0.643
59.78000 4.885
59.80000 1.478
59.82000 -2.426
59.84000 -0.013
59.86000 -0.820
59.88000 0.336
59.90000 4.376
59.92000 1.551
59.94000 -1.208
59.96000 1.431
59.98000 2.702
60.00000 2.719
60.02000 -0.092
60.04000 -0.950
60.06000 -0.006
60.08000 1.041
60.10000 1.183
60.12000 -0.311
60.14000 -0.542
60.16000 0.774
60.18000 3.714
60.20000 5.808
60.22000 4.501
60.24000 2.780
60.26000 0.120
60.28000 2.263
60.30000 0.816
60.32000 -0.590
60.34000 1.552
60.36000 -0.562
60.38000 -1.582
60.40000 0.839
60.42000 3.428
60.44000 3.195
60.46000 2.742
60.48000 -2.400
60.50000 -0.063
60.52000 0.333
60.54000 -0.969
60.56000 5.441
60.58000 3.019
60.60000 2.678
60.62000 -0.827
60.64000 1.919
60.66000 2.021
60.68000 -0.648
60.70000 -0.143
60.72000 1.261
60.74000 0.787
60.76000 0.602
60.78000 1.150
60.80000 3.210
60.82000 2.924
60.84000 0.921
60.86000 2.065
60.88000 2.152
60.90000 1.849
60.92000 0.946
60.94000 -2.368
60.96000 -2.047
60.98000 -2.058
61.00000 -1.799
61.02000 0.146
61.04000 -0.664
61.06000 -0.523
61.08000 -0.708
61.10000 0.731
61.12000 5.689
61.14000 4.531
61.16000 3.538
61.18000 2.444
61.20000 3.470
61.22000 1.993
61.24000 4.003
61.26000 2.977
61.28000 3.704
61.30000 2.931
61.32000 2.308
61.34000 1.132
61.36000 -2.358
61.38000 1.157
61.40000 1.986
61.42000 1.851
61.44000 2.881
61.46000 1.909
61.48000 -0.653
61.50000 2.425
61.52000 -0.790
61.54000 1.731
61.56000 3.007
61.58000 0.916
61.60000 1.411
61.62000 0.348
61.64000 2.864
61.66000 2.627
61.68000 -2.346
61.70000 -1.452
61.72000 1.815
61.74000 4.801
61.76000 1.858
61.78000 1.677
61.80000 2.142
61.82000 -0.735
61.84000 3.060
61.86000 5.361
61.88000 1.450
61.90000 1.433
61.92000 -0.674
61.94000 2.256
61.96000 0.885
61.98000 2.361
62.00000 1.783
62.02000 2.979
62.04000 0.996
62.06000 1.585
62.08000 -0.990
62.10000 2.864
62.12000 4.345
62.14000 2.340
62.16000 -0.095
62.18000 0.430
62.20000 3.055
62.22000 3.712
62.24000 2.531
62.26000 4.126
62.28000 2.159
62.30000 -2.334
62.32000 2.862
62.34000 2.748
62.36000 2.648
62.38000 5.493
62.40000 2.550
62.42000 -0.657
62.44000 2.678
62.46000 5.710
62.48000 2.562
62.50000 2.407
62.52000 5.277
62.54000 4.768
62.56000 0.932
62.58000 -1.088
62.60000 -2.322
62.62000 -0.191
62.64000 1.173
62.66000 1.555
62.68000 1.856
62.70000 -0.699
62.72000 1.696
62.74000 5.659
62.76000 -0.211
62.78000 -0.079
62.80000 3.571
62.82000 2.208
62.84000 0.005
62.86000 0.376
62.88000 1.622
62.90000 1.529
62.92000 2.709
62.94000 3.736
62.96000 0.182
62.98000 0.837
63.00000 -0.590
63.02000 -1.567
63.04000 -2.327
63.06000 -0.860
63.08000 2.938
63.10000 0.555
63.12000 0.115
63.14000 2.503
63.16000 -0.647
63.18000 -0.849
63.20000 1.079
63.22000 -1.591
63.24000 -1.866
63.26000 -0.458
63.28000 -2.266
63.30000 1.921
63.32000 -0.470
63.34000 -1.830
63.36000 -2.033
63.38000 -2.010
63.40000 1.587
63.42000 -0.860
63.44000 -2.335
63.46000 -1.474
63.48000 -0.460
63.50000 2.787
63.52000 0.420
63.54000 0.396
63.56000 0.045
63.58000 -1.655
63.60000 1.861
63.62000 1.412
63.64000 -1.120
63.66000 0.663
63.68000 -0.858
63.70000 0.582
63.72000 0.608
63.74000 1.446
63.76000 0.419
63.78000 1.915
63.80000 -0.518
63.82000 -1.257
63.84000 -0.798
63.86000 -0.477
63.88000 2.684
63.90000 2.016
63.92000 1.607
63.94000 1.858
63.96000 -1.347
63.98000 -2.336
64.00000 -2.066
64.02000 -1.042
64.04000 0.356
64.06000 -0.313
64.08000 -0.153
64.10000 1.101
64.12000 -0.276
64.14000 3.929
64.16000 2.169
64.18000 0.400
64.20000 0.061
64.22000 2.290
64.24000 6.596
64.26000 2.657
64.28000 -2.202
64.30000 -0.024
64.32000 3.339
64.34000 2.767
64.36000 1.932
64.38000 4.000
64.40000 1.398
64.42000 1.113
64.44000 0.288
64.46000 0.879
64.48000 2.348
64.50000 3.576
64.52000 3.326
64.54000 5.793
64.56000 2.442
64.58000 3.153
64.60000 2.802
64.62000 0.039
64.64000 -1.292
64.66000 -0.004
64.68000 0.795
64.70000 -0.839
64.72000 -2.323
64.74000 0.320
64.76000 3.582
64.78000 3.269
64.80000 -0.798
64.82000 0.366
64.84000 0.195
64.86000 -0.924
64.88000 1.124
64.90000 -0.500
64.92000 -0.029
64.94000 -0.923
64.96000 -0.706
64.98000 3.432
65.00000 2.538
65.02000 -0.110
65.04000 -0.093
65.06000 2.336
65.08000 4.019
65.10000 0.701
65.12000 1.639
65.14000 3.614
65.16000 1.538
65.18000 2.743
65.20000 2.732
65.22000 4.149
65.24000 0.851
65.26000 1.081
65.28000 3.308
65.30000 5.331
65.32000 3.505
65.34000 1.296
65.36000 1.667
65.38000 1.709
65.40000 0.745
65.42000 4.172
65.44000 5.328
65.46000 4.858
65.48000 3.944
65.50000 0.387
65.52000 0.512
65.54000 4.558
65.56000 2.619
65.58000 3.873
65.60000 4.252
65.62000 5.248
65.64000 5.791
65.66000 7.417
65.68000 6.226
65.70000 4.459
65.72000 4.825
65.74000 4.823
65.76000 3.439
65.78000 5.314
65.80000 5.901
65.82000 8.525
65.84000 5.790
65.86000 7.160
65.88000 5.776
65.90000 7.737
65.92000 5.694
65.94000 6.527
65.96000 5.237
65.98000 4.182
66.00000 1.919
66.02000 4.703
66.04000 6.424
66.06000 6.016
66.08000 8.138
66.10000 7.075
66.12000 4.592
66.14000 7.653
66.16000 6.064
66.18000 3.425
66.20000 3.092
66.22000 1.004
66.24000 2.509
66.26000 3.029
66.28000 0.538
66.30000 1.592
66.32000 4.074
66.34000 7.165
66.36000 4.396
66.38000 1.836
66.40000 1.501
66.42000 0.476
66.44000 5.508
66.46000 6.218
66.48000 5.025
66.50000 4.786
66.52000 -0.275
66.54000 2.515
66.56000 2.314
66.58000 2.038
66.60000 -0.027
66.62000 1.870
66.64000 1.919
66.66000 -0.026
66.68000 0.368
66.70000 -2.302
66.72000 0.059
66.74000 -0.411
66.76000 0.299
66.78000 2.787
66.80000 2.439
66.82000 2.807
66.84000 3.084
66.86000 -0.416
66.88000 -1.709
66.90000 -0.421
66.92000 1.384
66.94000 1.987
66.96000 1.727
66.98000 0.523
67.00000 1.999
67.02000 1.996
67.04000 -0.834
67.06000 -1.162
67.08000 -0.626
67.10000 -2.231
67.12000 -0.637
67.14000 0.535
67.16000 0.872
67.18000 -1.253
67.20000 0.548
67.22000 1.919
67.24000 1.401
67.26000 2.600
67.28000 0.103
67.30000 0.875
67.32000 -1.399
67.34000 0.703
67.36000 1.536
67.38000 -0.359
67.40000 0.080
67.42000 3.799
67.44000 2.474
67.46000 0.473
67.48000 2.424
67.50000 2.399
67.52000 -2.228
67.54000 -0.535
67.56000 2.162
67.58000 2.865
67.60000 0.729
67.62000 1.424
67.64000 2.192
67.66000 1.882
67.68000 0.610
67.70000 2.122
67.72000 2.216
67.74000 1.558
67.76000 1.350
67.78000 3.018
67.80000 1.725
67.82000 1.101
67.84000 0.235
67.86000 -1.076
67.88000 3.539
67.90000 3.812
67.92000 5.279
67.94000 4.590
67.96000 3.436
67.98000 1.224
68.00000 -1.430
68.02000 0.255
68.04000 0.617
68.06000 -1.043
68.08000 -1.600
68.10000 0.947
68.12000 0.207
68.14000 -0.642
68.16000 -0.576
68.18000 -0.372
68.20000 -0.989
68.22000 -0.652
68.24000 -0.072
68.26000 2.487
68.28000 -0.062
68.30000 2.135
68.32000 2.592
68.34000 -1.635
68.36000 -1.176
68.38000 -2.204
68.40000 0.701
68.42000 1.645
68.44000 0.124
68.46000 -0.282
68.48000 -1.041
68.50000 -2.057
68.52000 -2.216
68.54000 -1.705
68.56000 -0.741
68.58000 2.802
68.60000 1.554
68.62000 0.290
68.64000 2.257
68.66000 3.742
68.68000 0.794
68.70000 -0.295
68.72000 1.019
68.74000 0.602
68.76000 0.027
68.78000 0.981
68.80000 0.328
68.82000 0.840
68.84000 0.808
68.86000 1.259
68.88000 1.133
68.90000 2.142
68.92000 2.530
68.94000 2.887
68.96000 3.892
68.98000 -0.459
69.00000 -0.203
69.02000 0.214
69.04000 0.902
69.06000 3.110
69.08000 5.191
69.10000 6.438
69.12000 2.386
69.14000 2.176
69.16000 2.886
69.18000 2.652
69.20000 0.946
69.22000 -2.171
69.24000 -0.632
69.26000 2.763
69.28000 0.596
69.30000 0.964
69.32000 0.858
69.34000 1.262
69.36000 1.307
69.38000 -0.316
69.40000 1.022
69.42000 2.916
69.44000 1.345
69.46000 -0.600
69.48000 1.333
69.50000 2.337
69.52000 2.624
69.54000 0.936
69.56000 0.839
69.58000 1.035
69.60000 1.555
69.62000 3.205
69.64000 1.087
69.66000 2.370
69.68000 1.717
69.70000 1.284
69.72000 -1.152
69.74000 0.492
69.76000 2.749
69.78000 2.869
69.80000 1.414
69.82000 2.586
69.84000 1.256
69.86000 1.930
69.88000 5.421
69.90000 1.545
69.92000 -2.144
69.94000 -0.420
69.96000 0.400
69.98000 2.072
70.00000 1.472
70.02000 -0.567
70.04000 -0.675
70.06000 2.372
70.08000 3.739
70.10000 1.265
70.12000 0.337
70.14000 2.042
70.16000 0.409
70.18000 1.706
70.20000 0.083
70.22000 3.229
70.24000 2.643
70.26000 1.613
70.28000 -0.832
70.30000 -0.701
70.32000 -0.668
70.34000 0.413
70.36000 0.356
70.38000 -0.156
70.40000 1.855
70.42000 -0.655
70.44000 0.270
70.46000 1.457
70.48000 -0.009
70.50000 -2.122
70.52000 -2.117
70.54000 0.362
70.56000 4.696
70.58000 5.650
70.60000 2.408
70.62000 -0.104
70.64000 0.745
70.66000 3.965
70.68000 5.264
70.70000 2.737
70.72000 3.633
70.74000 3.505
70.76000 3.569
70.78000 1.385
70.80000 1.688
70.82000 2.723
70.84000 2.908
70.86000 1.476
70.88000 1.157
70.90000 -0.737
70.92000 1.017
70.94000 3.409
70.96000 2.258
70.98000 0.607
71.00000 0.808
71.02000 0.200
71.04000 3.420
71.06000 3.513
71.08000 2.347
71.10000 -1.625
71.12000 0.936
71.14000 0.360
71.16000 -0.019
71.18000 3.214
71.20000 5.180
71.22000 1.089
71.24000 0.423
71.26000 -2.099
71.28000 0.723
71.30000 0.604
71.32000 1.067
71.34000 0.267
71.36000 3.045
71.38000 4.026
71.40000 1.998
71.42000 1.173
71.44000 3.861
71.46000 2.868
71.48000 1.837
71.50000 -0.181
71.52000 0.695
71.54000 -0.438
71.56000 2.025
71.58000 0.248
71.60000 0.435
71.62000 0.763
71.64000 0.107
71.66000 1.104
71.68000 -1.060
71.70000 -2.081
71.72000 0.167
71.74000 0.125
71.76000 1.227
71.78000 -0.183
71.80000 1.316
71.82000 2.473
71.84000 1.635
71.86000 3.073
71.88000 5.150
71.90000 1.762
71.92000 -0.468
71.94000 -0.196
71.96000 1.820
71.98000 0.156
72.00000 3.272
72.02000 4.647
72.04000 1.651
72.06000 2.482
72.08000 3.571
72.10000 4.200
72.12000 3.955
72.14000 1.862
72.16000 2.942
72.18000 1.804
72.20000 3.158
72.22000 3.182
72.24000 3.539
72.26000 4.036
72.28000 4.797
72.30000 -0.250
72.32000 0.456
72.34000 1.697
72.36000 5.185
72.38000 3.184
72.40000 2.102
72.42000 2.385
72.44000 1.305
72.46000 2.863
72.48000 3.906
72.50000 3.179
72.52000 2.467
72.54000 0.658
72.56000 -0.136
72.58000 1.540
72.60000 3.267
72.62000 1.713
72.64000 2.879
72.66000 1.267
72.68000 -1.477
72.70000 -2.033
72.72000 0.190
72.74000 2.224
72.76000 2.645
72.78000 -0.677
72.80000 -2.033
72.82000 1.171
72.84000 0.081
72.86000 -0.214
72.88000 -1.329
72.90000 4.622
72.92000 1.248
72.94000 -1.308
72.96000 0.898
72.98000 2.829
73.00000 2.089
73.02000 0.312
73.04000 -0.364
73.06000 2.005
73.08000 2.449
73.10000 -0.524
73.12000 -0.013
73.14000 2.440
73.16000 1.086
73.18000 2.252
73.20000 1.975
73.22000 0.245
73.24000 1.806
73.26000 2.228
73.28000 4.616
73.30000 4.163
73.32000 2.856
73.34000 2.285
73.36000 3.285
73.38000 4.109
73.40000 3.837
73.42000 3.024
73.44000 1.553
73.46000 3.329
73.48000 3.734
73.50000 2.037
73.52000 0.642
73.54000 1.806
73.56000 1.780
73.58000 0.849
73.60000 1.327
73.62000 0.798
73.64000 4.318
73.66000 2.118
73.68000 -0.099
73.70000 1.336
73.72000 3.945
73.74000 5.582
73.76000 3.560
73.78000 4.406
73.80000 4.168
73.82000 4.066
73.84000 4.614
73.86000 7.558
73.88000 7.179
73.90000 4.936
73.92000 5.224
73.94000 5.425
73.96000 0.740
73.98000 -1.980
74.00000 0.942
74.02000 2.955
74.04000 8.219
74.06000 5.538
74.08000 3.906
74.10000 2.152
74.12000 3.407
74.14000 3.955
74.16000 2.839
74.18000 4.848
74.20000 0.307
74.22000 0.072
74.24000 -0.214
74.26000 -0.758
74.28000 2.603
74.30000 4.575
74.32000 3.303
74.34000 4.204
74.36000 5.103
74.38000 4.605
74.40000 3.312
74.42000 -0.252
74.44000 1.994
74.46000 3.411
74.48000 2.926
74.50000 2.158
74.52000 2.755
74.54000 0.575
74.56000 2.899
74.58000 5.052
74.60000 0.384
74.62000 0.342
74.64000 2.028
74.66000 6.285
74.68000 4.757
74.70000 6.134
74.72000 4.319
74.74000 3.312
74.76000 4.143
74.78000 3.902
74.80000 4.603
74.82000 4.404
74.84000 2.567
74.86000 1.859
74.88000 3.663
74.90000 4.256
74.92000 3.287
74.94000 2.768
74.96000 0.776
74.98000 2.510
75.00000 3.340
75.02000 3.376
75.04000 6.040
75.06000 4.859
75.08000 4.640
75.10000 5.074
75.12000 3.148
75.14000 2.248
75.16000 3.598
75.18000 1.905
75.20000 -2.020
75.22000 -1.313
75.24000 2.620
75.26000 0.912
75.28000 0.642
75.30000 1.099
75.32000 3.982
75.34000 3.860
75.36000 3.542
75.38000 1.453
75.40000 0.920
75.42000 2.979
75.44000 3.179
75.46000 8.596
75.48000 4.792
75.50000 0.448
75.52000 1.017
75.54000 1.259
75.56000 4.404
75.58000 3.623
75.60000 0.910
75.62000 3.445
75.64000 4.754
75.66000 4.244
75.68000 1.470
75.70000 0.932
75.72000 1.605
75.74000 0.297
75.76000 3.270
75.78000 4.697
75.80000 4.853
75.82000 1.316
75.84000 -2.036
75.86000 -1.355
75.88000 4.375
75.90000 5.520
75.92000 5.930
75.94000 8.095
75.96000 1.514
75.98000 1.378
76.00000 1.151
76.02000 2.028
76.04000 3.168
76.06000 4.819
76.08000 2.420
76.10000 2.293
76.12000 3.102
76.14000 4.720
76.16000 3.357
76.18000 1.586
76.20000 -1.839
76.22000 -1.505
76.24000 0.097
76.26000 -0.322
76.28000 0.445
76.30000 4.594
76.32000 3.150
76.34000 1.487
76.36000 1.372
76.38000 0.921
76.40000 2.003
76.42000 4.437
76.44000 1.743
76.46000 1.774
76.48000 2.583
76.50000 -0.503
76.52000 0.194
76.54000 0.381
76.56000 3.155
76.58000 3.220
76.60000 0.460
76.62000 1.494
76.64000 4.505
76.66000 8.647
76.68000 6.229
76.70000 2.293
76.72000 2.784
76.74000 0.301
76.76000 -0.749
76.78000 1.808
76.80000 3.971
76.82000 1.238
76.84000 -0.071
76.86000 0.578
76.88000 0.929
76.90000 -0.860
76.92000 -0.578
76.94000 -0.520
76.96000 3.199
76.98000 4.138
77.00000 0.875
77.02000 -0.463
77.04000 -1.271
77.06000 -2.106
77.08000 -0.041
77.10000 1.777
77.12000 1.902
77.14000 1.757
77.16000 0.759
77.18000 1.835
77.20000 2.318
77.22000 3.401
77.24000 2.983
77.26000 -0.582
77.28000 -0.475
77.30000 0.991
77.32000 2.273
77.34000 4.113
77.36000 1.931
77.38000 1.779
77.40000 4.062
77.42000 0.244
77.44000 1.377
77.46000 -0.613
77.48000 0.136
77.50000 2.006
77.52000 0.812
77.54000 0.552
77.56000 -1.439
77.58000 -0.489
77.60000 2.816
77.62000 3.113
77.64000 1.492
77.66000 3.235
77.68000 0.218
77.70000 0.962
77.72000 4.359
77.74000 5.121
77.76000 5.579
77.78000 2.207
77.80000 -1.817
77.82000 -1.064
77.84000 -1.505
77.86000 -0.613
77.88000 -0.854
77.90000 -2.226
77.92000 -1.842
77.94000 -0.681
77.96000 1.547
77.98000 0.621
78.00000 0.921
78.02000 -0.633
78.04000 0.763
78.06000 0.269
78.08000 0.735
78.10000 3.163
78.12000 1.199
78.14000 -0.384
78.16000 -1.585
78.18000 0.352
78.20000 0.183
78.22000 0.342
78.24000 0.384
78.26000 1.107
78.28000 2.818
78.30000 2.630
78.32000 2.769
78.34000 1.960
78.36000 2.477
78.38000 5.054
78.40000 5.097
78.42000 4.190
78.44000 3.908
78.46000 1.368
78.48000 6.548
78.50000 7.342
78.52000 9.700
78.54000 7.566
78.56000 8.534
78.58000 6.711
78.60000 8.553
78.62000 9.458
78.64000 10.566
78.66000 10.078
78.68000 9.568
78.70000 10.779
78.72000 18.920
78.74000 16.238
78.76000 13.005
78.78000 13.939
78.80000 17.270
78.82000 16.600
78.84000 15.173
78.86000 17.254
78.88000 18.645
78.90000 20.394
78.92000 27.281
78.94000 23.735
78.96000 21.919
78.98000 21.403
79.00000 19.502
79.02000 22.247
79.04000 26.886
79.06000 26.120
79.08000 25.294
79.10000 26.767
79.12000 30.163
79.14000 25.227
79.16000 26.944
79.18000 30.022
79.20000 25.291
79.22000 23.754
79.24000 26.631
79.26000 22.310
79.28000 26.162
79.30000 24.806
79.32000 26.202
79.34000 32.308
79.36000 32.657
79.38000 27.800
79.40000 28.857
79.42000 28.901
79.44000 23.870
79.46000 27.703
79.48000 27.619
79.50000 22.455
79.52000 22.889
79.54000 24.706
79.56000 27.191
79.58000 22.224
79.60000 18.122
79.62000 17.828
79.64000 21.715
79.66000 20.268
79.68000 21.726
79.70000 21.861
79.72000 21.018
79.74000 13.031
79.76000 13.053
79.78000 17.372
79.80000 15.116
79.82000 10.552
79.84000 10.778
79.86000 14.491
79.88000 14.723
79.90000 11.539
79.92000 7.364
79.94000 10.928
79.96000 12.542
79.98000 9.721
80.00000 9.908
80.02000 8.170
80.04000 5.423
80.06000 9.019
80.08000 6.764
80.10000 3.124
80.12000 5.388
80.14000 4.780
80.16000 5.981
80.18000 4.795
80.20000 2.264
80.22000 5.129
80.24000 6.414
80.26000 9.502
80.28000 6.678
80.30000 7.375
80.32000 5.715
80.34000 1.830
80.36000 2.122
80.38000 3.940
80.40000 5.573
80.42000 0.078
80.44000 4.410
80.46000 3.862
80.48000 4.078
80.50000 3.440
80.52000 5.113
80.54000 2.908
80.56000 0.504
80.58000 -0.477
80.60000 -0.469
80.62000 -0.318
80.64000 -0.531
80.66000 3.850
80.68000 2.283
80.70000 5.960
80.72000 6.551
80.74000 5.629
80.76000 3.378
80.78000 1.482
80.80000 0.937
80.82000 1.194
80.84000 1.821
80.86000 3.613
80.88000 -0.073
80.90000 -0.336
80.92000 2.164
80.94000 2.013
80.96000 -2.336
80.98000 0.210
81.00000 0.320
81.02000 -2.044
81.04000 1.556
81.06000 1.824
81.08000 -0.282
81.10000 1.644
81.12000 1.154
81.14000 -1.354
81.16000 1.909
81.18000 3.378
81.20000 -0.018
81.22000 0.689
81.24000 -1.492
81.26000 -1.851
81.28000 0.707
81.30000 3.039
81.32000 3.159
81.34000 5.133
81.36000 5.532
81.38000 6.429
81.40000 5.906
81.42000 3.384
81.44000 1.452
81.46000 1.134
81.48000 2.310
81.50000 8.006
81.52000 5.334
81.54000 4.294
81.56000 3.264
81.58000 1.784
81.60000 1.493
81.62000 -1.095
81.64000 3.200
81.66000 4.045
81.68000 2.460
81.70000 3.476
81.72000 1.395
81.74000 4.100
81.76000 4.539
81.78000 1.153
81.80000 0.433
81.82000 4.431
81.84000 5.287
81.86000 3.799
81.88000 3.930
81.90000 3.510
81.92000 3.036
81.94000 7.625
81.96000 8.540
81.98000 6.716
82.00000 4.928
82.02000 4.080
82.04000 6.525
82.06000 4.820
82.08000 9.674
82.10000 9.978
82.12000 10.418
82.14000 13.991
82.16000 10.277
82.18000 8.377
82.20000 9.148
82.22000 9.457
82.24000 11.273
82.26000 8.712
82.28000 10.376
82.30000 13.352
82.32000 13.604
82.34000 12.688
82.36000 8.043
82.38000 7.488
82.40000 12.819
82.42000 18.305
82.44000 15.444
82.46000 15.981
82.48000 17.408
82.50000 14.807
82.52000 14.283
82.54000 17.942
82.56000 18.413
82.58000 15.714
82.60000 15.282
82.62000 19.438
82.64000 22.364
82.66000 22.206
82.68000 24.758
82.70000 29.245
82.72000 30.125
82.74000 34.027
82.76000 31.257
82.78000 29.916
82.80000 31.074
82.82000 34.506
82.84000 36.517
82.86000 40.701
82.88000 39.653
82.90000 41.728
82.92000 44.465
82.94000 47.016
82.96000 48.655
82.98000 48.838
83.00000 53.074
83.02000 53.516
83.04000 54.260
83.06000 52.193
83.08000 55.628
83.10000 55.970
83.12000 59.674
83.14000 64.303
83.16000 64.304
83.18000 62.638
83.20000 70.866
83.22000 74.325
83.24000 73.417
83.26000 70.783
83.28000 72.348
83.30000 71.048
83.32000 77.504
83.34000 75.893
83.36000 77.307
83.38000 71.813
83.40000 71.180
83.42000 72.065
83.44000 73.184
83.46000 75.876
83.48000 81.973
83.50000 73.839
83.52000 69.320
83.54000 71.007
83.56000 65.975
83.58000 62.253
83.60000 60.854
83.62000 64.777
83.64000 69.506
83.66000 68.256
83.68000 60.238
83.70000 54.148
83.72000 53.984
83.74000 54.375
83.76000 49.771
83.78000 49.714
83.80000 46.143
83.82000 44.712
83.84000 43.990
83.86000 42.477
83.88000 38.452
83.90000 34.479
83.92000 30.863
83.94000 32.408
83.96000 28.255
83.98000 26.263
84.00000 24.299
84.02000 24.297
84.04000 20.710
84.06000 22.197
84.08000 21.426
84.10000 17.687
84.12000 18.836
84.14000 17.257
84.16000 17.557
84.18000 19.059
84.20000 15.985
84.22000 11.137
84.24000 12.694
84.26000 15.652
84.28000 10.778
84.30000 8.998
84.32000 11.753
84.34000 9.308
84.36000 10.351
84.38000 10.248
84.40000 4.864
84.42000 4.746
84.44000 3.134
84.46000 2.545
84.48000 2.162
84.50000 1.997
84.52000 1.067
84.54000 3.528
84.56000 4.460
84.58000 3.560
84.60000 2.944
84.62000 4.473
84.64000 3.208
84.66000 4.461
84.68000 2.773
84.70000 7.059
84.72000 6.038
84.74000 1.974
84.76000 -1.360
84.78000 -2.150
84.80000 0.934
84.82000 5.168
84.84000 3.674
84.86000 -2.175
84.88000 -0.700
84.90000 2.011
84.92000 5.748
84.94000 1.844
84.96000 0.525
84.98000 -0.509
85.00000 0.678
85.02000 0.948
85.04000 -0.288
85.06000 1.415
85.08000 3.500
85.10000 1.857
85.12000 0.166
85.14000 0.882
85.16000 0.198
85.18000 3.338
85.20000 3.060
85.22000 1.294
85.24000 1.170
85.26000 3.200
85.28000 2.563
85.30000 0.842
85.32000 -0.535
85.34000 -0.989
85.36000 -1.252
85.38000 -2.082
85.40000 -1.316
85.42000 0.813
85.44000 -0.586
85.46000 -0.796
85.48000 1.338
85.50000 -2.062
85.52000 0.932
85.54000 3.802
85.56000 0.199
85.58000 0.895
85.60000 -1.675
85.62000 0.486
85.64000 2.509
85.66000 0.563
85.68000 0.965
85.70000 4.637
85.72000 2.966
85.74000 1.156
85.76000 2.853
85.78000 5.625
85.80000 2.229
85.82000 -2.033
85.84000 -0.869
85.86000 -0.896
85.88000 -0.492
85.90000 1.743
85.92000 1.062
85.94000 -0.824
85.96000 0.383
85.98000 -1.210
86.00000 -0.457
86.02000 -0.114
86.04000 0.806
86.06000 0.321
86.08000 1.182
86.10000 3.352
86.12000 0.353
86.14000 -1.288
86.16000 -0.720
86.18000 0.902
86.20000 1.090
86.22000 1.938
86.24000 4.509
86.26000 1.824
86.28000 -0.324
86.30000 2.017
86.32000 -0.239
86.34000 -0.594
86.36000 1.021
86.38000 0.942
86.40000 2.305
86.42000 -1.067
86.44000 1.211
86.46000 1.329
86.48000 2.215
86.50000 3.641
86.52000 -0.388
86.54000 -1.973
86.56000 -0.504
86.58000 3.299
86.60000 -1.131
86.62000 0.048
86.64000 2.746
86.66000 2.601
86.68000 -0.408
86.70000 1.209
86.72000 2.467
86.74000 1.713
86.76000 3.855
86.78000 6.022
86.80000 3.889
86.82000 1.819
86.84000 0.398
86.86000 2.522
86.88000 4.233
86.90000 4.793
86.92000 6.213
86.94000 4.215
86.96000 0.871
86.98000 0.141
87.00000 1.470
87.02000 2.662
87.04000 -0.301
87.06000 -1.188
87.08000 0.571
87.10000 2.902
87.12000 4.909
87.14000 3.055
87.16000 3.478
87.18000 3.652
87.20000 2.274
87.22000 -0.449
87.24000 1.244
87.26000 1.816
87.28000 4.278
87.30000 2.120
87.32000 1.110
87.34000 -0.946
87.36000 0.571
87.38000 -1.728
87.40000 -1.005
87.42000 -1.943
87.44000 1.892
87.46000 2.220
87.48000 1.135
87.50000 1.763
87.52000 -1.891
87.54000 -1.093
87.56000 -0.296
87.58000 5.039
87.60000 5.222
87.62000 1.186
87.64000 0.535
87.66000 2.089
87.68000 2.396
87.70000 1.321
87.72000 3.475
87.74000 -0.896
87.76000 -1.057
87.78000 0.706
87.80000 3.578
87.82000 6.779
87.84000 8.196
87.86000 7.010
87.88000 6.081
87.90000 2.330
87.92000 1.095
87.94000 3.650
87.96000 2.889
87.98000 1.008
88.00000 0.830
88.02000 1.580
88.04000 1.047
88.06000 1.048
88.08000 2.739
88.10000 3.697
88.12000 3.590
88.14000 2.821
88.16000 3.878
88.18000 3.262
88.20000 3.362
88.22000 4.660
88.24000 5.272
88.26000 6.879
88.28000 5.642
88.30000 0.904
88.32000 -1.880
88.34000 1.575
88.36000 2.723
88.38000 2.100
88.40000 1.039
88.42000 1.357
88.44000 1.741
88.46000 2.564
88.48000 1.079
88.50000 3.328
88.52000 1.213
88.54000 2.951
88.56000 4.479
88.58000 3.751
88.60000 0.414
88.62000 2.240
88.64000 2.284
88.66000 4.504
88.68000 3.807
88.70000 5.028
88.72000 3.711
88.74000 2.204
88.76000 1.999
88.78000 1.986
88.80000 0.461
88.82000 3.952
88.84000 0.802
88.86000 -1.451
88.88000 -0.740
88.90000 1.349
88.92000 2.144
88.94000 -0.737
88.96000 0.249
88.98000 -1.249
89.00000 3.232
89.02000 3.108
89.04000 1.041
89.06000 0.833
89.08000 0.241
89.10000 1.148
89.12000 4.031
89.14000 2.924
89.16000 0.121
89.18000 -1.724
89.20000 -1.215
89.22000 -0.940
89.24000 1.235
89.26000 1.518
89.28000 1.511
89.30000 3.479
89.32000 6.004
89.34000 2.725
89.36000 1.450
89.38000 2.395
89.40000 4.436
89.42000 1.483
89.44000 -0.166
89.46000 3.209
89.48000 1.715
89.50000 0.009
89.52000 0.308
89.54000 -0.104
89.56000 -1.233
89.58000 -1.903
89.60000 0.938
89.62000 0.203
89.64000 -0.832
89.66000 -1.557
89.68000 0.609
89.70000 -0.040
89.72000 0.321
89.74000 1.854
89.76000 2.303
89.78000 3.248
89.80000 -0.801
89.82000 -0.264
89.84000 -1.023
89.86000 -0.395
89.88000 2.014
89.90000 3.608
89.92000 3.584
89.94000 3.353
89.96000 2.518
89.98000 2.387
90.00000 2.646
90.02000 2.512
90.04000 2.598
90.06000 2.207
90.08000 0.382
90.10000 2.760
90.12000 1.021
90.14000 0.565
90.16000 3.338
90.18000 4.059
90.20000 1.746
90.22000 3.183
90.24000 1.755
90.26000 4.918
90.28000 2.333
90.30000 4.910
90.32000 8.086
90.34000 0.999
90.36000 0.134
90.38000 1.549
90.40000 -1.870
90.42000 4.056
90.44000 3.015
90.46000 2.366
90.48000 2.532
90.50000 6.319
90.52000 4.332
90.54000 2.913
90.56000 3.914
90.58000 4.820
90.60000 6.389
90.62000 3.923
90.64000 -0.161
90.66000 3.915
90.68000 3.578
90.70000 4.736
90.72000 3.852
90.74000 3.514
90.76000 2.443
90.78000 1.059
90.80000 1.035
90.82000 1.938
90.84000 6.227
90.86000 3.887
90.88000 3.020
90.90000 4.594
90.92000 1.395
90.94000 -0.838
90.96000 1.818
90.98000 3.868
91.00000 4.938
91.02000 3.045
91.04000 2.291
91.06000 2.027
91.08000 4.605
91.10000 2.179
91.12000 -0.552
91.14000 0.220
91.16000 1.065
91.18000 2.644
91.20000 2.866
91.22000 3.186
91.24000 4.433
91.26000 2.986
91.28000 4.688
91.30000 5.833
91.32000 3.739
91.34000 0.958
91.36000 1.947
91.38000 3.832
91.40000 2.194
91.42000 -0.937
91.44000 0.485
91.46000 3.624
91.48000 2.479
91.50000 1.946
91.52000 0.858
91.54000 -0.293
91.56000 2.719
91.58000 0.121
91.60000 1.569
91.62000 2.812
91.64000 4.643
91.66000 3.779
91.68000 4.515
91.70000 2.649
91.72000 4.598
91.74000 2.216
91.76000 2.983
91.78000 1.407
91.80000 0.260
91.82000 1.088
91.84000 -0.082
91.86000 2.803
91.88000 -0.439
91.90000 0.219
91.92000 -1.892
91.94000 -1.892
91.96000 0.905
91.98000 1.840
92.00000 2.357
92.02000 0.112
92.04000 1.308
92.06000 -1.577
92.08000 2.152
92.10000 3.529
92.12000 5.922
92.14000 4.112
92.16000 1.632
92.18000 2.153
92.20000 5.351
92.22000 3.943
92.24000 -0.541
92.26000 -0.178
92.28000 2.074
92.30000 3.803
92.32000 2.672
92.34000 1.811
92.36000 2.634
92.38000 4.450
92.40000 0.170
92.42000 1.291
92.44000 4.759
92.46000 4.786
92.48000 3.444
92.50000 3.375
92.52000 1.948
92.54000 2.884
92.56000 5.612
92.58000 7.333
92.60000 4.173
92.62000 5.366
92.64000 3.119
92.66000 1.508
92.68000 1.764
92.70000 2.305
92.72000 1.599
92.74000 0.623
92.76000 2.823
92.78000 7.480
92.80000 3.601
92.82000 -0.603
92.84000 0.492
92.86000 2.567
92.88000 0.048
92.90000 -1.430
92.92000 -0.063
92.94000 1.931
92.96000 1.155
92.98000 4.276
93.00000 4.173
93.02000 -0.131
93.04000 1.584
93.06000 3.989
93.08000 3.498
93.10000 3.150
93.12000 2.938
93.14000 2.528
93.16000 3.132
93.18000 4.789
93.20000 3.806
93.22000 2.315
93.24000 3.554
93.26000 3.659
93.28000 1.745
93.30000 1.727
93.32000 1.336
93.34000 3.584
93.36000 4.144
93.38000 2.818
93.40000 5.870
93.42000 3.950
93.44000 -1.864
93.46000 4.741
93.48000 7.432
93.50000 7.224
93.52000 6.635
93.54000 4.458
93.56000 9.030
93.58000 6.241
93.60000 7.251
93.62000 10.277
93.64000 6.429
93.66000 3.660
93.68000 5.426
93.70000 6.933
93.72000 4.214
93.74000 -0.662
93.76000 -1.872
93.78000 1.460
93.80000 1.052
93.82000 1.122
93.84000 5.458
93.86000 5.056
93.88000 3.758
93.90000 2.630
93.92000 3.486
93.94000 2.470
93.96000 5.942
93.98000 3.158
94.00000 3.846
94.02000 6.592
94.04000 5.629
94.06000 5.079
94.08000 4.596
94.10000 5.544
94.12000 5.895
94.14000 6.258
94.16000 7.534
94.18000 9.399
94.20000 1.868
94.22000 2.890
94.24000 1.160
94.26000 2.367
94.28000 4.414
94.30000 4.792
94.32000 6.013
94.34000 5.349
94.36000 1.316
94.38000 2.592
94.40000 5.695
94.42000 5.245
94.44000 2.723
94.46000 3.908
94.48000 6.333
94.50000 1.586
94.52000 2.327
94.54000 2.876
94.56000 0.693
94.58000 1.986
94.60000 1.901
94.62000 5.466
94.64000 4.424
94.66000 1.731
94.68000 1.608
94.70000 3.152
94.72000 3.383
94.74000 2.256
94.76000 2.255
94.78000 1.145
94.80000 2.326
94.82000 4.062
94.84000 1.143
94.86000 0.922
94.88000 1.798
94.90000 3.676
94.92000 0.733
94.94000 0.477
94.96000 0.202
94.98000 0.682
95.00000 1.350
95.02000 1.887
95.04000 0.795
95.06000 -1.922
95.08000 0.714
95.10000 5.374
95.12000 3.677
95.14000 3.560
95.16000 3.339
95.18000 0.365
95.20000 1.234
95.22000 4.957
95.24000 6.259
95.26000 0.943
95.28000 2.760
95.30000 6.028
95.32000 7.051
95.34000 5.978
95.36000 2.942
95.38000 1.358
95.40000 0.303
95.42000 2.233
95.44000 1.112
95.46000 1.639
95.48000 3.099
95.50000 5.963
95.52000 1.160
95.54000 1.804
95.56000 0.950
95.58000 4.231
95.60000 2.845
95.62000 5.750
95.64000 3.072
95.66000 -1.330
95.68000 -0.003
95.70000 6.957
95.72000 8.012
95.74000 4.239
95.76000 3.019
95.78000 5.286
95.80000 4.631
95.82000 3.429
95.84000 6.728
95.86000 5.229
95.88000 6.293
95.90000 6.600
95.92000 1.921
95.94000 3.985
95.96000 -0.536
95.98000 -1.908
96.00000 0.114
96.02000 3.893
96.04000 3.371
96.06000 6.096
96.08000 7.978
96.10000 4.960
96.12000 1.122
96.14000 3.132
96.16000 5.481
96.18000 6.175
96.20000 4.044
96.22000 4.545
96.24000 2.857
96.26000 3.764
96.28000 3.313
96.30000 4.617
96.32000 3.760
96.34000 3.693
96.36000 3.498
96.38000 10.005
96.40000 7.890
96.42000 3.444
96.44000 4.965
96.46000 6.682
96.48000 7.201
96.50000 6.241
96.52000 1.660
96.54000 2.751
96.56000 6.331
96.58000 11.469
96.60000 9.078
96.62000 6.677
96.64000 0.376
96.66000 0.617
96.68000 3.714
96.70000 4.145
96.72000 6.750
96.74000 7.464
96.76000 0.448
96.78000 -1.868
96.80000 3.431
96.82000 6.602
96.84000 6.614
96.86000 4.076
96.88000 0.455
96.90000 2.930
96.92000 2.150
96.94000 4.062
96.96000 11.266
96.98000 7.859
97.00000 4.548
97.02000 4.327
97.04000 5.124
97.06000 5.320
97.08000 6.385
97.10000 4.239
97.12000 3.424
97.14000 4.694
97.16000 9.620
97.18000 6.887
97.20000 3.938
97.22000 4.271
97.24000 5.826
97.26000 4.092
97.28000 3.524
97.30000 1.390
97.32000 2.211
97.34000 -0.775
97.36000 2.277
97.38000 6.617
97.40000 5.309
97.42000 4.017
97.44000 4.949
97.46000 2.774
97.48000 4.781
97.50000 4.298
97.52000 6.325
97.54000 5.566
97.56000 3.931
97.58000 4.522
97.60000 -0.585
97.62000 2.870
97.64000 3.493
97.66000 6.784
97.68000 6.141
97.70000 5.613
97.72000 5.711
97.74000 -0.163
97.76000 1.269
97.78000 5.400
97.80000 1.234
97.82000 3.514
97.84000 9.090
97.86000 11.286
97.88000 5.527
97.90000 3.468
97.92000 4.428
97.94000 0.340
97.96000 3.366
97.98000 1.501
98.00000 6.836
98.02000 5.654
98.04000 6.820
98.06000 3.517
98.08000 3.693
98.10000 0.774
98.12000 -0.464
98.14000 1.964
98.16000 1.828
98.18000 4.438
98.20000 5.913
98.22000 2.336
98.24000 6.380
98.26000 2.244
98.28000 4.343
98.30000 1.431
98.32000 3.499
98.34000 0.432
98.36000 6.673
98.38000 3.618
98.40000 1.987
98.42000 5.563
98.44000 5.048
98.46000 -0.131
98.48000 1.124
98.50000 3.767
98.52000 6.801
98.54000 3.288
98.56000 -1.519
98.58000 4.207
98.60000 10.474
98.62000 10.227
98.64000 8.603
98.66000 8.320
98.68000 8.902
98.70000 5.264
98.72000 2.962
98.74000 4.041
98.76000 6.476
98.78000 3.702
98.80000 5.102
98.82000 4.381
98.84000 9.357
98.86000 10.902
98.88000 11.161
98.90000 10.967
98.92000 8.294
98.94000 6.125
98.96000 7.412
98.98000 8.339
99.00000 5.765
99.02000 8.036
99.04000 8.291
99.06000 8.086
99.08000 5.226
99.10000 4.169
99.12000 7.326
99.14000 6.757
99.16000 3.519
99.18000 7.680
99.20000 8.659
99.22000 10.002
99.24000 9.706
99.26000 9.295
99.28000 10.430
99.30000 7.163
99.32000 8.833
99.34000 11.025
99.36000 9.139
99.38000 4.324
99.40000 3.237
99.42000 9.270
99.44000 9.798
99.46000 10.833
99.48000 8.686
99.50000 6.398
99.52000 9.327
99.54000 10.882
99.56000 7.094
99.58000 8.789
99.60000 -1.768
99.62000 -0.769
99.64000 2.542
99.66000 12.556
99.68000 9.272
99.70000 4.238
99.72000 4.941
99.74000 6.521
99.76000 9.284
99.78000 13.694
99.80000 12.182
99.82000 12.955
99.84000 1.393
99.86000 7.423
99.88000 7.246
99.90000 2.592
99.92000 6.106
99.94000 14.514
99.96000 15.493
99.98000 0.000
