'Id: "0011387" Comment: "Integrate frame 0011387_Au-Ir-Rh_Rh-rich_XRD-Mapping-048-0000.gfrmwith cursor Wedge Cursor #5" Operator: "B?rgel" Anode: "Cu" Wavelength: "1.5406" Scantype: "2Theta (TwoTheta)" TimePerStep: "1" X: "4.5" Y: "-27" Z: "5.95" 
10.00000 0.000
10.02000 -4.181
10.04000 -4.113
10.06000 -1.376
10.08000 10.790
10.10000 14.419
10.12000 16.589
10.14000 12.815
10.16000 10.508
10.18000 22.528
10.20000 15.646
10.22000 20.274
10.24000 12.562
10.26000 21.634
10.28000 23.909
10.30000 4.880
10.32000 3.700
10.34000 10.378
10.36000 4.885
10.38000 3.904
10.40000 2.756
10.42000 17.831
10.44000 27.467
10.46000 17.297
10.48000 9.249
10.50000 4.997
10.52000 8.084
10.54000 12.132
10.56000 17.658
10.58000 2.420
10.60000 5.700
10.62000 12.796
10.64000 10.490
10.66000 12.482
10.68000 17.715
10.70000 18.835
10.72000 9.316
10.74000 11.629
10.76000 12.840
10.78000 4.017
10.80000 12.311
10.82000 0.747
10.84000 10.754
10.86000 9.822
10.88000 0.535
10.90000 19.335
10.92000 22.223
10.94000 18.514
10.96000 3.556
10.98000 1.074
11.00000 15.134
11.02000 10.873
11.04000 10.018
11.06000 9.814
11.08000 26.976
11.10000 15.949
11.12000 16.133
11.14000 9.099
11.16000 3.877
11.18000 13.627
11.20000 10.427
11.22000 8.670
11.24000 15.588
11.26000 25.093
11.28000 13.474
11.30000 16.188
11.32000 8.049
11.34000 21.629
11.36000 16.630
11.38000 3.134
11.40000 7.496
11.42000 12.728
11.44000 26.465
11.46000 19.833
11.48000 3.679
11.50000 -4.278
11.52000 10.878
11.54000 11.684
11.56000 22.094
11.58000 32.017
11.60000 21.643
11.62000 20.573
11.64000 23.160
11.66000 14.189
11.68000 12.545
11.70000 7.030
11.72000 10.932
11.74000 5.767
11.76000 8.150
11.78000 17.639
11.80000 2.715
11.82000 -0.478
11.84000 7.139
11.86000 8.001
11.88000 17.581
11.90000 24.884
11.92000 23.186
11.94000 12.666
11.96000 6.805
11.98000 12.577
12.00000 10.479
12.02000 3.434
12.04000 6.057
12.06000 7.018
12.08000 10.228
12.10000 15.519
12.12000 19.327
12.14000 14.639
12.16000 6.709
12.18000 9.896
12.20000 12.971
12.22000 6.517
12.24000 7.215
12.26000 11.329
12.28000 13.752
12.30000 15.156
12.32000 19.364
12.34000 20.917
12.36000 17.530
12.38000 11.826
12.40000 21.524
12.42000 8.342
12.44000 7.643
12.46000 5.532
12.48000 5.885
12.50000 8.457
12.52000 20.574
12.54000 13.083
12.56000 17.580
12.58000 8.178
12.60000 13.260
12.62000 13.897
12.64000 9.848
12.66000 17.901
12.68000 11.263
12.70000 16.290
12.72000 25.928
12.74000 18.765
12.76000 13.071
12.78000 14.940
12.80000 14.860
12.82000 13.137
12.84000 13.054
12.86000 18.833
12.88000 12.305
12.90000 8.923
12.92000 18.080
12.94000 21.615
12.96000 10.103
12.98000 9.886
13.00000 6.851
13.02000 4.797
13.04000 7.707
13.06000 10.561
13.08000 8.467
13.10000 10.597
13.12000 16.757
13.14000 6.913
13.16000 13.695
13.18000 20.341
13.20000 7.439
13.22000 13.210
13.24000 14.266
13.26000 12.245
13.28000 9.026
13.30000 14.978
13.32000 20.480
13.34000 17.860
13.36000 11.998
13.38000 8.577
13.40000 11.099
13.42000 16.435
13.44000 17.976
13.46000 14.478
13.48000 14.255
13.50000 19.952
13.52000 21.519
13.54000 12.364
13.56000 10.714
13.58000 15.665
13.60000 21.707
13.62000 12.578
13.64000 16.563
13.66000 14.165
13.68000 15.464
13.70000 14.692
13.72000 17.039
13.74000 17.109
13.76000 17.889
13.78000 20.405
13.80000 14.057
13.82000 7.526
13.84000 8.293
13.86000 13.312
13.88000 22.396
13.90000 17.168
13.92000 17.479
13.94000 12.529
13.96000 11.284
13.98000 7.490
14.00000 8.841
14.02000 16.445
14.04000 22.778
14.06000 18.589
14.08000 12.420
14.10000 5.735
14.12000 18.366
14.14000 9.002
14.16000 7.838
14.18000 7.566
14.20000 2.870
14.22000 8.739
14.24000 16.082
14.26000 23.515
14.28000 20.898
14.30000 13.964
14.32000 1.510
14.34000 11.814
14.36000 18.129
14.38000 8.736
14.40000 6.068
14.42000 16.988
14.44000 17.672
14.46000 13.653
14.48000 11.626
14.50000 5.493
14.52000 11.698
14.54000 24.111
14.56000 11.917
14.58000 4.216
14.60000 8.323
14.62000 10.979
14.64000 12.742
14.66000 15.462
14.68000 3.557
14.70000 2.271
14.72000 9.977
14.74000 15.599
14.76000 4.871
14.78000 -2.299
14.80000 3.889
14.82000 12.137
14.84000 4.369
14.86000 6.151
14.88000 -0.024
14.90000 3.092
14.92000 15.360
14.94000 17.001
14.96000 4.589
14.98000 -4.385
15.00000 8.239
15.02000 9.562
15.04000 9.656
15.06000 9.526
15.08000 15.688
15.10000 23.309
15.12000 17.961
15.14000 13.314
15.16000 7.948
15.18000 9.786
15.20000 14.957
15.22000 15.750
15.24000 14.427
15.26000 14.087
15.28000 6.884
15.30000 6.774
15.32000 1.689
15.34000 7.713
15.36000 9.010
15.38000 5.572
15.40000 4.674
15.42000 9.167
15.44000 13.453
15.46000 15.921
15.48000 14.454
15.50000 19.969
15.52000 20.938
15.54000 22.085
15.56000 19.233
15.58000 13.875
15.60000 14.352
15.62000 11.188
15.64000 4.512
15.66000 6.292
15.68000 4.978
15.70000 7.986
15.72000 5.314
15.74000 8.689
15.76000 12.274
15.78000 9.523
15.80000 15.090
15.82000 15.541
15.84000 4.678
15.86000 1.457
15.88000 14.672
15.90000 13.568
15.92000 11.674
15.94000 10.764
15.96000 7.650
15.98000 6.200
16.00000 3.311
16.02000 22.050
16.04000 16.111
16.06000 6.393
16.08000 4.203
16.10000 -0.789
16.12000 5.476
16.14000 7.638
16.16000 12.035
16.18000 15.366
16.20000 8.330
16.22000 9.570
16.24000 4.842
16.26000 2.966
16.28000 5.519
16.30000 4.713
16.32000 1.875
16.34000 0.486
16.36000 7.233
16.38000 10.524
16.40000 10.028
16.42000 6.604
16.44000 0.571
16.46000 5.104
16.48000 7.054
16.50000 10.053
16.52000 11.939
16.54000 11.092
16.56000 9.183
16.58000 7.829
16.60000 4.753
16.62000 12.772
16.64000 7.603
16.66000 1.808
16.68000 4.015
16.70000 1.007
16.72000 4.908
16.74000 9.835
16.76000 8.995
16.78000 4.294
16.80000 -0.123
16.82000 -4.373
16.84000 0.836
16.86000 5.157
16.88000 2.023
16.90000 7.173
16.92000 7.186
16.94000 2.001
16.96000 5.661
16.98000 -0.391
17.00000 10.082
17.02000 8.662
17.04000 4.704
17.06000 4.298
17.08000 2.763
17.10000 6.475
17.12000 6.690
17.14000 6.937
17.16000 8.220
17.18000 7.546
17.20000 11.171
17.22000 10.450
17.24000 4.471
17.26000 -3.531
17.28000 0.680
17.30000 5.610
17.32000 9.392
17.34000 8.354
17.36000 -3.155
17.38000 5.790
17.40000 7.131
17.42000 5.277
17.44000 2.359
17.46000 3.206
17.48000 3.321
17.50000 12.424
17.52000 16.820
17.54000 6.685
17.56000 5.036
17.58000 7.431
17.60000 7.354
17.62000 4.119
17.64000 2.393
17.66000 3.578
17.68000 1.383
17.70000 -0.813
17.72000 6.875
17.74000 2.294
17.76000 -4.347
17.78000 1.191
17.80000 -1.166
17.82000 8.086
17.84000 2.107
17.86000 -2.381
17.88000 -3.002
17.90000 1.124
17.92000 5.221
17.94000 1.724
17.96000 0.483
17.98000 8.043
18.00000 0.534
18.02000 1.017
18.04000 0.315
18.06000 2.903
18.08000 3.457
18.10000 4.202
18.12000 9.052
18.14000 3.860
18.16000 -0.812
18.18000 -3.297
18.20000 0.908
18.22000 4.494
18.24000 7.888
18.26000 1.910
18.28000 3.975
18.30000 4.697
18.32000 3.396
18.34000 0.131
18.36000 -3.881
18.38000 2.681
18.40000 13.065
18.42000 2.573
18.44000 -4.309
18.46000 -3.282
18.48000 5.385
18.50000 4.768
18.52000 5.334
18.54000 7.693
18.56000 5.424
18.58000 -1.926
18.60000 2.627
18.62000 2.738
18.64000 5.392
18.66000 15.649
18.68000 6.844
18.70000 -0.330
18.72000 -4.231
18.74000 1.798
18.76000 4.613
18.78000 -1.362
18.80000 2.301
18.82000 1.594
18.84000 5.254
18.86000 3.084
18.88000 2.879
18.90000 1.007
18.92000 0.485
18.94000 -4.281
18.96000 -1.942
18.98000 1.364
19.00000 6.491
19.02000 9.171
19.04000 4.655
19.06000 -1.268
19.08000 -3.550
19.10000 -4.042
19.12000 -0.068
19.14000 -1.588
19.16000 5.250
19.18000 4.278
19.20000 2.686
19.22000 4.869
19.24000 4.942
19.26000 5.557
19.28000 0.034
19.30000 0.157
19.32000 1.080
19.34000 0.917
19.36000 5.248
19.38000 6.061
19.40000 5.993
19.42000 3.297
19.44000 4.085
19.46000 1.933
19.48000 5.312
19.50000 4.101
19.52000 -1.484
19.54000 -1.179
19.56000 -1.818
19.58000 4.442
19.60000 4.004
19.62000 5.337
19.64000 2.747
19.66000 -2.288
19.68000 -2.116
19.70000 6.129
19.72000 2.611
19.74000 -0.507
19.76000 0.494
19.78000 2.703
19.80000 2.930
19.82000 -1.588
19.84000 -3.507
19.86000 -2.606
19.88000 1.022
19.90000 3.185
19.92000 6.693
19.94000 1.083
19.96000 -0.759
19.98000 2.423
20.00000 10.078
20.02000 4.701
20.04000 6.625
20.06000 3.588
20.08000 4.004
20.10000 6.141
20.12000 1.097
20.14000 -1.390
20.16000 0.753
20.18000 -2.144
20.20000 5.937
20.22000 0.406
20.24000 4.899
20.26000 4.753
20.28000 8.439
20.30000 7.032
20.32000 4.160
20.34000 2.755
20.36000 5.429
20.38000 0.099
20.40000 4.964
20.42000 4.502
20.44000 1.470
20.46000 0.076
20.48000 1.907
20.50000 4.875
20.52000 2.766
20.54000 4.586
20.56000 7.515
20.58000 3.402
20.60000 -3.766
20.62000 -0.150
20.64000 0.691
20.66000 4.460
20.68000 10.313
20.70000 7.411
20.72000 6.544
20.74000 9.565
20.76000 6.511
20.78000 1.526
20.80000 -2.500
20.82000 -0.445
20.84000 1.822
20.86000 3.147
20.88000 5.992
20.90000 13.455
20.92000 9.210
20.94000 6.451
20.96000 0.032
20.98000 4.036
21.00000 10.444
21.02000 12.248
21.04000 3.183
21.06000 -4.095
21.08000 3.965
21.10000 4.313
21.12000 5.889
21.14000 2.959
21.16000 8.578
21.18000 6.578
21.20000 7.015
21.22000 6.605
21.24000 -0.605
21.26000 5.663
21.28000 12.022
21.30000 7.935
21.32000 2.278
21.34000 6.192
21.36000 7.809
21.38000 -1.874
21.40000 -1.653
21.42000 5.530
21.44000 10.273
21.46000 3.479
21.48000 6.232
21.50000 11.881
21.52000 7.892
21.54000 5.582
21.56000 7.179
21.58000 2.119
21.60000 -1.004
21.62000 7.923
21.64000 8.464
21.66000 6.434
21.68000 7.926
21.70000 6.703
21.72000 9.398
21.74000 8.392
21.76000 9.598
21.78000 6.909
21.80000 3.951
21.82000 2.425
21.84000 4.219
21.86000 8.243
21.88000 6.995
21.90000 6.285
21.92000 0.818
21.94000 2.881
21.96000 6.160
21.98000 6.384
22.00000 -2.687
22.02000 -4.055
22.04000 5.314
22.06000 11.561
22.08000 17.902
22.10000 10.395
22.12000 12.647
22.14000 11.438
22.16000 8.211
22.18000 5.387
22.20000 10.261
22.22000 5.195
22.24000 2.351
22.26000 4.825
22.28000 6.505
22.30000 4.664
22.32000 6.697
22.34000 6.352
22.36000 2.613
22.38000 3.819
22.40000 8.955
22.42000 10.038
22.44000 7.655
22.46000 7.169
22.48000 5.653
22.50000 0.225
22.52000 0.697
22.54000 -4.052
22.56000 0.063
22.58000 -0.252
22.60000 7.007
22.62000 16.779
22.64000 7.581
22.66000 1.216
22.68000 1.895
22.70000 -0.045
22.72000 -3.475
22.74000 0.441
22.76000 5.938
22.78000 -0.760
22.80000 4.975
22.82000 9.393
22.84000 6.319
22.86000 7.600
22.88000 6.339
22.90000 1.744
22.92000 5.495
22.94000 7.062
22.96000 7.499
22.98000 7.559
23.00000 4.330
23.02000 2.058
23.04000 -0.715
23.06000 2.431
23.08000 5.265
23.10000 2.984
23.12000 -0.063
23.14000 0.797
23.16000 -3.091
23.18000 -4.032
23.20000 -1.558
23.22000 -3.521
23.24000 -0.657
23.26000 1.318
23.28000 3.106
23.30000 0.745
23.32000 -0.091
23.34000 0.955
23.36000 2.275
23.38000 2.817
23.40000 1.431
23.42000 -3.612
23.44000 1.582
23.46000 2.464
23.48000 3.170
23.50000 -0.110
23.52000 7.323
23.54000 6.919
23.56000 1.463
23.58000 2.312
23.60000 1.969
23.62000 1.738
23.64000 -0.234
23.66000 0.178
23.68000 -1.035
23.70000 2.316
23.72000 2.006
23.74000 2.177
23.76000 0.195
23.78000 1.372
23.80000 3.734
23.82000 8.127
23.84000 9.681
23.86000 4.786
23.88000 0.563
23.90000 7.430
23.92000 2.796
23.94000 -2.628
23.96000 -0.018
23.98000 7.179
24.00000 10.586
24.02000 7.014
24.04000 -1.978
24.06000 1.107
24.08000 4.990
24.10000 4.299
24.12000 3.024
24.14000 6.193
24.16000 2.575
24.18000 2.786
24.20000 0.902
24.22000 2.339
24.24000 -3.952
24.26000 8.405
24.28000 5.525
24.30000 4.039
24.32000 7.472
24.34000 7.442
24.36000 0.405
24.38000 -2.758
24.40000 2.457
24.42000 9.609
24.44000 11.174
24.46000 4.106
24.48000 -3.932
24.50000 -2.152
24.52000 6.212
24.54000 3.920
24.56000 -0.769
24.58000 1.229
24.60000 4.419
24.62000 1.853
24.64000 1.617
24.66000 -2.214
24.68000 -2.926
24.70000 6.504
24.72000 5.569
24.74000 9.430
24.76000 5.429
24.78000 2.124
24.80000 2.005
24.82000 -0.975
24.84000 0.800
24.86000 4.055
24.88000 8.076
24.90000 9.095
24.92000 5.924
24.94000 5.998
24.96000 2.699
24.98000 5.419
25.00000 4.597
25.02000 4.691
25.04000 5.544
25.06000 -0.990
25.08000 -1.359
25.10000 4.638
25.12000 5.631
25.14000 -0.507
25.16000 -2.575
25.18000 -2.021
25.20000 5.089
25.22000 12.113
25.24000 6.700
25.26000 -0.204
25.28000 0.539
25.30000 -3.467
25.32000 -3.880
25.34000 1.923
25.36000 -0.353
25.38000 1.700
25.40000 4.179
25.42000 4.550
25.44000 2.872
25.46000 4.777
25.48000 7.201
25.50000 9.235
25.52000 4.523
25.54000 -0.677
25.56000 2.664
25.58000 5.722
25.60000 2.324
25.62000 3.962
25.64000 5.716
25.66000 6.394
25.68000 3.909
25.70000 6.650
25.72000 7.221
25.74000 1.803
25.76000 2.457
25.78000 -1.306
25.80000 -0.251
25.82000 0.738
25.84000 7.749
25.86000 2.905
25.88000 8.998
25.90000 9.414
25.92000 6.002
25.94000 0.800
25.96000 2.209
25.98000 0.424
26.00000 1.692
26.02000 6.551
26.04000 6.202
26.06000 2.543
26.08000 -0.096
26.10000 3.857
26.12000 3.783
26.14000 2.885
26.16000 2.742
26.18000 1.311
26.20000 -0.111
26.22000 3.259
26.24000 0.876
26.26000 -1.916
26.28000 5.980
26.30000 5.598
26.32000 2.262
26.34000 1.830
26.36000 3.046
26.38000 -1.108
26.40000 0.323
26.42000 2.468
26.44000 3.400
26.46000 3.449
26.48000 6.140
26.50000 5.856
26.52000 0.260
26.54000 -3.825
26.56000 -0.628
26.58000 3.970
26.60000 5.344
26.62000 5.782
26.64000 7.073
26.66000 6.004
26.68000 9.483
26.70000 7.254
26.72000 0.837
26.74000 5.654
26.76000 7.530
26.78000 6.984
26.80000 4.928
26.82000 2.235
26.84000 -1.547
26.86000 -2.310
26.88000 -3.816
26.90000 4.092
26.92000 7.027
26.94000 5.476
26.96000 6.899
26.98000 1.995
27.00000 1.384
27.02000 -0.681
27.04000 3.424
27.06000 3.406
27.08000 1.602
27.10000 3.092
27.12000 7.546
27.14000 8.828
27.16000 10.494
27.18000 10.863
27.20000 3.655
27.22000 -3.806
27.24000 4.448
27.26000 6.259
27.28000 3.173
27.30000 -2.567
27.32000 -1.888
27.34000 2.991
27.36000 3.823
27.38000 1.889
27.40000 -0.170
27.42000 2.360
27.44000 1.247
27.46000 0.499
27.48000 1.021
27.50000 2.565
27.52000 2.630
27.54000 -0.099
27.56000 5.036
27.58000 4.022
27.60000 0.452
27.62000 2.497
27.64000 1.564
27.66000 -1.166
27.68000 -1.869
27.70000 0.457
27.72000 0.775
27.74000 0.847
27.76000 4.055
27.78000 1.598
27.80000 2.900
27.82000 -1.188
27.84000 -1.881
27.86000 4.075
27.88000 2.367
27.90000 -0.646
27.92000 -3.529
27.94000 0.901
27.96000 3.947
27.98000 -0.146
28.00000 0.479
28.02000 -1.784
28.04000 0.437
28.06000 0.628
28.08000 -2.613
28.10000 3.629
28.12000 7.081
28.14000 -3.552
28.16000 2.530
28.18000 -0.794
28.20000 1.653
28.22000 1.516
28.24000 -3.758
28.26000 -0.467
28.28000 -0.967
28.30000 4.309
28.32000 6.021
28.34000 5.361
28.36000 -2.223
28.38000 -2.367
28.40000 -0.535
28.42000 -1.334
28.44000 6.320
28.46000 6.882
28.48000 4.821
28.50000 0.902
28.52000 -2.929
28.54000 -0.012
28.56000 3.882
28.58000 2.252
28.60000 2.759
28.62000 2.752
28.64000 8.308
28.66000 2.515
28.68000 1.017
28.70000 -0.783
28.72000 1.657
28.74000 6.196
28.76000 5.485
28.78000 5.568
28.80000 -3.358
28.82000 -3.688
28.84000 -0.812
28.86000 -1.659
28.88000 -2.828
28.90000 -2.306
28.92000 2.525
28.94000 2.599
28.96000 1.977
28.98000 3.355
29.00000 8.421
29.02000 5.893
29.04000 3.897
29.06000 0.859
29.08000 -3.686
29.10000 -2.187
29.12000 -0.503
29.14000 2.318
29.16000 4.571
29.18000 8.852
29.20000 6.046
29.22000 2.509
29.24000 2.544
29.26000 2.387
29.28000 3.410
29.30000 2.752
29.32000 3.762
29.34000 9.105
29.36000 5.233
29.38000 3.018
29.40000 2.191
29.42000 5.636
29.44000 8.347
29.46000 6.242
29.48000 4.637
29.50000 5.716
29.52000 2.177
29.54000 -2.314
29.56000 1.504
29.58000 1.738
29.60000 3.731
29.62000 2.275
29.64000 6.670
29.66000 7.516
29.68000 4.616
29.70000 0.224
29.72000 0.769
29.74000 1.545
29.76000 0.813
29.78000 2.274
29.80000 5.249
29.82000 3.238
29.84000 3.770
29.86000 -1.758
29.88000 1.139
29.90000 2.994
29.92000 -0.429
29.94000 2.318
29.96000 3.526
29.98000 1.069
30.00000 2.319
30.02000 1.548
30.04000 1.397
30.06000 1.189
30.08000 -2.233
30.10000 1.372
30.12000 3.155
30.14000 -0.868
30.16000 -1.821
30.18000 0.231
30.20000 0.222
30.22000 0.482
30.24000 1.548
30.26000 2.181
30.28000 -0.622
30.30000 0.728
30.32000 2.789
30.34000 1.806
30.36000 3.120
30.38000 4.088
30.40000 4.100
30.42000 3.265
30.44000 2.435
30.46000 2.805
30.48000 3.547
30.50000 0.755
30.52000 3.635
30.54000 5.552
30.56000 2.664
30.58000 3.848
30.60000 1.762
30.62000 -1.078
30.64000 3.850
30.66000 2.696
30.68000 1.024
30.70000 5.470
30.72000 5.437
30.74000 2.246
30.76000 -3.629
30.78000 -2.545
30.80000 -0.068
30.82000 2.401
30.84000 1.698
30.86000 4.194
30.88000 4.865
30.90000 0.656
30.92000 4.458
30.94000 2.353
30.96000 3.002
30.98000 7.158
31.00000 2.792
31.02000 -1.671
31.04000 -0.534
31.06000 0.660
31.08000 -2.139
31.10000 -2.254
31.12000 -3.244
31.14000 -0.396
31.16000 5.790
31.18000 9.295
31.20000 4.815
31.22000 -0.244
31.24000 2.678
31.26000 4.560
31.28000 1.160
31.30000 0.714
31.32000 3.268
31.34000 2.203
31.36000 -2.365
31.38000 0.925
31.40000 1.769
31.42000 3.454
31.44000 5.363
31.46000 10.304
31.48000 5.619
31.50000 -3.591
31.52000 -2.829
31.54000 2.606
31.56000 3.995
31.58000 -0.901
31.60000 -3.101
31.62000 -1.888
31.64000 -1.159
31.66000 -0.589
31.68000 -0.943
31.70000 0.479
31.72000 4.353
31.74000 3.244
31.76000 2.427
31.78000 4.008
31.80000 3.135
31.82000 3.265
31.84000 5.771
31.86000 0.405
31.88000 -2.473
31.90000 -3.146
31.92000 -3.579
31.94000 2.290
31.96000 4.989
31.98000 -0.853
32.00000 0.761
32.02000 0.697
32.04000 -0.894
32.06000 0.812
32.08000 3.270
32.10000 -0.470
32.12000 5.492
32.14000 5.371
32.16000 3.378
32.18000 2.854
32.20000 0.638
32.22000 1.281
32.24000 1.732
32.26000 2.839
32.28000 5.338
32.30000 -0.855
32.32000 -3.562
32.34000 1.205
32.36000 8.572
32.38000 7.317
32.40000 2.214
32.42000 0.063
32.44000 -1.131
32.46000 0.539
32.48000 3.035
32.50000 4.266
32.52000 2.126
32.54000 4.305
32.56000 -0.270
32.58000 -1.917
32.60000 0.750
32.62000 3.154
32.64000 4.715
32.66000 3.048
32.68000 -0.237
32.70000 1.820
32.72000 2.357
32.74000 -1.451
32.76000 0.707
32.78000 1.198
32.80000 3.775
32.82000 3.241
32.84000 1.104
32.86000 0.112
32.88000 4.927
32.90000 5.065
32.92000 2.082
32.94000 0.343
32.96000 4.882
32.98000 -1.304
33.00000 -3.518
33.02000 3.472
33.04000 3.631
33.06000 8.146
33.08000 5.261
33.10000 5.172
33.12000 3.481
33.14000 4.480
33.16000 4.742
33.18000 6.021
33.20000 4.419
33.22000 6.300
33.24000 4.316
33.26000 3.193
33.28000 3.484
33.30000 0.496
33.32000 -2.333
33.34000 1.234
33.36000 -1.266
33.38000 0.737
33.40000 -2.443
33.42000 2.190
33.44000 3.518
33.46000 3.672
33.48000 4.221
33.50000 7.748
33.52000 8.174
33.54000 6.624
33.56000 4.512
33.58000 1.010
33.60000 -0.650
33.62000 2.504
33.64000 1.815
33.66000 5.063
33.68000 8.448
33.70000 1.272
33.72000 -2.046
33.74000 2.879
33.76000 6.526
33.78000 3.155
33.80000 -1.384
33.82000 -3.515
33.84000 1.314
33.86000 8.296
33.88000 5.946
33.90000 3.915
33.92000 4.546
33.94000 6.495
33.96000 0.013
33.98000 1.314
34.00000 4.508
34.02000 5.540
34.04000 6.763
34.06000 6.205
34.08000 0.720
34.10000 -2.360
34.12000 1.363
34.14000 -0.962
34.16000 1.391
34.18000 4.151
34.20000 8.636
34.22000 6.546
34.24000 3.196
34.26000 -1.031
34.28000 3.740
34.30000 5.929
34.32000 5.688
34.34000 -1.620
34.36000 0.677
34.38000 4.567
34.40000 3.642
34.42000 1.699
34.44000 -2.756
34.46000 -3.488
34.48000 0.211
34.50000 1.953
34.52000 0.646
34.54000 -1.089
34.56000 0.180
34.58000 0.878
34.60000 2.587
34.62000 0.985
34.64000 -2.672
34.66000 -1.840
34.68000 2.296
34.70000 6.704
34.72000 2.462
34.74000 1.795
34.76000 -1.902
34.78000 -2.694
34.80000 -1.738
34.82000 0.033
34.84000 -0.429
34.86000 -0.781
34.88000 0.988
34.90000 4.701
34.92000 1.197
34.94000 -0.534
34.96000 -1.587
34.98000 -2.722
35.00000 -0.501
35.02000 2.918
35.04000 0.574
35.06000 0.487
35.08000 0.962
35.10000 1.177
35.12000 0.385
35.14000 0.218
35.16000 2.142
35.18000 -0.976
35.20000 2.443
35.22000 3.672
35.24000 4.023
35.26000 2.368
35.28000 2.242
35.30000 -2.788
35.32000 -2.576
35.34000 -3.355
35.36000 0.425
35.38000 2.550
35.40000 -1.243
35.42000 7.560
35.44000 5.248
35.46000 2.162
35.48000 -0.954
35.50000 4.612
35.52000 8.249
35.54000 10.282
35.56000 4.532
35.58000 -1.119
35.60000 -2.633
35.62000 0.624
35.64000 0.199
35.66000 0.153
35.68000 -1.492
35.70000 -0.283
35.72000 0.424
35.74000 -0.940
35.76000 -1.104
35.78000 -2.770
35.80000 -2.812
35.82000 -3.437
35.84000 -3.041
35.86000 6.739
35.88000 3.184
35.90000 -1.971
35.92000 2.552
35.94000 6.060
35.96000 4.304
35.98000 -0.588
36.00000 -0.825
36.02000 5.832
36.04000 4.659
36.06000 2.917
36.08000 1.677
36.10000 4.089
36.12000 5.626
36.14000 4.983
36.16000 3.899
36.18000 4.029
36.20000 1.284
36.22000 5.751
36.24000 7.514
36.26000 2.688
36.28000 0.971
36.30000 0.724
36.32000 -3.441
36.34000 -1.018
36.36000 6.951
36.38000 3.238
36.40000 0.484
36.42000 2.599
36.44000 1.007
36.46000 1.958
36.48000 3.373
36.50000 3.879
36.52000 2.035
36.54000 4.784
36.56000 1.800
36.58000 1.430
36.60000 5.107
36.62000 7.709
36.64000 7.066
36.66000 7.746
36.68000 1.916
36.70000 3.536
36.72000 4.662
36.74000 4.044
36.76000 6.110
36.78000 2.036
36.80000 -0.180
36.82000 2.212
36.84000 3.107
36.86000 5.122
36.88000 6.208
36.90000 2.023
36.92000 2.712
36.94000 6.374
36.96000 3.101
36.98000 0.747
37.00000 2.239
37.02000 -1.860
37.04000 -0.692
37.06000 4.607
37.08000 4.791
37.10000 7.516
37.12000 5.173
37.14000 5.436
37.16000 3.341
37.18000 4.704
37.20000 7.148
37.22000 5.342
37.24000 1.933
37.26000 4.209
37.28000 3.555
37.30000 2.280
37.32000 1.322
37.34000 3.443
37.36000 1.843
37.38000 4.520
37.40000 1.910
37.42000 -1.396
37.44000 -3.478
37.46000 -1.020
37.48000 -0.937
37.50000 -0.478
37.52000 1.073
37.54000 4.283
37.56000 4.822
37.58000 3.499
37.60000 2.566
37.62000 -1.731
37.64000 1.622
37.66000 2.845
37.68000 1.698
37.70000 0.209
37.72000 0.943
37.74000 0.132
37.76000 5.365
37.78000 4.474
37.80000 3.408
37.82000 1.868
37.84000 1.572
37.86000 -1.220
37.88000 2.806
37.90000 7.719
37.92000 2.484
37.94000 3.274
37.96000 4.613
37.98000 3.929
38.00000 2.303
38.02000 3.307
38.04000 7.593
38.06000 8.399
38.08000 5.304
38.10000 3.715
38.12000 4.722
38.14000 9.328
38.16000 9.916
38.18000 9.203
38.20000 10.127
38.22000 12.085
38.24000 12.579
38.26000 7.623
38.28000 12.256
38.30000 11.079
38.32000 10.136
38.34000 14.402
38.36000 13.103
38.38000 10.784
38.40000 10.323
38.42000 6.754
38.44000 10.620
38.46000 13.767
38.48000 16.963
38.50000 15.729
38.52000 13.227
38.54000 12.568
38.56000 13.610
38.58000 20.107
38.60000 17.638
38.62000 19.345
38.64000 18.749
38.66000 18.706
38.68000 14.312
38.70000 21.045
38.72000 24.431
38.74000 22.424
38.76000 24.201
38.78000 21.378
38.80000 19.148
38.82000 23.407
38.84000 22.573
38.86000 21.061
38.88000 21.082
38.90000 23.592
38.92000 24.769
38.94000 27.548
38.96000 29.328
38.98000 29.376
39.00000 29.953
39.02000 30.928
39.04000 35.802
39.06000 31.663
39.08000 31.221
39.10000 32.630
39.12000 33.554
39.14000 35.210
39.16000 35.789
39.18000 36.048
39.20000 36.852
39.22000 40.852
39.24000 41.453
39.26000 36.642
39.28000 42.052
39.30000 45.866
39.32000 45.728
39.34000 49.058
39.36000 52.605
39.38000 57.672
39.40000 51.989
39.42000 55.364
39.44000 56.387
39.46000 61.070
39.48000 62.022
39.50000 61.634
39.52000 77.113
39.54000 77.645
39.56000 82.636
39.58000 80.970
39.60000 93.706
39.62000 104.388
39.64000 101.751
39.66000 107.629
39.68000 113.012
39.70000 123.339
39.72000 125.804
39.74000 131.479
39.76000 137.383
39.78000 149.794
39.80000 161.800
39.82000 165.563
39.84000 174.134
39.86000 186.339
39.88000 208.764
39.90000 223.223
39.92000 238.677
39.94000 253.217
39.96000 273.049
39.98000 291.042
40.00000 309.239
40.02000 328.107
40.04000 349.003
40.06000 381.021
40.08000 408.667
40.10000 446.365
40.12000 469.722
40.14000 506.644
40.16000 539.479
40.18000 569.508
40.20000 601.627
40.22000 641.214
40.24000 674.662
40.26000 716.677
40.28000 743.951
40.30000 791.239
40.32000 832.769
40.34000 873.651
40.36000 907.713
40.38000 930.354
40.40000 961.697
40.42000 981.399
40.44000 1001.993
40.46000 1025.583
40.48000 1030.244
40.50000 1030.551
40.52000 1039.772
40.54000 1036.973
40.56000 1029.031
40.58000 1008.978
40.60000 1004.702
40.62000 990.156
40.64000 980.072
40.66000 950.833
40.68000 912.054
40.70000 889.254
40.72000 860.289
40.74000 842.037
40.76000 816.479
40.78000 789.537
40.80000 760.730
40.82000 722.046
40.84000 680.923
40.86000 650.739
40.88000 621.615
40.90000 593.453
40.92000 564.642
40.94000 535.907
40.96000 517.488
40.98000 502.285
41.00000 472.365
41.02000 444.488
41.04000 411.354
41.06000 390.551
41.08000 370.840
41.10000 354.211
41.12000 330.425
41.14000 307.618
41.16000 292.942
41.18000 282.343
41.20000 257.344
41.22000 246.249
41.24000 234.537
41.26000 217.118
41.28000 208.001
41.30000 197.687
41.32000 189.046
41.34000 177.616
41.36000 172.064
41.38000 162.839
41.40000 148.639
41.42000 143.855
41.44000 137.691
41.46000 132.596
41.48000 126.815
41.50000 119.442
41.52000 111.703
41.54000 106.670
41.56000 104.053
41.58000 94.538
41.60000 86.460
41.62000 83.555
41.64000 78.722
41.66000 79.409
41.68000 76.222
41.70000 70.828
41.72000 64.754
41.74000 61.213
41.76000 61.636
41.78000 58.706
41.80000 54.845
41.82000 55.618
41.84000 53.578
41.86000 48.712
41.88000 47.697
41.90000 45.115
41.92000 46.682
41.94000 49.774
41.96000 44.048
41.98000 35.442
42.00000 36.324
42.02000 40.496
42.04000 33.966
42.06000 23.112
42.08000 27.945
42.10000 32.170
42.12000 27.782
42.14000 20.806
42.16000 23.901
42.18000 27.600
42.20000 27.715
42.22000 21.561
42.24000 20.418
42.26000 19.032
42.28000 19.431
42.30000 21.090
42.32000 19.110
42.34000 17.906
42.36000 16.814
42.38000 19.122
42.40000 15.635
42.42000 13.649
42.44000 12.121
42.46000 13.858
42.48000 11.813
42.50000 11.455
42.52000 14.219
42.54000 13.174
42.56000 6.204
42.58000 4.496
42.60000 7.423
42.62000 5.716
42.64000 6.339
42.66000 5.024
42.68000 3.610
42.70000 2.452
42.72000 1.018
42.74000 4.699
42.76000 7.989
42.78000 4.811
42.80000 2.622
42.82000 3.342
42.84000 5.293
42.86000 10.077
42.88000 9.015
42.90000 2.033
42.92000 -0.243
42.94000 -0.035
42.96000 1.372
42.98000 -0.759
43.00000 -0.186
43.02000 -0.505
43.04000 -1.409
43.06000 0.383
43.08000 -0.814
43.10000 4.525
43.12000 4.135
43.14000 3.669
43.16000 2.085
43.18000 0.143
43.20000 -1.393
43.22000 -3.336
43.24000 -0.664
43.26000 6.241
43.28000 1.714
43.30000 -1.651
43.32000 1.201
43.34000 0.900
43.36000 0.020
43.38000 0.376
43.40000 -3.064
43.42000 -0.553
43.44000 -2.307
43.46000 -1.650
43.48000 -0.275
43.50000 -0.091
43.52000 -3.372
43.54000 -3.389
43.56000 -1.102
43.58000 -0.446
43.60000 1.455
43.62000 2.565
43.64000 4.753
43.66000 4.494
43.68000 5.251
43.70000 3.186
43.72000 -0.564
43.74000 0.477
43.76000 2.493
43.78000 1.275
43.80000 -2.267
43.82000 1.779
43.84000 1.086
43.86000 2.265
43.88000 3.914
43.90000 2.699
43.92000 -1.377
43.94000 -2.595
43.96000 -2.941
43.98000 -2.973
44.00000 0.596
44.02000 -0.761
44.04000 -3.286
44.06000 -1.740
44.08000 1.627
44.10000 -1.686
44.12000 -1.190
44.14000 2.518
44.16000 1.990
44.18000 1.730
44.20000 -0.593
44.22000 -1.481
44.24000 1.477
44.26000 -1.197
44.28000 -1.657
44.30000 0.302
44.32000 3.807
44.34000 3.748
44.36000 -0.815
44.38000 -0.824
44.40000 -3.233
44.42000 -0.109
44.44000 3.223
44.46000 3.477
44.48000 3.960
44.50000 1.565
44.52000 0.970
44.54000 5.821
44.56000 2.729
44.58000 0.307
44.60000 1.644
44.62000 4.206
44.64000 0.399
44.66000 -3.198
44.68000 2.490
44.70000 4.708
44.72000 0.338
44.74000 3.400
44.76000 3.414
44.78000 7.227
44.80000 5.743
44.82000 1.965
44.84000 -1.666
44.86000 -0.176
44.88000 0.481
44.90000 0.879
44.92000 0.799
44.94000 3.798
44.96000 -0.056
44.98000 0.854
45.00000 1.568
45.02000 0.711
45.04000 2.286
45.06000 3.421
45.08000 2.719
45.10000 5.878
45.12000 1.003
45.14000 -2.521
45.16000 -2.636
45.18000 0.896
45.20000 0.624
45.22000 0.290
45.24000 -0.600
45.26000 0.325
45.28000 2.051
45.30000 0.929
45.32000 1.797
45.34000 2.233
45.36000 0.524
45.38000 0.659
45.40000 3.835
45.42000 2.923
45.44000 4.039
45.46000 3.057
45.48000 2.760
45.50000 2.273
45.52000 5.959
45.54000 4.121
45.56000 8.804
45.58000 3.319
45.60000 2.994
45.62000 7.318
45.64000 5.173
45.66000 2.060
45.68000 7.080
45.70000 6.032
45.72000 3.912
45.74000 3.403
45.76000 5.560
45.78000 8.559
45.80000 8.841
45.82000 7.004
45.84000 8.272
45.86000 10.409
45.88000 10.951
45.90000 13.494
45.92000 13.591
45.94000 16.817
45.96000 13.894
45.98000 13.026
46.00000 11.148
46.02000 12.758
46.04000 7.390
46.06000 7.754
46.08000 12.373
46.10000 15.141
46.12000 18.722
46.14000 18.987
46.16000 19.376
46.18000 16.777
46.20000 22.052
46.22000 24.445
46.24000 21.465
46.26000 24.134
46.28000 30.311
46.30000 28.134
46.32000 27.919
46.34000 30.458
46.36000 33.447
46.38000 29.592
46.40000 29.432
46.42000 36.675
46.44000 42.147
46.46000 39.975
46.48000 45.712
46.50000 46.315
46.52000 41.815
46.54000 50.545
46.56000 55.198
46.58000 57.328
46.60000 57.560
46.62000 61.697
46.64000 59.901
46.66000 62.286
46.68000 68.109
46.70000 63.683
46.72000 72.963
46.74000 78.194
46.76000 77.147
46.78000 79.218
46.80000 82.537
46.82000 89.908
46.84000 99.343
46.86000 101.825
46.88000 101.607
46.90000 107.067
46.92000 106.204
46.94000 112.324
46.96000 111.708
46.98000 114.650
47.00000 115.869
47.02000 116.652
47.04000 121.488
47.06000 123.320
47.08000 130.179
47.10000 134.005
47.12000 136.378
47.14000 132.129
47.16000 131.451
47.18000 127.149
47.20000 128.815
47.22000 123.387
47.24000 132.594
47.26000 133.319
47.28000 126.913
47.30000 122.361
47.32000 122.571
47.34000 124.269
47.36000 120.036
47.38000 114.276
47.40000 113.014
47.42000 106.841
47.44000 100.286
47.46000 96.009
47.48000 94.435
47.50000 87.101
47.52000 87.234
47.54000 85.198
47.56000 87.539
47.58000 81.597
47.60000 75.055
47.62000 74.065
47.64000 68.264
47.66000 66.780
47.68000 60.559
47.70000 59.113
47.72000 58.451
47.74000 55.318
47.76000 49.675
47.78000 45.548
47.80000 42.686
47.82000 39.918
47.84000 39.980
47.86000 39.816
47.88000 38.432
47.90000 35.452
47.92000 33.809
47.94000 29.984
47.96000 26.629
47.98000 29.882
48.00000 28.059
48.02000 25.150
48.04000 23.339
48.06000 26.974
48.08000 22.091
48.10000 23.459
48.12000 23.643
48.14000 20.243
48.16000 15.659
48.18000 11.993
48.20000 12.071
48.22000 12.198
48.24000 9.326
48.26000 12.056
48.28000 14.280
48.30000 11.558
48.32000 9.332
48.34000 6.214
48.36000 7.030
48.38000 9.606
48.40000 6.984
48.42000 7.120
48.44000 2.993
48.46000 2.421
48.48000 2.093
48.50000 1.356
48.52000 4.480
48.54000 2.668
48.56000 -0.040
48.58000 0.461
48.60000 0.821
48.62000 1.173
48.64000 2.900
48.66000 4.364
48.68000 -2.624
48.70000 -2.787
48.72000 0.291
48.74000 2.924
48.76000 3.315
48.78000 2.510
48.80000 4.961
48.82000 -0.629
48.84000 3.058
48.86000 0.470
48.88000 -1.653
48.90000 2.812
48.92000 6.291
48.94000 3.604
48.96000 0.992
48.98000 3.996
49.00000 3.165
49.02000 3.163
49.04000 5.972
49.06000 3.353
49.08000 3.662
49.10000 3.208
49.12000 2.700
49.14000 0.735
49.16000 2.325
49.18000 1.920
49.20000 2.918
49.22000 1.361
49.24000 3.214
49.26000 3.973
49.28000 0.743
49.30000 3.909
49.32000 2.723
49.34000 4.176
49.36000 3.047
49.38000 2.351
49.40000 4.625
49.42000 3.892
49.44000 4.199
49.46000 0.423
49.48000 -0.088
49.50000 -2.624
49.52000 -0.225
49.54000 1.236
49.56000 3.337
49.58000 2.189
49.60000 4.119
49.62000 3.657
49.64000 -0.098
49.66000 0.157
49.68000 2.408
49.70000 2.695
49.72000 4.613
49.74000 1.538
49.76000 2.868
49.78000 0.405
49.80000 -0.638
49.82000 3.201
49.84000 4.220
49.86000 3.853
49.88000 1.536
49.90000 1.681
49.92000 0.553
49.94000 2.455
49.96000 -1.685
49.98000 1.796
50.00000 4.252
50.02000 4.601
50.04000 2.486
50.06000 2.237
50.08000 1.051
50.10000 2.576
50.12000 1.377
50.14000 -0.215
50.16000 -2.144
50.18000 -1.391
50.20000 -0.161
50.22000 1.662
50.24000 2.474
50.26000 4.619
50.28000 3.633
50.30000 5.245
50.32000 5.902
50.34000 5.596
50.36000 5.486
50.38000 1.171
50.40000 -2.535
50.42000 -0.482
50.44000 1.261
50.46000 5.547
50.48000 4.545
50.50000 1.376
50.52000 -1.327
50.54000 3.665
50.56000 -0.205
50.58000 2.280
50.60000 3.378
50.62000 1.581
50.64000 0.105
50.66000 1.990
50.68000 0.182
50.70000 0.315
50.72000 2.123
50.74000 0.290
50.76000 1.514
50.78000 2.762
50.80000 2.561
50.82000 2.050
50.84000 -1.271
50.86000 0.059
50.88000 -1.772
50.90000 -1.186
50.92000 1.379
50.94000 0.845
50.96000 -2.504
50.98000 -0.555
51.00000 -0.309
51.02000 1.605
51.04000 0.978
51.06000 -2.108
51.08000 -2.500
51.10000 0.316
51.12000 4.052
51.14000 1.498
51.16000 3.340
51.18000 4.900
51.20000 1.177
51.22000 4.758
51.24000 6.573
51.26000 2.462
51.28000 0.416
51.30000 -0.252
51.32000 1.939
51.34000 2.704
51.36000 5.099
51.38000 0.361
51.40000 4.907
51.42000 3.783
51.44000 2.657
51.46000 3.341
51.48000 1.701
51.50000 1.889
51.52000 1.006
51.54000 1.647
51.56000 2.715
51.58000 3.742
51.60000 2.175
51.62000 -0.550
51.64000 0.227
51.66000 2.044
51.68000 1.756
51.70000 0.019
51.72000 0.284
51.74000 -2.495
51.76000 0.507
51.78000 2.317
51.80000 0.603
51.82000 0.861
51.84000 4.524
51.86000 3.305
51.88000 1.514
51.90000 -0.576
51.92000 0.143
51.94000 2.342
51.96000 3.745
51.98000 0.659
52.00000 -2.483
52.02000 2.491
52.04000 0.408
52.06000 -2.014
52.08000 -0.843
52.10000 0.774
52.12000 -2.269
52.14000 -0.685
52.16000 -1.165
52.18000 3.390
52.20000 -1.325
52.22000 -0.291
52.24000 1.497
52.26000 2.846
52.28000 -0.410
52.30000 -0.102
52.32000 1.886
52.34000 7.232
52.36000 1.890
52.38000 -2.470
52.40000 0.364
52.42000 2.054
52.44000 -1.306
52.46000 0.341
52.48000 -0.336
52.50000 4.145
52.52000 2.326
52.54000 4.217
52.56000 4.273
52.58000 1.830
52.60000 1.321
52.62000 0.443
52.64000 -1.156
52.66000 1.484
52.68000 4.344
52.70000 3.733
52.72000 -2.362
52.74000 -1.410
52.76000 0.191
52.78000 0.462
52.80000 -0.050
52.82000 2.482
52.84000 1.472
52.86000 -0.239
52.88000 -1.288
52.90000 -0.365
52.92000 -2.452
52.94000 0.799
52.96000 0.312
52.98000 -0.827
53.00000 -0.540
53.02000 -0.489
53.04000 -0.406
53.06000 3.258
53.08000 3.261
53.10000 1.771
53.12000 0.669
53.14000 -0.205
53.16000 0.817
53.18000 -1.020
53.20000 -1.998
53.22000 -1.423
53.24000 -2.195
53.26000 -1.474
53.28000 -2.428
53.30000 -2.300
53.32000 -1.617
53.34000 0.063
53.36000 -2.129
53.38000 1.348
53.40000 2.429
53.42000 2.338
53.44000 -0.451
53.46000 2.075
53.48000 3.957
53.50000 3.317
53.52000 3.097
53.54000 3.646
53.56000 1.492
53.58000 4.772
53.60000 2.076
53.62000 1.812
53.64000 5.499
53.66000 1.855
53.68000 2.950
53.70000 3.537
53.72000 5.555
53.74000 0.685
53.76000 -2.383
53.78000 -0.817
53.80000 2.234
53.82000 3.469
53.84000 4.037
53.86000 0.730
53.88000 3.003
53.90000 3.074
53.92000 1.294
53.94000 0.452
53.96000 1.745
53.98000 2.886
54.00000 2.898
54.02000 4.527
54.04000 2.521
54.06000 -0.150
54.08000 -0.350
54.10000 0.551
54.12000 -0.666
54.14000 1.898
54.16000 3.119
54.18000 2.900
54.20000 2.287
54.22000 3.536
54.24000 -0.703
54.26000 -1.184
54.28000 -2.402
54.30000 -2.095
54.32000 -0.100
54.34000 -0.094
54.36000 -1.106
54.38000 -0.190
54.40000 0.810
54.42000 -2.051
54.44000 2.315
54.46000 5.322
54.48000 3.912
54.50000 2.276
54.52000 2.568
54.54000 2.342
54.56000 1.743
54.58000 3.254
54.60000 1.217
54.62000 0.528
54.64000 1.160
54.66000 2.175
54.68000 3.074
54.70000 3.543
54.72000 1.345
54.74000 -0.728
54.76000 2.067
54.78000 5.822
54.80000 3.515
54.82000 3.242
54.84000 1.706
54.86000 -2.215
54.88000 -0.097
54.90000 1.030
54.92000 0.258
54.94000 -1.473
54.96000 3.012
54.98000 2.976
55.00000 1.952
55.02000 3.355
55.04000 1.519
55.06000 3.146
55.08000 1.295
55.10000 -0.544
55.12000 -0.399
55.14000 -2.382
55.16000 1.229
55.18000 5.288
55.20000 1.021
55.22000 0.616
55.24000 0.191
55.26000 2.124
55.28000 4.118
55.30000 6.314
55.32000 4.405
55.34000 1.072
55.36000 2.416
55.38000 1.969
55.40000 1.088
55.42000 2.820
55.44000 4.195
55.46000 4.393
55.48000 2.696
55.50000 1.808
55.52000 0.149
55.54000 0.262
55.56000 -1.604
55.58000 -2.364
55.60000 1.512
55.62000 1.962
55.64000 0.152
55.66000 -1.001
55.68000 -2.361
55.70000 0.469
55.72000 4.318
55.74000 2.561
55.76000 2.142
55.78000 2.878
55.80000 6.108
55.82000 5.441
55.84000 2.565
55.86000 2.943
55.88000 4.997
55.90000 5.980
55.92000 -1.299
55.94000 1.091
55.96000 3.042
55.98000 0.888
56.00000 0.967
56.02000 3.229
56.04000 4.766
56.06000 0.975
56.08000 -1.463
56.10000 -0.505
56.12000 -0.501
56.14000 -1.938
56.16000 -0.862
56.18000 1.695
56.20000 2.731
56.22000 1.643
56.24000 -1.710
56.26000 1.448
56.28000 1.065
56.30000 -0.388
56.32000 0.121
56.34000 0.307
56.36000 0.916
56.38000 4.103
56.40000 1.542
56.42000 -1.363
56.44000 -2.353
56.46000 1.384
56.48000 2.780
56.50000 3.205
56.52000 -1.008
56.54000 -1.293
56.56000 -0.954
56.58000 1.352
56.60000 0.430
56.62000 0.173
56.64000 3.423
56.66000 2.552
56.68000 1.954
56.70000 1.877
56.72000 -0.456
56.74000 -1.019
56.76000 0.077
56.78000 -2.203
56.80000 0.513
56.82000 1.092
56.84000 1.344
56.86000 1.086
56.88000 1.234
56.90000 0.174
56.92000 -0.419
56.94000 -1.142
56.96000 2.149
56.98000 1.488
57.00000 -0.402
57.02000 -0.378
57.04000 -0.505
57.06000 -1.243
57.08000 1.323
57.10000 0.084
57.12000 -0.858
57.14000 -1.156
57.16000 -0.085
57.18000 3.994
57.20000 7.217
57.22000 8.506
57.24000 5.511
57.26000 4.476
57.28000 0.827
57.30000 1.396
57.32000 -0.510
57.34000 -1.068
57.36000 3.493
57.38000 5.479
57.40000 2.824
57.42000 -0.185
57.44000 0.210
57.46000 2.528
57.48000 2.763
57.50000 4.626
57.52000 4.798
57.54000 4.734
57.56000 0.585
57.58000 0.658
57.60000 2.443
57.62000 6.203
57.64000 4.514
57.66000 4.616
57.68000 0.693
57.70000 -1.483
57.72000 -2.292
57.74000 0.733
57.76000 1.308
57.78000 3.529
57.80000 5.426
57.82000 5.299
57.84000 1.385
57.86000 2.002
57.88000 0.491
57.90000 1.310
57.92000 2.287
57.94000 0.239
57.96000 -1.777
57.98000 3.555
58.00000 2.089
58.02000 -0.486
58.04000 2.772
58.06000 5.070
58.08000 4.217
58.10000 3.247
58.12000 3.404
58.14000 3.810
58.16000 -0.280
58.18000 -0.562
58.20000 -1.366
58.22000 -0.138
58.24000 5.439
58.26000 8.551
58.28000 6.073
58.30000 3.785
58.32000 0.727
58.34000 0.088
58.36000 3.012
58.38000 1.622
58.40000 -2.280
58.42000 -1.067
58.44000 1.362
58.46000 2.638
58.48000 2.366
58.50000 1.792
58.52000 4.246
58.54000 1.419
58.56000 3.950
58.58000 5.165
58.60000 4.691
58.62000 -1.221
58.64000 1.168
58.66000 3.073
58.68000 0.666
58.70000 2.004
58.72000 0.094
58.74000 -1.064
58.76000 -1.389
58.78000 1.385
58.80000 -1.525
58.82000 -0.452
58.84000 0.292
58.86000 0.939
58.88000 -0.818
58.90000 -2.283
58.92000 0.503
58.94000 2.088
58.96000 2.927
58.98000 3.588
59.00000 3.873
59.02000 3.982
59.04000 4.722
59.06000 2.598
59.08000 4.411
59.10000 2.247
59.12000 0.147
59.14000 0.192
59.16000 0.148
59.18000 1.954
59.20000 -0.579
59.22000 -2.209
59.24000 2.134
59.26000 0.397
59.28000 -1.018
59.30000 -0.084
59.32000 -2.277
59.34000 0.634
59.36000 5.529
59.38000 4.470
59.40000 3.683
59.42000 3.290
59.44000 3.913
59.46000 1.563
59.48000 2.318
59.50000 -0.920
59.52000 0.848
59.54000 0.169
59.56000 -0.130
59.58000 2.082
59.60000 2.310
59.62000 1.891
59.64000 0.670
59.66000 1.577
59.68000 4.086
59.70000 2.229
59.72000 -1.127
59.74000 1.398
59.76000 2.156
59.78000 -0.828
59.80000 0.606
59.82000 -1.085
59.84000 0.740
59.86000 3.496
59.88000 2.716
59.90000 1.084
59.92000 1.804
59.94000 -0.620
59.96000 -1.223
59.98000 2.504
60.00000 2.429
60.02000 2.339
60.04000 0.076
60.06000 0.883
60.08000 3.647
60.10000 1.245
60.12000 3.537
60.14000 2.210
60.16000 -0.296
60.18000 -1.846
60.20000 -0.808
60.22000 -0.592
60.24000 1.724
60.26000 -2.083
60.28000 -2.242
60.30000 2.927
60.32000 2.827
60.34000 2.423
60.36000 1.644
60.38000 -0.700
60.40000 0.211
60.42000 -0.095
60.44000 -0.741
60.46000 0.106
60.48000 -0.586
60.50000 -0.201
60.52000 2.174
60.54000 0.995
60.56000 0.904
60.58000 0.834
60.60000 1.848
60.62000 1.762
60.64000 0.360
60.66000 -1.743
60.68000 1.413
60.70000 1.796
60.72000 0.165
60.74000 -1.236
60.76000 -0.581
60.78000 1.243
60.80000 1.809
60.82000 1.347
60.84000 -0.523
60.86000 -2.236
60.88000 -0.486
60.90000 3.348
60.92000 1.869
60.94000 1.086
60.96000 3.226
60.98000 2.970
61.00000 1.329
61.02000 2.396
61.04000 3.573
61.06000 1.033
61.08000 0.021
61.10000 -0.125
61.12000 1.023
61.14000 2.444
61.16000 1.671
61.18000 0.430
61.20000 -0.536
61.22000 1.522
61.24000 4.126
61.26000 4.293
61.28000 1.529
61.30000 2.782
61.32000 1.122
61.34000 -1.915
61.36000 0.466
61.38000 0.221
61.40000 -1.601
61.42000 -2.214
61.44000 -1.743
61.46000 -0.254
61.48000 1.902
61.50000 1.430
61.52000 -0.621
61.54000 -0.110
61.56000 -0.248
61.58000 -0.571
61.60000 0.841
61.62000 -0.739
61.64000 0.823
61.66000 -1.537
61.68000 -1.175
61.70000 -1.290
61.72000 -0.581
61.74000 2.534
61.76000 2.079
61.78000 1.014
61.80000 1.707
61.82000 1.587
61.84000 3.754
61.86000 3.838
61.88000 2.431
61.90000 1.597
61.92000 2.189
61.94000 -1.629
61.96000 1.463
61.98000 1.469
62.00000 -0.605
62.02000 -0.728
62.04000 0.671
62.06000 0.722
62.08000 0.875
62.10000 3.754
62.12000 3.468
62.14000 0.604
62.16000 0.459
62.18000 1.011
62.20000 1.122
62.22000 -1.123
62.24000 -0.527
62.26000 2.656
62.28000 0.231
62.30000 -2.198
62.32000 3.065
62.34000 1.644
62.36000 2.141
62.38000 2.450
62.40000 -0.245
62.42000 2.598
62.44000 6.055
62.46000 2.347
62.48000 -1.038
62.50000 -0.414
62.52000 0.152
62.54000 0.808
62.56000 -0.339
62.58000 0.111
62.60000 -1.953
62.62000 1.353
62.64000 -0.287
62.66000 -0.452
62.68000 0.468
62.70000 1.056
62.72000 1.834
62.74000 -0.486
62.76000 -0.466
62.78000 0.299
62.80000 2.003
62.82000 -1.216
62.84000 -0.822
62.86000 2.276
62.88000 0.940
62.90000 1.824
62.92000 0.150
62.94000 -1.193
62.96000 1.751
62.98000 3.475
63.00000 2.705
63.02000 2.239
63.04000 2.822
63.06000 2.036
63.08000 1.882
63.10000 1.654
63.12000 -0.075
63.14000 1.601
63.16000 4.075
63.18000 1.673
63.20000 2.186
63.22000 -0.700
63.24000 0.843
63.26000 3.416
63.28000 2.305
63.30000 0.187
63.32000 1.154
63.34000 3.065
63.36000 3.442
63.38000 -1.064
63.40000 0.231
63.42000 -2.174
63.44000 -0.217
63.46000 1.151
63.48000 1.099
63.50000 -0.699
63.52000 1.751
63.54000 1.673
63.56000 2.245
63.58000 1.152
63.60000 0.854
63.62000 1.996
63.64000 1.367
63.66000 1.711
63.68000 1.281
63.70000 1.630
63.72000 0.373
63.74000 1.260
63.76000 -1.274
63.78000 -1.193
63.80000 0.054
63.82000 2.127
63.84000 2.618
63.86000 2.761
63.88000 -0.463
63.90000 0.077
63.92000 -0.472
63.94000 -0.801
63.96000 -0.572
63.98000 0.420
64.00000 -1.362
64.02000 -1.898
64.04000 -2.112
64.06000 -1.047
64.08000 2.924
64.10000 1.047
64.12000 -2.163
64.14000 0.683
64.16000 1.488
64.18000 4.200
64.20000 1.307
64.22000 0.445
64.24000 0.401
64.26000 2.059
64.28000 2.840
64.30000 5.640
64.32000 3.852
64.34000 2.980
64.36000 0.388
64.38000 0.756
64.40000 -0.233
64.42000 0.248
64.44000 -0.635
64.46000 1.924
64.48000 0.883
64.50000 2.229
64.52000 1.669
64.54000 1.329
64.56000 -0.370
64.58000 -0.624
64.60000 0.755
64.62000 1.579
64.64000 1.542
64.66000 -0.667
64.68000 1.826
64.70000 5.060
64.72000 2.028
64.74000 1.297
64.76000 -0.520
64.78000 -0.833
64.80000 -2.008
64.82000 -1.923
64.84000 0.891
64.86000 -0.668
64.88000 3.481
64.90000 0.664
64.92000 -0.276
64.94000 0.788
64.96000 1.515
64.98000 0.340
65.00000 -0.242
65.02000 -0.703
65.04000 -0.986
65.06000 1.032
65.08000 5.416
65.10000 2.186
65.12000 0.615
65.14000 -0.438
65.16000 -1.419
65.18000 -1.256
65.20000 -1.023
65.22000 -1.076
65.24000 0.031
65.26000 0.948
65.28000 -2.200
65.30000 -0.978
65.32000 1.434
65.34000 2.121
65.36000 2.542
65.38000 -1.620
65.40000 0.202
65.42000 -0.258
65.44000 -0.922
65.46000 0.495
65.48000 1.320
65.50000 1.940
65.52000 3.720
65.54000 1.887
65.56000 0.373
65.58000 -1.612
65.60000 -1.874
65.62000 3.012
65.64000 3.797
65.66000 -2.186
65.68000 -1.703
65.70000 3.296
65.72000 1.120
65.74000 -0.018
65.76000 0.627
65.78000 1.241
65.80000 1.685
65.82000 0.182
65.84000 -1.648
65.86000 -2.025
65.88000 -0.421
65.90000 0.634
65.92000 0.235
65.94000 -0.842
65.96000 -0.844
65.98000 -2.036
66.00000 -1.806
66.02000 -0.717
66.04000 1.526
66.06000 1.840
66.08000 2.556
66.10000 2.620
66.12000 0.692
66.14000 1.726
66.16000 3.339
66.18000 -1.221
66.20000 -0.894
66.22000 1.862
66.24000 2.109
66.26000 0.010
66.28000 0.495
66.30000 1.696
66.32000 1.487
66.34000 0.272
66.36000 0.181
66.38000 -0.047
66.40000 -0.416
66.42000 -2.204
66.44000 -0.428
66.46000 1.447
66.48000 -1.581
66.50000 -0.336
66.52000 0.523
66.54000 -0.012
66.56000 -1.024
66.58000 -0.667
66.60000 -2.124
66.62000 -0.058
66.64000 -0.528
66.66000 -1.726
66.68000 -2.090
66.70000 -1.679
66.72000 1.083
66.74000 0.915
66.76000 -1.213
66.78000 -0.958
66.80000 -0.678
66.82000 -1.627
66.84000 -2.212
66.86000 0.027
66.88000 0.908
66.90000 0.047
66.92000 -1.556
66.94000 -1.928
66.96000 -1.741
66.98000 0.021
67.00000 -0.007
67.02000 -1.110
67.04000 -0.210
67.06000 1.576
67.08000 2.050
67.10000 3.391
67.12000 0.647
67.14000 0.708
67.16000 -0.945
67.18000 -2.215
67.20000 -0.132
67.22000 1.218
67.24000 2.126
67.26000 -0.061
67.28000 -2.217
67.30000 -1.955
67.32000 -0.748
67.34000 -0.413
67.36000 1.992
67.38000 2.108
67.40000 -0.231
67.42000 -2.162
67.44000 -1.112
67.46000 -0.083
67.48000 -1.807
67.50000 1.092
67.52000 2.077
67.54000 1.536
67.56000 0.032
67.58000 -1.194
67.60000 -1.410
67.62000 0.585
67.64000 1.055
67.66000 -0.101
67.68000 -0.080
67.70000 -0.580
67.72000 0.237
67.74000 -1.157
67.76000 -0.822
67.78000 0.799
67.80000 0.706
67.82000 0.877
67.84000 0.842
67.86000 0.651
67.88000 0.707
67.90000 0.884
67.92000 0.600
67.94000 -0.277
67.96000 0.883
67.98000 -1.881
68.00000 -0.810
68.02000 1.026
68.04000 1.587
68.06000 1.306
68.08000 3.235
68.10000 4.920
68.12000 4.463
68.14000 5.736
68.16000 5.096
68.18000 3.808
68.20000 2.941
68.22000 7.111
68.24000 5.824
68.26000 4.251
68.28000 1.647
68.30000 7.459
68.32000 8.303
68.34000 10.232
68.36000 8.180
68.38000 7.426
68.40000 9.222
68.42000 8.732
68.44000 9.427
68.46000 10.381
68.48000 12.856
68.50000 12.014
68.52000 13.191
68.54000 13.910
68.56000 11.775
68.58000 13.793
68.60000 16.715
68.62000 18.188
68.64000 17.511
68.66000 17.886
68.68000 18.957
68.70000 22.338
68.72000 22.528
68.74000 22.789
68.76000 23.420
68.78000 25.111
68.80000 27.324
68.82000 27.899
68.84000 28.073
68.86000 30.162
68.88000 32.488
68.90000 29.162
68.92000 26.640
68.94000 29.055
68.96000 28.900
68.98000 31.334
69.00000 31.121
69.02000 31.403
69.04000 30.352
69.06000 29.821
69.08000 28.085
69.10000 28.285
69.12000 26.573
69.14000 25.889
69.16000 26.883
69.18000 25.092
69.20000 27.931
69.22000 25.346
69.24000 21.766
69.26000 20.206
69.28000 25.057
69.30000 19.160
69.32000 18.292
69.34000 16.730
69.36000 16.188
69.38000 14.943
69.40000 15.537
69.42000 17.113
69.44000 14.305
69.46000 10.368
69.48000 10.196
69.50000 10.015
69.52000 7.999
69.54000 7.642
69.56000 6.238
69.58000 5.457
69.60000 5.499
69.62000 7.237
69.64000 7.232
69.66000 2.754
69.68000 6.106
69.70000 4.161
69.72000 2.050
69.74000 1.985
69.76000 2.339
69.78000 4.582
69.80000 3.976
69.82000 3.828
69.84000 1.161
69.86000 2.656
69.88000 5.505
69.90000 3.273
69.92000 0.256
69.94000 -0.970
69.96000 3.009
69.98000 4.397
70.00000 2.960
70.02000 4.430
70.04000 2.692
70.06000 4.309
70.08000 2.150
70.10000 1.204
70.12000 0.252
70.14000 0.507
70.16000 3.296
70.18000 3.369
70.20000 -0.657
70.22000 2.262
70.24000 2.641
70.26000 1.613
70.28000 -1.112
70.30000 -2.182
70.32000 -1.106
70.34000 2.385
70.36000 2.246
70.38000 1.513
70.40000 -1.444
70.42000 -0.159
70.44000 2.991
70.46000 0.234
70.48000 -0.546
70.50000 0.918
70.52000 2.453
70.54000 3.347
70.56000 3.671
70.58000 3.588
70.60000 4.560
70.62000 3.857
70.64000 4.090
70.66000 0.478
70.68000 0.418
70.70000 -0.062
70.72000 1.979
70.74000 0.712
70.76000 -0.524
70.78000 1.901
70.80000 6.357
70.82000 3.088
70.84000 2.369
70.86000 1.699
70.88000 0.000
70.90000 1.603
70.92000 3.528
70.94000 3.501
70.96000 1.373
70.98000 5.148
71.00000 2.840
71.02000 0.004
71.04000 1.175
71.06000 2.790
71.08000 0.862
71.10000 -1.462
71.12000 1.579
71.14000 1.724
71.16000 3.654
71.18000 3.790
71.20000 -1.288
71.22000 -2.034
71.24000 2.636
71.26000 3.258
71.28000 3.918
71.30000 5.033
71.32000 4.989
71.34000 6.412
71.36000 6.355
71.38000 4.161
71.40000 5.519
71.42000 3.594
71.44000 3.465
71.46000 -0.304
71.48000 3.393
71.50000 5.511
71.52000 2.022
71.54000 1.761
71.56000 0.067
71.58000 0.263
71.60000 3.481
71.62000 1.982
71.64000 0.315
71.66000 -1.147
71.68000 0.989
71.70000 0.150
71.72000 2.223
71.74000 2.778
71.76000 2.036
71.78000 0.669
71.80000 0.330
71.82000 1.094
71.84000 3.451
71.86000 5.003
71.88000 1.283
71.90000 -0.054
71.92000 2.018
71.94000 3.849
71.96000 -0.341
71.98000 2.802
72.00000 2.450
72.02000 1.891
72.04000 4.487
72.06000 1.255
72.08000 2.401
72.10000 5.502
72.12000 3.315
72.14000 1.558
72.16000 0.067
72.18000 0.385
72.20000 0.563
72.22000 1.109
72.24000 0.771
72.26000 4.288
72.28000 4.700
72.30000 -0.949
72.32000 -2.031
72.34000 1.034
72.36000 1.385
72.38000 0.535
72.40000 3.648
72.42000 0.620
72.44000 -1.286
72.46000 -1.864
72.48000 1.530
72.50000 5.166
72.52000 7.301
72.54000 2.608
72.56000 2.589
72.58000 0.515
72.60000 0.997
72.62000 1.941
72.64000 -2.015
72.66000 -0.545
72.68000 -0.365
72.70000 0.095
72.72000 -0.951
72.74000 1.425
72.76000 2.630
72.78000 1.016
72.80000 -2.023
72.82000 -0.715
72.84000 -0.948
72.86000 2.778
72.88000 2.249
72.90000 2.851
72.92000 3.195
72.94000 -1.182
72.96000 -1.486
72.98000 0.195
73.00000 1.847
73.02000 1.929
73.04000 6.572
73.06000 4.988
73.08000 1.125
73.10000 -1.866
73.12000 -0.359
73.14000 1.588
73.16000 3.123
73.18000 2.370
73.20000 -1.079
73.22000 1.917
73.24000 2.992
73.26000 3.523
73.28000 0.922
73.30000 0.228
73.32000 1.086
73.34000 2.298
73.36000 0.595
73.38000 -1.843
73.40000 0.189
73.42000 -0.074
73.44000 -0.506
73.46000 3.706
73.48000 6.019
73.50000 1.333
73.52000 -0.036
73.54000 0.773
73.56000 1.559
73.58000 5.763
73.60000 3.871
73.62000 2.843
73.64000 1.374
73.66000 -0.687
73.68000 1.254
73.70000 1.012
73.72000 1.166
73.74000 3.266
73.76000 2.068
73.78000 2.297
73.80000 0.774
73.82000 -0.288
73.84000 1.471
73.86000 -0.341
73.88000 -0.530
73.90000 -1.151
73.92000 3.260
73.94000 2.948
73.96000 1.497
73.98000 0.076
74.00000 -0.624
74.02000 0.527
74.04000 1.387
74.06000 0.292
74.08000 -0.103
74.10000 -2.001
74.12000 -1.128
74.14000 1.534
74.16000 5.028
74.18000 5.487
74.20000 4.459
74.22000 3.591
74.24000 -0.261
74.26000 0.779
74.28000 0.401
74.30000 -0.287
74.32000 0.948
74.34000 2.844
74.36000 2.620
74.38000 0.402
74.40000 1.434
74.42000 1.034
74.44000 2.171
74.46000 3.848
74.48000 1.583
74.50000 -0.829
74.52000 0.729
74.54000 1.824
74.56000 2.405
74.58000 1.670
74.60000 2.354
74.62000 -1.359
74.64000 1.491
74.66000 2.183
74.68000 3.491
74.70000 2.486
74.72000 2.473
74.74000 -0.051
74.76000 0.373
74.78000 0.992
74.80000 -1.011
74.82000 1.128
74.84000 -0.454
74.86000 -0.219
74.88000 0.856
74.90000 0.545
74.92000 -0.093
74.94000 -1.202
74.96000 3.011
74.98000 2.369
75.00000 0.384
75.02000 -2.000
75.04000 -0.157
75.06000 3.004
75.08000 0.347
75.10000 0.766
75.12000 2.325
75.14000 0.851
75.16000 3.168
75.18000 0.034
75.20000 -2.000
75.22000 0.719
75.24000 2.594
75.26000 -0.930
75.28000 0.655
75.30000 0.142
75.32000 1.495
75.34000 -1.123
75.36000 2.163
75.38000 2.302
75.40000 4.694
75.42000 1.859
75.44000 0.990
75.46000 -1.130
75.48000 0.809
75.50000 2.678
75.52000 1.489
75.54000 -0.751
75.56000 0.606
75.58000 1.780
75.60000 1.885
75.62000 1.383
75.64000 0.309
75.66000 0.682
75.68000 4.161
75.70000 2.119
75.72000 -2.013
75.74000 0.165
75.76000 -0.265
75.78000 2.075
75.80000 5.666
75.82000 5.395
75.84000 2.710
75.86000 0.821
75.88000 0.929
75.90000 2.346
75.92000 1.324
75.94000 2.427
75.96000 2.716
75.98000 1.096
76.00000 1.857
76.02000 2.329
76.04000 3.974
76.06000 5.333
76.08000 3.837
76.10000 2.744
76.12000 2.660
76.14000 2.386
76.16000 0.437
76.18000 0.538
76.20000 -2.020
76.22000 0.216
76.24000 -0.314
76.26000 2.539
76.28000 2.446
76.30000 0.932
76.32000 -2.022
76.34000 0.615
76.36000 6.224
76.38000 2.383
76.40000 3.306
76.42000 2.556
76.44000 -0.462
76.46000 -0.714
76.48000 -1.344
76.50000 0.540
76.52000 3.221
76.54000 3.185
76.56000 -0.097
76.58000 -0.985
76.60000 1.902
76.62000 1.955
76.64000 1.109
76.66000 5.432
76.68000 2.852
76.70000 2.724
76.72000 2.351
76.74000 2.801
76.76000 -0.886
76.78000 -1.214
76.80000 -0.809
76.82000 0.315
76.84000 -1.881
76.86000 1.146
76.88000 1.400
76.90000 -1.831
76.92000 -2.049
76.94000 1.981
76.96000 2.425
76.98000 0.183
77.00000 -0.384
77.02000 -0.430
77.04000 1.660
77.06000 0.675
77.08000 2.523
77.10000 2.283
77.12000 1.218
77.14000 1.458
77.16000 -1.563
77.18000 0.511
77.20000 2.120
77.22000 2.543
77.24000 -0.972
77.26000 1.182
77.28000 1.280
77.30000 1.056
77.32000 -0.645
77.34000 0.697
77.36000 -0.907
77.38000 -1.341
77.40000 1.949
77.42000 1.557
77.44000 1.253
77.46000 1.415
77.48000 1.984
77.50000 1.380
77.52000 -0.888
77.54000 1.922
77.56000 0.665
77.58000 -1.844
77.60000 2.071
77.62000 0.342
77.64000 1.004
77.66000 3.177
77.68000 4.036
77.70000 2.317
77.72000 0.352
77.74000 1.400
77.76000 4.746
77.78000 3.054
77.80000 3.873
77.82000 -0.329
77.84000 -1.286
77.86000 -2.036
77.88000 2.750
77.90000 0.919
77.92000 2.625
77.94000 3.831
77.96000 2.588
77.98000 4.963
78.00000 4.399
78.02000 3.346
78.04000 2.713
78.06000 2.675
78.08000 0.362
78.10000 -0.559
78.12000 3.394
78.14000 1.848
78.16000 3.655
78.18000 0.706
78.20000 3.321
78.22000 2.437
78.24000 6.624
78.26000 5.551
78.28000 5.748
78.30000 3.846
78.32000 2.293
78.34000 0.187
78.36000 0.463
78.38000 -1.780
78.40000 -0.463
78.42000 5.017
78.44000 1.748
78.46000 1.352
78.48000 0.907
78.50000 3.311
78.52000 -0.029
78.54000 0.902
78.56000 3.492
78.58000 0.760
78.60000 -1.095
78.62000 3.162
78.64000 2.842
78.66000 -0.712
78.68000 1.411
78.70000 4.505
78.72000 3.036
78.74000 2.496
78.76000 1.797
78.78000 0.420
78.80000 0.937
78.82000 2.745
78.84000 3.062
78.86000 4.842
78.88000 2.203
78.90000 -0.695
78.92000 -1.084
78.94000 -1.322
78.96000 2.909
78.98000 0.993
79.00000 1.101
79.02000 4.189
79.04000 1.030
79.06000 3.039
79.08000 5.073
79.10000 2.483
79.12000 1.472
79.14000 -2.031
79.16000 2.049
79.18000 5.970
79.20000 1.489
79.22000 2.396
79.24000 2.085
79.26000 0.146
79.28000 4.713
79.30000 3.230
79.32000 1.141
79.34000 0.752
79.36000 1.738
79.38000 4.278
79.40000 3.554
79.42000 0.021
79.44000 -0.082
79.46000 3.520
79.48000 1.066
79.50000 -0.632
79.52000 -2.051
79.54000 1.137
79.56000 -1.053
79.58000 1.334
79.60000 0.283
79.62000 2.464
79.64000 -1.027
79.66000 -0.430
79.68000 0.805
79.70000 1.538
79.72000 3.152
79.74000 2.518
79.76000 2.882
79.78000 2.589
79.80000 3.493
79.82000 2.780
79.84000 3.967
79.86000 3.310
79.88000 2.989
79.90000 2.130
79.92000 -0.185
79.94000 1.630
79.96000 4.922
79.98000 3.300
80.00000 3.151
80.02000 6.462
80.04000 4.354
80.06000 1.625
80.08000 2.811
80.10000 2.629
80.12000 3.273
80.14000 2.088
80.16000 3.203
80.18000 1.213
80.20000 2.149
80.22000 2.143
80.24000 3.609
80.26000 3.820
80.28000 0.307
80.30000 2.433
80.32000 3.731
80.34000 3.907
80.36000 1.424
80.38000 -0.474
80.40000 0.615
80.42000 2.108
80.44000 -1.534
80.46000 -2.074
80.48000 3.229
80.50000 2.210
80.52000 2.914
80.54000 -0.489
80.56000 1.918
80.58000 5.678
80.60000 1.787
80.62000 0.830
80.64000 0.979
80.66000 0.250
80.68000 0.387
80.70000 3.197
80.72000 3.872
80.74000 1.529
80.76000 -0.796
80.78000 -2.080
80.80000 1.492
80.82000 3.400
80.84000 3.379
80.86000 6.375
80.88000 5.298
80.90000 3.082
80.92000 0.535
80.94000 -2.093
80.96000 0.719
80.98000 2.509
81.00000 3.588
81.02000 4.352
81.04000 0.624
81.06000 2.834
81.08000 4.226
81.10000 4.074
81.12000 3.220
81.14000 3.950
81.16000 5.380
81.18000 4.004
81.20000 4.014
81.22000 4.897
81.24000 3.982
81.26000 2.480
81.28000 0.795
81.30000 2.691
81.32000 3.161
81.34000 0.812
81.36000 0.197
81.38000 -0.544
81.40000 -2.132
81.42000 1.613
81.44000 4.753
81.46000 4.168
81.48000 4.927
81.50000 5.378
81.52000 2.698
81.54000 2.728
81.56000 3.371
81.58000 3.873
81.60000 6.812
81.62000 0.238
81.64000 0.967
81.66000 3.458
81.68000 -0.303
81.70000 -1.787
81.72000 1.455
81.74000 2.954
81.76000 4.789
81.78000 5.809
81.80000 5.170
81.82000 1.102
81.84000 0.876
81.86000 6.794
81.88000 4.174
81.90000 0.731
81.92000 4.267
81.94000 3.982
81.96000 3.224
81.98000 3.289
82.00000 5.633
82.02000 5.701
82.04000 7.647
82.06000 8.117
82.08000 11.357
82.10000 12.498
82.12000 6.202
82.14000 5.652
82.16000 7.646
82.18000 7.659
82.20000 5.572
82.22000 7.105
82.24000 9.794
82.26000 10.288
82.28000 11.178
82.30000 10.712
82.32000 13.211
82.34000 14.264
82.36000 16.062
82.38000 12.800
82.40000 10.075
82.42000 15.080
82.44000 13.164
82.46000 16.946
82.48000 15.650
82.50000 17.964
82.52000 20.439
82.54000 21.410
82.56000 17.778
82.58000 21.696
82.60000 28.008
82.62000 30.598
82.64000 26.368
82.66000 25.148
82.68000 26.239
82.70000 29.267
82.72000 27.298
82.74000 30.189
82.76000 27.011
82.78000 30.725
82.80000 34.240
82.82000 35.705
82.84000 37.652
82.86000 39.102
82.88000 36.972
82.90000 32.864
82.92000 39.887
82.94000 41.355
82.96000 44.120
82.98000 43.017
83.00000 44.247
83.02000 48.905
83.04000 51.485
83.06000 47.991
83.08000 51.377
83.10000 54.901
83.12000 51.386
83.14000 57.605
83.16000 55.390
83.18000 56.816
83.20000 53.708
83.22000 49.419
83.24000 49.033
83.26000 55.804
83.28000 59.795
83.30000 53.692
83.32000 53.960
83.34000 53.640
83.36000 59.056
83.38000 58.202
83.40000 57.491
83.42000 50.330
83.44000 48.670
83.46000 45.862
83.48000 45.098
83.50000 47.544
83.52000 47.235
83.54000 47.762
83.56000 44.945
83.58000 40.762
83.60000 39.417
83.62000 39.871
83.64000 38.398
83.66000 34.926
83.68000 32.340
83.70000 36.870
83.72000 36.287
83.74000 32.871
83.76000 28.058
83.78000 29.347
83.80000 25.245
83.82000 25.629
83.84000 27.865
83.86000 25.283
83.88000 24.550
83.90000 23.008
83.92000 21.042
83.94000 17.604
83.96000 21.338
83.98000 21.293
84.00000 18.692
84.02000 16.085
84.04000 14.634
84.06000 16.523
84.08000 16.008
84.10000 16.792
84.12000 13.827
84.14000 12.667
84.16000 9.216
84.18000 11.208
84.20000 10.722
84.22000 10.791
84.24000 9.336
84.26000 7.771
84.28000 6.143
84.30000 6.990
84.32000 6.916
84.34000 9.211
84.36000 8.361
84.38000 4.444
84.40000 3.486
84.42000 7.410
84.44000 10.088
84.46000 6.434
84.48000 2.523
84.50000 -0.953
84.52000 -0.809
84.54000 3.708
84.56000 3.346
84.58000 6.522
84.60000 5.124
84.62000 6.011
84.64000 5.230
84.66000 1.938
84.68000 1.608
84.70000 2.993
84.72000 3.848
84.74000 4.867
84.76000 5.000
84.78000 1.229
84.80000 5.068
84.82000 4.066
84.84000 5.481
84.86000 8.441
84.88000 5.162
84.90000 6.216
84.92000 1.563
84.94000 -2.156
84.96000 1.634
84.98000 5.911
85.00000 0.061
85.02000 0.616
85.04000 4.378
85.06000 6.711
85.08000 3.089
85.10000 2.848
85.12000 2.534
85.14000 -0.743
85.16000 -0.402
85.18000 -0.307
85.20000 -2.137
85.22000 -0.005
85.24000 0.510
85.26000 -1.623
85.28000 -0.941
85.30000 2.921
85.32000 3.278
85.34000 1.975
85.36000 3.596
85.38000 -0.374
85.40000 2.174
85.42000 2.626
85.44000 2.635
85.46000 3.276
85.48000 1.110
85.50000 -1.939
85.52000 0.668
85.54000 2.942
85.56000 1.456
85.58000 0.975
85.60000 2.112
85.62000 1.380
85.64000 0.487
85.66000 -1.007
85.68000 -1.115
85.70000 -1.177
85.72000 -0.971
85.74000 -0.159
85.76000 1.974
85.78000 1.373
85.80000 6.633
85.82000 4.071
85.84000 0.808
85.86000 0.382
85.88000 2.553
85.90000 3.324
85.92000 1.821
85.94000 1.511
85.96000 -0.796
85.98000 -2.106
86.00000 0.457
86.02000 1.066
86.04000 2.992
86.06000 2.949
86.08000 -0.099
86.10000 0.776
86.12000 3.935
86.14000 1.587
86.16000 0.656
86.18000 2.391
86.20000 5.345
86.22000 5.031
86.24000 3.081
86.26000 3.488
86.28000 0.997
86.30000 0.217
86.32000 -0.913
86.34000 -0.923
86.36000 0.923
86.38000 0.193
86.40000 6.448
86.42000 3.553
86.44000 -1.488
86.46000 -2.156
86.48000 0.740
86.50000 1.355
86.52000 3.206
86.54000 0.941
86.56000 1.809
86.58000 0.274
86.60000 -0.766
86.62000 1.579
86.64000 2.849
86.66000 3.122
86.68000 2.015
86.70000 0.675
86.72000 2.620
86.74000 0.415
86.76000 0.912
86.78000 -0.456
86.80000 3.997
86.82000 9.646
86.84000 6.521
86.86000 7.096
86.88000 5.372
86.90000 4.886
86.92000 6.814
86.94000 6.906
86.96000 5.211
86.98000 2.570
87.00000 8.185
87.02000 13.096
87.04000 8.049
87.06000 8.022
87.08000 9.842
87.10000 8.731
87.12000 10.146
87.14000 11.900
87.16000 13.821
87.18000 11.486
87.20000 12.888
87.22000 14.883
87.24000 17.766
87.26000 15.149
87.28000 15.275
87.30000 16.548
87.32000 18.397
87.34000 19.023
87.36000 18.453
87.38000 21.785
87.40000 18.709
87.42000 20.210
87.44000 21.552
87.46000 25.534
87.48000 27.478
87.50000 24.709
87.52000 27.609
87.54000 27.913
87.56000 27.063
87.58000 27.211
87.60000 27.246
87.62000 28.769
87.64000 31.391
87.66000 29.816
87.68000 30.032
87.70000 33.441
87.72000 29.637
87.74000 29.246
87.76000 28.899
87.78000 31.462
87.80000 33.930
87.82000 29.495
87.84000 26.244
87.86000 20.016
87.88000 25.734
87.90000 26.101
87.92000 26.878
87.94000 26.347
87.96000 22.546
87.98000 21.816
88.00000 20.382
88.02000 18.264
88.04000 21.930
88.06000 26.595
88.08000 20.747
88.10000 15.126
88.12000 20.181
88.14000 17.483
88.16000 18.206
88.18000 16.012
88.20000 14.885
88.22000 13.516
88.24000 12.139
88.26000 13.317
88.28000 13.583
88.30000 11.367
88.32000 14.465
88.34000 13.387
88.36000 12.879
88.38000 6.820
88.40000 6.561
88.42000 4.071
88.44000 5.126
88.46000 9.353
88.48000 10.433
88.50000 11.727
88.52000 8.547
88.54000 9.067
88.56000 7.739
88.58000 2.468
88.60000 3.097
88.62000 4.851
88.64000 5.538
88.66000 3.025
88.68000 0.812
88.70000 1.715
88.72000 2.702
88.74000 2.302
88.76000 2.023
88.78000 2.113
88.80000 5.296
88.82000 1.975
88.84000 1.179
88.86000 2.775
88.88000 3.862
88.90000 -0.212
88.92000 -0.078
88.94000 -1.703
88.96000 -1.436
88.98000 1.629
89.00000 2.263
89.02000 0.642
89.04000 -0.214
89.06000 1.883
89.08000 5.219
89.10000 3.657
89.12000 1.709
89.14000 4.287
89.16000 -1.000
89.18000 -1.025
89.20000 1.180
89.22000 0.703
89.24000 0.529
89.26000 4.036
89.28000 5.578
89.30000 4.834
89.32000 4.083
89.34000 -1.696
89.36000 -0.563
89.38000 3.706
89.40000 3.105
89.42000 3.249
89.44000 0.451
89.46000 -0.168
89.48000 -1.234
89.50000 1.621
89.52000 2.779
89.54000 4.125
89.56000 3.639
89.58000 1.498
89.60000 -1.141
89.62000 0.443
89.64000 -0.958
89.66000 2.437
89.68000 4.003
89.70000 6.045
89.72000 4.197
89.74000 2.203
89.76000 3.693
89.78000 6.119
89.80000 6.109
89.82000 -1.902
89.84000 2.230
89.86000 2.700
89.88000 4.639
89.90000 7.148
89.92000 7.008
89.94000 2.364
89.96000 0.476
89.98000 3.881
90.00000 6.193
90.02000 4.587
90.04000 2.189
90.06000 1.727
90.08000 3.419
90.10000 4.663
90.12000 2.797
90.14000 5.455
90.16000 5.712
90.18000 6.488
90.20000 6.215
90.22000 3.887
90.24000 2.760
90.26000 1.477
90.28000 -1.378
90.30000 -1.098
90.32000 1.332
90.34000 2.847
90.36000 1.898
90.38000 1.385
90.40000 2.979
90.42000 0.796
90.44000 3.994
90.46000 5.770
90.48000 4.648
90.50000 5.233
90.52000 3.211
90.54000 0.778
90.56000 0.501
90.58000 2.181
90.60000 0.945
90.62000 0.951
90.64000 -1.890
90.66000 1.486
90.68000 4.194
90.70000 2.830
90.72000 6.775
90.74000 3.058
90.76000 2.623
90.78000 5.874
90.80000 3.928
90.82000 3.437
90.84000 1.320
90.86000 -0.412
90.88000 3.064
90.90000 2.991
90.92000 2.861
90.94000 2.727
90.96000 2.601
90.98000 3.863
91.00000 2.561
91.02000 2.320
91.04000 1.016
91.06000 2.605
91.08000 2.911
91.10000 3.222
91.12000 1.958
91.14000 1.645
91.16000 1.087
91.18000 1.499
91.20000 5.364
91.22000 6.199
91.24000 4.103
91.26000 0.828
91.28000 1.965
91.30000 6.637
91.32000 9.301
91.34000 5.838
91.36000 5.323
91.38000 4.657
91.40000 1.138
91.42000 0.610
91.44000 2.781
91.46000 1.797
91.48000 1.957
91.50000 2.628
91.52000 2.482
91.54000 0.754
91.56000 -1.926
91.58000 0.078
91.60000 2.308
91.62000 0.277
91.64000 -0.425
91.66000 2.001
91.68000 3.347
91.70000 0.691
91.72000 1.547
91.74000 -1.442
91.76000 -0.810
91.78000 2.428
91.80000 0.957
91.82000 1.915
91.84000 2.959
91.86000 0.196
91.88000 1.279
91.90000 1.041
91.92000 2.773
91.94000 4.210
91.96000 -1.064
91.98000 -0.696
92.00000 2.052
92.02000 3.188
92.04000 5.867
92.06000 2.855
92.08000 1.615
92.10000 5.445
92.12000 2.743
92.14000 6.493
92.16000 3.226
92.18000 3.933
92.20000 4.734
92.22000 3.838
92.24000 4.461
92.26000 5.883
92.28000 3.097
92.30000 0.731
92.32000 4.964
92.34000 5.665
92.36000 2.402
92.38000 2.494
92.40000 0.672
92.42000 1.295
92.44000 4.271
92.46000 4.935
92.48000 6.131
92.50000 4.078
92.52000 4.204
92.54000 2.518
92.56000 3.202
92.58000 2.777
92.60000 -1.584
92.62000 -0.623
92.64000 -1.891
92.66000 0.727
92.68000 3.031
92.70000 0.854
92.72000 2.031
92.74000 3.517
92.76000 8.076
92.78000 4.967
92.80000 1.971
92.82000 1.599
92.84000 2.047
92.86000 3.411
92.88000 2.817
92.90000 6.025
92.92000 2.387
92.94000 3.802
92.96000 4.043
92.98000 2.530
93.00000 1.669
93.02000 -0.702
93.04000 2.912
93.06000 2.467
93.08000 1.620
93.10000 5.342
93.12000 1.674
93.14000 1.458
93.16000 1.047
93.18000 -1.859
93.20000 1.118
93.22000 4.870
93.24000 5.804
93.26000 3.604
93.28000 3.481
93.30000 4.406
93.32000 1.400
93.34000 0.121
93.36000 3.707
93.38000 6.006
93.40000 3.832
93.42000 1.066
93.44000 3.495
93.46000 1.141
93.48000 3.621
93.50000 1.967
93.52000 0.803
93.54000 0.450
93.56000 3.502
93.58000 4.686
93.60000 5.867
93.62000 4.500
93.64000 4.246
93.66000 5.396
93.68000 3.241
93.70000 3.949
93.72000 6.238
93.74000 5.269
93.76000 2.423
93.78000 4.113
93.80000 1.797
93.82000 1.580
93.84000 1.862
93.86000 6.364
93.88000 5.187
93.90000 3.764
93.92000 5.632
93.94000 3.977
93.96000 1.325
93.98000 0.198
94.00000 2.655
94.02000 4.934
94.04000 0.827
94.06000 1.426
94.08000 4.295
94.10000 4.700
94.12000 5.533
94.14000 7.063
94.16000 3.812
94.18000 -0.211
94.20000 -1.318
94.22000 2.924
94.24000 6.552
94.26000 7.207
94.28000 4.410
94.30000 3.758
94.32000 4.728
94.34000 1.952
94.36000 2.867
94.38000 6.007
94.40000 2.000
94.42000 0.579
94.44000 1.954
94.46000 1.540
94.48000 5.137
94.50000 6.533
94.52000 4.885
94.54000 4.187
94.56000 3.292
94.58000 -0.108
94.60000 -0.283
94.62000 0.110
94.64000 5.193
94.66000 2.399
94.68000 1.215
94.70000 2.261
94.72000 5.011
94.74000 3.160
94.76000 4.940
94.78000 7.219
94.80000 5.625
94.82000 2.488
94.84000 3.171
94.86000 1.775
94.88000 2.924
94.90000 1.486
94.92000 -0.224
94.94000 1.329
94.96000 3.755
94.98000 4.213
95.00000 -1.912
95.02000 1.828
95.04000 5.999
95.06000 6.268
95.08000 4.150
95.10000 3.355
95.12000 2.507
95.14000 4.157
95.16000 7.465
95.18000 7.005
95.20000 5.641
95.22000 2.710
95.24000 1.328
95.26000 0.273
95.28000 0.430
95.30000 -1.349
95.32000 2.081
95.34000 4.772
95.36000 5.685
95.38000 5.985
95.40000 4.403
95.42000 6.376
95.44000 6.271
95.46000 6.297
95.48000 7.000
95.50000 8.397
95.52000 6.800
95.54000 3.263
95.56000 4.586
95.58000 2.526
95.60000 3.725
95.62000 4.801
95.64000 2.565
95.66000 1.248
95.68000 1.335
95.70000 2.411
95.72000 9.275
95.74000 4.935
95.76000 2.586
95.78000 2.143
95.80000 2.292
95.82000 2.390
95.84000 2.721
95.86000 2.147
95.88000 3.499
95.90000 7.200
95.92000 4.966
95.94000 5.580
95.96000 3.301
95.98000 6.582
96.00000 7.117
96.02000 10.965
96.04000 9.411
96.06000 2.988
96.08000 4.478
96.10000 2.067
96.12000 3.068
96.14000 1.590
96.16000 -1.865
96.18000 3.875
96.20000 6.402
96.22000 5.800
96.24000 7.426
96.26000 7.298
96.28000 3.330
96.30000 4.545
96.32000 6.909
96.34000 2.580
96.36000 5.356
96.38000 8.245
96.40000 6.466
96.42000 6.253
96.44000 6.432
96.46000 6.269
96.48000 7.642
96.50000 8.815
96.52000 4.142
96.54000 4.993
96.56000 10.600
96.58000 10.690
96.60000 8.216
96.62000 8.169
96.64000 8.049
96.66000 6.955
96.68000 4.362
96.70000 0.148
96.72000 4.589
96.74000 3.630
96.76000 3.706
96.78000 2.364
96.80000 2.888
96.82000 2.356
96.84000 4.811
96.86000 6.668
96.88000 9.855
96.90000 11.048
96.92000 6.269
96.94000 7.527
96.96000 5.094
96.98000 2.596
97.00000 5.956
97.02000 6.541
97.04000 8.691
97.06000 8.493
97.08000 2.607
97.10000 2.140
97.12000 2.204
97.14000 4.375
97.16000 3.594
97.18000 4.143
97.20000 7.676
97.22000 10.951
97.24000 8.186
97.26000 11.494
97.28000 8.404
97.30000 4.166
97.32000 4.775
97.34000 -1.052
97.36000 4.133
97.38000 9.140
97.40000 7.390
97.42000 5.931
97.44000 5.694
97.46000 7.249
97.48000 6.319
97.50000 3.864
97.52000 5.087
97.54000 12.204
97.56000 12.394
97.58000 7.416
97.60000 1.481
97.62000 -1.817
97.64000 6.892
97.66000 8.097
97.68000 6.669
97.70000 8.158
97.72000 5.760
97.74000 2.154
97.76000 2.426
97.78000 7.796
97.80000 5.122
97.82000 4.064
97.84000 1.984
97.86000 1.129
97.88000 3.291
97.90000 2.844
97.92000 0.641
97.94000 1.534
97.96000 7.847
97.98000 6.703
98.00000 6.570
98.02000 8.533
98.04000 9.102
98.06000 4.443
98.08000 3.363
98.10000 -1.190
98.12000 -1.837
98.14000 3.444
98.16000 4.505
98.18000 -0.118
98.20000 1.059
98.22000 0.638
98.24000 3.180
98.26000 4.816
98.28000 6.700
98.30000 5.041
98.32000 4.506
98.34000 7.172
98.36000 8.479
98.38000 6.746
98.40000 4.583
98.42000 4.237
98.44000 3.979
98.46000 5.685
98.48000 6.771
98.50000 6.304
98.52000 3.851
98.54000 -1.272
98.56000 -1.119
98.58000 5.454
98.60000 7.777
98.62000 5.024
98.64000 8.128
98.66000 4.903
98.68000 2.951
98.70000 3.976
98.72000 5.543
98.74000 5.315
98.76000 6.583
98.78000 3.254
98.80000 4.199
98.82000 4.741
98.84000 4.611
98.86000 4.910
98.88000 -0.027
98.90000 -1.828
98.92000 7.079
98.94000 5.190
98.96000 4.416
98.98000 2.350
99.00000 2.609
99.02000 5.390
99.04000 11.942
99.06000 6.481
99.08000 5.262
99.10000 11.589
99.12000 12.116
99.14000 7.870
99.16000 10.351
99.18000 10.068
99.20000 7.009
99.22000 5.193
99.24000 4.254
99.26000 7.669
99.28000 4.081
99.30000 6.780
99.32000 3.837
99.34000 2.283
99.36000 0.984
99.38000 -0.519
99.40000 6.161
99.42000 9.426
99.44000 2.101
99.46000 5.694
99.48000 3.191
99.50000 3.098
99.52000 0.152
99.54000 7.126
99.56000 13.578
99.58000 8.928
99.60000 7.288
99.62000 8.537
99.64000 0.888
99.66000 0.640
99.68000 0.238
99.70000 1.807
99.72000 5.849
99.74000 11.929
99.76000 4.195
99.78000 -2.985
99.80000 4.902
99.82000 9.034
99.84000 12.924
99.86000 7.030
99.88000 -0.414
99.90000 6.159
99.92000 2.923
99.94000 -2.077
99.96000 -2.122
99.98000 0.000
