'Id: "0011387" Comment: "Integrate frame 0011387_Au-Ir-Rh_Rh-rich_XRD-Mapping-031-0000.gfrmwith cursor Wedge Cursor #5" Operator: "B?rgel" Anode: "Cu" Wavelength: "1.5406" Scantype: "2Theta (TwoTheta)" TimePerStep: "1" X: "0" Y: "-31.5" Z: "5.95" 
10.00000 0.000
10.02000 -6.933
10.04000 5.605
10.06000 9.050
10.08000 3.431
10.10000 6.814
10.12000 15.628
10.14000 12.747
10.16000 5.916
10.18000 7.293
10.20000 -4.244
10.22000 -0.468
10.24000 11.534
10.26000 27.599
10.28000 13.792
10.30000 15.224
10.32000 15.477
10.34000 -2.842
10.36000 0.443
10.38000 2.556
10.40000 25.205
10.42000 22.330
10.44000 21.062
10.46000 7.311
10.48000 7.881
10.50000 7.090
10.52000 8.971
10.54000 4.893
10.56000 -0.648
10.58000 6.976
10.60000 25.980
10.62000 21.732
10.64000 10.391
10.66000 13.114
10.68000 4.733
10.70000 5.285
10.72000 22.931
10.74000 13.478
10.76000 6.103
10.78000 5.205
10.80000 21.576
10.82000 25.310
10.84000 17.484
10.86000 0.766
10.88000 9.540
10.90000 7.818
10.92000 10.006
10.94000 12.629
10.96000 8.067
10.98000 12.179
11.00000 20.906
11.02000 14.245
11.04000 7.853
11.06000 12.226
11.08000 10.733
11.10000 15.271
11.12000 18.051
11.14000 -1.588
11.16000 5.497
11.18000 5.873
11.20000 14.600
11.22000 12.734
11.24000 5.383
11.26000 5.274
11.28000 -1.197
11.30000 1.767
11.32000 15.480
11.34000 -2.228
11.36000 12.096
11.38000 15.339
11.40000 10.799
11.42000 9.498
11.44000 17.983
11.46000 9.469
11.48000 12.204
11.50000 -0.499
11.52000 9.694
11.54000 15.864
11.56000 14.592
11.58000 -4.423
11.60000 -0.397
11.62000 9.415
11.64000 7.633
11.66000 15.437
11.68000 18.990
11.70000 15.627
11.72000 11.431
11.74000 10.225
11.76000 1.304
11.78000 2.559
11.80000 13.662
11.82000 16.173
11.84000 9.460
11.86000 7.014
11.88000 1.739
11.90000 8.128
11.92000 3.286
11.94000 -3.483
11.96000 5.222
11.98000 9.827
12.00000 6.241
12.02000 6.830
12.04000 13.152
12.06000 12.034
12.08000 10.826
12.10000 12.378
12.12000 14.443
12.14000 15.656
12.16000 7.546
12.18000 1.662
12.20000 -4.476
12.22000 9.020
12.24000 24.426
12.26000 9.030
12.28000 10.213
12.30000 11.853
12.32000 4.944
12.34000 -1.325
12.36000 4.510
12.38000 8.073
12.40000 14.362
12.42000 6.337
12.44000 8.638
12.46000 2.410
12.48000 10.744
12.50000 14.742
12.52000 11.763
12.54000 12.841
12.56000 11.658
12.58000 19.927
12.60000 13.981
12.62000 5.400
12.64000 8.144
12.66000 3.552
12.68000 2.389
12.70000 4.494
12.72000 0.236
12.74000 0.589
12.76000 8.258
12.78000 8.639
12.80000 12.689
12.82000 14.614
12.84000 12.308
12.86000 17.544
12.88000 0.198
12.90000 7.516
12.92000 5.053
12.94000 4.045
12.96000 3.734
12.98000 8.501
13.00000 7.862
13.02000 2.622
13.04000 -3.066
13.06000 4.537
13.08000 4.042
13.10000 2.169
13.12000 14.692
13.14000 20.989
13.16000 15.682
13.18000 17.417
13.20000 6.599
13.22000 8.409
13.24000 11.028
13.26000 11.533
13.28000 11.053
13.30000 7.756
13.32000 2.258
13.34000 -1.268
13.36000 11.205
13.38000 11.355
13.40000 5.430
13.42000 11.294
13.44000 13.322
13.46000 4.441
13.48000 3.802
13.50000 10.808
13.52000 6.179
13.54000 9.590
13.56000 3.531
13.58000 12.843
13.60000 14.348
13.62000 17.027
13.64000 14.671
13.66000 8.803
13.68000 10.729
13.70000 4.302
13.72000 4.933
13.74000 5.550
13.76000 9.581
13.78000 0.228
13.80000 -4.522
13.82000 5.464
13.84000 6.869
13.86000 7.957
13.88000 10.684
13.90000 3.507
13.92000 -1.293
13.94000 5.445
13.96000 1.209
13.98000 0.581
14.00000 -0.653
14.02000 11.739
14.04000 15.208
14.06000 11.845
14.08000 10.816
14.10000 8.418
14.12000 19.429
14.14000 8.369
14.16000 -0.309
14.18000 4.275
14.20000 2.597
14.22000 8.310
14.24000 11.012
14.26000 9.537
14.28000 10.372
14.30000 11.330
14.32000 14.664
14.34000 6.812
14.36000 0.872
14.38000 2.130
14.40000 2.023
14.42000 -1.022
14.44000 13.163
14.46000 9.033
14.48000 11.469
14.50000 1.317
14.52000 12.141
14.54000 15.459
14.56000 12.012
14.58000 13.906
14.60000 10.970
14.62000 9.135
14.64000 12.346
14.66000 16.496
14.68000 11.174
14.70000 4.616
14.72000 5.334
14.74000 5.035
14.76000 15.277
14.78000 12.657
14.80000 5.559
14.82000 7.991
14.84000 2.090
14.86000 3.905
14.88000 14.211
14.90000 16.918
14.92000 24.180
14.94000 16.738
14.96000 7.716
14.98000 7.338
15.00000 13.631
15.02000 3.966
15.04000 3.546
15.06000 5.204
15.08000 7.511
15.10000 8.303
15.12000 16.867
15.14000 11.096
15.16000 7.881
15.18000 11.155
15.20000 12.100
15.22000 21.380
15.24000 18.211
15.26000 9.083
15.28000 9.435
15.30000 9.571
15.32000 10.080
15.34000 7.164
15.36000 13.805
15.38000 18.646
15.40000 8.481
15.42000 -2.052
15.44000 8.704
15.46000 7.452
15.48000 15.874
15.50000 11.809
15.52000 4.841
15.54000 -4.452
15.56000 -1.771
15.58000 8.101
15.60000 -2.087
15.62000 4.540
15.64000 13.885
15.66000 9.354
15.68000 15.527
15.70000 13.940
15.72000 14.773
15.74000 11.580
15.76000 6.487
15.78000 5.770
15.80000 5.995
15.82000 0.907
15.84000 4.863
15.86000 11.982
15.88000 8.675
15.90000 -0.064
15.92000 -2.267
15.94000 7.117
15.96000 4.976
15.98000 -0.073
16.00000 7.071
16.02000 16.850
16.04000 13.028
16.06000 11.942
16.08000 3.889
16.10000 -1.428
16.12000 2.282
16.14000 5.456
16.16000 15.154
16.18000 12.332
16.20000 2.973
16.22000 6.368
16.24000 3.963
16.26000 5.718
16.28000 5.504
16.30000 7.158
16.32000 5.284
16.34000 2.899
16.36000 1.169
16.38000 7.442
16.40000 14.607
16.42000 13.744
16.44000 11.062
16.46000 11.733
16.48000 7.331
16.50000 16.523
16.52000 9.633
16.54000 -4.145
16.56000 -4.452
16.58000 0.102
16.60000 8.968
16.62000 4.313
16.64000 -2.625
16.66000 -0.301
16.68000 0.661
16.70000 7.372
16.72000 7.946
16.74000 18.149
16.76000 18.735
16.78000 6.742
16.80000 -1.378
16.82000 9.396
16.84000 6.279
16.86000 17.030
16.88000 7.626
16.90000 7.610
16.92000 -1.709
16.94000 -3.867
16.96000 -2.399
16.98000 -0.763
17.00000 7.738
17.02000 12.778
17.04000 4.615
17.06000 4.375
17.08000 2.970
17.10000 1.716
17.12000 6.199
17.14000 2.567
17.16000 8.392
17.18000 8.390
17.20000 4.786
17.22000 17.721
17.24000 14.760
17.26000 -2.221
17.28000 3.364
17.30000 13.230
17.32000 11.082
17.34000 4.877
17.36000 10.395
17.38000 14.060
17.40000 7.101
17.42000 1.887
17.44000 -0.314
17.46000 1.520
17.48000 6.823
17.50000 6.095
17.52000 2.401
17.54000 -0.024
17.56000 2.593
17.58000 -2.318
17.60000 -2.467
17.62000 -0.916
17.64000 7.429
17.66000 5.982
17.68000 -1.106
17.70000 0.386
17.72000 7.155
17.74000 7.470
17.76000 7.689
17.78000 6.178
17.80000 4.611
17.82000 6.375
17.84000 -3.360
17.86000 -0.021
17.88000 5.973
17.90000 3.988
17.92000 2.471
17.94000 1.842
17.96000 1.765
17.98000 -0.664
18.00000 4.824
18.02000 2.307
18.04000 1.180
18.06000 -1.941
18.08000 3.544
18.10000 13.278
18.12000 7.448
18.14000 11.171
18.16000 8.900
18.18000 4.256
18.20000 3.780
18.22000 4.707
18.24000 -2.408
18.26000 1.041
18.28000 6.004
18.30000 2.647
18.32000 5.658
18.34000 1.027
18.36000 5.142
18.38000 3.781
18.40000 8.604
18.42000 1.692
18.44000 -1.393
18.46000 5.793
18.48000 7.711
18.50000 2.309
18.52000 2.942
18.54000 1.404
18.56000 -1.329
18.58000 -1.399
18.60000 0.567
18.62000 1.847
18.64000 6.691
18.66000 3.474
18.68000 1.510
18.70000 4.939
18.72000 7.843
18.74000 6.815
18.76000 6.132
18.78000 5.307
18.80000 8.964
18.82000 10.435
18.84000 7.869
18.86000 2.497
18.88000 1.925
18.90000 -4.268
18.92000 4.404
18.94000 14.551
18.96000 14.474
18.98000 17.186
19.00000 8.349
19.02000 2.941
19.04000 7.708
19.06000 9.629
19.08000 2.367
19.10000 8.520
19.12000 9.305
19.14000 11.061
19.16000 18.881
19.18000 13.245
19.20000 11.630
19.22000 5.345
19.24000 7.287
19.26000 9.541
19.28000 13.753
19.30000 11.270
19.32000 8.009
19.34000 13.362
19.36000 13.926
19.38000 13.903
19.40000 7.052
19.42000 9.957
19.44000 12.195
19.46000 12.236
19.48000 7.451
19.50000 3.572
19.52000 -4.211
19.54000 8.550
19.56000 14.772
19.58000 9.646
19.60000 8.760
19.62000 13.953
19.64000 13.492
19.66000 4.482
19.68000 7.139
19.70000 7.085
19.72000 7.846
19.74000 12.993
19.76000 9.316
19.78000 10.764
19.80000 10.701
19.82000 13.665
19.84000 8.961
19.86000 1.193
19.88000 4.165
19.90000 7.897
19.92000 8.163
19.94000 4.922
19.96000 10.263
19.98000 10.501
20.00000 10.998
20.02000 5.955
20.04000 6.727
20.06000 5.864
20.08000 11.139
20.10000 11.940
20.12000 3.861
20.14000 -1.989
20.16000 4.291
20.18000 9.625
20.20000 12.387
20.22000 9.464
20.24000 9.774
20.26000 4.611
20.28000 4.152
20.30000 10.336
20.32000 14.246
20.34000 9.590
20.36000 8.924
20.38000 8.205
20.40000 9.742
20.42000 6.222
20.44000 12.591
20.46000 11.020
20.48000 7.676
20.50000 8.313
20.52000 7.017
20.54000 3.579
20.56000 0.891
20.58000 5.354
20.60000 6.849
20.62000 3.115
20.64000 5.800
20.66000 2.801
20.68000 -0.207
20.70000 -1.059
20.72000 -0.787
20.74000 6.056
20.76000 5.940
20.78000 7.557
20.80000 8.891
20.82000 3.887
20.84000 -0.327
20.86000 9.792
20.88000 8.974
20.90000 3.837
20.92000 6.196
20.94000 1.068
20.96000 -2.860
20.98000 0.082
21.00000 -1.559
21.02000 1.593
21.04000 0.288
21.06000 3.174
21.08000 5.138
21.10000 5.157
21.12000 0.924
21.14000 -1.195
21.16000 -3.535
21.18000 -4.162
21.20000 6.797
21.22000 12.042
21.24000 0.361
21.26000 0.734
21.28000 3.913
21.30000 7.922
21.32000 9.601
21.34000 0.805
21.36000 2.491
21.38000 7.892
21.40000 6.019
21.42000 3.448
21.44000 11.844
21.46000 8.512
21.48000 -0.192
21.50000 8.055
21.52000 12.155
21.54000 8.201
21.56000 4.911
21.58000 8.410
21.60000 9.728
21.62000 9.347
21.64000 11.536
21.66000 9.047
21.68000 2.616
21.70000 0.095
21.72000 1.809
21.74000 6.463
21.76000 2.067
21.78000 5.517
21.80000 2.105
21.82000 4.888
21.84000 9.684
21.86000 5.163
21.88000 5.381
21.90000 4.805
21.92000 0.584
21.94000 2.248
21.96000 4.904
21.98000 3.931
22.00000 1.617
22.02000 1.176
22.04000 6.901
22.06000 7.151
22.08000 7.986
22.10000 11.348
22.12000 3.853
22.14000 7.114
22.16000 10.824
22.18000 1.967
22.20000 -0.675
22.22000 2.306
22.24000 3.560
22.26000 7.206
22.28000 7.318
22.30000 3.951
22.32000 3.376
22.34000 5.706
22.36000 7.192
22.38000 -0.803
22.40000 3.208
22.42000 3.787
22.44000 -3.827
22.46000 -4.089
22.48000 3.073
22.50000 8.822
22.52000 4.257
22.54000 1.726
22.56000 6.256
22.58000 8.055
22.60000 11.467
22.62000 4.565
22.64000 1.720
22.66000 5.260
22.68000 2.617
22.70000 0.900
22.72000 4.065
22.74000 5.466
22.76000 4.789
22.78000 -0.452
22.80000 -4.076
22.82000 -3.444
22.84000 4.385
22.86000 2.537
22.88000 6.684
22.90000 3.586
22.92000 1.229
22.94000 -0.069
22.96000 5.110
22.98000 7.766
23.00000 7.111
23.02000 0.214
23.04000 2.923
23.06000 5.834
23.08000 5.037
23.10000 1.668
23.12000 8.572
23.14000 8.965
23.16000 1.773
23.18000 -2.100
23.20000 -3.918
23.22000 -3.409
23.24000 0.161
23.26000 1.488
23.28000 -0.342
23.30000 0.019
23.32000 2.269
23.34000 1.255
23.36000 8.140
23.38000 5.151
23.40000 7.315
23.42000 5.188
23.44000 10.794
23.46000 9.336
23.48000 3.685
23.50000 3.564
23.52000 4.844
23.54000 6.804
23.56000 13.275
23.58000 8.552
23.60000 0.592
23.62000 -4.037
23.64000 0.878
23.66000 6.476
23.68000 0.291
23.70000 5.504
23.72000 6.772
23.74000 4.623
23.76000 1.246
23.78000 4.349
23.80000 2.062
23.82000 2.030
23.84000 9.883
23.86000 5.391
23.88000 1.031
23.90000 0.883
23.92000 1.356
23.94000 2.748
23.96000 5.161
23.98000 6.381
24.00000 8.068
24.02000 1.875
24.04000 -1.564
24.06000 -0.706
24.08000 0.688
24.10000 -4.001
24.12000 0.983
24.14000 4.553
24.16000 4.042
24.18000 1.871
24.20000 3.018
24.22000 8.176
24.24000 9.744
24.26000 6.142
24.28000 0.401
24.30000 0.543
24.32000 10.350
24.34000 7.049
24.36000 8.204
24.38000 12.590
24.40000 11.135
24.42000 8.913
24.44000 -1.598
24.46000 3.553
24.48000 4.880
24.50000 1.416
24.52000 1.469
24.54000 -0.734
24.56000 -0.833
24.58000 4.004
24.60000 -3.981
24.62000 0.142
24.64000 2.653
24.66000 3.423
24.68000 2.288
24.70000 3.968
24.72000 5.350
24.74000 0.287
24.76000 -1.189
24.78000 2.677
24.80000 6.455
24.82000 -1.663
24.84000 2.784
24.86000 6.546
24.88000 0.190
24.90000 -1.816
24.92000 -2.261
24.94000 3.193
24.96000 6.425
24.98000 4.639
25.00000 -0.330
25.02000 -0.228
25.04000 -1.472
25.06000 0.318
25.08000 1.857
25.10000 -1.127
25.12000 2.506
25.14000 1.874
25.16000 -1.070
25.18000 0.058
25.20000 5.299
25.22000 2.859
25.24000 7.028
25.26000 6.196
25.28000 0.149
25.30000 1.391
25.32000 2.699
25.34000 1.626
25.36000 -3.677
25.38000 -0.139
25.40000 2.253
25.42000 -0.132
25.44000 -0.539
25.46000 -2.292
25.48000 -3.376
25.50000 3.427
25.52000 0.797
25.54000 0.272
25.56000 -0.932
25.58000 -3.939
25.60000 -1.053
25.62000 0.543
25.64000 1.660
25.66000 1.126
25.68000 9.735
25.70000 8.917
25.72000 2.608
25.74000 2.007
25.76000 -0.342
25.78000 2.044
25.80000 1.440
25.82000 -0.289
25.84000 0.836
25.86000 -0.422
25.88000 -0.465
25.90000 0.660
25.92000 0.265
25.94000 2.185
25.96000 2.750
25.98000 2.098
26.00000 3.033
26.02000 1.850
26.04000 0.011
26.06000 -1.067
26.08000 2.725
26.10000 1.665
26.12000 -1.181
26.14000 7.810
26.16000 7.305
26.18000 2.948
26.20000 -0.405
26.22000 5.191
26.24000 6.949
26.26000 2.029
26.28000 0.306
26.30000 0.585
26.32000 -0.444
26.34000 -2.855
26.36000 -3.894
26.38000 -0.372
26.40000 1.630
26.42000 2.867
26.44000 9.417
26.46000 6.002
26.48000 3.965
26.50000 -1.294
26.52000 0.866
26.54000 11.377
26.56000 13.094
26.58000 7.064
26.60000 4.010
26.62000 7.211
26.64000 7.923
26.66000 5.112
26.68000 2.425
26.70000 2.547
26.72000 1.270
26.74000 0.231
26.76000 0.545
26.78000 -1.605
26.80000 -2.374
26.82000 -3.472
26.84000 -2.239
26.86000 -3.858
26.88000 -0.942
26.90000 6.167
26.92000 6.664
26.94000 8.196
26.96000 11.515
26.98000 7.330
27.00000 6.116
27.02000 4.485
27.04000 8.757
27.06000 6.746
27.08000 6.151
27.10000 2.233
27.12000 2.645
27.14000 3.109
27.16000 -0.009
27.18000 1.913
27.20000 4.424
27.22000 2.980
27.24000 4.571
27.26000 2.173
27.28000 1.002
27.30000 1.332
27.32000 4.015
27.34000 3.412
27.36000 5.437
27.38000 4.541
27.40000 3.779
27.42000 4.984
27.44000 3.600
27.46000 2.073
27.48000 3.925
27.50000 -3.837
27.52000 0.530
27.54000 2.060
27.56000 1.268
27.58000 3.295
27.60000 -0.661
27.62000 -0.901
27.64000 2.604
27.66000 1.417
27.68000 -1.409
27.70000 -0.547
27.72000 1.980
27.74000 1.205
27.76000 7.249
27.78000 7.385
27.80000 3.618
27.82000 2.359
27.84000 5.372
27.86000 2.897
27.88000 1.609
27.90000 -0.726
27.92000 -0.096
27.94000 -1.163
27.96000 0.146
27.98000 3.439
28.00000 2.455
28.02000 -0.401
28.04000 2.934
28.06000 6.365
28.08000 5.984
28.10000 4.281
28.12000 0.842
28.14000 0.602
28.16000 5.547
28.18000 7.187
28.20000 3.131
28.22000 6.675
28.24000 6.090
28.26000 4.495
28.28000 0.180
28.30000 -3.783
28.32000 -3.649
28.34000 -1.152
28.36000 0.669
28.38000 -2.591
28.40000 1.940
28.42000 2.969
28.44000 3.662
28.46000 4.405
28.48000 8.380
28.50000 0.884
28.52000 -0.290
28.54000 2.851
28.56000 10.142
28.58000 5.324
28.60000 2.146
28.62000 1.088
28.64000 3.326
28.66000 3.093
28.68000 0.276
28.70000 3.113
28.72000 2.285
28.74000 2.632
28.76000 1.185
28.78000 2.938
28.80000 7.083
28.82000 8.923
28.84000 5.333
28.86000 6.919
28.88000 2.229
28.90000 -3.743
28.92000 0.479
28.94000 1.239
28.96000 -0.803
28.98000 -3.416
29.00000 3.719
29.02000 2.639
29.04000 -1.254
29.06000 -1.616
29.08000 1.031
29.10000 1.628
29.12000 4.023
29.14000 2.154
29.16000 3.173
29.18000 -0.740
29.20000 -0.532
29.22000 -1.524
29.24000 -1.887
29.26000 1.523
29.28000 2.775
29.30000 4.199
29.32000 -0.902
29.34000 3.531
29.36000 3.476
29.38000 0.662
29.40000 0.147
29.42000 3.899
29.44000 1.731
29.46000 0.113
29.48000 4.427
29.50000 4.196
29.52000 8.682
29.54000 6.233
29.56000 0.934
29.58000 1.192
29.60000 -3.537
29.62000 -3.011
29.64000 1.438
29.66000 3.629
29.68000 -1.284
29.70000 7.064
29.72000 8.450
29.74000 3.271
29.76000 4.100
29.78000 3.597
29.80000 0.544
29.82000 4.021
29.84000 3.439
29.86000 5.556
29.88000 5.061
29.90000 6.955
29.92000 2.753
29.94000 0.757
29.96000 -1.893
29.98000 -2.962
30.00000 0.204
30.02000 -0.331
30.04000 -3.685
30.06000 -0.796
30.08000 1.139
30.10000 2.055
30.12000 -0.184
30.14000 1.233
30.16000 -3.679
30.18000 1.617
30.20000 2.160
30.22000 2.881
30.24000 6.118
30.26000 4.065
30.28000 3.468
30.30000 3.964
30.32000 0.156
30.34000 -0.190
30.36000 2.344
30.38000 1.711
30.40000 4.272
30.42000 1.511
30.44000 1.895
30.46000 -1.272
30.48000 -3.669
30.50000 -2.494
30.52000 0.869
30.54000 1.098
30.56000 1.115
30.58000 2.213
30.60000 0.039
30.62000 2.862
30.64000 4.393
30.66000 5.764
30.68000 0.782
30.70000 2.657
30.72000 0.842
30.74000 3.796
30.76000 -0.656
30.78000 2.054
30.80000 -0.037
30.82000 2.087
30.84000 4.642
30.86000 3.672
30.88000 -0.181
30.90000 3.105
30.92000 1.933
30.94000 -0.628
30.96000 -0.331
30.98000 -3.594
31.00000 -3.641
31.02000 0.049
31.04000 -1.756
31.06000 2.463
31.08000 3.561
31.10000 2.610
31.12000 2.622
31.14000 2.547
31.16000 4.488
31.18000 3.099
31.20000 2.507
31.22000 0.752
31.24000 -1.215
31.26000 5.045
31.28000 5.303
31.30000 3.775
31.32000 5.627
31.34000 3.171
31.36000 1.932
31.38000 6.702
31.40000 6.189
31.42000 2.588
31.44000 -3.633
31.46000 1.131
31.48000 6.814
31.50000 4.473
31.52000 4.288
31.54000 4.528
31.56000 7.140
31.58000 3.193
31.60000 1.018
31.62000 0.656
31.64000 -2.619
31.66000 -2.434
31.68000 1.379
31.70000 2.868
31.72000 -1.143
31.74000 3.565
31.76000 -0.136
31.78000 0.568
31.80000 -1.183
31.82000 -2.094
31.84000 3.707
31.86000 2.457
31.88000 3.885
31.90000 5.942
31.92000 2.580
31.94000 0.757
31.96000 -2.841
31.98000 -1.303
32.00000 0.819
32.02000 2.544
32.04000 4.099
32.06000 3.110
32.08000 1.905
32.10000 2.311
32.12000 1.470
32.14000 2.388
32.16000 6.559
32.18000 8.869
32.20000 9.304
32.22000 4.375
32.24000 1.088
32.26000 -2.675
32.28000 -3.420
32.30000 -2.679
32.32000 2.503
32.34000 4.091
32.36000 7.386
32.38000 2.730
32.40000 -0.767
32.42000 5.967
32.44000 6.039
32.46000 -1.084
32.48000 -3.583
32.50000 1.946
32.52000 -0.277
32.54000 -0.558
32.56000 2.243
32.58000 2.351
32.60000 2.185
32.62000 -1.861
32.64000 -3.584
32.66000 1.685
32.68000 1.600
32.70000 4.271
32.72000 4.038
32.74000 1.466
32.76000 0.307
32.78000 4.153
32.80000 -0.183
32.82000 2.559
32.84000 0.872
32.86000 -0.646
32.88000 -2.608
32.90000 1.601
32.92000 1.963
32.94000 6.553
32.96000 8.475
32.98000 3.936
33.00000 -1.875
33.02000 1.760
33.04000 1.006
33.06000 0.716
33.08000 2.264
33.10000 5.722
33.12000 2.274
33.14000 -0.164
33.16000 2.041
33.18000 -1.584
33.20000 2.795
33.22000 3.943
33.24000 2.711
33.26000 0.872
33.28000 -0.932
33.30000 -0.700
33.32000 2.173
33.34000 0.943
33.36000 2.308
33.38000 0.997
33.40000 -0.106
33.42000 5.883
33.44000 3.466
33.46000 4.078
33.48000 1.661
33.50000 -0.244
33.52000 0.869
33.54000 0.755
33.56000 -3.390
33.58000 1.198
33.60000 1.080
33.62000 -1.028
33.64000 -1.520
33.66000 1.452
33.68000 4.719
33.70000 7.888
33.72000 5.385
33.74000 0.897
33.76000 -1.162
33.78000 2.292
33.80000 8.140
33.82000 7.323
33.84000 7.614
33.86000 9.685
33.88000 2.274
33.90000 1.471
33.92000 5.790
33.94000 0.575
33.96000 2.717
33.98000 3.261
34.00000 3.441
34.02000 6.728
34.04000 4.131
34.06000 3.447
34.08000 11.265
34.10000 8.831
34.12000 5.190
34.14000 5.656
34.16000 4.519
34.18000 5.791
34.20000 2.830
34.22000 -3.528
34.24000 -1.347
34.26000 1.861
34.28000 3.951
34.30000 3.490
34.32000 4.601
34.34000 8.494
34.36000 5.759
34.38000 0.248
34.40000 1.926
34.42000 2.292
34.44000 -0.410
34.46000 -0.330
34.48000 2.454
34.50000 6.472
34.52000 7.817
34.54000 9.962
34.56000 5.109
34.58000 3.569
34.60000 6.208
34.62000 1.785
34.64000 -1.797
34.66000 2.149
34.68000 5.367
34.70000 5.438
34.72000 6.951
34.74000 7.907
34.76000 5.879
34.78000 5.897
34.80000 5.153
34.82000 9.998
34.84000 8.591
34.86000 7.616
34.88000 -0.508
34.90000 4.985
34.92000 1.706
34.94000 2.265
34.96000 5.709
34.98000 9.779
35.00000 8.049
35.02000 -0.089
35.04000 4.408
35.06000 3.429
35.08000 8.150
35.10000 7.077
35.12000 4.842
35.14000 7.385
35.16000 11.033
35.18000 12.162
35.20000 10.350
35.22000 8.079
35.24000 3.839
35.26000 1.854
35.28000 2.926
35.30000 -3.448
35.32000 0.693
35.34000 8.857
35.36000 5.223
35.38000 2.839
35.40000 8.498
35.42000 10.253
35.44000 7.565
35.46000 9.028
35.48000 10.922
35.50000 5.956
35.52000 6.819
35.54000 10.980
35.56000 6.221
35.58000 1.284
35.60000 3.650
35.62000 3.902
35.64000 3.820
35.66000 7.160
35.68000 5.056
35.70000 0.698
35.72000 0.880
35.74000 8.547
35.76000 6.066
35.78000 1.981
35.80000 1.396
35.82000 5.989
35.84000 6.026
35.86000 3.081
35.88000 4.820
35.90000 5.072
35.92000 4.403
35.94000 3.330
35.96000 -1.095
35.98000 -1.944
36.00000 4.227
36.02000 6.200
36.04000 0.954
36.06000 -1.061
36.08000 -3.479
36.10000 -1.975
36.12000 0.244
36.14000 1.714
36.16000 1.117
36.18000 1.044
36.20000 4.166
36.22000 3.775
36.24000 3.421
36.26000 1.125
36.28000 2.576
36.30000 3.769
36.32000 2.609
36.34000 1.009
36.36000 4.263
36.38000 0.690
36.40000 2.760
36.42000 2.426
36.44000 4.850
36.46000 0.792
36.48000 4.517
36.50000 6.235
36.52000 5.087
36.54000 6.540
36.56000 6.849
36.58000 1.021
36.60000 -0.211
36.62000 -0.455
36.64000 3.332
36.66000 2.555
36.68000 4.031
36.70000 2.685
36.72000 7.270
36.74000 -0.788
36.76000 -3.498
36.78000 2.228
36.80000 4.818
36.82000 0.647
36.84000 0.037
36.86000 -0.191
36.88000 -0.814
36.90000 2.331
36.92000 0.947
36.94000 3.314
36.96000 5.248
36.98000 2.322
37.00000 4.006
37.02000 -1.429
37.04000 -0.536
37.06000 3.833
37.08000 1.177
37.10000 3.563
37.12000 2.116
37.14000 5.342
37.16000 -0.426
37.18000 -2.312
37.20000 6.654
37.22000 4.658
37.24000 1.660
37.26000 1.691
37.28000 -1.149
37.30000 0.076
37.32000 -0.533
37.34000 -0.203
37.36000 0.261
37.38000 -1.672
37.40000 -0.531
37.42000 -0.708
37.44000 -1.745
37.46000 0.396
37.48000 0.929
37.50000 -0.288
37.52000 -2.093
37.54000 -2.077
37.56000 -0.645
37.58000 1.194
37.60000 2.767
37.62000 -3.550
37.64000 -2.818
37.66000 2.691
37.68000 5.752
37.70000 2.356
37.72000 5.179
37.74000 6.813
37.76000 4.725
37.78000 2.434
37.80000 0.199
37.82000 1.230
37.84000 4.684
37.86000 3.263
37.88000 3.730
37.90000 5.843
37.92000 2.479
37.94000 -1.118
37.96000 4.725
37.98000 6.417
38.00000 4.485
38.02000 5.453
38.04000 3.700
38.06000 7.922
38.08000 5.983
38.10000 6.814
38.12000 6.432
38.14000 4.617
38.16000 11.500
38.18000 9.650
38.20000 4.743
38.22000 5.247
38.24000 9.231
38.26000 11.294
38.28000 13.446
38.30000 13.017
38.32000 14.754
38.34000 11.292
38.36000 10.560
38.38000 12.875
38.40000 17.716
38.42000 14.599
38.44000 11.149
38.46000 15.438
38.48000 12.000
38.50000 10.346
38.52000 14.567
38.54000 15.482
38.56000 11.648
38.58000 16.736
38.60000 20.247
38.62000 16.233
38.64000 15.844
38.66000 22.372
38.68000 21.099
38.70000 16.669
38.72000 13.417
38.74000 17.524
38.76000 20.226
38.78000 23.970
38.80000 21.071
38.82000 23.294
38.84000 23.252
38.86000 26.644
38.88000 29.598
38.90000 28.038
38.92000 25.371
38.94000 23.988
38.96000 24.850
38.98000 31.059
39.00000 35.555
39.02000 33.934
39.04000 29.305
39.06000 28.159
39.08000 33.282
39.10000 31.828
39.12000 32.600
39.14000 35.285
39.16000 34.292
39.18000 35.376
39.20000 43.503
39.22000 44.129
39.24000 45.951
39.26000 42.686
39.28000 44.260
39.30000 50.975
39.32000 52.766
39.34000 50.665
39.36000 50.467
39.38000 56.646
39.40000 61.658
39.42000 63.636
39.44000 63.714
39.46000 64.560
39.48000 68.807
39.50000 72.123
39.52000 78.666
39.54000 86.680
39.56000 92.497
39.58000 89.147
39.60000 97.741
39.62000 104.354
39.64000 105.191
39.66000 108.808
39.68000 115.924
39.70000 125.408
39.72000 135.769
39.74000 142.709
39.76000 157.508
39.78000 166.776
39.80000 172.585
39.82000 184.712
39.84000 198.155
39.86000 218.779
39.88000 236.980
39.90000 246.011
39.92000 259.803
39.94000 276.567
39.96000 288.819
39.98000 317.629
40.00000 351.441
40.02000 374.135
40.04000 401.157
40.06000 424.162
40.08000 451.702
40.10000 488.061
40.12000 524.418
40.14000 560.613
40.16000 599.510
40.18000 642.509
40.20000 683.460
40.22000 714.877
40.24000 773.586
40.26000 821.046
40.28000 862.972
40.30000 905.571
40.32000 936.684
40.34000 978.175
40.36000 1001.618
40.38000 1049.559
40.40000 1078.834
40.42000 1105.579
40.44000 1130.794
40.46000 1138.440
40.48000 1151.801
40.50000 1156.948
40.52000 1152.473
40.54000 1144.990
40.56000 1130.627
40.58000 1118.314
40.60000 1112.663
40.62000 1091.015
40.64000 1064.939
40.66000 1039.744
40.68000 1002.837
40.70000 965.973
40.72000 940.041
40.74000 915.655
40.76000 881.211
40.78000 842.965
40.80000 814.139
40.82000 788.996
40.84000 743.924
40.86000 707.773
40.88000 681.240
40.90000 653.050
40.92000 609.084
40.94000 580.157
40.96000 555.471
40.98000 533.561
41.00000 502.310
41.02000 467.678
41.04000 440.180
41.06000 409.324
41.08000 397.411
41.10000 379.646
41.12000 362.335
41.14000 345.005
41.16000 328.107
41.18000 302.158
41.20000 283.907
41.22000 270.152
41.24000 260.932
41.26000 242.159
41.28000 228.589
41.30000 218.239
41.32000 210.230
41.34000 193.598
41.36000 179.160
41.38000 173.522
41.40000 164.210
41.42000 156.973
41.44000 149.020
41.46000 140.908
41.48000 133.996
41.50000 131.152
41.52000 128.123
41.54000 116.581
41.56000 114.999
41.58000 111.915
41.60000 103.858
41.62000 95.838
41.64000 91.531
41.66000 88.366
41.68000 82.388
41.70000 77.671
41.72000 77.642
41.74000 75.294
41.76000 71.373
41.78000 72.680
41.80000 66.018
41.82000 65.921
41.84000 61.610
41.86000 58.636
41.88000 53.619
41.90000 52.181
41.92000 56.909
41.94000 51.898
41.96000 44.506
41.98000 45.309
42.00000 43.970
42.02000 44.378
42.04000 40.689
42.06000 36.445
42.08000 32.969
42.10000 33.404
42.12000 31.708
42.14000 34.433
42.16000 31.946
42.18000 33.534
42.20000 33.481
42.22000 30.777
42.24000 27.941
42.26000 27.615
42.28000 24.218
42.30000 23.607
42.32000 19.400
42.34000 20.543
42.36000 19.765
42.38000 19.512
42.40000 23.645
42.42000 22.516
42.44000 20.452
42.46000 17.549
42.48000 18.391
42.50000 18.261
42.52000 18.754
42.54000 19.475
42.56000 21.007
42.58000 18.198
42.60000 12.709
42.62000 6.374
42.64000 6.071
42.66000 11.560
42.68000 6.936
42.70000 5.903
42.72000 11.205
42.74000 10.073
42.76000 9.057
42.78000 8.774
42.80000 8.473
42.82000 11.069
42.84000 10.259
42.86000 5.953
42.88000 3.938
42.90000 6.371
42.92000 5.850
42.94000 7.342
42.96000 9.602
42.98000 8.329
43.00000 5.989
43.02000 3.166
43.04000 2.629
43.06000 3.276
43.08000 3.828
43.10000 3.112
43.12000 5.996
43.14000 2.348
43.16000 2.161
43.18000 5.197
43.20000 6.144
43.22000 2.824
43.24000 -0.109
43.26000 4.932
43.28000 3.569
43.30000 0.940
43.32000 3.198
43.34000 1.568
43.36000 3.380
43.38000 2.366
43.40000 4.166
43.42000 4.902
43.44000 3.504
43.46000 4.917
43.48000 2.261
43.50000 0.709
43.52000 1.798
43.54000 1.521
43.56000 -0.030
43.58000 -3.349
43.60000 -1.378
43.62000 -1.294
43.64000 -0.714
43.66000 0.513
43.68000 2.800
43.70000 0.331
43.72000 3.439
43.74000 2.271
43.76000 0.622
43.78000 1.407
43.80000 2.676
43.82000 7.514
43.84000 2.194
43.86000 0.425
43.88000 -1.478
43.90000 -0.337
43.92000 0.179
43.94000 4.006
43.96000 2.232
43.98000 2.582
44.00000 4.087
44.02000 -0.576
44.04000 -2.723
44.06000 -0.288
44.08000 1.467
44.10000 0.005
44.12000 0.889
44.14000 2.468
44.16000 1.304
44.18000 -1.940
44.20000 -2.213
44.22000 -3.267
44.24000 0.052
44.26000 1.438
44.28000 1.999
44.30000 2.597
44.32000 3.119
44.34000 3.958
44.36000 5.205
44.38000 2.244
44.40000 1.028
44.42000 0.337
44.44000 1.651
44.46000 3.148
44.48000 -0.120
44.50000 -2.382
44.52000 -1.400
44.54000 0.341
44.56000 2.379
44.58000 2.052
44.60000 -0.348
44.62000 -0.758
44.64000 0.878
44.66000 1.233
44.68000 -0.263
44.70000 1.850
44.72000 4.816
44.74000 4.072
44.76000 3.479
44.78000 4.211
44.80000 3.927
44.82000 0.828
44.84000 -0.498
44.86000 -3.174
44.88000 -2.417
44.90000 2.734
44.92000 2.014
44.94000 4.446
44.96000 0.844
44.98000 -0.072
45.00000 1.244
45.02000 3.706
45.04000 2.329
45.06000 2.923
45.08000 3.681
45.10000 3.363
45.12000 3.867
45.14000 5.186
45.16000 3.235
45.18000 -0.179
45.20000 3.783
45.22000 4.811
45.24000 3.974
45.26000 6.049
45.28000 6.330
45.30000 4.193
45.32000 -1.982
45.34000 0.582
45.36000 3.887
45.38000 5.154
45.40000 5.420
45.42000 6.244
45.44000 5.687
45.46000 1.224
45.48000 -0.405
45.50000 1.811
45.52000 5.163
45.54000 5.896
45.56000 8.655
45.58000 4.625
45.60000 2.767
45.62000 3.529
45.64000 6.467
45.66000 10.201
45.68000 7.479
45.70000 8.181
45.72000 5.465
45.74000 3.975
45.76000 5.166
45.78000 7.856
45.80000 9.211
45.82000 9.558
45.84000 8.952
45.86000 11.666
45.88000 10.781
45.90000 10.773
45.92000 11.086
45.94000 11.877
45.96000 13.948
45.98000 12.362
46.00000 16.415
46.02000 19.656
46.04000 20.609
46.06000 17.078
46.08000 15.098
46.10000 19.702
46.12000 21.214
46.14000 17.896
46.16000 15.025
46.18000 22.808
46.20000 26.549
46.22000 29.367
46.24000 29.701
46.26000 27.424
46.28000 25.602
46.30000 23.352
46.32000 26.442
46.34000 31.793
46.36000 30.767
46.38000 29.674
46.40000 34.864
46.42000 36.490
46.44000 33.853
46.46000 35.769
46.48000 37.833
46.50000 42.228
46.52000 49.935
46.54000 53.094
46.56000 53.118
46.58000 57.059
46.60000 58.913
46.62000 62.846
46.64000 66.797
46.66000 64.003
46.68000 62.974
46.70000 69.630
46.72000 72.285
46.74000 75.450
46.76000 78.217
46.78000 78.051
46.80000 85.553
46.82000 88.108
46.84000 87.047
46.86000 96.848
46.88000 102.141
46.90000 102.156
46.92000 106.132
46.94000 107.424
46.96000 113.795
46.98000 112.339
47.00000 116.002
47.02000 122.647
47.04000 128.770
47.06000 125.360
47.08000 127.714
47.10000 124.699
47.12000 129.924
47.14000 136.795
47.16000 136.479
47.18000 135.082
47.20000 131.713
47.22000 128.695
47.24000 132.157
47.26000 125.818
47.28000 116.968
47.30000 119.810
47.32000 122.387
47.34000 116.922
47.36000 113.568
47.38000 113.998
47.40000 109.211
47.42000 112.363
47.44000 108.392
47.46000 100.147
47.48000 98.335
47.50000 93.328
47.52000 88.089
47.54000 84.719
47.56000 85.152
47.58000 84.015
47.60000 81.337
47.62000 73.117
47.64000 72.923
47.66000 70.697
47.68000 64.684
47.70000 61.943
47.72000 61.372
47.74000 53.648
47.76000 53.105
47.78000 53.304
47.80000 48.289
47.82000 43.950
47.84000 41.451
47.86000 40.667
47.88000 34.843
47.90000 32.600
47.92000 33.159
47.94000 28.603
47.96000 28.813
47.98000 28.804
48.00000 27.748
48.02000 26.086
48.04000 25.259
48.06000 18.824
48.08000 20.742
48.10000 21.781
48.12000 20.504
48.14000 19.214
48.16000 19.760
48.18000 17.474
48.20000 14.082
48.22000 14.708
48.24000 13.445
48.26000 15.454
48.28000 13.580
48.30000 10.115
48.32000 8.325
48.34000 8.464
48.36000 10.502
48.38000 9.439
48.40000 6.759
48.42000 5.935
48.44000 4.899
48.46000 7.564
48.48000 4.175
48.50000 0.941
48.52000 2.165
48.54000 5.731
48.56000 7.889
48.58000 8.428
48.60000 8.800
48.62000 10.188
48.64000 3.961
48.66000 8.334
48.68000 10.338
48.70000 5.157
48.72000 1.182
48.74000 5.518
48.76000 6.532
48.78000 6.766
48.80000 3.506
48.82000 6.026
48.84000 5.882
48.86000 5.327
48.88000 7.183
48.90000 9.292
48.92000 8.039
48.94000 7.281
48.96000 7.576
48.98000 3.935
49.00000 2.946
49.02000 -2.641
49.04000 1.621
49.06000 4.026
49.08000 9.714
49.10000 4.373
49.12000 1.158
49.14000 3.232
49.16000 3.195
49.18000 -0.428
49.20000 -0.864
49.22000 2.771
49.24000 0.914
49.26000 2.612
49.28000 5.414
49.30000 -1.132
49.32000 -0.962
49.34000 4.490
49.36000 4.611
49.38000 8.683
49.40000 1.964
49.42000 0.900
49.44000 5.378
49.46000 2.384
49.48000 3.111
49.50000 1.560
49.52000 0.734
49.54000 2.808
49.56000 4.028
49.58000 2.236
49.60000 2.172
49.62000 1.016
49.64000 2.225
49.66000 2.741
49.68000 3.397
49.70000 3.087
49.72000 2.513
49.74000 2.716
49.76000 3.625
49.78000 0.476
49.80000 -0.847
49.82000 -1.552
49.84000 -1.345
49.86000 2.194
49.88000 0.167
49.90000 2.963
49.92000 4.910
49.94000 1.182
49.96000 -2.551
49.98000 1.515
50.00000 2.856
50.02000 1.453
50.04000 4.224
50.06000 1.923
50.08000 2.204
50.10000 -1.616
50.12000 1.371
50.14000 1.594
50.16000 2.433
50.18000 2.673
50.20000 1.935
50.22000 -1.678
50.24000 1.596
50.26000 0.824
50.28000 -0.950
50.30000 1.622
50.32000 -0.541
50.34000 -2.520
50.36000 3.350
50.38000 1.793
50.40000 2.669
50.42000 3.508
50.44000 2.198
50.46000 2.771
50.48000 0.349
50.50000 1.692
50.52000 4.023
50.54000 0.950
50.56000 0.972
50.58000 2.972
50.60000 2.889
50.62000 1.242
50.64000 0.723
50.66000 1.902
50.68000 2.199
50.70000 3.087
50.72000 -0.319
50.74000 0.141
50.76000 1.716
50.78000 -1.924
50.80000 -1.624
50.82000 1.051
50.84000 0.662
50.86000 1.495
50.88000 1.623
50.90000 -1.574
50.92000 -2.263
50.94000 1.912
50.96000 1.723
50.98000 1.179
51.00000 -0.667
51.02000 -1.003
51.04000 0.485
51.06000 3.804
51.08000 3.787
51.10000 5.774
51.12000 0.820
51.14000 -0.763
51.16000 -0.113
51.18000 -0.798
51.20000 0.900
51.22000 2.702
51.24000 2.957
51.26000 4.973
51.28000 4.000
51.30000 3.064
51.32000 2.485
51.34000 0.136
51.36000 1.981
51.38000 4.055
51.40000 6.210
51.42000 4.770
51.44000 4.604
51.46000 8.111
51.48000 4.577
51.50000 4.341
51.52000 4.669
51.54000 2.017
51.56000 2.270
51.58000 1.875
51.60000 -2.422
51.62000 -0.228
51.64000 2.026
51.66000 2.516
51.68000 6.174
51.70000 5.298
51.72000 3.163
51.74000 2.494
51.76000 2.945
51.78000 4.867
51.80000 1.701
51.82000 -0.885
51.84000 -1.678
51.86000 0.500
51.88000 2.157
51.90000 2.650
51.92000 2.669
51.94000 3.314
51.96000 -1.276
51.98000 -1.316
52.00000 0.159
52.02000 3.453
52.04000 -0.170
52.06000 0.124
52.08000 -0.203
52.10000 -1.241
52.12000 1.791
52.14000 0.184
52.16000 2.051
52.18000 1.058
52.20000 1.111
52.22000 3.155
52.24000 -0.527
52.26000 -0.497
52.28000 1.389
52.30000 1.054
52.32000 0.567
52.34000 0.319
52.36000 1.495
52.38000 2.256
52.40000 0.929
52.42000 0.073
52.44000 -1.805
52.46000 -0.985
52.48000 -0.931
52.50000 0.423
52.52000 0.793
52.54000 -1.377
52.56000 2.573
52.58000 2.411
52.60000 0.707
52.62000 -0.701
52.64000 -1.082
52.66000 -0.067
52.68000 -0.269
52.70000 -0.606
52.72000 5.225
52.74000 1.214
52.76000 -1.019
52.78000 -0.422
52.80000 -1.469
52.82000 3.382
52.84000 3.910
52.86000 0.100
52.88000 -1.409
52.90000 1.034
52.92000 0.130
52.94000 -0.173
52.96000 4.083
52.98000 2.903
53.00000 2.365
53.02000 0.787
53.04000 -0.270
53.06000 -0.321
53.08000 -0.949
53.10000 -2.413
53.12000 -0.906
53.14000 -0.302
53.16000 3.195
53.18000 4.821
53.20000 3.960
53.22000 0.337
53.24000 -1.326
53.26000 -1.916
53.28000 0.382
53.30000 3.332
53.32000 3.968
53.34000 3.698
53.36000 2.298
53.38000 2.936
53.40000 0.540
53.42000 1.550
53.44000 1.799
53.46000 1.104
53.48000 1.664
53.50000 3.123
53.52000 1.245
53.54000 1.798
53.56000 -0.626
53.58000 -2.391
53.60000 -0.013
53.62000 -0.062
53.64000 1.992
53.66000 3.444
53.68000 2.835
53.70000 3.204
53.72000 3.401
53.74000 0.847
53.76000 0.377
53.78000 -0.525
53.80000 3.722
53.82000 3.771
53.84000 2.022
53.86000 1.679
53.88000 2.269
53.90000 2.703
53.92000 1.658
53.94000 0.672
53.96000 3.267
53.98000 2.282
54.00000 1.680
54.02000 -0.371
54.04000 -2.249
54.06000 2.739
54.08000 1.918
54.10000 2.639
54.12000 3.759
54.14000 5.563
54.16000 4.585
54.18000 4.482
54.20000 4.497
54.22000 1.736
54.24000 -1.650
54.26000 -1.183
54.28000 -0.108
54.30000 -0.741
54.32000 0.211
54.34000 2.088
54.36000 0.109
54.38000 -2.357
54.40000 -1.488
54.42000 2.539
54.44000 4.028
54.46000 -1.507
54.48000 2.912
54.50000 2.651
54.52000 1.717
54.54000 1.534
54.56000 -1.001
54.58000 5.956
54.60000 4.633
54.62000 -2.150
54.64000 -1.227
54.66000 1.076
54.68000 0.682
54.70000 5.426
54.72000 3.448
54.74000 1.569
54.76000 -0.122
54.78000 -0.027
54.80000 -0.388
54.82000 3.845
54.84000 3.749
54.86000 5.936
54.88000 2.479
54.90000 0.114
54.92000 1.364
54.94000 6.477
54.96000 -0.732
54.98000 -2.329
55.00000 -0.741
55.02000 1.954
55.04000 5.787
55.06000 4.854
55.08000 2.206
55.10000 1.312
55.12000 1.207
55.14000 4.139
55.16000 5.627
55.18000 6.151
55.20000 3.333
55.22000 2.932
55.24000 0.643
55.26000 2.738
55.28000 2.771
55.30000 0.550
55.32000 0.892
55.34000 -2.230
55.36000 1.086
55.38000 -2.327
55.40000 -1.463
55.42000 2.495
55.44000 2.767
55.46000 -0.709
55.48000 3.082
55.50000 2.909
55.52000 1.264
55.54000 1.732
55.56000 4.026
55.58000 2.830
55.60000 0.291
55.62000 -1.720
55.64000 0.890
55.66000 1.256
55.68000 1.443
55.70000 3.053
55.72000 1.467
55.74000 0.821
55.76000 1.697
55.78000 2.501
55.80000 3.643
55.82000 4.080
55.84000 1.560
55.86000 0.004
55.88000 0.215
55.90000 0.123
55.92000 3.324
55.94000 2.946
55.96000 1.456
55.98000 1.479
56.00000 -0.521
56.02000 0.945
56.04000 2.532
56.06000 6.817
56.08000 3.985
56.10000 1.196
56.12000 2.060
56.14000 6.499
56.16000 3.231
56.18000 0.279
56.20000 5.460
56.22000 3.099
56.24000 -0.402
56.26000 -2.281
56.28000 0.501
56.30000 2.415
56.32000 3.781
56.34000 3.066
56.36000 2.526
56.38000 2.511
56.40000 2.065
56.42000 1.413
56.44000 1.205
56.46000 3.451
56.48000 6.064
56.50000 6.762
56.52000 4.968
56.54000 4.201
56.56000 5.634
56.58000 6.594
56.60000 5.130
56.62000 6.629
56.64000 4.039
56.66000 0.328
56.68000 3.377
56.70000 2.005
56.72000 -0.481
56.74000 1.447
56.76000 1.677
56.78000 2.220
56.80000 1.021
56.82000 -0.328
56.84000 2.523
56.86000 1.840
56.88000 -0.484
56.90000 2.119
56.92000 4.009
56.94000 2.007
56.96000 -1.239
56.98000 -0.196
57.00000 0.425
57.02000 0.035
57.04000 -1.706
57.06000 -0.528
57.08000 -2.296
57.10000 1.127
57.12000 -0.134
57.14000 0.425
57.16000 -0.266
57.18000 3.211
57.20000 5.679
57.22000 1.887
57.24000 -0.266
57.26000 0.253
57.28000 -1.408
57.30000 -0.753
57.32000 -0.826
57.34000 0.771
57.36000 0.486
57.38000 -1.752
57.40000 1.493
57.42000 2.090
57.44000 1.866
57.46000 1.990
57.48000 -0.151
57.50000 -1.335
57.52000 2.800
57.54000 1.927
57.56000 3.191
57.58000 2.695
57.60000 1.191
57.62000 -0.325
57.64000 -1.234
57.66000 2.845
57.68000 4.720
57.70000 3.770
57.72000 2.977
57.74000 4.046
57.76000 2.290
57.78000 4.989
57.80000 4.657
57.82000 1.692
57.84000 4.883
57.86000 5.086
57.88000 6.012
57.90000 4.743
57.92000 0.580
57.94000 -1.267
57.96000 1.423
57.98000 5.399
58.00000 5.471
58.02000 4.357
58.04000 1.679
58.06000 0.275
58.08000 -2.249
58.10000 -0.655
58.12000 -0.296
58.14000 1.765
58.16000 3.612
58.18000 3.340
58.20000 0.803
58.22000 3.225
58.24000 2.054
58.26000 3.646
58.28000 4.169
58.30000 -0.007
58.32000 -1.489
58.34000 3.168
58.36000 5.594
58.38000 2.251
58.40000 0.743
58.42000 0.804
58.44000 -2.245
58.46000 -1.036
58.48000 0.686
58.50000 1.971
58.52000 2.996
58.54000 3.462
58.56000 1.446
58.58000 1.215
58.60000 4.250
58.62000 5.000
58.64000 3.228
58.66000 0.250
58.68000 1.596
58.70000 1.646
58.72000 3.534
58.74000 3.226
58.76000 3.645
58.78000 2.685
58.80000 -1.279
58.82000 -0.496
58.84000 0.384
58.86000 2.346
58.88000 1.051
58.90000 0.273
58.92000 -0.181
58.94000 -1.457
58.96000 -1.785
58.98000 1.887
59.00000 5.287
59.02000 6.825
59.04000 6.134
59.06000 2.780
59.08000 3.737
59.10000 6.691
59.12000 2.518
59.14000 3.924
59.16000 1.585
59.18000 2.303
59.20000 7.998
59.22000 8.216
59.24000 6.060
59.26000 5.210
59.28000 4.161
59.30000 2.041
59.32000 0.885
59.34000 -0.746
59.36000 1.457
59.38000 2.554
59.40000 1.350
59.42000 3.694
59.44000 3.849
59.46000 1.439
59.48000 3.062
59.50000 -1.352
59.52000 -2.162
59.54000 2.970
59.56000 3.293
59.58000 1.973
59.60000 3.208
59.62000 7.883
59.64000 7.457
59.66000 2.104
59.68000 4.269
59.70000 4.610
59.72000 5.736
59.74000 4.298
59.76000 4.631
59.78000 2.658
59.80000 0.137
59.82000 2.375
59.84000 1.790
59.86000 0.389
59.88000 0.686
59.90000 3.233
59.92000 1.260
59.94000 4.457
59.96000 6.540
59.98000 6.151
60.00000 0.677
60.02000 4.365
60.04000 2.962
60.06000 -0.174
60.08000 -0.711
60.10000 1.983
60.12000 0.871
60.14000 1.895
60.16000 2.694
60.18000 6.793
60.20000 4.335
60.22000 2.259
60.24000 0.480
60.26000 1.492
60.28000 3.859
60.30000 0.561
60.32000 -2.188
60.34000 1.249
60.36000 1.206
60.38000 1.324
60.40000 5.419
60.42000 3.960
60.44000 5.010
60.46000 3.804
60.48000 0.357
60.50000 0.735
60.52000 -1.239
60.54000 3.226
60.56000 1.464
60.58000 0.752
60.60000 -0.190
60.62000 2.348
60.64000 4.582
60.66000 1.461
60.68000 2.172
60.70000 2.765
60.72000 4.818
60.74000 5.366
60.76000 6.054
60.78000 4.216
60.80000 0.660
60.82000 -2.149
60.84000 0.703
60.86000 2.948
60.88000 1.605
60.90000 0.608
60.92000 2.147
60.94000 3.139
60.96000 1.694
60.98000 0.746
61.00000 -1.257
61.02000 -2.162
61.04000 0.417
61.06000 2.728
61.08000 3.172
61.10000 3.289
61.12000 1.632
61.14000 4.006
61.16000 1.037
61.18000 1.524
61.20000 -0.807
61.22000 0.415
61.24000 0.231
61.26000 3.653
61.28000 1.427
61.30000 -0.958
61.32000 -0.026
61.34000 1.887
61.36000 2.317
61.38000 0.464
61.40000 0.027
61.42000 1.477
61.44000 5.648
61.46000 4.470
61.48000 3.501
61.50000 3.432
61.52000 2.336
61.54000 1.174
61.56000 0.784
61.58000 0.482
61.60000 3.602
61.62000 3.730
61.64000 -2.131
61.66000 0.930
61.68000 5.835
61.70000 3.180
61.72000 3.618
61.74000 2.347
61.76000 1.296
61.78000 1.005
61.80000 2.881
61.82000 5.869
61.84000 5.304
61.86000 2.999
61.88000 2.792
61.90000 1.688
61.92000 3.420
61.94000 3.409
61.96000 4.064
61.98000 2.894
62.00000 2.436
62.02000 2.561
62.04000 2.198
62.06000 1.888
62.08000 2.498
62.10000 3.107
62.12000 4.889
62.14000 5.600
62.16000 4.908
62.18000 5.932
62.20000 4.391
62.22000 6.085
62.24000 3.897
62.26000 -1.740
62.28000 -2.100
62.30000 3.256
62.32000 4.418
62.34000 7.742
62.36000 5.487
62.38000 3.749
62.40000 3.465
62.42000 3.680
62.44000 2.555
62.46000 3.658
62.48000 2.928
62.50000 3.221
62.52000 4.197
62.54000 4.495
62.56000 4.583
62.58000 3.303
62.60000 2.455
62.62000 3.838
62.64000 4.402
62.66000 3.151
62.68000 -0.824
62.70000 0.236
62.72000 1.831
62.74000 1.495
62.76000 -1.276
62.78000 -1.977
62.80000 -0.546
62.82000 4.169
62.84000 3.094
62.86000 1.596
62.88000 3.381
62.90000 2.942
62.92000 4.737
62.94000 5.557
62.96000 4.778
62.98000 3.275
63.00000 0.407
63.02000 -0.882
63.04000 -0.639
63.06000 1.070
63.08000 -0.208
63.10000 0.642
63.12000 3.366
63.14000 -0.214
63.16000 1.101
63.18000 -0.248
63.20000 -1.161
63.22000 -2.132
63.24000 4.136
63.26000 4.660
63.28000 2.215
63.30000 1.236
63.32000 1.456
63.34000 2.377
63.36000 3.214
63.38000 0.180
63.40000 -1.094
63.42000 0.756
63.44000 0.324
63.46000 1.772
63.48000 4.736
63.50000 2.243
63.52000 2.167
63.54000 4.969
63.56000 4.163
63.58000 4.674
63.60000 4.307
63.62000 3.359
63.64000 3.594
63.66000 2.422
63.68000 3.351
63.70000 2.309
63.72000 2.423
63.74000 1.127
63.76000 2.879
63.78000 2.146
63.80000 3.025
63.82000 5.062
63.84000 2.607
63.86000 1.987
63.88000 2.329
63.90000 3.798
63.92000 4.155
63.94000 1.411
63.96000 1.409
63.98000 4.087
64.00000 7.290
64.02000 6.928
64.04000 4.661
64.06000 5.419
64.08000 2.960
64.10000 3.035
64.12000 3.820
64.14000 2.389
64.16000 2.410
64.18000 5.605
64.20000 2.290
64.22000 0.379
64.24000 -2.074
64.26000 -1.670
64.28000 3.480
64.30000 5.523
64.32000 5.743
64.34000 4.625
64.36000 4.224
64.38000 5.519
64.40000 4.238
64.42000 3.841
64.44000 3.211
64.46000 3.191
64.48000 5.578
64.50000 3.606
64.52000 3.723
64.54000 5.409
64.56000 2.407
64.58000 3.288
64.60000 4.156
64.62000 1.314
64.64000 2.926
64.66000 2.422
64.68000 5.225
64.70000 1.439
64.72000 1.785
64.74000 2.224
64.76000 1.958
64.78000 0.317
64.80000 -0.198
64.82000 1.387
64.84000 3.608
64.86000 2.726
64.88000 1.899
64.90000 4.187
64.92000 -0.677
64.94000 -0.658
64.96000 2.713
64.98000 4.855
65.00000 6.017
65.02000 5.335
65.04000 4.013
65.06000 1.250
65.08000 -0.072
65.10000 1.858
65.12000 1.227
65.14000 -0.916
65.16000 2.414
65.18000 2.016
65.20000 4.683
65.22000 2.627
65.24000 1.280
65.26000 -0.506
65.28000 -0.673
65.30000 -0.683
65.32000 -1.717
65.34000 -2.111
65.36000 0.076
65.38000 0.140
65.40000 -1.156
65.42000 0.485
65.44000 1.620
65.46000 4.013
65.48000 6.628
65.50000 6.880
65.52000 4.494
65.54000 0.796
65.56000 -0.450
65.58000 -0.539
65.60000 -0.043
65.62000 1.109
65.64000 0.735
65.66000 0.983
65.68000 -0.309
65.70000 -0.630
65.72000 1.622
65.74000 5.369
65.76000 5.210
65.78000 2.227
65.80000 3.009
65.82000 2.191
65.84000 2.760
65.86000 -0.994
65.88000 -2.144
65.90000 -0.226
65.92000 2.904
65.94000 3.635
65.96000 4.227
65.98000 2.903
66.00000 -0.518
66.02000 0.306
66.04000 3.982
66.06000 3.102
66.08000 1.427
66.10000 3.491
66.12000 3.118
66.14000 2.289
66.16000 1.763
66.18000 -0.906
66.20000 -1.696
66.22000 -0.132
66.24000 0.985
66.26000 1.126
66.28000 -0.700
66.30000 -0.778
66.32000 -2.148
66.34000 0.145
66.36000 2.258
66.38000 -0.555
66.40000 -0.501
66.42000 0.840
66.44000 -2.146
66.46000 -0.997
66.48000 1.942
66.50000 3.504
66.52000 1.756
66.54000 -0.163
66.56000 0.106
66.58000 0.114
66.60000 -0.276
66.62000 3.120
66.64000 3.758
66.66000 2.633
66.68000 0.750
66.70000 -2.153
66.72000 0.452
66.74000 1.044
66.76000 3.435
66.78000 2.119
66.80000 -0.781
66.82000 -0.039
66.84000 1.431
66.86000 -0.253
66.88000 1.762
66.90000 1.504
66.92000 0.812
66.94000 -1.090
66.96000 -1.949
66.98000 -2.164
67.00000 -0.702
67.02000 -0.910
67.04000 1.371
67.06000 -1.075
67.08000 -1.474
67.10000 -2.174
67.12000 -0.441
67.14000 0.063
67.16000 1.313
67.18000 1.918
67.20000 0.550
67.22000 2.069
67.24000 0.366
67.26000 -1.065
67.28000 -1.010
67.30000 -0.549
67.32000 1.402
67.34000 0.048
67.36000 0.527
67.38000 0.241
67.40000 0.473
67.42000 0.325
67.44000 0.043
67.46000 -0.801
67.48000 0.407
67.50000 1.777
67.52000 1.536
67.54000 2.377
67.56000 -0.800
67.58000 -1.764
67.60000 0.841
67.62000 1.948
67.64000 1.916
67.66000 -0.786
67.68000 -2.203
67.70000 -1.130
67.72000 -2.045
67.74000 -0.248
67.76000 1.750
67.78000 2.945
67.80000 -1.781
67.82000 -0.902
67.84000 0.458
67.86000 -0.481
67.88000 -0.391
67.90000 0.842
67.92000 -0.305
67.94000 -1.148
67.96000 1.688
67.98000 0.010
68.00000 -0.211
68.02000 -0.108
68.04000 2.491
68.06000 3.023
68.08000 2.753
68.10000 1.882
68.12000 2.378
68.14000 3.100
68.16000 2.381
68.18000 4.944
68.20000 4.960
68.22000 2.912
68.24000 2.288
68.26000 1.318
68.28000 2.073
68.30000 4.789
68.32000 8.194
68.34000 6.361
68.36000 6.225
68.38000 7.487
68.40000 8.111
68.42000 9.509
68.44000 6.252
68.46000 4.852
68.48000 8.190
68.50000 12.462
68.52000 11.794
68.54000 8.781
68.56000 10.528
68.58000 14.259
68.60000 15.178
68.62000 13.752
68.64000 18.035
68.66000 19.078
68.68000 19.148
68.70000 17.343
68.72000 17.634
68.74000 19.255
68.76000 22.091
68.78000 20.202
68.80000 20.212
68.82000 21.350
68.84000 22.080
68.86000 26.671
68.88000 27.787
68.90000 25.952
68.92000 24.918
68.94000 28.601
68.96000 27.614
68.98000 24.721
69.00000 24.924
69.02000 23.044
69.04000 22.471
69.06000 23.348
69.08000 22.759
69.10000 21.778
69.12000 21.179
69.14000 18.104
69.16000 19.483
69.18000 21.383
69.20000 22.059
69.22000 21.629
69.24000 18.421
69.26000 19.844
69.28000 21.548
69.30000 16.241
69.32000 14.543
69.34000 13.901
69.36000 15.383
69.38000 15.666
69.40000 15.390
69.42000 15.518
69.44000 14.962
69.46000 14.673
69.48000 12.499
69.50000 9.400
69.52000 9.640
69.54000 9.431
69.56000 6.834
69.58000 9.293
69.60000 8.891
69.62000 5.440
69.64000 3.745
69.66000 7.256
69.68000 7.284
69.70000 10.342
69.72000 9.828
69.74000 6.633
69.76000 4.863
69.78000 6.651
69.80000 4.724
69.82000 2.814
69.84000 3.531
69.86000 1.170
69.88000 1.824
69.90000 3.499
69.92000 3.269
69.94000 1.684
69.96000 2.030
69.98000 2.630
70.00000 5.295
70.02000 3.324
70.04000 -0.996
70.06000 1.342
70.08000 2.102
70.10000 0.674
70.12000 3.777
70.14000 4.594
70.16000 3.350
70.18000 5.230
70.20000 2.682
70.22000 2.945
70.24000 2.782
70.26000 1.262
70.28000 1.163
70.30000 1.674
70.32000 3.647
70.34000 3.489
70.36000 -0.722
70.38000 -0.508
70.40000 -0.647
70.42000 -0.877
70.44000 -0.153
70.46000 0.660
70.48000 1.527
70.50000 -0.377
70.52000 2.012
70.54000 1.020
70.56000 1.272
70.58000 2.708
70.60000 -0.115
70.62000 -0.650
70.64000 -0.083
70.66000 0.548
70.68000 1.487
70.70000 1.993
70.72000 1.102
70.74000 0.827
70.76000 0.663
70.78000 -2.052
70.80000 1.624
70.82000 4.588
70.84000 2.101
70.86000 3.893
70.88000 3.739
70.90000 5.064
70.92000 2.829
70.94000 2.509
70.96000 -0.329
70.98000 -2.050
71.00000 0.313
71.02000 1.660
71.04000 2.570
71.06000 1.862
71.08000 4.500
71.10000 3.974
71.12000 -0.648
71.14000 2.206
71.16000 4.929
71.18000 1.880
71.20000 -0.059
71.22000 3.407
71.24000 6.311
71.26000 5.091
71.28000 6.364
71.30000 7.129
71.32000 5.013
71.34000 1.686
71.36000 -0.207
71.38000 4.183
71.40000 4.707
71.42000 1.384
71.44000 3.126
71.46000 5.095
71.48000 1.553
71.50000 1.796
71.52000 3.054
71.54000 4.076
71.56000 4.388
71.58000 1.331
71.60000 0.304
71.62000 1.259
71.64000 -0.064
71.66000 0.973
71.68000 0.428
71.70000 2.609
71.72000 3.846
71.74000 5.794
71.76000 0.807
71.78000 0.250
71.80000 1.075
71.82000 -2.035
71.84000 -1.468
71.86000 1.106
71.88000 0.574
71.90000 1.731
71.92000 1.707
71.94000 1.182
71.96000 1.505
71.98000 -0.579
72.00000 1.059
72.02000 -0.638
72.04000 -1.435
72.06000 -0.428
72.08000 -0.045
72.10000 -1.340
72.12000 -1.856
72.14000 0.964
72.16000 2.277
72.18000 0.758
72.20000 -1.922
72.22000 0.065
72.24000 0.637
72.26000 0.101
72.28000 -0.932
72.30000 -1.176
72.32000 -0.237
72.34000 -0.376
72.36000 0.731
72.38000 0.761
72.40000 0.846
72.42000 2.380
72.44000 3.112
72.46000 0.550
72.48000 -0.177
72.50000 5.254
72.52000 2.623
72.54000 -0.978
72.56000 1.220
72.58000 3.248
72.60000 2.017
72.62000 0.021
72.64000 0.356
72.66000 1.263
72.68000 -0.104
72.70000 0.663
72.72000 3.307
72.74000 6.374
72.76000 2.301
72.78000 -0.322
72.80000 2.426
72.82000 -0.474
72.84000 -1.974
72.86000 1.085
72.88000 2.026
72.90000 2.747
72.92000 -0.544
72.94000 0.586
72.96000 0.902
72.98000 1.302
73.00000 -0.558
73.02000 2.325
73.04000 2.964
73.06000 4.457
73.08000 0.510
73.10000 0.023
73.12000 2.224
73.14000 1.928
73.16000 -0.239
73.18000 -1.976
73.20000 -1.913
73.22000 -0.747
73.24000 1.508
73.26000 2.736
73.28000 2.712
73.30000 4.693
73.32000 1.412
73.34000 -1.974
73.36000 1.555
73.38000 0.647
73.40000 -0.927
73.42000 -0.157
73.44000 -0.010
73.46000 -0.262
73.48000 0.701
73.50000 -0.803
73.52000 -0.079
73.54000 0.817
73.56000 0.756
73.58000 -0.515
73.60000 3.342
73.62000 1.101
73.64000 5.287
73.66000 1.904
73.68000 -1.058
73.70000 2.539
73.72000 1.300
73.74000 1.049
73.76000 0.202
73.78000 -1.977
73.80000 -0.311
73.82000 3.882
73.84000 4.164
73.86000 1.267
73.88000 1.391
73.90000 3.978
73.92000 2.027
73.94000 -0.398
73.96000 1.424
73.98000 1.828
74.00000 -1.390
74.02000 -1.778
74.04000 -0.491
74.06000 2.879
74.08000 0.961
74.10000 0.461
74.12000 -1.818
74.14000 -0.466
74.16000 1.703
74.18000 3.552
74.20000 3.000
74.22000 1.379
74.24000 0.768
74.26000 2.789
74.28000 1.879
74.30000 1.790
74.32000 4.305
74.34000 2.081
74.36000 0.225
74.38000 0.963
74.40000 0.978
74.42000 1.524
74.44000 -0.762
74.46000 0.664
74.48000 2.117
74.50000 0.255
74.52000 -0.571
74.54000 2.151
74.56000 0.276
74.58000 -0.053
74.60000 1.921
74.62000 3.589
74.64000 1.147
74.66000 1.977
74.68000 2.670
74.70000 -0.860
74.72000 3.115
74.74000 4.198
74.76000 4.947
74.78000 2.790
74.80000 2.576
74.82000 1.537
74.84000 -1.930
74.86000 2.999
74.88000 5.746
74.90000 2.784
74.92000 2.432
74.94000 4.625
74.96000 4.324
74.98000 5.094
75.00000 4.247
75.02000 1.805
75.04000 0.065
75.06000 1.260
75.08000 1.923
75.10000 1.410
75.12000 2.203
75.14000 1.646
75.16000 -1.934
75.18000 0.041
75.20000 3.231
75.22000 2.056
75.24000 3.083
75.26000 4.007
75.28000 4.104
75.30000 4.446
75.32000 7.358
75.34000 7.707
75.36000 5.876
75.38000 3.973
75.40000 4.510
75.42000 4.625
75.44000 1.555
75.46000 0.217
75.48000 2.027
75.50000 1.719
75.52000 5.134
75.54000 3.255
75.56000 2.618
75.58000 2.268
75.60000 2.699
75.62000 5.779
75.64000 5.517
75.66000 2.659
75.68000 -0.914
75.70000 0.952
75.72000 1.391
75.74000 -1.949
75.76000 1.387
75.78000 3.254
75.80000 3.821
75.82000 2.149
75.84000 3.522
75.86000 4.996
75.88000 2.878
75.90000 4.678
75.92000 2.579
75.94000 1.195
75.96000 -0.560
75.98000 1.715
76.00000 3.888
76.02000 1.636
76.04000 1.952
76.06000 2.215
76.08000 -1.424
76.10000 -0.780
76.12000 4.193
76.14000 5.656
76.16000 1.292
76.18000 2.294
76.20000 0.050
76.22000 0.682
76.24000 1.607
76.26000 -0.239
76.28000 3.277
76.30000 2.517
76.32000 -0.048
76.34000 -1.989
76.36000 -0.259
76.38000 3.356
76.40000 3.943
76.42000 4.218
76.44000 5.172
76.46000 1.136
76.48000 -0.009
76.50000 2.064
76.52000 1.218
76.54000 1.972
76.56000 -0.465
76.58000 1.896
76.60000 0.670
76.62000 -1.444
76.64000 -0.573
76.66000 3.142
76.68000 1.334
76.70000 -0.404
76.72000 1.779
76.74000 -0.387
76.76000 3.397
76.78000 1.833
76.80000 3.117
76.82000 3.002
76.84000 -0.747
76.86000 0.473
76.88000 0.191
76.90000 4.303
76.92000 -1.130
76.94000 1.877
76.96000 1.001
76.98000 1.317
77.00000 2.821
77.02000 0.302
77.04000 -0.546
77.06000 6.252
77.08000 3.800
77.10000 3.056
77.12000 4.620
77.14000 0.457
77.16000 2.340
77.18000 0.242
77.20000 -1.878
77.22000 -0.168
77.24000 -1.579
77.26000 1.302
77.28000 4.332
77.30000 1.402
77.32000 0.736
77.34000 -1.989
77.36000 -0.617
77.38000 0.848
77.40000 3.544
77.42000 4.538
77.44000 1.437
77.46000 2.047
77.48000 2.785
77.50000 3.248
77.52000 -0.177
77.54000 0.010
77.56000 0.880
77.58000 2.942
77.60000 0.277
77.62000 0.252
77.64000 -0.202
77.66000 1.459
77.68000 3.831
77.70000 2.447
77.72000 1.410
77.74000 2.684
77.76000 0.601
77.78000 0.454
77.80000 2.123
77.82000 2.232
77.84000 1.232
77.86000 2.422
77.88000 1.675
77.90000 -0.930
77.92000 1.359
77.94000 -0.215
77.96000 -1.167
77.98000 -1.053
78.00000 3.619
78.02000 2.627
78.04000 2.286
78.06000 2.326
78.08000 1.500
78.10000 -1.235
78.12000 -0.567
78.14000 1.045
78.16000 4.211
78.18000 3.633
78.20000 0.765
78.22000 0.713
78.24000 -1.995
78.26000 -0.452
78.28000 2.502
78.30000 2.725
78.32000 0.862
78.34000 1.817
78.36000 1.188
78.38000 3.928
78.40000 0.552
78.42000 2.358
78.44000 0.858
78.46000 2.018
78.48000 2.480
78.50000 3.531
78.52000 2.324
78.54000 4.460
78.56000 0.866
78.58000 -0.298
78.60000 -0.388
78.62000 0.385
78.64000 2.602
78.66000 -1.007
78.68000 0.580
78.70000 1.572
78.72000 1.493
78.74000 -0.713
78.76000 0.516
78.78000 4.958
78.80000 2.054
78.82000 1.573
78.84000 2.326
78.86000 0.104
78.88000 -0.016
78.90000 -0.503
78.92000 -1.333
78.94000 -0.986
78.96000 0.894
78.98000 1.587
79.00000 2.276
79.02000 0.135
79.04000 -0.700
79.06000 1.916
79.08000 4.560
79.10000 3.172
79.12000 -1.478
79.14000 -0.767
79.16000 -0.757
79.18000 1.371
79.20000 1.684
79.22000 0.245
79.24000 3.673
79.26000 -0.422
79.28000 0.213
79.30000 2.128
79.32000 1.152
79.34000 1.245
79.36000 1.705
79.38000 1.011
79.40000 -2.041
79.42000 0.466
79.44000 -0.213
79.46000 2.047
79.48000 2.403
79.50000 3.876
79.52000 3.185
79.54000 3.225
79.56000 1.708
79.58000 -0.671
79.60000 -0.555
79.62000 -2.040
79.64000 0.514
79.66000 1.142
79.68000 2.735
79.70000 2.060
79.72000 1.346
79.74000 3.127
79.76000 3.160
79.78000 1.469
79.80000 -1.829
79.82000 -1.778
79.84000 -0.548
79.86000 1.599
79.88000 3.004
79.90000 0.550
79.92000 -1.596
79.94000 -2.042
79.96000 -1.098
79.98000 -1.837
80.00000 -1.108
80.02000 -0.687
80.04000 1.122
80.06000 4.617
80.08000 3.150
80.10000 0.349
80.12000 -0.862
80.14000 0.272
80.16000 -1.891
80.18000 -1.182
80.20000 -0.952
80.22000 4.092
80.24000 2.262
80.26000 1.231
80.28000 0.122
80.30000 -0.416
80.32000 -0.868
80.34000 0.502
80.36000 -0.291
80.38000 -1.436
80.40000 0.939
80.42000 2.349
80.44000 1.317
80.46000 0.522
80.48000 0.658
80.50000 3.276
80.52000 3.902
80.54000 4.496
80.56000 4.792
80.58000 1.526
80.60000 1.024
80.62000 2.002
80.64000 0.174
80.66000 0.278
80.68000 -0.206
80.70000 1.276
80.72000 2.678
80.74000 0.738
80.76000 3.253
80.78000 3.387
80.80000 0.124
80.82000 -0.359
80.84000 2.442
80.86000 2.795
80.88000 -0.106
80.90000 1.418
80.92000 1.849
80.94000 1.156
80.96000 0.201
80.98000 -2.077
81.00000 -2.077
81.02000 0.316
81.04000 1.007
81.06000 5.183
81.08000 3.727
81.10000 1.823
81.12000 2.082
81.14000 5.233
81.16000 4.646
81.18000 2.412
81.20000 3.567
81.22000 4.215
81.24000 3.117
81.26000 -0.394
81.28000 -2.100
81.30000 0.918
81.32000 0.161
81.34000 1.043
81.36000 5.202
81.38000 4.002
81.40000 0.948
81.42000 0.326
81.44000 1.051
81.46000 -0.645
81.48000 1.333
81.50000 3.930
81.52000 2.300
81.54000 1.741
81.56000 3.332
81.58000 1.498
81.60000 0.063
81.62000 -2.138
81.64000 3.010
81.66000 3.123
81.68000 4.650
81.70000 1.534
81.72000 1.357
81.74000 1.484
81.76000 1.191
81.78000 4.035
81.80000 8.136
81.82000 4.866
81.84000 0.261
81.86000 -0.445
81.88000 2.398
81.90000 1.560
81.92000 0.659
81.94000 4.116
81.96000 3.290
81.98000 4.225
82.00000 0.714
82.02000 4.001
82.04000 2.430
82.06000 4.529
82.08000 7.597
82.10000 4.228
82.12000 7.779
82.14000 7.091
82.16000 7.724
82.18000 6.447
82.20000 10.078
82.22000 7.825
82.24000 7.274
82.26000 5.688
82.28000 5.818
82.30000 11.379
82.32000 12.547
82.34000 14.097
82.36000 11.338
82.38000 11.863
82.40000 15.186
82.42000 13.607
82.44000 15.306
82.46000 15.907
82.48000 15.708
82.50000 15.181
82.52000 18.509
82.54000 20.920
82.56000 22.923
82.58000 18.696
82.60000 21.467
82.62000 22.729
82.64000 22.458
82.66000 24.482
82.68000 28.161
82.70000 31.473
82.72000 26.424
82.74000 26.792
82.76000 26.035
82.78000 30.876
82.80000 32.355
82.82000 37.423
82.84000 41.311
82.86000 46.716
82.88000 42.192
82.90000 43.808
82.92000 42.622
82.94000 43.546
82.96000 44.852
82.98000 47.333
83.00000 48.504
83.02000 50.854
83.04000 51.001
83.06000 52.367
83.08000 55.319
83.10000 50.627
83.12000 51.098
83.14000 57.443
83.16000 53.063
83.18000 56.626
83.20000 55.530
83.22000 57.009
83.24000 53.298
83.26000 52.110
83.28000 56.401
83.30000 53.538
83.32000 53.515
83.34000 58.283
83.36000 55.474
83.38000 52.701
83.40000 54.008
83.42000 56.428
83.44000 54.548
83.46000 49.353
83.48000 48.455
83.50000 47.889
83.52000 48.446
83.54000 47.674
83.56000 44.806
83.58000 45.237
83.60000 42.137
83.62000 37.895
83.64000 35.607
83.66000 35.945
83.68000 34.199
83.70000 36.929
83.72000 37.894
83.74000 32.462
83.76000 29.368
83.78000 28.729
83.80000 25.855
83.82000 21.340
83.84000 24.717
83.86000 25.936
83.88000 23.169
83.90000 21.562
83.92000 21.700
83.94000 21.053
83.96000 18.098
83.98000 13.079
84.00000 16.383
84.02000 19.157
84.04000 16.551
84.06000 16.383
84.08000 15.998
84.10000 14.865
84.12000 13.152
84.14000 11.172
84.16000 11.206
84.18000 12.384
84.20000 14.356
84.22000 11.506
84.24000 6.642
84.26000 6.766
84.28000 9.356
84.30000 6.935
84.32000 5.088
84.34000 4.404
84.36000 6.607
84.38000 10.451
84.40000 10.787
84.42000 6.985
84.44000 4.813
84.46000 6.315
84.48000 3.037
84.50000 -0.367
84.52000 1.518
84.54000 -0.206
84.56000 4.208
84.58000 4.476
84.60000 1.566
84.62000 3.122
84.64000 0.929
84.66000 -1.012
84.68000 0.161
84.70000 -1.659
84.72000 -0.814
84.74000 4.989
84.76000 6.155
84.78000 4.572
84.80000 1.467
84.82000 2.821
84.84000 5.504
84.86000 3.101
84.88000 0.801
84.90000 1.291
84.92000 4.591
84.94000 2.507
84.96000 2.130
84.98000 1.593
85.00000 -1.045
85.02000 -0.142
85.04000 -0.477
85.06000 2.583
85.08000 4.044
85.10000 -2.109
85.12000 1.188
85.14000 5.415
85.16000 3.514
85.18000 7.241
85.20000 3.553
85.22000 3.163
85.24000 1.173
85.26000 1.080
85.28000 1.165
85.30000 0.913
85.32000 4.127
85.34000 2.197
85.36000 0.164
85.38000 1.986
85.40000 3.315
85.42000 2.072
85.44000 2.646
85.46000 -2.080
85.48000 -1.261
85.50000 -0.716
85.52000 0.157
85.54000 2.055
85.56000 -0.594
85.58000 1.397
85.60000 1.811
85.62000 -0.721
85.64000 -0.304
85.66000 -0.219
85.68000 -1.146
85.70000 2.684
85.72000 -0.099
85.74000 0.987
85.76000 2.370
85.78000 4.447
85.80000 2.642
85.82000 2.110
85.84000 2.041
85.86000 -1.611
85.88000 -0.765
85.90000 -1.052
85.92000 1.719
85.94000 2.168
85.96000 0.247
85.98000 -0.389
86.00000 -1.186
86.02000 0.467
86.04000 3.370
86.06000 0.827
86.08000 -1.600
86.10000 -1.239
86.12000 -2.104
86.14000 -0.620
86.16000 0.718
86.18000 -1.130
86.20000 -0.105
86.22000 2.772
86.24000 2.021
86.26000 -0.913
86.28000 -1.644
86.30000 -1.665
86.32000 -1.375
86.34000 -0.184
86.36000 1.639
86.38000 -2.132
86.40000 -2.075
86.42000 -0.012
86.44000 -0.611
86.46000 0.782
86.48000 -0.266
86.50000 1.259
86.52000 0.336
86.54000 2.803
86.56000 3.938
86.58000 3.055
86.60000 1.951
86.62000 -0.484
86.64000 2.170
86.66000 0.044
86.68000 1.998
86.70000 0.665
86.72000 1.898
86.74000 5.693
86.76000 0.516
86.78000 1.910
86.80000 6.565
86.82000 9.198
86.84000 8.401
86.86000 10.610
86.88000 7.101
86.90000 7.064
86.92000 5.759
86.94000 4.937
86.96000 8.097
86.98000 7.052
87.00000 4.676
87.02000 4.643
87.04000 7.929
87.06000 8.640
87.08000 7.957
87.10000 12.076
87.12000 12.855
87.14000 13.799
87.16000 14.786
87.18000 14.655
87.20000 10.698
87.22000 12.449
87.24000 9.713
87.26000 11.603
87.28000 17.141
87.30000 20.179
87.32000 20.847
87.34000 20.099
87.36000 22.365
87.38000 22.702
87.40000 22.583
87.42000 21.733
87.44000 21.447
87.46000 25.462
87.48000 27.363
87.50000 27.498
87.52000 23.908
87.54000 28.793
87.56000 24.652
87.58000 25.957
87.60000 28.208
87.62000 27.865
87.64000 31.098
87.66000 30.769
87.68000 30.695
87.70000 27.679
87.72000 29.963
87.74000 28.155
87.76000 27.966
87.78000 29.632
87.80000 29.787
87.82000 27.519
87.84000 25.581
87.86000 26.967
87.88000 27.903
87.90000 26.308
87.92000 24.876
87.94000 26.140
87.96000 24.583
87.98000 22.174
88.00000 21.791
88.02000 20.671
88.04000 16.934
88.06000 16.852
88.08000 17.955
88.10000 18.155
88.12000 21.567
88.14000 21.537
88.16000 23.919
88.18000 22.670
88.20000 20.203
88.22000 13.847
88.24000 11.312
88.26000 11.170
88.28000 11.638
88.30000 8.165
88.32000 7.818
88.34000 13.398
88.36000 11.986
88.38000 9.330
88.40000 6.789
88.42000 11.125
88.44000 9.409
88.46000 10.827
88.48000 10.287
88.50000 7.509
88.52000 7.605
88.54000 5.813
88.56000 5.120
88.58000 4.503
88.60000 8.026
88.62000 4.772
88.64000 3.498
88.66000 4.084
88.68000 4.195
88.70000 1.928
88.72000 2.826
88.74000 1.496
88.76000 2.313
88.78000 1.594
88.80000 0.714
88.82000 2.480
88.84000 2.735
88.86000 -0.848
88.88000 0.028
88.90000 5.690
88.92000 5.900
88.94000 2.192
88.96000 0.113
88.98000 2.154
89.00000 -0.651
89.02000 0.630
89.04000 0.578
89.06000 1.565
89.08000 0.168
89.10000 0.058
89.12000 0.515
89.14000 4.775
89.16000 3.317
89.18000 4.252
89.20000 4.011
89.22000 1.220
89.24000 0.593
89.26000 -1.746
89.28000 0.945
89.30000 2.088
89.32000 1.130
89.34000 0.694
89.36000 -0.615
89.38000 -0.031
89.40000 0.518
89.42000 -1.964
89.44000 0.546
89.46000 1.167
89.48000 3.352
89.50000 0.822
89.52000 1.129
89.54000 2.792
89.56000 -0.175
89.58000 0.716
89.60000 0.239
89.62000 1.115
89.64000 1.304
89.66000 0.286
89.68000 2.866
89.70000 -0.420
89.72000 1.054
89.74000 3.482
89.76000 2.672
89.78000 0.092
89.80000 1.460
89.82000 3.308
89.84000 0.946
89.86000 -1.929
89.88000 -1.833
89.90000 -1.928
89.92000 1.444
89.94000 1.241
89.96000 0.365
89.98000 2.612
90.00000 3.420
90.02000 1.469
90.04000 0.724
90.06000 0.565
90.08000 1.188
90.10000 3.270
90.12000 0.025
90.14000 -0.410
90.16000 -0.531
90.18000 1.902
90.20000 1.696
90.22000 2.399
90.24000 1.992
90.26000 0.518
90.28000 1.740
90.30000 1.425
90.32000 0.187
90.34000 0.921
90.36000 -1.334
90.38000 3.120
90.40000 4.248
90.42000 -0.976
90.44000 3.440
90.46000 5.042
90.48000 1.806
90.50000 1.904
90.52000 0.222
90.54000 -0.676
90.56000 -1.908
90.58000 -0.575
90.60000 -1.871
90.62000 -0.154
90.64000 -1.552
90.66000 -0.640
90.68000 -1.355
90.70000 -0.366
90.72000 -0.768
90.74000 0.467
90.76000 2.687
90.78000 2.652
90.80000 0.084
90.82000 0.570
90.84000 0.078
90.86000 2.615
90.88000 4.072
90.90000 3.423
90.92000 3.863
90.94000 0.211
90.96000 -0.364
90.98000 -1.883
91.00000 -0.036
91.02000 2.435
91.04000 1.943
91.06000 0.959
91.08000 1.014
91.10000 1.792
91.12000 2.472
91.14000 5.401
91.16000 6.432
91.18000 5.409
91.20000 5.686
91.22000 2.519
91.24000 0.367
91.26000 2.285
91.28000 4.325
91.30000 4.299
91.32000 1.313
91.34000 1.970
91.36000 1.401
91.38000 5.989
91.40000 2.711
91.42000 1.892
91.44000 0.465
91.46000 -0.313
91.48000 -1.877
91.50000 2.439
91.52000 4.993
91.54000 4.932
91.56000 1.591
91.58000 0.947
91.60000 0.802
91.62000 4.081
91.64000 5.812
91.66000 4.036
91.68000 4.338
91.70000 3.332
91.72000 -0.379
91.74000 0.257
91.76000 1.014
91.78000 -1.358
91.80000 2.715
91.82000 3.634
91.84000 6.254
91.86000 3.743
91.88000 2.392
91.90000 1.701
91.92000 2.989
91.94000 1.456
91.96000 2.477
91.98000 3.393
92.00000 0.720
92.02000 3.211
92.04000 1.467
92.06000 5.241
92.08000 5.244
92.10000 -1.096
92.12000 1.645
92.14000 1.008
92.16000 -1.865
92.18000 2.783
92.20000 3.310
92.22000 2.835
92.24000 0.991
92.26000 -0.755
92.28000 -0.605
92.30000 -0.207
92.32000 1.234
92.34000 4.139
92.36000 3.115
92.38000 3.706
92.40000 2.819
92.42000 1.004
92.44000 2.798
92.46000 4.790
92.48000 0.966
92.50000 1.973
92.52000 -0.279
92.54000 1.286
92.56000 3.685
92.58000 4.865
92.60000 5.438
92.62000 4.302
92.64000 1.345
92.66000 2.004
92.68000 1.708
92.70000 3.146
92.72000 -0.764
92.74000 0.611
92.76000 5.938
92.78000 3.735
92.80000 1.334
92.82000 1.755
92.84000 5.902
92.86000 2.728
92.88000 1.026
92.90000 -0.966
92.92000 0.502
92.94000 2.208
92.96000 -0.314
92.98000 -1.880
93.00000 2.352
93.02000 4.265
93.04000 1.765
93.06000 2.015
93.08000 -0.359
93.10000 0.065
93.12000 1.580
93.14000 -0.116
93.16000 2.301
93.18000 2.699
93.20000 0.477
93.22000 0.924
93.24000 2.027
93.26000 5.166
93.28000 1.662
93.30000 1.855
93.32000 1.324
93.34000 1.369
93.36000 -0.997
93.38000 0.312
93.40000 4.269
93.42000 0.115
93.44000 -1.626
93.46000 1.026
93.48000 -1.794
93.50000 2.196
93.52000 3.336
93.54000 1.684
93.56000 2.247
93.58000 1.611
93.60000 2.274
93.62000 -1.890
93.64000 4.807
93.66000 7.756
93.68000 3.683
93.70000 -1.206
93.72000 -1.036
93.74000 2.995
93.76000 5.658
93.78000 2.969
93.80000 4.105
93.82000 2.191
93.84000 2.006
93.86000 2.218
93.88000 1.501
93.90000 3.107
93.92000 -1.127
93.94000 -0.672
93.96000 1.003
93.98000 0.620
94.00000 -0.474
94.02000 2.168
94.04000 1.580
94.06000 2.174
94.08000 1.094
94.10000 1.591
94.12000 3.619
94.14000 0.803
94.16000 4.472
94.18000 3.401
94.20000 0.645
94.22000 3.500
94.24000 1.659
94.26000 -0.452
94.28000 2.019
94.30000 2.778
94.32000 3.872
94.34000 2.986
94.36000 3.000
94.38000 7.071
94.40000 5.069
94.42000 1.737
94.44000 1.064
94.46000 -0.176
94.48000 -1.908
94.50000 -1.384
94.52000 3.644
94.54000 4.479
94.56000 2.969
94.58000 2.161
94.60000 0.817
94.62000 -1.466
94.64000 0.967
94.66000 0.087
94.68000 -0.955
94.70000 -1.749
94.72000 1.318
94.74000 -0.862
94.76000 0.173
94.78000 1.380
94.80000 1.813
94.82000 2.546
94.84000 -0.576
94.86000 -0.951
94.88000 -0.445
94.90000 1.728
94.92000 3.918
94.94000 1.608
94.96000 -1.738
94.98000 -0.951
95.00000 2.066
95.02000 1.792
95.04000 4.788
95.06000 0.848
95.08000 -1.095
95.10000 2.464
95.12000 1.230
95.14000 0.912
95.16000 -1.122
95.18000 -1.175
95.20000 0.402
95.22000 -1.443
95.24000 -1.896
95.26000 4.713
95.28000 6.883
95.30000 3.668
95.32000 3.956
95.34000 2.728
95.36000 0.289
95.38000 1.848
95.40000 3.497
95.42000 2.850
95.44000 3.215
95.46000 0.370
95.48000 3.948
95.50000 3.850
95.52000 1.413
95.54000 2.727
95.56000 2.635
95.58000 3.261
95.60000 0.193
95.62000 2.601
95.64000 0.283
95.66000 3.659
95.68000 1.706
95.70000 -1.879
95.72000 -1.488
95.74000 2.645
95.76000 1.546
95.78000 -1.388
95.80000 3.528
95.82000 5.381
95.84000 9.726
95.86000 6.302
95.88000 0.759
95.90000 3.805
95.92000 4.233
95.94000 3.936
95.96000 5.042
95.98000 1.096
96.00000 1.838
96.02000 8.672
96.04000 6.904
96.06000 5.922
96.08000 3.827
96.10000 5.117
96.12000 6.138
96.14000 5.234
96.16000 5.233
96.18000 3.512
96.20000 -1.854
96.22000 3.801
96.24000 5.117
96.26000 4.007
96.28000 5.354
96.30000 7.665
96.32000 6.631
96.34000 8.018
96.36000 5.195
96.38000 6.370
96.40000 9.025
96.42000 5.926
96.44000 0.410
96.46000 7.486
96.48000 2.844
96.50000 0.768
96.52000 6.099
96.54000 6.065
96.56000 2.945
96.58000 4.371
96.60000 5.141
96.62000 4.110
96.64000 4.149
96.66000 2.852
96.68000 1.954
96.70000 7.146
96.72000 8.775
96.74000 3.985
96.76000 0.557
96.78000 3.415
96.80000 6.457
96.82000 6.566
96.84000 4.992
96.86000 1.100
96.88000 -0.978
96.90000 3.234
96.92000 2.561
96.94000 0.556
96.96000 2.502
96.98000 2.911
97.00000 3.552
97.02000 4.706
97.04000 3.398
97.06000 3.256
97.08000 1.137
97.10000 2.400
97.12000 0.629
97.14000 -1.893
97.16000 0.516
97.18000 -0.391
97.20000 1.273
97.22000 5.760
97.24000 4.349
97.26000 3.912
97.28000 6.614
97.30000 3.436
97.32000 0.866
97.34000 -1.687
97.36000 2.873
97.38000 7.578
97.40000 5.087
97.42000 2.523
97.44000 1.390
97.46000 1.553
97.48000 3.138
97.50000 7.864
97.52000 4.982
97.54000 -0.074
97.56000 4.713
97.58000 4.742
97.60000 5.360
97.62000 1.984
97.64000 0.092
97.66000 -1.869
97.68000 -1.219
97.70000 -1.079
97.72000 2.826
97.74000 4.362
97.76000 4.902
97.78000 2.334
97.80000 5.325
97.82000 9.274
97.84000 11.033
97.86000 5.765
97.88000 5.633
97.90000 6.865
97.92000 3.187
97.94000 7.061
97.96000 8.790
97.98000 5.231
98.00000 4.839
98.02000 8.300
98.04000 9.140
98.06000 11.124
98.08000 5.288
98.10000 2.610
98.12000 -1.590
98.14000 -1.460
98.16000 0.961
98.18000 6.079
98.20000 10.851
98.22000 6.212
98.24000 -1.816
98.26000 0.887
98.28000 5.805
98.30000 9.737
98.32000 7.722
98.34000 6.022
98.36000 8.665
98.38000 6.955
98.40000 5.247
98.42000 4.958
98.44000 2.512
98.46000 -0.738
98.48000 3.669
98.50000 9.091
98.52000 7.647
98.54000 6.286
98.56000 1.649
98.58000 1.998
98.60000 3.898
98.62000 10.054
98.64000 8.997
98.66000 4.621
98.68000 4.859
98.70000 4.701
98.72000 5.551
98.74000 3.121
98.76000 -1.834
98.78000 0.263
98.80000 12.753
98.82000 7.402
98.84000 4.350
98.86000 3.818
98.88000 -0.655
98.90000 -0.325
98.92000 7.868
98.94000 8.514
98.96000 3.384
98.98000 2.549
99.00000 11.841
99.02000 7.225
99.04000 8.140
99.06000 3.616
99.08000 8.443
99.10000 5.236
99.12000 5.585
99.14000 5.322
99.16000 5.049
99.18000 4.301
99.20000 4.714
99.22000 3.708
99.24000 9.033
99.26000 1.586
99.28000 2.645
99.30000 5.048
99.32000 3.031
99.34000 -0.975
99.36000 5.204
99.38000 2.469
99.40000 -0.362
99.42000 4.561
99.44000 4.188
99.46000 0.861
99.48000 -1.184
99.50000 3.407
99.52000 7.658
99.54000 5.178
99.56000 5.249
99.58000 3.288
99.60000 3.660
99.62000 3.135
99.64000 7.059
99.66000 6.316
99.68000 -1.817
99.70000 2.453
99.72000 8.215
99.74000 3.469
99.76000 4.039
99.78000 9.730
99.80000 8.744
99.82000 4.976
99.84000 0.850
99.86000 7.877
99.88000 4.533
99.90000 -1.942
99.92000 0.429
99.94000 -1.237
99.96000 -2.017
99.98000 0.000
