'Id: "0011387" Comment: "Integrate frame 0011387_Au-Ir-Rh_Rh-rich_XRD-Mapping-211-0000.gfrmwith cursor Wedge Cursor #5" Operator: "B?rgel" Anode: "Cu" Wavelength: "1.5406" Scantype: "2Theta (TwoTheta)" TimePerStep: "1" X: "9" Y: "9" Z: "5.95" 
10.00000 0.000
10.02000 18.076
10.04000 18.843
10.06000 5.781
10.08000 11.617
10.10000 11.802
10.12000 12.491
10.14000 11.413
10.16000 18.750
10.18000 9.276
10.20000 19.954
10.22000 30.382
10.24000 10.335
10.26000 9.233
10.28000 29.485
10.30000 27.394
10.32000 31.067
10.34000 12.104
10.36000 7.405
10.38000 3.524
10.40000 1.050
10.42000 16.762
10.44000 22.357
10.46000 29.425
10.48000 23.030
10.50000 21.045
10.52000 11.043
10.54000 4.413
10.56000 7.017
10.58000 7.525
10.60000 6.759
10.62000 15.775
10.64000 4.550
10.66000 -4.016
10.68000 4.019
10.70000 24.639
10.72000 16.365
10.74000 7.101
10.76000 12.068
10.78000 22.491
10.80000 15.100
10.82000 20.115
10.84000 2.418
10.86000 6.909
10.88000 17.791
10.90000 19.163
10.92000 9.058
10.94000 16.834
10.96000 19.411
10.98000 16.459
11.00000 13.709
11.02000 4.155
11.04000 23.249
11.06000 28.290
11.08000 15.648
11.10000 2.569
11.12000 12.113
11.14000 20.352
11.16000 16.859
11.18000 5.984
11.20000 16.068
11.22000 18.813
11.24000 13.723
11.26000 12.463
11.28000 10.004
11.30000 18.314
11.32000 10.372
11.34000 12.622
11.36000 22.247
11.38000 17.282
11.40000 14.222
11.42000 10.622
11.44000 16.024
11.46000 11.736
11.48000 15.082
11.50000 12.322
11.52000 8.973
11.54000 10.421
11.56000 18.037
11.58000 20.872
11.60000 10.406
11.62000 18.048
11.64000 21.906
11.66000 24.272
11.68000 18.422
11.70000 11.297
11.72000 21.171
11.74000 33.450
11.76000 35.287
11.78000 25.059
11.80000 25.767
11.82000 20.707
11.84000 17.638
11.86000 22.521
11.88000 19.433
11.90000 17.475
11.92000 31.593
11.94000 30.456
11.96000 19.913
11.98000 12.129
12.00000 11.754
12.02000 16.385
12.04000 11.172
12.06000 21.433
12.08000 25.607
12.10000 26.726
12.12000 27.022
12.14000 21.871
12.16000 24.635
12.18000 27.598
12.20000 19.559
12.22000 10.967
12.24000 11.619
12.26000 13.221
12.28000 15.932
12.30000 38.441
12.32000 30.019
12.34000 20.876
12.36000 10.866
12.38000 14.447
12.40000 14.424
12.42000 22.083
12.44000 21.167
12.46000 15.663
12.48000 13.134
12.50000 13.282
12.52000 15.203
12.54000 19.280
12.56000 18.528
12.58000 19.766
12.60000 16.717
12.62000 10.131
12.64000 21.643
12.66000 19.441
12.68000 19.707
12.70000 13.858
12.72000 12.020
12.74000 11.251
12.76000 18.510
12.78000 19.118
12.80000 17.769
12.82000 14.668
12.84000 22.136
12.86000 36.580
12.88000 27.795
12.90000 25.351
12.92000 12.318
12.94000 18.402
12.96000 32.623
12.98000 30.061
13.00000 22.589
13.02000 20.664
13.04000 16.084
13.06000 22.927
13.08000 23.516
13.10000 12.429
13.12000 9.926
13.14000 14.311
13.16000 18.230
13.18000 26.199
13.20000 19.166
13.22000 11.007
13.24000 12.860
13.26000 14.702
13.28000 17.580
13.30000 13.460
13.32000 15.981
13.34000 17.825
13.36000 5.827
13.38000 14.607
13.40000 17.897
13.42000 17.010
13.44000 20.342
13.46000 20.855
13.48000 8.019
13.50000 14.227
13.52000 21.487
13.54000 16.503
13.56000 13.431
13.58000 17.356
13.60000 18.011
13.62000 11.817
13.64000 11.154
13.66000 14.981
13.68000 24.293
13.70000 19.207
13.72000 11.281
13.74000 12.389
13.76000 13.307
13.78000 18.294
13.80000 11.211
13.82000 13.864
13.84000 15.017
13.86000 10.473
13.88000 13.699
13.90000 12.848
13.92000 16.870
13.94000 12.408
13.96000 14.824
13.98000 12.758
14.00000 10.069
14.02000 10.039
14.04000 10.522
14.06000 7.575
14.08000 7.317
14.10000 8.965
14.12000 23.443
14.14000 22.223
14.16000 20.255
14.18000 17.830
14.20000 17.131
14.22000 6.032
14.24000 12.551
14.26000 16.505
14.28000 26.048
14.30000 27.972
14.32000 24.865
14.34000 16.614
14.36000 9.088
14.38000 5.076
14.40000 6.893
14.42000 9.647
14.44000 21.013
14.46000 17.228
14.48000 8.786
14.50000 7.361
14.52000 19.037
14.54000 9.780
14.56000 10.420
14.58000 9.845
14.60000 14.885
14.62000 21.223
14.64000 17.384
14.66000 8.449
14.68000 15.701
14.70000 14.401
14.72000 2.031
14.74000 -4.427
14.76000 9.112
14.78000 14.723
14.80000 14.716
14.82000 16.048
14.84000 10.715
14.86000 10.086
14.88000 8.400
14.90000 7.868
14.92000 7.061
14.94000 11.624
14.96000 9.429
14.98000 12.599
15.00000 14.956
15.02000 12.377
15.04000 13.491
15.06000 3.730
15.08000 4.759
15.10000 3.109
15.12000 9.897
15.14000 13.242
15.16000 3.865
15.18000 2.880
15.20000 19.170
15.22000 17.271
15.24000 11.310
15.26000 11.977
15.28000 10.095
15.30000 9.959
15.32000 7.981
15.34000 9.427
15.36000 5.147
15.38000 2.674
15.40000 7.631
15.42000 3.228
15.44000 4.822
15.46000 8.383
15.48000 15.015
15.50000 12.428
15.52000 11.537
15.54000 2.902
15.56000 -0.427
15.58000 4.693
15.60000 1.032
15.62000 4.715
15.64000 2.463
15.66000 2.745
15.68000 6.282
15.70000 9.174
15.72000 7.543
15.74000 1.225
15.76000 7.135
15.78000 9.037
15.80000 13.259
15.82000 11.847
15.84000 5.823
15.86000 2.623
15.88000 5.310
15.90000 3.470
15.92000 2.854
15.94000 8.390
15.96000 11.756
15.98000 8.025
16.00000 4.163
16.02000 5.640
16.04000 -3.007
16.06000 -2.138
16.08000 3.154
16.10000 6.830
16.12000 5.180
16.14000 1.843
16.16000 0.567
16.18000 -1.460
16.20000 0.860
16.22000 5.492
16.24000 10.551
16.26000 5.330
16.28000 -0.467
16.30000 0.974
16.32000 0.877
16.34000 7.022
16.36000 13.105
16.38000 15.655
16.40000 6.032
16.42000 10.833
16.44000 10.932
16.46000 2.591
16.48000 0.598
16.50000 1.804
16.52000 4.022
16.54000 6.473
16.56000 3.366
16.58000 4.969
16.60000 5.225
16.62000 1.745
16.64000 -3.703
16.66000 7.747
16.68000 8.754
16.70000 10.518
16.72000 5.856
16.74000 -2.655
16.76000 1.589
16.78000 8.809
16.80000 7.138
16.82000 2.771
16.84000 -0.009
16.86000 -1.646
16.88000 2.490
16.90000 9.787
16.92000 9.021
16.94000 6.902
16.96000 8.817
16.98000 13.976
17.00000 12.558
17.02000 11.007
17.04000 0.228
17.06000 1.142
17.08000 0.635
17.10000 -2.032
17.12000 0.412
17.14000 6.598
17.16000 9.320
17.18000 12.474
17.20000 11.273
17.22000 4.225
17.24000 -0.997
17.26000 6.607
17.28000 8.609
17.30000 5.434
17.32000 -4.379
17.34000 -2.449
17.36000 9.792
17.38000 12.517
17.40000 6.613
17.42000 8.943
17.44000 7.838
17.46000 3.040
17.48000 2.926
17.50000 6.490
17.52000 3.692
17.54000 9.062
17.56000 11.909
17.58000 3.695
17.60000 -2.210
17.62000 3.694
17.64000 6.168
17.66000 9.931
17.68000 11.455
17.70000 11.759
17.72000 5.418
17.74000 6.905
17.76000 10.709
17.78000 4.634
17.80000 8.210
17.82000 -1.731
17.84000 3.689
17.86000 7.278
17.88000 10.860
17.90000 12.444
17.92000 10.464
17.94000 3.468
17.96000 3.374
17.98000 4.516
18.00000 7.412
18.02000 5.120
18.04000 1.726
18.06000 0.533
18.08000 5.877
18.10000 6.480
18.12000 5.486
18.14000 5.202
18.16000 7.368
18.18000 13.308
18.20000 8.563
18.22000 2.113
18.24000 6.114
18.26000 10.726
18.28000 9.670
18.30000 6.008
18.32000 10.486
18.34000 7.635
18.36000 5.561
18.38000 -1.239
18.40000 4.834
18.42000 9.531
18.44000 13.006
18.46000 10.750
18.48000 5.377
18.50000 9.618
18.52000 5.030
18.54000 6.533
18.56000 9.659
18.58000 7.857
18.60000 8.527
18.62000 17.102
18.64000 15.934
18.66000 14.762
18.68000 11.914
18.70000 7.351
18.72000 12.982
18.74000 9.538
18.76000 3.281
18.78000 7.938
18.80000 7.354
18.82000 11.195
18.84000 8.205
18.86000 -2.053
18.88000 2.615
18.90000 7.365
18.92000 18.004
18.94000 15.309
18.96000 4.365
18.98000 4.814
19.00000 10.070
19.02000 10.287
19.04000 5.716
19.06000 7.650
19.08000 5.719
19.10000 6.050
19.12000 10.034
19.14000 10.872
19.16000 14.649
19.18000 14.785
19.20000 15.151
19.22000 11.910
19.24000 9.662
19.26000 9.628
19.28000 9.785
19.30000 9.799
19.32000 10.528
19.34000 11.584
19.36000 14.275
19.38000 11.462
19.40000 5.975
19.42000 5.965
19.44000 7.944
19.46000 6.368
19.48000 10.379
19.50000 8.712
19.52000 6.538
19.54000 -4.172
19.56000 2.274
19.58000 15.259
19.60000 9.336
19.62000 13.064
19.64000 11.762
19.66000 14.238
19.68000 11.856
19.70000 10.235
19.72000 7.610
19.74000 3.301
19.76000 11.722
19.78000 11.576
19.80000 11.673
19.82000 6.963
19.84000 3.820
19.86000 10.978
19.88000 11.803
19.90000 14.028
19.92000 15.497
19.94000 11.043
19.96000 11.506
19.98000 6.369
20.00000 8.444
20.02000 11.213
20.04000 5.565
20.06000 14.358
20.08000 10.980
20.10000 8.570
20.12000 8.510
20.14000 13.363
20.16000 4.944
20.18000 -0.113
20.20000 2.723
20.22000 5.248
20.24000 6.109
20.26000 4.476
20.28000 7.029
20.30000 7.071
20.32000 6.154
20.34000 11.407
20.36000 11.374
20.38000 11.227
20.40000 12.921
20.42000 5.126
20.44000 2.298
20.46000 0.006
20.48000 4.061
20.50000 8.541
20.52000 7.487
20.54000 5.405
20.56000 6.247
20.58000 12.804
20.60000 12.483
20.62000 4.039
20.64000 -2.314
20.66000 -1.587
20.68000 5.870
20.70000 5.592
20.72000 3.378
20.74000 0.323
20.76000 3.769
20.78000 3.559
20.80000 6.482
20.82000 7.340
20.84000 1.751
20.86000 8.245
20.88000 8.473
20.90000 1.428
20.92000 2.297
20.94000 1.135
20.96000 1.500
20.98000 -0.111
21.00000 2.553
21.02000 7.993
21.04000 6.083
21.06000 4.925
21.08000 6.396
21.10000 6.775
21.12000 1.386
21.14000 -2.797
21.16000 2.684
21.18000 6.942
21.20000 9.540
21.22000 6.497
21.24000 0.626
21.26000 -2.300
21.28000 -0.337
21.30000 5.172
21.32000 7.262
21.34000 8.100
21.36000 1.526
21.38000 0.951
21.40000 8.500
21.42000 6.415
21.44000 4.112
21.46000 -1.444
21.48000 -0.195
21.50000 7.861
21.52000 10.210
21.54000 5.512
21.56000 5.009
21.58000 3.190
21.60000 5.739
21.62000 6.438
21.64000 4.912
21.66000 4.013
21.68000 1.636
21.70000 2.305
21.72000 2.747
21.74000 1.944
21.76000 4.320
21.78000 9.606
21.80000 6.402
21.82000 3.897
21.84000 2.578
21.86000 4.737
21.88000 5.882
21.90000 3.915
21.92000 -0.449
21.94000 6.774
21.96000 12.459
21.98000 5.297
22.00000 3.220
22.02000 1.928
22.04000 4.834
22.06000 7.263
22.08000 2.321
22.10000 4.515
22.12000 5.062
22.14000 7.320
22.16000 12.153
22.18000 7.538
22.20000 4.590
22.22000 6.766
22.24000 5.808
22.26000 0.499
22.28000 -3.859
22.30000 -1.935
22.32000 0.536
22.34000 -0.851
22.36000 0.862
22.38000 4.774
22.40000 2.584
22.42000 -2.177
22.44000 2.449
22.46000 3.703
22.48000 3.974
22.50000 2.891
22.52000 2.701
22.54000 7.331
22.56000 11.358
22.58000 2.007
22.60000 -3.016
22.62000 -4.065
22.64000 -3.867
22.66000 10.048
22.68000 9.572
22.70000 4.725
22.72000 8.520
22.74000 10.234
22.76000 5.545
22.78000 7.562
22.80000 8.038
22.82000 5.338
22.84000 5.749
22.86000 9.107
22.88000 10.890
22.90000 8.367
22.92000 7.033
22.94000 8.516
22.96000 0.364
22.98000 9.089
23.00000 4.446
23.02000 7.218
23.04000 11.071
23.06000 11.717
23.08000 13.962
23.10000 13.069
23.12000 7.965
23.14000 10.798
23.16000 13.503
23.18000 6.564
23.20000 7.326
23.22000 9.056
23.24000 9.582
23.26000 8.561
23.28000 4.434
23.30000 -3.994
23.32000 1.313
23.34000 6.300
23.36000 8.186
23.38000 5.829
23.40000 8.820
23.42000 7.705
23.44000 8.999
23.46000 11.494
23.48000 9.023
23.50000 2.316
23.52000 6.098
23.54000 11.686
23.56000 4.727
23.58000 4.186
23.60000 4.432
23.62000 4.211
23.64000 3.886
23.66000 7.921
23.68000 8.504
23.70000 1.263
23.72000 2.979
23.74000 1.868
23.76000 1.830
23.78000 6.017
23.80000 5.787
23.82000 8.723
23.84000 3.354
23.86000 -1.548
23.88000 3.986
23.90000 1.177
23.92000 -0.177
23.94000 1.664
23.96000 6.062
23.98000 10.343
24.00000 8.573
24.02000 0.449
24.04000 0.231
24.06000 1.135
24.08000 3.475
24.10000 -0.903
24.12000 0.812
24.14000 5.069
24.16000 1.949
24.18000 2.278
24.20000 6.414
24.22000 3.018
24.24000 3.801
24.26000 0.754
24.28000 5.959
24.30000 -3.047
24.32000 0.080
24.34000 7.914
24.36000 8.214
24.38000 10.479
24.40000 3.963
24.42000 7.416
24.44000 6.114
24.46000 6.555
24.48000 3.939
24.50000 2.349
24.52000 1.485
24.54000 0.980
24.56000 -3.393
24.58000 -2.983
24.60000 2.251
24.62000 5.170
24.64000 2.862
24.66000 3.439
24.68000 -1.026
24.70000 -0.420
24.72000 1.306
24.74000 1.533
24.76000 4.563
24.78000 2.936
24.80000 2.735
24.82000 11.970
24.84000 7.161
24.86000 9.742
24.88000 6.424
24.90000 3.326
24.92000 5.084
24.94000 0.730
24.96000 5.991
24.98000 3.246
25.00000 1.068
25.02000 0.704
25.04000 0.801
25.06000 -2.242
25.08000 -0.879
25.10000 1.982
25.12000 4.669
25.14000 0.876
25.16000 -0.117
25.18000 -0.387
25.20000 -1.045
25.22000 3.255
25.24000 0.743
25.26000 2.942
25.28000 1.341
25.30000 -1.321
25.32000 1.646
25.34000 2.634
25.36000 3.325
25.38000 3.023
25.40000 -1.323
25.42000 -0.572
25.44000 -2.666
25.46000 -0.161
25.48000 1.038
25.50000 3.985
25.52000 2.631
25.54000 3.331
25.56000 3.007
25.58000 3.005
25.60000 0.012
25.62000 4.191
25.64000 5.165
25.66000 4.106
25.68000 2.929
25.70000 2.096
25.72000 4.243
25.74000 -0.351
25.76000 6.123
25.78000 3.681
25.80000 2.160
25.82000 -0.083
25.84000 -1.633
25.86000 6.927
25.88000 6.542
25.90000 4.868
25.92000 10.205
25.94000 9.670
25.96000 4.304
25.98000 4.630
26.00000 9.348
26.02000 4.305
26.04000 3.628
26.06000 7.483
26.08000 6.732
26.10000 3.028
26.12000 1.298
26.14000 2.397
26.16000 7.808
26.18000 -0.126
26.20000 -3.869
26.22000 7.122
26.24000 10.005
26.26000 7.379
26.28000 2.233
26.30000 7.065
26.32000 4.560
26.34000 3.026
26.36000 6.544
26.38000 3.368
26.40000 2.992
26.42000 6.546
26.44000 9.697
26.46000 1.948
26.48000 -0.432
26.50000 0.662
26.52000 -0.550
26.54000 2.920
26.56000 6.385
26.58000 6.009
26.60000 6.687
26.62000 0.305
26.64000 4.919
26.66000 3.270
26.68000 4.378
26.70000 0.293
26.72000 1.074
26.74000 2.005
26.76000 4.140
26.78000 2.346
26.80000 -3.265
26.82000 0.494
26.84000 -0.947
26.86000 -2.733
26.88000 1.570
26.90000 9.300
26.92000 8.672
26.94000 2.208
26.96000 3.470
26.98000 2.473
27.00000 1.762
27.02000 4.611
27.04000 2.777
27.06000 1.790
27.08000 1.710
27.10000 1.735
27.12000 0.856
27.14000 -1.756
27.16000 0.738
27.18000 2.359
27.20000 9.171
27.22000 14.013
27.24000 11.206
27.26000 5.719
27.28000 5.922
27.30000 1.398
27.32000 1.781
27.34000 0.640
27.36000 1.158
27.38000 0.027
27.40000 -0.656
27.42000 4.311
27.44000 9.283
27.46000 5.650
27.48000 4.080
27.50000 4.345
27.52000 0.697
27.54000 -0.186
27.56000 -2.132
27.58000 -3.814
27.60000 3.154
27.62000 7.870
27.64000 8.180
27.66000 4.984
27.68000 1.357
27.70000 0.327
27.72000 2.811
27.74000 4.269
27.76000 -0.180
27.78000 1.498
27.80000 0.266
27.82000 3.338
27.84000 3.945
27.86000 0.623
27.88000 3.810
27.90000 2.299
27.92000 2.870
27.94000 4.757
27.96000 5.138
27.98000 3.132
28.00000 6.480
28.02000 5.717
28.04000 6.561
28.06000 4.272
28.08000 3.905
28.10000 1.216
28.12000 -1.332
28.14000 -2.354
28.16000 1.422
28.18000 4.346
28.20000 1.430
28.22000 0.857
28.24000 0.012
28.26000 3.809
28.28000 7.630
28.30000 6.691
28.32000 6.196
28.34000 6.561
28.36000 0.296
28.38000 0.926
28.40000 0.454
28.42000 2.754
28.44000 3.363
28.46000 1.910
28.48000 0.219
28.50000 1.253
28.52000 2.884
28.54000 -0.795
28.56000 -0.463
28.58000 -1.199
28.60000 -3.568
28.62000 4.548
28.64000 2.998
28.66000 -1.075
28.68000 2.956
28.70000 8.334
28.72000 8.280
28.74000 4.058
28.76000 3.703
28.78000 1.329
28.80000 -2.182
28.82000 6.401
28.84000 4.822
28.86000 1.378
28.88000 3.281
28.90000 7.188
28.92000 -0.279
28.94000 0.589
28.96000 4.172
28.98000 2.876
29.00000 3.608
29.02000 -0.806
29.04000 -3.729
29.06000 -1.676
29.08000 2.867
29.10000 2.893
29.12000 1.577
29.14000 3.175
29.16000 2.623
29.18000 0.601
29.20000 -1.046
29.22000 2.226
29.24000 7.536
29.26000 8.924
29.28000 6.363
29.30000 2.614
29.32000 -3.718
29.34000 4.195
29.36000 4.089
29.38000 2.770
29.40000 2.025
29.42000 -1.229
29.44000 -3.703
29.46000 -1.370
29.48000 -2.206
29.50000 -2.734
29.52000 2.816
29.54000 7.386
29.56000 7.677
29.58000 1.782
29.60000 1.594
29.62000 0.419
29.64000 1.121
29.66000 4.586
29.68000 5.571
29.70000 5.045
29.72000 5.200
29.74000 3.085
29.76000 2.569
29.78000 3.676
29.80000 5.922
29.82000 6.129
29.84000 7.272
29.86000 3.438
29.88000 0.190
29.90000 2.250
29.92000 6.946
29.94000 6.565
29.96000 -0.685
29.98000 5.912
30.00000 7.977
30.02000 3.585
30.04000 0.123
30.06000 -1.541
30.08000 0.998
30.10000 -1.752
30.12000 3.591
30.14000 3.275
30.16000 4.637
30.18000 3.241
30.20000 2.685
30.22000 1.748
30.24000 3.888
30.26000 3.307
30.28000 7.645
30.30000 0.084
30.32000 -3.687
30.34000 5.243
30.36000 3.916
30.38000 -2.622
30.40000 0.467
30.42000 -1.284
30.44000 1.874
30.46000 0.034
30.48000 -2.186
30.50000 2.380
30.52000 3.055
30.54000 3.431
30.56000 3.364
30.58000 4.307
30.60000 8.926
30.62000 6.938
30.64000 2.266
30.66000 4.689
30.68000 1.880
30.70000 0.960
30.72000 -1.795
30.74000 0.882
30.76000 3.823
30.78000 0.395
30.80000 -1.942
30.82000 1.852
30.84000 -2.408
30.86000 0.113
30.88000 -2.995
30.90000 -2.745
30.92000 -0.498
30.94000 3.666
30.96000 2.542
30.98000 3.548
31.00000 9.310
31.02000 8.479
31.04000 -2.231
31.06000 -1.908
31.08000 3.586
31.10000 0.917
31.12000 -3.655
31.14000 2.027
31.16000 2.137
31.18000 -0.621
31.20000 -2.741
31.22000 -1.088
31.24000 -1.731
31.26000 -0.162
31.28000 4.403
31.30000 6.503
31.32000 -2.935
31.34000 -3.606
31.36000 0.764
31.38000 3.386
31.40000 -0.567
31.42000 0.961
31.44000 -0.907
31.46000 -1.546
31.48000 0.152
31.50000 4.310
31.52000 1.764
31.54000 1.245
31.56000 2.305
31.58000 6.418
31.60000 6.695
31.62000 5.347
31.64000 -1.012
31.66000 -3.506
31.68000 0.849
31.70000 2.776
31.72000 2.108
31.74000 2.475
31.76000 8.692
31.78000 3.775
31.80000 5.177
31.82000 5.524
31.84000 2.771
31.86000 -3.305
31.88000 0.796
31.90000 4.611
31.92000 3.285
31.94000 9.046
31.96000 3.180
31.98000 0.717
32.00000 3.188
32.02000 2.991
32.04000 1.763
32.06000 2.580
32.08000 3.853
32.10000 3.866
32.12000 9.091
32.14000 11.367
32.16000 6.888
32.18000 9.470
32.20000 6.605
32.22000 8.078
32.24000 4.075
32.26000 9.635
32.28000 7.076
32.30000 6.472
32.32000 1.669
32.34000 4.757
32.36000 5.172
32.38000 3.932
32.40000 4.007
32.42000 1.970
32.44000 5.587
32.46000 6.435
32.48000 8.298
32.50000 7.624
32.52000 6.234
32.54000 6.384
32.56000 -0.346
32.58000 1.664
32.60000 1.557
32.62000 5.440
32.64000 2.785
32.66000 1.289
32.68000 -2.750
32.70000 -3.526
32.72000 2.202
32.74000 6.271
32.76000 7.788
32.78000 6.098
32.80000 7.715
32.82000 5.021
32.84000 9.007
32.86000 7.011
32.88000 5.466
32.90000 6.027
32.92000 1.781
32.94000 2.217
32.96000 4.233
32.98000 1.927
33.00000 1.437
33.02000 4.946
33.04000 5.234
33.06000 4.501
33.08000 8.526
33.10000 11.875
33.12000 12.808
33.14000 8.108
33.16000 -1.290
33.18000 1.040
33.20000 2.952
33.22000 0.532
33.24000 2.286
33.26000 3.031
33.28000 5.986
33.30000 3.638
33.32000 2.820
33.34000 2.796
33.36000 6.170
33.38000 2.400
33.40000 5.996
33.42000 6.656
33.44000 2.745
33.46000 3.997
33.48000 2.815
33.50000 -2.472
33.52000 0.300
33.54000 4.645
33.56000 5.515
33.58000 1.748
33.60000 2.265
33.62000 5.742
33.64000 3.703
33.66000 2.185
33.68000 9.210
33.70000 10.805
33.72000 5.525
33.74000 2.297
33.76000 1.436
33.78000 2.543
33.80000 4.832
33.82000 5.568
33.84000 2.767
33.86000 1.080
33.88000 -0.376
33.90000 3.712
33.92000 6.283
33.94000 4.973
33.96000 7.839
33.98000 7.706
34.00000 5.744
34.02000 5.479
34.04000 4.890
34.06000 3.900
34.08000 1.641
34.10000 4.326
34.12000 3.000
34.14000 1.594
34.16000 1.904
34.18000 3.762
34.20000 5.422
34.22000 2.957
34.24000 2.603
34.26000 2.251
34.28000 3.864
34.30000 -1.638
34.32000 -1.423
34.34000 2.961
34.36000 7.888
34.38000 7.752
34.40000 8.694
34.42000 0.902
34.44000 -3.446
34.46000 -0.928
34.48000 0.545
34.50000 -0.098
34.52000 0.414
34.54000 2.814
34.56000 3.545
34.58000 5.665
34.60000 5.005
34.62000 -3.414
34.64000 -0.340
34.66000 0.574
34.68000 0.922
34.70000 3.422
34.72000 -0.401
34.74000 6.223
34.76000 4.093
34.78000 5.345
34.80000 5.738
34.82000 0.859
34.84000 -3.532
34.86000 -1.724
34.88000 -2.194
34.90000 0.185
34.92000 6.571
34.94000 1.800
34.96000 1.870
34.98000 6.456
35.00000 3.988
35.02000 -0.517
35.04000 -0.549
35.06000 0.075
35.08000 1.890
35.10000 -3.071
35.12000 -1.371
35.14000 -0.828
35.16000 2.533
35.18000 2.701
35.20000 3.995
35.22000 4.640
35.24000 2.749
35.26000 2.633
35.28000 0.080
35.30000 -0.320
35.32000 -1.133
35.34000 1.885
35.36000 4.388
35.38000 3.844
35.40000 2.210
35.42000 4.742
35.44000 0.938
35.46000 0.092
35.48000 -3.506
35.50000 0.721
35.52000 1.425
35.54000 -0.344
35.56000 2.844
35.58000 6.599
35.60000 1.311
35.62000 2.990
35.64000 9.106
35.66000 7.270
35.68000 1.321
35.70000 -0.133
35.72000 0.543
35.74000 -1.383
35.76000 2.715
35.78000 3.927
35.80000 8.419
35.82000 4.675
35.84000 -1.064
35.86000 -3.524
35.88000 -1.376
35.90000 1.711
35.92000 3.706
35.94000 0.363
35.96000 1.267
35.98000 3.869
36.00000 2.032
36.02000 5.132
36.04000 1.356
36.06000 -1.638
36.08000 1.770
36.10000 0.368
36.12000 7.603
36.14000 9.943
36.16000 2.539
36.18000 3.032
36.20000 4.906
36.22000 4.780
36.24000 5.577
36.26000 4.828
36.28000 6.185
36.30000 2.319
36.32000 3.509
36.34000 -0.410
36.36000 -1.896
36.38000 0.122
36.40000 -1.576
36.42000 -3.282
36.44000 -1.664
36.46000 -3.444
36.48000 -2.812
36.50000 0.326
36.52000 0.712
36.54000 0.745
36.56000 0.474
36.58000 0.334
36.60000 5.093
36.62000 7.493
36.64000 7.182
36.66000 1.867
36.68000 1.830
36.70000 2.638
36.72000 0.517
36.74000 -0.734
36.76000 1.745
36.78000 4.822
36.80000 0.533
36.82000 -0.169
36.84000 3.865
36.86000 5.198
36.88000 3.583
36.90000 -2.385
36.92000 3.648
36.94000 2.023
36.96000 -0.167
36.98000 3.883
37.00000 1.406
37.02000 0.532
37.04000 2.952
37.06000 3.196
37.08000 4.697
37.10000 4.631
37.12000 2.470
37.14000 1.213
37.16000 -3.546
37.18000 -1.633
37.20000 -2.304
37.22000 2.387
37.24000 3.297
37.26000 2.549
37.28000 2.949
37.30000 0.660
37.32000 1.234
37.34000 7.485
37.36000 2.837
37.38000 -0.217
37.40000 3.642
37.42000 4.147
37.44000 6.020
37.46000 4.007
37.48000 5.923
37.50000 4.186
37.52000 8.500
37.54000 7.351
37.56000 4.767
37.58000 5.793
37.60000 3.752
37.62000 6.094
37.64000 4.859
37.66000 3.623
37.68000 3.907
37.70000 2.692
37.72000 2.122
37.74000 4.573
37.76000 -1.601
37.78000 5.166
37.80000 7.199
37.82000 8.826
37.84000 10.134
37.86000 7.697
37.88000 6.873
37.90000 5.376
37.92000 4.548
37.94000 6.940
37.96000 9.486
37.98000 4.324
38.00000 7.867
38.02000 5.592
38.04000 5.407
38.06000 7.959
38.08000 13.358
38.10000 8.500
38.12000 4.679
38.14000 8.518
38.16000 13.284
38.18000 12.659
38.20000 7.435
38.22000 10.287
38.24000 11.784
38.26000 13.788
38.28000 18.839
38.30000 15.576
38.32000 14.247
38.34000 13.262
38.36000 15.408
38.38000 15.206
38.40000 15.132
38.42000 17.571
38.44000 21.027
38.46000 19.614
38.48000 24.787
38.50000 22.234
38.52000 21.993
38.54000 19.409
38.56000 19.488
38.58000 19.068
38.60000 17.755
38.62000 22.247
38.64000 27.103
38.66000 26.749
38.68000 24.016
38.70000 23.359
38.72000 21.170
38.74000 21.137
38.76000 26.290
38.78000 26.645
38.80000 25.336
38.82000 26.572
38.84000 30.768
38.86000 31.565
38.88000 33.825
38.90000 37.625
38.92000 33.473
38.94000 33.698
38.96000 37.282
38.98000 40.570
39.00000 45.880
39.02000 47.635
39.04000 42.211
39.06000 45.769
39.08000 52.279
39.10000 50.129
39.12000 50.203
39.14000 50.064
39.16000 47.885
39.18000 55.771
39.20000 57.672
39.22000 62.394
39.24000 71.958
39.26000 70.803
39.28000 79.757
39.30000 79.765
39.32000 73.073
39.34000 76.718
39.36000 87.768
39.38000 99.009
39.40000 95.174
39.42000 102.145
39.44000 107.456
39.46000 116.156
39.48000 119.473
39.50000 122.227
39.52000 126.390
39.54000 137.869
39.56000 140.647
39.58000 145.322
39.60000 152.645
39.62000 160.411
39.64000 173.986
39.66000 182.791
39.68000 196.437
39.70000 205.532
39.72000 213.065
39.74000 223.531
39.76000 235.774
39.78000 245.751
39.80000 259.072
39.82000 272.295
39.84000 285.976
39.86000 311.262
39.88000 326.983
39.90000 343.412
39.92000 365.859
39.94000 383.502
39.96000 400.148
39.98000 417.719
40.00000 436.234
40.02000 462.358
40.04000 480.448
40.06000 501.392
40.08000 514.026
40.10000 537.668
40.12000 554.532
40.14000 571.010
40.16000 589.099
40.18000 601.586
40.20000 621.074
40.22000 630.962
40.24000 639.671
40.26000 649.306
40.28000 661.384
40.30000 667.977
40.32000 663.490
40.34000 665.396
40.36000 663.391
40.38000 655.683
40.40000 649.008
40.42000 648.130
40.44000 634.207
40.46000 632.493
40.48000 621.881
40.50000 600.030
40.52000 573.342
40.54000 551.323
40.56000 543.538
40.58000 526.169
40.60000 508.460
40.62000 501.661
40.64000 480.163
40.66000 460.725
40.68000 436.253
40.70000 419.925
40.72000 400.265
40.74000 380.061
40.76000 360.077
40.78000 356.432
40.80000 340.260
40.82000 319.091
40.84000 297.701
40.86000 279.001
40.88000 272.057
40.90000 253.028
40.92000 240.790
40.94000 226.752
40.96000 211.462
40.98000 207.214
41.00000 204.305
41.02000 190.391
41.04000 177.839
41.06000 163.112
41.08000 157.492
41.10000 153.218
41.12000 146.211
41.14000 135.366
41.16000 124.831
41.18000 119.281
41.20000 114.818
41.22000 107.345
41.24000 96.260
41.26000 89.835
41.28000 84.492
41.30000 83.160
41.32000 80.041
41.34000 75.894
41.36000 74.317
41.38000 74.821
41.40000 65.081
41.42000 61.993
41.44000 62.958
41.46000 61.038
41.48000 56.579
41.50000 55.655
41.52000 54.299
41.54000 52.450
41.56000 49.050
41.58000 45.848
41.60000 42.431
41.62000 37.112
41.64000 34.161
41.66000 30.500
41.68000 30.397
41.70000 38.715
41.72000 34.993
41.74000 30.165
41.76000 28.238
41.78000 30.883
41.80000 28.749
41.82000 27.654
41.84000 21.585
41.86000 19.773
41.88000 19.894
41.90000 15.427
41.92000 13.030
41.94000 14.822
41.96000 18.385
41.98000 18.893
42.00000 15.622
42.02000 16.291
42.04000 22.554
42.06000 19.701
42.08000 15.005
42.10000 12.567
42.12000 11.039
42.14000 11.807
42.16000 9.663
42.18000 9.256
42.20000 9.973
42.22000 11.305
42.24000 5.484
42.26000 6.866
42.28000 7.616
42.30000 7.640
42.32000 11.585
42.34000 9.928
42.36000 7.246
42.38000 5.668
42.40000 2.990
42.42000 3.954
42.44000 4.789
42.46000 4.467
42.48000 3.925
42.50000 6.427
42.52000 6.735
42.54000 1.582
42.56000 -1.037
42.58000 -0.338
42.60000 1.539
42.62000 6.002
42.64000 4.461
42.66000 4.987
42.68000 -1.276
42.70000 -2.104
42.72000 -0.595
42.74000 3.466
42.76000 2.639
42.78000 2.791
42.80000 -0.084
42.82000 -0.565
42.84000 2.253
42.86000 3.439
42.88000 0.259
42.90000 0.520
42.92000 4.526
42.94000 1.228
42.96000 -0.681
42.98000 1.460
43.00000 0.996
43.02000 5.319
43.04000 1.640
43.06000 -3.456
43.08000 -2.308
43.10000 3.542
43.12000 6.502
43.14000 3.056
43.16000 3.274
43.18000 0.313
43.20000 2.961
43.22000 0.517
43.24000 0.543
43.26000 4.592
43.28000 3.722
43.30000 -0.050
43.32000 0.191
43.34000 3.696
43.36000 4.598
43.38000 0.396
43.40000 -3.407
43.42000 -1.882
43.44000 3.231
43.46000 -0.795
43.48000 -2.472
43.50000 -0.287
43.52000 1.831
43.54000 1.027
43.56000 -0.831
43.58000 1.207
43.60000 -1.270
43.62000 3.376
43.64000 5.738
43.66000 2.201
43.68000 2.840
43.70000 -0.672
43.72000 3.169
43.74000 5.184
43.76000 2.550
43.78000 0.121
43.80000 2.663
43.82000 2.577
43.84000 -0.624
43.86000 -1.083
43.88000 1.335
43.90000 0.766
43.92000 3.840
43.94000 7.324
43.96000 1.564
43.98000 -0.818
44.00000 -1.489
44.02000 1.505
44.04000 5.933
44.06000 -0.053
44.08000 0.978
44.10000 0.400
44.12000 -3.333
44.14000 2.710
44.16000 3.984
44.18000 -1.968
44.20000 -3.330
44.22000 -2.856
44.24000 2.365
44.26000 3.150
44.28000 0.884
44.30000 0.676
44.32000 2.755
44.34000 2.635
44.36000 2.475
44.38000 5.741
44.40000 9.489
44.42000 7.346
44.44000 5.475
44.46000 7.062
44.48000 5.203
44.50000 3.172
44.52000 1.503
44.54000 2.862
44.56000 1.428
44.58000 1.461
44.60000 4.625
44.62000 6.882
44.64000 8.750
44.66000 5.125
44.68000 6.448
44.70000 7.028
44.72000 4.087
44.74000 6.700
44.76000 4.693
44.78000 -3.316
44.80000 3.307
44.82000 3.802
44.84000 2.995
44.86000 -0.191
44.88000 -0.221
44.90000 1.908
44.92000 5.850
44.94000 9.104
44.96000 6.624
44.98000 5.363
45.00000 6.871
45.02000 6.043
45.04000 7.017
45.06000 7.405
45.08000 7.989
45.10000 9.148
45.12000 4.491
45.14000 7.609
45.16000 7.912
45.18000 5.055
45.20000 8.678
45.22000 10.273
45.24000 9.425
45.26000 7.318
45.28000 7.906
45.30000 9.798
45.32000 11.765
45.34000 11.987
45.36000 6.644
45.38000 5.389
45.40000 10.020
45.42000 12.431
45.44000 14.655
45.46000 14.007
45.48000 15.928
45.50000 17.985
45.52000 12.290
45.54000 7.740
45.56000 9.988
45.58000 17.156
45.60000 17.273
45.62000 13.804
45.64000 11.597
45.66000 20.501
45.68000 20.451
45.70000 17.678
45.72000 19.036
45.74000 22.322
45.76000 26.991
45.78000 24.453
45.80000 25.383
45.82000 26.044
45.84000 29.986
45.86000 29.509
45.88000 28.822
45.90000 30.911
45.92000 28.392
45.94000 33.124
45.96000 33.597
45.98000 33.040
46.00000 34.504
46.02000 36.349
46.04000 41.648
46.06000 33.733
46.08000 38.341
46.10000 40.885
46.12000 46.140
46.14000 53.462
46.16000 55.700
46.18000 54.116
46.20000 53.828
46.22000 54.076
46.24000 50.203
46.26000 58.456
46.28000 61.613
46.30000 63.350
46.32000 65.137
46.34000 65.930
46.36000 72.866
46.38000 69.842
46.40000 71.363
46.42000 70.779
46.44000 71.136
46.46000 78.556
46.48000 79.664
46.50000 85.433
46.52000 91.793
46.54000 94.386
46.56000 92.795
46.58000 88.321
46.60000 96.679
46.62000 103.917
46.64000 105.536
46.66000 108.144
46.68000 107.375
46.70000 106.882
46.72000 112.279
46.74000 107.446
46.76000 111.497
46.78000 114.868
46.80000 115.422
46.82000 117.322
46.84000 115.843
46.86000 123.957
46.88000 126.110
46.90000 124.385
46.92000 121.495
46.94000 129.090
46.96000 126.071
46.98000 120.225
47.00000 119.191
47.02000 121.179
47.04000 123.170
47.06000 118.318
47.08000 119.883
47.10000 117.088
47.12000 119.986
47.14000 121.270
47.16000 122.376
47.18000 115.045
47.20000 105.007
47.22000 107.634
47.24000 108.053
47.26000 110.537
47.28000 107.565
47.30000 98.622
47.32000 89.048
47.34000 89.040
47.36000 85.207
47.38000 86.791
47.40000 87.993
47.42000 84.593
47.44000 81.415
47.46000 77.693
47.48000 73.401
47.50000 68.939
47.52000 64.230
47.54000 66.066
47.56000 60.820
47.58000 63.712
47.60000 57.346
47.62000 61.199
47.64000 55.588
47.66000 49.461
47.68000 49.906
47.70000 45.203
47.72000 43.369
47.74000 43.077
47.76000 45.369
47.78000 43.338
47.80000 41.783
47.82000 34.565
47.84000 26.897
47.86000 28.132
47.88000 31.906
47.90000 24.841
47.92000 30.676
47.94000 29.368
47.96000 20.894
47.98000 18.038
48.00000 23.265
48.02000 23.216
48.04000 22.121
48.06000 17.206
48.08000 22.334
48.10000 16.682
48.12000 15.587
48.14000 19.425
48.16000 19.973
48.18000 16.173
48.20000 11.977
48.22000 10.797
48.24000 11.374
48.26000 7.721
48.28000 5.444
48.30000 4.225
48.32000 7.341
48.34000 7.249
48.36000 5.961
48.38000 8.634
48.40000 8.515
48.42000 3.019
48.44000 6.114
48.46000 3.225
48.48000 2.154
48.50000 0.144
48.52000 5.139
48.54000 6.691
48.56000 7.291
48.58000 5.264
48.60000 2.982
48.62000 3.040
48.64000 7.549
48.66000 7.348
48.68000 3.576
48.70000 1.075
48.72000 -0.218
48.74000 4.253
48.76000 2.666
48.78000 3.936
48.80000 0.625
48.82000 0.552
48.84000 0.606
48.86000 11.095
48.88000 4.442
48.90000 1.790
48.92000 2.933
48.94000 3.751
48.96000 10.510
48.98000 10.890
49.00000 4.549
49.02000 -2.517
49.04000 3.468
49.06000 1.936
49.08000 1.077
49.10000 -2.898
49.12000 1.618
49.14000 1.736
49.16000 3.089
49.18000 6.106
49.20000 6.318
49.22000 5.218
49.24000 4.365
49.26000 0.696
49.28000 5.280
49.30000 3.884
49.32000 2.144
49.34000 0.499
49.36000 0.186
49.38000 1.690
49.40000 5.191
49.42000 -1.188
49.44000 -0.540
49.46000 4.385
49.48000 3.440
49.50000 8.015
49.52000 6.417
49.54000 5.392
49.56000 4.084
49.58000 -0.012
49.60000 0.724
49.62000 -1.672
49.64000 -1.847
49.66000 -0.875
49.68000 -2.835
49.70000 -1.660
49.72000 3.746
49.74000 5.366
49.76000 4.236
49.78000 3.001
49.80000 1.945
49.82000 1.721
49.84000 2.631
49.86000 0.175
49.88000 -0.243
49.90000 2.325
49.92000 1.077
49.94000 0.598
49.96000 2.949
49.98000 4.121
50.00000 6.465
50.02000 10.777
50.04000 2.949
50.06000 2.769
50.08000 7.545
50.10000 4.637
50.12000 -2.775
50.14000 3.025
50.16000 4.430
50.18000 1.300
50.20000 5.900
50.22000 6.903
50.24000 7.899
50.26000 5.322
50.28000 5.219
50.30000 3.399
50.32000 2.350
50.34000 -0.871
50.36000 -2.748
50.38000 -1.011
50.40000 -1.019
50.42000 4.250
50.44000 8.005
50.46000 8.175
50.48000 1.014
50.50000 2.689
50.52000 2.891
50.54000 3.404
50.56000 2.869
50.58000 1.948
50.60000 1.438
50.62000 -0.384
50.64000 1.515
50.66000 1.446
50.68000 1.101
50.70000 2.433
50.72000 3.171
50.74000 3.469
50.76000 1.957
50.78000 4.773
50.80000 2.528
50.82000 0.956
50.84000 -0.022
50.86000 0.202
50.88000 0.008
50.90000 3.845
50.92000 6.747
50.94000 8.642
50.96000 9.319
50.98000 4.053
51.00000 5.130
51.02000 2.981
51.04000 3.267
51.06000 1.184
51.08000 0.890
51.10000 0.665
51.12000 4.786
51.14000 3.060
51.16000 -2.714
51.18000 0.311
51.20000 0.954
51.22000 3.247
51.24000 1.763
51.26000 0.328
51.28000 1.306
51.30000 3.859
51.32000 4.404
51.34000 5.572
51.36000 5.266
51.38000 4.595
51.40000 5.116
51.42000 0.824
51.44000 1.284
51.46000 4.897
51.48000 0.706
51.50000 -2.703
51.52000 1.593
51.54000 5.278
51.56000 4.257
51.58000 1.039
51.60000 -2.698
51.62000 -0.656
51.64000 3.338
51.66000 3.677
51.68000 1.241
51.70000 2.705
51.72000 3.429
51.74000 3.811
51.76000 -0.637
51.78000 4.263
51.80000 5.459
51.82000 2.781
51.84000 5.806
51.86000 4.644
51.88000 2.668
51.90000 -0.351
51.92000 2.761
51.94000 -0.681
51.96000 4.385
51.98000 9.481
52.00000 8.403
52.02000 3.057
52.04000 3.088
52.06000 2.970
52.08000 2.723
52.10000 -0.981
52.12000 -2.665
52.14000 0.534
52.16000 2.672
52.18000 5.715
52.20000 3.698
52.22000 2.787
52.24000 3.103
52.26000 3.419
52.28000 7.577
52.30000 4.153
52.32000 0.103
52.34000 -2.179
52.36000 0.510
52.38000 4.757
52.40000 6.400
52.42000 4.657
52.44000 8.684
52.46000 9.961
52.48000 6.241
52.50000 0.716
52.52000 -1.757
52.54000 3.415
52.56000 3.099
52.58000 -1.691
52.60000 2.865
52.62000 2.708
52.64000 5.293
52.66000 10.216
52.68000 5.291
52.70000 2.915
52.72000 -1.917
52.74000 4.320
52.76000 4.706
52.78000 1.453
52.80000 3.339
52.82000 4.884
52.84000 2.723
52.86000 -0.064
52.88000 2.811
52.90000 5.453
52.92000 3.406
52.94000 5.104
52.96000 2.183
52.98000 1.188
53.00000 4.028
53.02000 4.907
53.04000 1.867
53.06000 0.250
53.08000 1.900
53.10000 -0.335
53.12000 2.698
53.14000 4.265
53.16000 2.418
53.18000 0.344
53.20000 -1.565
53.22000 -2.634
53.24000 0.276
53.26000 -0.008
53.28000 -0.239
53.30000 0.007
53.32000 -0.468
53.34000 0.235
53.36000 -1.863
53.38000 3.194
53.40000 2.405
53.42000 1.325
53.44000 1.189
53.46000 4.980
53.48000 6.717
53.50000 5.039
53.52000 4.387
53.54000 4.616
53.56000 3.090
53.58000 2.557
53.60000 3.036
53.62000 2.552
53.64000 2.218
53.66000 2.384
53.68000 -0.844
53.70000 -0.964
53.72000 3.555
53.74000 1.157
53.76000 0.187
53.78000 0.970
53.80000 5.476
53.82000 4.359
53.84000 0.566
53.86000 0.372
53.88000 -1.402
53.90000 -0.929
53.92000 0.949
53.94000 0.178
53.96000 0.661
53.98000 1.820
54.00000 1.668
54.02000 1.758
54.04000 2.565
54.06000 0.997
54.08000 5.763
54.10000 2.846
54.12000 0.616
54.14000 0.228
54.16000 -0.201
54.18000 0.993
54.20000 0.878
54.22000 2.587
54.24000 3.320
54.26000 6.151
54.28000 4.218
54.30000 4.191
54.32000 4.764
54.34000 4.683
54.36000 6.305
54.38000 6.248
54.40000 7.778
54.42000 8.593
54.44000 2.832
54.46000 -1.638
54.48000 -2.593
54.50000 1.518
54.52000 2.627
54.54000 3.339
54.56000 3.036
54.58000 5.173
54.60000 -1.159
54.62000 -0.479
54.64000 3.603
54.66000 7.554
54.68000 6.895
54.70000 4.939
54.72000 1.588
54.74000 1.792
54.76000 5.889
54.78000 5.037
54.80000 3.346
54.82000 3.412
54.84000 8.192
54.86000 5.444
54.88000 0.979
54.90000 -0.554
54.92000 2.552
54.94000 1.419
54.96000 2.482
54.98000 3.129
55.00000 -1.002
55.02000 -1.729
55.04000 -2.154
55.06000 1.756
55.08000 -0.170
55.10000 -2.075
55.12000 2.921
55.14000 3.903
55.16000 2.516
55.18000 1.037
55.20000 1.355
55.22000 4.696
55.24000 2.435
55.26000 2.817
55.28000 1.874
55.30000 5.069
55.32000 5.397
55.34000 9.270
55.36000 8.619
55.38000 5.031
55.40000 4.988
55.42000 5.265
55.44000 4.645
55.46000 3.502
55.48000 0.931
55.50000 4.782
55.52000 10.883
55.54000 10.053
55.56000 6.619
55.58000 2.895
55.60000 2.313
55.62000 1.125
55.64000 3.966
55.66000 4.465
55.68000 -2.194
55.70000 1.969
55.72000 6.279
55.74000 6.483
55.76000 5.360
55.78000 4.309
55.80000 1.140
55.82000 -2.549
55.84000 2.027
55.86000 1.879
55.88000 0.948
55.90000 5.469
55.92000 6.508
55.94000 3.432
55.96000 -0.457
55.98000 3.052
56.00000 6.486
56.02000 2.508
56.04000 5.895
56.06000 3.795
56.08000 0.390
56.10000 1.733
56.12000 4.470
56.14000 9.004
56.16000 7.746
56.18000 5.007
56.20000 3.468
56.22000 2.362
56.24000 1.800
56.26000 0.366
56.28000 -0.460
56.30000 -0.012
56.32000 2.023
56.34000 2.804
56.36000 0.942
56.38000 0.951
56.40000 0.821
56.42000 5.877
56.44000 3.185
56.46000 2.551
56.48000 0.751
56.50000 1.341
56.52000 3.710
56.54000 3.007
56.56000 1.079
56.58000 1.965
56.60000 2.657
56.62000 5.134
56.64000 3.393
56.66000 0.391
56.68000 -0.132
56.70000 0.800
56.72000 2.234
56.74000 0.038
56.76000 0.319
56.78000 2.411
56.80000 3.113
56.82000 5.975
56.84000 5.630
56.86000 4.141
56.88000 3.716
56.90000 5.093
56.92000 2.022
56.94000 0.843
56.96000 1.512
56.98000 0.307
57.00000 0.606
57.02000 2.746
57.04000 5.028
57.06000 0.013
57.08000 -1.929
57.10000 -0.311
57.12000 1.906
57.14000 1.094
57.16000 0.682
57.18000 2.717
57.20000 6.535
57.22000 4.231
57.24000 4.535
57.26000 7.367
57.28000 4.217
57.30000 0.436
57.32000 1.018
57.34000 1.529
57.36000 1.976
57.38000 0.910
57.40000 2.097
57.42000 -2.520
57.44000 2.690
57.46000 5.106
57.48000 0.205
57.50000 1.685
57.52000 2.047
57.54000 1.687
57.56000 2.822
57.58000 5.100
57.60000 2.915
57.62000 2.816
57.64000 3.470
57.66000 5.784
57.68000 4.300
57.70000 2.937
57.72000 3.896
57.74000 3.222
57.76000 3.496
57.78000 5.754
57.80000 2.756
57.82000 5.656
57.84000 3.381
57.86000 3.368
57.88000 4.798
57.90000 5.207
57.92000 5.502
57.94000 3.520
57.96000 2.746
57.98000 1.936
58.00000 5.133
58.02000 6.916
58.04000 10.574
58.06000 6.690
58.08000 3.987
58.10000 1.925
58.12000 5.510
58.14000 6.816
58.16000 1.793
58.18000 4.361
58.20000 5.937
58.22000 5.111
58.24000 2.179
58.26000 -2.466
58.28000 -1.625
58.30000 -0.397
58.32000 2.388
58.34000 2.314
58.36000 2.674
58.38000 4.367
58.40000 1.192
58.42000 1.755
58.44000 5.897
58.46000 5.251
58.48000 2.869
58.50000 3.038
58.52000 2.827
58.54000 0.820
58.56000 2.079
58.58000 1.042
58.60000 3.587
58.62000 1.548
58.64000 1.826
58.66000 2.346
58.68000 2.562
58.70000 1.001
58.72000 3.607
58.74000 6.381
58.76000 9.282
58.78000 5.792
58.80000 1.978
58.82000 1.969
58.84000 -0.184
58.86000 0.411
58.88000 2.332
58.90000 -2.358
58.92000 -1.793
58.94000 3.943
58.96000 6.935
58.98000 7.124
59.00000 4.266
59.02000 -2.478
59.04000 1.087
59.06000 2.967
59.08000 1.692
59.10000 2.595
59.12000 -1.413
59.14000 3.709
59.16000 2.229
59.18000 3.632
59.20000 0.070
59.22000 -1.266
59.24000 -0.158
59.26000 0.469
59.28000 -0.892
59.30000 -0.161
59.32000 0.668
59.34000 1.875
59.36000 4.650
59.38000 3.559
59.40000 0.201
59.42000 -0.987
59.44000 2.375
59.46000 8.235
59.48000 2.799
59.50000 0.483
59.52000 1.784
59.54000 2.967
59.56000 1.181
59.58000 -1.205
59.60000 -1.891
59.62000 -0.955
59.64000 1.158
59.66000 4.091
59.68000 3.098
59.70000 2.911
59.72000 0.858
59.74000 -1.666
59.76000 -1.743
59.78000 -2.462
59.80000 0.738
59.82000 1.302
59.84000 2.050
59.86000 7.035
59.88000 5.264
59.90000 -1.430
59.92000 1.247
59.94000 1.200
59.96000 -0.452
59.98000 1.899
60.00000 2.103
60.02000 0.835
60.04000 1.554
60.06000 1.354
60.08000 1.704
60.10000 2.587
60.12000 4.723
60.14000 4.119
60.16000 0.719
60.18000 0.908
60.20000 3.596
60.22000 0.969
60.24000 -0.276
60.26000 -1.605
60.28000 -1.253
60.30000 -0.363
60.32000 -2.450
60.34000 0.538
60.36000 2.642
60.38000 1.061
60.40000 0.596
60.42000 0.487
60.44000 3.597
60.46000 0.963
60.48000 -0.659
60.50000 0.164
60.52000 1.708
60.54000 4.284
60.56000 1.560
60.58000 1.362
60.60000 1.253
60.62000 2.626
60.64000 3.574
60.66000 5.294
60.68000 5.296
60.70000 6.845
60.72000 5.068
60.74000 1.427
60.76000 -0.406
60.78000 -0.674
60.80000 2.638
60.82000 5.186
60.84000 6.964
60.86000 3.324
60.88000 6.014
60.90000 3.854
60.92000 -0.792
60.94000 0.278
60.96000 1.665
60.98000 -1.120
61.00000 5.637
61.02000 4.864
61.04000 1.839
61.06000 1.598
61.08000 0.893
61.10000 -1.396
61.12000 -0.012
61.14000 1.612
61.16000 0.614
61.18000 1.336
61.20000 -2.042
61.22000 0.075
61.24000 4.017
61.26000 1.607
61.28000 2.882
61.30000 5.283
61.32000 -0.675
61.34000 -2.322
61.36000 0.472
61.38000 -0.948
61.40000 -2.375
61.42000 -0.951
61.44000 2.504
61.46000 3.418
61.48000 3.910
61.50000 4.461
61.52000 1.104
61.54000 2.029
61.56000 1.661
61.58000 2.674
61.60000 0.941
61.62000 1.985
61.64000 -0.524
61.66000 0.491
61.68000 -1.413
61.70000 1.059
61.72000 6.048
61.74000 8.725
61.76000 4.954
61.78000 2.408
61.80000 2.257
61.82000 2.617
61.84000 4.344
61.86000 4.788
61.88000 3.218
61.90000 3.269
61.92000 1.817
61.94000 1.671
61.96000 0.735
61.98000 3.215
62.00000 1.435
62.02000 3.907
62.04000 3.002
62.06000 2.746
62.08000 2.784
62.10000 4.366
62.12000 8.789
62.14000 6.284
62.16000 3.482
62.18000 1.539
62.20000 2.186
62.22000 2.209
62.24000 3.472
62.26000 1.726
62.28000 1.220
62.30000 5.545
62.32000 6.078
62.34000 3.200
62.36000 1.721
62.38000 3.110
62.40000 5.275
62.42000 3.182
62.44000 3.501
62.46000 3.486
62.48000 0.053
62.50000 2.052
62.52000 2.773
62.54000 2.639
62.56000 4.102
62.58000 2.261
62.60000 1.837
62.62000 -2.372
62.64000 -2.097
62.66000 0.224
62.68000 5.961
62.70000 2.281
62.72000 -0.047
62.74000 1.164
62.76000 -0.105
62.78000 -0.471
62.80000 0.697
62.82000 2.146
62.84000 6.111
62.86000 0.195
62.88000 3.041
62.90000 3.769
62.92000 0.181
62.94000 -0.132
62.96000 0.042
62.98000 0.283
63.00000 1.266
63.02000 3.822
63.04000 -0.553
63.06000 -2.150
63.08000 -0.487
63.10000 0.886
63.12000 2.740
63.14000 1.868
63.16000 1.026
63.18000 1.790
63.20000 1.232
63.22000 1.924
63.24000 0.955
63.26000 -0.921
63.28000 0.573
63.30000 2.559
63.32000 3.361
63.34000 2.708
63.36000 1.854
63.38000 2.901
63.40000 3.318
63.42000 0.687
63.44000 2.545
63.46000 1.803
63.48000 -0.361
63.50000 1.249
63.52000 1.927
63.54000 2.760
63.56000 1.375
63.58000 2.184
63.60000 -0.756
63.62000 -2.325
63.64000 3.163
63.66000 2.855
63.68000 6.936
63.70000 1.948
63.72000 1.736
63.74000 1.978
63.76000 2.092
63.78000 0.166
63.80000 0.206
63.82000 -0.176
63.84000 3.143
63.86000 3.409
63.88000 2.529
63.90000 0.928
63.92000 0.543
63.94000 1.469
63.96000 1.338
63.98000 4.637
64.00000 3.384
64.02000 1.717
64.04000 2.193
64.06000 2.938
64.08000 1.490
64.10000 -0.343
64.12000 -1.313
64.14000 1.170
64.16000 0.436
64.18000 5.765
64.20000 6.222
64.22000 4.775
64.24000 3.084
64.26000 3.034
64.28000 0.681
64.30000 2.428
64.32000 3.634
64.34000 2.896
64.36000 0.288
64.38000 -2.357
64.40000 2.372
64.42000 3.041
64.44000 1.555
64.46000 2.487
64.48000 3.515
64.50000 2.141
64.52000 2.553
64.54000 2.904
64.56000 5.371
64.58000 5.152
64.60000 4.979
64.62000 4.995
64.64000 1.757
64.66000 1.219
64.68000 2.849
64.70000 5.934
64.72000 4.048
64.74000 2.690
64.76000 3.492
64.78000 4.511
64.80000 3.423
64.82000 0.840
64.84000 0.838
64.86000 2.831
64.88000 2.396
64.90000 -0.213
64.92000 1.993
64.94000 -1.185
64.96000 0.544
64.98000 0.391
65.00000 2.302
65.02000 0.145
65.04000 -2.406
65.06000 1.610
65.08000 0.086
65.10000 1.319
65.12000 2.274
65.14000 2.763
65.16000 1.893
65.18000 0.288
65.20000 -0.250
65.22000 4.810
65.24000 4.043
65.26000 0.411
65.28000 0.477
65.30000 1.060
65.32000 0.856
65.34000 0.814
65.36000 -1.455
65.38000 2.510
65.40000 4.981
65.42000 -0.177
65.44000 -0.983
65.46000 -0.101
65.48000 0.494
65.50000 -0.375
65.52000 -1.301
65.54000 3.020
65.56000 1.421
65.58000 1.398
65.60000 4.290
65.62000 1.019
65.64000 0.570
65.66000 -0.372
65.68000 0.985
65.70000 1.453
65.72000 -0.368
65.74000 0.743
65.76000 -0.544
65.78000 -0.699
65.80000 4.111
65.82000 5.247
65.84000 1.355
65.86000 -0.088
65.88000 2.872
65.90000 4.824
65.92000 3.359
65.94000 -0.115
65.96000 -2.150
65.98000 -0.360
66.00000 0.268
66.02000 0.545
66.04000 0.336
66.06000 0.349
66.08000 2.139
66.10000 0.774
66.12000 0.660
66.14000 0.934
66.16000 4.716
66.18000 4.212
66.20000 0.513
66.22000 -1.242
66.24000 -2.433
66.26000 -2.434
66.28000 0.576
66.30000 0.071
66.32000 -1.207
66.34000 3.090
66.36000 5.070
66.38000 1.894
66.40000 2.226
66.42000 2.494
66.44000 2.219
66.46000 1.018
66.48000 -0.533
66.50000 0.610
66.52000 1.040
66.54000 -0.519
66.56000 1.602
66.58000 5.292
66.60000 3.519
66.62000 1.736
66.64000 1.476
66.66000 0.631
66.68000 1.910
66.70000 4.035
66.72000 2.835
66.74000 1.829
66.76000 2.544
66.78000 0.798
66.80000 -1.373
66.82000 -0.530
66.84000 -2.475
66.86000 -2.477
66.88000 0.070
66.90000 1.384
66.92000 1.739
66.94000 0.583
66.96000 0.049
66.98000 -2.027
67.00000 1.462
67.02000 0.667
67.04000 2.615
67.06000 2.593
67.08000 2.101
67.10000 5.761
67.12000 4.698
67.14000 4.251
67.16000 4.821
67.18000 4.039
67.20000 5.094
67.22000 6.568
67.24000 3.448
67.26000 3.824
67.28000 3.026
67.30000 5.891
67.32000 1.851
67.34000 -0.804
67.36000 2.091
67.38000 4.437
67.40000 3.760
67.42000 7.561
67.44000 9.755
67.46000 6.695
67.48000 6.964
67.50000 7.050
67.52000 6.301
67.54000 8.155
67.56000 7.208
67.58000 5.916
67.60000 6.696
67.62000 9.042
67.64000 11.880
67.66000 13.421
67.68000 13.153
67.70000 9.144
67.72000 9.867
67.74000 9.632
67.76000 9.555
67.78000 6.577
67.80000 8.075
67.82000 12.066
67.84000 14.727
67.86000 9.603
67.88000 9.276
67.90000 12.925
67.92000 13.836
67.94000 14.603
67.96000 12.927
67.98000 15.893
68.00000 14.301
68.02000 13.378
68.04000 14.563
68.06000 15.944
68.08000 16.585
68.10000 18.626
68.12000 19.392
68.14000 16.702
68.16000 20.017
68.18000 23.056
68.20000 20.767
68.22000 20.051
68.24000 24.371
68.26000 27.347
68.28000 28.050
68.30000 30.950
68.32000 29.938
68.34000 29.494
68.36000 26.644
68.38000 28.377
68.40000 27.212
68.42000 27.563
68.44000 26.986
68.46000 26.754
68.48000 29.518
68.50000 29.690
68.52000 31.104
68.54000 27.371
68.56000 28.356
68.58000 28.017
68.60000 29.316
68.62000 29.462
68.64000 27.016
68.66000 32.773
68.68000 31.967
68.70000 28.343
68.72000 27.844
68.74000 26.773
68.76000 27.295
68.78000 24.825
68.80000 24.427
68.82000 28.288
68.84000 28.616
68.86000 25.822
68.88000 26.619
68.90000 25.319
68.92000 26.220
68.94000 28.819
68.96000 27.207
68.98000 25.498
69.00000 21.545
69.02000 19.848
69.04000 21.642
69.06000 26.121
69.08000 25.455
69.10000 21.573
69.12000 21.618
69.14000 21.766
69.16000 15.491
69.18000 15.713
69.20000 17.129
69.22000 14.147
69.24000 15.212
69.26000 16.267
69.28000 15.941
69.30000 14.201
69.32000 10.328
69.34000 10.093
69.36000 11.526
69.38000 13.065
69.40000 12.225
69.42000 10.755
69.44000 10.678
69.46000 10.766
69.48000 6.183
69.50000 10.457
69.52000 8.372
69.54000 5.610
69.56000 5.184
69.58000 7.252
69.60000 6.213
69.62000 5.774
69.64000 9.086
69.66000 6.503
69.68000 5.424
69.70000 4.143
69.72000 7.631
69.74000 6.135
69.76000 5.333
69.78000 4.747
69.80000 5.786
69.82000 7.056
69.84000 5.442
69.86000 7.555
69.88000 4.307
69.90000 2.303
69.92000 2.087
69.94000 4.478
69.96000 4.932
69.98000 1.635
70.00000 -0.223
70.02000 2.211
70.04000 1.182
70.06000 1.617
70.08000 0.491
70.10000 0.006
70.12000 1.612
70.14000 0.516
70.16000 -1.489
70.18000 1.051
70.20000 1.112
70.22000 5.069
70.24000 3.644
70.26000 -2.375
70.28000 -0.176
70.30000 -0.117
70.32000 1.138
70.34000 2.709
70.36000 4.133
70.38000 3.656
70.40000 1.449
70.42000 3.773
70.44000 4.631
70.46000 4.028
70.48000 1.856
70.50000 1.115
70.52000 2.638
70.54000 3.034
70.56000 2.259
70.58000 0.749
70.60000 -1.094
70.62000 0.982
70.64000 0.192
70.66000 3.282
70.68000 4.825
70.70000 4.819
70.72000 2.163
70.74000 -2.338
70.76000 -0.496
70.78000 2.090
70.80000 -0.992
70.82000 0.782
70.84000 -0.232
70.86000 1.659
70.88000 4.676
70.90000 5.261
70.92000 4.700
70.94000 3.596
70.96000 3.939
70.98000 3.491
71.00000 1.982
71.02000 1.365
71.04000 0.259
71.06000 1.243
71.08000 1.243
71.10000 3.821
71.12000 0.946
71.14000 1.388
71.16000 1.968
71.18000 1.121
71.20000 1.890
71.22000 5.200
71.24000 2.903
71.26000 -0.844
71.28000 -1.336
71.30000 1.501
71.32000 0.091
71.34000 1.360
71.36000 1.129
71.38000 1.135
71.40000 4.641
71.42000 5.516
71.44000 -0.367
71.46000 0.296
71.48000 -1.531
71.50000 1.913
71.52000 4.707
71.54000 -0.042
71.56000 -2.223
71.58000 -0.830
71.60000 1.247
71.62000 1.556
71.64000 -1.608
71.66000 0.540
71.68000 4.414
71.70000 2.999
71.72000 -2.226
71.74000 0.564
71.76000 -1.274
71.78000 0.427
71.80000 0.663
71.82000 0.798
71.84000 0.759
71.86000 -0.653
71.88000 -2.308
71.90000 -0.299
71.92000 2.423
71.94000 -0.287
71.96000 2.104
71.98000 3.698
72.00000 0.344
72.02000 -1.411
72.04000 0.776
72.06000 2.595
72.08000 2.611
72.10000 1.115
72.12000 0.543
72.14000 3.820
72.16000 -0.978
72.18000 -0.793
72.20000 2.477
72.22000 2.243
72.24000 3.220
72.26000 -2.278
72.28000 0.154
72.30000 -1.441
72.32000 2.308
72.34000 3.768
72.36000 2.680
72.38000 2.020
72.40000 2.791
72.42000 -1.137
72.44000 -0.581
72.46000 0.291
72.48000 -0.929
72.50000 -1.533
72.52000 0.201
72.54000 -0.406
72.56000 1.656
72.58000 3.139
72.60000 4.476
72.62000 4.219
72.64000 3.600
72.66000 0.445
72.68000 1.168
72.70000 0.021
72.72000 -0.951
72.74000 -2.030
72.76000 -1.244
72.78000 -1.483
72.80000 1.764
72.82000 4.509
72.84000 0.174
72.86000 1.128
72.88000 2.401
72.90000 1.633
72.92000 5.619
72.94000 2.193
72.96000 -0.016
72.98000 0.333
73.00000 4.973
73.02000 2.222
73.04000 -0.042
73.06000 2.075
73.08000 3.487
73.10000 0.996
73.12000 2.194
73.14000 1.691
73.16000 0.168
73.18000 0.239
73.20000 2.792
73.22000 2.096
73.24000 2.784
73.26000 1.084
73.28000 0.637
73.30000 2.772
73.32000 2.402
73.34000 4.586
73.36000 5.141
73.38000 2.793
73.40000 -0.056
73.42000 -1.880
73.44000 1.625
73.46000 1.916
73.48000 1.785
73.50000 3.905
73.52000 3.494
73.54000 1.787
73.56000 0.982
73.58000 1.473
73.60000 4.100
73.62000 6.161
73.64000 7.457
73.66000 7.637
73.68000 5.000
73.70000 3.775
73.72000 1.853
73.74000 1.781
73.76000 2.389
73.78000 0.605
73.80000 5.979
73.82000 2.699
73.84000 3.741
73.86000 5.029
73.88000 -0.966
73.90000 -2.193
73.92000 1.523
73.94000 7.324
73.96000 4.521
73.98000 5.884
74.00000 0.446
74.02000 0.305
74.04000 5.874
74.06000 2.781
74.08000 -1.395
74.10000 1.761
74.12000 4.606
74.14000 3.157
74.16000 6.343
74.18000 9.110
74.20000 6.652
74.22000 2.708
74.24000 2.726
74.26000 0.275
74.28000 1.609
74.30000 2.557
74.32000 -0.283
74.34000 5.853
74.36000 4.637
74.38000 3.945
74.40000 3.553
74.42000 5.435
74.44000 6.237
74.46000 6.749
74.48000 3.883
74.50000 3.899
74.52000 3.900
74.54000 4.521
74.56000 2.592
74.58000 3.770
74.60000 6.047
74.62000 3.994
74.64000 3.147
74.66000 6.064
74.68000 4.157
74.70000 -0.393
74.72000 2.869
74.74000 -0.325
74.76000 1.989
74.78000 0.866
74.80000 0.843
74.82000 6.068
74.84000 6.414
74.86000 2.412
74.88000 2.940
74.90000 5.472
74.92000 1.905
74.94000 2.962
74.96000 2.726
74.98000 4.227
75.00000 6.093
75.02000 2.451
75.04000 1.079
75.06000 0.987
75.08000 2.725
75.10000 7.336
75.12000 3.011
75.14000 7.377
75.16000 7.249
75.18000 6.227
75.20000 3.051
75.22000 6.072
75.24000 3.332
75.26000 5.175
75.28000 2.764
75.30000 2.483
75.32000 5.322
75.34000 4.124
75.36000 2.071
75.38000 5.247
75.40000 1.908
75.42000 0.793
75.44000 -2.154
75.46000 -0.172
75.48000 0.299
75.50000 3.297
75.52000 4.337
75.54000 5.865
75.56000 10.340
75.58000 5.534
75.60000 2.188
75.62000 1.463
75.64000 2.410
75.66000 1.609
75.68000 5.657
75.70000 3.825
75.72000 5.598
75.74000 2.410
75.76000 3.215
75.78000 4.919
75.80000 6.833
75.82000 4.921
75.84000 4.912
75.86000 5.107
75.88000 4.488
75.90000 5.546
75.92000 3.026
75.94000 7.375
75.96000 2.675
75.98000 -0.498
76.00000 -0.655
76.02000 3.180
76.04000 6.750
76.06000 4.950
76.08000 2.523
76.10000 1.595
76.12000 3.204
76.14000 4.616
76.16000 6.624
76.18000 5.244
76.20000 4.895
76.22000 4.819
76.24000 5.150
76.26000 6.153
76.28000 7.033
76.30000 4.486
76.32000 1.476
76.34000 -2.182
76.36000 -0.435
76.38000 2.889
76.40000 4.175
76.42000 5.045
76.44000 2.922
76.46000 5.928
76.48000 5.170
76.50000 2.244
76.52000 -1.830
76.54000 0.699
76.56000 0.154
76.58000 6.237
76.60000 6.507
76.62000 1.724
76.64000 2.423
76.66000 2.205
76.68000 0.985
76.70000 2.975
76.72000 5.002
76.74000 6.775
76.76000 4.009
76.78000 1.432
76.80000 0.734
76.82000 5.767
76.84000 3.023
76.86000 2.299
76.88000 4.944
76.90000 4.858
76.92000 5.078
76.94000 2.651
76.96000 1.154
76.98000 4.964
77.00000 5.939
77.02000 2.340
77.04000 2.349
77.06000 3.985
77.08000 1.895
77.10000 -1.492
77.12000 0.371
77.14000 0.659
77.16000 0.208
77.18000 -2.040
77.20000 0.902
77.22000 2.132
77.24000 3.012
77.26000 2.449
77.28000 2.206
77.30000 3.785
77.32000 7.583
77.34000 5.067
77.36000 0.949
77.38000 -1.110
77.40000 -1.722
77.42000 0.475
77.44000 -1.774
77.46000 -2.245
77.48000 3.102
77.50000 4.293
77.52000 2.230
77.54000 1.530
77.56000 -0.767
77.58000 1.604
77.60000 3.658
77.62000 3.157
77.64000 3.881
77.66000 3.810
77.68000 3.747
77.70000 0.308
77.72000 2.751
77.74000 3.421
77.76000 0.429
77.78000 4.735
77.80000 5.521
77.82000 4.031
77.84000 2.672
77.86000 4.810
77.88000 2.895
77.90000 1.998
77.92000 -0.528
77.94000 0.342
77.96000 -1.212
77.98000 3.654
78.00000 2.976
78.02000 2.963
78.04000 4.568
78.06000 1.129
78.08000 2.257
78.10000 1.906
78.12000 6.762
78.14000 6.151
78.16000 3.789
78.18000 6.917
78.20000 5.360
78.22000 3.395
78.24000 2.341
78.26000 4.316
78.28000 3.950
78.30000 5.700
78.32000 4.145
78.34000 8.613
78.36000 6.962
78.38000 0.602
78.40000 0.326
78.42000 6.424
78.44000 8.295
78.46000 5.352
78.48000 3.722
78.50000 3.045
78.52000 4.970
78.54000 11.253
78.56000 10.261
78.58000 9.425
78.60000 9.854
78.62000 9.357
78.64000 5.518
78.66000 4.903
78.68000 2.836
78.70000 3.482
78.72000 6.496
78.74000 7.333
78.76000 6.985
78.78000 6.335
78.80000 2.721
78.82000 -2.190
78.84000 5.332
78.86000 7.545
78.88000 7.255
78.90000 4.385
78.92000 4.034
78.94000 2.152
78.96000 6.830
78.98000 6.451
79.00000 2.563
79.02000 1.920
79.04000 2.772
79.06000 3.528
79.08000 6.254
79.10000 4.418
79.12000 4.293
79.14000 2.244
79.16000 0.915
79.18000 3.938
79.20000 6.885
79.22000 6.252
79.24000 7.641
79.26000 5.108
79.28000 5.461
79.30000 -0.375
79.32000 1.374
79.34000 2.590
79.36000 4.455
79.38000 1.227
79.40000 4.955
79.42000 2.934
79.44000 1.035
79.46000 -0.139
79.48000 3.638
79.50000 8.361
79.52000 6.018
79.54000 3.613
79.56000 5.971
79.58000 4.500
79.60000 7.817
79.62000 2.193
79.64000 0.456
79.66000 1.903
79.68000 4.066
79.70000 2.869
79.72000 0.190
79.74000 2.028
79.76000 2.622
79.78000 3.936
79.80000 2.868
79.82000 5.829
79.84000 11.023
79.86000 6.109
79.88000 1.792
79.90000 5.476
79.92000 4.423
79.94000 0.585
79.96000 4.610
79.98000 7.198
80.00000 0.182
80.02000 2.534
80.04000 0.184
80.06000 -2.293
80.08000 4.243
80.10000 3.780
80.12000 3.786
80.14000 3.698
80.16000 0.801
80.18000 1.153
80.20000 4.220
80.22000 2.402
80.24000 4.470
80.26000 4.979
80.28000 3.252
80.30000 -2.311
80.32000 0.050
80.34000 2.293
80.36000 3.146
80.38000 4.436
80.40000 2.056
80.42000 3.047
80.44000 7.210
80.46000 6.603
80.48000 3.675
80.50000 4.464
80.52000 5.706
80.54000 1.456
80.56000 -0.182
80.58000 4.824
80.60000 4.479
80.62000 3.045
80.64000 3.320
80.66000 2.152
80.68000 1.682
80.70000 -0.820
80.72000 0.924
80.74000 0.736
80.76000 3.835
80.78000 2.765
80.80000 1.549
80.82000 -0.491
80.84000 2.111
80.86000 3.279
80.88000 3.745
80.90000 2.519
80.92000 3.044
80.94000 3.507
80.96000 1.449
80.98000 2.060
81.00000 3.783
81.02000 5.797
81.04000 5.778
81.06000 6.691
81.08000 8.893
81.10000 7.253
81.12000 2.194
81.14000 5.815
81.16000 6.848
81.18000 3.460
81.20000 6.979
81.22000 7.553
81.24000 8.108
81.26000 3.554
81.28000 1.681
81.30000 6.539
81.32000 5.652
81.34000 4.935
81.36000 7.479
81.38000 8.902
81.40000 4.608
81.42000 0.390
81.44000 2.925
81.46000 8.247
81.48000 9.227
81.50000 9.785
81.52000 8.635
81.54000 8.747
81.56000 8.933
81.58000 8.813
81.60000 13.453
81.62000 11.391
81.64000 8.913
81.66000 12.169
81.68000 12.276
81.70000 9.386
81.72000 12.002
81.74000 16.069
81.76000 15.194
81.78000 11.281
81.80000 11.651
81.82000 13.645
81.84000 16.114
81.86000 15.583
81.88000 13.944
81.90000 16.489
81.92000 15.658
81.94000 12.449
81.96000 17.520
81.98000 16.386
82.00000 16.954
82.02000 15.905
82.04000 16.559
82.06000 19.173
82.08000 18.627
82.10000 21.334
82.12000 15.340
82.14000 20.842
82.16000 23.781
82.18000 23.619
82.20000 23.347
82.22000 21.236
82.24000 22.565
82.26000 28.288
82.28000 27.770
82.30000 26.534
82.32000 23.535
82.34000 27.055
82.36000 29.950
82.38000 31.812
82.40000 32.475
82.42000 34.198
82.44000 37.092
82.46000 33.230
82.48000 31.758
82.50000 33.551
82.52000 34.590
82.54000 37.521
82.56000 38.918
82.58000 34.258
82.60000 38.038
82.62000 43.694
82.64000 42.409
82.66000 41.230
82.68000 39.641
82.70000 38.217
82.72000 35.338
82.74000 35.087
82.76000 34.675
82.78000 36.779
82.80000 43.333
82.82000 41.694
82.84000 38.234
82.86000 37.043
82.88000 37.239
82.90000 34.893
82.92000 33.278
82.94000 33.883
82.96000 38.018
82.98000 39.510
83.00000 33.352
83.02000 32.796
83.04000 32.663
83.06000 31.124
83.08000 31.366
83.10000 35.626
83.12000 32.143
83.14000 32.738
83.16000 32.806
83.18000 34.205
83.20000 32.996
83.22000 31.302
83.24000 31.964
83.26000 33.810
83.28000 30.066
83.30000 29.841
83.32000 27.289
83.34000 28.188
83.36000 28.856
83.38000 23.309
83.40000 22.205
83.42000 24.911
83.44000 24.707
83.46000 23.581
83.48000 23.175
83.50000 23.631
83.52000 21.432
83.54000 20.294
83.56000 20.266
83.58000 16.202
83.60000 21.394
83.62000 17.853
83.64000 19.777
83.66000 16.214
83.68000 17.974
83.70000 17.147
83.72000 18.237
83.74000 15.797
83.76000 13.083
83.78000 12.263
83.80000 13.851
83.82000 13.375
83.84000 7.926
83.86000 7.111
83.88000 9.407
83.90000 8.626
83.92000 10.288
83.94000 7.722
83.96000 11.680
83.98000 8.180
84.00000 4.537
84.02000 4.781
84.04000 6.399
84.06000 5.930
84.08000 7.777
84.10000 5.239
84.12000 4.499
84.14000 4.300
84.16000 0.506
84.18000 3.629
84.20000 7.018
84.22000 3.207
84.24000 6.239
84.26000 5.980
84.28000 5.326
84.30000 8.263
84.32000 6.864
84.34000 4.195
84.36000 -2.373
84.38000 -0.154
84.40000 4.544
84.42000 8.486
84.44000 4.223
84.46000 2.490
84.48000 1.879
84.50000 0.004
84.52000 2.598
84.54000 4.427
84.56000 3.241
84.58000 7.762
84.60000 3.766
84.62000 3.123
84.64000 0.204
84.66000 0.028
84.68000 4.053
84.70000 1.093
84.72000 1.918
84.74000 1.153
84.76000 -0.864
84.78000 3.091
84.80000 2.148
84.82000 3.060
84.84000 -0.514
84.86000 -2.328
84.88000 1.136
84.90000 1.392
84.92000 0.896
84.94000 4.541
84.96000 4.160
84.98000 1.784
85.00000 2.796
85.02000 3.301
85.04000 1.042
85.06000 -0.721
85.08000 0.163
85.10000 0.368
85.12000 1.806
85.14000 3.199
85.16000 3.741
85.18000 0.139
85.20000 2.233
85.22000 1.437
85.24000 0.606
85.26000 4.563
85.28000 3.248
85.30000 0.162
85.32000 -2.301
85.34000 0.916
85.36000 2.784
85.38000 2.086
85.40000 -0.985
85.42000 -0.737
85.44000 2.402
85.46000 4.142
85.48000 3.807
85.50000 1.628
85.52000 2.445
85.54000 2.111
85.56000 -0.314
85.58000 0.020
85.60000 1.333
85.62000 0.357
85.64000 2.513
85.66000 2.205
85.68000 -2.304
85.70000 0.697
85.72000 4.534
85.74000 2.629
85.76000 4.308
85.78000 1.629
85.80000 0.073
85.82000 2.233
85.84000 2.133
85.86000 2.524
85.88000 2.750
85.90000 4.621
85.92000 6.947
85.94000 4.973
85.96000 6.615
85.98000 6.058
86.00000 -1.449
86.02000 0.657
86.04000 4.127
86.06000 4.848
86.08000 -0.550
86.10000 0.686
86.12000 0.698
86.14000 2.901
86.16000 2.534
86.18000 3.706
86.20000 1.568
86.22000 5.020
86.24000 1.415
86.26000 4.297
86.28000 6.691
86.30000 8.504
86.32000 5.414
86.34000 3.946
86.36000 7.555
86.38000 3.209
86.40000 3.468
86.42000 10.301
86.44000 12.960
86.46000 10.738
86.48000 9.171
86.50000 6.484
86.52000 6.982
86.54000 6.187
86.56000 8.952
86.58000 9.184
86.60000 5.695
86.62000 8.531
86.64000 6.272
86.66000 7.195
86.68000 11.197
86.70000 10.795
86.72000 7.892
86.74000 9.353
86.76000 15.832
86.78000 17.730
86.80000 21.777
86.82000 21.304
86.84000 12.878
86.86000 14.378
86.88000 15.042
86.90000 16.958
86.92000 17.861
86.94000 21.280
86.96000 20.476
86.98000 21.499
87.00000 18.936
87.02000 18.191
87.04000 18.537
87.06000 19.820
87.08000 24.591
87.10000 27.303
87.12000 22.930
87.14000 19.508
87.16000 22.533
87.18000 22.568
87.20000 20.608
87.22000 22.692
87.24000 16.133
87.26000 16.690
87.28000 17.851
87.30000 21.640
87.32000 24.804
87.34000 22.606
87.36000 21.236
87.38000 19.551
87.40000 17.438
87.42000 15.398
87.44000 13.820
87.46000 20.242
87.48000 22.592
87.50000 19.248
87.52000 16.753
87.54000 15.521
87.56000 16.042
87.58000 13.616
87.60000 14.990
87.62000 13.937
87.64000 16.921
87.66000 15.134
87.68000 15.797
87.70000 11.457
87.72000 10.848
87.74000 10.159
87.76000 10.975
87.78000 10.934
87.80000 9.222
87.82000 9.942
87.84000 11.209
87.86000 11.432
87.88000 10.749
87.90000 9.438
87.92000 11.191
87.94000 6.716
87.96000 8.821
87.98000 11.493
88.00000 11.497
88.02000 7.871
88.04000 8.267
88.06000 12.089
88.08000 6.019
88.10000 5.560
88.12000 7.789
88.14000 2.632
88.16000 0.510
88.18000 3.608
88.20000 1.513
88.22000 -0.775
88.24000 3.758
88.26000 4.221
88.28000 0.195
88.30000 0.164
88.32000 2.383
88.34000 5.422
88.36000 6.224
88.38000 6.058
88.40000 8.620
88.42000 5.376
88.44000 0.257
88.46000 0.619
88.48000 3.637
88.50000 2.709
88.52000 -2.087
88.54000 0.837
88.56000 4.795
88.58000 0.042
88.60000 0.433
88.62000 -0.616
88.64000 2.659
88.66000 6.172
88.68000 2.927
88.70000 2.990
88.72000 3.341
88.74000 2.101
88.76000 1.625
88.78000 1.647
88.80000 6.169
88.82000 3.063
88.84000 2.054
88.86000 2.437
88.88000 1.688
88.90000 1.831
88.92000 5.614
88.94000 4.135
88.96000 0.489
88.98000 -0.657
89.00000 -1.234
89.02000 1.929
89.04000 7.523
89.06000 9.663
89.08000 10.071
89.10000 9.946
89.12000 2.480
89.14000 -2.132
89.16000 -0.195
89.18000 -0.189
89.20000 2.460
89.22000 4.812
89.24000 3.036
89.26000 1.116
89.28000 1.608
89.30000 3.870
89.32000 4.860
89.34000 3.740
89.36000 -0.807
89.38000 4.113
89.40000 4.562
89.42000 1.504
89.44000 2.026
89.46000 1.822
89.48000 2.011
89.50000 -0.421
89.52000 -0.853
89.54000 4.267
89.56000 -0.245
89.58000 1.375
89.60000 4.267
89.62000 0.650
89.64000 2.647
89.66000 -1.488
89.68000 -1.430
89.70000 0.135
89.72000 -0.763
89.74000 0.778
89.76000 2.497
89.78000 1.841
89.80000 0.331
89.82000 0.852
89.84000 5.009
89.86000 4.074
89.88000 3.826
89.90000 4.475
89.92000 5.123
89.94000 2.710
89.96000 1.506
89.98000 -0.807
90.00000 -1.130
90.02000 4.213
90.04000 6.392
90.06000 -0.813
90.08000 0.893
90.10000 0.798
90.12000 0.214
90.14000 0.693
90.16000 1.431
90.18000 5.961
90.20000 2.146
90.22000 1.361
90.24000 1.347
90.26000 0.476
90.28000 3.459
90.30000 5.052
90.32000 1.301
90.34000 0.171
90.36000 0.755
90.38000 3.478
90.40000 1.763
90.42000 -1.471
90.44000 1.051
90.46000 3.326
90.48000 3.646
90.50000 2.529
90.52000 -1.454
90.54000 -1.837
90.56000 2.697
90.58000 5.060
90.60000 3.291
90.62000 0.970
90.64000 -2.073
90.66000 2.853
90.68000 9.595
90.70000 6.325
90.72000 5.788
90.74000 5.642
90.76000 1.410
90.78000 2.631
90.80000 5.245
90.82000 4.142
90.84000 8.236
90.86000 10.420
90.88000 7.444
90.90000 6.420
90.92000 6.014
90.94000 1.331
90.96000 0.530
90.98000 0.744
91.00000 3.423
91.02000 5.193
91.04000 5.960
91.06000 3.144
91.08000 2.601
91.10000 1.315
91.12000 6.321
91.14000 5.604
91.16000 0.686
91.18000 1.259
91.20000 3.721
91.22000 3.412
91.24000 2.675
91.26000 1.289
91.28000 2.955
91.30000 5.893
91.32000 5.943
91.34000 4.393
91.36000 3.788
91.38000 3.451
91.40000 2.599
91.42000 4.216
91.44000 2.907
91.46000 -2.077
91.48000 -0.150
91.50000 2.400
91.52000 5.096
91.54000 4.623
91.56000 3.527
91.58000 2.984
91.60000 2.138
91.62000 1.234
91.64000 2.605
91.66000 3.038
91.68000 2.306
91.70000 3.493
91.72000 9.806
91.74000 10.081
91.76000 3.891
91.78000 2.963
91.80000 1.857
91.82000 3.755
91.84000 2.891
91.86000 5.024
91.88000 3.129
91.90000 2.355
91.92000 3.245
91.94000 8.094
91.96000 8.753
91.98000 9.164
92.00000 7.215
92.02000 6.991
92.04000 5.882
92.06000 2.018
92.08000 4.582
92.10000 2.379
92.12000 0.939
92.14000 -0.876
92.16000 3.982
92.18000 6.738
92.20000 3.698
92.22000 7.175
92.24000 4.166
92.26000 -2.090
92.28000 -1.832
92.30000 2.104
92.32000 3.865
92.34000 3.279
92.36000 0.479
92.38000 4.909
92.40000 2.991
92.42000 7.709
92.44000 6.402
92.46000 4.714
92.48000 2.625
92.50000 3.320
92.52000 5.841
92.54000 3.706
92.56000 4.524
92.58000 6.115
92.60000 6.449
92.62000 8.787
92.64000 6.540
92.66000 5.193
92.68000 9.383
92.70000 8.275
92.72000 -2.078
92.74000 1.297
92.76000 3.880
92.78000 3.916
92.80000 7.073
92.82000 5.539
92.84000 0.032
92.86000 2.719
92.88000 4.236
92.90000 5.854
92.92000 2.541
92.94000 4.591
92.96000 6.250
92.98000 6.954
93.00000 6.396
93.02000 3.715
93.04000 2.856
93.06000 1.474
93.08000 3.400
93.10000 2.596
93.12000 2.387
93.14000 5.703
93.16000 -0.756
93.18000 1.622
93.20000 3.796
93.22000 0.633
93.24000 3.246
93.26000 1.844
93.28000 1.793
93.30000 0.244
93.32000 5.233
93.34000 7.330
93.36000 10.673
93.38000 5.637
93.40000 4.837
93.42000 3.836
93.44000 7.032
93.46000 8.904
93.48000 8.752
93.50000 5.126
93.52000 -2.089
93.54000 4.867
93.56000 1.291
93.58000 1.676
93.60000 0.899
93.62000 2.880
93.64000 4.029
93.66000 3.124
93.68000 3.369
93.70000 2.047
93.72000 0.149
93.74000 5.528
93.76000 7.457
93.78000 4.347
93.80000 0.665
93.82000 3.888
93.84000 6.112
93.86000 4.424
93.88000 4.622
93.90000 2.286
93.92000 1.515
93.94000 0.466
93.96000 2.892
93.98000 5.847
94.00000 5.768
94.02000 3.225
94.04000 5.599
94.06000 3.719
94.08000 3.091
94.10000 4.800
94.12000 6.649
94.14000 8.204
94.16000 7.051
94.18000 5.545
94.20000 2.181
94.22000 0.756
94.24000 0.919
94.26000 4.743
94.28000 7.154
94.30000 -0.179
94.32000 3.646
94.34000 2.797
94.36000 2.205
94.38000 3.964
94.40000 4.917
94.42000 5.094
94.44000 5.205
94.46000 3.569
94.48000 1.702
94.50000 2.057
94.52000 4.480
94.54000 5.071
94.56000 9.623
94.58000 11.378
94.60000 8.112
94.62000 4.096
94.64000 1.811
94.66000 5.559
94.68000 5.551
94.70000 -0.578
94.72000 0.526
94.74000 -2.081
94.76000 3.768
94.78000 9.637
94.80000 6.034
94.82000 7.630
94.84000 5.554
94.86000 1.660
94.88000 3.437
94.90000 4.384
94.92000 3.986
94.94000 5.429
94.96000 2.358
94.98000 -2.078
95.00000 3.400
95.02000 6.088
95.04000 5.291
95.06000 2.491
95.08000 3.620
95.10000 5.933
95.12000 5.460
95.14000 7.226
95.16000 4.068
95.18000 2.105
95.20000 5.085
95.22000 5.712
95.24000 8.439
95.26000 9.206
95.28000 2.141
95.30000 1.275
95.32000 2.372
95.34000 2.986
95.36000 3.625
95.38000 1.791
95.40000 2.718
95.42000 -1.431
95.44000 -0.933
95.46000 3.376
95.48000 4.837
95.50000 4.473
95.52000 5.693
95.54000 3.542
95.56000 2.627
95.58000 5.456
95.60000 7.713
95.62000 8.298
95.64000 3.867
95.66000 -0.921
95.68000 3.775
95.70000 3.196
95.72000 2.867
95.74000 4.206
95.76000 4.569
95.78000 2.708
95.80000 4.342
95.82000 1.671
95.84000 -0.481
95.86000 6.313
95.88000 9.323
95.90000 5.483
95.92000 3.057
95.94000 3.887
95.96000 2.467
95.98000 1.753
96.00000 0.022
96.02000 3.820
96.04000 3.239
96.06000 -0.339
96.08000 6.127
96.10000 6.195
96.12000 6.807
96.14000 1.141
96.16000 4.269
96.18000 2.630
96.20000 -0.522
96.22000 2.902
96.24000 1.726
96.26000 1.492
96.28000 0.910
96.30000 0.148
96.32000 1.724
96.34000 4.606
96.36000 1.441
96.38000 6.209
96.40000 10.992
96.42000 4.640
96.44000 -0.825
96.46000 -1.209
96.48000 1.139
96.50000 4.570
96.52000 4.262
96.54000 2.051
96.56000 5.691
96.58000 2.273
96.60000 3.879
96.62000 2.937
96.64000 4.061
96.66000 0.615
96.68000 -0.662
96.70000 6.209
96.72000 8.118
96.74000 2.743
96.76000 -2.113
96.78000 5.403
96.80000 7.778
96.82000 3.102
96.84000 2.203
96.86000 -1.238
96.88000 6.488
96.90000 2.434
96.92000 1.896
96.94000 6.862
96.96000 4.292
96.98000 1.791
97.00000 2.070
97.02000 4.112
97.04000 7.883
97.06000 6.911
97.08000 5.224
97.10000 3.706
97.12000 3.200
97.14000 5.066
97.16000 7.681
97.18000 3.178
97.20000 3.066
97.22000 4.697
97.24000 11.787
97.26000 6.045
97.28000 7.078
97.30000 5.467
97.32000 2.284
97.34000 2.196
97.36000 0.414
97.38000 4.605
97.40000 7.926
97.42000 9.750
97.44000 7.487
97.46000 10.037
97.48000 5.476
97.50000 7.576
97.52000 5.679
97.54000 7.156
97.56000 2.222
97.58000 6.162
97.60000 2.949
97.62000 -0.427
97.64000 1.493
97.66000 6.740
97.68000 6.363
97.70000 9.161
97.72000 11.449
97.74000 4.979
97.76000 7.533
97.78000 4.715
97.80000 0.961
97.82000 3.945
97.84000 6.948
97.86000 4.999
97.88000 9.603
97.90000 6.507
97.92000 5.323
97.94000 5.111
97.96000 4.919
97.98000 3.270
98.00000 9.132
98.02000 4.508
98.04000 3.016
98.06000 7.412
98.08000 6.529
98.10000 2.073
98.12000 3.446
98.14000 6.803
98.16000 4.370
98.18000 0.283
98.20000 7.419
98.22000 13.116
98.24000 2.761
98.26000 -1.755
98.28000 4.572
98.30000 9.310
98.32000 4.691
98.34000 -2.011
98.36000 -2.009
98.38000 2.783
98.40000 2.184
98.42000 3.861
98.44000 5.070
98.46000 4.212
98.48000 8.632
98.50000 1.842
98.52000 7.436
98.54000 3.470
98.56000 -1.544
98.58000 2.277
98.60000 5.959
98.62000 10.639
98.64000 14.387
98.66000 4.482
98.68000 7.793
98.70000 4.081
98.72000 4.879
98.74000 6.929
98.76000 6.523
98.78000 -0.444
98.80000 4.424
98.82000 7.028
98.84000 2.617
98.86000 8.129
98.88000 2.777
98.90000 -0.522
98.92000 5.846
98.94000 7.892
98.96000 8.927
98.98000 1.809
99.00000 3.935
99.02000 8.041
99.04000 6.387
99.06000 6.150
99.08000 7.945
99.10000 10.161
99.12000 7.101
99.14000 9.736
99.16000 7.263
99.18000 0.657
99.20000 -2.026
99.22000 -0.856
99.24000 9.909
99.26000 7.202
99.28000 2.398
99.30000 13.460
99.32000 7.127
99.34000 6.489
99.36000 5.417
99.38000 4.633
99.40000 6.967
99.42000 5.691
99.44000 9.635
99.46000 6.586
99.48000 11.137
99.50000 11.174
99.52000 8.190
99.54000 6.743
99.56000 1.571
99.58000 9.536
99.60000 7.476
99.62000 4.944
99.64000 18.904
99.66000 16.224
99.68000 8.513
99.70000 7.502
99.72000 12.768
99.74000 14.570
99.76000 20.821
99.78000 13.455
99.80000 9.007
99.82000 15.975
99.84000 16.004
99.86000 13.197
99.88000 14.130
99.90000 5.762
99.92000 10.339
99.94000 9.311
99.96000 12.002
99.98000 0.000
