'Id: "0011389" Comment: "Integrate frame 0011389_Au-Ir-Rh_Au-Rich_XRD_Mapping-062-0000.gfrmwith cursor Wedge Cursor #5" Operator: "B?rgel" Anode: "Cu" Wavelength: "1.5406" Scantype: "2Theta (TwoTheta)" TimePerStep: "1" X: "-13.5" Y: "-22.5" Z: "5.95" 
10.00000 0.000
10.02000 3.825
10.04000 2.321
10.06000 -4.398
10.08000 -4.393
10.10000 8.077
10.12000 20.321
10.14000 21.719
10.16000 4.360
10.18000 3.793
10.20000 7.337
10.22000 5.905
10.24000 4.521
10.26000 13.535
10.28000 12.426
10.30000 18.961
10.32000 10.537
10.34000 3.869
10.36000 15.001
10.38000 -9.777
10.40000 6.148
10.42000 6.639
10.44000 15.426
10.46000 21.842
10.48000 14.165
10.50000 3.719
10.52000 13.299
10.54000 0.900
10.56000 6.006
10.58000 8.968
10.60000 3.528
10.62000 16.085
10.64000 12.601
10.66000 6.977
10.68000 13.158
10.70000 6.597
10.72000 10.077
10.74000 20.509
10.76000 11.048
10.78000 13.765
10.80000 11.862
10.82000 4.277
10.84000 4.640
10.86000 0.882
10.88000 -0.333
10.90000 5.253
10.92000 20.962
10.94000 21.632
10.96000 14.118
10.98000 10.337
11.00000 6.135
11.02000 5.550
11.04000 19.346
11.06000 19.188
11.08000 21.097
11.10000 19.363
11.12000 1.780
11.14000 -4.432
11.16000 7.481
11.18000 12.665
11.20000 9.790
11.22000 5.264
11.24000 15.816
11.26000 18.966
11.28000 11.538
11.30000 13.879
11.32000 4.383
11.34000 1.413
11.36000 9.330
11.38000 5.310
11.40000 19.521
11.42000 14.858
11.44000 8.304
11.46000 21.526
11.48000 10.828
11.50000 -1.598
11.52000 0.002
11.54000 1.660
11.56000 -1.835
11.58000 11.100
11.60000 -1.286
11.62000 6.695
11.64000 11.202
11.66000 -2.191
11.68000 0.272
11.70000 6.325
11.72000 -1.248
11.74000 3.217
11.76000 13.017
11.78000 14.468
11.80000 9.038
11.82000 2.235
11.84000 3.443
11.86000 3.369
11.88000 7.561
11.90000 13.497
11.92000 1.705
11.94000 2.337
11.96000 3.116
11.98000 -0.774
12.00000 3.327
12.02000 7.385
12.04000 2.135
12.06000 12.094
12.08000 19.815
12.10000 12.108
12.12000 13.625
12.14000 4.409
12.16000 8.076
12.18000 15.812
12.20000 17.838
12.22000 14.934
12.24000 8.275
12.26000 3.648
12.28000 11.289
12.30000 16.539
12.32000 13.394
12.34000 8.402
12.36000 4.153
12.38000 13.770
12.40000 14.300
12.42000 4.100
12.44000 13.005
12.46000 27.889
12.48000 25.715
12.50000 16.575
12.52000 17.041
12.54000 6.716
12.56000 7.808
12.58000 4.594
12.60000 6.343
12.62000 4.075
12.64000 2.634
12.66000 2.994
12.68000 -3.918
12.70000 -3.960
12.72000 2.213
12.74000 -1.847
12.76000 -0.140
12.78000 4.962
12.80000 6.037
12.82000 -1.541
12.84000 7.220
12.86000 9.880
12.88000 0.418
12.90000 -1.427
12.92000 -0.615
12.94000 5.446
12.96000 7.742
12.98000 1.724
13.00000 7.781
13.02000 12.002
13.04000 11.245
13.06000 9.607
13.08000 1.548
13.10000 -1.746
13.12000 8.599
13.14000 6.739
13.16000 7.500
13.18000 3.686
13.20000 -4.488
13.22000 -2.275
13.24000 -2.574
13.26000 3.899
13.28000 15.197
13.30000 19.256
13.32000 12.723
13.34000 11.069
13.36000 7.929
13.38000 5.073
13.40000 0.607
13.42000 8.835
13.44000 2.361
13.46000 6.567
13.48000 6.131
13.50000 6.983
13.52000 14.249
13.54000 19.351
13.56000 2.342
13.58000 -4.479
13.60000 3.018
13.62000 13.825
13.64000 13.843
13.66000 4.779
13.68000 16.212
13.70000 16.524
13.72000 5.536
13.74000 -2.967
13.76000 -2.552
13.78000 -1.553
13.80000 2.650
13.82000 6.815
13.84000 9.925
13.86000 6.739
13.88000 8.468
13.90000 5.312
13.92000 6.580
13.94000 6.767
13.96000 6.973
13.98000 13.665
14.00000 13.574
14.02000 4.389
14.04000 2.318
14.06000 8.023
14.08000 14.839
14.10000 16.922
14.12000 17.870
14.14000 18.106
14.16000 1.843
14.18000 -0.135
14.20000 4.293
14.22000 6.562
14.24000 14.886
14.26000 14.446
14.28000 12.477
14.30000 15.625
14.32000 13.055
14.34000 7.422
14.36000 6.675
14.38000 4.519
14.40000 9.168
14.42000 14.726
14.44000 12.328
14.46000 7.879
14.48000 9.895
14.50000 13.645
14.52000 13.516
14.54000 16.813
14.56000 13.748
14.58000 11.875
14.60000 14.107
14.62000 10.431
14.64000 7.700
14.66000 10.821
14.68000 6.934
14.70000 7.486
14.72000 8.466
14.74000 13.029
14.76000 17.926
14.78000 10.771
14.80000 5.278
14.82000 15.302
14.84000 2.889
14.86000 -1.394
14.88000 7.193
14.90000 5.497
14.92000 4.373
14.94000 10.295
14.96000 8.376
14.98000 8.630
15.00000 8.911
15.02000 1.017
15.04000 7.928
15.06000 7.632
15.08000 11.742
15.10000 12.233
15.12000 13.449
15.14000 17.130
15.16000 16.938
15.18000 16.545
15.20000 10.375
15.22000 7.808
15.24000 -4.387
15.26000 -4.387
15.28000 9.884
15.30000 17.724
15.32000 18.901
15.34000 8.564
15.36000 9.205
15.38000 17.620
15.40000 12.756
15.42000 15.252
15.44000 15.385
15.46000 12.897
15.48000 11.506
15.50000 12.409
15.52000 10.996
15.54000 16.935
15.56000 19.842
15.58000 13.878
15.60000 6.859
15.62000 4.851
15.64000 9.263
15.66000 16.198
15.68000 14.265
15.70000 7.636
15.72000 4.075
15.74000 8.113
15.76000 12.572
15.78000 16.284
15.80000 13.339
15.82000 14.262
15.84000 10.095
15.86000 2.173
15.88000 14.052
15.90000 14.478
15.92000 18.349
15.94000 7.635
15.96000 8.300
15.98000 13.898
16.00000 7.946
16.02000 7.396
16.04000 10.796
16.06000 13.019
16.08000 5.961
16.10000 10.494
16.12000 12.306
16.14000 10.403
16.16000 9.991
16.18000 9.356
16.20000 12.505
16.22000 21.209
16.24000 16.566
16.26000 8.772
16.28000 12.550
16.30000 12.670
16.32000 10.682
16.34000 11.482
16.36000 13.621
16.38000 8.414
16.40000 12.119
16.42000 2.828
16.44000 1.231
16.46000 0.943
16.48000 -4.350
16.50000 -3.314
16.52000 0.623
16.54000 11.736
16.56000 15.154
16.58000 13.822
16.60000 11.481
16.62000 12.820
16.64000 12.000
16.66000 9.684
16.68000 8.981
16.70000 18.013
16.72000 24.516
16.74000 22.560
16.76000 19.334
16.78000 14.053
16.80000 6.862
16.82000 7.103
16.84000 8.346
16.86000 11.821
16.88000 22.187
16.90000 12.261
16.92000 11.402
16.94000 16.133
16.96000 13.480
16.98000 12.812
17.00000 7.907
17.02000 11.595
17.04000 17.485
17.06000 10.446
17.08000 10.577
17.10000 8.574
17.12000 8.873
17.14000 16.336
17.16000 12.613
17.18000 12.114
17.20000 3.042
17.22000 6.261
17.24000 16.057
17.26000 12.667
17.28000 10.670
17.30000 10.228
17.32000 8.971
17.34000 9.185
17.36000 9.563
17.38000 14.738
17.40000 8.567
17.42000 8.940
17.44000 12.672
17.46000 12.458
17.48000 8.063
17.50000 10.454
17.52000 12.541
17.54000 18.848
17.56000 12.949
17.58000 8.973
17.60000 5.904
17.62000 1.026
17.64000 1.424
17.66000 4.847
17.68000 6.584
17.70000 5.847
17.72000 7.317
17.74000 7.729
17.76000 7.328
17.78000 10.534
17.80000 12.489
17.82000 13.282
17.84000 15.327
17.86000 21.674
17.88000 14.324
17.90000 8.181
17.92000 15.353
17.94000 14.528
17.96000 4.390
17.98000 5.820
18.00000 5.261
18.02000 6.566
18.04000 5.572
18.06000 4.862
18.08000 7.672
18.10000 8.820
18.12000 10.517
18.14000 12.169
18.16000 5.836
18.18000 13.968
18.20000 13.144
18.22000 11.288
18.24000 7.410
18.26000 -4.262
18.28000 3.716
18.30000 5.634
18.32000 5.860
18.34000 5.433
18.36000 8.792
18.38000 9.348
18.40000 8.899
18.42000 5.759
18.44000 6.516
18.46000 6.098
18.48000 10.703
18.50000 10.613
18.52000 8.591
18.54000 13.817
18.56000 9.184
18.58000 8.193
18.60000 13.401
18.62000 7.712
18.64000 1.896
18.66000 2.194
18.68000 7.975
18.70000 8.631
18.72000 7.398
18.74000 10.901
18.76000 11.736
18.78000 9.657
18.80000 8.598
18.82000 8.730
18.84000 9.116
18.86000 14.197
18.88000 7.735
18.90000 2.341
18.92000 11.457
18.94000 13.987
18.96000 10.234
18.98000 7.467
19.00000 3.503
19.02000 7.946
19.04000 7.722
19.06000 3.717
19.08000 8.754
19.10000 5.775
19.12000 -1.067
19.14000 -4.231
19.16000 7.705
19.18000 17.028
19.20000 17.329
19.22000 11.134
19.24000 5.391
19.26000 6.539
19.28000 2.868
19.30000 0.588
19.32000 4.177
19.34000 5.646
19.36000 6.788
19.38000 11.765
19.40000 11.851
19.42000 9.531
19.44000 6.451
19.46000 -1.874
19.48000 -2.326
19.50000 0.050
19.52000 4.229
19.54000 9.151
19.56000 10.685
19.58000 6.248
19.60000 4.797
19.62000 -0.634
19.64000 5.545
19.66000 7.102
19.68000 2.989
19.70000 2.895
19.72000 3.757
19.74000 5.889
19.76000 5.905
19.78000 7.827
19.80000 5.095
19.82000 0.987
19.84000 2.308
19.86000 1.232
19.88000 -0.165
19.90000 3.867
19.92000 7.684
19.94000 8.938
19.96000 6.446
19.98000 0.692
20.00000 7.589
20.02000 1.815
20.04000 4.540
20.06000 7.838
20.08000 8.863
20.10000 8.087
20.12000 1.129
20.14000 5.877
20.16000 8.941
20.18000 9.715
20.20000 4.101
20.22000 6.904
20.24000 11.176
20.26000 8.771
20.28000 10.650
20.30000 8.517
20.32000 0.792
20.34000 2.106
20.36000 9.348
20.38000 13.436
20.40000 9.486
20.42000 5.756
20.44000 8.937
20.46000 4.408
20.48000 3.883
20.50000 5.290
20.52000 5.047
20.54000 8.097
20.56000 1.057
20.58000 2.084
20.60000 3.442
20.62000 4.403
20.64000 -1.062
20.66000 -4.138
20.68000 2.301
20.70000 8.460
20.72000 10.392
20.74000 8.464
20.76000 6.925
20.78000 7.354
20.80000 4.239
20.82000 8.279
20.84000 8.802
20.86000 10.819
20.88000 12.383
20.90000 9.408
20.92000 10.247
20.94000 10.783
20.96000 8.332
20.98000 4.779
21.00000 10.683
21.02000 17.625
21.04000 8.072
21.06000 6.487
21.08000 7.473
21.10000 4.714
21.12000 7.146
21.14000 4.473
21.16000 4.604
21.18000 3.930
21.20000 -1.694
21.22000 0.861
21.24000 4.708
21.26000 -0.089
21.28000 -1.020
21.30000 3.318
21.32000 8.303
21.34000 6.567
21.36000 5.923
21.38000 8.693
21.40000 8.193
21.42000 3.262
21.44000 0.536
21.46000 -4.101
21.48000 4.742
21.50000 9.533
21.52000 9.447
21.54000 8.311
21.56000 10.715
21.58000 11.802
21.60000 13.035
21.62000 7.215
21.64000 4.142
21.66000 7.036
21.68000 5.468
21.70000 5.508
21.72000 4.205
21.74000 12.299
21.76000 8.012
21.78000 12.557
21.80000 9.389
21.82000 5.875
21.84000 5.180
21.86000 2.093
21.88000 1.098
21.90000 7.020
21.92000 15.297
21.94000 12.222
21.96000 7.969
21.98000 4.631
22.00000 7.708
22.02000 8.729
22.04000 6.989
22.06000 1.244
22.08000 0.898
22.10000 5.958
22.12000 1.987
22.14000 2.973
22.16000 14.170
22.18000 11.788
22.20000 4.304
22.22000 4.041
22.24000 1.901
22.26000 2.692
22.28000 4.045
22.30000 6.041
22.32000 6.261
22.34000 4.864
22.36000 9.595
22.38000 10.810
22.40000 5.126
22.42000 5.511
22.44000 8.755
22.46000 7.339
22.48000 11.174
22.50000 7.815
22.52000 2.099
22.54000 9.995
22.56000 6.663
22.58000 -0.912
22.60000 -4.022
22.62000 0.740
22.64000 9.760
22.66000 8.426
22.68000 5.462
22.70000 8.564
22.72000 8.073
22.74000 5.460
22.76000 7.662
22.78000 9.641
22.80000 15.224
22.82000 13.259
22.84000 10.913
22.86000 6.749
22.88000 2.158
22.90000 1.500
22.92000 4.450
22.94000 6.327
22.96000 7.264
22.98000 7.824
23.00000 3.763
23.02000 0.430
23.04000 1.442
23.06000 3.447
23.08000 1.182
23.10000 2.676
23.12000 3.195
23.14000 1.382
23.16000 -0.160
23.18000 3.594
23.20000 7.903
23.22000 5.782
23.24000 6.319
23.26000 1.650
23.28000 3.084
23.30000 4.573
23.32000 3.537
23.34000 8.093
23.36000 10.046
23.38000 8.322
23.40000 12.203
23.42000 12.069
23.44000 7.070
23.46000 8.221
23.48000 7.400
23.50000 9.179
23.52000 10.669
23.54000 7.223
23.56000 -0.097
23.58000 -2.037
23.60000 5.010
23.62000 5.430
23.64000 12.391
23.66000 7.345
23.68000 6.975
23.70000 7.500
23.72000 2.480
23.74000 -2.816
23.76000 5.542
23.78000 6.087
23.80000 5.740
23.82000 2.684
23.84000 6.237
23.86000 10.271
23.88000 7.122
23.90000 2.535
23.92000 -1.224
23.94000 1.851
23.96000 3.692
23.98000 -0.387
24.00000 4.332
24.02000 5.519
24.04000 11.022
24.06000 8.248
24.08000 7.102
24.10000 11.128
24.12000 7.765
24.14000 -2.081
24.16000 1.895
24.18000 -1.575
24.20000 1.017
24.22000 -0.936
24.24000 4.523
24.26000 7.078
24.28000 6.114
24.30000 4.331
24.32000 3.165
24.34000 3.929
24.36000 1.629
24.38000 2.390
24.40000 7.323
24.42000 6.701
24.44000 4.405
24.46000 -3.956
24.48000 -0.417
24.50000 8.383
24.52000 6.879
24.54000 7.789
24.56000 3.085
24.58000 -0.088
24.60000 3.514
24.62000 -0.080
24.64000 1.133
24.66000 1.030
24.68000 6.116
24.70000 0.163
24.72000 5.686
24.74000 7.285
24.76000 4.335
24.78000 2.302
24.80000 -0.845
24.82000 4.500
24.84000 7.928
24.86000 2.523
24.88000 -2.443
24.90000 -2.421
24.92000 0.679
24.94000 3.550
24.96000 3.224
24.98000 4.800
25.00000 6.339
25.02000 -0.792
25.04000 -0.818
25.06000 2.838
25.08000 4.331
25.10000 1.245
25.12000 2.123
25.14000 4.004
25.16000 13.883
25.18000 10.903
25.20000 5.120
25.22000 -1.176
25.24000 -3.917
25.26000 2.985
25.28000 12.187
25.30000 6.581
25.32000 5.807
25.34000 1.619
25.36000 -1.777
25.38000 0.495
25.40000 6.279
25.42000 5.482
25.44000 2.048
25.46000 1.915
25.48000 -2.081
25.50000 -0.658
25.52000 -1.710
25.54000 1.787
25.56000 -0.817
25.58000 -0.525
25.60000 10.195
25.62000 1.358
25.64000 2.109
25.66000 6.901
25.68000 5.199
25.70000 2.825
25.72000 0.251
25.74000 4.600
25.76000 5.446
25.78000 0.402
25.80000 1.482
25.82000 3.495
25.84000 3.167
25.86000 7.946
25.88000 1.755
25.90000 -1.645
25.92000 1.476
25.94000 8.784
25.96000 6.501
25.98000 -3.278
26.00000 1.176
26.02000 1.665
26.04000 3.090
26.06000 5.361
26.08000 5.882
26.10000 10.455
26.12000 10.644
26.14000 5.144
26.16000 -3.233
26.18000 1.796
26.20000 6.302
26.22000 4.058
26.24000 11.340
26.26000 3.036
26.28000 -0.169
26.30000 0.534
26.32000 -0.697
26.34000 -0.204
26.36000 -1.787
26.38000 3.121
26.40000 2.167
26.42000 5.452
26.44000 -1.019
26.46000 -0.322
26.48000 2.009
26.50000 3.411
26.52000 1.797
26.54000 1.093
26.56000 3.170
26.58000 6.958
26.60000 7.420
26.62000 5.345
26.64000 -1.334
26.66000 0.332
26.68000 7.115
26.70000 6.817
26.72000 2.254
26.74000 1.450
26.76000 6.190
26.78000 7.876
26.80000 5.723
26.82000 5.911
26.84000 1.413
26.86000 1.642
26.88000 5.256
26.90000 6.299
26.92000 0.392
26.94000 4.997
26.96000 10.864
26.98000 4.127
27.00000 -1.848
27.02000 2.509
27.04000 8.107
27.06000 5.710
27.08000 1.502
27.10000 3.157
27.12000 6.011
27.14000 5.708
27.16000 1.333
27.18000 4.710
27.20000 4.202
27.22000 9.144
27.24000 11.019
27.26000 9.433
27.28000 5.127
27.30000 10.840
27.32000 9.337
27.34000 5.873
27.36000 4.424
27.38000 -1.258
27.40000 1.091
27.42000 2.260
27.44000 5.126
27.46000 6.587
27.48000 11.495
27.50000 12.660
27.52000 5.664
27.54000 5.872
27.56000 5.033
27.58000 5.062
27.60000 8.682
27.62000 4.762
27.64000 -3.751
27.66000 -3.325
27.68000 5.525
27.70000 5.565
27.72000 7.679
27.74000 11.222
27.76000 7.344
27.78000 8.183
27.80000 6.646
27.82000 7.473
27.84000 2.441
27.86000 5.420
27.88000 4.025
27.90000 3.084
27.92000 10.338
27.94000 5.423
27.96000 4.869
27.98000 3.056
28.00000 3.618
28.02000 7.739
28.04000 10.638
28.06000 8.652
28.08000 5.509
28.10000 4.160
28.12000 4.921
28.14000 5.697
28.16000 3.943
28.18000 8.846
28.20000 6.018
28.22000 2.560
28.24000 3.485
28.26000 7.095
28.28000 -0.731
28.30000 -2.235
28.32000 5.914
28.34000 10.276
28.36000 6.753
28.38000 5.248
28.40000 5.816
28.42000 2.104
28.44000 3.667
28.46000 4.152
28.48000 2.645
28.50000 4.897
28.52000 5.768
28.54000 12.016
28.56000 5.285
28.58000 0.491
28.60000 0.491
28.62000 -0.337
28.64000 1.153
28.66000 1.151
28.68000 -1.226
28.70000 -2.409
28.72000 0.178
28.74000 6.223
28.76000 0.317
28.78000 -1.711
28.80000 1.423
28.82000 5.934
28.84000 8.877
28.86000 5.114
28.88000 6.189
28.90000 6.777
28.92000 0.906
28.94000 -0.348
28.96000 -0.129
28.98000 0.009
29.00000 -1.863
29.02000 0.442
29.04000 1.876
29.06000 5.962
29.08000 9.552
29.10000 -1.315
29.12000 2.940
29.14000 0.500
29.16000 -0.393
29.18000 3.455
29.20000 0.444
29.22000 0.276
29.24000 1.934
29.26000 7.667
29.28000 6.777
29.30000 3.996
29.32000 3.367
29.34000 0.230
29.36000 3.450
29.38000 4.061
29.40000 1.045
29.42000 -0.534
29.44000 2.677
29.46000 2.550
29.48000 -0.614
29.50000 1.829
29.52000 3.794
29.54000 3.918
29.56000 2.335
29.58000 -0.290
29.60000 1.501
29.62000 2.959
29.64000 -2.148
29.66000 2.636
29.68000 4.169
29.70000 6.537
29.72000 1.413
29.74000 -3.690
29.76000 1.985
29.78000 3.128
29.80000 0.268
29.82000 4.973
29.84000 5.451
29.86000 2.308
29.88000 3.356
29.90000 5.226
29.92000 2.839
29.94000 -3.455
29.96000 -2.101
29.98000 -0.012
30.00000 -0.211
30.02000 -0.767
30.04000 1.212
30.06000 0.169
30.08000 -0.813
30.10000 1.859
30.12000 1.386
30.14000 1.001
30.16000 -0.574
30.18000 1.643
30.20000 -1.563
30.22000 -1.096
30.24000 5.159
30.26000 3.824
30.28000 0.846
30.30000 3.469
30.32000 2.708
30.34000 0.481
30.36000 1.931
30.38000 1.039
30.40000 1.475
30.42000 0.596
30.44000 4.996
30.46000 2.290
30.48000 2.464
30.50000 6.138
30.52000 6.293
30.54000 2.600
30.56000 5.999
30.58000 7.964
30.60000 3.345
30.62000 1.293
30.64000 5.092
30.66000 5.636
30.68000 2.043
30.70000 5.674
30.72000 4.928
30.74000 3.956
30.76000 11.246
30.78000 5.994
30.80000 1.155
30.82000 0.996
30.84000 2.211
30.86000 4.128
30.88000 0.992
30.90000 -3.217
30.92000 -3.646
30.94000 -1.716
30.96000 4.544
30.98000 8.242
31.00000 9.565
31.02000 8.061
31.04000 5.673
31.06000 6.765
31.08000 3.565
31.10000 2.722
31.12000 6.277
31.14000 2.589
31.16000 -2.290
31.18000 1.528
31.20000 4.043
31.22000 6.379
31.24000 2.406
31.26000 5.284
31.28000 3.983
31.30000 6.335
31.32000 0.325
31.34000 -3.286
31.36000 -3.614
31.38000 -2.297
31.40000 3.942
31.42000 1.304
31.44000 -0.342
31.46000 4.966
31.48000 7.475
31.50000 12.104
31.52000 10.815
31.54000 6.919
31.56000 4.602
31.58000 -0.632
31.60000 1.583
31.62000 5.206
31.64000 6.395
31.66000 6.221
31.68000 3.480
31.70000 -1.077
31.72000 2.322
31.74000 4.001
31.76000 1.565
31.78000 1.757
31.80000 7.760
31.82000 1.515
31.84000 5.488
31.86000 4.768
31.88000 4.633
31.90000 5.313
31.92000 4.599
31.94000 7.444
31.96000 8.005
31.98000 5.061
32.00000 2.850
32.02000 4.223
32.04000 1.626
32.06000 2.094
32.08000 4.106
32.10000 0.638
32.12000 0.639
32.14000 2.190
32.16000 2.769
32.18000 1.913
32.20000 3.135
32.22000 6.036
32.24000 3.176
32.26000 0.893
32.28000 2.987
32.30000 2.075
32.32000 -2.311
32.34000 0.960
32.36000 4.315
32.38000 5.964
32.40000 2.811
32.42000 3.834
32.44000 1.941
32.46000 0.488
32.48000 0.934
32.50000 0.880
32.52000 -0.434
32.54000 4.657
32.56000 1.917
32.58000 2.518
32.60000 1.615
32.62000 -1.169
32.64000 -3.571
32.66000 0.309
32.68000 -0.776
32.70000 -0.578
32.72000 2.284
32.74000 1.019
32.76000 1.388
32.78000 4.154
32.80000 2.340
32.82000 1.609
32.84000 -0.974
32.86000 1.812
32.88000 3.674
32.90000 4.936
32.92000 -1.967
32.94000 -1.556
32.96000 2.954
32.98000 0.546
33.00000 3.608
33.02000 2.200
33.04000 1.993
33.06000 3.137
33.08000 2.513
33.10000 -0.175
33.12000 -3.584
33.14000 -0.980
33.16000 -0.853
33.18000 -0.510
33.20000 2.652
33.22000 10.738
33.24000 5.589
33.26000 0.799
33.28000 -0.450
33.30000 1.583
33.32000 -0.632
33.34000 -1.623
33.36000 3.822
33.38000 1.138
33.40000 -0.880
33.42000 -2.592
33.44000 -1.890
33.46000 2.888
33.48000 1.352
33.50000 2.366
33.52000 -0.594
33.54000 -1.125
33.56000 3.044
33.58000 1.987
33.60000 1.142
33.62000 3.535
33.64000 3.090
33.66000 0.962
33.68000 4.803
33.70000 1.264
33.72000 4.886
33.74000 5.336
33.76000 -0.455
33.78000 1.718
33.80000 4.296
33.82000 3.953
33.84000 0.543
33.86000 2.434
33.88000 5.634
33.90000 6.645
33.92000 -0.810
33.94000 0.342
33.96000 0.195
33.98000 2.858
34.00000 0.450
34.02000 -0.526
34.04000 2.952
34.06000 5.107
34.08000 3.270
34.10000 4.863
34.12000 3.968
34.14000 1.069
34.16000 6.434
34.18000 8.011
34.20000 9.558
34.22000 8.530
34.24000 -0.310
34.26000 2.573
34.28000 0.439
34.30000 1.764
34.32000 2.523
34.34000 0.510
34.36000 1.091
34.38000 4.991
34.40000 1.173
34.42000 -0.581
34.44000 1.205
34.46000 1.311
34.48000 2.174
34.50000 1.773
34.52000 6.260
34.54000 7.682
34.56000 8.820
34.58000 5.191
34.60000 -0.936
34.62000 0.004
34.64000 4.818
34.66000 2.194
34.68000 0.094
34.70000 -3.545
34.72000 -2.017
34.74000 1.658
34.76000 4.353
34.78000 1.537
34.80000 1.799
34.82000 -0.457
34.84000 -1.190
34.86000 0.067
34.88000 2.263
34.90000 -0.419
34.92000 1.380
34.94000 0.349
34.96000 -1.458
34.98000 -1.280
35.00000 4.546
35.02000 1.224
35.04000 -1.163
35.06000 0.735
35.08000 3.307
35.10000 -2.076
35.12000 1.317
35.14000 4.797
35.16000 3.728
35.18000 3.030
35.20000 4.395
35.22000 3.718
35.24000 4.327
35.26000 5.759
35.28000 6.918
35.30000 2.590
35.32000 -3.188
35.34000 0.014
35.36000 3.323
35.38000 1.168
35.40000 3.146
35.42000 6.118
35.44000 4.056
35.46000 1.994
35.48000 -1.741
35.50000 -3.467
35.52000 -3.534
35.54000 3.427
35.56000 0.878
35.58000 0.508
35.60000 0.717
35.62000 4.834
35.64000 3.501
35.66000 2.742
35.68000 1.751
35.70000 -0.645
35.72000 1.840
35.74000 4.391
35.76000 -2.068
35.78000 -0.826
35.80000 3.009
35.82000 5.454
35.84000 8.180
35.86000 8.314
35.88000 3.696
35.90000 7.598
35.92000 5.267
35.94000 -3.568
35.96000 2.067
35.98000 4.672
36.00000 4.322
36.02000 3.557
36.04000 2.114
36.06000 1.078
36.08000 -1.063
36.10000 0.298
36.12000 2.075
36.14000 2.998
36.16000 -1.244
36.18000 -2.945
36.20000 1.974
36.22000 2.052
36.24000 2.947
36.26000 6.765
36.28000 3.228
36.30000 1.731
36.32000 -2.274
36.34000 -2.991
36.36000 0.811
36.38000 1.231
36.40000 3.923
36.42000 4.807
36.44000 1.392
36.46000 2.361
36.48000 -3.598
36.50000 -2.425
36.52000 1.522
36.54000 5.626
36.56000 3.760
36.58000 4.772
36.60000 3.015
36.62000 2.172
36.64000 3.964
36.66000 0.063
36.68000 4.636
36.70000 4.015
36.72000 6.251
36.74000 3.936
36.76000 -0.764
36.78000 -3.624
36.80000 3.069
36.82000 3.526
36.84000 2.618
36.86000 3.586
36.88000 2.243
36.90000 3.046
36.92000 1.973
36.94000 0.135
36.96000 4.896
36.98000 10.547
37.00000 1.348
37.02000 -0.559
37.04000 3.329
37.06000 2.223
37.08000 2.724
37.10000 -3.286
37.12000 -0.158
37.14000 5.906
37.16000 2.555
37.18000 1.697
37.20000 2.674
37.22000 8.531
37.24000 6.046
37.26000 6.639
37.28000 6.923
37.30000 2.090
37.32000 6.132
37.34000 7.382
37.36000 5.531
37.38000 -0.250
37.40000 3.204
37.42000 5.529
37.44000 8.624
37.46000 4.940
37.48000 8.189
37.50000 14.135
37.52000 11.097
37.54000 9.286
37.56000 4.794
37.58000 5.390
37.60000 10.727
37.62000 14.745
37.64000 14.941
37.66000 5.401
37.68000 2.876
37.70000 8.722
37.72000 7.814
37.74000 10.571
37.76000 11.332
37.78000 12.978
37.80000 13.174
37.82000 15.857
37.84000 18.594
37.86000 20.322
37.88000 17.484
37.90000 16.124
37.92000 14.273
37.94000 13.459
37.96000 14.008
37.98000 19.596
38.00000 24.518
38.02000 27.346
38.04000 29.095
38.06000 24.142
38.08000 25.187
38.10000 25.643
38.12000 26.899
38.14000 25.023
38.16000 22.578
38.18000 26.326
38.20000 30.223
38.22000 32.123
38.24000 34.299
38.26000 30.941
38.28000 32.063
38.30000 33.386
38.32000 34.373
38.34000 39.201
38.36000 43.425
38.38000 42.427
38.40000 37.732
38.42000 40.230
38.44000 38.261
38.46000 42.238
38.48000 50.003
38.50000 51.930
38.52000 55.197
38.54000 52.593
38.56000 52.498
38.58000 54.208
38.60000 60.064
38.62000 62.662
38.64000 60.829
38.66000 64.660
38.68000 70.668
38.70000 79.441
38.72000 80.275
38.74000 80.979
38.76000 81.374
38.78000 86.158
38.80000 98.279
38.82000 101.824
38.84000 103.994
38.86000 108.616
38.88000 117.881
38.90000 128.277
38.92000 127.331
38.94000 131.538
38.96000 147.879
38.98000 151.617
39.00000 156.190
39.02000 172.255
39.04000 189.497
39.06000 198.533
39.08000 205.781
39.10000 218.323
39.12000 234.971
39.14000 242.191
39.16000 260.157
39.18000 275.300
39.20000 292.475
39.22000 309.663
39.24000 335.968
39.26000 350.798
39.28000 365.900
39.30000 390.224
39.32000 417.231
39.34000 434.679
39.36000 457.099
39.38000 481.403
39.40000 508.363
39.42000 528.296
39.44000 549.231
39.46000 571.585
39.48000 599.941
39.50000 613.430
39.52000 634.758
39.54000 651.201
39.56000 670.291
39.58000 685.217
39.60000 687.865
39.62000 693.989
39.64000 706.853
39.66000 705.870
39.68000 707.859
39.70000 704.141
39.72000 695.927
39.74000 691.803
39.76000 687.216
39.78000 658.310
39.80000 648.650
39.82000 627.440
39.84000 616.086
39.86000 598.682
39.88000 578.301
39.90000 567.500
39.92000 551.008
39.94000 523.931
39.96000 497.495
39.98000 472.607
40.00000 444.222
40.02000 412.293
40.04000 394.362
40.06000 378.721
40.08000 355.611
40.10000 333.928
40.12000 319.912
40.14000 293.972
40.16000 275.364
40.18000 263.460
40.20000 242.691
40.22000 232.708
40.24000 224.228
40.26000 205.722
40.28000 195.600
40.30000 180.200
40.32000 165.303
40.34000 156.043
40.36000 137.975
40.38000 128.465
40.40000 127.888
40.42000 116.706
40.44000 112.245
40.46000 107.322
40.48000 102.464
40.50000 92.178
40.52000 88.174
40.54000 81.426
40.56000 78.958
40.58000 78.050
40.60000 69.798
40.62000 60.477
40.64000 60.702
40.66000 55.342
40.68000 51.579
40.70000 46.845
40.72000 45.127
40.74000 42.352
40.76000 39.491
40.78000 42.525
40.80000 40.207
40.82000 35.234
40.84000 35.638
40.86000 36.230
40.88000 32.204
40.90000 33.576
40.92000 32.871
40.94000 26.115
40.96000 22.829
40.98000 19.556
41.00000 20.131
41.02000 17.743
41.04000 18.144
41.06000 19.217
41.08000 18.594
41.10000 21.877
41.12000 21.374
41.14000 19.412
41.16000 17.540
41.18000 16.924
41.20000 12.847
41.22000 11.065
41.24000 12.797
41.26000 10.789
41.28000 12.227
41.30000 11.520
41.32000 11.494
41.34000 9.229
41.36000 9.257
41.38000 7.352
41.40000 4.467
41.42000 4.715
41.44000 7.338
41.46000 5.611
41.48000 5.024
41.50000 8.917
41.52000 5.099
41.54000 3.873
41.56000 4.832
41.58000 6.123
41.60000 3.422
41.62000 1.878
41.64000 4.409
41.66000 6.540
41.68000 4.436
41.70000 0.334
41.72000 1.416
41.74000 6.091
41.76000 6.836
41.78000 3.843
41.80000 5.165
41.82000 4.213
41.84000 -1.507
41.86000 -3.448
41.88000 -0.121
41.90000 -3.353
41.92000 1.253
41.94000 -0.101
41.96000 -1.613
41.98000 -1.388
42.00000 -3.424
42.02000 -0.588
42.04000 2.894
42.06000 2.748
42.08000 1.347
42.10000 2.755
42.12000 4.769
42.14000 4.494
42.16000 4.024
42.18000 4.133
42.20000 3.316
42.22000 3.467
42.24000 0.553
42.26000 -1.177
42.28000 0.515
42.30000 6.154
42.32000 3.563
42.34000 0.333
42.36000 0.210
42.38000 0.420
42.40000 2.014
42.42000 4.151
42.44000 4.987
42.46000 1.345
42.48000 -2.441
42.50000 -3.327
42.52000 1.982
42.54000 1.090
42.56000 1.750
42.58000 -1.400
42.60000 0.567
42.62000 1.376
42.64000 -1.032
42.66000 -1.259
42.68000 2.478
42.70000 1.318
42.72000 1.926
42.74000 4.526
42.76000 3.605
42.78000 3.364
42.80000 1.077
42.82000 -0.063
42.84000 -0.752
42.86000 -2.357
42.88000 0.447
42.90000 2.768
42.92000 1.846
42.94000 2.054
42.96000 1.529
42.98000 3.356
43.00000 1.780
43.02000 2.883
43.04000 4.651
43.06000 4.682
43.08000 4.143
43.10000 2.073
43.12000 -3.249
43.14000 -0.280
43.16000 3.693
43.18000 2.968
43.20000 0.379
43.22000 -1.929
43.24000 -0.302
43.26000 -0.034
43.28000 -0.114
43.30000 -2.203
43.32000 -1.922
43.34000 1.043
43.36000 1.431
43.38000 3.600
43.40000 2.239
43.42000 0.232
43.44000 0.024
43.46000 0.692
43.48000 2.563
43.50000 3.555
43.52000 2.099
43.54000 1.121
43.56000 0.874
43.58000 0.796
43.60000 0.015
43.62000 -0.070
43.64000 -1.289
43.66000 -0.231
43.68000 -2.426
43.70000 -1.522
43.72000 0.241
43.74000 1.947
43.76000 0.991
43.78000 0.299
43.80000 1.427
43.82000 0.295
43.84000 -0.987
43.86000 0.672
43.88000 -0.461
43.90000 -3.179
43.92000 -0.629
43.94000 -0.553
43.96000 -3.151
43.98000 -2.844
44.00000 0.053
44.02000 -1.099
44.04000 1.929
44.06000 -0.231
44.08000 0.279
44.10000 -1.132
44.12000 -0.818
44.14000 -0.859
44.16000 1.730
44.18000 3.946
44.20000 0.906
44.22000 -2.936
44.24000 -0.380
44.26000 2.113
44.28000 1.869
44.30000 0.350
44.32000 2.143
44.34000 3.127
44.36000 -1.309
44.38000 -0.143
44.40000 0.815
44.42000 -1.418
44.44000 -0.434
44.46000 1.615
44.48000 -0.842
44.50000 -1.974
44.52000 -2.899
44.54000 -0.285
44.56000 -3.180
44.58000 -3.170
44.60000 1.639
44.62000 2.503
44.64000 -1.976
44.66000 -1.495
44.68000 -0.152
44.70000 -1.110
44.72000 -0.115
44.74000 -0.858
44.76000 -1.118
44.78000 0.578
44.80000 -1.463
44.82000 0.577
44.84000 5.397
44.86000 4.994
44.88000 3.303
44.90000 0.188
44.92000 -1.322
44.94000 3.962
44.96000 3.191
44.98000 1.609
45.00000 0.868
45.02000 2.806
45.04000 4.195
45.06000 3.565
45.08000 -0.022
45.10000 -3.165
45.12000 1.490
45.14000 4.231
45.16000 2.921
45.18000 4.913
45.20000 5.030
45.22000 6.343
45.24000 1.822
45.26000 5.805
45.28000 9.039
45.30000 9.437
45.32000 10.757
45.34000 10.816
45.36000 9.880
45.38000 12.528
45.40000 13.914
45.42000 16.088
45.44000 14.217
45.46000 14.334
45.48000 11.985
45.50000 14.921
45.52000 17.638
45.54000 21.273
45.56000 19.589
45.58000 22.245
45.60000 21.188
45.62000 21.679
45.64000 21.626
45.66000 21.483
45.68000 27.751
45.70000 29.391
45.72000 26.637
45.74000 27.236
45.76000 32.821
45.78000 34.700
45.80000 33.000
45.82000 35.538
45.84000 43.055
45.86000 44.427
45.88000 45.076
45.90000 45.333
45.92000 43.991
45.94000 44.205
45.96000 47.285
45.98000 54.313
46.00000 54.817
46.02000 55.826
46.04000 56.750
46.06000 50.834
46.08000 57.768
46.10000 64.678
46.12000 62.847
46.14000 62.273
46.16000 64.562
46.18000 61.227
46.20000 71.071
46.22000 76.143
46.24000 71.333
46.26000 69.779
46.28000 69.527
46.30000 66.419
46.32000 71.986
46.34000 75.410
46.36000 79.515
46.38000 77.720
46.40000 72.095
46.42000 70.723
46.44000 71.598
46.46000 71.913
46.48000 72.900
46.50000 70.637
46.52000 65.691
46.54000 65.616
46.56000 66.518
46.58000 60.477
46.60000 61.654
46.62000 62.596
46.64000 58.508
46.66000 57.011
46.68000 58.808
46.70000 53.932
46.72000 48.409
46.74000 47.056
46.76000 45.438
46.78000 42.257
46.80000 42.033
46.82000 39.722
46.84000 37.308
46.86000 35.761
46.88000 35.177
46.90000 28.105
46.92000 28.419
46.94000 24.638
46.96000 23.840
46.98000 24.600
47.00000 22.537
47.02000 23.855
47.04000 20.270
47.06000 19.064
47.08000 18.924
47.10000 15.761
47.12000 16.056
47.14000 13.804
47.16000 14.423
47.18000 15.829
47.20000 14.090
47.22000 9.936
47.24000 9.555
47.26000 8.260
47.28000 10.389
47.30000 7.112
47.32000 4.675
47.34000 4.951
47.36000 5.330
47.38000 3.503
47.40000 5.437
47.42000 3.222
47.44000 1.122
47.46000 1.409
47.48000 4.288
47.50000 4.172
47.52000 7.103
47.54000 4.091
47.56000 1.961
47.58000 3.702
47.60000 1.458
47.62000 1.244
47.64000 -2.228
47.66000 -2.422
47.68000 -1.886
47.70000 -1.035
47.72000 -2.020
47.74000 0.051
47.76000 -2.826
47.78000 1.618
47.80000 0.558
47.82000 0.467
47.84000 2.406
47.86000 -1.739
47.88000 -0.812
47.90000 2.211
47.92000 1.033
47.94000 2.530
47.96000 1.496
47.98000 2.749
48.00000 -0.433
48.02000 -1.315
48.04000 -0.136
48.06000 1.148
48.08000 2.097
48.10000 0.552
48.12000 1.112
48.14000 -2.633
48.16000 -2.742
48.18000 3.676
48.20000 -0.447
48.22000 -1.845
48.24000 1.676
48.26000 1.108
48.28000 -0.943
48.30000 -1.857
48.32000 -2.711
48.34000 1.576
48.36000 1.846
48.38000 2.290
48.40000 1.433
48.42000 0.059
48.44000 -0.401
48.46000 -1.399
48.48000 -0.454
48.50000 -1.600
48.52000 -1.465
48.54000 -1.117
48.56000 1.003
48.58000 2.539
48.60000 3.030
48.62000 -0.738
48.64000 -1.284
48.66000 4.592
48.68000 3.340
48.70000 2.871
48.72000 3.316
48.74000 -0.058
48.76000 1.258
48.78000 3.712
48.80000 2.138
48.82000 -1.298
48.84000 -2.669
48.86000 0.963
48.88000 1.269
48.90000 0.907
48.92000 0.773
48.94000 -0.398
48.96000 0.870
48.98000 0.717
49.00000 2.989
49.02000 -0.580
49.04000 0.564
49.06000 4.307
49.08000 5.321
49.10000 1.447
49.12000 -1.519
49.14000 0.759
49.16000 1.194
49.18000 5.522
49.20000 2.859
49.22000 -1.763
49.24000 1.232
49.26000 -1.805
49.28000 -1.621
49.30000 1.048
49.32000 4.431
49.34000 2.691
49.36000 0.934
49.38000 -0.775
49.40000 0.365
49.42000 -0.520
49.44000 0.077
49.46000 0.433
49.48000 1.570
49.50000 0.126
49.52000 0.600
49.54000 -1.511
49.56000 -0.043
49.58000 -2.631
49.60000 -0.990
49.62000 1.924
49.64000 0.793
49.66000 -0.643
49.68000 3.435
49.70000 3.664
49.72000 1.819
49.74000 2.442
49.76000 3.169
49.78000 1.981
49.80000 4.364
49.82000 4.317
49.84000 -0.586
49.86000 -2.351
49.88000 1.381
49.90000 0.891
49.92000 0.474
49.94000 -0.888
49.96000 -2.409
49.98000 0.732
50.00000 -1.161
50.02000 -1.249
50.04000 -2.420
50.06000 3.757
50.08000 2.836
50.10000 1.122
50.12000 0.124
50.14000 -0.202
50.16000 0.716
50.18000 1.409
50.20000 1.712
50.22000 0.351
50.24000 3.422
50.26000 2.520
50.28000 -0.115
50.30000 1.205
50.32000 2.341
50.34000 3.644
50.36000 3.839
50.38000 -0.582
50.40000 1.369
50.42000 1.799
50.44000 -1.609
50.46000 1.406
50.48000 0.603
50.50000 -2.575
50.52000 1.003
50.54000 1.607
50.56000 -0.114
50.58000 1.181
50.60000 -1.467
50.62000 0.857
50.64000 -1.449
50.66000 -0.106
50.68000 1.287
50.70000 2.139
50.72000 -0.041
50.74000 -2.304
50.76000 -0.741
50.78000 -0.239
50.80000 1.934
50.82000 4.212
50.84000 1.228
50.86000 -2.564
50.88000 1.380
50.90000 0.171
50.92000 2.953
50.94000 1.582
50.96000 1.331
50.98000 -1.380
51.00000 -1.203
51.02000 -1.998
51.04000 0.083
51.06000 0.407
51.08000 -1.628
51.10000 -1.117
51.12000 2.587
51.14000 0.833
51.16000 0.418
51.18000 -0.592
51.20000 1.473
51.22000 4.657
51.24000 4.408
51.26000 5.208
51.28000 6.677
51.30000 3.293
51.32000 0.574
51.34000 0.502
51.36000 2.943
51.38000 3.458
51.40000 1.244
51.42000 1.357
51.44000 0.554
51.46000 3.850
51.48000 -0.379
51.50000 -1.578
51.52000 -2.563
51.54000 -0.979
51.56000 1.053
51.58000 5.533
51.60000 1.417
51.62000 -2.097
51.64000 0.069
51.66000 2.025
51.68000 3.705
51.70000 3.881
51.72000 3.395
51.74000 1.652
51.76000 2.467
51.78000 3.061
51.80000 2.854
51.82000 2.300
51.84000 0.212
51.86000 1.797
51.88000 -1.384
51.90000 0.986
51.92000 -0.661
51.94000 -0.654
51.96000 -1.860
51.98000 -1.292
52.00000 1.616
52.02000 6.491
52.04000 4.160
52.06000 -0.687
52.08000 -0.874
52.10000 -0.023
52.12000 3.745
52.14000 -1.619
52.16000 0.264
52.18000 1.367
52.20000 0.053
52.22000 -2.450
52.24000 0.872
52.26000 0.539
52.28000 -0.152
52.30000 0.913
52.32000 2.446
52.34000 -0.965
52.36000 -1.737
52.38000 0.425
52.40000 1.558
52.42000 4.232
52.44000 -0.930
52.46000 -1.322
52.48000 3.713
52.50000 0.568
52.52000 3.240
52.54000 6.161
52.56000 7.978
52.58000 4.227
52.60000 0.147
52.62000 -0.226
52.64000 0.593
52.66000 4.092
52.68000 2.844
52.70000 2.502
52.72000 2.774
52.74000 4.018
52.76000 -0.843
52.78000 -2.485
52.80000 4.798
52.82000 2.310
52.84000 -0.166
52.86000 -0.737
52.88000 0.029
52.90000 -0.261
52.92000 2.346
52.94000 0.445
52.96000 1.807
52.98000 4.217
53.00000 3.437
53.02000 4.327
53.04000 5.660
53.06000 3.865
53.08000 -0.886
53.10000 -1.053
53.12000 3.158
53.14000 5.625
53.16000 5.983
53.18000 6.398
53.20000 2.213
53.22000 2.865
53.24000 3.694
53.26000 2.920
53.28000 5.874
53.30000 4.354
53.32000 6.698
53.34000 4.663
53.36000 2.441
53.38000 -0.367
53.40000 -1.300
53.42000 -0.905
53.44000 1.617
53.46000 3.298
53.48000 -0.452
53.50000 -1.778
53.52000 0.141
53.54000 2.409
53.56000 2.929
53.58000 1.855
53.60000 4.356
53.62000 0.032
53.64000 -2.273
53.66000 1.493
53.68000 2.417
53.70000 2.070
53.72000 -1.781
53.74000 -2.468
53.76000 -2.398
53.78000 -1.153
53.80000 0.523
53.82000 0.566
53.84000 0.721
53.86000 -0.360
53.88000 1.316
53.90000 3.421
53.92000 2.924
53.94000 1.498
53.96000 0.365
53.98000 3.632
54.00000 1.273
54.02000 -1.439
54.04000 -1.071
54.06000 5.142
54.08000 7.694
54.10000 2.026
54.12000 0.791
54.14000 0.946
54.16000 0.103
54.18000 2.313
54.20000 2.306
54.22000 -0.560
54.24000 -2.469
54.26000 1.488
54.28000 1.160
54.30000 1.418
54.32000 -1.160
54.34000 -2.467
54.36000 4.350
54.38000 2.411
54.40000 1.636
54.42000 0.895
54.44000 2.286
54.46000 0.915
54.48000 4.400
54.50000 3.387
54.52000 4.906
54.54000 3.165
54.56000 4.542
54.58000 3.289
54.60000 0.754
54.62000 1.386
54.64000 4.989
54.66000 2.531
54.68000 -0.600
54.70000 -0.791
54.72000 -0.635
54.74000 0.522
54.76000 3.751
54.78000 1.978
54.80000 5.738
54.82000 -0.042
54.84000 -2.455
54.86000 -0.028
54.88000 3.056
54.90000 3.216
54.92000 2.541
54.94000 -1.594
54.96000 1.679
54.98000 3.508
55.00000 2.574
55.02000 1.159
55.04000 -0.177
55.06000 -2.153
55.08000 1.660
55.10000 4.829
55.12000 7.459
55.14000 2.679
55.16000 -2.058
55.18000 -0.475
55.20000 3.232
55.22000 1.289
55.24000 2.866
55.26000 3.646
55.28000 1.540
55.30000 2.992
55.32000 1.957
55.34000 0.508
55.36000 0.329
55.38000 -0.108
55.40000 0.241
55.42000 4.430
55.44000 4.036
55.46000 1.532
55.48000 0.597
55.50000 1.094
55.52000 0.703
55.54000 1.565
55.56000 -0.749
55.58000 -0.643
55.60000 0.717
55.62000 0.047
55.64000 0.171
55.66000 -0.047
55.68000 -0.535
55.70000 1.392
55.72000 1.455
55.74000 1.529
55.76000 2.738
55.78000 4.212
55.80000 3.225
55.82000 -1.931
55.84000 -0.910
55.86000 0.828
55.88000 -0.049
55.90000 0.392
55.92000 2.600
55.94000 5.665
55.96000 2.261
55.98000 1.712
56.00000 -0.532
56.02000 -1.090
56.04000 0.637
56.06000 1.746
56.08000 0.550
56.10000 4.720
56.12000 8.032
56.14000 4.327
56.16000 0.302
56.18000 2.934
56.20000 3.711
56.22000 -2.207
56.24000 -2.413
56.26000 -0.998
56.28000 0.983
56.30000 0.362
56.32000 3.389
56.34000 4.554
56.36000 4.359
56.38000 4.656
56.40000 4.966
56.42000 4.242
56.44000 5.242
56.46000 2.793
56.48000 2.486
56.50000 2.050
56.52000 3.956
56.54000 2.308
56.56000 2.939
56.58000 1.730
56.60000 -1.800
56.62000 0.022
56.64000 -1.892
56.66000 -2.058
56.68000 1.075
56.70000 5.210
56.72000 5.090
56.74000 0.480
56.76000 2.783
56.78000 1.740
56.80000 -1.227
56.82000 -1.739
56.84000 -1.125
56.86000 1.504
56.88000 1.704
56.90000 -0.998
56.92000 2.146
56.94000 2.506
56.96000 0.139
56.98000 1.507
57.00000 5.705
57.02000 3.798
57.04000 3.368
57.06000 2.321
57.08000 0.272
57.10000 3.514
57.12000 2.772
57.14000 1.956
57.16000 1.070
57.18000 -0.111
57.20000 0.459
57.22000 2.199
57.24000 1.002
57.26000 -1.614
57.28000 1.055
57.30000 0.807
57.32000 1.903
57.34000 1.212
57.36000 4.543
57.38000 0.562
57.40000 -0.792
57.42000 4.029
57.44000 2.781
57.46000 7.800
57.48000 2.301
57.50000 -2.390
57.52000 -1.340
57.54000 -1.683
57.56000 0.682
57.58000 0.092
57.60000 4.573
57.62000 1.734
57.64000 0.818
57.66000 0.092
57.68000 1.145
57.70000 1.412
57.72000 -1.850
57.74000 -1.168
57.76000 1.286
57.78000 1.281
57.80000 -0.145
57.82000 0.281
57.84000 2.859
57.86000 2.353
57.88000 3.780
57.90000 -1.412
57.92000 1.431
57.94000 4.088
57.96000 3.223
57.98000 -2.371
58.00000 -0.614
58.02000 0.610
58.04000 0.699
58.06000 1.517
58.08000 0.387
58.10000 -0.314
58.12000 1.435
58.14000 4.486
58.16000 0.705
58.18000 1.230
58.20000 2.132
58.22000 1.485
58.24000 5.010
58.26000 4.023
58.28000 2.767
58.30000 -0.392
58.32000 1.120
58.34000 -1.910
58.36000 -1.917
58.38000 2.720
58.40000 2.260
58.42000 0.670
58.44000 2.966
58.46000 3.040
58.48000 2.393
58.50000 3.003
58.52000 0.607
58.54000 -0.135
58.56000 -1.110
58.58000 1.509
58.60000 2.018
58.62000 1.192
58.64000 2.846
58.66000 2.743
58.68000 0.068
58.70000 -0.130
58.72000 3.091
58.74000 2.278
58.76000 0.646
58.78000 -2.009
58.80000 0.736
58.82000 1.682
58.84000 0.830
58.86000 1.869
58.88000 1.088
58.90000 -0.276
58.92000 -1.862
58.94000 -1.082
58.96000 0.812
58.98000 3.832
59.00000 3.171
59.02000 2.132
59.04000 2.781
59.06000 3.806
59.08000 3.127
59.10000 -0.509
59.12000 -2.338
59.14000 -0.700
59.16000 -0.053
59.18000 2.479
59.20000 0.481
59.22000 3.055
59.24000 1.737
59.26000 0.634
59.28000 1.319
59.30000 2.965
59.32000 -0.262
59.34000 -1.097
59.36000 1.028
59.38000 -1.539
59.40000 -1.393
59.42000 -1.015
59.44000 -1.007
59.46000 1.340
59.48000 -0.157
59.50000 1.005
59.52000 2.936
59.54000 1.883
59.56000 5.589
59.58000 5.125
59.60000 4.915
59.62000 2.982
59.64000 3.618
59.66000 3.401
59.68000 3.233
59.70000 4.635
59.72000 -0.385
59.74000 0.889
59.76000 2.345
59.78000 -0.278
59.80000 1.915
59.82000 3.974
59.84000 1.086
59.86000 -0.507
59.88000 1.228
59.90000 -2.322
59.92000 0.082
59.94000 1.365
59.96000 -1.325
59.98000 0.271
60.00000 2.119
60.02000 2.155
60.04000 2.010
60.06000 3.566
60.08000 0.124
60.10000 2.696
60.12000 2.263
60.14000 2.911
60.16000 -0.850
60.18000 -1.321
60.20000 -1.020
60.22000 1.809
60.24000 4.108
60.26000 2.277
60.28000 3.739
60.30000 0.478
60.32000 3.135
60.34000 0.979
60.36000 -0.612
60.38000 -2.029
60.40000 -1.408
60.42000 -0.436
60.44000 -0.357
60.46000 1.151
60.48000 0.378
60.50000 1.496
60.52000 2.188
60.54000 1.868
60.56000 2.336
60.58000 0.682
60.60000 0.846
60.62000 2.453
60.64000 -0.378
60.66000 -1.896
60.68000 -1.705
60.70000 -0.546
60.72000 2.132
60.74000 2.375
60.76000 6.402
60.78000 5.511
60.80000 0.506
60.82000 -2.277
60.84000 2.242
60.86000 2.800
60.88000 2.471
60.90000 2.330
60.92000 2.509
60.94000 3.151
60.96000 1.952
60.98000 2.868
61.00000 4.886
61.02000 5.247
61.04000 3.861
61.06000 3.393
61.08000 1.898
61.10000 0.314
61.12000 0.555
61.14000 0.352
61.16000 0.493
61.18000 2.324
61.20000 0.935
61.22000 2.349
61.24000 0.786
61.26000 -0.198
61.28000 3.504
61.30000 3.056
61.32000 2.892
61.34000 3.119
61.36000 3.113
61.38000 1.590
61.40000 1.514
61.42000 4.275
61.44000 4.401
61.46000 4.309
61.48000 1.925
61.50000 3.279
61.52000 4.716
61.54000 1.990
61.56000 -0.686
61.58000 3.384
61.60000 7.095
61.62000 2.578
61.64000 4.010
61.66000 7.811
61.68000 6.307
61.70000 3.394
61.72000 2.358
61.74000 3.106
61.76000 2.800
61.78000 2.530
61.80000 -2.217
61.82000 1.802
61.84000 3.961
61.86000 8.114
61.88000 6.538
61.90000 3.503
61.92000 4.955
61.94000 5.274
61.96000 1.770
61.98000 1.803
62.00000 5.308
62.02000 3.967
62.04000 2.678
62.06000 3.943
62.08000 3.700
62.10000 3.575
62.12000 0.651
62.14000 7.044
62.16000 5.245
62.18000 3.511
62.20000 2.167
62.22000 2.319
62.24000 2.794
62.26000 1.362
62.28000 2.098
62.30000 1.889
62.32000 1.400
62.34000 1.493
62.36000 6.007
62.38000 8.267
62.40000 3.517
62.42000 2.002
62.44000 0.464
62.46000 2.751
62.48000 4.572
62.50000 -0.293
62.52000 0.518
62.54000 -0.689
62.56000 -1.824
62.58000 2.544
62.60000 0.797
62.62000 2.223
62.64000 5.137
62.66000 7.581
62.68000 6.531
62.70000 5.014
62.72000 3.390
62.74000 2.975
62.76000 4.608
62.78000 5.746
62.80000 4.784
62.82000 3.255
62.84000 2.779
62.86000 4.858
62.88000 3.377
62.90000 3.439
62.92000 2.881
62.94000 2.298
62.96000 -2.187
62.98000 0.057
63.00000 2.110
63.02000 3.816
63.04000 4.587
63.06000 0.906
63.08000 -0.178
63.10000 2.347
63.12000 2.518
63.14000 2.289
63.16000 -2.187
63.18000 3.491
63.20000 2.471
63.22000 0.795
63.24000 1.822
63.26000 0.941
63.28000 -1.730
63.30000 0.798
63.32000 0.123
63.34000 3.198
63.36000 2.401
63.38000 1.350
63.40000 3.427
63.42000 3.624
63.44000 -0.412
63.46000 -1.535
63.48000 -0.742
63.50000 1.080
63.52000 2.468
63.54000 0.621
63.56000 1.854
63.58000 1.673
63.60000 0.244
63.62000 -0.193
63.64000 2.618
63.66000 1.975
63.68000 1.843
63.70000 1.944
63.72000 3.296
63.74000 -0.433
63.76000 3.031
63.78000 0.471
63.80000 -0.795
63.82000 -0.732
63.84000 -2.238
63.86000 -1.933
63.88000 0.342
63.90000 0.895
63.92000 0.172
63.94000 -0.455
63.96000 -0.353
63.98000 3.351
64.00000 -0.175
64.02000 -2.004
64.04000 0.119
64.06000 2.787
64.08000 1.534
64.10000 -0.082
64.12000 0.750
64.14000 1.953
64.16000 0.930
64.18000 0.430
64.20000 -0.060
64.22000 -1.588
64.24000 1.218
64.26000 2.477
64.28000 3.509
64.30000 1.361
64.32000 0.685
64.34000 2.870
64.36000 0.601
64.38000 1.750
64.40000 -0.639
64.42000 -0.846
64.44000 -0.098
64.46000 0.401
64.48000 -1.164
64.50000 -0.387
64.52000 -0.163
64.54000 0.800
64.56000 0.161
64.58000 -0.604
64.60000 1.518
64.62000 2.935
64.64000 2.226
64.66000 2.209
64.68000 0.062
64.70000 -1.610
64.72000 -1.106
64.74000 3.512
64.76000 0.747
64.78000 1.881
64.80000 -0.936
64.82000 1.377
64.84000 2.521
64.86000 1.173
64.88000 0.354
64.90000 0.161
64.92000 1.233
64.94000 0.902
64.96000 -0.256
64.98000 2.766
65.00000 2.844
65.02000 0.418
65.04000 0.013
65.06000 2.168
65.08000 1.177
65.10000 -1.721
65.12000 1.062
65.14000 0.268
65.16000 1.154
65.18000 1.167
65.20000 -2.233
65.22000 0.190
65.24000 2.588
65.26000 3.500
65.28000 0.782
65.30000 0.287
65.32000 2.139
65.34000 0.985
65.36000 1.143
65.38000 -0.720
65.40000 -1.751
65.42000 0.022
65.44000 1.546
65.46000 1.137
65.48000 0.678
65.50000 -0.118
65.52000 -1.448
65.54000 -2.211
65.56000 0.565
65.58000 1.263
65.60000 -0.410
65.62000 -2.003
65.64000 -1.018
65.66000 0.625
65.68000 0.959
65.70000 -0.105
65.72000 2.873
65.74000 2.699
65.76000 0.955
65.78000 1.788
65.80000 0.778
65.82000 -0.262
65.84000 2.487
65.86000 2.291
65.88000 1.283
65.90000 0.634
65.92000 0.091
65.94000 1.386
65.96000 3.402
65.98000 1.811
66.00000 -0.212
66.02000 -0.401
66.04000 1.413
66.06000 -0.213
66.08000 -1.156
66.10000 1.690
66.12000 2.479
66.14000 1.490
66.16000 0.722
66.18000 -0.598
66.20000 -2.240
66.22000 0.819
66.24000 1.665
66.26000 -0.951
66.28000 -1.002
66.30000 1.171
66.32000 -0.788
66.34000 -1.987
66.36000 1.612
66.38000 2.764
66.40000 -1.448
66.42000 -1.374
66.44000 -2.136
66.46000 0.936
66.48000 1.465
66.50000 0.266
66.52000 0.633
66.54000 0.778
66.56000 -0.183
66.58000 2.458
66.60000 4.008
66.62000 1.296
66.64000 0.819
66.66000 -0.997
66.68000 0.863
66.70000 1.300
66.72000 -0.574
66.74000 2.085
66.76000 4.063
66.78000 2.583
66.80000 -0.208
66.82000 0.936
66.84000 1.959
66.86000 2.351
66.88000 3.467
66.90000 3.441
66.92000 3.616
66.94000 5.998
66.96000 6.231
66.98000 5.161
67.00000 4.723
67.02000 5.049
67.04000 3.260
67.06000 3.103
67.08000 3.726
67.10000 3.952
67.12000 8.158
67.14000 6.264
67.16000 5.414
67.18000 5.348
67.20000 7.384
67.22000 9.784
67.24000 9.586
67.26000 6.708
67.28000 7.149
67.30000 5.919
67.32000 6.625
67.34000 9.023
67.36000 10.355
67.38000 11.694
67.40000 14.489
67.42000 13.463
67.44000 8.633
67.46000 8.142
67.48000 7.390
67.50000 7.617
67.52000 7.671
67.54000 11.775
67.56000 8.277
67.58000 9.078
67.60000 10.358
67.62000 10.000
67.64000 9.212
67.66000 6.703
67.68000 9.845
67.70000 10.412
67.72000 10.794
67.74000 9.115
67.76000 8.064
67.78000 9.324
67.80000 9.003
67.82000 9.458
67.84000 6.935
67.86000 4.797
67.88000 8.131
67.90000 5.964
67.92000 7.867
67.94000 8.206
67.96000 5.088
67.98000 5.571
68.00000 3.863
68.02000 3.287
68.04000 6.019
68.06000 4.382
68.08000 3.636
68.10000 -0.244
68.12000 0.329
68.14000 2.893
68.16000 2.288
68.18000 1.009
68.20000 1.108
68.22000 0.582
68.24000 2.108
68.26000 -0.252
68.28000 2.749
68.30000 2.645
68.32000 0.956
68.34000 3.240
68.36000 2.658
68.38000 0.371
68.40000 0.514
68.42000 0.333
68.44000 -1.626
68.46000 -0.317
68.48000 0.043
68.50000 -0.386
68.52000 0.234
68.54000 -0.194
68.56000 0.303
68.58000 1.145
68.60000 -0.064
68.62000 -2.071
68.64000 0.855
68.66000 0.821
68.68000 0.037
68.70000 -2.153
68.72000 -0.860
68.74000 0.137
68.76000 -1.107
68.78000 -0.812
68.80000 0.978
68.82000 -0.140
68.84000 1.818
68.86000 2.130
68.88000 -1.096
68.90000 -2.127
68.92000 0.059
68.94000 -0.019
68.96000 -1.162
68.98000 -1.401
69.00000 -0.931
69.02000 -1.075
69.04000 -0.209
69.06000 -1.222
69.08000 -2.114
69.10000 0.118
69.12000 -1.120
69.14000 -0.284
69.16000 -0.549
69.18000 -1.325
69.20000 -0.586
69.22000 -0.197
69.24000 -0.559
69.26000 2.038
69.28000 1.039
69.30000 -0.330
69.32000 -1.739
69.34000 -0.678
69.36000 -0.455
69.38000 -0.317
69.40000 0.256
69.42000 -1.117
69.44000 1.067
69.46000 1.906
69.48000 0.484
69.50000 -1.094
69.52000 -1.835
69.54000 -1.020
69.56000 2.041
69.58000 1.182
69.60000 -0.506
69.62000 1.823
69.64000 4.728
69.66000 0.978
69.68000 0.468
69.70000 -2.054
69.72000 -0.462
69.74000 3.123
69.76000 0.913
69.78000 0.186
69.80000 1.287
69.82000 -0.832
69.84000 -1.007
69.86000 -0.514
69.88000 -0.423
69.90000 0.808
69.92000 -0.986
69.94000 1.215
69.96000 6.981
69.98000 3.426
70.00000 0.407
70.02000 2.934
70.04000 -0.247
70.06000 -0.898
70.08000 2.702
70.10000 2.835
70.12000 0.976
70.14000 1.361
70.16000 1.028
70.18000 1.372
70.20000 0.573
70.22000 2.215
70.24000 1.162
70.26000 0.490
70.28000 1.875
70.30000 3.005
70.32000 3.426
70.34000 3.351
70.36000 2.184
70.38000 2.547
70.40000 -0.246
70.42000 -1.984
70.44000 -1.094
70.46000 0.767
70.48000 3.315
70.50000 2.817
70.52000 2.399
70.54000 4.869
70.56000 4.942
70.58000 3.719
70.60000 4.402
70.62000 2.129
70.64000 0.311
70.66000 1.759
70.68000 3.279
70.70000 1.467
70.72000 2.731
70.74000 2.424
70.76000 -0.370
70.78000 1.980
70.80000 5.504
70.82000 5.431
70.84000 4.896
70.86000 4.539
70.88000 1.145
70.90000 1.180
70.92000 1.385
70.94000 2.088
70.96000 1.075
70.98000 2.468
71.00000 5.051
71.02000 1.845
71.04000 2.709
71.06000 5.562
71.08000 2.639
71.10000 2.406
71.12000 1.319
71.14000 -0.144
71.16000 0.345
71.18000 -0.192
71.20000 3.800
71.22000 1.935
71.24000 0.520
71.26000 -1.700
71.28000 -0.515
71.30000 -0.247
71.32000 3.595
71.34000 4.963
71.36000 2.291
71.38000 -1.974
71.40000 -1.973
71.42000 3.965
71.44000 4.134
71.46000 3.882
71.48000 4.784
71.50000 5.665
71.52000 1.455
71.54000 2.382
71.56000 1.409
71.58000 0.312
71.60000 0.204
71.62000 1.177
71.64000 3.190
71.66000 3.846
71.68000 1.749
71.70000 5.426
71.72000 5.215
71.74000 3.361
71.76000 3.356
71.78000 1.985
71.80000 5.138
71.82000 7.601
71.84000 4.914
71.86000 3.109
71.88000 5.997
71.90000 6.905
71.92000 2.531
71.94000 0.016
71.96000 2.666
71.98000 2.192
72.00000 2.845
72.02000 3.020
72.04000 3.689
72.06000 4.428
72.08000 4.136
72.10000 2.146
72.12000 2.782
72.14000 4.831
72.16000 2.859
72.18000 2.233
72.20000 4.074
72.22000 3.414
72.24000 1.085
72.26000 -1.911
72.28000 -0.221
72.30000 2.121
72.32000 0.965
72.34000 2.578
72.36000 4.699
72.38000 3.420
72.40000 2.578
72.42000 2.119
72.44000 3.398
72.46000 4.732
72.48000 5.867
72.50000 1.882
72.52000 1.897
72.54000 3.459
72.56000 2.918
72.58000 2.159
72.60000 2.725
72.62000 0.444
72.64000 0.486
72.66000 0.907
72.68000 2.591
72.70000 4.067
72.72000 3.525
72.74000 2.843
72.76000 1.368
72.78000 2.164
72.80000 1.387
72.82000 3.596
72.84000 2.168
72.86000 2.422
72.88000 2.306
72.90000 2.013
72.92000 4.093
72.94000 2.634
72.96000 0.351
72.98000 3.696
73.00000 1.502
73.02000 4.344
73.04000 3.085
73.06000 2.399
73.08000 2.584
73.10000 1.806
73.12000 1.307
73.14000 1.076
73.16000 2.848
73.18000 2.027
73.20000 4.533
73.22000 5.823
73.24000 5.927
73.26000 6.254
73.28000 1.889
73.30000 0.797
73.32000 -1.888
73.34000 2.182
73.36000 3.894
73.38000 2.968
73.40000 0.834
73.42000 1.239
73.44000 5.043
73.46000 3.256
73.48000 2.878
73.50000 -0.070
73.52000 3.048
73.54000 5.689
73.56000 3.877
73.58000 3.044
73.60000 3.589
73.62000 4.704
73.64000 5.143
73.66000 2.056
73.68000 -1.061
73.70000 -0.102
73.72000 0.781
73.74000 2.715
73.76000 3.085
73.78000 1.814
73.80000 -0.619
73.82000 -0.018
73.84000 1.349
73.86000 1.702
73.88000 1.694
73.90000 -0.939
73.92000 -1.201
73.94000 0.803
73.96000 4.179
73.98000 1.787
74.00000 0.618
74.02000 1.629
74.04000 0.579
74.06000 0.645
74.08000 4.426
74.10000 3.003
74.12000 -0.882
74.14000 -1.786
74.16000 -1.238
74.18000 0.034
74.20000 2.916
74.22000 1.720
74.24000 1.145
74.26000 -0.722
74.28000 0.355
74.30000 0.892
74.32000 -0.038
74.34000 -1.464
74.36000 -0.365
74.38000 1.310
74.40000 1.584
74.42000 -0.170
74.44000 1.363
74.46000 0.485
74.48000 -0.389
74.50000 1.410
74.52000 3.290
74.54000 0.091
74.56000 -1.416
74.58000 -1.935
74.60000 -1.287
74.62000 0.320
74.64000 -0.233
74.66000 -0.449
74.68000 0.904
74.70000 0.657
74.72000 2.643
74.74000 2.657
74.76000 1.970
74.78000 -0.162
74.80000 0.552
74.82000 2.433
74.84000 -0.186
74.86000 -1.928
74.88000 -0.439
74.90000 -1.016
74.92000 1.032
74.94000 2.895
74.96000 2.600
74.98000 2.059
75.00000 2.505
75.02000 2.824
75.04000 2.603
75.06000 -1.344
75.08000 0.505
75.10000 2.634
75.12000 2.123
75.14000 -0.131
75.16000 -0.490
75.18000 -0.805
75.20000 -0.621
75.22000 0.775
75.24000 3.519
75.26000 4.833
75.28000 1.521
75.30000 2.079
75.32000 1.560
75.34000 3.146
75.36000 2.814
75.38000 2.038
75.40000 0.541
75.42000 3.019
75.44000 2.842
75.46000 -1.895
75.48000 -1.022
75.50000 0.453
75.52000 2.537
75.54000 3.757
75.56000 3.077
75.58000 2.171
75.60000 1.631
75.62000 2.155
75.64000 0.238
75.66000 1.178
75.68000 2.442
75.70000 4.315
75.72000 3.486
75.74000 3.033
75.76000 5.069
75.78000 1.719
75.80000 1.173
75.82000 3.448
75.84000 5.089
75.86000 2.467
75.88000 1.096
75.90000 1.309
75.92000 -0.210
75.94000 -0.648
75.96000 -0.008
75.98000 -0.283
76.00000 -0.309
76.02000 1.740
76.04000 3.069
76.06000 6.074
76.08000 1.623
76.10000 1.221
76.12000 2.137
76.14000 4.645
76.16000 4.462
76.18000 2.567
76.20000 3.241
76.22000 3.430
76.24000 3.260
76.26000 1.457
76.28000 3.191
76.30000 3.041
76.32000 1.357
76.34000 1.350
76.36000 -0.141
76.38000 2.170
76.40000 2.578
76.42000 5.508
76.44000 3.967
76.46000 -1.897
76.48000 1.453
76.50000 3.521
76.52000 4.445
76.54000 0.879
76.56000 2.635
76.58000 2.573
76.60000 2.653
76.62000 3.898
76.64000 3.569
76.66000 1.655
76.68000 0.160
76.70000 -0.137
76.72000 2.598
76.74000 1.141
76.76000 0.297
76.78000 3.339
76.80000 4.900
76.82000 4.108
76.84000 0.409
76.86000 5.310
76.88000 4.902
76.90000 3.061
76.92000 0.921
76.94000 2.005
76.96000 3.361
76.98000 1.733
77.00000 1.930
77.02000 -0.145
77.04000 2.716
77.06000 2.740
77.08000 0.709
77.10000 -1.548
77.12000 -1.298
77.14000 0.955
77.16000 1.264
77.18000 -0.544
77.20000 -1.433
77.22000 -0.404
77.24000 3.170
77.26000 1.113
77.28000 -1.470
77.30000 0.304
77.32000 -0.082
77.34000 -1.284
77.36000 0.124
77.38000 2.486
77.40000 6.202
77.42000 3.210
77.44000 -0.173
77.46000 2.707
77.48000 1.004
77.50000 1.897
77.52000 0.710
77.54000 -0.285
77.56000 -0.258
77.58000 1.861
77.60000 2.470
77.62000 3.416
77.64000 1.585
77.66000 2.885
77.68000 0.466
77.70000 0.676
77.72000 0.533
77.74000 0.662
77.76000 1.509
77.78000 -0.117
77.80000 2.695
77.82000 2.750
77.84000 3.313
77.86000 3.138
77.88000 1.143
77.90000 2.708
77.92000 4.027
77.94000 0.842
77.96000 -0.431
77.98000 1.673
78.00000 0.826
78.02000 -1.222
78.04000 1.758
78.06000 4.354
78.08000 1.195
78.10000 -1.952
78.12000 -0.405
78.14000 4.362
78.16000 5.422
78.18000 3.241
78.20000 3.442
78.22000 1.427
78.24000 3.066
78.26000 1.560
78.28000 -1.113
78.30000 0.956
78.32000 2.157
78.34000 4.161
78.36000 2.501
78.38000 3.301
78.40000 2.048
78.42000 1.724
78.44000 0.469
78.46000 1.495
78.48000 3.939
78.50000 3.602
78.52000 0.034
78.54000 0.851
78.56000 4.626
78.58000 3.071
78.60000 2.959
78.62000 -1.286
78.64000 2.046
78.66000 3.747
78.68000 3.200
78.70000 6.738
78.72000 5.369
78.74000 3.191
78.76000 1.034
78.78000 1.383
78.80000 4.898
78.82000 1.444
78.84000 0.954
78.86000 0.468
78.88000 0.118
78.90000 1.536
78.92000 1.691
78.94000 -0.456
78.96000 0.169
78.98000 0.079
79.00000 2.171
79.02000 0.915
79.04000 -0.290
79.06000 -0.601
79.08000 3.470
79.10000 1.505
79.12000 3.121
79.14000 4.531
79.16000 3.110
79.18000 2.049
79.20000 1.259
79.22000 2.847
79.24000 4.312
79.26000 3.414
79.28000 1.711
79.30000 -1.013
79.32000 -0.352
79.34000 -1.976
79.36000 4.058
79.38000 1.886
79.40000 1.983
79.42000 2.479
79.44000 2.476
79.46000 3.361
79.48000 1.487
79.50000 2.411
79.52000 4.574
79.54000 2.399
79.56000 4.943
79.58000 3.121
79.60000 2.470
79.62000 2.952
79.64000 4.510
79.66000 2.037
79.68000 1.566
79.70000 -0.289
79.72000 0.594
79.74000 1.837
79.76000 3.907
79.78000 6.837
79.80000 4.616
79.82000 1.787
79.84000 5.582
79.86000 2.459
79.88000 2.893
79.90000 3.766
79.92000 1.791
79.94000 2.196
79.96000 2.373
79.98000 1.525
80.00000 1.804
80.02000 3.125
80.04000 2.631
80.06000 3.769
80.08000 4.210
80.10000 4.877
80.12000 1.428
80.14000 0.760
80.16000 1.932
80.18000 3.407
80.20000 4.099
80.22000 4.352
80.24000 6.473
80.26000 4.083
80.28000 3.720
80.30000 5.703
80.32000 3.754
80.34000 2.346
80.36000 5.031
80.38000 7.640
80.40000 10.075
80.42000 9.194
80.44000 7.324
80.46000 5.428
80.48000 5.505
80.50000 6.659
80.52000 9.848
80.54000 12.106
80.56000 10.026
80.58000 8.768
80.60000 7.634
80.62000 4.969
80.64000 5.579
80.66000 6.775
80.68000 6.568
80.70000 8.284
80.72000 10.402
80.74000 11.379
80.76000 11.603
80.78000 11.616
80.80000 13.919
80.82000 16.113
80.84000 13.115
80.86000 12.406
80.88000 11.564
80.90000 12.381
80.92000 13.208
80.94000 15.616
80.96000 15.547
80.98000 17.155
81.00000 16.195
81.02000 14.520
81.04000 15.742
81.06000 14.671
81.08000 17.876
81.10000 19.680
81.12000 16.347
81.14000 17.333
81.16000 19.218
81.18000 22.214
81.20000 22.193
81.22000 25.285
81.24000 28.285
81.26000 25.420
81.28000 20.155
81.30000 24.162
81.32000 22.892
81.34000 22.316
81.36000 22.294
81.38000 23.020
81.40000 25.321
81.42000 22.719
81.44000 24.623
81.46000 28.669
81.48000 25.032
81.50000 23.755
81.52000 24.442
81.54000 22.934
81.56000 20.112
81.58000 21.063
81.60000 24.422
81.62000 22.936
81.64000 20.841
81.66000 16.785
81.68000 19.334
81.70000 22.299
81.72000 18.075
81.74000 17.395
81.76000 20.376
81.78000 15.488
81.80000 15.095
81.82000 17.851
81.84000 16.452
81.86000 16.314
81.88000 18.383
81.90000 18.908
81.92000 15.336
81.94000 14.211
81.96000 12.041
81.98000 12.517
82.00000 11.486
82.02000 14.377
82.04000 15.057
82.06000 14.634
82.08000 14.711
82.10000 11.249
82.12000 8.470
82.14000 5.645
82.16000 6.092
82.18000 9.843
82.20000 11.330
82.22000 7.624
82.24000 4.811
82.26000 3.063
82.28000 4.291
82.30000 7.054
82.32000 7.820
82.34000 5.061
82.36000 5.310
82.38000 4.202
82.40000 6.409
82.42000 8.274
82.44000 7.307
82.46000 4.464
82.48000 3.600
82.50000 2.276
82.52000 4.474
82.54000 4.604
82.56000 3.434
82.58000 1.840
82.60000 1.746
82.62000 3.732
82.64000 4.836
82.66000 4.034
82.68000 1.932
82.70000 1.661
82.72000 2.821
82.74000 0.336
82.76000 2.948
82.78000 1.658
82.80000 4.102
82.82000 4.328
82.84000 2.480
82.86000 0.651
82.88000 -1.877
82.90000 -2.111
82.92000 -0.661
82.94000 -0.131
82.96000 0.381
82.98000 -2.108
83.00000 -1.896
83.02000 -0.624
83.04000 3.301
83.06000 1.117
83.08000 0.651
83.10000 0.773
83.12000 1.156
83.14000 4.795
83.16000 2.373
83.18000 1.019
83.20000 0.008
83.22000 0.038
83.24000 3.674
83.26000 3.061
83.28000 2.415
83.30000 1.841
83.32000 1.666
83.34000 1.172
83.36000 1.307
83.38000 2.209
83.40000 1.643
83.42000 -0.345
83.44000 1.888
83.46000 1.891
83.48000 -1.042
83.50000 -0.594
83.52000 -1.008
83.54000 1.691
83.56000 -0.435
83.58000 -0.923
83.60000 -0.229
83.62000 -0.674
83.64000 -1.642
83.66000 -0.190
83.68000 -0.399
83.70000 0.562
83.72000 0.929
83.74000 0.562
83.76000 -2.113
83.78000 0.224
83.80000 1.842
83.82000 -0.004
83.84000 -1.976
83.86000 0.007
83.88000 3.203
83.90000 2.687
83.92000 1.006
83.94000 0.358
83.96000 3.888
83.98000 3.380
84.00000 3.922
84.02000 3.515
84.04000 3.125
84.06000 1.896
84.08000 -2.112
84.10000 1.817
84.12000 3.533
84.14000 2.114
84.16000 1.429
84.18000 2.105
84.20000 4.040
84.22000 3.076
84.24000 5.015
84.26000 3.994
84.28000 1.897
84.30000 3.694
84.32000 4.197
84.34000 7.851
84.36000 5.934
84.38000 4.837
84.40000 6.056
84.42000 7.111
84.44000 6.586
84.46000 6.896
84.48000 7.985
84.50000 7.481
84.52000 7.184
84.54000 5.087
84.56000 7.295
84.58000 11.683
84.60000 9.679
84.62000 8.889
84.64000 10.906
84.66000 11.443
84.68000 14.469
84.70000 16.390
84.72000 17.665
84.74000 18.229
84.76000 15.616
84.78000 16.081
84.80000 12.145
84.82000 12.300
84.84000 14.164
84.86000 16.686
84.88000 17.147
84.90000 15.546
84.92000 20.063
84.94000 21.078
84.96000 24.462
84.98000 18.125
85.00000 16.577
85.02000 21.288
85.04000 21.484
85.06000 21.852
85.08000 22.696
85.10000 24.926
85.12000 24.747
85.14000 24.512
85.16000 23.746
85.18000 26.043
85.20000 26.601
85.22000 25.958
85.24000 24.891
85.26000 22.261
85.28000 20.866
85.30000 24.779
85.32000 25.725
85.34000 25.458
85.36000 20.358
85.38000 21.887
85.40000 23.799
85.42000 23.645
85.44000 29.046
85.46000 26.645
85.48000 26.174
85.50000 26.497
85.52000 24.099
85.54000 24.526
85.56000 19.070
85.58000 19.841
85.60000 22.441
85.62000 22.861
85.64000 21.086
85.66000 26.174
85.68000 24.260
85.70000 23.321
85.72000 21.743
85.74000 21.184
85.76000 22.519
85.78000 21.038
85.80000 19.936
85.82000 19.366
85.84000 19.390
85.86000 17.231
85.88000 17.370
85.90000 16.020
85.92000 16.228
85.94000 13.457
85.96000 13.798
85.98000 16.121
86.00000 13.335
86.02000 14.433
86.04000 13.284
86.06000 14.100
86.08000 14.070
86.10000 12.063
86.12000 10.159
86.14000 8.549
86.16000 8.205
86.18000 10.960
86.20000 10.737
86.22000 7.874
86.24000 4.951
86.26000 6.163
86.28000 6.764
86.30000 8.279
86.32000 6.966
86.34000 5.962
86.36000 5.907
86.38000 4.565
86.40000 6.010
86.42000 8.379
86.44000 5.695
86.46000 6.140
86.48000 3.990
86.50000 2.332
86.52000 3.837
86.54000 5.464
86.56000 4.285
86.58000 0.885
86.60000 0.944
86.62000 1.359
86.64000 4.237
86.66000 3.894
86.68000 2.201
86.70000 2.814
86.72000 3.942
86.74000 5.164
86.76000 6.054
86.78000 -0.271
86.80000 1.299
86.82000 4.315
86.84000 5.444
86.86000 2.504
86.88000 -1.884
86.90000 0.066
86.92000 2.874
86.94000 2.436
86.96000 3.144
86.98000 3.692
87.00000 3.948
87.02000 2.385
87.04000 4.830
87.06000 4.040
87.08000 1.590
87.10000 0.126
87.12000 3.767
87.14000 2.817
87.16000 2.425
87.18000 3.830
87.20000 0.289
87.22000 -1.059
87.24000 -1.032
87.26000 -0.806
87.28000 -1.333
87.30000 1.227
87.32000 2.121
87.34000 3.550
87.36000 5.282
87.38000 5.071
87.40000 1.481
87.42000 1.482
87.44000 4.352
87.46000 3.094
87.48000 2.185
87.50000 4.251
87.52000 2.543
87.54000 2.313
87.56000 2.295
87.58000 0.231
87.60000 2.250
87.62000 0.184
87.64000 0.268
87.66000 2.210
87.68000 1.962
87.70000 0.914
87.72000 0.439
87.74000 2.214
87.76000 -0.693
87.78000 -0.016
87.80000 -0.088
87.82000 2.116
87.84000 2.287
87.86000 1.887
87.88000 1.516
87.90000 2.485
87.92000 1.224
87.94000 2.429
87.96000 2.242
87.98000 1.456
88.00000 0.583
88.02000 5.718
88.04000 3.509
88.06000 1.131
88.08000 2.573
88.10000 4.246
88.12000 0.491
88.14000 -0.068
88.16000 -1.818
88.18000 2.409
88.20000 4.341
88.22000 0.974
88.24000 1.211
88.26000 0.797
88.28000 0.095
88.30000 0.716
88.32000 -0.309
88.34000 0.430
88.36000 1.580
88.38000 -0.521
88.40000 -0.489
88.42000 5.005
88.44000 1.319
88.46000 0.711
88.48000 1.780
88.50000 3.148
88.52000 2.255
88.54000 0.219
88.56000 3.504
88.58000 -0.085
88.60000 1.285
88.62000 3.484
88.64000 2.780
88.66000 1.709
88.68000 0.154
88.70000 0.922
88.72000 0.616
88.74000 -0.480
88.76000 -1.209
88.78000 -0.783
88.80000 -0.871
88.82000 0.200
88.84000 0.207
88.86000 -0.251
88.88000 -0.388
88.90000 0.705
88.92000 1.463
88.94000 2.369
88.96000 1.953
88.98000 0.495
89.00000 -0.428
89.02000 -0.718
89.04000 -1.409
89.06000 0.242
89.08000 2.130
89.10000 2.106
89.12000 2.292
89.14000 0.244
89.16000 0.169
89.18000 0.830
89.20000 1.883
89.22000 4.683
89.24000 2.743
89.26000 -0.683
89.28000 0.005
89.30000 -0.860
89.32000 1.284
89.34000 0.701
89.36000 -1.834
89.38000 0.041
89.40000 2.340
89.42000 0.960
89.44000 -0.164
89.46000 2.275
89.48000 4.556
89.50000 1.414
89.52000 2.459
89.54000 -1.132
89.56000 -0.068
89.58000 3.098
89.60000 0.239
89.62000 2.501
89.64000 -0.451
89.66000 -1.124
89.68000 -1.833
89.70000 -0.491
89.72000 -0.542
89.74000 -0.171
89.76000 -0.030
89.78000 1.310
89.80000 -0.004
89.82000 -0.059
89.84000 0.975
89.86000 -0.394
89.88000 2.559
89.90000 2.027
89.92000 2.780
89.94000 2.349
89.96000 -0.519
89.98000 0.045
90.00000 1.389
90.02000 0.969
90.04000 1.429
90.06000 1.635
90.08000 -0.024
90.10000 -1.824
90.12000 2.441
90.14000 2.496
90.16000 1.489
90.18000 0.604
90.20000 2.352
90.22000 2.079
90.24000 -0.754
90.26000 -0.011
90.28000 -1.382
90.30000 -1.221
90.32000 -0.997
90.34000 -1.777
90.36000 -1.321
90.38000 -0.723
90.40000 0.017
90.42000 2.311
90.44000 1.045
90.46000 3.075
90.48000 1.408
90.50000 -0.292
90.52000 -1.828
90.54000 1.993
90.56000 3.749
90.58000 1.714
90.60000 -1.437
90.62000 1.511
90.64000 -1.104
90.66000 0.294
90.68000 0.723
90.70000 1.689
90.72000 0.606
90.74000 -1.205
90.76000 0.148
90.78000 1.054
90.80000 3.320
90.82000 0.639
90.84000 -0.936
90.86000 0.327
90.88000 2.189
90.90000 0.375
90.92000 0.462
90.94000 -1.826
90.96000 -0.058
90.98000 4.118
91.00000 3.501
91.02000 3.154
91.04000 2.106
91.06000 -1.424
91.08000 -0.345
91.10000 1.136
91.12000 3.636
91.14000 6.595
91.16000 5.857
91.18000 -1.225
91.20000 -0.643
91.22000 -0.177
91.24000 -0.429
91.26000 1.052
91.28000 0.056
91.30000 2.484
91.32000 2.115
91.34000 2.215
91.36000 3.775
91.38000 1.556
91.40000 -1.823
91.42000 -0.702
91.44000 0.767
91.46000 0.937
91.48000 3.720
91.50000 -0.979
91.52000 -1.193
91.54000 1.011
91.56000 1.542
91.58000 2.497
91.60000 -1.011
91.62000 0.278
91.64000 0.328
91.66000 -1.834
91.68000 -0.185
91.70000 -0.346
91.72000 1.582
91.74000 0.459
91.76000 3.094
91.78000 1.196
91.80000 -0.605
91.82000 -0.880
91.84000 2.212
91.86000 4.121
91.88000 2.348
91.90000 1.358
91.92000 1.147
91.94000 1.569
91.96000 2.137
91.98000 0.788
92.00000 1.828
92.02000 0.466
92.04000 1.029
92.06000 1.253
92.08000 -0.073
92.10000 -0.161
92.12000 2.837
92.14000 0.925
92.16000 2.450
92.18000 2.487
92.20000 0.384
92.22000 1.706
92.24000 3.094
92.26000 2.883
92.28000 0.365
92.30000 2.340
92.32000 2.556
92.34000 3.007
92.36000 3.684
92.38000 2.433
92.40000 1.394
92.42000 2.131
92.44000 3.806
92.46000 5.392
92.48000 3.831
92.50000 3.319
92.52000 4.956
92.54000 0.511
92.56000 -0.366
92.58000 -0.177
92.60000 1.896
92.62000 -0.572
92.64000 -1.310
92.66000 -0.672
92.68000 1.232
92.70000 -1.828
92.72000 -1.156
92.74000 0.898
92.76000 4.689
92.78000 2.882
92.80000 2.672
92.82000 4.890
92.84000 4.058
92.86000 1.753
92.88000 0.929
92.90000 -0.066
92.92000 1.016
92.94000 3.741
92.96000 1.631
92.98000 0.834
93.00000 3.390
93.02000 0.285
93.04000 0.033
93.06000 -0.254
93.08000 2.447
93.10000 2.826
93.12000 2.633
93.14000 3.840
93.16000 4.761
93.18000 0.925
93.20000 2.721
93.22000 3.451
93.24000 1.917
93.26000 -0.862
93.28000 2.056
93.30000 3.938
93.32000 3.152
93.34000 -0.899
93.36000 1.596
93.38000 0.508
93.40000 -1.803
93.42000 0.953
93.44000 -0.347
93.46000 -0.514
93.48000 1.909
93.50000 3.944
93.52000 4.338
93.54000 1.157
93.56000 2.487
93.58000 2.354
93.60000 -0.106
93.62000 0.464
93.64000 -1.129
93.66000 0.727
93.68000 3.347
93.70000 4.550
93.72000 3.789
93.74000 3.969
93.76000 2.874
93.78000 0.479
93.80000 0.106
93.82000 2.335
93.84000 2.323
93.86000 2.522
93.88000 -0.184
93.90000 2.583
93.92000 7.944
93.94000 7.445
93.96000 2.827
93.98000 3.479
94.00000 2.058
94.02000 3.871
94.04000 2.981
94.06000 1.659
94.08000 1.012
94.10000 0.514
94.12000 0.107
94.14000 1.714
94.16000 1.452
94.18000 2.183
94.20000 4.247
94.22000 3.163
94.24000 6.166
94.26000 4.672
94.28000 0.040
94.30000 0.218
94.32000 1.247
94.34000 0.193
94.36000 0.757
94.38000 5.585
94.40000 3.703
94.42000 1.438
94.44000 0.927
94.46000 3.402
94.48000 3.023
94.50000 2.384
94.52000 -1.835
94.54000 0.075
94.56000 2.309
94.58000 1.200
94.60000 0.255
94.62000 0.090
94.64000 2.543
94.66000 -0.055
94.68000 1.174
94.70000 0.845
94.72000 -0.533
94.74000 0.104
94.76000 -0.137
94.78000 -1.390
94.80000 -0.959
94.82000 0.141
94.84000 4.076
94.86000 5.632
94.88000 2.150
94.90000 -0.914
94.92000 3.178
94.94000 1.919
94.96000 -1.850
94.98000 -1.745
95.00000 -0.178
95.02000 -0.014
95.04000 1.098
95.06000 0.785
95.08000 -0.823
95.10000 2.717
95.12000 0.572
95.14000 -1.378
95.16000 1.275
95.18000 3.243
95.20000 -0.627
95.22000 -0.223
95.24000 -1.153
95.26000 0.725
95.28000 -0.186
95.30000 3.364
95.32000 3.377
95.34000 1.184
95.36000 2.036
95.38000 1.203
95.40000 2.993
95.42000 2.732
95.44000 0.225
95.46000 1.604
95.48000 2.474
95.50000 2.254
95.52000 2.764
95.54000 1.433
95.56000 0.819
95.58000 -0.041
95.60000 -1.396
95.62000 2.523
95.64000 2.020
95.66000 0.859
95.68000 2.969
95.70000 4.032
95.72000 1.546
95.74000 4.086
95.76000 3.419
95.78000 0.497
95.80000 0.170
95.82000 -0.176
95.84000 5.031
95.86000 8.180
95.88000 2.406
95.90000 0.696
95.92000 2.631
95.94000 1.125
95.96000 -0.255
95.98000 3.447
96.00000 4.544
96.02000 1.257
96.04000 4.075
96.06000 1.749
96.08000 1.785
96.10000 2.207
96.12000 2.726
96.14000 5.736
96.16000 5.459
96.18000 3.954
96.20000 7.387
96.22000 2.520
96.24000 0.642
96.26000 7.293
96.28000 4.420
96.30000 3.177
96.32000 7.488
96.34000 4.581
96.36000 4.049
96.38000 3.913
96.40000 2.490
96.42000 1.230
96.44000 2.642
96.46000 -1.776
96.48000 0.814
96.50000 6.391
96.52000 7.110
96.54000 5.738
96.56000 2.794
96.58000 2.925
96.60000 2.388
96.62000 5.714
96.64000 6.803
96.66000 3.991
96.68000 4.992
96.70000 3.061
96.72000 2.952
96.74000 2.531
96.76000 3.368
96.78000 4.668
96.80000 2.016
96.82000 3.242
96.84000 4.307
96.86000 2.404
96.88000 3.552
96.90000 3.930
96.92000 4.316
96.94000 6.411
96.96000 3.531
96.98000 3.022
97.00000 4.689
97.02000 4.956
97.04000 3.199
97.06000 1.532
97.08000 4.597
97.10000 4.763
97.12000 1.248
97.14000 2.012
97.16000 2.800
97.18000 5.200
97.20000 6.844
97.22000 8.029
97.24000 5.459
97.26000 2.786
97.28000 4.949
97.30000 5.672
97.32000 0.962
97.34000 1.501
97.36000 6.557
97.38000 3.159
97.40000 1.831
97.42000 1.433
97.44000 1.329
97.46000 0.587
97.48000 4.540
97.50000 6.449
97.52000 4.470
97.54000 3.726
97.56000 4.325
97.58000 6.088
97.60000 3.871
97.62000 2.230
97.64000 1.581
97.66000 2.829
97.68000 5.018
97.70000 8.079
97.72000 9.622
97.74000 3.492
97.76000 0.511
97.78000 4.906
97.80000 5.606
97.82000 2.267
97.84000 0.135
97.86000 3.943
97.88000 5.753
97.90000 5.294
97.92000 3.201
97.94000 2.685
97.96000 -1.727
97.98000 0.715
98.00000 5.061
98.02000 8.040
98.04000 6.691
98.06000 3.672
98.08000 3.879
98.10000 1.827
98.12000 2.378
98.14000 6.102
98.16000 2.703
98.18000 -1.126
98.20000 2.318
98.22000 3.024
98.24000 5.999
98.26000 0.609
98.28000 3.659
98.30000 3.242
98.32000 6.030
98.34000 7.280
98.36000 6.639
98.38000 6.653
98.40000 5.480
98.42000 3.839
98.44000 5.669
98.46000 4.700
98.48000 1.924
98.50000 0.717
98.52000 3.197
98.54000 -0.427
98.56000 -1.753
98.58000 0.224
98.60000 3.609
98.62000 2.645
98.64000 8.106
98.66000 1.224
98.68000 -0.278
98.70000 3.687
98.72000 1.252
98.74000 -1.749
98.76000 -1.047
98.78000 1.585
98.80000 4.695
98.82000 5.172
98.84000 4.362
98.86000 5.115
98.88000 9.540
98.90000 7.269
98.92000 6.165
98.94000 1.792
98.96000 4.535
98.98000 8.328
99.00000 9.922
99.02000 7.952
99.04000 8.934
99.06000 -0.354
99.08000 1.824
99.10000 1.287
99.12000 2.930
99.14000 3.630
99.16000 3.674
99.18000 0.428
99.20000 3.110
99.22000 1.816
99.24000 -0.323
99.26000 -1.772
99.28000 -0.032
99.30000 2.685
99.32000 4.356
99.34000 6.493
99.36000 2.745
99.38000 0.588
99.40000 1.570
99.42000 -0.407
99.44000 -0.540
99.46000 6.001
99.48000 1.583
99.50000 -1.794
99.52000 3.067
99.54000 3.837
99.56000 3.865
99.58000 4.903
99.60000 9.846
99.62000 4.395
99.64000 1.310
99.66000 0.462
99.68000 3.336
99.70000 9.813
99.72000 1.215
99.74000 -0.012
99.76000 0.728
99.78000 0.491
99.80000 4.504
99.82000 4.432
99.84000 5.557
99.86000 -1.823
99.88000 -1.834
99.90000 0.753
99.92000 1.892
99.94000 -0.431
99.96000 -1.941
99.98000 0.000
