'Id: "0011388" Comment: "Integrate frame 0011388_Au-Ir-Rh_Rh-rich_XRD-Mapping-032-0000.gfrmwith cursor Wedge Cursor #5" Operator: "B?rgel" Anode: "Cu" Wavelength: "1.5406" Scantype: "2Theta (TwoTheta)" TimePerStep: "1" X: "4.5" Y: "-31.5" Z: "5.95" 
10.00000 0.000
10.02000 -4.238
10.04000 6.729
10.06000 12.187
10.08000 6.248
10.10000 6.511
10.12000 12.449
10.14000 13.075
10.16000 18.275
10.18000 12.571
10.20000 15.294
10.22000 3.171
10.24000 -4.174
10.26000 14.525
10.28000 24.390
10.30000 12.969
10.32000 21.606
10.34000 30.338
10.36000 11.574
10.38000 16.675
10.40000 6.496
10.42000 14.587
10.44000 28.987
10.46000 18.843
10.48000 -0.147
10.50000 -0.684
10.52000 3.836
10.54000 2.550
10.56000 15.808
10.58000 22.888
10.60000 15.112
10.62000 13.529
10.64000 5.334
10.66000 6.806
10.68000 1.605
10.70000 9.119
10.72000 28.071
10.74000 27.918
10.76000 10.815
10.78000 9.965
10.80000 13.506
10.82000 -2.449
10.84000 9.823
10.86000 1.542
10.88000 0.943
10.90000 23.725
10.92000 22.092
10.94000 25.283
10.96000 25.772
10.98000 5.076
11.00000 -4.239
11.02000 -1.596
11.04000 9.862
11.06000 23.920
11.08000 27.582
11.10000 30.199
11.12000 24.505
11.14000 11.899
11.16000 5.950
11.18000 5.618
11.20000 15.364
11.22000 22.314
11.24000 23.226
11.26000 12.014
11.28000 7.295
11.30000 13.531
11.32000 11.156
11.34000 11.822
11.36000 16.099
11.38000 11.949
11.40000 9.547
11.42000 9.238
11.44000 4.632
11.46000 3.189
11.48000 14.445
11.50000 5.461
11.52000 9.060
11.54000 21.397
11.56000 21.465
11.58000 11.150
11.60000 16.703
11.62000 18.988
11.64000 16.430
11.66000 6.770
11.68000 1.327
11.70000 8.575
11.72000 13.313
11.74000 13.308
11.76000 8.169
11.78000 1.457
11.80000 4.200
11.82000 2.198
11.84000 -4.027
11.86000 2.051
11.88000 18.210
11.90000 19.981
11.92000 11.295
11.94000 9.017
11.96000 11.680
11.98000 7.427
12.00000 12.847
12.02000 9.364
12.04000 17.584
12.06000 21.564
12.08000 16.646
12.10000 6.228
12.12000 4.351
12.14000 7.985
12.16000 12.798
12.18000 9.891
12.20000 19.396
12.22000 23.825
12.24000 25.204
12.26000 23.172
12.28000 11.453
12.30000 14.490
12.32000 12.919
12.34000 10.912
12.36000 8.827
12.38000 5.768
12.40000 14.703
12.42000 7.246
12.44000 5.670
12.46000 23.851
12.48000 21.493
12.50000 16.765
12.52000 10.665
12.54000 9.626
12.56000 17.693
12.58000 12.957
12.60000 11.739
12.62000 -1.158
12.64000 9.964
12.66000 18.767
12.68000 6.500
12.70000 14.130
12.72000 16.964
12.74000 11.621
12.76000 13.582
12.78000 16.271
12.80000 13.663
12.82000 9.951
12.84000 19.517
12.86000 16.391
12.88000 7.798
12.90000 9.550
12.92000 4.702
12.94000 9.072
12.96000 1.645
12.98000 9.984
13.00000 10.209
13.02000 15.533
13.04000 8.240
13.06000 10.372
13.08000 12.855
13.10000 14.484
13.12000 4.180
13.14000 7.781
13.16000 10.723
13.18000 19.502
13.20000 17.792
13.22000 17.708
13.24000 9.896
13.26000 5.132
13.28000 8.152
13.30000 14.638
13.32000 16.293
13.34000 9.673
13.36000 8.095
13.38000 12.206
13.40000 14.138
13.42000 6.677
13.44000 7.622
13.46000 12.478
13.48000 10.827
13.50000 5.651
13.52000 14.348
13.54000 9.655
13.56000 5.773
13.58000 1.777
13.60000 5.410
13.62000 8.134
13.64000 8.082
13.66000 7.688
13.68000 9.842
13.70000 3.668
13.72000 8.987
13.74000 19.476
13.76000 7.357
13.78000 16.575
13.80000 14.870
13.82000 8.170
13.84000 7.391
13.86000 8.585
13.88000 2.401
13.90000 7.501
13.92000 3.099
13.94000 7.792
13.96000 6.703
13.98000 8.396
14.00000 16.695
14.02000 15.379
14.04000 12.152
14.06000 10.381
14.08000 9.643
14.10000 7.233
14.12000 -4.451
14.14000 5.314
14.16000 6.492
14.18000 9.987
14.20000 9.827
14.22000 1.545
14.24000 0.483
14.26000 5.316
14.28000 12.833
14.30000 7.497
14.32000 11.229
14.34000 11.158
14.36000 2.324
14.38000 9.776
14.40000 18.870
14.42000 15.741
14.44000 8.087
14.46000 9.435
14.48000 14.869
14.50000 20.266
14.52000 19.475
14.54000 7.282
14.56000 1.585
14.58000 3.357
14.60000 7.178
14.62000 15.028
14.64000 8.466
14.66000 4.560
14.68000 11.199
14.70000 7.546
14.72000 3.398
14.74000 2.975
14.76000 6.222
14.78000 7.877
14.80000 5.379
14.82000 1.422
14.84000 8.677
14.86000 9.518
14.88000 8.754
14.90000 12.879
14.92000 9.757
14.94000 4.197
14.96000 15.610
14.98000 11.402
15.00000 9.726
15.02000 17.271
15.04000 16.889
15.06000 6.223
15.08000 7.601
15.10000 5.473
15.12000 4.899
15.14000 10.545
15.16000 15.734
15.18000 11.765
15.20000 14.495
15.22000 14.525
15.24000 6.990
15.26000 0.869
15.28000 -1.981
15.30000 3.821
15.32000 11.765
15.34000 10.358
15.36000 0.065
15.38000 12.088
15.40000 10.296
15.42000 6.455
15.44000 8.640
15.46000 8.345
15.48000 7.603
15.50000 15.465
15.52000 11.054
15.54000 8.996
15.56000 9.110
15.58000 6.649
15.60000 13.330
15.62000 14.529
15.64000 14.327
15.66000 6.653
15.68000 5.264
15.70000 7.479
15.72000 10.435
15.74000 2.242
15.76000 -0.633
15.78000 0.866
15.80000 -0.101
15.82000 2.734
15.84000 2.625
15.86000 2.789
15.88000 0.798
15.90000 11.133
15.92000 8.751
15.94000 1.618
15.96000 -4.136
15.98000 -0.226
16.00000 -0.820
16.02000 4.865
16.04000 8.767
16.06000 9.649
16.08000 11.221
16.10000 16.684
16.12000 13.233
16.14000 3.718
16.16000 11.421
16.18000 8.400
16.20000 6.821
16.22000 5.929
16.24000 13.040
16.26000 16.757
16.28000 21.207
16.30000 16.668
16.32000 18.181
16.34000 3.866
16.36000 8.383
16.38000 10.440
16.40000 8.722
16.42000 10.044
16.44000 9.687
16.46000 1.677
16.48000 0.713
16.50000 -4.373
16.52000 1.562
16.54000 10.485
16.56000 12.968
16.58000 9.695
16.60000 4.914
16.62000 5.522
16.64000 4.868
16.66000 5.836
16.68000 4.541
16.70000 8.604
16.72000 6.331
16.74000 10.267
16.76000 7.561
16.78000 3.830
16.80000 9.156
16.82000 5.030
16.84000 2.848
16.86000 1.999
16.88000 10.288
16.90000 9.696
16.92000 14.016
16.94000 12.930
16.96000 13.128
16.98000 16.069
17.00000 13.484
17.02000 9.843
17.04000 1.998
17.06000 -1.040
17.08000 7.288
17.10000 6.349
17.12000 5.135
17.14000 5.423
17.16000 3.283
17.18000 8.055
17.20000 9.853
17.22000 16.284
17.24000 10.834
17.26000 12.976
17.28000 12.427
17.30000 8.496
17.32000 12.588
17.34000 10.610
17.36000 3.251
17.38000 10.335
17.40000 4.541
17.42000 -0.456
17.44000 3.711
17.46000 5.227
17.48000 3.014
17.50000 9.434
17.52000 15.368
17.54000 21.852
17.56000 17.532
17.58000 10.427
17.60000 9.977
17.62000 8.798
17.64000 2.498
17.66000 8.556
17.68000 14.699
17.70000 6.879
17.72000 8.947
17.74000 9.940
17.76000 7.493
17.78000 7.834
17.80000 6.980
17.82000 8.042
17.84000 2.041
17.86000 0.612
17.88000 -0.932
17.90000 -1.470
17.92000 -4.320
17.94000 -1.082
17.96000 -0.118
17.98000 12.382
18.00000 12.223
18.02000 8.578
18.04000 2.744
18.06000 4.437
18.08000 2.584
18.10000 7.018
18.12000 10.482
18.14000 10.238
18.16000 8.858
18.18000 7.429
18.20000 7.845
18.22000 10.823
18.24000 2.252
18.26000 3.408
18.28000 1.452
18.30000 0.692
18.32000 6.458
18.34000 7.055
18.36000 4.938
18.38000 3.703
18.40000 7.433
18.42000 1.119
18.44000 1.779
18.46000 6.715
18.48000 6.880
18.50000 10.450
18.52000 8.535
18.54000 6.040
18.56000 6.095
18.58000 0.592
18.60000 9.595
18.62000 19.679
18.64000 13.007
18.66000 -4.263
18.68000 -0.758
18.70000 8.757
18.72000 10.163
18.74000 4.399
18.76000 -0.987
18.78000 1.724
18.80000 7.846
18.82000 9.385
18.84000 11.127
18.86000 7.985
18.88000 4.534
18.90000 2.050
18.92000 0.050
18.94000 0.640
18.96000 5.409
18.98000 9.103
19.00000 13.085
19.02000 8.684
19.04000 0.945
19.06000 -0.237
19.08000 -4.234
19.10000 5.327
19.12000 8.944
19.14000 4.952
19.16000 3.636
19.18000 -1.480
19.20000 6.915
19.22000 2.596
19.24000 -1.003
19.26000 4.297
19.28000 5.132
19.30000 7.838
19.32000 15.663
19.34000 8.953
19.36000 2.744
19.38000 3.853
19.40000 6.055
19.42000 10.244
19.44000 10.702
19.46000 15.249
19.48000 8.472
19.50000 9.469
19.52000 6.500
19.54000 0.818
19.56000 1.060
19.58000 5.619
19.60000 16.540
19.62000 12.317
19.64000 9.156
19.66000 15.452
19.68000 10.136
19.70000 -0.400
19.72000 -4.189
19.74000 3.684
19.76000 12.160
19.78000 13.189
19.80000 3.792
19.82000 4.998
19.84000 5.862
19.86000 5.837
19.88000 7.626
19.90000 12.351
19.92000 13.184
19.94000 7.322
19.96000 1.722
19.98000 5.528
20.00000 7.852
20.02000 1.387
20.04000 -3.408
20.06000 6.223
20.08000 9.431
20.10000 4.555
20.12000 2.532
20.14000 9.626
20.16000 9.360
20.18000 -4.165
20.20000 -3.329
20.22000 9.517
20.24000 15.065
20.26000 9.727
20.28000 5.258
20.30000 6.323
20.32000 7.794
20.34000 11.955
20.36000 4.251
20.38000 2.831
20.40000 8.931
20.42000 5.043
20.44000 4.807
20.46000 9.603
20.48000 6.836
20.50000 5.443
20.52000 4.058
20.54000 14.797
20.56000 6.286
20.58000 11.538
20.60000 9.088
20.62000 7.602
20.64000 5.922
20.66000 4.588
20.68000 -0.506
20.70000 1.669
20.72000 9.842
20.74000 5.009
20.76000 1.884
20.78000 5.906
20.80000 10.867
20.82000 11.289
20.84000 6.089
20.86000 8.057
20.88000 11.655
20.90000 11.244
20.92000 9.316
20.94000 4.951
20.96000 5.239
20.98000 1.777
21.00000 -4.131
21.02000 2.878
21.04000 6.275
21.06000 2.176
21.08000 -1.291
21.10000 0.436
21.12000 2.947
21.14000 4.925
21.16000 14.939
21.18000 9.087
21.20000 6.175
21.22000 4.961
21.24000 -1.799
21.26000 -2.570
21.28000 -0.740
21.30000 2.713
21.32000 4.974
21.34000 5.052
21.36000 6.798
21.38000 9.787
21.40000 3.847
21.42000 3.762
21.44000 6.567
21.46000 3.598
21.48000 3.406
21.50000 -1.044
21.52000 -2.377
21.54000 -1.557
21.56000 0.344
21.58000 -0.454
21.60000 4.605
21.62000 1.562
21.64000 5.308
21.66000 11.997
21.68000 9.090
21.70000 9.688
21.72000 1.032
21.74000 -2.979
21.76000 7.421
21.78000 7.720
21.80000 2.742
21.82000 -1.783
21.84000 -0.819
21.86000 4.880
21.88000 5.012
21.90000 5.404
21.92000 7.022
21.94000 3.539
21.96000 0.270
21.98000 0.807
22.00000 0.263
22.02000 2.585
22.04000 -1.400
22.06000 0.754
22.08000 -2.022
22.10000 1.276
22.12000 6.593
22.14000 4.001
22.16000 0.124
22.18000 0.254
22.20000 2.771
22.22000 3.369
22.24000 3.709
22.26000 2.283
22.28000 0.454
22.30000 0.598
22.32000 1.972
22.34000 7.000
22.36000 1.553
22.38000 3.479
22.40000 7.802
22.42000 3.185
22.44000 -0.909
22.46000 -0.805
22.48000 -0.755
22.50000 -4.066
22.52000 -2.841
22.54000 -0.431
22.56000 3.129
22.58000 -1.295
22.60000 -1.601
22.62000 4.015
22.64000 9.530
22.66000 6.367
22.68000 7.320
22.70000 6.478
22.72000 7.609
22.74000 3.595
22.76000 0.843
22.78000 4.635
22.80000 5.327
22.82000 2.189
22.84000 1.159
22.86000 5.613
22.88000 8.635
22.90000 8.328
22.92000 4.712
22.94000 9.523
22.96000 6.383
22.98000 5.726
23.00000 2.418
23.02000 1.188
23.04000 0.795
23.06000 1.607
23.08000 3.365
23.10000 4.734
23.12000 5.537
23.14000 6.509
23.16000 5.917
23.18000 6.988
23.20000 5.323
23.22000 1.490
23.24000 3.100
23.26000 3.361
23.28000 4.355
23.30000 5.339
23.32000 6.158
23.34000 3.876
23.36000 9.927
23.38000 12.745
23.40000 4.131
23.42000 -2.644
23.44000 -4.003
23.46000 -2.676
23.48000 8.055
23.50000 1.595
23.52000 1.406
23.54000 2.456
23.56000 6.094
23.58000 8.793
23.60000 7.486
23.62000 10.496
23.64000 12.681
23.66000 10.575
23.68000 5.694
23.70000 3.124
23.72000 4.354
23.74000 0.494
23.76000 -2.376
23.78000 2.525
23.80000 10.266
23.82000 5.491
23.84000 11.018
23.86000 4.484
23.88000 -3.975
23.90000 3.050
23.92000 8.158
23.94000 7.422
23.96000 11.463
23.98000 12.738
24.00000 10.456
24.02000 5.718
24.04000 13.265
24.06000 11.443
24.08000 4.167
24.10000 4.237
24.12000 8.499
24.14000 9.096
24.16000 7.053
24.18000 3.846
24.20000 6.511
24.22000 5.394
24.24000 0.841
24.26000 1.176
24.28000 -1.712
24.30000 -3.958
24.32000 1.401
24.34000 3.177
24.36000 10.198
24.38000 11.980
24.40000 10.196
24.42000 6.171
24.44000 3.680
24.46000 6.719
24.48000 6.944
24.50000 2.282
24.52000 1.374
24.54000 2.641
24.56000 -2.461
24.58000 -0.867
24.60000 1.288
24.62000 1.482
24.64000 3.908
24.66000 4.474
24.68000 1.239
24.70000 2.946
24.72000 4.227
24.74000 1.278
24.76000 4.891
24.78000 3.769
24.80000 3.169
24.82000 -0.383
24.84000 -2.408
24.86000 -1.161
24.88000 2.670
24.90000 6.263
24.92000 5.326
24.94000 6.753
24.96000 9.978
24.98000 4.903
25.00000 4.150
25.02000 -0.531
25.04000 3.315
25.06000 4.314
25.08000 3.739
25.10000 4.320
25.12000 3.372
25.14000 1.215
25.16000 2.607
25.18000 4.214
25.20000 -0.586
25.22000 2.694
25.24000 10.412
25.26000 5.107
25.28000 -0.766
25.30000 3.145
25.32000 3.270
25.34000 0.855
25.36000 -2.372
25.38000 -0.091
25.40000 6.597
25.42000 9.313
25.44000 5.085
25.46000 1.980
25.48000 2.055
25.50000 1.682
25.52000 5.909
25.54000 3.603
25.56000 4.456
25.58000 4.099
25.60000 4.628
25.62000 11.890
25.64000 6.362
25.66000 3.603
25.68000 -3.878
25.70000 -2.726
25.72000 3.740
25.74000 7.514
25.76000 3.303
25.78000 0.028
25.80000 2.722
25.82000 4.291
25.84000 3.550
25.86000 3.150
25.88000 3.817
25.90000 6.447
25.92000 6.728
25.94000 7.901
25.96000 5.835
25.98000 6.901
26.00000 4.413
26.02000 5.976
26.04000 4.860
26.06000 5.195
26.08000 4.543
26.10000 1.031
26.12000 4.968
26.14000 2.657
26.16000 1.188
26.18000 2.173
26.20000 6.114
26.22000 8.616
26.24000 8.678
26.26000 6.136
26.28000 5.146
26.30000 6.116
26.32000 4.458
26.34000 -3.858
26.36000 -1.201
26.38000 6.457
26.40000 4.992
26.42000 6.007
26.44000 2.520
26.46000 0.144
26.48000 6.362
26.50000 2.440
26.52000 0.974
26.54000 6.269
26.56000 9.507
26.58000 2.177
26.60000 1.248
26.62000 5.229
26.64000 5.374
26.66000 6.183
26.68000 4.585
26.70000 3.647
26.72000 10.564
26.74000 11.518
26.76000 7.495
26.78000 0.266
26.80000 3.011
26.82000 -0.633
26.84000 -3.841
26.86000 -1.407
26.88000 6.145
26.90000 4.542
26.92000 0.624
26.94000 -1.331
26.96000 -2.012
26.98000 3.031
27.00000 2.649
27.02000 -2.489
27.04000 3.241
27.06000 4.380
27.08000 0.020
27.10000 5.255
27.12000 4.747
27.14000 6.094
27.16000 3.806
27.18000 -3.807
27.20000 2.263
27.22000 6.639
27.24000 -0.766
27.26000 -0.143
27.28000 11.537
27.30000 12.029
27.32000 3.111
27.34000 2.346
27.36000 6.927
27.38000 9.195
27.40000 2.679
27.42000 -0.166
27.44000 -0.711
27.46000 1.161
27.48000 2.937
27.50000 3.356
27.52000 2.930
27.54000 3.087
27.56000 6.622
27.58000 9.266
27.60000 8.450
27.62000 6.547
27.64000 -0.839
27.66000 1.914
27.68000 2.792
27.70000 1.412
27.72000 1.258
27.74000 8.828
27.76000 0.123
27.78000 2.028
27.80000 -0.168
27.82000 -0.969
27.84000 0.646
27.86000 -1.022
27.88000 -0.099
27.90000 2.418
27.92000 6.835
27.94000 3.781
27.96000 6.474
27.98000 8.524
28.00000 4.543
28.02000 4.284
28.04000 3.662
28.06000 5.532
28.08000 5.941
28.10000 2.389
28.12000 5.459
28.14000 4.852
28.16000 -1.109
28.18000 4.009
28.20000 3.151
28.22000 -0.530
28.24000 1.491
28.26000 5.101
28.28000 1.526
28.30000 -0.762
28.32000 -0.551
28.34000 1.043
28.36000 3.625
28.38000 5.217
28.40000 -2.871
28.42000 1.065
28.44000 3.017
28.46000 7.648
28.48000 8.884
28.50000 3.785
28.52000 -0.942
28.54000 -3.711
28.56000 7.734
28.58000 10.422
28.60000 4.864
28.62000 0.058
28.64000 4.864
28.66000 6.502
28.68000 0.966
28.70000 -0.929
28.72000 3.912
28.74000 3.757
28.76000 2.611
28.78000 -2.076
28.80000 0.626
28.82000 4.328
28.84000 4.420
28.86000 6.224
28.88000 7.991
28.90000 10.716
28.92000 4.538
28.94000 5.020
28.96000 6.214
28.98000 3.972
29.00000 5.947
29.02000 5.178
29.04000 4.906
29.06000 -1.105
29.08000 1.926
29.10000 0.960
29.12000 -1.341
29.14000 -0.713
29.16000 0.415
29.18000 -0.605
29.20000 3.882
29.22000 6.003
29.24000 -0.190
29.26000 0.064
29.28000 3.144
29.30000 7.149
29.32000 2.457
29.34000 -0.326
29.36000 -0.740
29.38000 -3.688
29.40000 -1.538
29.42000 6.144
29.44000 8.736
29.46000 6.090
29.48000 0.137
29.50000 -3.067
29.52000 2.329
29.54000 3.965
29.56000 3.075
29.58000 4.323
29.60000 5.155
29.62000 0.402
29.64000 1.025
29.66000 9.144
29.68000 7.321
29.70000 9.168
29.72000 8.982
29.74000 3.043
29.76000 1.244
29.78000 3.459
29.80000 4.937
29.82000 1.671
29.84000 -0.238
29.86000 3.206
29.88000 1.485
29.90000 2.213
29.92000 5.558
29.94000 5.247
29.96000 3.043
29.98000 8.819
30.00000 2.537
30.02000 0.757
30.04000 1.786
30.06000 6.999
30.08000 7.165
30.10000 2.584
30.12000 3.006
30.14000 1.602
30.16000 0.551
30.18000 2.479
30.20000 2.784
30.22000 7.105
30.24000 -0.253
30.26000 -2.539
30.28000 0.051
30.30000 5.196
30.32000 3.534
30.34000 6.887
30.36000 2.047
30.38000 2.036
30.40000 3.468
30.42000 0.966
30.44000 0.694
30.46000 4.960
30.48000 5.674
30.50000 4.961
30.52000 3.099
30.54000 -1.608
30.56000 -2.611
30.58000 0.505
30.60000 -1.752
30.62000 -1.383
30.64000 -3.624
30.66000 -0.503
30.68000 1.131
30.70000 2.728
30.72000 4.911
30.74000 0.208
30.76000 0.881
30.78000 -1.154
30.80000 1.366
30.82000 3.424
30.84000 7.691
30.86000 7.733
30.88000 9.021
30.90000 8.026
30.92000 7.523
30.94000 0.949
30.96000 4.638
30.98000 4.935
31.00000 3.088
31.02000 1.691
31.04000 0.577
31.06000 2.574
31.08000 5.062
31.10000 0.684
31.12000 0.257
31.14000 4.306
31.16000 -2.446
31.18000 0.008
31.20000 3.514
31.22000 7.717
31.24000 7.182
31.26000 2.135
31.28000 4.205
31.30000 3.758
31.32000 1.577
31.34000 1.116
31.36000 8.730
31.38000 8.335
31.40000 -1.077
31.42000 -1.639
31.44000 2.004
31.46000 1.146
31.48000 9.521
31.50000 7.685
31.52000 3.472
31.54000 6.377
31.56000 -0.615
31.58000 -0.493
31.60000 5.513
31.62000 5.939
31.64000 1.364
31.66000 2.458
31.68000 4.109
31.70000 2.084
31.72000 2.656
31.74000 -0.513
31.76000 0.104
31.78000 1.951
31.80000 4.242
31.82000 1.919
31.84000 4.252
31.86000 6.396
31.88000 7.697
31.90000 7.933
31.92000 4.214
31.94000 2.737
31.96000 2.658
31.98000 2.868
32.00000 4.723
32.02000 2.074
32.04000 4.971
32.06000 -3.577
32.08000 2.369
32.10000 5.555
32.12000 5.400
32.14000 2.344
32.16000 1.152
32.18000 1.358
32.20000 6.109
32.22000 6.348
32.24000 4.905
32.26000 2.972
32.28000 0.826
32.30000 4.981
32.32000 5.899
32.34000 -0.557
32.36000 1.690
32.38000 6.431
32.40000 0.663
32.42000 2.705
32.44000 2.783
32.46000 4.001
32.48000 7.563
32.50000 -0.052
32.52000 4.567
32.54000 9.807
32.56000 3.999
32.58000 1.437
32.60000 2.455
32.62000 -2.831
32.64000 -3.550
32.66000 -2.733
32.68000 3.946
32.70000 2.847
32.72000 -0.660
32.74000 -2.605
32.76000 1.767
32.78000 6.699
32.80000 3.247
32.82000 0.045
32.84000 0.725
32.86000 0.186
32.88000 2.993
32.90000 3.205
32.92000 2.954
32.94000 1.547
32.96000 2.962
32.98000 6.146
33.00000 7.284
33.02000 7.118
33.04000 8.932
33.06000 6.495
33.08000 6.092
33.10000 0.562
33.12000 1.879
33.14000 4.100
33.16000 0.919
33.18000 2.322
33.20000 3.320
33.22000 4.337
33.24000 2.857
33.26000 3.457
33.28000 4.706
33.30000 8.448
33.32000 1.934
33.34000 -3.093
33.36000 -0.907
33.38000 4.668
33.40000 5.577
33.42000 4.940
33.44000 -0.880
33.46000 -0.016
33.48000 1.705
33.50000 1.979
33.52000 0.695
33.54000 5.326
33.56000 8.262
33.58000 3.597
33.60000 3.686
33.62000 3.310
33.64000 5.342
33.66000 4.308
33.68000 7.639
33.70000 4.243
33.72000 4.468
33.74000 4.270
33.76000 1.503
33.78000 1.943
33.80000 -2.587
33.82000 -0.327
33.84000 3.032
33.86000 4.834
33.88000 5.235
33.90000 2.313
33.92000 -1.915
33.94000 3.803
33.96000 6.120
33.98000 6.830
34.00000 7.350
34.02000 4.871
34.04000 2.884
34.06000 3.925
34.08000 7.840
34.10000 3.750
34.12000 5.240
34.14000 6.128
34.16000 8.291
34.18000 -0.107
34.20000 2.045
34.22000 2.366
34.24000 0.389
34.26000 -3.517
34.28000 -3.123
34.30000 -0.445
34.32000 2.249
34.34000 1.579
34.36000 3.901
34.38000 3.787
34.40000 8.876
34.42000 3.758
34.44000 -0.263
34.46000 -0.126
34.48000 3.528
34.50000 4.741
34.52000 4.200
34.54000 2.998
34.56000 3.839
34.58000 4.642
34.60000 1.672
34.62000 -1.135
34.64000 -0.118
34.66000 0.526
34.68000 1.731
34.70000 0.262
34.72000 -0.588
34.74000 2.945
34.76000 -1.575
34.78000 -0.097
34.80000 1.495
34.82000 0.289
34.84000 -1.130
34.86000 -1.776
34.88000 -2.025
34.90000 4.416
34.92000 1.167
34.94000 2.302
34.96000 4.674
34.98000 0.173
35.00000 -1.331
35.02000 0.612
35.04000 -0.071
35.06000 2.297
35.08000 2.142
35.10000 1.209
35.12000 1.536
35.14000 4.127
35.16000 3.380
35.18000 3.969
35.20000 -1.553
35.22000 -1.939
35.24000 -2.912
35.26000 1.926
35.28000 3.623
35.30000 6.367
35.32000 1.049
35.34000 0.181
35.36000 0.640
35.38000 -0.539
35.40000 -0.880
35.42000 -2.181
35.44000 2.301
35.46000 -0.092
35.48000 1.204
35.50000 4.659
35.52000 2.994
35.54000 0.745
35.56000 3.184
35.58000 0.793
35.60000 1.600
35.62000 2.655
35.64000 -1.437
35.66000 -3.473
35.68000 -2.122
35.70000 1.022
35.72000 6.369
35.74000 4.316
35.76000 1.904
35.78000 2.124
35.80000 -0.752
35.82000 -1.505
35.84000 1.155
35.86000 4.334
35.88000 5.353
35.90000 9.519
35.92000 4.862
35.94000 3.098
35.96000 2.043
35.98000 1.309
36.00000 4.757
36.02000 1.973
36.04000 2.213
36.06000 2.347
36.08000 0.441
36.10000 -0.738
36.12000 5.697
36.14000 5.111
36.16000 3.389
36.18000 1.476
36.20000 -1.286
36.22000 -0.605
36.24000 8.016
36.26000 8.693
36.28000 5.717
36.30000 4.300
36.32000 -3.455
36.34000 -3.385
36.36000 3.352
36.38000 3.415
36.40000 0.370
36.42000 2.388
36.44000 4.870
36.46000 3.415
36.48000 6.825
36.50000 4.460
36.52000 2.794
36.54000 2.999
36.56000 5.595
36.58000 -0.733
36.60000 5.614
36.62000 8.210
36.64000 4.312
36.66000 4.012
36.68000 1.616
36.70000 -0.810
36.72000 -3.219
36.74000 -1.066
36.76000 2.176
36.78000 4.527
36.80000 6.182
36.82000 4.770
36.84000 5.273
36.86000 -0.707
36.88000 2.142
36.90000 -0.155
36.92000 -3.476
36.94000 -1.307
36.96000 3.938
36.98000 4.351
37.00000 2.206
37.02000 5.033
37.04000 5.959
37.06000 1.422
37.08000 -1.357
37.10000 0.997
37.12000 5.353
37.14000 7.645
37.16000 5.287
37.18000 1.445
37.20000 3.004
37.22000 1.715
37.24000 4.732
37.26000 -0.353
37.28000 -1.710
37.30000 -1.277
37.32000 5.060
37.34000 3.902
37.36000 4.133
37.38000 -2.431
37.40000 -0.830
37.42000 0.432
37.44000 -1.134
37.46000 -1.488
37.48000 -0.257
37.50000 2.323
37.52000 0.241
37.54000 4.860
37.56000 3.116
37.58000 1.359
37.60000 0.638
37.62000 0.514
37.64000 2.321
37.66000 -1.033
37.68000 0.662
37.70000 2.252
37.72000 1.163
37.74000 -3.543
37.76000 -1.299
37.78000 -2.848
37.80000 -2.110
37.82000 3.330
37.84000 2.184
37.86000 -2.363
37.88000 -1.010
37.90000 -0.477
37.92000 1.684
37.94000 -0.484
37.96000 4.479
37.98000 4.727
38.00000 2.857
38.02000 -0.670
38.04000 2.675
38.06000 9.054
38.08000 8.931
38.10000 5.679
38.12000 3.554
38.14000 5.696
38.16000 5.727
38.18000 5.161
38.20000 5.767
38.22000 11.700
38.24000 11.367
38.26000 8.642
38.28000 12.865
38.30000 7.777
38.32000 7.801
38.34000 9.913
38.36000 10.156
38.38000 13.289
38.40000 12.004
38.42000 9.434
38.44000 8.070
38.46000 11.544
38.48000 13.866
38.50000 12.274
38.52000 10.994
38.54000 15.513
38.56000 12.637
38.58000 15.446
38.60000 15.337
38.62000 16.362
38.64000 11.100
38.66000 11.606
38.68000 17.398
38.70000 20.046
38.72000 20.083
38.74000 18.221
38.76000 14.513
38.78000 13.391
38.80000 19.015
38.82000 21.556
38.84000 24.029
38.86000 19.718
38.88000 17.237
38.90000 15.894
38.92000 15.080
38.94000 22.533
38.96000 23.322
38.98000 19.580
39.00000 20.800
39.02000 22.937
39.04000 28.650
39.06000 33.610
39.08000 32.910
39.10000 26.995
39.12000 26.299
39.14000 26.611
39.16000 28.758
39.18000 25.572
39.20000 27.493
39.22000 28.457
39.24000 34.529
39.26000 32.765
39.28000 37.293
39.30000 40.325
39.32000 37.978
39.34000 39.103
39.36000 38.940
39.38000 41.405
39.40000 41.532
39.42000 43.765
39.44000 49.465
39.46000 52.601
39.48000 54.983
39.50000 55.569
39.52000 56.662
39.54000 59.011
39.56000 57.090
39.58000 63.602
39.60000 69.410
39.62000 74.650
39.64000 77.736
39.66000 77.281
39.68000 79.755
39.70000 82.636
39.72000 92.516
39.74000 100.115
39.76000 96.621
39.78000 103.455
39.80000 109.390
39.82000 113.991
39.84000 117.311
39.86000 120.376
39.88000 132.183
39.90000 135.131
39.92000 141.068
39.94000 150.318
39.96000 152.777
39.98000 156.875
40.00000 169.927
40.02000 177.717
40.04000 185.259
40.06000 203.465
40.08000 212.034
40.10000 222.757
40.12000 238.488
40.14000 249.121
40.16000 260.518
40.18000 263.761
40.20000 280.343
40.22000 298.831
40.24000 315.536
40.26000 334.165
40.28000 347.928
40.30000 359.568
40.32000 366.322
40.34000 383.176
40.36000 397.120
40.38000 411.183
40.40000 431.218
40.42000 448.347
40.44000 462.347
40.46000 471.349
40.48000 486.237
40.50000 496.853
40.52000 495.962
40.54000 516.970
40.56000 528.561
40.58000 536.790
40.60000 551.507
40.62000 558.591
40.64000 553.137
40.66000 552.666
40.68000 549.461
40.70000 563.888
40.72000 558.898
40.74000 551.690
40.76000 549.787
40.78000 545.066
40.80000 540.074
40.82000 531.757
40.84000 516.721
40.86000 502.830
40.88000 491.447
40.90000 472.200
40.92000 468.550
40.94000 461.091
40.96000 449.035
40.98000 430.746
41.00000 412.816
41.02000 399.464
41.04000 386.266
41.06000 369.084
41.08000 349.635
41.10000 326.842
41.12000 308.734
41.14000 295.980
41.16000 278.139
41.18000 273.557
41.20000 268.553
41.22000 254.778
41.24000 240.239
41.26000 228.289
41.28000 227.999
41.30000 215.838
41.32000 195.364
41.34000 181.346
41.36000 173.397
41.38000 164.938
41.40000 156.324
41.42000 147.112
41.44000 139.057
41.46000 133.446
41.48000 131.258
41.50000 123.104
41.52000 116.112
41.54000 100.695
41.56000 94.199
41.58000 97.362
41.60000 93.053
41.62000 86.538
41.64000 80.660
41.66000 77.389
41.68000 80.010
41.70000 76.351
41.72000 70.883
41.74000 62.933
41.76000 64.309
41.78000 57.738
41.80000 51.326
41.82000 55.287
41.84000 51.326
41.86000 50.848
41.88000 45.639
41.90000 42.004
41.92000 37.782
41.94000 39.155
41.96000 38.001
41.98000 33.448
42.00000 37.097
42.02000 30.465
42.04000 29.793
42.06000 30.735
42.08000 25.620
42.10000 24.187
42.12000 20.700
42.14000 24.502
42.16000 24.081
42.18000 23.254
42.20000 19.208
42.22000 19.799
42.24000 20.700
42.26000 16.271
42.28000 18.740
42.30000 15.053
42.32000 15.986
42.34000 18.079
42.36000 16.126
42.38000 8.995
42.40000 7.338
42.42000 10.584
42.44000 11.568
42.46000 11.507
42.48000 10.370
42.50000 7.740
42.52000 8.044
42.54000 9.675
42.56000 10.997
42.58000 9.074
42.60000 7.188
42.62000 7.121
42.64000 1.859
42.66000 0.717
42.68000 0.920
42.70000 6.046
42.72000 7.030
42.74000 7.237
42.76000 5.336
42.78000 9.669
42.80000 3.866
42.82000 6.813
42.84000 6.419
42.86000 2.774
42.88000 0.458
42.90000 0.924
42.92000 0.889
42.94000 3.008
42.96000 6.170
42.98000 6.858
43.00000 3.578
43.02000 -3.026
43.04000 1.903
43.06000 5.985
43.08000 4.051
43.10000 3.580
43.12000 -3.554
43.14000 0.248
43.16000 0.170
43.18000 0.603
43.20000 -0.093
43.22000 -3.209
43.24000 -1.934
43.26000 -0.941
43.28000 3.014
43.30000 0.791
43.32000 1.313
43.34000 0.546
43.36000 2.314
43.38000 2.103
43.40000 2.788
43.42000 0.869
43.44000 -2.442
43.46000 0.019
43.48000 -1.485
43.50000 3.270
43.52000 5.184
43.54000 1.588
43.56000 -2.347
43.58000 -0.318
43.60000 -2.623
43.62000 2.533
43.64000 3.977
43.66000 3.505
43.68000 -0.966
43.70000 -1.589
43.72000 -0.982
43.74000 3.443
43.76000 3.352
43.78000 -1.707
43.80000 -3.472
43.82000 -0.422
43.84000 0.863
43.86000 -1.773
43.88000 -0.084
43.90000 -0.915
43.92000 -1.635
43.94000 3.215
43.96000 6.381
43.98000 4.025
44.00000 2.068
44.02000 4.202
44.04000 1.545
44.06000 -3.440
44.08000 1.481
44.10000 3.137
44.12000 9.841
44.14000 7.606
44.16000 1.843
44.18000 -1.104
44.20000 0.732
44.22000 0.902
44.24000 2.240
44.26000 2.732
44.28000 1.816
44.30000 1.435
44.32000 2.525
44.34000 0.741
44.36000 1.332
44.38000 -0.293
44.40000 2.219
44.42000 0.338
44.44000 3.881
44.46000 4.527
44.48000 3.753
44.50000 4.411
44.52000 1.084
44.54000 3.070
44.56000 0.088
44.58000 -1.497
44.60000 -0.672
44.62000 -2.030
44.64000 -0.488
44.66000 2.644
44.68000 4.905
44.70000 0.987
44.72000 -3.401
44.74000 0.673
44.76000 2.964
44.78000 7.626
44.80000 7.437
44.82000 2.164
44.84000 4.282
44.86000 4.873
44.88000 1.792
44.90000 3.593
44.92000 4.467
44.94000 0.617
44.96000 -0.661
44.98000 3.909
45.00000 6.789
45.02000 6.513
45.04000 7.154
45.06000 5.108
45.08000 -0.230
45.10000 -3.373
45.12000 2.651
45.14000 3.077
45.16000 7.904
45.18000 2.703
45.20000 3.996
45.22000 6.078
45.24000 6.192
45.26000 5.747
45.28000 -1.120
45.30000 6.872
45.32000 5.459
45.34000 6.941
45.36000 6.572
45.38000 9.437
45.40000 10.762
45.42000 8.209
45.44000 2.933
45.46000 6.869
45.48000 6.407
45.50000 9.693
45.52000 7.947
45.54000 5.086
45.56000 2.676
45.58000 4.971
45.60000 7.524
45.62000 13.154
45.64000 11.972
45.66000 9.790
45.68000 13.620
45.70000 10.895
45.72000 9.112
45.74000 5.037
45.76000 13.307
45.78000 11.744
45.80000 10.895
45.82000 15.576
45.84000 22.247
45.86000 14.480
45.88000 12.197
45.90000 12.928
45.92000 10.297
45.94000 11.896
45.96000 13.495
45.98000 15.097
46.00000 12.852
46.02000 15.594
46.04000 21.469
46.06000 23.960
46.08000 20.909
46.10000 18.409
46.12000 22.255
46.14000 19.248
46.16000 21.103
46.18000 23.702
46.20000 23.384
46.22000 25.837
46.24000 21.602
46.26000 24.872
46.28000 31.468
46.30000 31.266
46.32000 32.946
46.34000 32.910
46.36000 35.262
46.38000 33.764
46.40000 35.421
46.42000 31.703
46.44000 30.434
46.46000 33.275
46.48000 36.240
46.50000 38.502
46.52000 41.897
46.54000 39.765
46.56000 34.556
46.58000 36.491
46.60000 41.401
46.62000 42.683
46.64000 45.348
46.66000 46.191
46.68000 44.926
46.70000 43.621
46.72000 46.671
46.74000 53.741
46.76000 54.884
46.78000 53.967
46.80000 51.749
46.82000 56.266
46.84000 59.251
46.86000 61.183
46.88000 59.440
46.90000 62.895
46.92000 64.556
46.94000 66.627
46.96000 63.740
46.98000 63.554
47.00000 66.960
47.02000 66.277
47.04000 68.724
47.06000 67.816
47.08000 62.304
47.10000 69.628
47.12000 69.708
47.14000 72.037
47.16000 73.522
47.18000 75.540
47.20000 71.637
47.22000 70.340
47.24000 71.777
47.26000 72.243
47.28000 65.735
47.30000 66.509
47.32000 64.686
47.34000 67.065
47.36000 66.143
47.38000 66.037
47.40000 67.303
47.42000 68.252
47.44000 70.466
47.46000 72.700
47.48000 71.124
47.50000 67.179
47.52000 62.457
47.54000 64.695
47.56000 63.304
47.58000 56.134
47.60000 53.472
47.62000 58.068
47.64000 62.409
47.66000 54.831
47.68000 49.563
47.70000 54.112
47.72000 55.273
47.74000 51.084
47.76000 48.932
47.78000 47.135
47.80000 50.515
47.82000 47.237
47.84000 43.156
47.86000 42.472
47.88000 39.210
47.90000 33.540
47.92000 35.607
47.94000 37.481
47.96000 32.149
47.98000 31.693
48.00000 41.422
48.02000 34.680
48.04000 30.405
48.06000 29.255
48.08000 28.096
48.10000 35.445
48.12000 26.974
48.14000 27.299
48.16000 24.062
48.18000 25.080
48.20000 21.354
48.22000 24.145
48.24000 23.520
48.26000 18.883
48.28000 12.478
48.30000 15.579
48.32000 16.135
48.34000 15.494
48.36000 11.413
48.38000 7.224
48.40000 12.911
48.42000 11.861
48.44000 8.661
48.46000 12.473
48.48000 13.817
48.50000 8.026
48.52000 5.032
48.54000 14.197
48.56000 16.589
48.58000 7.845
48.60000 3.806
48.62000 2.010
48.64000 3.217
48.66000 4.160
48.68000 6.651
48.70000 9.493
48.72000 7.715
48.74000 10.316
48.76000 5.644
48.78000 3.946
48.80000 6.616
48.82000 6.016
48.84000 0.691
48.86000 1.916
48.88000 4.226
48.90000 1.923
48.92000 1.917
48.94000 1.493
48.96000 -0.890
48.98000 -0.744
49.00000 -1.891
49.02000 3.116
49.04000 4.470
49.06000 6.732
49.08000 5.945
49.10000 7.527
49.12000 4.158
49.14000 5.155
49.16000 1.306
49.18000 0.980
49.20000 1.964
49.22000 1.899
49.24000 3.254
49.26000 6.118
49.28000 7.579
49.30000 5.219
49.32000 4.488
49.34000 -0.328
49.36000 -3.032
49.38000 -2.429
49.40000 -1.346
49.42000 2.249
49.44000 6.999
49.46000 4.184
49.48000 2.421
49.50000 3.177
49.52000 3.605
49.54000 3.261
49.56000 0.952
49.58000 3.023
49.60000 -0.529
49.62000 4.314
49.64000 1.639
49.66000 4.919
49.68000 6.684
49.70000 5.052
49.72000 1.571
49.74000 -2.995
49.76000 -0.357
49.78000 3.239
49.80000 4.524
49.82000 1.894
49.84000 -1.323
49.86000 0.386
49.88000 5.734
49.90000 5.365
49.92000 2.393
49.94000 3.443
49.96000 1.936
49.98000 8.268
50.00000 2.645
50.02000 -1.028
50.04000 0.982
50.06000 0.840
50.08000 -0.109
50.10000 2.947
50.12000 0.364
50.14000 4.739
50.16000 4.631
50.18000 4.889
50.20000 1.718
50.22000 -2.513
50.24000 -0.253
50.26000 -2.682
50.28000 4.580
50.30000 4.806
50.32000 4.720
50.34000 8.739
50.36000 3.872
50.38000 -1.180
50.40000 0.686
50.42000 -2.919
50.44000 2.919
50.46000 1.616
50.48000 4.214
50.50000 3.210
50.52000 4.952
50.54000 1.529
50.56000 5.608
50.58000 4.528
50.60000 4.687
50.62000 1.646
50.64000 -0.068
50.66000 2.205
50.68000 0.230
50.70000 3.209
50.72000 4.006
50.74000 0.998
50.76000 8.816
50.78000 7.544
50.80000 0.905
50.82000 -1.052
50.84000 -2.859
50.86000 4.171
50.88000 4.453
50.90000 8.359
50.92000 9.675
50.94000 14.539
50.96000 6.060
50.98000 5.363
51.00000 4.093
51.02000 0.452
51.04000 3.667
51.06000 4.884
51.08000 4.694
51.10000 5.099
51.12000 5.603
51.14000 1.885
51.16000 5.289
51.18000 1.218
51.20000 5.851
51.22000 8.205
51.24000 8.754
51.26000 7.695
51.28000 5.581
51.30000 9.748
51.32000 1.888
51.34000 1.150
51.36000 0.046
51.38000 5.202
51.40000 4.266
51.42000 3.368
51.44000 4.624
51.46000 6.819
51.48000 2.329
51.50000 3.562
51.52000 2.601
51.54000 4.111
51.56000 3.544
51.58000 7.054
51.60000 7.278
51.62000 8.904
51.64000 6.419
51.66000 12.756
51.68000 13.260
51.70000 7.515
51.72000 3.403
51.74000 4.672
51.76000 3.696
51.78000 -2.816
51.80000 3.317
51.82000 3.422
51.84000 7.321
51.86000 12.039
51.88000 11.289
51.90000 6.460
51.92000 8.403
51.94000 5.388
51.96000 2.261
51.98000 1.756
52.00000 7.329
52.02000 12.194
52.04000 12.373
52.06000 5.174
52.08000 -2.820
52.10000 -1.380
52.12000 1.475
52.14000 5.867
52.16000 10.030
52.18000 5.675
52.20000 5.443
52.22000 6.452
52.24000 4.177
52.26000 2.124
52.28000 0.573
52.30000 0.455
52.32000 5.356
52.34000 5.135
52.36000 7.320
52.38000 5.402
52.40000 4.228
52.42000 2.659
52.44000 2.943
52.46000 -0.119
52.48000 -2.824
52.50000 4.114
52.52000 5.985
52.54000 2.382
52.56000 1.017
52.58000 2.593
52.60000 -2.048
52.62000 -0.566
52.64000 1.233
52.66000 1.568
52.68000 2.141
52.70000 9.590
52.72000 9.261
52.74000 6.298
52.76000 5.797
52.78000 6.164
52.80000 1.715
52.82000 -0.117
52.84000 4.816
52.86000 2.906
52.88000 3.902
52.90000 6.420
52.92000 4.614
52.94000 3.347
52.96000 5.294
52.98000 3.492
53.00000 -2.524
53.02000 4.028
53.04000 4.641
53.06000 3.065
53.08000 4.193
53.10000 -0.346
53.12000 -0.169
53.14000 2.878
53.16000 6.754
53.18000 4.746
53.20000 5.509
53.22000 -0.218
53.24000 -0.791
53.26000 0.647
53.28000 4.589
53.30000 4.132
53.32000 2.809
53.34000 0.562
53.36000 7.352
53.38000 5.543
53.40000 0.699
53.42000 2.315
53.44000 6.177
53.46000 4.267
53.48000 2.106
53.50000 0.199
53.52000 1.919
53.54000 -2.212
53.56000 2.354
53.58000 2.714
53.60000 3.535
53.62000 0.524
53.64000 0.321
53.66000 -0.764
53.68000 2.741
53.70000 2.574
53.72000 -1.023
53.74000 1.037
53.76000 3.486
53.78000 4.296
53.80000 1.663
53.82000 7.634
53.84000 4.368
53.86000 2.884
53.88000 4.486
53.90000 2.263
53.92000 -0.819
53.94000 -2.775
53.96000 -2.019
53.98000 -1.171
54.00000 1.046
54.02000 5.700
54.04000 5.463
54.06000 1.590
54.08000 3.976
54.10000 0.499
54.12000 -1.859
54.14000 3.256
54.16000 2.583
54.18000 4.929
54.20000 6.812
54.22000 5.682
54.24000 5.067
54.26000 -0.040
54.28000 -2.766
54.30000 3.535
54.32000 5.598
54.34000 6.622
54.36000 5.019
54.38000 1.466
54.40000 4.212
54.42000 5.470
54.44000 5.322
54.46000 2.878
54.48000 -2.147
54.50000 -0.258
54.52000 -0.444
54.54000 2.394
54.56000 2.169
54.58000 2.534
54.60000 0.876
54.62000 1.352
54.64000 0.317
54.66000 1.292
54.68000 4.310
54.70000 1.591
54.72000 -1.445
54.74000 2.200
54.76000 4.858
54.78000 6.267
54.80000 1.946
54.82000 -0.909
54.84000 1.690
54.86000 6.768
54.88000 6.506
54.90000 5.308
54.92000 1.119
54.94000 0.865
54.96000 5.146
54.98000 2.123
55.00000 3.290
55.02000 5.591
55.04000 7.518
55.06000 4.290
55.08000 -0.933
55.10000 4.026
55.12000 2.178
55.14000 1.069
55.16000 -2.208
55.18000 2.979
55.20000 -0.927
55.22000 1.579
55.24000 3.602
55.26000 6.617
55.28000 5.464
55.30000 4.685
55.32000 9.778
55.34000 6.340
55.36000 5.258
55.38000 3.050
55.40000 6.125
55.42000 4.137
55.44000 2.208
55.46000 -2.730
55.48000 0.743
55.50000 2.332
55.52000 2.550
55.54000 2.210
55.56000 3.085
55.58000 6.647
55.60000 11.826
55.62000 4.828
55.64000 7.528
55.66000 7.083
55.68000 4.824
55.70000 0.074
55.72000 -0.557
55.74000 3.280
55.76000 6.650
55.78000 2.084
55.80000 2.248
55.82000 9.616
55.84000 3.407
55.86000 0.786
55.88000 3.439
55.90000 7.519
55.92000 7.027
55.94000 6.167
55.96000 7.665
55.98000 7.913
56.00000 4.421
56.02000 6.097
56.04000 2.290
56.06000 2.757
56.08000 3.055
56.10000 -0.980
56.12000 1.803
56.14000 1.227
56.16000 3.206
56.18000 6.579
56.20000 5.444
56.22000 5.582
56.24000 7.288
56.26000 8.126
56.28000 7.810
56.30000 8.734
56.32000 3.507
56.34000 -0.869
56.36000 -2.679
56.38000 -1.280
56.40000 3.514
56.42000 7.077
56.44000 6.292
56.46000 7.679
56.48000 9.923
56.50000 7.946
56.52000 4.364
56.54000 4.256
56.56000 1.411
56.58000 1.344
56.60000 1.275
56.62000 4.341
56.64000 7.620
56.66000 10.104
56.68000 5.646
56.70000 5.578
56.72000 5.341
56.74000 7.039
56.76000 6.750
56.78000 8.314
56.80000 4.846
56.82000 8.546
56.84000 9.887
56.86000 7.552
56.88000 1.577
56.90000 1.078
56.92000 -2.624
56.94000 0.752
56.96000 3.832
56.98000 5.792
57.00000 7.577
57.02000 8.127
57.04000 6.646
57.06000 8.648
57.08000 4.456
57.10000 6.296
57.12000 5.778
57.14000 6.630
57.16000 6.958
57.18000 6.678
57.20000 8.582
57.22000 9.163
57.24000 5.419
57.26000 4.383
57.28000 3.477
57.30000 9.454
57.32000 8.828
57.34000 8.680
57.36000 4.447
57.38000 3.882
57.40000 5.518
57.42000 8.661
57.44000 5.614
57.46000 2.380
57.48000 0.544
57.50000 -2.647
57.52000 4.497
57.54000 8.593
57.56000 5.145
57.58000 0.471
57.60000 3.190
57.62000 5.792
57.64000 7.679
57.66000 6.500
57.68000 6.649
57.70000 6.581
57.72000 4.651
57.74000 1.889
57.76000 2.632
57.78000 1.334
57.80000 1.621
57.82000 3.081
57.84000 1.367
57.86000 0.371
57.88000 -2.481
57.90000 0.839
57.92000 1.185
57.94000 0.481
57.96000 3.832
57.98000 1.452
58.00000 1.507
58.02000 3.698
58.04000 1.786
58.06000 1.049
58.08000 3.030
58.10000 5.727
58.12000 3.004
58.14000 5.938
58.16000 3.306
58.18000 3.129
58.20000 2.927
58.22000 2.983
58.24000 2.140
58.26000 1.485
58.28000 0.012
58.30000 1.251
58.32000 3.980
58.34000 4.751
58.36000 1.294
58.38000 -2.652
58.40000 4.736
58.42000 5.879
58.44000 0.858
58.46000 -1.374
58.48000 1.042
58.50000 2.054
58.52000 2.919
58.54000 0.246
58.56000 2.785
58.58000 5.311
58.60000 3.683
58.62000 -1.931
58.64000 -1.664
58.66000 1.755
58.68000 4.160
58.70000 5.381
58.72000 2.944
58.74000 1.714
58.76000 1.207
58.78000 -1.950
58.80000 -0.432
58.82000 2.883
58.84000 4.756
58.86000 3.211
58.88000 4.134
58.90000 2.999
58.92000 4.300
58.94000 5.453
58.96000 1.992
58.98000 4.017
59.00000 2.480
59.02000 2.837
59.04000 3.969
59.06000 8.422
59.08000 8.968
59.10000 1.724
59.12000 5.265
59.14000 6.218
59.16000 8.550
59.18000 5.383
59.20000 6.114
59.22000 3.030
59.24000 -0.565
59.26000 -0.077
59.28000 1.489
59.30000 4.042
59.32000 5.798
59.34000 2.489
59.36000 -2.602
59.38000 2.996
59.40000 2.568
59.42000 3.395
59.44000 3.709
59.46000 3.280
59.48000 4.205
59.50000 3.246
59.52000 -0.728
59.54000 0.526
59.56000 2.112
59.58000 0.122
59.60000 1.570
59.62000 1.610
59.64000 0.623
59.66000 -2.208
59.68000 4.589
59.70000 4.503
59.72000 4.791
59.74000 6.011
59.76000 4.838
59.78000 1.147
59.80000 -0.559
59.82000 2.963
59.84000 5.624
59.86000 7.694
59.88000 8.288
59.90000 6.228
59.92000 3.761
59.94000 1.702
59.96000 1.705
59.98000 0.034
60.00000 -0.307
60.02000 -0.059
60.04000 1.465
60.06000 1.135
60.08000 2.878
60.10000 1.182
60.12000 4.581
60.14000 5.884
60.16000 4.883
60.18000 4.211
60.20000 -1.114
60.22000 -1.187
60.24000 1.917
60.26000 1.836
60.28000 4.952
60.30000 3.380
60.32000 3.989
60.34000 4.069
60.36000 1.827
60.38000 -2.576
60.40000 -2.428
60.42000 -1.330
60.44000 3.606
60.46000 1.821
60.48000 1.374
60.50000 5.486
60.52000 6.465
60.54000 6.529
60.56000 0.415
60.58000 0.536
60.60000 1.645
60.62000 2.491
60.64000 0.454
60.66000 0.956
60.68000 4.459
60.70000 0.145
60.72000 -0.630
60.74000 1.801
60.76000 -2.556
60.78000 0.289
60.80000 4.488
60.82000 1.387
60.84000 4.736
60.86000 6.665
60.88000 5.863
60.90000 -0.633
60.92000 -0.133
60.94000 4.318
60.96000 3.602
60.98000 2.445
61.00000 1.205
61.02000 2.700
61.04000 -2.556
61.06000 1.236
61.08000 -0.023
61.10000 0.672
61.12000 -0.057
61.14000 2.888
61.16000 4.582
61.18000 1.462
61.20000 0.127
61.22000 1.280
61.24000 5.560
61.26000 4.530
61.28000 2.789
61.30000 4.746
61.32000 4.227
61.34000 1.049
61.36000 2.240
61.38000 2.259
61.40000 -0.331
61.42000 0.672
61.44000 1.287
61.46000 -1.515
61.48000 0.784
61.50000 2.385
61.52000 5.671
61.54000 3.954
61.56000 0.922
61.58000 1.215
61.60000 0.894
61.62000 2.717
61.64000 5.409
61.66000 4.081
61.68000 0.034
61.70000 -0.580
61.72000 3.250
61.74000 0.965
61.76000 -0.564
61.78000 1.874
61.80000 2.904
61.82000 -2.532
61.84000 -0.040
61.86000 7.765
61.88000 7.879
61.90000 -1.867
61.92000 -0.130
61.94000 1.132
61.96000 0.228
61.98000 -2.311
62.00000 -0.875
62.02000 2.733
62.04000 3.034
62.06000 4.098
62.08000 0.896
62.10000 -0.185
62.12000 0.565
62.14000 0.193
62.16000 0.620
62.18000 1.069
62.20000 1.785
62.22000 0.037
62.24000 1.602
62.26000 1.381
62.28000 6.117
62.30000 2.210
62.32000 1.062
62.34000 -0.285
62.36000 4.471
62.38000 4.421
62.40000 3.177
62.42000 4.224
62.44000 3.245
62.46000 5.021
62.48000 6.391
62.50000 4.084
62.52000 2.391
62.54000 2.687
62.56000 2.880
62.58000 0.122
62.60000 1.882
62.62000 3.313
62.64000 -0.206
62.66000 3.067
62.68000 2.238
62.70000 2.115
62.72000 5.089
62.74000 2.516
62.76000 2.336
62.78000 0.638
62.80000 -0.100
62.82000 -0.551
62.84000 2.406
62.86000 4.496
62.88000 3.008
62.90000 2.861
62.92000 2.739
62.94000 1.624
62.96000 0.582
62.98000 1.420
63.00000 2.472
63.02000 0.516
63.04000 2.361
63.06000 2.924
63.08000 3.503
63.10000 3.106
63.12000 1.054
63.14000 1.608
63.16000 -2.515
63.18000 -1.958
63.20000 -0.369
63.22000 -0.566
63.24000 -0.891
63.26000 0.221
63.28000 1.628
63.30000 1.885
63.32000 0.324
63.34000 1.336
63.36000 1.221
63.38000 2.814
63.40000 -0.420
63.42000 -1.038
63.44000 0.505
63.46000 5.221
63.48000 4.360
63.50000 2.158
63.52000 3.311
63.54000 2.341
63.56000 0.896
63.58000 3.257
63.60000 4.881
63.62000 0.760
63.64000 -2.486
63.66000 -2.497
63.68000 -2.312
63.70000 3.483
63.72000 5.667
63.74000 4.267
63.76000 -0.450
63.78000 2.000
63.80000 1.844
63.82000 3.501
63.84000 3.695
63.86000 2.408
63.88000 3.190
63.90000 1.556
63.92000 0.916
63.94000 -0.759
63.96000 2.866
63.98000 5.415
64.00000 3.178
64.02000 1.497
64.04000 3.714
64.06000 4.835
64.08000 6.513
64.10000 2.824
64.12000 1.660
64.14000 1.064
64.16000 1.523
64.18000 1.842
64.20000 4.136
64.22000 3.093
64.24000 -0.217
64.26000 -0.212
64.28000 1.970
64.30000 5.636
64.32000 7.038
64.34000 3.548
64.36000 -0.228
64.38000 4.110
64.40000 6.388
64.42000 4.972
64.44000 4.769
64.46000 1.608
64.48000 3.411
64.50000 3.293
64.52000 4.456
64.54000 4.263
64.56000 1.162
64.58000 3.265
64.60000 3.683
64.62000 2.560
64.64000 -0.197
64.66000 2.917
64.68000 3.689
64.70000 3.458
64.72000 8.461
64.74000 3.997
64.76000 5.053
64.78000 -0.746
64.80000 1.085
64.82000 1.365
64.84000 4.159
64.86000 8.177
64.88000 1.563
64.90000 0.886
64.92000 2.628
64.94000 3.117
64.96000 0.889
64.98000 6.319
65.00000 4.508
65.02000 4.458
65.04000 5.103
65.06000 4.577
65.08000 2.248
65.10000 -0.730
65.12000 3.873
65.14000 2.326
65.16000 3.324
65.18000 5.231
65.20000 4.089
65.22000 6.463
65.24000 7.813
65.26000 9.189
65.28000 7.601
65.30000 6.822
65.32000 5.077
65.34000 1.410
65.36000 -2.461
65.38000 0.411
65.40000 6.510
65.42000 8.989
65.44000 7.337
65.46000 4.623
65.48000 4.283
65.50000 8.006
65.52000 6.050
65.54000 -0.500
65.56000 2.283
65.58000 5.353
65.60000 7.344
65.62000 6.415
65.64000 6.027
65.66000 5.057
65.68000 4.102
65.70000 3.740
65.72000 0.601
65.74000 1.537
65.76000 1.846
65.78000 0.201
65.80000 2.685
65.82000 5.450
65.84000 4.640
65.86000 4.903
65.88000 2.498
65.90000 2.059
65.92000 1.921
65.94000 1.157
65.96000 1.757
65.98000 -0.215
66.00000 3.386
66.02000 3.043
66.04000 2.421
66.06000 2.450
66.08000 1.234
66.10000 1.498
66.12000 2.201
66.14000 1.834
66.16000 1.261
66.18000 0.039
66.20000 -1.684
66.22000 -1.509
66.24000 1.533
66.26000 -0.766
66.28000 -0.578
66.30000 3.172
66.32000 3.973
66.34000 2.269
66.36000 1.800
66.38000 1.523
66.40000 0.427
66.42000 4.682
66.44000 5.923
66.46000 2.307
66.48000 3.623
66.50000 2.857
66.52000 0.480
66.54000 -0.253
66.56000 1.945
66.58000 1.329
66.60000 -1.788
66.62000 -0.682
66.64000 2.184
66.66000 0.199
66.68000 0.982
66.70000 1.229
66.72000 -1.942
66.74000 -2.557
66.76000 0.232
66.78000 -0.212
66.80000 -2.532
66.82000 0.714
66.84000 0.856
66.86000 1.545
66.88000 2.051
66.90000 1.351
66.92000 -0.169
66.94000 1.325
66.96000 0.727
66.98000 -0.153
67.00000 4.022
67.02000 6.011
67.04000 3.092
67.06000 0.081
67.08000 -2.562
67.10000 0.847
67.12000 2.246
67.14000 4.691
67.16000 2.175
67.18000 0.648
67.20000 0.984
67.22000 1.495
67.24000 -1.574
67.26000 -0.074
67.28000 2.385
67.30000 1.089
67.32000 2.008
67.34000 1.997
67.36000 1.273
67.38000 0.947
67.40000 2.362
67.42000 1.261
67.44000 -1.374
67.46000 -0.656
67.48000 -1.670
67.50000 0.867
67.52000 -1.343
67.54000 3.002
67.56000 1.655
67.58000 0.059
67.60000 -0.432
67.62000 -2.597
67.64000 0.497
67.66000 4.858
67.68000 3.512
67.70000 0.560
67.72000 6.012
67.74000 5.939
67.76000 1.673
67.78000 5.549
67.80000 3.433
67.82000 3.607
67.84000 3.409
67.86000 3.278
67.88000 5.709
67.90000 6.942
67.92000 1.777
67.94000 3.747
67.96000 3.786
67.98000 0.182
68.00000 3.158
68.02000 2.064
68.04000 1.642
68.06000 3.335
68.08000 4.277
68.10000 1.708
68.12000 3.341
68.14000 6.126
68.16000 7.170
68.18000 8.745
68.20000 9.103
68.22000 10.900
68.24000 9.849
68.26000 11.662
68.28000 8.678
68.30000 6.684
68.32000 7.475
68.34000 9.892
68.36000 7.759
68.38000 10.206
68.40000 10.164
68.42000 7.109
68.44000 12.469
68.46000 13.899
68.48000 11.743
68.50000 17.812
68.52000 14.190
68.54000 13.948
68.56000 10.581
68.58000 12.770
68.60000 14.546
68.62000 18.840
68.64000 16.008
68.66000 13.316
68.68000 13.830
68.70000 16.000
68.72000 16.020
68.74000 16.910
68.76000 21.644
68.78000 21.397
68.80000 16.842
68.82000 13.881
68.84000 12.521
68.86000 14.394
68.88000 17.814
68.90000 20.420
68.92000 19.420
68.94000 16.546
68.96000 14.205
68.98000 16.574
69.00000 23.284
69.02000 25.067
69.04000 23.307
69.06000 18.690
69.08000 20.520
69.10000 19.916
69.12000 26.353
69.14000 24.448
69.16000 21.527
69.18000 21.636
69.20000 19.330
69.22000 23.083
69.24000 21.510
69.26000 22.823
69.28000 22.882
69.30000 18.647
69.32000 19.484
69.34000 20.248
69.36000 15.353
69.38000 14.893
69.40000 17.097
69.42000 13.452
69.44000 11.670
69.46000 10.438
69.48000 14.484
69.50000 13.515
69.52000 12.975
69.54000 14.461
69.56000 13.375
69.58000 11.743
69.60000 11.661
69.62000 10.892
69.64000 12.250
69.66000 11.993
69.68000 8.194
69.70000 4.894
69.72000 7.167
69.74000 9.001
69.76000 7.475
69.78000 5.580
69.80000 8.372
69.82000 9.011
69.84000 10.008
69.86000 6.086
69.88000 2.240
69.90000 3.681
69.92000 6.662
69.94000 8.896
69.96000 9.799
69.98000 9.591
70.00000 9.999
70.02000 8.634
70.04000 8.659
70.06000 0.749
70.08000 2.322
70.10000 5.351
70.12000 4.545
70.14000 2.931
70.16000 2.155
70.18000 3.686
70.20000 6.891
70.22000 5.756
70.24000 0.507
70.26000 -0.009
70.28000 3.389
70.30000 4.385
70.32000 6.430
70.34000 5.414
70.36000 7.906
70.38000 6.175
70.40000 7.965
70.42000 4.910
70.44000 1.490
70.46000 1.136
70.48000 0.099
70.50000 -1.878
70.52000 2.231
70.54000 4.104
70.56000 6.675
70.58000 5.018
70.60000 4.023
70.62000 1.135
70.64000 -0.300
70.66000 2.051
70.68000 0.884
70.70000 -2.511
70.72000 2.378
70.74000 4.136
70.76000 -0.856
70.78000 -2.366
70.80000 1.614
70.82000 1.427
70.84000 1.542
70.86000 -1.821
70.88000 -0.701
70.90000 0.212
70.92000 2.867
70.94000 1.000
70.96000 2.697
70.98000 3.455
71.00000 -0.093
71.02000 2.415
71.04000 4.838
71.06000 3.886
71.08000 3.255
71.10000 0.503
71.12000 -0.929
71.14000 2.410
71.16000 0.521
71.18000 0.074
71.20000 -2.417
71.22000 0.857
71.24000 -1.891
71.26000 -0.588
71.28000 -0.423
71.30000 0.505
71.32000 2.738
71.34000 6.363
71.36000 3.629
71.38000 2.494
71.40000 2.387
71.42000 -2.066
71.44000 0.022
71.46000 -0.512
71.48000 0.881
71.50000 0.887
71.52000 1.882
71.54000 4.166
71.56000 3.275
71.58000 1.801
71.60000 0.651
71.62000 0.222
71.64000 3.654
71.66000 4.975
71.68000 -2.367
71.70000 0.584
71.72000 1.794
71.74000 1.078
71.76000 0.358
71.78000 4.137
71.80000 4.915
71.82000 2.008
71.84000 5.419
71.86000 5.355
71.88000 2.185
71.90000 1.612
71.92000 1.735
71.94000 3.705
71.96000 7.251
71.98000 10.839
72.00000 5.580
72.02000 -2.330
72.04000 0.119
72.06000 3.473
72.08000 5.140
72.10000 7.461
72.12000 6.764
72.14000 0.702
72.16000 1.141
72.18000 4.296
72.20000 5.929
72.22000 5.452
72.24000 5.751
72.26000 4.534
72.28000 6.358
72.30000 10.355
72.32000 6.150
72.34000 5.652
72.36000 1.613
72.38000 1.094
72.40000 3.537
72.42000 5.941
72.44000 -0.196
72.46000 2.404
72.48000 0.240
72.50000 0.098
72.52000 2.866
72.54000 4.138
72.56000 -2.008
72.58000 0.302
72.60000 3.469
72.62000 2.825
72.64000 0.171
72.66000 0.960
72.68000 -0.198
72.70000 0.330
72.72000 2.385
72.74000 1.458
72.76000 6.149
72.78000 6.559
72.80000 -0.299
72.82000 4.295
72.84000 2.684
72.86000 2.876
72.88000 -0.904
72.90000 0.345
72.92000 1.517
72.94000 -0.130
72.96000 1.826
72.98000 3.700
73.00000 3.134
73.02000 0.415
73.04000 1.972
73.06000 1.396
73.08000 2.924
73.10000 2.316
73.12000 0.875
73.14000 1.354
73.16000 5.363
73.18000 4.101
73.20000 2.597
73.22000 3.001
73.24000 1.317
73.26000 0.928
73.28000 0.015
73.30000 0.722
73.32000 6.082
73.34000 4.893
73.36000 3.917
73.38000 6.350
73.40000 9.072
73.42000 5.830
73.44000 1.238
73.46000 -0.833
73.48000 2.348
73.50000 5.321
73.52000 0.983
73.54000 1.974
73.56000 7.401
73.58000 5.863
73.60000 0.373
73.62000 -2.321
73.64000 -1.143
73.66000 0.046
73.68000 6.727
73.70000 7.328
73.72000 3.159
73.74000 6.743
73.76000 5.380
73.78000 -0.623
73.80000 1.465
73.82000 2.453
73.84000 2.202
73.86000 -0.039
73.88000 3.369
73.90000 9.724
73.92000 4.892
73.94000 6.126
73.96000 5.929
73.98000 6.782
74.00000 8.393
74.02000 3.776
74.04000 6.541
74.06000 7.115
74.08000 3.071
74.10000 -2.287
74.12000 -0.722
74.14000 0.330
74.16000 1.872
74.18000 3.559
74.20000 0.248
74.22000 1.547
74.24000 2.736
74.26000 0.970
74.28000 1.093
74.30000 0.256
74.32000 3.091
74.34000 7.846
74.36000 3.911
74.38000 3.459
74.40000 5.242
74.42000 5.140
74.44000 2.696
74.46000 0.424
74.48000 1.274
74.50000 3.488
74.52000 -0.716
74.54000 -2.310
74.56000 0.492
74.58000 2.406
74.60000 3.160
74.62000 2.454
74.64000 7.375
74.66000 3.068
74.68000 -2.315
74.70000 1.863
74.72000 -0.542
74.74000 0.976
74.76000 0.623
74.78000 -0.320
74.80000 1.159
74.82000 4.772
74.84000 4.275
74.86000 3.872
74.88000 0.215
74.90000 1.147
74.92000 4.773
74.94000 3.706
74.96000 4.290
74.98000 2.046
75.00000 -0.254
75.02000 -1.620
75.04000 -2.257
75.06000 1.100
75.08000 3.256
75.10000 4.258
75.12000 2.440
75.14000 1.334
75.16000 3.477
75.18000 2.783
75.20000 6.645
75.22000 4.991
75.24000 5.354
75.26000 6.591
75.28000 2.785
75.30000 9.709
75.32000 5.971
75.34000 4.304
75.36000 6.169
75.38000 10.400
75.40000 7.158
75.42000 6.018
75.44000 4.865
75.46000 3.768
75.48000 2.274
75.50000 1.798
75.52000 -2.248
75.54000 -2.323
75.56000 0.641
75.58000 1.605
75.60000 0.904
75.62000 2.671
75.64000 3.204
75.66000 1.303
75.68000 -1.346
75.70000 0.258
75.72000 3.884
75.74000 4.573
75.76000 0.113
75.78000 0.662
75.80000 2.584
75.82000 5.824
75.84000 1.803
75.86000 2.817
75.88000 5.043
75.90000 4.912
75.92000 3.842
75.94000 1.945
75.96000 6.395
75.98000 2.642
76.00000 -0.747
76.02000 -0.818
76.04000 0.139
76.06000 1.248
76.08000 7.141
76.10000 1.216
76.12000 2.405
76.14000 1.825
76.16000 3.591
76.18000 0.232
76.20000 -0.801
76.22000 -0.024
76.24000 1.702
76.26000 2.803
76.28000 2.784
76.30000 -0.529
76.32000 2.801
76.34000 3.714
76.36000 2.721
76.38000 -2.285
76.40000 -1.905
76.42000 -2.344
76.44000 2.306
76.46000 6.396
76.48000 6.575
76.50000 4.013
76.52000 -0.481
76.54000 -0.987
76.56000 3.596
76.58000 6.498
76.60000 6.064
76.62000 0.478
76.64000 1.102
76.66000 1.823
76.68000 6.628
76.70000 10.098
76.72000 1.038
76.74000 0.912
76.76000 1.111
76.78000 4.269
76.80000 6.170
76.82000 4.253
76.84000 5.279
76.86000 5.505
76.88000 5.981
76.90000 1.608
76.92000 2.240
76.94000 0.148
76.96000 0.467
76.98000 3.832
77.00000 3.042
77.02000 3.216
77.04000 4.717
77.06000 1.367
77.08000 -2.209
77.10000 -0.932
77.12000 -2.125
77.14000 1.172
77.16000 6.623
77.18000 4.844
77.20000 -1.202
77.22000 0.288
77.24000 2.356
77.26000 2.159
77.28000 2.394
77.30000 -0.019
77.32000 -1.159
77.34000 0.730
77.36000 6.816
77.38000 4.807
77.40000 2.290
77.42000 3.230
77.44000 1.138
77.46000 2.890
77.48000 2.840
77.50000 5.486
77.52000 3.078
77.54000 1.398
77.56000 2.471
77.58000 4.572
77.60000 0.524
77.62000 5.233
77.64000 6.445
77.66000 2.974
77.68000 5.597
77.70000 6.272
77.72000 -0.701
77.74000 -0.016
77.76000 5.621
77.78000 10.231
77.80000 4.020
77.82000 5.006
77.84000 9.371
77.86000 7.224
77.88000 7.209
77.90000 5.254
77.92000 -2.309
77.94000 1.734
77.96000 5.921
77.98000 3.165
78.00000 3.238
78.02000 5.692
78.04000 5.152
78.06000 4.013
78.08000 5.655
78.10000 2.992
78.12000 1.887
78.14000 10.592
78.16000 5.785
78.18000 5.692
78.20000 4.983
78.22000 3.882
78.24000 9.713
78.26000 8.828
78.28000 5.328
78.30000 4.503
78.32000 4.642
78.34000 3.144
78.36000 8.846
78.38000 5.644
78.40000 2.789
78.42000 5.649
78.44000 8.162
78.46000 7.824
78.48000 8.754
78.50000 3.174
78.52000 2.540
78.54000 1.157
78.56000 2.508
78.58000 4.989
78.60000 2.254
78.62000 -0.947
78.64000 1.379
78.66000 4.452
78.68000 7.779
78.70000 3.626
78.72000 3.474
78.74000 -1.736
78.76000 3.582
78.78000 5.496
78.80000 3.615
78.82000 1.476
78.84000 4.641
78.86000 1.714
78.88000 3.554
78.90000 3.621
78.92000 4.348
78.94000 7.531
78.96000 4.453
78.98000 5.307
79.00000 2.948
79.02000 0.484
79.04000 2.195
79.06000 4.262
79.08000 2.382
79.10000 5.059
79.12000 2.517
79.14000 5.501
79.16000 8.437
79.18000 5.916
79.20000 2.171
79.22000 4.126
79.24000 6.769
79.26000 6.969
79.28000 6.660
79.30000 1.549
79.32000 -1.695
79.34000 -0.561
79.36000 3.801
79.38000 2.220
79.40000 5.985
79.42000 4.449
79.44000 6.593
79.46000 8.885
79.48000 7.955
79.50000 2.243
79.52000 5.288
79.54000 4.326
79.56000 4.615
79.58000 0.678
79.60000 2.271
79.62000 0.966
79.64000 -2.334
79.66000 -0.685
79.68000 5.204
79.70000 7.868
79.72000 7.118
79.74000 6.314
79.76000 4.594
79.78000 4.060
79.80000 0.634
79.82000 -1.075
79.84000 -0.159
79.86000 5.570
79.88000 1.197
79.90000 1.914
79.92000 7.410
79.94000 4.312
79.96000 0.995
79.98000 1.748
80.00000 4.764
80.02000 4.645
80.04000 7.396
80.06000 5.174
80.08000 3.126
80.10000 -0.160
80.12000 0.604
80.14000 6.421
80.16000 0.050
80.18000 0.551
80.20000 5.092
80.22000 4.628
80.24000 7.365
80.26000 6.440
80.28000 2.329
80.30000 4.869
80.32000 2.871
80.34000 -0.600
80.36000 -0.858
80.38000 4.747
80.40000 2.652
80.42000 2.519
80.44000 2.916
80.46000 5.038
80.48000 2.606
80.50000 1.692
80.52000 6.436
80.54000 2.392
80.56000 -2.119
80.58000 2.805
80.60000 4.238
80.62000 3.419
80.64000 3.722
80.66000 4.990
80.68000 4.117
80.70000 4.250
80.72000 3.788
80.74000 7.105
80.76000 4.181
80.78000 4.487
80.80000 4.924
80.82000 5.950
80.84000 6.180
80.86000 7.357
80.88000 2.477
80.90000 5.341
80.92000 0.572
80.94000 0.409
80.96000 8.521
80.98000 7.477
81.00000 2.836
81.02000 -0.522
81.04000 -2.419
81.06000 3.468
81.08000 4.250
81.10000 5.640
81.12000 3.299
81.14000 2.153
81.16000 3.908
81.18000 8.999
81.20000 5.663
81.22000 2.336
81.24000 3.670
81.26000 5.280
81.28000 10.977
81.30000 6.311
81.32000 3.598
81.34000 7.871
81.36000 5.223
81.38000 6.778
81.40000 7.085
81.42000 4.088
81.44000 2.697
81.46000 3.221
81.48000 7.835
81.50000 3.353
81.52000 0.239
81.54000 0.288
81.56000 1.614
81.58000 2.142
81.60000 -1.377
81.62000 3.587
81.64000 2.382
81.66000 1.719
81.68000 2.347
81.70000 0.281
81.72000 1.538
81.74000 3.890
81.76000 1.489
81.78000 2.385
81.80000 0.912
81.82000 1.492
81.84000 5.832
81.86000 9.563
81.88000 4.609
81.90000 3.106
81.92000 7.675
81.94000 8.107
81.96000 4.598
81.98000 3.615
82.00000 4.569
82.02000 5.534
82.04000 9.420
82.06000 8.727
82.08000 5.413
82.10000 6.416
82.12000 7.449
82.14000 5.740
82.16000 4.373
82.18000 6.712
82.20000 10.463
82.22000 5.844
82.24000 9.670
82.26000 9.007
82.28000 11.039
82.30000 11.739
82.32000 9.798
82.34000 9.731
82.36000 7.653
82.38000 11.289
82.40000 10.107
82.42000 12.085
82.44000 12.440
82.46000 8.384
82.48000 8.882
82.50000 9.561
82.52000 4.501
82.54000 9.000
82.56000 11.516
82.58000 9.548
82.60000 10.207
82.62000 14.803
82.64000 19.046
82.66000 15.571
82.68000 9.500
82.70000 13.674
82.72000 11.424
82.74000 12.323
82.76000 16.391
82.78000 18.446
82.80000 22.421
82.82000 16.263
82.84000 14.694
82.86000 13.599
82.88000 14.531
82.90000 18.890
82.92000 14.668
82.94000 15.119
82.96000 15.070
82.98000 17.469
83.00000 16.422
83.02000 19.853
83.04000 25.620
83.06000 18.232
83.08000 17.924
83.10000 20.502
83.12000 22.279
83.14000 22.335
83.16000 22.582
83.18000 22.484
83.20000 21.195
83.22000 22.405
83.24000 22.807
83.26000 22.708
83.28000 24.027
83.30000 23.060
83.32000 23.243
83.34000 20.929
83.36000 30.283
83.38000 28.222
83.40000 28.850
83.42000 26.294
83.44000 22.375
83.46000 24.179
83.48000 23.784
83.50000 22.906
83.52000 27.052
83.54000 28.895
83.56000 27.433
83.58000 27.203
83.60000 25.545
83.62000 22.356
83.64000 22.028
83.66000 23.165
83.68000 25.202
83.70000 27.595
83.72000 25.180
83.74000 26.743
83.76000 23.271
83.78000 22.472
83.80000 22.983
83.82000 21.502
83.84000 24.926
83.86000 22.824
83.88000 20.751
83.90000 18.969
83.92000 19.105
83.94000 18.611
83.96000 19.651
83.98000 21.583
84.00000 17.499
84.02000 18.952
84.04000 17.593
84.06000 17.347
84.08000 18.040
84.10000 22.175
84.12000 14.694
84.14000 10.950
84.16000 15.210
84.18000 17.693
84.20000 14.935
84.22000 14.787
84.24000 15.422
84.26000 16.934
84.28000 10.484
84.30000 9.009
84.32000 11.048
84.34000 11.761
84.36000 8.361
84.38000 10.886
84.40000 14.113
84.42000 10.007
84.44000 7.201
84.46000 9.606
84.48000 11.468
84.50000 7.733
84.52000 8.592
84.54000 10.076
84.56000 7.684
84.58000 6.281
84.60000 5.116
84.62000 8.664
84.64000 12.671
84.66000 9.719
84.68000 7.679
84.70000 12.240
84.72000 9.951
84.74000 9.046
84.76000 4.774
84.78000 5.300
84.80000 9.206
84.82000 8.453
84.84000 7.851
84.86000 5.833
84.88000 3.310
84.90000 1.095
84.92000 8.418
84.94000 10.725
84.96000 5.297
84.98000 4.664
85.00000 8.588
85.02000 4.885
85.04000 3.459
85.06000 1.452
85.08000 -2.436
85.10000 2.050
85.12000 6.584
85.14000 6.671
85.16000 7.632
85.18000 8.770
85.20000 6.930
85.22000 4.270
85.24000 6.898
85.26000 3.765
85.28000 5.001
85.30000 2.265
85.32000 1.508
85.34000 5.216
85.36000 6.205
85.38000 1.493
85.40000 0.038
85.42000 1.822
85.44000 0.444
85.46000 2.560
85.48000 -0.237
85.50000 3.159
85.52000 3.372
85.54000 5.554
85.56000 2.406
85.58000 2.531
85.60000 -1.788
85.62000 -2.393
85.64000 -1.922
85.66000 1.006
85.68000 2.501
85.70000 3.739
85.72000 4.958
85.74000 6.714
85.76000 4.782
85.78000 1.418
85.80000 1.499
85.82000 0.587
85.84000 1.152
85.86000 2.465
85.88000 2.797
85.90000 4.805
85.92000 6.314
85.94000 0.256
85.96000 -2.379
85.98000 0.010
86.00000 5.222
86.02000 1.926
86.04000 1.558
86.06000 1.506
86.08000 2.879
86.10000 5.475
86.12000 1.756
86.14000 3.603
86.16000 6.525
86.18000 1.809
86.20000 4.087
86.22000 5.115
86.24000 2.696
86.26000 2.930
86.28000 2.600
86.30000 1.243
86.32000 -1.916
86.34000 0.188
86.36000 1.236
86.38000 0.095
86.40000 3.387
86.42000 3.103
86.44000 2.448
86.46000 2.797
86.48000 5.894
86.50000 3.121
86.52000 1.282
86.54000 4.050
86.56000 2.235
86.58000 -1.045
86.60000 0.964
86.62000 5.547
86.64000 0.081
86.66000 -2.403
86.68000 5.223
86.70000 4.816
86.72000 2.742
86.74000 4.030
86.76000 2.253
86.78000 -0.215
86.80000 4.403
86.82000 6.387
86.84000 6.045
86.86000 3.660
86.88000 3.399
86.90000 2.320
86.92000 2.994
86.94000 6.030
86.96000 7.731
86.98000 8.746
87.00000 4.616
87.02000 7.723
87.04000 11.110
87.06000 9.105
87.08000 6.377
87.10000 12.101
87.12000 7.099
87.14000 4.827
87.16000 8.529
87.18000 10.313
87.20000 11.498
87.22000 12.691
87.24000 16.661
87.26000 13.985
87.28000 10.176
87.30000 8.871
87.32000 6.543
87.34000 9.969
87.36000 16.245
87.38000 20.154
87.40000 15.228
87.42000 15.924
87.44000 15.799
87.46000 17.698
87.48000 16.557
87.50000 11.112
87.52000 15.912
87.54000 17.725
87.56000 18.347
87.58000 17.047
87.60000 22.283
87.62000 20.445
87.64000 17.182
87.66000 20.329
87.68000 21.889
87.70000 16.604
87.72000 17.178
87.74000 19.576
87.76000 19.778
87.78000 25.627
87.80000 25.281
87.82000 25.852
87.84000 24.513
87.86000 21.586
87.88000 24.479
87.90000 25.395
87.92000 18.357
87.94000 21.129
87.96000 25.808
87.98000 23.607
88.00000 25.198
88.02000 26.527
88.04000 24.971
88.06000 21.413
88.08000 18.934
88.10000 18.968
88.12000 20.951
88.14000 23.116
88.16000 22.030
88.18000 21.422
88.20000 24.083
88.22000 22.576
88.24000 20.659
88.26000 19.513
88.28000 25.374
88.30000 18.908
88.32000 16.881
88.34000 18.821
88.36000 17.984
88.38000 19.169
88.40000 15.174
88.42000 15.717
88.44000 16.214
88.46000 16.279
88.48000 12.637
88.50000 14.433
88.52000 16.564
88.54000 10.665
88.56000 11.000
88.58000 12.961
88.60000 10.671
88.62000 13.989
88.64000 9.698
88.66000 9.454
88.68000 12.877
88.70000 14.138
88.72000 10.975
88.74000 9.318
88.76000 7.513
88.78000 3.480
88.80000 2.940
88.82000 6.040
88.84000 9.231
88.86000 9.020
88.88000 4.101
88.90000 2.299
88.92000 7.580
88.94000 12.386
88.96000 9.493
88.98000 5.714
89.00000 5.836
89.02000 5.403
89.04000 4.000
89.06000 3.497
89.08000 6.992
89.10000 3.284
89.12000 5.636
89.14000 6.850
89.16000 0.533
89.18000 7.082
89.20000 7.761
89.22000 2.489
89.24000 2.687
89.26000 4.262
89.28000 5.699
89.30000 4.962
89.32000 1.780
89.34000 1.971
89.36000 5.369
89.38000 2.339
89.40000 3.755
89.42000 3.808
89.44000 -1.517
89.46000 -1.318
89.48000 2.851
89.50000 -0.349
89.52000 2.943
89.54000 3.421
89.56000 0.985
89.58000 -0.566
89.60000 1.746
89.62000 2.751
89.64000 -1.310
89.66000 1.009
89.68000 3.548
89.70000 3.136
89.72000 3.286
89.74000 2.278
89.76000 -0.468
89.78000 2.167
89.80000 2.016
89.82000 5.168
89.84000 -2.297
89.86000 0.176
89.88000 2.389
89.90000 2.777
89.92000 0.562
89.94000 1.868
89.96000 3.645
89.98000 3.075
90.00000 1.334
90.02000 -0.932
90.04000 -0.973
90.06000 3.244
90.08000 4.976
90.10000 3.752
90.12000 -0.981
90.14000 6.714
90.16000 9.274
90.18000 3.551
90.20000 2.272
90.22000 0.808
90.24000 -0.580
90.26000 3.556
90.28000 1.989
90.30000 -2.238
90.32000 -1.733
90.34000 2.246
90.36000 5.458
90.38000 2.890
90.40000 2.300
90.42000 2.953
90.44000 3.314
90.46000 4.296
90.48000 2.017
90.50000 1.808
90.52000 2.887
90.54000 0.526
90.56000 1.548
90.58000 2.897
90.60000 2.358
90.62000 0.184
90.64000 -0.529
90.66000 1.988
90.68000 4.567
90.70000 4.919
90.72000 6.478
90.74000 5.763
90.76000 4.614
90.78000 4.954
90.80000 4.900
90.82000 5.924
90.84000 7.324
90.86000 1.261
90.88000 -2.180
90.90000 1.425
90.92000 6.594
90.94000 7.630
90.96000 10.431
90.98000 7.271
91.00000 3.335
91.02000 6.527
91.04000 4.787
91.06000 6.881
91.08000 4.062
91.10000 5.418
91.12000 7.778
91.14000 2.813
91.16000 4.954
91.18000 4.581
91.20000 4.580
91.22000 7.117
91.24000 3.610
91.26000 4.706
91.28000 7.447
91.30000 4.069
91.32000 9.470
91.34000 15.024
91.36000 13.035
91.38000 7.578
91.40000 5.235
91.42000 6.661
91.44000 3.035
91.46000 -0.848
91.48000 -2.186
91.50000 -0.534
91.52000 8.558
91.54000 7.094
91.56000 3.545
91.58000 0.948
91.60000 6.312
91.62000 8.731
91.64000 6.511
91.66000 8.706
91.68000 9.282
91.70000 7.815
91.72000 2.145
91.74000 -2.200
91.76000 0.571
91.78000 3.849
91.80000 5.841
91.82000 4.332
91.84000 -0.305
91.86000 -2.100
91.88000 1.180
91.90000 4.474
91.92000 5.856
91.94000 1.059
91.96000 -2.215
91.98000 -2.050
92.00000 2.083
92.02000 3.956
92.04000 0.646
92.06000 3.932
92.08000 3.150
92.10000 -1.317
92.12000 -0.931
92.14000 2.601
92.16000 1.329
92.18000 1.400
92.20000 4.755
92.22000 4.389
92.24000 1.319
92.26000 3.934
92.28000 4.015
92.30000 0.978
92.32000 5.165
92.34000 5.249
92.36000 -0.553
92.38000 2.633
92.40000 4.901
92.42000 -1.042
92.44000 -2.228
92.46000 -1.117
92.48000 1.700
92.50000 2.158
92.52000 3.090
92.54000 2.013
92.56000 2.856
92.58000 7.483
92.60000 3.417
92.62000 3.058
92.64000 -0.779
92.66000 -0.385
92.68000 -0.217
92.70000 2.623
92.72000 0.857
92.74000 1.099
92.76000 3.741
92.78000 4.419
92.80000 6.676
92.82000 4.757
92.84000 3.131
92.86000 9.478
92.88000 8.796
92.90000 7.187
92.92000 5.335
92.94000 2.893
92.96000 0.592
92.98000 3.568
93.00000 2.566
93.02000 2.602
93.04000 0.520
93.06000 1.674
93.08000 3.454
93.10000 2.949
93.12000 4.652
93.14000 0.063
93.16000 4.143
93.18000 2.864
93.20000 5.243
93.22000 6.552
93.24000 0.455
93.26000 -2.220
93.28000 1.598
93.30000 4.463
93.32000 -0.792
93.34000 0.455
93.36000 -0.532
93.38000 3.491
93.40000 4.441
93.42000 2.895
93.44000 2.963
93.46000 1.661
93.48000 1.749
93.50000 2.127
93.52000 3.702
93.54000 2.402
93.56000 5.509
93.58000 2.663
93.60000 6.142
93.62000 -1.486
93.64000 0.233
93.66000 2.972
93.68000 -1.334
93.70000 -1.170
93.72000 4.141
93.74000 2.391
93.76000 1.462
93.78000 4.965
93.80000 3.780
93.82000 4.427
93.84000 5.131
93.86000 -0.391
93.88000 6.440
93.90000 3.936
93.92000 9.112
93.94000 3.055
93.96000 2.853
93.98000 2.301
94.00000 2.263
94.02000 3.719
94.04000 5.162
94.06000 -1.528
94.08000 2.239
94.10000 1.837
94.12000 5.291
94.14000 7.780
94.16000 4.097
94.18000 4.557
94.20000 0.163
94.22000 0.974
94.24000 0.078
94.26000 2.251
94.28000 -1.276
94.30000 -0.619
94.32000 -0.728
94.34000 1.194
94.36000 3.595
94.38000 -2.251
94.40000 -0.621
94.42000 4.035
94.44000 2.857
94.46000 6.283
94.48000 6.133
94.50000 1.214
94.52000 2.191
94.54000 2.370
94.56000 4.402
94.58000 3.748
94.60000 2.388
94.62000 -0.348
94.64000 1.173
94.66000 2.181
94.68000 4.709
94.70000 8.976
94.72000 10.721
94.74000 7.267
94.76000 8.190
94.78000 6.745
94.80000 -0.163
94.82000 3.281
94.84000 4.474
94.86000 7.549
94.88000 10.474
94.90000 1.384
94.92000 0.506
94.94000 -1.850
94.96000 2.920
94.98000 11.624
95.00000 8.125
95.02000 3.191
95.04000 3.463
95.06000 9.412
95.08000 9.023
95.10000 2.525
95.12000 -2.238
95.14000 5.574
95.16000 8.238
95.18000 7.953
95.20000 7.517
95.22000 10.367
95.24000 7.189
95.26000 -0.588
95.28000 -2.236
95.30000 5.211
95.32000 8.237
95.34000 7.492
95.36000 3.993
95.38000 1.760
95.40000 1.975
95.42000 3.866
95.44000 7.711
95.46000 3.097
95.48000 0.494
95.50000 6.246
95.52000 7.611
95.54000 4.658
95.56000 7.840
95.58000 6.042
95.60000 2.016
95.62000 -1.534
95.64000 3.725
95.66000 9.724
95.68000 3.182
95.70000 6.887
95.72000 2.818
95.74000 3.746
95.76000 5.220
95.78000 4.671
95.80000 1.108
95.82000 2.649
95.84000 4.808
95.86000 8.560
95.88000 2.956
95.90000 4.379
95.92000 7.962
95.94000 9.685
95.96000 8.368
95.98000 4.203
96.00000 1.971
96.02000 0.215
96.04000 -2.210
96.06000 5.685
96.08000 10.249
96.10000 11.008
96.12000 6.071
96.14000 2.352
96.16000 1.443
96.18000 4.578
96.20000 8.742
96.22000 9.176
96.24000 4.421
96.26000 5.781
96.28000 5.754
96.30000 5.626
96.32000 7.772
96.34000 14.614
96.36000 4.833
96.38000 7.439
96.40000 4.965
96.42000 5.173
96.44000 3.080
96.46000 3.572
96.48000 6.210
96.50000 4.789
96.52000 4.122
96.54000 3.540
96.56000 2.416
96.58000 0.397
96.60000 3.680
96.62000 6.213
96.64000 6.215
96.66000 9.245
96.68000 6.149
96.70000 3.136
96.72000 6.386
96.74000 4.753
96.76000 4.121
96.78000 3.683
96.80000 8.279
96.82000 4.451
96.84000 3.337
96.86000 1.344
96.88000 2.389
96.90000 -0.008
96.92000 -2.201
96.94000 5.829
96.96000 5.859
96.98000 9.759
97.00000 13.674
97.02000 5.043
97.04000 4.042
97.06000 5.133
97.08000 9.609
97.10000 2.156
97.12000 8.191
97.14000 8.378
97.16000 13.291
97.18000 9.644
97.20000 6.599
97.22000 12.381
97.24000 11.395
97.26000 10.254
97.28000 11.539
97.30000 8.711
97.32000 6.551
97.34000 5.753
97.36000 9.457
97.38000 3.103
97.40000 10.351
97.42000 9.799
97.44000 7.918
97.46000 6.005
97.48000 10.774
97.50000 11.701
97.52000 6.247
97.54000 3.110
97.56000 2.047
97.58000 9.263
97.60000 5.943
97.62000 3.502
97.64000 2.793
97.66000 0.447
97.68000 9.474
97.70000 8.705
97.72000 9.786
97.74000 9.494
97.76000 6.181
97.78000 6.881
97.80000 9.559
97.82000 7.233
97.84000 10.450
97.86000 13.445
97.88000 2.056
97.90000 0.286
97.92000 8.803
97.94000 -2.150
97.96000 0.064
97.98000 4.603
98.00000 6.027
98.02000 11.063
98.04000 13.712
98.06000 9.879
98.08000 6.612
98.10000 5.881
98.12000 4.260
98.14000 5.485
98.16000 5.125
98.18000 5.333
98.20000 4.475
98.22000 3.938
98.24000 -0.384
98.26000 -2.144
98.28000 2.179
98.30000 -2.150
98.32000 4.199
98.34000 3.268
98.36000 5.133
98.38000 9.810
98.40000 9.337
98.42000 11.894
98.44000 8.469
98.46000 7.099
98.48000 10.766
98.50000 5.572
98.52000 8.155
98.54000 3.719
98.56000 0.909
98.58000 -0.877
98.60000 5.870
98.62000 9.280
98.64000 10.195
98.66000 16.673
98.68000 3.507
98.70000 -1.215
98.72000 4.429
98.74000 5.258
98.76000 -5.128
98.78000 5.812
98.80000 1.563
98.82000 1.716
98.84000 4.355
98.86000 0.814
98.88000 7.901
98.90000 12.168
98.92000 9.101
98.94000 9.406
98.96000 8.954
98.98000 5.105
99.00000 7.104
99.02000 5.166
99.04000 10.012
99.06000 3.322
99.08000 4.941
99.10000 0.950
99.12000 1.486
99.14000 5.225
99.16000 2.418
99.18000 2.054
99.20000 4.213
99.22000 6.694
99.24000 5.180
99.26000 9.190
99.28000 13.214
99.30000 6.510
99.32000 6.548
99.34000 7.014
99.36000 1.572
99.38000 4.506
99.40000 5.162
99.42000 9.454
99.44000 -0.056
99.46000 10.089
99.48000 9.731
99.50000 7.359
99.52000 0.275
99.54000 2.675
99.56000 9.670
99.58000 5.271
99.60000 4.669
99.62000 4.834
99.64000 4.702
99.66000 7.463
99.68000 10.855
99.70000 9.674
99.72000 9.407
99.74000 7.958
99.76000 -1.736
99.78000 -0.075
99.80000 -1.688
99.82000 1.656
99.84000 -2.141
99.86000 3.793
99.88000 13.005
99.90000 2.537
99.92000 4.965
99.94000 13.610
99.96000 16.055
99.98000 0.000
