'Id: "0011387" Comment: "Integrate frame 0011387_Au-Ir-Rh_Rh-rich_XRD-Mapping-319-0000.gfrmwith cursor Wedge Cursor #5" Operator: "B?rgel" Anode: "Cu" Wavelength: "1.5406" Scantype: "2Theta (TwoTheta)" TimePerStep: "1" X: "9" Y: "36" Z: "5.95" 
10.00000 0.000
10.02000 -4.090
10.04000 4.723
10.06000 13.505
10.08000 23.777
10.10000 14.986
10.12000 11.669
10.14000 20.491
10.16000 14.664
10.18000 13.477
10.20000 24.492
10.22000 17.738
10.24000 1.338
10.26000 10.389
10.28000 17.886
10.30000 13.618
10.32000 24.277
10.34000 21.133
10.36000 12.868
10.38000 13.045
10.40000 8.552
10.42000 17.207
10.44000 36.020
10.46000 42.310
10.48000 26.239
10.50000 -0.418
10.52000 11.620
10.54000 8.405
10.56000 13.851
10.58000 10.467
10.60000 23.550
10.62000 23.694
10.64000 15.052
10.66000 14.161
10.68000 4.701
10.70000 8.112
10.72000 4.378
10.74000 10.562
10.76000 10.781
10.78000 13.245
10.80000 17.850
10.82000 26.756
10.84000 14.004
10.86000 11.676
10.88000 21.348
10.90000 28.040
10.92000 17.416
10.94000 15.422
10.96000 14.665
10.98000 23.143
11.00000 16.739
11.02000 5.518
11.04000 9.568
11.06000 17.898
11.08000 20.398
11.10000 20.041
11.12000 16.012
11.14000 12.157
11.16000 7.897
11.18000 24.505
11.20000 29.282
11.22000 18.275
11.24000 8.114
11.26000 14.841
11.28000 13.604
11.30000 17.543
11.32000 21.834
11.34000 11.340
11.36000 10.325
11.38000 23.066
11.40000 22.885
11.42000 21.437
11.44000 18.237
11.46000 20.099
11.48000 11.117
11.50000 20.083
11.52000 22.681
11.54000 20.452
11.56000 15.049
11.58000 21.379
11.60000 12.195
11.62000 1.627
11.64000 7.327
11.66000 10.448
11.68000 10.235
11.70000 8.856
11.72000 2.568
11.74000 14.855
11.76000 15.616
11.78000 13.304
11.80000 10.510
11.82000 13.418
11.84000 18.730
11.86000 21.542
11.88000 11.841
11.90000 11.108
11.92000 18.470
11.94000 13.091
11.96000 16.623
11.98000 20.430
12.00000 19.024
12.02000 18.809
12.04000 13.721
12.06000 19.910
12.08000 11.581
12.10000 14.788
12.12000 4.174
12.14000 9.890
12.16000 22.074
12.18000 16.083
12.20000 14.352
12.22000 9.823
12.24000 8.593
12.26000 13.729
12.28000 21.035
12.30000 8.588
12.32000 17.588
12.34000 12.810
12.36000 15.095
12.38000 19.313
12.40000 15.559
12.42000 25.084
12.44000 17.435
12.46000 14.056
12.48000 17.753
12.50000 33.479
12.52000 21.584
12.54000 13.640
12.56000 19.605
12.58000 30.402
12.60000 29.959
12.62000 25.412
12.64000 25.843
12.66000 25.172
12.68000 27.431
12.70000 16.907
12.72000 9.696
12.74000 15.630
12.76000 32.488
12.78000 18.566
12.80000 13.106
12.82000 2.255
12.84000 15.463
12.86000 23.492
12.88000 17.831
12.90000 9.281
12.92000 10.766
12.94000 9.611
12.96000 15.236
12.98000 24.717
13.00000 21.153
13.02000 11.457
13.04000 7.848
13.06000 13.209
13.08000 16.139
13.10000 16.154
13.12000 20.734
13.14000 21.784
13.16000 24.412
13.18000 22.982
13.20000 24.867
13.22000 17.671
13.24000 19.866
13.26000 17.193
13.28000 2.279
13.30000 3.128
13.32000 7.712
13.34000 13.642
13.36000 17.000
13.38000 14.903
13.40000 10.671
13.42000 12.270
13.44000 11.421
13.46000 16.840
13.48000 21.160
13.50000 18.155
13.52000 15.923
13.54000 15.767
13.56000 12.162
13.58000 20.064
13.60000 25.360
13.62000 14.976
13.64000 16.850
13.66000 14.983
13.68000 22.841
13.70000 20.967
13.72000 14.773
13.74000 9.387
13.76000 6.179
13.78000 -4.454
13.80000 1.071
13.82000 12.208
13.84000 19.709
13.86000 13.276
13.88000 5.998
13.90000 6.518
13.92000 14.913
13.94000 16.610
13.96000 8.801
13.98000 13.047
14.00000 10.582
14.02000 11.559
14.04000 14.635
14.06000 14.433
14.08000 12.504
14.10000 16.370
14.12000 21.713
14.14000 18.199
14.16000 8.256
14.18000 13.170
14.20000 20.868
14.22000 17.504
14.24000 8.184
14.26000 15.045
14.28000 9.774
14.30000 7.732
14.32000 15.629
14.34000 20.241
14.36000 17.863
14.38000 12.811
14.40000 13.694
14.42000 6.095
14.44000 4.923
14.46000 15.072
14.48000 15.778
14.50000 14.149
14.52000 6.942
14.54000 1.996
14.56000 18.267
14.58000 8.000
14.60000 1.833
14.62000 8.248
14.64000 9.650
14.66000 8.280
14.68000 10.448
14.70000 3.908
14.72000 5.012
14.74000 10.724
14.76000 10.720
14.78000 2.182
14.80000 8.693
14.82000 11.440
14.84000 15.532
14.86000 9.529
14.88000 6.999
14.90000 7.108
14.92000 16.892
14.94000 17.255
14.96000 20.462
14.98000 10.394
15.00000 2.033
15.02000 -2.719
15.04000 2.107
15.06000 9.560
15.08000 14.368
15.10000 10.000
15.12000 8.183
15.14000 3.701
15.16000 10.835
15.18000 13.918
15.20000 12.794
15.22000 9.643
15.24000 11.328
15.26000 12.773
15.28000 5.286
15.30000 2.272
15.32000 3.715
15.34000 5.406
15.36000 9.099
15.38000 10.238
15.40000 1.486
15.42000 -2.778
15.44000 11.923
15.46000 19.021
15.48000 16.130
15.50000 5.810
15.52000 13.443
15.54000 5.598
15.56000 -0.967
15.58000 8.118
15.60000 7.025
15.62000 7.813
15.64000 6.992
15.66000 14.353
15.68000 16.114
15.70000 3.063
15.72000 2.159
15.74000 7.351
15.76000 4.840
15.78000 11.224
15.80000 10.203
15.82000 3.515
15.84000 3.805
15.86000 15.001
15.88000 20.903
15.90000 13.851
15.92000 3.783
15.94000 0.607
15.96000 1.659
15.98000 7.386
16.00000 7.182
16.02000 2.774
16.04000 13.795
16.06000 15.374
16.08000 8.512
16.10000 4.947
16.12000 0.535
16.14000 -4.447
16.16000 1.371
16.18000 2.875
16.20000 -3.431
16.22000 7.815
16.24000 13.351
16.26000 6.267
16.28000 11.223
16.30000 7.599
16.32000 3.167
16.34000 7.536
16.36000 13.399
16.38000 11.747
16.40000 6.632
16.42000 -2.316
16.44000 -2.615
16.46000 -2.001
16.48000 4.335
16.50000 6.723
16.52000 7.158
16.54000 4.755
16.56000 6.554
16.58000 11.057
16.60000 11.483
16.62000 15.476
16.64000 17.291
16.66000 7.106
16.68000 5.054
16.70000 6.631
16.72000 13.644
16.74000 16.690
16.76000 9.539
16.78000 5.840
16.80000 8.974
16.82000 11.475
16.84000 14.463
16.86000 16.315
16.88000 8.392
16.90000 9.900
16.92000 9.487
16.94000 14.474
16.96000 11.156
16.98000 8.061
17.00000 10.937
17.02000 10.696
17.04000 9.412
17.06000 19.720
17.08000 6.881
17.10000 3.510
17.12000 7.233
17.14000 11.456
17.16000 19.510
17.18000 13.807
17.20000 4.944
17.22000 8.232
17.24000 10.604
17.26000 14.609
17.28000 7.817
17.30000 9.323
17.32000 5.815
17.34000 3.567
17.36000 12.008
17.38000 10.930
17.40000 17.191
17.42000 15.546
17.44000 13.748
17.46000 15.564
17.48000 13.955
17.50000 9.938
17.52000 11.338
17.54000 10.771
17.56000 4.469
17.58000 -4.346
17.60000 -1.139
17.62000 6.710
17.64000 6.194
17.66000 2.368
17.68000 13.464
17.70000 13.448
17.72000 8.645
17.74000 9.753
17.76000 15.823
17.78000 17.828
17.80000 17.924
17.82000 6.493
17.84000 5.386
17.86000 3.346
17.88000 7.258
17.90000 9.292
17.92000 3.507
17.94000 4.595
17.96000 9.359
17.98000 7.018
18.00000 7.872
18.02000 -1.048
18.04000 5.463
18.06000 8.375
18.08000 6.565
18.10000 3.498
18.12000 5.243
18.14000 12.803
18.16000 8.262
18.18000 6.023
18.20000 9.025
18.22000 6.547
18.24000 -2.951
18.26000 2.723
18.28000 12.080
18.30000 10.849
18.32000 13.385
18.34000 13.159
18.36000 7.037
18.38000 5.251
18.40000 2.470
18.42000 6.856
18.44000 12.387
18.46000 14.548
18.48000 12.924
18.50000 8.919
18.52000 11.921
18.54000 12.400
18.56000 11.572
18.58000 12.130
18.60000 4.399
18.62000 -0.219
18.64000 -0.196
18.66000 5.922
18.68000 6.170
18.70000 11.331
18.72000 12.225
18.74000 5.895
18.76000 4.390
18.78000 6.212
18.80000 3.997
18.82000 3.690
18.84000 8.758
18.86000 5.680
18.88000 5.129
18.90000 5.255
18.92000 4.970
18.94000 2.528
18.96000 4.183
18.98000 3.070
19.00000 6.101
19.02000 2.896
19.04000 -1.220
19.06000 1.364
19.08000 0.817
19.10000 -2.760
19.12000 6.731
19.14000 6.113
19.16000 2.029
19.18000 5.171
19.20000 8.755
19.22000 11.019
19.24000 6.988
19.26000 5.579
19.28000 10.277
19.30000 6.398
19.32000 2.443
19.34000 11.132
19.36000 10.463
19.38000 13.186
19.40000 8.978
19.42000 6.871
19.44000 7.678
19.46000 5.552
19.48000 9.057
19.50000 3.758
19.52000 -0.579
19.54000 5.044
19.56000 9.358
19.58000 10.701
19.60000 2.346
19.62000 -2.330
19.64000 0.288
19.66000 -1.398
19.68000 0.689
19.70000 3.600
19.72000 -2.144
19.74000 3.522
19.76000 5.388
19.78000 1.418
19.80000 6.978
19.82000 6.197
19.84000 6.987
19.86000 0.781
19.88000 1.192
19.90000 1.245
19.92000 -2.782
19.94000 7.861
19.96000 7.966
19.98000 6.327
20.00000 4.239
20.02000 -0.167
20.04000 2.962
20.06000 8.893
20.08000 3.783
20.10000 1.364
20.12000 0.860
20.14000 0.570
20.16000 2.470
20.18000 7.785
20.20000 6.887
20.22000 5.559
20.24000 0.871
20.26000 3.237
20.28000 5.968
20.30000 13.648
20.32000 9.521
20.34000 7.428
20.36000 0.242
20.38000 -0.625
20.40000 7.054
20.42000 8.622
20.44000 8.108
20.46000 6.135
20.48000 8.781
20.50000 12.338
20.52000 13.059
20.54000 8.020
20.56000 1.046
20.58000 7.805
20.60000 7.479
20.62000 6.248
20.64000 6.459
20.66000 -0.963
20.68000 -4.179
20.70000 2.202
20.72000 9.915
20.74000 9.355
20.76000 4.577
20.78000 9.370
20.80000 4.152
20.82000 1.870
20.84000 7.471
20.86000 10.743
20.88000 13.065
20.90000 14.323
20.92000 9.033
20.94000 11.233
20.96000 10.676
20.98000 3.165
21.00000 3.071
21.02000 9.310
21.04000 4.662
21.06000 -0.984
21.08000 -1.729
21.10000 -2.731
21.12000 11.659
21.14000 10.679
21.16000 5.776
21.18000 4.105
21.20000 10.550
21.22000 11.663
21.24000 11.481
21.26000 8.000
21.28000 5.028
21.30000 3.146
21.32000 7.273
21.34000 6.604
21.36000 -2.073
21.38000 -2.754
21.40000 6.350
21.42000 11.505
21.44000 6.303
21.46000 8.117
21.48000 3.948
21.50000 5.522
21.52000 4.460
21.54000 8.209
21.56000 4.319
21.58000 2.882
21.60000 3.743
21.62000 8.676
21.64000 10.632
21.66000 4.455
21.68000 0.251
21.70000 1.127
21.72000 6.211
21.74000 6.235
21.76000 -0.922
21.78000 2.777
21.80000 6.491
21.82000 7.685
21.84000 12.420
21.86000 12.506
21.88000 9.036
21.90000 2.657
21.92000 0.433
21.94000 -1.090
21.96000 4.385
21.98000 2.446
22.00000 -4.149
22.02000 -0.856
22.04000 4.821
22.06000 6.376
22.08000 0.832
22.10000 3.501
22.12000 1.062
22.14000 3.788
22.16000 6.169
22.18000 3.668
22.20000 1.727
22.22000 9.320
22.24000 11.097
22.26000 5.382
22.28000 5.628
22.30000 4.861
22.32000 7.210
22.34000 5.832
22.36000 1.546
22.38000 2.706
22.40000 4.798
22.42000 9.288
22.44000 9.857
22.46000 8.790
22.48000 8.731
22.50000 7.689
22.52000 6.464
22.54000 14.529
22.56000 18.065
22.58000 11.315
22.60000 6.536
22.62000 10.793
22.64000 2.757
22.66000 -3.450
22.68000 1.146
22.70000 1.721
22.72000 0.726
22.74000 -0.633
22.76000 1.322
22.78000 0.785
22.80000 4.251
22.82000 5.638
22.84000 -3.448
22.86000 0.331
22.88000 5.824
22.90000 4.577
22.92000 8.087
22.94000 11.564
22.96000 5.888
22.98000 1.418
23.00000 2.981
23.02000 5.948
23.04000 0.008
23.06000 -3.144
23.08000 7.275
23.10000 4.901
23.12000 0.901
23.14000 2.353
23.16000 4.852
23.18000 8.980
23.20000 6.246
23.22000 5.217
23.24000 4.221
23.26000 4.781
23.28000 3.700
23.30000 2.274
23.32000 4.877
23.34000 6.736
23.36000 6.277
23.38000 8.548
23.40000 7.802
23.42000 2.071
23.44000 3.987
23.46000 8.946
23.48000 10.622
23.50000 -0.215
23.52000 4.389
23.54000 11.861
23.56000 11.118
23.58000 4.611
23.60000 5.612
23.62000 -0.658
23.64000 -3.557
23.66000 -2.327
23.68000 -1.002
23.70000 -4.059
23.72000 -0.610
23.74000 -2.932
23.76000 -3.813
23.78000 -1.755
23.80000 0.447
23.82000 2.093
23.84000 4.252
23.86000 2.439
23.88000 1.761
23.90000 1.037
23.92000 4.500
23.94000 3.666
23.96000 5.197
23.98000 2.516
24.00000 -0.987
24.02000 2.038
24.04000 4.091
24.06000 2.681
24.08000 5.407
24.10000 6.674
24.12000 3.965
24.14000 11.624
24.16000 15.235
24.18000 14.155
24.20000 6.997
24.22000 2.859
24.24000 1.085
24.26000 8.842
24.28000 10.022
24.30000 5.222
24.32000 0.811
24.34000 6.864
24.36000 1.471
24.38000 -2.659
24.40000 0.914
24.42000 4.219
24.44000 2.561
24.46000 -3.384
24.48000 -4.001
24.50000 4.210
24.52000 8.713
24.54000 8.459
24.56000 4.615
24.58000 8.086
24.60000 10.347
24.62000 8.767
24.64000 8.934
24.66000 7.056
24.68000 2.580
24.70000 3.958
24.72000 0.774
24.74000 0.213
24.76000 0.169
24.78000 3.677
24.80000 4.711
24.82000 7.665
24.84000 5.898
24.86000 0.649
24.88000 -1.119
24.90000 -1.367
24.92000 -3.504
24.94000 1.569
24.96000 2.359
24.98000 3.289
25.00000 3.365
25.02000 5.515
25.04000 4.070
25.06000 3.529
25.08000 5.783
25.10000 5.691
25.12000 -1.135
25.14000 -0.033
25.16000 -3.292
25.18000 -2.950
25.20000 -0.923
25.22000 -3.415
25.24000 2.627
25.26000 3.860
25.28000 2.795
25.30000 3.724
25.32000 1.292
25.34000 0.789
25.36000 -0.412
25.38000 7.120
25.40000 5.298
25.42000 1.316
25.44000 3.867
25.46000 1.606
25.48000 5.389
25.50000 8.136
25.52000 0.072
25.54000 -1.089
25.56000 4.788
25.58000 0.952
25.60000 -3.966
25.62000 0.695
25.64000 3.524
25.66000 1.794
25.68000 -1.167
25.70000 2.672
25.72000 4.099
25.74000 2.438
25.76000 -0.988
25.78000 2.803
25.80000 -1.214
25.82000 2.699
25.84000 1.967
25.86000 3.119
25.88000 8.913
25.90000 2.657
25.92000 1.371
25.94000 9.367
25.96000 6.486
25.98000 1.889
26.00000 -2.051
26.02000 -1.375
26.04000 4.951
26.06000 0.151
26.08000 2.779
26.10000 0.944
26.12000 -3.092
26.14000 1.091
26.16000 0.614
26.18000 1.742
26.20000 0.509
26.22000 3.652
26.24000 3.466
26.26000 1.495
26.28000 -2.081
26.30000 3.692
26.32000 1.008
26.34000 4.675
26.36000 6.719
26.38000 7.991
26.40000 1.762
26.42000 -2.904
26.44000 -1.943
26.46000 0.051
26.48000 5.536
26.50000 0.163
26.52000 2.044
26.54000 8.032
26.56000 5.681
26.58000 3.146
26.60000 3.829
26.62000 3.203
26.64000 5.980
26.66000 6.877
26.68000 7.205
26.70000 11.199
26.72000 7.950
26.74000 0.437
26.76000 0.728
26.78000 1.113
26.80000 3.680
26.82000 2.406
26.84000 1.379
26.86000 1.592
26.88000 2.655
26.90000 8.692
26.92000 9.645
26.94000 3.377
26.96000 3.596
26.98000 6.110
27.00000 8.891
27.02000 8.331
27.04000 9.521
27.06000 12.798
27.08000 13.411
27.10000 9.144
27.12000 11.217
27.14000 5.281
27.16000 1.260
27.18000 1.292
27.20000 6.724
27.22000 10.114
27.24000 5.051
27.26000 5.875
27.28000 6.316
27.30000 7.841
27.32000 8.928
27.34000 9.312
27.36000 5.922
27.38000 2.297
27.40000 9.543
27.42000 8.629
27.44000 2.435
27.46000 -3.806
27.48000 3.268
27.50000 6.871
27.52000 6.846
27.54000 1.109
27.56000 9.362
27.58000 6.907
27.60000 5.956
27.62000 2.879
27.64000 9.962
27.66000 9.667
27.68000 12.819
27.70000 8.462
27.72000 1.780
27.74000 2.495
27.76000 6.376
27.78000 7.640
27.80000 7.652
27.82000 6.769
27.84000 6.637
27.86000 7.513
27.88000 4.685
27.90000 -0.473
27.92000 -3.528
27.94000 -0.626
27.96000 3.884
27.98000 3.433
28.00000 0.779
28.02000 -0.009
28.04000 2.336
28.06000 2.647
28.08000 1.485
28.10000 0.171
28.12000 3.335
28.14000 7.023
28.16000 11.066
28.18000 4.737
28.20000 7.776
28.22000 4.363
28.24000 2.301
28.26000 8.870
28.28000 9.763
28.30000 7.987
28.32000 7.792
28.34000 5.755
28.36000 7.217
28.38000 9.693
28.40000 10.190
28.42000 6.580
28.44000 6.077
28.46000 7.340
28.48000 3.658
28.50000 4.732
28.52000 7.747
28.54000 8.878
28.56000 11.609
28.58000 11.617
28.60000 4.062
28.62000 9.094
28.64000 9.097
28.66000 4.005
28.68000 -0.394
28.70000 3.916
28.72000 2.692
28.74000 4.090
28.76000 7.064
28.78000 6.536
28.80000 5.763
28.82000 2.843
28.84000 6.051
28.86000 4.602
28.88000 5.249
28.90000 2.827
28.92000 4.818
28.94000 2.732
28.96000 9.496
28.98000 8.673
29.00000 3.470
29.02000 4.577
29.04000 -3.746
29.06000 -1.170
29.08000 5.803
29.10000 6.156
29.12000 2.115
29.14000 2.196
29.16000 3.178
29.18000 2.356
29.20000 2.565
29.22000 2.860
29.24000 2.521
29.26000 2.067
29.28000 4.386
29.30000 2.383
29.32000 3.775
29.34000 5.086
29.36000 8.671
29.38000 6.512
29.40000 -0.375
29.42000 2.102
29.44000 4.258
29.46000 5.167
29.48000 2.808
29.50000 -0.083
29.52000 3.417
29.54000 5.357
29.56000 5.556
29.58000 -0.623
29.60000 0.823
29.62000 1.077
29.64000 -0.225
29.66000 2.175
29.68000 0.730
29.70000 3.124
29.72000 1.551
29.74000 3.393
29.76000 3.323
29.78000 0.657
29.80000 -2.928
29.82000 -3.728
29.84000 -2.835
29.86000 5.990
29.88000 8.099
29.90000 4.705
29.92000 3.442
29.94000 6.743
29.96000 2.914
29.98000 2.149
30.00000 8.715
30.02000 6.084
30.04000 0.548
30.06000 1.815
30.08000 2.381
30.10000 -1.643
30.12000 1.986
30.14000 2.448
30.16000 -2.798
30.18000 -3.718
30.20000 -2.731
30.22000 2.766
30.24000 2.670
30.26000 -1.379
30.28000 -0.934
30.30000 2.743
30.32000 -0.363
30.34000 -1.060
30.36000 3.663
30.38000 2.033
30.40000 -1.808
30.42000 -1.572
30.44000 1.196
30.46000 -0.499
30.48000 -0.164
30.50000 2.404
30.52000 1.769
30.54000 -0.944
30.56000 -0.408
30.58000 2.800
30.60000 3.388
30.62000 7.721
30.64000 7.748
30.66000 8.042
30.68000 6.217
30.70000 2.250
30.72000 3.539
30.74000 4.149
30.76000 3.526
30.78000 4.867
30.80000 4.782
30.82000 5.415
30.84000 2.650
30.86000 1.712
30.88000 -1.970
30.90000 -3.682
30.92000 -1.566
30.94000 -3.194
30.96000 -2.353
30.98000 -2.442
31.00000 5.166
31.02000 0.717
31.04000 5.604
31.06000 6.908
31.08000 5.067
31.10000 0.114
31.12000 -1.130
31.14000 2.791
31.16000 3.750
31.18000 0.589
31.20000 -3.424
31.22000 -3.200
31.24000 2.333
31.26000 -0.023
31.28000 -1.361
31.30000 -1.526
31.32000 -1.048
31.34000 0.571
31.36000 1.136
31.38000 -0.265
31.40000 -1.632
31.42000 2.355
31.44000 5.403
31.46000 1.665
31.48000 2.815
31.50000 0.433
31.52000 -1.963
31.54000 1.671
31.56000 1.224
31.58000 3.271
31.60000 5.936
31.62000 1.628
31.64000 0.188
31.66000 1.099
31.68000 -0.751
31.70000 4.895
31.72000 5.183
31.74000 5.025
31.76000 3.255
31.78000 -1.117
31.80000 -3.657
31.82000 -3.531
31.84000 -2.054
31.86000 2.437
31.88000 0.404
31.90000 3.016
31.92000 2.658
31.94000 -1.557
31.96000 1.153
31.98000 6.414
32.00000 1.570
32.02000 -2.072
32.04000 -2.083
32.06000 -1.921
32.08000 -0.187
32.10000 -0.770
32.12000 0.445
32.14000 1.978
32.16000 -1.824
32.18000 -1.420
32.20000 3.983
32.22000 6.515
32.24000 3.459
32.26000 2.297
32.28000 1.869
32.30000 1.303
32.32000 3.171
32.34000 1.942
32.36000 0.880
32.38000 -0.754
32.40000 2.986
32.42000 2.895
32.44000 0.047
32.46000 -1.564
32.48000 -2.205
32.50000 -2.689
32.52000 1.393
32.54000 2.728
32.56000 -1.697
32.58000 -1.541
32.60000 -1.214
32.62000 4.100
32.64000 6.734
32.66000 4.276
32.68000 -0.244
32.70000 -3.613
32.72000 -0.521
32.74000 5.625
32.76000 5.583
32.78000 1.310
32.80000 3.040
32.82000 1.235
32.84000 4.171
32.86000 3.430
32.88000 4.541
32.90000 4.234
32.92000 -0.171
32.94000 5.359
32.96000 7.978
32.98000 0.328
33.00000 2.678
33.02000 3.139
33.04000 1.976
33.06000 1.464
33.08000 4.185
33.10000 7.008
33.12000 4.363
33.14000 -3.595
33.16000 -2.828
33.18000 -0.643
33.20000 -2.822
33.22000 -0.715
33.24000 5.438
33.26000 8.284
33.28000 2.170
33.30000 2.314
33.32000 2.342
33.34000 4.219
33.36000 5.424
33.38000 6.509
33.40000 0.111
33.42000 6.157
33.44000 12.960
33.46000 0.525
33.48000 -3.591
33.50000 5.893
33.52000 9.311
33.54000 6.132
33.56000 7.415
33.58000 4.760
33.60000 3.329
33.62000 8.222
33.64000 8.252
33.66000 3.702
33.68000 3.548
33.70000 -1.693
33.72000 2.018
33.74000 5.983
33.76000 4.770
33.78000 7.834
33.80000 10.840
33.82000 4.900
33.84000 0.994
33.86000 -0.800
33.88000 0.075
33.90000 -2.595
33.92000 1.628
33.94000 5.323
33.96000 6.503
33.98000 6.384
34.00000 6.095
34.02000 2.832
34.04000 -0.186
34.06000 0.566
34.08000 2.227
34.10000 3.224
34.12000 0.615
34.14000 5.102
34.16000 1.986
34.18000 -2.122
34.20000 2.520
34.22000 3.355
34.24000 3.026
34.26000 1.278
34.28000 1.347
34.30000 2.050
34.32000 2.148
34.34000 7.908
34.36000 6.118
34.38000 7.041
34.40000 2.763
34.42000 2.409
34.44000 4.714
34.46000 0.052
34.48000 3.125
34.50000 3.210
34.52000 1.978
34.54000 7.009
34.56000 3.405
34.58000 1.500
34.60000 5.899
34.62000 2.631
34.64000 1.651
34.66000 0.815
34.68000 0.472
34.70000 0.515
34.72000 3.820
34.74000 5.481
34.76000 3.756
34.78000 3.276
34.80000 -0.978
34.82000 0.731
34.84000 0.707
34.86000 -0.765
34.88000 1.449
34.90000 1.971
34.92000 1.262
34.94000 1.750
34.96000 -2.609
34.98000 -2.773
35.00000 -3.574
35.02000 0.380
35.04000 -0.464
35.06000 2.774
35.08000 4.883
35.10000 4.910
35.12000 5.630
35.14000 7.933
35.16000 4.261
35.18000 -1.224
35.20000 -1.394
35.22000 5.702
35.24000 2.659
35.26000 -0.164
35.28000 0.267
35.30000 0.804
35.32000 -1.261
35.34000 -2.952
35.36000 -0.749
35.38000 -2.975
35.40000 0.436
35.42000 1.774
35.44000 -0.632
35.46000 -0.050
35.48000 3.153
35.50000 4.992
35.52000 3.276
35.54000 4.386
35.56000 6.734
35.58000 0.511
35.60000 1.680
35.62000 0.376
35.64000 3.094
35.66000 0.759
35.68000 -2.876
35.70000 -3.591
35.72000 1.822
35.74000 1.508
35.76000 0.232
35.78000 6.854
35.80000 0.219
35.82000 -2.487
35.84000 1.082
35.86000 6.012
35.88000 4.227
35.90000 3.905
35.92000 3.972
35.94000 9.651
35.96000 1.677
35.98000 0.042
36.00000 0.250
36.02000 1.008
36.04000 4.169
36.06000 3.028
36.08000 -1.192
36.10000 -3.597
36.12000 1.647
36.14000 6.887
36.16000 5.637
36.18000 -2.932
36.20000 -1.678
36.22000 0.809
36.24000 2.282
36.26000 3.086
36.28000 -0.280
36.30000 -2.820
36.32000 -0.709
36.34000 4.122
36.36000 -0.151
36.38000 -2.409
36.40000 3.307
36.42000 0.208
36.44000 -2.583
36.46000 -1.562
36.48000 -2.039
36.50000 -1.142
36.52000 1.343
36.54000 0.003
36.56000 1.372
36.58000 3.563
36.60000 6.505
36.62000 4.171
36.64000 1.865
36.66000 0.513
36.68000 1.798
36.70000 -0.266
36.72000 -3.635
36.74000 -1.314
36.76000 1.573
36.78000 4.622
36.80000 1.479
36.82000 0.577
36.84000 -0.082
36.86000 0.320
36.88000 0.656
36.90000 2.954
36.92000 3.712
36.94000 -1.430
36.96000 3.793
36.98000 2.383
37.00000 2.303
37.02000 0.974
37.04000 1.922
37.06000 0.408
37.08000 1.327
37.10000 -0.221
37.12000 3.050
37.14000 -0.840
37.16000 -2.528
37.18000 -1.158
37.20000 -2.748
37.22000 2.072
37.24000 8.801
37.26000 7.718
37.28000 2.999
37.30000 -0.631
37.32000 -3.177
37.34000 -3.666
37.36000 0.220
37.38000 4.418
37.40000 10.700
37.42000 10.480
37.44000 8.106
37.46000 9.095
37.48000 7.415
37.50000 3.543
37.52000 2.021
37.54000 -0.740
37.56000 0.422
37.58000 -1.794
37.60000 2.859
37.62000 3.760
37.64000 8.034
37.66000 10.542
37.68000 8.296
37.70000 2.130
37.72000 3.915
37.74000 10.995
37.76000 6.819
37.78000 5.297
37.80000 6.425
37.82000 12.323
37.84000 9.925
37.86000 10.420
37.88000 12.206
37.90000 9.947
37.92000 11.321
37.94000 15.447
37.96000 16.081
37.98000 15.337
38.00000 13.497
38.02000 14.274
38.04000 16.577
38.06000 20.921
38.08000 20.772
38.10000 20.914
38.12000 19.495
38.14000 18.303
38.16000 21.508
38.18000 23.710
38.20000 19.508
38.22000 20.531
38.24000 22.027
38.26000 21.250
38.28000 25.049
38.30000 27.981
38.32000 28.582
38.34000 26.433
38.36000 33.287
38.38000 31.026
38.40000 26.369
38.42000 31.626
38.44000 31.110
38.46000 32.235
38.48000 35.462
38.50000 36.539
38.52000 35.825
38.54000 34.843
38.56000 34.653
38.58000 35.578
38.60000 41.213
38.62000 45.994
38.64000 47.620
38.66000 48.632
38.68000 52.173
38.70000 51.910
38.72000 58.349
38.74000 54.407
38.76000 52.694
38.78000 56.920
38.80000 59.578
38.82000 62.589
38.84000 66.952
38.86000 65.277
38.88000 65.525
38.90000 75.383
38.92000 80.137
38.94000 78.477
38.96000 80.916
38.98000 88.202
39.00000 89.445
39.02000 94.409
39.04000 97.262
39.06000 94.339
39.08000 99.084
39.10000 105.444
39.12000 116.921
39.14000 122.839
39.16000 125.814
39.18000 129.237
39.20000 137.326
39.22000 148.317
39.24000 157.741
39.26000 162.735
39.28000 165.013
39.30000 170.960
39.32000 183.414
39.34000 194.235
39.36000 208.263
39.38000 219.009
39.40000 225.258
39.42000 242.707
39.44000 246.944
39.46000 259.327
39.48000 275.961
39.50000 289.422
39.52000 305.305
39.54000 313.167
39.56000 335.363
39.58000 352.263
39.60000 369.051
39.62000 379.722
39.64000 401.954
39.66000 410.081
39.68000 436.361
39.70000 461.915
39.72000 476.709
39.74000 492.217
39.76000 508.649
39.78000 527.607
39.80000 553.431
39.82000 558.759
39.84000 573.166
39.86000 592.017
39.88000 602.538
39.90000 616.126
39.92000 632.383
39.94000 638.995
39.96000 634.370
39.98000 646.556
40.00000 645.075
40.02000 645.486
40.04000 646.794
40.06000 650.900
40.08000 641.318
40.10000 634.661
40.12000 630.231
40.14000 607.445
40.16000 603.362
40.18000 604.232
40.20000 579.469
40.22000 551.982
40.24000 544.032
40.26000 536.539
40.28000 520.569
40.30000 499.192
40.32000 481.108
40.34000 458.945
40.36000 438.978
40.38000 420.889
40.40000 402.851
40.42000 393.614
40.44000 377.315
40.46000 353.457
40.48000 329.975
40.50000 312.327
40.52000 294.346
40.54000 281.767
40.56000 268.476
40.58000 248.714
40.60000 241.205
40.62000 230.483
40.64000 218.033
40.66000 201.621
40.68000 188.316
40.70000 181.141
40.72000 174.069
40.74000 164.200
40.76000 160.536
40.78000 143.800
40.80000 135.221
40.82000 127.631
40.84000 122.494
40.86000 116.315
40.88000 108.969
40.90000 98.966
40.92000 96.302
40.94000 95.571
40.96000 82.657
40.98000 77.555
41.00000 78.851
41.02000 75.811
41.04000 67.564
41.06000 63.182
41.08000 58.756
41.10000 57.939
41.12000 55.140
41.14000 56.284
41.16000 48.800
41.18000 48.473
41.20000 47.334
41.22000 42.086
41.24000 42.283
41.26000 39.991
41.28000 34.272
41.30000 32.556
41.32000 35.096
41.34000 33.767
41.36000 33.861
41.38000 27.768
41.40000 25.701
41.42000 24.225
41.44000 25.520
41.46000 25.382
41.48000 19.453
41.50000 18.886
41.52000 16.968
41.54000 18.747
41.56000 18.313
41.58000 16.257
41.60000 14.831
41.62000 11.258
41.64000 9.285
41.66000 12.651
41.68000 17.700
41.70000 13.445
41.72000 9.881
41.74000 7.138
41.76000 8.502
41.78000 11.916
41.80000 11.220
41.82000 5.650
41.84000 5.078
41.86000 9.523
41.88000 4.575
41.90000 3.112
41.92000 5.612
41.94000 4.767
41.96000 4.447
41.98000 3.070
42.00000 1.481
42.02000 4.038
42.04000 5.576
42.06000 10.502
42.08000 5.642
42.10000 0.930
42.12000 1.900
42.14000 2.814
42.16000 0.463
42.18000 1.421
42.20000 0.375
42.22000 2.932
42.24000 2.074
42.26000 0.823
42.28000 2.691
42.30000 0.333
42.32000 -3.537
42.34000 -3.344
42.36000 -1.542
42.38000 0.313
42.40000 0.792
42.42000 2.447
42.44000 1.534
42.46000 -3.515
42.48000 -1.954
42.50000 2.654
42.52000 4.699
42.54000 0.323
42.56000 0.938
42.58000 5.383
42.60000 1.599
42.62000 2.401
42.64000 1.014
42.66000 2.323
42.68000 3.498
42.70000 0.735
42.72000 0.670
42.74000 -3.480
42.76000 -2.399
42.78000 3.922
42.80000 1.465
42.82000 0.767
42.84000 2.268
42.86000 2.525
42.88000 2.501
42.90000 1.727
42.92000 3.062
42.94000 6.375
42.96000 5.957
42.98000 3.439
43.00000 -0.940
43.02000 -2.254
43.04000 -1.701
43.06000 -0.249
43.08000 2.218
43.10000 0.499
43.12000 -2.652
43.14000 1.133
43.16000 0.726
43.18000 1.833
43.20000 -3.431
43.22000 0.119
43.24000 1.933
43.26000 4.270
43.28000 2.869
43.30000 2.540
43.32000 0.118
43.34000 -1.783
43.36000 -2.665
43.38000 3.261
43.40000 4.183
43.42000 1.287
43.44000 1.382
43.46000 -2.688
43.48000 -3.396
43.50000 -2.020
43.52000 -0.439
43.54000 0.113
43.56000 1.796
43.58000 -0.279
43.60000 -1.358
43.62000 2.365
43.64000 -1.075
43.66000 -0.396
43.68000 3.128
43.70000 3.889
43.72000 0.647
43.74000 1.668
43.76000 1.709
43.78000 2.576
43.80000 4.335
43.82000 2.973
43.84000 4.050
43.86000 0.788
43.88000 0.316
43.90000 1.276
43.92000 2.498
43.94000 3.370
43.96000 7.553
43.98000 7.255
44.00000 4.268
44.02000 1.913
44.04000 -2.275
44.06000 -0.826
44.08000 1.246
44.10000 5.285
44.12000 6.392
44.14000 3.288
44.16000 7.237
44.18000 5.386
44.20000 1.134
44.22000 2.222
44.24000 0.944
44.26000 -3.341
44.28000 -1.515
44.30000 1.649
44.32000 3.074
44.34000 5.121
44.36000 7.062
44.38000 5.250
44.40000 3.078
44.42000 4.609
44.44000 4.437
44.46000 4.018
44.48000 3.963
44.50000 3.845
44.52000 3.126
44.54000 3.547
44.56000 3.716
44.58000 3.781
44.60000 4.259
44.62000 2.004
44.64000 5.846
44.66000 9.853
44.68000 5.762
44.70000 1.276
44.72000 2.434
44.74000 7.312
44.76000 8.089
44.78000 4.104
44.80000 2.363
44.82000 2.155
44.84000 2.300
44.86000 0.783
44.88000 -1.217
44.90000 5.580
44.92000 9.088
44.94000 3.681
44.96000 5.101
44.98000 5.287
45.00000 5.745
45.02000 10.989
45.04000 11.972
45.06000 11.105
45.08000 11.139
45.10000 14.174
45.12000 10.399
45.14000 8.935
45.16000 14.095
45.18000 11.450
45.20000 11.654
45.22000 10.549
45.24000 11.004
45.26000 10.661
45.28000 16.648
45.30000 16.356
45.32000 14.244
45.34000 17.889
45.36000 17.365
45.38000 18.828
45.40000 16.829
45.42000 15.146
45.44000 21.788
45.46000 25.870
45.48000 21.756
45.50000 24.983
45.52000 25.177
45.54000 27.547
45.56000 31.639
45.58000 27.558
45.60000 31.600
45.62000 30.310
45.64000 32.989
45.66000 31.460
45.68000 28.567
45.70000 29.378
45.72000 31.536
45.74000 38.990
45.76000 37.700
45.78000 42.711
45.80000 44.998
45.82000 39.369
45.84000 47.623
45.86000 46.530
45.88000 46.272
45.90000 46.484
45.92000 50.528
45.94000 50.610
45.96000 50.828
45.98000 49.642
46.00000 50.832
46.02000 54.184
46.04000 56.495
46.06000 57.313
46.08000 62.185
46.10000 60.990
46.12000 66.628
46.14000 68.224
46.16000 67.019
46.18000 65.626
46.20000 64.321
46.22000 67.349
46.24000 69.279
46.26000 74.583
46.28000 80.035
46.30000 83.848
46.32000 84.791
46.34000 81.814
46.36000 78.776
46.38000 82.789
46.40000 87.899
46.42000 85.929
46.44000 87.524
46.46000 89.670
46.48000 93.011
46.50000 96.686
46.52000 99.812
46.54000 96.001
46.56000 96.397
46.58000 99.852
46.60000 110.104
46.62000 109.995
46.64000 103.458
46.66000 99.652
46.68000 107.370
46.70000 103.088
46.72000 101.633
46.74000 105.878
46.76000 107.298
46.78000 102.560
46.80000 92.686
46.82000 100.612
46.84000 103.178
46.86000 100.227
46.88000 100.294
46.90000 103.692
46.92000 99.035
46.94000 94.254
46.96000 91.101
46.98000 87.298
47.00000 88.305
47.02000 88.288
47.04000 85.364
47.06000 76.332
47.08000 72.792
47.10000 71.235
47.12000 67.682
47.14000 71.626
47.16000 70.807
47.18000 68.356
47.20000 62.698
47.22000 57.241
47.24000 62.408
47.26000 65.529
47.28000 59.719
47.30000 55.959
47.32000 49.736
47.34000 50.410
47.36000 53.633
47.38000 48.487
47.40000 47.410
47.42000 43.325
47.44000 39.518
47.46000 37.972
47.48000 35.956
47.50000 32.280
47.52000 30.316
47.54000 35.494
47.56000 31.647
47.58000 25.700
47.60000 24.739
47.62000 23.291
47.64000 29.852
47.66000 25.118
47.68000 24.530
47.70000 20.363
47.72000 17.664
47.74000 13.923
47.76000 16.934
47.78000 20.413
47.80000 17.858
47.82000 11.143
47.84000 10.257
47.86000 17.374
47.88000 12.779
47.90000 10.707
47.92000 11.103
47.94000 12.793
47.96000 11.839
47.98000 8.660
48.00000 5.982
48.02000 4.390
48.04000 3.345
48.06000 8.497
48.08000 9.391
48.10000 12.975
48.12000 3.418
48.14000 4.599
48.16000 6.575
48.18000 5.381
48.20000 1.524
48.22000 1.526
48.24000 7.513
48.26000 3.997
48.28000 -2.157
48.30000 1.023
48.32000 0.076
48.34000 2.497
48.36000 -0.278
48.38000 -3.024
48.40000 -3.044
48.42000 2.333
48.44000 2.939
48.46000 4.017
48.48000 2.919
48.50000 3.167
48.52000 2.639
48.54000 -1.025
48.56000 -1.786
48.58000 0.885
48.60000 2.837
48.62000 3.327
48.64000 0.470
48.66000 3.420
48.68000 6.886
48.70000 2.611
48.72000 2.507
48.74000 0.222
48.76000 2.990
48.78000 -1.448
48.80000 0.894
48.82000 3.213
48.84000 2.486
48.86000 -1.066
48.88000 0.368
48.90000 0.806
48.92000 4.170
48.94000 1.033
48.96000 -1.218
48.98000 1.389
49.00000 0.546
49.02000 0.772
49.04000 -0.299
49.06000 3.333
49.08000 7.322
49.10000 2.650
49.12000 1.288
49.14000 -1.677
49.16000 -2.903
49.18000 -2.070
49.20000 0.812
49.22000 2.349
49.24000 -0.661
49.26000 -0.406
49.28000 4.003
49.30000 2.424
49.32000 -0.971
49.34000 -0.585
49.36000 6.692
49.38000 6.268
49.40000 7.346
49.42000 0.659
49.44000 5.963
49.46000 3.763
49.48000 2.851
49.50000 6.816
49.52000 5.167
49.54000 4.655
49.56000 5.674
49.58000 2.831
49.60000 2.267
49.62000 -2.833
49.64000 4.261
49.66000 3.053
49.68000 0.796
49.70000 0.871
49.72000 -0.725
49.74000 2.593
49.76000 3.844
49.78000 3.356
49.80000 2.026
49.82000 0.625
49.84000 5.931
49.86000 2.808
49.88000 2.613
49.90000 1.042
49.92000 -0.069
49.94000 3.758
49.96000 0.562
49.98000 -0.581
50.00000 -0.258
50.02000 3.242
50.04000 5.123
50.06000 4.590
50.08000 1.040
50.10000 -1.686
50.12000 -0.076
50.14000 2.291
50.16000 -0.366
50.18000 -0.759
50.20000 1.986
50.22000 5.120
50.24000 8.655
50.26000 -0.047
50.28000 -0.179
50.30000 1.354
50.32000 1.744
50.34000 -0.753
50.36000 1.861
50.38000 2.874
50.40000 1.800
50.42000 6.243
50.44000 5.714
50.46000 3.408
50.48000 2.857
50.50000 2.010
50.52000 3.332
50.54000 6.043
50.56000 1.080
50.58000 1.522
50.60000 3.167
50.62000 3.231
50.64000 3.289
50.66000 1.365
50.68000 4.048
50.70000 4.892
50.72000 4.193
50.74000 0.626
50.76000 -0.705
50.78000 -2.784
50.80000 -0.950
50.82000 0.485
50.84000 2.101
50.86000 2.633
50.88000 5.594
50.90000 -1.246
50.92000 -2.773
50.94000 0.063
50.96000 3.233
50.98000 2.451
51.00000 0.086
51.02000 3.920
51.04000 5.343
51.06000 3.299
51.08000 4.698
51.10000 3.022
51.12000 1.685
51.14000 2.246
51.16000 3.388
51.18000 0.774
51.20000 2.761
51.22000 3.169
51.24000 4.143
51.26000 -0.344
51.28000 -0.573
51.30000 1.336
51.32000 0.316
51.34000 1.760
51.36000 -0.124
51.38000 2.410
51.40000 0.450
51.42000 1.547
51.44000 0.770
51.46000 -2.757
51.48000 -0.484
51.50000 0.439
51.52000 1.560
51.54000 2.450
51.56000 1.945
51.58000 1.029
51.60000 4.330
51.62000 3.470
51.64000 0.430
51.66000 1.660
51.68000 2.197
51.70000 -0.410
51.72000 -0.374
51.74000 5.094
51.76000 2.207
51.78000 2.208
51.80000 0.929
51.82000 1.524
51.84000 -2.175
51.86000 1.945
51.88000 2.954
51.90000 2.878
51.92000 3.116
51.94000 2.802
51.96000 1.893
51.98000 1.919
52.00000 1.669
52.02000 3.369
52.04000 3.589
52.06000 2.816
52.08000 -0.063
52.10000 -2.521
52.12000 -2.725
52.14000 1.105
52.16000 2.310
52.18000 -0.292
52.20000 -1.798
52.22000 0.918
52.24000 3.221
52.26000 6.312
52.28000 5.429
52.30000 2.507
52.32000 1.722
52.34000 -0.223
52.36000 3.173
52.38000 3.591
52.40000 2.462
52.42000 -0.412
52.44000 0.165
52.46000 0.124
52.48000 1.785
52.50000 5.703
52.52000 7.125
52.54000 3.584
52.56000 4.613
52.58000 5.960
52.60000 -0.546
52.62000 -0.878
52.64000 0.789
52.66000 3.769
52.68000 2.357
52.70000 -0.720
52.72000 2.219
52.74000 2.484
52.76000 6.040
52.78000 6.517
52.80000 4.615
52.82000 -0.854
52.84000 -1.218
52.86000 3.439
52.88000 4.523
52.90000 5.719
52.92000 5.117
52.94000 3.278
52.96000 0.581
52.98000 1.071
53.00000 -2.015
53.02000 -2.685
53.04000 0.511
53.06000 4.113
53.08000 5.221
53.10000 3.909
53.12000 6.707
53.14000 8.953
53.16000 5.196
53.18000 -0.227
53.20000 -0.740
53.22000 -0.137
53.24000 1.283
53.26000 0.727
53.28000 -0.171
53.30000 -0.004
53.32000 3.622
53.34000 3.115
53.36000 3.329
53.38000 -0.324
53.40000 -1.645
53.42000 -1.454
53.44000 3.402
53.46000 5.677
53.48000 1.653
53.50000 2.711
53.52000 0.863
53.54000 2.028
53.56000 4.206
53.58000 0.894
53.60000 3.669
53.62000 2.402
53.64000 6.812
53.66000 7.990
53.68000 2.647
53.70000 1.210
53.72000 4.995
53.74000 2.444
53.76000 0.263
53.78000 1.270
53.80000 3.043
53.82000 0.888
53.84000 0.587
53.86000 3.456
53.88000 1.155
53.90000 2.321
53.92000 5.627
53.94000 0.540
53.96000 4.290
53.98000 2.989
54.00000 -2.073
54.02000 2.136
54.04000 1.441
54.06000 3.898
54.08000 1.757
54.10000 2.071
54.12000 2.535
54.14000 0.362
54.16000 -2.649
54.18000 2.851
54.20000 2.660
54.22000 3.785
54.24000 1.529
54.26000 1.467
54.28000 3.389
54.30000 3.011
54.32000 0.988
54.34000 3.253
54.36000 4.703
54.38000 0.825
54.40000 0.325
54.42000 2.493
54.44000 3.577
54.46000 7.733
54.48000 7.493
54.50000 1.112
54.52000 -1.656
54.54000 4.416
54.56000 3.519
54.58000 3.107
54.60000 4.217
54.62000 4.344
54.64000 -0.119
54.66000 -1.961
54.68000 3.656
54.70000 2.263
54.72000 2.087
54.74000 0.605
54.76000 2.876
54.78000 3.493
54.80000 4.847
54.82000 5.682
54.84000 4.859
54.86000 3.954
54.88000 0.993
54.90000 0.864
54.92000 1.886
54.94000 0.177
54.96000 2.097
54.98000 0.920
55.00000 2.368
55.02000 4.312
55.04000 5.144
55.06000 2.671
55.08000 3.646
55.10000 2.268
55.12000 4.901
55.14000 2.114
55.16000 1.542
55.18000 2.089
55.20000 4.536
55.22000 1.283
55.24000 1.401
55.26000 2.375
55.28000 0.350
55.30000 2.834
55.32000 5.489
55.34000 1.903
55.36000 0.959
55.38000 -2.631
55.40000 -0.077
55.42000 1.482
55.44000 2.700
55.46000 3.685
55.48000 2.458
55.50000 3.021
55.52000 -0.037
55.54000 -1.726
55.56000 4.837
55.58000 6.618
55.60000 5.763
55.62000 4.459
55.64000 0.877
55.66000 1.981
55.68000 4.514
55.70000 2.159
55.72000 0.650
55.74000 1.777
55.76000 0.772
55.78000 -0.899
55.80000 0.043
55.82000 0.639
55.84000 -2.618
55.86000 4.527
55.88000 6.924
55.90000 3.751
55.92000 1.215
55.94000 5.199
55.96000 -1.506
55.98000 5.207
56.00000 0.386
56.02000 -1.226
56.04000 1.783
56.06000 1.335
56.08000 -0.918
56.10000 3.843
56.12000 2.830
56.14000 0.971
56.16000 1.017
56.18000 0.466
56.20000 2.964
56.22000 5.862
56.24000 1.627
56.26000 1.315
56.28000 3.604
56.30000 -0.064
56.32000 -0.648
56.34000 8.434
56.36000 6.104
56.38000 3.319
56.40000 0.752
56.42000 3.341
56.44000 0.821
56.46000 1.275
56.48000 -0.226
56.50000 4.389
56.52000 5.913
56.54000 0.721
56.56000 0.519
56.58000 2.756
56.60000 0.946
56.62000 1.617
56.64000 3.574
56.66000 3.647
56.68000 -0.101
56.70000 1.734
56.72000 -1.362
56.74000 1.412
56.76000 1.318
56.78000 0.660
56.80000 -1.013
56.82000 -1.123
56.84000 -2.216
56.86000 -2.601
56.88000 0.691
56.90000 0.834
56.92000 -2.080
56.94000 2.026
56.96000 0.888
56.98000 1.155
57.00000 1.527
57.02000 3.734
57.04000 3.213
57.06000 2.158
57.08000 3.111
57.10000 -0.940
57.12000 0.008
57.14000 1.618
57.16000 2.556
57.18000 -0.361
57.20000 0.007
57.22000 0.602
57.24000 2.942
57.26000 6.611
57.28000 1.886
57.30000 1.295
57.32000 1.431
57.34000 0.681
57.36000 0.476
57.38000 1.096
57.40000 -0.930
57.42000 -0.427
57.44000 3.761
57.46000 3.081
57.48000 -2.575
57.50000 0.619
57.52000 1.718
57.54000 3.938
57.56000 4.750
57.58000 2.509
57.60000 0.524
57.62000 0.846
57.64000 2.122
57.66000 5.518
57.68000 8.027
57.70000 4.065
57.72000 4.306
57.74000 3.611
57.76000 1.975
57.78000 2.755
57.80000 0.672
57.82000 -1.162
57.84000 -0.204
57.86000 0.611
57.88000 0.332
57.90000 0.692
57.92000 0.065
57.94000 0.942
57.96000 1.135
57.98000 3.624
58.00000 1.863
58.02000 3.480
58.04000 4.202
58.06000 4.825
58.08000 2.383
58.10000 1.727
58.12000 2.594
58.14000 2.281
58.16000 0.880
58.18000 1.126
58.20000 0.615
58.22000 0.170
58.24000 -0.999
58.26000 -0.605
58.28000 -0.868
58.30000 -1.099
58.32000 0.858
58.34000 5.281
58.36000 4.203
58.38000 1.150
58.40000 -0.027
58.42000 1.020
58.44000 -2.566
58.46000 0.440
58.48000 0.726
58.50000 -1.608
58.52000 -0.596
58.54000 1.083
58.56000 3.600
58.58000 -0.118
58.60000 0.150
58.62000 2.445
58.64000 1.665
58.66000 1.173
58.68000 -2.300
58.70000 0.275
58.72000 -0.321
58.74000 0.155
58.76000 0.737
58.78000 1.657
58.80000 3.119
58.82000 2.755
58.84000 1.446
58.86000 4.783
58.88000 5.944
58.90000 4.426
58.92000 1.279
58.94000 -1.073
58.96000 0.601
58.98000 2.475
59.00000 1.891
59.02000 -0.290
59.04000 2.655
59.06000 0.965
59.08000 3.509
59.10000 6.874
59.12000 3.823
59.14000 3.886
59.16000 5.975
59.18000 -2.464
59.20000 -2.312
59.22000 1.463
59.24000 0.758
59.26000 -0.977
59.28000 2.439
59.30000 -0.654
59.32000 -1.787
59.34000 3.299
59.36000 3.990
59.38000 1.406
59.40000 1.418
59.42000 -2.508
59.44000 -1.420
59.46000 -0.549
59.48000 3.695
59.50000 4.025
59.52000 2.391
59.54000 2.747
59.56000 7.681
59.58000 8.260
59.60000 8.073
59.62000 7.986
59.64000 7.972
59.66000 4.624
59.68000 4.984
59.70000 4.476
59.72000 2.627
59.74000 4.735
59.76000 3.584
59.78000 -2.472
59.80000 0.149
59.82000 4.950
59.84000 4.949
59.86000 4.807
59.88000 0.275
59.90000 -0.918
59.92000 3.309
59.94000 3.249
59.96000 3.593
59.98000 3.528
60.00000 6.423
60.02000 6.846
60.04000 3.536
60.06000 2.874
60.08000 4.296
60.10000 3.981
60.12000 -0.985
60.14000 -1.508
60.16000 3.462
60.18000 8.494
60.20000 5.687
60.22000 6.635
60.24000 6.645
60.26000 5.803
60.28000 5.751
60.30000 3.532
60.32000 7.643
60.34000 8.258
60.36000 6.837
60.38000 1.319
60.40000 -2.442
60.42000 -1.309
60.44000 0.443
60.46000 3.341
60.48000 4.774
60.50000 1.832
60.52000 3.737
60.54000 4.231
60.56000 2.352
60.58000 1.388
60.60000 1.576
60.62000 -0.559
60.64000 3.002
60.66000 4.376
60.68000 2.933
60.70000 3.285
60.72000 6.047
60.74000 2.142
60.76000 -0.450
60.78000 1.670
60.80000 6.043
60.82000 8.295
60.84000 3.777
60.86000 3.291
60.88000 4.768
60.90000 4.532
60.92000 5.150
60.94000 4.048
60.96000 3.596
60.98000 7.164
61.00000 4.472
61.02000 4.773
61.04000 3.121
61.06000 -2.431
61.08000 0.481
61.10000 6.727
61.12000 6.961
61.14000 2.178
61.16000 1.281
61.18000 3.241
61.20000 3.589
61.22000 4.722
61.24000 -0.896
61.26000 1.799
61.28000 2.765
61.30000 1.579
61.32000 -0.073
61.34000 2.017
61.36000 0.359
61.38000 0.887
61.40000 -0.301
61.42000 0.685
61.44000 1.895
61.46000 1.828
61.48000 1.375
61.50000 3.776
61.52000 4.989
61.54000 7.226
61.56000 4.245
61.58000 1.255
61.60000 2.342
61.62000 -0.322
61.64000 -1.186
61.66000 -0.228
61.68000 2.272
61.70000 3.799
61.72000 2.370
61.74000 0.221
61.76000 3.323
61.78000 5.189
61.80000 6.537
61.82000 4.463
61.84000 2.206
61.86000 1.215
61.88000 -0.017
61.90000 2.023
61.92000 4.655
61.94000 1.832
61.96000 1.066
61.98000 1.885
62.00000 -1.020
62.02000 1.172
62.04000 -2.438
62.06000 -0.582
62.08000 3.095
62.10000 1.305
62.12000 0.078
62.14000 -2.287
62.16000 0.990
62.18000 1.934
62.20000 2.984
62.22000 -0.759
62.24000 2.536
62.26000 1.608
62.28000 1.705
62.30000 2.856
62.32000 4.600
62.34000 -0.560
62.36000 0.140
62.38000 1.739
62.40000 -2.022
62.42000 0.439
62.44000 3.192
62.46000 -0.833
62.48000 -0.741
62.50000 3.106
62.52000 1.836
62.54000 4.302
62.56000 4.579
62.58000 -0.973
62.60000 2.117
62.62000 1.365
62.64000 -2.449
62.66000 -0.671
62.68000 -0.990
62.70000 0.024
62.72000 1.052
62.74000 5.911
62.76000 4.725
62.78000 0.577
62.80000 1.129
62.82000 2.032
62.84000 -1.845
62.86000 -2.113
62.88000 -0.143
62.90000 -0.609
62.92000 -0.917
62.94000 -0.519
62.96000 -0.592
62.98000 -1.871
63.00000 2.902
63.02000 2.923
63.04000 -0.280
63.06000 2.092
63.08000 0.451
63.10000 1.688
63.12000 1.665
63.14000 1.275
63.16000 -1.150
63.18000 -0.838
63.20000 -1.602
63.22000 -0.741
63.24000 0.244
63.26000 0.204
63.28000 2.279
63.30000 0.223
63.32000 3.531
63.34000 0.755
63.36000 0.742
63.38000 -0.387
63.40000 -1.347
63.42000 0.380
63.44000 -2.431
63.46000 1.872
63.48000 3.757
63.50000 -0.798
63.52000 -0.828
63.54000 -0.074
63.56000 2.718
63.58000 1.434
63.60000 1.037
63.62000 4.524
63.64000 4.346
63.66000 3.501
63.68000 4.074
63.70000 6.925
63.72000 7.284
63.74000 4.066
63.76000 -1.547
63.78000 2.075
63.80000 1.465
63.82000 1.604
63.84000 -0.594
63.86000 0.826
63.88000 0.420
63.90000 0.709
63.92000 -0.791
63.94000 1.399
63.96000 0.142
63.98000 0.344
64.00000 -0.211
64.02000 -1.258
64.04000 2.975
64.06000 4.494
64.08000 4.630
64.10000 4.003
64.12000 2.997
64.14000 1.322
64.16000 2.977
64.18000 2.240
64.20000 1.770
64.22000 6.761
64.24000 5.332
64.26000 3.192
64.28000 1.855
64.30000 2.128
64.32000 -2.451
64.34000 -1.788
64.36000 0.721
64.38000 1.990
64.40000 0.776
64.42000 2.983
64.44000 -0.862
64.46000 1.844
64.48000 3.084
64.50000 2.368
64.52000 2.454
64.54000 -0.696
64.56000 1.710
64.58000 1.998
64.60000 -0.629
64.62000 -0.013
64.64000 2.530
64.66000 1.320
64.68000 1.523
64.70000 1.194
64.72000 1.271
64.74000 -1.085
64.76000 -2.456
64.78000 -0.204
64.80000 3.988
64.82000 1.375
64.84000 -0.112
64.86000 0.530
64.88000 2.138
64.90000 -0.656
64.92000 -0.311
64.94000 0.828
64.96000 0.945
64.98000 4.293
65.00000 6.678
65.02000 1.934
65.04000 -1.114
65.06000 -2.460
65.08000 0.153
65.10000 1.431
65.12000 1.418
65.14000 0.664
65.16000 3.354
65.18000 -0.104
65.20000 -2.465
65.22000 -1.604
65.24000 -0.046
65.26000 0.256
65.28000 7.295
65.30000 6.821
65.32000 0.586
65.34000 0.334
65.36000 2.181
65.38000 0.228
65.40000 2.081
65.42000 2.204
65.44000 3.087
65.46000 -0.747
65.48000 -1.995
65.50000 -0.732
65.52000 2.843
65.54000 2.462
65.56000 -0.587
65.58000 0.776
65.60000 2.476
65.62000 1.689
65.64000 2.097
65.66000 0.428
65.68000 -1.148
65.70000 0.076
65.72000 1.505
65.74000 2.288
65.76000 2.451
65.78000 2.723
65.80000 1.880
65.82000 2.451
65.84000 1.487
65.86000 -2.062
65.88000 -2.516
65.90000 -0.669
65.92000 3.765
65.94000 2.756
65.96000 1.518
65.98000 0.784
66.00000 -0.414
66.02000 1.452
66.04000 2.760
66.06000 -1.040
66.08000 -0.230
66.10000 0.401
66.12000 -1.715
66.14000 -2.001
66.16000 -1.774
66.18000 -0.070
66.20000 1.163
66.22000 -0.201
66.24000 0.409
66.26000 2.313
66.28000 1.533
66.30000 1.069
66.32000 2.222
66.34000 2.569
66.36000 1.928
66.38000 -1.177
66.40000 0.227
66.42000 -1.489
66.44000 0.141
66.46000 3.570
66.48000 2.088
66.50000 -0.339
66.52000 -0.771
66.54000 3.124
66.56000 4.177
66.58000 0.705
66.60000 2.052
66.62000 2.381
66.64000 1.040
66.66000 1.358
66.68000 2.996
66.70000 1.007
66.72000 0.163
66.74000 4.898
66.76000 6.227
66.78000 3.588
66.80000 -0.200
66.82000 1.929
66.84000 2.525
66.86000 1.037
66.88000 2.317
66.90000 2.162
66.92000 3.232
66.94000 3.425
66.96000 4.830
66.98000 2.741
67.00000 3.263
67.02000 5.198
67.04000 3.068
67.06000 6.245
67.08000 5.057
67.10000 7.994
67.12000 9.854
67.14000 6.753
67.16000 6.148
67.18000 6.783
67.20000 5.148
67.22000 4.867
67.24000 4.349
67.26000 8.434
67.28000 10.463
67.30000 9.370
67.32000 9.803
67.34000 11.351
67.36000 11.564
67.38000 8.586
67.40000 13.059
67.42000 11.600
67.44000 10.464
67.46000 13.962
67.48000 17.222
67.50000 12.469
67.52000 9.728
67.54000 9.993
67.56000 12.908
67.58000 13.480
67.60000 17.205
67.62000 15.817
67.64000 15.500
67.66000 19.148
67.68000 18.145
67.70000 20.386
67.72000 19.848
67.74000 19.814
67.76000 20.761
67.78000 19.392
67.80000 16.769
67.82000 19.322
67.84000 20.046
67.86000 18.895
67.88000 18.067
67.90000 18.845
67.92000 22.035
67.94000 20.663
67.96000 21.053
67.98000 20.086
68.00000 18.139
68.02000 20.724
68.04000 21.417
68.06000 21.528
68.08000 23.166
68.10000 19.945
68.12000 19.774
68.14000 21.522
68.16000 21.475
68.18000 22.829
68.20000 26.345
68.22000 22.914
68.24000 23.968
68.26000 23.001
68.28000 18.610
68.30000 18.170
68.32000 19.972
68.34000 19.986
68.36000 24.375
68.38000 20.229
68.40000 23.390
68.42000 23.164
68.44000 19.142
68.46000 15.828
68.48000 20.960
68.50000 16.642
68.52000 18.815
68.54000 19.985
68.56000 14.542
68.58000 13.145
68.60000 10.075
68.62000 9.422
68.64000 12.892
68.66000 14.680
68.68000 16.132
68.70000 13.880
68.72000 12.087
68.74000 10.706
68.76000 11.150
68.78000 10.885
68.80000 12.870
68.82000 11.855
68.84000 11.021
68.86000 12.312
68.88000 11.273
68.90000 8.847
68.92000 8.796
68.94000 8.999
68.96000 9.377
68.98000 11.582
69.00000 11.743
69.02000 9.781
69.04000 9.785
69.06000 7.683
69.08000 4.181
69.10000 3.779
69.12000 4.918
69.14000 7.959
69.16000 7.766
69.18000 2.699
69.20000 0.826
69.22000 4.903
69.24000 9.135
69.26000 6.053
69.28000 6.217
69.30000 4.695
69.32000 2.869
69.34000 2.544
69.36000 4.143
69.38000 3.613
69.40000 5.697
69.42000 2.408
69.44000 1.824
69.46000 2.586
69.48000 3.098
69.50000 2.184
69.52000 5.172
69.54000 4.738
69.56000 5.754
69.58000 3.093
69.60000 2.306
69.62000 1.408
69.64000 2.192
69.66000 5.774
69.68000 3.222
69.70000 -2.397
69.72000 -0.612
69.74000 6.709
69.76000 12.589
69.78000 10.098
69.80000 5.397
69.82000 6.883
69.84000 4.182
69.86000 2.404
69.88000 1.146
69.90000 -0.466
69.92000 -1.110
69.94000 1.219
69.96000 4.384
69.98000 5.198
70.00000 2.785
70.02000 4.125
70.04000 2.420
70.06000 3.534
70.08000 -1.988
70.10000 -1.647
70.12000 0.348
70.14000 0.904
70.16000 2.344
70.18000 1.593
70.20000 0.919
70.22000 3.828
70.24000 0.801
70.26000 2.019
70.28000 -2.367
70.30000 -0.375
70.32000 3.178
70.34000 4.100
70.36000 5.217
70.38000 6.966
70.40000 4.483
70.42000 1.517
70.44000 2.862
70.46000 2.660
70.48000 1.396
70.50000 -0.429
70.52000 1.907
70.54000 3.762
70.56000 2.090
70.58000 -0.675
70.60000 0.840
70.62000 4.510
70.64000 2.794
70.66000 1.683
70.68000 2.365
70.70000 1.426
70.72000 5.961
70.74000 6.412
70.76000 2.196
70.78000 5.074
70.80000 3.488
70.82000 -1.092
70.84000 -1.787
70.86000 -0.225
70.88000 0.397
70.90000 0.522
70.92000 2.848
70.94000 0.700
70.96000 -0.701
70.98000 1.654
71.00000 1.770
71.02000 6.163
71.04000 5.622
71.06000 3.959
71.08000 5.854
71.10000 6.042
71.12000 3.150
71.14000 -0.956
71.16000 0.500
71.18000 2.019
71.20000 1.386
71.22000 0.906
71.24000 3.033
71.26000 4.096
71.28000 4.977
71.30000 7.745
71.32000 6.512
71.34000 1.530
71.36000 0.667
71.38000 4.434
71.40000 2.336
71.42000 3.796
71.44000 4.706
71.46000 3.642
71.48000 -1.410
71.50000 4.187
71.52000 6.301
71.54000 4.768
71.56000 9.476
71.58000 6.826
71.60000 4.765
71.62000 4.527
71.64000 3.224
71.66000 2.886
71.68000 5.430
71.70000 2.628
71.72000 3.869
71.74000 2.881
71.76000 3.466
71.78000 0.974
71.80000 -2.282
71.82000 3.502
71.84000 6.307
71.86000 4.994
71.88000 3.367
71.90000 4.247
71.92000 0.966
71.94000 1.654
71.96000 0.315
71.98000 4.829
72.00000 4.992
72.02000 6.798
72.04000 7.293
72.06000 3.635
72.08000 2.877
72.10000 4.064
72.12000 3.113
72.14000 5.795
72.16000 5.938
72.18000 3.161
72.20000 4.342
72.22000 -2.287
72.24000 -1.932
72.26000 2.827
72.28000 0.861
72.30000 2.826
72.32000 7.891
72.34000 6.160
72.36000 8.011
72.38000 3.942
72.40000 4.294
72.42000 2.390
72.44000 0.635
72.46000 -0.014
72.48000 -0.969
72.50000 1.779
72.52000 2.963
72.54000 0.809
72.56000 4.436
72.58000 6.558
72.60000 7.422
72.62000 5.760
72.64000 3.582
72.66000 3.517
72.68000 0.173
72.70000 -2.284
72.72000 1.988
72.74000 0.666
72.76000 2.401
72.78000 0.730
72.80000 0.678
72.82000 -0.980
72.84000 3.337
72.86000 4.494
72.88000 2.733
72.90000 5.110
72.92000 2.371
72.94000 1.344
72.96000 -0.502
72.98000 -0.680
73.00000 2.614
73.02000 0.638
73.04000 0.420
73.06000 2.311
73.08000 1.790
73.10000 3.476
73.12000 1.740
73.14000 1.875
73.16000 4.245
73.18000 2.862
73.20000 3.030
73.22000 3.492
73.24000 3.475
73.26000 -0.214
73.28000 1.013
73.30000 4.419
73.32000 3.168
73.34000 0.674
73.36000 1.571
73.38000 2.637
73.40000 2.640
73.42000 7.702
73.44000 7.476
73.46000 1.460
73.48000 -0.093
73.50000 2.681
73.52000 -1.933
73.54000 -2.168
73.56000 -1.959
73.58000 -2.175
73.60000 -0.828
73.62000 0.876
73.64000 2.829
73.66000 1.911
73.68000 0.073
73.70000 -2.281
73.72000 -1.780
73.74000 3.339
73.76000 1.474
73.78000 1.035
73.80000 -0.271
73.82000 -0.240
73.84000 1.898
73.86000 2.235
73.88000 0.161
73.90000 -0.809
73.92000 3.341
73.94000 3.019
73.96000 2.528
73.98000 -1.595
74.00000 -0.715
74.02000 6.063
74.04000 5.957
74.06000 1.307
74.08000 1.710
74.10000 1.782
74.12000 2.164
74.14000 0.718
74.16000 1.622
74.18000 1.619
74.20000 -1.155
74.22000 2.589
74.24000 3.362
74.26000 2.906
74.28000 0.823
74.30000 1.467
74.32000 3.240
74.34000 -0.634
74.36000 -0.064
74.38000 4.608
74.40000 5.035
74.42000 0.395
74.44000 0.077
74.46000 1.521
74.48000 0.629
74.50000 -2.275
74.52000 -0.960
74.54000 0.433
74.56000 1.256
74.58000 -0.131
74.60000 0.577
74.62000 3.493
74.64000 3.964
74.66000 6.525
74.68000 0.504
74.70000 -2.266
74.72000 -1.514
74.74000 0.728
74.76000 -0.398
74.78000 2.666
74.80000 -0.052
74.82000 -1.065
74.84000 0.662
74.86000 4.310
74.88000 8.131
74.90000 4.015
74.92000 0.096
74.94000 -1.416
74.96000 -2.189
74.98000 1.794
75.00000 3.635
75.02000 4.335
75.04000 5.095
75.06000 5.250
75.08000 4.149
75.10000 4.885
75.12000 2.097
75.14000 2.939
75.16000 1.172
75.18000 5.049
75.20000 2.294
75.22000 3.003
75.24000 1.601
75.26000 3.904
75.28000 2.582
75.30000 -1.158
75.32000 0.786
75.34000 2.083
75.36000 1.681
75.38000 4.016
75.40000 -0.311
75.42000 -1.479
75.44000 1.754
75.46000 1.466
75.48000 -0.780
75.50000 -0.001
75.52000 1.474
75.54000 -1.955
75.56000 0.738
75.58000 5.126
75.60000 7.620
75.62000 2.353
75.64000 2.386
75.66000 5.748
75.68000 3.391
75.70000 3.641
75.72000 8.552
75.74000 8.959
75.76000 4.320
75.78000 1.689
75.80000 -0.995
75.82000 -2.224
75.84000 2.686
75.86000 2.916
75.88000 7.351
75.90000 7.819
75.92000 4.689
75.94000 2.598
75.96000 -0.917
75.98000 1.091
76.00000 3.815
76.02000 7.111
76.04000 4.705
76.06000 1.123
76.08000 1.327
76.10000 5.979
76.12000 7.258
76.14000 6.187
76.16000 3.589
76.18000 4.615
76.20000 2.502
76.22000 1.391
76.24000 1.406
76.26000 6.911
76.28000 4.888
76.30000 5.508
76.32000 3.366
76.34000 5.230
76.36000 0.077
76.38000 1.318
76.40000 3.169
76.42000 4.932
76.44000 8.131
76.46000 7.558
76.48000 6.903
76.50000 6.186
76.52000 1.282
76.54000 0.411
76.56000 2.083
76.58000 1.237
76.60000 2.313
76.62000 2.025
76.64000 1.227
76.66000 4.934
76.68000 4.043
76.70000 6.795
76.72000 4.869
76.74000 4.715
76.76000 5.513
76.78000 6.432
76.80000 6.826
76.82000 5.663
76.84000 4.599
76.86000 2.962
76.88000 5.328
76.90000 4.709
76.92000 2.229
76.94000 0.951
76.96000 1.490
76.98000 2.301
77.00000 3.109
77.02000 0.044
77.04000 2.064
77.06000 4.197
77.08000 0.999
77.10000 3.461
77.12000 2.808
77.14000 0.461
77.16000 -0.014
77.18000 5.697
77.20000 4.707
77.22000 3.066
77.24000 -1.434
77.26000 -2.260
77.28000 5.859
77.30000 3.766
77.32000 2.382
77.34000 2.379
77.36000 4.000
77.38000 6.263
77.40000 7.664
77.42000 4.874
77.44000 1.962
77.46000 2.100
77.48000 1.898
77.50000 3.799
77.52000 3.118
77.54000 2.405
77.56000 1.302
77.58000 2.972
77.60000 1.938
77.62000 1.815
77.64000 2.281
77.66000 2.529
77.68000 5.720
77.70000 2.968
77.72000 3.599
77.74000 3.641
77.76000 1.481
77.78000 0.581
77.80000 2.916
77.82000 3.715
77.84000 4.056
77.86000 4.103
77.88000 2.047
77.90000 4.956
77.92000 7.207
77.94000 4.706
77.96000 1.654
77.98000 4.060
78.00000 4.267
78.02000 3.683
78.04000 4.273
78.06000 1.327
78.08000 1.927
78.10000 -1.414
78.12000 0.250
78.14000 -0.046
78.16000 -0.884
78.18000 2.600
78.20000 1.930
78.22000 2.776
78.24000 0.983
78.26000 0.228
78.28000 -0.829
78.30000 -0.865
78.32000 0.470
78.34000 -1.962
78.36000 0.466
78.38000 -0.626
78.40000 1.090
78.42000 1.851
78.44000 5.086
78.46000 3.250
78.48000 -2.028
78.50000 2.086
78.52000 -1.316
78.54000 -1.659
78.56000 -0.923
78.58000 -0.312
78.60000 1.348
78.62000 1.831
78.64000 3.601
78.66000 3.282
78.68000 3.091
78.70000 1.717
78.72000 -2.348
78.74000 -1.704
78.76000 0.607
78.78000 2.618
78.80000 2.009
78.82000 -2.350
78.84000 1.788
78.86000 -0.485
78.88000 1.729
78.90000 2.694
78.92000 0.157
78.94000 0.527
78.96000 1.512
78.98000 5.176
79.00000 2.567
79.02000 2.668
79.04000 -0.693
79.06000 -0.939
79.08000 4.640
79.10000 5.085
79.12000 2.249
79.14000 -0.662
79.16000 1.231
79.18000 4.796
79.20000 -0.009
79.22000 0.596
79.24000 -1.786
79.26000 1.150
79.28000 1.822
79.30000 -0.187
79.32000 0.419
79.34000 -0.839
79.36000 1.042
79.38000 -0.136
79.40000 1.057
79.42000 1.487
79.44000 0.067
79.46000 3.465
79.48000 -0.936
79.50000 -2.391
79.52000 2.360
79.54000 1.955
79.56000 -1.256
79.58000 2.556
79.60000 4.595
79.62000 2.473
79.64000 5.584
79.66000 9.462
79.68000 6.454
79.70000 5.578
79.72000 1.194
79.74000 2.538
79.76000 1.067
79.78000 0.327
79.80000 5.432
79.82000 3.291
79.84000 -2.416
79.86000 0.238
79.88000 5.293
79.90000 4.979
79.92000 3.394
79.94000 2.168
79.96000 -1.788
79.98000 2.800
80.00000 3.212
80.02000 2.979
80.04000 4.060
80.06000 -0.544
80.08000 -1.575
80.10000 4.597
80.12000 0.435
80.14000 -0.987
80.16000 1.554
80.18000 3.959
80.20000 3.212
80.22000 4.615
80.24000 2.425
80.26000 6.436
80.28000 6.122
80.30000 5.382
80.32000 -1.134
80.34000 -2.466
80.36000 -1.803
80.38000 2.383
80.40000 4.329
80.42000 4.760
80.44000 6.442
80.46000 3.848
80.48000 4.199
80.50000 -0.314
80.52000 2.826
80.54000 1.589
80.56000 3.683
80.58000 1.296
80.60000 1.726
80.62000 4.322
80.64000 2.548
80.66000 1.124
80.68000 3.204
80.70000 3.242
80.72000 4.170
80.74000 4.310
80.76000 10.590
80.78000 11.249
80.80000 5.183
80.82000 3.582
80.84000 6.387
80.86000 0.609
80.88000 0.780
80.90000 13.193
80.92000 8.473
80.94000 8.136
80.96000 9.092
80.98000 12.721
81.00000 7.998
81.02000 9.356
81.04000 8.256
81.06000 11.201
81.08000 13.680
81.10000 10.812
81.12000 7.609
81.14000 13.346
81.16000 12.991
81.18000 10.011
81.20000 11.375
81.22000 13.002
81.24000 10.326
81.26000 10.702
81.28000 12.348
81.30000 14.060
81.32000 15.969
81.34000 13.831
81.36000 15.191
81.38000 10.940
81.40000 8.520
81.42000 11.716
81.44000 15.522
81.46000 14.653
81.48000 18.050
81.50000 20.791
81.52000 17.481
81.54000 13.393
81.56000 15.799
81.58000 18.134
81.60000 20.299
81.62000 18.549
81.64000 17.079
81.66000 23.129
81.68000 21.017
81.70000 18.517
81.72000 22.011
81.74000 20.628
81.76000 16.134
81.78000 21.117
81.80000 24.886
81.82000 23.573
81.84000 24.694
81.86000 28.354
81.88000 25.338
81.90000 27.012
81.92000 25.679
81.94000 26.206
81.96000 25.339
81.98000 24.358
82.00000 25.128
82.02000 23.623
82.04000 25.315
82.06000 31.468
82.08000 29.633
82.10000 25.984
82.12000 31.619
82.14000 28.919
82.16000 30.669
82.18000 30.204
82.20000 31.410
82.22000 27.074
82.24000 17.886
82.26000 25.744
82.28000 28.591
82.30000 30.824
82.32000 29.991
82.34000 28.854
82.36000 26.411
82.38000 28.453
82.40000 23.319
82.42000 27.403
82.44000 26.637
82.46000 29.306
82.48000 32.071
82.50000 30.634
82.52000 25.760
82.54000 26.163
82.56000 22.143
82.58000 20.122
82.60000 19.868
82.62000 22.771
82.64000 22.350
82.66000 23.980
82.68000 21.887
82.70000 18.723
82.72000 14.721
82.74000 17.852
82.76000 16.726
82.78000 17.370
82.80000 22.012
82.82000 23.577
82.84000 20.647
82.86000 13.387
82.88000 15.342
82.90000 13.986
82.92000 14.391
82.94000 14.736
82.96000 18.058
82.98000 13.332
83.00000 11.919
83.02000 11.892
83.04000 12.342
83.06000 14.525
83.08000 14.764
83.10000 15.028
83.12000 9.725
83.14000 8.017
83.16000 9.144
83.18000 11.647
83.20000 8.784
83.22000 7.749
83.24000 8.157
83.26000 3.506
83.28000 8.474
83.30000 10.805
83.32000 12.479
83.34000 9.100
83.36000 11.157
83.38000 11.335
83.40000 9.855
83.42000 7.598
83.44000 5.374
83.46000 4.359
83.48000 4.935
83.50000 6.867
83.52000 6.723
83.54000 5.758
83.56000 6.833
83.58000 5.487
83.60000 5.694
83.62000 1.302
83.64000 -0.288
83.66000 3.039
83.68000 4.683
83.70000 1.970
83.72000 2.013
83.74000 1.134
83.76000 1.209
83.78000 2.662
83.80000 4.168
83.82000 4.474
83.84000 5.492
83.86000 4.552
83.88000 5.132
83.90000 3.633
83.92000 0.841
83.94000 0.789
83.96000 6.521
83.98000 4.063
84.00000 0.078
84.02000 4.354
84.04000 3.780
84.06000 3.237
84.08000 0.379
84.10000 -1.993
84.12000 -0.299
84.14000 2.819
84.16000 5.292
84.18000 5.294
84.20000 2.461
84.22000 0.812
84.24000 0.407
84.26000 0.218
84.28000 -2.389
84.30000 2.817
84.32000 2.694
84.34000 2.149
84.36000 2.099
84.38000 6.323
84.40000 6.168
84.42000 2.478
84.44000 3.642
84.46000 4.252
84.48000 3.675
84.50000 6.633
84.52000 6.241
84.54000 6.243
84.56000 3.713
84.58000 -0.087
84.60000 -1.447
84.62000 1.530
84.64000 0.912
84.66000 0.336
84.68000 -0.497
84.70000 -0.038
84.72000 -0.498
84.74000 5.068
84.76000 6.967
84.78000 4.666
84.80000 -1.092
84.82000 -2.392
84.84000 -1.303
84.86000 2.093
84.88000 2.473
84.90000 3.151
84.92000 8.064
84.94000 9.880
84.96000 6.773
84.98000 4.857
85.00000 1.085
85.02000 1.835
85.04000 7.281
85.06000 4.982
85.08000 3.759
85.10000 5.068
85.12000 2.450
85.14000 4.935
85.16000 3.010
85.18000 1.513
85.20000 1.018
85.22000 5.610
85.24000 2.263
85.26000 0.858
85.28000 -2.415
85.30000 2.863
85.32000 5.983
85.34000 3.385
85.36000 2.721
85.38000 5.538
85.40000 4.996
85.42000 6.549
85.44000 10.459
85.46000 10.130
85.48000 11.065
85.50000 9.035
85.52000 7.107
85.54000 6.371
85.56000 4.751
85.58000 7.499
85.60000 10.253
85.62000 13.484
85.64000 8.555
85.66000 2.698
85.68000 6.260
85.70000 9.855
85.72000 12.899
85.74000 12.053
85.76000 8.887
85.78000 11.005
85.80000 12.927
85.82000 11.184
85.84000 8.412
85.86000 11.005
85.88000 15.765
85.90000 15.576
85.92000 12.507
85.94000 12.437
85.96000 14.804
85.98000 15.961
86.00000 16.365
86.02000 16.358
86.04000 18.037
86.06000 14.407
86.08000 19.216
86.10000 20.708
86.12000 23.348
86.14000 17.351
86.16000 17.178
86.18000 17.839
86.20000 20.229
86.22000 20.836
86.24000 16.981
86.26000 19.791
86.28000 18.896
86.30000 18.160
86.32000 20.542
86.34000 21.110
86.36000 19.117
86.38000 18.087
86.40000 20.134
86.42000 19.113
86.44000 18.195
86.46000 21.201
86.48000 23.874
86.50000 17.956
86.52000 16.675
86.54000 21.479
86.56000 22.598
86.58000 18.983
86.60000 18.071
86.62000 20.854
86.64000 19.344
86.66000 21.251
86.68000 21.702
86.70000 20.951
86.72000 15.414
86.74000 12.274
86.76000 16.443
86.78000 20.184
86.80000 17.695
86.82000 22.832
86.84000 23.593
86.86000 15.307
86.88000 13.197
86.90000 16.235
86.92000 13.740
86.94000 15.888
86.96000 13.583
86.98000 14.129
87.00000 14.034
87.02000 8.217
87.04000 9.073
87.06000 11.364
87.08000 11.506
87.10000 8.389
87.12000 8.742
87.14000 7.062
87.16000 6.845
87.18000 11.141
87.20000 10.203
87.22000 6.494
87.24000 7.985
87.26000 6.327
87.28000 7.357
87.30000 8.421
87.32000 2.840
87.34000 5.764
87.36000 9.858
87.38000 12.268
87.40000 10.570
87.42000 10.497
87.44000 11.687
87.46000 4.425
87.48000 3.987
87.50000 1.963
87.52000 6.676
87.54000 7.274
87.56000 8.178
87.58000 9.861
87.60000 10.147
87.62000 5.088
87.64000 5.552
87.66000 0.777
87.68000 -0.474
87.70000 3.009
87.72000 4.459
87.74000 8.970
87.76000 6.561
87.78000 3.497
87.80000 4.371
87.82000 5.651
87.84000 3.193
87.86000 2.466
87.88000 4.512
87.90000 4.461
87.92000 0.769
87.94000 2.656
87.96000 5.691
87.98000 4.935
88.00000 4.910
88.02000 2.702
88.04000 5.535
88.06000 6.332
88.08000 3.475
88.10000 4.962
88.12000 3.224
88.14000 3.606
88.16000 3.621
88.18000 3.734
88.20000 3.494
88.22000 3.130
88.24000 2.412
88.26000 2.977
88.28000 10.059
88.30000 10.019
88.32000 5.624
88.34000 0.050
88.36000 4.201
88.38000 8.137
88.40000 10.721
88.42000 7.926
88.44000 5.935
88.46000 5.088
88.48000 4.860
88.50000 5.521
88.52000 -2.127
88.54000 0.169
88.56000 3.116
88.58000 4.486
88.60000 5.825
88.62000 6.716
88.64000 7.685
88.66000 6.117
88.68000 2.610
88.70000 6.092
88.72000 9.321
88.74000 10.056
88.76000 11.139
88.78000 4.982
88.80000 5.343
88.82000 0.875
88.84000 2.183
88.86000 0.780
88.88000 1.061
88.90000 0.766
88.92000 0.588
88.94000 2.928
88.96000 6.137
88.98000 4.500
89.00000 4.163
89.02000 4.823
89.04000 7.675
89.06000 5.139
89.08000 6.961
89.10000 4.973
89.12000 1.406
89.14000 5.659
89.16000 3.047
89.18000 5.070
89.20000 5.498
89.22000 4.095
89.24000 3.486
89.26000 6.268
89.28000 1.910
89.30000 2.791
89.32000 4.065
89.34000 6.681
89.36000 9.242
89.38000 6.392
89.40000 3.618
89.42000 4.263
89.44000 3.927
89.46000 5.830
89.48000 4.335
89.50000 -0.028
89.52000 4.255
89.54000 8.770
89.56000 6.001
89.58000 3.140
89.60000 3.341
89.62000 1.686
89.64000 5.077
89.66000 4.153
89.68000 1.031
89.70000 0.499
89.72000 2.199
89.74000 3.549
89.76000 5.180
89.78000 9.112
89.80000 3.214
89.82000 5.076
89.84000 4.832
89.86000 6.007
89.88000 5.130
89.90000 6.442
89.92000 6.281
89.94000 5.936
89.96000 5.365
89.98000 4.434
90.00000 3.526
90.02000 4.093
90.04000 5.291
90.06000 4.439
90.08000 4.604
90.10000 7.545
90.12000 7.653
90.14000 -2.083
90.16000 1.661
90.18000 4.318
90.20000 6.767
90.22000 8.412
90.24000 9.507
90.26000 4.944
90.28000 4.940
90.30000 8.794
90.32000 7.206
90.34000 3.717
90.36000 0.274
90.38000 5.672
90.40000 3.393
90.42000 5.061
90.44000 5.555
90.46000 4.014
90.48000 2.905
90.50000 0.922
90.52000 2.382
90.54000 4.330
90.56000 7.515
90.58000 4.831
90.60000 2.570
90.62000 5.309
90.64000 4.409
90.66000 5.101
90.68000 7.665
90.70000 2.637
90.72000 2.751
90.74000 5.282
90.76000 9.012
90.78000 3.691
90.80000 2.843
90.82000 7.854
90.84000 5.650
90.86000 3.303
90.88000 2.054
90.90000 0.865
90.92000 3.694
90.94000 3.163
90.96000 2.615
90.98000 4.821
91.00000 7.557
91.02000 6.715
91.04000 0.900
91.06000 2.572
91.08000 4.136
91.10000 5.674
91.12000 6.434
91.14000 5.333
91.16000 3.498
91.18000 1.847
91.20000 6.427
91.22000 7.118
91.24000 5.137
91.26000 2.244
91.28000 4.572
91.30000 7.367
91.32000 3.171
91.34000 2.260
91.36000 5.256
91.38000 6.065
91.40000 3.977
91.42000 4.047
91.44000 3.295
91.46000 3.197
91.48000 5.711
91.50000 -0.079
91.52000 1.939
91.54000 -0.928
91.56000 0.333
91.58000 -1.305
91.60000 2.731
91.62000 5.053
91.64000 4.575
91.66000 4.908
91.68000 7.117
91.70000 5.632
91.72000 -2.111
91.74000 0.953
91.76000 2.163
91.78000 4.124
91.80000 4.315
91.82000 8.178
91.84000 -0.290
91.86000 0.300
91.88000 6.089
91.90000 3.935
91.92000 5.363
91.94000 6.771
91.96000 9.226
91.98000 3.845
92.00000 0.316
92.02000 -0.090
92.04000 3.172
92.06000 7.961
92.08000 8.489
92.10000 4.523
92.12000 2.713
92.14000 4.949
92.16000 5.943
92.18000 8.968
92.20000 8.747
92.22000 3.618
92.24000 0.112
92.26000 -2.111
92.28000 2.134
92.30000 6.486
92.32000 5.285
92.34000 4.457
92.36000 4.262
92.38000 7.073
92.40000 8.366
92.42000 3.013
92.44000 -0.806
92.46000 2.166
92.48000 3.013
92.50000 5.875
92.52000 8.049
92.54000 6.575
92.56000 3.534
92.58000 0.284
92.60000 -2.115
92.62000 -0.028
92.64000 5.038
92.66000 9.141
92.68000 8.717
92.70000 6.758
92.72000 1.950
92.74000 2.539
92.76000 3.763
92.78000 6.592
92.80000 2.402
92.82000 0.981
92.84000 2.233
92.86000 3.463
92.88000 3.004
92.90000 4.645
92.92000 6.510
92.94000 3.653
92.96000 1.077
92.98000 0.208
93.00000 2.139
93.02000 3.408
93.04000 2.539
93.06000 6.820
93.08000 2.777
93.10000 4.788
93.12000 5.607
93.14000 2.633
93.16000 2.997
93.18000 1.274
93.20000 2.824
93.22000 -1.957
93.24000 2.665
93.26000 7.444
93.28000 5.616
93.30000 4.800
93.32000 8.375
93.34000 3.314
93.36000 1.546
93.38000 5.611
93.40000 3.860
93.42000 -1.587
93.44000 -0.620
93.46000 0.415
93.48000 0.966
93.50000 4.194
93.52000 4.097
93.54000 0.461
93.56000 1.365
93.58000 4.214
93.60000 4.805
93.62000 2.708
93.64000 0.887
93.66000 -2.154
93.68000 0.413
93.70000 1.991
93.72000 3.413
93.74000 2.095
93.76000 -2.153
93.78000 2.152
93.80000 1.696
93.82000 4.495
93.84000 2.056
93.86000 2.776
93.88000 1.701
93.90000 3.227
93.92000 2.699
93.94000 0.920
93.96000 0.250
93.98000 3.709
94.00000 2.552
94.02000 1.705
94.04000 -2.155
94.06000 1.489
94.08000 3.423
94.10000 3.911
94.12000 7.123
94.14000 6.870
94.16000 6.683
94.18000 3.610
94.20000 3.262
94.22000 3.423
94.24000 2.468
94.26000 2.155
94.28000 2.125
94.30000 5.360
94.32000 1.521
94.34000 2.446
94.36000 1.410
94.38000 1.803
94.40000 2.166
94.42000 2.747
94.44000 3.096
94.46000 -2.146
94.48000 -1.797
94.50000 0.674
94.52000 4.858
94.54000 6.314
94.56000 0.009
94.58000 0.188
94.60000 -0.663
94.62000 2.740
94.64000 0.398
94.66000 -1.566
94.68000 2.472
94.70000 3.723
94.72000 2.987
94.74000 1.887
94.76000 8.215
94.78000 7.975
94.80000 6.907
94.82000 4.572
94.84000 7.482
94.86000 3.406
94.88000 2.365
94.90000 5.302
94.92000 6.965
94.94000 1.743
94.96000 4.081
94.98000 4.686
95.00000 4.740
95.02000 1.043
95.04000 -2.148
95.06000 1.167
95.08000 2.522
95.10000 -0.200
95.12000 1.092
95.14000 2.711
95.16000 -0.377
95.18000 2.755
95.20000 1.390
95.22000 3.484
95.24000 5.124
95.26000 0.550
95.28000 2.839
95.30000 9.397
95.32000 6.685
95.34000 1.957
95.36000 2.662
95.38000 5.770
95.40000 2.623
95.42000 -1.739
95.44000 -1.250
95.46000 -1.519
95.48000 4.827
95.50000 2.330
95.52000 6.854
95.54000 4.648
95.56000 7.189
95.58000 7.772
95.60000 5.729
95.62000 7.329
95.64000 4.564
95.66000 9.050
95.68000 9.298
95.70000 3.017
95.72000 0.404
95.74000 3.848
95.76000 5.345
95.78000 1.448
95.80000 2.068
95.82000 -0.213
95.84000 9.287
95.86000 11.883
95.88000 4.154
95.90000 4.065
95.92000 7.385
95.94000 5.830
95.96000 5.820
95.98000 2.469
96.00000 4.392
96.02000 5.041
96.04000 3.586
96.06000 2.722
96.08000 3.328
96.10000 5.107
96.12000 7.313
96.14000 9.759
96.16000 7.419
96.18000 2.862
96.20000 1.019
96.22000 2.795
96.24000 4.238
96.26000 9.579
96.28000 10.034
96.30000 5.883
96.32000 6.100
96.34000 6.795
96.36000 6.483
96.38000 4.265
96.40000 -2.343
96.42000 6.339
96.44000 8.759
96.46000 3.087
96.48000 2.601
96.50000 7.691
96.52000 11.415
96.54000 4.951
96.56000 2.915
96.58000 5.390
96.60000 8.789
96.62000 7.704
96.64000 6.623
96.66000 6.805
96.68000 2.216
96.70000 11.127
96.72000 12.154
96.74000 4.469
96.76000 6.417
96.78000 8.511
96.80000 5.051
96.82000 1.923
96.84000 1.740
96.86000 3.760
96.88000 8.163
96.90000 10.879
96.92000 7.393
96.94000 3.090
96.96000 -1.520
96.98000 0.335
97.00000 2.706
97.02000 8.507
97.04000 10.633
97.06000 6.686
97.08000 2.872
97.10000 3.306
97.12000 1.974
97.14000 0.467
97.16000 -1.342
97.18000 1.347
97.20000 3.983
97.22000 5.795
97.24000 4.195
97.26000 4.888
97.28000 2.508
97.30000 1.511
97.32000 0.867
97.34000 -2.084
97.36000 4.392
97.38000 7.012
97.40000 9.630
97.42000 5.069
97.44000 4.709
97.46000 -2.049
97.48000 1.187
97.50000 0.622
97.52000 5.464
97.54000 10.892
97.56000 5.819
97.58000 5.845
97.60000 7.553
97.62000 4.434
97.64000 3.887
97.66000 2.955
97.68000 6.425
97.70000 5.019
97.72000 11.328
97.74000 7.194
97.76000 4.884
97.78000 6.680
97.80000 8.918
97.82000 7.569
97.84000 7.175
97.86000 3.065
97.88000 9.144
97.90000 5.329
97.92000 -1.176
97.94000 4.244
97.96000 7.122
97.98000 3.386
98.00000 4.323
98.02000 9.329
98.04000 12.368
98.06000 10.446
98.08000 16.667
98.10000 14.023
98.12000 10.338
98.14000 8.046
98.16000 6.757
98.18000 11.124
98.20000 11.546
98.22000 12.401
98.24000 8.670
98.26000 11.927
98.28000 7.733
98.30000 11.677
98.32000 9.348
98.34000 8.215
98.36000 3.254
98.38000 -3.371
98.40000 6.991
98.42000 7.990
98.44000 8.340
98.46000 13.211
98.48000 8.451
98.50000 5.121
98.52000 6.095
98.54000 11.134
98.56000 10.491
98.58000 6.656
98.60000 13.021
98.62000 8.199
98.64000 3.592
98.66000 4.394
98.68000 3.987
98.70000 10.156
98.72000 7.478
98.74000 1.857
98.76000 3.665
98.78000 11.668
98.80000 6.967
98.82000 6.415
98.84000 11.215
98.86000 16.158
98.88000 10.063
98.90000 11.226
98.92000 11.990
98.94000 11.654
98.96000 5.362
98.98000 0.407
99.00000 7.375
99.02000 10.384
99.04000 8.566
99.06000 9.461
99.08000 7.088
99.10000 12.661
99.12000 7.376
99.14000 4.593
99.16000 4.997
99.18000 5.383
99.20000 11.469
99.22000 7.789
99.24000 -2.628
99.26000 5.899
99.28000 7.142
99.30000 13.714
99.32000 11.124
99.34000 10.530
99.36000 5.157
99.38000 8.852
99.40000 12.854
99.42000 6.786
99.44000 -1.735
99.46000 4.271
99.48000 10.951
99.50000 12.407
99.52000 3.569
99.54000 5.537
99.56000 -2.116
99.58000 4.107
99.60000 8.324
99.62000 7.349
99.64000 -1.252
99.66000 -1.140
99.68000 6.808
99.70000 8.971
99.72000 4.389
99.74000 9.170
99.76000 2.294
99.78000 7.465
99.80000 7.665
99.82000 2.420
99.84000 -2.161
99.86000 -2.102
99.88000 -2.223
99.90000 2.349
99.92000 1.368
99.94000 -2.316
99.96000 0.448
99.98000 0.000
