'Id: "0011387" Comment: "Integrate frame 0011387_Au-Ir-Rh_Rh-rich_XRD-Mapping-254-0000.gfrmwith cursor Wedge Cursor #5" Operator: "B?rgel" Anode: "Cu" Wavelength: "1.5406" Scantype: "2Theta (TwoTheta)" TimePerStep: "1" X: "18" Y: "18" Z: "5.95" 
10.00000 0.000
10.02000 0.400
10.04000 -3.706
10.06000 5.855
10.08000 16.344
10.10000 22.847
10.12000 22.285
10.14000 14.629
10.16000 4.773
10.18000 9.862
10.20000 19.136
10.22000 34.006
10.24000 22.300
10.26000 22.323
10.28000 16.946
10.30000 27.473
10.32000 36.847
10.34000 33.359
10.36000 14.781
10.38000 9.085
10.40000 19.109
10.42000 32.770
10.44000 23.342
10.46000 14.807
10.48000 26.383
10.50000 23.141
10.52000 11.711
10.54000 21.173
10.56000 26.349
10.58000 22.797
10.60000 21.023
10.62000 31.604
10.64000 22.429
10.66000 17.561
10.68000 14.489
10.70000 16.272
10.72000 21.912
10.74000 19.677
10.76000 18.160
10.78000 27.677
10.80000 22.231
10.82000 15.827
10.84000 19.987
10.86000 10.886
10.88000 22.240
10.90000 27.780
10.92000 25.406
10.94000 29.838
10.96000 24.749
10.98000 23.824
11.00000 19.347
11.02000 14.251
11.04000 19.958
11.06000 22.973
11.08000 29.951
11.10000 29.754
11.12000 31.837
11.14000 22.464
11.16000 24.386
11.18000 17.959
11.20000 5.638
11.22000 11.527
11.24000 24.247
11.26000 21.314
11.28000 28.494
11.30000 23.939
11.32000 21.320
11.34000 28.963
11.36000 22.963
11.38000 16.006
11.40000 22.160
11.42000 22.602
11.44000 13.499
11.46000 15.227
11.48000 24.049
11.50000 28.392
11.52000 34.142
11.54000 26.529
11.56000 25.501
11.58000 28.842
11.60000 20.620
11.62000 17.924
11.64000 17.047
11.66000 23.215
11.68000 23.338
11.70000 23.080
11.72000 29.392
11.74000 26.039
11.76000 29.989
11.78000 25.977
11.80000 24.410
11.82000 30.751
11.84000 19.081
11.86000 19.975
11.88000 22.835
11.90000 22.573
11.92000 32.930
11.94000 15.119
11.96000 12.475
11.98000 22.499
12.00000 27.412
12.02000 24.663
12.04000 37.372
12.06000 24.136
12.08000 17.344
12.10000 23.788
12.12000 15.768
12.14000 28.698
12.16000 31.520
12.18000 28.935
12.20000 26.344
12.22000 30.664
12.24000 34.159
12.26000 22.475
12.28000 29.116
12.30000 24.482
12.32000 19.154
12.34000 27.657
12.36000 27.093
12.38000 25.154
12.40000 29.741
12.42000 43.037
12.44000 37.933
12.46000 30.508
12.48000 35.668
12.50000 27.109
12.52000 32.390
12.54000 21.679
12.56000 26.956
12.58000 28.288
12.60000 24.998
12.62000 31.922
12.64000 34.575
12.66000 26.564
12.68000 24.247
12.70000 29.001
12.72000 24.278
12.74000 24.002
12.76000 26.723
12.78000 24.381
12.80000 31.884
12.82000 19.641
12.84000 27.547
12.86000 36.443
12.88000 34.556
12.90000 33.183
12.92000 26.143
12.94000 18.292
12.96000 22.973
12.98000 32.763
13.00000 29.463
13.02000 23.038
13.04000 21.590
13.06000 21.465
13.08000 23.092
13.10000 38.834
13.12000 30.150
13.14000 21.891
13.16000 19.969
13.18000 21.249
13.20000 25.849
13.22000 32.821
13.24000 32.240
13.26000 17.713
13.28000 19.226
13.30000 17.390
13.32000 22.409
13.34000 24.650
13.36000 22.698
13.38000 21.316
13.40000 30.095
13.42000 25.577
13.44000 20.445
13.46000 15.172
13.48000 11.011
13.50000 9.205
13.52000 13.250
13.54000 19.216
13.56000 29.201
13.58000 23.075
13.60000 20.239
13.62000 16.579
13.64000 20.942
13.66000 25.825
13.68000 19.343
13.70000 12.670
13.72000 11.864
13.74000 20.861
13.76000 22.407
13.78000 16.567
13.80000 23.006
13.82000 25.721
13.84000 20.915
13.86000 21.360
13.88000 25.091
13.90000 26.665
13.92000 22.081
13.94000 19.789
13.96000 19.674
13.98000 16.603
14.00000 15.974
14.02000 18.263
14.04000 18.804
14.06000 20.230
14.08000 17.826
14.10000 23.356
14.12000 34.844
14.14000 30.373
14.16000 14.266
14.18000 15.439
14.20000 20.042
14.22000 21.934
14.24000 22.907
14.26000 20.176
14.28000 21.079
14.30000 22.795
14.32000 19.691
14.34000 22.860
14.36000 19.318
14.38000 19.578
14.40000 21.586
14.42000 6.891
14.44000 11.717
14.46000 14.269
14.48000 17.745
14.50000 18.148
14.52000 16.641
14.54000 17.318
14.56000 17.844
14.58000 15.777
14.60000 11.988
14.62000 15.894
14.64000 18.136
14.66000 10.471
14.68000 21.290
14.70000 15.753
14.72000 5.608
14.74000 4.719
14.76000 5.851
14.78000 12.704
14.80000 11.406
14.82000 4.878
14.84000 4.556
14.86000 21.891
14.88000 22.670
14.90000 16.972
14.92000 5.045
14.94000 11.207
14.96000 9.170
14.98000 13.124
15.00000 17.256
15.02000 11.565
15.04000 8.799
15.06000 14.540
15.08000 8.298
15.10000 11.106
15.12000 18.777
15.14000 15.893
15.16000 14.427
15.18000 20.956
15.20000 16.851
15.22000 14.135
15.24000 15.927
15.26000 21.068
15.28000 21.000
15.30000 13.458
15.32000 8.068
15.34000 11.457
15.36000 5.594
15.38000 10.312
15.40000 11.648
15.42000 9.900
15.44000 13.195
15.46000 7.360
15.48000 4.813
15.50000 10.522
15.52000 10.191
15.54000 9.936
15.56000 12.384
15.58000 9.073
15.60000 15.026
15.62000 10.640
15.64000 16.544
15.66000 13.220
15.68000 11.464
15.70000 11.833
15.72000 9.337
15.74000 12.459
15.76000 10.931
15.78000 11.634
15.80000 2.476
15.82000 2.500
15.84000 4.805
15.86000 14.547
15.88000 16.588
15.90000 8.280
15.92000 6.996
15.94000 4.129
15.96000 2.912
15.98000 8.697
16.00000 5.505
16.02000 4.944
16.04000 3.932
16.06000 6.999
16.08000 6.028
16.10000 12.573
16.12000 12.015
16.14000 1.299
16.16000 -4.422
16.18000 0.811
16.20000 9.759
16.22000 12.553
16.24000 1.759
16.26000 4.308
16.28000 5.540
16.30000 10.452
16.32000 19.509
16.34000 20.724
16.36000 8.796
16.38000 6.373
16.40000 2.181
16.42000 1.885
16.44000 9.651
16.46000 6.527
16.48000 0.178
16.50000 -1.974
16.52000 4.019
16.54000 8.227
16.56000 5.874
16.58000 1.693
16.60000 4.162
16.62000 0.809
16.64000 -3.083
16.66000 3.799
16.68000 6.284
16.70000 5.988
16.72000 8.061
16.74000 12.860
16.76000 10.041
16.78000 -0.871
16.80000 0.239
16.82000 5.301
16.84000 7.294
16.86000 4.550
16.88000 6.356
16.90000 5.118
16.92000 5.492
16.94000 3.779
16.96000 -0.393
16.98000 0.315
17.00000 3.534
17.02000 4.783
17.04000 2.142
17.06000 6.407
17.08000 5.088
17.10000 4.728
17.12000 8.852
17.14000 9.270
17.16000 8.473
17.18000 4.530
17.20000 3.489
17.22000 6.199
17.24000 5.932
17.26000 13.635
17.28000 10.297
17.30000 10.974
17.32000 7.714
17.34000 0.376
17.36000 5.665
17.38000 11.590
17.40000 9.769
17.42000 2.466
17.44000 0.856
17.46000 1.523
17.48000 6.542
17.50000 18.298
17.52000 14.333
17.54000 15.143
17.56000 8.043
17.58000 1.248
17.60000 14.114
17.62000 5.514
17.64000 5.361
17.66000 10.532
17.68000 7.887
17.70000 8.075
17.72000 9.848
17.74000 12.441
17.76000 7.137
17.78000 -4.036
17.80000 2.772
17.82000 12.724
17.84000 17.254
17.86000 17.980
17.88000 14.109
17.90000 11.855
17.92000 4.790
17.94000 3.284
17.96000 2.002
17.98000 3.297
18.00000 8.525
18.02000 7.907
18.04000 6.180
18.06000 2.421
18.08000 3.194
18.10000 0.875
18.12000 0.697
18.14000 0.040
18.16000 -4.345
18.18000 2.497
18.20000 7.291
18.22000 2.546
18.24000 2.729
18.26000 5.789
18.28000 6.834
18.30000 12.282
18.32000 11.591
18.34000 9.657
18.36000 2.428
18.38000 1.130
18.40000 2.991
18.42000 0.809
18.44000 7.649
18.46000 10.143
18.48000 9.711
18.50000 5.360
18.52000 1.985
18.54000 2.320
18.56000 -2.417
18.58000 -3.404
18.60000 3.723
18.62000 7.223
18.64000 9.108
18.66000 6.670
18.68000 7.124
18.70000 3.247
18.72000 -2.599
18.74000 2.640
18.76000 13.861
18.78000 14.503
18.80000 4.652
18.82000 5.248
18.84000 3.607
18.86000 -4.292
18.88000 2.006
18.90000 7.564
18.92000 3.871
18.94000 4.952
18.96000 7.522
18.98000 7.398
19.00000 1.963
19.02000 3.730
19.04000 7.327
19.06000 5.709
19.08000 2.034
19.10000 0.006
19.12000 -1.391
19.14000 -1.639
19.16000 4.349
19.18000 2.819
19.20000 7.807
19.22000 8.392
19.24000 1.413
19.26000 6.049
19.28000 10.344
19.30000 9.712
19.32000 9.681
19.34000 10.015
19.36000 3.463
19.38000 4.658
19.40000 -1.939
19.42000 -3.089
19.44000 -0.579
19.46000 2.422
19.48000 5.593
19.50000 3.740
19.52000 5.435
19.54000 6.767
19.56000 5.641
19.58000 5.608
19.60000 4.099
19.62000 -1.078
19.64000 -0.489
19.66000 7.168
19.68000 5.950
19.70000 5.207
19.72000 1.888
19.74000 -1.366
19.76000 0.075
19.78000 9.018
19.80000 7.509
19.82000 2.906
19.84000 1.153
19.86000 6.382
19.88000 5.727
19.90000 5.560
19.92000 10.565
19.94000 8.844
19.96000 7.567
19.98000 3.486
20.00000 -4.238
20.02000 3.168
20.04000 5.643
20.06000 9.541
20.08000 5.536
20.10000 -0.207
20.12000 7.260
20.14000 8.312
20.16000 8.309
20.18000 4.581
20.20000 0.655
20.22000 -0.102
20.24000 5.722
20.26000 4.700
20.28000 5.735
20.30000 9.206
20.32000 8.532
20.34000 6.228
20.36000 7.144
20.38000 13.292
20.40000 16.290
20.42000 6.993
20.44000 -1.061
20.46000 -4.208
20.48000 -1.730
20.50000 -0.031
20.52000 5.743
20.54000 3.460
20.56000 2.127
20.58000 6.098
20.60000 10.866
20.62000 11.488
20.64000 11.012
20.66000 10.978
20.68000 4.120
20.70000 -0.038
20.72000 3.711
20.74000 3.978
20.76000 4.236
20.78000 2.845
20.80000 4.370
20.82000 4.474
20.84000 1.199
20.86000 1.528
20.88000 -1.152
20.90000 -4.134
20.92000 -1.385
20.94000 1.166
20.96000 10.627
20.98000 13.489
21.00000 6.386
21.02000 7.244
21.04000 7.968
21.06000 5.623
21.08000 4.440
21.10000 1.964
21.12000 6.783
21.14000 13.714
21.16000 6.201
21.18000 4.093
21.20000 5.458
21.22000 12.618
21.24000 8.344
21.26000 6.263
21.28000 -1.724
21.30000 0.870
21.32000 -1.893
21.34000 -2.854
21.36000 0.937
21.38000 5.211
21.40000 5.002
21.42000 3.219
21.44000 8.366
21.46000 12.571
21.48000 4.021
21.50000 -0.173
21.52000 5.905
21.54000 1.379
21.56000 -4.148
21.58000 -2.615
21.60000 0.674
21.62000 0.590
21.64000 3.644
21.66000 4.502
21.68000 2.969
21.70000 2.095
21.72000 0.787
21.74000 2.598
21.76000 4.874
21.78000 1.793
21.80000 -0.584
21.82000 -2.398
21.84000 2.568
21.86000 7.908
21.88000 7.116
21.90000 3.445
21.92000 5.881
21.94000 6.335
21.96000 7.346
21.98000 6.790
22.00000 2.878
22.02000 0.725
22.04000 5.847
22.06000 8.832
22.08000 3.076
22.10000 -0.143
22.12000 -4.130
22.14000 -1.137
22.16000 6.191
22.18000 5.529
22.20000 4.145
22.22000 3.671
22.24000 8.348
22.26000 6.596
22.28000 3.700
22.30000 2.891
22.32000 -0.475
22.34000 6.600
22.36000 6.115
22.38000 2.084
22.40000 -4.116
22.42000 2.396
22.44000 9.021
22.46000 5.157
22.48000 2.705
22.50000 6.072
22.52000 3.705
22.54000 -0.983
22.56000 0.922
22.58000 2.504
22.60000 9.810
22.62000 6.340
22.64000 -3.497
22.66000 -3.193
22.68000 4.533
22.70000 10.922
22.72000 2.151
22.74000 2.682
22.76000 0.596
22.78000 -1.567
22.80000 -1.573
22.82000 1.706
22.84000 5.567
22.86000 4.849
22.88000 2.676
22.90000 3.032
22.92000 8.067
22.94000 8.301
22.96000 10.555
22.98000 7.083
23.00000 3.941
23.02000 2.680
23.04000 3.854
23.06000 0.077
23.08000 3.510
23.10000 2.534
23.12000 7.048
23.14000 5.960
23.16000 4.787
23.18000 6.414
23.20000 4.105
23.22000 2.264
23.24000 2.730
23.26000 1.576
23.28000 0.903
23.30000 2.102
23.32000 -2.803
23.34000 -2.074
23.36000 2.614
23.38000 6.353
23.40000 2.976
23.42000 -0.301
23.44000 10.501
23.46000 8.009
23.48000 -0.283
23.50000 2.408
23.52000 -0.553
23.54000 2.628
23.56000 5.994
23.58000 6.040
23.60000 10.939
23.62000 8.456
23.64000 6.783
23.66000 3.977
23.68000 5.392
23.70000 3.654
23.72000 3.425
23.74000 8.945
23.76000 0.564
23.78000 -4.022
23.80000 -2.386
23.82000 2.252
23.84000 5.318
23.86000 5.669
23.88000 4.186
23.90000 -1.408
23.92000 -2.770
23.94000 -0.885
23.96000 0.619
23.98000 4.027
24.00000 3.800
24.02000 3.461
24.04000 7.812
24.06000 5.064
24.08000 -2.753
24.10000 -2.561
24.12000 0.032
24.14000 -4.007
24.16000 -0.064
24.18000 0.207
24.20000 -0.758
24.22000 6.106
24.24000 2.121
24.26000 -0.291
24.28000 1.121
24.30000 2.602
24.32000 -0.137
24.34000 -4.000
24.36000 -1.873
24.38000 0.520
24.40000 4.282
24.42000 3.127
24.44000 3.243
24.46000 -0.815
24.48000 -1.686
24.50000 3.040
24.52000 10.091
24.54000 6.938
24.56000 6.884
24.58000 6.973
24.60000 3.019
24.62000 1.002
24.64000 -0.463
24.66000 1.624
24.68000 8.036
24.70000 6.608
24.72000 3.185
24.74000 3.926
24.76000 3.078
24.78000 2.124
24.80000 6.444
24.82000 7.515
24.84000 5.377
24.86000 1.179
24.88000 -0.036
24.90000 -0.021
24.92000 -0.349
24.94000 3.139
24.96000 9.124
24.98000 2.686
25.00000 -2.380
25.02000 -2.128
25.04000 0.707
25.06000 3.577
25.08000 1.114
25.10000 -1.290
25.12000 -3.969
25.14000 -0.953
25.16000 3.696
25.18000 0.254
25.20000 1.775
25.22000 1.044
25.24000 5.172
25.26000 2.025
25.28000 1.397
25.30000 1.816
25.32000 2.587
25.34000 -2.429
25.36000 -3.960
25.38000 -1.387
25.40000 -3.375
25.42000 2.216
25.44000 4.707
25.46000 1.980
25.48000 -1.142
25.50000 -2.843
25.52000 0.160
25.54000 7.544
25.56000 3.239
25.58000 6.639
25.60000 3.430
25.62000 4.814
25.64000 4.595
25.66000 -0.168
25.68000 0.688
25.70000 -1.885
25.72000 1.330
25.74000 4.334
25.76000 4.208
25.78000 -0.610
25.80000 0.241
25.82000 1.277
25.84000 -0.467
25.86000 0.653
25.88000 2.400
25.90000 2.437
25.92000 -1.064
25.94000 0.465
25.96000 3.194
25.98000 0.990
26.00000 2.365
26.02000 0.951
26.04000 4.931
26.06000 0.785
26.08000 -2.423
26.10000 1.146
26.12000 3.528
26.14000 6.932
26.16000 7.548
26.18000 7.378
26.20000 6.743
26.22000 2.439
26.24000 -0.039
26.26000 1.531
26.28000 2.196
26.30000 4.273
26.32000 -0.113
26.34000 0.655
26.36000 1.330
26.38000 3.370
26.40000 2.282
26.42000 -3.074
26.44000 -0.110
26.46000 3.697
26.48000 1.464
26.50000 2.585
26.52000 6.548
26.54000 5.212
26.56000 4.573
26.58000 6.939
26.60000 1.161
26.62000 1.720
26.64000 3.203
26.66000 2.359
26.68000 2.148
26.70000 3.656
26.72000 9.366
26.74000 6.412
26.76000 3.443
26.78000 3.280
26.80000 5.890
26.82000 8.004
26.84000 1.810
26.86000 -1.928
26.88000 -0.713
26.90000 -1.069
26.92000 -0.257
26.94000 0.434
26.96000 -3.856
26.98000 3.209
27.00000 6.739
27.02000 4.747
27.04000 4.323
27.06000 2.696
27.08000 4.151
27.10000 4.155
27.12000 -2.375
27.14000 -0.971
27.16000 -3.849
27.18000 -1.432
27.20000 2.468
27.22000 -0.401
27.24000 4.140
27.26000 1.122
27.28000 7.531
27.30000 10.255
27.32000 6.728
27.34000 3.200
27.36000 4.822
27.38000 3.516
27.40000 2.645
27.42000 4.472
27.44000 3.603
27.46000 4.150
27.48000 2.464
27.50000 4.192
27.52000 -3.583
27.54000 -1.275
27.56000 -0.309
27.58000 5.939
27.60000 3.699
27.62000 2.255
27.64000 4.981
27.66000 3.735
27.68000 1.368
27.70000 2.893
27.72000 4.041
27.74000 0.560
27.76000 1.754
27.78000 4.306
27.80000 10.169
27.82000 6.717
27.84000 3.065
27.86000 4.322
27.88000 0.826
27.90000 -2.802
27.92000 -3.814
27.94000 -0.871
27.96000 2.255
27.98000 7.671
28.00000 3.637
28.02000 1.874
28.04000 1.261
28.06000 6.388
28.08000 3.811
28.10000 2.034
28.12000 -2.606
28.14000 -0.048
28.16000 7.176
28.18000 4.570
28.20000 6.691
28.22000 3.509
28.24000 -2.771
28.26000 3.254
28.28000 4.014
28.30000 4.909
28.32000 1.372
28.34000 0.169
28.36000 0.399
28.38000 2.152
28.40000 4.617
28.42000 2.574
28.44000 -0.730
28.46000 4.001
28.48000 4.485
28.50000 4.603
28.52000 -2.774
28.54000 1.325
28.56000 2.886
28.58000 2.453
28.60000 -3.774
28.62000 -2.267
28.64000 4.049
28.66000 6.299
28.68000 4.467
28.70000 1.632
28.72000 1.843
28.74000 1.437
28.76000 2.508
28.78000 0.458
28.80000 0.578
28.82000 3.148
28.84000 2.784
28.86000 6.949
28.88000 4.668
28.90000 6.572
28.92000 1.440
28.94000 -1.068
28.96000 1.621
28.98000 1.340
29.00000 0.716
29.02000 4.228
29.04000 2.687
29.06000 -1.971
29.08000 -1.179
29.10000 5.172
29.12000 0.950
29.14000 -3.742
29.16000 -3.170
29.18000 -2.477
29.20000 -1.496
29.22000 6.883
29.24000 6.369
29.26000 4.542
29.28000 7.093
29.30000 0.614
29.32000 1.004
29.34000 3.288
29.36000 4.810
29.38000 1.407
29.40000 0.600
29.42000 0.735
29.44000 0.386
29.46000 1.471
29.48000 -2.980
29.50000 1.219
29.52000 -0.020
29.54000 0.195
29.56000 3.562
29.58000 3.713
29.60000 1.221
29.62000 2.675
29.64000 -0.852
29.66000 -2.471
29.68000 3.239
29.70000 7.530
29.72000 4.248
29.74000 1.592
29.76000 -0.491
29.78000 2.892
29.80000 3.744
29.82000 5.462
29.84000 -0.028
29.86000 -2.405
29.88000 -2.226
29.90000 0.975
29.92000 -0.339
29.94000 -3.696
29.96000 1.976
29.98000 3.695
30.00000 1.955
30.02000 -2.499
30.04000 -0.191
30.06000 0.186
30.08000 -1.036
30.10000 0.009
30.12000 -1.586
30.14000 -0.810
30.16000 -3.693
30.18000 -3.125
30.20000 3.965
30.22000 2.770
30.24000 4.047
30.26000 6.054
30.28000 3.988
30.30000 0.654
30.32000 1.088
30.34000 10.341
30.36000 7.031
30.38000 3.477
30.40000 -2.441
30.42000 1.719
30.44000 4.928
30.46000 -1.456
30.48000 -1.251
30.50000 1.759
30.52000 0.459
30.54000 -0.221
30.56000 0.008
30.58000 -1.649
30.60000 -1.445
30.62000 -2.026
30.64000 0.630
30.66000 1.714
30.68000 -3.309
30.70000 1.698
30.72000 6.172
30.74000 2.079
30.76000 2.921
30.78000 1.091
30.80000 1.116
30.82000 3.769
30.84000 4.164
30.86000 4.779
30.88000 0.656
30.90000 -1.187
30.92000 3.336
30.94000 4.913
30.96000 4.173
30.98000 -3.661
31.00000 -2.044
31.02000 0.929
31.04000 3.867
31.06000 5.615
31.08000 1.896
31.10000 6.171
31.12000 5.393
31.14000 6.155
31.16000 4.448
31.18000 -1.198
31.20000 4.307
31.22000 2.281
31.24000 1.027
31.26000 1.860
31.28000 6.306
31.30000 1.041
31.32000 -0.232
31.34000 6.433
31.36000 5.867
31.38000 5.382
31.40000 1.899
31.42000 2.681
31.44000 5.976
31.46000 8.081
31.48000 7.713
31.50000 0.948
31.52000 3.963
31.54000 8.255
31.56000 7.166
31.58000 5.726
31.60000 5.090
31.62000 1.560
31.64000 1.397
31.66000 0.417
31.68000 -0.014
31.70000 2.835
31.72000 7.321
31.74000 0.558
31.76000 -1.336
31.78000 1.999
31.80000 0.933
31.82000 1.817
31.84000 3.136
31.86000 -0.433
31.88000 2.559
31.90000 3.364
31.92000 2.884
31.94000 -0.148
31.96000 -3.591
31.98000 -1.163
32.00000 3.140
32.02000 3.153
32.04000 4.097
32.06000 4.972
32.08000 3.415
32.10000 8.282
32.12000 2.613
32.14000 1.111
32.16000 2.962
32.18000 5.923
32.20000 6.585
32.22000 0.140
32.24000 0.242
32.26000 4.881
32.28000 0.551
32.30000 1.378
32.32000 7.983
32.34000 4.640
32.36000 5.197
32.38000 4.626
32.40000 3.514
32.42000 0.443
32.44000 1.516
32.46000 -0.345
32.48000 1.071
32.50000 3.455
32.52000 3.502
32.54000 5.405
32.56000 6.177
32.58000 6.101
32.60000 2.382
32.62000 5.908
32.64000 2.407
32.66000 0.993
32.68000 3.863
32.70000 5.735
32.72000 6.090
32.74000 6.244
32.76000 5.123
32.78000 6.587
32.80000 4.520
32.82000 1.339
32.84000 1.668
32.86000 2.100
32.88000 1.919
32.90000 1.596
32.92000 0.952
32.94000 3.411
32.96000 7.580
32.98000 4.591
33.00000 1.543
33.02000 0.601
33.04000 -1.698
33.06000 -1.166
33.08000 4.282
33.10000 5.948
33.12000 0.841
33.14000 3.369
33.16000 4.970
33.18000 3.006
33.20000 5.147
33.22000 3.439
33.24000 3.009
33.26000 0.150
33.28000 -0.026
33.30000 3.118
33.32000 7.990
33.34000 4.945
33.36000 4.169
33.38000 1.631
33.40000 -2.412
33.42000 -3.559
33.44000 -0.299
33.46000 1.043
33.48000 3.262
33.50000 0.309
33.52000 2.540
33.54000 6.617
33.56000 3.579
33.58000 6.012
33.60000 7.516
33.62000 12.161
33.64000 6.005
33.66000 2.186
33.68000 5.097
33.70000 3.020
33.72000 1.546
33.74000 1.325
33.76000 5.533
33.78000 4.593
33.80000 5.631
33.82000 1.217
33.84000 3.220
33.86000 11.721
33.88000 8.043
33.90000 5.574
33.92000 0.341
33.94000 0.695
33.96000 0.642
33.98000 1.084
34.00000 3.854
34.02000 -0.717
34.04000 8.513
34.06000 9.362
34.08000 4.255
34.10000 5.499
34.12000 3.603
34.14000 3.086
34.16000 6.431
34.18000 1.132
34.20000 2.464
34.22000 -1.088
34.24000 0.156
34.26000 4.086
34.28000 -0.540
34.30000 5.282
34.32000 13.286
34.34000 5.165
34.36000 -0.590
34.38000 8.433
34.40000 2.240
34.42000 -0.705
34.44000 1.039
34.46000 0.605
34.48000 0.949
34.50000 1.769
34.52000 3.486
34.54000 0.738
34.56000 1.698
34.58000 0.917
34.60000 -1.318
34.62000 -0.571
34.64000 0.636
34.66000 3.652
34.68000 5.747
34.70000 5.588
34.72000 7.421
34.74000 4.935
34.76000 2.471
34.78000 -0.120
34.80000 2.306
34.82000 4.323
34.84000 4.503
34.86000 1.211
34.88000 1.947
34.90000 2.798
34.92000 4.520
34.94000 -2.713
34.96000 -3.537
34.98000 1.862
35.00000 1.307
35.02000 2.342
35.04000 -1.377
35.06000 3.435
35.08000 4.826
35.10000 1.377
35.12000 3.005
35.14000 0.350
35.16000 -2.903
35.18000 0.222
35.20000 2.024
35.22000 2.951
35.24000 2.712
35.26000 -0.957
35.28000 1.234
35.30000 -1.083
35.32000 -2.878
35.34000 1.888
35.36000 0.386
35.38000 0.599
35.40000 1.265
35.42000 4.252
35.44000 1.855
35.46000 2.240
35.48000 2.025
35.50000 -3.326
35.52000 -3.253
35.54000 1.965
35.56000 -0.491
35.58000 -0.098
35.60000 -0.447
35.62000 6.820
35.64000 9.677
35.66000 7.664
35.68000 3.941
35.70000 -0.117
35.72000 0.903
35.74000 6.388
35.76000 1.558
35.78000 -1.847
35.80000 -1.000
35.82000 -2.879
35.84000 1.674
35.86000 2.523
35.88000 2.611
35.90000 5.954
35.92000 1.664
35.94000 3.679
35.96000 3.633
35.98000 2.070
36.00000 -0.562
36.02000 -3.013
36.04000 -3.538
36.06000 -0.181
36.08000 2.262
36.10000 5.625
36.12000 7.382
36.14000 0.927
36.16000 -0.447
36.18000 0.135
36.20000 -1.773
36.22000 -0.969
36.24000 4.296
36.26000 3.699
36.28000 5.724
36.30000 6.409
36.32000 5.987
36.34000 2.200
36.36000 -3.530
36.38000 -2.682
36.40000 11.039
36.42000 6.282
36.44000 3.171
36.46000 6.121
36.48000 4.295
36.50000 0.939
36.52000 0.689
36.54000 0.702
36.56000 -0.050
36.58000 -0.135
36.60000 0.676
36.62000 -1.119
36.64000 2.158
36.66000 3.906
36.68000 -0.872
36.70000 -2.746
36.72000 1.866
36.74000 2.953
36.76000 3.273
36.78000 1.080
36.80000 2.273
36.82000 5.071
36.84000 4.412
36.86000 2.883
36.88000 -1.139
36.90000 0.407
36.92000 -3.181
36.94000 -0.549
36.96000 0.761
36.98000 2.558
37.00000 2.998
37.02000 -1.950
37.04000 -2.123
37.06000 3.353
37.08000 -0.084
37.10000 -0.414
37.12000 -0.491
37.14000 0.198
37.16000 -3.583
37.18000 0.021
37.20000 -0.438
37.22000 -1.011
37.24000 -1.232
37.26000 -2.578
37.28000 -2.408
37.30000 -1.262
37.32000 1.175
37.34000 -0.276
37.36000 -1.525
37.38000 2.316
37.40000 1.901
37.42000 -1.331
37.44000 -0.508
37.46000 -1.728
37.48000 -3.110
37.50000 0.927
37.52000 -0.199
37.54000 -1.506
37.56000 -3.545
37.58000 0.859
37.60000 2.020
37.62000 0.684
37.64000 3.275
37.66000 -0.981
37.68000 -0.818
37.70000 2.903
37.72000 8.405
37.74000 9.029
37.76000 6.308
37.78000 2.681
37.80000 5.179
37.82000 7.771
37.84000 5.963
37.86000 3.895
37.88000 6.405
37.90000 5.039
37.92000 3.933
37.94000 7.517
37.96000 5.808
37.98000 4.351
38.00000 5.504
38.02000 2.880
38.04000 6.866
38.06000 9.562
38.08000 6.961
38.10000 7.559
38.12000 10.908
38.14000 12.518
38.16000 13.716
38.18000 10.841
38.20000 9.942
38.22000 9.348
38.24000 11.375
38.26000 15.998
38.28000 17.364
38.30000 13.077
38.32000 13.911
38.34000 18.398
38.36000 19.014
38.38000 16.658
38.40000 15.102
38.42000 15.682
38.44000 20.927
38.46000 24.253
38.48000 26.179
38.50000 21.858
38.52000 23.893
38.54000 22.097
38.56000 22.095
38.58000 20.589
38.60000 21.994
38.62000 28.347
38.64000 25.592
38.66000 20.568
38.68000 18.204
38.70000 20.953
38.72000 25.668
38.74000 29.069
38.76000 29.793
38.78000 31.434
38.80000 29.110
38.82000 32.235
38.84000 36.166
38.86000 34.528
38.88000 35.405
38.90000 39.455
38.92000 36.336
38.94000 38.095
38.96000 41.431
38.98000 37.677
39.00000 33.267
39.02000 47.070
39.04000 53.350
39.06000 50.765
39.08000 50.306
39.10000 51.340
39.12000 54.567
39.14000 57.771
39.16000 65.021
39.18000 62.811
39.20000 64.235
39.22000 70.032
39.24000 74.997
39.26000 73.138
39.28000 77.760
39.30000 78.638
39.32000 87.596
39.34000 95.582
39.36000 96.462
39.38000 94.791
39.40000 99.234
39.42000 110.358
39.44000 118.356
39.46000 125.684
39.48000 131.269
39.50000 132.454
39.52000 142.450
39.54000 148.373
39.56000 155.331
39.58000 163.463
39.60000 173.778
39.62000 183.961
39.64000 193.832
39.66000 205.122
39.68000 211.697
39.70000 234.899
39.72000 241.203
39.74000 245.673
39.76000 265.960
39.78000 275.655
39.80000 290.296
39.82000 302.987
39.84000 310.201
39.86000 332.365
39.88000 350.713
39.90000 364.809
39.92000 377.471
39.94000 391.469
39.96000 418.050
39.98000 438.288
40.00000 449.646
40.02000 466.222
40.04000 481.945
40.06000 491.500
40.08000 512.933
40.10000 529.325
40.12000 545.944
40.14000 553.644
40.16000 545.391
40.18000 556.365
40.20000 565.837
40.22000 578.327
40.24000 588.024
40.26000 597.782
40.28000 592.418
40.30000 591.045
40.32000 581.583
40.34000 571.872
40.36000 567.243
40.38000 560.578
40.40000 555.302
40.42000 543.315
40.44000 536.241
40.46000 522.546
40.48000 504.399
40.50000 492.687
40.52000 464.924
40.54000 456.161
40.56000 442.718
40.58000 428.736
40.60000 418.567
40.62000 400.935
40.64000 379.345
40.66000 371.031
40.68000 347.565
40.70000 328.518
40.72000 317.237
40.74000 305.699
40.76000 288.643
40.78000 269.993
40.80000 252.941
40.82000 246.402
40.84000 235.773
40.86000 219.642
40.88000 212.450
40.90000 200.236
40.92000 193.867
40.94000 182.681
40.96000 173.328
40.98000 162.713
41.00000 154.531
41.02000 147.892
41.04000 138.455
41.06000 130.455
41.08000 126.866
41.10000 117.952
41.12000 107.625
41.14000 100.421
41.16000 97.714
41.18000 96.459
41.20000 91.252
41.22000 84.662
41.24000 81.974
41.26000 79.518
41.28000 75.681
41.30000 74.439
41.32000 66.161
41.34000 60.562
41.36000 55.566
41.38000 56.927
41.40000 51.514
41.42000 47.551
41.44000 46.702
41.46000 39.555
41.48000 38.990
41.50000 34.052
41.52000 39.389
41.54000 35.180
41.56000 35.097
41.58000 32.615
41.60000 33.489
41.62000 33.876
41.64000 30.843
41.66000 31.740
41.68000 34.441
41.70000 30.051
41.72000 22.620
41.74000 20.738
41.76000 19.887
41.78000 16.684
41.80000 15.027
41.82000 16.607
41.84000 13.174
41.86000 15.102
41.88000 14.799
41.90000 15.808
41.92000 10.190
41.94000 9.215
41.96000 12.335
41.98000 10.304
42.00000 11.251
42.02000 12.193
42.04000 11.746
42.06000 7.827
42.08000 6.149
42.10000 8.140
42.12000 11.461
42.14000 9.444
42.16000 10.593
42.18000 7.010
42.20000 4.530
42.22000 2.962
42.24000 6.681
42.26000 5.777
42.28000 9.983
42.30000 6.823
42.32000 6.749
42.34000 3.654
42.36000 5.505
42.38000 5.525
42.40000 6.562
42.42000 4.955
42.44000 5.133
42.46000 6.485
42.48000 5.908
42.50000 2.044
42.52000 0.245
42.54000 -1.335
42.56000 -1.392
42.58000 -0.136
42.60000 2.912
42.62000 -0.509
42.64000 -0.701
42.66000 2.567
42.68000 2.173
42.70000 2.054
42.72000 2.735
42.74000 5.734
42.76000 3.633
42.78000 1.618
42.80000 5.727
42.82000 3.616
42.84000 -0.306
42.86000 -0.251
42.88000 0.473
42.90000 2.361
42.92000 1.338
42.94000 -2.009
42.96000 0.826
42.98000 -0.411
43.00000 -0.231
43.02000 -0.213
43.04000 0.651
43.06000 2.827
43.08000 5.211
43.10000 3.904
43.12000 -1.355
43.14000 -3.433
43.16000 -1.144
43.18000 2.971
43.20000 0.904
43.22000 2.794
43.24000 1.241
43.26000 -0.733
43.28000 1.233
43.30000 3.282
43.32000 3.050
43.34000 1.053
43.36000 5.229
43.38000 1.301
43.40000 -1.739
43.42000 -0.598
43.44000 3.088
43.46000 1.650
43.48000 2.670
43.50000 7.805
43.52000 5.493
43.54000 3.134
43.56000 2.524
43.58000 5.274
43.60000 4.051
43.62000 4.369
43.64000 0.522
43.66000 0.518
43.68000 5.984
43.70000 6.745
43.72000 1.149
43.74000 1.849
43.76000 4.080
43.78000 3.347
43.80000 2.523
43.82000 4.786
43.84000 5.626
43.86000 6.254
43.88000 3.667
43.90000 2.681
43.92000 -0.302
43.94000 -3.306
43.96000 1.212
43.98000 3.036
44.00000 3.843
44.02000 1.129
44.04000 3.218
44.06000 6.457
44.08000 9.302
44.10000 6.206
44.12000 7.660
44.14000 4.615
44.16000 5.220
44.18000 7.123
44.20000 6.205
44.22000 4.052
44.24000 6.231
44.26000 6.214
44.28000 8.769
44.30000 5.301
44.32000 6.040
44.34000 7.126
44.36000 5.967
44.38000 4.574
44.40000 3.794
44.42000 1.634
44.44000 3.099
44.46000 5.533
44.48000 3.764
44.50000 3.965
44.52000 0.209
44.54000 1.877
44.56000 -0.024
44.58000 6.152
44.60000 7.653
44.62000 8.750
44.64000 4.766
44.66000 2.766
44.68000 3.008
44.70000 0.775
44.72000 -1.399
44.74000 0.010
44.76000 -0.138
44.78000 2.421
44.80000 5.736
44.82000 2.621
44.84000 1.282
44.86000 3.189
44.88000 -0.153
44.90000 -1.620
44.92000 3.382
44.94000 6.992
44.96000 2.428
44.98000 4.931
45.00000 6.263
45.02000 11.211
45.04000 12.824
45.06000 6.664
45.08000 8.109
45.10000 10.564
45.12000 9.933
45.14000 9.847
45.16000 8.759
45.18000 4.206
45.20000 6.506
45.22000 7.531
45.24000 8.402
45.26000 8.730
45.28000 10.061
45.30000 9.606
45.32000 11.195
45.34000 11.556
45.36000 11.988
45.38000 12.827
45.40000 12.696
45.42000 9.120
45.44000 12.982
45.46000 17.026
45.48000 20.336
45.50000 14.112
45.52000 13.638
45.54000 15.053
45.56000 15.304
45.58000 18.460
45.60000 21.469
45.62000 17.833
45.64000 14.863
45.66000 18.122
45.68000 21.000
45.70000 20.603
45.72000 26.161
45.74000 25.751
45.76000 18.492
45.78000 22.943
45.80000 29.722
45.82000 29.536
45.84000 28.983
45.86000 31.888
45.88000 30.585
45.90000 35.178
45.92000 35.752
45.94000 38.196
45.96000 38.080
45.98000 38.552
46.00000 36.702
46.02000 37.603
46.04000 36.154
46.06000 34.642
46.08000 41.746
46.10000 45.032
46.12000 42.038
46.14000 52.364
46.16000 51.053
46.18000 50.373
46.20000 53.456
46.22000 53.997
46.24000 58.404
46.26000 58.147
46.28000 54.306
46.30000 55.400
46.32000 57.828
46.34000 60.696
46.36000 68.823
46.38000 66.370
46.40000 67.560
46.42000 68.307
46.44000 69.605
46.46000 70.418
46.48000 73.875
46.50000 72.354
46.52000 74.055
46.54000 86.539
46.56000 91.083
46.58000 92.485
46.60000 91.193
46.62000 90.604
46.64000 88.154
46.66000 89.959
46.68000 102.976
46.70000 96.252
46.72000 99.126
46.74000 107.014
46.76000 100.289
46.78000 101.036
46.80000 109.777
46.82000 105.955
46.84000 97.424
46.86000 95.230
46.88000 102.754
46.90000 107.096
46.92000 103.673
46.94000 105.820
46.96000 103.848
46.98000 101.289
47.00000 103.636
47.02000 101.605
47.04000 97.634
47.06000 102.785
47.08000 109.688
47.10000 111.806
47.12000 99.638
47.14000 93.680
47.16000 92.223
47.18000 91.987
47.20000 96.045
47.22000 90.149
47.24000 93.131
47.26000 87.831
47.28000 84.378
47.30000 82.668
47.32000 79.209
47.34000 73.943
47.36000 76.153
47.38000 71.867
47.40000 61.880
47.42000 63.933
47.44000 64.206
47.46000 69.971
47.48000 64.434
47.50000 62.486
47.52000 58.316
47.54000 56.627
47.56000 54.737
47.58000 51.917
47.60000 45.217
47.62000 46.421
47.64000 44.240
47.66000 44.928
47.68000 42.686
47.70000 38.085
47.72000 35.284
47.74000 35.324
47.76000 33.621
47.78000 32.795
47.80000 29.387
47.82000 28.262
47.84000 27.205
47.86000 30.161
47.88000 30.941
47.90000 23.477
47.92000 24.801
47.94000 26.343
47.96000 17.704
47.98000 14.219
48.00000 19.761
48.02000 20.746
48.04000 16.870
48.06000 11.901
48.08000 13.305
48.10000 14.198
48.12000 12.991
48.14000 10.192
48.16000 14.080
48.18000 11.090
48.20000 9.415
48.22000 10.313
48.24000 7.390
48.26000 9.103
48.28000 8.146
48.30000 6.918
48.32000 0.578
48.34000 2.861
48.36000 3.926
48.38000 -0.468
48.40000 0.614
48.42000 5.716
48.44000 3.511
48.46000 1.403
48.48000 2.474
48.50000 3.791
48.52000 4.107
48.54000 1.244
48.56000 -1.946
48.58000 -0.947
48.60000 2.098
48.62000 5.594
48.64000 7.039
48.66000 3.954
48.68000 1.476
48.70000 0.716
48.72000 2.440
48.74000 0.519
48.76000 2.998
48.78000 -0.096
48.80000 -1.055
48.82000 -0.251
48.84000 -0.617
48.86000 2.015
48.88000 1.943
48.90000 4.444
48.92000 1.504
48.94000 -2.985
48.96000 -1.537
48.98000 0.432
49.00000 3.240
49.02000 3.649
49.04000 0.668
49.06000 -0.735
49.08000 -0.152
49.10000 -0.954
49.12000 -0.593
49.14000 1.478
49.16000 -2.085
49.18000 3.006
49.20000 -0.645
49.22000 -0.641
49.24000 3.386
49.26000 -0.570
49.28000 2.446
49.30000 5.303
49.32000 2.358
49.34000 2.038
49.36000 -1.645
49.38000 3.057
49.40000 4.478
49.42000 2.375
49.44000 -2.880
49.46000 1.227
49.48000 0.924
49.50000 1.658
49.52000 3.118
49.54000 2.927
49.56000 -0.225
49.58000 0.382
49.60000 -0.973
49.62000 2.058
49.64000 4.583
49.66000 2.366
49.68000 3.071
49.70000 -2.404
49.72000 -2.531
49.74000 1.066
49.76000 4.629
49.78000 7.383
49.80000 3.640
49.82000 3.382
49.84000 -2.521
49.86000 0.443
49.88000 0.082
49.90000 1.336
49.92000 -1.551
49.94000 -2.844
49.96000 -1.729
49.98000 0.598
50.00000 0.164
50.02000 1.142
50.04000 -0.399
50.06000 2.687
50.08000 3.782
50.10000 2.332
50.12000 3.510
50.14000 6.215
50.16000 6.125
50.18000 2.103
50.20000 2.851
50.22000 0.641
50.24000 1.955
50.26000 2.297
50.28000 0.761
50.30000 0.208
50.32000 -1.170
50.34000 0.205
50.36000 2.194
50.38000 -2.803
50.40000 -1.588
50.42000 0.416
50.44000 2.805
50.46000 -2.520
50.48000 0.356
50.50000 -0.693
50.52000 -1.818
50.54000 0.792
50.56000 4.115
50.58000 5.452
50.60000 4.790
50.62000 2.101
50.64000 1.617
50.66000 -2.338
50.68000 -2.382
50.70000 -1.593
50.72000 2.610
50.74000 1.074
50.76000 1.488
50.78000 5.387
50.80000 3.900
50.82000 3.709
50.84000 3.156
50.86000 1.557
50.88000 4.359
50.90000 6.747
50.92000 5.076
50.94000 6.749
50.96000 5.746
50.98000 2.440
51.00000 6.230
51.02000 3.402
51.04000 -0.904
51.06000 -2.775
51.08000 3.296
51.10000 1.845
51.12000 -0.031
51.14000 0.134
51.16000 4.401
51.18000 6.257
51.20000 1.653
51.22000 -1.851
51.24000 -1.688
51.26000 -0.431
51.28000 -0.170
51.30000 -1.782
51.32000 -0.944
51.34000 0.660
51.36000 -1.046
51.38000 -0.401
51.40000 1.278
51.42000 -0.169
51.44000 -2.750
51.46000 -0.642
51.48000 5.083
51.50000 4.284
51.52000 2.613
51.54000 1.513
51.56000 1.174
51.58000 0.016
51.60000 1.241
51.62000 -1.794
51.64000 0.118
51.66000 -0.972
51.68000 1.478
51.70000 5.361
51.72000 1.494
51.74000 3.717
51.76000 -0.920
51.78000 3.119
51.80000 -0.329
51.82000 1.688
51.84000 1.696
51.86000 4.365
51.88000 6.046
51.90000 1.290
51.92000 2.065
51.94000 0.042
51.96000 1.990
51.98000 1.650
52.00000 5.117
52.02000 2.892
52.04000 -1.343
52.06000 -0.596
52.08000 0.537
52.10000 -1.439
52.12000 -2.736
52.14000 1.921
52.16000 0.558
52.18000 1.876
52.20000 4.889
52.22000 6.998
52.24000 0.930
52.26000 -1.053
52.28000 2.993
52.30000 0.269
52.32000 -0.004
52.34000 2.824
52.36000 4.194
52.38000 7.139
52.40000 4.825
52.42000 1.164
52.44000 2.293
52.46000 2.589
52.48000 2.923
52.50000 1.148
52.52000 3.237
52.54000 5.424
52.56000 0.919
52.58000 1.623
52.60000 5.751
52.62000 3.193
52.64000 4.886
52.66000 5.363
52.68000 -0.142
52.70000 0.926
52.72000 2.841
52.74000 2.397
52.76000 -1.093
52.78000 0.599
52.80000 4.200
52.82000 7.129
52.84000 3.654
52.86000 2.596
52.88000 -2.166
52.90000 0.850
52.92000 -0.257
52.94000 2.634
52.96000 0.275
52.98000 -0.695
53.00000 2.358
53.02000 4.088
53.04000 2.738
53.06000 1.522
53.08000 2.625
53.10000 -2.670
53.12000 1.511
53.14000 0.355
53.16000 3.587
53.18000 0.379
53.20000 -0.085
53.22000 2.014
53.24000 -0.224
53.26000 1.618
53.28000 7.350
53.30000 5.732
53.32000 4.296
53.34000 5.173
53.36000 1.533
53.38000 0.077
53.40000 5.432
53.42000 6.732
53.44000 1.270
53.46000 -1.003
53.48000 0.561
53.50000 3.588
53.52000 3.458
53.54000 0.078
53.56000 2.710
53.58000 5.492
53.60000 1.973
53.62000 -2.032
53.64000 -1.747
53.66000 1.745
53.68000 -0.327
53.70000 0.446
53.72000 2.768
53.74000 3.906
53.76000 4.770
53.78000 5.817
53.80000 5.648
53.82000 6.418
53.84000 3.504
53.86000 1.976
53.88000 5.920
53.90000 7.051
53.92000 2.675
53.94000 4.208
53.96000 1.608
53.98000 0.965
54.00000 6.834
54.02000 3.293
54.04000 4.302
54.06000 6.239
54.08000 5.123
54.10000 1.263
54.12000 -0.150
54.14000 -0.454
54.16000 2.148
54.18000 5.047
54.20000 7.065
54.22000 7.404
54.24000 7.370
54.26000 8.510
54.28000 3.390
54.30000 3.015
54.32000 9.358
54.34000 4.405
54.36000 1.361
54.38000 -2.616
54.40000 -0.585
54.42000 -0.461
54.44000 1.089
54.46000 6.758
54.48000 2.427
54.50000 9.196
54.52000 2.693
54.54000 5.469
54.56000 5.774
54.58000 9.396
54.60000 -0.148
54.62000 1.788
54.64000 7.444
54.66000 6.911
54.68000 3.508
54.70000 4.411
54.72000 7.100
54.74000 5.230
54.76000 4.262
54.78000 4.763
54.80000 2.247
54.82000 2.444
54.84000 -1.691
54.86000 -0.946
54.88000 -2.046
54.90000 3.881
54.92000 1.218
54.94000 -2.304
54.96000 -0.230
54.98000 3.299
55.00000 1.848
55.02000 1.013
55.04000 4.436
55.06000 5.546
55.08000 4.397
55.10000 8.526
55.12000 6.572
55.14000 1.972
55.16000 1.998
55.18000 1.200
55.20000 -1.362
55.22000 -2.609
55.24000 3.326
55.26000 4.911
55.28000 2.066
55.30000 3.256
55.32000 5.672
55.34000 3.806
55.36000 5.205
55.38000 4.354
55.40000 -0.022
55.42000 2.323
55.44000 4.383
55.46000 3.129
55.48000 1.299
55.50000 0.184
55.52000 1.515
55.54000 3.059
55.56000 8.931
55.58000 6.892
55.60000 4.397
55.62000 -0.059
55.64000 1.669
55.66000 4.163
55.68000 0.707
55.70000 3.839
55.72000 3.054
55.74000 3.356
55.76000 5.194
55.78000 7.690
55.80000 2.708
55.82000 1.608
55.84000 0.579
55.86000 0.377
55.88000 2.015
55.90000 -2.607
55.92000 -1.246
55.94000 2.900
55.96000 4.242
55.98000 5.627
56.00000 3.681
56.02000 -1.217
56.04000 0.245
56.06000 -2.602
56.08000 0.775
56.10000 -0.273
56.12000 0.705
56.14000 4.930
56.16000 2.468
56.18000 6.082
56.20000 7.646
56.22000 1.496
56.24000 3.673
56.26000 6.855
56.28000 0.852
56.30000 -0.713
56.32000 4.292
56.34000 2.640
56.36000 1.377
56.38000 4.092
56.40000 2.937
56.42000 2.757
56.44000 -0.373
56.46000 4.446
56.48000 5.654
56.50000 2.908
56.52000 5.403
56.54000 4.639
56.56000 3.448
56.58000 2.081
56.60000 2.621
56.62000 2.102
56.64000 2.807
56.66000 4.117
56.68000 4.336
56.70000 5.329
56.72000 2.731
56.74000 -1.647
56.76000 0.946
56.78000 1.815
56.80000 0.314
56.82000 1.568
56.84000 -0.903
56.86000 3.684
56.88000 3.297
56.90000 1.524
56.92000 1.230
56.94000 1.697
56.96000 0.966
56.98000 0.315
57.00000 4.196
57.02000 5.388
57.04000 2.430
57.06000 0.050
57.08000 -2.568
57.10000 1.259
57.12000 2.041
57.14000 4.783
57.16000 7.346
57.18000 3.721
57.20000 4.688
57.22000 1.723
57.24000 2.826
57.26000 -2.569
57.28000 0.938
57.30000 1.888
57.32000 4.081
57.34000 -0.697
57.36000 0.117
57.38000 0.299
57.40000 -0.689
57.42000 2.300
57.44000 4.279
57.46000 4.790
57.48000 3.094
57.50000 2.800
57.52000 3.681
57.54000 2.998
57.56000 4.182
57.58000 1.936
57.60000 -0.170
57.62000 0.268
57.64000 2.052
57.66000 0.489
57.68000 1.672
57.70000 3.957
57.72000 1.795
57.74000 0.472
57.76000 2.435
57.78000 4.924
57.80000 4.225
57.82000 5.439
57.84000 2.033
57.86000 1.288
57.88000 2.896
57.90000 3.560
57.92000 0.368
57.94000 0.971
57.96000 -0.291
57.98000 2.662
58.00000 2.490
58.02000 -0.128
58.04000 4.504
58.06000 2.517
58.08000 -2.562
58.10000 -2.562
58.12000 1.141
58.14000 0.800
58.16000 2.577
58.18000 -0.823
58.20000 -1.426
58.22000 1.744
58.24000 3.528
58.26000 2.718
58.28000 0.468
58.30000 -2.414
58.32000 0.561
58.34000 3.042
58.36000 4.122
58.38000 0.329
58.40000 1.940
58.42000 2.086
58.44000 -0.848
58.46000 0.574
58.48000 4.752
58.50000 -0.547
58.52000 -2.553
58.54000 -1.016
58.56000 5.494
58.58000 1.925
58.60000 -0.605
58.62000 2.115
58.64000 0.474
58.66000 0.540
58.68000 5.464
58.70000 5.107
58.72000 2.628
58.74000 3.071
58.76000 0.902
58.78000 -1.797
58.80000 2.058
58.82000 1.651
58.84000 -1.014
58.86000 -1.076
58.88000 0.206
58.90000 -1.764
58.92000 -1.690
58.94000 -2.407
58.96000 0.578
58.98000 0.602
59.00000 -2.541
59.02000 1.083
59.04000 -1.761
59.06000 -1.090
59.08000 -1.560
59.10000 0.901
59.12000 1.858
59.14000 -1.204
59.16000 1.793
59.18000 2.495
59.20000 3.969
59.22000 1.897
59.24000 -0.592
59.26000 -2.531
59.28000 0.235
59.30000 -0.175
59.32000 -0.491
59.34000 0.530
59.36000 0.491
59.38000 -0.180
59.40000 -1.405
59.42000 4.244
59.44000 4.741
59.46000 3.314
59.48000 4.988
59.50000 5.173
59.52000 5.222
59.54000 3.878
59.56000 3.758
59.58000 3.780
59.60000 3.145
59.62000 2.001
59.64000 1.472
59.66000 2.429
59.68000 -0.294
59.70000 -1.766
59.72000 -1.448
59.74000 -0.898
59.76000 1.402
59.78000 3.596
59.80000 4.344
59.82000 0.096
59.84000 0.068
59.86000 0.011
59.88000 -0.088
59.90000 -2.263
59.92000 -2.498
59.94000 1.496
59.96000 2.119
59.98000 0.640
60.00000 1.994
60.02000 -0.836
60.04000 5.795
60.06000 5.668
60.08000 0.979
60.10000 0.278
60.12000 3.210
60.14000 2.930
60.16000 2.134
60.18000 1.478
60.20000 7.655
60.22000 3.959
60.24000 0.861
60.26000 3.552
60.28000 4.456
60.30000 5.288
60.32000 5.195
60.34000 1.541
60.36000 2.210
60.38000 2.588
60.40000 -0.554
60.42000 3.024
60.44000 5.028
60.46000 1.202
60.48000 -2.476
60.50000 0.828
60.52000 2.947
60.54000 3.636
60.56000 6.784
60.58000 2.534
60.60000 1.398
60.62000 1.340
60.64000 1.909
60.66000 3.955
60.68000 1.820
60.70000 1.213
60.72000 0.315
60.74000 -2.170
60.76000 -0.133
60.78000 2.707
60.80000 -1.773
60.82000 0.632
60.84000 1.980
60.86000 4.625
60.88000 2.899
60.90000 2.744
60.92000 4.273
60.94000 5.219
60.96000 6.794
60.98000 5.895
61.00000 2.783
61.02000 2.498
61.04000 2.475
61.06000 -1.154
61.08000 -0.077
61.10000 -1.013
61.12000 -2.452
61.14000 4.324
61.16000 3.435
61.18000 3.915
61.20000 0.599
61.22000 0.920
61.24000 4.045
61.26000 3.319
61.28000 -0.304
61.30000 -2.438
61.32000 1.537
61.34000 3.097
61.36000 1.025
61.38000 2.581
61.40000 7.924
61.42000 5.184
61.44000 2.500
61.46000 2.874
61.48000 1.034
61.50000 -0.706
61.52000 2.168
61.54000 3.842
61.56000 1.437
61.58000 1.254
61.60000 2.203
61.62000 3.242
61.64000 3.012
61.66000 -1.715
61.68000 2.676
61.70000 4.620
61.72000 2.905
61.74000 4.811
61.76000 5.585
61.78000 4.940
61.80000 0.970
61.82000 -2.415
61.84000 1.908
61.86000 4.899
61.88000 3.894
61.90000 1.360
61.92000 2.005
61.94000 1.529
61.96000 3.962
61.98000 3.550
62.00000 1.841
62.02000 2.954
62.04000 0.615
62.06000 1.632
62.08000 4.199
62.10000 0.784
62.12000 2.750
62.14000 2.960
62.16000 3.836
62.18000 1.126
62.20000 1.435
62.22000 6.670
62.24000 5.000
62.26000 5.574
62.28000 6.250
62.30000 5.220
62.32000 -0.662
62.34000 -0.937
62.36000 1.718
62.38000 2.361
62.40000 2.448
62.42000 3.515
62.44000 0.470
62.46000 0.379
62.48000 0.486
62.50000 -0.856
62.52000 -0.133
62.54000 -0.645
62.56000 -0.083
62.58000 0.330
62.60000 3.903
62.62000 -0.424
62.64000 -2.265
62.66000 -0.160
62.68000 3.915
62.70000 6.073
62.72000 4.190
62.74000 3.249
62.76000 5.280
62.78000 4.556
62.80000 3.192
62.82000 3.379
62.84000 -0.088
62.86000 1.623
62.88000 0.529
62.90000 0.826
62.92000 4.843
62.94000 1.720
62.96000 -0.009
62.98000 0.695
63.00000 0.249
63.02000 -2.351
63.04000 -1.777
63.06000 3.695
63.08000 4.227
63.10000 2.237
63.12000 2.014
63.14000 1.084
63.16000 -0.034
63.18000 -2.406
63.20000 1.522
63.22000 0.427
63.24000 0.566
63.26000 1.085
63.28000 -0.880
63.30000 -0.977
63.32000 0.080
63.34000 1.373
63.36000 2.073
63.38000 -1.022
63.40000 2.323
63.42000 4.595
63.44000 5.818
63.46000 3.690
63.48000 1.442
63.50000 6.387
63.52000 3.451
63.54000 1.259
63.56000 3.636
63.58000 3.773
63.60000 2.696
63.62000 -1.076
63.64000 1.106
63.66000 -0.023
63.68000 0.125
63.70000 0.473
63.72000 3.034
63.74000 4.019
63.76000 4.964
63.78000 4.418
63.80000 -0.371
63.82000 0.768
63.84000 4.330
63.86000 4.435
63.88000 1.284
63.90000 -1.251
63.92000 -0.103
63.94000 1.370
63.96000 2.236
63.98000 1.640
64.00000 -0.538
64.02000 -2.435
64.04000 1.707
64.06000 3.750
64.08000 3.545
64.10000 -1.872
64.12000 1.165
64.14000 2.733
64.16000 2.129
64.18000 3.617
64.20000 2.739
64.22000 4.619
64.24000 2.491
64.26000 3.429
64.28000 1.685
64.30000 0.773
64.32000 -2.200
64.34000 2.156
64.36000 3.043
64.38000 1.613
64.40000 -2.433
64.42000 -0.198
64.44000 0.071
64.46000 0.228
64.48000 3.070
64.50000 0.623
64.52000 1.206
64.54000 1.551
64.56000 4.115
64.58000 1.716
64.60000 1.534
64.62000 -1.213
64.64000 1.777
64.66000 1.538
64.68000 0.803
64.70000 2.163
64.72000 2.882
64.74000 1.418
64.76000 2.207
64.78000 2.388
64.80000 1.812
64.82000 1.261
64.84000 -0.572
64.86000 0.938
64.88000 3.173
64.90000 1.483
64.92000 3.332
64.94000 3.395
64.96000 -0.731
64.98000 2.944
65.00000 3.687
65.02000 5.023
65.04000 6.510
65.06000 0.754
65.08000 0.661
65.10000 0.991
65.12000 2.830
65.14000 -0.047
65.16000 1.396
65.18000 4.782
65.20000 4.107
65.22000 0.216
65.24000 -1.995
65.26000 1.668
65.28000 2.232
65.30000 4.905
65.32000 5.817
65.34000 0.274
65.36000 -2.429
65.38000 -1.112
65.40000 0.696
65.42000 0.883
65.44000 3.989
65.46000 4.142
65.48000 2.049
65.50000 3.060
65.52000 3.779
65.54000 2.332
65.56000 2.148
65.58000 -0.590
65.60000 -1.409
65.62000 1.940
65.64000 3.698
65.66000 0.460
65.68000 3.316
65.70000 2.261
65.72000 -0.333
65.74000 2.202
65.76000 1.363
65.78000 1.621
65.80000 3.692
65.82000 8.061
65.84000 6.632
65.86000 5.169
65.88000 3.078
65.90000 -0.101
65.92000 0.196
65.94000 -0.336
65.96000 1.101
65.98000 2.691
66.00000 3.524
66.02000 4.367
66.04000 3.424
66.06000 3.275
66.08000 4.653
66.10000 -0.123
66.12000 0.006
66.14000 -2.446
66.16000 -0.932
66.18000 3.304
66.20000 2.558
66.22000 1.624
66.24000 0.061
66.26000 0.931
66.28000 2.805
66.30000 2.139
66.32000 2.463
66.34000 5.040
66.36000 6.216
66.38000 4.673
66.40000 4.993
66.42000 3.215
66.44000 3.356
66.46000 4.104
66.48000 2.887
66.50000 3.684
66.52000 1.343
66.54000 2.333
66.56000 4.304
66.58000 -1.384
66.60000 -2.470
66.62000 -1.287
66.64000 0.853
66.66000 1.546
66.68000 1.940
66.70000 3.008
66.72000 5.606
66.74000 5.095
66.76000 4.250
66.78000 1.004
66.80000 2.288
66.82000 1.936
66.84000 2.403
66.86000 3.446
66.88000 5.958
66.90000 2.375
66.92000 3.658
66.94000 6.267
66.96000 3.190
66.98000 4.729
67.00000 4.475
67.02000 0.623
67.04000 1.591
67.06000 3.113
67.08000 4.520
67.10000 3.984
67.12000 2.281
67.14000 -0.603
67.16000 -0.356
67.18000 2.571
67.20000 6.995
67.22000 3.710
67.24000 4.017
67.26000 5.203
67.28000 3.834
67.30000 2.513
67.32000 5.336
67.34000 6.975
67.36000 7.447
67.38000 3.652
67.40000 3.137
67.42000 8.483
67.44000 6.355
67.46000 5.161
67.48000 11.280
67.50000 10.205
67.52000 5.266
67.54000 7.377
67.56000 9.702
67.58000 10.071
67.60000 9.152
67.62000 10.201
67.64000 10.160
67.66000 10.968
67.68000 8.996
67.70000 9.273
67.72000 9.463
67.74000 11.782
67.76000 15.254
67.78000 14.627
67.80000 14.162
67.82000 15.161
67.84000 15.467
67.86000 16.249
67.88000 15.953
67.90000 16.552
67.92000 14.523
67.94000 15.418
67.96000 15.993
67.98000 19.108
68.00000 19.732
68.02000 17.113
68.04000 16.318
68.06000 18.319
68.08000 19.373
68.10000 17.944
68.12000 21.627
68.14000 24.415
68.16000 26.354
68.18000 24.062
68.20000 23.395
68.22000 23.400
68.24000 20.899
68.26000 22.707
68.28000 20.757
68.30000 21.053
68.32000 22.887
68.34000 22.722
68.36000 25.616
68.38000 23.155
68.40000 24.964
68.42000 25.024
68.44000 23.677
68.46000 24.529
68.48000 23.484
68.50000 26.372
68.52000 25.866
68.54000 24.821
68.56000 21.999
68.58000 23.559
68.60000 24.283
68.62000 24.969
68.64000 24.431
68.66000 24.713
68.68000 26.841
68.70000 27.021
68.72000 21.019
68.74000 20.905
68.76000 21.457
68.78000 23.912
68.80000 27.920
68.82000 23.586
68.84000 21.128
68.86000 21.521
68.88000 23.022
68.90000 19.585
68.92000 18.284
68.94000 16.314
68.96000 19.130
68.98000 21.177
69.00000 22.795
69.02000 20.581
69.04000 17.603
69.06000 15.445
69.08000 17.764
69.10000 15.640
69.12000 18.923
69.14000 15.934
69.16000 13.150
69.18000 14.353
69.20000 12.466
69.22000 13.651
69.24000 10.104
69.26000 8.236
69.28000 8.498
69.30000 6.673
69.32000 7.311
69.34000 8.293
69.36000 8.237
69.38000 11.078
69.40000 11.661
69.42000 11.870
69.44000 9.690
69.46000 7.057
69.48000 6.661
69.50000 6.670
69.52000 5.325
69.54000 7.635
69.56000 7.424
69.58000 1.778
69.60000 2.588
69.62000 3.762
69.64000 2.079
69.66000 0.295
69.68000 3.794
69.70000 6.127
69.72000 2.635
69.74000 2.298
69.76000 2.953
69.78000 3.810
69.80000 2.585
69.82000 0.331
69.84000 0.678
69.86000 4.477
69.88000 3.651
69.90000 0.595
69.92000 0.208
69.94000 5.626
69.96000 2.473
69.98000 3.431
70.00000 0.500
70.02000 -0.496
70.04000 -2.440
70.06000 -0.712
70.08000 0.136
70.10000 -1.840
70.12000 2.817
70.14000 2.925
70.16000 2.053
70.18000 -1.064
70.20000 2.575
70.22000 5.009
70.24000 4.084
70.26000 1.258
70.28000 2.230
70.30000 1.169
70.32000 2.522
70.34000 1.530
70.36000 0.588
70.38000 0.248
70.40000 2.223
70.42000 0.598
70.44000 2.327
70.46000 3.491
70.48000 2.251
70.50000 -0.136
70.52000 -2.390
70.54000 -1.595
70.56000 1.446
70.58000 1.664
70.60000 0.605
70.62000 4.339
70.64000 2.942
70.66000 0.488
70.68000 1.089
70.70000 3.498
70.72000 4.381
70.74000 1.176
70.76000 0.945
70.78000 -0.721
70.80000 -2.358
70.82000 0.398
70.84000 4.731
70.86000 4.242
70.88000 2.503
70.90000 3.434
70.92000 3.176
70.94000 0.670
70.96000 4.560
70.98000 2.844
71.00000 0.482
71.02000 0.774
71.04000 -1.669
71.06000 0.230
71.08000 3.388
71.10000 2.772
71.12000 3.229
71.14000 0.217
71.16000 -0.848
71.18000 -1.348
71.20000 -1.962
71.22000 2.815
71.24000 3.506
71.26000 4.649
71.28000 2.537
71.30000 1.451
71.32000 -0.774
71.34000 0.078
71.36000 2.388
71.38000 1.776
71.40000 -1.842
71.42000 2.926
71.44000 4.336
71.46000 6.745
71.48000 2.446
71.50000 2.374
71.52000 4.117
71.54000 1.676
71.56000 2.940
71.58000 2.064
71.60000 -2.274
71.62000 1.107
71.64000 0.008
71.66000 1.084
71.68000 4.053
71.70000 2.710
71.72000 0.965
71.74000 0.680
71.76000 1.601
71.78000 2.056
71.80000 -1.295
71.82000 0.559
71.84000 3.467
71.86000 4.122
71.88000 1.190
71.90000 -2.285
71.92000 2.254
71.94000 0.020
71.96000 1.051
71.98000 5.399
72.00000 6.535
72.02000 2.219
72.04000 2.927
72.06000 1.462
72.08000 3.549
72.10000 8.886
72.12000 3.756
72.14000 3.675
72.16000 2.803
72.18000 2.090
72.20000 2.656
72.22000 1.306
72.24000 1.569
72.26000 2.669
72.28000 4.520
72.30000 3.638
72.32000 3.140
72.34000 6.643
72.36000 5.380
72.38000 0.251
72.40000 1.602
72.42000 3.841
72.44000 5.987
72.46000 5.979
72.48000 2.305
72.50000 0.547
72.52000 1.475
72.54000 2.565
72.56000 3.426
72.58000 0.235
72.60000 -2.245
72.62000 2.649
72.64000 1.415
72.66000 4.749
72.68000 7.664
72.70000 3.238
72.72000 2.856
72.74000 3.130
72.76000 0.649
72.78000 3.751
72.80000 9.558
72.82000 7.590
72.84000 5.233
72.86000 3.250
72.88000 3.411
72.90000 0.804
72.92000 -0.304
72.94000 0.600
72.96000 3.632
72.98000 5.611
73.00000 4.148
73.02000 -1.348
73.04000 -1.322
73.06000 0.823
73.08000 3.747
73.10000 4.724
73.12000 4.579
73.14000 3.985
73.16000 5.144
73.18000 7.268
73.20000 3.803
73.22000 3.650
73.24000 4.079
73.26000 1.311
73.28000 6.823
73.30000 5.834
73.32000 5.195
73.34000 2.069
73.36000 2.924
73.38000 3.321
73.40000 1.871
73.42000 1.384
73.44000 2.175
73.46000 5.812
73.48000 5.824
73.50000 4.144
73.52000 5.581
73.54000 9.378
73.56000 1.280
73.58000 -2.204
73.60000 2.424
73.62000 4.667
73.64000 4.779
73.66000 1.957
73.68000 3.435
73.70000 4.775
73.72000 5.358
73.74000 6.634
73.76000 8.025
73.78000 4.421
73.80000 5.150
73.82000 8.202
73.84000 3.396
73.86000 -0.269
73.88000 0.936
73.90000 3.313
73.92000 1.645
73.94000 -1.085
73.96000 -2.229
73.98000 1.049
74.00000 3.956
74.02000 0.799
74.04000 4.857
74.06000 3.070
74.08000 1.786
74.10000 -1.569
74.12000 3.039
74.14000 5.086
74.16000 3.027
74.18000 0.973
74.20000 0.052
74.22000 2.373
74.24000 3.864
74.26000 2.732
74.28000 6.021
74.30000 2.516
74.32000 5.271
74.34000 2.707
74.36000 1.532
74.38000 1.013
74.40000 0.701
74.42000 1.419
74.44000 1.444
74.46000 3.402
74.48000 4.685
74.50000 4.283
74.52000 2.299
74.54000 1.976
74.56000 2.240
74.58000 0.398
74.60000 -0.439
74.62000 1.533
74.64000 -0.160
74.66000 4.836
74.68000 5.850
74.70000 5.792
74.72000 0.972
74.74000 0.611
74.76000 1.717
74.78000 1.939
74.80000 3.666
74.82000 5.142
74.84000 2.433
74.86000 -2.267
74.88000 -1.003
74.90000 2.213
74.92000 3.546
74.94000 0.435
74.96000 1.824
74.98000 -0.316
75.00000 2.385
75.02000 1.101
75.04000 -1.898
75.06000 -0.887
75.08000 0.175
75.10000 -0.781
75.12000 0.525
75.14000 3.713
75.16000 5.903
75.18000 1.969
75.20000 -0.710
75.22000 0.866
75.24000 0.901
75.26000 3.714
75.28000 1.808
75.30000 2.128
75.32000 0.318
75.34000 2.963
75.36000 4.982
75.38000 5.172
75.40000 4.132
75.42000 3.148
75.44000 2.920
75.46000 1.304
75.48000 -0.392
75.50000 0.650
75.52000 0.257
75.54000 2.567
75.56000 0.398
75.58000 4.220
75.60000 3.149
75.62000 3.938
75.64000 0.752
75.66000 -0.806
75.68000 3.802
75.70000 3.849
75.72000 2.259
75.74000 4.724
75.76000 5.406
75.78000 7.261
75.80000 1.486
75.82000 0.619
75.84000 2.505
75.86000 3.091
75.88000 2.878
75.90000 2.296
75.92000 3.498
75.94000 0.178
75.96000 -2.251
75.98000 -1.339
76.00000 0.833
76.02000 0.245
76.04000 0.874
76.06000 3.462
76.08000 1.678
76.10000 3.777
76.12000 2.868
76.14000 4.356
76.16000 4.628
76.18000 4.677
76.20000 1.617
76.22000 6.627
76.24000 4.412
76.26000 3.540
76.28000 -1.457
76.30000 -0.238
76.32000 1.192
76.34000 4.390
76.36000 4.969
76.38000 0.629
76.40000 2.758
76.42000 -0.006
76.44000 1.887
76.46000 3.957
76.48000 3.903
76.50000 2.660
76.52000 0.627
76.54000 1.634
76.56000 3.545
76.58000 4.138
76.60000 5.223
76.62000 2.599
76.64000 2.538
76.66000 5.400
76.68000 -2.225
76.70000 -0.223
76.72000 5.768
76.74000 5.926
76.76000 6.046
76.78000 3.922
76.80000 4.083
76.82000 5.437
76.84000 7.042
76.86000 6.677
76.88000 3.752
76.90000 6.428
76.92000 6.235
76.94000 -0.653
76.96000 -0.073
76.98000 3.250
77.00000 2.496
77.02000 2.551
77.04000 1.574
77.06000 2.532
77.08000 5.962
77.10000 6.294
77.12000 2.083
77.14000 3.360
77.16000 5.711
77.18000 3.308
77.20000 0.491
77.22000 3.708
77.24000 3.387
77.26000 3.605
77.28000 7.181
77.30000 2.283
77.32000 2.525
77.34000 0.076
77.36000 2.105
77.38000 2.232
77.40000 2.673
77.42000 4.781
77.44000 2.378
77.46000 3.828
77.48000 3.125
77.50000 4.738
77.52000 2.104
77.54000 2.026
77.56000 3.418
77.58000 3.620
77.60000 2.717
77.62000 1.434
77.64000 4.443
77.66000 3.060
77.68000 0.041
77.70000 -1.170
77.72000 1.189
77.74000 3.273
77.76000 5.141
77.78000 0.080
77.80000 0.372
77.82000 4.611
77.84000 3.821
77.86000 3.219
77.88000 1.025
77.90000 -2.204
77.92000 -1.691
77.94000 1.005
77.96000 -0.577
77.98000 -1.137
78.00000 -2.280
78.02000 3.395
78.04000 -0.194
78.06000 1.276
78.08000 0.980
78.10000 1.087
78.12000 1.105
78.14000 3.663
78.16000 4.466
78.18000 1.524
78.20000 -0.090
78.22000 1.074
78.24000 1.724
78.26000 1.162
78.28000 -0.082
78.30000 0.228
78.32000 2.439
78.34000 1.301
78.36000 -1.176
78.38000 -1.987
78.40000 -0.929
78.42000 -2.281
78.44000 1.096
78.46000 1.296
78.48000 1.353
78.50000 1.906
78.52000 1.876
78.54000 1.093
78.56000 -1.396
78.58000 0.090
78.60000 0.779
78.62000 0.492
78.64000 0.850
78.66000 3.816
78.68000 0.880
78.70000 1.919
78.72000 -0.490
78.74000 0.132
78.76000 1.071
78.78000 4.680
78.80000 1.812
78.82000 -1.366
78.84000 -1.410
78.86000 0.854
78.88000 3.180
78.90000 0.173
78.92000 -0.237
78.94000 5.360
78.96000 7.141
78.98000 2.015
79.00000 -2.235
79.02000 2.788
79.04000 1.755
79.06000 2.458
79.08000 1.722
79.10000 0.879
79.12000 0.745
79.14000 1.162
79.16000 3.032
79.18000 2.275
79.20000 0.801
79.22000 -0.291
79.24000 3.847
79.26000 0.317
79.28000 -1.857
79.30000 -1.735
79.32000 3.934
79.34000 5.530
79.36000 1.395
79.38000 2.957
79.40000 1.843
79.42000 -2.340
79.44000 0.803
79.46000 3.040
79.48000 1.451
79.50000 1.163
79.52000 3.550
79.54000 0.936
79.56000 3.763
79.58000 1.373
79.60000 2.887
79.62000 -0.542
79.64000 -0.154
79.66000 -0.775
79.68000 -1.907
79.70000 -1.654
79.72000 3.409
79.74000 7.825
79.76000 -0.748
79.78000 2.122
79.80000 2.910
79.82000 4.411
79.84000 3.188
79.86000 4.555
79.88000 2.191
79.90000 5.482
79.92000 1.098
79.94000 1.814
79.96000 -2.283
79.98000 3.048
80.00000 3.226
80.02000 2.322
80.04000 -1.863
80.06000 -1.271
80.08000 3.211
80.10000 4.544
80.12000 4.701
80.14000 3.978
80.16000 4.040
80.18000 4.149
80.20000 3.790
80.22000 -0.600
80.24000 -2.374
80.26000 2.203
80.28000 0.830
80.30000 1.259
80.32000 4.711
80.34000 4.565
80.36000 -2.102
80.38000 -0.459
80.40000 2.084
80.42000 1.973
80.44000 0.075
80.46000 0.983
80.48000 1.058
80.50000 0.344
80.52000 5.075
80.54000 2.600
80.56000 2.098
80.58000 0.868
80.60000 1.997
80.62000 -0.411
80.64000 0.863
80.66000 3.311
80.68000 0.069
80.70000 -0.429
80.72000 1.752
80.74000 3.291
80.76000 3.345
80.78000 3.649
80.80000 0.295
80.82000 0.347
80.84000 1.842
80.86000 5.258
80.88000 3.841
80.90000 3.204
80.92000 2.231
80.94000 -0.775
80.96000 0.432
80.98000 1.930
81.00000 1.857
81.02000 3.476
81.04000 0.101
81.06000 2.022
81.08000 4.846
81.10000 5.374
81.12000 4.614
81.14000 4.788
81.16000 6.133
81.18000 7.537
81.20000 6.785
81.22000 3.720
81.24000 7.380
81.26000 9.672
81.28000 9.653
81.30000 11.405
81.32000 8.548
81.34000 3.132
81.36000 3.581
81.38000 6.056
81.40000 0.833
81.42000 3.817
81.44000 5.740
81.46000 8.593
81.48000 10.922
81.50000 12.026
81.52000 7.882
81.54000 6.820
81.56000 6.541
81.58000 9.760
81.60000 9.998
81.62000 12.794
81.64000 11.071
81.66000 13.668
81.68000 15.314
81.70000 12.668
81.72000 14.230
81.74000 8.213
81.76000 10.060
81.78000 16.974
81.80000 13.304
81.82000 9.630
81.84000 16.199
81.86000 12.858
81.88000 15.714
81.90000 15.574
81.92000 15.152
81.94000 17.975
81.96000 19.273
81.98000 15.937
82.00000 17.376
82.02000 18.783
82.04000 20.318
82.06000 22.024
82.08000 24.253
82.10000 21.860
82.12000 23.512
82.14000 27.799
82.16000 27.106
82.18000 23.562
82.20000 23.164
82.22000 22.304
82.24000 24.798
82.26000 24.149
82.28000 22.153
82.30000 24.327
82.32000 29.515
82.34000 28.729
82.36000 26.338
82.38000 23.627
82.40000 26.549
82.42000 31.087
82.44000 28.993
82.46000 30.531
82.48000 26.750
82.50000 31.536
82.52000 36.661
82.54000 35.086
82.56000 33.853
82.58000 33.009
82.60000 33.556
82.62000 30.469
82.64000 31.285
82.66000 30.892
82.68000 29.525
82.70000 32.253
82.72000 33.654
82.74000 33.051
82.76000 34.268
82.78000 33.203
82.80000 31.895
82.82000 31.996
82.84000 34.896
82.86000 37.187
82.88000 32.969
82.90000 29.173
82.92000 28.928
82.94000 26.939
82.96000 30.534
82.98000 31.104
83.00000 31.155
83.02000 29.563
83.04000 28.357
83.06000 30.907
83.08000 30.752
83.10000 27.199
83.12000 26.383
83.14000 27.095
83.16000 28.052
83.18000 27.127
83.20000 28.686
83.22000 25.822
83.24000 25.428
83.26000 22.713
83.28000 22.626
83.30000 20.516
83.32000 18.065
83.34000 20.113
83.36000 20.302
83.38000 17.016
83.40000 18.728
83.42000 23.776
83.44000 24.313
83.46000 24.706
83.48000 20.486
83.50000 17.477
83.52000 14.680
83.54000 16.999
83.56000 19.038
83.58000 14.255
83.60000 11.216
83.62000 13.713
83.64000 16.137
83.66000 16.797
83.68000 17.408
83.70000 19.998
83.72000 16.129
83.74000 12.174
83.76000 8.945
83.78000 7.837
83.80000 15.840
83.82000 13.678
83.84000 14.573
83.86000 16.294
83.88000 15.752
83.90000 8.231
83.92000 8.397
83.94000 7.752
83.96000 7.381
83.98000 7.032
84.00000 9.505
84.02000 10.076
84.04000 12.243
84.06000 10.497
84.08000 9.843
84.10000 6.492
84.12000 8.492
84.14000 6.798
84.16000 6.743
84.18000 4.549
84.20000 3.393
84.22000 3.813
84.24000 2.416
84.26000 4.156
84.28000 5.469
84.30000 10.182
84.32000 11.560
84.34000 9.780
84.36000 5.690
84.38000 6.372
84.40000 5.778
84.42000 4.490
84.44000 7.215
84.46000 5.821
84.48000 7.320
84.50000 6.583
84.52000 8.992
84.54000 8.609
84.56000 9.000
84.58000 6.351
84.60000 8.407
84.62000 6.431
84.64000 6.408
84.66000 6.881
84.68000 8.483
84.70000 7.259
84.72000 4.107
84.74000 2.441
84.76000 3.096
84.78000 2.593
84.80000 -2.264
84.82000 6.521
84.84000 7.799
84.86000 10.353
84.88000 11.980
84.90000 8.920
84.92000 6.703
84.94000 6.970
84.96000 6.718
84.98000 5.783
85.00000 4.561
85.02000 7.712
85.04000 5.415
85.06000 6.212
85.08000 4.616
85.10000 8.471
85.12000 5.672
85.14000 5.569
85.16000 5.198
85.18000 1.862
85.20000 2.813
85.22000 3.577
85.24000 6.131
85.26000 6.280
85.28000 9.089
85.30000 1.679
85.32000 1.938
85.34000 8.521
85.36000 5.753
85.38000 3.998
85.40000 0.885
85.42000 -2.320
85.44000 -1.875
85.46000 3.175
85.48000 6.418
85.50000 2.081
85.52000 3.446
85.54000 3.330
85.56000 2.915
85.58000 2.155
85.60000 1.041
85.62000 0.794
85.64000 0.489
85.66000 2.450
85.68000 0.091
85.70000 0.545
85.72000 0.531
85.74000 -0.519
85.76000 0.710
85.78000 1.960
85.80000 2.330
85.82000 5.399
85.84000 2.261
85.86000 2.808
85.88000 -1.583
85.90000 3.831
85.92000 3.341
85.94000 5.621
85.96000 6.655
85.98000 5.902
86.00000 4.918
86.02000 8.298
86.04000 5.971
86.06000 5.692
86.08000 4.786
86.10000 5.762
86.12000 5.645
86.14000 6.472
86.16000 8.665
86.18000 6.904
86.20000 6.232
86.22000 3.375
86.24000 8.288
86.26000 8.274
86.28000 3.305
86.30000 0.453
86.32000 5.120
86.34000 5.131
86.36000 7.478
86.38000 8.012
86.40000 10.716
86.42000 10.276
86.44000 12.969
86.46000 11.988
86.48000 7.737
86.50000 7.425
86.52000 6.953
86.54000 12.136
86.56000 13.121
86.58000 10.482
86.60000 8.991
86.62000 10.681
86.64000 11.889
86.66000 13.619
86.68000 9.847
86.70000 13.815
86.72000 13.533
86.74000 16.768
86.76000 17.767
86.78000 17.325
86.80000 17.366
86.82000 11.189
86.84000 15.010
86.86000 16.639
86.88000 13.195
86.90000 10.898
86.92000 11.743
86.94000 11.916
86.96000 14.662
86.98000 11.370
87.00000 13.988
87.02000 16.620
87.04000 19.378
87.06000 17.833
87.08000 15.798
87.10000 10.998
87.12000 12.478
87.14000 18.313
87.16000 19.570
87.18000 19.230
87.20000 19.577
87.22000 22.274
87.24000 19.263
87.26000 14.915
87.28000 18.963
87.30000 17.954
87.32000 16.262
87.34000 17.773
87.36000 20.442
87.38000 17.908
87.40000 16.272
87.42000 16.452
87.44000 13.839
87.46000 12.081
87.48000 10.909
87.50000 12.171
87.52000 8.245
87.54000 13.484
87.56000 12.332
87.58000 9.701
87.60000 4.896
87.62000 11.521
87.64000 12.878
87.66000 11.762
87.68000 5.285
87.70000 9.052
87.72000 10.200
87.74000 11.013
87.76000 11.741
87.78000 12.704
87.80000 8.678
87.82000 9.741
87.84000 8.024
87.86000 6.290
87.88000 7.731
87.90000 8.003
87.92000 3.973
87.94000 5.015
87.96000 4.812
87.98000 7.918
88.00000 3.654
88.02000 4.368
88.04000 6.515
88.06000 3.879
88.08000 5.571
88.10000 5.407
88.12000 7.235
88.14000 7.148
88.16000 5.950
88.18000 1.675
88.20000 0.944
88.22000 3.472
88.24000 2.125
88.26000 -2.271
88.28000 -1.418
88.30000 -0.253
88.32000 2.676
88.34000 3.905
88.36000 9.291
88.38000 7.642
88.40000 4.615
88.42000 0.522
88.44000 -0.835
88.46000 2.257
88.48000 4.588
88.50000 5.687
88.52000 0.594
88.54000 -0.112
88.56000 2.489
88.58000 2.365
88.60000 0.875
88.62000 3.668
88.64000 2.102
88.66000 0.667
88.68000 2.816
88.70000 3.344
88.72000 -0.457
88.74000 -0.072
88.76000 6.299
88.78000 -0.017
88.80000 -2.199
88.82000 -0.518
88.84000 1.336
88.86000 1.518
88.88000 0.020
88.90000 2.826
88.92000 2.913
88.94000 -2.150
88.96000 0.103
88.98000 1.784
89.00000 0.261
89.02000 3.588
89.04000 4.288
89.06000 3.421
89.08000 0.391
89.10000 -2.162
89.12000 -0.212
89.14000 1.895
89.16000 0.686
89.18000 -0.412
89.20000 2.972
89.22000 0.913
89.24000 3.142
89.26000 2.650
89.28000 1.408
89.30000 1.797
89.32000 3.014
89.34000 1.565
89.36000 0.414
89.38000 -1.626
89.40000 0.639
89.42000 1.145
89.44000 -1.427
89.46000 -0.611
89.48000 -1.243
89.50000 -0.111
89.52000 -0.026
89.54000 4.550
89.56000 4.712
89.58000 4.557
89.60000 3.689
89.62000 4.538
89.64000 1.997
89.66000 6.051
89.68000 4.127
89.70000 1.278
89.72000 4.217
89.74000 2.184
89.76000 1.210
89.78000 -1.434
89.80000 4.389
89.82000 5.240
89.84000 0.803
89.86000 -2.055
89.88000 1.343
89.90000 4.104
89.92000 2.053
89.94000 0.186
89.96000 0.868
89.98000 3.585
90.00000 3.054
90.02000 1.276
90.04000 3.530
90.06000 5.634
90.08000 4.046
90.10000 -1.431
90.12000 -1.372
90.14000 3.208
90.16000 -0.348
90.18000 -0.425
90.20000 4.493
90.22000 6.677
90.24000 4.116
90.26000 1.049
90.28000 3.805
90.30000 6.129
90.32000 3.338
90.34000 4.569
90.36000 4.305
90.38000 4.024
90.40000 4.724
90.42000 6.144
90.44000 6.454
90.46000 5.735
90.48000 7.728
90.50000 7.306
90.52000 3.969
90.54000 2.092
90.56000 3.600
90.58000 6.479
90.60000 5.898
90.62000 2.872
90.64000 3.020
90.66000 3.510
90.68000 -2.050
90.70000 0.665
90.72000 4.561
90.74000 7.103
90.76000 7.315
90.78000 6.509
90.80000 5.645
90.82000 1.819
90.84000 3.288
90.86000 7.611
90.88000 8.081
90.90000 9.386
90.92000 3.012
90.94000 4.357
90.96000 7.062
90.98000 5.896
91.00000 7.794
91.02000 6.342
91.04000 7.472
91.06000 7.048
91.08000 5.434
91.10000 7.323
91.12000 7.396
91.14000 7.244
91.16000 12.919
91.18000 7.558
91.20000 -2.072
91.22000 1.879
91.24000 6.315
91.26000 9.937
91.28000 7.903
91.30000 5.884
91.32000 4.381
91.34000 0.735
91.36000 2.614
91.38000 4.934
91.40000 2.694
91.42000 2.222
91.44000 -1.557
91.46000 2.154
91.48000 3.619
91.50000 6.660
91.52000 1.573
91.54000 3.837
91.56000 4.860
91.58000 5.363
91.60000 2.004
91.62000 5.092
91.64000 2.639
91.66000 -0.165
91.68000 4.762
91.70000 9.564
91.72000 2.075
91.74000 2.970
91.76000 7.647
91.78000 3.649
91.80000 1.651
91.82000 0.199
91.84000 4.701
91.86000 8.509
91.88000 3.139
91.90000 2.918
91.92000 3.378
91.94000 3.680
91.96000 2.919
91.98000 3.036
92.00000 1.632
92.02000 6.183
92.04000 3.446
92.06000 4.357
92.08000 6.237
92.10000 3.874
92.12000 7.534
92.14000 6.721
92.16000 5.220
92.18000 5.835
92.20000 3.171
92.22000 1.789
92.24000 4.853
92.26000 5.534
92.28000 3.590
92.30000 4.927
92.32000 2.738
92.34000 -0.248
92.36000 5.109
92.38000 5.264
92.40000 0.367
92.42000 0.325
92.44000 1.267
92.46000 2.438
92.48000 1.275
92.50000 3.348
92.52000 3.119
92.54000 1.650
92.56000 5.462
92.58000 4.553
92.60000 4.138
92.62000 2.554
92.64000 4.561
92.66000 -0.154
92.68000 -0.412
92.70000 3.119
92.72000 1.274
92.74000 2.119
92.76000 5.221
92.78000 4.960
92.80000 3.297
92.82000 1.907
92.84000 4.275
92.86000 2.789
92.88000 2.105
92.90000 1.610
92.92000 1.426
92.94000 3.040
92.96000 2.308
92.98000 3.366
93.00000 2.900
93.02000 0.568
93.04000 2.976
93.06000 3.471
93.08000 2.817
93.10000 3.223
93.12000 4.334
93.14000 4.126
93.16000 3.951
93.18000 7.065
93.20000 3.177
93.22000 -0.639
93.24000 -0.501
93.26000 0.645
93.28000 -2.118
93.30000 3.909
93.32000 5.279
93.34000 -0.007
93.36000 -1.180
93.38000 2.376
93.40000 2.792
93.42000 1.892
93.44000 1.823
93.46000 3.325
93.48000 5.265
93.50000 5.163
93.52000 0.475
93.54000 0.603
93.56000 2.532
93.58000 3.619
93.60000 4.038
93.62000 2.137
93.64000 1.926
93.66000 4.347
93.68000 3.768
93.70000 3.508
93.72000 8.140
93.74000 3.693
93.76000 3.200
93.78000 4.507
93.80000 5.636
93.82000 2.981
93.84000 2.316
93.86000 4.160
93.88000 2.616
93.90000 0.473
93.92000 2.427
93.94000 5.541
93.96000 1.544
93.98000 -0.613
94.00000 2.699
94.02000 6.323
94.04000 9.682
94.06000 4.674
94.08000 -0.046
94.10000 2.110
94.12000 5.300
94.14000 0.257
94.16000 -2.152
94.18000 -1.338
94.20000 1.628
94.22000 1.255
94.24000 1.556
94.26000 1.621
94.28000 2.335
94.30000 0.404
94.32000 1.159
94.34000 2.085
94.36000 -0.206
94.38000 0.048
94.40000 -1.920
94.42000 0.119
94.44000 1.586
94.46000 1.866
94.48000 4.928
94.50000 2.794
94.52000 2.425
94.54000 4.529
94.56000 2.432
94.58000 2.961
94.60000 1.193
94.62000 1.041
94.64000 -0.682
94.66000 -1.781
94.68000 1.571
94.70000 0.375
94.72000 4.326
94.74000 4.374
94.76000 6.529
94.78000 -0.685
94.80000 2.749
94.82000 5.400
94.84000 6.011
94.86000 3.867
94.88000 2.053
94.90000 8.969
94.92000 7.523
94.94000 4.076
94.96000 1.637
94.98000 1.705
95.00000 2.518
95.02000 -2.169
95.04000 0.219
95.06000 1.159
95.08000 4.290
95.10000 6.901
95.12000 4.706
95.14000 3.420
95.16000 6.778
95.18000 6.301
95.20000 1.050
95.22000 4.693
95.24000 5.819
95.26000 2.611
95.28000 3.833
95.30000 6.080
95.32000 4.710
95.34000 7.295
95.36000 6.258
95.38000 2.597
95.40000 0.818
95.42000 -1.019
95.44000 -0.041
95.46000 0.731
95.48000 1.803
95.50000 0.777
95.52000 2.772
95.54000 6.556
95.56000 5.768
95.58000 8.118
95.60000 1.141
95.62000 1.838
95.64000 1.660
95.66000 -1.117
95.68000 -0.050
95.70000 2.813
95.72000 5.630
95.74000 3.583
95.76000 4.472
95.78000 1.215
95.80000 5.718
95.82000 8.300
95.84000 4.801
95.86000 1.644
95.88000 4.882
95.90000 2.359
95.92000 1.798
95.94000 2.155
95.96000 -2.130
95.98000 5.424
96.00000 9.675
96.02000 2.854
96.04000 4.245
96.06000 6.782
96.08000 5.986
96.10000 3.058
96.12000 0.207
96.14000 1.219
96.16000 7.229
96.18000 6.083
96.20000 4.864
96.22000 -1.252
96.24000 1.412
96.26000 3.135
96.28000 4.594
96.30000 6.008
96.32000 5.828
96.34000 5.926
96.36000 2.679
96.38000 6.610
96.40000 11.990
96.42000 13.003
96.44000 8.475
96.46000 2.850
96.48000 4.671
96.50000 7.231
96.52000 1.708
96.54000 3.481
96.56000 5.303
96.58000 4.213
96.60000 3.881
96.62000 2.320
96.64000 1.548
96.66000 6.890
96.68000 10.036
96.70000 11.069
96.72000 6.121
96.74000 4.113
96.76000 3.841
96.78000 4.680
96.80000 13.005
96.82000 5.851
96.84000 1.476
96.86000 0.643
96.88000 8.153
96.90000 9.362
96.92000 4.990
96.94000 9.251
96.96000 5.852
96.98000 4.032
97.00000 6.239
97.02000 6.802
97.04000 6.639
97.06000 6.985
97.08000 5.548
97.10000 1.296
97.12000 5.552
97.14000 7.829
97.16000 3.424
97.18000 4.140
97.20000 1.364
97.22000 -2.085
97.24000 3.051
97.26000 2.920
97.28000 4.501
97.30000 2.143
97.32000 5.996
97.34000 7.172
97.36000 7.869
97.38000 1.055
97.40000 4.091
97.42000 5.005
97.44000 12.076
97.46000 7.117
97.48000 6.754
97.50000 0.230
97.52000 4.107
97.54000 7.812
97.56000 3.667
97.58000 2.416
97.60000 2.481
97.62000 2.731
97.64000 9.978
97.66000 8.300
97.68000 9.618
97.70000 5.888
97.72000 2.266
97.74000 2.403
97.76000 6.164
97.78000 3.117
97.80000 1.736
97.82000 5.226
97.84000 4.836
97.86000 6.167
97.88000 9.220
97.90000 2.693
97.92000 2.639
97.94000 5.617
97.96000 6.348
97.98000 3.495
98.00000 9.954
98.02000 1.504
98.04000 0.581
98.06000 4.951
98.08000 2.118
98.10000 0.601
98.12000 1.831
98.14000 7.324
98.16000 1.746
98.18000 2.787
98.20000 1.510
98.22000 4.576
98.24000 5.118
98.26000 6.528
98.28000 7.199
98.30000 2.606
98.32000 4.586
98.34000 6.136
98.36000 7.321
98.38000 10.004
98.40000 13.538
98.42000 2.568
98.44000 1.501
98.46000 -2.080
98.48000 3.633
98.50000 3.052
98.52000 -0.343
98.54000 0.004
98.56000 2.448
98.58000 6.982
98.60000 4.689
98.62000 5.370
98.64000 6.716
98.66000 8.401
98.68000 6.960
98.70000 2.906
98.72000 3.509
98.74000 3.638
98.76000 -2.078
98.78000 5.534
98.80000 6.599
98.82000 10.612
98.84000 7.681
98.86000 2.841
98.88000 4.915
98.90000 6.885
98.92000 5.094
98.94000 -0.529
98.96000 0.767
98.98000 4.109
99.00000 -2.012
99.02000 -0.530
99.04000 6.603
99.06000 4.421
99.08000 5.664
99.10000 8.414
99.12000 12.107
99.14000 8.166
99.16000 1.118
99.18000 1.751
99.20000 2.592
99.22000 3.246
99.24000 5.425
99.26000 8.493
99.28000 9.067
99.30000 11.589
99.32000 15.558
99.34000 14.226
99.36000 7.192
99.38000 8.078
99.40000 5.993
99.42000 6.629
99.44000 13.435
99.46000 14.026
99.48000 13.236
99.50000 0.015
99.52000 3.441
99.54000 8.479
99.56000 19.129
99.58000 18.695
99.60000 11.341
99.62000 2.039
99.64000 11.047
99.66000 11.350
99.68000 15.214
99.70000 2.130
99.72000 -0.729
99.74000 -2.025
99.76000 5.914
99.78000 15.794
99.80000 9.208
99.82000 7.315
99.84000 4.284
99.86000 8.901
99.88000 5.002
99.90000 2.970
99.92000 -2.186
99.94000 -2.222
99.96000 -0.267
99.98000 0.000
