'Id: "0011387" Comment: "Integrate frame 0011387_Au-Ir-Rh_Rh-rich_XRD-Mapping-148-0000.gfrmwith cursor Wedge Cursor #5" Operator: "B?rgel" Anode: "Cu" Wavelength: "1.5406" Scantype: "2Theta (TwoTheta)" TimePerStep: "1" X: "9" Y: "-4.5" Z: "5.95" 
10.00000 0.000
10.02000 -4.017
10.04000 -3.937
10.06000 8.997
10.08000 8.296
10.10000 16.799
10.12000 6.295
10.14000 18.192
10.16000 5.594
10.18000 -3.818
10.20000 -3.653
10.22000 -3.322
10.24000 16.256
10.26000 19.533
10.28000 13.852
10.30000 25.131
10.32000 36.679
10.34000 29.205
10.36000 14.610
10.38000 13.121
10.40000 17.566
10.42000 22.877
10.44000 20.534
10.46000 25.757
10.48000 26.427
10.50000 17.135
10.52000 7.883
10.54000 16.037
10.56000 21.233
10.58000 23.874
10.60000 24.437
10.62000 25.425
10.64000 27.497
10.66000 27.137
10.68000 15.435
10.70000 16.900
10.72000 12.962
10.74000 13.739
10.76000 29.679
10.78000 37.077
10.80000 22.746
10.82000 23.362
10.84000 22.858
10.86000 28.654
10.88000 23.959
10.90000 9.968
10.92000 11.586
10.94000 28.724
10.96000 40.747
10.98000 18.565
11.00000 20.244
11.02000 18.816
11.04000 18.132
11.06000 14.672
11.08000 25.124
11.10000 27.028
11.12000 26.599
11.14000 27.353
11.16000 14.943
11.18000 20.000
11.20000 23.192
11.22000 22.855
11.24000 29.356
11.26000 24.093
11.28000 27.788
11.30000 32.032
11.32000 33.221
11.34000 32.819
11.36000 36.074
11.38000 34.515
11.40000 30.384
11.42000 34.786
11.44000 30.923
11.46000 24.635
11.48000 17.302
11.50000 11.999
11.52000 19.179
11.54000 22.151
11.56000 9.675
11.58000 13.735
11.60000 20.879
11.62000 20.963
11.64000 15.744
11.66000 15.631
11.68000 15.728
11.70000 22.621
11.72000 37.346
11.74000 35.646
11.76000 26.884
11.78000 15.284
11.80000 23.268
11.82000 21.720
11.84000 17.510
11.86000 27.860
11.88000 23.954
11.90000 19.409
11.92000 22.237
11.94000 18.801
11.96000 26.441
11.98000 23.206
12.00000 28.265
12.02000 19.548
12.04000 14.551
12.06000 24.710
12.08000 27.547
12.10000 26.010
12.12000 26.199
12.14000 22.891
12.16000 16.131
12.18000 16.973
12.20000 19.038
12.22000 28.183
12.24000 24.624
12.26000 23.073
12.28000 22.058
12.30000 24.569
12.32000 26.178
12.34000 15.908
12.36000 9.039
12.38000 19.768
12.40000 28.073
12.42000 34.427
12.44000 31.199
12.46000 28.419
12.48000 27.703
12.50000 17.326
12.52000 24.143
12.54000 29.032
12.56000 26.224
12.58000 19.410
12.60000 33.692
12.62000 29.159
12.64000 23.401
12.66000 22.526
12.68000 23.072
12.70000 16.670
12.72000 15.857
12.74000 19.322
12.76000 16.608
12.78000 23.606
12.80000 29.710
12.82000 29.403
12.84000 29.253
12.86000 29.904
12.88000 25.348
12.90000 10.407
12.92000 15.092
12.94000 26.365
12.96000 20.274
12.98000 17.959
13.00000 24.725
13.02000 18.172
13.04000 25.537
13.06000 20.855
13.08000 9.537
13.10000 10.740
13.12000 19.989
13.14000 24.023
13.16000 15.611
13.18000 14.325
13.20000 22.868
13.22000 20.142
13.24000 20.077
13.26000 14.463
13.28000 19.322
13.30000 11.797
13.32000 9.521
13.34000 28.849
13.36000 31.605
13.38000 33.188
13.40000 23.338
13.42000 25.040
13.44000 30.048
13.46000 18.399
13.48000 16.803
13.50000 16.989
13.52000 22.543
13.54000 20.077
13.56000 15.329
13.58000 11.930
13.60000 15.767
13.62000 6.176
13.64000 5.182
13.66000 19.125
13.68000 24.634
13.70000 24.903
13.72000 23.446
13.74000 19.400
13.76000 22.066
13.78000 21.395
13.80000 16.285
13.82000 13.842
13.84000 7.236
13.86000 13.480
13.88000 23.502
13.90000 23.054
13.92000 18.478
13.94000 16.383
13.96000 23.500
13.98000 19.520
14.00000 25.610
14.02000 29.673
14.04000 23.968
14.06000 16.828
14.08000 12.070
14.10000 14.878
14.12000 13.507
14.14000 16.036
14.16000 15.895
14.18000 19.648
14.20000 15.385
14.22000 13.470
14.24000 15.767
14.26000 18.383
14.28000 17.174
14.30000 8.771
14.32000 9.315
14.34000 13.368
14.36000 13.928
14.38000 19.910
14.40000 9.267
14.42000 9.269
14.44000 13.875
14.46000 22.720
14.48000 17.398
14.50000 13.232
14.52000 10.133
14.54000 10.136
14.56000 15.348
14.58000 18.865
14.60000 9.734
14.62000 12.858
14.64000 14.460
14.66000 7.043
14.68000 2.750
14.70000 14.131
14.72000 12.198
14.74000 9.635
14.76000 8.214
14.78000 9.246
14.80000 10.515
14.82000 14.402
14.84000 18.010
14.86000 12.764
14.88000 18.229
14.90000 11.297
14.92000 14.494
14.94000 15.143
14.96000 6.257
14.98000 3.964
15.00000 13.075
15.02000 17.055
15.04000 11.242
15.06000 11.525
15.08000 20.773
15.10000 13.432
15.12000 9.089
15.14000 7.344
15.16000 10.843
15.18000 13.472
15.20000 12.947
15.22000 16.032
15.24000 6.412
15.26000 4.654
15.28000 12.604
15.30000 10.796
15.32000 14.607
15.34000 12.539
15.36000 3.563
15.38000 -4.402
15.40000 10.222
15.42000 12.125
15.44000 7.738
15.46000 8.599
15.48000 6.221
15.50000 7.766
15.52000 11.085
15.54000 17.427
15.56000 11.522
15.58000 1.700
15.60000 1.516
15.62000 -1.271
15.64000 0.383
15.66000 6.957
15.68000 17.071
15.70000 9.421
15.72000 3.473
15.74000 4.516
15.76000 13.837
15.78000 14.672
15.80000 13.932
15.82000 18.800
15.84000 18.073
15.86000 18.814
15.88000 3.847
15.90000 0.277
15.92000 5.458
15.94000 8.791
15.96000 6.725
15.98000 3.476
16.00000 1.478
16.02000 9.462
16.04000 5.957
16.06000 0.172
16.08000 -0.628
16.10000 7.312
16.12000 -3.139
16.14000 1.479
16.16000 -0.390
16.18000 5.344
16.20000 8.125
16.22000 6.802
16.24000 6.347
16.26000 3.497
16.28000 1.391
16.30000 5.851
16.32000 7.311
16.34000 -3.488
16.36000 15.604
16.38000 10.054
16.40000 9.344
16.42000 7.295
16.44000 7.374
16.46000 12.702
16.48000 14.023
16.50000 10.473
16.52000 14.278
16.54000 16.692
16.56000 5.349
16.58000 -4.392
16.60000 0.489
16.62000 -1.407
16.64000 -1.177
16.66000 0.826
16.68000 4.610
16.70000 10.049
16.72000 9.501
16.74000 14.352
16.76000 11.226
16.78000 12.529
16.80000 3.822
16.82000 5.020
16.84000 3.165
16.86000 4.440
16.88000 3.294
16.90000 3.382
16.92000 4.190
16.94000 11.872
16.96000 10.737
16.98000 10.705
17.00000 10.789
17.02000 14.212
17.04000 13.007
17.06000 7.352
17.08000 14.025
17.10000 11.280
17.12000 9.670
17.14000 -0.031
17.16000 -1.041
17.18000 3.042
17.20000 6.852
17.22000 7.473
17.24000 5.710
17.26000 -1.219
17.28000 0.811
17.30000 5.221
17.32000 0.780
17.34000 2.740
17.36000 11.886
17.38000 11.666
17.40000 3.256
17.42000 4.755
17.44000 6.609
17.46000 3.028
17.48000 1.430
17.50000 9.453
17.52000 11.200
17.54000 3.919
17.56000 2.651
17.58000 8.949
17.60000 8.833
17.62000 4.493
17.64000 4.068
17.66000 7.353
17.68000 5.498
17.70000 0.555
17.72000 5.742
17.74000 12.633
17.76000 7.483
17.78000 6.162
17.80000 7.038
17.82000 0.162
17.84000 -3.870
17.86000 3.549
17.88000 2.507
17.90000 5.330
17.92000 5.097
17.94000 9.184
17.96000 8.619
17.98000 9.252
18.00000 5.988
18.02000 7.780
18.04000 6.697
18.06000 3.172
18.08000 3.618
18.10000 2.880
18.12000 5.750
18.14000 -1.027
18.16000 4.203
18.18000 -0.168
18.20000 -2.665
18.22000 10.389
18.24000 14.073
18.26000 0.157
18.28000 2.778
18.30000 3.054
18.32000 1.513
18.34000 1.615
18.36000 2.570
18.38000 5.557
18.40000 12.250
18.42000 13.630
18.44000 6.846
18.46000 8.832
18.48000 12.717
18.50000 12.979
18.52000 -1.679
18.54000 4.295
18.56000 9.933
18.58000 17.386
18.60000 12.557
18.62000 13.891
18.64000 10.848
18.66000 5.875
18.68000 4.431
18.70000 6.741
18.72000 6.571
18.74000 5.084
18.76000 8.918
18.78000 4.246
18.80000 5.014
18.82000 8.572
18.84000 8.298
18.86000 7.757
18.88000 8.284
18.90000 9.496
18.92000 7.232
18.94000 6.133
18.96000 5.146
18.98000 4.028
19.00000 8.161
19.02000 7.783
19.04000 2.898
19.06000 9.719
19.08000 2.813
19.10000 1.084
19.12000 -4.220
19.14000 5.097
19.16000 8.612
19.18000 9.865
19.20000 8.365
19.22000 4.957
19.24000 4.608
19.26000 11.981
19.28000 9.821
19.30000 7.754
19.32000 5.863
19.34000 7.262
19.36000 10.733
19.38000 5.818
19.40000 10.628
19.42000 15.545
19.44000 11.818
19.46000 10.460
19.48000 4.656
19.50000 -1.496
19.52000 12.484
19.54000 16.474
19.56000 7.029
19.58000 5.749
19.60000 11.279
19.62000 12.436
19.64000 8.548
19.66000 5.023
19.68000 11.265
19.70000 9.752
19.72000 6.308
19.74000 10.737
19.76000 12.043
19.78000 12.144
19.80000 17.126
19.82000 14.817
19.84000 10.517
19.86000 13.022
19.88000 14.357
19.90000 9.668
19.92000 9.555
19.94000 2.640
19.96000 -4.139
19.98000 -0.364
20.00000 5.244
20.02000 14.074
20.04000 10.585
20.06000 12.060
20.08000 11.642
20.10000 1.746
20.12000 7.544
20.14000 11.663
20.16000 7.646
20.18000 7.696
20.20000 2.284
20.22000 7.645
20.24000 10.993
20.26000 8.660
20.28000 11.213
20.30000 3.825
20.32000 -1.528
20.34000 3.741
20.36000 9.692
20.38000 11.638
20.40000 12.583
20.42000 11.891
20.44000 7.156
20.46000 6.545
20.48000 3.850
20.50000 8.709
20.52000 5.375
20.54000 5.491
20.56000 11.246
20.58000 13.030
20.60000 4.453
20.62000 6.362
20.64000 13.256
20.66000 7.817
20.68000 12.580
20.70000 10.233
20.72000 10.866
20.74000 10.224
20.76000 9.843
20.78000 18.440
20.80000 17.072
20.82000 14.844
20.84000 13.283
20.86000 4.029
20.88000 9.721
20.90000 7.659
20.92000 2.432
20.94000 6.367
20.96000 6.326
20.98000 8.982
21.00000 6.707
21.02000 7.580
21.04000 8.530
21.06000 8.021
21.08000 7.035
21.10000 8.470
21.12000 7.426
21.14000 7.618
21.16000 13.354
21.18000 10.372
21.20000 8.831
21.22000 6.106
21.24000 9.416
21.26000 -0.256
21.28000 -4.099
21.30000 6.012
21.32000 8.676
21.34000 8.907
21.36000 10.972
21.38000 8.954
21.40000 2.737
21.42000 1.962
21.44000 1.463
21.46000 0.671
21.48000 1.699
21.50000 7.850
21.52000 8.996
21.54000 8.882
21.56000 10.311
21.58000 7.514
21.60000 4.789
21.62000 3.780
21.64000 6.137
21.66000 6.320
21.68000 4.519
21.70000 5.178
21.72000 6.376
21.74000 6.766
21.76000 11.286
21.78000 12.803
21.80000 9.310
21.82000 5.886
21.84000 10.071
21.86000 8.103
21.88000 3.160
21.90000 5.562
21.92000 5.276
21.94000 7.579
21.96000 9.203
21.98000 9.305
22.00000 6.285
22.02000 5.143
22.04000 2.736
22.06000 7.162
22.08000 5.937
22.10000 5.590
22.12000 3.835
22.14000 6.349
22.16000 0.937
22.18000 3.820
22.20000 7.316
22.22000 5.211
22.24000 5.958
22.26000 5.382
22.28000 1.349
22.30000 4.932
22.32000 5.988
22.34000 6.660
22.36000 0.601
22.38000 -2.567
22.40000 2.233
22.42000 2.339
22.44000 3.541
22.46000 -0.620
22.48000 -0.996
22.50000 -4.041
22.52000 -0.147
22.54000 7.233
22.56000 8.607
22.58000 13.926
22.60000 9.439
22.62000 0.571
22.64000 0.684
22.66000 -0.248
22.68000 -2.151
22.70000 -3.161
22.72000 -2.408
22.74000 6.445
22.76000 16.706
22.78000 15.668
22.80000 6.897
22.82000 4.735
22.84000 5.093
22.86000 -0.606
22.88000 2.612
22.90000 11.824
22.92000 7.168
22.94000 -0.360
22.96000 2.510
22.98000 -1.146
23.00000 0.035
23.02000 3.520
23.04000 3.763
23.06000 5.221
23.08000 11.210
23.10000 9.780
23.12000 5.765
23.14000 6.305
23.16000 2.644
23.18000 5.511
23.20000 0.948
23.22000 0.977
23.24000 6.589
23.26000 2.332
23.28000 -0.612
23.30000 0.714
23.32000 1.223
23.34000 5.485
23.36000 4.846
23.38000 9.127
23.40000 3.752
23.42000 6.179
23.44000 7.042
23.46000 3.164
23.48000 6.674
23.50000 -0.310
23.52000 -3.613
23.54000 -1.504
23.56000 -2.984
23.58000 3.898
23.60000 5.395
23.62000 1.998
23.64000 -2.117
23.66000 -0.024
23.68000 1.398
23.70000 3.499
23.72000 -0.447
23.74000 1.924
23.76000 5.100
23.78000 -0.263
23.80000 1.940
23.82000 5.798
23.84000 5.881
23.86000 5.171
23.88000 2.717
23.90000 -3.942
23.92000 -1.335
23.94000 1.154
23.96000 2.886
23.98000 9.056
24.00000 8.916
24.02000 5.110
24.04000 6.994
24.06000 12.822
24.08000 3.371
24.10000 1.942
24.12000 -1.395
24.14000 5.317
24.16000 3.825
24.18000 1.144
24.20000 -1.420
24.22000 2.710
24.24000 3.348
24.26000 -1.948
24.28000 -2.004
24.30000 7.831
24.32000 9.773
24.34000 6.103
24.36000 4.674
24.38000 6.117
24.40000 0.273
24.42000 -0.570
24.44000 -0.026
24.46000 5.194
24.48000 -1.206
24.50000 2.067
24.52000 4.267
24.54000 0.990
24.56000 0.800
24.58000 3.712
24.60000 0.537
24.62000 3.424
24.64000 5.434
24.66000 4.573
24.68000 5.037
24.70000 4.719
24.72000 5.079
24.74000 2.663
24.76000 6.498
24.78000 5.392
24.80000 1.038
24.82000 1.103
24.84000 0.476
24.86000 1.756
24.88000 1.710
24.90000 2.919
24.92000 5.069
24.94000 -3.947
24.96000 0.339
24.98000 7.961
25.00000 2.597
25.02000 0.839
25.04000 2.354
25.06000 2.411
25.08000 3.077
25.10000 -3.931
25.12000 -3.727
25.14000 2.067
25.16000 3.485
25.18000 5.398
25.20000 5.748
25.22000 3.530
25.24000 1.895
25.26000 -0.759
25.28000 -0.245
25.30000 1.011
25.32000 0.243
25.34000 -1.626
25.36000 1.979
25.38000 1.374
25.40000 1.215
25.42000 -3.148
25.44000 -0.944
25.46000 2.631
25.48000 5.197
25.50000 2.062
25.52000 -2.286
25.54000 0.264
25.56000 -3.054
25.58000 2.115
25.60000 6.321
25.62000 0.256
25.64000 0.724
25.66000 1.498
25.68000 -0.502
25.70000 4.957
25.72000 7.518
25.74000 8.170
25.76000 1.642
25.78000 6.863
25.80000 5.973
25.82000 2.854
25.84000 -2.505
25.86000 -2.478
25.88000 2.345
25.90000 0.695
25.92000 1.812
25.94000 5.034
25.96000 11.843
25.98000 0.795
26.00000 -1.278
26.02000 -0.336
26.04000 3.153
26.06000 5.257
26.08000 4.701
26.10000 1.888
26.12000 1.072
26.14000 9.183
26.16000 1.915
26.18000 1.251
26.20000 4.802
26.22000 10.362
26.24000 8.559
26.26000 2.201
26.28000 -2.427
26.30000 0.552
26.32000 1.521
26.34000 3.615
26.36000 2.088
26.38000 -3.861
26.40000 -2.249
26.42000 6.243
26.44000 3.880
26.46000 7.106
26.48000 8.234
26.50000 -0.851
26.52000 -2.517
26.54000 -3.854
26.56000 1.593
26.58000 6.165
26.60000 7.797
26.62000 9.251
26.64000 5.401
26.66000 -1.609
26.68000 -1.119
26.70000 4.847
26.72000 11.571
26.74000 8.906
26.76000 3.237
26.78000 1.229
26.80000 1.138
26.82000 7.168
26.84000 8.758
26.86000 5.138
26.88000 -2.416
26.90000 0.999
26.92000 1.542
26.94000 -3.831
26.96000 2.141
26.98000 5.416
27.00000 0.889
27.02000 0.508
27.04000 4.671
27.06000 0.566
27.08000 -0.495
27.10000 1.954
27.12000 5.822
27.14000 7.055
27.16000 4.866
27.18000 4.790
27.20000 7.078
27.22000 7.920
27.24000 5.958
27.26000 2.056
27.28000 2.730
27.30000 -1.899
27.32000 5.591
27.34000 10.208
27.36000 6.144
27.38000 2.799
27.40000 2.021
27.42000 3.135
27.44000 0.764
27.46000 6.892
27.48000 2.260
27.50000 3.310
27.52000 4.757
27.54000 2.409
27.56000 3.448
27.58000 5.954
27.60000 6.991
27.62000 8.462
27.64000 6.942
27.66000 3.023
27.68000 8.185
27.70000 7.324
27.72000 9.289
27.74000 8.749
27.76000 6.163
27.78000 6.706
27.80000 5.876
27.82000 7.908
27.84000 5.132
27.86000 3.674
27.88000 7.975
27.90000 6.265
27.92000 1.036
27.94000 -3.760
27.96000 -0.974
27.98000 7.090
28.00000 8.414
28.02000 6.589
28.04000 4.358
28.06000 4.926
28.08000 9.300
28.10000 4.602
28.12000 5.610
28.14000 5.051
28.16000 4.516
28.18000 8.012
28.20000 8.261
28.22000 6.470
28.24000 1.275
28.26000 1.878
28.28000 4.787
28.30000 3.055
28.32000 6.386
28.34000 2.829
28.36000 1.768
28.38000 -0.120
28.40000 -1.255
28.42000 -0.518
28.44000 -1.088
28.46000 -2.549
28.48000 1.839
28.50000 11.138
28.52000 9.847
28.54000 9.277
28.56000 1.468
28.58000 1.207
28.60000 0.860
28.62000 2.084
28.64000 3.179
28.66000 4.938
28.68000 6.506
28.70000 11.463
28.72000 10.457
28.74000 3.287
28.76000 0.829
28.78000 3.734
28.80000 4.683
28.82000 4.805
28.84000 1.012
28.86000 5.222
28.88000 3.778
28.90000 3.168
28.92000 3.391
28.94000 5.172
28.96000 5.671
28.98000 7.925
29.00000 8.495
29.02000 5.261
29.04000 1.504
29.06000 0.875
29.08000 5.164
29.10000 5.509
29.12000 6.578
29.14000 5.487
29.16000 4.238
29.18000 -0.338
29.20000 2.867
29.22000 3.790
29.24000 1.448
29.26000 0.697
29.28000 2.457
29.30000 3.683
29.32000 2.612
29.34000 4.761
29.36000 7.191
29.38000 6.310
29.40000 0.011
29.42000 -3.687
29.44000 2.591
29.46000 4.740
29.48000 -1.726
29.50000 1.956
29.52000 4.519
29.54000 4.925
29.56000 -0.169
29.58000 0.267
29.60000 -2.834
29.62000 -3.679
29.64000 6.664
29.66000 1.721
29.68000 6.456
29.70000 6.892
29.72000 8.582
29.74000 5.682
29.76000 2.092
29.78000 -3.394
29.80000 -1.370
29.82000 0.188
29.84000 -0.474
29.86000 -0.138
29.88000 4.318
29.90000 4.320
29.92000 6.830
29.94000 0.938
29.96000 5.010
29.98000 3.514
30.00000 6.209
30.02000 5.161
30.04000 6.035
30.06000 5.338
30.08000 3.800
30.10000 0.083
30.12000 -0.047
30.14000 -0.447
30.16000 -0.116
30.18000 2.810
30.20000 4.932
30.22000 8.978
30.24000 7.055
30.26000 0.412
30.28000 4.174
30.30000 -3.005
30.32000 -3.642
30.34000 -0.052
30.36000 5.179
30.38000 8.020
30.40000 6.191
30.42000 7.736
30.44000 8.663
30.46000 8.256
30.48000 7.266
30.50000 5.666
30.52000 4.840
30.54000 3.721
30.56000 3.095
30.58000 -0.793
30.60000 1.267
30.62000 6.704
30.64000 3.266
30.66000 2.354
30.68000 0.924
30.70000 4.801
30.72000 1.672
30.74000 2.086
30.76000 3.767
30.78000 -1.220
30.80000 0.637
30.82000 -1.407
30.84000 2.407
30.86000 6.588
30.88000 4.341
30.90000 -0.322
30.92000 2.230
30.94000 2.103
30.96000 4.374
30.98000 0.207
31.00000 3.702
31.02000 4.787
31.04000 2.209
31.06000 2.777
31.08000 1.702
31.10000 1.138
31.12000 5.297
31.14000 4.887
31.16000 3.237
31.18000 1.831
31.20000 2.567
31.22000 2.609
31.24000 1.454
31.26000 -1.571
31.28000 -3.628
31.30000 1.659
31.32000 1.173
31.34000 -1.461
31.36000 3.575
31.38000 2.270
31.40000 -2.763
31.42000 1.129
31.44000 8.076
31.46000 6.230
31.48000 0.173
31.50000 1.862
31.52000 2.574
31.54000 0.685
31.56000 3.652
31.58000 5.419
31.60000 0.247
31.62000 0.610
31.64000 -0.475
31.66000 1.775
31.68000 -2.488
31.70000 -3.618
31.72000 -1.765
31.74000 -0.961
31.76000 2.854
31.78000 4.278
31.80000 -1.833
31.82000 0.025
31.84000 2.458
31.86000 -0.873
31.88000 -1.516
31.90000 1.042
31.92000 -0.932
31.94000 -0.509
31.96000 0.634
31.98000 4.568
32.00000 3.629
32.02000 -2.566
32.04000 -3.491
32.06000 1.143
32.08000 6.867
32.10000 4.451
32.12000 2.583
32.14000 -1.268
32.16000 2.696
32.18000 2.190
32.20000 1.498
32.22000 -1.084
32.24000 -0.082
32.26000 2.274
32.28000 -0.113
32.30000 -0.417
32.32000 5.728
32.34000 5.106
32.36000 6.214
32.38000 -2.294
32.40000 -1.404
32.42000 2.241
32.44000 3.966
32.46000 1.372
32.48000 0.890
32.50000 1.688
32.52000 2.305
32.54000 0.752
32.56000 0.098
32.58000 6.689
32.60000 1.220
32.62000 1.965
32.64000 2.077
32.66000 0.230
32.68000 0.213
32.70000 3.184
32.72000 0.865
32.74000 1.976
32.76000 2.077
32.78000 2.016
32.80000 3.917
32.82000 -0.197
32.84000 0.262
32.86000 2.528
32.88000 0.504
32.90000 3.619
32.92000 12.430
32.94000 6.730
32.96000 4.352
32.98000 3.328
33.00000 2.295
33.02000 2.504
33.04000 3.915
33.06000 -0.921
33.08000 3.639
33.10000 5.682
33.12000 2.260
33.14000 1.539
33.16000 3.960
33.18000 3.656
33.20000 4.018
33.22000 2.649
33.24000 -0.588
33.26000 5.835
33.28000 8.848
33.30000 6.977
33.32000 3.286
33.34000 -2.513
33.36000 -3.316
33.38000 3.694
33.40000 0.091
33.42000 -3.519
33.44000 0.084
33.46000 3.851
33.48000 8.234
33.50000 6.124
33.52000 0.918
33.54000 5.929
33.56000 9.463
33.58000 9.486
33.60000 8.316
33.62000 7.674
33.64000 9.720
33.66000 7.548
33.68000 7.135
33.70000 6.115
33.72000 1.489
33.74000 -3.430
33.76000 0.288
33.78000 4.228
33.80000 3.922
33.82000 7.222
33.84000 5.364
33.86000 1.901
33.88000 2.482
33.90000 2.082
33.92000 2.907
33.94000 -0.994
33.96000 -1.372
33.98000 0.089
34.00000 1.514
34.02000 8.199
34.04000 9.596
34.06000 4.291
34.08000 7.417
34.10000 3.297
34.12000 4.481
34.14000 9.305
34.16000 12.623
34.18000 6.051
34.20000 3.615
34.22000 3.642
34.24000 1.524
34.26000 -0.156
34.28000 0.219
34.30000 2.545
34.32000 -0.274
34.34000 2.296
34.36000 1.435
34.38000 -0.646
34.40000 5.600
34.42000 2.197
34.44000 -0.017
34.46000 1.605
34.48000 4.082
34.50000 3.452
34.52000 4.193
34.54000 2.579
34.56000 4.524
34.58000 6.765
34.60000 7.875
34.62000 3.754
34.64000 -2.866
34.66000 3.509
34.68000 4.703
34.70000 1.919
34.72000 0.814
34.74000 5.190
34.76000 3.503
34.78000 0.625
34.80000 1.864
34.82000 1.171
34.84000 0.032
34.86000 -1.609
34.88000 -3.514
34.90000 2.716
34.92000 7.764
34.94000 4.072
34.96000 1.142
34.98000 0.903
35.00000 4.996
35.02000 6.037
35.04000 5.965
35.06000 2.698
35.08000 1.483
35.10000 3.102
35.12000 0.691
35.14000 3.951
35.16000 4.800
35.18000 -0.799
35.20000 0.741
35.22000 0.337
35.24000 0.735
35.26000 1.374
35.28000 4.325
35.30000 4.892
35.32000 0.505
35.34000 5.405
35.36000 6.782
35.38000 9.564
35.40000 2.432
35.42000 3.479
35.44000 4.398
35.46000 2.779
35.48000 -3.295
35.50000 1.454
35.52000 4.527
35.54000 2.650
35.56000 -1.230
35.58000 -1.831
35.60000 -3.007
35.62000 -1.875
35.64000 -1.004
35.66000 -1.572
35.68000 0.408
35.70000 0.221
35.72000 0.851
35.74000 1.716
35.76000 -0.297
35.78000 -2.476
35.80000 2.155
35.82000 0.996
35.84000 -3.493
35.86000 -0.085
35.88000 2.823
35.90000 3.741
35.92000 2.572
35.94000 3.687
35.96000 5.923
35.98000 1.910
36.00000 -1.399
36.02000 -2.706
36.04000 3.026
36.06000 7.180
36.08000 6.098
36.10000 3.310
36.12000 -0.826
36.14000 -3.489
36.16000 -2.824
36.18000 0.052
36.20000 2.424
36.22000 7.424
36.24000 3.882
36.26000 -2.849
36.28000 2.377
36.30000 7.686
36.32000 7.535
36.34000 2.776
36.36000 3.111
36.38000 4.461
36.40000 2.902
36.42000 3.504
36.44000 3.087
36.46000 8.496
36.48000 5.879
36.50000 5.335
36.52000 -1.707
36.54000 7.089
36.56000 8.412
36.58000 5.975
36.60000 3.407
36.62000 -0.952
36.64000 -3.472
36.66000 7.122
36.68000 6.181
36.70000 -0.130
36.72000 0.868
36.74000 1.393
36.76000 0.510
36.78000 7.438
36.80000 5.231
36.82000 3.965
36.84000 1.096
36.86000 -0.514
36.88000 -2.237
36.90000 2.222
36.92000 4.626
36.94000 4.928
36.96000 4.846
36.98000 8.145
37.00000 6.293
37.02000 3.309
37.04000 -0.359
37.06000 1.322
37.08000 1.095
37.10000 2.589
37.12000 7.227
37.14000 4.935
37.16000 0.963
37.18000 -3.495
37.20000 -1.969
37.22000 4.286
37.24000 3.950
37.26000 3.589
37.28000 3.578
37.30000 -1.724
37.32000 -1.518
37.34000 -1.483
37.36000 -1.237
37.38000 1.470
37.40000 0.694
37.42000 1.089
37.44000 2.687
37.46000 5.027
37.48000 6.920
37.50000 4.160
37.52000 3.486
37.54000 4.999
37.56000 2.047
37.58000 -1.169
37.60000 -0.769
37.62000 3.037
37.64000 7.915
37.66000 8.563
37.68000 3.887
37.70000 2.655
37.72000 4.534
37.74000 5.770
37.76000 6.069
37.78000 4.115
37.80000 8.207
37.82000 3.199
37.84000 8.037
37.86000 6.157
37.88000 5.732
37.90000 4.455
37.92000 6.489
37.94000 6.743
37.96000 12.129
37.98000 9.347
38.00000 6.006
38.02000 9.001
38.04000 9.567
38.06000 8.880
38.08000 10.189
38.10000 13.293
38.12000 11.044
38.14000 14.470
38.16000 15.813
38.18000 9.215
38.20000 13.266
38.22000 13.734
38.24000 10.754
38.26000 13.117
38.28000 8.700
38.30000 15.027
38.32000 19.866
38.34000 17.873
38.36000 18.043
38.38000 22.913
38.40000 15.213
38.42000 14.891
38.44000 10.363
38.46000 11.339
38.48000 16.731
38.50000 18.292
38.52000 19.512
38.54000 20.030
38.56000 18.072
38.58000 15.226
38.60000 13.088
38.62000 15.583
38.64000 22.127
38.66000 23.513
38.68000 19.915
38.70000 18.880
38.72000 24.142
38.74000 23.133
38.76000 24.966
38.78000 21.737
38.80000 20.375
38.82000 20.959
38.84000 25.459
38.86000 30.411
38.88000 25.400
38.90000 25.011
38.92000 24.836
38.94000 28.209
38.96000 31.057
38.98000 38.524
39.00000 39.574
39.02000 37.700
39.04000 33.533
39.06000 36.789
39.08000 45.318
39.10000 41.977
39.12000 41.383
39.14000 43.216
39.16000 50.091
39.18000 45.762
39.20000 45.216
39.22000 52.542
39.24000 54.427
39.26000 50.415
39.28000 53.571
39.30000 56.456
39.32000 60.738
39.34000 63.657
39.36000 71.466
39.38000 71.517
39.40000 69.669
39.42000 74.932
39.44000 80.368
39.46000 79.131
39.48000 83.873
39.50000 91.391
39.52000 91.049
39.54000 101.996
39.56000 109.180
39.58000 112.310
39.60000 116.221
39.62000 119.289
39.64000 126.892
39.66000 131.867
39.68000 139.124
39.70000 145.374
39.72000 162.409
39.74000 166.388
39.76000 170.991
39.78000 184.556
39.80000 201.065
39.82000 213.001
39.84000 227.412
39.86000 242.587
39.88000 251.223
39.90000 265.359
39.92000 281.115
39.94000 294.047
39.96000 319.472
39.98000 334.926
40.00000 345.939
40.02000 372.874
40.04000 396.351
40.06000 414.490
40.08000 435.630
40.10000 458.760
40.12000 485.330
40.14000 507.490
40.16000 529.066
40.18000 553.634
40.20000 584.011
40.22000 604.965
40.24000 638.250
40.26000 667.995
40.28000 691.307
40.30000 699.271
40.32000 708.331
40.34000 708.872
40.36000 739.284
40.38000 749.167
40.40000 754.117
40.42000 770.682
40.44000 766.368
40.46000 758.466
40.48000 766.267
40.50000 751.298
40.52000 733.570
40.54000 723.676
40.56000 721.234
40.58000 715.819
40.60000 697.393
40.62000 680.757
40.64000 652.081
40.66000 630.952
40.68000 599.375
40.70000 586.416
40.72000 572.569
40.74000 546.608
40.76000 525.679
40.78000 498.165
40.80000 476.659
40.82000 450.944
40.84000 434.127
40.86000 419.399
40.88000 395.114
40.90000 378.134
40.92000 353.077
40.94000 333.445
40.96000 321.615
40.98000 302.797
41.00000 281.627
41.02000 270.762
41.04000 258.897
41.06000 244.741
41.08000 228.051
41.10000 221.165
41.12000 205.754
41.14000 193.580
41.16000 182.509
41.18000 174.030
41.20000 159.322
41.22000 156.307
41.24000 147.775
41.26000 139.649
41.28000 135.970
41.30000 128.515
41.32000 120.669
41.34000 113.315
41.36000 112.519
41.38000 109.744
41.40000 96.902
41.42000 87.434
41.44000 85.353
41.46000 79.961
41.48000 77.660
41.50000 78.419
41.52000 72.552
41.54000 75.899
41.56000 68.607
41.58000 62.346
41.60000 58.899
41.62000 53.665
41.64000 53.820
41.66000 52.318
41.68000 49.563
41.70000 44.776
41.72000 41.919
41.74000 45.152
41.76000 38.784
41.78000 33.583
41.80000 34.540
41.82000 35.406
41.84000 35.485
41.86000 32.841
41.88000 29.705
41.90000 35.705
41.92000 36.851
41.94000 25.370
41.96000 20.771
41.98000 22.710
42.00000 23.522
42.02000 22.690
42.04000 20.307
42.06000 17.598
42.08000 16.356
42.10000 16.567
42.12000 15.998
42.14000 17.278
42.16000 12.821
42.18000 11.992
42.20000 17.957
42.22000 16.829
42.24000 16.153
42.26000 13.122
42.28000 14.856
42.30000 13.443
42.32000 13.845
42.34000 7.576
42.36000 5.925
42.38000 10.071
42.40000 12.576
42.42000 11.675
42.44000 7.234
42.46000 6.441
42.48000 8.022
42.50000 5.784
42.52000 9.337
42.54000 6.647
42.56000 7.516
42.58000 3.918
42.60000 1.303
42.62000 4.705
42.64000 3.851
42.66000 6.005
42.68000 3.034
42.70000 5.599
42.72000 11.311
42.74000 6.660
42.76000 4.466
42.78000 3.368
42.80000 4.745
42.82000 7.432
42.84000 6.014
42.86000 4.901
42.88000 -0.452
42.90000 -2.888
42.92000 -2.580
42.94000 -0.483
42.96000 3.396
42.98000 2.759
43.00000 0.306
43.02000 -1.195
43.04000 4.426
43.06000 5.561
43.08000 1.433
43.10000 3.177
43.12000 3.087
43.14000 2.923
43.16000 0.773
43.18000 2.071
43.20000 0.794
43.22000 -0.080
43.24000 -2.539
43.26000 1.478
43.28000 3.773
43.30000 1.936
43.32000 2.768
43.34000 3.878
43.36000 4.372
43.38000 -0.466
43.40000 -3.430
43.42000 -3.267
43.44000 0.348
43.46000 0.892
43.48000 -1.376
43.50000 -1.787
43.52000 2.558
43.54000 4.203
43.56000 0.681
43.58000 -1.783
43.60000 -0.141
43.62000 0.190
43.64000 0.830
43.66000 0.564
43.68000 1.166
43.70000 1.487
43.72000 -0.682
43.74000 -0.585
43.76000 0.273
43.78000 1.953
43.80000 2.616
43.82000 0.027
43.84000 0.948
43.86000 2.673
43.88000 1.337
43.90000 -2.038
43.92000 2.323
43.94000 3.908
43.96000 2.881
43.98000 1.809
44.00000 5.892
44.02000 -1.505
44.04000 -0.296
44.06000 -0.875
44.08000 1.787
44.10000 -1.495
44.12000 -3.092
44.14000 -1.234
44.16000 -3.081
44.18000 1.686
44.20000 -0.883
44.22000 2.087
44.24000 2.504
44.26000 4.633
44.28000 3.029
44.30000 1.957
44.32000 3.504
44.34000 2.173
44.36000 1.876
44.38000 2.986
44.40000 1.698
44.42000 0.477
44.44000 6.200
44.46000 6.132
44.48000 -0.101
44.50000 3.816
44.52000 6.874
44.54000 1.394
44.56000 2.454
44.58000 0.227
44.60000 -0.315
44.62000 -2.324
44.64000 -3.293
44.66000 -0.333
44.68000 1.077
44.70000 4.331
44.72000 5.648
44.74000 1.289
44.76000 -0.425
44.78000 3.490
44.80000 6.562
44.82000 4.284
44.84000 3.416
44.86000 3.242
44.88000 3.337
44.90000 6.561
44.92000 3.009
44.94000 3.923
44.96000 0.378
44.98000 1.243
45.00000 4.516
45.02000 3.154
45.04000 -0.029
45.06000 2.890
45.08000 3.172
45.10000 0.425
45.12000 7.689
45.14000 5.136
45.16000 1.501
45.18000 1.807
45.20000 3.483
45.22000 5.916
45.24000 5.154
45.26000 2.933
45.28000 -0.528
45.30000 1.089
45.32000 6.158
45.34000 5.893
45.36000 5.221
45.38000 5.240
45.40000 4.707
45.42000 8.396
45.44000 9.546
45.46000 9.089
45.48000 7.475
45.50000 2.586
45.52000 6.314
45.54000 9.097
45.56000 6.829
45.58000 5.536
45.60000 6.619
45.62000 8.283
45.64000 13.522
45.66000 11.681
45.68000 14.233
45.70000 17.795
45.72000 21.260
45.74000 16.326
45.76000 15.880
45.78000 17.100
45.80000 17.872
45.82000 12.050
45.84000 15.894
45.86000 16.465
45.88000 20.011
45.90000 22.367
45.92000 19.698
45.94000 26.369
45.96000 23.197
45.98000 26.729
46.00000 28.561
46.02000 27.275
46.04000 31.909
46.06000 31.317
46.08000 28.809
46.10000 33.400
46.12000 31.624
46.14000 31.596
46.16000 35.679
46.18000 37.507
46.20000 37.783
46.22000 41.466
46.24000 47.322
46.26000 41.129
46.28000 48.113
46.30000 49.854
46.32000 51.837
46.34000 49.649
46.36000 53.257
46.38000 57.873
46.40000 59.617
46.42000 57.925
46.44000 59.143
46.46000 63.171
46.48000 71.601
46.50000 72.308
46.52000 69.076
46.54000 71.577
46.56000 74.969
46.58000 84.203
46.60000 82.718
46.62000 83.303
46.64000 92.749
46.66000 94.509
46.68000 94.639
46.70000 99.971
46.72000 102.605
46.74000 107.461
46.76000 106.509
46.78000 112.398
46.80000 111.078
46.82000 113.814
46.84000 122.736
46.86000 125.384
46.88000 129.888
46.90000 121.899
46.92000 125.600
46.94000 125.531
46.96000 126.940
46.98000 130.960
47.00000 134.346
47.02000 135.385
47.04000 135.633
47.06000 140.714
47.08000 138.779
47.10000 131.518
47.12000 131.703
47.14000 130.686
47.16000 123.290
47.18000 122.344
47.20000 129.927
47.22000 122.522
47.24000 122.145
47.26000 120.823
47.28000 123.779
47.30000 116.435
47.32000 114.456
47.34000 113.698
47.36000 111.696
47.38000 107.620
47.40000 100.989
47.42000 96.701
47.44000 98.648
47.46000 97.236
47.48000 84.607
47.50000 88.887
47.52000 88.090
47.54000 78.660
47.56000 74.645
47.58000 77.651
47.60000 71.194
47.62000 67.065
47.64000 67.780
47.66000 60.707
47.68000 61.620
47.70000 57.554
47.72000 50.357
47.74000 45.813
47.76000 41.372
47.78000 45.679
47.80000 42.118
47.82000 40.297
47.84000 38.838
47.86000 37.470
47.88000 39.161
47.90000 37.571
47.92000 33.050
47.94000 29.553
47.96000 22.242
47.98000 27.153
48.00000 25.299
48.02000 30.536
48.04000 28.657
48.06000 22.970
48.08000 22.627
48.10000 23.163
48.12000 17.611
48.14000 18.236
48.16000 13.150
48.18000 12.061
48.20000 10.735
48.22000 10.765
48.24000 12.298
48.26000 17.188
48.28000 16.787
48.30000 10.749
48.32000 8.566
48.34000 5.029
48.36000 9.918
48.38000 11.295
48.40000 3.460
48.42000 1.097
48.44000 8.030
48.46000 8.440
48.48000 5.376
48.50000 3.418
48.52000 3.876
48.54000 8.670
48.56000 5.155
48.58000 4.766
48.60000 6.680
48.62000 4.497
48.64000 2.607
48.66000 4.272
48.68000 6.790
48.70000 8.491
48.72000 6.030
48.74000 5.458
48.76000 2.153
48.78000 0.049
48.80000 -2.933
48.82000 0.337
48.84000 2.027
48.86000 1.899
48.88000 2.431
48.90000 1.480
48.92000 2.160
48.94000 -1.550
48.96000 -0.965
48.98000 3.672
49.00000 -0.396
49.02000 -1.139
49.04000 1.589
49.06000 3.412
49.08000 4.607
49.10000 1.514
49.12000 -2.872
49.14000 0.634
49.16000 4.641
49.18000 2.661
49.20000 1.560
49.22000 1.680
49.24000 2.571
49.26000 3.799
49.28000 3.160
49.30000 0.183
49.32000 1.064
49.34000 6.487
49.36000 5.636
49.38000 3.184
49.40000 4.451
49.42000 5.994
49.44000 9.713
49.46000 3.842
49.48000 -1.134
49.50000 -2.791
49.52000 0.591
49.54000 2.379
49.56000 1.824
49.58000 2.568
49.60000 -0.095
49.62000 6.603
49.64000 4.006
49.66000 2.786
49.68000 4.655
49.70000 4.585
49.72000 7.141
49.74000 -0.429
49.76000 -2.744
49.78000 -0.132
49.80000 1.116
49.82000 5.545
49.84000 5.664
49.86000 3.413
49.88000 2.100
49.90000 3.907
49.92000 3.313
49.94000 4.497
49.96000 2.746
49.98000 5.384
50.00000 7.657
50.02000 5.896
50.04000 4.102
50.06000 5.093
50.08000 0.163
50.10000 -0.938
50.12000 2.776
50.14000 7.232
50.16000 6.331
50.18000 3.640
50.20000 -1.525
50.22000 -1.008
50.24000 4.241
50.26000 3.278
50.28000 1.184
50.30000 1.340
50.32000 4.007
50.34000 5.837
50.36000 1.456
50.38000 3.440
50.40000 2.599
50.42000 -0.846
50.44000 0.022
50.46000 -0.093
50.48000 3.733
50.50000 -0.287
50.52000 0.487
50.54000 4.374
50.56000 2.066
50.58000 -1.801
50.60000 -1.148
50.62000 0.830
50.64000 1.621
50.66000 2.148
50.68000 -1.325
50.70000 1.333
50.72000 2.917
50.74000 3.544
50.76000 2.816
50.78000 5.894
50.80000 3.111
50.82000 0.532
50.84000 4.592
50.86000 2.226
50.88000 2.665
50.90000 2.517
50.92000 2.757
50.94000 5.454
50.96000 1.347
50.98000 3.319
51.00000 8.150
51.02000 4.551
51.04000 2.028
51.06000 0.958
51.08000 -0.395
51.10000 2.367
51.12000 3.239
51.14000 1.173
51.16000 3.830
51.18000 4.095
51.20000 -0.339
51.22000 -0.338
51.24000 -2.655
51.26000 -2.330
51.28000 4.478
51.30000 9.080
51.32000 3.321
51.34000 1.903
51.36000 1.836
51.38000 3.154
51.40000 5.796
51.42000 -0.222
51.44000 0.843
51.46000 7.456
51.48000 5.597
51.50000 5.058
51.52000 4.294
51.54000 4.902
51.56000 3.821
51.58000 2.286
51.60000 -2.615
51.62000 0.903
51.64000 7.802
51.66000 6.775
51.68000 2.275
51.70000 2.417
51.72000 7.402
51.74000 2.876
51.76000 3.047
51.78000 3.311
51.80000 3.278
51.82000 0.535
51.84000 3.997
51.86000 5.517
51.88000 7.240
51.90000 12.041
51.92000 11.465
51.94000 3.765
51.96000 -2.595
51.98000 2.616
52.00000 4.727
52.02000 6.548
52.04000 7.521
52.06000 7.039
52.08000 4.304
52.10000 4.292
52.12000 4.618
52.14000 6.574
52.16000 3.959
52.18000 3.504
52.20000 4.563
52.22000 2.349
52.24000 8.418
52.26000 4.012
52.28000 5.517
52.30000 8.257
52.32000 6.959
52.34000 9.614
52.36000 8.847
52.38000 6.871
52.40000 4.621
52.42000 5.076
52.44000 7.411
52.46000 3.352
52.48000 3.929
52.50000 6.864
52.52000 7.906
52.54000 4.567
52.56000 7.017
52.58000 7.615
52.60000 7.541
52.62000 3.635
52.64000 5.803
52.66000 5.413
52.68000 6.816
52.70000 6.798
52.72000 10.928
52.74000 7.574
52.76000 5.239
52.78000 1.953
52.80000 2.474
52.82000 4.380
52.84000 2.506
52.86000 5.458
52.88000 5.441
52.90000 1.874
52.92000 2.006
52.94000 3.814
52.96000 4.079
52.98000 -2.562
53.00000 2.164
53.02000 8.341
53.04000 6.076
53.06000 2.534
53.08000 9.015
53.10000 6.570
53.12000 1.983
53.14000 3.677
53.16000 6.737
53.18000 3.873
53.20000 2.604
53.22000 2.285
53.24000 5.528
53.26000 7.466
53.28000 1.627
53.30000 0.012
53.32000 5.894
53.34000 6.498
53.36000 9.157
53.38000 4.257
53.40000 -2.422
53.42000 1.581
53.44000 7.509
53.46000 9.507
53.48000 6.255
53.50000 4.175
53.52000 4.407
53.54000 3.276
53.56000 2.973
53.58000 2.860
53.60000 5.475
53.62000 3.935
53.64000 2.351
53.66000 4.274
53.68000 3.020
53.70000 0.263
53.72000 -2.582
53.74000 -1.149
53.76000 2.993
53.78000 0.633
53.80000 2.974
53.82000 5.461
53.84000 0.551
53.86000 0.019
53.88000 6.559
53.90000 9.278
53.92000 3.515
53.94000 0.902
53.96000 1.045
53.98000 3.785
54.00000 0.571
54.02000 1.281
54.04000 1.936
54.06000 1.920
54.08000 3.345
54.10000 5.439
54.12000 4.011
54.14000 2.834
54.16000 -0.935
54.18000 -1.082
54.20000 -0.289
54.22000 0.733
54.24000 2.251
54.26000 1.694
54.28000 5.068
54.30000 5.589
54.32000 6.317
54.34000 2.123
54.36000 2.602
54.38000 -0.555
54.40000 -1.221
54.42000 -1.834
54.44000 -0.797
54.46000 -2.572
54.48000 -0.722
54.50000 3.631
54.52000 2.743
54.54000 -0.559
54.56000 -0.954
54.58000 0.810
54.60000 4.850
54.62000 6.049
54.64000 2.106
54.66000 0.613
54.68000 -0.009
54.70000 0.336
54.72000 -2.011
54.74000 -0.518
54.76000 2.299
54.78000 3.795
54.80000 2.519
54.82000 0.674
54.84000 0.119
54.86000 2.713
54.88000 6.146
54.90000 -0.186
54.92000 0.869
54.94000 1.074
54.96000 4.257
54.98000 1.203
55.00000 2.556
55.02000 4.777
55.04000 -1.504
55.06000 2.024
55.08000 1.052
55.10000 1.687
55.12000 0.249
55.14000 0.219
55.16000 -1.000
55.18000 -1.451
55.20000 -2.569
55.22000 0.948
55.24000 3.495
55.26000 5.427
55.28000 4.005
55.30000 4.979
55.32000 0.418
55.34000 -2.017
55.36000 -1.360
55.38000 -0.060
55.40000 1.819
55.42000 2.253
55.44000 3.477
55.46000 -0.271
55.48000 -0.398
55.50000 3.588
55.52000 1.075
55.54000 -2.341
55.56000 -2.356
55.58000 2.970
55.60000 -0.503
55.62000 2.120
55.64000 4.084
55.66000 -2.560
55.68000 0.995
55.70000 1.225
55.72000 4.763
55.74000 3.559
55.76000 0.294
55.78000 -1.300
55.80000 1.073
55.82000 -0.067
55.84000 1.138
55.86000 1.844
55.88000 -1.176
55.90000 -1.343
55.92000 0.667
55.94000 1.785
55.96000 3.771
55.98000 3.579
56.00000 0.986
56.02000 -0.827
56.04000 -1.511
56.06000 2.780
56.08000 4.338
56.10000 2.465
56.12000 2.203
56.14000 0.571
56.16000 1.006
56.18000 1.067
56.20000 1.184
56.22000 0.425
56.24000 -1.977
56.26000 -1.638
56.28000 5.256
56.30000 3.025
56.32000 -0.311
56.34000 -0.890
56.36000 -0.739
56.38000 1.626
56.40000 3.673
56.42000 1.939
56.44000 -0.413
56.46000 -0.297
56.48000 4.192
56.50000 4.965
56.52000 0.514
56.54000 6.792
56.56000 9.504
56.58000 4.634
56.60000 1.855
56.62000 0.393
56.64000 -2.492
56.66000 2.049
56.68000 2.185
56.70000 1.353
56.72000 1.578
56.74000 1.030
56.76000 2.240
56.78000 4.149
56.80000 5.499
56.82000 4.479
56.84000 1.679
56.86000 3.547
56.88000 3.995
56.90000 3.929
56.92000 1.834
56.94000 -2.486
56.96000 1.599
56.98000 -1.064
57.00000 3.914
57.02000 2.444
57.04000 2.091
57.06000 2.117
57.08000 1.650
57.10000 2.657
57.12000 3.642
57.14000 2.001
57.16000 3.597
57.18000 1.510
57.20000 5.957
57.22000 2.653
57.24000 0.379
57.26000 2.366
57.28000 3.546
57.30000 2.384
57.32000 -1.319
57.34000 4.846
57.36000 2.644
57.38000 3.465
57.40000 6.565
57.42000 2.551
57.44000 1.715
57.46000 0.506
57.48000 4.206
57.50000 2.473
57.52000 -2.470
57.54000 -0.712
57.56000 -1.675
57.58000 4.904
57.60000 3.797
57.62000 -0.905
57.64000 0.147
57.66000 2.466
57.68000 0.823
57.70000 2.551
57.72000 2.053
57.74000 2.855
57.76000 2.664
57.78000 5.026
57.80000 4.770
57.82000 3.488
57.84000 3.019
57.86000 1.409
57.88000 1.668
57.90000 3.312
57.92000 -2.453
57.94000 1.584
57.96000 4.761
57.98000 4.429
58.00000 1.404
58.02000 2.342
58.04000 -0.176
58.06000 2.093
58.08000 1.060
58.10000 -0.724
58.12000 2.553
58.14000 1.319
58.16000 2.576
58.18000 0.659
58.20000 2.422
58.22000 1.626
58.24000 -0.218
58.26000 0.158
58.28000 -0.520
58.30000 2.602
58.32000 4.292
58.34000 4.016
58.36000 5.362
58.38000 5.470
58.40000 3.563
58.42000 0.532
58.44000 -2.423
58.46000 -2.072
58.48000 2.505
58.50000 4.541
58.52000 7.395
58.54000 10.007
58.56000 6.444
58.58000 4.040
58.60000 5.101
58.62000 2.631
58.64000 0.196
58.66000 3.030
58.68000 2.011
58.70000 1.049
58.72000 2.856
58.74000 3.988
58.76000 2.458
58.78000 2.222
58.80000 1.635
58.82000 1.244
58.84000 3.152
58.86000 6.694
58.88000 8.576
58.90000 8.248
58.92000 7.179
58.94000 4.055
58.96000 0.755
58.98000 2.341
59.00000 4.044
59.02000 3.058
59.04000 1.301
59.06000 0.727
59.08000 2.468
59.10000 3.193
59.12000 5.097
59.14000 4.304
59.16000 2.460
59.18000 3.422
59.20000 3.582
59.22000 5.009
59.24000 3.604
59.26000 4.762
59.28000 4.478
59.30000 4.937
59.32000 1.902
59.34000 0.368
59.36000 0.670
59.38000 -0.244
59.40000 0.396
59.42000 2.490
59.44000 4.768
59.46000 2.665
59.48000 3.993
59.50000 1.362
59.52000 0.568
59.54000 -1.868
59.56000 0.667
59.58000 1.680
59.60000 1.986
59.62000 -1.409
59.64000 -2.411
59.66000 -0.805
59.68000 1.917
59.70000 -0.493
59.72000 0.517
59.74000 -1.709
59.76000 -1.413
59.78000 -0.937
59.80000 1.464
59.82000 1.647
59.84000 0.952
59.86000 0.493
59.88000 2.001
59.90000 3.322
59.92000 1.803
59.94000 3.171
59.96000 1.578
59.98000 -1.162
60.00000 -2.406
60.02000 4.103
60.04000 2.353
60.06000 -0.344
60.08000 1.206
60.10000 4.240
60.12000 5.761
60.14000 6.839
60.16000 2.771
60.18000 1.743
60.20000 -0.074
60.22000 1.000
60.24000 6.289
60.26000 4.784
60.28000 -0.395
60.30000 2.012
60.32000 1.919
60.34000 -0.044
60.36000 0.093
60.38000 0.398
60.40000 0.197
60.42000 0.319
60.44000 1.721
60.46000 1.446
60.48000 -0.570
60.50000 -2.399
60.52000 -2.039
60.54000 0.170
60.56000 1.347
60.58000 1.437
60.60000 5.104
60.62000 6.795
60.64000 3.912
60.66000 3.756
60.68000 3.866
60.70000 2.226
60.72000 0.501
60.74000 2.116
60.76000 4.011
60.78000 0.543
60.80000 1.232
60.82000 2.251
60.84000 1.306
60.86000 1.142
60.88000 -0.811
60.90000 -2.384
60.92000 1.613
60.94000 -0.913
60.96000 0.155
60.98000 0.358
61.00000 3.063
61.02000 1.123
61.04000 3.571
61.06000 2.320
61.08000 2.825
61.10000 5.296
61.12000 3.309
61.14000 3.370
61.16000 4.749
61.18000 0.469
61.20000 -1.350
61.22000 -0.832
61.24000 1.954
61.26000 2.083
61.28000 1.381
61.30000 0.758
61.32000 2.327
61.34000 1.289
61.36000 -1.234
61.38000 -2.235
61.40000 -1.669
61.42000 -1.670
61.44000 0.762
61.46000 0.845
61.48000 -1.412
61.50000 -2.320
61.52000 -0.764
61.54000 0.697
61.56000 -2.366
61.58000 -1.925
61.60000 -0.795
61.62000 -2.382
61.64000 -1.711
61.66000 1.504
61.68000 -0.411
61.70000 -1.845
61.72000 1.616
61.74000 -0.183
61.76000 0.270
61.78000 -0.795
61.80000 -1.607
61.82000 2.469
61.84000 2.378
61.86000 -1.244
61.88000 1.425
61.90000 0.393
61.92000 -2.373
61.94000 -0.219
61.96000 1.745
61.98000 2.897
62.00000 3.545
62.02000 1.742
62.04000 1.698
62.06000 0.074
62.08000 4.826
62.10000 5.634
62.12000 3.269
62.14000 4.075
62.16000 3.068
62.18000 1.835
62.20000 -0.126
62.22000 1.029
62.24000 0.408
62.26000 -1.212
62.28000 -0.288
62.30000 3.853
62.32000 2.999
62.34000 -1.592
62.36000 -0.740
62.38000 1.582
62.40000 1.011
62.42000 1.256
62.44000 3.005
62.46000 2.373
62.48000 -1.523
62.50000 -0.729
62.52000 0.611
62.54000 1.049
62.56000 3.951
62.58000 2.666
62.60000 -2.356
62.62000 -1.353
62.64000 1.736
62.66000 1.638
62.68000 1.500
62.70000 2.771
62.72000 0.267
62.74000 0.392
62.76000 1.908
62.78000 0.015
62.80000 0.974
62.82000 2.961
62.84000 2.423
62.86000 1.787
62.88000 0.235
62.90000 0.853
62.92000 2.202
62.94000 2.060
62.96000 2.818
62.98000 3.414
63.00000 2.332
63.02000 0.964
63.04000 -0.129
63.06000 2.506
63.08000 3.204
63.10000 0.042
63.12000 4.330
63.14000 1.396
63.16000 -2.204
63.18000 0.379
63.20000 4.009
63.22000 3.246
63.24000 0.418
63.26000 -2.323
63.28000 0.731
63.30000 1.779
63.32000 4.978
63.34000 3.286
63.36000 0.932
63.38000 0.961
63.40000 0.650
63.42000 -0.555
63.44000 -2.331
63.46000 -0.144
63.48000 1.010
63.50000 1.874
63.52000 -0.100
63.54000 4.319
63.56000 1.433
63.58000 -0.932
63.60000 -2.173
63.62000 -2.168
63.64000 -0.508
63.66000 0.266
63.68000 1.102
63.70000 -0.686
63.72000 -1.508
63.74000 0.434
63.76000 1.871
63.78000 1.258
63.80000 -0.727
63.82000 -1.260
63.84000 -0.262
63.86000 -0.652
63.88000 -0.237
63.90000 3.990
63.92000 -0.436
63.94000 1.476
63.96000 0.746
63.98000 -0.724
64.00000 -0.879
64.02000 4.126
64.04000 3.883
64.06000 3.222
64.08000 1.364
64.10000 -0.509
64.12000 0.247
64.14000 2.460
64.16000 4.012
64.18000 0.406
64.20000 -2.353
64.22000 0.874
64.24000 2.214
64.26000 0.579
64.28000 -0.392
64.30000 0.109
64.32000 1.113
64.34000 -0.947
64.36000 0.380
64.38000 -0.362
64.40000 -0.069
64.42000 0.593
64.44000 1.914
64.46000 3.530
64.48000 0.981
64.50000 2.801
64.52000 6.934
64.54000 5.930
64.56000 2.458
64.58000 0.451
64.60000 -1.394
64.62000 0.793
64.64000 1.794
64.66000 -1.166
64.68000 0.071
64.70000 3.170
64.72000 0.322
64.74000 2.319
64.76000 2.256
64.78000 0.216
64.80000 0.762
64.82000 1.677
64.84000 -2.353
64.86000 0.447
64.88000 2.649
64.90000 3.214
64.92000 1.484
64.94000 -0.380
64.96000 -1.592
64.98000 1.531
65.00000 -1.587
65.02000 1.709
65.04000 0.075
65.06000 1.399
65.08000 -0.005
65.10000 -0.507
65.12000 0.890
65.14000 0.822
65.16000 2.840
65.18000 3.661
65.20000 3.019
65.22000 3.109
65.24000 1.237
65.26000 1.195
65.28000 2.296
65.30000 1.888
65.32000 4.469
65.34000 3.075
65.36000 4.408
65.38000 2.848
65.40000 3.019
65.42000 6.059
65.44000 6.534
65.46000 5.730
65.48000 3.335
65.50000 3.833
65.52000 2.851
65.54000 4.778
65.56000 3.772
65.58000 3.626
65.60000 2.148
65.62000 -0.496
65.64000 -2.323
65.66000 -1.369
65.68000 1.912
65.70000 4.622
65.72000 6.835
65.74000 4.652
65.76000 5.730
65.78000 6.961
65.80000 4.583
65.82000 3.675
65.84000 7.043
65.86000 6.139
65.88000 2.413
65.90000 1.727
65.92000 0.672
65.94000 1.688
65.96000 4.950
65.98000 7.275
66.00000 2.702
66.02000 1.297
66.04000 1.932
66.06000 1.454
66.08000 3.161
66.10000 4.974
66.12000 4.729
66.14000 3.751
66.16000 2.070
66.18000 1.483
66.20000 1.957
66.22000 4.220
66.24000 1.912
66.26000 1.171
66.28000 2.282
66.30000 4.052
66.32000 5.970
66.34000 2.078
66.36000 0.082
66.38000 2.943
66.40000 3.585
66.42000 4.316
66.44000 3.016
66.46000 2.596
66.48000 2.101
66.50000 -2.343
66.52000 -0.799
66.54000 2.868
66.56000 0.641
66.58000 -0.396
66.60000 -0.674
66.62000 2.118
66.64000 1.750
66.66000 -0.959
66.68000 0.909
66.70000 2.655
66.72000 0.305
66.74000 -2.369
66.76000 1.452
66.78000 0.408
66.80000 -0.999
66.82000 0.332
66.84000 3.803
66.86000 -0.700
66.88000 -0.386
66.90000 1.299
66.92000 2.260
66.94000 3.058
66.96000 0.761
66.98000 0.308
67.00000 4.496
67.02000 4.306
67.04000 3.191
67.06000 3.453
67.08000 4.632
67.10000 2.080
67.12000 0.279
67.14000 2.795
67.16000 0.831
67.18000 -0.345
67.20000 0.485
67.22000 -1.842
67.24000 -2.367
67.26000 -0.806
67.28000 0.538
67.30000 2.191
67.32000 1.275
67.34000 -0.588
67.36000 0.736
67.38000 2.002
67.40000 4.191
67.42000 4.250
67.44000 0.248
67.46000 1.130
67.48000 0.311
67.50000 0.693
67.52000 -1.129
67.54000 0.469
67.56000 3.839
67.58000 2.765
67.60000 -1.381
67.62000 0.267
67.64000 3.798
67.66000 3.497
67.68000 3.448
67.70000 3.930
67.72000 5.372
67.74000 1.055
67.76000 0.835
67.78000 5.297
67.80000 7.189
67.82000 6.512
67.84000 5.890
67.86000 8.429
67.88000 6.945
67.90000 4.958
67.92000 5.594
67.94000 9.013
67.96000 11.479
67.98000 13.424
68.00000 12.080
68.02000 11.231
68.04000 8.029
68.06000 10.439
68.08000 12.571
68.10000 9.571
68.12000 13.454
68.14000 9.912
68.16000 9.197
68.18000 11.723
68.20000 12.859
68.22000 13.271
68.24000 14.076
68.26000 18.328
68.28000 19.015
68.30000 18.854
68.32000 20.625
68.34000 19.661
68.36000 22.743
68.38000 20.192
68.40000 17.732
68.42000 21.675
68.44000 23.747
68.46000 21.371
68.48000 21.894
68.50000 24.124
68.52000 26.851
68.54000 31.701
68.56000 29.726
68.58000 27.037
68.60000 29.150
68.62000 30.383
68.64000 32.632
68.66000 35.479
68.68000 35.839
68.70000 32.870
68.72000 31.100
68.74000 31.234
68.76000 33.836
68.78000 33.588
68.80000 32.350
68.82000 35.270
68.84000 30.415
68.86000 33.652
68.88000 33.023
68.90000 32.215
68.92000 33.821
68.94000 33.755
68.96000 28.927
68.98000 29.073
69.00000 30.080
69.02000 27.883
69.04000 28.185
69.06000 25.220
69.08000 26.233
69.10000 25.566
69.12000 25.240
69.14000 26.535
69.16000 26.031
69.18000 24.159
69.20000 20.172
69.22000 21.533
69.24000 21.033
69.26000 18.853
69.28000 17.121
69.30000 15.623
69.32000 17.909
69.34000 18.241
69.36000 15.529
69.38000 13.047
69.40000 13.145
69.42000 15.840
69.44000 14.534
69.46000 12.028
69.48000 13.093
69.50000 9.744
69.52000 11.189
69.54000 10.982
69.56000 10.450
69.58000 11.768
69.60000 8.804
69.62000 9.076
69.64000 5.691
69.66000 5.875
69.68000 7.452
69.70000 7.294
69.72000 4.305
69.74000 3.883
69.76000 6.035
69.78000 5.642
69.80000 5.582
69.82000 4.488
69.84000 2.348
69.86000 3.910
69.88000 3.449
69.90000 4.578
69.92000 2.710
69.94000 2.578
69.96000 0.160
69.98000 2.809
70.00000 2.896
70.02000 1.001
70.04000 3.810
70.06000 2.266
70.08000 2.927
70.10000 0.037
70.12000 -1.242
70.14000 0.907
70.16000 1.341
70.18000 1.272
70.20000 2.447
70.22000 -0.979
70.24000 -2.287
70.26000 -0.925
70.28000 -2.362
70.30000 -0.323
70.32000 -1.261
70.34000 -2.355
70.36000 -1.016
70.38000 3.321
70.40000 1.485
70.42000 1.605
70.44000 -1.763
70.46000 -0.705
70.48000 2.079
70.50000 4.487
70.52000 0.317
70.54000 -1.352
70.56000 0.951
70.58000 -0.706
70.60000 1.587
70.62000 4.775
70.64000 1.459
70.66000 2.565
70.68000 -2.326
70.70000 -1.789
70.72000 0.556
70.74000 1.597
70.76000 -1.679
70.78000 -1.967
70.80000 -0.426
70.82000 -0.261
70.84000 2.869
70.86000 0.850
70.88000 0.542
70.90000 0.725
70.92000 0.282
70.94000 2.673
70.96000 -1.417
70.98000 -0.052
71.00000 0.974
71.02000 3.091
71.04000 2.878
71.06000 0.301
71.08000 -0.152
71.10000 0.706
71.12000 2.974
71.14000 -0.282
71.16000 1.322
71.18000 0.852
71.20000 3.716
71.22000 2.663
71.24000 -2.260
71.26000 0.304
71.28000 2.302
71.30000 1.560
71.32000 2.302
71.34000 4.400
71.36000 5.725
71.38000 3.230
71.40000 2.332
71.42000 0.467
71.44000 0.591
71.46000 3.429
71.48000 2.396
71.50000 -0.443
71.52000 2.000
71.54000 6.833
71.56000 5.571
71.58000 2.433
71.60000 2.470
71.62000 2.006
71.64000 -1.061
71.66000 0.383
71.68000 4.387
71.70000 4.869
71.72000 5.297
71.74000 3.638
71.76000 1.040
71.78000 0.010
71.80000 1.446
71.82000 2.705
71.84000 1.891
71.86000 1.628
71.88000 0.999
71.90000 4.020
71.92000 5.253
71.94000 2.715
71.96000 3.428
71.98000 0.412
72.00000 -0.518
72.02000 -2.203
72.04000 0.599
72.06000 3.170
72.08000 6.805
72.10000 8.479
72.12000 6.059
72.14000 1.770
72.16000 4.194
72.18000 1.627
72.20000 4.373
72.22000 6.200
72.24000 3.502
72.26000 2.195
72.28000 0.335
72.30000 1.477
72.32000 1.929
72.34000 4.492
72.36000 2.235
72.38000 2.929
72.40000 0.246
72.42000 0.838
72.44000 2.501
72.46000 0.375
72.48000 2.110
72.50000 3.349
72.52000 0.729
72.54000 2.226
72.56000 0.089
72.58000 1.310
72.60000 2.428
72.62000 1.250
72.64000 0.849
72.66000 7.191
72.68000 4.838
72.70000 -0.086
72.72000 -0.571
72.74000 1.749
72.76000 3.619
72.78000 1.195
72.80000 0.864
72.82000 1.992
72.84000 2.036
72.86000 -2.199
72.88000 3.016
72.90000 1.474
72.92000 -0.028
72.94000 -1.783
72.96000 2.865
72.98000 1.710
73.00000 -1.026
73.02000 0.485
73.04000 3.016
73.06000 2.923
73.08000 2.140
73.10000 0.980
73.12000 0.953
73.14000 -1.321
73.16000 0.678
73.18000 0.173
73.20000 0.756
73.22000 -1.598
73.24000 1.618
73.26000 1.680
73.28000 0.536
73.30000 2.424
73.32000 1.057
73.34000 1.888
73.36000 -1.092
73.38000 0.430
73.40000 4.701
73.42000 0.314
73.44000 -0.765
73.46000 -0.184
73.48000 2.477
73.50000 3.532
73.52000 1.468
73.54000 4.346
73.56000 5.555
73.58000 3.508
73.60000 1.529
73.62000 3.727
73.64000 -1.401
73.66000 -2.188
73.68000 0.149
73.70000 0.563
73.72000 0.972
73.74000 3.612
73.76000 2.880
73.78000 2.750
73.80000 0.374
73.82000 0.837
73.84000 0.568
73.86000 0.324
73.88000 1.029
73.90000 2.397
73.92000 4.455
73.94000 2.370
73.96000 3.125
73.98000 2.722
74.00000 1.948
74.02000 1.616
74.04000 0.504
74.06000 -1.138
74.08000 0.552
74.10000 -0.198
74.12000 1.196
74.14000 1.595
74.16000 1.769
74.18000 0.669
74.20000 -0.202
74.22000 -0.592
74.24000 -1.059
74.26000 2.228
74.28000 2.145
74.30000 3.483
74.32000 4.335
74.34000 4.750
74.36000 5.734
74.38000 6.680
74.40000 3.042
74.42000 1.925
74.44000 -2.152
74.46000 1.784
74.48000 5.909
74.50000 2.507
74.52000 -0.082
74.54000 0.588
74.56000 3.271
74.58000 0.686
74.60000 2.598
74.62000 2.071
74.64000 1.893
74.66000 2.869
74.68000 3.015
74.70000 1.033
74.72000 2.059
74.74000 -0.004
74.76000 -1.475
74.78000 2.866
74.80000 5.974
74.82000 3.768
74.84000 -0.051
74.86000 0.479
74.88000 4.076
74.90000 2.146
74.92000 5.548
74.94000 6.991
74.96000 4.780
74.98000 5.731
75.00000 5.193
75.02000 1.910
75.04000 -2.140
75.06000 4.606
75.08000 4.300
75.10000 4.348
75.12000 1.511
75.14000 4.977
75.16000 6.767
75.18000 1.730
75.20000 1.922
75.22000 7.048
75.24000 6.613
75.26000 4.013
75.28000 -1.563
75.30000 -1.370
75.32000 3.559
75.34000 1.606
75.36000 4.317
75.38000 6.192
75.40000 3.065
75.42000 3.004
75.44000 4.715
75.46000 5.034
75.48000 -1.774
75.50000 -2.064
75.52000 -1.007
75.54000 5.290
75.56000 2.272
75.58000 2.033
75.60000 2.413
75.62000 0.948
75.64000 -0.536
75.66000 -0.147
75.68000 -0.671
75.70000 1.967
75.72000 0.917
75.74000 0.486
75.76000 3.418
75.78000 1.810
75.80000 -0.177
75.82000 2.443
75.84000 1.427
75.86000 0.385
75.88000 1.926
75.90000 2.815
75.92000 0.925
75.94000 2.331
75.96000 0.324
75.98000 -2.175
76.00000 1.517
76.02000 1.225
76.04000 4.911
76.06000 3.724
76.08000 3.127
76.10000 2.618
76.12000 5.228
76.14000 4.778
76.16000 4.228
76.18000 1.704
76.20000 2.933
76.22000 4.952
76.24000 6.926
76.26000 6.011
76.28000 2.455
76.30000 0.100
76.32000 0.357
76.34000 2.663
76.36000 1.920
76.38000 5.071
76.40000 9.475
76.42000 6.414
76.44000 5.425
76.46000 6.691
76.48000 3.742
76.50000 3.139
76.52000 3.724
76.54000 5.156
76.56000 3.462
76.58000 1.631
76.60000 3.534
76.62000 4.306
76.64000 1.173
76.66000 1.978
76.68000 4.485
76.70000 6.096
76.72000 5.543
76.74000 1.106
76.76000 2.578
76.78000 1.868
76.80000 -2.159
76.82000 4.765
76.84000 3.236
76.86000 2.950
76.88000 2.456
76.90000 4.493
76.92000 3.481
76.94000 2.772
76.96000 2.438
76.98000 5.495
77.00000 5.241
77.02000 5.319
77.04000 4.201
77.06000 2.195
77.08000 -0.479
77.10000 0.614
77.12000 4.231
77.14000 3.728
77.16000 2.656
77.18000 0.975
77.20000 2.925
77.22000 3.877
77.24000 3.438
77.26000 3.565
77.28000 2.709
77.30000 2.584
77.32000 4.776
77.34000 1.903
77.36000 2.293
77.38000 3.252
77.40000 1.822
77.42000 3.953
77.44000 2.719
77.46000 1.502
77.48000 0.172
77.50000 2.365
77.52000 4.116
77.54000 4.607
77.56000 9.546
77.58000 8.741
77.60000 4.209
77.62000 2.219
77.64000 1.336
77.66000 -0.067
77.68000 1.096
77.70000 6.169
77.72000 3.154
77.74000 3.095
77.76000 3.222
77.78000 0.650
77.80000 3.497
77.82000 4.423
77.84000 0.598
77.86000 7.327
77.88000 4.746
77.90000 7.458
77.92000 8.449
77.94000 7.039
77.96000 5.662
77.98000 3.731
78.00000 5.253
78.02000 5.218
78.04000 6.740
78.06000 7.175
78.08000 3.701
78.10000 4.309
78.12000 3.963
78.14000 0.717
78.16000 1.745
78.18000 -2.169
78.20000 1.375
78.22000 7.019
78.24000 3.912
78.26000 3.909
78.28000 0.734
78.30000 2.364
78.32000 3.903
78.34000 7.297
78.36000 8.526
78.38000 6.247
78.40000 1.941
78.42000 -0.633
78.44000 2.917
78.46000 2.596
78.48000 6.111
78.50000 6.847
78.52000 4.119
78.54000 4.034
78.56000 2.195
78.58000 1.694
78.60000 3.027
78.62000 4.883
78.64000 0.920
78.66000 2.393
78.68000 3.378
78.70000 3.415
78.72000 -0.306
78.74000 2.210
78.76000 1.662
78.78000 0.981
78.80000 5.527
78.82000 5.827
78.84000 -2.190
78.86000 -1.321
78.88000 1.786
78.90000 3.907
78.92000 0.773
78.94000 5.057
78.96000 4.199
78.98000 3.696
79.00000 4.525
79.02000 2.301
79.04000 -0.436
79.06000 -0.734
79.08000 1.249
79.10000 3.776
79.12000 4.861
79.14000 4.359
79.16000 3.096
79.18000 0.043
79.20000 3.898
79.22000 0.863
79.24000 3.403
79.26000 2.538
79.28000 3.917
79.30000 3.747
79.32000 1.447
79.34000 -0.004
79.36000 0.132
79.38000 1.313
79.40000 -1.162
79.42000 1.012
79.44000 3.021
79.46000 3.802
79.48000 3.416
79.50000 3.053
79.52000 2.918
79.54000 1.345
79.56000 3.533
79.58000 5.137
79.60000 0.817
79.62000 -0.149
79.64000 3.224
79.66000 1.202
79.68000 2.486
79.70000 1.125
79.72000 0.420
79.74000 1.893
79.76000 0.741
79.78000 3.639
79.80000 2.593
79.82000 0.309
79.84000 2.059
79.86000 3.809
79.88000 2.528
79.90000 4.892
79.92000 5.890
79.94000 5.475
79.96000 1.674
79.98000 1.424
80.00000 0.388
80.02000 1.214
80.04000 -2.238
80.06000 -0.583
80.08000 -0.518
80.10000 -0.720
80.12000 -0.678
80.14000 -0.195
80.16000 2.965
80.18000 3.026
80.20000 4.692
80.22000 5.091
80.24000 5.339
80.26000 2.242
80.28000 1.334
80.30000 5.006
80.32000 7.631
80.34000 7.281
80.36000 5.796
80.38000 6.910
80.40000 8.821
80.42000 6.905
80.44000 2.176
80.46000 0.394
80.48000 3.544
80.50000 1.980
80.52000 3.027
80.54000 2.457
80.56000 1.091
80.58000 2.257
80.60000 2.485
80.62000 6.353
80.64000 4.424
80.66000 1.325
80.68000 0.765
80.70000 -2.244
80.72000 2.681
80.74000 4.015
80.76000 5.352
80.78000 4.311
80.80000 2.164
80.82000 2.035
80.84000 6.270
80.86000 4.050
80.88000 2.233
80.90000 2.855
80.92000 2.618
80.94000 5.783
80.96000 1.276
80.98000 -2.284
81.00000 -0.077
81.02000 2.729
81.04000 8.137
81.06000 3.313
81.08000 0.977
81.10000 0.960
81.12000 0.707
81.14000 3.458
81.16000 7.897
81.18000 6.285
81.20000 5.782
81.22000 2.422
81.24000 3.784
81.26000 1.768
81.28000 9.801
81.30000 4.665
81.32000 4.224
81.34000 6.160
81.36000 2.264
81.38000 4.149
81.40000 2.595
81.42000 4.822
81.44000 5.757
81.46000 3.326
81.48000 3.462
81.50000 7.714
81.52000 6.973
81.54000 5.302
81.56000 5.895
81.58000 5.914
81.60000 6.087
81.62000 6.506
81.64000 7.369
81.66000 8.618
81.68000 8.046
81.70000 8.234
81.72000 7.157
81.74000 3.342
81.76000 4.427
81.78000 8.590
81.80000 11.234
81.82000 11.594
81.84000 10.193
81.86000 12.998
81.88000 13.486
81.90000 13.300
81.92000 5.023
81.94000 6.423
81.96000 8.690
81.98000 11.839
82.00000 11.063
82.02000 11.763
82.04000 11.787
82.06000 16.920
82.08000 20.479
82.10000 17.539
82.12000 14.857
82.14000 16.599
82.16000 14.961
82.18000 15.723
82.20000 19.499
82.22000 22.014
82.24000 21.284
82.26000 21.024
82.28000 20.587
82.30000 19.121
82.32000 18.646
82.34000 15.451
82.36000 19.506
82.38000 23.495
82.40000 23.893
82.42000 21.505
82.44000 27.651
82.46000 30.223
82.48000 28.306
82.50000 25.244
82.52000 25.257
82.54000 32.933
82.56000 35.800
82.58000 36.211
82.60000 37.548
82.62000 37.568
82.64000 33.459
82.66000 34.683
82.68000 39.278
82.70000 39.269
82.72000 42.255
82.74000 44.264
82.76000 35.537
82.78000 37.005
82.80000 37.248
82.82000 40.938
82.84000 40.604
82.86000 41.617
82.88000 43.804
82.90000 43.683
82.92000 48.904
82.94000 48.963
82.96000 44.150
82.98000 46.708
83.00000 43.157
83.02000 42.745
83.04000 47.193
83.06000 46.181
83.08000 44.957
83.10000 43.850
83.12000 48.720
83.14000 48.607
83.16000 44.511
83.18000 42.245
83.20000 43.104
83.22000 38.331
83.24000 43.229
83.26000 41.536
83.28000 37.763
83.30000 38.533
83.32000 41.131
83.34000 42.179
83.36000 39.734
83.38000 41.887
83.40000 37.139
83.42000 34.261
83.44000 33.641
83.46000 36.480
83.48000 34.539
83.50000 32.643
83.52000 35.158
83.54000 31.731
83.56000 28.488
83.58000 29.744
83.60000 25.339
83.62000 19.007
83.64000 21.279
83.66000 26.549
83.68000 26.346
83.70000 24.779
83.72000 25.489
83.74000 24.037
83.76000 17.847
83.78000 13.329
83.80000 17.612
83.82000 15.644
83.84000 17.056
83.86000 11.150
83.88000 8.077
83.90000 9.883
83.92000 12.601
83.94000 12.349
83.96000 11.540
83.98000 7.893
84.00000 9.727
84.02000 6.374
84.04000 10.000
84.06000 8.020
84.08000 8.298
84.10000 6.138
84.12000 7.091
84.14000 9.426
84.16000 9.590
84.18000 10.406
84.20000 7.142
84.22000 7.691
84.24000 8.890
84.26000 4.654
84.28000 3.678
84.30000 6.615
84.32000 6.967
84.34000 6.635
84.36000 6.233
84.38000 2.026
84.40000 1.747
84.42000 3.590
84.44000 6.989
84.46000 4.100
84.48000 0.017
84.50000 2.191
84.52000 4.435
84.54000 2.892
84.56000 0.111
84.58000 0.174
84.60000 -2.355
84.62000 -0.193
84.64000 0.105
84.66000 0.274
84.68000 2.098
84.70000 1.393
84.72000 7.084
84.74000 1.939
84.76000 4.160
84.78000 1.422
84.80000 1.243
84.82000 1.015
84.84000 3.696
84.86000 3.413
84.88000 0.974
84.90000 -2.308
84.92000 -0.842
84.94000 0.110
84.96000 1.799
84.98000 5.530
85.00000 7.074
85.02000 2.680
85.04000 1.278
85.06000 4.401
85.08000 6.229
85.10000 2.558
85.12000 -0.519
85.14000 -2.182
85.16000 -2.272
85.18000 0.032
85.20000 3.034
85.22000 0.864
85.24000 -0.287
85.26000 -2.171
85.28000 -0.176
85.30000 0.721
85.32000 0.369
85.34000 2.665
85.36000 6.864
85.38000 2.802
85.40000 -0.205
85.42000 0.694
85.44000 0.717
85.46000 2.348
85.48000 3.399
85.50000 0.686
85.52000 0.150
85.54000 1.031
85.56000 5.861
85.58000 4.722
85.60000 5.276
85.62000 7.654
85.64000 0.067
85.66000 -1.409
85.68000 2.527
85.70000 4.737
85.72000 2.299
85.74000 2.314
85.76000 5.504
85.78000 4.014
85.80000 0.542
85.82000 5.125
85.84000 4.029
85.86000 2.851
85.88000 3.283
85.90000 1.260
85.92000 -2.227
85.94000 1.019
85.96000 3.932
85.98000 6.153
86.00000 7.098
86.02000 1.777
86.04000 1.512
86.06000 6.561
86.08000 4.737
86.10000 4.566
86.12000 7.472
86.14000 5.143
86.16000 0.744
86.18000 2.219
86.20000 -1.816
86.22000 -2.175
86.24000 -0.742
86.26000 3.545
86.28000 3.194
86.30000 2.249
86.32000 7.406
86.34000 7.271
86.36000 7.616
86.38000 6.329
86.40000 2.613
86.42000 3.892
86.44000 7.204
86.46000 5.731
86.48000 5.959
86.50000 7.051
86.52000 5.588
86.54000 3.473
86.56000 2.911
86.58000 2.662
86.60000 4.651
86.62000 4.835
86.64000 6.849
86.66000 6.340
86.68000 8.260
86.70000 7.242
86.72000 8.377
86.74000 10.152
86.76000 9.332
86.78000 9.940
86.80000 10.220
86.82000 13.994
86.84000 14.115
86.86000 13.886
86.88000 14.269
86.90000 11.014
86.92000 17.972
86.94000 17.647
86.96000 14.609
86.98000 12.610
87.00000 11.966
87.02000 16.816
87.04000 18.183
87.06000 24.751
87.08000 21.230
87.10000 21.269
87.12000 20.070
87.14000 18.771
87.16000 19.507
87.18000 21.825
87.20000 24.008
87.22000 19.972
87.24000 17.619
87.26000 21.992
87.28000 22.724
87.30000 24.346
87.32000 28.023
87.34000 29.022
87.36000 28.521
87.38000 27.904
87.40000 23.271
87.42000 22.398
87.44000 28.977
87.46000 30.301
87.48000 27.329
87.50000 27.633
87.52000 28.227
87.54000 27.758
87.56000 26.020
87.58000 27.798
87.60000 23.874
87.62000 25.755
87.64000 25.794
87.66000 29.154
87.68000 26.269
87.70000 23.047
87.72000 25.455
87.74000 27.581
87.76000 29.137
87.78000 26.448
87.80000 21.911
87.82000 18.443
87.84000 20.966
87.86000 20.287
87.88000 19.676
87.90000 18.386
87.92000 18.812
87.94000 23.683
87.96000 22.429
87.98000 22.694
88.00000 22.511
88.02000 17.155
88.04000 11.435
88.06000 12.451
88.08000 11.343
88.10000 9.842
88.12000 15.192
88.14000 15.204
88.16000 17.272
88.18000 16.227
88.20000 16.576
88.22000 10.746
88.24000 8.498
88.26000 6.869
88.28000 8.805
88.30000 9.498
88.32000 10.631
88.34000 6.303
88.36000 6.201
88.38000 6.677
88.40000 10.764
88.42000 9.410
88.44000 4.424
88.46000 1.884
88.48000 6.658
88.50000 6.569
88.52000 7.256
88.54000 7.553
88.56000 5.897
88.58000 4.133
88.60000 7.185
88.62000 3.664
88.64000 5.503
88.66000 1.946
88.68000 1.076
88.70000 4.095
88.72000 3.807
88.74000 4.848
88.76000 6.009
88.78000 3.517
88.80000 1.637
88.82000 4.959
88.84000 4.257
88.86000 -2.134
88.88000 2.881
88.90000 5.226
88.92000 5.547
88.94000 7.601
88.96000 6.580
88.98000 9.054
89.00000 4.266
89.02000 4.554
89.04000 2.197
89.06000 1.079
89.08000 2.124
89.10000 3.232
89.12000 0.211
89.14000 3.464
89.16000 2.731
89.18000 8.320
89.20000 4.091
89.22000 0.913
89.24000 0.247
89.26000 2.194
89.28000 4.181
89.30000 3.062
89.32000 -0.398
89.34000 2.519
89.36000 4.073
89.38000 6.088
89.40000 2.534
89.42000 3.150
89.44000 3.676
89.46000 2.968
89.48000 4.179
89.50000 1.886
89.52000 -0.054
89.54000 2.496
89.56000 2.574
89.58000 2.124
89.60000 4.395
89.62000 4.979
89.64000 4.919
89.66000 5.136
89.68000 2.360
89.70000 0.775
89.72000 3.727
89.74000 5.735
89.76000 4.584
89.78000 4.108
89.80000 -2.101
89.82000 0.043
89.84000 -1.822
89.86000 3.225
89.88000 0.285
89.90000 1.054
89.92000 -2.099
89.94000 -1.472
89.96000 -0.234
89.98000 1.393
90.00000 4.670
90.02000 4.413
90.04000 1.658
90.06000 1.717
90.08000 2.644
90.10000 4.627
90.12000 1.273
90.14000 5.883
90.16000 4.184
90.18000 0.348
90.20000 0.418
90.22000 5.582
90.24000 4.021
90.26000 4.047
90.28000 5.084
90.30000 4.551
90.32000 2.533
90.34000 5.446
90.36000 2.963
90.38000 0.804
90.40000 3.979
90.42000 -0.696
90.44000 -0.090
90.46000 1.083
90.48000 0.559
90.50000 1.898
90.52000 4.170
90.54000 3.479
90.56000 0.459
90.58000 3.842
90.60000 3.825
90.62000 1.406
90.64000 0.426
90.66000 2.464
90.68000 3.160
90.70000 3.338
90.72000 -0.199
90.74000 2.358
90.76000 1.697
90.78000 3.690
90.80000 2.948
90.82000 2.363
90.84000 5.808
90.86000 5.577
90.88000 3.521
90.90000 4.730
90.92000 3.195
90.94000 4.312
90.96000 5.905
90.98000 2.521
91.00000 0.265
91.02000 -2.055
91.04000 1.884
91.06000 3.256
91.08000 -0.834
91.10000 3.394
91.12000 7.037
91.14000 6.412
91.16000 5.334
91.18000 1.369
91.20000 2.489
91.22000 3.058
91.24000 0.324
91.26000 2.980
91.28000 4.371
91.30000 -0.562
91.32000 -0.730
91.34000 2.251
91.36000 6.549
91.38000 5.371
91.40000 2.701
91.42000 1.745
91.44000 0.868
91.46000 4.383
91.48000 1.808
91.50000 3.787
91.52000 4.497
91.54000 8.979
91.56000 4.879
91.58000 0.923
91.60000 3.089
91.62000 2.860
91.64000 5.208
91.66000 4.274
91.68000 2.058
91.70000 -1.447
91.72000 1.414
91.74000 6.143
91.76000 4.639
91.78000 4.812
91.80000 5.987
91.82000 1.027
91.84000 8.199
91.86000 5.713
91.88000 3.690
91.90000 3.585
91.92000 0.593
91.94000 2.193
91.96000 2.487
91.98000 1.496
92.00000 2.865
92.02000 4.181
92.04000 2.354
92.06000 3.380
92.08000 2.554
92.10000 -0.880
92.12000 -2.080
92.14000 4.205
92.16000 4.588
92.18000 1.098
92.20000 -1.769
92.22000 -0.105
92.24000 -1.811
92.26000 -0.515
92.28000 3.701
92.30000 5.398
92.32000 1.955
92.34000 5.671
92.36000 4.298
92.38000 2.833
92.40000 0.764
92.42000 1.749
92.44000 0.204
92.46000 0.076
92.48000 2.527
92.50000 3.929
92.52000 6.311
92.54000 4.272
92.56000 0.855
92.58000 2.642
92.60000 1.903
92.62000 3.994
92.64000 6.127
92.66000 2.480
92.68000 2.363
92.70000 3.752
92.72000 2.394
92.74000 0.967
92.76000 0.703
92.78000 2.385
92.80000 3.055
92.82000 2.996
92.84000 1.579
92.86000 0.321
92.88000 -2.070
92.90000 1.923
92.92000 3.377
92.94000 2.620
92.96000 1.355
92.98000 3.319
93.00000 3.533
93.02000 1.185
93.04000 3.813
93.06000 6.016
93.08000 4.064
93.10000 3.423
93.12000 3.864
93.14000 3.495
93.16000 0.490
93.18000 2.237
93.20000 -0.527
93.22000 3.597
93.24000 5.477
93.26000 6.132
93.28000 1.908
93.30000 0.651
93.32000 2.826
93.34000 4.268
93.36000 5.226
93.38000 3.590
93.40000 3.739
93.42000 1.918
93.44000 -0.198
93.46000 0.562
93.48000 1.843
93.50000 0.638
93.52000 -1.278
93.54000 -0.461
93.56000 -0.844
93.58000 -0.139
93.60000 -0.376
93.62000 3.927
93.64000 5.996
93.66000 1.294
93.68000 -0.618
93.70000 -0.451
93.72000 2.198
93.74000 0.513
93.76000 5.190
93.78000 3.810
93.80000 3.062
93.82000 -0.104
93.84000 1.500
93.86000 1.012
93.88000 -2.093
93.90000 2.225
93.92000 3.172
93.94000 2.665
93.96000 1.918
93.98000 2.050
94.00000 -0.134
94.02000 0.556
94.04000 0.125
94.06000 0.144
94.08000 5.818
94.10000 5.664
94.12000 0.317
94.14000 2.610
94.16000 4.250
94.18000 3.505
94.20000 3.418
94.22000 3.464
94.24000 -1.503
94.26000 2.111
94.28000 -0.514
94.30000 0.459
94.32000 0.500
94.34000 3.353
94.36000 3.192
94.38000 6.330
94.40000 6.327
94.42000 6.292
94.44000 3.743
94.46000 6.396
94.48000 5.602
94.50000 3.873
94.52000 1.553
94.54000 3.540
94.56000 1.292
94.58000 -2.118
94.60000 0.255
94.62000 1.699
94.64000 1.363
94.66000 2.925
94.68000 5.148
94.70000 1.668
94.72000 3.253
94.74000 7.414
94.76000 6.065
94.78000 5.194
94.80000 1.578
94.82000 0.188
94.84000 1.414
94.86000 1.042
94.88000 1.280
94.90000 0.494
94.92000 0.837
94.94000 3.346
94.96000 0.812
94.98000 -0.460
95.00000 1.217
95.02000 1.611
95.04000 -0.134
95.06000 1.447
95.08000 1.972
95.10000 0.727
95.12000 0.540
95.14000 3.184
95.16000 2.236
95.18000 4.235
95.20000 7.332
95.22000 2.403
95.24000 1.057
95.26000 -1.292
95.28000 3.580
95.30000 1.889
95.32000 0.005
95.34000 4.920
95.36000 3.085
95.38000 -1.479
95.40000 2.936
95.42000 4.147
95.44000 4.665
95.46000 4.623
95.48000 4.193
95.50000 2.089
95.52000 -0.654
95.54000 2.886
95.56000 -1.584
95.58000 -0.232
95.60000 -0.828
95.62000 -0.699
95.64000 -2.076
95.66000 5.838
95.68000 4.600
95.70000 4.306
95.72000 7.707
95.74000 2.269
95.76000 -1.209
95.78000 -2.071
95.80000 2.067
95.82000 0.439
95.84000 4.475
95.86000 5.597
95.88000 2.042
95.90000 0.172
95.92000 4.550
95.94000 0.674
95.96000 -0.838
95.98000 5.467
96.00000 4.867
96.02000 7.956
96.04000 5.570
96.06000 3.626
96.08000 4.073
96.10000 5.311
96.12000 7.461
96.14000 3.707
96.16000 5.954
96.18000 -1.058
96.20000 6.178
96.22000 7.750
96.24000 6.885
96.26000 5.736
96.28000 -0.285
96.30000 5.410
96.32000 11.985
96.34000 12.136
96.36000 6.205
96.38000 3.698
96.40000 1.464
96.42000 4.028
96.44000 4.460
96.46000 0.795
96.48000 -2.021
96.50000 5.141
96.52000 9.302
96.54000 8.363
96.56000 5.170
96.58000 5.767
96.60000 4.558
96.62000 3.950
96.64000 4.018
96.66000 5.811
96.68000 2.292
96.70000 5.585
96.72000 9.320
96.74000 8.279
96.76000 7.300
96.78000 7.641
96.80000 0.374
96.82000 0.511
96.84000 5.456
96.86000 4.653
96.88000 1.540
96.90000 2.526
96.92000 7.623
96.94000 5.949
96.96000 2.438
96.98000 1.960
97.00000 1.287
97.02000 12.255
97.04000 6.361
97.06000 0.808
97.08000 4.901
97.10000 5.542
97.12000 2.969
97.14000 -1.734
97.16000 2.106
97.18000 4.100
97.20000 6.583
97.22000 3.020
97.24000 4.188
97.26000 4.418
97.28000 3.374
97.30000 5.237
97.32000 4.353
97.34000 1.252
97.36000 5.251
97.38000 2.343
97.40000 1.056
97.42000 5.703
97.44000 1.614
97.46000 6.092
97.48000 3.431
97.50000 1.914
97.52000 -1.767
97.54000 0.142
97.56000 2.010
97.58000 1.635
97.60000 3.280
97.62000 4.143
97.64000 2.057
97.66000 0.330
97.68000 1.695
97.70000 4.318
97.72000 8.519
97.74000 7.051
97.76000 6.790
97.78000 4.155
97.80000 -0.622
97.82000 0.788
97.84000 4.397
97.86000 -0.736
97.88000 1.532
97.90000 3.753
97.92000 9.912
97.94000 7.744
97.96000 4.617
97.98000 5.760
98.00000 6.311
98.02000 7.867
98.04000 4.788
98.06000 5.702
98.08000 5.926
98.10000 5.780
98.12000 4.636
98.14000 1.332
98.16000 5.373
98.18000 6.579
98.20000 4.772
98.22000 0.651
98.24000 7.042
98.26000 3.097
98.28000 2.503
98.30000 6.169
98.32000 6.752
98.34000 2.512
98.36000 0.942
98.38000 -2.020
98.40000 6.264
98.42000 5.208
98.44000 6.487
98.46000 11.175
98.48000 7.514
98.50000 8.732
98.52000 8.299
98.54000 4.524
98.56000 1.259
98.58000 0.754
98.60000 5.209
98.62000 4.641
98.64000 10.867
98.66000 11.912
98.68000 7.724
98.70000 10.906
98.72000 4.248
98.74000 8.106
98.76000 11.003
98.78000 7.061
98.80000 6.051
98.82000 5.573
98.84000 8.040
98.86000 5.562
98.88000 6.173
98.90000 3.652
98.92000 1.325
98.94000 6.476
98.96000 12.691
98.98000 3.087
99.00000 -1.744
99.02000 1.156
99.04000 0.096
99.06000 3.801
99.08000 2.149
99.10000 -0.391
99.12000 2.090
99.14000 6.978
99.16000 -1.991
99.18000 0.607
99.20000 10.705
99.22000 9.633
99.24000 2.938
99.26000 0.595
99.28000 6.215
99.30000 3.845
99.32000 1.991
99.34000 9.132
99.36000 5.242
99.38000 2.777
99.40000 0.788
99.42000 3.948
99.44000 7.060
99.46000 4.806
99.48000 -1.462
99.50000 8.653
99.52000 4.856
99.54000 -0.987
99.56000 0.989
99.58000 7.245
99.60000 0.068
99.62000 3.125
99.64000 8.380
99.66000 6.629
99.68000 -0.894
99.70000 -2.826
99.72000 10.984
99.74000 9.770
99.76000 14.265
99.78000 10.884
99.80000 13.254
99.82000 19.854
99.84000 20.143
99.86000 17.987
99.88000 4.452
99.90000 -2.018
99.92000 -0.963
99.94000 5.723
99.96000 -4.904
99.98000 0.000
