'Id: "0011388" Comment: "Integrate frame 0011388_Au-Ir-Rh_Rh-rich_XRD-Mapping-320-0000.gfrmwith cursor Wedge Cursor #5" Operator: "B?rgel" Anode: "Cu" Wavelength: "1.5406" Scantype: "2Theta (TwoTheta)" TimePerStep: "1" X: "13.5" Y: "36" Z: "5.95" 
10.00000 0.000
10.02000 -4.087
10.04000 -2.915
10.06000 1.497
10.08000 -2.677
10.10000 6.688
10.12000 9.808
10.14000 16.090
10.16000 29.941
10.18000 11.665
10.20000 1.916
10.22000 6.936
10.24000 14.194
10.26000 11.196
10.28000 14.979
10.30000 16.633
10.32000 24.189
10.34000 12.740
10.36000 -0.736
10.38000 10.590
10.40000 31.871
10.42000 28.219
10.44000 27.958
10.46000 20.918
10.48000 5.444
10.50000 29.824
10.52000 32.650
10.54000 6.625
10.56000 -4.067
10.58000 9.169
10.60000 20.203
10.62000 28.951
10.64000 35.244
10.66000 20.498
10.68000 17.650
10.70000 23.423
10.72000 31.275
10.74000 38.788
10.76000 23.470
10.78000 27.057
10.80000 26.221
10.82000 22.344
10.84000 14.399
10.86000 20.292
10.88000 18.395
10.90000 20.438
10.92000 30.685
10.94000 29.160
10.96000 33.543
10.98000 41.912
11.00000 29.775
11.02000 8.099
11.04000 7.734
11.06000 24.922
11.08000 28.371
11.10000 20.886
11.12000 19.131
11.14000 32.612
11.16000 28.634
11.18000 19.574
11.20000 23.972
11.22000 23.500
11.24000 26.669
11.26000 32.334
11.28000 23.693
11.30000 12.387
11.32000 14.512
11.34000 3.250
11.36000 7.917
11.38000 26.293
11.40000 27.587
11.42000 24.275
11.44000 19.428
11.46000 27.185
11.48000 20.586
11.50000 23.413
11.52000 27.682
11.54000 32.324
11.56000 37.961
11.58000 28.263
11.60000 24.639
11.62000 24.488
11.64000 13.035
11.66000 18.321
11.68000 23.884
11.70000 21.986
11.72000 24.855
11.74000 16.785
11.76000 17.459
11.78000 23.035
11.80000 9.938
11.82000 14.680
11.84000 16.235
11.86000 18.883
11.88000 15.567
11.90000 17.371
11.92000 21.629
11.94000 14.289
11.96000 23.059
11.98000 32.700
12.00000 20.798
12.02000 20.900
12.04000 28.498
12.06000 27.251
12.08000 24.581
12.10000 29.333
12.12000 24.819
12.14000 27.414
12.16000 22.664
12.18000 13.912
12.20000 16.467
12.22000 21.357
12.24000 26.882
12.26000 32.509
12.28000 35.232
12.30000 25.435
12.32000 17.975
12.34000 29.565
12.36000 24.767
12.38000 11.028
12.40000 21.069
12.42000 16.949
12.44000 26.196
12.46000 28.488
12.48000 29.694
12.50000 14.209
12.52000 2.013
12.54000 17.290
12.56000 15.725
12.58000 10.652
12.60000 21.656
12.62000 27.780
12.64000 25.320
12.66000 14.760
12.68000 14.500
12.70000 17.012
12.72000 17.516
12.74000 17.469
12.76000 12.486
12.78000 15.325
12.80000 17.788
12.82000 11.046
12.84000 12.499
12.86000 18.024
12.88000 24.784
12.90000 19.124
12.92000 18.265
12.94000 20.981
12.96000 22.349
12.98000 18.526
13.00000 20.816
13.02000 22.359
13.04000 20.405
13.06000 22.234
13.08000 17.978
13.10000 17.775
13.12000 16.189
13.14000 16.757
13.16000 23.498
13.18000 20.042
13.20000 22.150
13.22000 25.889
13.24000 20.265
13.26000 16.254
13.28000 15.612
13.30000 20.234
13.32000 23.284
13.34000 27.801
13.36000 24.065
13.38000 12.712
13.40000 17.129
13.42000 16.383
13.44000 7.633
13.46000 16.911
13.48000 12.897
13.50000 6.813
13.52000 6.965
13.54000 12.011
13.56000 15.255
13.58000 14.558
13.60000 18.723
13.62000 18.526
13.64000 9.786
13.66000 17.720
13.68000 20.775
13.70000 21.140
13.72000 15.915
13.74000 9.476
13.76000 2.032
13.78000 5.245
13.80000 7.114
13.82000 18.288
13.84000 18.980
13.86000 16.711
13.88000 22.937
13.90000 18.644
13.92000 6.583
13.94000 3.793
13.96000 11.070
13.98000 8.712
14.00000 6.629
14.02000 8.000
14.04000 8.583
14.06000 11.416
14.08000 8.405
14.10000 15.662
14.12000 17.616
14.14000 25.203
14.16000 15.483
14.18000 6.542
14.20000 11.818
14.22000 11.265
14.24000 12.359
14.26000 19.546
14.28000 13.442
14.30000 17.139
14.32000 9.820
14.34000 7.904
14.36000 10.173
14.38000 11.955
14.40000 7.866
14.42000 11.146
14.44000 8.645
14.46000 4.831
14.48000 2.749
14.50000 13.183
14.52000 10.609
14.54000 2.120
14.56000 -3.369
14.58000 5.880
14.60000 0.265
14.62000 0.542
14.64000 5.462
14.66000 11.087
14.68000 16.252
14.70000 13.089
14.72000 4.349
14.74000 3.972
14.76000 5.671
14.78000 5.348
14.80000 6.601
14.82000 4.102
14.84000 7.788
14.86000 5.531
14.88000 9.292
14.90000 7.175
14.92000 10.423
14.94000 10.251
14.96000 10.290
14.98000 12.348
15.00000 4.388
15.02000 10.585
15.04000 5.232
15.06000 8.552
15.08000 11.926
15.10000 5.602
15.12000 1.860
15.14000 7.004
15.16000 -1.199
15.18000 0.139
15.20000 1.734
15.22000 7.641
15.24000 13.529
15.26000 10.139
15.28000 11.434
15.30000 2.749
15.32000 2.589
15.34000 7.575
15.36000 4.739
15.38000 -0.776
15.40000 3.220
15.42000 9.762
15.44000 7.877
15.46000 11.429
15.48000 7.575
15.50000 16.336
15.52000 21.599
15.54000 16.373
15.56000 12.829
15.58000 11.058
15.60000 12.126
15.62000 15.538
15.64000 11.676
15.66000 6.638
15.68000 7.311
15.70000 5.164
15.72000 -0.163
15.74000 1.163
15.76000 7.075
15.78000 9.618
15.80000 6.062
15.82000 5.363
15.84000 15.497
15.86000 13.493
15.88000 13.731
15.90000 11.195
15.92000 14.590
15.94000 2.877
15.96000 7.750
15.98000 13.456
16.00000 0.702
16.02000 -4.472
16.04000 -1.359
16.06000 3.787
16.08000 10.724
16.10000 10.517
16.12000 4.794
16.14000 9.073
16.16000 7.405
16.18000 4.206
16.20000 3.676
16.22000 1.497
16.24000 11.642
16.26000 7.550
16.28000 0.218
16.30000 3.310
16.32000 0.194
16.34000 -2.928
16.36000 -2.650
16.38000 -2.892
16.40000 0.156
16.42000 10.418
16.44000 11.751
16.46000 8.286
16.48000 6.659
16.50000 8.791
16.52000 -0.697
16.54000 -4.001
16.56000 -1.354
16.58000 4.024
16.60000 5.475
16.62000 9.956
16.64000 12.547
16.66000 6.724
16.68000 6.481
16.70000 9.080
16.72000 18.447
16.74000 14.359
16.76000 8.878
16.78000 9.146
16.80000 10.890
16.82000 3.844
16.84000 5.056
16.86000 10.351
16.88000 12.022
16.90000 11.881
16.92000 1.176
16.94000 -0.287
16.96000 4.928
16.98000 8.854
17.00000 11.482
17.02000 7.383
17.04000 7.837
17.06000 10.998
17.08000 7.896
17.10000 9.527
17.12000 6.405
17.14000 7.748
17.16000 15.500
17.18000 14.125
17.20000 12.073
17.22000 11.306
17.24000 7.877
17.26000 10.795
17.28000 7.469
17.30000 1.717
17.32000 7.548
17.34000 0.563
17.36000 -4.091
17.38000 8.856
17.40000 14.534
17.42000 14.607
17.44000 11.578
17.46000 3.214
17.48000 2.702
17.50000 7.957
17.52000 8.690
17.54000 12.066
17.56000 7.993
17.58000 6.451
17.60000 10.047
17.62000 8.755
17.64000 5.079
17.66000 9.137
17.68000 18.383
17.70000 3.994
17.72000 -4.350
17.74000 1.298
17.76000 7.086
17.78000 4.509
17.80000 5.971
17.82000 1.699
17.84000 -3.426
17.86000 5.598
17.88000 10.031
17.90000 2.187
17.92000 4.139
17.94000 10.875
17.96000 9.815
17.98000 13.733
18.00000 12.841
18.02000 7.603
18.04000 5.622
18.06000 8.315
18.08000 6.959
18.10000 12.028
18.12000 11.056
18.14000 11.718
18.16000 15.149
18.18000 8.550
18.20000 4.958
18.22000 1.816
18.24000 6.683
18.26000 11.673
18.28000 5.309
18.30000 10.044
18.32000 14.246
18.34000 18.829
18.36000 11.342
18.38000 7.580
18.40000 4.375
18.42000 5.789
18.44000 6.523
18.46000 10.381
18.48000 10.434
18.50000 9.902
18.52000 5.894
18.54000 3.805
18.56000 -1.576
18.58000 0.651
18.60000 9.546
18.62000 6.122
18.64000 7.303
18.66000 9.568
18.68000 13.918
18.70000 17.006
18.72000 12.387
18.74000 4.279
18.76000 -1.110
18.78000 -4.306
18.80000 -0.988
18.82000 3.376
18.84000 10.286
18.86000 9.527
18.88000 2.471
18.90000 -0.010
18.92000 4.889
18.94000 8.810
18.96000 1.544
18.98000 -0.942
19.00000 5.379
19.02000 12.727
19.04000 8.695
19.06000 5.512
19.08000 4.253
19.10000 11.677
19.12000 6.249
19.14000 4.702
19.16000 3.559
19.18000 1.745
19.20000 5.335
19.22000 9.565
19.24000 6.622
19.26000 9.363
19.28000 6.479
19.30000 5.991
19.32000 8.130
19.34000 8.617
19.36000 3.653
19.38000 10.463
19.40000 9.772
19.42000 9.858
19.44000 6.181
19.46000 6.621
19.48000 7.115
19.50000 -1.670
19.52000 -0.331
19.54000 10.751
19.56000 5.763
19.58000 6.852
19.60000 11.055
19.62000 4.919
19.64000 12.878
19.66000 14.596
19.68000 14.896
19.70000 7.457
19.72000 9.853
19.74000 11.107
19.76000 8.874
19.78000 6.713
19.80000 4.662
19.82000 2.013
19.84000 -2.252
19.86000 0.060
19.88000 7.459
19.90000 12.294
19.92000 17.290
19.94000 12.104
19.96000 2.795
19.98000 1.809
20.00000 3.188
20.02000 3.014
20.04000 11.452
20.06000 12.805
20.08000 9.247
20.10000 6.366
20.12000 6.464
20.14000 10.354
20.16000 6.011
20.18000 2.025
20.20000 3.967
20.22000 3.409
20.24000 6.680
20.26000 5.585
20.28000 9.264
20.30000 11.905
20.32000 6.583
20.34000 5.338
20.36000 3.520
20.38000 4.931
20.40000 9.939
20.42000 9.355
20.44000 7.194
20.46000 10.131
20.48000 1.761
20.50000 -4.214
20.52000 2.922
20.54000 2.309
20.56000 3.907
20.58000 5.908
20.60000 7.654
20.62000 6.222
20.64000 7.443
20.66000 7.522
20.68000 -0.172
20.70000 -2.313
20.72000 -0.481
20.74000 3.457
20.76000 8.059
20.78000 5.186
20.80000 7.188
20.82000 4.503
20.84000 4.946
20.86000 8.549
20.88000 5.967
20.90000 -0.014
20.92000 -1.184
20.94000 4.431
20.96000 6.102
20.98000 7.544
21.00000 0.545
21.02000 4.814
21.04000 6.841
21.06000 6.341
21.08000 5.612
21.10000 6.132
21.12000 7.027
21.14000 6.376
21.16000 8.043
21.18000 5.653
21.20000 3.714
21.22000 3.897
21.24000 3.315
21.26000 -1.444
21.28000 0.274
21.30000 1.295
21.32000 5.760
21.34000 5.646
21.36000 8.856
21.38000 7.462
21.40000 4.287
21.42000 0.436
21.44000 5.265
21.46000 3.128
21.48000 3.521
21.50000 8.390
21.52000 10.981
21.54000 4.491
21.56000 -2.932
21.58000 -4.184
21.60000 -3.267
21.62000 4.109
21.64000 5.210
21.66000 6.607
21.68000 7.809
21.70000 9.470
21.72000 8.639
21.74000 7.906
21.76000 -0.746
21.78000 -0.851
21.80000 1.070
21.82000 1.370
21.84000 -1.778
21.86000 -0.577
21.88000 4.271
21.90000 8.129
21.92000 6.235
21.94000 4.802
21.96000 1.767
21.98000 -4.163
22.00000 1.771
22.02000 7.904
22.04000 5.337
22.06000 7.863
22.08000 3.864
22.10000 4.262
22.12000 7.177
22.14000 8.305
22.16000 5.749
22.18000 3.640
22.20000 0.732
22.22000 -1.487
22.24000 0.642
22.26000 5.379
22.28000 2.836
22.30000 -2.012
22.32000 0.838
22.34000 3.145
22.36000 3.423
22.38000 -2.168
22.40000 1.039
22.42000 8.836
22.44000 9.118
22.46000 4.016
22.48000 6.219
22.50000 5.433
22.52000 9.380
22.54000 10.732
22.56000 7.621
22.58000 5.576
22.60000 5.255
22.62000 -0.608
22.64000 3.079
22.66000 5.152
22.68000 2.768
22.70000 4.079
22.72000 -0.392
22.74000 3.673
22.76000 -2.854
22.78000 -0.666
22.80000 5.642
22.82000 -0.263
22.84000 -2.731
22.86000 0.043
22.88000 3.007
22.90000 5.694
22.92000 3.722
22.94000 5.444
22.96000 3.858
22.98000 8.691
23.00000 5.949
23.02000 -1.416
23.04000 4.129
23.06000 1.924
23.08000 1.474
23.10000 6.246
23.12000 -0.820
23.14000 -3.368
23.16000 0.418
23.18000 2.866
23.20000 3.737
23.22000 5.338
23.24000 5.191
23.26000 2.411
23.28000 5.006
23.30000 2.924
23.32000 1.369
23.34000 4.532
23.36000 1.207
23.38000 -3.219
23.40000 -4.076
23.42000 0.690
23.44000 -1.546
23.46000 4.192
23.48000 6.279
23.50000 5.281
23.52000 7.896
23.54000 7.429
23.56000 1.446
23.58000 3.335
23.60000 8.585
23.62000 11.933
23.64000 6.747
23.66000 4.536
23.68000 2.674
23.70000 0.917
23.72000 -1.617
23.74000 4.233
23.76000 6.428
23.78000 3.799
23.80000 2.750
23.82000 4.837
23.84000 0.137
23.86000 -0.133
23.88000 -1.897
23.90000 3.103
23.92000 1.124
23.94000 0.563
23.96000 3.439
23.98000 5.016
24.00000 1.561
24.02000 7.912
24.04000 9.676
24.06000 6.976
24.08000 5.151
24.10000 5.572
24.12000 6.247
24.14000 6.468
24.16000 6.202
24.18000 3.446
24.20000 1.054
24.22000 1.521
24.24000 0.807
24.26000 0.076
24.28000 -1.896
24.30000 -0.282
24.32000 -1.801
24.34000 0.333
24.36000 1.975
24.38000 3.392
24.40000 8.944
24.42000 8.510
24.44000 7.093
24.46000 5.786
24.48000 5.461
24.50000 6.495
24.52000 0.042
24.54000 -0.080
24.56000 3.530
24.58000 6.710
24.60000 4.202
24.62000 2.175
24.64000 3.510
24.66000 -2.124
24.68000 -0.792
24.70000 1.725
24.72000 0.391
24.74000 2.510
24.76000 0.410
24.78000 2.718
24.80000 -1.105
24.82000 2.015
24.84000 -0.406
24.86000 -0.629
24.88000 -2.869
24.90000 4.371
24.92000 7.595
24.94000 7.098
24.96000 2.368
24.98000 1.238
25.00000 10.598
25.02000 11.120
25.04000 9.606
25.06000 7.272
25.08000 5.738
25.10000 6.837
25.12000 9.631
25.14000 13.345
25.16000 7.618
25.18000 3.893
25.20000 2.184
25.22000 3.486
25.24000 9.149
25.26000 3.959
25.28000 8.118
25.30000 14.373
25.32000 -0.928
25.34000 -1.579
25.36000 2.764
25.38000 4.668
25.40000 8.871
25.42000 9.674
25.44000 4.178
25.46000 5.236
25.48000 1.011
25.50000 -3.083
25.52000 -2.962
25.54000 -3.930
25.56000 2.069
25.58000 7.769
25.60000 8.862
25.62000 10.712
25.64000 8.662
25.66000 8.720
25.68000 9.902
25.70000 8.369
25.72000 9.836
25.74000 8.383
25.76000 13.170
25.78000 8.703
25.80000 10.212
25.82000 2.894
25.84000 2.479
25.86000 1.631
25.88000 3.006
25.90000 2.438
25.92000 -0.074
25.94000 2.710
25.96000 8.975
25.98000 8.974
26.00000 4.519
26.02000 4.155
26.04000 5.553
26.06000 6.658
26.08000 4.227
26.10000 7.704
26.12000 9.604
26.14000 6.458
26.16000 4.283
26.18000 2.952
26.20000 3.638
26.22000 6.191
26.24000 6.857
26.26000 11.884
26.28000 5.104
26.30000 4.129
26.32000 8.041
26.34000 12.141
26.36000 6.976
26.38000 8.072
26.40000 -0.027
26.42000 4.762
26.44000 4.193
26.46000 5.375
26.48000 9.939
26.50000 3.755
26.52000 0.760
26.54000 2.383
26.56000 2.548
26.58000 4.894
26.60000 7.113
26.62000 0.350
26.64000 0.605
26.66000 5.302
26.68000 3.721
26.70000 2.461
26.72000 2.614
26.74000 2.294
26.76000 2.847
26.78000 3.664
26.80000 0.967
26.82000 -2.454
26.84000 -1.339
26.86000 -1.122
26.88000 -0.527
26.90000 4.170
26.92000 2.825
26.94000 3.967
26.96000 5.118
26.98000 3.939
27.00000 5.637
27.02000 4.003
27.04000 6.360
27.06000 4.527
27.08000 0.616
27.10000 5.797
27.12000 4.529
27.14000 1.786
27.16000 0.210
27.18000 3.251
27.20000 3.635
27.22000 2.583
27.24000 -0.671
27.26000 0.395
27.28000 0.008
27.30000 2.993
27.32000 0.965
27.34000 -2.106
27.36000 -2.321
27.38000 -0.760
27.40000 4.585
27.42000 -1.279
27.44000 2.189
27.46000 3.677
27.48000 0.558
27.50000 0.489
27.52000 3.696
27.54000 -1.366
27.56000 0.776
27.58000 4.746
27.60000 -3.859
27.62000 -2.505
27.64000 3.530
27.66000 7.231
27.68000 1.700
27.70000 5.094
27.72000 7.433
27.74000 7.060
27.76000 3.015
27.78000 3.709
27.80000 4.138
27.82000 5.508
27.84000 -1.486
27.86000 2.149
27.88000 5.259
27.90000 5.491
27.92000 5.699
27.94000 3.656
27.96000 1.389
27.98000 1.391
28.00000 4.610
28.02000 5.236
28.04000 1.352
28.06000 2.273
28.08000 2.257
28.10000 3.889
28.12000 6.323
28.14000 5.156
28.16000 1.306
28.18000 3.862
28.20000 1.548
28.22000 5.622
28.24000 3.662
28.26000 3.646
28.28000 1.128
28.30000 2.496
28.32000 8.779
28.34000 7.952
28.36000 7.064
28.38000 7.397
28.40000 6.035
28.42000 2.794
28.44000 0.288
28.46000 1.837
28.48000 5.130
28.50000 1.586
28.52000 0.867
28.54000 3.269
28.56000 3.997
28.58000 7.021
28.60000 3.686
28.62000 -3.780
28.64000 2.097
28.66000 9.414
28.68000 2.378
28.70000 2.768
28.72000 3.869
28.74000 -0.738
28.76000 1.597
28.78000 6.378
28.80000 6.044
28.82000 7.993
28.84000 7.987
28.86000 3.149
28.88000 1.193
28.90000 0.994
28.92000 5.653
28.94000 4.281
28.96000 3.963
28.98000 5.757
29.00000 8.371
29.02000 3.908
29.04000 0.410
29.06000 0.415
29.08000 3.490
29.10000 4.624
29.12000 4.942
29.14000 2.750
29.16000 3.443
29.18000 4.873
29.20000 8.968
29.22000 7.324
29.24000 2.322
29.26000 1.663
29.28000 1.808
29.30000 1.741
29.32000 0.776
29.34000 5.519
29.36000 -1.840
29.38000 -2.086
29.40000 -2.353
29.42000 3.538
29.44000 4.506
29.46000 5.346
29.48000 3.150
29.50000 -1.335
29.52000 -1.102
29.54000 -1.765
29.56000 1.433
29.58000 -0.391
29.60000 3.618
29.62000 6.144
29.64000 5.899
29.66000 3.728
29.68000 3.889
29.70000 1.836
29.72000 -0.963
29.74000 3.497
29.76000 4.432
29.78000 -2.004
29.80000 -3.523
29.82000 -1.830
29.84000 3.793
29.86000 2.498
29.88000 1.978
29.90000 -0.332
29.92000 2.659
29.94000 3.845
29.96000 6.128
29.98000 5.691
30.00000 4.217
30.02000 0.317
30.04000 -1.597
30.06000 1.686
30.08000 2.891
30.10000 3.016
30.12000 5.019
30.14000 4.831
30.16000 3.896
30.18000 -0.161
30.20000 -3.187
30.22000 1.556
30.24000 2.326
30.26000 -3.282
30.28000 -1.673
30.30000 0.320
30.32000 -0.175
30.34000 4.001
30.36000 4.969
30.38000 -0.235
30.40000 -2.525
30.42000 -0.931
30.44000 -0.088
30.46000 -0.353
30.48000 2.256
30.50000 1.491
30.52000 1.415
30.54000 2.822
30.56000 5.294
30.58000 2.202
30.60000 -1.089
30.62000 -1.576
30.64000 -3.726
30.66000 0.193
30.68000 1.704
30.70000 1.289
30.72000 -2.495
30.74000 -0.530
30.76000 4.001
30.78000 -1.462
30.80000 -0.838
30.82000 -1.880
30.84000 1.887
30.86000 6.629
30.88000 2.064
30.90000 1.504
30.92000 1.176
30.94000 5.131
30.96000 1.068
30.98000 -1.878
31.00000 3.236
31.02000 2.245
31.04000 0.564
31.06000 -1.359
31.08000 4.176
31.10000 2.178
31.12000 0.219
31.14000 0.858
31.16000 -1.408
31.18000 -2.070
31.20000 3.431
31.22000 1.830
31.24000 3.766
31.26000 3.910
31.28000 -0.985
31.30000 -2.841
31.32000 -0.557
31.34000 1.589
31.36000 -0.083
31.38000 -0.056
31.40000 1.009
31.42000 3.678
31.44000 4.452
31.46000 1.747
31.48000 -2.386
31.50000 -1.137
31.52000 0.588
31.54000 1.055
31.56000 5.232
31.58000 0.354
31.60000 1.883
31.62000 1.091
31.64000 -1.159
31.66000 -1.695
31.68000 -3.694
31.70000 -1.276
31.72000 -0.434
31.74000 1.282
31.76000 -3.166
31.78000 -0.022
31.80000 0.555
31.82000 -0.058
31.84000 -0.462
31.86000 -2.230
31.88000 1.212
31.90000 -2.176
31.92000 0.523
31.94000 4.568
31.96000 2.356
31.98000 -1.139
32.00000 3.973
32.02000 2.742
32.04000 -1.376
32.06000 -2.321
32.08000 0.780
32.10000 3.722
32.12000 4.636
32.14000 -0.152
32.16000 3.274
32.18000 4.662
32.20000 4.541
32.22000 0.770
32.24000 -1.637
32.26000 0.494
32.28000 -1.826
32.30000 -3.659
32.32000 1.287
32.34000 2.641
32.36000 -0.191
32.38000 -0.088
32.40000 1.482
32.42000 3.252
32.44000 3.098
32.46000 5.521
32.48000 4.078
32.50000 -3.135
32.52000 -3.473
32.54000 4.570
32.56000 9.070
32.58000 9.200
32.60000 5.260
32.62000 1.311
32.64000 -0.417
32.66000 3.149
32.68000 -1.421
32.70000 2.984
32.72000 6.036
32.74000 0.221
32.76000 -3.646
32.78000 -2.266
32.80000 2.529
32.82000 4.316
32.84000 2.569
32.86000 3.670
32.88000 5.093
32.90000 -1.686
32.92000 -1.012
32.94000 4.239
32.96000 7.660
32.98000 3.023
33.00000 4.153
33.02000 0.592
33.04000 -3.506
33.06000 1.376
33.08000 2.214
33.10000 1.684
33.12000 0.391
33.14000 5.732
33.16000 2.800
33.18000 1.168
33.20000 0.271
33.22000 1.701
33.24000 7.836
33.26000 3.337
33.28000 3.048
33.30000 6.205
33.32000 4.246
33.34000 2.493
33.36000 -1.351
33.38000 -3.645
33.40000 -0.113
33.42000 2.783
33.44000 1.846
33.46000 2.870
33.48000 1.110
33.50000 1.595
33.52000 3.060
33.54000 -3.644
33.56000 -2.913
33.58000 2.456
33.60000 3.156
33.62000 0.329
33.64000 4.187
33.66000 1.767
33.68000 5.407
33.70000 5.531
33.72000 7.240
33.74000 2.192
33.76000 -0.328
33.78000 3.020
33.80000 -1.674
33.82000 5.187
33.84000 5.482
33.86000 3.637
33.88000 3.230
33.90000 3.129
33.92000 6.048
33.94000 4.135
33.96000 1.463
33.98000 0.396
34.00000 -0.494
34.02000 5.340
34.04000 0.784
34.06000 -0.218
34.08000 2.268
34.10000 3.424
34.12000 2.906
34.14000 4.238
34.16000 4.088
34.18000 6.673
34.20000 6.488
34.22000 7.963
34.24000 4.867
34.26000 1.653
34.28000 2.393
34.30000 3.240
34.32000 2.663
34.34000 4.265
34.36000 1.991
34.38000 -1.942
34.40000 -3.620
34.42000 4.732
34.44000 4.861
34.46000 1.340
34.48000 -2.475
34.50000 7.032
34.52000 5.044
34.54000 1.200
34.56000 3.039
34.58000 -1.587
34.60000 2.283
34.62000 -1.298
34.64000 -0.370
34.66000 2.624
34.68000 1.921
34.70000 1.108
34.72000 2.893
34.74000 0.566
34.76000 -3.614
34.78000 -1.994
34.80000 -3.286
34.82000 -0.435
34.84000 1.323
34.86000 8.840
34.88000 2.813
34.90000 -2.623
34.92000 -0.614
34.94000 -1.617
34.96000 -0.948
34.98000 -1.202
35.00000 -1.959
35.02000 -1.050
35.04000 1.561
35.06000 -1.594
35.08000 -2.740
35.10000 0.050
35.12000 -0.728
35.14000 4.722
35.16000 -1.597
35.18000 0.398
35.20000 1.363
35.22000 1.588
35.24000 2.559
35.26000 3.811
35.28000 4.441
35.30000 5.003
35.32000 2.292
35.34000 3.069
35.36000 3.574
35.38000 2.500
35.40000 1.808
35.42000 2.635
35.44000 2.223
35.46000 4.310
35.48000 4.602
35.50000 0.955
35.52000 -0.611
35.54000 0.929
35.56000 -1.854
35.58000 -2.786
35.60000 4.992
35.62000 1.186
35.64000 2.040
35.66000 -2.311
35.68000 -3.276
35.70000 0.447
35.72000 -0.004
35.74000 4.690
35.76000 0.512
35.78000 -0.127
35.80000 3.060
35.82000 7.454
35.84000 5.310
35.86000 -0.368
35.88000 -3.612
35.90000 1.254
35.92000 0.750
35.94000 -0.367
35.96000 0.505
35.98000 4.327
36.00000 2.350
36.02000 -1.075
36.04000 2.793
36.06000 2.044
36.08000 3.642
36.10000 7.219
36.12000 3.127
36.14000 -3.336
36.16000 -2.407
36.18000 -2.287
36.20000 1.030
36.22000 5.427
36.24000 10.157
36.26000 3.713
36.28000 1.713
36.30000 1.909
36.32000 5.770
36.34000 2.087
36.36000 4.884
36.38000 6.056
36.40000 0.636
36.42000 7.162
36.44000 7.470
36.46000 1.633
36.48000 8.377
36.50000 4.051
36.52000 4.087
36.54000 0.548
36.56000 1.797
36.58000 1.239
36.60000 0.726
36.62000 6.637
36.64000 3.647
36.66000 -2.387
36.68000 -3.216
36.70000 -0.019
36.72000 -3.615
36.74000 0.120
36.76000 2.533
36.78000 2.267
36.80000 6.382
36.82000 3.047
36.84000 0.558
36.86000 -1.947
36.88000 6.102
36.90000 4.781
36.92000 -1.781
36.94000 0.365
36.96000 6.916
36.98000 3.347
37.00000 2.250
37.02000 3.091
37.04000 4.292
37.06000 3.055
37.08000 5.232
37.10000 10.678
37.12000 5.796
37.14000 1.641
37.16000 2.118
37.18000 1.173
37.20000 -0.082
37.22000 4.770
37.24000 3.245
37.26000 -3.676
37.28000 5.316
37.30000 4.550
37.32000 4.643
37.34000 -0.075
37.36000 -2.621
37.38000 0.165
37.40000 2.364
37.42000 2.639
37.44000 3.833
37.46000 2.904
37.48000 2.870
37.50000 5.179
37.52000 2.425
37.54000 1.513
37.56000 1.240
37.58000 3.964
37.60000 8.102
37.62000 8.099
37.64000 6.671
37.66000 4.724
37.68000 6.268
37.70000 3.718
37.72000 4.024
37.74000 6.110
37.76000 9.767
37.78000 9.109
37.80000 8.535
37.82000 8.925
37.84000 11.972
37.86000 10.528
37.88000 11.246
37.90000 8.624
37.92000 13.655
37.94000 7.891
37.96000 8.426
37.98000 9.319
38.00000 7.348
38.02000 10.459
38.04000 17.622
38.06000 18.440
38.08000 17.916
38.10000 15.874
38.12000 12.372
38.14000 14.849
38.16000 21.964
38.18000 17.957
38.20000 15.333
38.22000 17.808
38.24000 17.394
38.26000 16.059
38.28000 19.092
38.30000 14.059
38.32000 17.173
38.34000 20.053
38.36000 19.651
38.38000 18.301
38.40000 17.931
38.42000 20.986
38.44000 26.638
38.46000 29.278
38.48000 24.218
38.50000 25.050
38.52000 28.193
38.54000 29.194
38.56000 24.226
38.58000 26.682
38.60000 27.832
38.62000 29.180
38.64000 31.807
38.66000 31.028
38.68000 31.658
38.70000 35.309
38.72000 36.571
38.74000 35.386
38.76000 35.824
38.78000 42.438
38.80000 39.717
38.82000 40.532
38.84000 46.299
38.86000 52.872
38.88000 53.946
38.90000 51.206
38.92000 59.474
38.94000 57.534
38.96000 54.168
38.98000 55.600
39.00000 59.789
39.02000 63.309
39.04000 68.035
39.06000 69.509
39.08000 70.994
39.10000 70.552
39.12000 75.592
39.14000 77.899
39.16000 78.923
39.18000 77.255
39.20000 80.942
39.22000 86.025
39.24000 91.933
39.26000 98.571
39.28000 105.953
39.30000 112.647
39.32000 114.370
39.34000 119.069
39.36000 120.293
39.38000 123.953
39.40000 125.231
39.42000 135.538
39.44000 143.411
39.46000 150.562
39.48000 156.741
39.50000 162.804
39.52000 165.486
39.54000 178.233
39.56000 184.055
39.58000 192.445
39.60000 205.434
39.62000 217.877
39.64000 229.057
39.66000 240.908
39.68000 248.067
39.70000 258.880
39.72000 269.764
39.74000 284.930
39.76000 299.024
39.78000 319.892
39.80000 335.926
39.82000 344.743
39.84000 362.853
39.86000 377.899
39.88000 392.561
39.90000 410.137
39.92000 429.473
39.94000 443.527
39.96000 459.276
39.98000 476.542
40.00000 496.050
40.02000 517.764
40.04000 543.156
40.06000 562.125
40.08000 588.646
40.10000 603.231
40.12000 624.199
40.14000 646.426
40.16000 650.623
40.18000 669.072
40.20000 685.235
40.22000 696.555
40.24000 711.487
40.26000 720.644
40.28000 731.666
40.30000 730.674
40.32000 729.454
40.34000 722.030
40.36000 723.245
40.38000 730.314
40.40000 734.442
40.42000 728.918
40.44000 724.505
40.46000 714.685
40.48000 690.579
40.50000 676.611
40.52000 657.344
40.54000 642.336
40.56000 622.349
40.58000 618.638
40.60000 606.063
40.62000 585.297
40.64000 553.078
40.66000 532.633
40.68000 514.385
40.70000 500.124
40.72000 479.225
40.74000 459.800
40.76000 435.738
40.78000 419.797
40.80000 398.967
40.82000 387.741
40.84000 374.486
40.86000 353.374
40.88000 329.890
40.90000 310.215
40.92000 285.716
40.94000 271.688
40.96000 260.219
40.98000 251.358
41.00000 239.687
41.02000 223.851
41.04000 207.155
41.06000 198.485
41.08000 197.361
41.10000 181.716
41.12000 173.767
41.14000 156.892
41.16000 148.990
41.18000 144.611
41.20000 141.193
41.22000 135.189
41.24000 120.325
41.26000 114.522
41.28000 111.228
41.30000 105.113
41.32000 102.827
41.34000 97.004
41.36000 87.100
41.38000 78.444
41.40000 78.693
41.42000 76.351
41.44000 70.629
41.46000 71.090
41.48000 69.175
41.50000 63.988
41.52000 58.324
41.54000 58.415
41.56000 50.809
41.58000 46.481
41.60000 46.309
41.62000 41.349
41.64000 40.019
41.66000 42.932
41.68000 34.932
41.70000 37.287
41.72000 37.940
41.74000 35.471
41.76000 35.882
41.78000 35.325
41.80000 30.616
41.82000 28.639
41.84000 28.379
41.86000 24.982
41.88000 26.242
41.90000 26.172
41.92000 21.637
41.94000 17.067
41.96000 15.616
41.98000 17.772
42.00000 19.332
42.02000 16.423
42.04000 16.047
42.06000 16.005
42.08000 18.146
42.10000 13.358
42.12000 9.035
42.14000 9.295
42.16000 12.023
42.18000 10.651
42.20000 11.008
42.22000 10.685
42.24000 13.442
42.26000 13.413
42.28000 12.711
42.30000 9.610
42.32000 5.340
42.34000 8.917
42.36000 12.111
42.38000 9.767
42.40000 10.442
42.42000 5.369
42.44000 -0.626
42.46000 3.556
42.48000 4.374
42.50000 1.669
42.52000 -0.932
42.54000 3.235
42.56000 5.676
42.58000 3.513
42.60000 4.258
42.62000 4.250
42.64000 0.096
42.66000 1.258
42.68000 2.773
42.70000 1.972
42.72000 7.426
42.74000 8.038
42.76000 5.217
42.78000 4.466
42.80000 2.703
42.82000 -0.817
42.84000 -0.914
42.86000 2.782
42.88000 4.280
42.90000 2.805
42.92000 0.546
42.94000 5.135
42.96000 1.130
42.98000 0.908
43.00000 4.576
43.02000 4.677
43.04000 4.369
43.06000 0.832
43.08000 -3.613
43.10000 -1.665
43.12000 2.965
43.14000 2.746
43.16000 0.438
43.18000 3.676
43.20000 -0.605
43.22000 1.360
43.24000 3.737
43.26000 1.692
43.28000 1.981
43.30000 1.110
43.32000 0.587
43.34000 -2.508
43.36000 -3.106
43.38000 2.799
43.40000 2.925
43.42000 2.508
43.44000 0.942
43.46000 3.132
43.48000 3.647
43.50000 -0.782
43.52000 -1.131
43.54000 2.054
43.56000 -2.159
43.58000 -3.580
43.60000 1.721
43.62000 -0.709
43.64000 0.915
43.66000 -1.481
43.68000 -1.777
43.70000 -1.254
43.72000 -3.575
43.74000 -1.049
43.76000 2.193
43.78000 0.164
43.80000 -3.229
43.82000 -2.265
43.84000 1.512
43.86000 -1.055
43.88000 0.325
43.90000 0.370
43.92000 0.269
43.94000 -1.352
43.96000 -0.901
43.98000 -1.632
44.00000 -2.829
44.02000 -2.198
44.04000 0.092
44.06000 1.975
44.08000 2.267
44.10000 3.043
44.12000 0.042
44.14000 -3.568
44.16000 0.727
44.18000 2.974
44.20000 3.774
44.22000 -0.749
44.24000 0.715
44.26000 4.585
44.28000 2.099
44.30000 -2.538
44.32000 1.498
44.34000 6.441
44.36000 9.076
44.38000 3.991
44.40000 -0.502
44.42000 -2.808
44.44000 0.492
44.46000 -1.517
44.48000 1.374
44.50000 -3.281
44.52000 -2.734
44.54000 -1.391
44.56000 1.482
44.58000 -1.572
44.60000 0.873
44.62000 1.344
44.64000 2.324
44.66000 0.336
44.68000 0.692
44.70000 0.646
44.72000 -1.624
44.74000 -3.577
44.76000 0.178
44.78000 2.482
44.80000 -1.664
44.82000 0.635
44.84000 2.609
44.86000 2.830
44.88000 4.891
44.90000 7.928
44.92000 4.613
44.94000 4.256
44.96000 4.244
44.98000 4.755
45.00000 5.698
45.02000 11.062
45.04000 8.654
45.06000 3.739
45.08000 3.505
45.10000 8.908
45.12000 8.303
45.14000 9.611
45.16000 9.079
45.18000 12.646
45.20000 7.157
45.22000 9.997
45.24000 9.553
45.26000 8.498
45.28000 9.605
45.30000 9.837
45.32000 11.948
45.34000 10.077
45.36000 13.178
45.38000 13.152
45.40000 9.654
45.42000 12.693
45.44000 11.246
45.46000 12.616
45.48000 18.701
45.50000 20.925
45.52000 20.276
45.54000 22.120
45.56000 20.477
45.58000 11.529
45.60000 9.402
45.62000 8.991
45.64000 14.324
45.66000 19.935
45.68000 20.730
45.70000 22.263
45.72000 25.551
45.74000 22.980
45.76000 24.927
45.78000 29.364
45.80000 30.527
45.82000 26.831
45.84000 22.572
45.86000 20.390
45.88000 23.622
45.90000 31.185
45.92000 24.854
45.94000 30.038
45.96000 29.073
45.98000 31.977
46.00000 36.842
46.02000 34.261
46.04000 38.022
46.06000 35.933
46.08000 43.435
46.10000 43.114
46.12000 43.053
46.14000 50.656
46.16000 45.359
46.18000 40.254
46.20000 46.652
46.22000 47.309
46.24000 46.517
46.26000 48.805
46.28000 59.523
46.30000 63.245
46.32000 59.506
46.34000 51.670
46.36000 61.557
46.38000 62.013
46.40000 58.682
46.42000 66.298
46.44000 62.710
46.46000 62.372
46.48000 65.647
46.50000 62.255
46.52000 62.629
46.54000 65.891
46.56000 69.264
46.58000 72.239
46.60000 77.362
46.62000 78.431
46.64000 78.715
46.66000 85.802
46.68000 81.164
46.70000 75.181
46.72000 72.192
46.74000 77.584
46.76000 83.677
46.78000 79.141
46.80000 81.493
46.82000 77.018
46.84000 74.692
46.86000 78.038
46.88000 83.795
46.90000 85.761
46.92000 87.728
46.94000 86.332
46.96000 77.979
46.98000 79.002
47.00000 82.665
47.02000 84.120
47.04000 76.608
47.06000 77.895
47.08000 77.315
47.10000 76.716
47.12000 82.468
47.14000 86.916
47.16000 84.097
47.18000 76.532
47.20000 76.464
47.22000 81.765
47.24000 80.840
47.26000 82.159
47.28000 76.683
47.30000 78.461
47.32000 72.694
47.34000 63.629
47.36000 67.165
47.38000 66.047
47.40000 64.990
47.42000 70.593
47.44000 72.596
47.46000 66.049
47.48000 56.066
47.50000 52.503
47.52000 49.086
47.54000 48.000
47.56000 50.877
47.58000 53.243
47.60000 52.905
47.62000 44.580
47.64000 42.748
47.66000 41.503
47.68000 39.064
47.70000 40.627
47.72000 39.197
47.74000 40.168
47.76000 32.329
47.78000 29.672
47.80000 31.795
47.82000 25.468
47.84000 29.655
47.86000 27.214
47.88000 22.394
47.90000 23.411
47.92000 28.648
47.94000 30.757
47.96000 23.681
47.98000 24.294
48.00000 26.204
48.02000 16.585
48.04000 20.582
48.06000 18.671
48.08000 9.169
48.10000 11.925
48.12000 18.228
48.14000 16.245
48.16000 16.504
48.18000 12.256
48.20000 6.794
48.22000 10.844
48.24000 11.767
48.26000 9.065
48.28000 7.956
48.30000 5.298
48.32000 3.471
48.34000 3.930
48.36000 3.167
48.38000 1.152
48.40000 5.093
48.42000 7.803
48.44000 7.389
48.46000 7.327
48.48000 6.661
48.50000 13.090
48.52000 8.648
48.54000 7.367
48.56000 0.906
48.58000 4.527
48.60000 11.592
48.62000 3.663
48.64000 3.330
48.66000 6.012
48.68000 5.197
48.70000 5.029
48.72000 -3.259
48.74000 -1.787
48.76000 -3.255
48.78000 4.087
48.80000 3.181
48.82000 -0.245
48.84000 1.253
48.86000 4.973
48.88000 3.356
48.90000 0.218
48.92000 1.193
48.94000 -2.242
48.96000 -1.412
48.98000 0.706
49.00000 -1.300
49.02000 4.444
49.04000 -0.243
49.06000 4.277
49.08000 3.807
49.10000 1.421
49.12000 2.075
49.14000 4.370
49.16000 0.445
49.18000 1.153
49.20000 5.333
49.22000 5.295
49.24000 2.010
49.26000 -1.687
49.28000 0.734
49.30000 7.211
49.32000 1.608
49.34000 -2.200
49.36000 0.456
49.38000 5.043
49.40000 1.142
49.42000 5.975
49.44000 3.094
49.46000 -3.174
49.48000 3.628
49.50000 4.603
49.52000 3.457
49.54000 0.735
49.56000 2.511
49.58000 1.417
49.60000 -1.253
49.62000 0.448
49.64000 1.495
49.66000 5.630
49.68000 4.987
49.70000 5.930
49.72000 1.782
49.74000 1.984
49.76000 5.823
49.78000 11.993
49.80000 9.831
49.82000 4.229
49.84000 3.696
49.86000 1.237
49.88000 -0.527
49.90000 2.613
49.92000 1.929
49.94000 -3.115
49.96000 0.905
49.98000 3.008
50.00000 4.013
50.02000 3.458
50.04000 -3.111
50.06000 1.280
50.08000 9.148
50.10000 9.617
50.12000 5.872
50.14000 4.489
50.16000 -0.973
50.18000 -0.671
50.20000 6.228
50.22000 6.466
50.24000 7.024
50.26000 4.410
50.28000 3.593
50.30000 6.951
50.32000 2.431
50.34000 2.192
50.36000 -1.825
50.38000 -1.967
50.40000 3.025
50.42000 -0.445
50.44000 -0.587
50.46000 4.910
50.48000 5.300
50.50000 5.849
50.52000 2.953
50.54000 1.236
50.56000 2.901
50.58000 5.690
50.60000 2.635
50.62000 3.873
50.64000 2.875
50.66000 6.074
50.68000 0.100
50.70000 0.152
50.72000 2.901
50.74000 1.442
50.76000 0.997
50.78000 1.177
50.80000 4.175
50.82000 4.899
50.84000 -0.123
50.86000 -1.848
50.88000 -3.051
50.90000 4.468
50.92000 4.142
50.94000 1.023
50.96000 2.709
50.98000 5.370
51.00000 3.526
51.02000 7.380
51.04000 3.223
51.06000 1.582
51.08000 5.768
51.10000 5.527
51.12000 2.544
51.14000 10.638
51.16000 9.480
51.18000 6.501
51.20000 5.481
51.22000 0.965
51.24000 2.233
51.26000 5.271
51.28000 1.102
51.30000 3.207
51.32000 1.441
51.34000 2.630
51.36000 12.057
51.38000 7.793
51.40000 3.808
51.42000 1.265
51.44000 7.005
51.46000 5.344
51.48000 0.669
51.50000 -2.194
51.52000 -1.098
51.54000 5.229
51.56000 5.544
51.58000 0.090
51.60000 0.383
51.62000 3.089
51.64000 3.023
51.66000 3.459
51.68000 5.247
51.70000 2.230
51.72000 1.648
51.74000 0.626
51.76000 -0.816
51.78000 -2.011
51.80000 2.305
51.82000 2.032
51.84000 1.698
51.86000 2.555
51.88000 4.566
51.90000 4.323
51.92000 0.318
51.94000 -3.022
51.96000 3.451
51.98000 6.349
52.00000 1.335
52.02000 2.507
52.04000 0.797
52.06000 2.415
52.08000 5.102
52.10000 1.725
52.12000 3.428
52.14000 -0.164
52.16000 2.523
52.18000 5.580
52.20000 6.789
52.22000 4.736
52.24000 -2.195
52.26000 2.261
52.28000 2.292
52.30000 0.377
52.32000 1.176
52.34000 3.882
52.36000 2.185
52.38000 6.715
52.40000 8.001
52.42000 3.440
52.44000 1.285
52.46000 -1.697
52.48000 1.551
52.50000 10.399
52.52000 4.135
52.54000 0.180
52.56000 0.664
52.58000 0.767
52.60000 2.126
52.62000 1.126
52.64000 0.124
52.66000 0.210
52.68000 3.723
52.70000 5.933
52.72000 3.024
52.74000 2.508
52.76000 1.904
52.78000 -0.231
52.80000 -2.981
52.82000 -1.926
52.84000 1.274
52.86000 2.814
52.88000 6.011
52.90000 6.945
52.92000 4.524
52.94000 0.379
52.96000 0.625
52.98000 0.118
53.00000 1.015
53.02000 5.912
53.04000 4.418
53.06000 3.336
53.08000 4.895
53.10000 3.386
53.12000 6.452
53.14000 8.462
53.16000 9.528
53.18000 -0.125
53.20000 -1.363
53.22000 -1.130
53.24000 1.252
53.26000 1.710
53.28000 5.310
53.30000 4.265
53.32000 2.359
53.34000 6.094
53.36000 8.302
53.38000 6.826
53.40000 5.148
53.42000 2.622
53.44000 4.113
53.46000 4.030
53.48000 3.331
53.50000 5.190
53.52000 9.451
53.54000 7.271
53.56000 3.966
53.58000 2.777
53.60000 5.645
53.62000 9.736
53.64000 6.901
53.66000 10.878
53.68000 11.926
53.70000 12.446
53.72000 8.486
53.74000 6.304
53.76000 8.274
53.78000 6.992
53.80000 7.714
53.82000 4.807
53.84000 4.090
53.86000 -2.890
53.88000 3.106
53.90000 5.976
53.92000 8.213
53.94000 8.584
53.96000 3.934
53.98000 5.644
54.00000 9.415
54.02000 8.577
54.04000 7.451
54.06000 6.551
54.08000 -0.238
54.10000 0.351
54.12000 7.054
54.14000 2.790
54.16000 -2.808
54.18000 3.705
54.20000 7.290
54.22000 10.832
54.24000 8.806
54.26000 8.736
54.28000 6.879
54.30000 5.695
54.32000 1.813
54.34000 3.160
54.36000 5.054
54.38000 5.141
54.40000 5.760
54.42000 5.069
54.44000 0.485
54.46000 0.859
54.48000 -0.159
54.50000 -1.343
54.52000 2.083
54.54000 3.219
54.56000 5.289
54.58000 7.725
54.60000 8.011
54.62000 5.368
54.64000 6.520
54.66000 3.766
54.68000 -0.045
54.70000 0.482
54.72000 2.810
54.74000 5.416
54.76000 1.934
54.78000 -0.787
54.80000 3.047
54.82000 2.839
54.84000 1.453
54.86000 1.085
54.88000 4.387
54.90000 -2.326
54.92000 -2.384
54.94000 3.159
54.96000 1.023
54.98000 0.349
55.00000 2.699
55.02000 3.554
55.04000 1.386
55.06000 7.104
55.08000 5.971
55.10000 6.536
55.12000 7.148
55.14000 9.836
55.16000 8.028
55.18000 2.807
55.20000 1.372
55.22000 2.751
55.24000 -1.755
55.26000 2.986
55.28000 4.284
55.30000 5.114
55.32000 1.972
55.34000 1.326
55.36000 3.815
55.38000 5.803
55.40000 7.841
55.42000 5.129
55.44000 2.013
55.46000 6.599
55.48000 9.559
55.50000 6.274
55.52000 4.620
55.54000 4.975
55.56000 0.659
55.58000 7.582
55.60000 6.954
55.62000 7.102
55.64000 1.728
55.66000 -1.155
55.68000 5.432
55.70000 4.591
55.72000 -2.898
55.74000 -1.214
55.76000 3.223
55.78000 7.626
55.80000 7.136
55.82000 6.173
55.84000 1.098
55.86000 1.296
55.88000 3.594
55.90000 6.500
55.92000 4.606
55.94000 4.056
55.96000 2.713
55.98000 4.119
56.00000 4.336
56.02000 4.865
56.04000 0.446
56.06000 3.013
56.08000 6.450
56.10000 0.550
56.12000 4.018
56.14000 5.634
56.16000 9.382
56.18000 9.433
56.20000 4.075
56.22000 0.572
56.24000 1.630
56.26000 1.702
56.28000 -0.021
56.30000 -0.818
56.32000 0.232
56.34000 1.328
56.36000 -1.231
56.38000 -2.772
56.40000 -2.789
56.42000 -0.704
56.44000 2.439
56.46000 4.045
56.48000 6.172
56.50000 9.273
56.52000 6.453
56.54000 7.611
56.56000 1.489
56.58000 -2.863
56.60000 -2.336
56.62000 1.217
56.64000 6.801
56.66000 8.651
56.68000 3.988
56.70000 0.429
56.72000 1.620
56.74000 2.238
56.76000 3.061
56.78000 2.956
56.80000 0.289
56.82000 2.602
56.84000 2.391
56.86000 1.021
56.88000 3.233
56.90000 1.937
56.92000 5.427
56.94000 7.061
56.96000 5.872
56.98000 6.066
57.00000 1.748
57.02000 2.009
57.04000 5.601
57.06000 0.074
57.08000 -0.929
57.10000 2.614
57.12000 -1.302
57.14000 -0.173
57.16000 5.011
57.18000 4.558
57.20000 4.708
57.22000 6.501
57.24000 3.371
57.26000 4.037
57.28000 5.696
57.30000 7.552
57.32000 3.077
57.34000 4.809
57.36000 4.694
57.38000 6.424
57.40000 4.627
57.42000 5.607
57.44000 -0.071
57.46000 1.782
57.48000 -1.854
57.50000 -1.176
57.52000 3.487
57.54000 9.614
57.56000 2.799
57.58000 -1.230
57.60000 0.321
57.62000 2.749
57.64000 2.603
57.66000 1.775
57.68000 -1.215
57.70000 9.181
57.72000 9.069
57.74000 4.997
57.76000 4.288
57.78000 3.615
57.80000 12.781
57.82000 10.623
57.84000 1.651
57.86000 5.606
57.88000 3.494
57.90000 6.305
57.92000 8.253
57.94000 2.918
57.96000 -2.398
57.98000 1.211
58.00000 2.498
58.02000 3.974
58.04000 -0.630
58.06000 -2.812
58.08000 5.173
58.10000 7.279
58.12000 2.131
58.14000 1.849
58.16000 4.798
58.18000 4.552
58.20000 5.317
58.22000 9.886
58.24000 4.094
58.26000 4.299
58.28000 3.748
58.30000 2.215
58.32000 1.426
58.34000 -2.805
58.36000 -1.874
58.38000 3.086
58.40000 3.957
58.42000 5.121
58.44000 6.768
58.46000 10.448
58.48000 12.048
58.50000 5.961
58.52000 9.557
58.54000 13.397
58.56000 10.425
58.58000 2.211
58.60000 -1.956
58.62000 4.319
58.64000 9.776
58.66000 3.579
58.68000 5.116
58.70000 7.120
58.72000 3.145
58.74000 1.792
58.76000 3.060
58.78000 7.297
58.80000 4.927
58.82000 -2.781
58.84000 5.257
58.86000 5.265
58.88000 5.573
58.90000 -1.157
58.92000 -0.093
58.94000 2.754
58.96000 7.178
58.98000 7.413
59.00000 2.720
59.02000 5.181
59.04000 5.768
59.06000 6.397
59.08000 1.480
59.10000 0.789
59.12000 2.605
59.14000 2.016
59.16000 8.510
59.18000 8.641
59.20000 2.436
59.22000 3.127
59.24000 6.361
59.26000 8.245
59.28000 7.841
59.30000 6.061
59.32000 3.336
59.34000 7.041
59.36000 10.395
59.38000 7.801
59.40000 1.935
59.42000 -2.731
59.44000 1.530
59.46000 3.859
59.48000 4.840
59.50000 7.754
59.52000 3.419
59.54000 4.999
59.56000 10.329
59.58000 8.479
59.60000 5.466
59.62000 4.826
59.64000 3.102
59.66000 6.327
59.68000 5.019
59.70000 5.156
59.72000 5.724
59.74000 5.711
59.76000 7.534
59.78000 7.366
59.80000 7.801
59.82000 6.171
59.84000 3.666
59.86000 3.754
59.88000 1.590
59.90000 1.783
59.92000 3.226
59.94000 1.036
59.96000 1.602
59.98000 7.777
60.00000 4.569
60.02000 8.349
60.04000 7.159
60.06000 7.735
60.08000 9.024
60.10000 6.942
60.12000 4.884
60.14000 0.316
60.16000 4.394
60.18000 0.936
60.20000 -0.815
60.22000 -0.365
60.24000 -2.729
60.26000 1.271
60.28000 2.162
60.30000 -1.149
60.32000 0.557
60.34000 1.485
60.36000 1.708
60.38000 1.488
60.40000 3.315
60.42000 5.409
60.44000 0.402
60.46000 -2.713
60.48000 0.354
60.50000 2.604
60.52000 3.414
60.54000 3.985
60.56000 9.637
60.58000 5.000
60.60000 5.581
60.62000 4.062
60.64000 2.060
60.66000 0.703
60.68000 2.091
60.70000 5.442
60.72000 2.894
60.74000 1.339
60.76000 3.749
60.78000 6.979
60.80000 3.741
60.82000 0.434
60.84000 0.863
60.86000 4.992
60.88000 5.481
60.90000 0.561
60.92000 3.332
60.94000 5.735
60.96000 4.231
60.98000 3.569
61.00000 0.942
61.02000 -2.704
61.04000 1.555
61.06000 7.297
61.08000 7.107
61.10000 4.749
61.12000 3.940
61.14000 2.224
61.16000 -0.134
61.18000 0.757
61.20000 2.581
61.22000 6.426
61.24000 5.144
61.26000 2.648
61.28000 5.650
61.30000 1.358
61.32000 0.367
61.34000 1.677
61.36000 2.166
61.38000 10.573
61.40000 10.955
61.42000 2.806
61.44000 7.005
61.46000 5.442
61.48000 2.982
61.50000 3.913
61.52000 0.601
61.54000 1.234
61.56000 2.457
61.58000 1.121
61.60000 -0.132
61.62000 3.855
61.64000 2.537
61.66000 -1.765
61.68000 -1.488
61.70000 -2.702
61.72000 0.490
61.74000 -0.219
61.76000 1.306
61.78000 -0.583
61.80000 1.407
61.82000 -2.700
61.84000 -0.773
61.86000 1.743
61.88000 6.305
61.90000 3.954
61.92000 3.993
61.94000 2.754
61.96000 1.837
61.98000 5.845
62.00000 5.511
62.02000 4.519
62.04000 3.951
62.06000 5.077
62.08000 3.744
62.10000 -2.184
62.12000 -2.692
62.14000 0.483
62.16000 4.069
62.18000 -0.561
62.20000 -0.722
62.22000 3.689
62.24000 2.019
62.26000 3.676
62.28000 5.906
62.30000 5.935
62.32000 2.854
62.34000 5.108
62.36000 3.309
62.38000 4.725
62.40000 0.132
62.42000 1.218
62.44000 3.613
62.46000 1.251
62.48000 -2.676
62.50000 -2.195
62.52000 5.988
62.54000 6.440
62.56000 6.830
62.58000 7.618
62.60000 2.574
62.62000 1.185
62.64000 1.956
62.66000 -1.334
62.68000 2.348
62.70000 6.843
62.72000 8.725
62.74000 8.375
62.76000 0.674
62.78000 3.772
62.80000 5.278
62.82000 2.146
62.84000 1.924
62.86000 2.578
62.88000 -0.660
62.90000 -0.830
62.92000 2.338
62.94000 3.065
62.96000 2.259
62.98000 2.360
63.00000 2.999
63.02000 1.268
63.04000 1.778
63.06000 3.982
63.08000 3.086
63.10000 -2.492
63.12000 -2.185
63.14000 -2.523
63.16000 -0.203
63.18000 6.200
63.20000 5.917
63.22000 -2.245
63.24000 -0.079
63.26000 1.943
63.28000 2.789
63.30000 1.698
63.32000 3.105
63.34000 6.560
63.36000 4.503
63.38000 4.078
63.40000 -0.065
63.42000 2.293
63.44000 3.916
63.46000 -0.677
63.48000 0.372
63.50000 2.861
63.52000 0.006
63.54000 4.548
63.56000 5.250
63.58000 2.948
63.60000 4.142
63.62000 0.590
63.64000 -0.022
63.66000 3.523
63.68000 2.349
63.70000 4.243
63.72000 6.500
63.74000 5.395
63.76000 0.033
63.78000 1.421
63.80000 7.232
63.82000 8.160
63.84000 5.805
63.86000 5.943
63.88000 8.016
63.90000 -1.310
63.92000 -2.677
63.94000 -2.070
63.96000 4.464
63.98000 6.748
64.00000 5.614
64.02000 1.983
64.04000 2.969
64.06000 1.365
64.08000 1.674
64.10000 5.676
64.12000 4.621
64.14000 2.719
64.16000 1.336
64.18000 1.647
64.20000 0.834
64.22000 7.667
64.24000 6.782
64.26000 4.616
64.28000 2.379
64.30000 3.188
64.32000 2.315
64.34000 1.768
64.36000 -0.766
64.38000 1.383
64.40000 -0.860
64.42000 -1.247
64.44000 3.601
64.46000 1.633
64.48000 0.467
64.50000 0.977
64.52000 0.449
64.54000 -1.546
64.56000 1.613
64.58000 -0.341
64.60000 -0.280
64.62000 5.891
64.64000 1.106
64.66000 2.726
64.68000 2.759
64.70000 2.613
64.72000 -0.873
64.74000 1.543
64.76000 1.167
64.78000 -0.082
64.80000 1.239
64.82000 0.638
64.84000 1.286
64.86000 0.817
64.88000 4.004
64.90000 6.246
64.92000 5.151
64.94000 2.267
64.96000 3.742
64.98000 4.984
65.00000 2.439
65.02000 -2.248
65.04000 -2.419
65.06000 -2.719
65.08000 -1.459
65.10000 0.209
65.12000 1.486
65.14000 1.689
65.16000 3.714
65.18000 9.376
65.20000 3.485
65.22000 0.218
65.24000 -2.601
65.26000 0.877
65.28000 4.789
65.30000 2.836
65.32000 3.168
65.34000 5.420
65.36000 4.297
65.38000 1.778
65.40000 4.503
65.42000 3.414
65.44000 -1.531
65.46000 1.470
65.48000 2.650
65.50000 3.720
65.52000 4.421
65.54000 2.000
65.56000 -1.517
65.58000 1.017
65.60000 3.378
65.62000 3.457
65.64000 4.864
65.66000 3.176
65.68000 4.064
65.70000 0.889
65.72000 0.347
65.74000 1.274
65.76000 2.857
65.78000 1.124
65.80000 -1.333
65.82000 -2.740
65.84000 0.125
65.86000 -0.157
65.88000 0.987
65.90000 3.867
65.92000 -1.541
65.94000 -0.685
65.96000 -0.936
65.98000 0.613
66.00000 1.726
66.02000 2.858
66.04000 3.252
66.06000 1.726
66.08000 -0.357
66.10000 0.697
66.12000 -1.983
66.14000 -1.211
66.16000 2.454
66.18000 3.824
66.20000 2.660
66.22000 -2.055
66.24000 -2.032
66.26000 -2.785
66.28000 -2.281
66.30000 -2.371
66.32000 -2.604
66.34000 -1.052
66.36000 1.138
66.38000 2.726
66.40000 2.632
66.42000 3.086
66.44000 -1.848
66.46000 -1.304
66.48000 2.273
66.50000 3.947
66.52000 2.107
66.54000 2.669
66.56000 0.547
66.58000 -2.812
66.60000 -2.590
66.62000 1.211
66.64000 4.379
66.66000 0.500
66.68000 0.719
66.70000 7.207
66.72000 4.247
66.74000 -1.622
66.76000 -1.016
66.78000 1.090
66.80000 0.051
66.82000 0.623
66.84000 0.098
66.86000 -1.311
66.88000 1.867
66.90000 2.630
66.92000 5.664
66.94000 2.262
66.96000 -1.014
66.98000 -1.374
67.00000 1.448
67.02000 3.130
67.04000 0.571
67.06000 -0.863
67.08000 2.175
67.10000 4.246
67.12000 2.522
67.14000 1.535
67.16000 2.337
67.18000 2.365
67.20000 1.528
67.22000 2.431
67.24000 2.340
67.26000 1.697
67.28000 0.980
67.30000 2.560
67.32000 3.401
67.34000 5.244
67.36000 4.374
67.38000 4.733
67.40000 8.125
67.42000 5.752
67.44000 4.343
67.46000 7.291
67.48000 8.074
67.50000 11.388
67.52000 11.555
67.54000 1.876
67.56000 0.366
67.58000 7.560
67.60000 11.503
67.62000 10.178
67.64000 11.066
67.66000 11.569
67.68000 15.164
67.70000 12.048
67.72000 12.867
67.74000 8.992
67.76000 11.820
67.78000 14.677
67.80000 14.339
67.82000 14.466
67.84000 12.732
67.86000 12.816
67.88000 15.852
67.90000 16.045
67.92000 13.359
67.94000 15.872
67.96000 15.754
67.98000 13.437
68.00000 11.656
68.02000 15.498
68.04000 15.178
68.06000 21.102
68.08000 22.158
68.10000 18.531
68.12000 19.517
68.14000 24.271
68.16000 24.932
68.18000 23.427
68.20000 27.578
68.22000 29.435
68.24000 25.490
68.26000 23.443
68.28000 25.650
68.30000 23.559
68.32000 24.112
68.34000 27.516
68.36000 23.060
68.38000 22.643
68.40000 24.144
68.42000 26.682
68.44000 25.487
68.46000 21.391
68.48000 29.190
68.50000 32.205
68.52000 32.832
68.54000 29.576
68.56000 28.372
68.58000 27.236
68.60000 28.928
68.62000 25.053
68.64000 24.813
68.66000 27.086
68.68000 29.791
68.70000 31.929
68.72000 28.058
68.74000 27.661
68.76000 27.672
68.78000 26.152
68.80000 26.186
68.82000 32.228
68.84000 28.847
68.86000 29.620
68.88000 30.554
68.90000 30.728
68.92000 27.052
68.94000 24.333
68.96000 25.660
68.98000 21.762
69.00000 18.373
69.02000 21.873
69.04000 23.176
69.06000 21.747
69.08000 22.435
69.10000 18.679
69.12000 16.036
69.14000 12.042
69.16000 13.154
69.18000 15.800
69.20000 17.757
69.22000 22.108
69.24000 23.248
69.26000 21.534
69.28000 18.501
69.30000 13.787
69.32000 12.376
69.34000 10.267
69.36000 13.510
69.38000 14.309
69.40000 12.608
69.42000 11.458
69.44000 13.952
69.46000 15.253
69.48000 9.411
69.50000 9.025
69.52000 7.986
69.54000 8.186
69.56000 2.999
69.58000 5.137
69.60000 12.665
69.62000 13.802
69.64000 12.342
69.66000 9.986
69.68000 5.462
69.70000 3.345
69.72000 4.778
69.74000 4.609
69.76000 5.116
69.78000 8.430
69.80000 6.095
69.82000 2.760
69.84000 3.640
69.86000 0.352
69.88000 0.013
69.90000 4.971
69.92000 10.762
69.94000 6.272
69.96000 6.731
69.98000 6.793
70.00000 7.603
70.02000 4.807
70.04000 3.118
70.06000 8.526
70.08000 4.572
70.10000 2.997
70.12000 6.435
70.14000 4.413
70.16000 0.797
70.18000 -0.498
70.20000 1.813
70.22000 3.770
70.24000 4.030
70.26000 5.482
70.28000 7.817
70.30000 5.518
70.32000 4.860
70.34000 4.472
70.36000 5.322
70.38000 6.421
70.40000 4.747
70.42000 -2.616
70.44000 1.716
70.46000 4.807
70.48000 5.842
70.50000 6.647
70.52000 4.897
70.54000 7.192
70.56000 4.994
70.58000 7.156
70.60000 6.608
70.62000 7.457
70.64000 3.511
70.66000 0.860
70.68000 5.720
70.70000 6.683
70.72000 1.658
70.74000 -0.445
70.76000 0.084
70.78000 2.766
70.80000 0.275
70.82000 2.903
70.84000 3.277
70.86000 3.549
70.88000 1.968
70.90000 1.863
70.92000 2.196
70.94000 3.588
70.96000 -1.488
70.98000 -2.591
71.00000 -0.289
71.02000 3.590
71.04000 3.059
71.06000 -0.389
71.08000 -0.246
71.10000 5.202
71.12000 0.559
71.14000 3.770
71.16000 -0.188
71.18000 0.151
71.20000 1.389
71.22000 1.853
71.24000 4.199
71.26000 7.016
71.28000 4.146
71.30000 5.704
71.32000 0.343
71.34000 3.082
71.36000 2.792
71.38000 1.266
71.40000 -2.564
71.42000 -0.690
71.44000 0.565
71.46000 0.386
71.48000 2.593
71.50000 0.968
71.52000 1.366
71.54000 4.510
71.56000 4.542
71.58000 0.572
71.60000 2.048
71.62000 3.094
71.64000 3.507
71.66000 0.078
71.68000 2.117
71.70000 2.847
71.72000 1.219
71.74000 2.557
71.76000 3.864
71.78000 1.295
71.80000 -2.549
71.82000 -2.096
71.84000 -0.193
71.86000 0.803
71.88000 7.053
71.90000 3.743
71.92000 2.847
71.94000 2.795
71.96000 5.083
71.98000 4.034
72.00000 2.399
72.02000 3.382
72.04000 4.160
72.06000 4.400
72.08000 4.043
72.10000 3.284
72.12000 3.118
72.14000 2.482
72.16000 0.719
72.18000 4.599
72.20000 4.092
72.22000 -0.032
72.24000 0.840
72.26000 0.617
72.28000 0.303
72.30000 1.916
72.32000 3.289
72.34000 1.879
72.36000 6.348
72.38000 4.638
72.40000 4.308
72.42000 1.264
72.44000 2.790
72.46000 1.934
72.48000 -2.507
72.50000 -1.192
72.52000 2.814
72.54000 1.424
72.56000 1.975
72.58000 0.957
72.60000 3.192
72.62000 1.985
72.64000 3.870
72.66000 2.920
72.68000 1.957
72.70000 -2.328
72.72000 -2.497
72.74000 3.264
72.76000 5.953
72.78000 3.800
72.80000 3.771
72.82000 3.823
72.84000 5.052
72.86000 2.422
72.88000 -0.089
72.90000 0.300
72.92000 1.901
72.94000 4.310
72.96000 9.045
72.98000 3.011
73.00000 6.738
73.02000 4.461
73.04000 4.871
73.06000 1.974
73.08000 3.701
73.10000 9.598
73.12000 6.832
73.14000 4.890
73.16000 8.653
73.18000 4.575
73.20000 -1.906
73.22000 0.170
73.24000 3.865
73.26000 4.218
73.28000 7.741
73.30000 4.168
73.32000 0.508
73.34000 -2.484
73.36000 1.445
73.38000 6.018
73.40000 4.138
73.42000 5.048
73.44000 4.810
73.46000 4.758
73.48000 -0.037
73.50000 1.703
73.52000 1.209
73.54000 0.322
73.56000 4.731
73.58000 5.484
73.60000 2.528
73.62000 -0.360
73.64000 -1.453
73.66000 -0.388
73.68000 -2.485
73.70000 1.607
73.72000 1.688
73.74000 0.341
73.76000 0.432
73.78000 7.542
73.80000 5.237
73.82000 6.197
73.84000 6.544
73.86000 5.206
73.88000 5.485
73.90000 5.346
73.92000 7.479
73.94000 4.953
73.96000 5.149
73.98000 0.754
74.00000 3.270
74.02000 2.269
74.04000 2.970
74.06000 3.709
74.08000 9.832
74.10000 8.058
74.12000 3.559
74.14000 0.114
74.16000 -0.296
74.18000 -0.141
74.20000 0.313
74.22000 6.963
74.24000 3.774
74.26000 0.309
74.28000 0.491
74.30000 3.979
74.32000 4.994
74.34000 7.217
74.36000 5.797
74.38000 1.605
74.40000 3.989
74.42000 2.694
74.44000 3.233
74.46000 6.161
74.48000 3.922
74.50000 6.637
74.52000 4.387
74.54000 3.866
74.56000 -1.444
74.58000 -2.455
74.60000 0.994
74.62000 -1.134
74.64000 -1.458
74.66000 2.856
74.68000 2.075
74.70000 1.144
74.72000 5.990
74.74000 9.189
74.76000 3.640
74.78000 5.355
74.80000 5.787
74.82000 6.168
74.84000 9.771
74.86000 8.860
74.88000 5.765
74.90000 2.202
74.92000 -1.819
74.94000 -1.084
74.96000 0.753
74.98000 5.236
75.00000 3.591
75.02000 6.209
75.04000 7.531
75.06000 6.229
75.08000 4.799
75.10000 4.201
75.12000 4.759
75.14000 3.383
75.16000 3.052
75.18000 1.910
75.20000 8.636
75.22000 7.541
75.24000 8.028
75.26000 3.447
75.28000 -2.415
75.30000 5.345
75.32000 7.443
75.34000 6.522
75.36000 5.965
75.38000 7.557
75.40000 5.711
75.42000 5.920
75.44000 7.283
75.46000 5.923
75.48000 7.392
75.50000 6.478
75.52000 7.725
75.54000 4.946
75.56000 1.675
75.58000 10.510
75.60000 9.189
75.62000 4.897
75.64000 7.892
75.66000 6.979
75.68000 5.803
75.70000 7.778
75.72000 6.615
75.74000 7.148
75.76000 4.112
75.78000 7.775
75.80000 9.415
75.82000 4.665
75.84000 0.288
75.86000 3.362
75.88000 0.805
75.90000 4.164
75.92000 6.338
75.94000 5.932
75.96000 3.129
75.98000 0.523
76.00000 3.966
76.02000 7.053
76.04000 3.834
76.06000 2.737
76.08000 1.456
76.10000 3.259
76.12000 4.467
76.14000 6.488
76.16000 5.912
76.18000 3.391
76.20000 3.525
76.22000 1.430
76.24000 1.781
76.26000 1.220
76.28000 1.456
76.30000 -2.358
76.32000 1.370
76.34000 3.577
76.36000 6.330
76.38000 3.172
76.40000 6.943
76.42000 5.870
76.44000 3.308
76.46000 3.618
76.48000 1.968
76.50000 2.126
76.52000 1.296
76.54000 5.916
76.56000 8.980
76.58000 5.201
76.60000 3.546
76.62000 -0.994
76.64000 -0.395
76.66000 -0.199
76.68000 -0.186
76.70000 1.901
76.72000 3.328
76.74000 2.657
76.76000 -1.613
76.78000 0.060
76.80000 3.825
76.82000 4.876
76.84000 2.808
76.86000 -0.603
76.88000 1.571
76.90000 6.544
76.92000 5.041
76.94000 0.408
76.96000 -0.940
76.98000 -0.271
77.00000 2.227
77.02000 0.434
77.04000 2.366
77.06000 4.139
77.08000 5.430
77.10000 1.340
77.12000 7.646
77.14000 12.734
77.16000 0.309
77.18000 -2.527
77.20000 3.446
77.22000 3.683
77.24000 3.926
77.26000 4.037
77.28000 -0.073
77.30000 -0.426
77.32000 -0.452
77.34000 0.665
77.36000 2.216
77.38000 1.574
77.40000 4.386
77.42000 7.402
77.44000 3.967
77.46000 3.839
77.48000 0.902
77.50000 -0.263
77.52000 4.216
77.54000 2.931
77.56000 2.062
77.58000 5.784
77.60000 0.876
77.62000 1.134
77.64000 3.169
77.66000 3.036
77.68000 0.403
77.70000 1.123
77.72000 2.051
77.74000 3.855
77.76000 0.864
77.78000 1.856
77.80000 4.131
77.82000 4.899
77.84000 3.066
77.86000 0.647
77.88000 1.303
77.90000 -0.357
77.92000 0.478
77.94000 1.858
77.96000 1.535
77.98000 4.601
78.00000 -0.213
78.02000 -0.603
78.04000 -1.530
78.06000 0.597
78.08000 -2.553
78.10000 1.283
78.12000 5.991
78.14000 4.556
78.16000 -2.144
78.18000 0.137
78.20000 3.007
78.22000 2.967
78.24000 1.372
78.26000 0.645
78.28000 0.657
78.30000 3.849
78.32000 1.445
78.34000 -2.050
78.36000 0.423
78.38000 2.383
78.40000 2.673
78.42000 2.202
78.44000 -0.647
78.46000 0.097
78.48000 -2.547
78.50000 0.394
78.52000 3.159
78.54000 4.910
78.56000 2.248
78.58000 1.873
78.60000 4.760
78.62000 3.994
78.64000 4.409
78.66000 5.734
78.68000 3.873
78.70000 6.120
78.72000 4.355
78.74000 5.730
78.76000 3.338
78.78000 0.520
78.80000 -2.393
78.82000 1.498
78.84000 0.436
78.86000 1.675
78.88000 8.234
78.90000 3.158
78.92000 5.546
78.94000 7.300
78.96000 5.274
78.98000 2.047
79.00000 2.014
79.02000 6.581
79.04000 7.398
79.06000 4.704
79.08000 0.595
79.10000 2.769
79.12000 6.141
79.14000 4.989
79.16000 2.103
79.18000 1.184
79.20000 -1.715
79.22000 3.898
79.24000 0.914
79.26000 1.747
79.28000 4.341
79.30000 4.087
79.32000 6.187
79.34000 0.703
79.36000 0.081
79.38000 2.405
79.40000 -2.557
79.42000 2.763
79.44000 5.703
79.46000 2.957
79.48000 2.838
79.50000 2.124
79.52000 4.703
79.54000 3.814
79.56000 1.390
79.58000 3.426
79.60000 1.845
79.62000 4.097
79.64000 4.185
79.66000 1.213
79.68000 4.408
79.70000 3.869
79.72000 4.337
79.74000 -1.009
79.76000 5.920
79.78000 4.525
79.80000 5.408
79.82000 6.457
79.84000 1.026
79.86000 6.059
79.88000 3.984
79.90000 4.261
79.92000 -2.324
79.94000 -0.929
79.96000 -0.968
79.98000 0.111
80.00000 -1.432
80.02000 1.255
80.04000 3.071
80.06000 2.728
80.08000 -0.050
80.10000 2.039
80.12000 0.060
80.14000 3.882
80.16000 2.753
80.18000 -2.661
80.20000 -0.017
80.22000 -1.993
80.24000 1.908
80.26000 -1.544
80.28000 -0.050
80.30000 -0.272
80.32000 1.034
80.34000 1.045
80.36000 2.887
80.38000 5.170
80.40000 2.816
80.42000 3.045
80.44000 1.723
80.46000 1.601
80.48000 -2.506
80.50000 0.528
80.52000 0.775
80.54000 0.869
80.56000 -0.019
80.58000 -1.791
80.60000 -0.071
80.62000 0.460
80.64000 0.350
80.66000 1.491
80.68000 3.579
80.70000 -2.716
80.72000 1.087
80.74000 1.149
80.76000 -1.242
80.78000 2.821
80.80000 2.368
80.82000 1.564
80.84000 -0.114
80.86000 -1.277
80.88000 3.124
80.90000 -0.917
80.92000 -2.692
80.94000 -1.602
80.96000 2.110
80.98000 0.378
81.00000 0.928
81.02000 2.611
81.04000 4.479
81.06000 7.316
81.08000 5.150
81.10000 -1.060
81.12000 0.414
81.14000 4.185
81.16000 7.563
81.18000 5.973
81.20000 2.879
81.22000 2.425
81.24000 0.029
81.26000 3.000
81.28000 6.474
81.30000 2.094
81.32000 3.486
81.34000 3.240
81.36000 6.355
81.38000 4.308
81.40000 0.605
81.42000 -0.605
81.44000 5.458
81.46000 4.732
81.48000 1.419
81.50000 3.272
81.52000 8.252
81.54000 6.171
81.56000 8.658
81.58000 7.629
81.60000 2.551
81.62000 7.160
81.64000 7.059
81.66000 3.910
81.68000 8.600
81.70000 11.660
81.72000 8.711
81.74000 7.517
81.76000 8.621
81.78000 6.848
81.80000 8.639
81.82000 7.234
81.84000 12.395
81.86000 15.854
81.88000 12.339
81.90000 13.992
81.92000 15.541
81.94000 11.902
81.96000 10.152
81.98000 14.458
82.00000 11.547
82.02000 11.237
82.04000 15.307
82.06000 16.473
82.08000 15.350
82.10000 16.751
82.12000 17.879
82.14000 15.234
82.16000 13.416
82.18000 14.617
82.20000 18.580
82.22000 10.993
82.24000 19.428
82.26000 19.965
82.28000 20.218
82.30000 19.967
82.32000 24.993
82.34000 22.833
82.36000 19.199
82.38000 16.205
82.40000 20.352
82.42000 23.275
82.44000 24.758
82.46000 26.339
82.48000 21.872
82.50000 30.266
82.52000 26.254
82.54000 19.130
82.56000 20.636
82.58000 26.034
82.60000 24.915
82.62000 22.681
82.64000 24.092
82.66000 20.738
82.68000 21.457
82.70000 26.926
82.72000 23.428
82.74000 14.966
82.76000 19.028
82.78000 23.453
82.80000 25.941
82.82000 29.487
82.84000 25.032
82.86000 28.093
82.88000 27.118
82.90000 19.484
82.92000 21.371
82.94000 23.514
82.96000 28.109
82.98000 24.562
83.00000 28.186
83.02000 29.763
83.04000 24.236
83.06000 24.275
83.08000 22.881
83.10000 25.664
83.12000 25.326
83.14000 25.991
83.16000 26.939
83.18000 22.840
83.20000 23.042
83.22000 20.653
83.24000 21.177
83.26000 23.552
83.28000 21.212
83.30000 17.487
83.32000 15.943
83.34000 18.074
83.36000 19.589
83.38000 15.319
83.40000 24.015
83.42000 22.252
83.44000 17.000
83.46000 15.059
83.48000 21.848
83.50000 21.021
83.52000 18.007
83.54000 11.064
83.56000 8.153
83.58000 13.047
83.60000 13.720
83.62000 14.646
83.64000 9.708
83.66000 9.126
83.68000 7.284
83.70000 9.555
83.72000 10.859
83.74000 17.145
83.76000 15.924
83.78000 17.921
83.80000 16.906
83.82000 8.180
83.84000 5.433
83.86000 14.111
83.88000 12.626
83.90000 6.115
83.92000 9.393
83.94000 15.987
83.96000 17.789
83.98000 15.476
84.00000 13.912
84.02000 5.868
84.04000 5.459
84.06000 5.938
84.08000 6.377
84.10000 6.804
84.12000 5.680
84.14000 5.204
84.16000 8.076
84.18000 1.834
84.20000 1.024
84.22000 -1.692
84.24000 3.125
84.26000 2.433
84.28000 1.519
84.30000 3.744
84.32000 -0.355
84.34000 2.296
84.36000 3.501
84.38000 -1.494
84.40000 0.136
84.42000 4.650
84.44000 3.085
84.46000 5.105
84.48000 1.811
84.50000 5.061
84.52000 3.788
84.54000 1.559
84.56000 3.138
84.58000 1.392
84.60000 4.429
84.62000 2.775
84.64000 -2.679
84.66000 1.600
84.68000 7.959
84.70000 8.524
84.72000 6.294
84.74000 6.395
84.76000 3.002
84.78000 2.444
84.80000 3.106
84.82000 2.312
84.84000 1.130
84.86000 0.399
84.88000 -0.625
84.90000 -0.766
84.92000 1.866
84.94000 5.718
84.96000 1.769
84.98000 3.173
85.00000 3.764
85.02000 2.691
85.04000 7.337
85.06000 5.521
85.08000 2.100
85.10000 4.254
85.12000 8.018
85.14000 2.560
85.16000 -0.312
85.18000 -2.616
85.20000 1.981
85.22000 7.103
85.24000 2.272
85.26000 1.181
85.28000 0.109
85.30000 -0.350
85.32000 5.250
85.34000 5.331
85.36000 -0.972
85.38000 -2.623
85.40000 5.945
85.42000 7.975
85.44000 7.317
85.46000 3.812
85.48000 4.395
85.50000 0.872
85.52000 9.166
85.54000 9.882
85.56000 2.265
85.58000 6.178
85.60000 4.693
85.62000 4.847
85.64000 4.975
85.66000 5.844
85.68000 2.139
85.70000 1.692
85.72000 -1.458
85.74000 -2.633
85.76000 0.044
85.78000 2.665
85.80000 2.756
85.82000 5.995
85.84000 5.029
85.86000 5.774
85.88000 3.836
85.90000 2.191
85.92000 1.477
85.94000 5.922
85.96000 5.456
85.98000 1.239
86.00000 1.664
86.02000 4.279
86.04000 5.770
86.06000 6.527
86.08000 8.029
86.10000 2.286
86.12000 2.356
86.14000 -1.037
86.16000 3.267
86.18000 8.048
86.20000 7.974
86.22000 10.474
86.24000 6.547
86.26000 3.494
86.28000 8.665
86.30000 8.580
86.32000 7.835
86.34000 9.958
86.36000 6.897
86.38000 7.074
86.40000 16.087
86.42000 12.018
86.44000 13.879
86.46000 17.825
86.48000 14.573
86.50000 10.890
86.52000 12.291
86.54000 19.041
86.56000 17.207
86.58000 13.268
86.60000 9.438
86.62000 18.133
86.64000 15.741
86.66000 17.276
86.68000 24.004
86.70000 26.039
86.72000 27.582
86.74000 24.251
86.76000 24.588
86.78000 19.130
86.80000 21.730
86.82000 27.587
86.84000 31.286
86.86000 28.679
86.88000 24.177
86.90000 26.693
86.92000 24.963
86.94000 25.516
86.96000 23.191
86.98000 23.655
87.00000 33.800
87.02000 29.548
87.04000 33.392
87.06000 35.704
87.08000 29.568
87.10000 31.739
87.12000 31.933
87.14000 29.614
87.16000 33.079
87.18000 29.118
87.20000 28.278
87.22000 30.192
87.24000 35.734
87.26000 38.125
87.28000 41.304
87.30000 37.823
87.32000 31.302
87.34000 26.806
87.36000 26.997
87.38000 25.549
87.40000 29.700
87.42000 28.814
87.44000 34.034
87.46000 30.825
87.48000 33.366
87.50000 38.158
87.52000 32.578
87.54000 26.618
87.56000 23.151
87.58000 22.763
87.60000 22.725
87.62000 20.733
87.64000 25.498
87.66000 30.390
87.68000 29.760
87.70000 27.953
87.72000 25.377
87.74000 26.765
87.76000 23.932
87.78000 20.096
87.80000 23.466
87.82000 24.620
87.84000 21.427
87.86000 21.070
87.88000 15.951
87.90000 15.510
87.92000 13.528
87.94000 14.887
87.96000 19.956
87.98000 21.619
88.00000 21.169
88.02000 16.858
88.04000 16.941
88.06000 20.086
88.08000 25.619
88.10000 22.589
88.12000 14.846
88.14000 11.971
88.16000 10.147
88.18000 18.622
88.20000 11.969
88.22000 15.121
88.24000 12.863
88.26000 12.030
88.28000 13.164
88.30000 14.639
88.32000 9.952
88.34000 5.831
88.36000 6.893
88.38000 5.760
88.40000 6.293
88.42000 7.345
88.44000 4.089
88.46000 5.484
88.48000 5.593
88.50000 6.620
88.52000 6.550
88.54000 5.665
88.56000 6.075
88.58000 2.821
88.60000 1.808
88.62000 4.739
88.64000 4.256
88.66000 5.043
88.68000 7.363
88.70000 4.477
88.72000 6.978
88.74000 5.132
88.76000 0.611
88.78000 2.794
88.80000 -2.474
88.82000 0.261
88.84000 4.993
88.86000 5.730
88.88000 7.331
88.90000 5.320
88.92000 4.618
88.94000 3.873
88.96000 1.196
88.98000 0.671
89.00000 5.543
89.02000 0.721
89.04000 -2.025
89.06000 -0.053
89.08000 1.765
89.10000 2.823
89.12000 6.127
89.14000 -0.185
89.16000 6.621
89.18000 2.795
89.20000 5.990
89.22000 3.470
89.24000 5.824
89.26000 6.511
89.28000 0.132
89.30000 3.625
89.32000 5.814
89.34000 1.422
89.36000 1.276
89.38000 0.996
89.40000 5.722
89.42000 4.733
89.44000 7.652
89.46000 7.589
89.48000 4.902
89.50000 3.927
89.52000 8.264
89.54000 4.727
89.56000 3.007
89.58000 0.521
89.60000 3.592
89.62000 3.533
89.64000 4.974
89.66000 4.815
89.68000 2.407
89.70000 -0.309
89.72000 -1.014
89.74000 3.879
89.76000 3.301
89.78000 9.552
89.80000 2.557
89.82000 2.275
89.84000 3.786
89.86000 3.609
89.88000 4.746
89.90000 3.952
89.92000 4.191
89.94000 4.935
89.96000 4.239
89.98000 4.508
90.00000 5.524
90.02000 5.001
90.04000 4.898
90.06000 9.791
90.08000 9.108
90.10000 8.034
90.12000 3.858
90.14000 -2.290
90.16000 0.489
90.18000 2.886
90.20000 8.803
90.22000 3.915
90.24000 1.893
90.26000 6.766
90.28000 9.730
90.30000 11.082
90.32000 8.177
90.34000 5.436
90.36000 7.628
90.38000 10.010
90.40000 7.867
90.42000 8.570
90.44000 5.902
90.46000 0.319
90.48000 2.547
90.50000 6.412
90.52000 4.877
90.54000 3.263
90.56000 4.787
90.58000 6.108
90.60000 5.884
90.62000 3.910
90.64000 7.294
90.66000 5.653
90.68000 4.531
90.70000 4.707
90.72000 4.296
90.74000 5.834
90.76000 4.653
90.78000 0.913
90.80000 -0.136
90.82000 1.392
90.84000 6.124
90.86000 5.056
90.88000 4.025
90.90000 2.175
90.92000 4.681
90.94000 5.341
90.96000 5.648
90.98000 6.330
91.00000 6.960
91.02000 5.435
91.04000 5.511
91.06000 6.985
91.08000 4.349
91.10000 2.690
91.12000 5.157
91.14000 5.165
91.16000 9.244
91.18000 5.858
91.20000 -0.832
91.22000 1.992
91.24000 11.378
91.26000 8.370
91.28000 0.896
91.30000 5.905
91.32000 7.280
91.34000 7.344
91.36000 4.226
91.38000 2.403
91.40000 1.098
91.42000 1.660
91.44000 -1.318
91.46000 -0.179
91.48000 4.141
91.50000 7.868
91.52000 6.932
91.54000 -0.461
91.56000 0.520
91.58000 8.002
91.60000 6.918
91.62000 2.599
91.64000 4.851
91.66000 3.530
91.68000 1.220
91.70000 0.493
91.72000 2.365
91.74000 4.469
91.76000 6.638
91.78000 1.472
91.80000 -2.351
91.82000 1.524
91.84000 10.051
91.86000 7.791
91.88000 5.832
91.90000 8.421
91.92000 2.224
91.94000 5.442
91.96000 7.156
91.98000 3.536
92.00000 -1.407
92.02000 5.106
92.04000 8.312
92.06000 6.969
92.08000 8.452
92.10000 1.937
92.12000 -2.339
92.14000 0.988
92.16000 5.485
92.18000 5.071
92.20000 5.345
92.22000 5.872
92.24000 0.408
92.26000 0.283
92.28000 1.375
92.30000 5.240
92.32000 5.812
92.34000 5.245
92.36000 11.706
92.38000 12.092
92.40000 5.243
92.42000 3.241
92.44000 3.007
92.46000 4.239
92.48000 1.832
92.50000 2.542
92.52000 4.536
92.54000 -2.373
92.56000 -0.384
92.58000 5.013
92.60000 3.437
92.62000 6.002
92.64000 3.868
92.66000 3.171
92.68000 4.176
92.70000 2.062
92.72000 2.059
92.74000 -0.425
92.76000 4.443
92.78000 0.346
92.80000 2.823
92.82000 4.262
92.84000 1.744
92.86000 2.747
92.88000 2.485
92.90000 3.900
92.92000 6.117
92.94000 8.030
92.96000 4.824
92.98000 1.536
93.00000 1.094
93.02000 6.322
93.04000 1.027
93.06000 -1.476
93.08000 3.546
93.10000 4.990
93.12000 7.156
93.14000 7.050
93.16000 5.427
93.18000 4.541
93.20000 9.625
93.22000 7.138
93.24000 8.162
93.26000 6.884
93.28000 6.819
93.30000 4.596
93.32000 0.842
93.34000 1.574
93.36000 0.435
93.38000 4.931
93.40000 3.039
93.42000 7.303
93.44000 5.999
93.46000 5.092
93.48000 -1.125
93.50000 -0.851
93.52000 -1.648
93.54000 -2.406
93.56000 1.757
93.58000 0.658
93.60000 0.932
93.62000 1.958
93.64000 4.624
93.66000 3.701
93.68000 0.576
93.70000 0.259
93.72000 1.680
93.74000 4.396
93.76000 5.634
93.78000 4.489
93.80000 0.966
93.82000 0.679
93.84000 2.088
93.86000 -1.575
93.88000 -0.303
93.90000 2.916
93.92000 -0.794
93.94000 -2.118
93.96000 2.036
93.98000 -0.602
94.00000 1.710
94.02000 5.466
94.04000 6.387
94.06000 9.368
94.08000 5.861
94.10000 -2.213
94.12000 -0.155
94.14000 5.734
94.16000 6.519
94.18000 3.896
94.20000 2.415
94.22000 2.364
94.24000 3.957
94.26000 0.596
94.28000 4.938
94.30000 6.857
94.32000 8.629
94.34000 3.443
94.36000 -0.837
94.38000 -1.244
94.40000 -1.821
94.42000 1.582
94.44000 2.915
94.46000 -2.377
94.48000 1.362
94.50000 8.588
94.52000 13.762
94.54000 5.562
94.56000 -0.876
94.58000 1.535
94.60000 0.799
94.62000 -0.941
94.64000 0.631
94.66000 8.456
94.68000 8.029
94.70000 1.760
94.72000 2.686
94.74000 2.575
94.76000 2.087
94.78000 4.971
94.80000 10.038
94.82000 10.085
94.84000 6.547
94.86000 1.967
94.88000 4.745
94.90000 9.278
94.92000 6.721
94.94000 0.954
94.96000 8.122
94.98000 14.734
95.00000 8.712
95.02000 8.312
95.04000 11.910
95.06000 6.791
95.08000 1.345
95.10000 -1.448
95.12000 0.950
95.14000 3.844
95.16000 4.314
95.18000 0.321
95.20000 2.035
95.22000 3.797
95.24000 3.438
95.26000 5.284
95.28000 5.739
95.30000 6.654
95.32000 7.029
95.34000 6.582
95.36000 2.629
95.38000 2.250
95.40000 5.508
95.42000 3.984
95.44000 5.362
95.46000 4.029
95.48000 -2.366
95.50000 0.174
95.52000 2.631
95.54000 5.347
95.56000 10.093
95.58000 4.473
95.60000 -0.669
95.62000 -0.590
95.64000 0.318
95.66000 6.645
95.68000 17.234
95.70000 13.455
95.72000 5.218
95.74000 0.601
95.76000 5.536
95.78000 5.301
95.80000 8.339
95.82000 -0.162
95.84000 1.362
95.86000 3.323
95.88000 5.186
95.90000 0.892
95.92000 0.052
95.94000 1.007
95.96000 -2.034
95.98000 0.816
96.00000 2.038
96.02000 8.577
96.04000 7.784
96.06000 4.997
96.08000 2.422
96.10000 6.146
96.12000 9.097
96.14000 7.453
96.16000 6.807
96.18000 4.164
96.20000 6.766
96.22000 0.048
96.24000 -0.298
96.26000 1.966
96.28000 0.624
96.30000 3.432
96.32000 -2.002
96.34000 -0.420
96.36000 4.216
96.38000 4.500
96.40000 1.229
96.42000 -0.452
96.44000 -1.223
96.46000 5.155
96.48000 4.892
96.50000 7.214
96.52000 3.013
96.54000 0.175
96.56000 2.406
96.58000 7.102
96.60000 9.512
96.62000 7.414
96.64000 7.135
96.66000 5.110
96.68000 -0.803
96.70000 -0.800
96.72000 4.470
96.74000 11.387
96.76000 9.770
96.78000 5.096
96.80000 4.254
96.82000 6.232
96.84000 4.421
96.86000 5.009
96.88000 -1.173
96.90000 -0.829
96.92000 2.498
96.94000 -2.384
96.96000 -1.212
96.98000 2.675
97.00000 4.597
97.02000 6.500
97.04000 10.648
97.06000 11.527
97.08000 11.016
97.10000 9.802
97.12000 0.384
97.14000 -0.478
97.16000 12.030
97.18000 8.582
97.20000 9.263
97.22000 8.382
97.24000 8.577
97.26000 6.383
97.28000 7.466
97.30000 4.869
97.32000 5.963
97.34000 11.883
97.36000 12.722
97.38000 6.423
97.40000 0.819
97.42000 6.351
97.44000 -1.782
97.46000 1.370
97.48000 4.384
97.50000 1.925
97.52000 3.155
97.54000 5.913
97.56000 5.201
97.58000 4.828
97.60000 5.558
97.62000 0.986
97.64000 4.440
97.66000 8.582
97.68000 5.939
97.70000 5.167
97.72000 9.315
97.74000 7.026
97.76000 4.913
97.78000 4.758
97.80000 5.356
97.82000 4.070
97.84000 1.464
97.86000 4.744
97.88000 14.924
97.90000 4.794
97.92000 1.789
97.94000 8.951
97.96000 1.265
97.98000 5.683
98.00000 6.353
98.02000 3.813
98.04000 3.053
98.06000 8.383
98.08000 6.804
98.10000 1.143
98.12000 6.248
98.14000 6.409
98.16000 10.667
98.18000 10.582
98.20000 15.139
98.22000 17.552
98.24000 9.503
98.26000 5.046
98.28000 -2.306
98.30000 -0.612
98.32000 6.655
98.34000 -0.849
98.36000 1.510
98.38000 5.659
98.40000 7.889
98.42000 5.341
98.44000 10.430
98.46000 12.343
98.48000 7.545
98.50000 12.938
98.52000 13.974
98.54000 11.050
98.56000 9.902
98.58000 4.351
98.60000 8.208
98.62000 10.634
98.64000 14.630
98.66000 10.371
98.68000 6.216
98.70000 5.204
98.72000 -0.144
98.74000 7.383
98.76000 -0.224
98.78000 0.558
98.80000 11.949
98.82000 15.136
98.84000 5.958
98.86000 3.615
98.88000 1.871
98.90000 5.558
98.92000 4.691
98.94000 9.845
98.96000 4.853
98.98000 9.338
99.00000 3.739
99.02000 1.439
99.04000 -0.638
99.06000 3.684
99.08000 2.451
99.10000 8.488
99.12000 8.393
99.14000 8.253
99.16000 12.848
99.18000 8.059
99.20000 5.772
99.22000 8.605
99.24000 2.225
99.26000 5.461
99.28000 7.565
99.30000 5.229
99.32000 4.931
99.34000 7.635
99.36000 16.244
99.38000 19.452
99.40000 14.382
99.42000 14.716
99.44000 10.115
99.46000 6.943
99.48000 15.743
99.50000 4.986
99.52000 4.418
99.54000 11.957
99.56000 5.255
99.58000 9.614
99.60000 5.673
99.62000 6.703
99.64000 4.053
99.66000 7.643
99.68000 3.261
99.70000 3.639
99.72000 2.440
99.74000 -2.276
99.76000 6.496
99.78000 5.285
99.80000 8.155
99.82000 8.882
99.84000 6.970
99.86000 7.311
99.88000 3.512
99.90000 -2.980
99.92000 9.392
99.94000 1.067
99.96000 3.555
99.98000 0.000
