'Id: "0011387" Comment: "Integrate frame 0011387_Au-Ir-Rh_Rh-rich_XRD-Mapping-281-0000.gfrmwith cursor Wedge Cursor #5" Operator: "B?rgel" Anode: "Cu" Wavelength: "1.5406" Scantype: "2Theta (TwoTheta)" TimePerStep: "1" X: "-27" Y: "27" Z: "5.95" 
10.00000 0.000
10.02000 5.866
10.04000 -4.579
10.06000 -4.491
10.08000 9.825
10.10000 18.169
10.12000 9.224
10.14000 0.520
10.16000 13.060
10.18000 12.854
10.20000 7.935
10.22000 5.070
10.24000 6.724
10.26000 0.822
10.28000 12.949
10.30000 20.731
10.32000 13.600
10.34000 12.465
10.36000 2.319
10.38000 4.456
10.40000 6.041
10.42000 4.323
10.44000 9.209
10.46000 11.558
10.48000 2.427
10.50000 -1.374
10.52000 7.654
10.54000 20.193
10.56000 12.302
10.58000 11.249
10.60000 0.959
10.62000 0.554
10.64000 16.443
10.66000 19.561
10.68000 19.739
10.70000 9.658
10.72000 -0.928
10.74000 8.873
10.76000 14.076
10.78000 18.093
10.80000 16.157
10.82000 3.944
10.84000 4.723
10.86000 10.604
10.88000 20.806
10.90000 12.681
10.92000 16.324
10.94000 19.371
10.96000 9.244
10.98000 1.898
11.00000 0.843
11.02000 6.995
11.04000 23.309
11.06000 7.096
11.08000 13.709
11.10000 28.208
11.12000 18.207
11.14000 24.732
11.16000 18.812
11.18000 21.043
11.20000 19.599
11.22000 9.302
11.24000 11.545
11.26000 0.581
11.28000 7.083
11.30000 7.658
11.32000 12.921
11.34000 15.554
11.36000 10.696
11.38000 9.071
11.40000 17.603
11.42000 7.563
11.44000 7.401
11.46000 7.873
11.48000 2.551
11.50000 2.874
11.52000 8.327
11.54000 4.916
11.56000 14.072
11.58000 8.509
11.60000 13.934
11.62000 7.727
11.64000 13.889
11.66000 10.734
11.68000 17.568
11.70000 6.775
11.72000 6.257
11.74000 13.630
11.76000 3.495
11.78000 9.176
11.80000 11.202
11.82000 24.124
11.84000 6.797
11.86000 6.722
11.88000 10.011
11.90000 4.273
11.92000 -2.722
11.94000 2.516
11.96000 25.566
11.98000 17.139
12.00000 2.749
12.02000 12.954
12.04000 25.557
12.06000 13.234
12.08000 9.181
12.10000 4.711
12.12000 9.017
12.14000 28.071
12.16000 11.426
12.18000 2.682
12.20000 9.192
12.22000 15.173
12.24000 9.794
12.26000 7.156
12.28000 14.178
12.30000 18.966
12.32000 21.667
12.34000 23.501
12.36000 19.026
12.38000 8.200
12.40000 10.791
12.42000 17.458
12.44000 18.282
12.46000 11.744
12.48000 20.394
12.50000 18.615
12.52000 13.793
12.54000 6.135
12.56000 9.294
12.58000 -4.480
12.60000 7.478
12.62000 19.500
12.64000 18.732
12.66000 11.089
12.68000 14.612
12.70000 12.429
12.72000 5.348
12.74000 10.753
12.76000 20.909
12.78000 5.535
12.80000 8.377
12.82000 12.268
12.84000 14.736
12.86000 17.371
12.88000 10.169
12.90000 7.362
12.92000 5.461
12.94000 5.692
12.96000 9.089
12.98000 10.116
13.00000 8.572
13.02000 18.369
13.04000 15.586
13.06000 3.773
13.08000 2.422
13.10000 1.226
13.12000 -0.221
13.14000 15.625
13.16000 21.353
13.18000 12.531
13.20000 12.685
13.22000 18.447
13.24000 7.432
13.26000 1.230
13.28000 3.559
13.30000 -4.145
13.32000 -2.280
13.34000 3.379
13.36000 7.640
13.38000 13.881
13.40000 14.302
13.42000 22.370
13.44000 28.947
13.46000 10.351
13.48000 0.074
13.50000 -1.108
13.52000 9.120
13.54000 22.912
13.56000 8.483
13.58000 2.121
13.60000 1.113
13.62000 -1.900
13.64000 -3.661
13.66000 -4.187
13.68000 0.733
13.70000 12.784
13.72000 12.552
13.74000 13.991
13.76000 15.064
13.78000 8.733
13.80000 5.084
13.82000 8.965
13.84000 6.396
13.86000 7.942
13.88000 6.503
13.90000 9.683
13.92000 12.268
13.94000 7.532
13.96000 9.830
13.98000 17.458
14.00000 12.511
14.02000 6.613
14.04000 3.846
14.06000 9.143
14.08000 10.520
14.10000 3.699
14.12000 8.608
14.14000 4.161
14.16000 -1.246
14.18000 -1.624
14.20000 -0.439
14.22000 11.244
14.24000 12.142
14.26000 7.058
14.28000 3.931
14.30000 3.954
14.32000 -1.153
14.34000 -4.415
14.36000 -2.013
14.38000 1.953
14.40000 3.220
14.42000 2.621
14.44000 6.268
14.46000 9.195
14.48000 5.367
14.50000 12.244
14.52000 10.950
14.54000 4.934
14.56000 3.248
14.58000 4.801
14.60000 12.546
14.62000 10.459
14.64000 12.951
14.66000 12.932
14.68000 6.081
14.70000 7.295
14.72000 3.567
14.74000 2.689
14.76000 0.752
14.78000 10.108
14.80000 2.083
14.82000 2.258
14.84000 4.927
14.86000 -2.200
14.88000 3.781
14.90000 10.861
14.92000 7.101
14.94000 11.442
14.96000 11.591
14.98000 1.242
15.00000 3.340
15.02000 5.087
15.04000 4.382
15.06000 11.766
15.08000 5.763
15.10000 0.957
15.12000 -0.270
15.14000 2.484
15.16000 3.280
15.18000 3.644
15.20000 9.752
15.22000 9.612
15.24000 0.888
15.26000 7.002
15.28000 9.583
15.30000 2.949
15.32000 0.533
15.34000 0.774
15.36000 2.090
15.38000 1.013
15.40000 0.741
15.42000 4.691
15.44000 12.666
15.46000 14.488
15.48000 7.427
15.50000 6.858
15.52000 13.431
15.54000 9.780
15.56000 7.966
15.58000 -2.696
15.60000 1.398
15.62000 13.963
15.64000 8.996
15.66000 8.742
15.68000 12.061
15.70000 17.137
15.72000 21.773
15.74000 11.449
15.76000 -0.429
15.78000 -4.465
15.80000 -3.666
15.82000 5.145
15.84000 2.667
15.86000 14.068
15.88000 10.516
15.90000 5.884
15.92000 13.338
15.94000 7.775
15.96000 -4.459
15.98000 -3.289
16.00000 5.753
16.02000 0.342
16.04000 5.340
16.06000 -0.239
16.08000 -0.565
16.10000 0.698
16.12000 6.686
16.14000 6.802
16.16000 5.074
16.18000 3.279
16.20000 -3.780
16.22000 6.401
16.24000 11.980
16.26000 5.953
16.28000 -4.447
16.30000 2.438
16.32000 6.022
16.34000 2.055
16.36000 9.626
16.38000 3.990
16.40000 0.017
16.42000 1.924
16.44000 -2.182
16.46000 -0.442
16.48000 5.735
16.50000 10.274
16.52000 9.319
16.54000 10.039
16.56000 9.321
16.58000 9.885
16.60000 0.433
16.62000 2.420
16.64000 5.993
16.66000 4.348
16.68000 5.481
16.70000 5.712
16.72000 3.891
16.74000 -0.390
16.76000 3.633
16.78000 6.644
16.80000 5.680
16.82000 4.956
16.84000 3.315
16.86000 -0.363
16.88000 1.440
16.90000 8.595
16.92000 10.637
16.94000 8.475
16.96000 4.401
16.98000 3.137
17.00000 -1.897
17.02000 5.400
17.04000 8.740
17.06000 7.934
17.08000 -4.406
17.10000 2.713
17.12000 8.633
17.14000 15.258
17.16000 0.061
17.18000 -2.850
17.20000 4.857
17.22000 1.781
17.24000 -0.316
17.26000 -1.256
17.28000 -4.232
17.30000 12.003
17.32000 13.645
17.34000 6.687
17.36000 7.949
17.38000 9.496
17.40000 9.499
17.42000 11.149
17.44000 9.830
17.46000 5.497
17.48000 1.880
17.50000 -2.269
17.52000 4.052
17.54000 7.321
17.56000 1.783
17.58000 1.009
17.60000 -2.229
17.62000 2.914
17.64000 1.697
17.66000 4.591
17.68000 15.534
17.70000 7.249
17.72000 9.670
17.74000 1.841
17.76000 0.970
17.78000 4.599
17.80000 7.963
17.82000 11.293
17.84000 9.135
17.86000 0.563
17.88000 -1.740
17.90000 -3.358
17.92000 -3.835
17.94000 3.362
17.96000 5.792
17.98000 3.789
18.00000 4.722
18.02000 0.833
18.04000 3.293
18.06000 6.131
18.08000 -1.582
18.10000 0.900
18.12000 1.980
18.14000 2.182
18.16000 3.449
18.18000 1.824
18.20000 8.482
18.22000 4.173
18.24000 -0.821
18.26000 1.223
18.28000 0.945
18.30000 6.350
18.32000 1.750
18.34000 1.165
18.36000 -2.450
18.38000 3.956
18.40000 3.512
18.42000 5.475
18.44000 3.648
18.46000 10.341
18.48000 9.196
18.50000 3.451
18.52000 -4.319
18.54000 0.322
18.56000 16.175
18.58000 14.665
18.60000 11.809
18.62000 11.141
18.64000 5.047
18.66000 10.929
18.68000 6.433
18.70000 -1.056
18.72000 3.288
18.74000 7.274
18.76000 6.299
18.78000 10.111
18.80000 6.173
18.82000 1.589
18.84000 10.516
18.86000 13.565
18.88000 13.048
18.90000 6.911
18.92000 -0.733
18.94000 5.331
18.96000 2.849
18.98000 1.882
19.00000 1.841
19.02000 9.820
19.04000 11.407
19.06000 10.348
19.08000 8.563
19.10000 7.677
19.12000 7.423
19.14000 -1.226
19.16000 2.567
19.18000 10.010
19.20000 12.457
19.22000 10.488
19.24000 8.925
19.26000 5.694
19.28000 7.276
19.30000 4.879
19.32000 8.990
19.34000 18.304
19.36000 16.846
19.38000 12.012
19.40000 9.911
19.42000 3.616
19.44000 -4.229
19.46000 6.208
19.48000 8.296
19.50000 8.459
19.52000 9.692
19.54000 7.878
19.56000 14.431
19.58000 9.756
19.60000 6.895
19.62000 7.827
19.64000 10.161
19.66000 10.564
19.68000 7.305
19.70000 1.247
19.72000 5.278
19.74000 12.313
19.76000 9.329
19.78000 7.471
19.80000 1.796
19.82000 5.430
19.84000 9.838
19.86000 11.994
19.88000 12.112
19.90000 7.574
19.92000 7.613
19.94000 7.533
19.96000 9.593
19.98000 3.429
20.00000 4.483
20.02000 9.788
20.04000 13.301
20.06000 9.177
20.08000 4.041
20.10000 4.377
20.12000 1.079
20.14000 -2.698
20.16000 8.369
20.18000 11.646
20.20000 9.146
20.22000 7.550
20.24000 8.225
20.26000 14.148
20.28000 8.421
20.30000 10.000
20.32000 6.464
20.34000 2.334
20.36000 4.656
20.38000 3.458
20.40000 7.787
20.42000 11.402
20.44000 3.907
20.46000 7.444
20.48000 6.766
20.50000 5.479
20.52000 3.562
20.54000 7.603
20.56000 2.202
20.58000 1.930
20.60000 -0.267
20.62000 6.558
20.64000 0.659
20.66000 7.808
20.68000 10.087
20.70000 4.548
20.72000 6.578
20.74000 5.093
20.76000 3.706
20.78000 3.526
20.80000 6.392
20.82000 2.693
20.84000 -1.513
20.86000 1.542
20.88000 1.877
20.90000 13.237
20.92000 9.913
20.94000 11.413
20.96000 10.731
20.98000 6.233
21.00000 8.136
21.02000 11.326
21.04000 9.429
21.06000 1.122
21.08000 0.607
21.10000 4.239
21.12000 9.557
21.14000 14.064
21.16000 16.501
21.18000 16.202
21.20000 11.135
21.22000 8.357
21.24000 4.710
21.26000 7.366
21.28000 5.638
21.30000 5.357
21.32000 11.930
21.34000 5.807
21.36000 -4.121
21.38000 2.769
21.40000 6.473
21.42000 4.067
21.44000 3.370
21.46000 6.877
21.48000 11.138
21.50000 11.291
21.52000 8.540
21.54000 7.644
21.56000 6.792
21.58000 10.846
21.60000 11.062
21.62000 9.312
21.64000 7.355
21.66000 8.648
21.68000 2.960
21.70000 -0.011
21.72000 -4.123
21.74000 1.246
21.76000 -3.267
21.78000 5.411
21.80000 6.056
21.82000 4.632
21.84000 7.175
21.86000 7.104
21.88000 2.047
21.90000 4.943
21.92000 9.895
21.94000 13.717
21.96000 5.574
21.98000 10.041
22.00000 12.893
22.02000 11.465
22.04000 8.973
22.06000 1.848
22.08000 1.658
22.10000 7.943
22.12000 1.081
22.14000 -0.883
22.16000 -2.037
22.18000 -4.116
22.20000 5.065
22.22000 1.953
22.24000 1.042
22.26000 1.628
22.28000 -3.393
22.30000 4.149
22.32000 5.608
22.34000 2.856
22.36000 4.142
22.38000 3.526
22.40000 4.256
22.42000 4.341
22.44000 3.622
22.46000 5.711
22.48000 7.536
22.50000 4.580
22.52000 9.321
22.54000 16.417
22.56000 15.100
22.58000 9.133
22.60000 9.550
22.62000 8.993
22.64000 0.688
22.66000 0.436
22.68000 4.357
22.70000 -0.278
22.72000 2.078
22.74000 4.576
22.76000 4.535
22.78000 3.473
22.80000 4.224
22.82000 2.877
22.84000 -0.712
22.86000 -1.327
22.88000 6.874
22.90000 6.290
22.92000 5.389
22.94000 2.483
22.96000 2.588
22.98000 1.930
23.00000 1.366
23.02000 -4.087
23.04000 4.067
23.06000 6.505
23.08000 9.427
23.10000 9.782
23.12000 8.498
23.14000 1.111
23.16000 3.942
23.18000 6.764
23.20000 3.164
23.22000 3.836
23.24000 2.467
23.26000 -0.436
23.28000 3.660
23.30000 3.012
23.32000 3.032
23.34000 0.964
23.36000 0.663
23.38000 -3.443
23.40000 -0.153
23.42000 1.333
23.44000 -1.068
23.46000 -0.935
23.48000 -3.049
23.50000 1.288
23.52000 3.468
23.54000 7.171
23.56000 3.632
23.58000 -0.725
23.60000 1.240
23.62000 -3.069
23.64000 0.457
23.66000 0.826
23.68000 1.394
23.70000 -2.749
23.72000 -4.042
23.74000 5.743
23.76000 3.915
23.78000 4.149
23.80000 3.419
23.82000 3.965
23.84000 9.317
23.86000 6.670
23.88000 1.268
23.90000 5.277
23.92000 7.096
23.94000 6.523
23.96000 4.321
23.98000 -0.029
24.00000 6.291
24.02000 1.346
24.04000 0.547
24.06000 3.251
24.08000 6.774
24.10000 6.205
24.12000 10.896
24.14000 6.837
24.16000 3.133
24.18000 0.724
24.20000 2.637
24.22000 11.992
24.24000 7.225
24.26000 5.866
24.28000 8.335
24.30000 -1.418
24.32000 -3.671
24.34000 4.047
24.36000 3.926
24.38000 10.246
24.40000 13.328
24.42000 7.368
24.44000 6.717
24.46000 7.066
24.48000 7.597
24.50000 8.432
24.52000 3.948
24.54000 1.067
24.56000 6.881
24.58000 0.492
24.60000 -3.952
24.62000 6.552
24.64000 10.114
24.66000 5.123
24.68000 1.432
24.70000 -0.819
24.72000 -2.210
24.74000 -3.207
24.76000 -3.947
24.78000 6.720
24.80000 7.737
24.82000 0.708
24.84000 4.233
24.86000 4.810
24.88000 4.411
24.90000 5.435
24.92000 3.586
24.94000 4.111
24.96000 3.036
24.98000 8.905
25.00000 10.043
25.02000 4.743
25.04000 0.484
25.06000 0.862
25.08000 4.593
25.10000 4.598
25.12000 -1.978
25.14000 -0.866
25.16000 -2.357
25.18000 -1.230
25.20000 1.984
25.22000 3.238
25.24000 4.429
25.26000 4.351
25.28000 0.669
25.30000 4.043
25.32000 1.762
25.34000 -3.935
25.36000 0.728
25.38000 3.532
25.40000 3.752
25.42000 4.030
25.44000 0.955
25.46000 1.913
25.48000 3.839
25.50000 2.740
25.52000 6.948
25.54000 7.989
25.56000 6.132
25.58000 4.403
25.60000 5.183
25.62000 -3.829
25.64000 -3.926
25.66000 -0.280
25.68000 0.357
25.70000 -2.973
25.72000 -3.549
25.74000 1.913
25.76000 4.489
25.78000 3.635
25.80000 2.369
25.82000 2.878
25.84000 1.435
25.86000 5.508
25.88000 5.907
25.90000 3.392
25.92000 9.145
25.94000 10.500
25.96000 6.024
25.98000 0.059
26.00000 3.135
26.02000 2.466
26.04000 5.898
26.06000 5.756
26.08000 1.627
26.10000 6.154
26.12000 2.726
26.14000 0.405
26.16000 -1.589
26.18000 -1.079
26.20000 -1.253
26.22000 -2.581
26.24000 2.959
26.26000 2.501
26.28000 0.250
26.30000 0.512
26.32000 -0.377
26.34000 4.040
26.36000 2.060
26.38000 -1.975
26.40000 -0.809
26.42000 -3.763
26.44000 -3.819
26.46000 -1.837
26.48000 2.790
26.50000 1.132
26.52000 1.477
26.54000 -2.094
26.56000 1.760
26.58000 10.654
26.60000 5.763
26.62000 1.032
26.64000 1.709
26.66000 5.009
26.68000 -0.490
26.70000 -3.008
26.72000 1.861
26.74000 8.612
26.76000 5.544
26.78000 3.375
26.80000 4.800
26.82000 3.930
26.84000 7.170
26.86000 9.643
26.88000 3.521
26.90000 -2.502
26.92000 -3.871
26.94000 -0.171
26.96000 2.021
26.98000 -1.504
27.00000 2.347
27.02000 5.964
27.04000 4.336
27.06000 5.336
27.08000 -0.390
27.10000 -0.038
27.12000 4.154
27.14000 1.802
27.16000 1.003
27.18000 4.266
27.20000 5.051
27.22000 -1.735
27.24000 0.272
27.26000 -0.567
27.28000 5.776
27.30000 7.186
27.32000 5.894
27.34000 4.527
27.36000 -0.949
27.38000 -0.969
27.40000 -3.835
27.42000 3.273
27.44000 5.389
27.46000 -2.709
27.48000 -2.216
27.50000 1.012
27.52000 2.753
27.54000 3.104
27.56000 2.829
27.58000 -1.060
27.60000 -2.845
27.62000 -2.742
27.64000 0.468
27.66000 0.042
27.68000 2.210
27.70000 8.126
27.72000 4.829
27.74000 8.526
27.76000 8.383
27.78000 7.568
27.80000 -0.036
27.82000 -2.677
27.84000 -1.226
27.86000 -1.127
27.88000 -3.564
27.90000 -1.741
27.92000 1.646
27.94000 6.262
27.96000 0.937
27.98000 5.125
28.00000 5.805
28.02000 1.493
28.04000 -3.778
28.06000 1.595
28.08000 -0.060
28.10000 4.076
28.12000 3.625
28.14000 2.717
28.16000 3.448
28.18000 1.620
28.20000 5.803
28.22000 3.442
28.24000 8.751
28.26000 5.204
28.28000 3.504
28.30000 3.907
28.32000 4.205
28.34000 5.242
28.36000 2.063
28.38000 2.576
28.40000 2.538
28.42000 0.168
28.44000 3.240
28.46000 7.991
28.48000 5.959
28.50000 8.452
28.52000 3.065
28.54000 2.781
28.56000 -1.265
28.58000 -2.781
28.60000 -1.865
28.62000 0.528
28.64000 7.427
28.66000 4.541
28.68000 1.612
28.70000 -0.387
28.72000 3.485
28.74000 4.859
28.76000 5.430
28.78000 4.788
28.80000 2.191
28.82000 -1.016
28.84000 2.871
28.86000 3.932
28.88000 4.291
28.90000 1.458
28.92000 -1.547
28.94000 1.513
28.96000 3.125
28.98000 4.236
29.00000 2.832
29.02000 -1.461
29.04000 2.350
29.06000 1.185
29.08000 -0.463
29.10000 4.622
29.12000 -1.003
29.14000 -1.571
29.16000 3.613
29.18000 6.085
29.20000 5.464
29.22000 0.912
29.24000 3.181
29.26000 -0.552
29.28000 -0.712
29.30000 -0.888
29.32000 2.647
29.34000 2.607
29.36000 1.143
29.38000 1.892
29.40000 4.957
29.42000 4.885
29.44000 1.605
29.46000 6.149
29.48000 -1.858
29.50000 -3.722
29.52000 1.779
29.54000 1.209
29.56000 0.837
29.58000 1.220
29.60000 2.876
29.62000 -0.103
29.64000 4.427
29.66000 6.938
29.68000 3.992
29.70000 2.518
29.72000 3.263
29.74000 2.888
29.76000 3.957
29.78000 1.867
29.80000 3.040
29.82000 0.766
29.84000 3.666
29.86000 2.971
29.88000 4.461
29.90000 5.839
29.92000 1.824
29.94000 -2.798
29.96000 -0.503
29.98000 -1.315
30.00000 0.371
30.02000 -0.104
30.04000 -1.529
30.06000 -1.788
30.08000 -2.753
30.10000 1.203
30.12000 3.948
30.14000 2.596
30.16000 3.608
30.18000 5.460
30.20000 -0.493
30.22000 3.881
30.24000 3.568
30.26000 -1.243
30.28000 -1.698
30.30000 1.050
30.32000 1.585
30.34000 4.325
30.36000 -0.105
30.38000 1.513
30.40000 2.079
30.42000 -0.158
30.44000 -1.894
30.46000 -0.957
30.48000 3.406
30.50000 4.092
30.52000 3.856
30.54000 4.621
30.56000 0.643
30.58000 2.143
30.60000 3.295
30.62000 7.831
30.64000 1.418
30.66000 -0.321
30.68000 -2.059
30.70000 -3.671
30.72000 -2.022
30.74000 -0.492
30.76000 0.153
30.78000 6.236
30.80000 6.741
30.82000 3.466
30.84000 1.781
30.86000 2.345
30.88000 -0.460
30.90000 0.378
30.92000 2.359
30.94000 5.337
30.96000 5.942
30.98000 3.297
31.00000 0.350
31.02000 -0.287
31.04000 -3.515
31.06000 1.388
31.08000 5.907
31.10000 1.994
31.12000 2.150
31.14000 -0.798
31.16000 0.887
31.18000 -0.522
31.20000 1.171
31.22000 4.778
31.24000 -0.250
31.26000 -2.594
31.28000 7.365
31.30000 -1.347
31.32000 -2.174
31.34000 3.225
31.36000 4.166
31.38000 1.242
31.40000 1.947
31.42000 -0.194
31.44000 -3.042
31.46000 -0.809
31.48000 4.371
31.50000 4.156
31.52000 0.744
31.54000 0.020
31.56000 2.392
31.58000 0.275
31.60000 -2.118
31.62000 0.457
31.64000 2.559
31.66000 11.022
31.68000 5.027
31.70000 1.043
31.72000 0.658
31.74000 3.591
31.76000 -0.113
31.78000 -0.938
31.80000 -1.277
31.82000 -2.059
31.84000 1.416
31.86000 -3.624
31.88000 1.774
31.90000 1.620
31.92000 -2.744
31.94000 -2.627
31.96000 0.913
31.98000 2.757
32.00000 5.629
32.02000 9.331
32.04000 7.512
32.06000 4.058
32.08000 3.106
32.10000 0.496
32.12000 5.145
32.14000 6.278
32.16000 0.001
32.18000 1.686
32.20000 2.359
32.22000 -0.868
32.24000 2.373
32.26000 5.506
32.28000 3.034
32.30000 4.754
32.32000 7.693
32.34000 2.895
32.36000 -0.332
32.38000 1.646
32.40000 5.185
32.42000 7.361
32.44000 3.438
32.46000 -0.303
32.48000 -3.578
32.50000 0.791
32.52000 6.032
32.54000 4.757
32.56000 3.614
32.58000 3.444
32.60000 0.145
32.62000 0.770
32.64000 5.275
32.66000 5.023
32.68000 4.522
32.70000 1.790
32.72000 7.803
32.74000 6.464
32.76000 6.867
32.78000 10.281
32.80000 7.131
32.82000 6.880
32.84000 7.545
32.86000 10.186
32.88000 5.676
32.90000 3.894
32.92000 7.654
32.94000 4.840
32.96000 0.404
32.98000 3.333
33.00000 5.794
33.02000 3.523
33.04000 1.337
33.06000 5.289
33.08000 2.806
33.10000 -3.527
33.12000 0.783
33.14000 3.605
33.16000 7.355
33.18000 8.763
33.20000 8.993
33.22000 9.347
33.24000 10.883
33.26000 11.606
33.28000 10.096
33.30000 10.596
33.32000 9.955
33.34000 8.620
33.36000 7.273
33.38000 2.823
33.40000 6.021
33.42000 5.262
33.44000 5.107
33.46000 6.270
33.48000 9.654
33.50000 5.053
33.52000 3.841
33.54000 6.281
33.56000 6.584
33.58000 4.078
33.60000 1.435
33.62000 0.066
33.64000 4.274
33.66000 1.042
33.68000 1.447
33.70000 3.214
33.72000 4.122
33.74000 3.808
33.76000 4.566
33.78000 3.177
33.80000 3.190
33.82000 4.694
33.84000 2.773
33.86000 4.367
33.88000 10.406
33.90000 6.447
33.92000 3.274
33.94000 4.731
33.96000 1.105
33.98000 4.353
34.00000 3.061
34.02000 4.192
34.04000 5.161
34.06000 5.341
34.08000 -0.759
34.10000 -1.421
34.12000 -0.465
34.14000 3.350
34.16000 5.950
34.18000 6.590
34.20000 5.493
34.22000 7.490
34.24000 6.681
34.26000 1.295
34.28000 8.156
34.30000 8.140
34.32000 0.831
34.34000 -0.867
34.36000 2.637
34.38000 -0.908
34.40000 3.695
34.42000 3.406
34.44000 4.908
34.46000 6.018
34.48000 10.999
34.50000 6.788
34.52000 4.248
34.54000 1.606
34.56000 2.912
34.58000 2.331
34.60000 4.219
34.62000 1.851
34.64000 -0.131
34.66000 2.799
34.68000 2.731
34.70000 2.301
34.72000 0.758
34.74000 2.509
34.76000 7.285
34.78000 10.658
34.80000 6.217
34.82000 3.355
34.84000 4.124
34.86000 1.690
34.88000 0.349
34.90000 -3.535
34.92000 -2.581
34.94000 1.741
34.96000 3.369
34.98000 2.728
35.00000 4.825
35.02000 5.720
35.04000 5.361
35.06000 4.365
35.08000 2.639
35.10000 -0.683
35.12000 2.087
35.14000 6.449
35.16000 5.805
35.18000 -0.369
35.20000 0.614
35.22000 0.173
35.24000 3.138
35.26000 7.118
35.28000 6.113
35.30000 8.481
35.32000 5.984
35.34000 5.948
35.36000 5.828
35.38000 -0.343
35.40000 -1.640
35.42000 0.122
35.44000 7.235
35.46000 7.104
35.48000 5.042
35.50000 -0.255
35.52000 -1.384
35.54000 2.094
35.56000 2.483
35.58000 5.428
35.60000 9.393
35.62000 8.378
35.64000 2.377
35.66000 0.199
35.68000 3.164
35.70000 2.814
35.72000 -1.053
35.74000 -3.515
35.76000 5.758
35.78000 4.292
35.80000 6.504
35.82000 10.577
35.84000 11.159
35.86000 6.269
35.88000 4.756
35.90000 1.442
35.92000 0.726
35.94000 0.390
35.96000 0.999
35.98000 3.330
36.00000 -0.409
36.02000 1.684
36.04000 4.964
36.06000 2.824
36.08000 2.128
36.10000 3.699
36.12000 6.674
36.14000 5.134
36.16000 5.972
36.18000 4.194
36.20000 7.548
36.22000 8.621
36.24000 4.444
36.26000 -1.339
36.28000 0.939
36.30000 2.321
36.32000 4.415
36.34000 6.356
36.36000 0.631
36.38000 3.477
36.40000 5.156
36.42000 3.668
36.44000 -1.071
36.46000 3.446
36.48000 2.536
36.50000 3.297
36.52000 8.331
36.54000 9.994
36.56000 7.699
36.58000 1.285
36.60000 1.058
36.62000 3.900
36.64000 4.429
36.66000 2.691
36.68000 1.305
36.70000 4.834
36.72000 7.452
36.74000 2.663
36.76000 -3.576
36.78000 1.778
36.80000 2.711
36.82000 2.482
36.84000 0.933
36.86000 -0.521
36.88000 2.768
36.90000 1.760
36.92000 2.034
36.94000 0.105
36.96000 6.875
36.98000 3.959
37.00000 1.614
37.02000 5.043
37.04000 1.062
37.06000 2.672
37.08000 3.496
37.10000 1.036
37.12000 0.777
37.14000 -1.459
37.16000 1.860
37.18000 1.105
37.20000 2.787
37.22000 5.070
37.24000 3.849
37.26000 4.370
37.28000 5.996
37.30000 4.765
37.32000 5.907
37.34000 3.055
37.36000 2.802
37.38000 7.689
37.40000 7.190
37.42000 -1.498
37.44000 1.152
37.46000 -0.415
37.48000 5.121
37.50000 3.072
37.52000 4.806
37.54000 1.678
37.56000 0.265
37.58000 3.518
37.60000 4.013
37.62000 2.590
37.64000 3.730
37.66000 7.829
37.68000 8.701
37.70000 9.768
37.72000 5.954
37.74000 11.198
37.76000 12.443
37.78000 13.878
37.80000 14.774
37.82000 13.913
37.84000 10.855
37.86000 9.759
37.88000 7.606
37.90000 11.476
37.92000 12.587
37.94000 13.729
37.96000 15.142
37.98000 13.314
38.00000 18.453
38.02000 19.100
38.04000 19.217
38.06000 21.297
38.08000 18.255
38.10000 18.455
38.12000 17.241
38.14000 23.995
38.16000 21.971
38.18000 25.475
38.20000 21.249
38.22000 23.781
38.24000 23.825
38.26000 26.431
38.28000 30.465
38.30000 25.709
38.32000 27.303
38.34000 30.613
38.36000 34.344
38.38000 29.873
38.40000 30.818
38.42000 26.614
38.44000 30.303
38.46000 36.172
38.48000 42.524
38.50000 42.234
38.52000 40.550
38.54000 45.135
38.56000 48.554
38.58000 47.230
38.60000 50.002
38.62000 46.104
38.64000 54.906
38.66000 54.224
38.68000 54.959
38.70000 57.723
38.72000 56.084
38.74000 59.072
38.76000 61.241
38.78000 69.825
38.80000 74.548
38.82000 74.518
38.84000 81.727
38.86000 81.055
38.88000 84.674
38.90000 90.598
38.92000 93.272
38.94000 93.754
38.96000 100.895
38.98000 100.452
39.00000 111.362
39.02000 110.891
39.04000 119.162
39.06000 124.488
39.08000 127.480
39.10000 130.532
39.12000 142.454
39.14000 149.297
39.16000 156.674
39.18000 158.544
39.20000 167.417
39.22000 180.422
39.24000 186.274
39.26000 182.776
39.28000 197.233
39.30000 213.772
39.32000 226.407
39.34000 230.102
39.36000 242.119
39.38000 259.571
39.40000 271.051
39.42000 278.050
39.44000 292.997
39.46000 305.981
39.48000 318.062
39.50000 332.060
39.52000 362.012
39.54000 381.743
39.56000 394.350
39.58000 408.144
39.60000 433.851
39.62000 456.620
39.64000 477.792
39.66000 497.671
39.68000 526.570
39.70000 563.686
39.72000 592.675
39.74000 614.786
39.76000 629.336
39.78000 642.569
39.80000 656.438
39.82000 684.830
39.84000 713.500
39.86000 733.997
39.88000 749.739
39.90000 766.683
39.92000 780.682
39.94000 777.851
39.96000 783.478
39.98000 787.936
40.00000 799.084
40.02000 808.237
40.04000 802.753
40.06000 790.864
40.08000 797.160
40.10000 798.464
40.12000 789.802
40.14000 767.819
40.16000 739.118
40.18000 713.982
40.20000 713.559
40.22000 705.626
40.24000 670.810
40.26000 644.717
40.28000 625.726
40.30000 607.706
40.32000 587.626
40.34000 560.256
40.36000 543.318
40.38000 514.325
40.40000 492.270
40.42000 471.593
40.44000 450.832
40.46000 430.192
40.48000 408.888
40.50000 389.197
40.52000 363.175
40.54000 346.878
40.56000 325.474
40.58000 313.520
40.60000 295.822
40.62000 284.588
40.64000 264.478
40.66000 256.557
40.68000 238.857
40.70000 220.354
40.72000 204.069
40.74000 190.540
40.76000 183.919
40.78000 179.610
40.80000 171.105
40.82000 150.992
40.84000 140.490
40.86000 137.871
40.88000 132.876
40.90000 126.288
40.92000 119.935
40.94000 109.369
40.96000 108.852
40.98000 98.717
41.00000 89.524
41.02000 87.665
41.04000 84.549
41.06000 73.875
41.08000 65.626
41.10000 70.535
41.12000 72.317
41.14000 67.910
41.16000 67.326
41.18000 61.546
41.20000 58.261
41.22000 56.683
41.24000 50.794
41.26000 45.023
41.28000 46.518
41.30000 45.293
41.32000 37.929
41.34000 34.082
41.36000 32.805
41.38000 30.226
41.40000 31.684
41.42000 31.740
41.44000 23.640
41.46000 24.579
41.48000 26.642
41.50000 22.256
41.52000 23.153
41.54000 20.704
41.56000 19.404
41.58000 21.654
41.60000 23.842
41.62000 19.485
41.64000 18.243
41.66000 17.216
41.68000 14.677
41.70000 12.847
41.72000 12.148
41.74000 14.310
41.76000 13.002
41.78000 9.003
41.80000 9.545
41.82000 13.516
41.84000 13.604
41.86000 13.124
41.88000 9.597
41.90000 7.693
41.92000 7.273
41.94000 8.537
41.96000 9.548
41.98000 6.591
42.00000 5.950
42.02000 6.878
42.04000 7.441
42.06000 8.729
42.08000 7.785
42.10000 4.408
42.12000 6.847
42.14000 7.239
42.16000 7.897
42.18000 8.063
42.20000 3.045
42.22000 0.888
42.24000 -0.902
42.26000 -1.973
42.28000 2.553
42.30000 3.356
42.32000 4.859
42.34000 -0.266
42.36000 1.736
42.38000 4.484
42.40000 1.015
42.42000 1.575
42.44000 0.187
42.46000 -3.014
42.48000 -3.491
42.50000 0.530
42.52000 1.647
42.54000 1.267
42.56000 0.433
42.58000 2.790
42.60000 1.654
42.62000 0.593
42.64000 -1.283
42.66000 1.496
42.68000 2.070
42.70000 1.413
42.72000 -0.076
42.74000 1.631
42.76000 5.382
42.78000 3.318
42.80000 -3.450
42.82000 0.065
42.84000 3.050
42.86000 2.341
42.88000 5.548
42.90000 3.528
42.92000 1.586
42.94000 0.260
42.96000 -0.331
42.98000 2.748
43.00000 -1.208
43.02000 -0.746
43.04000 0.811
43.06000 0.249
43.08000 0.353
43.10000 -2.154
43.12000 0.544
43.14000 -0.929
43.16000 0.936
43.18000 2.237
43.20000 -3.390
43.22000 -1.769
43.24000 -3.193
43.26000 -1.305
43.28000 2.872
43.30000 3.262
43.32000 5.566
43.34000 -1.037
43.36000 -3.021
43.38000 -1.796
43.40000 -3.373
43.42000 -0.263
43.44000 -1.322
43.46000 -2.129
43.48000 2.532
43.50000 3.569
43.52000 3.598
43.54000 1.481
43.56000 -0.978
43.58000 0.682
43.60000 1.466
43.62000 1.116
43.64000 1.013
43.66000 6.228
43.68000 5.189
43.70000 5.845
43.72000 1.491
43.74000 2.531
43.76000 5.436
43.78000 7.159
43.80000 4.168
43.82000 3.797
43.84000 1.449
43.86000 0.861
43.88000 0.231
43.90000 -0.369
43.92000 -1.416
43.94000 -3.327
43.96000 0.178
43.98000 -1.416
44.00000 1.624
44.02000 1.929
44.04000 2.384
44.06000 -1.397
44.08000 -1.441
44.10000 -2.978
44.12000 -3.329
44.14000 0.455
44.16000 2.742
44.18000 2.416
44.20000 1.557
44.22000 0.847
44.24000 3.820
44.26000 0.765
44.28000 1.823
44.30000 0.703
44.32000 -2.070
44.34000 2.131
44.36000 5.173
44.38000 4.408
44.40000 1.637
44.42000 -1.974
44.44000 -0.710
44.46000 1.814
44.48000 4.296
44.50000 2.445
44.52000 4.743
44.54000 2.945
44.56000 -0.824
44.58000 1.441
44.60000 1.971
44.62000 2.562
44.64000 2.262
44.66000 1.517
44.68000 5.628
44.70000 2.643
44.72000 5.736
44.74000 6.289
44.76000 7.179
44.78000 5.902
44.80000 7.193
44.82000 3.168
44.84000 -1.058
44.86000 -0.011
44.88000 3.962
44.90000 6.906
44.92000 4.712
44.94000 3.353
44.96000 2.312
44.98000 5.694
45.00000 5.904
45.02000 5.486
45.04000 6.392
45.06000 7.071
45.08000 8.162
45.10000 9.275
45.12000 6.504
45.14000 8.445
45.16000 10.779
45.18000 11.753
45.20000 16.490
45.22000 23.354
45.24000 16.404
45.26000 13.936
45.28000 10.250
45.30000 15.988
45.32000 16.734
45.34000 14.609
45.36000 15.111
45.38000 18.485
45.40000 17.321
45.42000 23.619
45.44000 22.394
45.46000 24.115
45.48000 22.095
45.50000 21.037
45.52000 21.936
45.54000 28.411
45.56000 23.180
45.58000 22.185
45.60000 28.898
45.62000 29.558
45.64000 30.889
45.66000 32.724
45.68000 36.203
45.70000 32.939
45.72000 33.818
45.74000 38.028
45.76000 36.028
45.78000 40.343
45.80000 46.688
45.82000 40.789
45.84000 40.521
45.86000 44.076
45.88000 46.808
45.90000 49.204
45.92000 53.547
45.94000 52.938
45.96000 51.619
45.98000 58.758
46.00000 55.717
46.02000 58.296
46.04000 65.493
46.06000 66.635
46.08000 66.010
46.10000 67.366
46.12000 72.415
46.14000 71.035
46.16000 77.010
46.18000 83.533
46.20000 82.147
46.22000 88.294
46.24000 86.420
46.26000 90.697
46.28000 94.531
46.30000 92.646
46.32000 93.677
46.34000 93.908
46.36000 96.533
46.38000 101.397
46.40000 109.726
46.42000 112.184
46.44000 110.770
46.46000 105.479
46.48000 109.065
46.50000 115.454
46.52000 121.391
46.54000 120.896
46.56000 118.545
46.58000 120.137
46.60000 119.833
46.62000 128.468
46.64000 124.421
46.66000 126.733
46.68000 125.111
46.70000 124.683
46.72000 126.722
46.74000 129.774
46.76000 129.283
46.78000 126.878
46.80000 128.764
46.82000 125.191
46.84000 124.037
46.86000 124.337
46.88000 122.612
46.90000 118.659
46.92000 114.889
46.94000 111.628
46.96000 109.064
46.98000 109.422
47.00000 108.340
47.02000 106.553
47.04000 106.335
47.06000 99.598
47.08000 100.448
47.10000 94.857
47.12000 88.651
47.14000 90.373
47.16000 87.219
47.18000 80.832
47.20000 72.797
47.22000 68.458
47.24000 72.367
47.26000 74.458
47.28000 68.462
47.30000 67.367
47.32000 59.191
47.34000 54.509
47.36000 56.160
47.38000 50.094
47.40000 50.323
47.42000 52.120
47.44000 45.200
47.46000 38.781
47.48000 39.161
47.50000 36.465
47.52000 34.937
47.54000 40.947
47.56000 37.231
47.58000 33.938
47.60000 33.578
47.62000 30.439
47.64000 26.394
47.66000 27.213
47.68000 22.721
47.70000 20.967
47.72000 19.918
47.74000 20.294
47.76000 14.894
47.78000 13.474
47.80000 9.497
47.82000 12.129
47.84000 13.655
47.86000 12.892
47.88000 8.143
47.90000 8.946
47.92000 13.689
47.94000 11.220
47.96000 10.954
47.98000 9.451
48.00000 10.911
48.02000 8.708
48.04000 7.687
48.06000 6.239
48.08000 8.745
48.10000 9.707
48.12000 7.274
48.14000 4.911
48.16000 3.858
48.18000 4.406
48.20000 8.339
48.22000 2.923
48.24000 2.238
48.26000 5.598
48.28000 4.210
48.30000 5.617
48.32000 2.777
48.34000 4.403
48.36000 4.257
48.38000 4.251
48.40000 3.295
48.42000 1.295
48.44000 1.751
48.46000 3.981
48.48000 2.582
48.50000 -0.895
48.52000 0.512
48.54000 3.176
48.56000 1.542
48.58000 1.114
48.60000 2.718
48.62000 3.060
48.64000 1.977
48.66000 4.465
48.68000 1.894
48.70000 0.832
48.72000 1.535
48.74000 1.967
48.76000 4.786
48.78000 5.444
48.80000 4.321
48.82000 4.012
48.84000 2.961
48.86000 3.992
48.88000 2.361
48.90000 -2.047
48.92000 -2.803
48.94000 1.729
48.96000 1.889
48.98000 2.073
49.00000 1.497
49.02000 3.122
49.04000 4.929
49.06000 3.062
49.08000 0.264
49.10000 2.422
49.12000 4.482
49.14000 4.380
49.16000 3.526
49.18000 3.930
49.20000 1.906
49.22000 4.402
49.24000 5.281
49.26000 -0.093
49.28000 0.008
49.30000 0.874
49.32000 -2.782
49.34000 -1.769
49.36000 -0.311
49.38000 3.750
49.40000 5.268
49.42000 4.955
49.44000 3.461
49.46000 4.406
49.48000 1.681
49.50000 0.983
49.52000 7.391
49.54000 7.021
49.56000 2.892
49.58000 1.622
49.60000 0.195
49.62000 5.403
49.64000 7.097
49.66000 4.238
49.68000 2.507
49.70000 1.230
49.72000 5.072
49.74000 0.737
49.76000 -2.747
49.78000 0.654
49.80000 1.062
49.82000 5.552
49.84000 7.754
49.86000 6.587
49.88000 5.860
49.90000 8.697
49.92000 7.033
49.94000 2.239
49.96000 -0.585
49.98000 0.995
50.00000 4.418
50.02000 6.278
50.04000 5.316
50.06000 5.432
50.08000 7.023
50.10000 2.649
50.12000 4.337
50.14000 5.369
50.16000 1.018
50.18000 0.109
50.20000 4.355
50.22000 2.171
50.24000 2.037
50.26000 4.221
50.28000 4.091
50.30000 1.509
50.32000 -2.609
50.34000 1.645
50.36000 3.324
50.38000 -0.463
50.40000 -1.548
50.42000 2.301
50.44000 -2.696
50.46000 2.023
50.48000 8.679
50.50000 9.406
50.52000 7.692
50.54000 7.001
50.56000 2.414
50.58000 1.888
50.60000 2.909
50.62000 -0.204
50.64000 1.312
50.66000 0.829
50.68000 -2.634
50.70000 -2.288
50.72000 2.663
50.74000 2.913
50.76000 0.385
50.78000 1.083
50.80000 1.032
50.82000 0.585
50.84000 2.964
50.86000 5.816
50.88000 3.022
50.90000 2.203
50.92000 0.517
50.94000 5.093
50.96000 0.542
50.98000 2.271
51.00000 4.925
51.02000 8.572
51.04000 6.972
51.06000 6.689
51.08000 8.134
51.10000 4.906
51.12000 6.418
51.14000 7.633
51.16000 4.913
51.18000 5.915
51.20000 4.989
51.22000 7.351
51.24000 6.739
51.26000 6.169
51.28000 6.310
51.30000 5.344
51.32000 1.685
51.34000 4.542
51.36000 6.557
51.38000 4.689
51.40000 4.278
51.42000 -2.640
51.44000 -0.694
51.46000 3.245
51.48000 2.864
51.50000 5.333
51.52000 9.266
51.54000 8.994
51.56000 6.733
51.58000 -0.573
51.60000 4.617
51.62000 5.608
51.64000 4.477
51.66000 6.460
51.68000 5.964
51.70000 10.000
51.72000 8.304
51.74000 0.855
51.76000 -1.966
51.78000 -0.027
51.80000 -0.881
51.82000 1.927
51.84000 0.037
51.86000 4.786
51.88000 3.992
51.90000 -0.098
51.92000 4.028
51.94000 6.996
51.96000 4.384
51.98000 3.538
52.00000 4.546
52.02000 1.108
52.04000 7.185
52.06000 9.654
52.08000 3.598
52.10000 3.545
52.12000 5.767
52.14000 7.599
52.16000 4.836
52.18000 4.757
52.20000 4.625
52.22000 4.208
52.24000 5.464
52.26000 0.123
52.28000 -2.600
52.30000 -0.141
52.32000 2.195
52.34000 4.405
52.36000 7.735
52.38000 11.199
52.40000 8.586
52.42000 7.407
52.44000 4.609
52.46000 4.123
52.48000 2.008
52.50000 1.686
52.52000 0.966
52.54000 6.717
52.56000 4.480
52.58000 -0.170
52.60000 -1.573
52.62000 1.886
52.64000 -0.869
52.66000 -1.214
52.68000 0.269
52.70000 5.038
52.72000 8.650
52.74000 10.902
52.76000 8.066
52.78000 5.008
52.80000 4.891
52.82000 5.548
52.84000 3.439
52.86000 2.500
52.88000 1.955
52.90000 0.754
52.92000 4.174
52.94000 6.938
52.96000 3.686
52.98000 3.426
53.00000 3.703
53.02000 3.076
53.04000 2.257
53.06000 1.389
53.08000 -0.995
53.10000 0.602
53.12000 0.094
53.14000 1.580
53.16000 3.044
53.18000 4.321
53.20000 3.580
53.22000 2.231
53.24000 -0.058
53.26000 -0.320
53.28000 1.994
53.30000 0.129
53.32000 0.213
53.34000 -0.850
53.36000 -0.926
53.38000 0.734
53.40000 2.782
53.42000 4.676
53.44000 3.770
53.46000 3.532
53.48000 0.713
53.50000 -0.291
53.52000 2.754
53.54000 0.298
53.56000 1.020
53.58000 -0.454
53.60000 1.849
53.62000 3.849
53.64000 -0.963
53.66000 -1.420
53.68000 0.348
53.70000 5.406
53.72000 3.444
53.74000 3.399
53.76000 7.488
53.78000 5.800
53.80000 4.867
53.82000 2.450
53.84000 1.589
53.86000 7.133
53.88000 6.732
53.90000 5.120
53.92000 4.372
53.94000 4.816
53.96000 5.235
53.98000 3.563
54.00000 0.037
54.02000 3.954
54.04000 5.832
54.06000 3.337
54.08000 7.593
54.10000 6.146
54.12000 3.669
54.14000 4.168
54.16000 3.346
54.18000 0.850
54.20000 2.466
54.22000 1.802
54.24000 -2.529
54.26000 1.468
54.28000 3.354
54.30000 4.801
54.32000 4.678
54.34000 0.944
54.36000 1.294
54.38000 4.404
54.40000 3.454
54.42000 7.305
54.44000 5.237
54.46000 4.602
54.48000 4.047
54.50000 1.853
54.52000 2.717
54.54000 4.042
54.56000 5.283
54.58000 7.072
54.60000 6.458
54.62000 1.754
54.64000 0.125
54.66000 0.228
54.68000 -1.846
54.70000 1.344
54.72000 -1.808
54.74000 -1.423
54.76000 2.200
54.78000 3.093
54.80000 4.892
54.82000 0.197
54.84000 -0.005
54.86000 -0.357
54.88000 -0.021
54.90000 2.334
54.92000 3.725
54.94000 6.519
54.96000 2.552
54.98000 5.003
55.00000 1.700
55.02000 -0.542
55.04000 -0.660
55.06000 -0.815
55.08000 3.685
55.10000 7.243
55.12000 5.014
55.14000 3.338
55.16000 0.548
55.18000 3.822
55.20000 5.406
55.22000 3.022
55.24000 3.426
55.26000 -0.001
55.28000 1.838
55.30000 1.611
55.32000 8.471
55.34000 4.596
55.36000 -0.769
55.38000 1.404
55.40000 1.132
55.42000 -1.314
55.44000 -0.807
55.46000 3.747
55.48000 2.244
55.50000 -0.085
55.52000 -2.535
55.54000 -1.368
55.56000 0.386
55.58000 2.810
55.60000 6.836
55.62000 6.642
55.64000 4.120
55.66000 3.087
55.68000 0.976
55.70000 -2.527
55.72000 -0.319
55.74000 3.020
55.76000 4.697
55.78000 6.808
55.80000 5.455
55.82000 7.773
55.84000 7.625
55.86000 6.864
55.88000 5.358
55.90000 5.749
55.92000 5.820
55.94000 0.115
55.96000 -1.153
55.98000 2.345
56.00000 2.046
56.02000 3.088
56.04000 0.407
56.06000 1.954
56.08000 1.597
56.10000 -0.595
56.12000 1.475
56.14000 3.222
56.16000 -0.083
56.18000 0.306
56.20000 3.251
56.22000 3.274
56.24000 6.056
56.26000 1.720
56.28000 2.423
56.30000 8.596
56.32000 6.522
56.34000 3.088
56.36000 3.171
56.38000 2.860
56.40000 3.007
56.42000 2.949
56.44000 6.319
56.46000 4.552
56.48000 3.818
56.50000 4.144
56.52000 4.611
56.54000 0.213
56.56000 -1.539
56.58000 -1.968
56.60000 -1.199
56.62000 0.621
56.64000 1.175
56.66000 2.833
56.68000 2.993
56.70000 2.073
56.72000 1.599
56.74000 -2.489
56.76000 -1.591
56.78000 5.325
56.80000 8.548
56.82000 3.971
56.84000 0.887
56.86000 1.271
56.88000 1.107
56.90000 1.744
56.92000 3.222
56.94000 2.273
56.96000 2.021
56.98000 2.434
57.00000 2.193
57.02000 2.860
57.04000 4.060
57.06000 3.068
57.08000 2.746
57.10000 1.267
57.12000 -1.313
57.14000 2.316
57.16000 4.053
57.18000 -1.406
57.20000 0.030
57.22000 5.221
57.24000 4.796
57.26000 3.614
57.28000 -0.431
57.30000 -1.589
57.32000 0.857
57.34000 2.547
57.36000 -0.716
57.38000 -2.246
57.40000 2.461
57.42000 6.311
57.44000 -0.052
57.46000 3.362
57.48000 4.207
57.50000 1.671
57.52000 -1.268
57.54000 -0.920
57.56000 2.914
57.58000 4.143
57.60000 5.177
57.62000 7.951
57.64000 2.664
57.66000 -1.848
57.68000 0.999
57.70000 4.204
57.72000 4.766
57.74000 1.121
57.76000 -0.023
57.78000 2.812
57.80000 1.507
57.82000 3.673
57.84000 1.795
57.86000 1.183
57.88000 3.245
57.90000 -1.321
57.92000 0.300
57.94000 3.454
57.96000 4.440
57.98000 -0.917
58.00000 -2.481
58.02000 1.057
58.04000 5.750
58.06000 4.728
58.08000 2.662
58.10000 0.205
58.12000 0.923
58.14000 2.368
58.16000 4.065
58.18000 5.364
58.20000 4.412
58.22000 2.211
58.24000 0.290
58.26000 1.716
58.28000 -0.345
58.30000 0.375
58.32000 0.353
58.34000 0.941
58.36000 0.186
58.38000 -2.468
58.40000 -0.686
58.42000 1.720
58.44000 0.663
58.46000 0.115
58.48000 2.538
58.50000 4.449
58.52000 1.827
58.54000 -1.275
58.56000 -1.877
58.58000 -0.844
58.60000 1.153
58.62000 3.457
58.64000 4.010
58.66000 0.754
58.68000 -0.830
58.70000 3.185
58.72000 1.660
58.74000 -2.191
58.76000 -1.462
58.78000 -0.221
58.80000 -2.153
58.82000 -1.518
58.84000 -2.107
58.86000 -1.735
58.88000 -0.809
58.90000 -0.897
58.92000 1.627
58.94000 3.921
58.96000 1.892
58.98000 0.188
59.00000 -1.104
59.02000 -1.537
59.04000 0.440
59.06000 -1.930
59.08000 -2.120
59.10000 -2.402
59.12000 1.113
59.14000 2.313
59.16000 -0.223
59.18000 -1.431
59.20000 1.579
59.22000 1.506
59.24000 -0.409
59.26000 -0.052
59.28000 0.434
59.30000 2.445
59.32000 2.399
59.34000 0.331
59.36000 0.150
59.38000 0.605
59.40000 -0.627
59.42000 3.040
59.44000 5.367
59.46000 1.545
59.48000 -0.126
59.50000 -1.878
59.52000 -2.445
59.54000 2.364
59.56000 1.409
59.58000 1.000
59.60000 0.954
59.62000 3.715
59.64000 -0.761
59.66000 -2.302
59.68000 -1.023
59.70000 -1.892
59.72000 5.186
59.74000 8.783
59.76000 3.014
59.78000 3.406
59.80000 4.754
59.82000 3.566
59.84000 5.957
59.86000 3.337
59.88000 2.725
59.90000 5.206
59.92000 1.659
59.94000 -2.412
59.96000 -1.219
59.98000 1.090
60.00000 1.485
60.02000 2.828
60.04000 1.118
60.06000 1.518
60.08000 2.057
60.10000 3.011
60.12000 3.370
60.14000 0.804
60.16000 -0.786
60.18000 0.970
60.20000 -0.120
60.22000 -2.405
60.24000 -1.105
60.26000 3.401
60.28000 3.760
60.30000 6.097
60.32000 7.994
60.34000 7.428
60.36000 3.427
60.38000 -2.403
60.40000 -1.371
60.42000 2.029
60.44000 0.501
60.46000 1.709
60.48000 0.290
60.50000 0.672
60.52000 -0.602
60.54000 -0.731
60.56000 -0.879
60.58000 -1.642
60.60000 2.531
60.62000 2.504
60.64000 -0.635
60.66000 -1.828
60.68000 2.827
60.70000 5.403
60.72000 2.830
60.74000 1.483
60.76000 0.467
60.78000 0.931
60.80000 0.800
60.82000 2.121
60.84000 0.457
60.86000 0.315
60.88000 1.662
60.90000 -0.942
60.92000 -1.685
60.94000 -0.969
60.96000 -2.226
60.98000 1.880
61.00000 1.946
61.02000 -0.827
61.04000 0.693
61.06000 0.745
61.08000 -0.530
61.10000 1.550
61.12000 2.441
61.14000 -0.698
61.16000 -2.380
61.18000 2.034
61.20000 2.222
61.22000 2.117
61.24000 2.933
61.26000 3.820
61.28000 -0.441
61.30000 0.359
61.32000 3.398
61.34000 3.530
61.36000 2.860
61.38000 2.595
61.40000 2.745
61.42000 2.865
61.44000 0.040
61.46000 1.971
61.48000 1.211
61.50000 2.919
61.52000 4.165
61.54000 2.070
61.56000 5.339
61.58000 2.442
61.60000 -2.344
61.62000 -0.008
61.64000 1.489
61.66000 3.383
61.68000 2.823
61.70000 0.362
61.72000 0.131
61.74000 4.572
61.76000 3.007
61.78000 2.592
61.80000 0.594
61.82000 2.897
61.84000 4.270
61.86000 1.984
61.88000 -0.596
61.90000 2.415
61.92000 0.909
61.94000 4.280
61.96000 2.807
61.98000 2.645
62.00000 1.696
62.02000 2.249
62.04000 2.009
62.06000 4.720
62.08000 4.975
62.10000 6.817
62.12000 3.329
62.14000 0.457
62.16000 2.085
62.18000 3.105
62.20000 -1.875
62.22000 -1.902
62.24000 -2.317
62.26000 3.797
62.28000 4.817
62.30000 2.983
62.32000 3.325
62.34000 7.439
62.36000 5.760
62.38000 1.904
62.40000 3.609
62.42000 3.551
62.44000 3.290
62.46000 1.521
62.48000 2.236
62.50000 6.673
62.52000 3.294
62.54000 2.715
62.56000 3.572
62.58000 3.682
62.60000 3.683
62.62000 4.764
62.64000 7.540
62.66000 5.712
62.68000 4.830
62.70000 5.286
62.72000 3.659
62.74000 3.173
62.76000 4.253
62.78000 4.842
62.80000 5.013
62.82000 4.964
62.84000 2.831
62.86000 5.792
62.88000 8.995
62.90000 5.753
62.92000 4.115
62.94000 -0.590
62.96000 -1.508
62.98000 0.138
63.00000 4.311
63.02000 3.341
63.04000 3.561
63.06000 2.861
63.08000 4.712
63.10000 3.028
63.12000 -0.278
63.14000 2.293
63.16000 0.590
63.18000 -0.943
63.20000 0.330
63.22000 0.650
63.24000 3.806
63.26000 2.906
63.28000 2.377
63.30000 -1.567
63.32000 -0.776
63.34000 -0.299
63.36000 -1.439
63.38000 0.471
63.40000 1.288
63.42000 2.352
63.44000 2.404
63.46000 -0.190
63.48000 1.542
63.50000 5.121
63.52000 3.535
63.54000 3.914
63.56000 5.972
63.58000 2.064
63.60000 -2.322
63.62000 -0.715
63.64000 -0.339
63.66000 1.640
63.68000 -0.393
63.70000 -0.697
63.72000 6.015
63.74000 3.135
63.76000 7.608
63.78000 5.428
63.80000 2.229
63.82000 1.021
63.84000 3.331
63.86000 -0.173
63.88000 1.161
63.90000 1.650
63.92000 1.535
63.94000 0.416
63.96000 0.934
63.98000 1.176
64.00000 3.093
64.02000 2.529
64.04000 0.169
64.06000 2.733
64.08000 3.921
64.10000 1.057
64.12000 1.389
64.14000 0.662
64.16000 2.987
64.18000 2.489
64.20000 1.016
64.22000 -0.643
64.24000 -1.264
64.26000 0.758
64.28000 -0.138
64.30000 1.410
64.32000 -1.246
64.34000 -0.527
64.36000 -2.260
64.38000 1.345
64.40000 5.640
64.42000 1.193
64.44000 -1.346
64.46000 -2.372
64.48000 -0.545
64.50000 1.711
64.52000 0.913
64.54000 0.714
64.56000 -0.393
64.58000 -0.483
64.60000 0.237
64.62000 -0.514
64.64000 -2.378
64.66000 -1.445
64.68000 -0.748
64.70000 -0.758
64.72000 -0.209
64.74000 2.846
64.76000 2.593
64.78000 3.019
64.80000 -1.692
64.82000 1.109
64.84000 -1.155
64.86000 -0.972
64.88000 2.526
64.90000 0.257
64.92000 -0.680
64.94000 -1.156
64.96000 -1.164
64.98000 -1.972
65.00000 -0.864
65.02000 1.488
65.04000 3.341
65.06000 2.133
65.08000 0.059
65.10000 3.161
65.12000 2.858
65.14000 0.423
65.16000 -1.267
65.18000 2.313
65.20000 -0.267
65.22000 -0.784
65.24000 0.235
65.26000 -0.888
65.28000 0.049
65.30000 -0.027
65.32000 -0.401
65.34000 -1.703
65.36000 1.107
65.38000 1.747
65.40000 1.097
65.42000 1.092
65.44000 -2.401
65.46000 -0.702
65.48000 6.778
65.50000 3.836
65.52000 1.341
65.54000 1.108
65.56000 -1.017
65.58000 2.005
65.60000 1.156
65.62000 1.310
65.64000 -1.619
65.66000 -2.414
65.68000 0.730
65.70000 0.849
65.72000 0.693
65.74000 2.129
65.76000 4.792
65.78000 4.873
65.80000 -0.389
65.82000 -2.080
65.84000 0.285
65.86000 0.050
65.88000 2.276
65.90000 -1.096
65.92000 -0.388
65.94000 2.979
65.96000 -0.258
65.98000 0.730
66.00000 -1.713
66.02000 -1.634
66.04000 3.059
66.06000 1.998
66.08000 -1.115
66.10000 -0.496
66.12000 2.112
66.14000 3.661
66.16000 5.108
66.18000 2.140
66.20000 3.274
66.22000 3.145
66.24000 -1.435
66.26000 -2.459
66.28000 -1.948
66.30000 -0.800
66.32000 2.139
66.34000 1.616
66.36000 0.429
66.38000 -0.074
66.40000 -0.414
66.42000 0.915
66.44000 1.130
66.46000 1.753
66.48000 3.651
66.50000 1.840
66.52000 0.411
66.54000 -0.804
66.56000 3.602
66.58000 4.405
66.60000 1.639
66.62000 3.135
66.64000 4.011
66.66000 3.787
66.68000 3.839
66.70000 2.773
66.72000 1.378
66.74000 3.045
66.76000 4.565
66.78000 1.708
66.80000 1.032
66.82000 1.961
66.84000 3.023
66.86000 5.290
66.88000 5.765
66.90000 6.233
66.92000 8.471
66.94000 4.149
66.96000 6.293
66.98000 7.127
67.00000 8.835
67.02000 4.439
67.04000 6.195
67.06000 3.900
67.08000 6.423
67.10000 6.179
67.12000 2.971
67.14000 7.429
67.16000 9.606
67.18000 6.843
67.20000 9.851
67.22000 11.074
67.24000 10.340
67.26000 8.789
67.28000 10.076
67.30000 9.644
67.32000 8.775
67.34000 10.946
67.36000 10.276
67.38000 10.905
67.40000 10.584
67.42000 11.225
67.44000 15.497
67.46000 13.959
67.48000 10.317
67.50000 11.680
67.52000 14.376
67.54000 11.921
67.56000 16.231
67.58000 15.531
67.60000 18.455
67.62000 14.583
67.64000 16.121
67.66000 17.399
67.68000 13.632
67.70000 13.654
67.72000 17.457
67.74000 17.800
67.76000 16.251
67.78000 20.820
67.80000 21.464
67.82000 17.877
67.84000 20.798
67.86000 19.754
67.88000 17.562
67.90000 19.819
67.92000 21.108
67.94000 21.868
67.96000 20.832
67.98000 22.710
68.00000 24.062
68.02000 19.317
68.04000 22.452
68.06000 26.743
68.08000 23.552
68.10000 22.615
68.12000 24.121
68.14000 25.994
68.16000 22.216
68.18000 23.793
68.20000 24.032
68.22000 23.845
68.24000 28.051
68.26000 31.307
68.28000 31.203
68.30000 25.987
68.32000 22.423
68.34000 25.453
68.36000 26.419
68.38000 22.593
68.40000 26.442
68.42000 26.133
68.44000 25.061
68.46000 23.701
68.48000 25.489
68.50000 24.356
68.52000 22.332
68.54000 23.112
68.56000 22.946
68.58000 20.133
68.60000 18.148
68.62000 18.740
68.64000 15.237
68.66000 14.593
68.68000 12.789
68.70000 15.153
68.72000 15.192
68.74000 12.428
68.76000 10.334
68.78000 9.585
68.80000 10.935
68.82000 12.509
68.84000 8.908
68.86000 10.928
68.88000 11.342
68.90000 9.068
68.92000 9.621
68.94000 8.116
68.96000 6.806
68.98000 7.925
69.00000 9.602
69.02000 6.114
69.04000 6.798
69.06000 11.026
69.08000 6.953
69.10000 4.708
69.12000 5.838
69.14000 9.107
69.16000 2.603
69.18000 2.530
69.20000 6.557
69.22000 6.168
69.24000 1.698
69.26000 -0.460
69.28000 1.979
69.30000 2.043
69.32000 3.895
69.34000 3.970
69.36000 4.642
69.38000 6.592
69.40000 3.611
69.42000 4.267
69.44000 3.988
69.46000 1.083
69.48000 1.624
69.50000 1.886
69.52000 2.487
69.54000 2.096
69.56000 1.385
69.58000 1.205
69.60000 2.898
69.62000 7.679
69.64000 4.102
69.66000 -0.482
69.68000 -2.339
69.70000 5.432
69.72000 8.020
69.74000 5.357
69.76000 4.369
69.78000 2.357
69.80000 3.601
69.82000 2.720
69.84000 -0.938
69.86000 -1.511
69.88000 0.585
69.90000 2.732
69.92000 2.707
69.94000 1.034
69.96000 5.436
69.98000 3.436
70.00000 3.818
70.02000 1.611
70.04000 0.983
70.06000 0.451
70.08000 2.767
70.10000 5.364
70.12000 3.617
70.14000 1.557
70.16000 2.035
70.18000 2.422
70.20000 0.572
70.22000 -0.467
70.24000 -1.639
70.26000 2.299
70.28000 0.939
70.30000 -2.294
70.32000 0.493
70.34000 3.446
70.36000 3.681
70.38000 1.588
70.40000 4.676
70.42000 2.009
70.44000 -0.706
70.46000 -2.117
70.48000 -2.286
70.50000 1.912
70.52000 0.639
70.54000 -0.206
70.56000 1.345
70.58000 2.159
70.60000 1.367
70.62000 1.818
70.64000 0.220
70.66000 1.499
70.68000 0.703
70.70000 0.202
70.72000 0.002
70.74000 1.264
70.76000 3.140
70.78000 3.130
70.80000 3.063
70.82000 2.493
70.84000 3.925
70.86000 2.951
70.88000 -0.763
70.90000 1.181
70.92000 3.081
70.94000 6.248
70.96000 3.636
70.98000 3.979
71.00000 -0.022
71.02000 0.196
71.04000 -1.102
71.06000 0.033
71.08000 2.364
71.10000 4.221
71.12000 1.212
71.14000 0.432
71.16000 3.376
71.18000 6.350
71.20000 7.399
71.22000 5.641
71.24000 3.901
71.26000 2.992
71.28000 -0.713
71.30000 2.705
71.32000 4.164
71.34000 2.086
71.36000 -2.263
71.38000 0.270
71.40000 1.564
71.42000 1.654
71.44000 2.710
71.46000 -0.436
71.48000 2.197
71.50000 5.484
71.52000 5.268
71.54000 1.054
71.56000 -1.860
71.58000 1.965
71.60000 3.876
71.62000 2.093
71.64000 4.599
71.66000 3.119
71.68000 1.566
71.70000 4.428
71.72000 2.551
71.74000 0.783
71.76000 -2.233
71.78000 0.456
71.80000 0.175
71.82000 2.505
71.84000 3.717
71.86000 2.268
71.88000 0.399
71.90000 2.446
71.92000 5.381
71.94000 5.375
71.96000 2.254
71.98000 2.652
72.00000 2.892
72.02000 3.058
72.04000 0.317
72.06000 0.773
72.08000 3.692
72.10000 3.728
72.12000 6.943
72.14000 4.788
72.16000 3.512
72.18000 5.048
72.20000 3.512
72.22000 3.848
72.24000 5.280
72.26000 7.182
72.28000 3.868
72.30000 -0.510
72.32000 -2.190
72.34000 1.441
72.36000 1.356
72.38000 4.951
72.40000 2.811
72.42000 3.693
72.44000 4.764
72.46000 3.534
72.48000 1.564
72.50000 3.154
72.52000 5.246
72.54000 4.723
72.56000 4.240
72.58000 4.777
72.60000 2.920
72.62000 -0.480
72.64000 -0.104
72.66000 -0.631
72.68000 -1.417
72.70000 0.942
72.72000 4.447
72.74000 3.426
72.76000 3.803
72.78000 3.129
72.80000 0.899
72.82000 2.043
72.84000 2.088
72.86000 4.091
72.88000 5.527
72.90000 4.432
72.92000 4.193
72.94000 2.764
72.96000 1.830
72.98000 0.198
73.00000 -0.928
73.02000 -0.991
73.04000 -0.940
73.06000 4.705
73.08000 8.258
73.10000 4.711
73.12000 2.551
73.14000 3.122
73.16000 5.456
73.18000 4.393
73.20000 3.347
73.22000 2.262
73.24000 4.419
73.26000 4.178
73.28000 -0.982
73.30000 0.006
73.32000 3.065
73.34000 -0.530
73.36000 0.352
73.38000 -2.172
73.40000 0.332
73.42000 1.277
73.44000 3.704
73.46000 1.411
73.48000 0.627
73.50000 -0.111
73.52000 -1.754
73.54000 -0.433
73.56000 1.799
73.58000 1.637
73.60000 -0.332
73.62000 2.613
73.64000 4.224
73.66000 8.214
73.68000 7.149
73.70000 0.274
73.72000 -2.173
73.74000 3.081
73.76000 1.786
73.78000 3.450
73.80000 3.816
73.82000 4.489
73.84000 0.871
73.86000 -0.407
73.88000 3.114
73.90000 2.918
73.92000 3.393
73.94000 3.926
73.96000 1.536
73.98000 1.269
74.00000 2.510
74.02000 1.881
74.04000 2.173
74.06000 1.968
74.08000 2.507
74.10000 3.590
74.12000 -0.806
74.14000 1.238
74.16000 4.155
74.18000 3.069
74.20000 2.396
74.22000 3.981
74.24000 -0.893
74.26000 -2.166
74.28000 -1.000
74.30000 2.111
74.32000 7.106
74.34000 5.242
74.36000 0.690
74.38000 -0.419
74.40000 0.611
74.42000 5.747
74.44000 5.678
74.46000 4.749
74.48000 4.457
74.50000 3.510
74.52000 6.334
74.54000 8.338
74.56000 6.981
74.58000 4.777
74.60000 2.486
74.62000 2.468
74.64000 2.839
74.66000 4.354
74.68000 3.556
74.70000 6.832
74.72000 7.202
74.74000 4.135
74.76000 1.372
74.78000 -2.146
74.80000 2.162
74.82000 6.663
74.84000 3.179
74.86000 3.348
74.88000 3.682
74.90000 4.022
74.92000 3.383
74.94000 2.695
74.96000 2.328
74.98000 2.704
75.00000 6.032
75.02000 3.829
75.04000 4.699
75.06000 4.779
75.08000 3.015
75.10000 6.244
75.12000 5.638
75.14000 4.439
75.16000 4.628
75.18000 3.097
75.20000 3.259
75.22000 2.623
75.24000 4.012
75.26000 6.390
75.28000 3.809
75.30000 3.304
75.32000 3.478
75.34000 5.904
75.36000 4.601
75.38000 6.362
75.40000 6.718
75.42000 2.302
75.44000 2.621
75.46000 2.112
75.48000 -0.722
75.50000 3.668
75.52000 3.738
75.54000 4.125
75.56000 -1.290
75.58000 -0.608
75.60000 -0.721
75.62000 -0.642
75.64000 -1.575
75.66000 0.534
75.68000 -2.161
75.70000 2.624
75.72000 5.111
75.74000 8.063
75.76000 4.062
75.78000 1.561
75.80000 1.971
75.82000 2.938
75.84000 -0.192
75.86000 2.661
75.88000 3.321
75.90000 4.246
75.92000 6.715
75.94000 7.070
75.96000 4.160
75.98000 -0.467
76.00000 3.710
76.02000 4.201
76.04000 1.814
76.06000 2.198
76.08000 1.982
76.10000 8.737
76.12000 6.616
76.14000 8.204
76.16000 6.091
76.18000 4.727
76.20000 2.770
76.22000 2.225
76.24000 -0.918
76.26000 -1.793
76.28000 -2.205
76.30000 1.373
76.32000 5.969
76.34000 2.096
76.36000 -1.966
76.38000 -0.869
76.40000 -0.842
76.42000 4.065
76.44000 6.274
76.46000 6.187
76.48000 -0.572
76.50000 -0.147
76.52000 0.505
76.54000 -0.887
76.56000 0.208
76.58000 0.470
76.60000 -2.217
76.62000 -1.016
76.64000 1.030
76.66000 -1.040
76.68000 -1.696
76.70000 -0.764
76.72000 1.614
76.74000 2.318
76.76000 0.935
76.78000 -1.737
76.80000 0.525
76.82000 -0.577
76.84000 3.700
76.86000 2.569
76.88000 1.308
76.90000 0.480
76.92000 -0.601
76.94000 -0.115
76.96000 0.469
76.98000 0.329
77.00000 0.882
77.02000 -0.318
77.04000 -1.954
77.06000 -1.295
77.08000 -0.037
77.10000 0.817
77.12000 3.012
77.14000 4.644
77.16000 1.722
77.18000 -0.876
77.20000 0.954
77.22000 1.690
77.24000 2.362
77.26000 -0.217
77.28000 2.001
77.30000 0.220
77.32000 -1.927
77.34000 -1.861
77.36000 -1.641
77.38000 2.560
77.40000 -0.167
77.42000 -1.963
77.44000 -2.255
77.46000 -1.981
77.48000 5.755
77.50000 3.833
77.52000 3.941
77.54000 4.171
77.56000 -0.963
77.58000 -0.683
77.60000 0.403
77.62000 1.021
77.64000 3.359
77.66000 2.189
77.68000 2.147
77.70000 2.412
77.72000 2.184
77.74000 2.560
77.76000 1.044
77.78000 1.304
77.80000 1.234
77.82000 0.077
77.84000 1.164
77.86000 6.606
77.88000 5.229
77.90000 1.725
77.92000 2.710
77.94000 4.255
77.96000 1.673
77.98000 -0.429
78.00000 -0.733
78.02000 -0.168
78.04000 -0.606
78.06000 0.778
78.08000 1.380
78.10000 3.915
78.12000 3.952
78.14000 5.143
78.16000 4.696
78.18000 0.859
78.20000 4.157
78.22000 4.655
78.24000 0.953
78.26000 -0.129
78.28000 -1.788
78.30000 -1.132
78.32000 2.851
78.34000 4.419
78.36000 1.262
78.38000 2.165
78.40000 7.157
78.42000 9.171
78.44000 7.868
78.46000 3.500
78.48000 5.136
78.50000 3.733
78.52000 4.643
78.54000 2.860
78.56000 -0.988
78.58000 -2.214
78.60000 0.440
78.62000 4.592
78.64000 5.003
78.66000 5.654
78.68000 3.587
78.70000 3.014
78.72000 4.741
78.74000 4.955
78.76000 0.036
78.78000 -1.721
78.80000 1.802
78.82000 4.036
78.84000 5.597
78.86000 6.629
78.88000 7.050
78.90000 1.582
78.92000 1.578
78.94000 3.966
78.96000 5.597
78.98000 4.571
79.00000 4.174
79.02000 2.188
79.04000 5.090
79.06000 3.772
79.08000 3.657
79.10000 2.240
79.12000 4.875
79.14000 2.693
79.16000 5.518
79.18000 6.164
79.20000 4.046
79.22000 4.589
79.24000 5.380
79.26000 3.416
79.28000 2.055
79.30000 0.938
79.32000 2.065
79.34000 1.844
79.36000 -2.274
79.38000 3.725
79.40000 5.950
79.42000 4.539
79.44000 5.746
79.46000 3.901
79.48000 -2.289
79.50000 0.048
79.52000 3.340
79.54000 5.019
79.56000 6.111
79.58000 3.705
79.60000 2.521
79.62000 3.845
79.64000 3.157
79.66000 1.851
79.68000 0.256
79.70000 6.471
79.72000 5.551
79.74000 4.201
79.76000 -0.365
79.78000 3.733
79.80000 6.305
79.82000 2.614
79.84000 4.326
79.86000 4.910
79.88000 0.316
79.90000 -0.744
79.92000 0.425
79.94000 1.240
79.96000 2.900
79.98000 3.124
80.00000 0.678
80.02000 -0.333
80.04000 -1.980
80.06000 0.654
80.08000 3.920
80.10000 2.066
80.12000 1.580
80.14000 6.466
80.16000 1.094
80.18000 1.533
80.20000 3.963
80.22000 4.668
80.24000 5.544
80.26000 6.799
80.28000 3.299
80.30000 4.984
80.32000 6.459
80.34000 3.244
80.36000 -2.406
80.38000 4.391
80.40000 4.337
80.42000 4.266
80.44000 0.642
80.46000 0.521
80.48000 3.398
80.50000 4.213
80.52000 3.611
80.54000 4.832
80.56000 4.950
80.58000 3.340
80.60000 0.454
80.62000 -0.448
80.64000 4.249
80.66000 4.966
80.68000 7.714
80.70000 4.230
80.72000 6.523
80.74000 3.057
80.76000 3.488
80.78000 9.349
80.80000 8.927
80.82000 5.298
80.84000 3.497
80.86000 6.746
80.88000 3.844
80.90000 6.334
80.92000 5.008
80.94000 3.637
80.96000 8.776
80.98000 6.171
81.00000 4.533
81.02000 7.350
81.04000 8.461
81.06000 10.369
81.08000 15.020
81.10000 11.307
81.12000 7.347
81.14000 6.332
81.16000 10.020
81.18000 10.791
81.20000 10.607
81.22000 8.398
81.24000 11.311
81.26000 12.518
81.28000 10.491
81.30000 6.959
81.32000 7.407
81.34000 11.130
81.36000 12.126
81.38000 16.676
81.40000 17.286
81.42000 16.405
81.44000 15.295
81.46000 16.199
81.48000 19.290
81.50000 12.319
81.52000 15.193
81.54000 17.242
81.56000 22.866
81.58000 20.725
81.60000 17.068
81.62000 19.002
81.64000 15.450
81.66000 12.342
81.68000 19.726
81.70000 23.567
81.72000 21.229
81.74000 27.285
81.76000 23.620
81.78000 22.432
81.80000 22.928
81.82000 23.001
81.84000 23.054
81.86000 27.800
81.88000 25.237
81.90000 22.901
81.92000 21.402
81.94000 22.154
81.96000 22.914
81.98000 25.910
82.00000 23.748
82.02000 24.963
82.04000 29.642
82.06000 27.210
82.08000 31.617
82.10000 30.454
82.12000 28.584
82.14000 28.604
82.16000 29.628
82.18000 35.554
82.20000 33.252
82.22000 29.503
82.24000 31.506
82.26000 34.001
82.28000 31.512
82.30000 31.041
82.32000 31.909
82.34000 29.397
82.36000 27.599
82.38000 29.386
82.40000 30.211
82.42000 28.261
82.44000 30.146
82.46000 33.332
82.48000 30.248
82.50000 31.974
82.52000 32.575
82.54000 26.231
82.56000 23.949
82.58000 25.173
82.60000 27.905
82.62000 26.443
82.64000 26.367
82.66000 17.543
82.68000 19.681
82.70000 18.608
82.72000 22.767
82.74000 19.043
82.76000 19.457
82.78000 25.525
82.80000 17.764
82.82000 20.261
82.84000 20.460
82.86000 17.052
82.88000 18.096
82.90000 15.482
82.92000 15.884
82.94000 20.267
82.96000 15.443
82.98000 14.557
83.00000 14.516
83.02000 8.236
83.04000 12.482
83.06000 9.923
83.08000 7.123
83.10000 10.336
83.12000 10.642
83.14000 6.583
83.16000 8.371
83.18000 7.639
83.20000 9.259
83.22000 7.654
83.24000 6.389
83.26000 5.476
83.28000 6.662
83.30000 8.753
83.32000 8.092
83.34000 6.616
83.36000 0.966
83.38000 0.879
83.40000 7.082
83.42000 12.618
83.44000 6.075
83.46000 3.483
83.48000 7.262
83.50000 11.020
83.52000 3.835
83.54000 0.792
83.56000 2.886
83.58000 2.545
83.60000 3.930
83.62000 3.417
83.64000 0.656
83.66000 3.632
83.68000 10.189
83.70000 9.354
83.72000 7.442
83.74000 5.943
83.76000 4.614
83.78000 1.797
83.80000 1.870
83.82000 0.440
83.84000 -0.036
83.86000 2.053
83.88000 3.865
83.90000 0.349
83.92000 -0.318
83.94000 -0.331
83.96000 0.520
83.98000 4.312
84.00000 2.955
84.02000 3.956
84.04000 5.096
84.06000 3.481
84.08000 1.972
84.10000 4.937
84.12000 2.020
84.14000 -2.347
84.16000 0.579
84.18000 3.474
84.20000 2.591
84.22000 3.179
84.24000 6.468
84.26000 4.864
84.28000 1.931
84.30000 -0.195
84.32000 0.507
84.34000 2.352
84.36000 2.810
84.38000 5.235
84.40000 4.634
84.42000 2.475
84.44000 1.183
84.46000 -0.962
84.48000 1.779
84.50000 3.694
84.52000 3.903
84.54000 7.949
84.56000 3.525
84.58000 3.105
84.60000 1.190
84.62000 4.250
84.64000 5.216
84.66000 3.862
84.68000 3.199
84.70000 5.812
84.72000 3.047
84.74000 2.191
84.76000 4.169
84.78000 3.565
84.80000 -1.817
84.82000 0.787
84.84000 1.972
84.86000 2.420
84.88000 -2.334
84.90000 -0.282
84.92000 5.180
84.94000 4.924
84.96000 1.223
84.98000 -0.157
85.00000 1.354
85.02000 -0.356
85.04000 0.007
85.06000 5.342
85.08000 2.284
85.10000 1.095
85.12000 1.440
85.14000 6.261
85.16000 7.439
85.18000 4.673
85.20000 1.253
85.22000 2.448
85.24000 0.561
85.26000 -0.001
85.28000 4.919
85.30000 4.942
85.32000 9.683
85.34000 10.913
85.36000 4.319
85.38000 4.215
85.40000 2.472
85.42000 4.868
85.44000 4.260
85.46000 9.881
85.48000 10.410
85.50000 8.361
85.52000 9.476
85.54000 10.934
85.56000 6.542
85.58000 5.549
85.60000 10.819
85.62000 12.281
85.64000 11.639
85.66000 11.529
85.68000 14.179
85.70000 12.104
85.72000 10.917
85.74000 9.451
85.76000 12.911
85.78000 12.924
85.80000 16.704
85.82000 17.724
85.84000 17.347
85.86000 22.493
85.88000 18.593
85.90000 19.427
85.92000 19.828
85.94000 18.605
85.96000 16.731
85.98000 20.941
86.00000 22.350
86.02000 22.301
86.04000 20.796
86.06000 24.831
86.08000 23.630
86.10000 21.583
86.12000 22.674
86.14000 27.412
86.16000 30.910
86.18000 28.767
86.20000 19.711
86.22000 21.960
86.24000 25.169
86.26000 22.885
86.28000 23.881
86.30000 28.467
86.32000 29.342
86.34000 26.587
86.36000 24.745
86.38000 28.541
86.40000 31.211
86.42000 27.042
86.44000 24.339
86.46000 25.092
86.48000 29.995
86.50000 31.032
86.52000 26.458
86.54000 25.728
86.56000 24.331
86.58000 18.816
86.60000 21.853
86.62000 23.565
86.64000 21.317
86.66000 17.380
86.68000 21.316
86.70000 22.804
86.72000 23.889
86.74000 25.540
86.76000 22.072
86.78000 17.340
86.80000 21.935
86.82000 19.799
86.84000 15.933
86.86000 18.509
86.88000 18.832
86.90000 20.734
86.92000 18.542
86.94000 17.233
86.96000 16.111
86.98000 13.915
87.00000 13.974
87.02000 9.623
87.04000 10.756
87.06000 10.520
87.08000 13.085
87.10000 12.845
87.12000 12.114
87.14000 9.782
87.16000 10.599
87.18000 13.594
87.20000 10.095
87.22000 10.647
87.24000 11.260
87.26000 7.509
87.28000 5.910
87.30000 5.334
87.32000 7.476
87.34000 9.055
87.36000 10.419
87.38000 8.472
87.40000 5.086
87.42000 5.705
87.44000 6.374
87.46000 1.413
87.48000 3.491
87.50000 8.050
87.52000 6.131
87.54000 7.930
87.56000 9.633
87.58000 7.056
87.60000 2.341
87.62000 1.573
87.64000 -0.619
87.66000 3.090
87.68000 -2.217
87.70000 -1.461
87.72000 4.272
87.74000 4.242
87.76000 3.836
87.78000 7.005
87.80000 6.397
87.82000 4.421
87.84000 2.789
87.86000 -0.501
87.88000 0.367
87.90000 4.555
87.92000 4.046
87.94000 2.271
87.96000 2.014
87.98000 0.505
88.00000 4.957
88.02000 7.135
88.04000 0.002
88.06000 0.297
88.08000 3.733
88.10000 1.214
88.12000 2.330
88.14000 0.937
88.16000 1.136
88.18000 2.109
88.20000 -0.543
88.22000 3.025
88.24000 2.955
88.26000 0.779
88.28000 1.836
88.30000 -0.085
88.32000 0.096
88.34000 -2.124
88.36000 1.330
88.38000 4.538
88.40000 5.180
88.42000 1.341
88.44000 5.678
88.46000 5.452
88.48000 2.013
88.50000 1.672
88.52000 5.985
88.54000 3.334
88.56000 3.241
88.58000 1.135
88.60000 1.090
88.62000 3.596
88.64000 3.780
88.66000 2.525
88.68000 3.789
88.70000 5.265
88.72000 5.043
88.74000 4.220
88.76000 2.377
88.78000 -2.068
88.80000 -0.035
88.82000 2.886
88.84000 2.709
88.86000 0.791
88.88000 2.691
88.90000 3.100
88.92000 4.771
88.94000 4.530
88.96000 2.366
88.98000 2.680
89.00000 5.329
89.02000 5.423
89.04000 5.459
89.06000 2.876
89.08000 5.372
89.10000 5.475
89.12000 5.639
89.14000 4.592
89.16000 1.844
89.18000 4.913
89.20000 4.902
89.22000 0.984
89.24000 2.691
89.26000 5.982
89.28000 2.359
89.30000 3.972
89.32000 1.889
89.34000 0.774
89.36000 5.995
89.38000 4.783
89.40000 6.450
89.42000 5.205
89.44000 1.653
89.46000 4.010
89.48000 4.115
89.50000 0.280
89.52000 -2.055
89.54000 0.299
89.56000 4.517
89.58000 4.856
89.60000 1.931
89.62000 -0.104
89.64000 -0.037
89.66000 2.700
89.68000 9.154
89.70000 9.658
89.72000 6.683
89.74000 5.270
89.76000 2.483
89.78000 0.749
89.80000 -0.301
89.82000 -1.533
89.84000 4.612
89.86000 10.410
89.88000 2.967
89.90000 2.400
89.92000 3.147
89.94000 4.711
89.96000 3.428
89.98000 2.747
90.00000 2.083
90.02000 1.446
90.04000 2.996
90.06000 5.478
90.08000 7.822
90.10000 3.403
90.12000 0.238
90.14000 5.294
90.16000 10.176
90.18000 8.088
90.20000 9.192
90.22000 2.403
90.24000 -2.021
90.26000 3.617
90.28000 6.314
90.30000 8.547
90.32000 3.407
90.34000 2.481
90.36000 9.396
90.38000 7.646
90.40000 5.584
90.42000 3.363
90.44000 2.067
90.46000 7.191
90.48000 9.555
90.50000 4.259
90.52000 1.793
90.54000 2.710
90.56000 5.551
90.58000 7.864
90.60000 4.202
90.62000 2.274
90.64000 2.312
90.66000 1.683
90.68000 1.724
90.70000 4.123
90.72000 0.599
90.74000 6.539
90.76000 5.922
90.78000 5.275
90.80000 0.033
90.82000 1.034
90.84000 2.488
90.86000 2.505
90.88000 2.510
90.90000 3.406
90.92000 3.455
90.94000 0.575
90.96000 -2.050
90.98000 -0.055
91.00000 3.485
91.02000 2.840
91.04000 4.496
91.06000 6.221
91.08000 9.755
91.10000 6.287
91.12000 2.981
91.14000 2.063
91.16000 4.605
91.18000 4.379
91.20000 3.631
91.22000 -1.221
91.24000 2.293
91.26000 3.659
91.28000 2.177
91.30000 4.929
91.32000 3.039
91.34000 2.093
91.36000 3.070
91.38000 0.163
91.40000 2.942
91.42000 3.768
91.44000 -0.086
91.46000 -1.728
91.48000 0.692
91.50000 -0.267
91.52000 0.580
91.54000 -1.185
91.56000 1.434
91.58000 -0.925
91.60000 -1.285
91.62000 0.664
91.64000 -1.670
91.66000 1.542
91.68000 3.730
91.70000 1.130
91.72000 3.658
91.74000 2.551
91.76000 3.104
91.78000 0.711
91.80000 -0.203
91.82000 0.032
91.84000 -0.464
91.86000 3.076
91.88000 4.959
91.90000 3.713
91.92000 3.798
91.94000 2.752
91.96000 0.558
91.98000 -0.452
92.00000 -0.224
92.02000 -2.087
92.04000 -0.923
92.06000 7.113
92.08000 4.720
92.10000 0.369
92.12000 3.931
92.14000 7.501
92.16000 2.622
92.18000 4.466
92.20000 2.513
92.22000 -2.083
92.24000 -0.659
92.26000 0.462
92.28000 1.236
92.30000 0.307
92.32000 1.803
92.34000 1.139
92.36000 1.960
92.38000 5.271
92.40000 2.692
92.42000 -0.435
92.44000 0.125
92.46000 2.008
92.48000 2.984
92.50000 5.725
92.52000 3.223
92.54000 1.647
92.56000 3.040
92.58000 4.209
92.60000 0.582
92.62000 -2.068
92.64000 2.305
92.66000 3.149
92.68000 2.363
92.70000 4.111
92.72000 0.517
92.74000 -0.002
92.76000 0.505
92.78000 -0.785
92.80000 1.555
92.82000 6.359
92.84000 5.636
92.86000 1.665
92.88000 2.021
92.90000 1.913
92.92000 3.431
92.94000 4.565
92.96000 6.732
92.98000 3.024
93.00000 4.200
93.02000 4.523
93.04000 2.248
93.06000 1.778
93.08000 6.641
93.10000 3.029
93.12000 0.946
93.14000 -1.283
93.16000 1.970
93.18000 2.137
93.20000 2.976
93.22000 0.303
93.24000 1.485
93.26000 1.813
93.28000 4.305
93.30000 5.708
93.32000 3.736
93.34000 1.618
93.36000 3.605
93.38000 4.363
93.40000 8.520
93.42000 6.531
93.44000 1.235
93.46000 3.742
93.48000 0.866
93.50000 -2.042
93.52000 3.943
93.54000 8.559
93.56000 5.016
93.58000 2.939
93.60000 6.119
93.62000 3.347
93.64000 1.061
93.66000 0.384
93.68000 5.642
93.70000 7.087
93.72000 3.573
93.74000 -0.461
93.76000 4.286
93.78000 6.247
93.80000 7.851
93.82000 4.785
93.84000 1.412
93.86000 0.536
93.88000 -0.906
93.90000 0.470
93.92000 -0.079
93.94000 -2.075
93.96000 -0.225
93.98000 4.925
94.00000 5.860
94.02000 5.238
94.04000 6.060
94.06000 6.127
94.08000 3.739
94.10000 -0.577
94.12000 -1.276
94.14000 1.700
94.16000 1.506
94.18000 0.801
94.20000 1.138
94.22000 1.679
94.24000 6.996
94.26000 2.525
94.28000 -2.093
94.30000 5.130
94.32000 6.606
94.34000 2.646
94.36000 1.253
94.38000 1.939
94.40000 1.910
94.42000 2.050
94.44000 1.347
94.46000 1.754
94.48000 5.474
94.50000 7.943
94.52000 6.879
94.54000 3.005
94.56000 3.020
94.58000 3.799
94.60000 4.338
94.62000 6.678
94.64000 4.834
94.66000 0.572
94.68000 0.664
94.70000 -0.448
94.72000 3.820
94.74000 4.154
94.76000 3.638
94.78000 3.139
94.80000 5.533
94.82000 2.965
94.84000 1.888
94.86000 1.140
94.88000 2.370
94.90000 1.955
94.92000 2.862
94.94000 1.339
94.96000 5.716
94.98000 2.628
95.00000 4.062
95.02000 1.419
95.04000 1.960
95.06000 -0.544
95.08000 2.285
95.10000 3.501
95.12000 2.962
95.14000 0.645
95.16000 3.438
95.18000 4.250
95.20000 -1.576
95.22000 -0.253
95.24000 -2.089
95.26000 0.836
95.28000 -1.578
95.30000 2.790
95.32000 3.281
95.34000 3.973
95.36000 3.784
95.38000 2.757
95.40000 5.130
95.42000 1.570
95.44000 2.149
95.46000 4.167
95.48000 7.342
95.50000 8.730
95.52000 9.454
95.54000 3.798
95.56000 1.676
95.58000 3.689
95.60000 0.432
95.62000 -0.498
95.64000 2.055
95.66000 3.464
95.68000 5.233
95.70000 2.855
95.72000 2.675
95.74000 5.390
95.76000 5.723
95.78000 3.533
95.80000 5.011
95.82000 -2.062
95.84000 -1.946
95.86000 0.987
95.88000 3.600
95.90000 5.095
95.92000 1.588
95.94000 0.882
95.96000 6.131
95.98000 6.020
96.00000 11.024
96.02000 6.630
96.04000 3.249
96.06000 4.388
96.08000 4.707
96.10000 7.206
96.12000 9.098
96.14000 12.194
96.16000 7.743
96.18000 7.762
96.20000 4.671
96.22000 3.857
96.24000 3.644
96.26000 5.520
96.28000 2.081
96.30000 3.952
96.32000 5.715
96.34000 4.937
96.36000 0.912
96.38000 3.325
96.40000 6.030
96.42000 4.023
96.44000 4.719
96.46000 4.800
96.48000 4.375
96.50000 4.895
96.52000 0.071
96.54000 1.121
96.56000 3.615
96.58000 -1.911
96.60000 -2.028
96.62000 6.068
96.64000 4.874
96.66000 5.193
96.68000 7.043
96.70000 4.319
96.72000 6.356
96.74000 7.607
96.76000 4.794
96.78000 2.938
96.80000 5.301
96.82000 5.967
96.84000 4.500
96.86000 5.766
96.88000 6.081
96.90000 8.723
96.92000 9.185
96.94000 7.868
96.96000 0.033
96.98000 4.708
97.00000 6.595
97.02000 6.287
97.04000 7.668
97.06000 6.104
97.08000 2.090
97.10000 3.861
97.12000 6.640
97.14000 4.089
97.16000 5.041
97.18000 0.928
97.20000 4.071
97.22000 6.178
97.24000 4.530
97.26000 2.849
97.28000 -1.493
97.30000 -0.311
97.32000 1.893
97.34000 1.557
97.36000 3.652
97.38000 10.145
97.40000 6.332
97.42000 5.497
97.44000 -1.636
97.46000 -2.036
97.48000 1.165
97.50000 7.978
97.52000 7.271
97.54000 7.825
97.56000 13.998
97.58000 10.372
97.60000 6.395
97.62000 7.072
97.64000 6.521
97.66000 7.512
97.68000 4.710
97.70000 5.566
97.72000 4.528
97.74000 0.316
97.76000 4.231
97.78000 3.335
97.80000 3.537
97.82000 7.252
97.84000 5.715
97.86000 5.370
97.88000 5.808
97.90000 7.371
97.92000 6.503
97.94000 -1.586
97.96000 5.089
97.98000 0.866
98.00000 2.048
98.02000 3.893
98.04000 5.254
98.06000 4.125
98.08000 1.296
98.10000 5.667
98.12000 3.196
98.14000 2.333
98.16000 2.553
98.18000 2.811
98.20000 2.980
98.22000 6.746
98.24000 6.079
98.26000 6.149
98.28000 3.400
98.30000 4.685
98.32000 5.919
98.34000 2.795
98.36000 10.105
98.38000 9.664
98.40000 7.669
98.42000 6.668
98.44000 5.352
98.46000 3.497
98.48000 7.911
98.50000 7.422
98.52000 11.938
98.54000 8.901
98.56000 6.618
98.58000 1.210
98.60000 7.596
98.62000 3.810
98.64000 4.206
98.66000 11.649
98.68000 4.724
98.70000 5.515
98.72000 9.497
98.74000 3.676
98.76000 -0.876
98.78000 5.395
98.80000 12.416
98.82000 10.318
98.84000 3.240
98.86000 3.595
98.88000 3.459
98.90000 7.127
98.92000 7.412
98.94000 -0.785
98.96000 -1.855
98.98000 -0.075
99.00000 4.189
99.02000 5.309
99.04000 1.220
99.06000 1.293
99.08000 11.168
99.10000 11.452
99.12000 0.867
99.14000 9.953
99.16000 9.434
99.18000 13.307
99.20000 13.656
99.22000 10.893
99.24000 9.731
99.26000 13.710
99.28000 8.607
99.30000 10.663
99.32000 16.917
99.34000 10.491
99.36000 2.885
99.38000 -3.069
99.40000 6.765
99.42000 6.887
99.44000 1.162
99.46000 1.993
99.48000 9.837
99.50000 16.113
99.52000 14.317
99.54000 -2.161
99.56000 1.814
99.58000 8.034
99.60000 12.489
99.62000 11.855
99.64000 9.327
99.66000 5.692
99.68000 2.951
99.70000 1.567
99.72000 -1.598
99.74000 5.556
99.76000 8.352
99.78000 2.657
99.80000 6.681
99.82000 16.038
99.84000 13.330
99.86000 3.640
99.88000 -2.120
99.90000 4.621
99.92000 3.696
99.94000 -2.192
99.96000 1.454
99.98000 0.000
