'Id: "0011388" Comment: "Integrate frame 0011388_Au-Ir-Rh_Rh-rich_XRD-Mapping-183-0000.gfrmwith cursor Wedge Cursor #5" Operator: "B?rgel" Anode: "Cu" Wavelength: "1.5406" Scantype: "2Theta (TwoTheta)" TimePerStep: "1" X: "-22.5" Y: "4.5" Z: "5.95" 
10.00000 0.000
10.02000 -2.149
10.04000 -4.491
10.06000 8.141
10.08000 20.111
10.10000 11.255
10.12000 5.408
10.14000 -4.330
10.16000 0.853
10.18000 7.964
10.20000 13.448
10.22000 12.916
10.24000 14.999
10.26000 12.647
10.28000 4.090
10.30000 -3.190
10.32000 6.630
10.34000 11.066
10.36000 4.714
10.38000 4.460
10.40000 14.656
10.42000 14.301
10.44000 12.642
10.46000 9.971
10.48000 2.335
10.50000 18.472
10.52000 8.403
10.54000 23.032
10.56000 18.814
10.58000 15.831
10.60000 12.254
10.62000 16.832
10.64000 8.100
10.66000 8.686
10.68000 14.751
10.70000 17.164
10.72000 11.315
10.74000 9.294
10.76000 7.044
10.78000 11.125
10.80000 25.951
10.82000 9.495
10.84000 2.644
10.86000 12.454
10.88000 18.599
10.90000 19.538
10.92000 9.319
10.94000 12.219
10.96000 10.160
10.98000 10.448
11.00000 8.268
11.02000 8.168
11.04000 7.766
11.06000 13.976
11.08000 11.843
11.10000 16.179
11.12000 9.265
11.14000 8.580
11.16000 1.679
11.18000 11.878
11.20000 26.329
11.22000 14.777
11.24000 12.263
11.26000 12.396
11.28000 9.725
11.30000 22.532
11.32000 19.934
11.34000 12.551
11.36000 14.322
11.38000 14.597
11.40000 16.404
11.42000 15.475
11.44000 24.079
11.46000 25.499
11.48000 6.026
11.50000 3.849
11.52000 1.964
11.54000 5.949
11.56000 3.006
11.58000 0.995
11.60000 12.895
11.62000 18.694
11.64000 13.929
11.66000 7.160
11.68000 12.025
11.70000 20.578
11.72000 22.509
11.74000 22.524
11.76000 19.089
11.78000 15.714
11.80000 16.513
11.82000 8.579
11.84000 11.986
11.86000 10.577
11.88000 10.397
11.90000 5.733
11.92000 7.932
11.94000 15.571
11.96000 22.073
11.98000 1.160
12.00000 1.400
12.02000 5.723
12.04000 6.783
12.06000 5.682
12.08000 13.075
12.10000 26.379
12.12000 15.112
12.14000 10.889
12.16000 13.674
12.18000 9.569
12.20000 7.363
12.22000 7.451
12.24000 15.793
12.26000 12.311
12.28000 14.467
12.30000 12.987
12.32000 2.298
12.34000 0.475
12.36000 -3.580
12.38000 5.352
12.40000 13.596
12.42000 11.217
12.44000 13.991
12.46000 7.089
12.48000 15.998
12.50000 18.990
12.52000 21.279
12.54000 29.764
12.56000 16.788
12.58000 10.323
12.60000 9.995
12.62000 9.761
12.64000 30.338
12.66000 23.786
12.68000 15.539
12.70000 14.192
12.72000 8.383
12.74000 17.835
12.76000 20.641
12.78000 11.196
12.80000 10.177
12.82000 16.659
12.84000 24.818
12.86000 18.784
12.88000 3.161
12.90000 -4.431
12.92000 13.942
12.94000 14.413
12.96000 13.572
12.98000 22.647
13.00000 26.124
13.02000 29.181
13.04000 24.001
13.06000 29.387
13.08000 15.081
13.10000 13.377
13.12000 16.093
13.14000 9.521
13.16000 13.052
13.18000 17.689
13.20000 16.566
13.22000 13.324
13.24000 23.772
13.26000 19.239
13.28000 19.060
13.30000 14.546
13.32000 13.909
13.34000 9.791
13.36000 5.184
13.38000 0.781
13.40000 14.468
13.42000 14.869
13.44000 10.493
13.46000 3.535
13.48000 -0.028
13.50000 8.875
13.52000 7.676
13.54000 2.924
13.56000 4.514
13.58000 24.488
13.60000 18.588
13.62000 6.713
13.64000 5.537
13.66000 12.488
13.68000 19.375
13.70000 12.704
13.72000 5.082
13.74000 -0.633
13.76000 5.764
13.78000 2.577
13.80000 1.523
13.82000 4.229
13.84000 10.454
13.86000 12.681
13.88000 7.878
13.90000 13.999
13.92000 8.162
13.94000 -0.669
13.96000 2.574
13.98000 4.980
14.00000 4.742
14.02000 10.824
14.04000 16.609
14.06000 15.463
14.08000 10.358
14.10000 5.415
14.12000 8.103
14.14000 8.012
14.16000 11.897
14.18000 5.137
14.20000 4.338
14.22000 -1.920
14.24000 11.055
14.26000 9.554
14.28000 14.123
14.30000 17.480
14.32000 16.562
14.34000 7.684
14.36000 11.894
14.38000 20.704
14.40000 20.320
14.42000 14.633
14.44000 11.258
14.46000 11.363
14.48000 17.195
14.50000 8.466
14.52000 5.161
14.54000 10.163
14.56000 5.585
14.58000 5.574
14.60000 9.177
14.62000 15.082
14.64000 18.416
14.66000 4.882
14.68000 2.109
14.70000 6.354
14.72000 0.660
14.74000 1.213
14.76000 6.966
14.78000 16.435
14.80000 12.821
14.82000 7.171
14.84000 4.975
14.86000 10.848
14.88000 17.696
14.90000 10.703
14.92000 3.362
14.94000 -4.463
14.96000 -1.563
14.98000 3.413
15.00000 1.317
15.02000 -3.949
15.04000 0.986
15.06000 2.607
15.08000 4.939
15.10000 15.901
15.12000 11.972
15.14000 6.405
15.16000 6.577
15.18000 13.391
15.20000 8.292
15.22000 7.890
15.24000 6.685
15.26000 10.313
15.28000 8.384
15.30000 2.725
15.32000 8.775
15.34000 3.873
15.36000 10.568
15.38000 9.141
15.40000 6.749
15.42000 3.490
15.44000 8.950
15.46000 15.024
15.48000 10.708
15.50000 7.609
15.52000 7.005
15.54000 10.519
15.56000 8.975
15.58000 3.298
15.60000 -4.449
15.62000 -2.650
15.64000 4.353
15.66000 4.397
15.68000 7.896
15.70000 6.907
15.72000 3.509
15.74000 6.410
15.76000 4.316
15.78000 3.559
15.80000 4.684
15.82000 -0.084
15.84000 3.996
15.86000 7.909
15.88000 11.219
15.90000 12.894
15.92000 4.262
15.94000 6.480
15.96000 7.227
15.98000 6.659
16.00000 3.591
16.02000 -0.493
16.04000 -4.263
16.06000 0.094
16.08000 -2.404
16.10000 8.393
16.12000 4.495
16.14000 0.445
16.16000 6.239
16.18000 3.408
16.20000 6.920
16.22000 3.056
16.24000 -0.946
16.26000 5.897
16.28000 2.144
16.30000 6.191
16.32000 7.961
16.34000 5.639
16.36000 4.810
16.38000 5.077
16.40000 -4.414
16.42000 -1.365
16.44000 12.066
16.46000 5.866
16.48000 0.941
16.50000 7.076
16.52000 4.123
16.54000 0.571
16.56000 2.627
16.58000 -3.615
16.60000 4.847
16.62000 9.783
16.64000 8.469
16.66000 7.625
16.68000 9.423
16.70000 7.207
16.72000 3.168
16.74000 4.193
16.76000 3.819
16.78000 5.439
16.80000 5.623
16.82000 3.356
16.84000 5.215
16.86000 5.754
16.88000 2.172
16.90000 0.705
16.92000 3.299
16.94000 5.685
16.96000 8.847
16.98000 0.472
17.00000 4.557
17.02000 2.418
17.04000 -0.663
17.06000 -3.509
17.08000 -1.876
17.10000 0.670
17.12000 6.228
17.14000 9.357
17.16000 -4.256
17.18000 0.300
17.20000 8.272
17.22000 4.390
17.24000 9.267
17.26000 -0.163
17.28000 1.684
17.30000 10.291
17.32000 1.660
17.34000 1.860
17.36000 0.399
17.38000 3.868
17.40000 -1.153
17.42000 -1.400
17.44000 8.436
17.46000 4.233
17.48000 1.687
17.50000 4.589
17.52000 3.246
17.54000 14.391
17.56000 10.497
17.58000 3.106
17.60000 2.261
17.62000 11.710
17.64000 6.795
17.66000 0.107
17.68000 3.774
17.70000 5.479
17.72000 7.231
17.74000 6.391
17.76000 2.057
17.78000 2.644
17.80000 6.956
17.82000 4.319
17.84000 1.210
17.86000 1.699
17.88000 1.824
17.90000 6.651
17.92000 7.515
17.94000 6.345
17.96000 2.087
17.98000 4.802
18.00000 9.978
18.02000 1.488
18.04000 5.763
18.06000 7.234
18.08000 7.091
18.10000 10.197
18.12000 6.432
18.14000 17.553
18.16000 9.097
18.18000 2.246
18.20000 -0.812
18.22000 2.979
18.24000 5.772
18.26000 0.453
18.28000 3.833
18.30000 -4.323
18.32000 2.976
18.34000 1.734
18.36000 6.055
18.38000 12.191
18.40000 14.427
18.42000 13.657
18.44000 7.865
18.46000 8.750
18.48000 2.460
18.50000 3.191
18.52000 6.627
18.54000 1.868
18.56000 6.734
18.58000 11.043
18.60000 11.843
18.62000 10.093
18.64000 7.318
18.66000 -4.296
18.68000 2.955
18.70000 8.108
18.72000 14.040
18.74000 2.764
18.76000 2.904
18.78000 7.760
18.80000 8.137
18.82000 6.700
18.84000 6.762
18.86000 7.104
18.88000 9.085
18.90000 8.805
18.92000 8.677
18.94000 1.133
18.96000 9.401
18.98000 16.936
19.00000 9.671
19.02000 2.463
19.04000 5.099
19.06000 8.410
19.08000 8.507
19.10000 6.969
19.12000 8.795
19.14000 1.490
19.16000 2.086
19.18000 3.535
19.20000 4.795
19.22000 6.871
19.24000 8.285
19.26000 10.064
19.28000 8.163
19.30000 4.860
19.32000 0.657
19.34000 7.955
19.36000 6.565
19.38000 8.414
19.40000 8.732
19.42000 12.026
19.44000 5.089
19.46000 -4.230
19.48000 2.065
19.50000 4.085
19.52000 9.094
19.54000 10.209
19.56000 13.791
19.58000 8.676
19.60000 7.074
19.62000 10.284
19.64000 14.243
19.66000 -0.015
19.68000 0.450
19.70000 12.938
19.72000 13.382
19.74000 11.770
19.76000 3.342
19.78000 0.366
19.80000 13.437
19.82000 10.517
19.84000 -2.173
19.86000 0.481
19.88000 0.203
19.90000 0.710
19.92000 10.444
19.94000 11.729
19.96000 10.195
19.98000 3.342
20.00000 6.063
20.02000 5.901
20.04000 8.241
20.06000 9.663
20.08000 11.667
20.10000 1.721
20.12000 -0.414
20.14000 7.133
20.16000 13.945
20.18000 9.125
20.20000 0.416
20.22000 3.193
20.24000 11.046
20.26000 14.187
20.28000 12.314
20.30000 10.689
20.32000 4.704
20.34000 0.964
20.36000 2.000
20.38000 2.203
20.40000 2.074
20.42000 7.293
20.44000 8.813
20.46000 8.787
20.48000 3.750
20.50000 2.731
20.52000 4.870
20.54000 4.301
20.56000 5.915
20.58000 4.961
20.60000 4.248
20.62000 -2.120
20.64000 -4.189
20.66000 0.385
20.68000 -2.190
20.70000 5.457
20.72000 8.106
20.74000 7.994
20.76000 4.317
20.78000 4.787
20.80000 3.557
20.82000 4.543
20.84000 5.412
20.86000 4.248
20.88000 10.292
20.90000 13.932
20.92000 9.404
20.94000 8.520
20.96000 12.617
20.98000 5.133
21.00000 3.331
21.02000 6.191
21.04000 4.337
21.06000 0.799
21.08000 0.496
21.10000 2.421
21.12000 3.880
21.14000 0.841
21.16000 -0.049
21.18000 -0.679
21.20000 -0.360
21.22000 3.760
21.24000 1.547
21.26000 4.592
21.28000 14.944
21.30000 5.684
21.32000 2.169
21.34000 0.674
21.36000 7.896
21.38000 8.361
21.40000 9.540
21.42000 7.434
21.44000 2.906
21.46000 3.731
21.48000 3.889
21.50000 8.690
21.52000 7.528
21.54000 3.827
21.56000 -2.806
21.58000 -2.692
21.60000 -0.486
21.62000 4.040
21.64000 0.784
21.66000 -0.125
21.68000 -1.573
21.70000 0.768
21.72000 3.446
21.74000 2.907
21.76000 1.211
21.78000 -0.442
21.80000 -4.129
21.82000 4.022
21.84000 3.002
21.86000 2.442
21.88000 4.470
21.90000 5.018
21.92000 2.705
21.94000 2.716
21.96000 7.572
21.98000 13.314
22.00000 9.477
22.02000 8.957
22.04000 4.053
22.06000 -3.557
22.08000 3.219
22.10000 0.539
22.12000 5.046
22.14000 5.172
22.16000 10.081
22.18000 12.189
22.20000 8.285
22.22000 6.710
22.24000 3.644
22.26000 2.840
22.28000 4.652
22.30000 3.475
22.32000 -4.087
22.34000 10.727
22.36000 7.208
22.38000 5.024
22.40000 9.414
22.42000 7.011
22.44000 1.627
22.46000 3.128
22.48000 4.041
22.50000 4.371
22.52000 8.538
22.54000 11.001
22.56000 3.632
22.58000 1.068
22.60000 -0.850
22.62000 5.994
22.64000 0.177
22.66000 3.141
22.68000 8.365
22.70000 8.646
22.72000 4.944
22.74000 4.448
22.76000 3.828
22.78000 2.013
22.80000 2.509
22.82000 -1.365
22.84000 4.292
22.86000 3.597
22.88000 1.912
22.90000 5.972
22.92000 2.905
22.94000 5.077
22.96000 14.167
22.98000 8.052
23.00000 2.996
23.02000 1.507
23.04000 5.174
23.06000 1.838
23.08000 8.966
23.10000 12.971
23.12000 7.643
23.14000 1.305
23.16000 7.046
23.18000 8.902
23.20000 -2.874
23.22000 1.803
23.24000 7.275
23.26000 4.665
23.28000 8.174
23.30000 6.317
23.32000 0.466
23.34000 0.758
23.36000 1.279
23.38000 -0.623
23.40000 0.288
23.42000 1.193
23.44000 3.891
23.46000 4.753
23.48000 7.495
23.50000 7.244
23.52000 6.747
23.54000 6.155
23.56000 0.698
23.58000 3.651
23.60000 6.650
23.62000 4.539
23.64000 11.028
23.66000 13.339
23.68000 11.874
23.70000 8.806
23.72000 9.467
23.74000 11.386
23.76000 12.097
23.78000 4.917
23.80000 6.218
23.82000 5.188
23.84000 6.211
23.86000 5.110
23.88000 3.139
23.90000 9.408
23.92000 8.644
23.94000 4.621
23.96000 6.505
23.98000 10.995
24.00000 8.470
24.02000 9.225
24.04000 7.170
24.06000 10.758
24.08000 11.006
24.10000 5.904
24.12000 4.721
24.14000 5.841
24.16000 6.561
24.18000 10.298
24.20000 6.960
24.22000 5.523
24.24000 4.076
24.26000 -3.950
24.28000 -0.422
24.30000 0.173
24.32000 1.249
24.34000 2.751
24.36000 5.158
24.38000 6.794
24.40000 8.664
24.42000 10.122
24.44000 10.039
24.46000 12.788
24.48000 14.642
24.50000 9.824
24.52000 2.284
24.54000 -0.445
24.56000 2.324
24.58000 1.958
24.60000 3.685
24.62000 8.516
24.64000 9.635
24.66000 8.212
24.68000 4.201
24.70000 6.468
24.72000 2.439
24.74000 6.379
24.76000 11.484
24.78000 9.812
24.80000 5.020
24.82000 6.495
24.84000 5.394
24.86000 2.963
24.88000 1.773
24.90000 1.024
24.92000 3.968
24.94000 4.572
24.96000 4.833
24.98000 7.458
25.00000 6.908
25.02000 6.146
25.04000 3.554
25.06000 5.752
25.08000 9.199
25.10000 9.607
25.12000 0.059
25.14000 -0.958
25.16000 2.949
25.18000 1.553
25.20000 2.659
25.22000 4.755
25.24000 5.256
25.26000 3.037
25.28000 2.677
25.30000 5.114
25.32000 5.646
25.34000 5.005
25.36000 3.563
25.38000 4.200
25.40000 3.999
25.42000 6.647
25.44000 3.202
25.46000 2.761
25.48000 3.559
25.50000 0.965
25.52000 1.724
25.54000 2.632
25.56000 3.903
25.58000 -1.561
25.60000 -2.355
25.62000 -3.922
25.64000 -1.272
25.66000 1.486
25.68000 2.289
25.70000 -1.510
25.72000 1.512
25.74000 6.516
25.76000 5.945
25.78000 7.140
25.80000 13.388
25.82000 11.645
25.84000 11.367
25.86000 4.996
25.88000 2.205
25.90000 -0.642
25.92000 6.809
25.94000 5.483
25.96000 0.701
25.98000 1.351
26.00000 1.080
26.02000 -0.124
26.04000 2.583
26.06000 1.446
26.08000 -1.036
26.10000 3.862
26.12000 7.291
26.14000 4.191
26.16000 6.079
26.18000 7.248
26.20000 -1.198
26.22000 0.253
26.24000 4.573
26.26000 4.879
26.28000 6.142
26.30000 4.196
26.32000 5.360
26.34000 3.106
26.36000 0.501
26.38000 5.520
26.40000 6.986
26.42000 6.391
26.44000 1.153
26.46000 4.329
26.48000 4.831
26.50000 3.443
26.52000 4.974
26.54000 8.628
26.56000 3.326
26.58000 -0.163
26.60000 2.917
26.62000 5.531
26.64000 3.005
26.66000 4.132
26.68000 1.518
26.70000 5.695
26.72000 4.142
26.74000 8.498
26.76000 8.878
26.78000 4.388
26.80000 0.605
26.82000 3.770
26.84000 9.663
26.86000 13.407
26.88000 7.573
26.90000 8.377
26.92000 8.808
26.94000 3.646
26.96000 0.354
26.98000 -1.771
27.00000 1.140
27.02000 5.166
27.04000 4.560
27.06000 5.522
27.08000 6.354
27.10000 8.958
27.12000 5.530
27.14000 1.036
27.16000 2.939
27.18000 6.052
27.20000 9.496
27.22000 3.612
27.24000 3.852
27.26000 4.858
27.28000 7.984
27.30000 11.048
27.32000 9.679
27.34000 4.465
27.36000 6.918
27.38000 8.703
27.40000 9.284
27.42000 4.828
27.44000 8.966
27.46000 9.235
27.48000 8.333
27.50000 2.476
27.52000 0.472
27.54000 3.002
27.56000 4.901
27.58000 9.120
27.60000 8.350
27.62000 7.731
27.64000 8.616
27.66000 7.127
27.68000 0.979
27.70000 7.644
27.72000 10.622
27.74000 7.165
27.76000 9.592
27.78000 12.522
27.80000 11.033
27.82000 5.832
27.84000 -0.785
27.86000 -3.731
27.88000 1.500
27.90000 2.943
27.92000 7.437
27.94000 10.852
27.96000 7.864
27.98000 7.331
28.00000 3.504
28.02000 8.020
28.04000 13.348
28.06000 16.888
28.08000 11.514
28.10000 9.386
28.12000 3.880
28.14000 7.807
28.16000 7.211
28.18000 4.768
28.20000 8.233
28.22000 11.696
28.24000 6.534
28.26000 4.471
28.28000 8.469
28.30000 10.284
28.32000 13.567
28.34000 11.853
28.36000 7.174
28.38000 11.006
28.40000 9.807
28.42000 6.806
28.44000 13.463
28.46000 12.436
28.48000 8.535
28.50000 2.530
28.52000 4.056
28.54000 11.888
28.56000 6.272
28.58000 2.889
28.60000 0.844
28.62000 -0.067
28.64000 4.492
28.66000 8.370
28.68000 8.158
28.70000 8.584
28.72000 8.349
28.74000 8.660
28.76000 4.377
28.78000 6.558
28.80000 2.994
28.82000 3.551
28.84000 4.772
28.86000 6.843
28.88000 5.201
28.90000 -3.724
28.92000 0.206
28.94000 1.505
28.96000 -1.492
28.98000 2.559
29.00000 5.974
29.02000 7.982
29.04000 -1.655
29.06000 -2.756
29.08000 5.324
29.10000 5.921
29.12000 3.818
29.14000 4.534
29.16000 2.099
29.18000 -1.280
29.20000 -0.363
29.22000 6.493
29.24000 6.724
29.26000 5.563
29.28000 1.613
29.30000 -2.493
29.32000 -2.667
29.34000 2.126
29.36000 0.333
29.38000 7.254
29.40000 9.773
29.42000 5.193
29.44000 1.652
29.46000 6.624
29.48000 1.068
29.50000 0.724
29.52000 0.041
29.54000 -0.835
29.56000 0.385
29.58000 3.993
29.60000 3.664
29.62000 3.044
29.64000 0.575
29.66000 1.760
29.68000 2.658
29.70000 3.503
29.72000 1.869
29.74000 -2.046
29.76000 -1.645
29.78000 -1.276
29.80000 -0.584
29.82000 1.839
29.84000 3.877
29.86000 0.352
29.88000 1.113
29.90000 5.296
29.92000 5.227
29.94000 4.703
29.96000 1.841
29.98000 -1.923
30.00000 0.921
30.02000 3.248
30.04000 1.839
30.06000 2.544
30.08000 -1.074
30.10000 0.007
30.12000 -1.480
30.14000 3.500
30.16000 6.104
30.18000 6.521
30.20000 3.515
30.22000 1.230
30.24000 0.736
30.26000 2.297
30.28000 1.416
30.30000 1.557
30.32000 1.246
30.34000 -0.875
30.36000 2.696
30.38000 4.770
30.40000 7.373
30.42000 4.782
30.44000 5.509
30.46000 5.872
30.48000 9.041
30.50000 2.923
30.52000 2.044
30.54000 -0.438
30.56000 -0.235
30.58000 1.160
30.60000 3.984
30.62000 8.706
30.64000 7.592
30.66000 6.014
30.68000 1.190
30.70000 3.146
30.72000 7.683
30.74000 0.826
30.76000 2.444
30.78000 5.795
30.80000 -0.343
30.82000 -0.141
30.84000 -1.853
30.86000 1.632
30.88000 6.380
30.90000 2.377
30.92000 -3.653
30.94000 1.994
30.96000 3.292
30.98000 6.067
31.00000 4.710
31.02000 4.609
31.04000 6.986
31.06000 0.847
31.08000 -1.918
31.10000 -1.415
31.12000 0.344
31.14000 -0.671
31.16000 3.063
31.18000 2.324
31.20000 5.143
31.22000 7.705
31.24000 4.522
31.26000 1.400
31.28000 5.136
31.30000 4.590
31.32000 4.500
31.34000 7.159
31.36000 6.958
31.38000 10.477
31.40000 5.787
31.42000 2.477
31.44000 6.182
31.46000 1.040
31.48000 1.858
31.50000 6.058
31.52000 9.238
31.54000 6.137
31.56000 0.526
31.58000 0.610
31.60000 2.676
31.62000 1.814
31.64000 -3.602
31.66000 2.924
31.68000 9.394
31.70000 3.376
31.72000 1.252
31.74000 -2.004
31.76000 -1.426
31.78000 3.423
31.80000 3.029
31.82000 3.865
31.84000 4.371
31.86000 5.181
31.88000 5.648
31.90000 3.789
31.92000 2.005
31.94000 2.122
31.96000 3.145
31.98000 3.911
32.00000 1.441
32.02000 -1.108
32.04000 1.537
32.06000 -0.640
32.08000 1.513
32.10000 4.160
32.12000 1.918
32.14000 3.723
32.16000 -0.518
32.18000 2.781
32.20000 -0.223
32.22000 0.423
32.24000 3.289
32.26000 -1.835
32.28000 -0.237
32.30000 4.771
32.32000 4.401
32.34000 1.532
32.36000 4.926
32.38000 7.877
32.40000 4.859
32.42000 -2.094
32.44000 1.348
32.46000 4.257
32.48000 1.110
32.50000 1.961
32.52000 1.976
32.54000 -3.574
32.56000 -2.014
32.58000 2.221
32.60000 -0.487
32.62000 1.173
32.64000 -1.350
32.66000 -1.334
32.68000 -1.646
32.70000 0.062
32.72000 2.770
32.74000 2.732
32.76000 4.243
32.78000 0.821
32.80000 3.918
32.82000 1.651
32.84000 -2.603
32.86000 1.724
32.88000 3.612
32.90000 3.627
32.92000 2.771
32.94000 2.162
32.96000 -0.619
32.98000 0.350
33.00000 -0.262
33.02000 3.738
33.04000 3.440
33.06000 -3.593
33.08000 -2.436
33.10000 2.090
33.12000 2.482
33.14000 2.961
33.16000 1.989
33.18000 -0.179
33.20000 -2.214
33.22000 -1.499
33.24000 2.162
33.26000 8.475
33.28000 4.871
33.30000 -2.421
33.32000 -1.237
33.34000 2.546
33.36000 0.729
33.38000 -3.589
33.40000 0.706
33.42000 6.164
33.44000 7.001
33.46000 7.912
33.48000 2.707
33.50000 -2.904
33.52000 1.454
33.54000 2.651
33.56000 3.531
33.58000 3.878
33.60000 3.701
33.62000 -1.378
33.64000 -0.534
33.66000 4.676
33.68000 7.209
33.70000 6.749
33.72000 5.924
33.74000 2.854
33.76000 3.530
33.78000 5.914
33.80000 3.941
33.82000 -2.129
33.84000 -3.269
33.86000 0.339
33.88000 1.443
33.90000 0.501
33.92000 0.549
33.94000 -0.508
33.96000 -0.789
33.98000 2.676
34.00000 4.266
34.02000 3.703
34.04000 1.739
34.06000 1.026
34.08000 0.886
34.10000 1.805
34.12000 1.878
34.14000 4.560
34.16000 6.886
34.18000 5.885
34.20000 8.267
34.22000 5.390
34.24000 5.797
34.26000 3.350
34.28000 0.163
34.30000 2.292
34.32000 0.690
34.34000 -3.414
34.36000 1.038
34.38000 -0.177
34.40000 -1.912
34.42000 0.410
34.44000 2.443
34.46000 3.132
34.48000 3.598
34.50000 0.981
34.52000 0.250
34.54000 -0.626
34.56000 6.254
34.58000 6.331
34.60000 4.542
34.62000 1.875
34.64000 -3.545
34.66000 -0.090
34.68000 0.696
34.70000 -1.489
34.72000 5.432
34.74000 8.758
34.76000 3.381
34.78000 -0.757
34.80000 2.703
34.82000 3.142
34.84000 3.016
34.86000 -2.843
34.88000 -3.535
34.90000 -2.945
34.92000 6.119
34.94000 8.458
34.96000 7.267
34.98000 4.014
35.00000 4.910
35.02000 2.615
35.04000 1.170
35.06000 2.379
35.08000 3.489
35.10000 3.202
35.12000 4.064
35.14000 1.278
35.16000 4.216
35.18000 6.194
35.20000 4.892
35.22000 3.291
35.24000 1.215
35.26000 1.722
35.28000 1.633
35.30000 2.368
35.32000 5.286
35.34000 1.317
35.36000 -1.116
35.38000 -2.741
35.40000 -0.306
35.42000 2.797
35.44000 -0.896
35.46000 -2.291
35.48000 1.553
35.50000 0.631
35.52000 -2.175
35.54000 -3.522
35.56000 -1.082
35.58000 4.327
35.60000 3.808
35.62000 4.367
35.64000 2.544
35.66000 0.372
35.68000 -0.272
35.70000 -3.459
35.72000 -1.667
35.74000 1.839
35.76000 7.153
35.78000 4.617
35.80000 6.976
35.82000 6.108
35.84000 2.025
35.86000 1.163
35.88000 7.538
35.90000 4.514
35.92000 0.301
35.94000 -0.047
35.96000 1.819
35.98000 0.687
36.00000 3.413
36.02000 7.072
36.04000 5.494
36.06000 6.492
36.08000 4.268
36.10000 0.848
36.12000 1.459
36.14000 -2.109
36.16000 -2.826
36.18000 -0.828
36.20000 4.257
36.22000 7.263
36.24000 2.474
36.26000 3.225
36.28000 2.888
36.30000 3.640
36.32000 2.542
36.34000 4.552
36.36000 6.603
36.38000 4.015
36.40000 0.737
36.42000 -0.930
36.44000 0.289
36.46000 -0.970
36.48000 2.537
36.50000 8.223
36.52000 9.223
36.54000 8.876
36.56000 7.972
36.58000 7.881
36.60000 3.205
36.62000 -3.521
36.64000 2.769
36.66000 3.257
36.68000 3.630
36.70000 3.525
36.72000 5.167
36.74000 2.176
36.76000 3.986
36.78000 2.289
36.80000 3.557
36.82000 1.010
36.84000 -1.206
36.86000 1.920
36.88000 2.558
36.90000 3.157
36.92000 6.356
36.94000 4.711
36.96000 5.855
36.98000 7.434
37.00000 6.861
37.02000 -3.554
37.04000 3.080
37.06000 3.700
37.08000 6.612
37.10000 11.891
37.12000 7.566
37.14000 4.715
37.16000 7.060
37.18000 4.660
37.20000 1.298
37.22000 4.300
37.24000 8.276
37.26000 9.274
37.28000 7.439
37.30000 5.221
37.32000 7.275
37.34000 5.587
37.36000 4.501
37.38000 4.275
37.40000 0.578
37.42000 5.343
37.44000 0.514
37.46000 -3.596
37.48000 4.579
37.50000 9.698
37.52000 8.144
37.54000 7.032
37.56000 6.892
37.58000 3.637
37.60000 6.373
37.62000 3.426
37.64000 1.678
37.66000 4.343
37.68000 2.581
37.70000 5.303
37.72000 7.608
37.74000 3.897
37.76000 2.509
37.78000 6.029
37.80000 10.462
37.82000 7.293
37.84000 8.765
37.86000 9.265
37.88000 6.596
37.90000 5.846
37.92000 7.735
37.94000 12.362
37.96000 8.543
37.98000 7.962
38.00000 7.583
38.02000 9.731
38.04000 8.282
38.06000 5.445
38.08000 7.462
38.10000 14.234
38.12000 11.565
38.14000 6.947
38.16000 12.215
38.18000 12.850
38.20000 16.002
38.22000 17.359
38.24000 8.894
38.26000 8.263
38.28000 10.358
38.30000 12.132
38.32000 11.941
38.34000 16.848
38.36000 20.376
38.38000 17.646
38.40000 17.441
38.42000 14.216
38.44000 21.802
38.46000 21.027
38.48000 17.689
38.50000 22.180
38.52000 24.172
38.54000 21.195
38.56000 23.234
38.58000 27.440
38.60000 22.399
38.62000 22.140
38.64000 27.363
38.66000 26.686
38.68000 25.973
38.70000 24.709
38.72000 25.405
38.74000 29.138
38.76000 33.049
38.78000 31.600
38.80000 41.475
38.82000 44.325
38.84000 41.569
38.86000 37.619
38.88000 41.011
38.90000 43.326
38.92000 39.982
38.94000 41.039
38.96000 46.663
38.98000 53.996
39.00000 53.047
39.02000 50.312
39.04000 52.548
39.06000 56.390
39.08000 59.593
39.10000 59.917
39.12000 59.895
39.14000 60.690
39.16000 68.669
39.18000 73.301
39.20000 76.133
39.22000 74.530
39.24000 71.838
39.26000 79.976
39.28000 91.074
39.30000 97.191
39.32000 101.367
39.34000 102.706
39.36000 102.864
39.38000 106.838
39.40000 111.799
39.42000 118.925
39.44000 125.988
39.46000 133.064
39.48000 138.098
39.50000 140.982
39.52000 149.993
39.54000 162.111
39.56000 169.001
39.58000 173.045
39.60000 184.364
39.62000 187.949
39.64000 195.469
39.66000 208.307
39.68000 217.214
39.70000 228.668
39.72000 236.278
39.74000 251.920
39.76000 268.381
39.78000 282.756
39.80000 287.088
39.82000 302.207
39.84000 312.322
39.86000 327.022
39.88000 349.118
39.90000 361.182
39.92000 372.387
39.94000 387.943
39.96000 396.750
39.98000 417.434
40.00000 435.436
40.02000 447.213
40.04000 465.097
40.06000 478.282
40.08000 494.720
40.10000 505.219
40.12000 522.909
40.14000 530.135
40.16000 535.889
40.18000 542.060
40.20000 546.552
40.22000 552.074
40.24000 563.478
40.26000 578.240
40.28000 583.432
40.30000 581.195
40.32000 588.005
40.34000 578.552
40.36000 567.169
40.38000 568.037
40.40000 564.533
40.42000 573.990
40.44000 560.801
40.46000 541.176
40.48000 529.097
40.50000 502.400
40.52000 500.989
40.54000 486.036
40.56000 474.798
40.58000 462.821
40.60000 448.417
40.62000 428.534
40.64000 414.383
40.66000 396.689
40.68000 373.649
40.70000 367.915
40.72000 357.038
40.74000 342.581
40.76000 327.745
40.78000 310.812
40.80000 293.275
40.82000 276.661
40.84000 261.539
40.86000 249.171
40.88000 242.938
40.90000 230.894
40.92000 213.572
40.94000 206.673
40.96000 197.064
40.98000 183.627
41.00000 176.276
41.02000 166.342
41.04000 156.101
41.06000 148.603
41.08000 143.121
41.10000 131.529
41.12000 122.383
41.14000 117.113
41.16000 118.054
41.18000 111.481
41.20000 100.595
41.22000 97.067
41.24000 92.601
41.26000 86.479
41.28000 78.499
41.30000 70.866
41.32000 71.294
41.34000 71.441
41.36000 64.317
41.38000 66.382
41.40000 60.079
41.42000 57.393
41.44000 53.305
41.46000 50.023
41.48000 46.022
41.50000 48.621
41.52000 47.398
41.54000 42.795
41.56000 40.048
41.58000 35.773
41.60000 33.091
41.62000 32.996
41.64000 24.529
41.66000 22.548
41.68000 26.993
41.70000 25.711
41.72000 25.820
41.74000 26.071
41.76000 24.189
41.78000 27.669
41.80000 21.525
41.82000 15.083
41.84000 17.494
41.86000 11.715
41.88000 11.252
41.90000 12.975
41.92000 14.293
41.94000 13.895
41.96000 10.813
41.98000 8.787
42.00000 8.470
42.02000 12.164
42.04000 14.798
42.06000 11.876
42.08000 8.519
42.10000 9.099
42.12000 6.385
42.14000 -0.030
42.16000 1.429
42.18000 2.743
42.20000 7.141
42.22000 8.645
42.24000 9.434
42.26000 2.451
42.28000 3.071
42.30000 4.170
42.32000 -0.823
42.34000 -0.857
42.36000 -0.604
42.38000 2.483
42.40000 0.814
42.42000 1.189
42.44000 -0.177
42.46000 3.844
42.48000 2.985
42.50000 0.182
42.52000 0.073
42.54000 3.734
42.56000 0.730
42.58000 -3.619
42.60000 0.604
42.62000 2.901
42.64000 -0.098
42.66000 -2.367
42.68000 0.101
42.70000 0.474
42.72000 0.065
42.74000 3.032
42.76000 -2.800
42.78000 0.325
42.80000 -3.367
42.82000 -1.664
42.84000 1.317
42.86000 1.844
42.88000 -2.022
42.90000 -3.237
42.92000 -0.929
42.94000 1.139
42.96000 -0.983
42.98000 -2.273
43.00000 3.044
43.02000 0.343
43.04000 0.579
43.06000 1.400
43.08000 -0.736
43.10000 1.443
43.12000 -1.349
43.14000 -2.409
43.16000 0.531
43.18000 1.526
43.20000 1.626
43.22000 -1.605
43.24000 -2.599
43.26000 -2.210
43.28000 -3.533
43.30000 0.888
43.32000 1.279
43.34000 1.561
43.36000 -2.961
43.38000 -1.423
43.40000 -0.761
43.42000 0.579
43.44000 0.493
43.46000 3.102
43.48000 1.376
43.50000 1.226
43.52000 2.926
43.54000 2.348
43.56000 1.617
43.58000 2.521
43.60000 3.478
43.62000 3.462
43.64000 0.475
43.66000 -1.257
43.68000 -3.110
43.70000 -1.932
43.72000 -2.421
43.74000 2.303
43.76000 -1.771
43.78000 -3.469
43.80000 1.971
43.82000 6.468
43.84000 -0.728
43.86000 -1.151
43.88000 -2.728
43.90000 -0.611
43.92000 2.653
43.94000 7.799
43.96000 0.750
43.98000 0.895
44.00000 -0.199
44.02000 0.287
44.04000 -1.596
44.06000 -3.455
44.08000 1.537
44.10000 4.735
44.12000 2.445
44.14000 4.825
44.16000 4.078
44.18000 5.751
44.20000 5.665
44.22000 1.516
44.24000 -1.245
44.26000 -1.040
44.28000 -0.551
44.30000 0.205
44.32000 2.727
44.34000 3.665
44.36000 4.874
44.38000 1.202
44.40000 -0.304
44.42000 -0.431
44.44000 5.161
44.46000 6.497
44.48000 3.056
44.50000 -0.047
44.52000 4.559
44.54000 4.895
44.56000 3.319
44.58000 6.239
44.60000 2.321
44.62000 1.182
44.64000 1.439
44.66000 4.190
44.68000 8.693
44.70000 1.690
44.72000 -3.463
44.74000 -3.406
44.76000 4.589
44.78000 6.663
44.80000 8.194
44.82000 5.356
44.84000 1.652
44.86000 3.167
44.88000 8.717
44.90000 5.503
44.92000 9.988
44.94000 6.646
44.96000 4.241
44.98000 6.636
45.00000 9.202
45.02000 6.440
45.04000 -0.693
45.06000 1.232
45.08000 1.839
45.10000 4.860
45.12000 4.918
45.14000 7.810
45.16000 8.910
45.18000 9.560
45.20000 9.353
45.22000 5.441
45.24000 10.359
45.26000 4.152
45.28000 12.455
45.30000 11.044
45.32000 8.434
45.34000 15.575
45.36000 15.815
45.38000 16.287
45.40000 19.681
45.42000 18.072
45.44000 10.729
45.46000 14.221
45.48000 12.778
45.50000 13.882
45.52000 17.425
45.54000 20.116
45.56000 19.228
45.58000 17.345
45.60000 17.251
45.62000 17.210
45.64000 22.314
45.66000 23.287
45.68000 30.206
45.70000 25.020
45.72000 27.835
45.74000 27.219
45.76000 29.663
45.78000 28.792
45.80000 29.041
45.82000 32.086
45.84000 27.240
45.86000 29.264
45.88000 32.432
45.90000 37.947
45.92000 39.680
45.94000 38.445
45.96000 34.587
45.98000 42.844
46.00000 40.990
46.02000 40.429
46.04000 42.274
46.06000 44.087
46.08000 38.184
46.10000 42.137
46.12000 47.146
46.14000 47.270
46.16000 50.009
46.18000 56.951
46.20000 59.912
46.22000 59.864
46.24000 56.851
46.26000 55.159
46.28000 49.991
46.30000 55.285
46.32000 58.721
46.34000 59.565
46.36000 63.190
46.38000 65.033
46.40000 63.720
46.42000 60.694
46.44000 67.129
46.46000 68.958
46.48000 72.871
46.50000 75.700
46.52000 78.097
46.54000 78.350
46.56000 78.454
46.58000 73.406
46.60000 81.765
46.62000 83.732
46.64000 80.290
46.66000 77.078
46.68000 81.473
46.70000 85.607
46.72000 89.934
46.74000 86.648
46.76000 79.950
46.78000 84.309
46.80000 90.161
46.82000 92.891
46.84000 93.064
46.86000 91.559
46.88000 91.199
46.90000 89.493
46.92000 86.401
46.94000 86.992
46.96000 87.269
46.98000 89.072
47.00000 87.769
47.02000 84.101
47.04000 80.198
47.06000 86.284
47.08000 84.183
47.10000 86.156
47.12000 85.854
47.14000 87.914
47.16000 85.703
47.18000 73.811
47.20000 71.960
47.22000 74.136
47.24000 82.292
47.26000 78.889
47.28000 74.709
47.30000 72.724
47.32000 67.313
47.34000 64.206
47.36000 61.224
47.38000 64.236
47.40000 64.743
47.42000 59.204
47.44000 61.331
47.46000 59.628
47.48000 58.447
47.50000 50.672
47.52000 46.946
47.54000 51.422
47.56000 51.180
47.58000 52.885
47.60000 44.773
47.62000 44.664
47.64000 49.827
47.66000 43.807
47.68000 43.782
47.70000 39.694
47.72000 36.977
47.74000 39.853
47.76000 36.760
47.78000 32.677
47.80000 34.357
47.82000 34.483
47.84000 32.000
47.86000 29.836
47.88000 31.060
47.90000 29.095
47.92000 28.196
47.94000 26.358
47.96000 22.056
47.98000 20.064
48.00000 22.076
48.02000 20.081
48.04000 18.766
48.06000 21.169
48.08000 24.419
48.10000 19.400
48.12000 17.355
48.14000 9.884
48.16000 15.529
48.18000 13.726
48.20000 11.331
48.22000 12.632
48.24000 13.677
48.26000 16.421
48.28000 11.345
48.30000 9.860
48.32000 9.617
48.34000 13.328
48.36000 12.415
48.38000 7.013
48.40000 9.183
48.42000 4.842
48.44000 5.446
48.46000 5.886
48.48000 9.942
48.50000 11.327
48.52000 9.308
48.54000 8.325
48.56000 13.792
48.58000 15.883
48.60000 3.564
48.62000 3.177
48.64000 2.609
48.66000 3.998
48.68000 3.644
48.70000 3.697
48.72000 5.969
48.74000 9.685
48.76000 4.031
48.78000 -3.105
48.80000 -1.014
48.82000 4.838
48.84000 6.236
48.86000 5.332
48.88000 1.967
48.90000 2.779
48.92000 4.274
48.94000 1.922
48.96000 2.376
48.98000 2.293
49.00000 -1.032
49.02000 0.950
49.04000 3.717
49.06000 5.678
49.08000 5.618
49.10000 8.516
49.12000 9.232
49.14000 6.143
49.16000 0.120
49.18000 -1.849
49.20000 -2.730
49.22000 -1.208
49.24000 0.263
49.26000 8.903
49.28000 5.726
49.30000 -1.081
49.32000 1.514
49.34000 9.851
49.36000 8.319
49.38000 6.496
49.40000 5.135
49.42000 4.358
49.44000 2.710
49.46000 0.870
49.48000 2.117
49.50000 1.764
49.52000 3.644
49.54000 4.898
49.56000 1.581
49.58000 5.176
49.60000 2.160
49.62000 2.020
49.64000 -3.035
49.66000 8.721
49.68000 6.694
49.70000 0.773
49.72000 5.309
49.74000 3.043
49.76000 3.958
49.78000 4.512
49.80000 4.991
49.82000 6.242
49.84000 6.747
49.86000 3.196
49.88000 3.979
49.90000 6.375
49.92000 0.969
49.94000 3.098
49.96000 6.902
49.98000 4.809
50.00000 2.502
50.02000 3.568
50.04000 4.555
50.06000 0.883
50.08000 7.363
50.10000 1.900
50.12000 4.087
50.14000 6.362
50.16000 7.259
50.18000 4.185
50.20000 3.338
50.22000 2.552
50.24000 5.858
50.26000 1.627
50.28000 -0.698
50.30000 6.089
50.32000 3.128
50.34000 -0.908
50.36000 0.606
50.38000 3.708
50.40000 3.533
50.42000 1.204
50.44000 0.053
50.46000 2.305
50.48000 0.591
50.50000 -1.699
50.52000 1.125
50.54000 0.906
50.56000 1.294
50.58000 2.783
50.60000 5.712
50.62000 4.266
50.64000 0.873
50.66000 2.992
50.68000 4.516
50.70000 2.681
50.72000 6.060
50.74000 9.410
50.76000 6.745
50.78000 4.841
50.80000 1.725
50.82000 2.689
50.84000 2.937
50.86000 4.755
50.88000 5.795
50.90000 3.089
50.92000 5.034
50.94000 4.791
50.96000 6.431
50.98000 2.532
51.00000 0.571
51.02000 -2.900
51.04000 -1.235
51.06000 0.411
51.08000 -0.070
51.10000 8.134
51.12000 10.722
51.14000 7.046
51.16000 6.397
51.18000 5.953
51.20000 3.233
51.22000 3.407
51.24000 6.040
51.26000 9.073
51.28000 9.516
51.30000 6.499
51.32000 1.118
51.34000 8.205
51.36000 7.062
51.38000 3.818
51.40000 7.224
51.42000 2.681
51.44000 6.261
51.46000 5.054
51.48000 4.815
51.50000 6.134
51.52000 2.944
51.54000 1.489
51.56000 1.708
51.58000 5.813
51.60000 4.443
51.62000 3.217
51.64000 6.227
51.66000 9.292
51.68000 9.893
51.70000 8.596
51.72000 7.868
51.74000 9.908
51.76000 6.506
51.78000 -1.969
51.80000 1.703
51.82000 1.226
51.84000 3.806
51.86000 0.481
51.88000 -1.853
51.90000 0.372
51.92000 2.138
51.94000 1.258
51.96000 3.284
51.98000 6.918
52.00000 4.811
52.02000 -0.038
52.04000 2.524
52.06000 4.810
52.08000 0.604
52.10000 2.804
52.12000 8.068
52.14000 4.220
52.16000 -2.501
52.18000 -0.776
52.20000 1.055
52.22000 0.888
52.24000 0.970
52.26000 1.815
52.28000 6.846
52.30000 3.129
52.32000 -0.771
52.34000 2.835
52.36000 1.424
52.38000 7.309
52.40000 4.802
52.42000 4.059
52.44000 2.884
52.46000 1.160
52.48000 5.915
52.50000 9.626
52.52000 7.532
52.54000 5.745
52.56000 5.923
52.58000 5.971
52.60000 5.626
52.62000 4.574
52.64000 3.591
52.66000 3.299
52.68000 3.563
52.70000 3.317
52.72000 4.302
52.74000 7.364
52.76000 8.200
52.78000 8.782
52.80000 6.072
52.82000 6.884
52.84000 8.627
52.86000 5.653
52.88000 2.519
52.90000 -0.683
52.92000 2.064
52.94000 5.393
52.96000 1.515
52.98000 -2.840
53.00000 -0.793
53.02000 4.999
53.04000 6.225
53.06000 4.416
53.08000 3.130
53.10000 1.157
53.12000 5.703
53.14000 5.540
53.16000 0.578
53.18000 1.840
53.20000 5.264
53.22000 9.609
53.24000 8.323
53.26000 4.989
53.28000 -1.079
53.30000 0.590
53.32000 5.175
53.34000 3.704
53.36000 2.632
53.38000 2.127
53.40000 4.016
53.42000 2.937
53.44000 7.610
53.46000 2.118
53.48000 -2.797
53.50000 -2.809
53.52000 4.367
53.54000 7.777
53.56000 4.625
53.58000 2.121
53.60000 4.772
53.62000 8.635
53.64000 7.552
53.66000 6.495
53.68000 9.324
53.70000 9.822
53.72000 7.338
53.74000 3.736
53.76000 1.827
53.78000 5.863
53.80000 6.335
53.82000 7.363
53.84000 5.598
53.86000 9.581
53.88000 6.356
53.90000 2.015
53.92000 4.441
53.94000 -0.566
53.96000 -2.191
53.98000 -0.837
54.00000 2.386
54.02000 1.441
54.04000 1.905
54.06000 2.154
54.08000 0.117
54.10000 3.505
54.12000 3.988
54.14000 3.414
54.16000 5.724
54.18000 6.807
54.20000 4.779
54.22000 5.057
54.24000 6.654
54.26000 -0.058
54.28000 0.551
54.30000 6.437
54.32000 5.123
54.34000 3.938
54.36000 6.407
54.38000 5.961
54.40000 5.010
54.42000 1.477
54.44000 2.016
54.46000 0.425
54.48000 6.378
54.50000 5.276
54.52000 3.327
54.54000 4.991
54.56000 4.476
54.58000 5.555
54.60000 5.958
54.62000 7.265
54.64000 8.382
54.66000 8.261
54.68000 9.488
54.70000 8.390
54.72000 -1.148
54.74000 1.993
54.76000 -0.176
54.78000 3.397
54.80000 2.831
54.82000 2.734
54.84000 -0.017
54.86000 7.716
54.88000 6.354
54.90000 2.307
54.92000 0.785
54.94000 2.650
54.96000 4.140
54.98000 2.678
55.00000 0.612
55.02000 -0.104
55.04000 -0.905
55.06000 2.442
55.08000 5.298
55.10000 3.151
55.12000 5.354
55.14000 7.011
55.16000 6.998
55.18000 4.202
55.20000 1.610
55.22000 4.661
55.24000 8.850
55.26000 6.474
55.28000 3.492
55.30000 -2.754
55.32000 1.895
55.34000 3.906
55.36000 7.324
55.38000 6.414
55.40000 2.955
55.42000 3.434
55.44000 6.339
55.46000 1.294
55.48000 1.445
55.50000 2.396
55.52000 10.889
55.54000 7.693
55.56000 6.553
55.58000 4.286
55.60000 2.412
55.62000 3.742
55.64000 2.026
55.66000 4.714
55.68000 4.909
55.70000 7.409
55.72000 4.494
55.74000 3.732
55.76000 5.591
55.78000 5.789
55.80000 2.970
55.82000 -2.402
55.84000 1.693
55.86000 4.657
55.88000 5.474
55.90000 8.078
55.92000 7.912
55.94000 4.023
55.96000 4.334
55.98000 3.695
56.00000 -0.614
56.02000 -1.410
56.04000 1.880
56.06000 2.559
56.08000 5.423
56.10000 2.462
56.12000 5.487
56.14000 7.073
56.16000 1.442
56.18000 1.235
56.20000 1.005
56.22000 2.518
56.24000 -1.399
56.26000 2.013
56.28000 4.657
56.30000 6.079
56.32000 0.152
56.34000 -1.462
56.36000 -0.422
56.38000 1.604
56.40000 6.326
56.42000 2.841
56.44000 1.572
56.46000 2.345
56.48000 9.634
56.50000 7.474
56.52000 1.517
56.54000 1.046
56.56000 3.241
56.58000 7.052
56.60000 1.410
56.62000 -0.691
56.64000 1.195
56.66000 1.576
56.68000 3.626
56.70000 5.430
56.72000 0.825
56.74000 3.697
56.76000 5.464
56.78000 4.695
56.80000 0.949
56.82000 -1.705
56.84000 -1.560
56.86000 0.511
56.88000 0.690
56.90000 1.269
56.92000 2.871
56.94000 -1.222
56.96000 2.491
56.98000 -2.304
57.00000 -2.747
57.02000 -2.105
57.04000 1.558
57.06000 3.561
57.08000 6.007
57.10000 4.876
57.12000 5.807
57.14000 8.002
57.16000 0.926
57.18000 0.074
57.20000 3.573
57.22000 0.835
57.24000 -0.001
57.26000 1.172
57.28000 0.929
57.30000 2.113
57.32000 6.222
57.34000 2.310
57.36000 2.565
57.38000 8.390
57.40000 8.439
57.42000 3.952
57.44000 4.539
57.46000 1.833
57.48000 0.472
57.50000 3.150
57.52000 5.929
57.54000 -0.094
57.56000 5.265
57.58000 3.309
57.60000 1.849
57.62000 -2.428
57.64000 1.398
57.66000 2.427
57.68000 2.542
57.70000 2.647
57.72000 4.185
57.74000 3.897
57.76000 2.717
57.78000 -1.466
57.80000 -1.858
57.82000 -0.232
57.84000 4.735
57.86000 2.449
57.88000 1.584
57.90000 2.217
57.92000 4.815
57.94000 2.796
57.96000 1.170
57.98000 -0.572
58.00000 -1.134
58.02000 0.644
58.04000 2.519
58.06000 4.424
58.08000 -1.746
58.10000 0.404
58.12000 -2.156
58.14000 -1.639
58.16000 0.952
58.18000 2.609
58.20000 -1.169
58.22000 -2.081
58.24000 -2.064
58.26000 -0.550
58.28000 0.712
58.30000 0.676
58.32000 -1.221
58.34000 0.981
58.36000 4.180
58.38000 3.306
58.40000 0.545
58.42000 3.628
58.44000 2.803
58.46000 2.957
58.48000 3.353
58.50000 2.697
58.52000 3.333
58.54000 0.150
58.56000 0.200
58.58000 0.965
58.60000 6.557
58.62000 2.579
58.64000 0.219
58.66000 -0.632
58.68000 0.330
58.70000 9.401
58.72000 8.701
58.74000 4.882
58.76000 3.182
58.78000 0.001
58.80000 -2.693
58.82000 0.573
58.84000 2.623
58.86000 -0.827
58.88000 -1.620
58.90000 1.672
58.92000 7.855
58.94000 -0.270
58.96000 1.516
58.98000 2.771
59.00000 4.245
59.02000 3.918
59.04000 2.498
59.06000 1.503
59.08000 2.930
59.10000 3.738
59.12000 1.814
59.14000 -1.176
59.16000 -0.598
59.18000 1.590
59.20000 -1.284
59.22000 4.200
59.24000 4.661
59.26000 3.291
59.28000 3.108
59.30000 3.884
59.32000 0.505
59.34000 -0.424
59.36000 -0.200
59.38000 2.979
59.40000 5.357
59.42000 -1.136
59.44000 0.481
59.46000 4.787
59.48000 0.466
59.50000 0.250
59.52000 4.460
59.54000 7.246
59.56000 2.164
59.58000 0.534
59.60000 -0.139
59.62000 5.967
59.64000 3.524
59.66000 3.811
59.68000 3.118
59.70000 2.053
59.72000 -1.820
59.74000 -2.474
59.76000 -1.556
59.78000 1.964
59.80000 1.238
59.82000 -1.150
59.84000 1.454
59.86000 3.237
59.88000 6.464
59.90000 5.452
59.92000 4.206
59.94000 9.606
59.96000 1.099
59.98000 -1.014
60.00000 3.057
60.02000 0.507
60.04000 0.188
60.06000 2.589
60.08000 2.813
60.10000 0.988
60.12000 0.744
60.14000 3.883
60.16000 5.059
60.18000 2.901
60.20000 2.526
60.22000 2.520
60.24000 2.477
60.26000 -2.370
60.28000 -2.622
60.30000 2.701
60.32000 2.239
60.34000 4.041
60.36000 5.854
60.38000 7.332
60.40000 10.912
60.42000 4.426
60.44000 4.907
60.46000 6.706
60.48000 2.027
60.50000 2.319
60.52000 3.074
60.54000 4.044
60.56000 2.114
60.58000 1.977
60.60000 -2.621
60.62000 -2.028
60.64000 2.156
60.66000 1.881
60.68000 1.756
60.70000 2.978
60.72000 2.743
60.74000 4.014
60.76000 2.923
60.78000 -1.554
60.80000 0.272
60.82000 2.636
60.84000 3.323
60.86000 3.849
60.88000 3.879
60.90000 5.653
60.92000 3.380
60.94000 5.792
60.96000 7.700
60.98000 5.590
61.00000 3.140
61.02000 -2.330
61.04000 -2.619
61.06000 -1.708
61.08000 1.924
61.10000 6.970
61.12000 4.405
61.14000 5.780
61.16000 3.589
61.18000 2.674
61.20000 1.897
61.22000 3.185
61.24000 -1.564
61.26000 0.199
61.28000 -0.398
61.30000 -1.634
61.32000 -1.689
61.34000 0.938
61.36000 2.948
61.38000 4.913
61.40000 4.604
61.42000 3.309
61.44000 4.120
61.46000 2.431
61.48000 3.916
61.50000 1.421
61.52000 -1.523
61.54000 -0.929
61.56000 3.286
61.58000 7.239
61.60000 7.530
61.62000 0.905
61.64000 1.277
61.66000 3.323
61.68000 3.870
61.70000 0.716
61.72000 -0.506
61.74000 0.606
61.76000 -1.166
61.78000 2.012
61.80000 -1.099
61.82000 -1.941
61.84000 0.372
61.86000 3.252
61.88000 6.460
61.90000 2.555
61.92000 1.841
61.94000 6.857
61.96000 5.774
61.98000 -1.882
62.00000 0.030
62.02000 6.133
62.04000 2.585
62.06000 1.202
62.08000 -1.051
62.10000 2.138
62.12000 2.750
62.14000 4.846
62.16000 3.896
62.18000 1.127
62.20000 3.339
62.22000 6.317
62.24000 3.919
62.26000 3.105
62.28000 2.704
62.30000 -1.137
62.32000 2.640
62.34000 7.553
62.36000 3.026
62.38000 -2.559
62.40000 -0.338
62.42000 1.735
62.44000 2.411
62.46000 7.658
62.48000 9.339
62.50000 5.271
62.52000 5.639
62.54000 6.419
62.56000 7.645
62.58000 1.448
62.60000 3.241
62.62000 1.238
62.64000 -0.836
62.66000 4.183
62.68000 1.892
62.70000 6.514
62.72000 6.701
62.74000 6.894
62.76000 0.803
62.78000 -2.549
62.80000 3.307
62.82000 3.719
62.84000 5.423
62.86000 2.909
62.88000 4.522
62.90000 3.164
62.92000 -1.573
62.94000 4.008
62.96000 2.917
62.98000 4.298
63.00000 3.605
63.02000 0.656
63.04000 0.530
63.06000 -1.170
63.08000 3.570
63.10000 5.138
63.12000 3.953
63.14000 -0.596
63.16000 -2.010
63.18000 1.465
63.20000 3.752
63.22000 3.004
63.24000 5.069
63.26000 6.500
63.28000 5.425
63.30000 3.404
63.32000 2.184
63.34000 4.781
63.36000 4.154
63.38000 1.329
63.40000 6.402
63.42000 2.569
63.44000 0.345
63.46000 0.891
63.48000 1.578
63.50000 4.637
63.52000 6.286
63.54000 4.612
63.56000 7.635
63.58000 2.143
63.60000 1.771
63.62000 0.737
63.64000 2.195
63.66000 2.587
63.68000 4.766
63.70000 3.089
63.72000 1.491
63.74000 2.018
63.76000 4.186
63.78000 4.833
63.80000 4.334
63.82000 1.887
63.84000 1.539
63.86000 6.736
63.88000 4.833
63.90000 1.748
63.92000 3.637
63.94000 1.733
63.96000 3.872
63.98000 6.190
64.00000 5.629
64.02000 3.946
64.04000 5.132
64.06000 2.817
64.08000 1.230
64.10000 -2.557
64.12000 0.330
64.14000 4.916
64.16000 4.569
64.18000 3.504
64.20000 0.431
64.22000 -0.807
64.24000 1.613
64.26000 2.583
64.28000 4.747
64.30000 4.939
64.32000 5.871
64.34000 5.863
64.36000 3.385
64.38000 3.314
64.40000 2.547
64.42000 4.691
64.44000 -0.887
64.46000 0.705
64.48000 3.015
64.50000 3.728
64.52000 0.649
64.54000 1.413
64.56000 2.023
64.58000 4.601
64.60000 4.548
64.62000 1.128
64.64000 1.028
64.66000 3.206
64.68000 6.051
64.70000 4.177
64.72000 0.065
64.74000 1.391
64.76000 3.760
64.78000 1.261
64.80000 0.280
64.82000 3.128
64.84000 3.857
64.86000 3.075
64.88000 1.909
64.90000 3.775
64.92000 -1.236
64.94000 -2.593
64.96000 3.373
64.98000 3.927
65.00000 1.264
65.02000 -0.115
65.04000 0.785
65.06000 1.930
65.08000 3.752
65.10000 -0.510
65.12000 -2.167
65.14000 -1.620
65.16000 -2.268
65.18000 3.251
65.20000 2.355
65.22000 2.076
65.24000 -0.135
65.26000 -1.636
65.28000 1.728
65.30000 -1.511
65.32000 -0.415
65.34000 2.788
65.36000 1.180
65.38000 0.759
65.40000 -0.029
65.42000 2.719
65.44000 -0.060
65.46000 -1.084
65.48000 2.883
65.50000 3.001
65.52000 1.464
65.54000 2.815
65.56000 -0.560
65.58000 0.879
65.60000 -1.001
65.62000 4.981
65.64000 2.701
65.66000 -0.334
65.68000 -2.218
65.70000 0.301
65.72000 -1.932
65.74000 0.638
65.76000 4.597
65.78000 5.207
65.80000 4.201
65.82000 0.419
65.84000 -0.280
65.86000 0.274
65.88000 2.725
65.90000 5.888
65.92000 5.211
65.94000 -1.069
65.96000 0.888
65.98000 0.332
66.00000 -2.615
66.02000 -0.147
66.04000 -1.150
66.06000 -0.548
66.08000 2.240
66.10000 2.654
66.12000 2.418
66.14000 1.751
66.16000 2.117
66.18000 1.035
66.20000 3.101
66.22000 2.419
66.24000 -0.962
66.26000 -0.529
66.28000 -0.059
66.30000 1.018
66.32000 2.014
66.34000 -0.709
66.36000 -0.730
66.38000 1.188
66.40000 -1.014
66.42000 0.291
66.44000 0.374
66.46000 3.111
66.48000 3.125
66.50000 1.574
66.52000 1.363
66.54000 0.924
66.56000 1.082
66.58000 0.849
66.60000 1.831
66.62000 0.101
66.64000 -0.151
66.66000 4.706
66.68000 4.343
66.70000 4.576
66.72000 2.880
66.74000 4.354
66.76000 4.457
66.78000 3.425
66.80000 5.700
66.82000 3.896
66.84000 0.285
66.86000 -0.655
66.88000 4.352
66.90000 4.083
66.92000 5.740
66.94000 5.846
66.96000 4.077
66.98000 3.543
67.00000 2.288
67.02000 3.469
67.04000 -1.981
67.06000 2.750
67.08000 7.975
67.10000 1.673
67.12000 2.616
67.14000 5.746
67.16000 4.676
67.18000 1.584
67.20000 2.924
67.22000 4.273
67.24000 8.016
67.26000 4.916
67.28000 6.859
67.30000 11.915
67.32000 8.709
67.34000 3.499
67.36000 5.264
67.38000 8.415
67.40000 9.537
67.42000 10.073
67.44000 9.155
67.46000 5.716
67.48000 6.588
67.50000 11.563
67.52000 8.395
67.54000 12.875
67.56000 12.514
67.58000 13.005
67.60000 12.990
67.62000 13.317
67.64000 10.728
67.66000 13.018
67.68000 13.451
67.70000 15.268
67.72000 12.277
67.74000 11.295
67.76000 12.691
67.78000 13.360
67.80000 11.401
67.82000 12.259
67.84000 17.320
67.86000 14.242
67.88000 11.571
67.90000 11.829
67.92000 13.972
67.94000 17.576
67.96000 22.235
67.98000 20.474
68.00000 16.831
68.02000 16.499
68.04000 19.826
68.06000 21.513
68.08000 20.077
68.10000 20.207
68.12000 17.275
68.14000 16.953
68.16000 19.042
68.18000 18.584
68.20000 21.050
68.22000 16.692
68.24000 14.860
68.26000 15.452
68.28000 16.933
68.30000 19.946
68.32000 18.179
68.34000 20.928
68.36000 23.189
68.38000 20.245
68.40000 20.788
68.42000 20.786
68.44000 20.717
68.46000 18.261
68.48000 16.209
68.50000 19.718
68.52000 22.429
68.54000 24.148
68.56000 21.338
68.58000 20.172
68.60000 21.025
68.62000 21.605
68.64000 20.806
68.66000 18.466
68.68000 20.528
68.70000 21.970
68.72000 19.385
68.74000 22.114
68.76000 18.797
68.78000 16.995
68.80000 18.855
68.82000 24.540
68.84000 19.230
68.86000 15.799
68.88000 10.866
68.90000 17.971
68.92000 16.626
68.94000 14.303
68.96000 15.449
68.98000 15.904
69.00000 15.950
69.02000 14.795
69.04000 10.580
69.06000 9.695
69.08000 9.222
69.10000 8.591
69.12000 9.783
69.14000 11.433
69.16000 13.256
69.18000 10.773
69.20000 11.247
69.22000 8.469
69.24000 6.030
69.26000 9.947
69.28000 9.289
69.30000 9.822
69.32000 8.517
69.34000 7.788
69.36000 5.108
69.38000 7.549
69.40000 9.151
69.42000 4.967
69.44000 5.244
69.46000 3.708
69.48000 5.640
69.50000 6.503
69.52000 2.508
69.54000 5.398
69.56000 6.941
69.58000 5.640
69.60000 2.674
69.62000 -0.361
69.64000 2.308
69.66000 6.317
69.68000 7.261
69.70000 0.778
69.72000 0.083
69.74000 1.198
69.76000 0.001
69.78000 -0.628
69.80000 2.349
69.82000 0.289
69.84000 -2.603
69.86000 0.014
69.88000 -1.156
69.90000 3.722
69.92000 6.323
69.94000 6.125
69.96000 6.421
69.98000 4.424
70.00000 3.879
70.02000 0.709
70.04000 3.566
70.06000 5.698
70.08000 0.356
70.10000 -1.585
70.12000 -0.721
70.14000 1.714
70.16000 3.407
70.18000 3.933
70.20000 1.285
70.22000 -1.349
70.24000 -2.561
70.26000 2.553
70.28000 2.356
70.30000 2.102
70.32000 1.510
70.34000 5.005
70.36000 6.397
70.38000 3.072
70.40000 1.684
70.42000 0.333
70.44000 6.315
70.46000 6.882
70.48000 2.747
70.50000 6.243
70.52000 4.835
70.54000 4.302
70.56000 6.016
70.58000 4.129
70.60000 0.426
70.62000 0.520
70.64000 6.300
70.66000 3.008
70.68000 1.494
70.70000 2.026
70.72000 0.408
70.74000 2.607
70.76000 4.509
70.78000 0.367
70.80000 -2.488
70.82000 -0.091
70.84000 3.300
70.86000 3.278
70.88000 1.022
70.90000 3.307
70.92000 4.967
70.94000 4.185
70.96000 9.732
70.98000 5.049
71.00000 1.864
71.02000 1.680
71.04000 1.822
71.06000 0.340
71.08000 0.809
71.10000 2.984
71.12000 4.901
71.14000 6.252
71.16000 2.042
71.18000 0.296
71.20000 -1.032
71.22000 3.048
71.24000 4.339
71.26000 3.874
71.28000 7.976
71.30000 6.824
71.32000 7.195
71.34000 4.404
71.36000 4.664
71.38000 5.009
71.40000 4.633
71.42000 7.009
71.44000 7.669
71.46000 3.955
71.48000 -1.848
71.50000 1.796
71.52000 7.816
71.54000 5.738
71.56000 8.597
71.58000 4.090
71.60000 3.242
71.62000 2.796
71.64000 4.878
71.66000 5.626
71.68000 3.656
71.70000 5.223
71.72000 2.959
71.74000 -0.831
71.76000 2.541
71.78000 6.227
71.80000 3.859
71.82000 5.236
71.84000 4.718
71.86000 0.196
71.88000 6.796
71.90000 5.687
71.92000 9.598
71.94000 11.908
71.96000 8.664
71.98000 8.175
72.00000 4.581
72.02000 8.387
72.04000 4.998
72.06000 1.213
72.08000 -0.414
72.10000 7.861
72.12000 7.276
72.14000 5.715
72.16000 1.439
72.18000 -2.363
72.20000 3.884
72.22000 9.105
72.24000 5.755
72.26000 2.558
72.28000 3.564
72.30000 5.262
72.32000 4.550
72.34000 3.137
72.36000 4.350
72.38000 3.691
72.40000 3.207
72.42000 1.161
72.44000 4.042
72.46000 4.470
72.48000 5.592
72.50000 9.188
72.52000 6.146
72.54000 5.325
72.56000 6.609
72.58000 3.471
72.60000 2.137
72.62000 1.269
72.64000 3.436
72.66000 -0.661
72.68000 0.078
72.70000 2.405
72.72000 3.427
72.74000 6.775
72.76000 5.561
72.78000 4.972
72.80000 1.371
72.82000 0.682
72.84000 4.559
72.86000 7.722
72.88000 6.662
72.90000 3.415
72.92000 1.952
72.94000 4.711
72.96000 4.766
72.98000 4.770
73.00000 4.360
73.02000 1.829
73.04000 4.780
73.06000 5.292
73.08000 7.122
73.10000 5.640
73.12000 2.984
73.14000 5.343
73.16000 6.810
73.18000 1.657
73.20000 1.664
73.22000 5.521
73.24000 4.015
73.26000 6.468
73.28000 5.552
73.30000 3.886
73.32000 3.653
73.34000 3.394
73.36000 3.153
73.38000 2.556
73.40000 4.585
73.42000 8.451
73.44000 6.849
73.46000 4.105
73.48000 2.567
73.50000 -0.272
73.52000 0.386
73.54000 -2.363
73.56000 4.180
73.58000 1.075
73.60000 4.206
73.62000 4.792
73.64000 9.525
73.66000 8.082
73.68000 2.111
73.70000 2.826
73.72000 6.132
73.74000 7.032
73.76000 8.270
73.78000 5.449
73.80000 1.611
73.82000 2.203
73.84000 6.681
73.86000 3.504
73.88000 3.490
73.90000 4.602
73.92000 0.458
73.94000 4.086
73.96000 1.887
73.98000 5.681
74.00000 10.150
74.02000 6.687
74.04000 7.256
74.06000 4.732
74.08000 2.783
74.10000 1.184
74.12000 5.049
74.14000 4.315
74.16000 6.816
74.18000 6.806
74.20000 5.835
74.22000 1.012
74.24000 5.684
74.26000 5.863
74.28000 5.261
74.30000 4.752
74.32000 3.919
74.34000 -0.636
74.36000 0.703
74.38000 0.473
74.40000 5.585
74.42000 6.697
74.44000 2.459
74.46000 5.418
74.48000 2.525
74.50000 3.412
74.52000 6.852
74.54000 1.733
74.56000 -0.522
74.58000 1.671
74.60000 4.861
74.62000 2.466
74.64000 2.361
74.66000 2.271
74.68000 4.070
74.70000 4.776
74.72000 4.358
74.74000 2.298
74.76000 4.671
74.78000 5.185
74.80000 1.596
74.82000 2.556
74.84000 4.807
74.86000 -2.339
74.88000 -2.347
74.90000 3.426
74.92000 4.568
74.94000 8.887
74.96000 9.426
74.98000 4.659
75.00000 4.176
75.02000 6.453
75.04000 9.706
75.06000 6.164
75.08000 4.958
75.10000 4.088
75.12000 5.674
75.14000 6.465
75.16000 1.595
75.18000 1.419
75.20000 3.718
75.22000 7.117
75.24000 6.264
75.26000 5.709
75.28000 10.114
75.30000 7.972
75.32000 2.054
75.34000 5.505
75.36000 9.772
75.38000 6.014
75.40000 3.407
75.42000 4.286
75.44000 6.715
75.46000 10.293
75.48000 11.750
75.50000 7.643
75.52000 5.014
75.54000 3.861
75.56000 4.538
75.58000 5.879
75.60000 6.599
75.62000 6.879
75.64000 1.917
75.66000 3.070
75.68000 9.107
75.70000 5.669
75.72000 4.235
75.74000 7.878
75.76000 7.258
75.78000 5.055
75.80000 6.323
75.82000 4.467
75.84000 2.692
75.86000 4.636
75.88000 5.641
75.90000 1.958
75.92000 3.761
75.94000 4.390
75.96000 11.273
75.98000 7.020
76.00000 8.508
76.02000 6.058
76.04000 1.203
76.06000 -2.320
76.08000 2.077
76.10000 7.557
76.12000 5.467
76.14000 3.365
76.16000 3.975
76.18000 0.184
76.20000 2.062
76.22000 1.452
76.24000 4.822
76.26000 10.883
76.28000 7.757
76.30000 5.653
76.32000 5.415
76.34000 4.401
76.36000 7.081
76.38000 4.948
76.40000 3.421
76.42000 3.674
76.44000 2.687
76.46000 0.958
76.48000 -0.053
76.50000 3.569
76.52000 3.488
76.54000 1.534
76.56000 3.580
76.58000 0.809
76.60000 4.412
76.62000 10.202
76.64000 10.471
76.66000 6.122
76.68000 1.988
76.70000 1.123
76.72000 1.509
76.74000 2.312
76.76000 7.970
76.78000 6.874
76.80000 10.320
76.82000 6.165
76.84000 4.632
76.86000 1.776
76.88000 4.714
76.90000 4.556
76.92000 0.293
76.94000 -2.093
76.96000 0.184
76.98000 2.361
77.00000 4.718
77.02000 6.249
77.04000 5.379
77.06000 0.103
77.08000 3.502
77.10000 -0.682
77.12000 1.937
77.14000 2.779
77.16000 -0.156
77.18000 5.397
77.20000 3.978
77.22000 -0.889
77.24000 1.513
77.26000 5.153
77.28000 4.980
77.30000 2.756
77.32000 3.496
77.34000 -0.051
77.36000 2.762
77.38000 2.410
77.40000 0.918
77.42000 2.805
77.44000 3.733
77.46000 4.166
77.48000 2.496
77.50000 7.276
77.52000 6.988
77.54000 6.937
77.56000 6.656
77.58000 0.113
77.60000 -0.736
77.62000 -2.420
77.64000 2.630
77.66000 2.697
77.68000 1.660
77.70000 5.368
77.72000 5.570
77.74000 3.206
77.76000 3.004
77.78000 4.463
77.80000 1.781
77.82000 -1.682
77.84000 0.998
77.86000 2.828
77.88000 9.228
77.90000 8.740
77.92000 5.117
77.94000 0.112
77.96000 2.627
77.98000 3.634
78.00000 8.498
78.02000 4.666
78.04000 0.376
78.06000 -2.222
78.08000 1.801
78.10000 -0.519
78.12000 3.409
78.14000 6.565
78.16000 1.285
78.18000 3.130
78.20000 6.083
78.22000 5.693
78.24000 5.842
78.26000 5.901
78.28000 4.126
78.30000 5.702
78.32000 2.619
78.34000 0.502
78.36000 3.996
78.38000 2.018
78.40000 1.744
78.42000 -0.544
78.44000 -2.444
78.46000 -2.269
78.48000 3.472
78.50000 5.081
78.52000 0.747
78.54000 -0.144
78.56000 2.235
78.58000 1.156
78.60000 -2.085
78.62000 -2.388
78.64000 -1.033
78.66000 2.392
78.68000 1.105
78.70000 2.823
78.72000 -1.690
78.74000 -1.661
78.76000 -1.635
78.78000 4.026
78.80000 3.872
78.82000 5.228
78.84000 2.644
78.86000 3.026
78.88000 -0.997
78.90000 3.534
78.92000 8.888
78.94000 3.743
78.96000 4.013
78.98000 -2.164
79.00000 -2.465
79.02000 1.531
79.04000 5.057
79.06000 2.083
79.08000 0.340
79.10000 0.253
79.12000 10.984
79.14000 7.634
79.16000 4.275
79.18000 5.494
79.20000 1.329
79.22000 0.680
79.24000 5.374
79.26000 1.839
79.28000 -2.471
79.30000 -0.936
79.32000 4.948
79.34000 2.118
79.36000 4.699
79.38000 2.594
79.40000 4.757
79.42000 6.473
79.44000 3.561
79.46000 2.013
79.48000 0.802
79.50000 4.981
79.52000 7.290
79.54000 4.696
79.56000 3.984
79.58000 -2.042
79.60000 -2.452
79.62000 0.783
79.64000 6.502
79.66000 7.626
79.68000 3.661
79.70000 2.090
79.72000 -0.364
79.74000 0.884
79.76000 2.904
79.78000 2.884
79.80000 6.638
79.82000 3.987
79.84000 2.123
79.86000 4.544
79.88000 4.339
79.90000 5.529
79.92000 5.905
79.94000 6.930
79.96000 0.885
79.98000 7.088
80.00000 2.492
80.02000 2.183
80.04000 3.498
80.06000 3.670
80.08000 1.276
80.10000 3.412
80.12000 4.393
80.14000 4.866
80.16000 5.321
80.18000 2.410
80.20000 -1.038
80.22000 0.283
80.24000 -2.508
80.26000 2.150
80.28000 4.576
80.30000 -0.146
80.32000 0.006
80.34000 6.356
80.36000 7.666
80.38000 6.333
80.40000 3.689
80.42000 5.994
80.44000 5.529
80.46000 6.594
80.48000 2.395
80.50000 -0.192
80.52000 0.579
80.54000 3.506
80.56000 3.373
80.58000 -2.014
80.60000 -1.216
80.62000 -0.271
80.64000 5.667
80.66000 5.982
80.68000 6.925
80.70000 3.055
80.72000 8.667
80.74000 12.163
80.76000 5.127
80.78000 5.506
80.80000 5.415
80.82000 6.035
80.84000 6.805
80.86000 4.461
80.88000 5.132
80.90000 1.292
80.92000 3.370
80.94000 2.993
80.96000 7.611
80.98000 9.449
81.00000 6.847
81.02000 5.373
81.04000 4.023
81.06000 7.569
81.08000 8.789
81.10000 6.406
81.12000 4.108
81.14000 4.384
81.16000 11.656
81.18000 13.543
81.20000 10.735
81.22000 9.309
81.24000 6.247
81.26000 8.908
81.28000 6.716
81.30000 9.117
81.32000 13.725
81.34000 17.867
81.36000 9.149
81.38000 6.188
81.40000 9.823
81.42000 12.661
81.44000 8.512
81.46000 11.645
81.48000 8.863
81.50000 9.124
81.52000 9.104
81.54000 10.269
81.56000 11.535
81.58000 9.973
81.60000 8.153
81.62000 8.447
81.64000 10.421
81.66000 12.699
81.68000 13.529
81.70000 12.009
81.72000 14.949
81.74000 12.725
81.76000 16.786
81.78000 16.761
81.80000 19.816
81.82000 14.991
81.84000 13.007
81.86000 14.516
81.88000 14.070
81.90000 15.468
81.92000 14.004
81.94000 19.945
81.96000 19.510
81.98000 18.843
82.00000 17.256
82.02000 15.117
82.04000 19.741
82.06000 16.239
82.08000 15.083
82.10000 13.184
82.12000 10.870
82.14000 13.033
82.16000 20.002
82.18000 20.288
82.20000 21.870
82.22000 18.611
82.24000 22.984
82.26000 23.723
82.28000 23.918
82.30000 23.338
82.32000 24.693
82.34000 26.269
82.36000 30.171
82.38000 19.354
82.40000 20.195
82.42000 21.268
82.44000 19.629
82.46000 22.743
82.48000 25.975
82.50000 21.553
82.52000 16.394
82.54000 21.967
82.56000 26.442
82.58000 25.888
82.60000 26.364
82.62000 29.716
82.64000 25.437
82.66000 27.217
82.68000 20.694
82.70000 25.139
82.72000 25.823
82.74000 25.635
82.76000 28.297
82.78000 23.557
82.80000 18.225
82.82000 17.870
82.84000 22.075
82.86000 24.922
82.88000 25.041
82.90000 21.098
82.92000 22.956
82.94000 20.355
82.96000 21.329
82.98000 20.082
83.00000 16.480
83.02000 23.779
83.04000 21.984
83.06000 21.402
83.08000 17.005
83.10000 14.760
83.12000 16.589
83.14000 18.517
83.16000 22.128
83.18000 15.354
83.20000 15.510
83.22000 18.331
83.24000 20.324
83.26000 18.987
83.28000 15.378
83.30000 19.936
83.32000 17.573
83.34000 15.473
83.36000 17.354
83.38000 13.347
83.40000 13.038
83.42000 9.617
83.44000 7.625
83.46000 15.665
83.48000 12.891
83.50000 12.416
83.52000 10.826
83.54000 12.008
83.56000 9.549
83.58000 9.587
83.60000 13.120
83.62000 11.887
83.64000 14.826
83.66000 16.396
83.68000 13.732
83.70000 15.250
83.72000 7.932
83.74000 6.233
83.76000 5.041
83.78000 4.459
83.80000 5.678
83.82000 7.907
83.84000 13.499
83.86000 9.119
83.88000 3.628
83.90000 2.246
83.92000 5.449
83.94000 5.409
83.96000 2.180
83.98000 0.063
84.00000 11.462
84.02000 9.172
84.04000 6.741
84.06000 1.609
84.08000 3.807
84.10000 4.960
84.12000 2.203
84.14000 3.698
84.16000 -2.562
84.18000 -1.484
84.20000 0.720
84.22000 6.912
84.24000 7.703
84.26000 4.369
84.28000 2.539
84.30000 3.169
84.32000 -1.022
84.34000 2.493
84.36000 4.690
84.38000 5.152
84.40000 5.827
84.42000 0.830
84.44000 1.190
84.46000 4.055
84.48000 1.113
84.50000 5.728
84.52000 4.655
84.54000 2.402
84.56000 2.920
84.58000 2.767
84.60000 6.369
84.62000 6.417
84.64000 6.883
84.66000 1.895
84.68000 2.784
84.70000 3.670
84.72000 4.165
84.74000 1.745
84.76000 7.561
84.78000 3.788
84.80000 3.553
84.82000 4.270
84.84000 2.756
84.86000 1.835
84.88000 2.705
84.90000 1.319
84.92000 2.391
84.94000 2.669
84.96000 3.069
84.98000 4.276
85.00000 0.279
85.02000 -2.492
85.04000 -0.081
85.06000 4.101
85.08000 1.489
85.10000 2.040
85.12000 1.447
85.14000 3.282
85.16000 5.990
85.18000 6.345
85.20000 2.971
85.22000 0.703
85.24000 2.429
85.26000 3.085
85.28000 3.733
85.30000 2.249
85.32000 -0.249
85.34000 0.245
85.36000 -2.506
85.38000 0.898
85.40000 4.481
85.42000 7.346
85.44000 1.310
85.46000 0.834
85.48000 0.146
85.50000 2.307
85.52000 1.394
85.54000 6.571
85.56000 6.807
85.58000 6.050
85.60000 4.560
85.62000 4.489
85.64000 5.103
85.66000 2.898
85.68000 -0.825
85.70000 -2.421
85.72000 2.107
85.74000 6.265
85.76000 8.352
85.78000 5.919
85.80000 2.047
85.82000 1.485
85.84000 3.069
85.86000 1.957
85.88000 3.054
85.90000 7.300
85.92000 5.959
85.94000 7.419
85.96000 10.005
85.98000 12.571
86.00000 4.649
86.02000 -0.819
86.04000 -0.471
86.06000 2.463
86.08000 5.841
86.10000 6.463
86.12000 4.671
86.14000 4.321
86.16000 3.639
86.18000 3.914
86.20000 7.494
86.22000 10.519
86.24000 9.689
86.26000 11.407
86.28000 14.068
86.30000 7.586
86.32000 7.652
86.34000 9.202
86.36000 11.045
86.38000 8.892
86.40000 8.285
86.42000 10.448
86.44000 10.185
86.46000 12.601
86.48000 10.665
86.50000 13.822
86.52000 17.398
86.54000 16.576
86.56000 17.020
86.58000 17.978
86.60000 15.866
86.62000 10.310
86.64000 15.480
86.66000 17.238
86.68000 16.769
86.70000 15.420
86.72000 17.101
86.74000 19.069
86.76000 14.551
86.78000 18.396
86.80000 19.605
86.82000 20.189
86.84000 24.830
86.86000 21.248
86.88000 21.300
86.90000 21.208
86.92000 19.660
86.94000 22.770
86.96000 27.017
86.98000 19.507
87.00000 16.551
87.02000 18.800
87.04000 23.184
87.06000 19.969
87.08000 21.714
87.10000 18.042
87.12000 21.177
87.14000 17.453
87.16000 18.836
87.18000 19.019
87.20000 17.554
87.22000 17.849
87.24000 21.077
87.26000 23.674
87.28000 22.097
87.30000 22.202
87.32000 21.857
87.34000 22.435
87.36000 15.102
87.38000 13.922
87.40000 20.424
87.42000 18.079
87.44000 15.363
87.46000 18.735
87.48000 12.366
87.50000 14.945
87.52000 18.074
87.54000 20.692
87.56000 15.542
87.58000 15.366
87.60000 15.216
87.62000 11.753
87.64000 7.753
87.66000 6.472
87.68000 5.916
87.70000 1.695
87.72000 -1.236
87.74000 6.282
87.76000 7.956
87.78000 1.248
87.80000 7.734
87.82000 10.530
87.84000 6.567
87.86000 4.825
87.88000 8.052
87.90000 8.792
87.92000 5.580
87.94000 2.827
87.96000 7.812
87.98000 11.579
88.00000 5.546
88.02000 6.086
88.04000 7.137
88.06000 3.231
88.08000 1.778
88.10000 4.224
88.12000 3.926
88.14000 7.508
88.16000 4.590
88.18000 5.250
88.20000 4.511
88.22000 6.489
88.24000 6.384
88.26000 4.597
88.28000 2.226
88.30000 1.411
88.32000 3.568
88.34000 4.097
88.36000 1.657
88.38000 0.785
88.40000 5.546
88.42000 3.870
88.44000 1.160
88.46000 7.484
88.48000 7.466
88.50000 4.340
88.52000 4.938
88.54000 4.929
88.56000 3.467
88.58000 1.513
88.60000 -2.393
88.62000 0.281
88.64000 1.268
88.66000 4.852
88.68000 9.976
88.70000 5.589
88.72000 1.135
88.74000 -1.372
88.76000 2.193
88.78000 2.702
88.80000 3.333
88.82000 1.808
88.84000 2.139
88.86000 7.460
88.88000 1.119
88.90000 0.036
88.92000 -0.871
88.94000 -2.343
88.96000 1.229
88.98000 1.757
89.00000 1.536
89.02000 -0.482
89.04000 2.778
89.06000 1.749
89.08000 -0.770
89.10000 4.754
89.12000 5.396
89.14000 1.878
89.16000 -0.196
89.18000 0.737
89.20000 0.124
89.22000 0.404
89.24000 2.370
89.26000 4.771
89.28000 1.457
89.30000 0.037
89.32000 1.742
89.34000 3.368
89.36000 5.770
89.38000 8.703
89.40000 5.253
89.42000 4.735
89.44000 1.308
89.46000 -2.297
89.48000 -0.259
89.50000 -1.854
89.52000 1.298
89.54000 4.365
89.56000 0.196
89.58000 -1.123
89.60000 4.450
89.62000 4.976
89.64000 -1.340
89.66000 1.455
89.68000 3.182
89.70000 3.861
89.72000 3.647
89.74000 4.367
89.76000 5.635
89.78000 0.516
89.80000 -2.259
89.82000 0.939
89.84000 9.604
89.86000 6.324
89.88000 6.905
89.90000 7.784
89.92000 5.001
89.94000 0.931
89.96000 0.799
89.98000 4.353
90.00000 5.095
90.02000 3.007
90.04000 3.051
90.06000 3.209
90.08000 6.727
90.10000 2.896
90.12000 5.618
90.14000 1.524
90.16000 2.846
90.18000 -1.676
90.20000 1.862
90.22000 5.487
90.24000 2.162
90.26000 6.055
90.28000 8.526
90.30000 7.677
90.32000 6.420
90.34000 5.406
90.36000 5.433
90.38000 4.419
90.40000 3.114
90.42000 8.829
90.44000 6.863
90.46000 4.797
90.48000 5.316
90.50000 5.323
90.52000 3.218
90.54000 4.463
90.56000 3.485
90.58000 8.914
90.60000 11.044
90.62000 5.632
90.64000 2.988
90.66000 -1.379
90.68000 -2.206
90.70000 -0.702
90.72000 3.621
90.74000 9.565
90.76000 9.769
90.78000 6.064
90.80000 2.762
90.82000 5.037
90.84000 7.264
90.86000 2.374
90.88000 0.967
90.90000 3.768
90.92000 6.370
90.94000 4.840
90.96000 2.039
90.98000 6.498
91.00000 4.892
91.02000 6.178
91.04000 11.243
91.06000 7.257
91.08000 6.269
91.10000 4.972
91.12000 6.184
91.14000 5.558
91.16000 3.753
91.18000 8.792
91.20000 10.331
91.22000 8.404
91.24000 5.235
91.26000 3.567
91.28000 2.494
91.30000 0.123
91.32000 2.064
91.34000 4.275
91.36000 6.345
91.38000 2.782
91.40000 0.976
91.42000 0.186
91.44000 2.860
91.46000 5.677
91.48000 4.326
91.50000 6.347
91.52000 1.493
91.54000 1.791
91.56000 3.042
91.58000 1.376
91.60000 2.625
91.62000 10.094
91.64000 5.943
91.66000 -1.026
91.68000 1.482
91.70000 6.333
91.72000 8.608
91.74000 6.264
91.76000 3.954
91.78000 7.913
91.80000 4.338
91.82000 4.571
91.84000 1.772
91.86000 5.857
91.88000 7.889
91.90000 5.244
91.92000 1.757
91.94000 -0.318
91.96000 1.695
91.98000 4.814
92.00000 5.184
92.02000 6.878
92.04000 4.178
92.06000 -1.422
92.08000 0.636
92.10000 -0.902
92.12000 -2.264
92.14000 -0.621
92.16000 4.292
92.18000 5.493
92.20000 4.789
92.22000 4.481
92.24000 5.282
92.26000 7.195
92.28000 4.137
92.30000 4.216
92.32000 5.507
92.34000 9.269
92.36000 8.743
92.38000 6.911
92.40000 4.211
92.42000 0.253
92.44000 1.390
92.46000 3.281
92.48000 3.098
92.50000 1.296
92.52000 -1.044
92.54000 1.994
92.56000 4.828
92.58000 4.216
92.60000 2.177
92.62000 -1.359
92.64000 -0.685
92.66000 2.079
92.68000 1.724
92.70000 6.247
92.72000 8.499
92.74000 1.521
92.76000 0.693
92.78000 2.842
92.80000 1.643
92.82000 2.321
92.84000 1.270
92.86000 2.720
92.88000 0.879
92.90000 1.501
92.92000 2.200
92.94000 1.463
92.96000 3.442
92.98000 2.386
93.00000 3.303
93.02000 0.258
93.04000 0.122
93.06000 4.583
93.08000 8.710
93.10000 5.539
93.12000 2.354
93.14000 0.998
93.16000 1.054
93.18000 1.410
93.20000 5.738
93.22000 4.305
93.24000 -0.468
93.26000 1.660
93.28000 6.685
93.30000 -1.931
93.32000 4.602
93.34000 2.912
93.36000 0.875
93.38000 0.840
93.40000 0.082
93.42000 0.696
93.44000 8.093
93.46000 3.699
93.48000 4.772
93.50000 -2.268
93.52000 1.517
93.54000 5.005
93.56000 6.890
93.58000 2.320
93.60000 2.898
93.62000 7.639
93.64000 5.681
93.66000 2.105
93.68000 0.264
93.70000 -0.240
93.72000 2.242
93.74000 4.567
93.76000 4.006
93.78000 1.016
93.80000 3.603
93.82000 3.263
93.84000 3.959
93.86000 2.065
93.88000 -0.591
93.90000 1.910
93.92000 7.565
93.94000 4.695
93.96000 2.544
93.98000 5.580
94.00000 3.460
94.02000 0.055
94.04000 3.937
94.06000 2.291
94.08000 0.168
94.10000 -0.512
94.12000 2.589
94.14000 5.296
94.16000 4.691
94.18000 4.119
94.20000 -1.398
94.22000 -1.512
94.24000 5.290
94.26000 1.452
94.28000 -0.304
94.30000 2.648
94.32000 3.063
94.34000 4.519
94.36000 0.728
94.38000 5.391
94.40000 7.922
94.42000 5.046
94.44000 3.949
94.46000 1.812
94.48000 -0.909
94.50000 -0.334
94.52000 -0.733
94.54000 3.747
94.56000 2.699
94.58000 -1.035
94.60000 -1.444
94.62000 -0.340
94.64000 3.235
94.66000 1.357
94.68000 -2.295
94.70000 4.179
94.72000 10.550
94.74000 4.287
94.76000 1.814
94.78000 0.750
94.80000 4.902
94.82000 6.513
94.84000 1.081
94.86000 -0.679
94.88000 -0.121
94.90000 4.183
94.92000 2.989
94.94000 8.271
94.96000 12.043
94.98000 8.546
95.00000 4.167
95.02000 4.263
95.04000 6.246
95.06000 6.478
95.08000 0.563
95.10000 0.847
95.12000 -1.398
95.14000 -2.290
95.16000 -1.415
95.18000 1.880
95.20000 5.236
95.22000 10.491
95.24000 9.287
95.26000 16.137
95.28000 13.040
95.30000 5.925
95.32000 2.374
95.34000 1.408
95.36000 -0.606
95.38000 -1.470
95.40000 1.237
95.42000 4.331
95.44000 4.389
95.46000 5.748
95.48000 4.852
95.50000 7.222
95.52000 8.547
95.54000 8.026
95.56000 12.035
95.58000 6.376
95.60000 3.400
95.62000 11.714
95.64000 12.140
95.66000 3.234
95.68000 1.545
95.70000 3.488
95.72000 3.509
95.74000 5.607
95.76000 4.411
95.78000 5.964
95.80000 3.307
95.82000 -0.907
95.84000 0.495
95.86000 7.438
95.88000 7.479
95.90000 5.257
95.92000 6.078
95.94000 6.731
95.96000 6.641
95.98000 5.313
96.00000 7.473
96.02000 3.268
96.04000 -1.202
96.06000 -1.709
96.08000 0.052
96.10000 0.616
96.12000 1.692
96.14000 0.839
96.16000 -0.856
96.18000 2.469
96.20000 4.303
96.22000 2.155
96.24000 -2.267
96.26000 6.124
96.28000 6.370
96.30000 2.386
96.32000 8.430
96.34000 2.396
96.36000 -0.167
96.38000 1.109
96.40000 2.636
96.42000 10.234
96.44000 8.960
96.46000 6.527
96.48000 4.066
96.50000 6.499
96.52000 3.926
96.54000 4.669
96.56000 3.515
96.58000 -0.952
96.60000 -2.261
96.62000 4.383
96.64000 6.555
96.66000 5.867
96.68000 7.995
96.70000 4.951
96.72000 2.538
96.74000 8.382
96.76000 8.366
96.78000 1.402
96.80000 0.163
96.82000 1.482
96.84000 1.509
96.86000 3.932
96.88000 9.582
96.90000 6.473
96.92000 6.565
96.94000 5.711
96.96000 10.554
96.98000 9.813
97.00000 10.036
97.02000 8.769
97.04000 5.540
97.06000 5.392
97.08000 6.014
97.10000 8.354
97.12000 7.478
97.14000 -0.372
97.16000 2.638
97.18000 1.837
97.20000 10.172
97.22000 4.686
97.24000 -1.380
97.26000 5.151
97.28000 3.483
97.30000 3.556
97.32000 6.036
97.34000 4.730
97.36000 6.813
97.38000 3.635
97.40000 6.804
97.42000 3.972
97.44000 1.473
97.46000 5.865
97.48000 5.197
97.50000 0.076
97.52000 4.747
97.54000 8.321
97.56000 5.705
97.58000 7.079
97.60000 2.525
97.62000 2.945
97.64000 8.015
97.66000 2.519
97.68000 2.296
97.70000 8.823
97.72000 10.596
97.74000 11.188
97.76000 7.648
97.78000 3.093
97.80000 10.944
97.82000 4.999
97.84000 0.700
97.86000 1.622
97.88000 11.481
97.90000 11.048
97.92000 6.299
97.94000 7.306
97.96000 5.034
97.98000 0.401
98.00000 5.585
98.02000 5.468
98.04000 13.400
98.06000 9.446
98.08000 0.936
98.10000 4.244
98.12000 6.429
98.14000 11.447
98.16000 9.529
98.18000 10.665
98.20000 1.205
98.22000 4.945
98.24000 1.440
98.26000 -2.196
98.28000 8.152
98.30000 9.015
98.32000 3.882
98.34000 6.741
98.36000 9.694
98.38000 13.278
98.40000 11.242
98.42000 8.701
98.44000 -1.302
98.46000 5.800
98.48000 7.422
98.50000 3.722
98.52000 0.024
98.54000 11.208
98.56000 15.369
98.58000 9.548
98.60000 8.156
98.62000 8.815
98.64000 8.045
98.66000 3.649
98.68000 9.698
98.70000 8.388
98.72000 11.405
98.74000 3.916
98.76000 2.404
98.78000 2.733
98.80000 2.659
98.82000 3.217
98.84000 3.531
98.86000 4.038
98.88000 3.396
98.90000 11.934
98.92000 11.325
98.94000 2.397
98.96000 4.931
98.98000 3.628
99.00000 4.905
99.02000 5.917
99.04000 6.120
99.06000 9.879
99.08000 11.657
99.10000 2.293
99.12000 3.329
99.14000 -2.223
99.16000 2.220
99.18000 5.955
99.20000 -0.714
99.22000 2.552
99.24000 6.044
99.26000 0.815
99.28000 0.873
99.30000 7.264
99.32000 6.395
99.34000 16.524
99.36000 12.891
99.38000 2.602
99.40000 8.580
99.42000 9.588
99.44000 0.485
99.46000 8.426
99.48000 7.372
99.50000 14.536
99.52000 14.340
99.54000 3.474
99.56000 0.209
99.58000 6.812
99.60000 3.255
99.62000 7.565
99.64000 9.046
99.66000 15.374
99.68000 17.526
99.70000 8.848
99.72000 7.028
99.74000 0.464
99.76000 3.248
99.78000 2.719
99.80000 6.681
99.82000 12.160
99.84000 16.736
99.86000 3.191
99.88000 -3.387
99.90000 7.106
99.92000 10.943
99.94000 5.446
99.96000 3.934
99.98000 0.000
