'Id: "0011389" Comment: "Integrate frame 0011389_Au-Ir-Rh_Au-Rich_XRD_Mapping-119-0000.gfrmwith cursor Wedge Cursor #5" Operator: "B?rgel" Anode: "Cu" Wavelength: "1.5406" Scantype: "2Theta (TwoTheta)" TimePerStep: "1" X: "-27" Y: "-9" Z: "5.95" 
10.00000 0.000
10.02000 3.998
10.04000 -4.463
10.06000 -4.462
10.08000 14.501
10.10000 14.604
10.12000 8.071
10.14000 6.772
10.16000 8.264
10.18000 7.854
10.20000 3.573
10.22000 -1.608
10.24000 24.475
10.26000 28.459
10.28000 7.358
10.30000 2.508
10.32000 7.017
10.34000 11.455
10.36000 3.127
10.38000 0.446
10.40000 11.665
10.42000 12.767
10.44000 9.789
10.46000 7.608
10.48000 -2.120
10.50000 -3.556
10.52000 14.332
10.54000 12.663
10.56000 23.324
10.58000 30.444
10.60000 16.937
10.62000 23.007
10.64000 14.539
10.66000 -0.386
10.68000 15.958
10.70000 9.583
10.72000 0.480
10.74000 15.287
10.76000 18.888
10.78000 12.714
10.80000 14.395
10.82000 22.704
10.84000 24.140
10.86000 9.304
10.88000 20.657
10.90000 27.646
10.92000 16.482
10.94000 7.709
10.96000 10.270
10.98000 0.999
11.00000 -4.454
11.02000 3.999
11.04000 20.599
11.06000 15.134
11.08000 15.671
11.10000 26.355
11.12000 9.594
11.14000 4.028
11.16000 2.630
11.18000 9.833
11.20000 23.080
11.22000 26.038
11.24000 11.035
11.26000 4.710
11.28000 -2.272
11.30000 -0.752
11.32000 10.082
11.34000 1.017
11.36000 0.442
11.38000 1.391
11.40000 10.285
11.42000 2.953
11.44000 2.022
11.46000 9.298
11.48000 6.075
11.50000 5.847
11.52000 7.258
11.54000 12.113
11.56000 14.871
11.58000 14.730
11.60000 1.434
11.62000 2.574
11.64000 0.048
11.66000 0.447
11.68000 7.967
11.70000 5.669
11.72000 -3.733
11.74000 -2.874
11.76000 -4.288
11.78000 6.286
11.80000 12.601
11.82000 6.106
11.84000 10.693
11.86000 9.242
11.88000 3.392
11.90000 11.817
11.92000 9.890
11.94000 4.126
11.96000 4.204
11.98000 5.826
12.00000 10.352
12.02000 17.294
12.04000 6.149
12.06000 10.840
12.08000 3.011
12.10000 2.099
12.12000 3.406
12.14000 3.906
12.16000 2.081
12.18000 2.044
12.20000 3.621
12.22000 18.031
12.24000 24.580
12.26000 13.047
12.28000 4.327
12.30000 14.758
12.32000 8.959
12.34000 7.805
12.36000 19.642
12.38000 -3.088
12.40000 2.453
12.42000 8.009
12.44000 6.250
12.46000 1.611
12.48000 -1.720
12.50000 10.937
12.52000 15.805
12.54000 13.070
12.56000 8.743
12.58000 6.638
12.60000 5.885
12.62000 14.773
12.64000 11.590
12.66000 7.659
12.68000 10.917
12.70000 0.052
12.72000 5.742
12.74000 7.438
12.76000 -1.244
12.78000 -1.097
12.80000 -0.237
12.82000 0.572
12.84000 5.024
12.86000 9.368
12.88000 6.284
12.90000 6.852
12.92000 17.273
12.94000 18.807
12.96000 7.597
12.98000 3.127
13.00000 12.956
13.02000 24.270
13.04000 20.478
13.06000 8.363
13.08000 1.352
13.10000 7.466
13.12000 7.150
13.14000 0.840
13.16000 0.765
13.18000 5.190
13.20000 9.420
13.22000 4.845
13.24000 2.277
13.26000 -1.205
13.28000 -0.179
13.30000 -1.739
13.32000 14.295
13.34000 18.926
13.36000 13.939
13.38000 10.585
13.40000 15.224
13.42000 9.483
13.44000 10.947
13.46000 4.420
13.48000 -1.713
13.50000 8.966
13.52000 7.491
13.54000 5.292
13.56000 6.203
13.58000 11.625
13.60000 7.775
13.62000 -1.049
13.64000 -1.258
13.66000 1.289
13.68000 0.546
13.70000 5.411
13.72000 2.391
13.74000 6.968
13.76000 9.492
13.78000 8.942
13.80000 14.067
13.82000 12.080
13.84000 11.474
13.86000 9.268
13.88000 5.316
13.90000 0.395
13.92000 -4.501
13.94000 -2.106
13.96000 2.946
13.98000 2.728
14.00000 3.429
14.02000 16.067
14.04000 11.004
14.06000 2.972
14.08000 6.600
14.10000 7.382
14.12000 1.626
14.14000 5.618
14.16000 12.225
14.18000 10.819
14.20000 5.135
14.22000 2.799
14.24000 3.562
14.26000 8.767
14.28000 10.585
14.30000 4.360
14.32000 8.922
14.34000 7.686
14.36000 -3.942
14.38000 -0.350
14.40000 10.100
14.42000 7.856
14.44000 16.919
14.46000 14.465
14.48000 11.643
14.50000 5.436
14.52000 7.728
14.54000 8.207
14.56000 3.818
14.58000 1.134
14.60000 8.195
14.62000 8.051
14.64000 4.426
14.66000 -0.101
14.68000 5.829
14.70000 4.334
14.72000 -3.050
14.74000 4.084
14.76000 10.584
14.78000 18.032
14.80000 10.476
14.82000 4.350
14.84000 1.654
14.86000 -0.875
14.88000 7.491
14.90000 3.042
14.92000 11.852
14.94000 10.699
14.96000 -0.592
14.98000 0.332
15.00000 4.860
15.02000 -0.482
15.04000 4.538
15.06000 0.458
15.08000 1.515
15.10000 1.265
15.12000 -3.980
15.14000 -3.564
15.16000 -4.425
15.18000 3.317
15.20000 7.306
15.22000 -0.607
15.24000 0.403
15.26000 3.769
15.28000 10.722
15.30000 7.498
15.32000 0.842
15.34000 0.123
15.36000 1.549
15.38000 12.301
15.40000 13.404
15.42000 11.979
15.44000 14.815
15.46000 10.355
15.48000 8.751
15.50000 9.636
15.52000 -2.404
15.54000 0.230
15.56000 13.320
15.58000 12.281
15.60000 8.624
15.62000 2.040
15.64000 2.489
15.66000 4.267
15.68000 0.040
15.70000 3.911
15.72000 8.941
15.74000 3.963
15.76000 6.664
15.78000 6.544
15.80000 -0.509
15.82000 3.211
15.84000 -0.671
15.86000 2.207
15.88000 3.798
15.90000 1.403
15.92000 5.791
15.94000 -4.428
15.96000 1.280
15.98000 7.336
16.00000 6.525
16.02000 9.068
16.04000 10.537
16.06000 8.547
16.08000 7.252
16.10000 5.897
16.12000 1.420
16.14000 7.440
16.16000 4.669
16.18000 -3.425
16.20000 2.225
16.22000 13.646
16.24000 6.052
16.26000 4.362
16.28000 9.210
16.30000 2.460
16.32000 4.300
16.34000 6.836
16.36000 15.251
16.38000 10.979
16.40000 5.338
16.42000 4.908
16.44000 11.300
16.46000 16.768
16.48000 14.709
16.50000 10.221
16.52000 9.250
16.54000 10.933
16.56000 12.763
16.58000 6.370
16.60000 -1.870
16.62000 1.288
16.64000 16.819
16.66000 0.407
16.68000 -3.471
16.70000 1.647
16.72000 6.819
16.74000 6.055
16.76000 2.189
16.78000 6.440
16.80000 4.205
16.82000 6.712
16.84000 3.715
16.86000 4.396
16.88000 3.570
16.90000 4.811
16.92000 7.810
16.94000 9.907
16.96000 9.923
16.98000 7.731
17.00000 5.525
17.02000 3.587
17.04000 7.220
17.06000 4.899
17.08000 14.673
17.10000 17.883
17.12000 6.929
17.14000 7.956
17.16000 13.450
17.18000 11.518
17.20000 4.511
17.22000 4.742
17.24000 3.113
17.26000 4.149
17.28000 -0.537
17.30000 3.782
17.32000 0.275
17.34000 12.286
17.36000 15.327
17.38000 0.857
17.40000 0.220
17.42000 -1.436
17.44000 4.376
17.46000 4.153
17.48000 7.283
17.50000 6.106
17.52000 2.857
17.54000 -0.534
17.56000 2.324
17.58000 6.129
17.60000 8.463
17.62000 12.049
17.64000 12.946
17.66000 10.232
17.68000 6.626
17.70000 0.842
17.72000 7.173
17.74000 10.065
17.76000 9.881
17.78000 4.064
17.80000 0.229
17.82000 -0.188
17.84000 6.884
17.86000 11.298
17.88000 11.893
17.90000 7.975
17.92000 -0.018
17.94000 1.229
17.96000 -4.305
17.98000 -1.462
18.00000 3.134
18.02000 3.240
18.04000 6.664
18.06000 6.762
18.08000 9.402
18.10000 7.199
18.12000 6.392
18.14000 5.962
18.16000 11.031
18.18000 8.974
18.20000 12.112
18.22000 6.574
18.24000 5.012
18.26000 6.447
18.28000 7.353
18.30000 5.916
18.32000 4.765
18.34000 8.971
18.36000 8.127
18.38000 -0.221
18.40000 6.364
18.42000 13.490
18.44000 14.874
18.46000 8.998
18.48000 9.541
18.50000 8.594
18.52000 8.174
18.54000 0.167
18.56000 1.665
18.58000 -0.045
18.60000 3.980
18.62000 3.815
18.64000 2.044
18.66000 7.569
18.68000 5.963
18.70000 1.794
18.72000 1.140
18.74000 0.687
18.76000 10.199
18.78000 5.655
18.80000 5.223
18.82000 8.618
18.84000 10.514
18.86000 9.412
18.88000 1.351
18.90000 3.802
18.92000 9.250
18.94000 9.939
18.96000 12.466
18.98000 8.005
19.00000 2.211
19.02000 12.205
19.04000 11.561
19.06000 11.139
19.08000 8.295
19.10000 16.434
19.12000 15.533
19.14000 12.618
19.16000 10.343
19.18000 13.782
19.20000 17.815
19.22000 22.631
19.24000 11.978
19.26000 8.613
19.28000 7.172
19.30000 7.607
19.32000 14.640
19.34000 10.024
19.36000 18.296
19.38000 18.333
19.40000 12.584
19.42000 5.067
19.44000 -0.380
19.46000 -4.159
19.48000 1.623
19.50000 6.617
19.52000 10.643
19.54000 11.965
19.56000 10.951
19.58000 7.768
19.60000 11.473
19.62000 12.628
19.64000 11.137
19.66000 12.122
19.68000 13.607
19.70000 9.113
19.72000 10.771
19.74000 8.121
19.76000 5.970
19.78000 12.917
19.80000 12.892
19.82000 4.874
19.84000 8.138
19.86000 7.867
19.88000 10.003
19.90000 9.063
19.92000 11.173
19.94000 12.681
19.96000 6.376
19.98000 7.145
20.00000 18.103
20.02000 14.932
20.04000 14.044
20.06000 18.846
20.08000 11.417
20.10000 9.144
20.12000 6.804
20.14000 10.116
20.16000 4.670
20.18000 -0.901
20.20000 4.252
20.22000 8.459
20.24000 5.670
20.26000 6.528
20.28000 2.659
20.30000 3.122
20.32000 3.991
20.34000 10.129
20.36000 3.888
20.38000 -1.620
20.40000 4.967
20.42000 3.633
20.44000 5.057
20.46000 9.797
20.48000 10.077
20.50000 8.272
20.52000 8.281
20.54000 3.858
20.56000 3.679
20.58000 -0.308
20.60000 -2.751
20.62000 -0.482
20.64000 10.059
20.66000 12.483
20.68000 1.914
20.70000 6.017
20.72000 5.184
20.74000 3.680
20.76000 5.713
20.78000 6.022
20.80000 12.120
20.82000 17.026
20.84000 9.099
20.86000 4.582
20.88000 6.857
20.90000 8.052
20.92000 -2.029
20.94000 2.845
20.96000 5.364
20.98000 3.308
21.00000 0.557
21.02000 5.024
21.04000 7.434
21.06000 -1.836
21.08000 4.553
21.10000 11.236
21.12000 5.759
21.14000 6.531
21.16000 1.149
21.18000 2.635
21.20000 1.494
21.22000 6.080
21.24000 7.562
21.26000 3.041
21.28000 3.803
21.30000 5.083
21.32000 0.951
21.34000 2.383
21.36000 0.505
21.38000 2.125
21.40000 11.283
21.42000 12.762
21.44000 6.234
21.46000 6.617
21.48000 7.582
21.50000 1.309
21.52000 3.052
21.54000 0.653
21.56000 2.169
21.58000 1.789
21.60000 8.476
21.62000 10.149
21.64000 4.506
21.66000 10.447
21.68000 7.365
21.70000 6.558
21.72000 2.412
21.74000 -3.868
21.76000 0.835
21.78000 1.896
21.80000 -1.301
21.82000 7.328
21.84000 4.751
21.86000 6.167
21.88000 4.525
21.90000 5.031
21.92000 5.588
21.94000 13.052
21.96000 9.635
21.98000 2.488
22.00000 2.658
22.02000 6.495
22.04000 10.135
22.06000 10.850
22.08000 8.643
22.10000 1.954
22.12000 4.846
22.14000 2.130
22.16000 0.331
22.18000 6.676
22.20000 6.088
22.22000 7.269
22.24000 3.604
22.26000 -2.942
22.28000 -4.067
22.30000 -1.362
22.32000 6.416
22.34000 7.150
22.36000 10.102
22.38000 8.366
22.40000 5.873
22.42000 0.988
22.44000 0.074
22.46000 5.516
22.48000 9.797
22.50000 10.683
22.52000 9.610
22.54000 12.296
22.56000 9.555
22.58000 2.026
22.60000 2.993
22.62000 0.947
22.64000 4.033
22.66000 4.579
22.68000 1.934
22.70000 2.178
22.72000 5.465
22.74000 9.003
22.76000 5.065
22.78000 5.367
22.80000 3.725
22.82000 6.843
22.84000 8.193
22.86000 5.587
22.88000 5.612
22.90000 3.929
22.92000 7.319
22.94000 -4.029
22.96000 -0.420
22.98000 6.154
23.00000 14.061
23.02000 10.574
23.04000 2.341
23.06000 0.942
23.08000 5.169
23.10000 3.981
23.12000 1.139
23.14000 1.396
23.16000 4.326
23.18000 10.439
23.20000 8.310
23.22000 5.123
23.24000 4.745
23.26000 3.140
23.28000 1.505
23.30000 3.354
23.32000 2.670
23.34000 -1.072
23.36000 -0.200
23.38000 3.207
23.40000 6.392
23.42000 10.019
23.44000 5.292
23.46000 2.749
23.48000 0.036
23.50000 1.418
23.52000 8.753
23.54000 6.947
23.56000 3.664
23.58000 3.007
23.60000 5.820
23.62000 7.460
23.64000 6.529
23.66000 6.065
23.68000 2.509
23.70000 1.407
23.72000 5.843
23.74000 9.381
23.76000 6.348
23.78000 6.470
23.80000 10.457
23.82000 12.053
23.84000 10.892
23.86000 8.195
23.88000 1.764
23.90000 -3.963
23.92000 0.082
23.94000 0.723
23.96000 7.864
23.98000 8.361
24.00000 4.879
24.02000 5.807
24.04000 8.346
24.06000 5.463
24.08000 4.582
24.10000 5.828
24.12000 1.740
24.14000 -3.288
24.16000 -0.098
24.18000 3.297
24.20000 5.044
24.22000 -1.361
24.24000 2.114
24.26000 0.068
24.28000 2.701
24.30000 5.423
24.32000 8.124
24.34000 8.688
24.36000 4.379
24.38000 2.272
24.40000 -2.988
24.42000 6.711
24.44000 10.063
24.46000 7.136
24.48000 8.012
24.50000 3.090
24.52000 -1.459
24.54000 5.000
24.56000 8.905
24.58000 8.745
24.60000 3.054
24.62000 -3.562
24.64000 1.846
24.66000 5.257
24.68000 1.374
24.70000 8.488
24.72000 15.601
24.74000 11.336
24.76000 9.793
24.78000 10.605
24.80000 7.090
24.82000 7.498
24.84000 2.047
24.86000 4.301
24.88000 6.845
24.90000 1.603
24.92000 -0.780
24.94000 0.109
24.96000 0.280
24.98000 2.133
25.00000 1.443
25.02000 3.110
25.04000 3.757
25.06000 5.979
25.08000 2.249
25.10000 -1.417
25.12000 0.581
25.14000 6.160
25.16000 6.554
25.18000 5.398
25.20000 2.844
25.22000 0.637
25.24000 4.035
25.26000 5.125
25.28000 2.299
25.30000 5.192
25.32000 1.124
25.34000 0.426
25.36000 4.288
25.38000 1.825
25.40000 -1.113
25.42000 -2.243
25.44000 0.569
25.46000 2.515
25.48000 -1.418
25.50000 1.682
25.52000 0.761
25.54000 4.119
25.56000 3.340
25.58000 2.691
25.60000 0.727
25.62000 -0.917
25.64000 1.987
25.66000 0.217
25.68000 1.172
25.70000 2.739
25.72000 5.179
25.74000 6.597
25.76000 10.318
25.78000 6.472
25.80000 3.217
25.82000 -1.058
25.84000 -1.622
25.86000 5.191
25.88000 2.986
25.90000 2.202
25.92000 4.288
25.94000 4.258
25.96000 8.772
25.98000 5.568
26.00000 1.630
26.02000 -0.303
26.04000 -0.977
26.06000 0.956
26.08000 -3.879
26.10000 0.522
26.12000 3.017
26.14000 1.850
26.16000 5.530
26.18000 7.697
26.20000 6.925
26.22000 4.239
26.24000 4.497
26.26000 5.392
26.28000 7.739
26.30000 0.604
26.32000 4.629
26.34000 3.098
26.36000 0.797
26.38000 0.400
26.40000 3.064
26.42000 0.120
26.44000 0.217
26.46000 1.796
26.48000 1.483
26.50000 -0.844
26.52000 -1.144
26.54000 -0.480
26.56000 -3.065
26.58000 2.474
26.60000 2.844
26.62000 4.476
26.64000 1.762
26.66000 4.289
26.68000 7.387
26.70000 6.180
26.72000 1.570
26.74000 1.641
26.76000 3.658
26.78000 0.658
26.80000 -1.988
26.82000 -1.326
26.84000 -1.884
26.86000 1.932
26.88000 4.244
26.90000 3.775
26.92000 6.899
26.94000 3.327
26.96000 1.090
26.98000 3.176
27.00000 1.908
27.02000 1.337
27.04000 0.431
27.06000 -1.677
27.08000 0.375
27.10000 -0.570
27.12000 0.775
27.14000 -2.987
27.16000 0.245
27.18000 3.976
27.20000 0.513
27.22000 -2.704
27.24000 -3.572
27.26000 -2.377
27.28000 2.291
27.30000 1.995
27.32000 3.054
27.34000 2.324
27.36000 0.920
27.38000 5.668
27.40000 1.455
27.42000 1.013
27.44000 2.532
27.46000 -1.940
27.48000 -1.144
27.50000 2.655
27.52000 2.390
27.54000 2.810
27.56000 -1.539
27.58000 -0.042
27.60000 1.614
27.62000 -2.521
27.64000 -0.643
27.66000 3.392
27.68000 2.882
27.70000 0.995
27.72000 0.044
27.74000 3.909
27.76000 -0.354
27.78000 -2.098
27.80000 0.412
27.82000 2.425
27.84000 -0.670
27.86000 3.411
27.88000 3.666
27.90000 1.393
27.92000 0.500
27.94000 2.369
27.96000 -0.745
27.98000 1.118
28.00000 -1.543
28.02000 1.172
28.04000 -0.606
28.06000 3.143
28.08000 1.690
28.10000 2.446
28.12000 -0.174
28.14000 -2.459
28.16000 -3.793
28.18000 3.270
28.20000 1.773
28.22000 0.176
28.24000 0.801
28.26000 2.241
28.28000 2.502
28.30000 1.958
28.32000 0.257
28.34000 1.995
28.36000 2.358
28.38000 3.681
28.40000 1.889
28.42000 6.235
28.44000 0.911
28.46000 1.164
28.48000 1.974
28.50000 2.413
28.52000 9.110
28.54000 8.209
28.56000 -0.219
28.58000 -3.756
28.60000 -1.919
28.62000 -0.419
28.64000 4.756
28.66000 8.294
28.68000 6.184
28.70000 2.067
28.72000 -0.337
28.74000 2.966
28.76000 0.469
28.78000 1.189
28.80000 1.413
28.82000 1.072
28.84000 1.318
28.86000 4.312
28.88000 5.554
28.90000 1.596
28.92000 -0.365
28.94000 -1.030
28.96000 5.293
28.98000 1.693
29.00000 1.258
29.02000 -1.222
29.04000 0.271
29.06000 -2.124
29.08000 0.417
29.10000 8.477
29.12000 3.801
29.14000 1.943
29.16000 7.655
29.18000 4.654
29.20000 1.885
29.22000 7.259
29.24000 6.784
29.26000 7.434
29.28000 5.437
29.30000 0.942
29.32000 -3.510
29.34000 -3.721
29.36000 0.337
29.38000 -2.019
29.40000 0.372
29.42000 5.211
29.44000 2.881
29.46000 -2.940
29.48000 0.157
29.50000 -1.208
29.52000 -0.860
29.54000 1.415
29.56000 2.873
29.58000 4.608
29.60000 1.267
29.62000 1.342
29.64000 3.317
29.66000 2.677
29.68000 -3.379
29.70000 -0.285
29.72000 3.598
29.74000 2.327
29.76000 -0.761
29.78000 -3.692
29.80000 0.706
29.82000 3.047
29.84000 1.679
29.86000 -3.332
29.88000 2.556
29.90000 4.356
29.92000 5.830
29.94000 2.108
29.96000 3.224
29.98000 5.848
30.00000 7.315
30.02000 1.408
30.04000 -3.060
30.06000 -0.580
30.08000 0.797
30.10000 1.109
30.12000 -0.401
30.14000 -3.672
30.16000 0.288
30.18000 4.105
30.20000 2.849
30.22000 3.689
30.24000 11.530
30.26000 12.026
30.28000 4.207
30.30000 1.570
30.32000 6.223
30.34000 2.569
30.36000 3.217
30.38000 4.852
30.40000 5.962
30.42000 0.933
30.44000 -1.273
30.46000 0.580
30.48000 -1.193
30.50000 -3.655
30.52000 -1.117
30.54000 3.177
30.56000 -0.314
30.58000 -0.374
30.60000 0.338
30.62000 0.073
30.64000 -0.153
30.66000 -0.864
30.68000 4.807
30.70000 5.606
30.72000 4.906
30.74000 9.025
30.76000 5.874
30.78000 -3.494
30.80000 -1.252
30.82000 0.191
30.84000 -2.241
30.86000 -0.231
30.88000 4.371
30.90000 6.861
30.92000 1.251
30.94000 3.438
30.96000 -0.090
30.98000 1.255
31.00000 -2.120
31.02000 4.646
31.04000 5.879
31.06000 1.040
31.08000 -0.962
31.10000 -0.115
31.12000 -2.015
31.14000 -0.404
31.16000 -0.855
31.18000 3.300
31.20000 5.045
31.22000 2.115
31.24000 4.956
31.26000 2.165
31.28000 0.100
31.30000 3.166
31.32000 5.022
31.34000 2.643
31.36000 1.029
31.38000 1.712
31.40000 -2.193
31.42000 -0.914
31.44000 -1.444
31.46000 -3.621
31.48000 1.502
31.50000 1.776
31.52000 2.938
31.54000 5.579
31.56000 6.174
31.58000 8.428
31.60000 5.682
31.62000 7.941
31.64000 2.736
31.66000 2.027
31.68000 5.437
31.70000 6.355
31.72000 2.105
31.74000 1.137
31.76000 3.863
31.78000 -0.031
31.80000 -3.611
31.82000 -0.339
31.84000 1.162
31.86000 3.556
31.88000 8.093
31.90000 6.268
31.92000 6.902
31.94000 1.280
31.96000 3.573
31.98000 0.594
32.00000 -0.500
32.02000 1.135
32.04000 -0.340
32.06000 4.038
32.08000 5.116
32.10000 7.690
32.12000 4.922
32.14000 -0.749
32.16000 -0.446
32.18000 5.202
32.20000 7.043
32.22000 1.809
32.24000 4.931
32.26000 2.644
32.28000 3.987
32.30000 5.503
32.32000 4.879
32.34000 2.945
32.36000 7.688
32.38000 9.104
32.40000 6.199
32.42000 3.006
32.44000 0.601
32.46000 -2.176
32.48000 0.328
32.50000 3.110
32.52000 4.349
32.54000 1.440
32.56000 2.962
32.58000 4.187
32.60000 3.788
32.62000 1.222
32.64000 3.778
32.66000 4.930
32.68000 7.940
32.70000 4.801
32.72000 2.078
32.74000 3.377
32.76000 3.136
32.78000 1.884
32.80000 2.648
32.82000 0.859
32.84000 0.473
32.86000 1.835
32.88000 0.131
32.90000 -3.577
32.92000 -2.131
32.94000 0.090
32.96000 2.269
32.98000 -0.777
33.00000 -2.306
33.02000 -2.090
33.04000 2.596
33.06000 8.334
33.08000 5.447
33.10000 4.539
33.12000 5.365
33.14000 6.646
33.16000 4.288
33.18000 3.700
33.20000 2.366
33.22000 2.109
33.24000 4.906
33.26000 7.477
33.28000 4.631
33.30000 -0.607
33.32000 1.046
33.34000 3.177
33.36000 3.779
33.38000 0.242
33.40000 3.991
33.42000 3.474
33.44000 2.262
33.46000 3.403
33.48000 4.112
33.50000 5.406
33.52000 4.907
33.54000 6.244
33.56000 5.946
33.58000 3.204
33.60000 1.202
33.62000 6.567
33.64000 5.003
33.66000 3.596
33.68000 5.122
33.70000 9.890
33.72000 -0.063
33.74000 -0.393
33.76000 2.338
33.78000 2.767
33.80000 7.423
33.82000 2.792
33.84000 6.195
33.86000 8.716
33.88000 6.712
33.90000 4.099
33.92000 3.211
33.94000 4.550
33.96000 5.813
33.98000 6.102
34.00000 4.125
34.02000 4.882
34.04000 5.865
34.06000 3.452
34.08000 -0.207
34.10000 2.036
34.12000 2.096
34.14000 2.681
34.16000 3.029
34.18000 7.343
34.20000 2.786
34.22000 3.778
34.24000 1.093
34.26000 3.302
34.28000 5.037
34.30000 1.045
34.32000 -1.912
34.34000 1.021
34.36000 3.171
34.38000 -0.511
34.40000 2.320
34.42000 7.463
34.44000 5.038
34.46000 -1.661
34.48000 1.942
34.50000 0.328
34.52000 0.144
34.54000 5.792
34.56000 5.569
34.58000 2.358
34.60000 3.792
34.62000 3.332
34.64000 5.202
34.66000 6.584
34.68000 0.292
34.70000 -0.449
34.72000 7.087
34.74000 2.768
34.76000 2.075
34.78000 -3.562
34.80000 -3.243
34.82000 1.191
34.84000 -0.003
34.86000 -0.192
34.88000 4.721
34.90000 3.752
34.92000 0.258
34.94000 -2.511
34.96000 0.754
34.98000 3.865
35.00000 7.811
35.02000 1.458
35.04000 -1.871
35.06000 1.195
35.08000 -0.387
35.10000 0.510
35.12000 6.193
35.14000 1.858
35.16000 -0.815
35.18000 -0.864
35.20000 -2.633
35.22000 -0.351
35.24000 1.207
35.26000 1.316
35.28000 -0.862
35.30000 4.494
35.32000 5.051
35.34000 1.895
35.36000 -1.389
35.38000 -2.643
35.40000 -0.802
35.42000 -2.955
35.44000 0.549
35.46000 1.343
35.48000 2.297
35.50000 2.301
35.52000 -0.325
35.54000 -3.585
35.56000 -3.182
35.58000 -2.279
35.60000 0.731
35.62000 5.844
35.64000 6.369
35.66000 6.064
35.68000 1.829
35.70000 1.688
35.72000 8.031
35.74000 3.106
35.76000 2.708
35.78000 -1.357
35.80000 -0.403
35.82000 4.302
35.84000 4.252
35.86000 -1.089
35.88000 -0.699
35.90000 2.135
35.92000 -0.376
35.94000 0.976
35.96000 0.965
35.98000 3.909
36.00000 5.132
36.02000 2.320
36.04000 -1.983
36.06000 -1.873
36.08000 2.702
36.10000 3.939
36.12000 -1.430
36.14000 -3.588
36.16000 -0.564
36.18000 -3.189
36.20000 1.939
36.22000 4.115
36.24000 0.496
36.26000 -1.656
36.28000 1.606
36.30000 5.258
36.32000 5.689
36.34000 0.283
36.36000 -0.282
36.38000 0.491
36.40000 1.080
36.42000 -1.256
36.44000 -1.809
36.46000 4.448
36.48000 2.619
36.50000 1.999
36.52000 -2.044
36.54000 -2.306
36.56000 -1.895
36.58000 7.221
36.60000 8.793
36.62000 5.500
36.64000 0.794
36.66000 2.302
36.68000 2.089
36.70000 -0.183
36.72000 0.490
36.74000 4.527
36.76000 5.249
36.78000 7.881
36.80000 11.847
36.82000 6.451
36.84000 12.287
36.86000 5.154
36.88000 2.304
36.90000 5.635
36.92000 7.863
36.94000 4.386
36.96000 -0.643
36.98000 2.666
37.00000 6.483
37.02000 4.384
37.04000 3.266
37.06000 6.486
37.08000 6.870
37.10000 8.659
37.12000 5.530
37.14000 0.425
37.16000 7.338
37.18000 8.529
37.20000 10.480
37.22000 10.960
37.24000 5.732
37.26000 7.084
37.28000 5.641
37.30000 4.837
37.32000 11.033
37.34000 14.460
37.36000 9.147
37.38000 10.611
37.40000 10.057
37.42000 13.139
37.44000 8.869
37.46000 8.878
37.48000 14.781
37.50000 13.398
37.52000 8.642
37.54000 11.816
37.56000 12.351
37.58000 12.886
37.60000 14.485
37.62000 14.617
37.64000 16.079
37.66000 18.000
37.68000 14.541
37.70000 17.855
37.72000 19.130
37.74000 20.999
37.76000 14.572
37.78000 15.548
37.80000 18.451
37.82000 21.302
37.84000 20.550
37.86000 27.468
37.88000 26.104
37.90000 21.553
37.92000 25.225
37.94000 27.508
37.96000 26.454
37.98000 25.270
38.00000 26.204
38.02000 27.906
38.04000 32.128
38.06000 34.869
38.08000 35.399
38.10000 34.641
38.12000 35.924
38.14000 37.440
38.16000 39.657
38.18000 41.624
38.20000 41.722
38.22000 42.738
38.24000 43.018
38.26000 43.156
38.28000 48.051
38.30000 50.569
38.32000 50.925
38.34000 49.640
38.36000 54.193
38.38000 60.766
38.40000 64.039
38.42000 64.437
38.44000 63.000
38.46000 68.936
38.48000 67.545
38.50000 72.926
38.52000 78.521
38.54000 81.295
38.56000 81.018
38.58000 85.862
38.60000 83.163
38.62000 91.953
38.64000 101.090
38.66000 103.877
38.68000 104.928
38.70000 111.808
38.72000 118.909
38.74000 128.509
38.76000 138.389
38.78000 148.949
38.80000 154.860
38.82000 161.884
38.84000 169.957
38.86000 178.476
38.88000 187.537
38.90000 207.047
38.92000 220.549
38.94000 236.429
38.96000 248.054
38.98000 262.508
39.00000 274.999
39.02000 288.710
39.04000 309.478
39.06000 331.302
39.08000 344.955
39.10000 362.362
39.12000 375.366
39.14000 384.072
39.16000 397.453
39.18000 417.724
39.20000 431.087
39.22000 444.630
39.24000 464.472
39.26000 481.119
39.28000 479.742
39.30000 483.372
39.32000 480.369
39.34000 490.440
39.36000 494.992
39.38000 494.739
39.40000 486.728
39.42000 479.238
39.44000 488.513
39.46000 487.239
39.48000 476.649
39.50000 457.840
39.52000 444.205
39.54000 424.965
39.56000 413.198
39.58000 407.876
39.60000 390.836
39.62000 366.637
39.64000 354.519
39.66000 342.270
39.68000 318.600
39.70000 303.257
39.72000 295.784
39.74000 270.017
39.76000 252.254
39.78000 232.448
39.80000 220.539
39.82000 209.010
39.84000 200.926
39.86000 185.723
39.88000 173.351
39.90000 165.818
39.92000 155.051
39.94000 140.082
39.96000 129.878
39.98000 124.972
40.00000 113.892
40.02000 110.570
40.04000 104.565
40.06000 95.508
40.08000 93.306
40.10000 89.399
40.12000 85.074
40.14000 78.250
40.16000 74.198
40.18000 65.511
40.20000 63.836
40.22000 61.564
40.24000 59.579
40.26000 59.718
40.28000 58.350
40.30000 50.359
40.32000 45.138
40.34000 44.121
40.36000 41.584
40.38000 36.730
40.40000 33.585
40.42000 32.055
40.44000 32.997
40.46000 37.161
40.48000 37.866
40.50000 33.698
40.52000 34.624
40.54000 33.480
40.56000 29.823
40.58000 28.594
40.60000 27.363
40.62000 23.159
40.64000 25.140
40.66000 29.250
40.68000 22.832
40.70000 21.219
40.72000 20.387
40.74000 16.331
40.76000 18.295
40.78000 16.152
40.80000 15.345
40.82000 13.948
40.84000 13.795
40.86000 14.382
40.88000 11.299
40.90000 13.567
40.92000 13.190
40.94000 13.240
40.96000 11.762
40.98000 12.679
41.00000 11.103
41.02000 10.496
41.04000 11.705
41.06000 10.436
41.08000 9.022
41.10000 8.829
41.12000 11.340
41.14000 11.716
41.16000 13.446
41.18000 6.733
41.20000 5.638
41.22000 4.432
41.24000 5.313
41.26000 8.324
41.28000 7.841
41.30000 7.561
41.32000 8.893
41.34000 4.374
41.36000 4.266
41.38000 5.056
41.40000 5.464
41.42000 6.888
41.44000 6.993
41.46000 5.571
41.48000 6.648
41.50000 1.572
41.52000 -3.452
41.54000 2.209
41.56000 4.274
41.58000 3.802
41.60000 5.477
41.62000 4.005
41.64000 6.242
41.66000 3.107
41.68000 4.094
41.70000 2.969
41.72000 8.062
41.74000 5.155
41.76000 3.203
41.78000 4.465
41.80000 7.237
41.82000 2.555
41.84000 -0.836
41.86000 4.460
41.88000 -0.234
41.90000 0.585
41.92000 3.632
41.94000 3.039
41.96000 2.711
41.98000 -1.699
42.00000 0.321
42.02000 1.180
42.04000 -1.187
42.06000 1.498
42.08000 -0.934
42.10000 -3.367
42.12000 -0.980
42.14000 0.712
42.16000 1.068
42.18000 1.838
42.20000 2.138
42.22000 3.578
42.24000 1.510
42.26000 5.438
42.28000 6.756
42.30000 7.835
42.32000 4.306
42.34000 -2.737
42.36000 -0.458
42.38000 3.613
42.40000 3.705
42.42000 5.354
42.44000 3.030
42.46000 2.575
42.48000 -0.941
42.50000 1.717
42.52000 2.811
42.54000 2.674
42.56000 3.107
42.58000 -2.347
42.60000 -3.304
42.62000 -0.050
42.64000 2.657
42.66000 1.624
42.68000 4.611
42.70000 4.191
42.72000 6.698
42.74000 7.296
42.76000 1.275
42.78000 -1.253
42.80000 -1.218
42.82000 1.958
42.84000 5.787
42.86000 4.055
42.88000 1.626
42.90000 5.697
42.92000 6.030
42.94000 1.847
42.96000 0.623
42.98000 0.814
43.00000 0.468
43.02000 0.230
43.04000 1.752
43.06000 1.298
43.08000 0.131
43.10000 0.201
43.12000 1.339
43.14000 3.442
43.16000 4.234
43.18000 6.158
43.20000 5.265
43.22000 -1.200
43.24000 1.349
43.26000 0.531
43.28000 7.311
43.30000 9.467
43.32000 5.935
43.34000 5.499
43.36000 3.735
43.38000 3.223
43.40000 0.508
43.42000 0.154
43.44000 1.268
43.46000 0.001
43.48000 4.777
43.50000 7.433
43.52000 1.158
43.54000 -3.205
43.56000 -2.352
43.58000 1.489
43.60000 2.241
43.62000 1.411
43.64000 1.836
43.66000 5.077
43.68000 -0.144
43.70000 0.862
43.72000 0.531
43.74000 1.018
43.76000 1.123
43.78000 0.306
43.80000 1.202
43.82000 1.446
43.84000 1.259
43.86000 -0.538
43.88000 -0.112
43.90000 -0.976
43.92000 1.638
43.94000 1.885
43.96000 2.120
43.98000 1.783
44.00000 1.186
44.02000 0.707
44.04000 2.926
44.06000 2.981
44.08000 2.780
44.10000 2.820
44.12000 2.322
44.14000 1.687
44.16000 3.024
44.18000 5.012
44.20000 3.669
44.22000 1.819
44.24000 0.135
44.26000 0.553
44.28000 -1.084
44.30000 -3.041
44.32000 1.306
44.34000 2.649
44.36000 3.694
44.38000 1.226
44.40000 1.177
44.42000 2.020
44.44000 -0.604
44.46000 -3.165
44.48000 0.288
44.50000 4.168
44.52000 2.297
44.54000 4.520
44.56000 6.787
44.58000 5.438
44.60000 6.106
44.62000 8.589
44.64000 6.307
44.66000 6.902
44.68000 3.640
44.70000 6.191
44.72000 5.057
44.74000 2.874
44.76000 5.756
44.78000 8.523
44.80000 7.930
44.82000 8.132
44.84000 9.389
44.86000 8.600
44.88000 7.083
44.90000 8.414
44.92000 11.583
44.94000 11.151
44.96000 7.177
44.98000 8.114
45.00000 13.264
45.02000 13.108
45.04000 10.447
45.06000 8.335
45.08000 13.003
45.10000 13.829
45.12000 14.858
45.14000 16.439
45.16000 17.777
45.18000 17.876
45.20000 22.826
45.22000 24.762
45.24000 24.585
45.26000 25.222
45.28000 26.400
45.30000 27.368
45.32000 27.184
45.34000 20.542
45.36000 23.149
45.38000 25.731
45.40000 29.154
45.42000 31.065
45.44000 33.207
45.46000 32.959
45.48000 34.022
45.50000 34.640
45.52000 35.454
45.54000 43.019
45.56000 42.697
45.58000 41.836
45.60000 45.101
45.62000 44.327
45.64000 51.097
45.66000 53.781
45.68000 53.401
45.70000 51.158
45.72000 53.531
45.74000 55.598
45.76000 55.051
45.78000 58.180
45.80000 60.402
45.82000 61.694
45.84000 61.367
45.86000 61.521
45.88000 63.651
45.90000 64.850
45.92000 69.881
45.94000 64.892
45.96000 62.313
45.98000 68.180
46.00000 68.158
46.02000 69.990
46.04000 65.317
46.06000 61.532
46.08000 60.054
46.10000 61.589
46.12000 60.058
46.14000 59.507
46.16000 58.399
46.18000 58.852
46.20000 53.194
46.22000 51.737
46.24000 56.096
46.26000 52.247
46.28000 50.195
46.30000 48.385
46.32000 47.903
46.34000 44.530
46.36000 43.336
46.38000 40.469
46.40000 38.974
46.42000 38.597
46.44000 34.568
46.46000 30.305
46.48000 28.760
46.50000 25.929
46.52000 25.951
46.54000 24.331
46.56000 25.651
46.58000 20.949
46.60000 20.436
46.62000 23.768
46.64000 20.700
46.66000 19.009
46.68000 17.928
46.70000 18.088
46.72000 17.445
46.74000 12.837
46.76000 15.241
46.78000 9.553
46.80000 10.741
46.82000 9.157
46.84000 6.686
46.86000 6.606
46.88000 10.962
46.90000 10.093
46.92000 9.000
46.94000 7.583
46.96000 4.477
46.98000 3.729
47.00000 3.513
47.02000 -0.829
47.04000 -1.018
47.06000 3.993
47.08000 6.780
47.10000 5.981
47.12000 3.136
47.14000 -0.756
47.16000 -0.564
47.18000 -1.511
47.20000 -1.700
47.22000 -0.148
47.24000 2.794
47.26000 0.286
47.28000 4.137
47.30000 2.543
47.32000 0.016
47.34000 -0.454
47.36000 -0.774
47.38000 0.070
47.40000 1.350
47.42000 -0.828
47.44000 -2.851
47.46000 -1.429
47.48000 -1.835
47.50000 -1.696
47.52000 -1.895
47.54000 0.920
47.56000 -0.925
47.58000 -1.804
47.60000 -2.820
47.62000 0.273
47.64000 -0.367
47.66000 0.523
47.68000 0.074
47.70000 -0.999
47.72000 1.124
47.74000 -1.474
47.76000 0.039
47.78000 -1.029
47.80000 -2.777
47.82000 2.136
47.84000 1.482
47.86000 -0.097
47.88000 1.658
47.90000 3.472
47.92000 4.428
47.94000 3.011
47.96000 1.919
47.98000 5.095
48.00000 1.031
48.02000 3.650
48.04000 8.580
48.06000 7.289
48.08000 6.409
48.10000 4.047
48.12000 1.645
48.14000 1.539
48.16000 0.345
48.18000 1.202
48.20000 2.001
48.22000 3.912
48.24000 0.599
48.26000 0.938
48.28000 1.377
48.30000 1.041
48.32000 2.911
48.34000 6.845
48.36000 7.528
48.38000 6.143
48.40000 -0.255
48.42000 0.694
48.44000 4.132
48.46000 5.579
48.48000 2.027
48.50000 1.712
48.52000 6.916
48.54000 7.450
48.56000 5.961
48.58000 3.476
48.60000 4.438
48.62000 2.765
48.64000 2.243
48.66000 4.686
48.68000 4.822
48.70000 7.056
48.72000 5.664
48.74000 4.129
48.76000 -1.570
48.78000 -2.643
48.80000 3.944
48.82000 5.293
48.84000 0.229
48.86000 5.441
48.88000 2.086
48.90000 1.834
48.92000 2.620
48.94000 5.153
48.96000 5.027
48.98000 1.787
49.00000 0.539
49.02000 2.820
49.04000 3.647
49.06000 9.966
49.08000 5.370
49.10000 1.383
49.12000 3.719
49.14000 4.749
49.16000 2.893
49.18000 -0.104
49.20000 2.881
49.22000 4.188
49.24000 3.037
49.26000 3.939
49.28000 1.579
49.30000 3.137
49.32000 -0.111
49.34000 1.817
49.36000 4.102
49.38000 0.474
49.40000 2.634
49.42000 1.925
49.44000 4.075
49.46000 4.655
49.48000 3.340
49.50000 -0.879
49.52000 -0.569
49.54000 0.707
49.56000 0.248
49.58000 -1.534
49.60000 0.692
49.62000 1.994
49.64000 -0.386
49.66000 1.212
49.68000 4.441
49.70000 7.373
49.72000 2.091
49.74000 -2.613
49.76000 -1.734
49.78000 2.400
49.80000 3.575
49.82000 3.127
49.84000 3.654
49.86000 3.517
49.88000 1.463
49.90000 2.629
49.92000 5.507
49.94000 3.467
49.96000 2.766
49.98000 7.378
50.00000 13.497
50.02000 8.949
50.04000 2.845
50.06000 1.324
50.08000 4.384
50.10000 5.724
50.12000 7.608
50.14000 4.127
50.16000 -2.586
50.18000 -1.999
50.20000 1.396
50.22000 4.287
50.24000 4.993
50.26000 1.853
50.28000 0.912
50.30000 0.144
50.32000 0.930
50.34000 0.324
50.36000 3.199
50.38000 6.558
50.40000 4.937
50.42000 4.482
50.44000 0.866
50.46000 2.122
50.48000 4.217
50.50000 0.056
50.52000 6.006
50.54000 7.713
50.56000 3.298
50.58000 1.555
50.60000 4.927
50.62000 1.938
50.64000 -0.518
50.66000 3.191
50.68000 0.336
50.70000 -0.519
50.72000 0.210
50.74000 4.683
50.76000 4.230
50.78000 3.494
50.80000 5.843
50.82000 4.063
50.84000 4.845
50.86000 4.171
50.88000 4.101
50.90000 6.844
50.92000 5.486
50.94000 4.377
50.96000 4.507
50.98000 4.863
51.00000 4.437
51.02000 5.724
51.04000 3.651
51.06000 0.568
51.08000 0.416
51.10000 2.401
51.12000 2.184
51.14000 1.044
51.16000 3.962
51.18000 4.465
51.20000 8.540
51.22000 3.367
51.24000 5.736
51.26000 8.383
51.28000 9.745
51.30000 9.599
51.32000 1.679
51.34000 -2.278
51.36000 -2.530
51.38000 2.701
51.40000 6.093
51.42000 5.406
51.44000 8.564
51.46000 8.609
51.48000 3.970
51.50000 -0.454
51.52000 3.182
51.54000 4.155
51.56000 5.448
51.58000 8.189
51.60000 4.605
51.62000 0.403
51.64000 1.851
51.66000 6.077
51.68000 4.660
51.70000 3.444
51.72000 3.004
51.74000 3.146
51.76000 3.124
51.78000 3.504
51.80000 4.183
51.82000 1.950
51.84000 1.994
51.86000 4.084
51.88000 4.962
51.90000 3.333
51.92000 3.849
51.94000 1.871
51.96000 -2.095
51.98000 -1.612
52.00000 1.770
52.02000 3.067
52.04000 1.699
52.06000 2.733
52.08000 1.956
52.10000 4.215
52.12000 5.522
52.14000 5.675
52.16000 4.136
52.18000 6.623
52.20000 5.343
52.22000 0.528
52.24000 -1.229
52.26000 -2.526
52.28000 10.862
52.30000 5.674
52.32000 0.228
52.34000 -0.922
52.36000 -0.371
52.38000 4.892
52.40000 4.734
52.42000 4.438
52.44000 4.497
52.46000 0.690
52.48000 2.004
52.50000 1.165
52.52000 5.228
52.54000 5.668
52.56000 1.525
52.58000 1.257
52.60000 3.522
52.62000 6.595
52.64000 4.129
52.66000 1.960
52.68000 1.333
52.70000 1.204
52.72000 3.883
52.74000 5.406
52.76000 5.432
52.78000 2.187
52.80000 4.255
52.82000 2.927
52.84000 0.621
52.86000 2.382
52.88000 0.795
52.90000 4.298
52.92000 7.189
52.94000 5.726
52.96000 1.933
52.98000 4.310
53.00000 2.226
53.02000 0.276
53.04000 3.245
53.06000 0.887
53.08000 1.080
53.10000 6.342
53.12000 5.057
53.14000 2.531
53.16000 1.586
53.18000 5.638
53.20000 2.471
53.22000 2.036
53.24000 0.388
53.26000 3.202
53.28000 1.905
53.30000 -0.420
53.32000 3.454
53.34000 3.762
53.36000 2.081
53.38000 3.132
53.40000 3.461
53.42000 3.739
53.44000 4.902
53.46000 5.511
53.48000 5.283
53.50000 1.986
53.52000 3.810
53.54000 3.627
53.56000 4.951
53.58000 4.389
53.60000 5.601
53.62000 6.515
53.64000 6.181
53.66000 4.605
53.68000 0.318
53.70000 -1.189
53.72000 -2.498
53.74000 1.501
53.76000 0.325
53.78000 -0.343
53.80000 1.935
53.82000 2.163
53.84000 1.002
53.86000 0.284
53.88000 -0.304
53.90000 2.055
53.92000 -0.362
53.94000 -1.316
53.96000 -0.524
53.98000 4.162
54.00000 6.514
54.02000 1.039
54.04000 1.013
54.06000 4.378
54.08000 2.517
54.10000 -1.749
54.12000 3.895
54.14000 2.897
54.16000 2.154
54.18000 2.478
54.20000 5.369
54.22000 4.414
54.24000 2.663
54.26000 3.043
54.28000 3.911
54.30000 2.710
54.32000 2.244
54.34000 -1.513
54.36000 0.329
54.38000 2.405
54.40000 4.542
54.42000 3.579
54.44000 0.937
54.46000 0.506
54.48000 3.486
54.50000 2.458
54.52000 3.214
54.54000 0.324
54.56000 0.987
54.58000 1.544
54.60000 1.895
54.62000 2.367
54.64000 0.081
54.66000 -1.047
54.68000 0.502
54.70000 0.170
54.72000 0.503
54.74000 3.761
54.76000 3.910
54.78000 1.039
54.80000 0.634
54.82000 0.290
54.84000 -2.505
54.86000 -0.551
54.88000 -2.086
54.90000 -0.969
54.92000 -1.153
54.94000 0.741
54.96000 1.841
54.98000 4.458
55.00000 5.248
55.02000 5.795
55.04000 4.842
55.06000 4.853
55.08000 2.556
55.10000 0.105
55.12000 -2.127
55.14000 -0.966
55.16000 4.122
55.18000 3.843
55.20000 2.787
55.22000 0.342
55.24000 2.135
55.26000 1.411
55.28000 1.324
55.30000 0.277
55.32000 1.099
55.34000 1.331
55.36000 2.898
55.38000 2.072
55.40000 0.494
55.42000 -2.213
55.44000 0.125
55.46000 -2.479
55.48000 2.768
55.50000 2.986
55.52000 0.726
55.54000 1.224
55.56000 3.356
55.58000 2.198
55.60000 0.304
55.62000 1.836
55.64000 1.996
55.66000 -0.551
55.68000 -0.199
55.70000 4.353
55.72000 1.831
55.74000 4.741
55.76000 6.674
55.78000 4.399
55.80000 4.278
55.82000 0.320
55.84000 -0.637
55.86000 1.270
55.88000 1.738
55.90000 -0.968
55.92000 1.695
55.94000 -1.530
55.96000 -0.295
55.98000 -1.974
56.00000 1.868
56.02000 5.394
56.04000 2.810
56.06000 4.393
56.08000 4.692
56.10000 0.276
56.12000 0.508
56.14000 1.573
56.16000 -0.122
56.18000 3.156
56.20000 5.573
56.22000 -1.842
56.24000 0.675
56.26000 1.634
56.28000 2.312
56.30000 4.770
56.32000 0.812
56.34000 -2.460
56.36000 2.072
56.38000 3.893
56.40000 2.525
56.42000 0.884
56.44000 -1.089
56.46000 0.884
56.48000 2.835
56.50000 0.242
56.52000 1.336
56.54000 -1.984
56.56000 -0.693
56.58000 -1.106
56.60000 2.463
56.62000 1.773
56.64000 -0.220
56.66000 1.093
56.68000 0.136
56.70000 1.383
56.72000 3.122
56.74000 3.058
56.76000 5.145
56.78000 4.298
56.80000 -1.231
56.82000 -0.965
56.84000 1.156
56.86000 3.657
56.88000 2.257
56.90000 -1.019
56.92000 0.820
56.94000 0.552
56.96000 2.794
56.98000 -0.645
57.00000 1.105
57.02000 1.323
57.04000 -0.823
57.06000 4.650
57.08000 3.885
57.10000 -1.006
57.12000 -0.529
57.14000 -0.339
57.16000 2.429
57.18000 0.123
57.20000 0.981
57.22000 2.513
57.24000 1.670
57.26000 1.450
57.28000 0.210
57.30000 4.867
57.32000 3.881
57.34000 1.720
57.36000 2.818
57.38000 1.502
57.40000 7.384
57.42000 4.581
57.44000 2.621
57.46000 -0.270
57.48000 1.270
57.50000 0.246
57.52000 2.192
57.54000 4.244
57.56000 1.620
57.58000 0.391
57.60000 2.460
57.62000 6.089
57.64000 6.107
57.66000 5.222
57.68000 4.072
57.70000 3.485
57.72000 3.354
57.74000 5.534
57.76000 4.345
57.78000 5.417
57.80000 2.289
57.82000 0.262
57.84000 1.654
57.86000 5.624
57.88000 4.048
57.90000 4.089
57.92000 1.349
57.94000 0.702
57.96000 3.449
57.98000 1.131
58.00000 -2.351
58.02000 2.218
58.04000 -1.557
58.06000 -0.031
58.08000 2.280
58.10000 4.537
58.12000 3.367
58.14000 2.976
58.16000 4.317
58.18000 5.976
58.20000 8.103
58.22000 4.296
58.24000 -1.697
58.26000 -0.330
58.28000 2.966
58.30000 3.927
58.32000 4.467
58.34000 1.543
58.36000 3.697
58.38000 0.051
58.40000 0.966
58.42000 2.012
58.44000 1.425
58.46000 2.932
58.48000 6.255
58.50000 3.654
58.52000 4.104
58.54000 5.861
58.56000 2.664
58.58000 3.165
58.60000 5.293
58.62000 7.609
58.64000 5.529
58.66000 4.083
58.68000 -0.287
58.70000 -1.026
58.72000 0.930
58.74000 1.948
58.76000 1.945
58.78000 4.518
58.80000 3.915
58.82000 2.448
58.84000 -1.613
58.86000 2.946
58.88000 2.070
58.90000 0.966
58.92000 -2.361
58.94000 2.794
58.96000 3.137
58.98000 0.182
59.00000 4.039
59.02000 4.507
59.04000 5.390
59.06000 1.141
59.08000 1.326
59.10000 -0.736
59.12000 -1.706
59.14000 3.114
59.16000 4.639
59.18000 1.515
59.20000 -1.594
59.22000 -0.118
59.24000 -0.087
59.26000 0.445
59.28000 -1.583
59.30000 3.005
59.32000 2.207
59.34000 -2.087
59.36000 -0.594
59.38000 -0.338
59.40000 0.239
59.42000 -2.240
59.44000 1.327
59.46000 2.465
59.48000 2.142
59.50000 0.427
59.52000 0.100
59.54000 0.104
59.56000 0.938
59.58000 5.254
59.60000 0.675
59.62000 -1.812
59.64000 0.375
59.66000 2.723
59.68000 3.994
59.70000 4.001
59.72000 1.124
59.74000 -0.468
59.76000 0.345
59.78000 2.666
59.80000 0.938
59.82000 -0.999
59.84000 -0.833
59.86000 1.739
59.88000 2.680
59.90000 -1.593
59.92000 0.440
59.94000 2.658
59.96000 1.169
59.98000 3.025
60.00000 1.487
60.02000 0.243
60.04000 2.614
60.06000 1.387
60.08000 1.665
60.10000 -0.209
60.12000 0.868
60.14000 -0.494
60.16000 -2.340
60.18000 1.020
60.20000 1.431
60.22000 1.512
60.24000 -0.981
60.26000 -0.913
60.28000 1.117
60.30000 1.181
60.32000 2.187
60.34000 0.304
60.36000 2.711
60.38000 1.156
60.40000 -1.394
60.42000 -1.403
60.44000 2.352
60.46000 4.561
60.48000 3.494
60.50000 -0.088
60.52000 1.022
60.54000 3.453
60.56000 4.453
60.58000 5.332
60.60000 3.088
60.62000 3.689
60.64000 6.300
60.66000 2.487
60.68000 3.294
60.70000 0.366
60.72000 -1.678
60.74000 -2.247
60.76000 3.308
60.78000 5.001
60.80000 1.514
60.82000 -1.715
60.84000 1.378
60.86000 3.758
60.88000 4.018
60.90000 2.654
60.92000 1.157
60.94000 3.351
60.96000 3.709
60.98000 -0.714
61.00000 1.446
61.02000 1.805
61.04000 1.575
61.06000 1.138
61.08000 2.282
61.10000 -1.035
61.12000 -0.562
61.14000 1.799
61.16000 2.183
61.18000 5.196
61.20000 2.947
61.22000 3.444
61.24000 4.523
61.26000 3.282
61.28000 5.470
61.30000 2.714
61.32000 3.676
61.34000 -1.493
61.36000 -2.259
61.38000 0.470
61.40000 2.901
61.42000 2.747
61.44000 2.491
61.46000 0.811
61.48000 -0.446
61.50000 1.775
61.52000 2.782
61.54000 3.799
61.56000 5.877
61.58000 3.862
61.60000 1.925
61.62000 1.003
61.64000 3.562
61.66000 1.853
61.68000 -0.155
61.70000 0.363
61.72000 2.300
61.74000 4.575
61.76000 3.125
61.78000 0.887
61.80000 2.387
61.82000 -0.452
61.84000 -0.437
61.86000 -1.345
61.88000 0.709
61.90000 6.016
61.92000 3.312
61.94000 1.174
61.96000 3.386
61.98000 -0.698
62.00000 4.817
62.02000 6.346
62.04000 4.536
62.06000 4.904
62.08000 3.220
62.10000 -0.594
62.12000 0.914
62.14000 1.790
62.16000 5.016
62.18000 3.303
62.20000 -0.516
62.22000 1.380
62.24000 2.500
62.26000 2.542
62.28000 0.355
62.30000 0.906
62.32000 3.477
62.34000 2.503
62.36000 0.564
62.38000 2.216
62.40000 0.260
62.42000 -2.264
62.44000 -0.161
62.46000 3.328
62.48000 3.020
62.50000 2.082
62.52000 3.421
62.54000 0.775
62.56000 -0.407
62.58000 0.274
62.60000 2.853
62.62000 3.483
62.64000 0.231
62.66000 -0.509
62.68000 0.749
62.70000 2.684
62.72000 -0.466
62.74000 -0.285
62.76000 -0.072
62.78000 0.456
62.80000 -2.270
62.82000 0.131
62.84000 0.846
62.86000 -0.187
62.88000 1.265
62.90000 -0.464
62.92000 -1.190
62.94000 0.930
62.96000 1.452
62.98000 -1.365
63.00000 -0.106
63.02000 -1.307
63.04000 -2.129
63.06000 -0.911
63.08000 0.224
63.10000 1.052
63.12000 3.371
63.14000 0.542
63.16000 -0.530
63.18000 0.339
63.20000 -0.257
63.22000 -1.870
63.24000 -2.064
63.26000 -0.523
63.28000 1.180
63.30000 1.625
63.32000 1.818
63.34000 2.762
63.36000 0.330
63.38000 -2.008
63.40000 -1.458
63.42000 2.472
63.44000 3.122
63.46000 -0.371
63.48000 -2.268
63.50000 -1.487
63.52000 0.493
63.54000 2.231
63.56000 2.611
63.58000 2.011
63.60000 0.847
63.62000 1.005
63.64000 3.300
63.66000 0.240
63.68000 0.603
63.70000 0.630
63.72000 1.542
63.74000 2.676
63.76000 2.386
63.78000 2.662
63.80000 1.322
63.82000 1.049
63.84000 -1.119
63.86000 1.644
63.88000 -0.367
63.90000 0.285
63.92000 3.422
63.94000 1.112
63.96000 0.401
63.98000 2.841
64.00000 6.536
64.02000 3.549
64.04000 3.540
64.06000 2.418
64.08000 -2.251
64.10000 -1.561
64.12000 -0.736
64.14000 0.941
64.16000 0.804
64.18000 1.372
64.20000 1.589
64.22000 0.949
64.24000 1.472
64.26000 0.328
64.28000 -1.734
64.30000 -0.653
64.32000 0.511
64.34000 0.250
64.36000 3.078
64.38000 3.869
64.40000 4.703
64.42000 0.379
64.44000 -0.045
64.46000 3.011
64.48000 1.841
64.50000 -1.194
64.52000 0.057
64.54000 2.232
64.56000 4.066
64.58000 2.748
64.60000 0.056
64.62000 -2.248
64.64000 -1.541
64.66000 0.193
64.68000 -0.574
64.70000 3.377
64.72000 4.064
64.74000 1.950
64.76000 3.152
64.78000 2.390
64.80000 0.578
64.82000 0.590
64.84000 1.658
64.86000 1.667
64.88000 2.862
64.90000 3.606
64.92000 1.481
64.94000 1.234
64.96000 3.500
64.98000 1.961
65.00000 3.799
65.02000 -0.331
65.04000 -0.284
65.06000 0.333
65.08000 -0.910
65.10000 -2.245
65.12000 0.528
65.14000 0.086
65.16000 -0.368
65.18000 2.775
65.20000 2.750
65.22000 -0.506
65.24000 -0.014
65.26000 3.090
65.28000 2.210
65.30000 2.027
65.32000 1.748
65.34000 -1.474
65.36000 -0.379
65.38000 -1.549
65.40000 -0.625
65.42000 1.479
65.44000 2.321
65.46000 1.800
65.48000 0.457
65.50000 0.581
65.52000 4.067
65.54000 1.902
65.56000 0.988
65.58000 2.178
65.60000 2.879
65.62000 3.255
65.64000 -2.243
65.66000 -1.625
65.68000 0.404
65.70000 1.698
65.72000 -1.409
65.74000 -0.037
65.76000 1.294
65.78000 -0.282
65.80000 2.743
65.82000 4.853
65.84000 0.381
65.86000 -0.142
65.88000 -0.635
65.90000 1.681
65.92000 -0.327
65.94000 -0.953
65.96000 -1.672
65.98000 -0.869
66.00000 2.753
66.02000 2.225
66.04000 0.280
66.06000 1.271
66.08000 2.147
66.10000 3.050
66.12000 1.382
66.14000 2.180
66.16000 0.912
66.18000 0.566
66.20000 2.463
66.22000 2.831
66.24000 2.453
66.26000 0.321
66.28000 -0.011
66.30000 3.393
66.32000 2.822
66.34000 1.461
66.36000 2.935
66.38000 1.350
66.40000 2.136
66.42000 1.182
66.44000 2.064
66.46000 -1.526
66.48000 0.117
66.50000 1.469
66.52000 0.899
66.54000 3.385
66.56000 2.092
66.58000 -0.731
66.60000 -0.031
66.62000 1.147
66.64000 1.421
66.66000 4.132
66.68000 3.892
66.70000 2.904
66.72000 3.697
66.74000 1.981
66.76000 2.565
66.78000 5.557
66.80000 5.912
66.82000 6.098
66.84000 6.856
66.86000 4.851
66.88000 4.060
66.90000 3.751
66.92000 3.436
66.94000 6.466
66.96000 3.812
66.98000 3.857
67.00000 6.224
67.02000 4.864
67.04000 2.562
67.06000 5.446
67.08000 8.401
67.10000 6.532
67.12000 3.448
67.14000 3.290
67.16000 3.285
67.18000 1.987
67.20000 5.028
67.22000 5.932
67.24000 4.210
67.26000 2.284
67.28000 2.345
67.30000 3.473
67.32000 0.949
67.34000 2.545
67.36000 3.158
67.38000 4.169
67.40000 1.668
67.42000 -1.276
67.44000 -1.343
67.46000 -0.991
67.48000 0.598
67.50000 0.532
67.52000 2.216
67.54000 2.796
67.56000 3.249
67.58000 0.342
67.60000 1.739
67.62000 1.719
67.64000 0.835
67.66000 -0.173
67.68000 0.267
67.70000 -0.381
67.72000 -0.675
67.74000 0.358
67.76000 0.765
67.78000 1.467
67.80000 -0.174
67.82000 -1.050
67.84000 -1.097
67.86000 -1.063
67.88000 -1.427
67.90000 1.291
67.92000 1.905
67.94000 1.894
67.96000 -0.733
67.98000 1.060
68.00000 0.425
68.02000 -0.521
68.04000 -0.234
68.06000 -0.430
68.08000 1.755
68.10000 0.234
68.12000 -1.078
68.14000 1.260
68.16000 1.862
68.18000 2.316
68.20000 1.994
68.22000 1.110
68.24000 1.111
68.26000 1.092
68.28000 3.429
68.30000 3.222
68.32000 3.107
68.34000 5.617
68.36000 1.879
68.38000 0.958
68.40000 -2.118
68.42000 0.399
68.44000 -0.947
68.46000 0.827
68.48000 4.105
68.50000 3.092
68.52000 2.389
68.54000 3.068
68.56000 1.069
68.58000 0.013
68.60000 -1.738
68.62000 -0.343
68.64000 1.809
68.66000 3.281
68.68000 4.440
68.70000 2.229
68.72000 0.616
68.74000 -2.114
68.76000 -1.523
68.78000 -0.842
68.80000 0.562
68.82000 -0.944
68.84000 0.385
68.86000 1.838
68.88000 1.729
68.90000 -0.138
68.92000 -0.925
68.94000 -0.117
68.96000 0.202
68.98000 1.547
69.00000 2.717
69.02000 3.916
69.04000 5.611
69.06000 2.818
69.08000 4.301
69.10000 3.062
69.12000 4.065
69.14000 0.907
69.16000 0.769
69.18000 0.920
69.20000 2.196
69.22000 1.087
69.24000 1.442
69.26000 1.918
69.28000 1.985
69.30000 2.813
69.32000 4.565
69.34000 3.006
69.36000 3.044
69.38000 3.067
69.40000 2.244
69.42000 1.208
69.44000 -0.040
69.46000 0.653
69.48000 3.658
69.50000 2.388
69.52000 2.674
69.54000 2.150
69.56000 -0.541
69.58000 -0.179
69.60000 2.211
69.62000 3.032
69.64000 3.080
69.66000 3.253
69.68000 2.367
69.70000 1.273
69.72000 2.811
69.74000 1.827
69.76000 2.266
69.78000 2.613
69.80000 1.966
69.82000 3.877
69.84000 5.634
69.86000 6.372
69.88000 5.487
69.90000 4.336
69.92000 -0.274
69.94000 1.343
69.96000 2.418
69.98000 2.415
70.00000 1.913
70.02000 2.686
70.04000 3.578
70.06000 2.927
70.08000 3.330
70.10000 2.401
70.12000 1.508
70.14000 1.788
70.16000 3.225
70.18000 0.448
70.20000 -2.011
70.22000 2.383
70.24000 3.488
70.26000 5.809
70.28000 3.520
70.30000 3.782
70.32000 2.133
70.34000 2.261
70.36000 2.995
70.38000 3.112
70.40000 3.006
70.42000 2.829
70.44000 1.734
70.46000 1.209
70.48000 1.718
70.50000 2.492
70.52000 1.675
70.54000 2.057
70.56000 2.312
70.58000 0.635
70.60000 4.137
70.62000 7.735
70.64000 3.349
70.66000 0.892
70.68000 1.922
70.70000 3.615
70.72000 2.505
70.74000 4.517
70.76000 1.386
70.78000 2.024
70.80000 2.563
70.82000 1.289
70.84000 2.545
70.86000 2.308
70.88000 0.465
70.90000 0.323
70.92000 -0.563
70.94000 0.986
70.96000 1.260
70.98000 1.990
71.00000 0.148
71.02000 0.220
71.04000 1.604
71.06000 2.901
71.08000 1.807
71.10000 1.592
71.12000 -0.070
71.14000 0.160
71.16000 1.102
71.18000 1.584
71.20000 2.938
71.22000 3.536
71.24000 0.880
71.26000 0.661
71.28000 0.620
71.30000 0.453
71.32000 0.309
71.34000 0.736
71.36000 4.017
71.38000 3.752
71.40000 1.954
71.42000 -0.607
71.44000 -2.022
71.46000 -0.203
71.48000 0.294
71.50000 -1.956
71.52000 -2.017
71.54000 0.597
71.56000 0.450
71.58000 -0.825
71.60000 0.818
71.62000 -1.741
71.64000 -0.723
71.66000 0.043
71.68000 0.416
71.70000 -0.104
71.72000 1.303
71.74000 1.273
71.76000 3.840
71.78000 2.027
71.80000 1.639
71.82000 0.781
71.84000 2.700
71.86000 1.993
71.88000 1.915
71.90000 -1.543
71.92000 -0.845
71.94000 2.716
71.96000 2.923
71.98000 3.585
72.00000 2.245
72.02000 2.021
72.04000 2.256
72.06000 0.734
72.08000 -0.242
72.10000 -0.434
72.12000 -1.439
72.14000 -0.930
72.16000 0.855
72.18000 -0.587
72.20000 1.994
72.22000 1.935
72.24000 2.588
72.26000 2.594
72.28000 1.631
72.30000 1.436
72.32000 1.138
72.34000 1.618
72.36000 -1.978
72.38000 -1.473
72.40000 -0.058
72.42000 0.438
72.44000 0.472
72.46000 0.383
72.48000 0.556
72.50000 0.506
72.52000 1.531
72.54000 0.493
72.56000 -0.106
72.58000 0.967
72.60000 3.543
72.62000 3.148
72.64000 0.869
72.66000 0.659
72.68000 1.942
72.70000 0.273
72.72000 1.061
72.74000 2.671
72.76000 1.440
72.78000 -0.492
72.80000 1.831
72.82000 2.561
72.84000 2.429
72.86000 -0.890
72.88000 1.935
72.90000 1.080
72.92000 1.380
72.94000 -1.967
72.96000 1.474
72.98000 0.572
73.00000 4.661
73.02000 4.145
73.04000 0.909
73.06000 0.512
73.08000 3.046
73.10000 -0.594
73.12000 0.174
73.14000 -0.434
73.16000 2.611
73.18000 2.207
73.20000 2.809
73.22000 1.938
73.24000 3.055
73.26000 1.341
73.28000 0.646
73.30000 2.502
73.32000 -0.263
73.34000 0.044
73.36000 2.178
73.38000 4.218
73.40000 1.778
73.42000 1.075
73.44000 1.248
73.46000 0.899
73.48000 2.594
73.50000 2.445
73.52000 -0.774
73.54000 -1.934
73.56000 1.381
73.58000 0.776
73.60000 2.363
73.62000 3.602
73.64000 2.337
73.66000 2.377
73.68000 1.484
73.70000 0.039
73.72000 2.837
73.74000 4.495
73.76000 4.790
73.78000 1.561
73.80000 2.505
73.82000 2.666
73.84000 3.472
73.86000 2.773
73.88000 5.173
73.90000 2.028
73.92000 -0.317
73.94000 3.717
73.96000 3.905
73.98000 3.128
74.00000 3.841
74.02000 5.266
74.04000 4.136
74.06000 1.851
74.08000 3.074
74.10000 4.993
74.12000 4.707
74.14000 4.295
74.16000 0.443
74.18000 -0.054
74.20000 -0.620
74.22000 2.388
74.24000 4.106
74.26000 1.927
74.28000 4.402
74.30000 1.055
74.32000 2.629
74.34000 4.820
74.36000 5.084
74.38000 5.235
74.40000 3.047
74.42000 0.927
74.44000 -1.210
74.46000 -1.612
74.48000 0.419
74.50000 0.498
74.52000 1.514
74.54000 2.514
74.56000 1.599
74.58000 0.112
74.60000 1.166
74.62000 0.358
74.64000 2.180
74.66000 4.071
74.68000 3.358
74.70000 1.194
74.72000 1.932
74.74000 2.892
74.76000 1.898
74.78000 2.179
74.80000 3.744
74.82000 4.033
74.84000 2.369
74.86000 0.156
74.88000 1.333
74.90000 -0.840
74.92000 0.851
74.94000 4.940
74.96000 7.338
74.98000 5.350
75.00000 2.906
75.02000 1.202
75.04000 1.680
75.06000 1.248
75.08000 4.545
75.10000 3.045
75.12000 -0.877
75.14000 -1.928
75.16000 0.785
75.18000 2.518
75.20000 2.384
75.22000 2.632
75.24000 4.618
75.26000 3.420
75.28000 3.478
75.30000 5.581
75.32000 2.981
75.34000 2.111
75.36000 2.928
75.38000 3.508
75.40000 2.753
75.42000 3.620
75.44000 4.068
75.46000 1.146
75.48000 -1.338
75.50000 0.529
75.52000 2.330
75.54000 1.570
75.56000 -0.294
75.58000 0.680
75.60000 2.687
75.62000 3.861
75.64000 2.957
75.66000 1.938
75.68000 1.222
75.70000 -0.636
75.72000 -1.494
75.74000 0.895
75.76000 3.034
75.78000 2.302
75.80000 5.184
75.82000 4.033
75.84000 2.124
75.86000 1.974
75.88000 3.055
75.90000 1.985
75.92000 4.533
75.94000 3.856
75.96000 1.944
75.98000 2.455
76.00000 2.859
76.02000 3.664
76.04000 5.228
76.06000 2.158
76.08000 -0.812
76.10000 -0.216
76.12000 1.387
76.14000 -0.330
76.16000 -0.343
76.18000 0.286
76.20000 1.093
76.22000 1.829
76.24000 1.082
76.26000 2.576
76.28000 0.619
76.30000 4.817
76.32000 1.016
76.34000 -0.629
76.36000 2.455
76.38000 -0.654
76.40000 0.026
76.42000 2.715
76.44000 1.592
76.46000 -1.372
76.48000 -0.680
76.50000 2.218
76.52000 0.116
76.54000 0.231
76.56000 -1.730
76.58000 -1.168
76.60000 -2.015
76.62000 -0.439
76.64000 0.852
76.66000 1.145
76.68000 1.712
76.70000 0.111
76.72000 0.039
76.74000 1.264
76.76000 -0.847
76.78000 -0.214
76.80000 2.079
76.82000 2.566
76.84000 -1.705
76.86000 -0.294
76.88000 -0.485
76.90000 0.451
76.92000 1.684
76.94000 -0.072
76.96000 -0.212
76.98000 -0.429
77.00000 0.226
77.02000 -1.682
77.04000 -0.344
77.06000 1.173
77.08000 2.308
77.10000 1.223
77.12000 0.507
77.14000 0.275
77.16000 0.479
77.18000 1.489
77.20000 5.845
77.22000 3.659
77.24000 2.024
77.26000 0.807
77.28000 0.709
77.30000 0.294
77.32000 0.636
77.34000 0.764
77.36000 3.390
77.38000 4.749
77.40000 3.716
77.42000 0.574
77.44000 -1.997
77.46000 0.832
77.48000 3.480
77.50000 2.286
77.52000 4.564
77.54000 2.281
77.56000 2.604
77.58000 3.148
77.60000 2.382
77.62000 3.404
77.64000 0.645
77.66000 1.253
77.68000 4.020
77.70000 4.457
77.72000 4.336
77.74000 2.578
77.76000 -2.000
77.78000 -0.183
77.80000 0.153
77.82000 3.255
77.84000 4.468
77.86000 4.458
77.88000 3.994
77.90000 4.090
77.92000 1.399
77.94000 -0.744
77.96000 -1.216
77.98000 2.138
78.00000 3.762
78.02000 1.441
78.04000 2.774
78.06000 -0.375
78.08000 -0.528
78.10000 0.184
78.12000 -1.388
78.14000 -0.566
78.16000 -0.465
78.18000 1.934
78.20000 2.082
78.22000 4.792
78.24000 2.647
78.26000 1.263
78.28000 2.638
78.30000 1.013
78.32000 -1.169
78.34000 1.920
78.36000 1.302
78.38000 -0.524
78.40000 -0.472
78.42000 4.158
78.44000 -0.912
78.46000 -1.727
78.48000 -0.471
78.50000 -0.438
78.52000 2.984
78.54000 6.176
78.56000 3.439
78.58000 1.328
78.60000 0.956
78.62000 2.396
78.64000 2.969
78.66000 -1.019
78.68000 3.570
78.70000 2.609
78.72000 0.403
78.74000 3.511
78.76000 3.180
78.78000 3.654
78.80000 0.923
78.82000 -1.263
78.84000 -2.085
78.86000 -1.574
78.88000 1.512
78.90000 0.842
78.92000 -0.147
78.94000 1.602
78.96000 3.349
78.98000 1.405
79.00000 -1.154
79.02000 0.408
79.04000 0.873
79.06000 2.055
79.08000 0.274
79.10000 -1.475
79.12000 1.179
79.14000 1.796
79.16000 5.708
79.18000 2.764
79.20000 1.183
79.22000 1.503
79.24000 1.664
79.26000 1.867
79.28000 1.844
79.30000 1.180
79.32000 2.202
79.34000 2.779
79.36000 4.713
79.38000 3.892
79.40000 5.312
79.42000 3.431
79.44000 0.904
79.46000 -1.877
79.48000 -2.029
79.50000 -0.680
79.52000 1.442
79.54000 3.045
79.56000 2.575
79.58000 2.813
79.60000 2.674
79.62000 4.047
79.64000 1.368
79.66000 2.736
79.68000 1.858
79.70000 3.680
79.72000 3.204
79.74000 6.517
79.76000 9.947
79.78000 8.060
79.80000 4.352
79.82000 4.298
79.84000 5.421
79.86000 12.258
79.88000 10.591
79.90000 10.588
79.92000 8.451
79.94000 5.822
79.96000 7.554
79.98000 7.265
80.00000 7.884
80.02000 9.264
80.04000 12.604
80.06000 13.270
80.08000 11.104
80.10000 13.901
80.12000 15.328
80.14000 10.017
80.16000 10.477
80.18000 9.892
80.20000 10.108
80.22000 7.753
80.24000 11.788
80.26000 10.664
80.28000 15.331
80.30000 16.871
80.32000 15.438
80.34000 14.306
80.36000 13.432
80.38000 13.001
80.40000 15.792
80.42000 19.468
80.44000 16.921
80.46000 12.806
80.48000 14.918
80.50000 14.625
80.52000 17.385
80.54000 18.331
80.56000 15.584
80.58000 15.431
80.60000 14.994
80.62000 15.806
80.64000 16.244
80.66000 13.934
80.68000 14.722
80.70000 16.666
80.72000 17.831
80.74000 17.800
80.76000 18.854
80.78000 15.909
80.80000 20.387
80.82000 19.246
80.84000 14.104
80.86000 11.977
80.88000 13.087
80.90000 15.080
80.92000 10.003
80.94000 8.873
80.96000 7.145
80.98000 11.872
81.00000 13.487
81.02000 10.179
81.04000 10.341
81.06000 13.248
81.08000 10.003
81.10000 9.074
81.12000 9.866
81.14000 8.734
81.16000 9.809
81.18000 8.284
81.20000 10.299
81.22000 9.185
81.24000 7.981
81.26000 6.014
81.28000 5.148
81.30000 8.565
81.32000 3.964
81.34000 4.398
81.36000 12.913
81.38000 9.490
81.40000 3.410
81.42000 2.546
81.44000 1.143
81.46000 4.802
81.48000 6.044
81.50000 6.277
81.52000 4.870
81.54000 5.426
81.56000 4.544
81.58000 0.199
81.60000 -0.100
81.62000 -0.212
81.64000 -0.009
81.66000 2.740
81.68000 4.147
81.70000 4.890
81.72000 5.985
81.74000 3.499
81.76000 0.858
81.78000 0.051
81.80000 0.238
81.82000 -0.622
81.84000 2.546
81.86000 0.040
81.88000 0.877
81.90000 0.051
81.92000 0.952
81.94000 3.488
81.96000 3.014
81.98000 2.133
82.00000 -2.212
82.02000 1.548
82.04000 1.901
82.06000 0.175
82.08000 -0.190
82.10000 2.597
82.12000 3.617
82.14000 2.385
82.16000 -1.116
82.18000 2.170
82.20000 0.881
82.22000 1.868
82.24000 2.452
82.26000 2.265
82.28000 -2.199
82.30000 0.854
82.32000 0.561
82.34000 -1.691
82.36000 3.371
82.38000 0.723
82.40000 -2.197
82.42000 0.543
82.44000 3.828
82.46000 2.520
82.48000 0.401
82.50000 2.319
82.52000 2.773
82.54000 -0.637
82.56000 0.112
82.58000 -0.206
82.60000 2.222
82.62000 2.484
82.64000 1.886
82.66000 3.304
82.68000 2.602
82.70000 2.941
82.72000 3.572
82.74000 4.267
82.76000 1.656
82.78000 -2.189
82.80000 -0.129
82.82000 -1.930
82.84000 1.716
82.86000 -0.191
82.88000 1.492
82.90000 2.002
82.92000 2.603
82.94000 4.551
82.96000 3.294
82.98000 4.391
83.00000 2.986
83.02000 5.335
83.04000 5.881
83.06000 0.938
83.08000 2.250
83.10000 2.131
83.12000 0.282
83.14000 5.091
83.16000 3.756
83.18000 4.830
83.20000 3.922
83.22000 2.351
83.24000 3.849
83.26000 3.918
83.28000 3.045
83.30000 2.380
83.32000 3.627
83.34000 6.671
83.36000 5.395
83.38000 3.577
83.40000 7.640
83.42000 6.112
83.44000 7.701
83.46000 4.414
83.48000 6.669
83.50000 8.133
83.52000 10.632
83.54000 8.209
83.56000 3.751
83.58000 7.733
83.60000 11.377
83.62000 12.871
83.64000 13.447
83.66000 13.459
83.68000 13.784
83.70000 10.631
83.72000 7.967
83.74000 8.045
83.76000 9.581
83.78000 11.943
83.80000 16.178
83.82000 20.546
83.84000 18.114
83.86000 13.975
83.88000 15.241
83.90000 14.887
83.92000 16.708
83.94000 17.595
83.96000 17.827
83.98000 19.617
84.00000 18.011
84.02000 21.603
84.04000 28.900
84.06000 27.150
84.08000 25.058
84.10000 26.181
84.12000 25.752
84.14000 29.089
84.16000 29.857
84.18000 25.275
84.20000 26.276
84.22000 28.857
84.24000 30.480
84.26000 34.580
84.28000 31.611
84.30000 31.419
84.32000 38.491
84.34000 37.098
84.36000 33.503
84.38000 34.183
84.40000 35.196
84.42000 35.667
84.44000 35.555
84.46000 38.181
84.48000 36.739
84.50000 36.512
84.52000 34.584
84.54000 38.911
84.56000 37.629
84.58000 35.786
84.60000 38.323
84.62000 37.287
84.64000 37.199
84.66000 33.823
84.68000 33.886
84.70000 32.272
84.72000 30.425
84.74000 31.300
84.76000 30.642
84.78000 29.576
84.80000 28.694
84.82000 26.286
84.84000 24.727
84.86000 24.146
84.88000 24.788
84.90000 23.982
84.92000 28.218
84.94000 29.189
84.96000 21.690
84.98000 23.019
85.00000 22.890
85.02000 22.372
85.04000 19.910
85.06000 16.774
85.08000 17.889
85.10000 17.652
85.12000 16.390
85.14000 16.075
85.16000 13.267
85.18000 10.738
85.20000 12.260
85.22000 17.138
85.24000 15.289
85.26000 16.105
85.28000 12.372
85.30000 10.614
85.32000 12.179
85.34000 10.698
85.36000 8.486
85.38000 11.294
85.40000 5.412
85.42000 8.707
85.44000 8.349
85.46000 5.190
85.48000 6.295
85.50000 6.668
85.52000 4.106
85.54000 1.743
85.56000 1.715
85.58000 5.533
85.60000 6.654
85.62000 6.315
85.64000 2.213
85.66000 0.488
85.68000 4.072
85.70000 5.141
85.72000 3.366
85.74000 4.914
85.76000 5.837
85.78000 4.706
85.80000 -0.005
85.82000 -1.379
85.84000 2.564
85.86000 0.249
85.88000 -0.091
85.90000 1.439
85.92000 0.671
85.94000 3.572
85.96000 3.868
85.98000 0.738
86.00000 0.474
86.02000 0.712
86.04000 -1.999
86.06000 -1.173
86.08000 0.700
86.10000 -0.571
86.12000 0.193
86.14000 1.609
86.16000 -0.853
86.18000 2.190
86.20000 3.554
86.22000 4.806
86.24000 1.354
86.26000 -0.337
86.28000 1.543
86.30000 2.411
86.32000 0.187
86.34000 1.671
86.36000 4.442
86.38000 4.860
86.40000 1.610
86.42000 3.349
86.44000 3.268
86.46000 3.827
86.48000 2.939
86.50000 2.444
86.52000 1.935
86.54000 -0.870
86.56000 -1.891
86.58000 0.908
86.60000 7.076
86.62000 6.400
86.64000 4.381
86.66000 2.862
86.68000 2.466
86.70000 2.192
86.72000 0.283
86.74000 1.807
86.76000 4.590
86.78000 5.506
86.80000 1.868
86.82000 4.728
86.84000 1.529
86.86000 2.270
86.88000 2.365
86.90000 1.390
86.92000 0.942
86.94000 -0.838
86.96000 1.062
86.98000 0.949
87.00000 0.638
87.02000 -0.578
87.04000 -0.635
87.06000 -0.017
87.08000 -0.493
87.10000 0.120
87.12000 0.873
87.14000 1.166
87.16000 -0.539
87.18000 0.783
87.20000 1.185
87.22000 -1.633
87.24000 -1.035
87.26000 -0.700
87.28000 -1.425
87.30000 1.735
87.32000 1.672
87.34000 -1.040
87.36000 -0.649
87.38000 2.845
87.40000 0.546
87.42000 4.013
87.44000 4.071
87.46000 4.194
87.48000 4.212
87.50000 1.839
87.52000 4.651
87.54000 2.982
87.56000 1.803
87.58000 0.076
87.60000 1.245
87.62000 1.124
87.64000 -0.558
87.66000 -0.009
87.68000 -1.873
87.70000 -1.190
87.72000 1.408
87.74000 2.496
87.76000 2.383
87.78000 1.820
87.80000 1.753
87.82000 -0.773
87.84000 1.801
87.86000 2.652
87.88000 0.596
87.90000 2.151
87.92000 2.725
87.94000 1.333
87.96000 4.795
87.98000 4.236
88.00000 3.110
88.02000 2.282
88.04000 -0.365
88.06000 0.072
88.08000 -0.338
88.10000 0.042
88.12000 0.622
88.14000 0.056
88.16000 0.153
88.18000 2.840
88.20000 -0.881
88.22000 1.500
88.24000 3.805
88.26000 2.904
88.28000 2.600
88.30000 1.548
88.32000 -0.414
88.34000 -0.625
88.36000 4.092
88.38000 0.899
88.40000 -0.960
88.42000 -1.023
88.44000 -1.023
88.46000 -1.694
88.48000 0.537
88.50000 1.825
88.52000 0.580
88.54000 -1.859
88.56000 4.091
88.58000 2.290
88.60000 1.177
88.62000 2.874
88.64000 5.173
88.66000 4.791
88.68000 1.482
88.70000 0.475
88.72000 -0.416
88.74000 1.159
88.76000 -1.436
88.78000 -0.799
88.80000 2.807
88.82000 3.296
88.84000 2.215
88.86000 -0.474
88.88000 2.093
88.90000 -0.518
88.92000 0.017
88.94000 1.012
88.96000 0.032
88.98000 -1.847
89.00000 -0.897
89.02000 1.581
89.04000 0.724
89.06000 -1.433
89.08000 0.896
89.10000 1.741
89.12000 2.017
89.14000 1.576
89.16000 3.545
89.18000 -0.079
89.20000 -1.838
89.22000 -0.506
89.24000 0.116
89.26000 2.968
89.28000 3.103
89.30000 -1.833
89.32000 1.632
89.34000 1.503
89.36000 3.698
89.38000 4.369
89.40000 4.587
89.42000 1.749
89.44000 1.586
89.46000 -0.562
89.48000 -0.766
89.50000 0.925
89.52000 2.467
89.54000 4.699
89.56000 4.135
89.58000 0.264
89.60000 4.580
89.62000 2.623
89.64000 0.018
89.66000 0.081
89.68000 1.544
89.70000 3.407
89.72000 2.115
89.74000 1.051
89.76000 2.377
89.78000 2.952
89.80000 3.528
89.82000 2.146
89.84000 -1.813
89.86000 3.314
89.88000 2.683
89.90000 2.648
89.92000 -0.067
89.94000 -1.591
89.96000 -0.600
89.98000 -0.204
90.00000 0.142
90.02000 2.502
90.04000 4.153
90.06000 2.592
90.08000 2.392
90.10000 4.403
90.12000 -0.618
90.14000 0.960
90.16000 3.056
90.18000 3.320
90.20000 3.220
90.22000 1.067
90.24000 -1.218
90.26000 -1.827
90.28000 0.558
90.30000 3.332
90.32000 2.450
90.34000 1.888
90.36000 4.461
90.38000 3.445
90.40000 1.848
90.42000 -0.555
90.44000 0.892
90.46000 1.732
90.48000 1.892
90.50000 3.235
90.52000 3.378
90.54000 1.120
90.56000 0.948
90.58000 3.575
90.60000 0.429
90.62000 0.245
90.64000 -0.253
90.66000 0.911
90.68000 0.429
90.70000 -0.721
90.72000 1.474
90.74000 2.515
90.76000 2.088
90.78000 3.409
90.80000 0.512
90.82000 0.829
90.84000 1.034
90.86000 2.202
90.88000 1.572
90.90000 0.394
90.92000 1.120
90.94000 -0.049
90.96000 3.466
90.98000 2.069
91.00000 2.037
91.02000 -0.507
91.04000 1.636
91.06000 2.887
91.08000 3.086
91.10000 2.845
91.12000 1.019
91.14000 1.555
91.16000 1.461
91.18000 1.127
91.20000 4.578
91.22000 4.744
91.24000 -1.782
91.26000 -1.816
91.28000 1.837
91.30000 4.797
91.32000 3.607
91.34000 3.751
91.36000 2.513
91.38000 2.443
91.40000 3.367
91.42000 3.392
91.44000 -0.434
91.46000 -1.262
91.48000 -1.404
91.50000 3.549
91.52000 4.038
91.54000 0.750
91.56000 1.568
91.58000 2.131
91.60000 2.506
91.62000 3.416
91.64000 3.890
91.66000 2.067
91.68000 2.290
91.70000 4.606
91.72000 3.170
91.74000 3.512
91.76000 0.743
91.78000 3.307
91.80000 -0.871
91.82000 -1.839
91.84000 -1.178
91.86000 -0.883
91.88000 0.145
91.90000 1.758
91.92000 3.991
91.94000 4.191
91.96000 2.506
91.98000 2.833
92.00000 -0.429
92.02000 -1.047
92.04000 1.226
92.06000 -1.210
92.08000 -0.569
92.10000 1.108
92.12000 2.691
92.14000 0.533
92.16000 2.456
92.18000 5.886
92.20000 1.229
92.22000 -1.493
92.24000 2.489
92.26000 3.976
92.28000 2.398
92.30000 1.033
92.32000 2.404
92.34000 3.526
92.36000 5.946
92.38000 3.617
92.40000 3.108
92.42000 4.730
92.44000 2.627
92.46000 1.465
92.48000 0.367
92.50000 3.767
92.52000 4.952
92.54000 5.301
92.56000 1.634
92.58000 1.030
92.60000 1.165
92.62000 -0.261
92.64000 1.368
92.66000 1.405
92.68000 0.914
92.70000 2.703
92.72000 2.738
92.74000 2.207
92.76000 2.376
92.78000 2.078
92.80000 2.320
92.82000 1.967
92.84000 0.508
92.86000 5.559
92.88000 4.249
92.90000 3.581
92.92000 -0.120
92.94000 -1.851
92.96000 0.663
92.98000 5.645
93.00000 2.067
93.02000 3.107
93.04000 2.062
93.06000 2.580
93.08000 2.599
93.10000 1.384
93.12000 1.481
93.14000 0.417
93.16000 -0.120
93.18000 3.609
93.20000 3.980
93.22000 3.995
93.24000 5.130
93.26000 1.513
93.28000 -0.703
93.30000 1.142
93.32000 -0.980
93.34000 -0.316
93.36000 0.026
93.38000 -0.322
93.40000 -0.774
93.42000 2.111
93.44000 1.968
93.46000 3.916
93.48000 4.300
93.50000 3.210
93.52000 1.690
93.54000 2.212
93.56000 3.600
93.58000 3.222
93.60000 2.837
93.62000 -1.853
93.64000 1.345
93.66000 1.069
93.68000 -0.449
93.70000 0.905
93.72000 0.728
93.74000 3.168
93.76000 1.903
93.78000 1.930
93.80000 2.334
93.82000 -0.698
93.84000 -0.683
93.86000 -1.858
93.88000 -0.243
93.90000 1.935
93.92000 2.756
93.94000 3.282
93.96000 1.048
93.98000 4.360
94.00000 2.825
94.02000 2.553
94.04000 4.706
94.06000 1.877
94.08000 1.382
94.10000 0.279
94.12000 3.329
94.14000 1.723
94.16000 0.448
94.18000 0.086
94.20000 3.063
94.22000 4.075
94.24000 6.154
94.26000 8.561
94.28000 4.581
94.30000 4.025
94.32000 3.198
94.34000 4.733
94.36000 6.726
94.38000 7.418
94.40000 3.896
94.42000 3.096
94.44000 1.077
94.46000 -0.032
94.48000 2.145
94.50000 0.536
94.52000 0.271
94.54000 2.086
94.56000 -0.192
94.58000 3.731
94.60000 5.825
94.62000 2.992
94.64000 5.265
94.66000 1.982
94.68000 0.933
94.70000 0.014
94.72000 2.346
94.74000 3.078
94.76000 2.132
94.78000 1.933
94.80000 0.492
94.82000 2.178
94.84000 2.059
94.86000 4.910
94.88000 5.417
94.90000 5.244
94.92000 4.157
94.94000 4.058
94.96000 5.050
94.98000 3.259
95.00000 2.300
95.02000 1.258
95.04000 4.577
95.06000 8.360
95.08000 3.305
95.10000 3.655
95.12000 4.941
95.14000 2.194
95.16000 -1.805
95.18000 4.034
95.20000 6.895
95.22000 5.444
95.24000 4.658
95.26000 4.479
95.28000 5.862
95.30000 4.976
95.32000 5.969
95.34000 5.940
95.36000 5.314
95.38000 4.680
95.40000 3.411
95.42000 0.798
95.44000 0.635
95.46000 -0.580
95.48000 -1.323
95.50000 1.986
95.52000 0.587
95.54000 -0.031
95.56000 3.734
95.58000 1.770
95.60000 -0.697
95.62000 0.861
95.64000 3.929
95.66000 4.022
95.68000 4.569
95.70000 4.008
95.72000 4.024
95.74000 3.968
95.76000 0.411
95.78000 -0.159
95.80000 6.051
95.82000 5.840
95.84000 3.951
95.86000 4.579
95.88000 5.200
95.90000 1.148
95.92000 0.830
95.94000 0.718
95.96000 0.702
95.98000 -0.865
96.00000 2.844
96.02000 2.291
96.04000 1.670
96.06000 2.750
96.08000 1.990
96.10000 0.623
96.12000 2.936
96.14000 3.460
96.16000 3.792
96.18000 3.641
96.20000 6.477
96.22000 4.718
96.24000 1.939
96.26000 3.639
96.28000 1.458
96.30000 2.924
96.32000 0.969
96.34000 1.173
96.36000 0.634
96.38000 0.286
96.40000 2.852
96.42000 3.433
96.44000 0.914
96.46000 -1.008
96.48000 0.152
96.50000 0.642
96.52000 0.820
96.54000 1.472
96.56000 1.486
96.58000 4.363
96.60000 2.745
96.62000 3.066
96.64000 2.322
96.66000 6.527
96.68000 4.831
96.70000 3.027
96.72000 -0.787
96.74000 0.661
96.76000 1.777
96.78000 2.645
96.80000 3.135
96.82000 5.207
96.84000 2.706
96.86000 3.779
96.88000 5.081
96.90000 5.547
96.92000 5.543
96.94000 8.972
96.96000 3.008
96.98000 3.131
97.00000 1.644
97.02000 2.799
97.04000 4.619
97.06000 1.727
97.08000 1.261
97.10000 3.367
97.12000 0.871
97.14000 -1.828
97.16000 -0.687
97.18000 2.026
97.20000 6.028
97.22000 4.482
97.24000 0.425
97.26000 0.909
97.28000 3.507
97.30000 6.718
97.32000 7.996
97.34000 2.455
97.36000 1.681
97.38000 6.568
97.40000 7.005
97.42000 7.951
97.44000 5.910
97.46000 -0.583
97.48000 6.470
97.50000 5.518
97.52000 1.284
97.54000 4.656
97.56000 2.422
97.58000 3.638
97.60000 3.384
97.62000 1.574
97.64000 1.141
97.66000 3.174
97.68000 4.744
97.70000 4.118
97.72000 7.016
97.74000 4.618
97.76000 2.644
97.78000 2.951
97.80000 2.528
97.82000 4.190
97.84000 6.318
97.86000 5.794
97.88000 5.527
97.90000 3.963
97.92000 0.580
97.94000 -0.521
97.96000 2.114
97.98000 8.522
98.00000 6.347
98.02000 6.928
98.04000 8.295
98.06000 3.969
98.08000 2.838
98.10000 1.506
98.12000 3.539
98.14000 3.817
98.16000 4.935
98.18000 2.680
98.20000 4.179
98.22000 7.390
98.24000 5.763
98.26000 4.048
98.28000 6.040
98.30000 8.066
98.32000 4.900
98.34000 4.938
98.36000 11.056
98.38000 13.818
98.40000 14.126
98.42000 6.182
98.44000 5.663
98.46000 9.885
98.48000 7.883
98.50000 5.991
98.52000 5.383
98.54000 10.434
98.56000 6.469
98.58000 1.217
98.60000 0.462
98.62000 -1.745
98.64000 2.609
98.66000 1.168
98.68000 6.239
98.70000 4.269
98.72000 6.227
98.74000 8.765
98.76000 13.254
98.78000 5.664
98.80000 3.160
98.82000 6.427
98.84000 8.375
98.86000 3.345
98.88000 6.502
98.90000 0.972
98.92000 1.732
98.94000 6.330
98.96000 6.544
98.98000 5.284
99.00000 5.781
99.02000 5.482
99.04000 6.057
99.06000 6.771
99.08000 1.842
99.10000 4.583
99.12000 6.288
99.14000 2.307
99.16000 1.971
99.18000 6.047
99.20000 5.976
99.22000 2.045
99.24000 3.840
99.26000 7.471
99.28000 2.503
99.30000 -1.759
99.32000 2.878
99.34000 5.313
99.36000 4.676
99.38000 5.786
99.40000 10.728
99.42000 5.296
99.44000 4.926
99.46000 0.009
99.48000 3.212
99.50000 2.390
99.52000 -0.193
99.54000 3.912
99.56000 0.158
99.58000 2.736
99.60000 12.125
99.62000 6.662
99.64000 4.947
99.66000 -1.859
99.68000 2.414
99.70000 4.448
99.72000 0.314
99.74000 2.215
99.76000 6.734
99.78000 4.968
99.80000 6.743
99.82000 3.326
99.84000 2.468
99.86000 1.115
99.88000 7.204
99.90000 5.952
99.92000 -0.290
99.94000 1.809
99.96000 0.627
99.98000 0.000
