'Id: "0011389" Comment: "Integrate frame 0011389_Au-Ir-Rh_Au-Rich_XRD_Mapping-118-0000.gfrmwith cursor Wedge Cursor #5" Operator: "B?rgel" Anode: "Cu" Wavelength: "1.5406" Scantype: "2Theta (TwoTheta)" TimePerStep: "1" X: "-31.5" Y: "-9" Z: "5.95" 
10.00000 0.000
10.02000 8.605
10.04000 3.326
10.06000 8.907
10.08000 20.905
10.10000 29.705
10.12000 16.505
10.14000 9.137
10.16000 20.017
10.18000 7.917
10.20000 14.901
10.22000 21.159
10.24000 17.045
10.26000 16.673
10.28000 13.422
10.30000 8.780
10.32000 9.534
10.34000 9.926
10.36000 17.639
10.38000 21.642
10.40000 14.197
10.42000 7.137
10.44000 13.258
10.46000 8.358
10.48000 18.175
10.50000 23.555
10.52000 15.948
10.54000 12.866
10.56000 3.344
10.58000 11.686
10.60000 9.899
10.62000 4.937
10.64000 23.100
10.66000 21.010
10.68000 18.236
10.70000 11.919
10.72000 7.905
10.74000 2.095
10.76000 17.062
10.78000 7.511
10.80000 3.502
10.82000 -4.468
10.84000 -0.573
10.86000 18.415
10.88000 25.737
10.90000 26.821
10.92000 13.879
10.94000 7.099
10.96000 11.096
10.98000 17.274
11.00000 20.494
11.02000 5.004
11.04000 -4.132
11.06000 17.621
11.08000 20.386
11.10000 14.040
11.12000 21.398
11.14000 18.472
11.16000 9.728
11.18000 10.012
11.20000 5.750
11.22000 3.879
11.24000 4.691
11.26000 10.428
11.28000 0.403
11.30000 13.547
11.32000 24.156
11.34000 14.646
11.36000 14.335
11.38000 11.891
11.40000 15.076
11.42000 12.272
11.44000 -0.580
11.46000 -0.975
11.48000 0.322
11.50000 17.642
11.52000 21.285
11.54000 15.693
11.56000 12.051
11.58000 11.687
11.60000 15.520
11.62000 11.472
11.64000 5.137
11.66000 -3.936
11.68000 -3.322
11.70000 5.288
11.72000 15.427
11.74000 6.460
11.76000 4.481
11.78000 13.386
11.80000 12.680
11.82000 4.835
11.84000 10.958
11.86000 10.684
11.88000 7.761
11.90000 12.276
11.92000 13.627
11.94000 0.633
11.96000 6.259
11.98000 2.856
12.00000 7.953
12.02000 2.406
12.04000 4.451
12.06000 9.325
12.08000 7.810
12.10000 9.147
12.12000 6.823
12.14000 4.422
12.16000 2.293
12.18000 9.597
12.20000 -0.790
12.22000 -0.944
12.24000 14.895
12.26000 4.071
12.28000 12.903
12.30000 15.079
12.32000 8.481
12.34000 13.785
12.36000 5.296
12.38000 8.190
12.40000 14.961
12.42000 11.194
12.44000 1.094
12.46000 11.716
12.48000 17.396
12.50000 9.378
12.52000 9.599
12.54000 6.042
12.56000 12.722
12.58000 6.590
12.60000 7.232
12.62000 5.720
12.64000 13.455
12.66000 16.213
12.68000 16.269
12.70000 14.902
12.72000 17.773
12.74000 18.631
12.76000 10.737
12.78000 11.168
12.80000 10.802
12.82000 3.830
12.84000 16.793
12.86000 12.372
12.88000 7.242
12.90000 -4.513
12.92000 4.399
12.94000 16.643
12.96000 13.884
12.98000 9.646
13.00000 6.219
13.02000 10.337
13.04000 12.576
13.06000 5.973
13.08000 1.089
13.10000 4.032
13.12000 8.360
13.14000 6.651
13.16000 12.817
13.18000 17.051
13.20000 4.748
13.22000 8.191
13.24000 9.441
13.26000 7.954
13.28000 12.384
13.30000 14.082
13.32000 13.531
13.34000 1.659
13.36000 3.695
13.38000 5.361
13.40000 6.006
13.42000 7.909
13.44000 18.272
13.46000 10.041
13.48000 0.600
13.50000 5.600
13.52000 8.537
13.54000 3.307
13.56000 2.439
13.58000 3.298
13.60000 7.463
13.62000 12.154
13.64000 2.754
13.66000 10.914
13.68000 5.555
13.70000 3.847
13.72000 2.725
13.74000 8.627
13.76000 8.094
13.78000 3.918
13.80000 9.876
13.82000 15.309
13.84000 13.915
13.86000 8.573
13.88000 10.106
13.90000 10.174
13.92000 -0.688
13.94000 0.789
13.96000 1.843
13.98000 5.301
14.00000 -1.428
14.02000 6.457
14.04000 13.710
14.06000 6.276
14.08000 4.251
14.10000 9.873
14.12000 2.212
14.14000 8.912
14.16000 8.480
14.18000 4.430
14.20000 0.225
14.22000 1.031
14.24000 3.492
14.26000 14.567
14.28000 11.937
14.30000 5.230
14.32000 0.791
14.34000 13.035
14.36000 7.638
14.38000 2.021
14.40000 0.929
14.42000 -3.802
14.44000 0.797
14.46000 14.997
14.48000 6.514
14.50000 9.762
14.52000 8.362
14.54000 3.229
14.56000 7.263
14.58000 5.305
14.60000 8.666
14.62000 13.785
14.64000 16.645
14.66000 10.071
14.68000 12.376
14.70000 16.681
14.72000 8.486
14.74000 9.997
14.76000 4.529
14.78000 5.217
14.80000 3.087
14.82000 12.073
14.84000 7.540
14.86000 4.150
14.88000 2.867
14.90000 3.280
14.92000 7.174
14.94000 7.290
14.96000 8.898
14.98000 14.620
15.00000 4.623
15.02000 6.712
15.04000 0.456
15.06000 -4.198
15.08000 4.359
15.10000 1.660
15.12000 -0.703
15.14000 -2.876
15.16000 3.861
15.18000 9.608
15.20000 16.679
15.22000 17.352
15.24000 9.211
15.26000 1.606
15.28000 2.251
15.30000 6.506
15.32000 -0.398
15.34000 9.236
15.36000 6.851
15.38000 9.775
15.40000 0.102
15.42000 0.489
15.44000 7.613
15.46000 6.456
15.48000 8.544
15.50000 13.109
15.52000 6.823
15.54000 9.185
15.56000 10.890
15.58000 9.702
15.60000 5.599
15.62000 11.569
15.64000 7.083
15.66000 3.917
15.68000 9.838
15.70000 8.700
15.72000 8.861
15.74000 11.299
15.76000 16.057
15.78000 14.796
15.80000 19.569
15.82000 15.782
15.84000 5.602
15.86000 4.704
15.88000 11.170
15.90000 13.914
15.92000 7.071
15.94000 -4.386
15.96000 5.695
15.98000 15.136
16.00000 13.150
16.02000 13.722
16.04000 8.917
16.06000 16.528
16.08000 7.177
16.10000 11.977
16.12000 17.116
16.14000 14.507
16.16000 8.331
16.18000 4.091
16.20000 10.397
16.22000 12.620
16.24000 3.541
16.26000 2.084
16.28000 6.130
16.30000 7.334
16.32000 8.706
16.34000 11.673
16.36000 9.440
16.38000 7.192
16.40000 5.075
16.42000 -1.516
16.44000 10.672
16.46000 13.188
16.48000 8.998
16.50000 3.888
16.52000 0.809
16.54000 1.962
16.56000 1.401
16.58000 1.595
16.60000 7.985
16.62000 13.156
16.64000 4.820
16.66000 3.832
16.68000 -0.140
16.70000 -0.645
16.72000 7.537
16.74000 6.249
16.76000 6.078
16.78000 6.903
16.80000 2.058
16.82000 3.318
16.84000 15.520
16.86000 14.712
16.88000 13.938
16.90000 17.803
16.92000 10.467
16.94000 8.676
16.96000 8.221
16.98000 3.416
17.00000 6.978
17.02000 9.219
17.04000 14.491
17.06000 11.593
17.08000 11.142
17.10000 9.364
17.12000 4.596
17.14000 3.007
17.16000 2.080
17.18000 -4.367
17.20000 1.549
17.22000 8.762
17.24000 10.021
17.26000 1.719
17.28000 -0.989
17.30000 10.048
17.32000 19.502
17.34000 11.506
17.36000 2.476
17.38000 2.575
17.40000 11.550
17.42000 10.596
17.44000 10.047
17.46000 9.852
17.48000 5.565
17.50000 -1.082
17.52000 3.205
17.54000 3.505
17.56000 8.999
17.58000 6.356
17.60000 6.921
17.62000 0.103
17.64000 -0.524
17.66000 3.668
17.68000 7.158
17.70000 7.915
17.72000 8.743
17.74000 6.833
17.76000 8.527
17.78000 9.909
17.80000 3.287
17.82000 -0.876
17.84000 3.933
17.86000 6.700
17.88000 6.413
17.90000 5.012
17.92000 8.781
17.94000 11.515
17.96000 2.726
17.98000 4.885
18.00000 8.735
18.02000 8.865
18.04000 2.956
18.06000 -0.729
18.08000 3.312
18.10000 11.794
18.12000 14.543
18.14000 7.832
18.16000 6.298
18.18000 9.658
18.20000 12.124
18.22000 9.413
18.24000 3.447
18.26000 3.830
18.28000 6.186
18.30000 8.352
18.32000 7.790
18.34000 6.360
18.36000 10.601
18.38000 5.373
18.40000 4.729
18.42000 5.358
18.44000 2.717
18.46000 0.157
18.48000 2.204
18.50000 5.859
18.52000 7.454
18.54000 6.700
18.56000 3.290
18.58000 4.697
18.60000 5.477
18.62000 2.391
18.64000 3.068
18.66000 -0.752
18.68000 5.156
18.70000 8.520
18.72000 7.039
18.74000 11.330
18.76000 5.760
18.78000 -2.101
18.80000 -4.260
18.82000 0.148
18.84000 10.370
18.86000 9.861
18.88000 4.572
18.90000 12.135
18.92000 9.164
18.94000 9.171
18.96000 6.682
18.98000 9.197
19.00000 10.557
19.02000 0.670
19.04000 6.545
19.06000 9.664
19.08000 14.294
19.10000 12.811
19.12000 12.436
19.14000 5.476
19.16000 1.944
19.18000 1.122
19.20000 4.508
19.22000 8.246
19.24000 10.291
19.26000 9.308
19.28000 9.717
19.30000 0.713
19.32000 -0.312
19.34000 0.252
19.36000 -0.679
19.38000 7.324
19.40000 9.229
19.42000 13.197
19.44000 11.944
19.46000 7.660
19.48000 4.372
19.50000 6.117
19.52000 7.207
19.54000 1.526
19.56000 -0.845
19.58000 -0.063
19.60000 2.257
19.62000 5.074
19.64000 2.548
19.66000 7.013
19.68000 1.720
19.70000 -4.220
19.72000 2.783
19.74000 1.594
19.76000 4.436
19.78000 6.280
19.80000 9.522
19.82000 7.829
19.84000 6.414
19.86000 -0.145
19.88000 -2.239
19.90000 0.072
19.92000 -0.226
19.94000 3.241
19.96000 5.124
19.98000 6.493
20.00000 3.131
20.02000 2.123
20.04000 7.930
20.06000 6.524
20.08000 7.467
20.10000 10.399
20.12000 6.048
20.14000 2.054
20.16000 -3.341
20.18000 7.157
20.20000 10.238
20.22000 3.704
20.24000 4.536
20.26000 5.608
20.28000 1.292
20.30000 6.334
20.32000 7.386
20.34000 8.393
20.36000 1.692
20.38000 1.183
20.40000 2.324
20.42000 -0.089
20.44000 3.837
20.46000 9.895
20.48000 4.101
20.50000 4.190
20.52000 3.441
20.54000 0.705
20.56000 7.367
20.58000 3.635
20.60000 4.730
20.62000 4.412
20.64000 4.176
20.66000 0.855
20.68000 5.376
20.70000 2.009
20.72000 -1.843
20.74000 0.710
20.76000 5.152
20.78000 5.807
20.80000 2.797
20.82000 4.416
20.84000 -3.062
20.86000 5.761
20.88000 11.359
20.90000 6.023
20.92000 5.819
20.94000 8.198
20.96000 4.531
20.98000 9.246
21.00000 7.997
21.02000 0.309
21.04000 4.226
21.06000 8.766
21.08000 14.064
21.10000 7.900
21.12000 7.829
21.14000 4.143
21.16000 -1.686
21.18000 1.260
21.20000 8.463
21.22000 1.720
21.24000 4.105
21.26000 10.945
21.28000 6.251
21.30000 2.939
21.32000 7.783
21.34000 4.290
21.36000 0.310
21.38000 5.239
21.40000 9.009
21.42000 3.514
21.44000 2.450
21.46000 0.609
21.48000 -0.983
21.50000 4.209
21.52000 10.102
21.54000 9.181
21.56000 5.341
21.58000 5.324
21.60000 -0.464
21.62000 -4.117
21.64000 4.752
21.66000 8.331
21.68000 6.270
21.70000 9.767
21.72000 8.780
21.74000 -2.559
21.76000 0.711
21.78000 4.779
21.80000 5.098
21.82000 1.823
21.84000 0.811
21.86000 2.530
21.88000 4.214
21.90000 7.567
21.92000 9.942
21.94000 8.241
21.96000 4.804
21.98000 5.502
22.00000 5.643
22.02000 5.197
22.04000 4.921
22.06000 6.864
22.08000 10.278
22.10000 1.876
22.12000 3.010
22.14000 6.093
22.16000 1.940
22.18000 -1.688
22.20000 1.742
22.22000 9.911
22.24000 7.383
22.26000 2.340
22.28000 3.957
22.30000 9.448
22.32000 9.557
22.34000 6.193
22.36000 1.996
22.38000 -0.225
22.40000 2.278
22.42000 3.821
22.44000 -0.994
22.46000 0.531
22.48000 1.896
22.50000 3.803
22.52000 -0.210
22.54000 0.848
22.56000 4.935
22.58000 3.043
22.60000 3.696
22.62000 4.397
22.64000 0.622
22.66000 5.502
22.68000 8.922
22.70000 9.627
22.72000 7.318
22.74000 4.702
22.76000 11.146
22.78000 4.189
22.80000 2.704
22.82000 6.196
22.84000 3.606
22.86000 -2.108
22.88000 -1.412
22.90000 3.383
22.92000 2.373
22.94000 2.817
22.96000 5.903
22.98000 3.448
23.00000 1.386
23.02000 1.469
23.04000 4.321
23.06000 6.523
23.08000 5.870
23.10000 13.126
23.12000 16.182
23.14000 11.047
23.16000 5.916
23.18000 4.794
23.20000 1.427
23.22000 3.338
23.24000 10.749
23.26000 9.825
23.28000 7.512
23.30000 2.593
23.32000 -4.007
23.34000 2.913
23.36000 10.326
23.38000 7.464
23.40000 7.828
23.42000 6.139
23.44000 4.531
23.46000 11.063
23.48000 5.081
23.50000 7.508
23.52000 8.025
23.54000 6.101
23.56000 2.479
23.58000 1.192
23.60000 -2.769
23.62000 2.481
23.64000 2.449
23.66000 1.766
23.68000 4.550
23.70000 3.866
23.72000 6.776
23.74000 3.571
23.76000 2.121
23.78000 -2.191
23.80000 2.510
23.82000 2.730
23.84000 6.159
23.86000 4.770
23.88000 4.005
23.90000 4.462
23.92000 3.126
23.94000 2.164
23.96000 -0.198
23.98000 -1.604
24.00000 4.634
24.02000 3.621
24.04000 2.247
24.06000 4.981
24.08000 1.430
24.10000 4.513
24.12000 9.728
24.14000 3.332
24.16000 4.876
24.18000 1.892
24.20000 0.878
24.22000 0.361
24.24000 4.953
24.26000 2.761
24.28000 4.369
24.30000 4.848
24.32000 8.741
24.34000 9.035
24.36000 7.134
24.38000 2.491
24.40000 -0.571
24.42000 -3.961
24.44000 -2.764
24.46000 -1.177
24.48000 4.972
24.50000 8.350
24.52000 5.434
24.54000 6.052
24.56000 1.329
24.58000 0.305
24.60000 2.355
24.62000 2.889
24.64000 0.961
24.66000 3.247
24.68000 4.331
24.70000 6.181
24.72000 4.935
24.74000 4.520
24.76000 6.627
24.78000 8.490
24.80000 4.961
24.82000 6.442
24.84000 7.307
24.86000 9.989
24.88000 10.506
24.90000 0.271
24.92000 -3.925
24.94000 4.751
24.96000 10.324
24.98000 4.600
25.00000 4.445
25.02000 6.954
25.04000 -2.058
25.06000 1.151
25.08000 1.126
25.10000 1.710
25.12000 6.715
25.14000 3.425
25.16000 2.654
25.18000 7.237
25.20000 6.266
25.22000 10.263
25.24000 10.580
25.26000 8.033
25.28000 6.049
25.30000 5.206
25.32000 4.468
25.34000 8.055
25.36000 6.575
25.38000 4.559
25.40000 7.751
25.42000 5.415
25.44000 -0.149
25.46000 5.211
25.48000 7.675
25.50000 6.484
25.52000 11.231
25.54000 10.883
25.56000 6.265
25.58000 -3.872
25.60000 2.007
25.62000 3.726
25.64000 6.705
25.66000 0.024
25.68000 1.565
25.70000 4.097
25.72000 5.230
25.74000 10.224
25.76000 8.887
25.78000 6.793
25.80000 9.747
25.82000 8.903
25.84000 4.874
25.86000 6.655
25.88000 4.252
25.90000 7.160
25.92000 9.935
25.94000 5.751
25.96000 9.136
25.98000 6.731
26.00000 0.535
26.02000 -1.288
26.04000 1.534
26.06000 3.304
26.08000 -1.169
26.10000 -1.517
26.12000 4.964
26.14000 8.770
26.16000 6.578
26.18000 3.872
26.20000 6.394
26.22000 2.932
26.24000 2.849
26.26000 7.167
26.28000 8.370
26.30000 5.637
26.32000 7.508
26.34000 7.834
26.36000 6.651
26.38000 10.972
26.40000 11.846
26.42000 4.809
26.44000 8.526
26.46000 8.102
26.48000 5.567
26.50000 7.082
26.52000 4.207
26.54000 -3.786
26.56000 -3.846
26.58000 -2.491
26.60000 0.350
26.62000 3.496
26.64000 1.464
26.66000 4.371
26.68000 5.226
26.70000 3.196
26.72000 3.122
26.74000 6.869
26.76000 5.681
26.78000 2.301
26.80000 7.564
26.82000 2.115
26.84000 3.466
26.86000 3.017
26.88000 4.215
26.90000 3.525
26.92000 -0.071
26.94000 2.285
26.96000 4.642
26.98000 6.098
27.00000 2.674
27.02000 7.179
27.04000 6.123
27.06000 2.489
27.08000 4.297
27.10000 2.374
27.12000 0.006
27.14000 2.864
27.16000 2.768
27.18000 1.973
27.20000 5.457
27.22000 4.834
27.24000 2.863
27.26000 0.893
27.28000 1.696
27.30000 5.890
27.32000 5.728
27.34000 6.718
27.36000 7.969
27.38000 2.519
27.40000 0.336
27.42000 -2.003
27.44000 -0.165
27.46000 -0.617
27.48000 3.030
27.50000 8.291
27.52000 7.813
27.54000 12.093
27.56000 12.145
27.58000 10.921
27.60000 4.632
27.62000 8.264
27.64000 8.457
27.66000 8.945
27.68000 8.768
27.70000 6.118
27.72000 5.732
27.74000 8.013
27.76000 5.888
27.78000 5.889
27.80000 6.016
27.82000 2.005
27.84000 0.890
27.86000 0.457
27.88000 5.783
27.90000 9.990
27.92000 10.644
27.94000 10.262
27.96000 5.498
27.98000 2.962
28.00000 4.593
28.02000 8.361
28.04000 9.708
28.06000 11.589
28.08000 9.986
28.10000 9.510
28.12000 11.399
28.14000 5.861
28.16000 1.329
28.18000 3.127
28.20000 3.587
28.22000 6.124
28.24000 3.057
28.26000 4.002
28.28000 2.452
28.30000 5.293
28.32000 2.533
28.34000 2.446
28.36000 -3.722
28.38000 1.086
28.40000 5.039
28.42000 6.843
28.44000 6.403
28.46000 5.624
28.48000 4.510
28.50000 11.898
28.52000 10.938
28.54000 6.439
28.56000 6.387
28.58000 3.709
28.60000 -0.457
28.62000 -1.503
28.64000 3.293
28.66000 7.348
28.68000 9.064
28.70000 4.789
28.72000 4.095
28.74000 7.061
28.76000 8.233
28.78000 4.370
28.80000 6.330
28.82000 6.786
28.84000 7.235
28.86000 6.461
28.88000 -0.755
28.90000 -2.920
28.92000 0.437
28.94000 1.143
28.96000 5.219
28.98000 5.870
29.00000 4.587
29.02000 2.916
29.04000 1.321
29.06000 -2.113
29.08000 1.467
29.10000 -1.983
29.12000 -2.800
29.14000 0.296
29.16000 2.879
29.18000 3.868
29.20000 2.131
29.22000 4.129
29.24000 0.814
29.26000 3.091
29.28000 3.934
29.30000 -1.769
29.32000 -0.906
29.34000 3.045
29.36000 3.937
29.38000 1.074
29.40000 4.973
29.42000 4.609
29.44000 0.626
29.46000 2.605
29.48000 -3.156
29.50000 -3.202
29.52000 0.641
29.54000 0.288
29.56000 2.286
29.58000 1.419
29.60000 -1.257
29.62000 -0.688
29.64000 2.727
29.66000 0.878
29.68000 6.330
29.70000 9.723
29.72000 6.635
29.74000 2.553
29.76000 2.305
29.78000 5.792
29.80000 4.335
29.82000 4.885
29.84000 4.104
29.86000 5.051
29.88000 6.030
29.90000 2.896
29.92000 4.795
29.94000 3.933
29.96000 0.518
29.98000 3.082
30.00000 0.666
30.02000 -1.592
30.04000 -0.871
30.06000 0.075
30.08000 2.415
30.10000 1.842
30.12000 3.491
30.14000 0.954
30.16000 -2.511
30.18000 -1.596
30.20000 -1.483
30.22000 1.831
30.24000 6.192
30.26000 2.517
30.28000 1.140
30.30000 1.617
30.32000 3.176
30.34000 0.205
30.36000 2.966
30.38000 6.250
30.40000 11.075
30.42000 5.545
30.44000 -0.109
30.46000 5.611
30.48000 3.000
30.50000 -3.664
30.52000 1.095
30.54000 8.645
30.56000 9.541
30.58000 7.177
30.60000 5.498
30.62000 4.656
30.64000 2.823
30.66000 4.227
30.68000 4.136
30.70000 5.170
30.72000 8.540
30.74000 7.978
30.76000 0.379
30.78000 2.500
30.80000 2.504
30.82000 0.255
30.84000 3.307
30.86000 4.608
30.88000 3.941
30.90000 3.554
30.92000 1.286
30.94000 2.091
30.96000 1.044
30.98000 3.281
31.00000 1.503
31.02000 5.427
31.04000 1.717
31.06000 -2.200
31.08000 3.660
31.10000 6.186
31.12000 5.879
31.14000 4.744
31.16000 2.830
31.18000 2.055
31.20000 3.980
31.22000 2.315
31.24000 1.005
31.26000 1.755
31.28000 3.553
31.30000 2.580
31.32000 2.937
31.34000 4.351
31.36000 7.029
31.38000 6.006
31.40000 3.289
31.42000 4.221
31.44000 8.024
31.46000 6.552
31.48000 8.089
31.50000 8.193
31.52000 6.002
31.54000 3.278
31.56000 3.474
31.58000 -0.599
31.60000 -3.594
31.62000 2.049
31.64000 7.235
31.66000 10.603
31.68000 9.739
31.70000 5.976
31.72000 5.676
31.74000 12.192
31.76000 10.372
31.78000 10.855
31.80000 2.419
31.82000 -3.593
31.84000 -1.686
31.86000 1.889
31.88000 3.448
31.90000 6.377
31.92000 4.120
31.94000 1.646
31.96000 7.334
31.98000 6.878
32.00000 3.108
32.02000 0.295
32.04000 2.464
32.06000 -1.233
32.08000 -3.208
32.10000 3.117
32.12000 4.570
32.14000 7.811
32.16000 1.967
32.18000 4.971
32.20000 5.929
32.22000 1.176
32.24000 7.329
32.26000 1.941
32.28000 5.006
32.30000 1.082
32.32000 -0.409
32.34000 -0.177
32.36000 1.767
32.38000 1.161
32.40000 0.336
32.42000 -0.849
32.44000 0.988
32.46000 2.559
32.48000 5.537
32.50000 3.891
32.52000 -0.829
32.54000 3.390
32.56000 2.329
32.58000 0.291
32.60000 2.998
32.62000 4.842
32.64000 2.915
32.66000 -2.234
32.68000 1.936
32.70000 2.415
32.72000 5.945
32.74000 2.218
32.76000 5.368
32.78000 1.986
32.80000 -2.802
32.82000 2.953
32.84000 7.351
32.86000 7.170
32.88000 5.110
32.90000 4.344
32.92000 3.094
32.94000 0.007
32.96000 0.581
32.98000 -3.587
33.00000 0.102
33.02000 8.507
33.04000 6.555
33.06000 3.120
33.08000 0.857
33.10000 0.707
33.12000 0.033
33.14000 2.173
33.16000 4.226
33.18000 4.859
33.20000 5.103
33.22000 4.216
33.24000 2.948
33.26000 3.114
33.28000 4.059
33.30000 2.143
33.32000 2.775
33.34000 -0.423
33.36000 1.253
33.38000 3.483
33.40000 2.595
33.42000 1.981
33.44000 6.878
33.46000 7.995
33.48000 1.638
33.50000 3.047
33.52000 4.313
33.54000 5.140
33.56000 5.347
33.58000 10.015
33.60000 5.623
33.62000 3.523
33.64000 0.267
33.66000 2.110
33.68000 4.571
33.70000 5.010
33.72000 8.414
33.74000 5.965
33.76000 2.750
33.78000 4.076
33.80000 6.225
33.82000 3.635
33.84000 3.368
33.86000 0.531
33.88000 3.290
33.90000 3.796
33.92000 5.251
33.94000 1.574
33.96000 3.306
33.98000 6.159
34.00000 4.173
34.02000 7.748
34.04000 6.374
34.06000 2.953
34.08000 3.778
34.10000 2.813
34.12000 -3.570
34.14000 -2.218
34.16000 8.353
34.18000 8.560
34.20000 3.598
34.22000 4.756
34.24000 4.191
34.26000 1.229
34.28000 3.983
34.30000 4.640
34.32000 4.360
34.34000 5.063
34.36000 4.990
34.38000 5.470
34.40000 3.860
34.42000 2.436
34.44000 2.707
34.46000 -1.810
34.48000 1.771
34.50000 1.260
34.52000 2.702
34.54000 1.694
34.56000 0.795
34.58000 2.040
34.60000 1.091
34.62000 2.972
34.64000 2.463
34.66000 1.205
34.68000 2.258
34.70000 1.662
34.72000 2.417
34.74000 0.925
34.76000 0.637
34.78000 5.051
34.80000 -0.992
34.82000 0.276
34.84000 1.446
34.86000 -1.864
34.88000 1.472
34.90000 3.558
34.92000 2.559
34.94000 1.254
34.96000 -3.564
34.98000 -2.556
35.00000 -1.688
35.02000 -0.368
35.04000 6.500
35.06000 3.539
35.08000 4.201
35.10000 5.294
35.12000 8.547
35.14000 3.705
35.16000 4.388
35.18000 6.688
35.20000 2.134
35.22000 -0.282
35.24000 1.179
35.26000 0.652
35.28000 1.082
35.30000 5.357
35.32000 4.983
35.34000 1.647
35.36000 4.084
35.38000 5.404
35.40000 9.120
35.42000 4.740
35.44000 1.773
35.46000 4.753
35.48000 6.827
35.50000 1.883
35.52000 -3.549
35.54000 3.239
35.56000 7.963
35.58000 9.058
35.60000 7.648
35.62000 8.051
35.64000 2.838
35.66000 4.451
35.68000 8.565
35.70000 5.188
35.72000 8.987
35.74000 8.551
35.76000 6.334
35.78000 0.655
35.80000 4.217
35.82000 2.847
35.84000 1.218
35.86000 -3.543
35.88000 -1.014
35.90000 2.471
35.92000 1.576
35.94000 9.012
35.96000 8.519
35.98000 3.996
36.00000 8.060
36.02000 6.509
36.04000 2.170
36.06000 3.886
36.08000 6.925
36.10000 4.684
36.12000 7.897
36.14000 6.686
36.16000 5.803
36.18000 4.777
36.20000 4.813
36.22000 3.802
36.24000 5.555
36.26000 3.789
36.28000 -0.118
36.30000 -1.113
36.32000 2.819
36.34000 -0.390
36.36000 -2.228
36.38000 2.827
36.40000 2.111
36.42000 2.826
36.44000 2.745
36.46000 3.197
36.48000 2.456
36.50000 0.460
36.52000 3.057
36.54000 6.145
36.56000 5.653
36.58000 3.553
36.60000 -0.963
36.62000 0.686
36.64000 5.162
36.66000 11.055
36.68000 8.992
36.70000 4.376
36.72000 2.210
36.74000 4.552
36.76000 5.595
36.78000 7.134
36.80000 5.347
36.82000 7.529
36.84000 6.121
36.86000 1.886
36.88000 4.688
36.90000 4.602
36.92000 4.426
36.94000 1.033
36.96000 4.494
36.98000 7.966
37.00000 11.349
37.02000 12.439
37.04000 4.887
37.06000 3.509
37.08000 9.399
37.10000 10.024
37.12000 6.577
37.14000 -0.325
37.16000 4.093
37.18000 9.990
37.20000 11.753
37.22000 8.740
37.24000 7.448
37.26000 7.665
37.28000 14.253
37.30000 13.618
37.32000 12.995
37.34000 10.358
37.36000 9.739
37.38000 10.675
37.40000 14.159
37.42000 19.579
37.44000 15.908
37.46000 15.452
37.48000 10.728
37.50000 12.387
37.52000 9.876
37.54000 8.602
37.56000 10.941
37.58000 18.104
37.60000 14.836
37.62000 15.014
37.64000 17.304
37.66000 14.271
37.68000 12.883
37.70000 15.347
37.72000 19.745
37.74000 20.500
37.76000 19.485
37.78000 22.075
37.80000 22.783
37.82000 22.456
37.84000 29.484
37.86000 30.189
37.88000 29.419
37.90000 23.670
37.92000 22.142
37.94000 32.045
37.96000 33.599
37.98000 29.310
38.00000 28.817
38.02000 30.729
38.04000 33.379
38.06000 31.153
38.08000 32.630
38.10000 33.430
38.12000 31.903
38.14000 35.345
38.16000 39.155
38.18000 43.484
38.20000 43.378
38.22000 40.823
38.24000 43.510
38.26000 49.795
38.28000 48.303
38.30000 50.070
38.32000 56.254
38.34000 54.043
38.36000 58.549
38.38000 60.326
38.40000 62.380
38.42000 59.950
38.44000 62.029
38.46000 65.398
38.48000 67.938
38.50000 69.498
38.52000 78.753
38.54000 78.640
38.56000 79.911
38.58000 86.273
38.60000 91.938
38.62000 96.454
38.64000 99.538
38.66000 103.633
38.68000 114.558
38.70000 117.173
38.72000 125.336
38.74000 129.972
38.76000 132.545
38.78000 141.875
38.80000 148.234
38.82000 161.311
38.84000 179.774
38.86000 182.861
38.88000 189.842
38.90000 203.584
38.92000 219.015
38.94000 230.608
38.96000 248.028
38.98000 260.391
39.00000 278.708
39.02000 294.085
39.04000 312.418
39.06000 334.867
39.08000 341.527
39.10000 354.964
39.12000 371.596
39.14000 384.388
39.16000 402.422
39.18000 416.385
39.20000 426.738
39.22000 434.897
39.24000 448.487
39.26000 461.163
39.28000 464.502
39.30000 462.548
39.32000 466.712
39.34000 463.511
39.36000 454.225
39.38000 453.248
39.40000 462.784
39.42000 455.630
39.44000 450.755
39.46000 439.603
39.48000 420.610
39.50000 408.870
39.52000 401.917
39.54000 396.887
39.56000 384.649
39.58000 366.308
39.60000 349.500
39.62000 334.140
39.64000 317.877
39.66000 297.156
39.68000 276.861
39.70000 273.091
39.72000 261.287
39.74000 242.126
39.76000 229.115
39.78000 217.884
39.80000 205.477
39.82000 196.517
39.84000 179.661
39.86000 170.842
39.88000 165.378
39.90000 146.707
39.92000 136.424
39.94000 131.919
39.96000 121.134
39.98000 111.100
40.00000 102.140
40.02000 99.229
40.04000 94.233
40.06000 89.616
40.08000 86.994
40.10000 83.808
40.12000 73.843
40.14000 72.375
40.16000 69.331
40.18000 64.415
40.20000 61.916
40.22000 55.432
40.24000 54.018
40.26000 52.923
40.28000 51.616
40.30000 49.929
40.32000 48.199
40.34000 47.482
40.36000 48.389
40.38000 46.147
40.40000 39.923
40.42000 37.299
40.44000 35.266
40.46000 37.691
40.48000 33.641
40.50000 27.802
40.52000 27.786
40.54000 31.034
40.56000 31.711
40.58000 30.325
40.60000 26.068
40.62000 22.292
40.64000 21.774
40.66000 21.632
40.68000 17.107
40.70000 17.530
40.72000 17.030
40.74000 15.063
40.76000 17.275
40.78000 16.527
40.80000 16.805
40.82000 16.757
40.84000 15.779
40.86000 15.384
40.88000 10.088
40.90000 7.199
40.92000 9.452
40.94000 11.834
40.96000 10.287
40.98000 9.438
41.00000 11.244
41.02000 13.534
41.04000 8.448
41.06000 3.403
41.08000 5.599
41.10000 8.087
41.12000 9.481
41.14000 3.806
41.16000 5.651
41.18000 8.802
41.20000 8.280
41.22000 7.016
41.24000 4.858
41.26000 2.815
41.28000 3.474
41.30000 4.433
41.32000 11.448
41.34000 11.412
41.36000 5.228
41.38000 3.806
41.40000 5.534
41.42000 5.420
41.44000 3.805
41.46000 -0.755
41.48000 1.391
41.50000 8.859
41.52000 6.927
41.54000 5.745
41.56000 5.758
41.58000 2.333
41.60000 0.518
41.62000 2.236
41.64000 2.260
41.66000 -0.225
41.68000 3.480
41.70000 1.516
41.72000 1.629
41.74000 2.128
41.76000 0.709
41.78000 2.066
41.80000 -2.637
41.82000 -3.425
41.84000 -1.928
41.86000 -0.450
41.88000 1.416
41.90000 2.465
41.92000 3.038
41.94000 0.333
41.96000 -2.127
41.98000 1.259
42.00000 1.090
42.02000 0.557
42.04000 -0.632
42.06000 1.062
42.08000 4.101
42.10000 1.687
42.12000 0.244
42.14000 -3.210
42.16000 0.244
42.18000 1.722
42.20000 4.929
42.22000 2.219
42.24000 0.647
42.26000 2.365
42.28000 2.907
42.30000 3.065
42.32000 3.820
42.34000 -1.153
42.36000 2.038
42.38000 -0.457
42.40000 1.346
42.42000 3.257
42.44000 1.256
42.46000 -1.708
42.48000 -2.543
42.50000 3.258
42.52000 4.663
42.54000 3.275
42.56000 3.855
42.58000 2.815
42.60000 -1.623
42.62000 1.416
42.64000 -1.982
42.66000 -3.302
42.68000 2.153
42.70000 4.084
42.72000 2.438
42.74000 0.209
42.76000 2.967
42.78000 2.866
42.80000 1.223
42.82000 4.296
42.84000 3.332
42.86000 1.767
42.88000 -1.488
42.90000 1.589
42.92000 0.675
42.94000 5.595
42.96000 4.444
42.98000 1.022
43.00000 0.742
43.02000 0.148
43.04000 -1.695
43.06000 -1.623
43.08000 -0.277
43.10000 0.909
43.12000 3.073
43.14000 0.366
43.16000 -0.187
43.18000 2.019
43.20000 4.280
43.22000 1.368
43.24000 3.616
43.26000 2.066
43.28000 1.267
43.30000 -0.529
43.32000 -0.480
43.34000 1.419
43.36000 0.331
43.38000 -3.258
43.40000 0.852
43.42000 2.098
43.44000 -0.015
43.46000 -2.109
43.48000 3.051
43.50000 5.556
43.52000 2.112
43.54000 -1.821
43.56000 -3.033
43.58000 -1.278
43.60000 2.038
43.62000 1.124
43.64000 -0.868
43.66000 -1.353
43.68000 -0.873
43.70000 -0.307
43.72000 1.245
43.74000 0.722
43.76000 -3.237
43.78000 -0.748
43.80000 1.883
43.82000 -1.634
43.84000 -1.211
43.86000 -0.790
43.88000 -0.594
43.90000 -1.746
43.92000 -1.634
43.94000 0.004
43.96000 -1.864
43.98000 2.301
44.00000 0.578
44.02000 -3.219
44.04000 -2.061
44.06000 0.010
44.08000 1.767
44.10000 -0.733
44.12000 2.521
44.14000 3.407
44.16000 5.468
44.18000 2.555
44.20000 3.157
44.22000 0.825
44.24000 0.348
44.26000 3.122
44.28000 1.655
44.30000 0.235
44.32000 2.272
44.34000 3.905
44.36000 6.136
44.38000 1.518
44.40000 -2.212
44.42000 -1.676
44.44000 0.493
44.46000 0.988
44.48000 -0.405
44.50000 0.979
44.52000 3.895
44.54000 5.233
44.56000 4.145
44.58000 0.532
44.60000 -1.937
44.62000 0.028
44.64000 4.492
44.66000 4.368
44.68000 5.400
44.70000 4.947
44.72000 3.094
44.74000 5.557
44.76000 7.194
44.78000 3.401
44.80000 4.774
44.82000 6.968
44.84000 9.470
44.86000 6.850
44.88000 4.729
44.90000 7.791
44.92000 5.197
44.94000 5.890
44.96000 11.654
44.98000 12.194
45.00000 8.344
45.02000 16.293
45.04000 12.278
45.06000 13.511
45.08000 16.626
45.10000 15.777
45.12000 14.983
45.14000 15.304
45.16000 18.012
45.18000 19.598
45.20000 20.790
45.22000 16.605
45.24000 20.677
45.26000 25.526
45.28000 22.102
45.30000 26.399
45.32000 27.208
45.34000 26.471
45.36000 27.219
45.38000 27.437
45.40000 28.840
45.42000 35.252
45.44000 33.897
45.46000 35.045
45.48000 37.140
45.50000 45.280
45.52000 46.672
45.54000 46.553
45.56000 45.168
45.58000 42.278
45.60000 47.322
45.62000 55.427
45.64000 48.787
45.66000 48.592
45.68000 51.767
45.70000 53.543
45.72000 58.217
45.74000 63.252
45.76000 64.236
45.78000 58.413
45.80000 60.944
45.82000 65.009
45.84000 62.256
45.86000 60.181
45.88000 61.954
45.90000 59.849
45.92000 62.763
45.94000 67.663
45.96000 67.553
45.98000 70.410
46.00000 71.293
46.02000 61.453
46.04000 59.300
46.06000 61.028
46.08000 57.159
46.10000 57.935
46.12000 59.815
46.14000 53.461
46.16000 49.823
46.18000 52.266
46.20000 57.526
46.22000 58.727
46.24000 59.586
46.26000 53.218
46.28000 43.754
46.30000 40.967
46.32000 41.438
46.34000 41.570
46.36000 39.996
46.38000 36.256
46.40000 38.352
46.42000 38.072
46.44000 37.666
46.46000 30.860
46.48000 23.480
46.50000 27.170
46.52000 26.660
46.54000 27.940
46.56000 26.762
46.58000 17.975
46.60000 18.063
46.62000 22.543
46.64000 18.406
46.66000 13.248
46.68000 13.994
46.70000 18.172
46.72000 15.832
46.74000 14.243
46.76000 9.419
46.78000 8.398
46.80000 10.291
46.82000 13.544
46.84000 10.791
46.86000 6.777
46.88000 7.554
46.90000 8.221
46.92000 10.964
46.94000 10.950
46.96000 8.364
46.98000 4.373
47.00000 1.627
47.02000 6.371
47.04000 8.562
47.06000 4.593
47.08000 4.114
47.10000 5.819
47.12000 2.714
47.14000 4.419
47.16000 4.764
47.18000 4.444
47.20000 5.282
47.22000 3.718
47.24000 3.959
47.26000 7.517
47.28000 4.218
47.30000 -1.559
47.32000 1.495
47.34000 4.935
47.36000 7.117
47.38000 2.968
47.40000 -1.675
47.42000 0.354
47.44000 2.238
47.46000 -2.804
47.48000 1.941
47.50000 6.651
47.52000 -0.296
47.54000 4.544
47.56000 4.065
47.58000 3.118
47.60000 -0.651
47.62000 1.432
47.64000 2.886
47.66000 1.409
47.68000 4.740
47.70000 3.377
47.72000 0.736
47.74000 0.402
47.76000 3.105
47.78000 1.633
47.80000 0.798
47.82000 4.368
47.84000 2.837
47.86000 4.770
47.88000 6.809
47.90000 0.865
47.92000 -1.603
47.94000 -1.170
47.96000 0.073
47.98000 1.173
48.00000 -1.070
48.02000 0.345
48.04000 1.558
48.06000 2.750
48.08000 2.930
48.10000 -2.680
48.12000 -2.588
48.14000 0.598
48.16000 3.075
48.18000 -0.246
48.20000 5.545
48.22000 5.344
48.24000 3.954
48.26000 0.350
48.28000 -0.207
48.30000 3.275
48.32000 3.029
48.34000 1.584
48.36000 -1.648
48.38000 -0.209
48.40000 0.964
48.42000 -0.167
48.44000 1.648
48.46000 3.086
48.48000 2.069
48.50000 3.663
48.52000 1.894
48.54000 4.761
48.56000 3.630
48.58000 1.361
48.60000 -0.513
48.62000 2.636
48.64000 5.824
48.66000 3.032
48.68000 3.875
48.70000 4.330
48.72000 4.187
48.74000 2.120
48.76000 4.385
48.78000 2.374
48.80000 -2.593
48.82000 1.370
48.84000 0.980
48.86000 3.647
48.88000 2.555
48.90000 6.794
48.92000 6.883
48.94000 6.040
48.96000 4.790
48.98000 8.997
49.00000 8.057
49.02000 -1.484
49.04000 -2.652
49.06000 5.337
49.08000 5.776
49.10000 5.869
49.12000 2.162
49.14000 4.462
49.16000 4.887
49.18000 4.675
49.20000 -1.396
49.22000 0.481
49.24000 0.721
49.26000 1.738
49.28000 5.196
49.30000 4.428
49.32000 1.677
49.34000 0.557
49.36000 0.084
49.38000 1.428
49.40000 2.860
49.42000 -0.524
49.44000 -2.524
49.46000 -0.777
49.48000 2.419
49.50000 1.987
49.52000 -1.508
49.54000 1.780
49.56000 0.589
49.58000 -0.256
49.60000 1.608
49.62000 4.258
49.64000 5.237
49.66000 0.843
49.68000 4.628
49.70000 3.581
49.72000 2.693
49.74000 3.658
49.76000 4.951
49.78000 1.639
49.80000 -0.104
49.82000 -0.278
49.84000 0.458
49.86000 -1.771
49.88000 0.528
49.90000 2.077
49.92000 3.735
49.94000 5.400
49.96000 4.315
49.98000 5.016
50.00000 -2.647
50.02000 -1.810
50.04000 1.214
50.06000 1.436
50.08000 2.779
50.10000 1.081
50.12000 0.906
50.14000 2.409
50.16000 -0.942
50.18000 -2.173
50.20000 -2.644
50.22000 -0.204
50.24000 -1.412
50.26000 -1.269
50.28000 1.558
50.30000 -2.103
50.32000 0.273
50.34000 5.126
50.36000 4.194
50.38000 4.319
50.40000 1.346
50.42000 -1.725
50.44000 -0.824
50.46000 3.145
50.48000 1.685
50.50000 0.687
50.52000 2.003
50.54000 2.218
50.56000 1.145
50.58000 2.219
50.60000 3.135
50.62000 2.094
50.64000 1.570
50.66000 2.987
50.68000 3.964
50.70000 3.041
50.72000 1.949
50.74000 -0.644
50.76000 1.506
50.78000 -0.045
50.80000 0.170
50.82000 3.587
50.84000 3.016
50.86000 1.589
50.88000 4.951
50.90000 4.460
50.92000 2.451
50.94000 2.526
50.96000 -2.624
50.98000 -2.601
51.00000 0.718
51.02000 -0.724
51.04000 -0.521
51.06000 -0.841
51.08000 0.766
51.10000 0.314
51.12000 -0.891
51.14000 -2.525
51.16000 0.762
51.18000 1.004
51.20000 3.463
51.22000 3.096
51.24000 -0.224
51.26000 1.859
51.28000 2.630
51.30000 0.773
51.32000 -1.237
51.34000 -0.097
51.36000 0.715
51.38000 0.064
51.40000 0.287
51.42000 2.370
51.44000 2.431
51.46000 3.305
51.48000 1.108
51.50000 0.309
51.52000 0.552
51.54000 1.496
51.56000 2.646
51.58000 -2.607
51.60000 -1.084
51.62000 2.724
51.64000 3.316
51.66000 2.334
51.68000 0.520
51.70000 1.721
51.72000 2.426
51.74000 0.936
51.76000 1.846
51.78000 3.823
51.80000 0.237
51.82000 0.535
51.84000 3.349
51.86000 1.490
51.88000 0.511
51.90000 -0.843
51.92000 0.256
51.94000 -0.512
51.96000 0.591
51.98000 1.658
52.00000 1.018
52.02000 2.372
52.04000 1.598
52.06000 -0.952
52.08000 -1.220
52.10000 -1.981
52.12000 5.282
52.14000 3.324
52.16000 2.856
52.18000 0.953
52.20000 2.958
52.22000 2.505
52.24000 0.081
52.26000 0.391
52.28000 0.429
52.30000 2.689
52.32000 5.976
52.34000 5.937
52.36000 2.311
52.38000 1.819
52.40000 5.259
52.42000 4.783
52.44000 2.514
52.46000 -0.808
52.48000 -2.568
52.50000 -0.538
52.52000 -1.859
52.54000 -1.904
52.56000 -0.567
52.58000 -0.717
52.60000 4.351
52.62000 3.189
52.64000 0.752
52.66000 2.959
52.68000 0.710
52.70000 0.729
52.72000 1.807
52.74000 2.466
52.76000 3.270
52.78000 0.831
52.80000 4.205
52.82000 1.946
52.84000 2.050
52.86000 -1.222
52.88000 2.752
52.90000 5.511
52.92000 6.934
52.94000 2.916
52.96000 1.174
52.98000 -1.141
53.00000 1.099
53.02000 0.048
53.04000 -0.751
53.06000 0.260
53.08000 1.746
53.10000 4.507
53.12000 1.106
53.14000 0.852
53.16000 0.121
53.18000 3.732
53.20000 3.384
53.22000 1.172
53.24000 3.128
53.26000 1.418
53.28000 -0.143
53.30000 0.729
53.32000 4.283
53.34000 3.054
53.36000 2.300
53.38000 3.746
53.40000 1.189
53.42000 -0.063
53.44000 -0.769
53.46000 -0.167
53.48000 2.518
53.50000 4.838
53.52000 2.025
53.54000 0.922
53.56000 1.680
53.58000 -0.824
53.60000 1.258
53.62000 -0.905
53.64000 2.747
53.66000 3.179
53.68000 1.469
53.70000 2.342
53.72000 3.868
53.74000 1.498
53.76000 -1.620
53.78000 1.300
53.80000 1.116
53.82000 1.025
53.84000 -1.450
53.86000 2.646
53.88000 1.061
53.90000 -0.401
53.92000 2.294
53.94000 5.616
53.96000 2.452
53.98000 0.117
54.00000 -1.303
54.02000 -1.164
54.04000 -0.345
54.06000 4.339
54.08000 1.446
54.10000 -0.799
54.12000 2.015
54.14000 4.102
54.16000 0.559
54.18000 2.246
54.20000 5.641
54.22000 3.015
54.24000 2.741
54.26000 3.157
54.28000 3.837
54.30000 1.990
54.32000 2.340
54.34000 5.920
54.36000 2.879
54.38000 4.078
54.40000 6.573
54.42000 1.078
54.44000 3.407
54.46000 2.061
54.48000 1.903
54.50000 -0.418
54.52000 -2.479
54.54000 2.947
54.56000 7.597
54.58000 3.942
54.60000 8.307
54.62000 9.814
54.64000 5.888
54.66000 1.948
54.68000 1.946
54.70000 1.366
54.72000 1.401
54.74000 2.714
54.76000 2.178
54.78000 2.902
54.80000 1.034
54.82000 0.559
54.84000 2.852
54.86000 3.573
54.88000 3.228
54.90000 1.939
54.92000 1.270
54.94000 3.357
54.96000 6.117
54.98000 5.879
55.00000 6.258
55.02000 -2.073
55.04000 -1.010
55.06000 2.713
55.08000 4.686
55.10000 2.091
55.12000 0.871
55.14000 2.416
55.16000 3.852
55.18000 5.371
55.20000 3.698
55.22000 2.589
55.24000 4.245
55.26000 4.201
55.28000 6.199
55.30000 5.098
55.32000 2.328
55.34000 1.899
55.36000 1.243
55.38000 1.388
55.40000 0.936
55.42000 3.151
55.44000 0.364
55.46000 2.967
55.48000 3.900
55.50000 1.822
55.52000 2.086
55.54000 2.547
55.56000 -0.787
55.58000 -1.276
55.60000 0.975
55.62000 6.874
55.64000 1.920
55.66000 0.510
55.68000 -0.220
55.70000 -1.274
55.72000 -0.372
55.74000 -0.987
55.76000 1.060
55.78000 0.297
55.80000 0.004
55.82000 2.450
55.84000 2.875
55.86000 -1.444
55.88000 -0.411
55.90000 3.556
55.92000 6.123
55.94000 2.784
55.96000 0.647
55.98000 -0.980
56.00000 -0.684
56.02000 1.034
56.04000 6.075
56.06000 7.458
56.08000 0.585
56.10000 3.487
56.12000 1.883
56.14000 3.903
56.16000 7.744
56.18000 2.467
56.20000 -2.460
56.22000 -1.615
56.24000 2.392
56.26000 3.815
56.28000 0.387
56.30000 -1.676
56.32000 -2.159
56.34000 2.490
56.36000 2.441
56.38000 -0.948
56.40000 0.456
56.42000 0.430
56.44000 0.321
56.46000 1.608
56.48000 1.791
56.50000 0.118
56.52000 -0.068
56.54000 4.457
56.56000 7.004
56.58000 6.556
56.60000 5.087
56.62000 6.170
56.64000 4.559
56.66000 2.085
56.68000 3.753
56.70000 3.506
56.72000 1.912
56.74000 0.345
56.76000 0.534
56.78000 6.742
56.80000 7.362
56.82000 6.492
56.84000 5.577
56.86000 4.112
56.88000 3.991
56.90000 1.644
56.92000 0.394
56.94000 1.189
56.96000 1.776
56.98000 0.051
57.00000 -1.160
57.02000 4.059
57.04000 6.026
57.06000 3.277
57.08000 7.557
57.10000 9.624
57.12000 4.961
57.14000 0.649
57.16000 1.950
57.18000 5.488
57.20000 5.276
57.22000 4.870
57.24000 7.118
57.26000 9.132
57.28000 5.476
57.30000 2.370
57.32000 3.984
57.34000 6.610
57.36000 4.246
57.38000 -0.079
57.40000 -0.836
57.42000 0.555
57.44000 2.382
57.46000 6.079
57.48000 3.058
57.50000 2.116
57.52000 5.205
57.54000 3.322
57.56000 3.567
57.58000 2.462
57.60000 4.014
57.62000 4.758
57.64000 4.640
57.66000 4.299
57.68000 -0.377
57.70000 -2.382
57.72000 4.168
57.74000 5.557
57.76000 2.269
57.78000 2.601
57.80000 4.419
57.82000 2.950
57.84000 6.402
57.86000 6.601
57.88000 4.934
57.90000 6.059
57.92000 4.488
57.94000 6.467
57.96000 4.828
57.98000 2.677
58.00000 3.072
58.02000 3.928
58.04000 3.382
58.06000 3.655
58.08000 5.176
58.10000 2.539
58.12000 2.125
58.14000 4.042
58.16000 1.870
58.18000 4.507
58.20000 2.876
58.22000 -2.362
58.24000 4.950
58.26000 4.508
58.28000 4.795
58.30000 5.881
58.32000 4.616
58.34000 4.121
58.36000 4.464
58.38000 5.027
58.40000 8.112
58.42000 8.417
58.44000 5.558
58.46000 -0.128
58.48000 2.234
58.50000 8.862
58.52000 5.839
58.54000 5.840
58.56000 9.492
58.58000 0.267
58.60000 1.791
58.62000 1.583
58.64000 2.282
58.66000 2.895
58.68000 2.397
58.70000 3.659
58.72000 4.366
58.74000 5.472
58.76000 8.355
58.78000 7.484
58.80000 6.445
58.82000 5.834
58.84000 3.442
58.86000 -1.451
58.88000 0.514
58.90000 1.049
58.92000 0.943
58.94000 1.709
58.96000 4.520
58.98000 4.075
59.00000 5.755
59.02000 6.731
59.04000 2.736
59.06000 4.528
59.08000 5.948
59.10000 2.100
59.12000 4.905
59.14000 6.079
59.16000 4.788
59.18000 4.934
59.20000 5.774
59.22000 7.747
59.24000 5.390
59.26000 3.819
59.28000 2.979
59.30000 3.333
59.32000 3.989
59.34000 2.086
59.36000 2.641
59.38000 5.187
59.40000 2.946
59.42000 4.729
59.44000 2.828
59.46000 4.710
59.48000 4.088
59.50000 6.835
59.52000 4.159
59.54000 3.162
59.56000 7.198
59.58000 6.764
59.60000 10.522
59.62000 6.062
59.64000 1.889
59.66000 -2.307
59.68000 4.141
59.70000 5.299
59.72000 7.330
59.74000 9.399
59.76000 6.146
59.78000 8.426
59.80000 6.852
59.82000 5.198
59.84000 2.871
59.86000 1.284
59.88000 3.241
59.90000 3.159
59.92000 5.423
59.94000 6.135
59.96000 4.352
59.98000 -0.958
60.00000 2.754
60.02000 3.807
60.04000 2.888
60.06000 4.296
60.08000 0.742
60.10000 4.534
60.12000 1.695
60.14000 3.702
60.16000 3.033
60.18000 3.718
60.20000 2.570
60.22000 3.674
60.24000 4.316
60.26000 6.711
60.28000 6.786
60.30000 5.051
60.32000 2.597
60.34000 0.782
60.36000 1.478
60.38000 -1.855
60.40000 -0.216
60.42000 2.935
60.44000 3.904
60.46000 0.734
60.48000 3.708
60.50000 1.412
60.52000 0.989
60.54000 -0.726
60.56000 -2.319
60.58000 -1.539
60.60000 1.493
60.62000 4.689
60.64000 3.114
60.66000 4.929
60.68000 4.217
60.70000 4.033
60.72000 2.208
60.74000 1.175
60.76000 0.729
60.78000 2.999
60.80000 3.509
60.82000 4.597
60.84000 4.432
60.86000 1.370
60.88000 2.178
60.90000 2.495
60.92000 3.256
60.94000 2.061
60.96000 3.145
60.98000 1.843
61.00000 1.657
61.02000 3.584
61.04000 3.818
61.06000 3.945
61.08000 5.038
61.10000 7.497
61.12000 4.845
61.14000 3.476
61.16000 3.769
61.18000 2.435
61.20000 3.592
61.22000 3.389
61.24000 3.291
61.26000 1.383
61.28000 3.700
61.30000 1.161
61.32000 3.897
61.34000 3.327
61.36000 0.833
61.38000 4.362
61.40000 5.101
61.42000 -1.232
61.44000 0.396
61.46000 5.770
61.48000 -0.296
61.50000 -1.398
61.52000 -2.288
61.54000 -0.891
61.56000 1.335
61.58000 2.417
61.60000 0.887
61.62000 2.569
61.64000 2.053
61.66000 1.577
61.68000 0.119
61.70000 0.749
61.72000 4.163
61.74000 3.979
61.76000 3.913
61.78000 3.369
61.80000 0.447
61.82000 1.894
61.84000 -2.063
61.86000 -2.278
61.88000 -0.053
61.90000 2.513
61.92000 0.988
61.94000 3.047
61.96000 7.259
61.98000 3.334
62.00000 1.537
62.02000 1.393
62.04000 4.748
62.06000 2.046
62.08000 1.816
62.10000 0.069
62.12000 2.044
62.14000 6.145
62.16000 3.838
62.18000 2.034
62.20000 1.298
62.22000 1.093
62.24000 1.196
62.26000 1.796
62.28000 2.313
62.30000 3.315
62.32000 0.047
62.34000 0.814
62.36000 -1.315
62.38000 -1.304
62.40000 0.147
62.42000 1.497
62.44000 4.056
62.46000 4.931
62.48000 4.053
62.50000 1.772
62.52000 1.139
62.54000 0.982
62.56000 2.952
62.58000 1.588
62.60000 6.242
62.62000 5.267
62.64000 6.844
62.66000 4.777
62.68000 1.322
62.70000 -2.278
62.72000 1.095
62.74000 1.386
62.76000 3.489
62.78000 3.239
62.80000 2.460
62.82000 1.801
62.84000 -0.931
62.86000 -0.746
62.88000 1.212
62.90000 1.825
62.92000 -0.002
62.94000 -2.051
62.96000 -1.856
62.98000 0.126
63.00000 3.020
63.02000 2.890
63.04000 2.419
63.06000 3.070
63.08000 2.983
63.10000 2.391
63.12000 1.673
63.14000 3.469
63.16000 0.557
63.18000 1.396
63.20000 0.449
63.22000 0.425
63.24000 2.989
63.26000 1.374
63.28000 2.467
63.30000 1.266
63.32000 1.298
63.34000 2.138
63.36000 0.591
63.38000 1.823
63.40000 3.936
63.42000 -0.281
63.44000 -1.576
63.46000 3.488
63.48000 4.008
63.50000 0.057
63.52000 0.379
63.54000 2.131
63.56000 2.767
63.58000 1.524
63.60000 1.851
63.62000 2.593
63.64000 3.119
63.66000 -2.013
63.68000 -1.289
63.70000 0.076
63.72000 0.097
63.74000 1.415
63.76000 0.660
63.78000 0.134
63.80000 -0.017
63.82000 1.672
63.84000 5.289
63.86000 5.049
63.88000 -0.855
63.90000 -2.261
63.92000 -0.490
63.94000 0.864
63.96000 -0.332
63.98000 3.445
64.00000 -0.119
64.02000 1.810
64.04000 3.713
64.06000 3.778
64.08000 3.079
64.10000 2.223
64.12000 2.982
64.14000 1.313
64.16000 -0.193
64.18000 1.930
64.20000 3.643
64.22000 0.355
64.24000 -2.178
64.26000 2.116
64.28000 2.812
64.30000 1.264
64.32000 2.193
64.34000 3.783
64.36000 2.157
64.38000 3.659
64.40000 2.716
64.42000 2.285
64.44000 1.903
64.46000 3.468
64.48000 0.491
64.50000 0.140
64.52000 -0.136
64.54000 -0.520
64.56000 1.437
64.58000 1.722
64.60000 2.214
64.62000 -0.997
64.64000 0.686
64.66000 1.595
64.68000 -0.648
64.70000 0.964
64.72000 1.140
64.74000 2.637
64.76000 0.332
64.78000 -2.275
64.80000 0.405
64.82000 0.224
64.84000 -0.159
64.86000 0.908
64.88000 1.562
64.90000 0.984
64.92000 -1.148
64.94000 0.167
64.96000 1.629
64.98000 0.522
65.00000 1.879
65.02000 -1.071
65.04000 -0.397
65.06000 0.962
65.08000 1.024
65.10000 2.963
65.12000 1.785
65.14000 2.632
65.16000 2.160
65.18000 4.247
65.20000 2.280
65.22000 0.293
65.24000 -0.780
65.26000 1.158
65.28000 -2.272
65.30000 -2.272
65.32000 -0.957
65.34000 -0.192
65.36000 1.718
65.38000 3.164
65.40000 2.121
65.42000 -0.259
65.44000 0.972
65.46000 -0.681
65.48000 -0.200
65.50000 2.344
65.52000 1.061
65.54000 0.594
65.56000 0.867
65.58000 0.747
65.60000 -0.203
65.62000 0.401
65.64000 -1.702
65.66000 0.505
65.68000 1.759
65.70000 3.452
65.72000 -0.854
65.74000 -0.157
65.76000 0.178
65.78000 -0.068
65.80000 1.235
65.82000 1.177
65.84000 -0.705
65.86000 -1.751
65.88000 -1.281
65.90000 -1.758
65.92000 -0.934
65.94000 1.890
65.96000 -1.289
65.98000 0.197
66.00000 3.409
66.02000 -0.310
66.04000 -2.279
66.06000 1.219
66.08000 2.858
66.10000 1.218
66.12000 2.298
66.14000 0.653
66.16000 0.390
66.18000 0.530
66.20000 -0.432
66.22000 1.115
66.24000 1.215
66.26000 -1.074
66.28000 -0.055
66.30000 2.924
66.32000 1.667
66.34000 5.432
66.36000 5.116
66.38000 3.223
66.40000 1.866
66.42000 2.585
66.44000 0.703
66.46000 0.058
66.48000 1.838
66.50000 0.243
66.52000 -1.397
66.54000 -0.090
66.56000 0.166
66.58000 0.513
66.60000 -0.256
66.62000 -0.593
66.64000 4.946
66.66000 5.177
66.68000 3.173
66.70000 4.750
66.72000 3.564
66.74000 5.290
66.76000 4.686
66.78000 4.286
66.80000 5.342
66.82000 3.149
66.84000 1.952
66.86000 2.064
66.88000 1.297
66.90000 1.853
66.92000 2.897
66.94000 3.723
66.96000 3.431
66.98000 1.402
67.00000 3.006
67.02000 4.582
67.04000 5.783
67.06000 6.113
67.08000 6.510
67.10000 3.116
67.12000 3.484
67.14000 4.273
67.16000 6.058
67.18000 7.443
67.20000 4.533
67.22000 6.216
67.24000 5.764
67.26000 4.017
67.28000 5.776
67.30000 7.168
67.32000 7.602
67.34000 2.977
67.36000 4.129
67.38000 0.709
67.40000 0.438
67.42000 1.584
67.44000 4.989
67.46000 5.289
67.48000 4.108
67.50000 2.109
67.52000 -2.235
67.54000 -1.520
67.56000 -0.212
67.58000 1.686
67.60000 4.099
67.62000 -1.741
67.64000 -1.877
67.66000 -2.016
67.68000 0.498
67.70000 0.616
67.72000 1.653
67.74000 0.773
67.76000 2.896
67.78000 2.929
67.80000 1.590
67.82000 1.957
67.84000 2.101
67.86000 2.315
67.88000 -0.744
67.90000 -2.201
67.92000 -0.808
67.94000 -1.047
67.96000 -0.392
67.98000 -1.125
68.00000 -2.123
68.02000 -1.303
68.04000 0.199
68.06000 0.341
68.08000 2.637
68.10000 1.241
68.12000 1.507
68.14000 0.940
68.16000 1.362
68.18000 0.127
68.20000 -0.620
68.22000 -1.686
68.24000 -0.655
68.26000 -0.598
68.28000 -0.750
68.30000 -0.539
68.32000 0.013
68.34000 -1.208
68.36000 -1.053
68.38000 -1.417
68.40000 -1.056
68.42000 1.614
68.44000 -0.625
68.46000 -1.154
68.48000 0.681
68.50000 0.650
68.52000 0.088
68.54000 0.901
68.56000 1.067
68.58000 1.589
68.60000 0.489
68.62000 -0.703
68.64000 -2.151
68.66000 -0.769
68.68000 0.119
68.70000 3.471
68.72000 -0.158
68.74000 -0.343
68.76000 -0.357
68.78000 1.075
68.80000 -0.251
68.82000 -1.499
68.84000 0.356
68.86000 2.368
68.88000 -0.613
68.90000 -0.412
68.92000 1.123
68.94000 0.953
68.96000 -0.867
68.98000 1.784
69.00000 1.835
69.02000 0.767
69.04000 0.605
69.06000 -1.219
69.08000 2.455
69.10000 3.072
69.12000 2.257
69.14000 0.737
69.16000 2.017
69.18000 -0.004
69.20000 -0.324
69.22000 0.429
69.24000 0.936
69.26000 0.291
69.28000 0.083
69.30000 1.468
69.32000 0.418
69.34000 2.251
69.36000 2.384
69.38000 0.759
69.40000 4.053
69.42000 3.431
69.44000 1.749
69.46000 1.965
69.48000 -0.375
69.50000 1.863
69.52000 0.074
69.54000 1.149
69.56000 0.954
69.58000 2.391
69.60000 0.439
69.62000 0.240
69.64000 3.208
69.66000 2.231
69.68000 0.763
69.70000 -0.137
69.72000 1.377
69.74000 2.682
69.76000 0.898
69.78000 -2.084
69.80000 -0.909
69.82000 0.553
69.84000 2.818
69.86000 2.591
69.88000 1.602
69.90000 0.710
69.92000 1.795
69.94000 4.846
69.96000 1.932
69.98000 -1.705
70.00000 1.074
70.02000 3.454
70.04000 0.615
70.06000 -2.058
70.08000 -0.405
70.10000 0.238
70.12000 2.664
70.14000 2.982
70.16000 1.388
70.18000 1.581
70.20000 2.855
70.22000 0.993
70.24000 -0.213
70.26000 -1.459
70.28000 -2.044
70.30000 1.112
70.32000 -0.321
70.34000 1.262
70.36000 1.345
70.38000 1.738
70.40000 2.341
70.42000 -0.892
70.44000 1.863
70.46000 4.674
70.48000 2.466
70.50000 2.101
70.52000 1.820
70.54000 2.295
70.56000 1.878
70.58000 3.892
70.60000 5.243
70.62000 1.601
70.64000 0.246
70.66000 -2.041
70.68000 -0.521
70.70000 2.345
70.72000 0.122
70.74000 2.164
70.76000 0.994
70.78000 -0.252
70.80000 0.460
70.82000 2.051
70.84000 4.634
70.86000 5.663
70.88000 5.486
70.90000 3.821
70.92000 0.960
70.94000 2.237
70.96000 1.389
70.98000 2.996
71.00000 1.065
71.02000 0.658
71.04000 1.762
71.06000 -1.455
71.08000 -1.376
71.10000 1.396
71.12000 2.041
71.14000 4.846
71.16000 3.247
71.18000 0.448
71.20000 0.552
71.22000 1.019
71.24000 4.741
71.26000 2.309
71.28000 -2.023
71.30000 -1.669
71.32000 1.439
71.34000 -0.430
71.36000 1.465
71.38000 -0.014
71.40000 0.695
71.42000 -0.357
71.44000 -0.737
71.46000 0.101
71.48000 0.855
71.50000 1.969
71.52000 1.443
71.54000 0.859
71.56000 2.087
71.58000 0.797
71.60000 2.541
71.62000 2.836
71.64000 -0.452
71.66000 -0.471
71.68000 -0.396
71.70000 3.658
71.72000 2.453
71.74000 1.724
71.76000 -0.101
71.78000 1.764
71.80000 0.117
71.82000 3.053
71.84000 1.833
71.86000 1.859
71.88000 -1.994
71.90000 -0.646
71.92000 -0.095
71.94000 0.123
71.96000 1.217
71.98000 -0.985
72.00000 -1.518
72.02000 2.699
72.04000 1.259
72.06000 -0.373
72.08000 -0.458
72.10000 0.365
72.12000 -1.161
72.14000 1.285
72.16000 3.073
72.18000 2.771
72.20000 0.128
72.22000 -0.067
72.24000 -0.087
72.26000 1.920
72.28000 -1.713
72.30000 -0.505
72.32000 -0.018
72.34000 0.409
72.36000 1.548
72.38000 1.520
72.40000 2.586
72.42000 2.819
72.44000 0.374
72.46000 0.733
72.48000 0.814
72.50000 0.817
72.52000 1.077
72.54000 1.087
72.56000 0.346
72.58000 -1.378
72.60000 0.061
72.62000 -1.985
72.64000 -1.471
72.66000 1.123
72.68000 2.203
72.70000 4.142
72.72000 3.487
72.74000 2.639
72.76000 0.973
72.78000 3.686
72.80000 5.750
72.82000 1.396
72.84000 -0.569
72.86000 0.671
72.88000 0.899
72.90000 0.023
72.92000 0.546
72.94000 0.947
72.96000 2.126
72.98000 0.090
73.00000 -1.040
73.02000 0.563
73.04000 2.237
73.06000 -1.311
73.08000 -1.982
73.10000 0.616
73.12000 2.346
73.14000 4.490
73.16000 2.114
73.18000 0.286
73.20000 -0.174
73.22000 -0.424
73.24000 3.809
73.26000 6.291
73.28000 3.960
73.30000 1.689
73.32000 0.439
73.34000 0.274
73.36000 1.913
73.38000 3.386
73.40000 0.605
73.42000 1.000
73.44000 1.073
73.46000 -0.862
73.48000 1.375
73.50000 -0.537
73.52000 0.075
73.54000 1.362
73.56000 -0.439
73.58000 0.671
73.60000 -0.267
73.62000 -0.747
73.64000 1.583
73.66000 4.601
73.68000 3.004
73.70000 -0.113
73.72000 -1.954
73.74000 0.188
73.76000 2.619
73.78000 2.957
73.80000 3.199
73.82000 0.305
73.84000 -0.417
73.86000 -1.919
73.88000 2.925
73.90000 2.173
73.92000 -0.086
73.94000 3.041
73.96000 1.420
73.98000 2.805
74.00000 4.761
74.02000 2.772
74.04000 2.230
74.06000 2.766
74.08000 4.717
74.10000 4.114
74.12000 2.934
74.14000 4.850
74.16000 4.727
74.18000 4.069
74.20000 3.617
74.22000 4.071
74.24000 3.461
74.26000 2.354
74.28000 1.764
74.30000 3.712
74.32000 2.851
74.34000 2.269
74.36000 1.594
74.38000 2.399
74.40000 3.156
74.42000 4.179
74.44000 2.863
74.46000 3.958
74.48000 2.283
74.50000 3.063
74.52000 1.725
74.54000 1.365
74.56000 1.296
74.58000 1.941
74.60000 1.637
74.62000 1.284
74.64000 5.220
74.66000 4.913
74.68000 2.452
74.70000 3.547
74.72000 0.541
74.74000 -1.937
74.76000 0.777
74.78000 2.728
74.80000 3.408
74.82000 3.362
74.84000 2.071
74.86000 2.094
74.88000 3.464
74.90000 3.172
74.92000 3.843
74.94000 1.581
74.96000 3.364
74.98000 0.847
75.00000 1.375
75.02000 1.499
75.04000 -0.138
75.06000 2.898
75.08000 2.822
75.10000 1.681
75.12000 1.420
75.14000 0.704
75.16000 -1.569
75.18000 0.315
75.20000 1.977
75.22000 3.211
75.24000 5.142
75.26000 3.250
75.28000 1.561
75.30000 4.000
75.32000 4.751
75.34000 -0.209
75.36000 3.115
75.38000 2.118
75.40000 1.829
75.42000 -0.073
75.44000 0.198
75.46000 0.846
75.48000 1.320
75.50000 0.774
75.52000 2.012
75.54000 0.911
75.56000 0.469
75.58000 2.161
75.60000 -0.209
75.62000 -1.982
75.64000 1.082
75.66000 0.525
75.68000 4.552
75.70000 4.338
75.72000 1.274
75.74000 3.185
75.76000 1.677
75.78000 1.065
75.80000 0.460
75.82000 0.329
75.84000 3.134
75.86000 4.618
75.88000 7.799
75.90000 3.871
75.92000 -1.985
75.94000 -0.667
75.96000 -0.435
75.98000 0.824
76.00000 1.918
76.02000 3.171
76.04000 1.890
76.06000 3.243
76.08000 4.453
76.10000 2.829
76.12000 3.685
76.14000 2.395
76.16000 1.367
76.18000 3.054
76.20000 0.642
76.22000 0.116
76.24000 -0.160
76.26000 2.895
76.28000 -0.208
76.30000 0.555
76.32000 1.715
76.34000 2.542
76.36000 1.203
76.38000 -0.367
76.40000 -1.984
76.42000 0.851
76.44000 5.075
76.46000 8.182
76.48000 1.936
76.50000 -1.059
76.52000 -1.246
76.54000 2.517
76.56000 5.081
76.58000 5.025
76.60000 0.740
76.62000 -1.895
76.64000 1.673
76.66000 5.665
76.68000 4.835
76.70000 3.675
76.72000 3.007
76.74000 0.397
76.76000 0.662
76.78000 3.009
76.80000 2.235
76.82000 0.718
76.84000 -1.293
76.86000 2.093
76.88000 3.879
76.90000 0.914
76.92000 2.170
76.94000 1.455
76.96000 2.354
76.98000 1.867
77.00000 2.687
77.02000 0.565
77.04000 -0.825
77.06000 1.595
77.08000 1.563
77.10000 3.989
77.12000 5.257
77.14000 4.465
77.16000 4.149
77.18000 5.181
77.20000 1.803
77.22000 0.703
77.24000 -0.362
77.26000 2.799
77.28000 0.001
77.30000 -1.993
77.32000 2.645
77.34000 2.765
77.36000 3.787
77.38000 3.064
77.40000 3.277
77.42000 4.360
77.44000 6.410
77.46000 4.444
77.48000 3.407
77.50000 1.336
77.52000 3.736
77.54000 0.238
77.56000 1.027
77.58000 5.272
77.60000 3.420
77.62000 -1.992
77.64000 2.575
77.66000 3.508
77.68000 5.825
77.70000 3.606
77.72000 4.698
77.74000 4.761
77.76000 1.296
77.78000 2.139
77.80000 4.676
77.82000 3.121
77.84000 4.275
77.86000 4.462
77.88000 3.456
77.90000 3.149
77.92000 5.236
77.94000 7.142
77.96000 2.835
77.98000 4.381
78.00000 3.449
78.02000 0.413
78.04000 -0.908
78.06000 -0.691
78.08000 2.124
78.10000 3.820
78.12000 1.906
78.14000 -2.029
78.16000 -0.718
78.18000 -0.596
78.20000 0.921
78.22000 5.629
78.24000 5.068
78.26000 5.128
78.28000 4.803
78.30000 0.940
78.32000 2.335
78.34000 4.106
78.36000 4.050
78.38000 2.457
78.40000 0.402
78.42000 -1.715
78.44000 0.235
78.46000 1.560
78.48000 1.127
78.50000 0.095
78.52000 2.410
78.54000 3.114
78.56000 0.928
78.58000 2.531
78.60000 2.263
78.62000 5.501
78.64000 2.880
78.66000 2.973
78.68000 3.223
78.70000 4.271
78.72000 2.132
78.74000 0.387
78.76000 -2.072
78.78000 1.974
78.80000 -0.953
78.82000 1.681
78.84000 3.515
78.86000 3.673
78.88000 1.873
78.90000 2.015
78.92000 3.636
78.94000 3.099
78.96000 0.978
78.98000 5.173
79.00000 6.173
79.02000 5.566
79.04000 0.972
79.06000 1.603
79.08000 -1.913
79.10000 1.663
79.12000 2.987
79.14000 1.990
79.16000 -1.294
79.18000 -0.201
79.20000 -2.131
79.22000 1.838
79.24000 3.445
79.26000 1.227
79.28000 0.407
79.30000 0.688
79.32000 1.688
79.34000 3.525
79.36000 5.740
79.38000 6.188
79.40000 -0.739
79.42000 3.436
79.44000 3.963
79.46000 0.278
79.48000 1.795
79.50000 0.781
79.52000 7.896
79.54000 6.039
79.56000 5.565
79.58000 5.850
79.60000 8.414
79.62000 10.295
79.64000 7.268
79.66000 4.928
79.68000 4.537
79.70000 6.020
79.72000 13.334
79.74000 9.536
79.76000 5.153
79.78000 5.923
79.80000 9.050
79.82000 9.023
79.84000 7.860
79.86000 10.108
79.88000 10.966
79.90000 10.597
79.92000 13.159
79.94000 9.498
79.96000 8.837
79.98000 11.577
80.00000 12.253
80.02000 13.726
80.04000 11.996
80.06000 12.289
80.08000 10.030
80.10000 10.727
80.12000 10.352
80.14000 11.140
80.16000 15.074
80.18000 16.183
80.20000 13.300
80.22000 14.749
80.24000 16.979
80.26000 15.040
80.28000 13.827
80.30000 13.015
80.32000 14.974
80.34000 14.544
80.36000 15.918
80.38000 12.784
80.40000 12.315
80.42000 15.264
80.44000 19.033
80.46000 19.347
80.48000 14.441
80.50000 19.084
80.52000 19.678
80.54000 21.480
80.56000 19.576
80.58000 17.213
80.60000 16.716
80.62000 17.390
80.64000 19.132
80.66000 17.491
80.68000 15.892
80.70000 13.797
80.72000 14.895
80.74000 14.536
80.76000 18.878
80.78000 17.716
80.80000 15.882
80.82000 15.579
80.84000 12.107
80.86000 11.424
80.88000 14.894
80.90000 15.284
80.92000 14.940
80.94000 12.024
80.96000 12.113
80.98000 12.104
81.00000 12.058
81.02000 9.150
81.04000 9.494
81.06000 11.997
81.08000 11.456
81.10000 7.610
81.12000 7.395
81.14000 7.450
81.16000 2.871
81.18000 2.724
81.20000 8.539
81.22000 9.938
81.24000 7.611
81.26000 8.407
81.28000 8.338
81.30000 7.991
81.32000 6.935
81.34000 2.593
81.36000 3.344
81.38000 4.225
81.40000 7.294
81.42000 8.334
81.44000 5.807
81.46000 3.385
81.48000 3.066
81.50000 3.082
81.52000 4.384
81.54000 6.618
81.56000 4.758
81.58000 4.261
81.60000 0.916
81.62000 1.884
81.64000 2.634
81.66000 0.173
81.68000 1.921
81.70000 1.202
81.72000 1.547
81.74000 4.011
81.76000 2.327
81.78000 0.213
81.80000 3.030
81.82000 0.954
81.84000 2.741
81.86000 -2.222
81.88000 -0.128
81.90000 3.397
81.92000 3.392
81.94000 2.975
81.96000 2.301
81.98000 2.353
82.00000 0.576
82.02000 0.770
82.04000 -0.199
82.06000 -0.868
82.08000 0.565
82.10000 0.960
82.12000 -1.618
82.14000 -1.484
82.16000 -1.080
82.18000 -0.987
82.20000 -1.509
82.22000 0.845
82.24000 0.599
82.26000 -0.049
82.28000 0.019
82.30000 2.246
82.32000 3.794
82.34000 2.421
82.36000 0.641
82.38000 -2.223
82.40000 1.835
82.42000 3.656
82.44000 -0.817
82.46000 -1.353
82.48000 2.133
82.50000 1.082
82.52000 0.461
82.54000 0.456
82.56000 2.351
82.58000 0.543
82.60000 0.767
82.62000 3.353
82.64000 3.291
82.66000 0.998
82.68000 1.497
82.70000 4.035
82.72000 1.662
82.74000 4.494
82.76000 3.731
82.78000 2.712
82.80000 4.287
82.82000 0.349
82.84000 0.487
82.86000 3.565
82.88000 0.246
82.90000 0.923
82.92000 -0.653
82.94000 2.408
82.96000 3.184
82.98000 3.291
83.00000 6.992
83.02000 8.060
83.04000 0.924
83.06000 -2.217
83.08000 1.390
83.10000 3.176
83.12000 5.603
83.14000 4.593
83.16000 2.716
83.18000 5.915
83.20000 2.593
83.22000 5.211
83.24000 7.652
83.26000 8.402
83.28000 6.420
83.30000 6.850
83.32000 9.216
83.34000 9.061
83.36000 7.528
83.38000 8.963
83.40000 7.956
83.42000 11.196
83.44000 9.004
83.46000 7.005
83.48000 8.790
83.50000 12.023
83.52000 14.998
83.54000 16.033
83.56000 15.780
83.58000 16.467
83.60000 13.526
83.62000 12.031
83.64000 15.890
83.66000 13.231
83.68000 11.581
83.70000 14.457
83.72000 14.440
83.74000 17.450
83.76000 17.494
83.78000 17.203
83.80000 15.721
83.82000 17.560
83.84000 22.286
83.86000 20.356
83.88000 22.888
83.90000 24.261
83.92000 25.219
83.94000 25.840
83.96000 26.352
83.98000 25.031
84.00000 25.208
84.02000 26.159
84.04000 28.347
84.06000 31.801
84.08000 32.284
84.10000 31.046
84.12000 32.629
84.14000 30.604
84.16000 30.752
84.18000 33.861
84.20000 39.628
84.22000 37.868
84.24000 33.728
84.26000 35.572
84.28000 40.450
84.30000 39.179
84.32000 37.703
84.34000 38.855
84.36000 39.599
84.38000 39.754
84.40000 39.710
84.42000 38.084
84.44000 37.801
84.46000 35.243
84.48000 39.254
84.50000 37.348
84.52000 42.381
84.54000 45.420
84.56000 38.701
84.58000 35.437
84.60000 36.077
84.62000 37.591
84.64000 37.891
84.66000 32.568
84.68000 31.005
84.70000 33.744
84.72000 36.693
84.74000 35.429
84.76000 32.935
84.78000 35.227
84.80000 32.700
84.82000 27.746
84.84000 26.441
84.86000 25.568
84.88000 27.145
84.90000 23.981
84.92000 26.019
84.94000 26.508
84.96000 25.563
84.98000 23.522
85.00000 21.671
85.02000 19.325
85.04000 19.833
85.06000 18.082
85.08000 13.204
85.10000 12.201
85.12000 17.194
85.14000 16.176
85.16000 14.524
85.18000 14.184
85.20000 10.570
85.22000 13.067
85.24000 10.789
85.26000 8.571
85.28000 11.434
85.30000 11.777
85.32000 7.253
85.34000 11.646
85.36000 12.292
85.38000 10.447
85.40000 6.411
85.42000 5.615
85.44000 4.676
85.46000 8.220
85.48000 6.559
85.50000 5.524
85.52000 4.874
85.54000 3.654
85.56000 4.600
85.58000 4.911
85.60000 2.441
85.62000 3.806
85.64000 3.967
85.66000 1.249
85.68000 1.073
85.70000 2.072
85.72000 -0.399
85.74000 -2.049
85.76000 1.352
85.78000 1.462
85.80000 2.916
85.82000 2.325
85.84000 2.119
85.86000 0.473
85.88000 2.019
85.90000 0.258
85.92000 1.321
85.94000 2.420
85.96000 1.152
85.98000 0.835
86.00000 0.774
86.02000 4.413
86.04000 4.385
86.06000 1.172
86.08000 0.915
86.10000 1.062
86.12000 0.672
86.14000 -0.041
86.16000 3.032
86.18000 2.643
86.20000 1.620
86.22000 1.612
86.24000 1.920
86.26000 0.571
86.28000 0.918
86.30000 -0.593
86.32000 -1.077
86.34000 -1.091
86.36000 -0.795
86.38000 2.007
86.40000 1.309
86.42000 2.759
86.44000 4.971
86.46000 3.925
86.48000 3.042
86.50000 1.889
86.52000 1.088
86.54000 0.834
86.56000 3.311
86.58000 0.941
86.60000 -1.851
86.62000 0.917
86.64000 2.707
86.66000 -0.002
86.68000 -1.914
86.70000 -0.941
86.72000 0.832
86.74000 1.099
86.76000 1.799
86.78000 2.468
86.80000 2.108
86.82000 1.211
86.84000 2.437
86.86000 4.523
86.88000 2.836
86.90000 -0.604
86.92000 0.138
86.94000 4.373
86.96000 4.953
86.98000 2.937
87.00000 3.799
87.02000 4.510
87.04000 1.710
87.06000 1.008
87.08000 2.580
87.10000 5.094
87.12000 5.998
87.14000 2.592
87.16000 1.711
87.18000 1.948
87.20000 3.731
87.22000 1.273
87.24000 3.304
87.26000 -0.250
87.28000 -1.885
87.30000 0.331
87.32000 3.204
87.34000 2.360
87.36000 -0.123
87.38000 0.919
87.40000 0.804
87.42000 1.926
87.44000 3.679
87.46000 4.075
87.48000 2.803
87.50000 2.029
87.52000 5.442
87.54000 1.962
87.56000 3.507
87.58000 2.855
87.60000 0.871
87.62000 4.587
87.64000 1.622
87.66000 0.128
87.68000 3.715
87.70000 0.306
87.72000 1.622
87.74000 1.585
87.76000 0.920
87.78000 0.742
87.80000 0.979
87.82000 1.335
87.84000 3.498
87.86000 7.252
87.88000 5.288
87.90000 2.181
87.92000 2.477
87.94000 4.083
87.96000 3.547
87.98000 3.126
88.00000 3.363
88.02000 2.347
88.04000 2.803
88.06000 4.038
88.08000 5.076
88.10000 3.646
88.12000 2.159
88.14000 -0.999
88.16000 0.589
88.18000 -1.239
88.20000 -1.405
88.22000 -1.852
88.24000 0.050
88.26000 1.606
88.28000 1.318
88.30000 3.501
88.32000 4.679
88.34000 2.785
88.36000 1.636
88.38000 1.705
88.40000 0.540
88.42000 0.254
88.44000 1.986
88.46000 1.399
88.48000 -0.172
88.50000 -1.699
88.52000 2.237
88.54000 1.397
88.56000 1.191
88.58000 0.603
88.60000 1.227
88.62000 -0.248
88.64000 -0.317
88.66000 -1.084
88.68000 1.427
88.70000 1.844
88.72000 5.704
88.74000 3.877
88.76000 1.928
88.78000 -0.745
88.80000 0.077
88.82000 1.523
88.84000 5.340
88.86000 4.320
88.88000 2.080
88.90000 -0.271
88.92000 2.399
88.94000 3.054
88.96000 1.358
88.98000 -0.217
89.00000 0.628
89.02000 -0.338
89.04000 2.927
89.06000 3.789
89.08000 4.243
89.10000 1.809
89.12000 0.658
89.14000 0.328
89.16000 1.644
89.18000 1.772
89.20000 0.798
89.22000 1.054
89.24000 2.871
89.26000 0.596
89.28000 -1.848
89.30000 0.971
89.32000 2.536
89.34000 2.528
89.36000 1.892
89.38000 1.525
89.40000 1.246
89.42000 -0.739
89.44000 1.863
89.46000 -0.259
89.48000 -1.513
89.50000 1.655
89.52000 2.788
89.54000 1.624
89.56000 0.013
89.58000 2.757
89.60000 3.362
89.62000 1.344
89.64000 3.666
89.66000 1.582
89.68000 2.561
89.70000 4.419
89.72000 5.389
89.74000 2.460
89.76000 2.254
89.78000 2.323
89.80000 3.878
89.82000 3.077
89.84000 0.431
89.86000 1.981
89.88000 4.033
89.90000 2.724
89.92000 3.352
89.94000 1.972
89.96000 3.659
89.98000 5.216
90.00000 3.859
90.02000 3.327
90.04000 2.924
90.06000 -0.260
90.08000 3.069
90.10000 2.642
90.12000 4.408
90.14000 1.191
90.16000 -1.838
90.18000 1.557
90.20000 3.195
90.22000 4.179
90.24000 3.449
90.26000 2.218
90.28000 4.286
90.30000 3.517
90.32000 3.067
90.34000 1.953
90.36000 0.252
90.38000 1.219
90.40000 2.661
90.42000 2.215
90.44000 0.494
90.46000 -0.410
90.48000 2.799
90.50000 2.007
90.52000 0.659
90.54000 1.266
90.56000 2.372
90.58000 2.466
90.60000 1.026
90.62000 1.929
90.64000 0.173
90.66000 -1.241
90.68000 1.387
90.70000 0.314
90.72000 -0.817
90.74000 -0.284
90.76000 -0.390
90.78000 0.709
90.80000 2.907
90.82000 2.694
90.84000 1.889
90.86000 0.781
90.88000 -0.223
90.90000 1.038
90.92000 2.736
90.94000 3.001
90.96000 3.476
90.98000 1.565
91.00000 0.724
91.02000 0.049
91.04000 1.931
91.06000 2.216
91.08000 -1.171
91.10000 -0.929
91.12000 -0.499
91.14000 0.273
91.16000 0.588
91.18000 3.458
91.20000 1.952
91.22000 2.199
91.24000 1.982
91.26000 -0.784
91.28000 -1.240
91.30000 0.566
91.32000 3.227
91.34000 1.761
91.36000 -1.825
91.38000 -1.840
91.40000 0.520
91.42000 3.312
91.44000 4.804
91.46000 2.492
91.48000 3.754
91.50000 3.320
91.52000 3.885
91.54000 1.603
91.56000 1.044
91.58000 1.716
91.60000 1.614
91.62000 1.944
91.64000 3.334
91.66000 4.572
91.68000 4.019
91.70000 3.851
91.72000 7.423
91.74000 4.843
91.76000 3.616
91.78000 4.655
91.80000 3.521
91.82000 2.545
91.84000 1.742
91.86000 3.856
91.88000 2.975
91.90000 1.285
91.92000 2.507
91.94000 3.834
91.96000 2.602
91.98000 2.754
92.00000 2.533
92.02000 2.464
92.04000 2.275
92.06000 4.660
92.08000 1.783
92.10000 2.080
92.12000 4.104
92.14000 6.104
92.16000 4.382
92.18000 4.194
92.20000 7.952
92.22000 6.392
92.24000 8.605
92.26000 8.993
92.28000 6.502
92.30000 7.368
92.32000 6.087
92.34000 6.012
92.36000 5.300
92.38000 7.244
92.40000 6.751
92.42000 3.808
92.44000 -1.758
92.46000 1.645
92.48000 4.100
92.50000 5.071
92.52000 6.282
92.54000 7.853
92.56000 5.411
92.58000 7.119
92.60000 6.503
92.62000 5.837
92.64000 4.825
92.66000 1.670
92.68000 2.077
92.70000 2.654
92.72000 3.044
92.74000 3.656
92.76000 4.393
92.78000 4.847
92.80000 4.366
92.82000 2.102
92.84000 -1.319
92.86000 0.205
92.88000 4.200
92.90000 7.980
92.92000 4.094
92.94000 1.441
92.96000 2.879
92.98000 3.399
93.00000 0.552
93.02000 3.155
93.04000 7.726
93.06000 4.299
93.08000 2.883
93.10000 4.781
93.12000 3.763
93.14000 5.922
93.16000 9.100
93.18000 7.975
93.20000 2.166
93.22000 0.979
93.24000 1.239
93.26000 2.858
93.28000 -0.064
93.30000 0.438
93.32000 3.744
93.34000 5.745
93.36000 4.916
93.38000 3.749
93.40000 3.087
93.42000 2.577
93.44000 2.246
93.46000 -0.041
93.48000 -0.343
93.50000 4.600
93.52000 6.478
93.54000 4.688
93.56000 2.036
93.58000 1.400
93.60000 5.021
93.62000 4.914
93.64000 5.610
93.66000 6.239
93.68000 6.688
93.70000 2.109
93.72000 1.022
93.74000 2.718
93.76000 5.012
93.78000 3.588
93.80000 2.835
93.82000 -0.077
93.84000 0.476
93.86000 1.504
93.88000 3.511
93.90000 5.322
93.92000 2.421
93.94000 4.031
93.96000 2.027
93.98000 6.136
94.00000 2.213
94.02000 5.037
94.04000 2.473
94.06000 0.773
94.08000 1.292
94.10000 1.785
94.12000 3.890
94.14000 1.486
94.16000 2.874
94.18000 -0.174
94.20000 1.126
94.22000 0.064
94.24000 2.334
94.26000 4.296
94.28000 4.004
94.30000 3.463
94.32000 0.663
94.34000 1.162
94.36000 2.690
94.38000 2.216
94.40000 0.386
94.42000 -1.671
94.44000 -1.616
94.46000 -1.256
94.48000 0.176
94.50000 3.155
94.52000 4.187
94.54000 1.086
94.56000 1.308
94.58000 2.046
94.60000 1.609
94.62000 1.422
94.64000 -1.868
94.66000 1.368
94.68000 3.980
94.70000 2.951
94.72000 3.125
94.74000 2.515
94.76000 2.647
94.78000 6.381
94.80000 4.692
94.82000 0.155
94.84000 0.507
94.86000 1.601
94.88000 2.930
94.90000 5.697
94.92000 2.378
94.94000 0.527
94.96000 0.474
94.98000 1.711
95.00000 0.987
95.02000 4.126
95.04000 3.185
95.06000 4.874
95.08000 6.121
95.10000 3.536
95.12000 2.107
95.14000 3.096
95.16000 4.954
95.18000 4.196
95.20000 6.048
95.22000 5.571
95.24000 1.720
95.26000 0.164
95.28000 -0.737
95.30000 1.380
95.32000 2.491
95.34000 0.495
95.36000 1.132
95.38000 2.910
95.40000 1.550
95.42000 3.153
95.44000 3.473
95.46000 0.841
95.48000 -0.032
95.50000 2.293
95.52000 3.897
95.54000 2.387
95.56000 3.367
95.58000 5.194
95.60000 4.482
95.62000 3.944
95.64000 4.805
95.66000 4.275
95.68000 3.470
95.70000 0.167
95.72000 -1.867
95.74000 1.514
95.76000 3.057
95.78000 0.211
95.80000 -0.718
95.82000 4.313
95.84000 2.147
95.86000 -0.034
95.88000 -0.061
95.90000 1.146
95.92000 -0.500
95.94000 -0.506
95.96000 0.997
95.98000 4.457
96.00000 8.327
96.02000 3.378
96.04000 -0.016
96.06000 -0.676
96.08000 3.206
96.10000 -1.099
96.12000 -0.249
96.14000 2.841
96.16000 2.417
96.18000 4.613
96.20000 8.285
96.22000 7.545
96.24000 4.680
96.26000 4.234
96.28000 2.906
96.30000 7.023
96.32000 6.634
96.34000 3.994
96.36000 0.930
96.38000 0.019
96.40000 4.517
96.42000 2.861
96.44000 1.542
96.46000 1.450
96.48000 1.070
96.50000 -1.869
96.52000 0.679
96.54000 1.979
96.56000 3.633
96.58000 5.483
96.60000 7.265
96.62000 2.794
96.64000 2.972
96.66000 5.744
96.68000 1.853
96.70000 3.257
96.72000 0.044
96.74000 1.296
96.76000 1.392
96.78000 3.086
96.80000 1.662
96.82000 1.682
96.84000 2.181
96.86000 4.594
96.88000 4.953
96.90000 5.878
96.92000 6.519
96.94000 3.168
96.96000 1.434
96.98000 0.351
97.00000 -0.536
97.02000 1.340
97.04000 0.507
97.06000 -1.591
97.08000 -1.183
97.10000 4.846
97.12000 4.270
97.14000 5.512
97.16000 5.958
97.18000 1.601
97.20000 2.642
97.22000 1.947
97.24000 2.822
97.26000 2.402
97.28000 3.305
97.30000 -0.502
97.32000 -0.207
97.34000 0.994
97.36000 5.053
97.38000 6.277
97.40000 5.687
97.42000 4.614
97.44000 7.966
97.46000 3.749
97.48000 3.773
97.50000 5.211
97.52000 3.865
97.54000 3.099
97.56000 5.884
97.58000 3.671
97.60000 -1.853
97.62000 2.562
97.64000 4.849
97.66000 3.221
97.68000 3.907
97.70000 6.499
97.72000 1.917
97.74000 3.458
97.76000 2.985
97.78000 1.357
97.80000 7.283
97.82000 5.950
97.84000 4.964
97.86000 2.385
97.88000 2.885
97.90000 1.502
97.92000 5.922
97.94000 5.052
97.96000 4.504
97.98000 3.349
98.00000 4.517
98.02000 6.484
98.04000 3.149
98.06000 3.572
98.08000 -1.362
98.10000 2.628
98.12000 1.759
98.14000 2.071
98.16000 2.476
98.18000 4.209
98.20000 4.962
98.22000 4.162
98.24000 1.906
98.26000 2.819
98.28000 3.227
98.30000 6.618
98.32000 4.524
98.34000 5.109
98.36000 4.128
98.38000 6.374
98.40000 2.601
98.42000 2.760
98.44000 -0.166
98.46000 3.667
98.48000 7.655
98.50000 2.225
98.52000 4.135
98.54000 3.036
98.56000 1.589
98.58000 2.245
98.60000 2.395
98.62000 6.375
98.64000 7.381
98.66000 -0.010
98.68000 -1.446
98.70000 -1.798
98.72000 -0.303
98.74000 0.599
98.76000 6.048
98.78000 6.476
98.80000 8.012
98.82000 8.971
98.84000 6.652
98.86000 7.658
98.88000 6.506
98.90000 1.002
98.92000 4.115
98.94000 0.507
98.96000 6.799
98.98000 7.964
99.00000 4.126
99.02000 2.415
99.04000 5.746
99.06000 8.868
99.08000 3.999
99.10000 5.402
99.12000 6.566
99.14000 2.148
99.16000 1.032
99.18000 3.169
99.20000 2.271
99.22000 6.487
99.24000 12.833
99.26000 9.366
99.28000 7.966
99.30000 7.193
99.32000 5.585
99.34000 6.783
99.36000 9.178
99.38000 11.788
99.40000 6.448
99.42000 6.468
99.44000 10.358
99.46000 10.643
99.48000 6.190
99.50000 5.759
99.52000 6.289
99.54000 3.908
99.56000 5.237
99.58000 5.658
99.60000 6.921
99.62000 14.316
99.64000 3.484
99.66000 -1.772
99.68000 0.784
99.70000 4.334
99.72000 10.454
99.74000 6.339
99.76000 7.341
99.78000 0.516
99.80000 1.064
99.82000 6.926
99.84000 5.804
99.86000 4.106
99.88000 6.431
99.90000 8.530
99.92000 4.038
99.94000 -1.862
99.96000 -1.907
99.98000 0.000
