'Id: "0011388" Comment: "Integrate frame 0011388_Au-Ir-Rh_Rh-rich_XRD-Mapping-008-0000.gfrmwith cursor Wedge Cursor #5" Operator: "B?rgel" Anode: "Cu" Wavelength: "1.5406" Scantype: "2Theta (TwoTheta)" TimePerStep: "1" X: "13.5" Y: "-40.5" Z: "5.95" 
10.00000 0.000
10.02000 -0.668
10.04000 0.420
10.06000 -4.116
10.08000 9.450
10.10000 13.080
10.12000 11.852
10.14000 22.458
10.16000 16.410
10.18000 15.629
10.20000 27.288
10.22000 16.011
10.24000 10.428
10.26000 13.648
10.28000 19.733
10.30000 25.199
10.32000 17.065
10.34000 13.211
10.36000 9.392
10.38000 1.758
10.40000 5.154
10.42000 19.789
10.44000 24.684
10.46000 11.708
10.48000 15.552
10.50000 22.455
10.52000 16.822
10.54000 9.234
10.56000 16.918
10.58000 24.416
10.60000 31.771
10.62000 24.760
10.64000 26.349
10.66000 15.168
10.68000 10.263
10.70000 14.772
10.72000 8.884
10.74000 24.490
10.76000 27.271
10.78000 19.581
10.80000 14.795
10.82000 6.126
10.84000 13.426
10.86000 34.427
10.88000 29.850
10.90000 37.663
10.92000 20.008
10.94000 37.058
10.96000 31.339
10.98000 3.699
11.00000 6.957
11.02000 11.987
11.04000 12.221
11.06000 7.762
11.08000 -0.913
11.10000 11.992
11.12000 13.245
11.14000 5.098
11.16000 9.540
11.18000 5.557
11.20000 3.581
11.22000 16.511
11.24000 14.708
11.26000 19.381
11.28000 25.370
11.30000 22.618
11.32000 24.765
11.34000 18.048
11.36000 8.781
11.38000 5.141
11.40000 8.694
11.42000 13.784
11.44000 17.982
11.46000 15.507
11.48000 11.599
11.50000 21.454
11.52000 28.891
11.54000 26.151
11.56000 10.049
11.58000 13.669
11.60000 19.251
11.62000 17.747
11.64000 6.080
11.66000 7.448
11.68000 8.772
11.70000 10.683
11.72000 13.602
11.74000 15.008
11.76000 11.435
11.78000 7.151
11.80000 -3.287
11.82000 -3.693
11.84000 5.087
11.86000 4.659
11.88000 5.763
11.90000 -2.056
11.92000 7.606
11.94000 11.577
11.96000 16.047
11.98000 20.331
12.00000 13.567
12.02000 13.879
12.04000 -5.703
12.06000 8.053
12.08000 12.754
12.10000 15.185
12.12000 18.700
12.14000 13.838
12.16000 19.127
12.18000 12.710
12.20000 3.793
12.22000 11.495
12.24000 14.628
12.26000 18.137
12.28000 25.889
12.30000 16.640
12.32000 6.515
12.34000 10.740
12.36000 20.254
12.38000 12.544
12.40000 7.367
12.42000 13.053
12.44000 21.724
12.46000 16.780
12.48000 14.329
12.50000 12.664
12.52000 19.598
12.54000 9.462
12.56000 7.314
12.58000 9.228
12.60000 13.441
12.62000 13.752
12.64000 15.119
12.66000 11.215
12.68000 9.804
12.70000 6.724
12.72000 12.830
12.74000 9.666
12.76000 13.464
12.78000 15.867
12.80000 6.404
12.82000 0.211
12.84000 2.160
12.86000 -0.330
12.88000 4.195
12.90000 14.804
12.92000 25.429
12.94000 14.929
12.96000 7.342
12.98000 8.339
13.00000 12.417
13.02000 22.287
13.04000 22.140
13.06000 20.569
13.08000 14.108
13.10000 5.442
13.12000 11.517
13.14000 17.229
13.16000 11.780
13.18000 12.245
13.20000 18.147
13.22000 14.246
13.24000 13.588
13.26000 15.574
13.28000 18.801
13.30000 10.886
13.32000 5.857
13.34000 8.120
13.36000 9.627
13.38000 8.276
13.40000 16.096
13.42000 15.501
13.44000 7.811
13.46000 12.462
13.48000 6.123
13.50000 11.732
13.52000 17.322
13.54000 16.406
13.56000 10.245
13.58000 7.192
13.60000 5.443
13.62000 4.170
13.64000 8.959
13.66000 10.061
13.68000 1.168
13.70000 5.418
13.72000 15.441
13.74000 13.444
13.76000 6.969
13.78000 10.011
13.80000 11.210
13.82000 4.154
13.84000 8.574
13.86000 14.458
13.88000 8.302
13.90000 1.992
13.92000 7.370
13.94000 3.542
13.96000 4.521
13.98000 7.025
14.00000 7.229
14.02000 11.940
14.04000 10.079
14.06000 13.347
14.08000 18.430
14.10000 18.692
14.12000 -2.950
14.14000 -1.929
14.16000 14.723
14.18000 15.522
14.20000 9.942
14.22000 4.549
14.24000 2.850
14.26000 1.782
14.28000 -3.381
14.30000 7.618
14.32000 16.941
14.34000 8.798
14.36000 6.133
14.38000 10.335
14.40000 13.763
14.42000 7.621
14.44000 5.976
14.46000 6.380
14.48000 5.507
14.50000 5.064
14.52000 3.709
14.54000 13.865
14.56000 12.174
14.58000 5.023
14.60000 9.319
14.62000 11.401
14.64000 11.140
14.66000 10.468
14.68000 15.663
14.70000 7.216
14.72000 1.193
14.74000 7.584
14.76000 7.544
14.78000 10.136
14.80000 7.978
14.82000 12.941
14.84000 9.841
14.86000 9.028
14.88000 11.301
14.90000 13.176
14.92000 8.136
14.94000 3.162
14.96000 6.360
14.98000 3.438
15.00000 6.427
15.02000 8.872
15.04000 8.296
15.06000 6.783
15.08000 8.814
15.10000 6.728
15.12000 6.995
15.14000 3.780
15.16000 7.909
15.18000 4.177
15.20000 7.374
15.22000 9.997
15.24000 4.267
15.26000 11.839
15.28000 15.082
15.30000 16.918
15.32000 10.338
15.34000 11.010
15.36000 12.107
15.38000 9.195
15.40000 9.552
15.42000 9.264
15.44000 14.238
15.46000 12.550
15.48000 3.180
15.50000 6.742
15.52000 6.010
15.54000 6.899
15.56000 2.499
15.58000 6.502
15.60000 6.556
15.62000 9.928
15.64000 16.363
15.66000 -0.403
15.68000 4.881
15.70000 1.501
15.72000 9.126
15.74000 17.174
15.76000 15.241
15.78000 9.095
15.80000 8.296
15.82000 2.741
15.84000 7.984
15.86000 6.913
15.88000 8.396
15.90000 5.688
15.92000 4.375
15.94000 2.712
15.96000 0.652
15.98000 9.908
16.00000 9.703
16.02000 6.222
16.04000 10.138
16.06000 8.771
16.08000 3.873
16.10000 6.572
16.12000 18.020
16.14000 5.412
16.16000 -2.313
16.18000 -4.378
16.20000 -3.373
16.22000 7.498
16.24000 7.271
16.26000 5.646
16.28000 7.425
16.30000 9.044
16.32000 11.403
16.34000 8.333
16.36000 10.256
16.38000 13.334
16.40000 9.318
16.42000 -1.105
16.44000 4.375
16.46000 5.425
16.48000 9.043
16.50000 11.666
16.52000 2.869
16.54000 -0.961
16.56000 0.905
16.58000 0.572
16.60000 7.730
16.62000 5.766
16.64000 6.866
16.66000 10.573
16.68000 2.674
16.70000 10.063
16.72000 10.180
16.74000 1.015
16.76000 4.030
16.78000 6.236
16.80000 12.649
16.82000 12.527
16.84000 5.265
16.86000 8.287
16.88000 8.114
16.90000 1.296
16.92000 4.055
16.94000 9.718
16.96000 13.765
16.98000 16.450
17.00000 14.978
17.02000 8.012
17.04000 14.741
17.06000 17.025
17.08000 3.714
17.10000 4.647
17.12000 11.732
17.14000 14.398
17.16000 10.102
17.18000 9.743
17.20000 4.675
17.22000 7.183
17.24000 6.393
17.26000 -0.381
17.28000 -0.331
17.30000 1.515
17.32000 7.399
17.34000 9.216
17.36000 5.657
17.38000 2.120
17.40000 4.577
17.42000 3.637
17.44000 11.502
17.46000 10.743
17.48000 6.222
17.50000 15.091
17.52000 12.407
17.54000 11.796
17.56000 7.928
17.58000 4.510
17.60000 4.562
17.62000 -0.669
17.64000 1.160
17.66000 6.338
17.68000 7.738
17.70000 9.081
17.72000 5.821
17.74000 -1.563
17.76000 1.949
17.78000 2.344
17.80000 2.063
17.82000 -0.790
17.84000 2.705
17.86000 9.673
17.88000 8.276
17.90000 2.739
17.92000 2.286
17.94000 1.880
17.96000 -3.738
17.98000 3.112
18.00000 7.820
18.02000 2.840
18.04000 8.088
18.06000 5.697
18.08000 3.093
18.10000 5.628
18.12000 10.849
18.14000 4.416
18.16000 7.687
18.18000 7.964
18.20000 17.058
18.22000 16.106
18.24000 3.789
18.26000 5.873
18.28000 12.737
18.30000 5.046
18.32000 -1.227
18.34000 1.435
18.36000 3.684
18.38000 5.913
18.40000 18.966
18.42000 16.514
18.44000 7.325
18.46000 11.742
18.48000 10.974
18.50000 3.521
18.52000 7.713
18.54000 1.879
18.56000 2.697
18.58000 12.722
18.60000 8.823
18.62000 4.011
18.64000 -1.238
18.66000 -4.235
18.68000 -1.337
18.70000 4.230
18.72000 5.801
18.74000 1.796
18.76000 -0.223
18.78000 7.784
18.80000 2.337
18.82000 5.030
18.84000 9.519
18.86000 5.421
18.88000 5.606
18.90000 3.333
18.92000 5.673
18.94000 7.853
18.96000 3.279
18.98000 0.487
19.00000 1.795
19.02000 3.143
19.04000 1.859
19.06000 -1.497
19.08000 -1.068
19.10000 5.746
19.12000 8.992
19.14000 11.620
19.16000 9.461
19.18000 0.613
19.20000 1.624
19.22000 5.372
19.24000 8.708
19.26000 6.223
19.28000 2.964
19.30000 5.556
19.32000 7.377
19.34000 10.223
19.36000 5.860
19.38000 4.110
19.40000 6.839
19.42000 10.060
19.44000 1.629
19.46000 -0.806
19.48000 7.983
19.50000 2.407
19.52000 9.661
19.54000 7.554
19.56000 9.334
19.58000 10.282
19.60000 -0.699
19.62000 0.140
19.64000 1.293
19.66000 2.778
19.68000 1.471
19.70000 -4.170
19.72000 -0.552
19.74000 -3.337
19.76000 1.381
19.78000 5.737
19.80000 7.734
19.82000 12.948
19.84000 8.199
19.86000 1.903
19.88000 2.050
19.90000 1.213
19.92000 1.960
19.94000 6.591
19.96000 11.603
19.98000 5.645
20.00000 2.472
20.02000 -1.541
20.04000 1.890
20.06000 7.644
20.08000 3.340
20.10000 10.028
20.12000 8.337
20.14000 3.214
20.16000 2.056
20.18000 -1.762
20.20000 1.451
20.22000 8.561
20.24000 1.861
20.26000 3.850
20.28000 10.598
20.30000 9.297
20.32000 3.813
20.34000 4.857
20.36000 2.255
20.38000 0.488
20.40000 4.830
20.42000 -4.134
20.44000 2.065
20.46000 6.851
20.48000 1.718
20.50000 0.954
20.52000 -0.029
20.54000 6.165
20.56000 9.412
20.58000 10.003
20.60000 4.556
20.62000 5.358
20.64000 9.804
20.66000 8.286
20.68000 5.382
20.70000 1.761
20.72000 4.965
20.74000 3.515
20.76000 4.498
20.78000 1.875
20.80000 7.354
20.82000 10.754
20.84000 1.291
20.86000 6.382
20.88000 2.788
20.90000 1.493
20.92000 6.973
20.94000 3.344
20.96000 3.395
20.98000 -4.093
21.00000 4.520
21.02000 5.795
21.04000 4.123
21.06000 5.480
21.08000 5.008
21.10000 6.248
21.12000 12.122
21.14000 13.449
21.16000 7.226
21.18000 5.474
21.20000 2.986
21.22000 0.132
21.24000 9.347
21.26000 6.059
21.28000 1.130
21.30000 2.286
21.32000 4.073
21.34000 6.972
21.36000 9.872
21.38000 9.403
21.40000 2.756
21.42000 4.348
21.44000 2.695
21.46000 10.176
21.48000 3.652
21.50000 0.867
21.52000 4.315
21.54000 8.653
21.56000 3.558
21.58000 1.595
21.60000 8.374
21.62000 6.018
21.64000 8.321
21.66000 10.290
21.68000 1.776
21.70000 0.358
21.72000 3.995
21.74000 8.578
21.76000 6.924
21.78000 8.284
21.80000 7.587
21.82000 7.065
21.84000 5.521
21.86000 12.911
21.88000 7.045
21.90000 4.408
21.92000 10.799
21.94000 6.681
21.96000 1.754
21.98000 2.752
22.00000 11.785
22.02000 9.426
22.04000 5.827
22.06000 4.973
22.08000 7.414
22.10000 2.011
22.12000 5.009
22.14000 11.251
22.16000 9.812
22.18000 6.896
22.20000 8.487
22.22000 6.663
22.24000 8.154
22.26000 4.534
22.28000 1.953
22.30000 2.064
22.32000 -0.206
22.34000 -4.035
22.36000 0.060
22.38000 2.390
22.40000 4.994
22.42000 2.071
22.44000 4.196
22.46000 8.650
22.48000 7.834
22.50000 7.408
22.52000 2.068
22.54000 1.521
22.56000 5.805
22.58000 2.122
22.60000 5.568
22.62000 5.945
22.64000 2.219
22.66000 -2.030
22.68000 0.265
22.70000 2.149
22.72000 2.645
22.74000 5.057
22.76000 9.600
22.78000 5.805
22.80000 2.176
22.82000 9.755
22.84000 7.808
22.86000 5.138
22.88000 2.060
22.90000 6.403
22.92000 1.029
22.94000 -2.985
22.96000 -3.598
22.98000 4.666
23.00000 6.689
23.02000 3.976
23.04000 1.163
23.06000 4.707
23.08000 7.787
23.10000 6.504
23.12000 9.785
23.14000 7.612
23.16000 4.495
23.18000 8.255
23.20000 8.332
23.22000 0.275
23.24000 0.717
23.26000 6.207
23.28000 9.023
23.30000 6.473
23.32000 5.664
23.34000 6.575
23.36000 2.282
23.38000 -1.175
23.40000 0.581
23.42000 3.760
23.44000 5.632
23.46000 8.761
23.48000 5.097
23.50000 1.171
23.52000 1.302
23.54000 2.215
23.56000 3.801
23.58000 0.630
23.60000 -2.214
23.62000 1.619
23.64000 -2.021
23.66000 -3.984
23.68000 -0.432
23.70000 4.310
23.72000 9.109
23.74000 8.409
23.76000 3.443
23.78000 1.224
23.80000 4.609
23.82000 6.521
23.84000 8.050
23.86000 3.281
23.88000 -1.079
23.90000 -3.915
23.92000 6.804
23.94000 10.445
23.96000 3.491
23.98000 7.834
24.00000 11.755
24.02000 4.142
24.04000 -2.255
24.06000 0.888
24.08000 2.387
24.10000 3.167
24.12000 3.565
24.14000 4.007
24.16000 1.865
24.18000 2.336
24.20000 -0.557
24.22000 5.692
24.24000 6.058
24.26000 8.082
24.28000 4.500
24.30000 -2.436
24.32000 -1.803
24.34000 -2.531
24.36000 -3.935
24.38000 1.897
24.40000 0.997
24.42000 0.848
24.44000 1.257
24.46000 2.859
24.48000 0.853
24.50000 -0.045
24.52000 0.920
24.54000 -3.493
24.56000 3.355
24.58000 1.915
24.60000 5.129
24.62000 3.352
24.64000 4.267
24.66000 4.432
24.68000 5.417
24.70000 3.973
24.72000 4.596
24.74000 7.482
24.76000 4.408
24.78000 4.868
24.80000 5.423
24.82000 1.792
24.84000 3.480
24.86000 -0.416
24.88000 -3.897
24.90000 3.071
24.92000 7.415
24.94000 7.024
24.96000 8.848
24.98000 4.613
25.00000 2.823
25.02000 3.542
25.04000 6.445
25.06000 3.230
25.08000 3.496
25.10000 3.026
25.12000 0.490
25.14000 2.533
25.16000 4.255
25.18000 5.998
25.20000 8.507
25.22000 6.831
25.24000 -1.656
25.26000 0.764
25.28000 5.014
25.30000 5.755
25.32000 1.663
25.34000 -1.359
25.36000 -0.590
25.38000 0.119
25.40000 -1.413
25.42000 -0.006
25.44000 5.388
25.46000 2.235
25.48000 6.954
25.50000 10.783
25.52000 0.127
25.54000 -3.878
25.56000 -2.336
25.58000 2.547
25.60000 3.740
25.62000 5.726
25.64000 -0.646
25.66000 2.623
25.68000 2.713
25.70000 1.115
25.72000 8.028
25.74000 10.462
25.76000 5.834
25.78000 6.410
25.80000 6.441
25.82000 1.927
25.84000 0.403
25.86000 -2.501
25.88000 2.336
25.90000 3.149
25.92000 3.472
25.94000 1.447
25.96000 0.259
25.98000 -1.579
26.00000 0.789
26.02000 -0.002
26.04000 1.976
26.06000 3.567
26.08000 0.267
26.10000 6.070
26.12000 8.500
26.14000 8.943
26.16000 5.127
26.18000 0.153
26.20000 -0.559
26.22000 1.360
26.24000 0.373
26.26000 0.986
26.28000 2.517
26.30000 3.728
26.32000 6.509
26.34000 2.202
26.36000 1.811
26.38000 5.005
26.40000 3.414
26.42000 4.054
26.44000 7.696
26.46000 5.851
26.48000 8.948
26.50000 9.154
26.52000 -0.117
26.54000 -0.865
26.56000 1.891
26.58000 7.808
26.60000 8.937
26.62000 4.147
26.64000 5.038
26.66000 0.247
26.68000 3.417
26.70000 -0.765
26.72000 4.596
26.74000 5.567
26.76000 2.046
26.78000 -3.802
26.80000 6.197
26.82000 10.472
26.84000 7.621
26.86000 6.729
26.88000 3.922
26.90000 6.182
26.92000 8.623
26.94000 9.391
26.96000 4.523
26.98000 0.703
27.00000 5.822
27.02000 9.174
27.04000 11.071
27.06000 7.636
27.08000 5.832
27.10000 2.659
27.12000 4.125
27.14000 1.686
27.16000 3.522
27.18000 6.245
27.20000 3.714
27.22000 1.555
27.24000 0.592
27.26000 1.209
27.28000 0.525
27.30000 4.254
27.32000 5.572
27.34000 2.538
27.36000 4.926
27.38000 9.171
27.40000 5.032
27.42000 0.735
27.44000 -3.778
27.46000 -1.479
27.48000 1.373
27.50000 3.111
27.52000 3.277
27.54000 6.545
27.56000 10.836
27.58000 6.367
27.60000 0.379
27.62000 2.184
27.64000 1.539
27.66000 4.611
27.68000 1.140
27.70000 -1.292
27.72000 1.558
27.74000 8.273
27.76000 3.666
27.78000 -1.021
27.80000 2.465
27.82000 2.844
27.84000 1.373
27.86000 3.985
27.88000 5.839
27.90000 5.480
27.92000 3.634
27.94000 3.668
27.96000 5.547
27.98000 0.623
28.00000 2.596
28.02000 -2.602
28.04000 -1.791
28.06000 6.209
28.08000 9.107
28.10000 6.961
28.12000 0.962
28.14000 -1.277
28.16000 3.710
28.18000 4.288
28.20000 4.737
28.22000 2.171
28.24000 4.702
28.26000 5.434
28.28000 5.088
28.30000 6.544
28.32000 2.814
28.34000 2.859
28.36000 5.683
28.38000 7.055
28.40000 3.215
28.42000 2.469
28.44000 5.955
28.46000 3.010
28.48000 3.223
28.50000 3.372
28.52000 6.181
28.54000 5.345
28.56000 3.935
28.58000 2.519
28.60000 2.198
28.62000 3.998
28.64000 4.547
28.66000 6.217
28.68000 8.318
28.70000 9.649
28.72000 11.408
28.74000 5.698
28.76000 4.817
28.78000 5.588
28.80000 -1.064
28.82000 -0.109
28.84000 6.741
28.86000 12.312
28.88000 11.777
28.90000 8.800
28.92000 14.369
28.94000 9.686
28.96000 7.514
28.98000 9.673
29.00000 3.829
29.02000 0.748
29.04000 4.688
29.06000 10.693
29.08000 8.524
29.10000 7.480
29.12000 8.717
29.14000 6.320
29.16000 -1.193
29.18000 0.123
29.20000 -3.651
29.22000 1.591
29.24000 4.295
29.26000 4.673
29.28000 3.708
29.30000 2.760
29.32000 0.190
29.34000 0.930
29.36000 0.610
29.38000 3.328
29.40000 3.447
29.42000 9.211
29.44000 10.190
29.46000 3.796
29.48000 3.295
29.50000 2.694
29.52000 3.928
29.54000 7.959
29.56000 3.741
29.58000 1.550
29.60000 2.214
29.62000 2.209
29.64000 6.205
29.66000 8.864
29.68000 1.332
29.70000 0.983
29.72000 1.833
29.74000 1.659
29.76000 7.475
29.78000 6.007
29.80000 6.643
29.82000 4.055
29.84000 3.446
29.86000 1.191
29.88000 2.124
29.90000 3.041
29.92000 0.157
29.94000 2.070
29.96000 3.111
29.98000 1.582
30.00000 5.775
30.02000 9.266
30.04000 7.345
30.06000 2.909
30.08000 -0.312
30.10000 0.822
30.12000 3.987
30.14000 -2.182
30.16000 2.953
30.18000 4.521
30.20000 0.544
30.22000 2.449
30.24000 2.221
30.26000 5.898
30.28000 5.790
30.30000 0.061
30.32000 2.042
30.34000 10.554
30.36000 6.211
30.38000 -0.368
30.40000 5.316
30.42000 4.548
30.44000 2.434
30.46000 3.074
30.48000 3.927
30.50000 5.557
30.52000 1.670
30.54000 2.737
30.56000 2.132
30.58000 3.005
30.60000 2.600
30.62000 1.841
30.64000 1.023
30.66000 -1.696
30.68000 -0.477
30.70000 0.867
30.72000 6.534
30.74000 3.631
30.76000 2.265
30.78000 2.772
30.80000 2.601
30.82000 0.083
30.84000 2.119
30.86000 1.029
30.88000 -0.072
30.90000 0.738
30.92000 1.376
30.94000 -1.970
30.96000 -1.210
30.98000 3.646
31.00000 4.300
31.02000 2.893
31.04000 3.679
31.06000 4.172
31.08000 3.373
31.10000 -0.130
31.12000 1.718
31.14000 4.089
31.16000 3.236
31.18000 3.894
31.20000 7.321
31.22000 1.791
31.24000 -3.586
31.26000 -0.859
31.28000 2.320
31.30000 1.602
31.32000 0.851
31.34000 3.041
31.36000 -0.946
31.38000 -1.364
31.40000 0.644
31.42000 2.008
31.44000 3.227
31.46000 -1.194
31.48000 -0.412
31.50000 2.670
31.52000 2.836
31.54000 -3.569
31.56000 -2.534
31.58000 3.222
31.60000 4.427
31.62000 5.232
31.64000 7.242
31.66000 8.941
31.68000 6.454
31.70000 4.865
31.72000 5.860
31.74000 3.234
31.76000 3.809
31.78000 1.691
31.80000 5.351
31.82000 3.915
31.84000 2.494
31.86000 4.913
31.88000 5.857
31.90000 2.579
31.92000 1.040
31.94000 6.804
31.96000 7.391
31.98000 6.126
32.00000 3.591
32.02000 -0.554
32.04000 4.383
32.06000 0.983
32.08000 -3.561
32.10000 -2.789
32.12000 -0.868
32.14000 -2.134
32.16000 0.357
32.18000 1.426
32.20000 0.624
32.22000 1.995
32.24000 -2.174
32.26000 0.166
32.28000 6.745
32.30000 3.675
32.32000 1.136
32.34000 0.743
32.36000 3.935
32.38000 3.777
32.40000 2.301
32.42000 0.487
32.44000 2.167
32.46000 2.294
32.48000 -1.546
32.50000 -0.808
32.52000 0.858
32.54000 1.801
32.56000 -2.157
32.58000 4.307
32.60000 0.968
32.62000 -0.499
32.64000 2.593
32.66000 3.334
32.68000 -2.419
32.70000 0.868
32.72000 4.920
32.74000 7.725
32.76000 2.870
32.78000 1.564
32.80000 -2.284
32.82000 -3.564
32.84000 0.804
32.86000 -0.416
32.88000 -3.485
32.90000 -0.695
32.92000 -0.620
32.94000 6.738
32.96000 3.160
32.98000 0.117
33.00000 1.097
33.02000 4.029
33.04000 2.454
33.06000 2.724
33.08000 -1.071
33.10000 -0.945
33.12000 -1.664
33.14000 -1.561
33.16000 0.052
33.18000 0.337
33.20000 -0.955
33.22000 -2.930
33.24000 3.721
33.26000 2.082
33.28000 4.022
33.30000 3.155
33.32000 2.183
33.34000 0.804
33.36000 -1.921
33.38000 -0.156
33.40000 -1.221
33.42000 0.394
33.44000 3.488
33.46000 5.791
33.48000 2.054
33.50000 -0.506
33.52000 1.034
33.54000 0.002
33.56000 1.629
33.58000 1.998
33.60000 -2.926
33.62000 -2.474
33.64000 2.339
33.66000 1.323
33.68000 0.499
33.70000 3.693
33.72000 -1.511
33.74000 -2.046
33.76000 3.575
33.78000 3.157
33.80000 0.764
33.82000 2.442
33.84000 1.653
33.86000 4.980
33.88000 5.681
33.90000 6.647
33.92000 4.004
33.94000 2.179
33.96000 2.821
33.98000 3.650
34.00000 2.814
34.02000 -1.255
34.04000 -2.251
34.06000 -0.118
34.08000 0.851
34.10000 3.398
34.12000 0.183
34.14000 3.663
34.16000 4.214
34.18000 4.290
34.20000 -0.224
34.22000 7.500
34.24000 4.830
34.26000 3.916
34.28000 2.209
34.30000 2.560
34.32000 5.302
34.34000 6.937
34.36000 3.446
34.38000 -0.490
34.40000 2.881
34.42000 4.366
34.44000 1.502
34.46000 1.357
34.48000 0.781
34.50000 0.732
34.52000 3.735
34.54000 1.279
34.56000 3.627
34.58000 1.187
34.60000 -2.202
34.62000 -1.967
34.64000 -2.455
34.66000 -0.793
34.68000 1.320
34.70000 2.512
34.72000 3.093
34.74000 4.074
34.76000 0.071
34.78000 0.155
34.80000 2.254
34.82000 0.832
34.84000 0.809
34.86000 -3.479
34.88000 -0.891
34.90000 -2.519
34.92000 1.166
34.94000 2.117
34.96000 1.979
34.98000 -0.605
35.00000 4.106
35.02000 3.928
35.04000 4.931
35.06000 4.765
35.08000 2.537
35.10000 4.123
35.12000 5.617
35.14000 3.845
35.16000 5.969
35.18000 5.380
35.20000 1.425
35.22000 0.791
35.24000 4.615
35.26000 3.300
35.28000 4.766
35.30000 4.317
35.32000 1.609
35.34000 2.414
35.36000 0.699
35.38000 4.039
35.40000 6.176
35.42000 4.091
35.44000 2.787
35.46000 0.964
35.48000 5.053
35.50000 2.184
35.52000 0.771
35.54000 3.772
35.56000 1.560
35.58000 1.313
35.60000 1.765
35.62000 4.506
35.64000 4.408
35.66000 -2.826
35.68000 -1.680
35.70000 -0.111
35.72000 2.565
35.74000 6.829
35.76000 6.229
35.78000 0.510
35.80000 -1.980
35.82000 -3.452
35.84000 -2.423
35.86000 1.849
35.88000 5.999
35.90000 8.559
35.92000 5.325
35.94000 3.235
35.96000 4.456
35.98000 9.045
36.00000 8.410
36.02000 -1.626
36.04000 -0.779
36.06000 -0.122
36.08000 4.883
36.10000 1.468
36.12000 3.284
36.14000 2.799
36.16000 -0.338
36.18000 -0.398
36.20000 0.706
36.22000 2.344
36.24000 1.020
36.26000 2.254
36.28000 3.292
36.30000 -0.349
36.32000 2.680
36.34000 1.627
36.36000 2.427
36.38000 1.704
36.40000 2.429
36.42000 1.692
36.44000 -1.865
36.46000 -3.454
36.48000 -3.285
36.50000 -2.241
36.52000 0.570
36.54000 3.022
36.56000 1.627
36.58000 1.735
36.60000 4.747
36.62000 2.003
36.64000 4.352
36.66000 6.517
36.68000 3.952
36.70000 3.303
36.72000 3.005
36.74000 2.101
36.76000 2.836
36.78000 2.906
36.80000 2.936
36.82000 -0.085
36.84000 2.704
36.86000 6.078
36.88000 1.439
36.90000 1.734
36.92000 4.695
36.94000 5.002
36.96000 5.493
36.98000 -3.461
37.00000 1.684
37.02000 8.068
37.04000 7.501
37.06000 10.399
37.08000 4.268
37.10000 -1.012
37.12000 -2.097
37.14000 -0.495
37.16000 6.092
37.18000 4.340
37.20000 0.024
37.22000 2.177
37.24000 2.644
37.26000 4.492
37.28000 3.624
37.30000 6.904
37.32000 6.053
37.34000 6.196
37.36000 5.531
37.38000 3.165
37.40000 0.861
37.42000 4.189
37.44000 0.659
37.46000 1.532
37.48000 -1.976
37.50000 0.944
37.52000 0.278
37.54000 -1.638
37.56000 -2.945
37.58000 -1.280
37.60000 0.278
37.62000 -2.580
37.64000 -2.009
37.66000 -3.538
37.68000 0.963
37.70000 1.733
37.72000 6.874
37.74000 5.339
37.76000 5.004
37.78000 -0.105
37.80000 1.855
37.82000 -1.195
37.84000 -3.383
37.86000 1.813
37.88000 2.126
37.90000 0.021
37.92000 1.885
37.94000 3.336
37.96000 6.013
37.98000 5.961
38.00000 4.333
38.02000 4.756
38.04000 7.414
38.06000 5.853
38.08000 5.222
38.10000 5.475
38.12000 6.400
38.14000 4.143
38.16000 1.741
38.18000 5.656
38.20000 4.337
38.22000 3.153
38.24000 2.006
38.26000 2.653
38.28000 6.283
38.30000 10.646
38.32000 9.488
38.34000 7.933
38.36000 8.602
38.38000 8.016
38.40000 10.414
38.42000 6.766
38.44000 6.818
38.46000 8.057
38.48000 13.217
38.50000 15.135
38.52000 13.043
38.54000 10.335
38.56000 13.071
38.58000 11.990
38.60000 17.639
38.62000 13.852
38.64000 9.582
38.66000 10.613
38.68000 16.614
38.70000 16.104
38.72000 16.778
38.74000 21.077
38.76000 20.331
38.78000 19.082
38.80000 16.010
38.82000 12.481
38.84000 13.934
38.86000 18.587
38.88000 18.678
38.90000 20.210
38.92000 21.520
38.94000 22.207
38.96000 18.796
38.98000 20.723
39.00000 21.916
39.02000 21.269
39.04000 18.401
39.06000 20.290
39.08000 22.948
39.10000 21.283
39.12000 25.093
39.14000 25.947
39.16000 24.397
39.18000 28.479
39.20000 23.823
39.22000 26.515
39.24000 30.258
39.26000 29.042
39.28000 30.772
39.30000 32.911
39.32000 33.031
39.34000 36.230
39.36000 39.273
39.38000 37.000
39.40000 38.599
39.42000 44.201
39.44000 48.307
39.46000 41.448
39.48000 38.216
39.50000 43.703
39.52000 53.794
39.54000 55.231
39.56000 54.600
39.58000 59.222
39.60000 59.182
39.62000 62.978
39.64000 61.346
39.66000 62.639
39.68000 71.428
39.70000 80.742
39.72000 79.745
39.74000 83.580
39.76000 84.745
39.78000 85.026
39.80000 90.732
39.82000 93.631
39.84000 96.833
39.86000 115.403
39.88000 122.314
39.90000 126.313
39.92000 132.269
39.94000 131.622
39.96000 132.813
39.98000 135.443
40.00000 145.223
40.02000 158.355
40.04000 167.681
40.06000 170.819
40.08000 184.958
40.10000 202.824
40.12000 210.853
40.14000 215.858
40.16000 225.521
40.18000 235.798
40.20000 239.567
40.22000 256.912
40.24000 274.995
40.26000 291.209
40.28000 309.216
40.30000 314.568
40.32000 325.114
40.34000 335.175
40.36000 352.167
40.38000 369.316
40.40000 383.534
40.42000 402.165
40.44000 421.664
40.46000 437.296
40.48000 456.407
40.50000 460.310
40.52000 468.193
40.54000 479.535
40.56000 504.227
40.58000 510.417
40.60000 520.011
40.62000 528.233
40.64000 550.639
40.66000 555.680
40.68000 551.672
40.70000 561.421
40.72000 569.940
40.74000 570.654
40.76000 577.066
40.78000 570.420
40.80000 563.790
40.82000 558.165
40.84000 553.358
40.86000 553.073
40.88000 535.644
40.90000 527.351
40.92000 520.547
40.94000 512.493
40.96000 497.705
40.98000 483.914
41.00000 467.479
41.02000 453.931
41.04000 431.442
41.06000 408.316
41.08000 391.260
41.10000 386.013
41.12000 373.361
41.14000 358.476
41.16000 346.966
41.18000 335.288
41.20000 315.056
41.22000 294.702
41.24000 287.489
41.26000 274.587
41.28000 256.444
41.30000 234.443
41.32000 225.928
41.34000 219.851
41.36000 202.179
41.38000 198.698
41.40000 184.862
41.42000 175.127
41.44000 171.856
41.46000 159.900
41.48000 145.720
41.50000 139.095
41.52000 133.988
41.54000 128.220
41.56000 125.350
41.58000 119.203
41.60000 113.851
41.62000 107.206
41.64000 100.389
41.66000 100.317
41.68000 95.895
41.70000 83.898
41.72000 78.492
41.74000 76.307
41.76000 68.622
41.78000 66.158
41.80000 69.657
41.82000 61.391
41.84000 58.902
41.86000 55.275
41.88000 54.492
41.90000 52.575
41.92000 52.587
41.94000 53.241
41.96000 48.647
41.98000 44.561
42.00000 40.614
42.02000 38.233
42.04000 40.100
42.06000 34.831
42.08000 32.852
42.10000 28.554
42.12000 28.126
42.14000 28.820
42.16000 29.228
42.18000 22.752
42.20000 20.608
42.22000 25.885
42.24000 22.713
42.26000 23.345
42.28000 18.756
42.30000 22.187
42.32000 21.195
42.34000 18.395
42.36000 21.480
42.38000 21.929
42.40000 18.328
42.42000 16.744
42.44000 15.899
42.46000 13.226
42.48000 15.405
42.50000 15.066
42.52000 17.443
42.54000 12.639
42.56000 11.673
42.58000 8.732
42.60000 5.824
42.62000 9.662
42.64000 9.863
42.66000 8.773
42.68000 9.007
42.70000 8.475
42.72000 7.127
42.74000 6.348
42.76000 5.841
42.78000 -0.667
42.80000 0.553
42.82000 2.766
42.84000 4.901
42.86000 7.498
42.88000 6.804
42.90000 3.549
42.92000 1.806
42.94000 2.986
42.96000 5.750
42.98000 1.467
43.00000 -1.451
43.02000 -1.561
43.04000 3.230
43.06000 2.555
43.08000 2.713
43.10000 1.978
43.12000 1.859
43.14000 -0.295
43.16000 2.320
43.18000 1.136
43.20000 2.523
43.22000 4.491
43.24000 0.842
43.26000 1.363
43.28000 3.213
43.30000 2.022
43.32000 -2.351
43.34000 -1.539
43.36000 -1.027
43.38000 -1.808
43.40000 -0.041
43.42000 -3.042
43.44000 -0.456
43.46000 1.653
43.48000 2.489
43.50000 1.807
43.52000 -0.995
43.54000 -3.473
43.56000 0.203
43.58000 3.924
43.60000 2.389
43.62000 -2.074
43.64000 -2.840
43.66000 -0.966
43.68000 1.104
43.70000 -0.167
43.72000 0.611
43.74000 0.024
43.76000 2.477
43.78000 3.526
43.80000 3.218
43.82000 1.685
43.84000 -2.170
43.86000 -3.442
43.88000 -1.222
43.90000 -1.999
43.92000 -0.811
43.94000 2.628
43.96000 0.961
43.98000 -1.878
44.00000 2.941
44.02000 1.325
44.04000 2.197
44.06000 0.911
44.08000 3.198
44.10000 0.805
44.12000 0.496
44.14000 -2.271
44.16000 -2.587
44.18000 -1.304
44.20000 0.746
44.22000 3.357
44.24000 2.633
44.26000 2.784
44.28000 6.479
44.30000 4.337
44.32000 0.130
44.34000 1.913
44.36000 3.751
44.38000 1.414
44.40000 0.383
44.42000 3.655
44.44000 2.740
44.46000 1.593
44.48000 -0.960
44.50000 -0.462
44.52000 -2.340
44.54000 -1.526
44.56000 3.002
44.58000 -0.024
44.60000 1.191
44.62000 4.342
44.64000 3.294
44.66000 3.803
44.68000 2.512
44.70000 1.899
44.72000 -3.371
44.74000 -0.706
44.76000 -2.527
44.78000 4.252
44.80000 7.379
44.82000 1.610
44.84000 0.902
44.86000 2.458
44.88000 0.848
44.90000 -1.537
44.92000 3.625
44.94000 7.056
44.96000 6.722
44.98000 1.540
45.00000 2.945
45.02000 5.504
45.04000 5.881
45.06000 0.335
45.08000 1.293
45.10000 2.733
45.12000 4.761
45.14000 2.105
45.16000 3.983
45.18000 5.089
45.20000 10.241
45.22000 5.316
45.24000 0.514
45.26000 2.448
45.28000 -3.362
45.30000 -1.019
45.32000 3.050
45.34000 2.384
45.36000 1.186
45.38000 5.066
45.40000 10.307
45.42000 7.121
45.44000 5.036
45.46000 6.563
45.48000 2.831
45.50000 1.730
45.52000 -0.738
45.54000 1.639
45.56000 6.673
45.58000 8.258
45.60000 6.095
45.62000 3.330
45.64000 2.870
45.66000 7.064
45.68000 8.867
45.70000 11.087
45.72000 7.724
45.74000 7.724
45.76000 10.347
45.78000 14.969
45.80000 15.104
45.82000 8.128
45.84000 6.717
45.86000 7.083
45.88000 5.839
45.90000 7.921
45.92000 11.063
45.94000 12.537
45.96000 9.928
45.98000 8.855
46.00000 14.178
46.02000 18.026
46.04000 16.724
46.06000 12.816
46.08000 8.085
46.10000 11.689
46.12000 10.963
46.14000 12.891
46.16000 18.631
46.18000 15.807
46.20000 19.114
46.22000 19.428
46.24000 21.453
46.26000 22.459
46.28000 16.056
46.30000 13.842
46.32000 19.103
46.34000 19.907
46.36000 23.379
46.38000 23.739
46.40000 27.132
46.42000 25.719
46.44000 21.409
46.46000 26.909
46.48000 29.082
46.50000 33.606
46.52000 30.409
46.54000 28.728
46.56000 31.647
46.58000 32.728
46.60000 34.503
46.62000 31.786
46.64000 34.842
46.66000 29.784
46.68000 30.901
46.70000 35.586
46.72000 34.014
46.74000 33.681
46.76000 37.377
46.78000 33.077
46.80000 39.398
46.82000 39.367
46.84000 35.537
46.86000 34.582
46.88000 41.174
46.90000 45.567
46.92000 42.803
46.94000 49.522
46.96000 50.815
46.98000 43.113
47.00000 41.590
47.02000 45.908
47.04000 50.025
47.06000 50.170
47.08000 47.615
47.10000 51.713
47.12000 56.013
47.14000 50.641
47.16000 52.201
47.18000 61.406
47.20000 50.896
47.22000 55.927
47.24000 50.658
47.26000 47.091
47.28000 49.990
47.30000 56.860
47.32000 60.999
47.34000 57.619
47.36000 53.794
47.38000 60.000
47.40000 58.158
47.42000 57.499
47.44000 54.687
47.46000 53.214
47.48000 45.997
47.50000 41.441
47.52000 45.445
47.54000 46.920
47.56000 47.663
47.58000 50.031
47.60000 52.482
47.62000 52.023
47.64000 48.623
47.66000 44.087
47.68000 44.661
47.70000 41.799
47.72000 39.191
47.74000 39.219
47.76000 41.900
47.78000 40.685
47.80000 38.322
47.82000 33.499
47.84000 33.401
47.86000 29.794
47.88000 31.996
47.90000 36.043
47.92000 35.521
47.94000 30.671
47.96000 32.128
47.98000 27.289
48.00000 24.981
48.02000 20.252
48.04000 26.823
48.06000 24.520
48.08000 25.358
48.10000 27.311
48.12000 25.905
48.14000 22.256
48.16000 21.818
48.18000 16.780
48.20000 12.376
48.22000 10.832
48.24000 15.474
48.26000 14.286
48.28000 11.803
48.30000 10.536
48.32000 12.015
48.34000 5.746
48.36000 6.427
48.38000 9.892
48.40000 12.462
48.42000 10.625
48.44000 14.621
48.46000 11.496
48.48000 10.324
48.50000 9.912
48.52000 9.402
48.54000 11.713
48.56000 10.897
48.58000 12.157
48.60000 13.528
48.62000 12.744
48.64000 5.836
48.66000 2.923
48.68000 7.474
48.70000 4.985
48.72000 3.870
48.74000 5.288
48.76000 4.902
48.78000 3.918
48.80000 5.383
48.82000 2.553
48.84000 3.202
48.86000 3.965
48.88000 8.014
48.90000 4.478
48.92000 3.247
48.94000 0.622
48.96000 7.494
48.98000 4.130
49.00000 0.966
49.02000 0.680
49.04000 6.895
49.06000 7.143
49.08000 5.318
49.10000 7.672
49.12000 2.729
49.14000 1.162
49.16000 2.611
49.18000 2.859
49.20000 5.124
49.22000 14.029
49.24000 7.101
49.26000 9.061
49.28000 3.646
49.30000 1.212
49.32000 3.777
49.34000 5.793
49.36000 -0.999
49.38000 -0.400
49.40000 2.091
49.42000 4.842
49.44000 3.338
49.46000 0.249
49.48000 -2.935
49.50000 1.419
49.52000 3.769
49.54000 6.532
49.56000 7.456
49.58000 4.315
49.60000 2.893
49.62000 0.018
49.64000 3.858
49.66000 4.852
49.68000 3.627
49.70000 2.824
49.72000 3.905
49.74000 3.063
49.76000 4.062
49.78000 8.395
49.80000 11.339
49.82000 7.823
49.84000 0.484
49.86000 0.926
49.88000 5.419
49.90000 3.929
49.92000 0.826
49.94000 -2.412
49.96000 1.230
49.98000 2.267
50.00000 3.564
50.02000 3.439
50.04000 0.553
50.06000 -0.866
50.08000 1.118
50.10000 -1.607
50.12000 1.429
50.14000 7.599
50.16000 8.778
50.18000 2.017
50.20000 -1.684
50.22000 6.219
50.24000 6.404
50.26000 2.691
50.28000 -2.234
50.30000 -1.312
50.32000 -2.893
50.34000 1.107
50.36000 2.841
50.38000 -1.418
50.40000 1.827
50.42000 2.970
50.44000 2.707
50.46000 4.778
50.48000 2.807
50.50000 5.314
50.52000 5.896
50.54000 -2.886
50.56000 2.078
50.58000 7.495
50.60000 4.824
50.62000 -2.214
50.64000 0.197
50.66000 -0.579
50.68000 -1.158
50.70000 -2.123
50.72000 -0.385
50.74000 3.389
50.76000 3.198
50.78000 4.435
50.80000 5.138
50.82000 3.590
50.84000 0.098
50.86000 0.558
50.88000 0.027
50.90000 3.966
50.92000 7.447
50.94000 3.877
50.96000 5.564
50.98000 4.246
51.00000 5.315
51.02000 5.582
51.04000 7.235
51.06000 3.630
51.08000 -0.087
51.10000 0.428
51.12000 2.013
51.14000 3.576
51.16000 -0.555
51.18000 0.509
51.20000 -1.259
51.22000 1.135
51.24000 2.176
51.26000 0.194
51.28000 -0.036
51.30000 0.628
51.32000 3.504
51.34000 1.468
51.36000 6.702
51.38000 5.247
51.40000 6.128
51.42000 3.823
51.44000 -0.063
51.46000 -2.177
51.48000 1.350
51.50000 1.852
51.52000 2.351
51.54000 1.773
51.56000 -1.132
51.58000 0.645
51.60000 -2.046
51.62000 0.156
51.64000 1.990
51.66000 6.430
51.68000 5.382
51.70000 1.850
51.72000 -0.916
51.74000 -1.616
51.76000 -1.873
51.78000 -0.188
51.80000 -0.871
51.82000 1.652
51.84000 0.237
51.86000 2.002
51.88000 1.427
51.90000 2.398
51.92000 0.189
51.94000 3.682
51.96000 1.950
51.98000 3.350
52.00000 -0.962
52.02000 5.229
52.04000 4.925
52.06000 2.733
52.08000 1.003
52.10000 -0.299
52.12000 6.092
52.14000 6.201
52.16000 2.482
52.18000 4.040
52.20000 2.119
52.22000 3.699
52.24000 2.763
52.26000 -2.814
52.28000 -2.754
52.30000 -1.594
52.32000 1.156
52.34000 4.412
52.36000 3.968
52.38000 -1.625
52.40000 0.284
52.42000 3.920
52.44000 2.326
52.46000 1.635
52.48000 3.191
52.50000 7.055
52.52000 -1.323
52.54000 1.296
52.56000 3.544
52.58000 4.243
52.60000 3.725
52.62000 3.885
52.64000 3.306
52.66000 -0.138
52.68000 -1.231
52.70000 3.048
52.72000 1.871
52.74000 -1.564
52.76000 0.174
52.78000 2.556
52.80000 5.759
52.82000 6.665
52.84000 3.741
52.86000 6.088
52.88000 5.926
52.90000 4.464
52.92000 1.913
52.94000 5.863
52.96000 6.963
52.98000 1.295
53.00000 -1.654
53.02000 4.302
53.04000 0.997
53.06000 1.949
53.08000 -1.014
53.10000 2.132
53.12000 4.637
53.14000 4.207
53.16000 -1.181
53.18000 -0.161
53.20000 2.303
53.22000 4.951
53.24000 6.507
53.26000 2.114
53.28000 4.479
53.30000 1.987
53.32000 -0.804
53.34000 -1.715
53.36000 3.022
53.38000 2.619
53.40000 1.669
53.42000 0.827
53.44000 4.376
53.46000 6.009
53.48000 1.298
53.50000 -1.493
53.52000 -1.544
53.54000 3.700
53.56000 2.445
53.58000 3.247
53.60000 8.632
53.62000 5.598
53.64000 4.279
53.66000 5.887
53.68000 4.324
53.70000 2.174
53.72000 1.760
53.74000 -2.762
53.76000 -2.793
53.78000 1.614
53.80000 -0.914
53.82000 -0.417
53.84000 0.666
53.86000 2.950
53.88000 6.299
53.90000 3.509
53.92000 2.095
53.94000 4.256
53.96000 -0.280
53.98000 1.146
54.00000 4.169
54.02000 4.062
54.04000 2.543
54.06000 5.552
54.08000 0.768
54.10000 1.776
54.12000 8.937
54.14000 9.256
54.16000 0.736
54.18000 3.448
54.20000 9.230
54.22000 6.197
54.24000 -1.502
54.26000 -2.769
54.28000 -0.921
54.30000 1.514
54.32000 3.163
54.34000 1.766
54.36000 -0.011
54.38000 -1.692
54.40000 -1.373
54.42000 2.469
54.44000 2.792
54.46000 2.834
54.48000 0.711
54.50000 0.422
54.52000 4.083
54.54000 1.896
54.56000 1.537
54.58000 3.741
54.60000 0.819
54.62000 1.725
54.64000 3.686
54.66000 9.082
54.68000 7.045
54.70000 2.456
54.72000 -2.260
54.74000 -1.073
54.76000 -1.884
54.78000 2.470
54.80000 6.943
54.82000 1.083
54.84000 0.900
54.86000 5.266
54.88000 2.579
54.90000 -2.150
54.92000 0.853
54.94000 -1.419
54.96000 2.673
54.98000 3.393
55.00000 1.325
55.02000 -0.293
55.04000 3.068
55.06000 6.003
55.08000 3.462
55.10000 0.910
55.12000 -0.589
55.14000 -1.400
55.16000 -1.636
55.18000 4.645
55.20000 0.683
55.22000 -1.885
55.24000 -2.416
55.26000 2.242
55.28000 -2.321
55.30000 -0.473
55.32000 0.275
55.34000 1.645
55.36000 -0.559
55.38000 -1.528
55.40000 1.968
55.42000 -0.954
55.44000 -2.446
55.46000 1.677
55.48000 1.784
55.50000 4.318
55.52000 4.000
55.54000 0.616
55.56000 -2.748
55.58000 2.015
55.60000 4.130
55.62000 1.876
55.64000 0.564
55.66000 2.579
55.68000 6.100
55.70000 3.222
55.72000 5.847
55.74000 3.098
55.76000 0.085
55.78000 4.117
55.80000 4.914
55.82000 8.055
55.84000 0.873
55.86000 -0.999
55.88000 -0.116
55.90000 1.529
55.92000 5.791
55.94000 4.340
55.96000 -1.361
55.98000 1.874
56.00000 2.491
56.02000 6.173
56.04000 3.610
56.06000 -1.140
56.08000 -2.716
56.10000 -0.596
56.12000 0.847
56.14000 0.761
56.16000 -1.382
56.18000 -2.709
56.20000 -1.855
56.22000 1.950
56.24000 3.635
56.26000 2.382
56.28000 2.046
56.30000 2.704
56.32000 3.877
56.34000 3.134
56.36000 2.389
56.38000 3.403
56.40000 3.711
56.42000 -0.016
56.44000 0.173
56.46000 4.848
56.48000 5.166
56.50000 2.587
56.52000 4.200
56.54000 0.666
56.56000 3.705
56.58000 1.438
56.60000 0.632
56.62000 5.707
56.64000 3.510
56.66000 0.305
56.68000 -2.618
56.70000 1.026
56.72000 2.791
56.74000 3.066
56.76000 -0.516
56.78000 2.132
56.80000 3.016
56.82000 0.706
56.84000 0.582
56.86000 1.968
56.88000 1.848
56.90000 1.893
56.92000 2.751
56.94000 0.109
56.96000 -2.683
56.98000 -1.562
57.00000 1.952
57.02000 1.460
57.04000 3.355
57.06000 3.389
57.08000 3.163
57.10000 4.349
57.12000 3.297
57.14000 3.226
57.16000 -0.024
57.18000 0.982
57.20000 5.098
57.22000 4.836
57.24000 -0.753
57.26000 1.638
57.28000 6.230
57.30000 5.120
57.32000 1.083
57.34000 -1.886
57.36000 0.339
57.38000 0.386
57.40000 -0.155
57.42000 1.958
57.44000 1.177
57.46000 5.655
57.48000 4.648
57.50000 3.039
57.52000 5.145
57.54000 5.907
57.56000 8.413
57.58000 6.842
57.60000 1.904
57.62000 -1.026
57.64000 -2.653
57.66000 2.372
57.68000 4.146
57.70000 3.510
57.72000 2.451
57.74000 2.024
57.76000 4.592
57.78000 0.659
57.80000 2.125
57.82000 3.903
57.84000 -1.293
57.86000 -1.283
57.88000 5.400
57.90000 3.383
57.92000 0.629
57.94000 4.469
57.96000 1.323
57.98000 0.197
58.00000 -2.562
58.02000 -1.075
58.04000 3.885
58.06000 2.105
58.08000 -1.285
58.10000 1.818
58.12000 2.404
58.14000 4.430
58.16000 7.550
58.18000 8.062
58.20000 8.541
58.22000 0.217
58.24000 1.628
58.26000 3.403
58.28000 4.323
58.30000 5.615
58.32000 5.188
58.34000 3.848
58.36000 2.082
58.38000 -0.678
58.40000 1.507
58.42000 4.324
58.44000 9.518
58.46000 2.891
58.48000 1.503
58.50000 -2.601
58.52000 -2.132
58.54000 2.015
58.56000 1.840
58.58000 3.587
58.60000 -0.197
58.62000 2.678
58.64000 1.853
58.66000 3.485
58.68000 2.144
58.70000 8.211
58.72000 4.624
58.74000 3.240
58.76000 1.190
58.78000 0.083
58.80000 2.570
58.82000 1.541
58.84000 0.892
58.86000 -0.195
58.88000 -0.142
58.90000 2.059
58.92000 -2.222
58.94000 4.317
58.96000 8.577
58.98000 7.020
59.00000 -1.456
59.02000 0.588
59.04000 -0.956
59.06000 2.134
59.08000 5.685
59.10000 4.652
59.12000 3.877
59.14000 -0.950
59.16000 -1.563
59.18000 1.634
59.20000 2.545
59.22000 3.151
59.24000 6.181
59.26000 5.955
59.28000 6.130
59.30000 8.044
59.32000 7.750
59.34000 9.172
59.36000 6.658
59.38000 0.027
59.40000 -0.598
59.42000 2.453
59.44000 3.800
59.46000 4.054
59.48000 3.372
59.50000 5.915
59.52000 4.225
59.54000 3.465
59.56000 2.722
59.58000 5.647
59.60000 5.162
59.62000 3.658
59.64000 3.534
59.66000 4.618
59.68000 2.369
59.70000 5.713
59.72000 5.482
59.74000 0.568
59.76000 2.274
59.78000 6.242
59.80000 1.605
59.82000 5.403
59.84000 5.622
59.86000 5.908
59.88000 0.507
59.90000 2.093
59.92000 0.551
59.94000 4.282
59.96000 3.864
59.98000 3.727
60.00000 1.363
60.02000 5.263
60.04000 6.690
60.06000 2.702
60.08000 4.207
60.10000 4.127
60.12000 6.837
60.14000 5.351
60.16000 5.978
60.18000 8.541
60.20000 6.979
60.22000 3.724
60.24000 2.349
60.26000 -2.511
60.28000 -1.188
60.30000 -1.317
60.32000 2.913
60.34000 4.244
60.36000 3.939
60.38000 1.547
60.40000 5.379
60.42000 4.721
60.44000 3.339
60.46000 6.045
60.48000 6.438
60.50000 1.120
60.52000 -2.504
60.54000 0.397
60.56000 2.093
60.58000 0.184
60.60000 4.283
60.62000 4.217
60.64000 4.550
60.66000 8.521
60.68000 9.806
60.70000 2.927
60.72000 0.088
60.74000 1.093
60.76000 4.988
60.78000 2.715
60.80000 1.719
60.82000 2.773
60.84000 5.880
60.86000 5.234
60.88000 9.553
60.90000 5.097
60.92000 2.697
60.94000 2.708
60.96000 5.613
60.98000 9.189
61.00000 10.244
61.02000 5.895
61.04000 5.308
61.06000 2.514
61.08000 4.608
61.10000 5.379
61.12000 7.225
61.14000 6.938
61.16000 5.683
61.18000 4.454
61.20000 4.167
61.22000 1.130
61.24000 1.425
61.26000 2.315
61.28000 1.564
61.30000 3.188
61.32000 4.004
61.34000 8.026
61.36000 9.201
61.38000 9.581
61.40000 0.800
61.42000 1.201
61.44000 6.239
61.46000 5.469
61.48000 6.753
61.50000 5.605
61.52000 4.966
61.54000 6.559
61.56000 5.192
61.58000 6.911
61.60000 2.967
61.62000 4.739
61.64000 5.232
61.66000 5.045
61.68000 6.676
61.70000 3.537
61.72000 3.266
61.74000 -0.035
61.76000 7.848
61.78000 8.754
61.80000 5.574
61.82000 -2.442
61.84000 0.676
61.86000 3.156
61.88000 6.290
61.90000 4.956
61.92000 4.400
61.94000 7.862
61.96000 8.577
61.98000 8.782
62.00000 7.042
62.02000 4.935
62.04000 5.197
62.06000 6.762
62.08000 8.230
62.10000 6.668
62.12000 10.083
62.14000 9.098
62.16000 5.964
62.18000 -0.946
62.20000 3.543
62.22000 5.886
62.24000 4.245
62.26000 7.085
62.28000 5.500
62.30000 2.090
62.32000 5.748
62.34000 6.004
62.36000 5.281
62.38000 5.792
62.40000 7.233
62.42000 4.305
62.44000 7.121
62.46000 8.680
62.48000 10.371
62.50000 4.748
62.52000 4.860
62.54000 9.420
62.56000 12.657
62.58000 9.895
62.60000 8.320
62.62000 12.066
62.64000 8.207
62.66000 2.650
62.68000 5.830
62.70000 5.095
62.72000 2.358
62.74000 3.699
62.76000 7.631
62.78000 5.872
62.80000 7.664
62.82000 3.851
62.84000 4.606
62.86000 0.490
62.88000 3.951
62.90000 8.133
62.92000 5.865
62.94000 8.165
62.96000 6.496
62.98000 3.732
63.00000 5.562
63.02000 5.751
63.04000 7.400
63.06000 4.647
63.08000 7.293
63.10000 7.510
63.12000 5.321
63.14000 4.602
63.16000 5.256
63.18000 6.076
63.20000 9.020
63.22000 9.662
63.24000 5.665
63.26000 2.675
63.28000 1.188
63.30000 -2.398
63.32000 2.864
63.34000 6.836
63.36000 4.982
63.38000 3.870
63.40000 8.255
63.42000 5.995
63.44000 4.551
63.46000 6.339
63.48000 3.832
63.50000 2.616
63.52000 5.943
63.54000 6.172
63.56000 6.877
63.58000 9.103
63.60000 10.878
63.62000 10.381
63.64000 5.285
63.66000 3.330
63.68000 3.043
63.70000 3.452
63.72000 4.197
63.74000 4.117
63.76000 4.029
63.78000 4.198
63.80000 5.177
63.82000 2.640
63.84000 5.363
63.86000 12.295
63.88000 10.639
63.90000 6.624
63.92000 6.747
63.94000 6.382
63.96000 5.663
63.98000 0.275
64.00000 -0.367
64.02000 0.470
64.04000 5.685
64.06000 5.024
64.08000 6.584
64.10000 5.937
64.12000 8.940
64.14000 9.479
64.16000 4.773
64.18000 5.273
64.20000 5.862
64.22000 6.491
64.24000 3.748
64.26000 3.580
64.28000 6.271
64.30000 3.877
64.32000 6.867
64.34000 2.986
64.36000 3.948
64.38000 6.083
64.40000 3.199
64.42000 5.879
64.44000 5.554
64.46000 2.538
64.48000 1.873
64.50000 2.037
64.52000 4.321
64.54000 6.716
64.56000 0.116
64.58000 3.173
64.60000 5.740
64.62000 2.297
64.64000 0.007
64.66000 2.876
64.68000 5.003
64.70000 6.151
64.72000 5.625
64.74000 6.265
64.76000 4.293
64.78000 2.926
64.80000 4.290
64.82000 3.782
64.84000 0.667
64.86000 3.527
64.88000 5.726
64.90000 3.098
64.92000 3.893
64.94000 7.594
64.96000 6.743
64.98000 5.406
65.00000 3.461
65.02000 2.340
65.04000 3.781
65.06000 -0.438
65.08000 1.390
65.10000 -0.402
65.12000 0.293
65.14000 2.106
65.16000 2.685
65.18000 -1.075
65.20000 3.015
65.22000 2.303
65.24000 1.169
65.26000 2.443
65.28000 5.272
65.30000 3.216
65.32000 5.384
65.34000 7.461
65.36000 6.233
65.38000 3.614
65.40000 6.201
65.42000 4.265
65.44000 4.280
65.46000 4.159
65.48000 -2.467
65.50000 0.851
65.52000 3.069
65.54000 4.184
65.56000 6.549
65.58000 6.708
65.60000 2.706
65.62000 0.288
65.64000 -0.979
65.66000 1.452
65.68000 -0.579
65.70000 3.066
65.72000 4.353
65.74000 5.134
65.76000 3.416
65.78000 2.963
65.80000 2.352
65.82000 6.185
65.84000 6.513
65.86000 3.402
65.88000 2.976
65.90000 2.935
65.92000 2.552
65.94000 0.856
65.96000 0.962
65.98000 2.706
66.00000 3.182
66.02000 3.034
66.04000 0.920
66.06000 3.872
66.08000 3.016
66.10000 3.221
66.12000 3.635
66.14000 2.405
66.16000 0.999
66.18000 3.711
66.20000 3.419
66.22000 1.916
66.24000 -1.346
66.26000 1.237
66.28000 2.098
66.30000 4.423
66.32000 1.609
66.34000 1.911
66.36000 3.236
66.38000 3.544
66.40000 6.008
66.42000 4.621
66.44000 1.961
66.46000 -1.535
66.48000 0.405
66.50000 0.172
66.52000 2.545
66.54000 1.553
66.56000 4.089
66.58000 3.710
66.60000 4.630
66.62000 0.101
66.64000 1.519
66.66000 1.720
66.68000 2.232
66.70000 3.866
66.72000 2.473
66.74000 0.524
66.76000 3.093
66.78000 4.919
66.80000 1.262
66.82000 -0.121
66.84000 -0.483
66.86000 -2.502
66.88000 0.356
66.90000 4.015
66.92000 4.480
66.94000 4.569
66.96000 4.022
66.98000 1.822
67.00000 4.680
67.02000 3.051
67.04000 3.172
67.06000 -1.128
67.08000 0.393
67.10000 1.352
67.12000 1.924
67.14000 1.291
67.16000 5.298
67.18000 4.765
67.20000 3.022
67.22000 0.917
67.24000 -0.271
67.26000 0.210
67.28000 0.506
67.30000 2.491
67.32000 5.858
67.34000 5.286
67.36000 3.135
67.38000 3.193
67.40000 7.136
67.42000 5.647
67.44000 2.546
67.46000 4.991
67.48000 5.658
67.50000 -1.253
67.52000 -2.514
67.54000 0.744
67.56000 -1.422
67.58000 2.934
67.60000 2.715
67.62000 4.352
67.64000 5.094
67.66000 4.933
67.68000 3.962
67.70000 4.403
67.72000 6.722
67.74000 5.978
67.76000 3.566
67.78000 3.003
67.80000 4.613
67.82000 3.809
67.84000 1.329
67.86000 1.864
67.88000 3.662
67.90000 5.606
67.92000 3.219
67.94000 2.952
67.96000 4.257
67.98000 4.224
68.00000 4.017
68.02000 7.727
68.04000 6.648
68.06000 4.780
68.08000 4.357
68.10000 6.335
68.12000 3.518
68.14000 5.057
68.16000 7.329
68.18000 7.356
68.20000 6.158
68.22000 5.440
68.24000 3.942
68.26000 4.097
68.28000 4.642
68.30000 9.480
68.32000 8.533
68.34000 6.475
68.36000 7.201
68.38000 8.111
68.40000 8.947
68.42000 8.976
68.44000 8.425
68.46000 9.618
68.48000 11.385
68.50000 9.229
68.52000 9.254
68.54000 11.637
68.56000 10.145
68.58000 10.500
68.60000 6.273
68.62000 9.916
68.64000 12.885
68.66000 13.013
68.68000 15.011
68.70000 12.703
68.72000 14.633
68.74000 13.388
68.76000 14.995
68.78000 13.064
68.80000 12.576
68.82000 8.400
68.84000 13.315
68.86000 16.636
68.88000 18.566
68.90000 15.850
68.92000 16.308
68.94000 15.473
68.96000 19.947
68.98000 20.234
69.00000 20.673
69.02000 19.266
69.04000 17.414
69.06000 16.590
69.08000 18.607
69.10000 15.417
69.12000 18.145
69.14000 21.603
69.16000 18.595
69.18000 18.170
69.20000 22.810
69.22000 21.733
69.24000 22.379
69.26000 22.993
69.28000 23.281
69.30000 19.224
69.32000 17.242
69.34000 14.644
69.36000 14.608
69.38000 17.011
69.40000 15.249
69.42000 20.854
69.44000 21.299
69.46000 20.341
69.48000 19.238
69.50000 17.109
69.52000 16.867
69.54000 13.553
69.56000 16.328
69.58000 14.151
69.60000 14.490
69.62000 14.774
69.64000 15.099
69.66000 15.247
69.68000 10.465
69.70000 9.919
69.72000 8.172
69.74000 9.993
69.76000 16.020
69.78000 12.293
69.80000 9.849
69.82000 7.323
69.84000 7.009
69.86000 8.939
69.88000 9.848
69.90000 13.507
69.92000 8.860
69.94000 4.539
69.96000 9.203
69.98000 7.251
70.00000 10.567
70.02000 8.967
70.04000 5.964
70.06000 6.441
70.08000 4.733
70.10000 3.290
70.12000 4.569
70.14000 7.864
70.16000 5.907
70.18000 3.057
70.20000 2.912
70.22000 0.284
70.24000 3.504
70.26000 0.202
70.28000 -0.912
70.30000 -0.914
70.32000 -0.405
70.34000 2.227
70.36000 2.366
70.38000 7.089
70.40000 6.438
70.42000 3.386
70.44000 4.209
70.46000 7.529
70.48000 3.147
70.50000 4.599
70.52000 2.504
70.54000 1.288
70.56000 0.506
70.58000 0.259
70.60000 2.772
70.62000 0.480
70.64000 -0.470
70.66000 -2.483
70.68000 -2.365
70.70000 4.276
70.72000 3.323
70.74000 3.467
70.76000 2.882
70.78000 2.943
70.80000 0.693
70.82000 -2.130
70.84000 3.097
70.86000 5.819
70.88000 6.854
70.90000 4.460
70.92000 -0.726
70.94000 0.234
70.96000 1.119
70.98000 1.921
71.00000 2.677
71.02000 2.598
71.04000 -0.077
71.06000 0.039
71.08000 -0.327
71.10000 2.497
71.12000 3.276
71.14000 3.727
71.16000 1.817
71.18000 3.494
71.20000 4.724
71.22000 6.952
71.24000 3.887
71.26000 0.577
71.28000 -1.943
71.30000 1.457
71.32000 3.672
71.34000 1.445
71.36000 1.761
71.38000 1.895
71.40000 2.304
71.42000 0.964
71.44000 -2.390
71.46000 0.405
71.48000 0.686
71.50000 4.292
71.52000 4.258
71.54000 1.954
71.56000 0.306
71.58000 0.425
71.60000 3.247
71.62000 1.431
71.64000 -2.111
71.66000 0.237
71.68000 2.939
71.70000 2.046
71.72000 -0.340
71.74000 -0.104
71.76000 0.883
71.78000 4.035
71.80000 4.283
71.82000 0.487
71.84000 -0.849
71.86000 2.420
71.88000 -0.889
71.90000 -2.370
71.92000 0.577
71.94000 1.510
71.96000 -1.212
71.98000 -2.158
72.00000 -1.082
72.02000 2.951
72.04000 3.866
72.06000 2.274
72.08000 -0.933
72.10000 0.126
72.12000 0.662
72.14000 1.718
72.16000 3.868
72.18000 4.175
72.20000 4.696
72.22000 0.630
72.24000 4.804
72.26000 5.292
72.28000 3.698
72.30000 5.314
72.32000 4.058
72.34000 2.518
72.36000 1.846
72.38000 -0.763
72.40000 -0.491
72.42000 0.706
72.44000 4.429
72.46000 3.135
72.48000 2.387
72.50000 3.154
72.52000 3.803
72.54000 1.700
72.56000 3.063
72.58000 -2.070
72.60000 -2.316
72.62000 1.881
72.64000 4.674
72.66000 3.611
72.68000 1.800
72.70000 0.429
72.72000 1.927
72.74000 -0.645
72.76000 -2.307
72.78000 0.734
72.80000 6.595
72.82000 4.569
72.84000 5.150
72.86000 4.259
72.88000 3.627
72.90000 2.246
72.92000 -0.230
72.94000 -2.310
72.96000 0.373
72.98000 0.701
73.00000 1.838
73.02000 1.706
73.04000 5.023
73.06000 4.793
73.08000 3.141
73.10000 -1.912
73.12000 -1.522
73.14000 1.600
73.16000 1.261
73.18000 -1.233
73.20000 3.924
73.22000 4.280
73.24000 4.946
73.26000 3.796
73.28000 3.772
73.30000 1.841
73.32000 0.299
73.34000 -1.744
73.36000 2.691
73.38000 2.284
73.40000 5.023
73.42000 1.715
73.44000 1.989
73.46000 6.121
73.48000 8.185
73.50000 3.206
73.52000 1.179
73.54000 -1.635
73.56000 0.577
73.58000 1.280
73.60000 4.068
73.62000 4.336
73.64000 0.558
73.66000 2.186
73.68000 2.735
73.70000 3.228
73.72000 2.732
73.74000 3.994
73.76000 5.136
73.78000 4.278
73.80000 0.716
73.82000 4.888
73.84000 3.676
73.86000 0.087
73.88000 1.606
73.90000 1.039
73.92000 -1.492
73.94000 2.595
73.96000 2.671
73.98000 -1.262
74.00000 2.368
74.02000 5.727
74.04000 3.703
74.06000 2.449
74.08000 2.905
74.10000 5.156
74.12000 3.200
74.14000 1.041
74.16000 1.611
74.18000 -0.487
74.20000 -1.308
74.22000 0.920
74.24000 2.650
74.26000 6.998
74.28000 0.396
74.30000 5.425
74.32000 5.402
74.34000 -2.274
74.36000 -2.129
74.38000 0.695
74.40000 1.990
74.42000 5.994
74.44000 7.636
74.46000 3.762
74.48000 -0.772
74.50000 1.288
74.52000 3.086
74.54000 2.899
74.56000 0.996
74.58000 2.921
74.60000 9.158
74.62000 3.682
74.64000 2.989
74.66000 5.628
74.68000 6.105
74.70000 2.920
74.72000 2.450
74.74000 5.438
74.76000 7.606
74.78000 7.540
74.80000 4.786
74.82000 4.023
74.84000 4.544
74.86000 2.158
74.88000 6.215
74.90000 0.287
74.92000 1.973
74.94000 0.943
74.96000 4.350
74.98000 4.013
75.00000 0.349
75.02000 1.801
75.04000 5.396
75.06000 2.717
75.08000 1.322
75.10000 0.007
75.12000 -0.955
75.14000 0.218
75.16000 5.197
75.18000 4.926
75.20000 3.161
75.22000 3.902
75.24000 4.738
75.26000 0.397
75.28000 2.017
75.30000 5.575
75.32000 4.355
75.34000 2.270
75.36000 0.596
75.38000 -2.286
75.40000 2.452
75.42000 1.793
75.44000 0.754
75.46000 1.751
75.48000 4.250
75.50000 4.121
75.52000 2.731
75.54000 5.689
75.56000 8.168
75.58000 5.803
75.60000 2.721
75.62000 0.472
75.64000 -2.281
75.66000 3.404
75.68000 2.156
75.70000 6.083
75.72000 6.020
75.74000 7.408
75.76000 5.884
75.78000 2.708
75.80000 1.134
75.82000 2.158
75.84000 5.327
75.86000 2.569
75.88000 2.922
75.90000 6.299
75.92000 4.255
75.94000 3.114
75.96000 2.550
75.98000 0.026
76.00000 -0.582
76.02000 1.194
76.04000 3.422
76.06000 1.480
76.08000 0.117
76.10000 4.472
76.12000 6.049
76.14000 6.575
76.16000 0.954
76.18000 4.389
76.20000 6.239
76.22000 5.426
76.24000 2.931
76.26000 -2.312
76.28000 3.097
76.30000 4.940
76.32000 3.209
76.34000 4.763
76.36000 7.301
76.38000 1.217
76.40000 0.844
76.42000 1.003
76.44000 3.497
76.46000 -0.909
76.48000 -0.438
76.50000 1.391
76.52000 4.888
76.54000 5.278
76.56000 6.124
76.58000 5.601
76.60000 5.518
76.62000 4.786
76.64000 7.088
76.66000 2.606
76.68000 2.666
76.70000 3.729
76.72000 3.116
76.74000 1.370
76.76000 2.202
76.78000 4.678
76.80000 3.985
76.82000 7.116
76.84000 2.998
76.86000 2.976
76.88000 3.819
76.90000 3.594
76.92000 1.363
76.94000 1.828
76.96000 4.014
76.98000 7.173
77.00000 4.368
77.02000 1.215
77.04000 3.114
77.06000 4.745
77.08000 4.669
77.10000 5.254
77.12000 1.346
77.14000 2.598
77.16000 4.843
77.18000 3.113
77.20000 4.589
77.22000 3.204
77.24000 3.486
77.26000 7.776
77.28000 8.538
77.30000 6.414
77.32000 6.203
77.34000 6.163
77.36000 4.799
77.38000 2.689
77.40000 2.240
77.42000 -2.297
77.44000 2.580
77.46000 4.556
77.48000 2.141
77.50000 -1.188
77.52000 1.656
77.54000 -1.106
77.56000 2.825
77.58000 7.889
77.60000 4.487
77.62000 2.309
77.64000 2.201
77.66000 2.751
77.68000 2.869
77.70000 3.356
77.72000 1.653
77.74000 7.639
77.76000 7.042
77.78000 5.457
77.80000 2.815
77.82000 -1.772
77.84000 1.946
77.86000 4.732
77.88000 7.403
77.90000 9.009
77.92000 4.311
77.94000 1.711
77.96000 -0.041
77.98000 5.390
78.00000 7.172
78.02000 4.721
78.04000 6.151
78.06000 5.876
78.08000 1.807
78.10000 -1.871
78.12000 -2.265
78.14000 2.465
78.16000 3.019
78.18000 1.999
78.20000 5.543
78.22000 13.667
78.24000 6.096
78.26000 6.220
78.28000 7.582
78.30000 5.815
78.32000 3.621
78.34000 6.221
78.36000 6.712
78.38000 -0.661
78.40000 0.015
78.42000 6.176
78.44000 3.618
78.46000 3.931
78.48000 4.701
78.50000 1.562
78.52000 2.276
78.54000 6.501
78.56000 0.414
78.58000 1.461
78.60000 2.681
78.62000 1.279
78.64000 5.833
78.66000 6.587
78.68000 5.933
78.70000 6.671
78.72000 7.970
78.74000 5.670
78.76000 3.411
78.78000 4.669
78.80000 6.683
78.82000 8.602
78.84000 3.932
78.86000 1.065
78.88000 6.068
78.90000 5.178
78.92000 4.316
78.94000 5.353
78.96000 10.380
78.98000 5.854
79.00000 3.235
79.02000 6.377
79.04000 3.963
79.06000 6.103
79.08000 7.141
79.10000 7.829
79.12000 9.894
79.14000 8.692
79.16000 8.305
79.18000 1.010
79.20000 -0.361
79.22000 4.542
79.24000 5.245
79.26000 -2.307
79.28000 -2.146
79.30000 0.763
79.32000 2.655
79.34000 2.875
79.36000 3.595
79.38000 3.604
79.40000 8.033
79.42000 4.179
79.44000 4.105
79.46000 10.924
79.48000 8.972
79.50000 4.872
79.52000 6.411
79.54000 3.007
79.56000 6.121
79.58000 9.110
79.60000 5.522
79.62000 3.710
79.64000 1.592
79.66000 2.940
79.68000 2.794
79.70000 5.845
79.72000 3.587
79.74000 7.668
79.76000 9.758
79.78000 4.174
79.80000 2.574
79.82000 5.181
79.84000 3.556
79.86000 2.569
79.88000 2.678
79.90000 4.352
79.92000 7.772
79.94000 8.442
79.96000 9.446
79.98000 1.776
80.00000 2.273
80.02000 4.967
80.04000 5.510
80.06000 5.703
80.08000 8.777
80.10000 6.685
80.12000 4.179
80.14000 3.094
80.16000 4.800
80.18000 9.749
80.20000 3.533
80.22000 2.293
80.24000 6.834
80.26000 6.214
80.28000 0.920
80.30000 1.893
80.32000 4.589
80.34000 2.622
80.36000 0.363
80.38000 4.273
80.40000 1.286
80.42000 2.882
80.44000 0.808
80.46000 -0.780
80.48000 -2.334
80.50000 1.113
80.52000 1.964
80.54000 3.939
80.56000 7.961
80.58000 5.202
80.60000 9.290
80.62000 5.782
80.64000 0.994
80.66000 4.540
80.68000 4.236
80.70000 10.087
80.72000 9.554
80.74000 9.389
80.76000 3.659
80.78000 1.809
80.80000 4.715
80.82000 3.071
80.84000 0.806
80.86000 -1.167
80.88000 3.373
80.90000 6.887
80.92000 4.438
80.94000 5.435
80.96000 0.689
80.98000 1.917
81.00000 3.922
81.02000 0.802
81.04000 -2.397
81.06000 1.225
81.08000 -0.299
81.10000 3.525
81.12000 1.915
81.14000 3.822
81.16000 4.347
81.18000 6.204
81.20000 7.154
81.22000 4.240
81.24000 2.559
81.26000 4.841
81.28000 2.577
81.30000 -1.154
81.32000 1.292
81.34000 3.830
81.36000 0.599
81.38000 0.467
81.40000 4.679
81.42000 6.287
81.44000 1.563
81.46000 6.536
81.48000 5.063
81.50000 1.678
81.52000 3.157
81.54000 9.452
81.56000 6.130
81.58000 4.896
81.60000 0.976
81.62000 -0.622
81.64000 5.882
81.66000 2.603
81.68000 -0.784
81.70000 -0.582
81.72000 2.170
81.74000 5.844
81.76000 3.586
81.78000 6.515
81.80000 2.502
81.82000 0.209
81.84000 4.037
81.86000 7.375
81.88000 5.573
81.90000 5.222
81.92000 5.299
81.94000 5.929
81.96000 2.870
81.98000 0.175
82.00000 3.633
82.02000 3.842
82.04000 4.419
82.06000 3.340
82.08000 3.716
82.10000 -0.175
82.12000 -0.699
82.14000 2.900
82.16000 2.269
82.18000 6.756
82.20000 10.179
82.22000 5.900
82.24000 4.557
82.26000 5.566
82.28000 4.358
82.30000 7.478
82.32000 8.825
82.34000 4.914
82.36000 5.436
82.38000 9.420
82.40000 5.383
82.42000 8.903
82.44000 2.028
82.46000 -1.327
82.48000 2.957
82.50000 7.129
82.52000 5.555
82.54000 12.158
82.56000 12.138
82.58000 9.846
82.60000 7.757
82.62000 4.426
82.64000 7.931
82.66000 9.934
82.68000 7.609
82.70000 10.935
82.72000 11.680
82.74000 14.977
82.76000 14.234
82.78000 13.615
82.80000 12.801
82.82000 10.598
82.84000 10.729
82.86000 14.722
82.88000 18.150
82.90000 13.866
82.92000 13.615
82.94000 13.276
82.96000 15.593
82.98000 17.023
83.00000 22.434
83.02000 19.132
83.04000 14.677
83.06000 18.648
83.08000 14.325
83.10000 17.399
83.12000 16.525
83.14000 13.383
83.16000 19.318
83.18000 24.499
83.20000 22.123
83.22000 16.743
83.24000 18.701
83.26000 22.547
83.28000 13.587
83.30000 15.535
83.32000 26.153
83.34000 24.306
83.36000 23.888
83.38000 22.737
83.40000 25.454
83.42000 26.321
83.44000 24.146
83.46000 17.669
83.48000 20.776
83.50000 28.204
83.52000 26.877
83.54000 29.627
83.56000 27.910
83.58000 28.416
83.60000 28.632
83.62000 25.430
83.64000 28.664
83.66000 27.250
83.68000 24.980
83.70000 28.243
83.72000 24.383
83.74000 26.264
83.76000 24.349
83.78000 25.986
83.80000 24.607
83.82000 25.050
83.84000 17.025
83.86000 21.976
83.88000 21.073
83.90000 23.192
83.92000 28.060
83.94000 21.905
83.96000 19.072
83.98000 25.884
84.00000 21.084
84.02000 17.708
84.04000 20.517
84.06000 20.412
84.08000 22.547
84.10000 15.666
84.12000 15.564
84.14000 19.720
84.16000 26.014
84.18000 20.952
84.20000 21.312
84.22000 20.286
84.24000 16.042
84.26000 14.169
84.28000 11.775
84.30000 13.851
84.32000 16.976
84.34000 16.480
84.36000 11.749
84.38000 12.977
84.40000 14.195
84.42000 10.954
84.44000 11.276
84.46000 13.745
84.48000 15.358
84.50000 9.136
84.52000 8.814
84.54000 6.975
84.56000 9.456
84.58000 11.958
84.60000 8.081
84.62000 8.202
84.64000 8.173
84.66000 10.359
84.68000 12.436
84.70000 12.973
84.72000 11.048
84.74000 8.122
84.76000 5.327
84.78000 9.881
84.80000 6.961
84.82000 4.280
84.84000 5.802
84.86000 6.762
84.88000 6.411
84.90000 7.618
84.92000 12.401
84.94000 11.798
84.96000 6.862
84.98000 10.668
85.00000 6.078
85.02000 3.659
85.04000 2.959
85.06000 6.014
85.08000 8.194
85.10000 2.411
85.12000 6.909
85.14000 3.233
85.16000 1.099
85.18000 -2.367
85.20000 4.494
85.22000 7.498
85.24000 8.028
85.26000 6.943
85.28000 2.139
85.30000 5.639
85.32000 3.006
85.34000 4.757
85.36000 7.270
85.38000 5.154
85.40000 5.339
85.42000 4.852
85.44000 3.390
85.46000 -1.480
85.48000 4.524
85.50000 7.006
85.52000 1.405
85.54000 0.974
85.56000 0.536
85.58000 3.658
85.60000 2.521
85.62000 1.873
85.64000 3.385
85.66000 2.990
85.68000 4.823
85.70000 5.270
85.72000 6.404
85.74000 4.247
85.76000 6.259
85.78000 2.341
85.80000 4.244
85.82000 1.815
85.84000 3.050
85.86000 9.724
85.88000 3.648
85.90000 -2.352
85.92000 4.885
85.94000 7.460
85.96000 4.743
85.98000 6.048
86.00000 5.835
86.02000 -0.155
86.04000 0.383
86.06000 -1.245
86.08000 1.433
86.10000 2.655
86.12000 2.748
86.14000 3.484
86.16000 2.836
86.18000 0.425
86.20000 1.420
86.22000 4.855
86.24000 -0.324
86.26000 2.790
86.28000 0.837
86.30000 -2.360
86.32000 1.272
86.34000 0.523
86.36000 -1.200
86.38000 -0.526
86.40000 2.333
86.42000 6.649
86.44000 4.510
86.46000 2.016
86.48000 5.533
86.50000 7.920
86.52000 8.476
86.54000 2.972
86.56000 2.954
86.58000 6.133
86.60000 4.818
86.62000 4.093
86.64000 7.071
86.66000 3.764
86.68000 3.680
86.70000 4.531
86.72000 -1.156
86.74000 3.189
86.76000 2.275
86.78000 2.538
86.80000 2.604
86.82000 4.259
86.84000 3.397
86.86000 2.120
86.88000 3.371
86.90000 2.501
86.92000 2.868
86.94000 3.260
86.96000 2.656
86.98000 8.361
87.00000 2.188
87.02000 4.025
87.04000 5.068
87.06000 6.694
87.08000 5.803
87.10000 8.058
87.12000 7.967
87.14000 12.941
87.16000 8.936
87.18000 5.833
87.20000 7.351
87.22000 9.496
87.24000 9.169
87.26000 12.200
87.28000 8.575
87.30000 3.066
87.32000 8.331
87.34000 8.639
87.36000 9.679
87.38000 8.274
87.40000 12.188
87.42000 12.954
87.44000 11.569
87.46000 13.738
87.48000 13.430
87.50000 14.161
87.52000 15.696
87.54000 13.654
87.56000 12.561
87.58000 10.462
87.60000 11.267
87.62000 11.471
87.64000 16.642
87.66000 17.492
87.68000 17.869
87.70000 17.428
87.72000 14.398
87.74000 18.989
87.76000 21.995
87.78000 21.397
87.80000 16.894
87.82000 16.639
87.84000 19.183
87.86000 20.010
87.88000 16.093
87.90000 18.668
87.92000 19.444
87.94000 21.711
87.96000 21.294
87.98000 17.228
88.00000 21.150
88.02000 22.139
88.04000 22.628
88.06000 24.737
88.08000 21.551
88.10000 10.502
88.12000 18.509
88.14000 26.528
88.16000 30.711
88.18000 23.249
88.20000 20.503
88.22000 26.640
88.24000 23.410
88.26000 16.847
88.28000 17.501
88.30000 23.489
88.32000 20.674
88.34000 20.656
88.36000 16.432
88.38000 14.913
88.40000 20.672
88.42000 16.222
88.44000 12.288
88.46000 11.035
88.48000 16.729
88.50000 20.577
88.52000 15.531
88.54000 14.998
88.56000 18.819
88.58000 15.793
88.60000 11.853
88.62000 20.323
88.64000 19.538
88.66000 11.583
88.68000 8.309
88.70000 11.198
88.72000 14.972
88.74000 15.401
88.76000 13.333
88.78000 14.092
88.80000 13.548
88.82000 9.825
88.84000 12.199
88.86000 13.031
88.88000 11.996
88.90000 8.588
88.92000 10.556
88.94000 12.996
88.96000 9.072
88.98000 6.312
89.00000 4.880
89.02000 6.487
89.04000 9.345
89.06000 5.061
89.08000 4.449
89.10000 -1.494
89.12000 -0.009
89.14000 -0.832
89.16000 1.041
89.18000 9.434
89.20000 8.752
89.22000 1.181
89.24000 6.874
89.26000 8.440
89.28000 4.601
89.30000 5.710
89.32000 9.283
89.34000 7.521
89.36000 7.350
89.38000 3.659
89.40000 2.988
89.42000 0.313
89.44000 -1.004
89.46000 -1.276
89.48000 -2.352
89.50000 -1.290
89.52000 2.002
89.54000 3.938
89.56000 4.672
89.58000 -1.511
89.60000 2.096
89.62000 4.699
89.64000 3.946
89.66000 -1.155
89.68000 0.462
89.70000 2.384
89.72000 0.850
89.74000 0.870
89.76000 2.351
89.78000 2.598
89.80000 0.799
89.82000 1.467
89.84000 2.386
89.86000 3.577
89.88000 6.435
89.90000 1.859
89.92000 0.031
89.94000 0.625
89.96000 0.864
89.98000 0.761
90.00000 2.634
90.02000 3.579
90.04000 1.964
90.06000 1.964
90.08000 3.422
90.10000 2.451
90.12000 5.369
90.14000 2.625
90.16000 -1.561
90.18000 -0.444
90.20000 2.438
90.22000 -1.892
90.24000 -2.184
90.26000 0.436
90.28000 1.841
90.30000 1.001
90.32000 -0.757
90.34000 0.849
90.36000 7.739
90.38000 7.226
90.40000 5.496
90.42000 3.485
90.44000 1.900
90.46000 4.133
90.48000 0.869
90.50000 -1.622
90.52000 -2.227
90.54000 -1.656
90.56000 2.255
90.58000 -0.866
90.60000 -0.404
90.62000 1.572
90.64000 3.875
90.66000 5.515
90.68000 6.894
90.70000 5.770
90.72000 5.396
90.74000 2.253
90.76000 -0.354
90.78000 3.372
90.80000 1.628
90.82000 1.248
90.84000 2.803
90.86000 1.478
90.88000 5.134
90.90000 5.217
90.92000 6.360
90.94000 2.188
90.96000 5.848
90.98000 6.429
91.00000 3.393
91.02000 4.516
91.04000 3.345
91.06000 -0.616
91.08000 -2.176
91.10000 4.819
91.12000 5.988
91.14000 2.415
91.16000 3.692
91.18000 10.614
91.20000 4.033
91.22000 1.872
91.24000 2.389
91.26000 2.489
91.28000 2.928
91.30000 7.258
91.32000 11.715
91.34000 7.278
91.36000 3.800
91.38000 3.750
91.40000 6.945
91.42000 6.756
91.44000 3.917
91.46000 4.319
91.48000 6.282
91.50000 5.446
91.52000 6.836
91.54000 3.823
91.56000 -1.918
91.58000 -1.638
91.60000 -0.235
91.62000 3.338
91.64000 7.097
91.66000 7.740
91.68000 5.353
91.70000 4.058
91.72000 1.447
91.74000 0.963
91.76000 0.715
91.78000 -1.845
91.80000 1.480
91.82000 6.030
91.84000 4.976
91.86000 5.079
91.88000 4.391
91.90000 3.147
91.92000 1.463
91.94000 1.464
91.96000 -0.904
91.98000 0.457
92.00000 -0.906
92.02000 -1.037
92.04000 2.928
92.06000 7.706
92.08000 9.336
92.10000 6.150
92.12000 7.804
92.14000 5.284
92.16000 7.141
92.18000 0.222
92.20000 -1.849
92.22000 1.908
92.24000 3.755
92.26000 3.455
92.28000 0.909
92.30000 2.466
92.32000 6.078
92.34000 7.223
92.36000 2.661
92.38000 3.581
92.40000 4.120
92.42000 7.357
92.44000 4.273
92.46000 3.509
92.48000 6.597
92.50000 4.912
92.52000 8.859
92.54000 6.676
92.56000 5.431
92.58000 4.782
92.60000 2.014
92.62000 3.745
92.64000 1.415
92.66000 3.119
92.68000 5.839
92.70000 4.531
92.72000 6.039
92.74000 4.783
92.76000 8.473
92.78000 6.693
92.80000 2.513
92.82000 -1.906
92.84000 5.329
92.86000 8.322
92.88000 3.180
92.90000 7.173
92.92000 9.867
92.94000 8.801
92.96000 6.398
92.98000 7.808
93.00000 7.569
93.02000 6.955
93.04000 1.552
93.06000 -2.128
93.08000 4.299
93.10000 15.663
93.12000 11.904
93.14000 7.500
93.16000 5.641
93.18000 4.351
93.20000 8.211
93.22000 8.608
93.24000 6.061
93.26000 7.969
93.28000 8.011
93.30000 3.460
93.32000 2.276
93.34000 9.619
93.36000 8.241
93.38000 3.542
93.40000 6.243
93.42000 5.137
93.44000 6.628
93.46000 6.344
93.48000 5.126
93.50000 0.915
93.52000 8.112
93.54000 11.474
93.56000 8.737
93.58000 4.951
93.60000 2.199
93.62000 1.805
93.64000 1.500
93.66000 2.888
93.68000 6.842
93.70000 3.499
93.72000 2.531
93.74000 5.664
93.76000 3.466
93.78000 -1.412
93.80000 0.552
93.82000 3.554
93.84000 1.302
93.86000 1.227
93.88000 0.618
93.90000 5.345
93.92000 0.552
93.94000 0.702
93.96000 6.940
93.98000 6.651
94.00000 2.201
94.02000 1.067
94.04000 4.372
94.06000 7.940
94.08000 1.399
94.10000 2.730
94.12000 0.938
94.14000 -0.027
94.16000 -0.261
94.18000 2.266
94.20000 1.001
94.22000 0.843
94.24000 2.755
94.26000 -0.184
94.28000 -0.800
94.30000 2.027
94.32000 8.816
94.34000 4.417
94.36000 -0.536
94.38000 3.486
94.40000 2.962
94.42000 5.969
94.44000 5.116
94.46000 -2.126
94.48000 -0.976
94.50000 3.276
94.52000 2.321
94.54000 0.428
94.56000 -0.580
94.58000 3.075
94.60000 4.540
94.62000 6.775
94.64000 5.904
94.66000 5.329
94.68000 9.447
94.70000 10.783
94.72000 10.345
94.74000 4.561
94.76000 0.007
94.78000 2.415
94.80000 5.320
94.82000 2.086
94.84000 3.195
94.86000 2.764
94.88000 -0.770
94.90000 -0.788
94.92000 1.574
94.94000 4.275
94.96000 4.462
94.98000 0.519
95.00000 -0.680
95.02000 2.519
95.04000 2.906
95.06000 6.818
95.08000 2.626
95.10000 2.650
95.12000 1.304
95.14000 1.012
95.16000 3.468
95.18000 4.253
95.20000 3.562
95.22000 7.638
95.24000 6.105
95.26000 11.856
95.28000 5.951
95.30000 5.527
95.32000 8.394
95.34000 9.842
95.36000 5.067
95.38000 -0.963
95.40000 1.798
95.42000 4.169
95.44000 9.373
95.46000 6.566
95.48000 0.869
95.50000 2.678
95.52000 4.121
95.54000 1.971
95.56000 6.522
95.58000 3.249
95.60000 5.305
95.62000 2.590
95.64000 1.125
95.66000 5.536
95.68000 6.798
95.70000 2.669
95.72000 8.027
95.74000 10.067
95.76000 9.871
95.78000 11.156
95.80000 7.543
95.82000 5.100
95.84000 0.496
95.86000 4.781
95.88000 4.076
95.90000 2.410
95.92000 1.559
95.94000 5.522
95.96000 1.687
95.98000 1.103
96.00000 7.127
96.02000 9.532
96.04000 9.497
96.06000 1.515
96.08000 5.049
96.10000 3.507
96.12000 7.574
96.14000 8.764
96.16000 7.024
96.18000 12.845
96.20000 10.753
96.22000 4.915
96.24000 4.653
96.26000 6.847
96.28000 14.873
96.30000 10.324
96.32000 4.056
96.34000 -2.162
96.36000 2.236
96.38000 7.729
96.40000 9.580
96.42000 9.256
96.44000 10.703
96.46000 9.682
96.48000 11.433
96.50000 14.189
96.52000 8.500
96.54000 15.753
96.56000 10.599
96.58000 8.490
96.60000 6.968
96.62000 8.635
96.64000 9.438
96.66000 10.141
96.68000 9.210
96.70000 10.148
96.72000 9.716
96.74000 8.678
96.76000 5.502
96.78000 4.738
96.80000 3.291
96.82000 5.224
96.84000 3.575
96.86000 4.417
96.88000 8.494
96.90000 7.369
96.92000 7.787
96.94000 3.287
96.96000 5.494
96.98000 4.753
97.00000 6.735
97.02000 11.287
97.04000 13.119
97.06000 9.612
97.08000 8.586
97.10000 8.701
97.12000 3.207
97.14000 6.871
97.16000 8.561
97.18000 7.084
97.20000 5.080
97.22000 8.722
97.24000 9.289
97.26000 8.786
97.28000 0.942
97.30000 1.440
97.32000 1.097
97.34000 5.237
97.36000 3.892
97.38000 9.670
97.40000 13.020
97.42000 9.677
97.44000 1.468
97.46000 4.211
97.48000 -2.192
97.50000 2.852
97.52000 5.423
97.54000 5.141
97.56000 0.972
97.58000 1.790
97.60000 7.961
97.62000 3.492
97.64000 0.819
97.66000 1.927
97.68000 7.474
97.70000 4.085
97.72000 5.373
97.74000 -0.479
97.76000 0.065
97.78000 7.973
97.80000 4.933
97.82000 4.790
97.84000 8.667
97.86000 12.250
97.88000 13.880
97.90000 9.920
97.92000 1.173
97.94000 1.364
97.96000 6.227
97.98000 9.587
98.00000 8.683
98.02000 8.662
98.04000 5.222
98.06000 5.424
98.08000 7.733
98.10000 2.454
98.12000 1.071
98.14000 3.336
98.16000 3.704
98.18000 -2.208
98.20000 0.358
98.22000 14.976
98.24000 3.502
98.26000 5.611
98.28000 2.925
98.30000 3.150
98.32000 3.845
98.34000 13.971
98.36000 6.791
98.38000 1.458
98.40000 0.036
98.42000 1.685
98.44000 -0.659
98.46000 -1.459
98.48000 2.823
98.50000 9.219
98.52000 4.740
98.54000 5.762
98.56000 9.363
98.58000 4.130
98.60000 -0.555
98.62000 11.099
98.64000 11.588
98.66000 7.611
98.68000 1.802
98.70000 5.937
98.72000 6.017
98.74000 6.046
98.76000 2.314
98.78000 9.241
98.80000 6.845
98.82000 3.339
98.84000 4.039
98.86000 6.586
98.88000 7.835
98.90000 -0.059
98.92000 2.596
98.94000 10.846
98.96000 7.146
98.98000 8.985
99.00000 7.548
99.02000 0.150
99.04000 9.043
99.06000 3.994
99.08000 -2.182
99.10000 5.592
99.12000 -2.001
99.14000 3.015
99.16000 1.859
99.18000 -1.437
99.20000 12.528
99.22000 19.826
99.24000 13.585
99.26000 14.075
99.28000 8.256
99.30000 4.037
99.32000 3.333
99.34000 2.530
99.36000 3.718
99.38000 6.825
99.40000 1.982
99.42000 -2.023
99.44000 2.385
99.46000 5.483
99.48000 8.399
99.50000 17.393
99.52000 16.401
99.54000 12.187
99.56000 14.534
99.58000 10.592
99.60000 1.724
99.62000 1.289
99.64000 11.122
99.66000 17.401
99.68000 16.829
99.70000 16.048
99.72000 16.464
99.74000 14.107
99.76000 8.168
99.78000 9.099
99.80000 18.349
99.82000 7.431
99.84000 -2.869
99.86000 2.015
99.88000 1.821
99.90000 11.605
99.92000 12.758
99.94000 -0.360
99.96000 4.854
99.98000 0.000
