'Id: "0011387" Comment: "Integrate frame 0011387_Au-Ir-Rh_Rh-rich_XRD-Mapping-280-0000.gfrmwith cursor Wedge Cursor #5" Operator: "B?rgel" Anode: "Cu" Wavelength: "1.5406" Scantype: "2Theta (TwoTheta)" TimePerStep: "1" X: "-31.5" Y: "27" Z: "5.95" 
10.00000 0.000
10.02000 -4.642
10.04000 -4.581
10.06000 -4.549
10.08000 6.056
10.10000 5.701
10.12000 9.299
10.14000 5.006
10.16000 9.968
10.18000 18.731
10.20000 12.662
10.22000 2.208
10.24000 0.547
10.26000 12.073
10.28000 20.099
10.30000 32.135
10.32000 21.033
10.34000 6.543
10.36000 3.171
10.38000 7.900
10.40000 10.410
10.42000 9.315
10.44000 -0.513
10.46000 10.644
10.48000 13.452
10.50000 22.247
10.52000 9.233
10.54000 9.410
10.56000 12.981
10.58000 14.020
10.60000 29.843
10.62000 27.812
10.64000 15.465
10.66000 19.305
10.68000 23.195
10.70000 16.525
10.72000 8.090
10.74000 9.560
10.76000 9.575
10.78000 22.464
10.80000 -0.279
10.82000 -4.501
10.84000 1.030
10.86000 7.103
10.88000 12.745
10.90000 13.079
10.92000 17.522
10.94000 25.651
10.96000 8.932
10.98000 3.737
11.00000 4.563
11.02000 2.626
11.04000 2.010
11.06000 14.157
11.08000 23.181
11.10000 11.784
11.12000 1.413
11.14000 5.635
11.16000 7.497
11.18000 14.752
11.20000 6.833
11.22000 14.744
11.24000 21.186
11.26000 21.753
11.28000 8.894
11.30000 16.710
11.32000 11.901
11.34000 8.289
11.36000 10.251
11.38000 6.271
11.40000 11.691
11.42000 16.761
11.44000 8.972
11.46000 12.520
11.48000 0.034
11.50000 0.323
11.52000 10.959
11.54000 19.098
11.56000 18.528
11.58000 14.971
11.60000 18.934
11.62000 12.124
11.64000 5.613
11.66000 -2.714
11.68000 4.093
11.70000 15.864
11.72000 8.393
11.74000 11.172
11.76000 25.650
11.78000 16.264
11.80000 5.479
11.82000 6.853
11.84000 -4.504
11.86000 0.712
11.88000 -2.007
11.90000 0.933
11.92000 10.270
11.94000 9.570
11.96000 15.594
11.98000 10.920
12.00000 16.973
12.02000 16.299
12.04000 11.805
12.06000 19.754
12.08000 19.928
12.10000 21.194
12.12000 19.427
12.14000 17.037
12.16000 13.103
12.18000 8.899
12.20000 9.996
12.22000 7.421
12.24000 9.330
12.26000 10.075
12.28000 9.108
12.30000 -1.208
12.32000 -3.356
12.34000 11.052
12.36000 21.918
12.38000 17.796
12.40000 14.529
12.42000 8.311
12.44000 10.622
12.46000 12.098
12.48000 4.976
12.50000 9.384
12.52000 14.102
12.54000 18.258
12.56000 14.098
12.58000 10.412
12.60000 15.011
12.62000 14.523
12.64000 17.683
12.66000 13.942
12.68000 14.893
12.70000 7.166
12.72000 17.865
12.74000 19.535
12.76000 16.220
12.78000 16.537
12.80000 10.902
12.82000 13.373
12.84000 18.272
12.86000 10.957
12.88000 -1.386
12.90000 9.166
12.92000 12.006
12.94000 10.248
12.96000 15.016
12.98000 6.682
13.00000 -1.425
13.02000 -0.454
13.04000 6.490
13.06000 8.426
13.08000 13.276
13.10000 11.835
13.12000 12.940
13.14000 13.151
13.16000 7.756
13.18000 6.943
13.20000 12.281
13.22000 8.476
13.24000 15.867
13.26000 14.179
13.28000 10.451
13.30000 10.063
13.32000 1.994
13.34000 10.097
13.36000 4.966
13.38000 9.885
13.40000 13.391
13.42000 10.788
13.44000 5.693
13.46000 2.982
13.48000 -4.528
13.50000 1.805
13.52000 5.579
13.54000 15.419
13.56000 13.820
13.58000 14.829
13.60000 8.147
13.62000 9.085
13.64000 11.334
13.66000 11.439
13.68000 21.867
13.70000 19.368
13.72000 -0.912
13.74000 -1.024
13.76000 14.829
13.78000 6.699
13.80000 9.104
13.82000 11.808
13.84000 6.448
13.86000 8.386
13.88000 8.624
13.90000 6.079
13.92000 3.959
13.94000 2.006
13.96000 3.006
13.98000 5.317
14.00000 13.653
14.02000 12.483
14.04000 6.090
14.06000 7.271
14.08000 6.583
14.10000 11.335
14.12000 14.033
14.14000 -1.795
14.16000 -0.231
14.18000 7.534
14.20000 6.281
14.22000 4.890
14.24000 5.903
14.26000 13.967
14.28000 8.550
14.30000 -0.823
14.32000 0.290
14.34000 2.805
14.36000 3.761
14.38000 1.888
14.40000 -2.030
14.42000 -1.918
14.44000 5.123
14.46000 8.337
14.48000 6.922
14.50000 7.259
14.52000 6.542
14.54000 0.670
14.56000 -1.038
14.58000 12.606
14.60000 7.844
14.62000 4.925
14.64000 8.754
14.66000 4.267
14.68000 -2.369
14.70000 -2.983
14.72000 9.216
14.74000 7.957
14.76000 4.589
14.78000 9.522
14.80000 11.433
14.82000 11.738
14.84000 -0.118
14.86000 3.106
14.88000 -1.656
14.90000 3.019
14.92000 4.214
14.94000 6.425
14.96000 0.129
14.98000 8.869
15.00000 3.348
15.02000 3.488
15.04000 5.013
15.06000 8.176
15.08000 6.301
15.10000 5.246
15.12000 7.268
15.14000 7.684
15.16000 8.180
15.18000 9.614
15.20000 7.903
15.22000 7.952
15.24000 0.105
15.26000 1.509
15.28000 1.468
15.30000 5.701
15.32000 -0.220
15.34000 4.299
15.36000 7.664
15.38000 6.587
15.40000 -3.208
15.42000 7.613
15.44000 13.509
15.46000 7.697
15.48000 8.399
15.50000 15.991
15.52000 16.071
15.54000 1.931
15.56000 5.530
15.58000 9.657
15.60000 21.811
15.62000 15.617
15.64000 3.968
15.66000 8.079
15.68000 15.063
15.70000 12.185
15.72000 12.623
15.74000 7.558
15.76000 2.554
15.78000 0.873
15.80000 2.880
15.82000 6.017
15.84000 3.516
15.86000 2.749
15.88000 6.817
15.90000 9.490
15.92000 3.644
15.94000 -1.069
15.96000 0.589
15.98000 -4.427
16.00000 -1.440
16.02000 14.784
16.04000 14.853
16.06000 9.093
16.08000 12.694
16.10000 4.760
16.12000 9.042
16.14000 5.686
16.16000 7.192
16.18000 9.384
16.20000 6.641
16.22000 5.069
16.24000 -2.772
16.26000 0.829
16.28000 0.345
16.30000 -2.121
16.32000 4.386
16.34000 5.054
16.36000 13.966
16.38000 5.431
16.40000 7.951
16.42000 13.590
16.44000 10.380
16.46000 4.929
16.48000 3.804
16.50000 7.194
16.52000 13.016
16.54000 2.734
16.56000 7.898
16.58000 7.528
16.60000 4.477
16.62000 5.088
16.64000 5.018
16.66000 2.892
16.68000 10.804
16.70000 7.620
16.72000 10.848
16.74000 9.914
16.76000 3.103
16.78000 7.109
16.80000 11.229
16.82000 12.488
16.84000 15.245
16.86000 11.653
16.88000 9.410
16.90000 1.895
16.92000 2.853
16.94000 2.999
16.96000 5.477
16.98000 9.551
17.00000 2.738
17.02000 3.685
17.04000 4.902
17.06000 5.362
17.08000 1.574
17.10000 8.085
17.12000 9.306
17.14000 3.709
17.16000 4.311
17.18000 4.311
17.20000 7.681
17.22000 -4.379
17.24000 -2.313
17.26000 7.423
17.28000 3.540
17.30000 4.955
17.32000 8.169
17.34000 4.209
17.36000 7.050
17.38000 5.346
17.40000 9.308
17.42000 6.543
17.44000 3.422
17.46000 11.575
17.48000 8.239
17.50000 -3.819
17.52000 -2.218
17.54000 6.402
17.56000 7.717
17.58000 5.077
17.60000 9.301
17.62000 -0.309
17.64000 -3.149
17.66000 -4.368
17.68000 1.183
17.70000 -3.992
17.72000 -2.796
17.74000 5.678
17.76000 9.568
17.78000 2.642
17.80000 3.848
17.82000 4.618
17.84000 5.642
17.86000 7.703
17.88000 1.346
17.90000 -0.326
17.92000 2.146
17.94000 0.742
17.96000 4.317
17.98000 3.974
18.00000 6.926
18.02000 8.661
18.04000 2.681
18.06000 6.632
18.08000 7.625
18.10000 3.244
18.12000 0.924
18.14000 5.295
18.16000 0.843
18.18000 4.570
18.20000 10.252
18.22000 10.782
18.24000 13.772
18.26000 15.352
18.28000 5.580
18.30000 10.143
18.32000 11.672
18.34000 7.335
18.36000 4.512
18.38000 6.844
18.40000 7.847
18.42000 6.414
18.44000 7.153
18.46000 8.339
18.48000 2.584
18.50000 1.805
18.52000 5.543
18.54000 7.757
18.56000 6.089
18.58000 2.848
18.60000 7.678
18.62000 5.828
18.64000 8.662
18.66000 8.265
18.68000 2.191
18.70000 3.769
18.72000 2.318
18.74000 -0.807
18.76000 -0.208
18.78000 10.621
18.80000 8.958
18.82000 3.992
18.84000 2.381
18.86000 -0.562
18.88000 4.177
18.90000 8.494
18.92000 6.233
18.94000 5.645
18.96000 2.090
18.98000 -1.312
19.00000 0.812
19.02000 -2.428
19.04000 -1.522
19.06000 -0.842
19.08000 5.644
19.10000 3.095
19.12000 2.833
19.14000 8.229
19.16000 5.827
19.18000 11.757
19.20000 14.365
19.22000 11.555
19.24000 9.949
19.26000 12.037
19.28000 10.969
19.30000 8.930
19.32000 10.850
19.34000 4.596
19.36000 5.007
19.38000 3.572
19.40000 5.093
19.42000 2.637
19.44000 -4.234
19.46000 -2.497
19.48000 3.658
19.50000 9.546
19.52000 5.210
19.54000 13.902
19.56000 13.738
19.58000 12.133
19.60000 7.338
19.62000 4.576
19.64000 9.137
19.66000 12.630
19.68000 6.495
19.70000 -1.886
19.72000 6.898
19.74000 11.906
19.76000 9.624
19.78000 1.709
19.80000 5.671
19.82000 7.089
19.84000 -0.333
19.86000 4.507
19.88000 11.457
19.90000 5.844
19.92000 0.929
19.94000 4.506
19.96000 3.812
19.98000 2.046
20.00000 7.351
20.02000 3.970
20.04000 5.733
20.06000 2.235
20.08000 -3.478
20.10000 -0.793
20.12000 4.576
20.14000 3.859
20.16000 -4.214
20.18000 -1.914
20.20000 2.231
20.22000 4.811
20.24000 11.723
20.26000 8.537
20.28000 4.685
20.30000 0.325
20.32000 4.521
20.34000 8.498
20.36000 1.644
20.38000 9.199
20.40000 8.624
20.42000 2.784
20.44000 1.104
20.46000 4.072
20.48000 5.357
20.50000 9.935
20.52000 7.880
20.54000 3.353
20.56000 5.212
20.58000 2.301
20.60000 3.267
20.62000 0.114
20.64000 8.394
20.66000 11.598
20.68000 5.238
20.70000 7.441
20.72000 6.154
20.74000 5.403
20.76000 3.028
20.78000 1.900
20.80000 5.259
20.82000 2.995
20.84000 -1.169
20.86000 6.636
20.88000 3.024
20.90000 -1.415
20.92000 -3.611
20.94000 -0.377
20.96000 5.413
20.98000 11.143
21.00000 2.958
21.02000 2.387
21.04000 1.772
21.06000 -3.702
21.08000 -2.096
21.10000 -3.194
21.12000 5.066
21.14000 6.073
21.16000 3.722
21.18000 -0.471
21.20000 -3.324
21.22000 3.987
21.24000 8.929
21.26000 8.150
21.28000 14.504
21.30000 9.216
21.32000 6.552
21.34000 3.616
21.36000 4.514
21.38000 4.432
21.40000 4.083
21.42000 8.794
21.44000 5.185
21.46000 5.255
21.48000 -4.148
21.50000 3.702
21.52000 0.796
21.54000 3.886
21.56000 7.914
21.58000 2.745
21.60000 -0.102
21.62000 8.567
21.64000 5.668
21.66000 6.344
21.68000 1.740
21.70000 -1.275
21.72000 2.495
21.74000 0.263
21.76000 4.932
21.78000 6.472
21.80000 7.270
21.82000 6.099
21.84000 0.891
21.86000 3.314
21.88000 7.109
21.90000 -2.256
21.92000 -1.368
21.94000 -2.150
21.96000 -0.518
21.98000 3.111
22.00000 -1.095
22.02000 2.963
22.04000 6.575
22.06000 2.820
22.08000 4.784
22.10000 6.528
22.12000 9.640
22.14000 6.565
22.16000 7.347
22.18000 8.113
22.20000 -0.531
22.22000 2.016
22.24000 2.896
22.26000 0.607
22.28000 2.933
22.30000 1.340
22.32000 0.042
22.34000 2.437
22.36000 4.004
22.38000 3.925
22.40000 9.687
22.42000 4.505
22.44000 4.332
22.46000 3.259
22.48000 2.324
22.50000 2.007
22.52000 4.344
22.54000 2.577
22.56000 1.014
22.58000 5.581
22.60000 3.027
22.62000 -1.086
22.64000 -3.805
22.66000 -4.089
22.68000 -0.176
22.70000 7.223
22.72000 5.696
22.74000 7.383
22.76000 4.462
22.78000 3.189
22.80000 5.218
22.82000 7.847
22.84000 -0.610
22.86000 5.248
22.88000 2.644
22.90000 3.652
22.92000 1.198
22.94000 3.255
22.96000 6.944
22.98000 6.262
23.00000 6.909
23.02000 9.067
23.04000 10.781
23.06000 9.290
23.08000 1.588
23.10000 6.376
23.12000 6.606
23.14000 6.880
23.16000 4.492
23.18000 1.854
23.20000 0.010
23.22000 5.454
23.24000 2.706
23.26000 0.490
23.28000 -1.012
23.30000 1.285
23.32000 3.922
23.34000 5.867
23.36000 5.607
23.38000 4.552
23.40000 6.349
23.42000 6.934
23.44000 6.986
23.46000 0.051
23.48000 3.078
23.50000 5.090
23.52000 4.069
23.54000 5.582
23.56000 2.970
23.58000 3.376
23.60000 6.167
23.62000 7.489
23.64000 8.614
23.66000 0.812
23.68000 0.875
23.70000 -1.206
23.72000 4.065
23.74000 4.302
23.76000 10.547
23.78000 6.584
23.80000 7.151
23.82000 4.877
23.84000 5.454
23.86000 -4.000
23.88000 -1.577
23.90000 0.550
23.92000 7.410
23.94000 10.438
23.96000 7.338
23.98000 6.433
24.00000 9.697
24.02000 13.712
24.04000 6.598
24.06000 4.742
24.08000 9.162
24.10000 1.174
24.12000 -0.867
24.14000 6.491
24.16000 8.351
24.18000 4.407
24.20000 2.852
24.22000 7.587
24.24000 11.680
24.26000 5.294
24.28000 6.233
24.30000 4.827
24.32000 2.037
24.34000 6.628
24.36000 7.838
24.38000 3.010
24.40000 9.982
24.42000 9.198
24.44000 2.820
24.46000 1.739
24.48000 4.572
24.50000 7.153
24.52000 9.659
24.54000 10.100
24.56000 8.352
24.58000 5.215
24.60000 8.379
24.62000 9.916
24.64000 11.703
24.66000 -0.047
24.68000 -3.912
24.70000 5.508
24.72000 5.161
24.74000 6.653
24.76000 8.028
24.78000 8.000
24.80000 10.296
24.82000 5.846
24.84000 4.396
24.86000 4.971
24.88000 -0.621
24.90000 1.880
24.92000 7.256
24.94000 2.303
24.96000 5.705
24.98000 6.359
25.00000 0.734
25.02000 5.683
25.04000 6.515
25.06000 10.555
25.08000 1.802
25.10000 4.759
25.12000 12.870
25.14000 8.161
25.16000 8.183
25.18000 8.482
25.20000 2.974
25.22000 4.112
25.24000 5.272
25.26000 4.175
25.28000 1.118
25.30000 3.173
25.32000 8.630
25.34000 3.992
25.36000 0.445
25.38000 1.202
25.40000 4.134
25.42000 4.265
25.44000 3.641
25.46000 0.494
25.48000 0.223
25.50000 1.404
25.52000 7.049
25.54000 3.243
25.56000 4.629
25.58000 5.526
25.60000 5.411
25.62000 7.895
25.64000 7.746
25.66000 -2.413
25.68000 -0.632
25.70000 3.586
25.72000 3.238
25.74000 6.287
25.76000 9.942
25.78000 1.109
25.80000 -0.806
25.82000 5.598
25.84000 6.821
25.86000 4.720
25.88000 0.221
25.90000 0.652
25.92000 2.324
25.94000 7.705
25.96000 3.801
25.98000 -1.322
26.00000 0.139
26.02000 5.324
26.04000 6.580
26.06000 3.325
26.08000 3.445
26.10000 0.452
26.12000 -0.273
26.14000 0.671
26.16000 0.956
26.18000 -2.146
26.20000 -2.347
26.22000 2.138
26.24000 3.986
26.26000 -3.907
26.28000 -1.595
26.30000 3.954
26.32000 2.411
26.34000 2.946
26.36000 1.563
26.38000 2.121
26.40000 -3.098
26.42000 -1.444
26.44000 2.746
26.46000 7.309
26.48000 2.974
26.50000 0.351
26.52000 -2.755
26.54000 -3.895
26.56000 -2.784
26.58000 -0.660
26.60000 -2.881
26.62000 -2.283
26.64000 0.909
26.66000 0.824
26.68000 -1.789
26.70000 -2.199
26.72000 0.073
26.74000 2.748
26.76000 -1.043
26.78000 -2.190
26.80000 1.151
26.82000 -0.761
26.84000 -1.864
26.86000 -1.657
26.88000 2.460
26.90000 0.439
26.92000 -3.378
26.94000 1.293
26.96000 4.922
26.98000 5.031
27.00000 5.006
27.02000 4.493
27.04000 3.292
27.06000 4.971
27.08000 3.668
27.10000 0.033
27.12000 2.819
27.14000 4.545
27.16000 3.529
27.18000 3.451
27.20000 2.052
27.22000 3.142
27.24000 0.918
27.26000 -2.967
27.28000 5.322
27.30000 9.599
27.32000 1.457
27.34000 4.713
27.36000 8.482
27.38000 5.376
27.40000 4.906
27.42000 2.883
27.44000 0.885
27.46000 3.393
27.48000 5.891
27.50000 3.931
27.52000 2.866
27.54000 1.679
27.56000 1.948
27.58000 4.567
27.60000 3.021
27.62000 5.615
27.64000 2.724
27.66000 0.763
27.68000 2.504
27.70000 5.818
27.72000 3.347
27.74000 2.672
27.76000 2.013
27.78000 5.640
27.80000 3.055
27.82000 3.393
27.84000 4.622
27.86000 -3.798
27.88000 -1.157
27.90000 4.088
27.92000 4.613
27.94000 1.129
27.96000 1.607
27.98000 6.194
28.00000 5.944
28.02000 2.040
28.04000 3.016
28.06000 4.329
28.08000 0.110
28.10000 -3.791
28.12000 3.066
28.14000 2.956
28.16000 -1.206
28.18000 0.853
28.20000 4.371
28.22000 6.430
28.24000 9.404
28.26000 6.836
28.28000 11.058
28.30000 8.361
28.32000 4.236
28.34000 4.913
28.36000 1.271
28.38000 3.258
28.40000 8.714
28.42000 6.750
28.44000 2.731
28.46000 2.243
28.48000 1.659
28.50000 2.908
28.52000 4.572
28.54000 7.543
28.56000 9.504
28.58000 3.428
28.60000 2.966
28.62000 0.738
28.64000 -1.519
28.66000 0.562
28.68000 -0.525
28.70000 3.941
28.72000 5.987
28.74000 1.659
28.76000 4.357
28.78000 9.061
28.80000 6.199
28.82000 3.384
28.84000 3.770
28.86000 4.083
28.88000 -0.028
28.90000 0.721
28.92000 -0.234
28.94000 -1.480
28.96000 2.006
28.98000 5.270
29.00000 5.621
29.02000 5.490
29.04000 4.200
29.06000 5.853
29.08000 3.637
29.10000 3.830
29.12000 4.614
29.14000 1.898
29.16000 -2.446
29.18000 -3.608
29.20000 -0.122
29.22000 1.843
29.24000 -1.098
29.26000 -3.731
29.28000 0.235
29.30000 4.820
29.32000 0.512
29.34000 2.686
29.36000 8.014
29.38000 4.873
29.40000 2.249
29.42000 0.836
29.44000 -2.981
29.46000 -1.915
29.48000 -1.442
29.50000 -1.721
29.52000 1.555
29.54000 -1.399
29.56000 0.571
29.58000 1.084
29.60000 2.212
29.62000 5.228
29.64000 1.276
29.66000 0.780
29.68000 2.315
29.70000 -1.340
29.72000 -1.406
29.74000 3.087
29.76000 2.517
29.78000 -1.258
29.80000 -1.744
29.82000 0.102
29.84000 -0.786
29.86000 -0.792
29.88000 -2.141
29.90000 -0.382
29.92000 -3.333
29.94000 -2.920
29.96000 0.729
29.98000 4.024
30.00000 5.510
30.02000 4.927
30.04000 3.498
30.06000 1.389
30.08000 5.025
30.10000 4.855
30.12000 -1.574
30.14000 -1.162
30.16000 2.057
30.18000 -0.214
30.20000 -2.660
30.22000 -3.573
30.24000 0.023
30.26000 -3.687
30.28000 -0.777
30.30000 3.494
30.32000 2.741
30.34000 5.768
30.36000 6.869
30.38000 5.279
30.40000 1.634
30.42000 -1.011
30.44000 1.836
30.46000 3.502
30.48000 3.073
30.50000 1.715
30.52000 -2.860
30.54000 -2.461
30.56000 -3.682
30.58000 -3.158
30.60000 0.822
30.62000 7.004
30.64000 5.801
30.66000 6.364
30.68000 2.584
30.70000 0.198
30.72000 -0.802
30.74000 -1.173
30.76000 -1.219
30.78000 2.245
30.80000 2.438
30.82000 2.762
30.84000 2.076
30.86000 -0.197
30.88000 -0.271
30.90000 3.355
30.92000 -1.744
30.94000 4.909
30.96000 9.540
30.98000 4.536
31.00000 2.546
31.02000 1.316
31.04000 2.355
31.06000 -0.475
31.08000 0.071
31.10000 -1.651
31.12000 -2.228
31.14000 2.091
31.16000 0.678
31.18000 2.470
31.20000 0.763
31.22000 0.628
31.24000 1.995
31.26000 5.152
31.28000 -0.639
31.30000 -0.501
31.32000 2.926
31.34000 4.927
31.36000 2.631
31.38000 -1.349
31.40000 4.856
31.42000 10.678
31.44000 3.829
31.46000 4.145
31.48000 3.281
31.50000 0.242
31.52000 3.665
31.54000 4.163
31.56000 3.677
31.58000 2.967
31.60000 0.574
31.62000 -0.970
31.64000 1.951
31.66000 2.922
31.68000 2.250
31.70000 0.489
31.72000 2.024
31.74000 1.341
31.76000 1.201
31.78000 3.010
31.80000 0.026
31.82000 0.981
31.84000 -3.616
31.86000 5.845
31.88000 5.467
31.90000 4.853
31.92000 6.352
31.94000 6.749
31.96000 1.560
31.98000 2.568
32.00000 3.873
32.02000 -0.507
32.04000 -3.609
32.06000 1.395
32.08000 2.295
32.10000 3.582
32.12000 4.267
32.14000 7.418
32.16000 0.797
32.18000 -1.575
32.20000 -1.731
32.22000 3.965
32.24000 5.146
32.26000 0.401
32.28000 0.898
32.30000 3.683
32.32000 2.810
32.34000 1.280
32.36000 4.975
32.38000 0.164
32.40000 -2.439
32.42000 4.572
32.44000 3.055
32.46000 3.173
32.48000 1.425
32.50000 -3.597
32.52000 -1.483
32.54000 -0.274
32.56000 2.628
32.58000 5.169
32.60000 1.861
32.62000 0.615
32.64000 1.580
32.66000 3.161
32.68000 0.906
32.70000 0.405
32.72000 3.135
32.74000 3.175
32.76000 1.304
32.78000 3.372
32.80000 4.095
32.82000 4.078
32.84000 -1.217
32.86000 0.614
32.88000 2.133
32.90000 -1.063
32.92000 3.888
32.94000 -0.141
32.96000 -2.199
32.98000 0.825
33.00000 4.995
33.02000 1.513
33.04000 -2.122
33.06000 3.201
33.08000 4.777
33.10000 5.245
33.12000 7.326
33.14000 8.203
33.16000 4.251
33.18000 3.540
33.20000 3.798
33.22000 5.434
33.24000 2.232
33.26000 2.909
33.28000 -0.228
33.30000 0.773
33.32000 5.314
33.34000 1.471
33.36000 6.122
33.38000 5.334
33.40000 2.900
33.42000 3.902
33.44000 5.575
33.46000 2.072
33.48000 -1.952
33.50000 -1.391
33.52000 7.544
33.54000 6.429
33.56000 4.690
33.58000 2.426
33.60000 4.522
33.62000 5.866
33.64000 5.018
33.66000 4.239
33.68000 6.129
33.70000 1.729
33.72000 -0.415
33.74000 7.004
33.76000 12.489
33.78000 6.291
33.80000 4.413
33.82000 7.492
33.84000 6.374
33.86000 3.370
33.88000 3.710
33.90000 5.526
33.92000 9.387
33.94000 0.619
33.96000 2.851
33.98000 7.506
34.00000 8.563
34.02000 7.153
34.04000 4.902
34.06000 1.186
34.08000 2.261
34.10000 8.082
34.12000 12.084
34.14000 9.269
34.16000 7.599
34.18000 9.975
34.20000 13.263
34.22000 9.680
34.24000 -0.492
34.26000 -3.525
34.28000 0.445
34.30000 2.810
34.32000 3.247
34.34000 6.036
34.36000 7.975
34.38000 7.165
34.40000 3.887
34.42000 2.257
34.44000 4.019
34.46000 5.392
34.48000 -1.054
34.50000 -2.719
34.52000 -2.515
34.54000 -1.393
34.56000 5.385
34.58000 1.709
34.60000 3.113
34.62000 9.564
34.64000 12.158
34.66000 10.515
34.68000 12.322
34.70000 3.277
34.72000 -0.905
34.74000 3.023
34.76000 9.554
34.78000 8.872
34.80000 3.990
34.82000 -1.139
34.84000 1.588
34.86000 3.675
34.88000 5.756
34.90000 4.422
34.92000 3.416
34.94000 0.317
34.96000 0.367
34.98000 1.305
35.00000 0.886
35.02000 3.761
35.04000 3.698
35.06000 3.007
35.08000 1.611
35.10000 1.928
35.12000 3.814
35.14000 -0.345
35.16000 0.606
35.18000 1.514
35.20000 1.722
35.22000 3.473
35.24000 -0.683
35.26000 -0.616
35.28000 3.139
35.30000 8.064
35.32000 3.272
35.34000 -0.422
35.36000 -1.053
35.38000 1.088
35.40000 2.247
35.42000 5.815
35.44000 0.113
35.46000 3.586
35.48000 5.297
35.50000 0.634
35.52000 -0.891
35.54000 -2.478
35.56000 -0.094
35.58000 -2.436
35.60000 4.523
35.62000 7.521
35.64000 4.783
35.66000 0.464
35.68000 2.870
35.70000 1.819
35.72000 1.381
35.74000 0.979
35.76000 2.934
35.78000 0.633
35.80000 -3.544
35.82000 -1.169
35.84000 -0.063
35.86000 5.802
35.88000 5.036
35.90000 4.575
35.92000 5.708
35.94000 6.618
35.96000 1.876
35.98000 -1.551
36.00000 1.270
36.02000 4.482
36.04000 0.675
36.06000 -1.440
36.08000 -3.541
36.10000 -0.026
36.12000 7.566
36.14000 2.927
36.16000 2.881
36.18000 1.039
36.20000 -2.698
36.22000 -2.776
36.24000 0.648
36.26000 4.426
36.28000 4.758
36.30000 2.325
36.32000 2.556
36.34000 6.511
36.36000 6.761
36.38000 -0.906
36.40000 -1.013
36.42000 -2.239
36.44000 1.900
36.46000 3.133
36.48000 6.835
36.50000 5.884
36.52000 3.327
36.54000 1.750
36.56000 1.987
36.58000 0.202
36.60000 0.535
36.62000 -0.774
36.64000 -2.969
36.66000 -0.760
36.68000 -1.290
36.70000 -2.224
36.72000 -0.984
36.74000 1.835
36.76000 0.466
36.78000 -1.415
36.80000 -0.815
36.82000 0.982
36.84000 4.420
36.86000 3.665
36.88000 0.650
36.90000 -1.452
36.92000 1.570
36.94000 0.862
36.96000 -1.504
36.98000 -2.447
37.00000 0.753
37.02000 -0.497
37.04000 -3.645
37.06000 -1.055
37.08000 2.158
37.10000 -0.371
37.12000 0.551
37.14000 2.159
37.16000 2.292
37.18000 2.655
37.20000 4.266
37.22000 1.772
37.24000 -2.276
37.26000 0.622
37.28000 4.056
37.30000 0.079
37.32000 0.730
37.34000 7.653
37.36000 5.683
37.38000 -2.435
37.40000 -2.721
37.42000 0.396
37.44000 -0.337
37.46000 0.912
37.48000 1.120
37.50000 5.228
37.52000 0.456
37.54000 7.040
37.56000 6.553
37.58000 5.844
37.60000 5.668
37.62000 3.477
37.64000 1.042
37.66000 -0.800
37.68000 1.603
37.70000 5.209
37.72000 3.967
37.74000 9.238
37.76000 10.707
37.78000 13.555
37.80000 13.631
37.82000 10.187
37.84000 11.768
37.86000 11.407
37.88000 12.355
37.90000 11.507
37.92000 9.622
37.94000 10.184
37.96000 13.048
37.98000 18.192
38.00000 15.105
38.02000 11.898
38.04000 12.405
38.06000 16.384
38.08000 16.950
38.10000 17.781
38.12000 19.871
38.14000 17.104
38.16000 20.656
38.18000 22.664
38.20000 22.477
38.22000 25.870
38.24000 23.784
38.26000 29.495
38.28000 30.354
38.30000 30.568
38.32000 24.628
38.34000 33.909
38.36000 39.234
38.38000 35.572
38.40000 34.610
38.42000 35.766
38.44000 36.682
38.46000 35.935
38.48000 36.659
38.50000 41.798
38.52000 43.611
38.54000 42.021
38.56000 45.001
38.58000 48.601
38.60000 54.851
38.62000 54.221
38.64000 57.484
38.66000 59.729
38.68000 57.497
38.70000 62.104
38.72000 70.242
38.74000 70.260
38.76000 72.049
38.78000 68.535
38.80000 72.576
38.82000 82.054
38.84000 82.383
38.86000 79.660
38.88000 84.731
38.90000 85.433
38.92000 96.275
38.94000 102.642
38.96000 104.067
38.98000 105.641
39.00000 108.203
39.02000 110.499
39.04000 112.123
39.06000 121.279
39.08000 127.287
39.10000 134.784
39.12000 146.678
39.14000 151.743
39.16000 161.089
39.18000 165.157
39.20000 171.436
39.22000 185.247
39.24000 197.499
39.26000 202.183
39.28000 213.472
39.30000 219.301
39.32000 228.362
39.34000 238.431
39.36000 246.708
39.38000 263.370
39.40000 275.552
39.42000 289.699
39.44000 313.035
39.46000 325.702
39.48000 339.886
39.50000 355.940
39.52000 381.460
39.54000 400.543
39.56000 414.566
39.58000 431.342
39.60000 468.761
39.62000 497.109
39.64000 516.531
39.66000 526.639
39.68000 546.203
39.70000 568.953
39.72000 599.612
39.74000 621.906
39.76000 644.496
39.78000 663.461
39.80000 692.039
39.82000 715.714
39.84000 740.331
39.86000 766.614
39.88000 775.979
39.90000 790.081
39.92000 802.315
39.94000 811.427
39.96000 808.391
39.98000 828.947
40.00000 832.478
40.02000 827.982
40.04000 827.069
40.06000 820.921
40.08000 811.725
40.10000 811.484
40.12000 806.516
40.14000 790.734
40.16000 767.809
40.18000 749.033
40.20000 729.770
40.22000 708.770
40.24000 691.370
40.26000 665.847
40.28000 647.368
40.30000 622.363
40.32000 591.911
40.34000 558.491
40.36000 542.747
40.38000 523.085
40.40000 498.792
40.42000 479.660
40.44000 463.318
40.46000 431.402
40.48000 401.500
40.50000 380.906
40.52000 369.183
40.54000 345.089
40.56000 323.292
40.58000 310.710
40.60000 296.091
40.62000 276.359
40.64000 260.799
40.66000 248.625
40.68000 229.575
40.70000 210.881
40.72000 204.880
40.74000 198.925
40.76000 186.231
40.78000 170.992
40.80000 166.148
40.82000 160.194
40.84000 147.586
40.86000 140.840
40.88000 131.792
40.90000 126.982
40.92000 115.903
40.94000 105.109
40.96000 98.695
40.98000 96.568
41.00000 93.106
41.02000 85.242
41.04000 81.466
41.06000 76.799
41.08000 68.651
41.10000 65.455
41.12000 64.051
41.14000 59.185
41.16000 55.167
41.18000 55.510
41.20000 55.699
41.22000 48.489
41.24000 46.955
41.26000 43.318
41.28000 39.652
41.30000 41.080
41.32000 38.633
41.34000 33.459
41.36000 29.200
41.38000 33.079
41.40000 30.863
41.42000 23.393
41.44000 22.732
41.46000 23.934
41.48000 23.276
41.50000 22.529
41.52000 21.772
41.54000 21.127
41.56000 14.753
41.58000 11.912
41.60000 15.791
41.62000 20.903
41.64000 16.465
41.66000 10.898
41.68000 12.660
41.70000 17.128
41.72000 17.168
41.74000 13.813
41.76000 13.625
41.78000 11.384
41.80000 7.613
41.82000 10.273
41.84000 11.070
41.86000 9.173
41.88000 6.728
41.90000 4.813
41.92000 8.930
41.94000 9.760
41.96000 2.439
41.98000 4.219
42.00000 5.409
42.02000 2.786
42.04000 3.855
42.06000 0.455
42.08000 1.332
42.10000 4.441
42.12000 4.414
42.14000 7.583
42.16000 6.848
42.18000 4.905
42.20000 2.758
42.22000 4.357
42.24000 6.873
42.26000 6.348
42.28000 3.811
42.30000 -1.169
42.32000 -0.530
42.34000 2.268
42.36000 4.666
42.38000 4.208
42.40000 1.431
42.42000 4.501
42.44000 2.441
42.46000 0.999
42.48000 -0.432
42.50000 -1.444
42.52000 2.508
42.54000 5.224
42.56000 3.120
42.58000 1.307
42.60000 -0.230
42.62000 -0.889
42.64000 3.536
42.66000 5.576
42.68000 4.585
42.70000 1.969
42.72000 5.369
42.74000 6.733
42.76000 0.080
42.78000 -3.425
42.80000 0.738
42.82000 1.929
42.84000 -1.717
42.86000 -0.602
42.88000 1.835
42.90000 1.076
42.92000 3.085
42.94000 5.608
42.96000 5.291
42.98000 3.130
43.00000 2.010
43.02000 -1.580
43.04000 -1.870
43.06000 -0.073
43.08000 -0.804
43.10000 -0.082
43.12000 3.182
43.14000 2.809
43.16000 2.138
43.18000 1.448
43.20000 -2.281
43.22000 -2.250
43.24000 0.988
43.26000 2.660
43.28000 4.603
43.30000 3.992
43.32000 5.014
43.34000 4.734
43.36000 1.061
43.38000 0.545
43.40000 1.129
43.42000 0.343
43.44000 -0.770
43.46000 0.508
43.48000 0.897
43.50000 -0.991
43.52000 -3.347
43.54000 0.401
43.56000 0.118
43.58000 -0.380
43.60000 1.882
43.62000 1.322
43.64000 1.664
43.66000 -1.159
43.68000 -1.301
43.70000 0.374
43.72000 1.207
43.74000 -1.064
43.76000 0.943
43.78000 -2.783
43.80000 -2.208
43.82000 1.793
43.84000 2.463
43.86000 3.418
43.88000 2.155
43.90000 0.856
43.92000 -3.321
43.94000 0.558
43.96000 -1.207
43.98000 -2.186
44.00000 -3.324
44.02000 0.434
44.04000 1.227
44.06000 -0.419
44.08000 -0.081
44.10000 -0.331
44.12000 -1.560
44.14000 0.289
44.16000 2.350
44.18000 3.246
44.20000 0.765
44.22000 0.535
44.24000 1.650
44.26000 1.087
44.28000 1.599
44.30000 -0.031
44.32000 0.379
44.34000 -0.191
44.36000 -3.337
44.38000 1.639
44.40000 3.396
44.42000 2.909
44.44000 2.947
44.46000 2.777
44.48000 -0.969
44.50000 2.738
44.52000 3.279
44.54000 0.301
44.56000 0.921
44.58000 4.113
44.60000 0.941
44.62000 5.254
44.64000 4.567
44.66000 1.925
44.68000 -0.375
44.70000 -0.397
44.72000 4.083
44.74000 1.996
44.76000 -0.916
44.78000 3.241
44.80000 11.225
44.82000 10.026
44.84000 6.800
44.86000 7.270
44.88000 10.520
44.90000 9.049
44.92000 7.517
44.94000 5.203
44.96000 8.446
44.98000 11.050
45.00000 5.967
45.02000 4.961
45.04000 9.971
45.06000 10.558
45.08000 14.807
45.10000 13.799
45.12000 15.400
45.14000 10.630
45.16000 9.048
45.18000 12.715
45.20000 11.897
45.22000 13.503
45.24000 13.253
45.26000 10.745
45.28000 15.616
45.30000 16.329
45.32000 14.033
45.34000 13.111
45.36000 13.959
45.38000 17.786
45.40000 23.384
45.42000 22.963
45.44000 20.120
45.46000 17.790
45.48000 20.598
45.50000 24.373
45.52000 28.862
45.54000 28.918
45.56000 27.509
45.58000 24.665
45.60000 26.352
45.62000 30.161
45.64000 33.202
45.66000 32.208
45.68000 32.237
45.70000 34.110
45.72000 39.640
45.74000 39.048
45.76000 40.813
45.78000 39.890
45.80000 43.457
45.82000 48.912
45.84000 46.514
45.86000 47.299
45.88000 43.087
45.90000 47.486
45.92000 50.229
45.94000 58.280
45.96000 59.269
45.98000 60.443
46.00000 59.639
46.02000 63.377
46.04000 67.658
46.06000 71.870
46.08000 70.666
46.10000 69.933
46.12000 71.526
46.14000 75.334
46.16000 75.675
46.18000 84.208
46.20000 88.210
46.22000 82.634
46.24000 86.833
46.26000 87.280
46.28000 93.271
46.30000 94.538
46.32000 90.649
46.34000 95.210
46.36000 98.881
46.38000 105.531
46.40000 109.595
46.42000 105.570
46.44000 102.989
46.46000 103.946
46.48000 111.916
46.50000 121.520
46.52000 122.394
46.54000 118.516
46.56000 124.011
46.58000 117.819
46.60000 115.001
46.62000 127.283
46.64000 134.772
46.66000 126.545
46.68000 122.794
46.70000 127.504
46.72000 129.030
46.74000 134.511
46.76000 128.061
46.78000 128.173
46.80000 125.472
46.82000 122.765
46.84000 122.826
46.86000 116.510
46.88000 120.421
46.90000 118.104
46.92000 115.886
46.94000 112.207
46.96000 118.298
46.98000 111.862
47.00000 111.601
47.02000 115.967
47.04000 110.466
47.06000 104.952
47.08000 98.775
47.10000 91.966
47.12000 90.404
47.14000 88.087
47.16000 79.428
47.18000 77.157
47.20000 78.934
47.22000 79.396
47.24000 70.085
47.26000 66.824
47.28000 63.754
47.30000 58.967
47.32000 56.817
47.34000 55.317
47.36000 53.831
47.38000 51.154
47.40000 46.949
47.42000 48.010
47.44000 43.746
47.46000 46.940
47.48000 40.631
47.50000 37.478
47.52000 33.262
47.54000 31.160
47.56000 34.653
47.58000 32.283
47.60000 26.790
47.62000 23.348
47.64000 25.286
47.66000 24.467
47.68000 21.811
47.70000 17.760
47.72000 16.773
47.74000 13.723
47.76000 15.288
47.78000 16.302
47.80000 17.451
47.82000 21.220
47.84000 15.942
47.86000 12.138
47.88000 8.786
47.90000 6.447
47.92000 8.239
47.94000 5.875
47.96000 2.506
47.98000 6.103
48.00000 10.797
48.02000 9.064
48.04000 7.634
48.06000 4.685
48.08000 3.899
48.10000 8.240
48.12000 5.500
48.14000 6.195
48.16000 4.906
48.18000 1.397
48.20000 3.381
48.22000 2.111
48.24000 -0.048
48.26000 3.548
48.28000 2.437
48.30000 6.257
48.32000 4.210
48.34000 5.041
48.36000 5.839
48.38000 3.430
48.40000 1.162
48.42000 0.480
48.44000 0.612
48.46000 0.377
48.48000 2.553
48.50000 1.547
48.52000 -1.047
48.54000 2.577
48.56000 0.339
48.58000 1.733
48.60000 3.006
48.62000 -0.620
48.64000 -2.883
48.66000 -2.522
48.68000 2.460
48.70000 4.086
48.72000 0.419
48.74000 2.052
48.76000 10.200
48.78000 6.923
48.80000 0.386
48.82000 -2.308
48.84000 -2.564
48.86000 0.748
48.88000 0.319
48.90000 -1.343
48.92000 1.816
48.94000 3.162
48.96000 -1.480
48.98000 2.879
49.00000 3.079
49.02000 -1.207
49.04000 1.289
49.06000 5.260
49.08000 3.517
49.10000 1.054
49.12000 1.027
49.14000 0.899
49.16000 0.694
49.18000 1.564
49.20000 -1.263
49.22000 -0.765
49.24000 -0.873
49.26000 -1.898
49.28000 0.856
49.30000 0.916
49.32000 1.550
49.34000 -2.343
49.36000 -1.555
49.38000 -2.812
49.40000 1.743
49.42000 -0.044
49.44000 -1.844
49.46000 -2.109
49.48000 1.448
49.50000 -2.797
49.52000 -1.437
49.54000 -1.206
49.56000 2.637
49.58000 -0.329
49.60000 -0.470
49.62000 2.565
49.64000 2.143
49.66000 2.068
49.68000 -0.915
49.70000 1.635
49.72000 6.157
49.74000 1.031
49.76000 -2.775
49.78000 -1.450
49.80000 -1.104
49.82000 -0.701
49.84000 0.959
49.86000 0.387
49.88000 0.814
49.90000 3.757
49.92000 1.203
49.94000 -0.085
49.96000 1.301
49.98000 0.415
50.00000 -0.579
50.02000 1.337
50.04000 2.692
50.06000 0.076
50.08000 1.473
50.10000 3.009
50.12000 1.663
50.14000 1.132
50.16000 1.204
50.18000 -0.569
50.20000 1.265
50.22000 2.818
50.24000 0.098
50.26000 -2.724
50.28000 -2.651
50.30000 -2.555
50.32000 1.788
50.34000 -0.341
50.36000 3.091
50.38000 3.859
50.40000 2.230
50.42000 3.217
50.44000 0.746
50.46000 2.872
50.48000 0.773
50.50000 -1.893
50.52000 1.344
50.54000 2.542
50.56000 1.639
50.58000 1.625
50.60000 1.148
50.62000 3.723
50.64000 3.397
50.66000 9.053
50.68000 6.776
50.70000 4.374
50.72000 1.267
50.74000 3.994
50.76000 5.163
50.78000 0.203
50.80000 0.770
50.82000 0.862
50.84000 2.784
50.86000 4.038
50.88000 1.709
50.90000 0.968
50.92000 0.000
50.94000 1.102
50.96000 2.763
50.98000 1.076
51.00000 0.513
51.02000 1.907
51.04000 3.186
51.06000 4.921
51.08000 2.544
51.10000 1.249
51.12000 -0.876
51.14000 0.894
51.16000 -0.707
51.18000 -2.684
51.20000 -2.508
51.22000 0.644
51.24000 2.576
51.26000 1.374
51.28000 2.340
51.30000 2.562
51.32000 -1.985
51.34000 -0.592
51.36000 1.611
51.38000 0.770
51.40000 -1.215
51.42000 0.819
51.44000 3.991
51.46000 2.795
51.48000 3.036
51.50000 5.051
51.52000 9.665
51.54000 4.734
51.56000 5.955
51.58000 6.027
51.60000 2.862
51.62000 0.077
51.64000 -2.650
51.66000 3.087
51.68000 6.301
51.70000 4.462
51.72000 0.571
51.74000 2.850
51.76000 4.459
51.78000 4.341
51.80000 2.913
51.82000 2.922
51.84000 0.300
51.86000 0.269
51.88000 0.795
51.90000 2.004
51.92000 5.762
51.94000 9.903
51.96000 4.534
51.98000 2.589
52.00000 4.253
52.02000 1.490
52.04000 4.288
52.06000 1.512
52.08000 5.231
52.10000 6.394
52.12000 2.629
52.14000 2.112
52.16000 3.503
52.18000 2.889
52.20000 6.574
52.22000 1.601
52.24000 -2.197
52.26000 -2.622
52.28000 -0.536
52.30000 -0.923
52.32000 1.647
52.34000 2.009
52.36000 -1.387
52.38000 -1.499
52.40000 -0.291
52.42000 1.626
52.44000 2.013
52.46000 0.213
52.48000 3.573
52.50000 4.088
52.52000 2.668
52.54000 1.668
52.56000 -0.675
52.58000 0.144
52.60000 4.646
52.62000 4.048
52.64000 -2.624
52.66000 -2.593
52.68000 1.313
52.70000 4.543
52.72000 5.037
52.74000 3.716
52.76000 2.339
52.78000 5.683
52.80000 4.884
52.82000 2.977
52.84000 4.957
52.86000 7.184
52.88000 3.296
52.90000 -0.619
52.92000 2.219
52.94000 4.094
52.96000 2.510
52.98000 0.172
53.00000 -0.496
53.02000 3.681
53.04000 3.633
53.06000 4.363
53.08000 1.652
53.10000 -0.301
53.12000 0.913
53.14000 -0.196
53.16000 0.512
53.18000 -1.618
53.20000 -0.010
53.22000 -0.568
53.24000 0.254
53.26000 -2.623
53.28000 1.671
53.30000 1.537
53.32000 7.814
53.34000 2.625
53.36000 1.546
53.38000 1.540
53.40000 4.642
53.42000 -0.501
53.44000 -1.304
53.46000 -1.083
53.48000 -1.542
53.50000 1.617
53.52000 1.182
53.54000 0.897
53.56000 0.147
53.58000 1.710
53.60000 -0.742
53.62000 -1.730
53.64000 -1.419
53.66000 -0.625
53.68000 1.228
53.70000 3.361
53.72000 0.569
53.74000 -2.449
53.76000 0.523
53.78000 0.435
53.80000 1.624
53.82000 1.260
53.84000 -0.547
53.86000 3.602
53.88000 1.236
53.90000 -2.517
53.92000 -0.401
53.94000 4.302
53.96000 5.594
53.98000 1.426
54.00000 2.706
54.02000 3.222
54.04000 5.100
54.06000 2.250
54.08000 0.560
54.10000 3.995
54.12000 3.290
54.14000 0.972
54.16000 -2.583
54.18000 4.006
54.20000 4.771
54.22000 3.176
54.24000 6.164
54.26000 2.439
54.28000 2.086
54.30000 0.009
54.32000 2.865
54.34000 5.970
54.36000 1.381
54.38000 -1.056
54.40000 -2.192
54.42000 -0.106
54.44000 -0.023
54.46000 -2.535
54.48000 -1.128
54.50000 -1.257
54.52000 1.493
54.54000 3.348
54.56000 -1.143
54.58000 1.232
54.60000 1.366
54.62000 1.158
54.64000 2.802
54.66000 2.715
54.68000 5.043
54.70000 5.852
54.72000 3.356
54.74000 3.505
54.76000 4.162
54.78000 3.304
54.80000 0.630
54.82000 2.372
54.84000 5.298
54.86000 0.884
54.88000 0.876
54.90000 3.370
54.92000 2.044
54.94000 3.852
54.96000 4.063
54.98000 -0.453
55.00000 1.056
55.02000 0.493
55.04000 -0.806
55.06000 -2.538
55.08000 -1.081
55.10000 -0.289
55.12000 0.379
55.14000 1.200
55.16000 4.534
55.18000 4.998
55.20000 2.404
55.22000 2.933
55.24000 3.599
55.26000 5.296
55.28000 1.414
55.30000 0.427
55.32000 2.841
55.34000 0.762
55.36000 3.484
55.38000 0.548
55.40000 -2.224
55.42000 -0.196
55.44000 3.382
55.46000 4.167
55.48000 0.987
55.50000 0.521
55.52000 2.224
55.54000 0.647
55.56000 2.721
55.58000 3.987
55.60000 3.500
55.62000 8.297
55.64000 7.666
55.66000 7.292
55.68000 3.628
55.70000 -1.214
55.72000 1.503
55.74000 3.114
55.76000 5.358
55.78000 4.356
55.80000 2.457
55.82000 4.346
55.84000 5.066
55.86000 4.053
55.88000 4.044
55.90000 2.232
55.92000 4.113
55.94000 4.491
55.96000 3.512
55.98000 -0.346
56.00000 0.279
56.02000 -0.364
56.04000 -2.506
56.06000 4.266
56.08000 7.379
56.10000 2.696
56.12000 3.093
56.14000 -1.516
56.16000 0.137
56.18000 0.843
56.20000 2.114
56.22000 4.559
56.24000 1.397
56.26000 1.838
56.28000 2.456
56.30000 0.446
56.32000 4.518
56.34000 2.906
56.36000 1.923
56.38000 2.325
56.40000 1.945
56.42000 1.326
56.44000 1.756
56.46000 3.307
56.48000 4.713
56.50000 3.176
56.52000 5.048
56.54000 0.525
56.56000 -1.115
56.58000 3.343
56.60000 4.327
56.62000 3.831
56.64000 4.177
56.66000 3.982
56.68000 3.548
56.70000 3.594
56.72000 2.673
56.74000 6.560
56.76000 5.912
56.78000 4.440
56.80000 4.045
56.82000 2.741
56.84000 2.836
56.86000 3.959
56.88000 2.024
56.90000 5.281
56.92000 8.906
56.94000 5.845
56.96000 -0.968
56.98000 0.847
57.00000 3.220
57.02000 2.031
57.04000 1.205
57.06000 3.915
57.08000 5.235
57.10000 6.034
57.12000 5.864
57.14000 6.367
57.16000 6.277
57.18000 6.227
57.20000 4.536
57.22000 0.724
57.24000 -2.455
57.26000 -0.553
57.28000 1.487
57.30000 6.263
57.32000 6.576
57.34000 5.935
57.36000 2.984
57.38000 4.018
57.40000 5.876
57.42000 4.045
57.44000 -2.442
57.46000 2.035
57.48000 3.628
57.50000 6.737
57.52000 8.241
57.54000 5.767
57.56000 3.805
57.58000 4.567
57.60000 6.411
57.62000 4.298
57.64000 4.950
57.66000 7.523
57.68000 6.791
57.70000 3.783
57.72000 3.553
57.74000 6.249
57.76000 5.342
57.78000 2.995
57.80000 -0.512
57.82000 1.055
57.84000 3.873
57.86000 0.248
57.88000 -1.250
57.90000 3.060
57.92000 6.703
57.94000 4.146
57.96000 6.862
57.98000 3.711
58.00000 3.507
58.02000 3.366
58.04000 6.320
58.06000 4.199
58.08000 2.530
58.10000 5.097
58.12000 6.483
58.14000 4.401
58.16000 4.057
58.18000 2.845
58.20000 1.961
58.22000 6.907
58.24000 3.103
58.26000 2.625
58.28000 4.417
58.30000 5.140
58.32000 1.883
58.34000 3.774
58.36000 4.697
58.38000 1.451
58.40000 1.463
58.42000 3.905
58.44000 3.123
58.46000 5.825
58.48000 10.484
58.50000 5.423
58.52000 1.454
58.54000 2.032
58.56000 6.092
58.58000 3.913
58.60000 1.434
58.62000 -2.433
58.64000 0.697
58.66000 5.001
58.68000 3.798
58.70000 4.504
58.72000 3.836
58.74000 2.644
58.76000 1.355
58.78000 2.270
58.80000 2.874
58.82000 1.896
58.84000 2.428
58.86000 2.813
58.88000 4.772
58.90000 3.238
58.92000 3.753
58.94000 1.904
58.96000 1.055
58.98000 1.507
59.00000 -0.330
59.02000 1.584
59.04000 2.401
59.06000 0.806
59.08000 -1.869
59.10000 1.047
59.12000 3.663
59.14000 5.977
59.16000 6.778
59.18000 2.237
59.20000 1.724
59.22000 3.171
59.24000 1.956
59.26000 0.478
59.28000 4.056
59.30000 -1.069
59.32000 -1.302
59.34000 -0.246
59.36000 2.827
59.38000 5.751
59.40000 6.176
59.42000 1.220
59.44000 2.058
59.46000 4.902
59.48000 3.731
59.50000 4.806
59.52000 -2.413
59.54000 0.973
59.56000 2.328
59.58000 4.053
59.60000 1.605
59.62000 3.050
59.64000 2.078
59.66000 3.958
59.68000 4.853
59.70000 2.298
59.72000 -0.383
59.74000 2.250
59.76000 3.601
59.78000 0.375
59.80000 -2.405
59.82000 0.684
59.84000 3.035
59.86000 2.138
59.88000 -0.866
59.90000 2.552
59.92000 -0.687
59.94000 2.177
59.96000 2.004
59.98000 1.936
60.00000 3.447
60.02000 2.740
60.04000 3.378
60.06000 1.683
60.08000 2.612
60.10000 2.569
60.12000 4.316
60.14000 1.211
60.16000 2.426
60.18000 3.428
60.20000 3.698
60.22000 3.379
60.24000 1.407
60.26000 2.883
60.28000 6.632
60.30000 1.417
60.32000 1.997
60.34000 3.525
60.36000 1.863
60.38000 0.583
60.40000 -1.463
60.42000 0.508
60.44000 -0.809
60.46000 0.806
60.48000 2.232
60.50000 0.875
60.52000 1.088
60.54000 0.940
60.56000 1.611
60.58000 5.687
60.60000 3.119
60.62000 3.867
60.64000 2.177
60.66000 -0.732
60.68000 2.841
60.70000 3.964
60.72000 1.064
60.74000 2.936
60.76000 -1.776
60.78000 -2.353
60.80000 2.894
60.82000 4.334
60.84000 5.730
60.86000 5.490
60.88000 4.015
60.90000 2.775
60.92000 3.833
60.94000 4.730
60.96000 2.684
60.98000 3.883
61.00000 7.386
61.02000 3.017
61.04000 0.699
61.06000 3.647
61.08000 2.862
61.10000 -0.573
61.12000 1.985
61.14000 3.165
61.16000 3.107
61.18000 4.133
61.20000 5.962
61.22000 8.193
61.24000 5.468
61.26000 3.146
61.28000 0.138
61.30000 2.763
61.32000 2.553
61.34000 1.127
61.36000 0.080
61.38000 -0.837
61.40000 0.124
61.42000 -0.891
61.44000 1.282
61.46000 1.220
61.48000 -1.629
61.50000 0.851
61.52000 4.388
61.54000 2.492
61.56000 2.706
61.58000 2.187
61.60000 3.700
61.62000 4.230
61.64000 6.376
61.66000 2.274
61.68000 1.401
61.70000 -0.305
61.72000 1.564
61.74000 0.198
61.76000 0.302
61.78000 -1.018
61.80000 1.446
61.82000 2.232
61.84000 0.463
61.86000 0.364
61.88000 0.525
61.90000 1.698
61.92000 1.535
61.94000 0.304
61.96000 5.083
61.98000 2.169
62.00000 -0.381
62.02000 1.207
62.04000 3.365
62.06000 1.599
62.08000 3.048
62.10000 3.877
62.12000 1.308
62.14000 3.841
62.16000 0.698
62.18000 -0.064
62.20000 0.679
62.22000 3.203
62.24000 2.057
62.26000 1.814
62.28000 -1.211
62.30000 -1.247
62.32000 0.779
62.34000 -1.587
62.36000 -0.130
62.38000 3.503
62.40000 3.942
62.42000 0.703
62.44000 -0.599
62.46000 -1.842
62.48000 0.408
62.50000 3.091
62.52000 0.581
62.54000 0.122
62.56000 0.213
62.58000 3.060
62.60000 1.008
62.62000 -0.154
62.64000 -1.551
62.66000 2.775
62.68000 1.225
62.70000 -0.021
62.72000 5.663
62.74000 3.156
62.76000 2.402
62.78000 2.404
62.80000 -0.774
62.82000 -2.329
62.84000 3.044
62.86000 2.810
62.88000 1.510
62.90000 1.272
62.92000 4.533
62.94000 2.290
62.96000 -0.328
62.98000 -0.734
63.00000 3.314
63.02000 4.549
63.04000 2.511
63.06000 3.393
63.08000 -0.023
63.10000 2.941
63.12000 4.202
63.14000 5.454
63.16000 3.181
63.18000 6.070
63.20000 2.021
63.22000 -1.196
63.24000 -0.622
63.26000 2.654
63.28000 0.169
63.30000 2.855
63.32000 1.644
63.34000 2.998
63.36000 2.199
63.38000 3.675
63.40000 3.956
63.42000 3.955
63.44000 2.679
63.46000 2.786
63.48000 2.169
63.50000 2.440
63.52000 3.125
63.54000 4.301
63.56000 3.003
63.58000 1.644
63.60000 2.493
63.62000 0.272
63.64000 3.300
63.66000 0.147
63.68000 0.844
63.70000 0.100
63.72000 -1.369
63.74000 -0.027
63.76000 0.732
63.78000 2.722
63.80000 1.696
63.82000 2.446
63.84000 1.488
63.86000 1.374
63.88000 1.134
63.90000 2.281
63.92000 1.782
63.94000 1.116
63.96000 1.890
63.98000 1.116
64.00000 -2.337
64.02000 0.198
64.04000 2.677
64.06000 0.075
64.08000 1.392
64.10000 -2.341
64.12000 3.552
64.14000 6.712
64.16000 6.238
64.18000 5.770
64.20000 6.299
64.22000 4.014
64.24000 1.917
64.26000 5.153
64.28000 4.895
64.30000 4.191
64.32000 6.464
64.34000 3.306
64.36000 3.878
64.38000 8.703
64.40000 3.432
64.42000 2.697
64.44000 2.144
64.46000 1.202
64.48000 1.598
64.50000 2.525
64.52000 3.364
64.54000 2.963
64.56000 1.818
64.58000 1.219
64.60000 1.691
64.62000 3.735
64.64000 4.406
64.66000 5.284
64.68000 7.424
64.70000 0.314
64.72000 -2.357
64.74000 1.212
64.76000 2.512
64.78000 1.422
64.80000 2.005
64.82000 2.449
64.84000 0.969
64.86000 2.862
64.88000 2.801
64.90000 1.877
64.92000 4.052
64.94000 1.850
64.96000 -2.365
64.98000 0.322
65.00000 0.115
65.02000 1.551
65.04000 2.733
65.06000 1.031
65.08000 1.512
65.10000 -0.404
65.12000 3.518
65.14000 4.721
65.16000 2.562
65.18000 2.223
65.20000 0.737
65.22000 -0.241
65.24000 -1.623
65.26000 1.235
65.28000 2.448
65.30000 4.594
65.32000 1.772
65.34000 1.164
65.36000 -0.309
65.38000 0.455
65.40000 2.553
65.42000 -0.332
65.44000 -0.363
65.46000 0.984
65.48000 2.316
65.50000 2.118
65.52000 0.278
65.54000 -1.753
65.56000 -1.429
65.58000 -0.843
65.60000 -0.879
65.62000 1.451
65.64000 2.970
65.66000 2.495
65.68000 1.897
65.70000 0.725
65.72000 2.104
65.74000 -0.031
65.76000 3.259
65.78000 0.975
65.80000 -0.704
65.82000 0.297
65.84000 0.035
65.86000 0.268
65.88000 0.182
65.90000 0.526
65.92000 2.169
65.94000 0.285
65.96000 0.032
65.98000 -2.432
66.00000 -0.136
66.02000 -1.828
66.04000 -1.045
66.06000 2.012
66.08000 0.841
66.10000 -1.106
66.12000 -0.083
66.14000 1.183
66.16000 -0.657
66.18000 0.836
66.20000 3.526
66.22000 -2.460
66.24000 -1.502
66.26000 0.469
66.28000 -0.627
66.30000 1.629
66.32000 -0.208
66.34000 2.078
66.36000 1.300
66.38000 -0.118
66.40000 -1.663
66.42000 -0.504
66.44000 2.062
66.46000 4.019
66.48000 2.903
66.50000 1.677
66.52000 0.894
66.54000 -0.517
66.56000 0.495
66.58000 2.305
66.60000 1.104
66.62000 2.823
66.64000 0.490
66.66000 0.566
66.68000 4.157
66.70000 5.747
66.72000 3.958
66.74000 0.366
66.76000 0.001
66.78000 -1.682
66.80000 -1.609
66.82000 2.440
66.84000 7.388
66.86000 5.758
66.88000 3.304
66.90000 2.832
66.92000 4.223
66.94000 4.298
66.96000 5.557
66.98000 3.947
67.00000 3.940
67.02000 5.868
67.04000 4.430
67.06000 7.344
67.08000 6.117
67.10000 7.376
67.12000 4.766
67.14000 5.203
67.16000 9.246
67.18000 6.786
67.20000 7.612
67.22000 7.861
67.24000 10.953
67.26000 11.877
67.28000 11.029
67.30000 8.216
67.32000 9.274
67.34000 8.347
67.36000 9.818
67.38000 8.469
67.40000 10.151
67.42000 8.518
67.44000 9.489
67.46000 11.344
67.48000 10.786
67.50000 14.063
67.52000 15.231
67.54000 13.403
67.56000 17.825
67.58000 15.768
67.60000 12.911
67.62000 14.663
67.64000 12.875
67.66000 15.561
67.68000 14.910
67.70000 14.551
67.72000 17.886
67.74000 18.325
67.76000 16.331
67.78000 19.455
67.80000 20.077
67.82000 22.081
67.84000 21.257
67.86000 21.374
67.88000 17.227
67.90000 15.583
67.92000 20.931
67.94000 19.678
67.96000 22.247
67.98000 20.459
68.00000 22.271
68.02000 21.644
68.04000 23.096
68.06000 22.357
68.08000 21.053
68.10000 23.430
68.12000 23.379
68.14000 25.478
68.16000 26.979
68.18000 25.439
68.20000 20.706
68.22000 21.331
68.24000 22.314
68.26000 24.050
68.28000 26.036
68.30000 26.724
68.32000 24.857
68.34000 23.805
68.36000 22.683
68.38000 20.093
68.40000 18.474
68.42000 17.700
68.44000 19.452
68.46000 18.858
68.48000 20.360
68.50000 19.745
68.52000 18.748
68.54000 16.365
68.56000 15.651
68.58000 12.346
68.60000 15.789
68.62000 13.938
68.64000 12.841
68.66000 16.561
68.68000 13.525
68.70000 12.920
68.72000 11.233
68.74000 15.915
68.76000 11.549
68.78000 9.147
68.80000 12.981
68.82000 14.770
68.84000 13.955
68.86000 9.956
68.88000 10.049
68.90000 13.249
68.92000 11.092
68.94000 9.076
68.96000 4.860
68.98000 4.420
69.00000 6.546
69.02000 8.725
69.04000 6.863
69.06000 3.512
69.08000 5.215
69.10000 4.295
69.12000 3.166
69.14000 4.430
69.16000 3.196
69.18000 3.140
69.20000 2.262
69.22000 3.421
69.24000 2.437
69.26000 4.263
69.28000 1.848
69.30000 1.297
69.32000 1.531
69.34000 0.023
69.36000 0.674
69.38000 4.156
69.40000 5.014
69.42000 3.728
69.44000 1.897
69.46000 -2.376
69.48000 1.635
69.50000 0.768
69.52000 -2.033
69.54000 -0.673
69.56000 -0.409
69.58000 3.183
69.60000 0.846
69.62000 -0.014
69.64000 2.298
69.66000 -0.073
69.68000 2.276
69.70000 -0.199
69.72000 0.435
69.74000 1.235
69.76000 -0.318
69.78000 -2.148
69.80000 -2.327
69.82000 0.177
69.84000 1.228
69.86000 2.605
69.88000 1.170
69.90000 -0.431
69.92000 -1.732
69.94000 3.802
69.96000 6.013
69.98000 2.706
70.00000 1.792
70.02000 1.436
70.04000 0.599
70.06000 1.428
70.08000 3.230
70.10000 3.703
70.12000 6.489
70.14000 4.960
70.16000 1.516
70.18000 1.030
70.20000 1.382
70.22000 2.085
70.24000 2.951
70.26000 1.335
70.28000 2.162
70.30000 4.284
70.32000 2.396
70.34000 6.566
70.36000 1.996
70.38000 2.473
70.40000 3.195
70.42000 5.066
70.44000 3.570
70.46000 3.754
70.48000 4.098
70.50000 5.600
70.52000 4.850
70.54000 -2.225
70.56000 2.652
70.58000 3.918
70.60000 5.553
70.62000 3.564
70.64000 5.695
70.66000 4.272
70.68000 1.611
70.70000 0.776
70.72000 4.628
70.74000 3.346
70.76000 3.560
70.78000 0.315
70.80000 1.119
70.82000 2.179
70.84000 0.788
70.86000 3.057
70.88000 6.462
70.90000 4.644
70.92000 6.987
70.94000 7.923
70.96000 4.287
70.98000 0.570
71.00000 0.202
71.02000 -1.470
71.04000 5.161
71.06000 4.137
71.08000 3.511
71.10000 3.400
71.12000 5.485
71.14000 2.430
71.16000 2.334
71.18000 3.500
71.20000 1.918
71.22000 1.879
71.24000 2.281
71.26000 -0.866
71.28000 0.456
71.30000 1.068
71.32000 2.654
71.34000 0.892
71.36000 -1.750
71.38000 -2.005
71.40000 -0.057
71.42000 -0.873
71.44000 2.766
71.46000 2.460
71.48000 3.457
71.50000 2.981
71.52000 0.648
71.54000 2.566
71.56000 1.363
71.58000 3.479
71.60000 3.947
71.62000 3.965
71.64000 1.115
71.66000 3.815
71.68000 3.553
71.70000 2.626
71.72000 1.579
71.74000 1.079
71.76000 1.502
71.78000 0.387
71.80000 4.622
71.82000 3.583
71.84000 2.408
71.86000 3.458
71.88000 5.054
71.90000 4.640
71.92000 0.300
71.94000 -0.317
71.96000 -0.155
71.98000 1.434
72.00000 0.233
72.02000 -0.497
72.04000 0.429
72.06000 3.350
72.08000 0.313
72.10000 -2.202
72.12000 -2.005
72.14000 -0.364
72.16000 -1.577
72.18000 0.524
72.20000 1.997
72.22000 3.271
72.24000 4.513
72.26000 3.741
72.28000 4.473
72.30000 2.692
72.32000 4.757
72.34000 4.367
72.36000 3.472
72.38000 6.245
72.40000 3.734
72.42000 5.462
72.44000 6.631
72.46000 3.161
72.48000 1.163
72.50000 -2.176
72.52000 0.853
72.54000 1.244
72.56000 2.824
72.58000 4.572
72.60000 1.824
72.62000 -0.889
72.64000 0.100
72.66000 0.735
72.68000 0.281
72.70000 3.348
72.72000 2.098
72.74000 1.838
72.76000 1.379
72.78000 1.392
72.80000 1.794
72.82000 5.592
72.84000 4.695
72.86000 3.308
72.88000 3.534
72.90000 2.173
72.92000 2.365
72.94000 2.478
72.96000 1.944
72.98000 -0.007
73.00000 2.426
73.02000 0.557
73.04000 -0.812
73.06000 3.398
73.08000 3.997
73.10000 3.824
73.12000 4.943
73.14000 4.253
73.16000 3.242
73.18000 0.609
73.20000 0.604
73.22000 0.705
73.24000 3.421
73.26000 1.933
73.28000 1.142
73.30000 0.379
73.32000 0.263
73.34000 -2.003
73.36000 -2.016
73.38000 0.016
73.40000 1.588
73.42000 1.558
73.44000 0.372
73.46000 0.870
73.48000 2.180
73.50000 -0.321
73.52000 -2.209
73.54000 2.222
73.56000 2.920
73.58000 3.009
73.60000 4.111
73.62000 1.568
73.64000 5.891
73.66000 5.506
73.68000 -0.099
73.70000 -1.443
73.72000 0.885
73.74000 2.035
73.76000 2.264
73.78000 -1.164
73.80000 0.731
73.82000 2.086
73.84000 -0.351
73.86000 2.077
73.88000 4.220
73.90000 0.275
73.92000 3.502
73.94000 4.936
73.96000 0.390
73.98000 3.519
74.00000 5.628
74.02000 5.133
74.04000 1.621
74.06000 -1.865
74.08000 -1.757
74.10000 -2.191
74.12000 -1.544
74.14000 -0.113
74.16000 0.820
74.18000 -0.724
74.20000 -0.857
74.22000 -1.713
74.24000 0.284
74.26000 1.242
74.28000 1.346
74.30000 3.608
74.32000 3.020
74.34000 3.402
74.36000 1.626
74.38000 3.098
74.40000 2.685
74.42000 -1.234
74.44000 1.780
74.46000 4.365
74.48000 2.790
74.50000 3.185
74.52000 4.660
74.54000 5.385
74.56000 1.494
74.58000 -0.664
74.60000 2.163
74.62000 -0.560
74.64000 1.718
74.66000 3.027
74.68000 -0.649
74.70000 -0.900
74.72000 0.713
74.74000 2.832
74.76000 4.341
74.78000 3.221
74.80000 3.283
74.82000 4.330
74.84000 2.258
74.86000 -2.169
74.88000 0.484
74.90000 3.924
74.92000 5.250
74.94000 0.650
74.96000 4.025
74.98000 3.327
75.00000 6.164
75.02000 5.233
75.04000 5.005
75.06000 5.580
75.08000 2.103
75.10000 -0.670
75.12000 2.955
75.14000 4.372
75.16000 5.102
75.18000 0.784
75.20000 1.858
75.22000 0.448
75.24000 -1.555
75.26000 -2.169
75.28000 1.282
75.30000 3.372
75.32000 8.052
75.34000 5.723
75.36000 4.431
75.38000 5.337
75.40000 3.108
75.42000 1.840
75.44000 2.321
75.46000 4.942
75.48000 4.613
75.50000 1.601
75.52000 1.659
75.54000 1.381
75.56000 0.950
75.58000 -1.604
75.60000 1.816
75.62000 0.536
75.64000 5.238
75.66000 2.139
75.68000 -2.022
75.70000 0.087
75.72000 2.355
75.74000 3.597
75.76000 4.537
75.78000 3.698
75.80000 -0.692
75.82000 -2.077
75.84000 2.828
75.86000 6.263
75.88000 2.551
75.90000 1.667
75.92000 1.388
75.94000 1.073
75.96000 -1.485
75.98000 0.096
76.00000 -0.314
76.02000 1.736
76.04000 1.679
76.06000 -1.074
76.08000 0.107
76.10000 -1.262
76.12000 0.565
76.14000 2.208
76.16000 0.817
76.18000 -1.138
76.20000 -1.333
76.22000 2.533
76.24000 -0.599
76.26000 1.376
76.28000 4.478
76.30000 7.178
76.32000 3.918
76.34000 1.678
76.36000 5.046
76.38000 6.294
76.40000 10.469
76.42000 7.366
76.44000 5.375
76.46000 1.563
76.48000 0.681
76.50000 -1.559
76.52000 -2.211
76.54000 0.887
76.56000 1.131
76.58000 -0.344
76.60000 -0.091
76.62000 -0.297
76.64000 -0.024
76.66000 1.032
76.68000 2.648
76.70000 1.870
76.72000 2.961
76.74000 2.974
76.76000 -0.063
76.78000 0.884
76.80000 1.290
76.82000 0.580
76.84000 0.832
76.86000 1.609
76.88000 -2.226
76.90000 0.468
76.92000 3.697
76.94000 3.955
76.96000 4.770
76.98000 3.879
77.00000 2.355
77.02000 2.799
77.04000 3.212
77.06000 4.363
77.08000 5.021
77.10000 2.259
77.12000 -0.788
77.14000 0.616
77.16000 -0.469
77.18000 1.984
77.20000 -0.440
77.22000 -1.646
77.24000 -0.167
77.26000 2.281
77.28000 -0.130
77.30000 0.898
77.32000 3.345
77.34000 2.829
77.36000 5.870
77.38000 5.867
77.40000 0.781
77.42000 1.449
77.44000 -1.433
77.46000 1.150
77.48000 2.111
77.50000 1.659
77.52000 -0.165
77.54000 -1.644
77.56000 1.146
77.58000 5.080
77.60000 2.264
77.62000 6.660
77.64000 4.847
77.66000 3.995
77.68000 1.508
77.70000 3.486
77.72000 1.573
77.74000 -1.517
77.76000 2.382
77.78000 0.786
77.80000 -0.654
77.82000 1.904
77.84000 0.161
77.86000 -0.520
77.88000 0.009
77.90000 2.425
77.92000 0.686
77.94000 -2.236
77.96000 -0.842
77.98000 -0.341
78.00000 -0.760
78.02000 4.453
78.04000 2.480
78.06000 2.391
78.08000 1.436
78.10000 0.828
78.12000 5.690
78.14000 8.392
78.16000 4.280
78.18000 7.504
78.20000 3.081
78.22000 5.743
78.24000 2.359
78.26000 -2.223
78.28000 0.761
78.30000 0.540
78.32000 1.265
78.34000 3.717
78.36000 5.346
78.38000 8.209
78.40000 5.841
78.42000 6.616
78.44000 1.769
78.46000 -0.831
78.48000 1.786
78.50000 0.216
78.52000 0.618
78.54000 4.316
78.56000 6.730
78.58000 2.901
78.60000 0.362
78.62000 0.499
78.64000 4.061
78.66000 -2.233
78.68000 0.093
78.70000 1.041
78.72000 1.122
78.74000 2.013
78.76000 2.805
78.78000 6.084
78.80000 6.469
78.82000 3.327
78.84000 2.604
78.86000 1.402
78.88000 1.594
78.90000 2.714
78.92000 4.756
78.94000 1.245
78.96000 2.041
78.98000 4.720
79.00000 3.520
79.02000 3.065
79.04000 6.534
79.06000 8.407
79.08000 6.034
79.10000 1.317
79.12000 3.513
79.14000 5.139
79.16000 3.602
79.18000 3.654
79.20000 1.013
79.22000 1.886
79.24000 2.400
79.26000 1.867
79.28000 8.097
79.30000 4.443
79.32000 1.271
79.34000 -0.579
79.36000 -2.046
79.38000 3.950
79.40000 3.136
79.42000 3.354
79.44000 2.197
79.46000 -1.800
79.48000 -2.316
79.50000 2.950
79.52000 6.116
79.54000 1.793
79.56000 -1.157
79.58000 -1.584
79.60000 -1.775
79.62000 1.121
79.64000 -1.342
79.66000 -1.853
79.68000 1.266
79.70000 2.268
79.72000 -2.026
79.74000 2.739
79.76000 3.466
79.78000 -1.369
79.80000 -1.323
79.82000 -0.612
79.84000 1.090
79.86000 -0.570
79.88000 3.592
79.90000 1.544
79.92000 1.250
79.94000 2.372
79.96000 -0.485
79.98000 -0.865
80.00000 -2.370
80.02000 4.372
80.04000 4.578
80.06000 3.228
80.08000 2.615
80.10000 2.971
80.12000 1.125
80.14000 -1.637
80.16000 -1.061
80.18000 2.020
80.20000 2.209
80.22000 0.913
80.24000 0.203
80.26000 -0.860
80.28000 3.474
80.30000 6.863
80.32000 2.279
80.34000 4.229
80.36000 7.353
80.38000 7.029
80.40000 3.792
80.42000 1.629
80.44000 3.071
80.46000 1.146
80.48000 1.953
80.50000 6.011
80.52000 4.051
80.54000 4.282
80.56000 3.154
80.58000 0.589
80.60000 4.071
80.62000 3.296
80.64000 6.020
80.66000 7.699
80.68000 3.620
80.70000 2.908
80.72000 1.371
80.74000 3.148
80.76000 3.864
80.78000 9.591
80.80000 10.135
80.82000 7.094
80.84000 3.982
80.86000 8.724
80.88000 8.224
80.90000 7.827
80.92000 8.740
80.94000 8.774
80.96000 5.494
80.98000 8.315
81.00000 10.465
81.02000 6.510
81.04000 3.483
81.06000 3.261
81.08000 7.622
81.10000 6.455
81.12000 8.028
81.14000 11.279
81.16000 11.273
81.18000 10.963
81.20000 12.743
81.22000 16.730
81.24000 9.027
81.26000 6.910
81.28000 9.766
81.30000 13.745
81.32000 14.600
81.34000 10.368
81.36000 12.903
81.38000 12.562
81.40000 15.847
81.42000 12.926
81.44000 14.675
81.46000 16.087
81.48000 13.588
81.50000 15.999
81.52000 17.418
81.54000 19.248
81.56000 18.587
81.58000 14.711
81.60000 16.551
81.62000 17.488
81.64000 17.678
81.66000 20.514
81.68000 21.060
81.70000 17.371
81.72000 21.022
81.74000 23.095
81.76000 24.221
81.78000 21.122
81.80000 24.162
81.82000 28.596
81.84000 27.581
81.86000 28.492
81.88000 27.047
81.90000 30.613
81.92000 29.414
81.94000 25.640
81.96000 29.483
81.98000 27.461
82.00000 25.336
82.02000 29.541
82.04000 34.008
82.06000 34.261
82.08000 31.118
82.10000 30.759
82.12000 34.603
82.14000 30.816
82.16000 28.472
82.18000 28.408
82.20000 32.658
82.22000 31.497
82.24000 32.687
82.26000 30.769
82.28000 25.607
82.30000 26.432
82.32000 26.492
82.34000 30.686
82.36000 37.701
82.38000 34.781
82.40000 27.688
82.42000 27.204
82.44000 26.107
82.46000 23.316
82.48000 19.238
82.50000 23.803
82.52000 19.906
82.54000 21.373
82.56000 26.699
82.58000 26.401
82.60000 21.209
82.62000 18.439
82.64000 21.002
82.66000 22.637
82.68000 23.235
82.70000 21.332
82.72000 20.621
82.74000 23.363
82.76000 19.903
82.78000 16.553
82.80000 18.515
82.82000 15.790
82.84000 14.397
82.86000 14.722
82.88000 12.696
82.90000 11.990
82.92000 11.538
82.94000 14.800
82.96000 14.357
82.98000 15.559
83.00000 10.855
83.02000 10.297
83.04000 10.216
83.06000 10.751
83.08000 16.352
83.10000 9.428
83.12000 7.343
83.14000 10.211
83.16000 6.547
83.18000 10.008
83.20000 13.496
83.22000 10.319
83.24000 8.790
83.26000 6.692
83.28000 7.691
83.30000 5.887
83.32000 5.042
83.34000 4.928
83.36000 2.668
83.38000 8.862
83.40000 7.674
83.42000 3.817
83.44000 6.275
83.46000 4.238
83.48000 3.214
83.50000 3.640
83.52000 3.964
83.54000 3.235
83.56000 3.861
83.58000 2.700
83.60000 2.939
83.62000 0.176
83.64000 0.553
83.66000 0.785
83.68000 4.139
83.70000 2.924
83.72000 2.219
83.74000 2.633
83.76000 3.364
83.78000 5.076
83.80000 1.766
83.82000 0.596
83.84000 -1.194
83.86000 -2.054
83.88000 -2.386
83.90000 -1.129
83.92000 1.342
83.94000 3.434
83.96000 2.675
83.98000 0.267
84.00000 4.328
84.02000 3.128
84.04000 2.142
84.06000 1.740
84.08000 1.948
84.10000 2.916
84.12000 2.606
84.14000 -0.695
84.16000 2.291
84.18000 3.290
84.20000 0.216
84.22000 -0.026
84.24000 -0.001
84.26000 6.143
84.28000 -1.846
84.30000 -2.349
84.32000 0.574
84.34000 0.084
84.36000 0.481
84.38000 4.864
84.40000 2.322
84.42000 0.981
84.44000 2.749
84.46000 5.196
84.48000 2.608
84.50000 3.430
84.52000 -1.904
84.54000 -0.726
84.56000 0.510
84.58000 0.724
84.60000 0.861
84.62000 1.797
84.64000 -0.646
84.66000 2.665
84.68000 3.380
84.70000 2.323
84.72000 1.809
84.74000 -2.345
84.76000 1.143
84.78000 2.519
84.80000 1.220
84.82000 3.457
84.84000 4.039
84.86000 2.611
84.88000 2.803
84.90000 3.061
84.92000 -1.069
84.94000 -1.733
84.96000 0.717
84.98000 3.046
85.00000 -0.527
85.02000 1.420
85.04000 0.471
85.06000 5.132
85.08000 5.291
85.10000 3.080
85.12000 2.284
85.14000 1.842
85.16000 3.098
85.18000 3.344
85.20000 2.722
85.22000 6.241
85.24000 6.339
85.26000 2.814
85.28000 5.700
85.30000 4.910
85.32000 4.717
85.34000 6.058
85.36000 8.573
85.38000 7.334
85.40000 8.487
85.42000 7.277
85.44000 7.025
85.46000 7.106
85.48000 7.560
85.50000 7.061
85.52000 9.418
85.54000 8.769
85.56000 7.527
85.58000 11.124
85.60000 13.429
85.62000 15.850
85.64000 13.025
85.66000 10.431
85.68000 13.364
85.70000 13.514
85.72000 16.740
85.74000 15.550
85.76000 14.991
85.78000 14.111
85.80000 11.496
85.82000 15.013
85.84000 15.340
85.86000 17.984
85.88000 15.660
85.90000 17.240
85.92000 19.636
85.94000 19.303
85.96000 20.707
85.98000 16.860
86.00000 20.096
86.02000 22.454
86.04000 22.788
86.06000 18.529
86.08000 23.577
86.10000 26.566
86.12000 21.943
86.14000 26.096
86.16000 26.122
86.18000 21.493
86.20000 20.580
86.22000 22.318
86.24000 25.615
86.26000 27.424
86.28000 30.549
86.30000 25.258
86.32000 29.015
86.34000 33.332
86.36000 29.601
86.38000 31.875
86.40000 26.147
86.42000 27.227
86.44000 27.599
86.46000 26.496
86.48000 26.724
86.50000 26.275
86.52000 27.914
86.54000 28.601
86.56000 25.262
86.58000 23.797
86.60000 20.625
86.62000 19.959
86.64000 24.037
86.66000 22.178
86.68000 22.924
86.70000 23.081
86.72000 20.583
86.74000 15.638
86.76000 13.055
86.78000 17.426
86.80000 15.965
86.82000 14.267
86.84000 13.653
86.86000 12.251
86.88000 19.545
86.90000 15.959
86.92000 17.132
86.94000 18.915
86.96000 15.368
86.98000 12.360
87.00000 13.898
87.02000 9.653
87.04000 13.418
87.06000 11.430
87.08000 8.535
87.10000 8.325
87.12000 14.611
87.14000 10.947
87.16000 9.969
87.18000 9.478
87.20000 8.444
87.22000 7.112
87.24000 7.662
87.26000 11.072
87.28000 9.306
87.30000 6.464
87.32000 8.888
87.34000 5.059
87.36000 7.170
87.38000 8.151
87.40000 6.099
87.42000 2.667
87.44000 5.591
87.46000 5.011
87.48000 2.904
87.50000 1.278
87.52000 1.885
87.54000 -0.175
87.56000 3.175
87.58000 7.032
87.60000 2.348
87.62000 1.451
87.64000 4.887
87.66000 2.216
87.68000 0.721
87.70000 -0.301
87.72000 3.829
87.74000 5.444
87.76000 -0.414
87.78000 2.240
87.80000 5.490
87.82000 3.185
87.84000 3.468
87.86000 5.744
87.88000 0.509
87.90000 0.297
87.92000 2.298
87.94000 2.204
87.96000 -1.839
87.98000 0.136
88.00000 2.958
88.02000 4.225
88.04000 4.525
88.06000 -0.006
88.08000 -2.164
88.10000 -1.514
88.12000 0.926
88.14000 1.189
88.16000 4.315
88.18000 4.750
88.20000 1.597
88.22000 1.955
88.24000 0.743
88.26000 1.586
88.28000 3.181
88.30000 -0.833
88.32000 -1.779
88.34000 2.307
88.36000 1.496
88.38000 0.292
88.40000 2.520
88.42000 7.470
88.44000 2.848
88.46000 0.981
88.48000 0.136
88.50000 0.567
88.52000 -0.264
88.54000 -0.226
88.56000 5.148
88.58000 2.051
88.60000 2.759
88.62000 2.106
88.64000 2.698
88.66000 1.831
88.68000 -0.641
88.70000 -0.301
88.72000 4.022
88.74000 -0.170
88.76000 -1.455
88.78000 2.330
88.80000 1.753
88.82000 2.441
88.84000 5.490
88.86000 5.099
88.88000 4.763
88.90000 5.875
88.92000 1.002
88.94000 0.065
88.96000 3.553
88.98000 0.129
89.00000 1.624
89.02000 4.897
89.04000 6.980
89.06000 4.080
89.08000 1.422
89.10000 1.455
89.12000 3.227
89.14000 6.249
89.16000 2.804
89.18000 3.745
89.20000 5.216
89.22000 2.524
89.24000 -2.053
89.26000 1.724
89.28000 4.195
89.30000 6.886
89.32000 4.210
89.34000 5.462
89.36000 4.205
89.38000 2.923
89.40000 2.453
89.42000 4.304
89.44000 2.717
89.46000 0.475
89.48000 5.768
89.50000 6.100
89.52000 2.558
89.54000 -0.765
89.56000 5.299
89.58000 4.467
89.60000 0.328
89.62000 2.346
89.64000 1.491
89.66000 2.263
89.68000 1.509
89.70000 2.707
89.72000 1.426
89.74000 1.409
89.76000 0.690
89.78000 0.738
89.80000 3.636
89.82000 1.486
89.84000 -1.253
89.86000 -0.543
89.88000 2.348
89.90000 2.067
89.92000 2.289
89.94000 0.920
89.96000 -1.600
89.98000 -0.233
90.00000 -0.361
90.02000 -1.011
90.04000 0.043
90.06000 -1.749
90.08000 -0.771
90.10000 2.129
90.12000 3.753
90.14000 3.883
90.16000 4.594
90.18000 -1.693
90.20000 -1.230
90.22000 -1.762
90.24000 2.061
90.26000 -0.674
90.28000 -1.579
90.30000 -1.189
90.32000 1.621
90.34000 3.173
90.36000 2.326
90.38000 1.159
90.40000 -1.034
90.42000 0.824
90.44000 4.016
90.46000 3.579
90.48000 -1.393
90.50000 -2.087
90.52000 2.064
90.54000 3.524
90.56000 2.257
90.58000 -0.995
90.60000 0.034
90.62000 0.665
90.64000 0.492
90.66000 2.635
90.68000 2.975
90.70000 2.324
90.72000 1.557
90.74000 0.454
90.76000 2.845
90.78000 2.348
90.80000 1.704
90.82000 1.763
90.84000 4.106
90.86000 5.010
90.88000 1.081
90.90000 3.431
90.92000 2.193
90.94000 -0.330
90.96000 0.632
90.98000 -0.328
91.00000 -2.066
91.02000 1.622
91.04000 2.840
91.06000 2.446
91.08000 2.226
91.10000 1.867
91.12000 2.851
91.14000 4.348
91.16000 5.295
91.18000 5.986
91.20000 4.348
91.22000 2.071
91.24000 3.478
91.26000 1.702
91.28000 2.243
91.30000 1.675
91.32000 1.480
91.34000 1.253
91.36000 -0.879
91.38000 5.014
91.40000 6.765
91.42000 2.433
91.44000 5.378
91.46000 6.275
91.48000 2.829
91.50000 1.061
91.52000 3.864
91.54000 1.272
91.56000 4.068
91.58000 5.019
91.60000 1.017
91.62000 -1.385
91.64000 0.294
91.66000 4.178
91.68000 4.677
91.70000 1.066
91.72000 -1.279
91.74000 0.866
91.76000 -1.881
91.78000 2.577
91.80000 5.973
91.82000 2.053
91.84000 4.902
91.86000 2.283
91.88000 2.134
91.90000 3.801
91.92000 3.439
91.94000 2.842
91.96000 1.338
91.98000 -0.634
92.00000 -0.351
92.02000 5.256
92.04000 7.604
92.06000 2.691
92.08000 4.627
92.10000 5.250
92.12000 3.937
92.14000 2.828
92.16000 4.428
92.18000 1.024
92.20000 2.792
92.22000 5.568
92.24000 3.654
92.26000 4.086
92.28000 5.094
92.30000 1.543
92.32000 3.665
92.34000 3.482
92.36000 4.321
92.38000 4.978
92.40000 4.104
92.42000 3.837
92.44000 4.952
92.46000 1.987
92.48000 -2.035
92.50000 2.381
92.52000 3.924
92.54000 2.874
92.56000 5.072
92.58000 3.262
92.60000 -0.441
92.62000 -1.814
92.64000 3.325
92.66000 3.442
92.68000 0.576
92.70000 1.320
92.72000 4.932
92.74000 6.038
92.76000 5.188
92.78000 6.599
92.80000 6.806
92.82000 3.026
92.84000 3.024
92.86000 2.713
92.88000 4.928
92.90000 5.579
92.92000 8.196
92.94000 4.387
92.96000 4.064
92.98000 3.617
93.00000 2.330
93.02000 5.616
93.04000 10.270
93.06000 11.391
93.08000 4.232
93.10000 5.459
93.12000 6.167
93.14000 3.489
93.16000 2.923
93.18000 3.150
93.20000 6.125
93.22000 6.065
93.24000 4.008
93.26000 5.470
93.28000 5.108
93.30000 0.834
93.32000 -2.023
93.34000 4.495
93.36000 6.483
93.38000 5.541
93.40000 3.608
93.42000 8.246
93.44000 3.191
93.46000 4.288
93.48000 4.378
93.50000 1.561
93.52000 4.496
93.54000 4.421
93.56000 1.886
93.58000 0.830
93.60000 2.942
93.62000 8.260
93.64000 4.787
93.66000 2.625
93.68000 3.039
93.70000 2.192
93.72000 0.083
93.74000 -0.705
93.76000 -0.300
93.78000 0.342
93.80000 2.479
93.82000 8.437
93.84000 4.539
93.86000 1.686
93.88000 3.842
93.90000 0.849
93.92000 3.582
93.94000 7.288
93.96000 6.371
93.98000 7.113
94.00000 0.697
94.02000 0.552
94.04000 1.989
94.06000 2.986
94.08000 3.842
94.10000 1.848
94.12000 4.568
94.14000 5.315
94.16000 3.896
94.18000 3.570
94.20000 4.946
94.22000 5.157
94.24000 1.635
94.26000 -1.783
94.28000 -0.953
94.30000 1.577
94.32000 2.785
94.34000 4.652
94.36000 2.275
94.38000 3.588
94.40000 2.389
94.42000 3.706
94.44000 1.880
94.46000 0.546
94.48000 5.019
94.50000 1.922
94.52000 -1.448
94.54000 0.439
94.56000 0.324
94.58000 5.014
94.60000 3.441
94.62000 1.217
94.64000 1.041
94.66000 4.877
94.68000 2.922
94.70000 2.544
94.72000 1.778
94.74000 3.471
94.76000 7.189
94.78000 5.138
94.80000 1.559
94.82000 1.646
94.84000 2.547
94.86000 -0.075
94.88000 -1.338
94.90000 0.325
94.92000 4.346
94.94000 4.226
94.96000 6.551
94.98000 6.002
95.00000 5.032
95.02000 1.324
95.04000 4.263
95.06000 5.476
95.08000 1.101
95.10000 4.419
95.12000 4.652
95.14000 2.862
95.16000 2.376
95.18000 2.896
95.20000 3.060
95.22000 2.621
95.24000 2.731
95.26000 6.851
95.28000 2.118
95.30000 1.527
95.32000 5.739
95.34000 4.249
95.36000 2.263
95.38000 2.243
95.40000 -1.561
95.42000 1.182
95.44000 1.628
95.46000 -2.040
95.48000 0.021
95.50000 7.577
95.52000 9.680
95.54000 7.542
95.56000 3.910
95.58000 4.820
95.60000 2.907
95.62000 3.862
95.64000 7.493
95.66000 4.227
95.68000 6.241
95.70000 4.009
95.72000 6.103
95.74000 3.217
95.76000 1.822
95.78000 1.333
95.80000 6.171
95.82000 8.969
95.84000 8.638
95.86000 5.016
95.88000 10.047
95.90000 10.679
95.92000 8.476
95.94000 7.219
95.96000 3.716
95.98000 3.306
96.00000 6.583
96.02000 4.505
96.04000 8.306
96.06000 5.476
96.08000 7.516
96.10000 5.785
96.12000 5.131
96.14000 9.213
96.16000 2.196
96.18000 12.721
96.20000 16.406
96.22000 4.242
96.24000 -2.011
96.26000 0.531
96.28000 5.887
96.30000 7.069
96.32000 7.371
96.34000 9.566
96.36000 4.991
96.38000 5.232
96.40000 8.037
96.42000 6.640
96.44000 6.514
96.46000 5.369
96.48000 5.066
96.50000 5.369
96.52000 10.099
96.54000 5.155
96.56000 3.354
96.58000 5.655
96.60000 5.495
96.62000 5.891
96.64000 7.096
96.66000 4.473
96.68000 7.178
96.70000 6.843
96.72000 7.032
96.74000 4.224
96.76000 1.453
96.78000 6.650
96.80000 4.242
96.82000 7.139
96.84000 7.578
96.86000 7.885
96.88000 5.556
96.90000 3.070
96.92000 2.682
96.94000 3.798
96.96000 1.272
96.98000 7.643
97.00000 1.477
97.02000 5.664
97.04000 7.182
97.06000 7.959
97.08000 4.577
97.10000 4.397
97.12000 2.699
97.14000 3.423
97.16000 3.762
97.18000 2.010
97.20000 5.903
97.22000 9.651
97.24000 3.349
97.26000 3.152
97.28000 7.273
97.30000 0.803
97.32000 1.674
97.34000 7.324
97.36000 3.700
97.38000 4.336
97.40000 8.470
97.42000 8.561
97.44000 3.787
97.46000 3.942
97.48000 4.407
97.50000 3.600
97.52000 8.390
97.54000 9.774
97.56000 4.313
97.58000 3.146
97.60000 3.657
97.62000 5.160
97.64000 4.738
97.66000 3.556
97.68000 3.668
97.70000 2.491
97.72000 4.505
97.74000 6.944
97.76000 10.599
97.78000 5.644
97.80000 4.080
97.82000 10.102
97.84000 11.190
97.86000 9.634
97.88000 12.958
97.90000 4.893
97.92000 5.234
97.94000 6.427
97.96000 1.417
97.98000 3.755
98.00000 11.878
98.02000 9.654
98.04000 14.200
98.06000 7.261
98.08000 4.375
98.10000 8.368
98.12000 5.520
98.14000 5.465
98.16000 7.487
98.18000 7.567
98.20000 9.871
98.22000 -0.288
98.24000 1.233
98.26000 5.396
98.28000 13.500
98.30000 9.351
98.32000 7.673
98.34000 5.809
98.36000 13.427
98.38000 10.480
98.40000 -1.955
98.42000 -1.095
98.44000 6.912
98.46000 8.432
98.48000 9.711
98.50000 6.596
98.52000 8.294
98.54000 4.152
98.56000 6.153
98.58000 11.110
98.60000 7.192
98.62000 2.728
98.64000 8.652
98.66000 4.203
98.68000 3.347
98.70000 6.571
98.72000 8.348
98.74000 6.243
98.76000 0.527
98.78000 4.403
98.80000 4.351
98.82000 2.147
98.84000 5.586
98.86000 6.598
98.88000 3.465
98.90000 3.596
98.92000 8.363
98.94000 11.233
98.96000 10.816
98.98000 10.701
99.00000 12.204
99.02000 8.028
99.04000 9.254
99.06000 13.748
99.08000 12.941
99.10000 10.096
99.12000 4.983
99.14000 6.332
99.16000 9.501
99.18000 -0.045
99.20000 8.282
99.22000 12.810
99.24000 10.814
99.26000 14.244
99.28000 13.224
99.30000 13.222
99.32000 4.877
99.34000 1.572
99.36000 9.217
99.38000 11.634
99.40000 7.065
99.42000 3.819
99.44000 -1.975
99.46000 4.203
99.48000 12.276
99.50000 12.721
99.52000 3.163
99.54000 11.745
99.56000 15.383
99.58000 6.439
99.60000 3.233
99.62000 -2.710
99.64000 6.942
99.66000 5.868
99.68000 12.394
99.70000 14.067
99.72000 4.742
99.74000 5.388
99.76000 12.092
99.78000 11.123
99.80000 4.782
99.82000 6.703
99.84000 10.085
99.86000 17.440
99.88000 17.296
99.90000 4.550
99.92000 -2.059
99.94000 -2.093
99.96000 6.368
99.98000 0.000
