'Id: "0011388" Comment: "Integrate frame 0011388_Au-Ir-Rh_Rh-rich_XRD-Mapping-230-0000.gfrmwith cursor Wedge Cursor #5" Operator: "B?rgel" Anode: "Cu" Wavelength: "1.5406" Scantype: "2Theta (TwoTheta)" TimePerStep: "1" X: "0" Y: "13.5" Z: "5.95" 
10.00000 0.000
10.02000 -4.375
10.04000 -4.258
10.06000 -4.197
10.08000 12.126
10.10000 11.967
10.12000 10.419
10.14000 18.711
10.16000 14.170
10.18000 2.946
10.20000 4.231
10.22000 5.086
10.24000 21.465
10.26000 1.516
10.28000 9.068
10.30000 8.332
10.32000 3.688
10.34000 1.644
10.36000 6.433
10.38000 1.689
10.40000 3.254
10.42000 21.072
10.44000 11.559
10.46000 7.956
10.48000 19.069
10.50000 16.568
10.52000 14.546
10.54000 13.969
10.56000 0.508
10.58000 5.805
10.60000 19.231
10.62000 16.223
10.64000 4.090
10.66000 0.706
10.68000 3.343
10.70000 10.940
10.72000 15.848
10.74000 9.028
10.76000 -3.556
10.78000 16.051
10.80000 5.368
10.82000 -2.531
10.84000 1.282
10.86000 11.290
10.88000 19.993
10.90000 15.664
10.92000 14.446
10.94000 20.870
10.96000 16.748
10.98000 7.306
11.00000 8.778
11.02000 15.508
11.04000 15.627
11.06000 7.435
11.08000 -6.425
11.10000 16.111
11.12000 11.405
11.14000 22.646
11.16000 11.168
11.18000 7.250
11.20000 17.719
11.22000 16.256
11.24000 9.696
11.26000 0.877
11.28000 16.011
11.30000 10.107
11.32000 -4.321
11.34000 2.690
11.36000 8.837
11.38000 8.834
11.40000 12.677
11.42000 3.478
11.44000 3.960
11.46000 12.503
11.48000 9.175
11.50000 8.159
11.52000 13.197
11.54000 15.743
11.56000 14.650
11.58000 10.420
11.60000 24.562
11.62000 27.107
11.64000 17.969
11.66000 11.356
11.68000 14.161
11.70000 19.155
11.72000 24.847
11.74000 16.907
11.76000 9.905
11.78000 18.655
11.80000 15.295
11.82000 9.323
11.84000 9.536
11.86000 16.939
11.88000 8.147
11.90000 12.372
11.92000 22.206
11.94000 12.002
11.96000 9.062
11.98000 12.922
12.00000 12.802
12.02000 14.232
12.04000 3.385
12.06000 9.420
12.08000 -1.563
12.10000 -4.367
12.12000 3.097
12.14000 9.804
12.16000 17.605
12.18000 12.623
12.20000 4.794
12.22000 5.404
12.24000 12.105
12.26000 21.823
12.28000 23.775
12.30000 23.876
12.32000 17.014
12.34000 10.530
12.36000 16.945
12.38000 11.278
12.40000 1.797
12.42000 15.165
12.44000 11.025
12.46000 6.269
12.48000 6.661
12.50000 8.336
12.52000 11.119
12.54000 7.060
12.56000 10.070
12.58000 11.084
12.60000 21.578
12.62000 20.543
12.64000 26.439
12.66000 25.374
12.68000 17.073
12.70000 9.220
12.72000 8.946
12.74000 12.440
12.76000 18.938
12.78000 18.747
12.80000 14.185
12.82000 10.789
12.84000 12.946
12.86000 14.532
12.88000 16.820
12.90000 3.370
12.92000 6.007
12.94000 10.834
12.96000 14.315
12.98000 16.007
13.00000 17.404
13.02000 15.304
13.04000 19.010
13.06000 14.004
13.08000 8.328
13.10000 16.466
13.12000 23.009
13.14000 14.316
13.16000 14.616
13.18000 16.777
13.20000 20.453
13.22000 15.514
13.24000 12.585
13.26000 21.234
13.28000 12.904
13.30000 15.864
13.32000 10.178
13.34000 17.017
13.36000 8.298
13.38000 13.664
13.40000 14.208
13.42000 16.998
13.44000 15.546
13.46000 14.026
13.48000 5.672
13.50000 7.344
13.52000 7.681
13.54000 17.808
13.56000 19.179
13.58000 12.907
13.60000 10.015
13.62000 18.551
13.64000 18.584
13.66000 18.297
13.68000 15.239
13.70000 9.025
13.72000 9.679
13.74000 9.727
13.76000 10.748
13.78000 11.722
13.80000 11.937
13.82000 11.433
13.84000 8.070
13.86000 11.129
13.88000 6.780
13.90000 8.002
13.92000 5.248
13.94000 2.057
13.96000 7.844
13.98000 5.091
14.00000 14.407
14.02000 15.625
14.04000 9.572
14.06000 8.497
14.08000 3.734
14.10000 1.723
14.12000 -3.693
14.14000 4.122
14.16000 6.647
14.18000 5.774
14.20000 9.414
14.22000 11.334
14.24000 16.629
14.26000 6.152
14.28000 14.296
14.30000 19.273
14.32000 14.659
14.34000 9.248
14.36000 8.801
14.38000 9.670
14.40000 7.609
14.42000 1.305
14.44000 12.949
14.46000 16.310
14.48000 7.972
14.50000 6.444
14.52000 13.716
14.54000 20.480
14.56000 11.011
14.58000 3.271
14.60000 6.731
14.62000 22.389
14.64000 14.227
14.66000 16.297
14.68000 10.504
14.70000 4.090
14.72000 8.245
14.74000 3.463
14.76000 -3.979
14.78000 -4.477
14.80000 5.683
14.82000 9.779
14.84000 13.508
14.86000 9.928
14.88000 2.889
14.90000 0.842
14.92000 2.006
14.94000 8.324
14.96000 7.173
14.98000 8.598
15.00000 8.387
15.02000 12.824
15.04000 16.896
15.06000 10.422
15.08000 12.115
15.10000 15.641
15.12000 5.607
15.14000 12.692
15.16000 21.574
15.18000 6.552
15.20000 2.751
15.22000 4.231
15.24000 -4.271
15.26000 2.286
15.28000 8.077
15.30000 2.370
15.32000 6.461
15.34000 10.288
15.36000 8.248
15.38000 7.288
15.40000 -1.477
15.42000 3.923
15.44000 17.460
15.46000 9.037
15.48000 12.975
15.50000 14.419
15.52000 6.497
15.54000 7.290
15.56000 11.565
15.58000 12.042
15.60000 12.072
15.62000 6.627
15.64000 6.118
15.66000 11.796
15.68000 4.658
15.70000 9.242
15.72000 8.468
15.74000 8.877
15.76000 5.408
15.78000 4.876
15.80000 8.243
15.82000 8.934
15.84000 0.940
15.86000 0.891
15.88000 0.324
15.90000 9.956
15.92000 8.858
15.94000 0.708
15.96000 4.406
15.98000 -2.614
16.00000 -3.163
16.02000 9.705
16.04000 7.326
16.06000 1.546
16.08000 7.424
16.10000 8.629
16.12000 2.421
16.14000 1.970
16.16000 3.129
16.18000 6.088
16.20000 0.032
16.22000 -4.439
16.24000 1.265
16.26000 8.510
16.28000 -0.713
16.30000 6.477
16.32000 10.069
16.34000 -3.433
16.36000 -1.654
16.38000 1.756
16.40000 3.694
16.42000 4.397
16.44000 -2.523
16.46000 8.111
16.48000 10.810
16.50000 10.954
16.52000 2.802
16.54000 -0.178
16.56000 -0.428
16.58000 3.482
16.60000 5.464
16.62000 12.639
16.64000 11.614
16.66000 14.916
16.68000 8.773
16.70000 4.128
16.72000 3.833
16.74000 5.264
16.76000 1.668
16.78000 10.216
16.80000 11.594
16.82000 8.898
16.84000 8.001
16.86000 8.380
16.88000 10.266
16.90000 -1.124
16.92000 1.820
16.94000 7.469
16.96000 4.637
16.98000 1.531
17.00000 6.763
17.02000 6.582
17.04000 1.138
17.06000 3.234
17.08000 1.903
17.10000 12.565
17.12000 13.950
17.14000 15.383
17.16000 4.156
17.18000 3.116
17.20000 8.299
17.22000 2.340
17.24000 8.000
17.26000 11.604
17.28000 4.535
17.30000 5.240
17.32000 1.928
17.34000 -1.530
17.36000 -3.479
17.38000 0.796
17.40000 6.441
17.42000 5.219
17.44000 -0.784
17.46000 3.277
17.48000 -3.047
17.50000 -2.347
17.52000 -4.380
17.54000 -0.982
17.56000 7.091
17.58000 3.873
17.60000 -2.672
17.62000 -3.950
17.64000 2.442
17.66000 1.679
17.68000 2.618
17.70000 5.987
17.72000 4.430
17.74000 0.680
17.76000 6.294
17.78000 0.013
17.80000 3.836
17.82000 13.282
17.84000 8.236
17.86000 1.761
17.88000 1.316
17.90000 1.225
17.92000 1.554
17.94000 1.306
17.96000 1.790
17.98000 1.317
18.00000 6.798
18.02000 12.902
18.04000 14.816
18.06000 8.729
18.08000 4.183
18.10000 5.303
18.12000 1.310
18.14000 7.710
18.16000 10.991
18.18000 15.145
18.20000 4.514
18.22000 0.451
18.24000 11.116
18.26000 6.740
18.28000 6.796
18.30000 8.168
18.32000 5.948
18.34000 6.711
18.36000 5.303
18.38000 1.915
18.40000 0.031
18.42000 1.439
18.44000 6.262
18.46000 8.951
18.48000 11.022
18.50000 5.473
18.52000 0.266
18.54000 2.625
18.56000 -4.317
18.58000 -3.374
18.60000 -1.519
18.62000 6.628
18.64000 8.291
18.66000 7.932
18.68000 4.295
18.70000 -0.397
18.72000 2.328
18.74000 1.451
18.76000 -3.038
18.78000 2.209
18.80000 6.402
18.82000 2.479
18.84000 0.685
18.86000 9.362
18.88000 8.955
18.90000 5.180
18.92000 6.578
18.94000 1.066
18.96000 3.159
18.98000 9.963
19.00000 7.836
19.02000 7.377
19.04000 8.968
19.06000 9.572
19.08000 9.524
19.10000 3.617
19.12000 6.780
19.14000 10.342
19.16000 10.060
19.18000 1.429
19.20000 0.562
19.22000 3.922
19.24000 2.476
19.26000 -4.302
19.28000 -3.580
19.30000 -3.649
19.32000 -3.635
19.34000 7.331
19.36000 4.038
19.38000 4.297
19.40000 5.716
19.42000 8.195
19.44000 3.428
19.46000 3.689
19.48000 0.303
19.50000 1.783
19.52000 3.602
19.54000 8.202
19.56000 9.998
19.58000 3.123
19.60000 0.594
19.62000 -1.964
19.64000 -0.488
19.66000 0.324
19.68000 2.954
19.70000 5.405
19.72000 6.840
19.74000 8.036
19.76000 0.303
19.78000 0.150
19.80000 -2.162
19.82000 -3.707
19.84000 -1.899
19.86000 4.373
19.88000 0.973
19.90000 4.323
19.92000 3.960
19.94000 2.841
19.96000 5.997
19.98000 6.412
20.00000 5.416
20.02000 8.586
20.04000 2.834
20.06000 2.675
20.08000 -1.279
20.10000 -2.943
20.12000 -0.774
20.14000 0.350
20.16000 2.062
20.18000 -1.431
20.20000 -3.013
20.22000 1.066
20.24000 2.010
20.26000 6.090
20.28000 1.766
20.30000 -0.251
20.32000 -0.569
20.34000 1.643
20.36000 4.295
20.38000 1.870
20.40000 4.422
20.42000 4.922
20.44000 4.523
20.46000 12.091
20.48000 2.283
20.50000 0.371
20.52000 6.349
20.54000 2.774
20.56000 4.639
20.58000 7.850
20.60000 2.739
20.62000 0.745
20.64000 5.878
20.66000 4.822
20.68000 2.853
20.70000 4.738
20.72000 0.648
20.74000 -0.868
20.76000 -0.683
20.78000 0.537
20.80000 3.508
20.82000 3.568
20.84000 1.212
20.86000 1.164
20.88000 4.964
20.90000 3.171
20.92000 9.298
20.94000 9.959
20.96000 8.515
20.98000 3.938
21.00000 4.326
21.02000 2.180
21.04000 3.857
21.06000 6.008
21.08000 2.611
21.10000 -4.177
21.12000 -3.752
21.14000 0.600
21.16000 -1.717
21.18000 -1.783
21.20000 1.369
21.22000 11.257
21.24000 9.946
21.26000 4.495
21.28000 7.598
21.30000 9.147
21.32000 6.491
21.34000 5.324
21.36000 3.391
21.38000 5.819
21.40000 10.140
21.42000 10.274
21.44000 6.943
21.46000 4.685
21.48000 1.132
21.50000 6.428
21.52000 11.167
21.54000 6.980
21.56000 10.199
21.58000 3.265
21.60000 -4.129
21.62000 4.038
21.64000 3.165
21.66000 5.424
21.68000 9.900
21.70000 9.900
21.72000 6.689
21.74000 3.757
21.76000 6.382
21.78000 8.494
21.80000 9.962
21.82000 6.766
21.84000 4.438
21.86000 6.164
21.88000 1.268
21.90000 7.384
21.92000 8.673
21.94000 11.478
21.96000 8.221
21.98000 3.876
22.00000 3.993
22.02000 5.997
22.04000 4.106
22.06000 6.939
22.08000 9.678
22.10000 3.778
22.12000 5.402
22.14000 4.334
22.16000 3.242
22.18000 2.475
22.20000 4.420
22.22000 4.029
22.24000 1.609
22.26000 2.659
22.28000 -4.019
22.30000 -2.816
22.32000 6.724
22.34000 5.000
22.36000 2.987
22.38000 -2.807
22.40000 5.145
22.42000 3.264
22.44000 0.913
22.46000 1.212
22.48000 1.658
22.50000 -3.118
22.52000 -4.111
22.54000 4.070
22.56000 4.079
22.58000 4.876
22.60000 6.557
22.62000 4.855
22.64000 3.465
22.66000 2.791
22.68000 6.544
22.70000 6.953
22.72000 -1.014
22.74000 0.356
22.76000 2.822
22.78000 3.825
22.80000 9.249
22.82000 5.590
22.84000 2.420
22.86000 0.365
22.88000 -0.973
22.90000 5.529
22.92000 5.109
22.94000 1.591
22.96000 5.694
22.98000 1.016
23.00000 4.556
23.02000 6.510
23.04000 1.893
23.06000 7.450
23.08000 7.977
23.10000 4.597
23.12000 1.873
23.14000 3.758
23.16000 4.545
23.18000 1.196
23.20000 -1.597
23.22000 3.551
23.24000 6.281
23.26000 3.118
23.28000 5.559
23.30000 7.325
23.32000 7.179
23.34000 3.978
23.36000 -0.624
23.38000 6.135
23.40000 12.037
23.42000 2.108
23.44000 0.873
23.46000 7.522
23.48000 2.376
23.50000 1.883
23.52000 6.007
23.54000 9.382
23.56000 10.264
23.58000 11.106
23.60000 5.560
23.62000 4.502
23.64000 -0.223
23.66000 2.325
23.68000 5.231
23.70000 9.069
23.72000 4.631
23.74000 2.968
23.76000 6.374
23.78000 7.163
23.80000 1.901
23.82000 4.803
23.84000 3.475
23.86000 -2.845
23.88000 2.847
23.90000 5.025
23.92000 7.455
23.94000 7.201
23.96000 4.106
23.98000 -0.659
24.00000 1.005
24.02000 1.088
24.04000 7.237
24.06000 9.931
24.08000 4.068
24.10000 4.690
24.12000 2.915
24.14000 -3.993
24.16000 -0.832
24.18000 1.457
24.20000 5.824
24.22000 7.490
24.24000 5.158
24.26000 2.388
24.28000 3.613
24.30000 1.786
24.32000 -0.789
24.34000 -1.650
24.36000 5.456
24.38000 9.685
24.40000 10.978
24.42000 5.618
24.44000 2.591
24.46000 5.929
24.48000 5.931
24.50000 13.651
24.52000 8.792
24.54000 1.244
24.56000 3.575
24.58000 2.925
24.60000 -1.352
24.62000 1.098
24.64000 5.747
24.66000 8.796
24.68000 3.166
24.70000 2.572
24.72000 3.563
24.74000 1.375
24.76000 2.732
24.78000 1.131
24.80000 -3.968
24.82000 1.732
24.84000 2.701
24.86000 5.605
24.88000 4.955
24.90000 3.051
24.92000 5.577
24.94000 3.801
24.96000 0.834
24.98000 3.629
25.00000 9.665
25.02000 5.296
25.04000 5.414
25.06000 6.897
25.08000 5.788
25.10000 1.750
25.12000 0.831
25.14000 0.194
25.16000 1.264
25.18000 5.817
25.20000 7.654
25.22000 6.646
25.24000 3.990
25.26000 7.163
25.28000 9.012
25.30000 4.509
25.32000 1.287
25.34000 7.139
25.36000 14.419
25.38000 6.334
25.40000 1.612
25.42000 4.771
25.44000 -1.441
25.46000 0.335
25.48000 2.559
25.50000 -0.069
25.52000 -0.739
25.54000 0.162
25.56000 4.609
25.58000 2.549
25.60000 3.499
25.62000 4.062
25.64000 2.713
25.66000 5.411
25.68000 7.221
25.70000 6.727
25.72000 2.284
25.74000 -1.091
25.76000 -1.842
25.78000 3.821
25.80000 3.839
25.82000 2.332
25.84000 4.295
25.86000 4.774
25.88000 2.887
25.90000 0.864
25.92000 0.843
25.94000 3.258
25.96000 3.664
25.98000 3.015
26.00000 1.701
26.02000 2.187
26.04000 -0.951
26.06000 -2.107
26.08000 3.268
26.10000 3.571
26.12000 2.844
26.14000 -0.442
26.16000 4.873
26.18000 8.259
26.20000 -0.122
26.22000 -0.111
26.24000 2.869
26.26000 3.699
26.28000 1.660
26.30000 3.108
26.32000 0.382
26.34000 1.101
26.36000 2.083
26.38000 4.271
26.40000 1.921
26.42000 -1.987
26.44000 -3.903
26.46000 -3.279
26.48000 -0.142
26.50000 -2.541
26.52000 -0.205
26.54000 1.206
26.56000 2.862
26.58000 1.747
26.60000 2.845
26.62000 9.169
26.64000 6.648
26.66000 3.068
26.68000 3.817
26.70000 11.047
26.72000 14.036
26.74000 6.437
26.76000 4.073
26.78000 7.408
26.80000 8.503
26.82000 3.820
26.84000 5.819
26.86000 6.165
26.88000 5.982
26.90000 2.672
26.92000 2.173
26.94000 5.100
26.96000 3.850
26.98000 -1.062
27.00000 -0.885
27.02000 1.547
27.04000 0.454
27.06000 2.315
27.08000 -1.983
27.10000 -0.191
27.12000 -2.531
27.14000 5.377
27.16000 8.305
27.18000 2.540
27.20000 4.129
27.22000 6.463
27.24000 1.218
27.26000 0.200
27.28000 0.349
27.30000 -0.455
27.32000 3.956
27.34000 8.806
27.36000 3.704
27.38000 2.418
27.40000 5.892
27.42000 -1.853
27.44000 -1.778
27.46000 1.079
27.48000 0.053
27.50000 -0.321
27.52000 2.377
27.54000 3.926
27.56000 5.184
27.58000 5.695
27.60000 0.393
27.62000 -0.141
27.64000 -1.078
27.66000 0.979
27.68000 1.722
27.70000 4.938
27.72000 9.825
27.74000 7.808
27.76000 9.474
27.78000 6.898
27.80000 8.212
27.82000 1.550
27.84000 0.671
27.86000 5.407
27.88000 6.242
27.90000 4.136
27.92000 0.394
27.94000 -3.799
27.96000 -0.478
27.98000 3.300
28.00000 1.387
28.02000 5.591
28.04000 10.201
28.06000 5.042
28.08000 3.218
28.10000 7.040
28.12000 6.417
28.14000 8.451
28.16000 7.898
28.18000 8.591
28.20000 6.123
28.22000 3.191
28.24000 6.473
28.26000 2.729
28.28000 4.544
28.30000 4.946
28.32000 0.510
28.34000 -0.949
28.36000 1.241
28.38000 2.901
28.40000 -0.281
28.42000 -0.679
28.44000 4.463
28.46000 4.487
28.48000 2.146
28.50000 1.227
28.52000 -2.604
28.54000 -0.750
28.56000 5.722
28.58000 9.887
28.60000 7.258
28.62000 6.801
28.64000 4.152
28.66000 1.142
28.68000 2.165
28.70000 1.991
28.72000 5.438
28.74000 3.546
28.76000 2.123
28.78000 -0.536
28.80000 3.437
28.82000 1.842
28.84000 2.081
28.86000 4.365
28.88000 7.413
28.90000 3.842
28.92000 3.538
28.94000 5.885
28.96000 4.938
28.98000 3.014
29.00000 4.608
29.02000 7.226
29.04000 5.587
29.06000 5.419
29.08000 3.563
29.10000 2.454
29.12000 1.131
29.14000 -3.735
29.16000 1.316
29.18000 4.438
29.20000 7.818
29.22000 10.791
29.24000 7.051
29.26000 5.238
29.28000 4.736
29.30000 -0.512
29.32000 1.763
29.34000 5.796
29.36000 -3.725
29.38000 1.970
29.40000 8.677
29.42000 6.358
29.44000 6.452
29.46000 6.161
29.48000 -0.436
29.50000 2.980
29.52000 5.629
29.54000 1.518
29.56000 0.447
29.58000 -1.883
29.60000 0.882
29.62000 6.476
29.64000 5.380
29.66000 5.511
29.68000 5.686
29.70000 8.781
29.72000 10.110
29.74000 5.568
29.76000 2.418
29.78000 -0.812
29.80000 0.269
29.82000 -3.395
29.84000 -3.703
29.86000 1.008
29.88000 0.706
29.90000 2.725
29.92000 3.196
29.94000 5.627
29.96000 1.513
29.98000 4.527
30.00000 3.713
30.02000 6.751
30.04000 7.356
30.06000 10.978
30.08000 0.691
30.10000 -2.269
30.12000 3.931
30.14000 1.393
30.16000 1.126
30.18000 1.669
30.20000 5.862
30.22000 9.279
30.24000 7.118
30.26000 3.148
30.28000 5.041
30.30000 9.721
30.32000 10.466
30.34000 9.956
30.36000 9.602
30.38000 3.323
30.40000 0.582
30.42000 5.974
30.44000 2.951
30.46000 6.804
30.48000 6.920
30.50000 3.095
30.52000 6.616
30.54000 5.596
30.56000 4.716
30.58000 4.066
30.60000 5.715
30.62000 1.391
30.64000 3.228
30.66000 2.977
30.68000 0.313
30.70000 5.857
30.72000 9.998
30.74000 10.209
30.76000 5.308
30.78000 2.362
30.80000 5.725
30.82000 8.155
30.84000 7.887
30.86000 1.558
30.88000 -3.657
30.90000 -2.610
30.92000 1.476
30.94000 6.984
30.96000 4.732
30.98000 5.195
31.00000 4.231
31.02000 2.255
31.04000 -0.460
31.06000 -1.368
31.08000 1.765
31.10000 0.892
31.12000 -1.516
31.14000 4.438
31.16000 1.708
31.18000 1.426
31.20000 5.834
31.22000 5.686
31.24000 1.320
31.26000 0.539
31.28000 5.991
31.30000 6.184
31.32000 4.763
31.34000 -3.104
31.36000 -2.578
31.38000 5.025
31.40000 7.939
31.42000 5.164
31.44000 1.206
31.46000 -0.805
31.48000 2.179
31.50000 3.038
31.52000 1.069
31.54000 2.431
31.56000 0.687
31.58000 1.016
31.60000 2.485
31.62000 0.294
31.64000 1.496
31.66000 3.938
31.68000 1.963
31.70000 3.866
31.72000 1.918
31.74000 -0.425
31.76000 1.130
31.78000 -3.650
31.80000 -0.064
31.82000 0.249
31.84000 5.728
31.86000 1.400
31.88000 2.170
31.90000 2.617
31.92000 2.606
31.94000 -1.721
31.96000 0.822
31.98000 2.792
32.00000 2.350
32.02000 5.456
32.04000 9.598
32.06000 7.528
32.08000 1.979
32.10000 0.986
32.12000 -2.038
32.14000 -3.639
32.16000 -2.113
32.18000 -0.248
32.20000 0.466
32.22000 -1.001
32.24000 -0.456
32.26000 0.389
32.28000 6.378
32.30000 7.478
32.32000 4.883
32.34000 2.143
32.36000 2.700
32.38000 2.385
32.40000 5.290
32.42000 5.298
32.44000 1.953
32.46000 -3.496
32.48000 -1.699
32.50000 1.920
32.52000 1.441
32.54000 3.163
32.56000 2.630
32.58000 -2.068
32.60000 1.776
32.62000 -2.563
32.64000 -1.583
32.66000 1.294
32.68000 4.718
32.70000 2.981
32.72000 -0.173
32.74000 4.485
32.76000 5.857
32.78000 4.610
32.80000 4.893
32.82000 3.103
32.84000 -2.551
32.86000 3.712
32.88000 4.499
32.90000 5.301
32.92000 1.979
32.94000 3.624
32.96000 5.288
32.98000 1.613
33.00000 1.218
33.02000 1.414
33.04000 5.806
33.06000 5.051
33.08000 0.468
33.10000 -1.452
33.12000 1.605
33.14000 2.304
33.16000 2.608
33.18000 3.610
33.20000 2.979
33.22000 -3.591
33.24000 0.335
33.26000 3.149
33.28000 5.465
33.30000 0.318
33.32000 -3.026
33.34000 -2.913
33.36000 0.503
33.38000 3.617
33.40000 5.603
33.42000 5.864
33.44000 6.406
33.46000 7.034
33.48000 10.286
33.50000 7.604
33.52000 8.107
33.54000 1.552
33.56000 0.250
33.58000 3.266
33.60000 8.908
33.62000 15.471
33.64000 6.761
33.66000 1.723
33.68000 3.250
33.70000 0.951
33.72000 2.681
33.74000 7.086
33.76000 3.986
33.78000 0.980
33.80000 -3.563
33.82000 0.938
33.84000 6.870
33.86000 4.542
33.88000 4.452
33.90000 4.273
33.92000 1.000
33.94000 4.430
33.96000 5.017
33.98000 7.433
34.00000 7.666
34.02000 2.911
34.04000 -0.075
34.06000 0.546
34.08000 3.204
34.10000 1.451
34.12000 -0.666
34.14000 5.424
34.16000 6.433
34.18000 11.343
34.20000 12.948
34.22000 8.115
34.24000 2.114
34.26000 -0.926
34.28000 -1.777
34.30000 5.677
34.32000 7.931
34.34000 11.975
34.36000 1.905
34.38000 1.268
34.40000 2.499
34.42000 6.263
34.44000 5.765
34.46000 4.172
34.48000 -0.844
34.50000 4.108
34.52000 3.165
34.54000 2.045
34.56000 2.206
34.58000 0.933
34.60000 5.747
34.62000 2.618
34.64000 -0.592
34.66000 4.971
34.68000 6.015
34.70000 8.148
34.72000 4.075
34.74000 -0.890
34.76000 -3.555
34.78000 0.930
34.80000 -1.780
34.82000 3.912
34.84000 1.774
34.86000 0.338
34.88000 2.753
34.90000 3.365
34.92000 1.008
34.94000 1.460
34.96000 2.046
34.98000 -0.522
35.00000 -0.778
35.02000 3.363
35.04000 6.325
35.06000 5.514
35.08000 2.365
35.10000 1.730
35.12000 2.876
35.14000 5.338
35.16000 6.426
35.18000 2.172
35.20000 3.279
35.22000 7.773
35.24000 5.230
35.26000 -0.621
35.28000 0.313
35.30000 -2.028
35.32000 -2.229
35.34000 -3.092
35.36000 -1.375
35.38000 -0.996
35.40000 -2.404
35.42000 -2.956
35.44000 -1.471
35.46000 -0.480
35.48000 2.272
35.50000 2.232
35.52000 -0.545
35.54000 6.558
35.56000 5.250
35.58000 2.209
35.60000 5.013
35.62000 5.813
35.64000 3.350
35.66000 2.590
35.68000 0.098
35.70000 1.405
35.72000 1.997
35.74000 -1.565
35.76000 -0.892
35.78000 -2.543
35.80000 0.230
35.82000 -3.573
35.84000 -2.079
35.86000 1.736
35.88000 4.343
35.90000 -1.549
35.92000 2.005
35.94000 2.236
35.96000 2.422
35.98000 3.153
36.00000 1.718
36.02000 0.577
36.04000 2.333
36.06000 -3.573
36.08000 -3.572
36.10000 -0.698
36.12000 2.841
36.14000 2.943
36.16000 3.621
36.18000 -1.451
36.20000 0.747
36.22000 3.698
36.24000 -0.861
36.26000 -0.339
36.28000 1.741
36.30000 3.471
36.32000 2.274
36.34000 1.428
36.36000 -0.615
36.38000 0.779
36.40000 4.316
36.42000 2.191
36.44000 1.912
36.46000 4.648
36.48000 4.323
36.50000 3.964
36.52000 2.336
36.54000 -1.316
36.56000 -2.921
36.58000 -2.079
36.60000 1.668
36.62000 0.776
36.64000 0.242
36.66000 1.933
36.68000 -0.821
36.70000 -0.156
36.72000 0.062
36.74000 -0.061
36.76000 0.412
36.78000 -0.958
36.80000 -0.754
36.82000 -0.511
36.84000 -3.166
36.86000 4.002
36.88000 -1.023
36.90000 -3.486
36.92000 -3.608
36.94000 -0.153
36.96000 2.365
36.98000 -0.928
37.00000 0.177
37.02000 0.043
37.04000 3.335
37.06000 -0.359
37.08000 -0.226
37.10000 -2.684
37.12000 1.010
37.14000 0.751
37.16000 1.988
37.18000 1.473
37.20000 1.591
37.22000 1.064
37.24000 -2.776
37.26000 -0.557
37.28000 -0.576
37.30000 2.025
37.32000 2.856
37.34000 -3.629
37.36000 0.303
37.38000 4.086
37.40000 2.602
37.42000 -0.789
37.44000 0.075
37.46000 0.548
37.48000 2.896
37.50000 3.423
37.52000 5.210
37.54000 5.292
37.56000 3.618
37.58000 3.325
37.60000 2.204
37.62000 7.087
37.64000 5.186
37.66000 4.359
37.68000 5.466
37.70000 3.432
37.72000 6.280
37.74000 8.936
37.76000 2.056
37.78000 1.696
37.80000 3.651
37.82000 1.212
37.84000 3.728
37.86000 7.843
37.88000 8.903
37.90000 5.329
37.92000 5.818
37.94000 5.245
37.96000 8.795
37.98000 10.440
38.00000 10.140
38.02000 6.725
38.04000 6.751
38.06000 9.232
38.08000 6.205
38.10000 10.122
38.12000 11.043
38.14000 11.381
38.16000 16.601
38.18000 14.377
38.20000 12.724
38.22000 9.559
38.24000 11.671
38.26000 10.549
38.28000 12.159
38.30000 12.909
38.32000 16.537
38.34000 15.800
38.36000 14.085
38.38000 18.088
38.40000 17.432
38.42000 17.802
38.44000 19.085
38.46000 17.942
38.48000 16.681
38.50000 20.972
38.52000 24.336
38.54000 24.048
38.56000 22.340
38.58000 21.910
38.60000 24.728
38.62000 25.895
38.64000 20.172
38.66000 21.880
38.68000 23.926
38.70000 27.869
38.72000 33.156
38.74000 27.476
38.76000 21.889
38.78000 23.633
38.80000 26.868
38.82000 31.452
38.84000 35.618
38.86000 33.413
38.88000 31.806
38.90000 35.699
38.92000 33.871
38.94000 39.036
38.96000 39.960
38.98000 43.940
39.00000 44.550
39.02000 44.216
39.04000 50.708
39.06000 51.183
39.08000 44.223
39.10000 49.423
39.12000 53.356
39.14000 48.424
39.16000 58.003
39.18000 68.242
39.20000 70.951
39.22000 71.683
39.24000 70.231
39.26000 71.969
39.28000 83.890
39.30000 89.647
39.32000 91.933
39.34000 92.096
39.36000 89.688
39.38000 96.570
39.40000 102.331
39.42000 102.011
39.44000 106.393
39.46000 116.701
39.48000 118.813
39.50000 122.561
39.52000 127.633
39.54000 135.399
39.56000 141.666
39.58000 150.132
39.60000 158.512
39.62000 161.180
39.64000 163.510
39.66000 177.380
39.68000 192.242
39.70000 206.860
39.72000 208.974
39.74000 214.996
39.76000 227.971
39.78000 241.825
39.80000 247.904
39.82000 258.874
39.84000 269.593
39.86000 283.215
39.88000 294.620
39.90000 306.124
39.92000 325.633
39.94000 348.502
39.96000 363.767
39.98000 371.663
40.00000 377.328
40.02000 390.252
40.04000 405.935
40.06000 421.083
40.08000 439.225
40.10000 460.523
40.12000 476.228
40.14000 487.169
40.16000 493.019
40.18000 500.270
40.20000 513.520
40.22000 530.053
40.24000 551.516
40.26000 561.912
40.28000 560.051
40.30000 555.462
40.32000 570.222
40.34000 572.763
40.36000 573.890
40.38000 585.422
40.40000 587.565
40.42000 580.091
40.44000 577.613
40.46000 584.418
40.48000 568.795
40.50000 554.521
40.52000 541.521
40.54000 537.328
40.56000 530.868
40.58000 518.963
40.60000 512.507
40.62000 495.376
40.64000 487.950
40.66000 469.574
40.68000 452.700
40.70000 437.929
40.72000 422.987
40.74000 404.507
40.76000 387.088
40.78000 379.666
40.80000 364.052
40.82000 346.340
40.84000 330.311
40.86000 321.725
40.88000 303.425
40.90000 286.979
40.92000 273.595
40.94000 261.763
40.96000 244.731
40.98000 236.513
41.00000 218.561
41.02000 208.785
41.04000 197.436
41.06000 182.471
41.08000 174.941
41.10000 166.776
41.12000 159.588
41.14000 155.365
41.16000 154.150
41.18000 144.812
41.20000 130.004
41.22000 123.458
41.24000 118.750
41.26000 111.891
41.28000 110.134
41.30000 102.744
41.32000 93.562
41.34000 92.522
41.36000 89.848
41.38000 80.229
41.40000 78.863
41.42000 75.309
41.44000 72.353
41.46000 67.428
41.48000 60.493
41.50000 57.039
41.52000 56.952
41.54000 54.885
41.56000 49.960
41.58000 51.751
41.60000 48.118
41.62000 41.696
41.64000 38.213
41.66000 39.942
41.68000 38.317
41.70000 36.609
41.72000 34.314
41.74000 39.757
41.76000 36.959
41.78000 32.243
41.80000 29.033
41.82000 28.278
41.84000 28.101
41.86000 23.366
41.88000 25.151
41.90000 22.473
41.92000 23.401
41.94000 23.419
41.96000 18.222
41.98000 12.173
42.00000 13.284
42.02000 15.939
42.04000 16.274
42.06000 15.824
42.08000 17.819
42.10000 13.367
42.12000 7.967
42.14000 9.035
42.16000 8.407
42.18000 7.749
42.20000 9.889
42.22000 10.504
42.24000 11.665
42.26000 8.210
42.28000 4.080
42.30000 6.965
42.32000 7.971
42.34000 10.001
42.36000 9.056
42.38000 9.399
42.40000 8.408
42.42000 4.756
42.44000 5.354
42.46000 1.500
42.48000 3.847
42.50000 4.368
42.52000 6.005
42.54000 6.901
42.56000 5.845
42.58000 10.166
42.60000 4.363
42.62000 1.989
42.64000 1.900
42.66000 1.167
42.68000 2.834
42.70000 2.022
42.72000 1.009
42.74000 3.013
42.76000 4.763
42.78000 2.002
42.80000 -0.221
42.82000 2.903
42.84000 1.509
42.86000 -0.256
42.88000 0.131
42.90000 -0.045
42.92000 3.518
42.94000 3.143
42.96000 -1.108
42.98000 -3.218
43.00000 0.325
43.02000 4.501
43.04000 8.813
43.06000 8.412
43.08000 3.410
43.10000 -0.993
43.12000 1.234
43.14000 3.925
43.16000 1.630
43.18000 -0.370
43.20000 0.820
43.22000 4.423
43.24000 2.325
43.26000 -1.114
43.28000 -1.865
43.30000 2.755
43.32000 1.179
43.34000 1.319
43.36000 6.844
43.38000 4.378
43.40000 3.377
43.42000 0.306
43.44000 7.174
43.46000 4.973
43.48000 7.504
43.50000 7.545
43.52000 5.001
43.54000 6.801
43.56000 9.434
43.58000 4.575
43.60000 5.249
43.62000 3.394
43.64000 4.767
43.66000 1.093
43.68000 1.036
43.70000 3.141
43.72000 5.688
43.74000 8.195
43.76000 5.000
43.78000 6.660
43.80000 5.697
43.82000 8.748
43.84000 2.666
43.86000 -3.410
43.88000 2.054
43.90000 5.140
43.92000 6.446
43.94000 8.714
43.96000 3.858
43.98000 4.458
44.00000 1.523
44.02000 2.388
44.04000 1.397
44.06000 3.124
44.08000 6.335
44.10000 10.129
44.12000 9.011
44.14000 5.716
44.16000 6.982
44.18000 10.864
44.20000 12.177
44.22000 10.031
44.24000 10.729
44.26000 7.953
44.28000 4.448
44.30000 3.367
44.32000 2.402
44.34000 -2.570
44.36000 1.055
44.38000 5.491
44.40000 4.624
44.42000 4.931
44.44000 7.190
44.46000 8.434
44.48000 9.211
44.50000 13.257
44.52000 6.219
44.54000 0.713
44.56000 2.404
44.58000 0.947
44.60000 3.654
44.62000 2.999
44.64000 3.962
44.66000 5.047
44.68000 9.999
44.70000 9.189
44.72000 10.751
44.74000 3.567
44.76000 5.245
44.78000 3.128
44.80000 6.481
44.82000 6.257
44.84000 8.644
44.86000 5.644
44.88000 6.361
44.90000 4.612
44.92000 0.132
44.94000 2.812
44.96000 9.804
44.98000 11.433
45.00000 12.226
45.02000 13.658
45.04000 11.209
45.06000 11.137
45.08000 7.159
45.10000 7.792
45.12000 11.186
45.14000 10.496
45.16000 6.332
45.18000 7.872
45.20000 8.402
45.22000 10.400
45.24000 10.283
45.26000 9.925
45.28000 10.836
45.30000 11.667
45.32000 13.223
45.34000 15.373
45.36000 11.991
45.38000 10.133
45.40000 10.406
45.42000 15.485
45.44000 22.086
45.46000 19.075
45.48000 14.587
45.50000 19.029
45.52000 22.528
45.54000 18.406
45.56000 18.844
45.58000 16.525
45.60000 12.483
45.62000 21.424
45.64000 29.027
45.66000 27.565
45.68000 23.126
45.70000 19.792
45.72000 28.949
45.74000 30.517
45.76000 25.121
45.78000 29.651
45.80000 36.333
45.82000 38.899
45.84000 36.720
45.86000 34.725
45.88000 27.498
45.90000 32.493
45.92000 29.208
45.94000 23.145
45.96000 32.925
45.98000 41.434
46.00000 38.110
46.02000 32.364
46.04000 31.788
46.06000 36.894
46.08000 42.165
46.10000 40.259
46.12000 42.750
46.14000 43.328
46.16000 47.152
46.18000 51.560
46.20000 49.679
46.22000 43.914
46.24000 48.328
46.26000 49.269
46.28000 51.528
46.30000 57.510
46.32000 54.761
46.34000 54.378
46.36000 57.294
46.38000 59.509
46.40000 63.584
46.42000 59.142
46.44000 56.056
46.46000 60.464
46.48000 62.777
46.50000 66.110
46.52000 68.759
46.54000 65.753
46.56000 70.138
46.58000 73.871
46.60000 78.297
46.62000 73.913
46.64000 80.424
46.66000 77.637
46.68000 74.217
46.70000 79.670
46.72000 80.628
46.74000 79.245
46.76000 84.100
46.78000 84.732
46.80000 92.425
46.82000 84.055
46.84000 83.185
46.86000 90.965
46.88000 88.263
46.90000 85.104
46.92000 89.253
46.94000 85.864
46.96000 88.734
46.98000 84.373
47.00000 86.464
47.02000 84.173
47.04000 77.940
47.06000 81.205
47.08000 86.008
47.10000 83.751
47.12000 90.073
47.14000 82.351
47.16000 78.127
47.18000 81.585
47.20000 81.041
47.22000 79.988
47.24000 79.220
47.26000 81.512
47.28000 75.045
47.30000 77.289
47.32000 71.655
47.34000 66.826
47.36000 70.456
47.38000 70.341
47.40000 65.465
47.42000 62.181
47.44000 61.134
47.46000 55.478
47.48000 53.719
47.50000 57.774
47.52000 50.832
47.54000 48.780
47.56000 50.880
47.58000 45.935
47.60000 48.339
47.62000 44.791
47.64000 48.964
47.66000 43.534
47.68000 41.338
47.70000 42.535
47.72000 45.262
47.74000 43.248
47.76000 36.515
47.78000 34.899
47.80000 28.171
47.82000 34.524
47.84000 34.671
47.86000 30.027
47.88000 24.698
47.90000 25.559
47.92000 26.351
47.94000 26.536
47.96000 28.616
47.98000 28.257
48.00000 29.768
48.02000 22.911
48.04000 16.242
48.06000 18.611
48.08000 21.653
48.10000 21.729
48.12000 18.350
48.14000 18.754
48.16000 22.441
48.18000 22.275
48.20000 20.413
48.22000 17.982
48.24000 15.014
48.26000 18.974
48.28000 16.919
48.30000 14.538
48.32000 12.864
48.34000 14.346
48.36000 9.918
48.38000 7.511
48.40000 8.823
48.42000 6.906
48.44000 10.738
48.46000 13.640
48.48000 12.239
48.50000 8.606
48.52000 2.958
48.54000 6.309
48.56000 7.643
48.58000 7.599
48.60000 3.126
48.62000 4.876
48.64000 7.457
48.66000 8.903
48.68000 8.130
48.70000 -0.168
48.72000 1.324
48.74000 3.631
48.76000 7.581
48.78000 3.504
48.80000 -3.148
48.82000 1.859
48.84000 9.835
48.86000 10.406
48.88000 5.220
48.90000 2.671
48.92000 4.557
48.94000 8.677
48.96000 7.453
48.98000 7.347
49.00000 2.256
49.02000 -0.745
49.04000 -0.747
49.06000 0.378
49.08000 4.114
49.10000 7.945
49.12000 8.256
49.14000 6.442
49.16000 5.077
49.18000 5.859
49.20000 11.393
49.22000 8.675
49.24000 8.373
49.26000 2.553
49.28000 -3.086
49.30000 0.046
49.32000 1.500
49.34000 0.908
49.36000 -0.621
49.38000 -1.321
49.40000 6.035
49.42000 1.432
49.44000 1.071
49.46000 -0.957
49.48000 4.010
49.50000 6.805
49.52000 9.659
49.54000 4.152
49.56000 3.920
49.58000 4.711
49.60000 5.432
49.62000 2.968
49.64000 -0.572
49.66000 -0.457
49.68000 1.952
49.70000 2.639
49.72000 1.458
49.74000 4.228
49.76000 4.609
49.78000 4.388
49.80000 0.851
49.82000 2.884
49.84000 2.299
49.86000 3.874
49.88000 -1.168
49.90000 -1.070
49.92000 1.831
49.94000 2.589
49.96000 -2.565
49.98000 -1.627
50.00000 2.720
50.02000 4.087
50.04000 4.153
50.06000 3.857
50.08000 -0.754
50.10000 1.726
50.12000 3.363
50.14000 2.283
50.16000 -2.662
50.18000 1.481
50.20000 3.692
50.22000 5.279
50.24000 2.418
50.26000 -0.700
50.28000 -0.934
50.30000 5.932
50.32000 7.507
50.34000 4.132
50.36000 3.667
50.38000 2.241
50.40000 5.169
50.42000 5.589
50.44000 2.183
50.46000 0.839
50.48000 5.156
50.50000 4.082
50.52000 1.787
50.54000 -2.957
50.56000 2.953
50.58000 5.369
50.60000 1.402
50.62000 -2.648
50.64000 7.166
50.66000 10.848
50.68000 8.461
50.70000 5.642
50.72000 4.402
50.74000 6.221
50.76000 10.874
50.78000 9.653
50.80000 10.539
50.82000 3.604
50.84000 4.091
50.86000 4.256
50.88000 7.087
50.90000 13.787
50.92000 3.939
50.94000 3.449
50.96000 2.755
50.98000 5.058
51.00000 8.596
51.02000 4.903
51.04000 1.000
51.06000 0.486
51.08000 1.737
51.10000 6.806
51.12000 9.614
51.14000 6.398
51.16000 0.915
51.18000 6.989
51.20000 4.832
51.22000 3.417
51.24000 7.682
51.26000 2.819
51.28000 1.623
51.30000 1.634
51.32000 6.669
51.34000 4.657
51.36000 -1.083
51.38000 1.221
51.40000 5.267
51.42000 6.330
51.44000 5.858
51.46000 0.776
51.48000 2.231
51.50000 5.545
51.52000 3.364
51.54000 5.148
51.56000 5.289
51.58000 2.495
51.60000 3.773
51.62000 1.503
51.64000 -0.494
51.66000 -0.403
51.68000 0.996
51.70000 7.366
51.72000 2.935
51.74000 -0.773
51.76000 1.776
51.78000 3.119
51.80000 -0.390
51.82000 0.614
51.84000 -2.948
51.86000 0.132
51.88000 5.529
51.90000 4.637
51.92000 2.250
51.94000 3.966
51.96000 3.728
51.98000 0.226
52.00000 0.154
52.02000 -2.063
52.04000 0.790
52.06000 -0.487
52.08000 4.082
52.10000 2.770
52.12000 4.194
52.14000 4.060
52.16000 4.929
52.18000 1.046
52.20000 -1.068
52.22000 1.480
52.24000 2.426
52.26000 3.914
52.28000 4.259
52.30000 0.758
52.32000 1.969
52.34000 5.248
52.36000 0.291
52.38000 1.428
52.40000 3.971
52.42000 2.652
52.44000 -1.335
52.46000 -1.672
52.48000 1.693
52.50000 5.189
52.52000 3.955
52.54000 6.270
52.56000 3.641
52.58000 8.026
52.60000 3.293
52.62000 0.663
52.64000 2.117
52.66000 -1.005
52.68000 -2.931
52.70000 3.215
52.72000 1.089
52.74000 2.377
52.76000 4.734
52.78000 3.288
52.80000 0.249
52.82000 2.743
52.84000 1.097
52.86000 1.456
52.88000 1.370
52.90000 2.351
52.92000 5.938
52.94000 3.778
52.96000 -1.170
52.98000 -0.384
53.00000 3.590
53.02000 5.786
53.04000 8.722
53.06000 8.590
53.08000 6.835
53.10000 2.283
53.12000 -1.498
53.14000 -1.905
53.16000 -0.905
53.18000 -0.878
53.20000 2.150
53.22000 -0.227
53.24000 -1.096
53.26000 -0.232
53.28000 -0.246
53.30000 -2.303
53.32000 0.781
53.34000 3.419
53.36000 2.016
53.38000 2.992
53.40000 6.512
53.42000 6.841
53.44000 6.811
53.46000 0.944
53.48000 2.370
53.50000 7.511
53.52000 7.226
53.54000 3.869
53.56000 1.972
53.58000 2.674
53.60000 2.431
53.62000 4.082
53.64000 -2.861
53.66000 -1.604
53.68000 0.468
53.70000 -0.267
53.72000 3.657
53.74000 6.944
53.76000 10.500
53.78000 3.611
53.80000 3.806
53.82000 4.795
53.84000 0.616
53.86000 1.231
53.88000 4.424
53.90000 7.236
53.92000 7.568
53.94000 9.091
53.96000 6.497
53.98000 0.616
54.00000 1.970
54.02000 3.945
54.04000 1.352
54.06000 -2.865
54.08000 2.099
54.10000 5.135
54.12000 -0.610
54.14000 1.557
54.16000 1.163
54.18000 0.843
54.20000 -2.632
54.22000 -0.102
54.24000 1.731
54.26000 -1.365
54.28000 2.444
54.30000 0.878
54.32000 -2.864
54.34000 0.457
54.36000 0.516
54.38000 4.484
54.40000 4.423
54.42000 3.686
54.44000 1.559
54.46000 1.780
54.48000 5.429
54.50000 4.768
54.52000 2.583
54.54000 3.280
54.56000 3.006
54.58000 5.461
54.60000 1.140
54.62000 -2.217
54.64000 0.571
54.66000 0.953
54.68000 5.234
54.70000 5.974
54.72000 5.222
54.74000 3.062
54.76000 1.077
54.78000 -0.476
54.80000 1.078
54.82000 2.374
54.84000 5.829
54.86000 0.682
54.88000 1.772
54.90000 2.755
54.92000 5.406
54.94000 2.336
54.96000 2.087
54.98000 4.867
55.00000 8.794
55.02000 6.035
55.04000 0.749
55.06000 2.955
55.08000 4.431
55.10000 2.748
55.12000 5.979
55.14000 -0.004
55.16000 1.165
55.18000 3.574
55.20000 1.637
55.22000 0.455
55.24000 7.817
55.26000 -1.164
55.28000 2.286
55.30000 2.915
55.32000 7.585
55.34000 7.891
55.36000 4.207
55.38000 3.742
55.40000 7.867
55.42000 1.610
55.44000 -1.304
55.46000 0.992
55.48000 6.251
55.50000 6.554
55.52000 6.719
55.54000 2.974
55.56000 -2.822
55.58000 -0.728
55.60000 5.243
55.62000 5.167
55.64000 5.904
55.66000 6.003
55.68000 5.385
55.70000 4.610
55.72000 1.845
55.74000 3.097
55.76000 0.618
55.78000 -1.887
55.80000 -1.296
55.82000 4.488
55.84000 8.298
55.86000 1.580
55.88000 -1.185
55.90000 4.033
55.92000 2.608
55.94000 0.906
55.96000 1.856
55.98000 2.347
56.00000 1.361
56.02000 7.471
56.04000 3.142
56.06000 6.742
56.08000 5.896
56.10000 -2.605
56.12000 -2.073
56.14000 3.363
56.16000 6.605
56.18000 12.024
56.20000 3.860
56.22000 0.121
56.24000 -2.791
56.26000 10.341
56.28000 5.403
56.30000 3.395
56.32000 1.759
56.34000 4.955
56.36000 3.823
56.38000 1.872
56.40000 1.743
56.42000 6.198
56.44000 2.232
56.46000 1.596
56.48000 3.017
56.50000 1.880
56.52000 -1.091
56.54000 6.643
56.56000 8.530
56.58000 7.383
56.60000 3.312
56.62000 6.492
56.64000 8.019
56.66000 7.152
56.68000 6.402
56.70000 4.044
56.72000 1.416
56.74000 2.229
56.76000 0.740
56.78000 6.722
56.80000 10.310
56.82000 6.641
56.84000 2.281
56.86000 1.790
56.88000 3.832
56.90000 4.905
56.92000 2.175
56.94000 2.801
56.96000 4.420
56.98000 7.815
57.00000 3.304
57.02000 4.439
57.04000 5.742
57.06000 7.352
57.08000 3.528
57.10000 5.369
57.12000 9.344
57.14000 9.793
57.16000 9.411
57.18000 7.492
57.20000 -1.198
57.22000 5.360
57.24000 9.305
57.26000 6.483
57.28000 6.124
57.30000 6.247
57.32000 7.144
57.34000 5.184
57.36000 6.040
57.38000 5.584
57.40000 -2.743
57.42000 3.981
57.44000 10.408
57.46000 4.803
57.48000 1.617
57.50000 2.060
57.52000 3.842
57.54000 1.663
57.56000 1.419
57.58000 -0.096
57.60000 1.904
57.62000 2.372
57.64000 4.904
57.66000 7.197
57.68000 6.099
57.70000 7.783
57.72000 6.223
57.74000 1.765
57.76000 0.959
57.78000 1.770
57.80000 5.068
57.82000 6.259
57.84000 3.689
57.86000 4.343
57.88000 6.523
57.90000 6.358
57.92000 6.689
57.94000 7.980
57.96000 0.404
57.98000 2.719
58.00000 5.025
58.02000 3.171
58.04000 -2.589
58.06000 2.049
58.08000 -1.528
58.10000 -0.454
58.12000 2.175
58.14000 2.456
58.16000 4.218
58.18000 -1.400
58.20000 1.826
58.22000 -2.251
58.24000 1.274
58.26000 0.887
58.28000 1.925
58.30000 1.399
58.32000 -0.496
58.34000 -2.141
58.36000 1.922
58.38000 1.397
58.40000 3.443
58.42000 0.440
58.44000 -1.084
58.46000 1.720
58.48000 3.397
58.50000 5.352
58.52000 4.439
58.54000 -2.303
58.56000 -2.738
58.58000 2.223
58.60000 1.873
58.62000 0.331
58.64000 2.427
58.66000 5.932
58.68000 4.685
58.70000 3.115
58.72000 0.732
58.74000 -1.733
58.76000 3.846
58.78000 -2.479
58.80000 1.129
58.82000 3.663
58.84000 -1.317
58.86000 -0.003
58.88000 3.911
58.90000 5.502
58.92000 4.358
58.94000 3.795
58.96000 4.648
58.98000 4.092
59.00000 1.393
59.02000 1.857
59.04000 1.024
59.06000 -1.276
59.08000 -1.012
59.10000 0.823
59.12000 7.167
59.14000 5.178
59.16000 3.723
59.18000 6.738
59.20000 2.712
59.22000 2.335
59.24000 -0.234
59.26000 1.006
59.28000 4.111
59.30000 2.831
59.32000 -2.396
59.34000 -2.704
59.36000 1.582
59.38000 0.609
59.40000 1.668
59.42000 0.286
59.44000 0.113
59.46000 5.399
59.48000 6.919
59.50000 1.871
59.52000 -1.946
59.54000 3.145
59.56000 -2.249
59.58000 1.776
59.60000 6.745
59.62000 2.555
59.64000 3.228
59.66000 4.819
59.68000 7.967
59.70000 5.368
59.72000 4.288
59.74000 2.633
59.76000 -0.840
59.78000 -1.616
59.80000 2.158
59.82000 4.818
59.84000 6.421
59.86000 -2.345
59.88000 -0.219
59.90000 0.739
59.92000 -1.067
59.94000 -1.411
59.96000 2.465
59.98000 0.498
60.00000 -0.392
60.02000 0.332
60.04000 0.672
60.06000 1.867
60.08000 0.579
60.10000 1.664
60.12000 2.134
60.14000 5.218
60.16000 4.702
60.18000 0.440
60.20000 -0.334
60.22000 6.667
60.24000 5.765
60.26000 4.473
60.28000 4.167
60.30000 1.975
60.32000 2.347
60.34000 0.817
60.36000 4.447
60.38000 0.426
60.40000 -0.259
60.42000 -0.788
60.44000 0.278
60.46000 3.405
60.48000 -0.795
60.50000 -2.046
60.52000 2.507
60.54000 4.770
60.56000 1.901
60.58000 3.754
60.60000 6.818
60.62000 7.579
60.64000 8.623
60.66000 5.103
60.68000 7.353
60.70000 6.972
60.72000 3.192
60.74000 0.054
60.76000 0.992
60.78000 5.282
60.80000 6.028
60.82000 2.168
60.84000 2.235
60.86000 -0.001
60.88000 -0.519
60.90000 1.727
60.92000 0.495
60.94000 -1.223
60.96000 0.629
60.98000 1.416
61.00000 7.330
61.02000 8.964
61.04000 6.625
61.06000 4.985
61.08000 4.001
61.10000 4.093
61.12000 4.590
61.14000 7.134
61.16000 5.707
61.18000 2.268
61.20000 -2.602
61.22000 1.026
61.24000 3.769
61.26000 2.142
61.28000 3.462
61.30000 8.294
61.32000 6.307
61.34000 1.565
61.36000 -0.424
61.38000 0.039
61.40000 3.258
61.42000 0.503
61.44000 3.040
61.46000 3.344
61.48000 1.289
61.50000 2.235
61.52000 5.779
61.54000 3.136
61.56000 1.516
61.58000 0.274
61.60000 4.398
61.62000 6.441
61.64000 4.460
61.66000 2.959
61.68000 4.767
61.70000 2.570
61.72000 6.447
61.74000 6.735
61.76000 1.962
61.78000 0.221
61.80000 6.001
61.82000 2.246
61.84000 -0.889
61.86000 3.846
61.88000 4.350
61.90000 4.503
61.92000 3.884
61.94000 3.423
61.96000 3.215
61.98000 5.805
62.00000 1.371
62.02000 4.656
62.04000 4.425
62.06000 5.245
62.08000 3.325
62.10000 1.522
62.12000 1.117
62.14000 1.039
62.16000 3.942
62.18000 7.074
62.20000 7.221
62.22000 3.800
62.24000 5.887
62.26000 7.499
62.28000 5.161
62.30000 7.640
62.32000 6.313
62.34000 8.911
62.36000 9.842
62.38000 10.366
62.40000 9.368
62.42000 6.401
62.44000 3.594
62.46000 6.051
62.48000 8.868
62.50000 6.085
62.52000 6.567
62.54000 4.615
62.56000 5.722
62.58000 7.272
62.60000 2.971
62.62000 2.795
62.64000 -1.392
62.66000 -2.554
62.68000 2.389
62.70000 12.198
62.72000 4.380
62.74000 3.724
62.76000 3.699
62.78000 6.080
62.80000 4.123
62.82000 3.397
62.84000 2.636
62.86000 2.553
62.88000 6.448
62.90000 5.631
62.92000 3.911
62.94000 0.929
62.96000 -1.374
62.98000 1.644
63.00000 5.505
63.02000 6.506
63.04000 4.030
63.06000 2.111
63.08000 0.219
63.10000 3.017
63.12000 4.307
63.14000 5.887
63.16000 6.902
63.18000 4.639
63.20000 5.163
63.22000 1.281
63.24000 0.769
63.26000 2.540
63.28000 3.150
63.30000 4.610
63.32000 1.279
63.34000 2.917
63.36000 3.828
63.38000 5.415
63.40000 4.967
63.42000 2.926
63.44000 -1.043
63.46000 0.113
63.48000 -0.475
63.50000 1.496
63.52000 4.684
63.54000 6.864
63.56000 6.256
63.58000 2.172
63.60000 -1.524
63.62000 1.281
63.64000 -2.583
63.66000 -1.857
63.68000 4.795
63.70000 0.647
63.72000 0.465
63.74000 2.582
63.76000 5.117
63.78000 4.514
63.80000 5.325
63.82000 5.668
63.84000 3.622
63.86000 1.702
63.88000 0.099
63.90000 2.484
63.92000 0.624
63.94000 3.472
63.96000 2.421
63.98000 4.849
64.00000 2.780
64.02000 2.015
64.04000 4.412
64.06000 3.663
64.08000 3.950
64.10000 3.870
64.12000 2.596
64.14000 3.018
64.16000 2.331
64.18000 2.276
64.20000 0.189
64.22000 3.890
64.24000 4.406
64.26000 4.221
64.28000 3.437
64.30000 5.257
64.32000 1.039
64.34000 -0.025
64.36000 3.485
64.38000 3.959
64.40000 0.803
64.42000 3.487
64.44000 4.621
64.46000 2.555
64.48000 1.460
64.50000 0.728
64.52000 3.137
64.54000 -0.891
64.56000 -1.748
64.58000 0.625
64.60000 2.254
64.62000 -1.949
64.64000 -2.624
64.66000 3.341
64.68000 3.223
64.70000 1.828
64.72000 3.480
64.74000 0.648
64.76000 4.486
64.78000 3.150
64.80000 -0.662
64.82000 5.450
64.84000 2.748
64.86000 0.227
64.88000 -0.989
64.90000 1.572
64.92000 0.517
64.94000 0.752
64.96000 2.974
64.98000 4.624
65.00000 4.145
65.02000 1.909
65.04000 -2.624
65.06000 3.678
65.08000 2.110
65.10000 -0.805
65.12000 0.279
65.14000 1.418
65.16000 0.578
65.18000 4.301
65.20000 0.734
65.22000 1.113
65.24000 2.874
65.26000 1.492
65.28000 2.136
65.30000 6.627
65.32000 5.296
65.34000 -0.196
65.36000 -0.458
65.38000 0.641
65.40000 4.350
65.42000 -1.229
65.44000 0.280
65.46000 -1.624
65.48000 0.876
65.50000 -2.283
65.52000 0.826
65.54000 -0.211
65.56000 2.943
65.58000 0.253
65.60000 -2.583
65.62000 0.019
65.64000 4.003
65.66000 1.524
65.68000 -2.666
65.70000 -2.452
65.72000 2.750
65.74000 0.590
65.76000 -1.542
65.78000 -0.652
65.80000 -0.440
65.82000 -2.674
65.84000 0.999
65.86000 2.073
65.88000 -0.457
65.90000 -1.571
65.92000 1.366
65.94000 2.601
65.96000 0.610
65.98000 -2.155
66.00000 -1.555
66.02000 0.079
66.04000 1.048
66.06000 2.584
66.08000 3.759
66.10000 0.222
66.12000 1.605
66.14000 -1.100
66.16000 1.509
66.18000 -0.109
66.20000 0.989
66.22000 1.534
66.24000 -0.517
66.26000 -2.230
66.28000 -0.713
66.30000 -2.388
66.32000 -1.196
66.34000 -0.415
66.36000 -1.932
66.38000 -1.503
66.40000 1.157
66.42000 1.369
66.44000 2.260
66.46000 2.138
66.48000 4.470
66.50000 4.284
66.52000 0.331
66.54000 1.584
66.56000 -0.572
66.58000 -2.699
66.60000 3.884
66.62000 3.170
66.64000 0.713
66.66000 -0.115
66.68000 0.968
66.70000 1.043
66.72000 -0.206
66.74000 -1.679
66.76000 -2.571
66.78000 1.125
66.80000 5.439
66.82000 3.285
66.84000 1.498
66.86000 1.324
66.88000 1.829
66.90000 3.389
66.92000 -0.172
66.94000 -0.608
66.96000 1.860
66.98000 -0.132
67.00000 2.946
67.02000 4.010
67.04000 4.768
67.06000 -2.657
67.08000 -2.219
67.10000 0.822
67.12000 3.134
67.14000 4.202
67.16000 2.079
67.18000 1.064
67.20000 1.898
67.22000 4.230
67.24000 2.889
67.26000 5.697
67.28000 8.349
67.30000 10.781
67.32000 8.078
67.34000 1.447
67.36000 1.439
67.38000 0.844
67.40000 7.357
67.42000 6.058
67.44000 8.179
67.46000 7.631
67.48000 6.641
67.50000 9.686
67.52000 11.579
67.54000 9.351
67.56000 11.369
67.58000 10.738
67.60000 10.350
67.62000 9.768
67.64000 7.155
67.66000 8.807
67.68000 8.789
67.70000 9.747
67.72000 7.861
67.74000 10.159
67.76000 12.704
67.78000 11.741
67.80000 11.347
67.82000 9.497
67.84000 9.957
67.86000 14.021
67.88000 12.130
67.90000 15.096
67.92000 12.529
67.94000 12.713
67.96000 15.648
67.98000 13.093
68.00000 17.786
68.02000 15.471
68.04000 14.854
68.06000 14.603
68.08000 17.530
68.10000 18.668
68.12000 20.779
68.14000 21.075
68.16000 18.540
68.18000 16.125
68.20000 13.498
68.22000 13.767
68.24000 16.712
68.26000 20.174
68.28000 22.354
68.30000 20.089
68.32000 20.375
68.34000 19.642
68.36000 23.896
68.38000 20.195
68.40000 22.580
68.42000 21.511
68.44000 23.039
68.46000 23.862
68.48000 21.354
68.50000 26.155
68.52000 21.479
68.54000 18.389
68.56000 22.688
68.58000 25.976
68.60000 31.665
68.62000 21.774
68.64000 17.986
68.66000 18.833
68.68000 20.645
68.70000 18.670
68.72000 20.851
68.74000 20.703
68.76000 19.432
68.78000 16.277
68.80000 21.773
68.82000 22.725
68.84000 25.880
68.86000 23.489
68.88000 20.652
68.90000 23.796
68.92000 18.698
68.94000 22.874
68.96000 21.267
68.98000 20.942
69.00000 17.085
69.02000 17.450
69.04000 18.549
69.06000 18.165
69.08000 19.507
69.10000 20.101
69.12000 15.553
69.14000 11.477
69.16000 14.003
69.18000 14.323
69.20000 13.654
69.22000 13.319
69.24000 12.251
69.26000 11.037
69.28000 8.909
69.30000 9.794
69.32000 8.537
69.34000 8.728
69.36000 8.544
69.38000 10.654
69.40000 11.344
69.42000 12.550
69.44000 10.909
69.46000 9.749
69.48000 10.693
69.50000 8.275
69.52000 3.271
69.54000 3.820
69.56000 6.456
69.58000 5.295
69.60000 9.598
69.62000 11.871
69.64000 12.194
69.66000 7.159
69.68000 4.932
69.70000 7.083
69.72000 5.213
69.74000 5.832
69.76000 5.957
69.78000 5.120
69.80000 3.896
69.82000 3.212
69.84000 2.627
69.86000 2.129
69.88000 5.442
69.90000 4.466
69.92000 1.584
69.94000 -0.958
69.96000 0.928
69.98000 1.786
70.00000 2.606
70.02000 2.038
70.04000 -1.117
70.06000 2.445
70.08000 1.202
70.10000 0.945
70.12000 2.232
70.14000 2.756
70.16000 2.931
70.18000 1.399
70.20000 3.097
70.22000 4.234
70.24000 -1.634
70.26000 -0.366
70.28000 -2.623
70.30000 4.107
70.32000 5.106
70.34000 4.270
70.36000 2.287
70.38000 -1.001
70.40000 1.304
70.42000 1.848
70.44000 0.895
70.46000 1.317
70.48000 2.641
70.50000 -0.785
70.52000 1.967
70.54000 1.210
70.56000 1.076
70.58000 0.422
70.60000 -1.474
70.62000 -0.465
70.64000 1.112
70.66000 6.002
70.68000 7.002
70.70000 3.684
70.72000 2.955
70.74000 0.464
70.76000 3.052
70.78000 4.222
70.80000 1.055
70.82000 -2.546
70.84000 5.448
70.86000 3.845
70.88000 -2.543
70.90000 2.060
70.92000 0.696
70.94000 1.421
70.96000 4.087
70.98000 2.661
71.00000 2.258
71.02000 2.487
71.04000 1.777
71.06000 -0.580
71.08000 3.431
71.10000 3.494
71.12000 2.461
71.14000 2.112
71.16000 1.020
71.18000 3.655
71.20000 3.896
71.22000 0.917
71.24000 2.051
71.26000 4.281
71.28000 -0.180
71.30000 4.650
71.32000 5.577
71.34000 3.439
71.36000 1.539
71.38000 4.604
71.40000 4.625
71.42000 -1.283
71.44000 -1.792
71.46000 -0.086
71.48000 4.926
71.50000 3.114
71.52000 2.696
71.54000 3.409
71.56000 7.740
71.58000 3.682
71.60000 1.739
71.62000 3.306
71.64000 4.074
71.66000 6.486
71.68000 3.461
71.70000 3.030
71.72000 4.776
71.74000 4.898
71.76000 2.403
71.78000 1.887
71.80000 -0.381
71.82000 -1.901
71.84000 1.041
71.86000 2.818
71.88000 6.924
71.90000 8.585
71.92000 4.522
71.94000 3.036
71.96000 4.643
71.98000 4.573
72.00000 5.311
72.02000 2.800
72.04000 2.748
72.06000 3.548
72.08000 5.888
72.10000 4.464
72.12000 6.106
72.14000 9.053
72.16000 5.569
72.18000 2.176
72.20000 2.036
72.22000 5.586
72.24000 4.371
72.26000 3.248
72.28000 5.600
72.30000 4.128
72.32000 4.183
72.34000 5.342
72.36000 -2.441
72.38000 0.103
72.40000 3.472
72.42000 4.944
72.44000 5.072
72.46000 8.209
72.48000 9.656
72.50000 5.443
72.52000 6.908
72.54000 3.450
72.56000 5.230
72.58000 3.260
72.60000 1.699
72.62000 5.463
72.64000 1.813
72.66000 2.495
72.68000 2.416
72.70000 0.593
72.72000 -2.436
72.74000 1.012
72.76000 4.092
72.78000 3.522
72.80000 3.707
72.82000 4.273
72.84000 4.780
72.86000 3.327
72.88000 3.364
72.90000 5.195
72.92000 3.703
72.94000 2.256
72.96000 3.232
72.98000 0.923
73.00000 3.977
73.02000 2.738
73.04000 3.501
73.06000 3.053
73.08000 0.916
73.10000 3.227
73.12000 -0.281
73.14000 -0.776
73.16000 2.502
73.18000 5.699
73.20000 7.506
73.22000 7.835
73.24000 7.582
73.26000 5.701
73.28000 2.501
73.30000 3.186
73.32000 6.869
73.34000 5.077
73.36000 4.653
73.38000 1.173
73.40000 3.653
73.42000 8.682
73.44000 4.060
73.46000 0.349
73.48000 -0.249
73.50000 -1.229
73.52000 3.758
73.54000 3.812
73.56000 2.097
73.58000 3.444
73.60000 4.526
73.62000 8.013
73.64000 4.974
73.66000 3.297
73.68000 5.497
73.70000 3.036
73.72000 -1.457
73.74000 5.507
73.76000 6.392
73.78000 2.447
73.80000 3.945
73.82000 2.390
73.84000 3.690
73.86000 0.835
73.88000 0.906
73.90000 -2.430
73.92000 1.693
73.94000 2.663
73.96000 -1.005
73.98000 -0.912
74.00000 0.371
74.02000 3.834
74.04000 6.103
74.06000 -0.102
74.08000 -0.336
74.10000 1.294
74.12000 2.839
74.14000 4.810
74.16000 1.830
74.18000 0.705
74.20000 2.687
74.22000 2.824
74.24000 -0.890
74.26000 -1.020
74.28000 -0.903
74.30000 0.292
74.32000 -2.428
74.34000 -0.011
74.36000 1.791
74.38000 2.254
74.40000 5.375
74.42000 1.432
74.44000 2.798
74.46000 -0.578
74.48000 0.247
74.50000 5.991
74.52000 3.505
74.54000 0.090
74.56000 1.096
74.58000 0.440
74.60000 3.651
74.62000 2.747
74.64000 -1.133
74.66000 1.540
74.68000 -0.914
74.70000 0.100
74.72000 3.838
74.74000 2.308
74.76000 2.712
74.78000 3.863
74.80000 2.990
74.82000 1.627
74.84000 2.403
74.86000 1.144
74.88000 2.148
74.90000 0.572
74.92000 -2.412
74.94000 4.523
74.96000 4.252
74.98000 5.121
75.00000 2.990
75.02000 5.472
75.04000 5.583
75.06000 4.071
75.08000 6.689
75.10000 6.294
75.12000 3.050
75.14000 3.790
75.16000 4.243
75.18000 4.541
75.20000 4.368
75.22000 -0.048
75.24000 -0.132
75.26000 5.413
75.28000 5.653
75.30000 4.411
75.32000 -0.029
75.34000 -0.474
75.36000 5.251
75.38000 3.994
75.40000 6.430
75.42000 5.061
75.44000 -1.076
75.46000 -0.523
75.48000 2.145
75.50000 1.253
75.52000 0.418
75.54000 -0.840
75.56000 2.643
75.58000 -0.666
75.60000 4.987
75.62000 5.624
75.64000 2.732
75.66000 4.706
75.68000 8.395
75.70000 6.046
75.72000 4.845
75.74000 6.102
75.76000 5.568
75.78000 4.950
75.80000 2.654
75.82000 3.237
75.84000 2.884
75.86000 6.967
75.88000 4.151
75.90000 3.742
75.92000 6.324
75.94000 2.625
75.96000 5.330
75.98000 5.684
76.00000 4.238
76.02000 1.626
76.04000 1.651
76.06000 5.098
76.08000 6.515
76.10000 7.714
76.12000 9.159
76.14000 8.223
76.16000 5.129
76.18000 2.892
76.20000 2.609
76.22000 2.097
76.24000 7.107
76.26000 0.640
76.28000 0.318
76.30000 5.704
76.32000 2.955
76.34000 -2.389
76.36000 2.938
76.38000 3.964
76.40000 7.317
76.42000 3.254
76.44000 7.312
76.46000 3.785
76.48000 4.891
76.50000 5.346
76.52000 6.364
76.54000 3.877
76.56000 4.066
76.58000 8.478
76.60000 8.070
76.62000 6.808
76.64000 7.396
76.66000 4.618
76.68000 5.852
76.70000 10.313
76.72000 6.005
76.74000 8.372
76.76000 7.986
76.78000 3.510
76.80000 6.678
76.82000 6.473
76.84000 5.282
76.86000 3.752
76.88000 -0.898
76.90000 4.380
76.92000 2.860
76.94000 2.169
76.96000 2.256
76.98000 1.913
77.00000 -0.082
77.02000 0.363
77.04000 4.827
77.06000 11.205
77.08000 6.437
77.10000 2.379
77.12000 3.920
77.14000 3.385
77.16000 1.304
77.18000 5.599
77.20000 3.807
77.22000 0.867
77.24000 -1.936
77.26000 -1.795
77.28000 3.616
77.30000 2.701
77.32000 5.049
77.34000 4.201
77.36000 1.958
77.38000 6.764
77.40000 3.014
77.42000 0.986
77.44000 -0.541
77.46000 -2.445
77.48000 -1.796
77.50000 1.972
77.52000 5.567
77.54000 5.201
77.56000 8.848
77.58000 8.790
77.60000 8.980
77.62000 5.965
77.64000 6.054
77.66000 4.810
77.68000 0.596
77.70000 5.338
77.72000 4.445
77.74000 4.206
77.76000 4.659
77.78000 4.058
77.80000 0.361
77.82000 1.776
77.84000 3.783
77.86000 2.264
77.88000 0.765
77.90000 5.115
77.92000 11.791
77.94000 6.505
77.96000 4.696
77.98000 -0.069
78.00000 1.201
78.02000 9.605
78.04000 5.160
78.06000 2.643
78.08000 7.873
78.10000 7.450
78.12000 1.378
78.14000 2.184
78.16000 4.533
78.18000 3.491
78.20000 5.843
78.22000 9.514
78.24000 9.098
78.26000 5.970
78.28000 4.268
78.30000 1.719
78.32000 -2.486
78.34000 -0.115
78.36000 1.844
78.38000 2.752
78.40000 0.799
78.42000 1.382
78.44000 3.445
78.46000 3.006
78.48000 5.007
78.50000 5.638
78.52000 3.773
78.54000 3.010
78.56000 1.800
78.58000 7.865
78.60000 4.900
78.62000 2.765
78.64000 4.832
78.66000 -0.211
78.68000 -0.001
78.70000 2.420
78.72000 4.054
78.74000 4.303
78.76000 3.892
78.78000 5.992
78.80000 8.109
78.82000 6.334
78.84000 4.886
78.86000 0.449
78.88000 -0.996
78.90000 -1.606
78.92000 0.749
78.94000 -0.024
78.96000 0.059
78.98000 -1.556
79.00000 -2.485
79.02000 -0.812
79.04000 2.404
79.06000 2.288
79.08000 -1.726
79.10000 -1.805
79.12000 -1.746
79.14000 -0.971
79.16000 2.334
79.18000 2.754
79.20000 1.749
79.22000 2.630
79.24000 0.760
79.26000 2.362
79.28000 7.113
79.30000 6.792
79.32000 2.310
79.34000 -1.720
79.36000 -1.916
79.38000 -2.492
79.40000 1.429
79.42000 1.295
79.44000 1.071
79.46000 3.443
79.48000 3.777
79.50000 4.145
79.52000 5.330
79.54000 6.421
79.56000 5.692
79.58000 2.604
79.60000 9.234
79.62000 7.680
79.64000 5.540
79.66000 8.995
79.68000 12.721
79.70000 9.195
79.72000 2.249
79.74000 2.712
79.76000 -1.363
79.78000 2.303
79.80000 3.807
79.82000 2.282
79.84000 0.978
79.86000 1.821
79.88000 -0.116
79.90000 5.313
79.92000 4.787
79.94000 1.534
79.96000 1.296
79.98000 1.745
80.00000 6.504
80.02000 4.320
80.04000 4.708
80.06000 2.665
80.08000 2.651
80.10000 0.914
80.12000 3.354
80.14000 5.483
80.16000 3.430
80.18000 7.470
80.20000 7.727
80.22000 8.391
80.24000 7.896
80.26000 5.856
80.28000 6.487
80.30000 9.932
80.32000 6.187
80.34000 5.282
80.36000 1.061
80.38000 5.075
80.40000 8.213
80.42000 5.873
80.44000 8.908
80.46000 3.405
80.48000 1.688
80.50000 2.540
80.52000 -2.543
80.54000 3.321
80.56000 3.071
80.58000 8.748
80.60000 3.428
80.62000 6.791
80.64000 3.895
80.66000 4.833
80.68000 2.646
80.70000 3.068
80.72000 4.739
80.74000 6.575
80.76000 7.097
80.78000 3.230
80.80000 4.247
80.82000 11.575
80.84000 11.649
80.86000 5.838
80.88000 4.044
80.90000 4.791
80.92000 6.883
80.94000 8.965
80.96000 5.391
80.98000 8.302
81.00000 6.504
81.02000 7.331
81.04000 7.181
81.06000 4.649
81.08000 5.330
81.10000 8.782
81.12000 10.393
81.14000 5.123
81.16000 4.526
81.18000 7.308
81.20000 3.698
81.22000 3.255
81.24000 8.104
81.26000 11.690
81.28000 12.592
81.30000 6.428
81.32000 7.884
81.34000 8.243
81.36000 7.407
81.38000 7.416
81.40000 12.049
81.42000 9.330
81.44000 9.875
81.46000 8.053
81.48000 9.625
81.50000 12.699
81.52000 12.549
81.54000 8.311
81.56000 12.877
81.58000 15.290
81.60000 12.042
81.62000 10.401
81.64000 12.728
81.66000 11.417
81.68000 10.922
81.70000 8.976
81.72000 9.667
81.74000 12.206
81.76000 10.620
81.78000 12.592
81.80000 9.834
81.82000 13.341
81.84000 8.377
81.86000 7.150
81.88000 13.678
81.90000 15.925
81.92000 17.541
81.94000 18.613
81.96000 11.763
81.98000 15.154
82.00000 19.324
82.02000 17.160
82.04000 23.445
82.06000 14.184
82.08000 16.425
82.10000 16.452
82.12000 14.138
82.14000 15.040
82.16000 15.567
82.18000 18.297
82.20000 26.866
82.22000 19.402
82.24000 21.119
82.26000 13.701
82.28000 14.208
82.30000 16.623
82.32000 22.230
82.34000 21.392
82.36000 20.599
82.38000 23.735
82.40000 21.908
82.42000 20.582
82.44000 25.727
82.46000 23.359
82.48000 23.936
82.50000 28.849
82.52000 31.334
82.54000 24.228
82.56000 23.552
82.58000 23.990
82.60000 27.400
82.62000 23.865
82.64000 21.921
82.66000 33.355
82.68000 25.313
82.70000 22.474
82.72000 16.245
82.74000 21.924
82.76000 22.106
82.78000 23.346
82.80000 25.210
82.82000 23.066
82.84000 20.340
82.86000 26.519
82.88000 26.229
82.90000 24.010
82.92000 22.409
82.94000 24.722
82.96000 23.623
82.98000 22.707
83.00000 20.271
83.02000 22.560
83.04000 25.704
83.06000 25.096
83.08000 20.208
83.10000 19.156
83.12000 18.368
83.14000 18.031
83.16000 15.613
83.18000 25.417
83.20000 23.821
83.22000 24.292
83.24000 22.531
83.26000 18.499
83.28000 20.551
83.30000 19.742
83.32000 15.606
83.34000 13.273
83.36000 23.144
83.38000 24.432
83.40000 21.203
83.42000 16.088
83.44000 16.046
83.46000 16.547
83.48000 17.563
83.50000 16.933
83.52000 14.043
83.54000 12.267
83.56000 7.772
83.58000 10.754
83.60000 11.195
83.62000 12.867
83.64000 9.280
83.66000 11.208
83.68000 14.768
83.70000 15.026
83.72000 14.905
83.74000 12.664
83.76000 10.474
83.78000 12.413
83.80000 10.253
83.82000 8.783
83.84000 9.412
83.86000 11.319
83.88000 10.683
83.90000 10.444
83.92000 11.785
83.94000 6.186
83.96000 13.452
83.98000 9.504
84.00000 3.473
84.02000 6.648
84.04000 11.110
84.06000 12.148
84.08000 9.753
84.10000 5.220
84.12000 4.845
84.14000 2.982
84.16000 -1.561
84.18000 1.270
84.20000 0.293
84.22000 1.402
84.24000 2.177
84.26000 3.698
84.28000 7.577
84.30000 7.896
84.32000 1.901
84.34000 4.158
84.36000 4.690
84.38000 2.475
84.40000 2.451
84.42000 2.629
84.44000 5.283
84.46000 1.590
84.48000 0.517
84.50000 1.185
84.52000 0.234
84.54000 5.133
84.56000 2.890
84.58000 6.452
84.60000 7.934
84.62000 4.613
84.64000 2.316
84.66000 2.613
84.68000 0.523
84.70000 -0.210
84.72000 7.493
84.74000 4.531
84.76000 6.145
84.78000 5.091
84.80000 6.052
84.82000 5.049
84.84000 5.819
84.86000 3.114
84.88000 1.579
84.90000 -0.716
84.92000 -2.545
84.94000 3.225
84.96000 0.071
84.98000 -1.490
85.00000 1.504
85.02000 2.073
85.04000 1.314
85.06000 1.313
85.08000 1.208
85.10000 2.875
85.12000 3.382
85.14000 -1.073
85.16000 2.108
85.18000 2.247
85.20000 2.574
85.22000 0.896
85.24000 5.857
85.26000 3.037
85.28000 0.370
85.30000 -2.529
85.32000 -1.467
85.34000 2.414
85.36000 5.277
85.38000 5.893
85.40000 5.007
85.42000 -0.370
85.44000 -1.228
85.46000 -0.525
85.48000 -2.523
85.50000 -1.162
85.52000 3.152
85.54000 2.385
85.56000 2.813
85.58000 -0.331
85.60000 -0.919
85.62000 3.156
85.64000 3.939
85.66000 4.695
85.68000 3.620
85.70000 2.054
85.72000 0.021
85.74000 -0.955
85.76000 8.247
85.78000 6.155
85.80000 5.854
85.82000 3.782
85.84000 1.022
85.86000 -2.549
85.88000 -1.561
85.90000 -1.139
85.92000 1.693
85.94000 1.190
85.96000 2.406
85.98000 3.717
86.00000 4.181
86.02000 3.954
86.04000 3.386
86.06000 2.763
86.08000 4.834
86.10000 4.145
86.12000 4.357
86.14000 0.300
86.16000 2.939
86.18000 -2.386
86.20000 0.342
86.22000 5.780
86.24000 5.104
86.26000 7.392
86.28000 2.297
86.30000 0.173
86.32000 6.083
86.34000 7.707
86.36000 8.523
86.38000 8.677
86.40000 7.930
86.42000 4.122
86.44000 6.541
86.46000 10.055
86.48000 11.326
86.50000 12.142
86.52000 12.134
86.54000 6.246
86.56000 9.276
86.58000 13.432
86.60000 11.205
86.62000 4.116
86.64000 3.923
86.66000 9.332
86.68000 8.069
86.70000 10.481
86.72000 15.287
86.74000 11.558
86.76000 10.325
86.78000 13.602
86.80000 13.568
86.82000 12.640
86.84000 10.807
86.86000 11.519
86.88000 18.418
86.90000 17.637
86.92000 13.740
86.94000 15.366
86.96000 17.550
86.98000 16.079
87.00000 19.674
87.02000 21.242
87.04000 16.211
87.06000 15.358
87.08000 17.027
87.10000 18.776
87.12000 18.818
87.14000 17.500
87.16000 18.166
87.18000 19.932
87.20000 17.000
87.22000 18.292
87.24000 16.249
87.26000 16.723
87.28000 17.819
87.30000 20.055
87.32000 18.184
87.34000 20.148
87.36000 20.871
87.38000 17.408
87.40000 20.707
87.42000 21.494
87.44000 16.045
87.46000 18.109
87.48000 17.641
87.50000 21.357
87.52000 28.339
87.54000 18.720
87.56000 18.908
87.58000 18.531
87.60000 18.078
87.62000 15.661
87.64000 16.084
87.66000 16.896
87.68000 16.828
87.70000 18.145
87.72000 15.810
87.74000 17.169
87.76000 17.337
87.78000 15.443
87.80000 14.012
87.82000 8.720
87.84000 8.431
87.86000 11.651
87.88000 13.839
87.90000 13.961
87.92000 8.728
87.94000 9.932
87.96000 11.533
87.98000 14.992
88.00000 6.043
88.02000 8.657
88.04000 9.843
88.06000 5.684
88.08000 8.642
88.10000 11.187
88.12000 10.138
88.14000 9.902
88.16000 8.683
88.18000 10.305
88.20000 10.345
88.22000 7.624
88.24000 3.804
88.26000 4.622
88.28000 10.191
88.30000 10.150
88.32000 6.756
88.34000 4.993
88.36000 6.725
88.38000 10.265
88.40000 7.199
88.42000 5.726
88.44000 3.117
88.46000 1.503
88.48000 6.603
88.50000 7.416
88.52000 8.124
88.54000 4.988
88.56000 6.493
88.58000 5.950
88.60000 3.604
88.62000 0.595
88.64000 0.518
88.66000 8.085
88.68000 8.382
88.70000 -0.949
88.72000 0.633
88.74000 7.528
88.76000 11.186
88.78000 5.738
88.80000 2.173
88.82000 4.522
88.84000 4.002
88.86000 -0.131
88.88000 3.846
88.90000 -2.417
88.92000 2.701
88.94000 5.238
88.96000 9.165
88.98000 3.523
89.00000 6.497
89.02000 6.836
89.04000 1.255
89.06000 0.899
89.08000 3.204
89.10000 -0.531
89.12000 0.366
89.14000 1.167
89.16000 -1.285
89.18000 -2.372
89.20000 2.581
89.22000 4.008
89.24000 5.559
89.26000 7.005
89.28000 6.456
89.30000 8.060
89.32000 5.969
89.34000 6.173
89.36000 2.043
89.38000 3.200
89.40000 2.489
89.42000 3.804
89.44000 -2.330
89.46000 0.428
89.48000 1.949
89.50000 2.329
89.52000 0.750
89.54000 -1.239
89.56000 -2.321
89.58000 3.159
89.60000 10.199
89.62000 7.578
89.64000 6.083
89.66000 -0.070
89.68000 7.971
89.70000 5.217
89.72000 3.666
89.74000 7.073
89.76000 6.709
89.78000 1.913
89.80000 0.799
89.82000 4.915
89.84000 4.428
89.86000 5.271
89.88000 6.112
89.90000 3.878
89.92000 2.478
89.94000 0.088
89.96000 5.900
89.98000 5.219
90.00000 -1.013
90.02000 -1.078
90.04000 2.971
90.06000 6.078
90.08000 1.288
90.10000 6.465
90.12000 5.302
90.14000 5.060
90.16000 6.693
90.18000 3.437
90.20000 -0.989
90.22000 3.818
90.24000 6.545
90.26000 10.145
90.28000 5.993
90.30000 3.619
90.32000 3.126
90.34000 7.754
90.36000 7.728
90.38000 -2.355
90.40000 3.588
90.42000 5.686
90.44000 7.390
90.46000 5.984
90.48000 8.731
90.50000 4.616
90.52000 6.962
90.54000 3.813
90.56000 2.591
90.58000 1.026
90.60000 1.359
90.62000 7.323
90.64000 9.501
90.66000 6.245
90.68000 4.061
90.70000 -1.223
90.72000 -1.484
90.74000 4.982
90.76000 3.838
90.78000 1.776
90.80000 3.204
90.82000 5.565
90.84000 6.956
90.86000 5.758
90.88000 5.651
90.90000 -1.462
90.92000 2.117
90.94000 7.355
90.96000 4.655
90.98000 4.203
91.00000 3.523
91.02000 6.492
91.04000 7.749
91.06000 3.157
91.08000 0.928
91.10000 2.286
91.12000 3.728
91.14000 1.807
91.16000 5.211
91.18000 2.791
91.20000 2.420
91.22000 0.540
91.24000 1.631
91.26000 -1.218
91.28000 0.586
91.30000 0.582
91.32000 6.534
91.34000 11.796
91.36000 5.921
91.38000 1.878
91.40000 -0.384
91.42000 1.460
91.44000 -1.283
91.46000 2.551
91.48000 4.821
91.50000 6.983
91.52000 3.263
91.54000 4.366
91.56000 2.860
91.58000 -0.284
91.60000 -0.076
91.62000 0.044
91.64000 2.468
91.66000 -0.792
91.68000 2.967
91.70000 7.160
91.72000 2.763
91.74000 1.259
91.76000 2.464
91.78000 2.174
91.80000 -0.071
91.82000 8.562
91.84000 12.377
91.86000 0.797
91.88000 0.896
91.90000 2.118
91.92000 0.700
91.94000 3.342
91.96000 1.959
91.98000 1.621
92.00000 5.578
92.02000 8.293
92.04000 4.066
92.06000 2.960
92.08000 4.148
92.10000 0.312
92.12000 2.073
92.14000 0.839
92.16000 2.496
92.18000 -1.905
92.20000 -1.676
92.22000 0.859
92.24000 1.100
92.26000 1.689
92.28000 4.333
92.30000 3.444
92.32000 -0.284
92.34000 -2.316
92.36000 0.680
92.38000 4.247
92.40000 2.792
92.42000 2.764
92.44000 4.679
92.46000 7.216
92.48000 13.881
92.50000 4.388
92.52000 -2.164
92.54000 2.866
92.56000 1.327
92.58000 2.155
92.60000 0.021
92.62000 2.895
92.64000 5.198
92.66000 4.351
92.68000 4.944
92.70000 -1.895
92.72000 -1.681
92.74000 4.882
92.76000 5.682
92.78000 1.325
92.80000 2.588
92.82000 0.434
92.84000 0.492
92.86000 -2.021
92.88000 -2.178
92.90000 3.434
92.92000 6.395
92.94000 5.808
92.96000 2.789
92.98000 3.369
93.00000 1.486
93.02000 -0.110
93.04000 3.897
93.06000 1.067
93.08000 4.007
93.10000 8.255
93.12000 4.904
93.14000 0.618
93.16000 0.288
93.18000 -2.325
93.20000 -1.378
93.22000 2.195
93.24000 3.882
93.26000 -0.700
93.28000 1.810
93.30000 -0.495
93.32000 -0.491
93.34000 3.080
93.36000 3.169
93.38000 -1.384
93.40000 0.061
93.42000 1.559
93.44000 1.699
93.46000 1.477
93.48000 2.056
93.50000 8.019
93.52000 2.234
93.54000 3.798
93.56000 10.497
93.58000 9.085
93.60000 2.136
93.62000 -0.753
93.64000 1.750
93.66000 -0.027
93.68000 -0.847
93.70000 -0.364
93.72000 6.840
93.74000 2.196
93.76000 -0.548
93.78000 7.064
93.80000 3.166
93.82000 1.315
93.84000 0.824
93.86000 1.217
93.88000 -0.724
93.90000 0.667
93.92000 -0.640
93.94000 -2.321
93.96000 0.179
93.98000 -2.335
94.00000 5.884
94.02000 -1.498
94.04000 -1.798
94.06000 4.556
94.08000 4.440
94.10000 4.104
94.12000 4.240
94.14000 6.643
94.16000 2.556
94.18000 2.469
94.20000 3.026
94.22000 2.989
94.24000 1.304
94.26000 5.499
94.28000 7.155
94.30000 5.070
94.32000 -1.276
94.34000 4.921
94.36000 5.627
94.38000 1.624
94.40000 -0.018
94.42000 1.133
94.44000 5.887
94.46000 5.430
94.48000 4.112
94.50000 9.570
94.52000 7.036
94.54000 1.895
94.56000 5.360
94.58000 6.624
94.60000 4.112
94.62000 2.660
94.64000 5.800
94.66000 6.177
94.68000 0.862
94.70000 2.498
94.72000 3.398
94.74000 5.842
94.76000 3.474
94.78000 3.481
94.80000 0.988
94.82000 2.263
94.84000 4.778
94.86000 1.344
94.88000 -0.685
94.90000 1.941
94.92000 8.806
94.94000 10.641
94.96000 3.904
94.98000 4.867
95.00000 2.502
95.02000 9.592
95.04000 4.687
95.06000 2.801
95.08000 4.460
95.10000 2.502
95.12000 -2.280
95.14000 1.345
95.16000 6.629
95.18000 7.830
95.20000 2.588
95.22000 8.169
95.24000 7.742
95.26000 2.885
95.28000 1.963
95.30000 8.179
95.32000 15.855
95.34000 9.101
95.36000 1.508
95.38000 1.337
95.40000 5.864
95.42000 4.807
95.44000 4.079
95.46000 4.758
95.48000 5.040
95.50000 -0.703
95.52000 5.003
95.54000 2.439
95.56000 -0.218
95.58000 0.146
95.60000 2.329
95.62000 7.353
95.64000 6.302
95.66000 10.554
95.68000 9.998
95.70000 9.215
95.72000 6.744
95.74000 0.643
95.76000 4.777
95.78000 7.170
95.80000 5.442
95.82000 8.724
95.84000 5.179
95.86000 7.778
95.88000 6.434
95.90000 2.098
95.92000 0.654
95.94000 5.726
95.96000 4.527
95.98000 7.107
96.00000 3.012
96.02000 3.401
96.04000 5.977
96.06000 -1.392
96.08000 -1.735
96.10000 -1.584
96.12000 0.252
96.14000 3.725
96.16000 8.844
96.18000 9.390
96.20000 7.672
96.22000 5.433
96.24000 4.441
96.26000 6.953
96.28000 4.132
96.30000 2.587
96.32000 1.302
96.34000 3.027
96.36000 6.722
96.38000 3.898
96.40000 5.423
96.42000 2.176
96.44000 6.581
96.46000 2.901
96.48000 5.458
96.50000 2.284
96.52000 4.534
96.54000 1.826
96.56000 0.298
96.58000 3.018
96.60000 0.269
96.62000 4.333
96.64000 4.524
96.66000 3.335
96.68000 -0.973
96.70000 2.371
96.72000 11.136
96.74000 6.531
96.76000 4.058
96.78000 6.702
96.80000 8.380
96.82000 2.997
96.84000 -2.323
96.86000 3.369
96.88000 2.972
96.90000 6.760
96.92000 5.069
96.94000 5.320
96.96000 -0.027
96.98000 0.893
97.00000 0.771
97.02000 4.882
97.04000 4.368
97.06000 1.613
97.08000 3.283
97.10000 7.354
97.12000 6.666
97.14000 6.496
97.16000 2.946
97.18000 4.414
97.20000 11.987
97.22000 10.318
97.24000 0.871
97.26000 1.075
97.28000 6.639
97.30000 4.918
97.32000 3.288
97.34000 6.515
97.36000 10.759
97.38000 8.095
97.40000 16.024
97.42000 9.734
97.44000 -0.324
97.46000 0.864
97.48000 7.636
97.50000 11.157
97.52000 7.668
97.54000 1.913
97.56000 8.149
97.58000 7.353
97.60000 1.841
97.62000 4.889
97.64000 2.769
97.66000 1.528
97.68000 5.215
97.70000 5.824
97.72000 2.104
97.74000 3.307
97.76000 2.527
97.78000 -2.286
97.80000 -0.678
97.82000 1.897
97.84000 -0.605
97.86000 -1.359
97.88000 5.243
97.90000 11.076
97.92000 0.809
97.94000 -0.600
97.96000 -0.367
97.98000 -0.187
98.00000 2.546
98.02000 3.441
98.04000 8.115
98.06000 6.242
98.08000 8.367
98.10000 0.566
98.12000 2.062
98.14000 2.008
98.16000 7.099
98.18000 12.491
98.20000 10.286
98.22000 9.108
98.24000 4.769
98.26000 13.821
98.28000 4.759
98.30000 10.343
98.32000 3.523
98.34000 8.587
98.36000 6.772
98.38000 6.147
98.40000 4.750
98.42000 3.679
98.44000 7.399
98.46000 1.961
98.48000 5.516
98.50000 14.580
98.52000 5.387
98.54000 4.467
98.56000 -2.229
98.58000 6.621
98.60000 11.122
98.62000 6.520
98.64000 2.965
98.66000 8.752
98.68000 7.666
98.70000 15.671
98.72000 16.302
98.74000 3.692
98.76000 4.820
98.78000 3.647
98.80000 -2.207
98.82000 -1.667
98.84000 1.780
98.86000 -0.409
98.88000 1.742
98.90000 3.659
98.92000 7.084
98.94000 15.913
98.96000 11.037
98.98000 14.542
99.00000 12.344
99.02000 18.075
99.04000 13.983
99.06000 2.879
99.08000 10.376
99.10000 10.319
99.12000 7.523
99.14000 1.043
99.16000 2.191
99.18000 2.343
99.20000 13.685
99.22000 12.923
99.24000 7.250
99.26000 8.875
99.28000 16.830
99.30000 8.764
99.32000 3.341
99.34000 -1.806
99.36000 -0.614
99.38000 8.391
99.40000 11.732
99.42000 5.765
99.44000 10.374
99.46000 9.234
99.48000 9.292
99.50000 14.777
99.52000 24.666
99.54000 18.951
99.56000 10.547
99.58000 5.652
99.60000 11.129
99.62000 8.435
99.64000 8.282
99.66000 -2.202
99.68000 -0.149
99.70000 4.741
99.72000 3.991
99.74000 8.407
99.76000 12.510
99.78000 6.017
99.80000 4.230
99.82000 3.725
99.84000 5.635
99.86000 -2.280
99.88000 -0.889
99.90000 2.367
99.92000 7.553
99.94000 20.099
99.96000 18.731
99.98000 0.000
