'Id: "0011389" Comment: "Integrate frame 0011389_Au-Ir-Rh_Au-Rich_XRD_Mapping-287-0000.gfrmwith cursor Wedge Cursor #5" Operator: "B?rgel" Anode: "Cu" Wavelength: "1.5406" Scantype: "2Theta (TwoTheta)" TimePerStep: "1" X: "0" Y: "27" Z: "5.95" 
10.00000 0.000
10.02000 6.879
10.04000 2.474
10.06000 -7.156
10.08000 11.573
10.10000 15.635
10.12000 35.830
10.14000 22.877
10.16000 27.769
10.18000 31.917
10.20000 27.826
10.22000 24.239
10.24000 14.548
10.26000 12.219
10.28000 28.699
10.30000 50.145
10.32000 37.358
10.34000 31.646
10.36000 35.359
10.38000 20.681
10.40000 19.808
10.42000 28.777
10.44000 22.223
10.46000 22.188
10.48000 24.714
10.50000 20.324
10.52000 25.106
10.54000 33.976
10.56000 22.031
10.58000 16.092
10.60000 25.126
10.62000 23.475
10.64000 15.369
10.66000 24.316
10.68000 22.688
10.70000 32.436
10.72000 16.178
10.74000 15.403
10.76000 25.363
10.78000 24.360
10.80000 17.172
10.82000 13.872
10.84000 20.511
10.86000 33.353
10.88000 38.774
10.90000 36.795
10.92000 10.457
10.94000 16.115
10.96000 19.769
10.98000 16.344
11.00000 13.357
11.02000 19.905
11.04000 34.325
11.06000 31.463
11.08000 27.852
11.10000 18.100
11.12000 17.916
11.14000 21.621
11.16000 11.910
11.18000 14.545
11.20000 25.325
11.22000 32.225
11.24000 28.709
11.26000 35.113
11.28000 33.421
11.30000 21.664
11.32000 17.833
11.34000 23.698
11.36000 31.932
11.38000 25.069
11.40000 21.949
11.42000 9.318
11.44000 12.686
11.46000 8.093
11.48000 -0.868
11.50000 8.403
11.52000 14.586
11.54000 5.705
11.56000 14.319
11.58000 29.797
11.60000 44.118
11.62000 42.298
11.64000 23.496
11.66000 16.614
11.68000 15.489
11.70000 17.296
11.72000 24.467
11.74000 24.053
11.76000 24.354
11.78000 14.456
11.80000 21.803
11.82000 11.564
11.84000 4.372
11.86000 10.924
11.88000 23.294
11.90000 24.983
11.92000 30.186
11.94000 31.573
11.96000 35.122
11.98000 22.521
12.00000 26.163
12.02000 20.148
12.04000 15.570
12.06000 17.838
12.08000 19.788
12.10000 24.288
12.12000 28.192
12.14000 20.015
12.16000 24.561
12.18000 13.547
12.20000 16.804
12.22000 23.418
12.24000 16.979
12.26000 10.335
12.28000 11.574
12.30000 10.268
12.32000 18.327
12.34000 23.650
12.36000 29.186
12.38000 15.183
12.40000 14.426
12.42000 18.103
12.44000 25.982
12.46000 22.300
12.48000 24.903
12.50000 22.755
12.52000 20.793
12.54000 26.190
12.56000 30.902
12.58000 19.024
12.60000 29.220
12.62000 30.910
12.64000 29.704
12.66000 28.073
12.68000 18.263
12.70000 23.027
12.72000 13.299
12.74000 18.399
12.76000 24.512
12.78000 22.606
12.80000 20.406
12.82000 22.172
12.84000 28.030
12.86000 26.750
12.88000 29.683
12.90000 28.282
12.92000 22.535
12.94000 25.546
12.96000 20.870
12.98000 14.331
13.00000 21.988
13.02000 19.126
13.04000 11.747
13.06000 8.615
13.08000 2.241
13.10000 5.185
13.12000 12.613
13.14000 21.790
13.16000 19.826
13.18000 13.531
13.20000 13.738
13.22000 7.692
13.24000 16.534
13.26000 12.786
13.28000 6.433
13.30000 9.969
13.32000 13.096
13.34000 16.182
13.36000 9.152
13.38000 8.635
13.40000 12.131
13.42000 21.940
13.44000 24.973
13.46000 18.734
13.48000 11.593
13.50000 3.440
13.52000 14.005
13.54000 24.292
13.56000 27.278
13.58000 14.522
13.60000 14.202
13.62000 20.884
13.64000 17.125
13.66000 18.997
13.68000 19.442
13.70000 22.117
13.72000 16.068
13.74000 21.470
13.76000 28.462
13.78000 20.753
13.80000 13.916
13.82000 9.293
13.84000 15.781
13.86000 24.307
13.88000 14.621
13.90000 20.172
13.92000 22.329
13.94000 9.953
13.96000 4.864
13.98000 15.657
14.00000 16.671
14.02000 14.146
14.04000 14.193
14.06000 14.836
14.08000 15.890
14.10000 12.774
14.12000 16.822
14.14000 15.141
14.16000 7.786
14.18000 3.906
14.20000 4.400
14.22000 4.528
14.24000 7.183
14.26000 17.021
14.28000 17.957
14.30000 16.956
14.32000 17.068
14.34000 17.529
14.36000 9.063
14.38000 17.158
14.40000 15.558
14.42000 11.492
14.44000 9.688
14.46000 18.690
14.48000 18.273
14.50000 7.795
14.52000 7.094
14.54000 10.981
14.56000 10.062
14.58000 14.430
14.60000 10.128
14.62000 10.168
14.64000 9.592
14.66000 21.928
14.68000 15.700
14.70000 14.891
14.72000 9.301
14.74000 10.053
14.76000 7.441
14.78000 1.313
14.80000 -0.462
14.82000 4.115
14.84000 3.998
14.86000 8.980
14.88000 7.320
14.90000 13.865
14.92000 9.353
14.94000 11.931
14.96000 12.068
14.98000 6.836
15.00000 11.388
15.02000 19.771
15.04000 11.638
15.06000 5.023
15.08000 6.403
15.10000 9.719
15.12000 16.321
15.14000 11.548
15.16000 2.302
15.18000 10.164
15.20000 13.248
15.22000 8.963
15.24000 12.124
15.26000 16.480
15.28000 14.609
15.30000 13.461
15.32000 11.457
15.34000 11.962
15.36000 16.671
15.38000 11.282
15.40000 6.315
15.42000 5.215
15.44000 9.114
15.46000 2.176
15.48000 12.632
15.50000 10.652
15.52000 12.017
15.54000 14.329
15.56000 10.056
15.58000 5.185
15.60000 6.318
15.62000 5.858
15.64000 12.610
15.66000 14.159
15.68000 5.607
15.70000 5.436
15.72000 6.868
15.74000 9.282
15.76000 10.881
15.78000 8.622
15.80000 4.848
15.82000 8.641
15.84000 5.879
15.86000 5.225
15.88000 9.174
15.90000 7.581
15.92000 16.055
15.94000 7.508
15.96000 4.920
15.98000 8.276
16.00000 7.940
16.02000 11.709
16.04000 10.873
16.06000 12.006
16.08000 3.202
16.10000 5.363
16.12000 8.510
16.14000 6.494
16.16000 17.681
16.18000 14.477
16.20000 11.177
16.22000 9.197
16.24000 10.023
16.26000 16.610
16.28000 9.636
16.30000 9.417
16.32000 13.647
16.34000 13.421
16.36000 13.800
16.38000 12.400
16.40000 10.497
16.42000 10.976
16.44000 2.919
16.46000 1.667
16.48000 4.936
16.50000 4.735
16.52000 10.498
16.54000 13.382
16.56000 14.534
16.58000 7.772
16.60000 15.100
16.62000 15.666
16.64000 9.489
16.66000 9.637
16.68000 11.406
16.70000 12.190
16.72000 13.690
16.74000 10.973
16.76000 5.371
16.78000 8.631
16.80000 10.663
16.82000 10.623
16.84000 9.772
16.86000 0.971
16.88000 4.572
16.90000 9.652
16.92000 7.684
16.94000 -1.994
16.96000 -4.406
16.98000 7.169
17.00000 6.694
17.02000 6.904
17.04000 10.385
17.06000 12.980
17.08000 6.513
17.10000 7.126
17.12000 1.962
17.14000 10.696
17.16000 13.760
17.18000 10.979
17.20000 10.013
17.22000 7.865
17.24000 5.557
17.26000 7.041
17.28000 4.435
17.30000 6.363
17.32000 7.888
17.34000 8.338
17.36000 9.809
17.38000 19.559
17.40000 12.626
17.42000 6.742
17.44000 6.689
17.46000 7.209
17.48000 8.044
17.50000 16.176
17.52000 19.001
17.54000 9.631
17.56000 3.823
17.58000 18.078
17.60000 18.871
17.62000 7.951
17.64000 -4.355
17.66000 2.956
17.68000 6.278
17.70000 10.361
17.72000 10.496
17.74000 9.520
17.76000 9.198
17.78000 6.517
17.80000 5.268
17.82000 8.981
17.84000 7.442
17.86000 10.044
17.88000 5.351
17.90000 2.335
17.92000 0.833
17.94000 4.653
17.96000 4.219
17.98000 8.944
18.00000 12.669
18.02000 6.576
18.04000 5.758
18.06000 15.507
18.08000 10.825
18.10000 8.378
18.12000 3.085
18.14000 5.524
18.16000 10.143
18.18000 10.338
18.20000 8.165
18.22000 6.863
18.24000 0.269
18.26000 0.798
18.28000 9.894
18.30000 1.667
18.32000 4.333
18.34000 7.032
18.36000 11.466
18.38000 10.354
18.40000 8.798
18.42000 6.447
18.44000 2.834
18.46000 7.158
18.48000 9.140
18.50000 7.483
18.52000 -0.668
18.54000 1.004
18.56000 1.919
18.58000 4.332
18.60000 8.941
18.62000 7.681
18.64000 6.674
18.66000 4.159
18.68000 8.923
18.70000 10.546
18.72000 15.152
18.74000 13.850
18.76000 6.075
18.78000 -1.723
18.80000 -1.481
18.82000 9.300
18.84000 11.122
18.86000 6.517
18.88000 9.894
18.90000 9.387
18.92000 5.029
18.94000 5.224
18.96000 3.966
18.98000 6.192
19.00000 10.112
19.02000 9.563
19.04000 8.105
19.06000 -1.305
19.08000 3.597
19.10000 12.025
19.12000 7.656
19.14000 8.526
19.16000 11.215
19.18000 4.748
19.20000 1.662
19.22000 3.437
19.24000 2.280
19.26000 4.791
19.28000 5.966
19.30000 5.920
19.32000 5.223
19.34000 2.329
19.36000 4.383
19.38000 5.809
19.40000 2.940
19.42000 5.135
19.44000 5.440
19.46000 8.715
19.48000 5.337
19.50000 5.476
19.52000 5.999
19.54000 8.752
19.56000 14.660
19.58000 15.490
19.60000 9.259
19.62000 6.253
19.64000 10.508
19.66000 8.780
19.68000 0.638
19.70000 1.324
19.72000 6.973
19.74000 3.347
19.76000 1.525
19.78000 4.336
19.80000 10.480
19.82000 5.785
19.84000 0.532
19.86000 -3.010
19.88000 2.899
19.90000 5.574
19.92000 5.976
19.94000 5.004
19.96000 11.268
19.98000 7.477
20.00000 -2.042
20.02000 2.108
20.04000 5.776
20.06000 7.188
20.08000 8.275
20.10000 7.866
20.12000 -4.226
20.14000 -0.336
20.16000 2.596
20.18000 1.330
20.20000 0.756
20.22000 8.809
20.24000 4.107
20.26000 3.251
20.28000 2.077
20.30000 1.920
20.32000 4.610
20.34000 -0.625
20.36000 6.354
20.38000 3.555
20.40000 6.243
20.42000 6.204
20.44000 4.074
20.46000 8.310
20.48000 9.588
20.50000 5.351
20.52000 4.848
20.54000 9.969
20.56000 6.604
20.58000 7.169
20.60000 11.264
20.62000 2.685
20.64000 13.379
20.66000 13.499
20.68000 5.322
20.70000 6.216
20.72000 10.357
20.74000 5.506
20.76000 1.700
20.78000 7.102
20.80000 9.009
20.82000 2.877
20.84000 2.167
20.86000 4.657
20.88000 4.585
20.90000 1.262
20.92000 6.397
20.94000 6.167
20.96000 5.235
20.98000 0.314
21.00000 4.112
21.02000 7.590
21.04000 9.669
21.06000 9.107
21.08000 -0.749
21.10000 2.852
21.12000 4.951
21.14000 4.036
21.16000 3.590
21.18000 3.265
21.20000 4.849
21.22000 5.915
21.24000 1.553
21.26000 -3.818
21.28000 -4.171
21.30000 -3.519
21.32000 0.463
21.34000 4.501
21.36000 14.865
21.38000 9.613
21.40000 8.822
21.42000 7.315
21.44000 5.585
21.46000 8.339
21.48000 1.744
21.50000 1.834
21.52000 10.999
21.54000 5.076
21.56000 1.408
21.58000 -1.853
21.60000 4.766
21.62000 12.236
21.64000 6.105
21.66000 7.724
21.68000 11.160
21.70000 7.833
21.72000 3.540
21.74000 -0.249
21.76000 4.029
21.78000 2.629
21.80000 4.027
21.82000 9.266
21.84000 14.706
21.86000 7.250
21.88000 9.587
21.90000 7.500
21.92000 5.898
21.94000 9.624
21.96000 6.655
21.98000 1.709
22.00000 -1.968
22.02000 3.652
22.04000 3.741
22.06000 2.472
22.08000 3.236
22.10000 0.800
22.12000 -3.046
22.14000 1.253
22.16000 5.661
22.18000 10.778
22.20000 7.809
22.22000 4.416
22.24000 1.500
22.26000 3.902
22.28000 4.265
22.30000 -3.755
22.32000 -2.135
22.34000 -0.836
22.36000 1.715
22.38000 2.761
22.40000 2.371
22.42000 1.501
22.44000 3.892
22.46000 7.935
22.48000 4.023
22.50000 5.911
22.52000 2.977
22.54000 1.445
22.56000 7.115
22.58000 1.044
22.60000 -1.450
22.62000 -3.719
22.64000 1.882
22.66000 8.120
22.68000 0.803
22.70000 -3.450
22.72000 -4.113
22.74000 0.866
22.76000 9.335
22.78000 1.089
22.80000 1.679
22.82000 4.637
22.84000 9.036
22.86000 4.106
22.88000 4.579
22.90000 4.244
22.92000 -1.341
22.94000 6.095
22.96000 4.718
22.98000 3.259
23.00000 3.597
23.02000 5.922
23.04000 2.572
23.06000 2.522
23.08000 9.086
23.10000 3.789
23.12000 0.671
23.14000 0.626
23.16000 1.915
23.18000 5.342
23.20000 0.496
23.22000 -1.331
23.24000 6.080
23.26000 8.807
23.28000 4.529
23.30000 -0.156
23.32000 1.676
23.34000 2.441
23.36000 0.451
23.38000 -2.270
23.40000 0.471
23.42000 -1.757
23.44000 -3.006
23.46000 -0.411
23.48000 1.587
23.50000 2.604
23.52000 7.302
23.54000 8.029
23.56000 -0.231
23.58000 7.599
23.60000 6.654
23.62000 0.832
23.64000 -0.979
23.66000 0.818
23.68000 -0.462
23.70000 1.294
23.72000 -0.181
23.74000 -2.288
23.76000 2.228
23.78000 6.211
23.80000 9.231
23.82000 -0.978
23.84000 1.519
23.86000 -1.940
23.88000 0.678
23.90000 4.687
23.92000 3.119
23.94000 -0.848
23.96000 1.448
23.98000 0.699
24.00000 0.553
24.02000 1.669
24.04000 3.137
24.06000 1.992
24.08000 -3.430
24.10000 -3.686
24.12000 -4.052
24.14000 0.331
24.16000 1.422
24.18000 2.363
24.20000 1.304
24.22000 1.918
24.24000 7.389
24.26000 3.269
24.28000 2.217
24.30000 -3.551
24.32000 -2.070
24.34000 -0.393
24.36000 -1.843
24.38000 -0.134
24.40000 2.508
24.42000 -3.032
24.44000 1.241
24.46000 2.671
24.48000 2.568
24.50000 3.222
24.52000 3.142
24.54000 4.975
24.56000 3.936
24.58000 5.019
24.60000 1.054
24.62000 -2.536
24.64000 -0.910
24.66000 7.097
24.68000 7.511
24.70000 4.031
24.72000 3.265
24.74000 6.558
24.76000 3.372
24.78000 -1.796
24.80000 -3.261
24.82000 -2.099
24.84000 -1.699
24.86000 -0.485
24.88000 -1.035
24.90000 2.294
24.92000 5.034
24.94000 1.522
24.96000 2.470
24.98000 8.629
25.00000 4.283
25.02000 0.081
25.04000 5.346
25.06000 0.962
25.08000 5.624
25.10000 9.576
25.12000 3.830
25.14000 1.126
25.16000 0.573
25.18000 4.723
25.20000 -0.061
25.22000 -3.975
25.24000 2.601
25.26000 11.278
25.28000 8.019
25.30000 7.851
25.32000 4.565
25.34000 3.655
25.36000 6.422
25.38000 2.346
25.40000 5.082
25.42000 6.220
25.44000 5.127
25.46000 6.102
25.48000 3.251
25.50000 4.726
25.52000 -3.947
25.54000 6.548
25.56000 10.023
25.58000 2.065
25.60000 2.868
25.62000 6.282
25.64000 5.885
25.66000 8.575
25.68000 3.811
25.70000 4.933
25.72000 7.442
25.74000 6.412
25.76000 3.887
25.78000 5.127
25.80000 6.799
25.82000 9.919
25.84000 6.579
25.86000 2.985
25.88000 0.390
25.90000 5.711
25.92000 4.264
25.94000 2.813
25.96000 2.097
25.98000 3.654
26.00000 2.256
26.02000 6.581
26.04000 7.830
26.06000 5.353
26.08000 3.976
26.10000 13.264
26.12000 12.161
26.14000 7.543
26.16000 12.566
26.18000 7.154
26.20000 3.088
26.22000 3.873
26.24000 4.278
26.26000 2.146
26.28000 4.479
26.30000 11.428
26.32000 10.264
26.34000 7.134
26.36000 3.634
26.38000 -0.638
26.40000 3.097
26.42000 8.808
26.44000 3.336
26.46000 5.661
26.48000 1.455
26.50000 6.625
26.52000 2.679
26.54000 1.568
26.56000 -1.747
26.58000 -2.715
26.60000 -0.494
26.62000 7.454
26.64000 7.681
26.66000 2.603
26.68000 0.623
26.70000 1.287
26.72000 4.360
26.74000 4.106
26.76000 0.071
26.78000 -0.530
26.80000 0.824
26.82000 2.476
26.84000 5.055
26.86000 2.131
26.88000 2.391
26.90000 1.608
26.92000 6.681
26.94000 8.124
26.96000 1.209
26.98000 1.563
27.00000 10.226
27.02000 9.292
27.04000 4.685
27.06000 1.763
27.08000 2.964
27.10000 4.665
27.12000 1.894
27.14000 0.224
27.16000 -0.529
27.18000 5.141
27.20000 1.550
27.22000 3.521
27.24000 6.000
27.26000 -1.253
27.28000 -3.572
27.30000 0.420
27.32000 3.950
27.34000 6.657
27.36000 10.176
27.38000 6.731
27.40000 5.392
27.42000 4.883
27.44000 2.419
27.46000 0.256
27.48000 2.746
27.50000 4.479
27.52000 4.330
27.54000 2.144
27.56000 3.003
27.58000 2.767
27.60000 -0.806
27.62000 -2.195
27.64000 0.838
27.66000 3.045
27.68000 6.927
27.70000 10.881
27.72000 7.216
27.74000 4.289
27.76000 2.048
27.78000 -0.209
27.80000 -3.813
27.82000 1.034
27.84000 0.769
27.86000 2.516
27.88000 6.651
27.90000 4.272
27.92000 0.429
27.94000 5.199
27.96000 12.961
27.98000 14.331
28.00000 4.776
28.02000 3.322
28.04000 0.983
28.06000 1.469
28.08000 -0.777
28.10000 -0.027
28.12000 4.996
28.14000 7.569
28.16000 3.665
28.18000 2.189
28.20000 0.113
28.22000 3.684
28.24000 10.647
28.26000 2.143
28.28000 0.767
28.30000 5.030
28.32000 4.852
28.34000 6.399
28.36000 8.212
28.38000 2.486
28.40000 1.652
28.42000 5.219
28.44000 6.874
28.46000 11.484
28.48000 8.096
28.50000 7.206
28.52000 5.391
28.54000 2.617
28.56000 5.693
28.58000 2.071
28.60000 -3.624
28.62000 1.957
28.64000 2.328
28.66000 1.461
28.68000 4.991
28.70000 4.557
28.72000 0.731
28.74000 5.354
28.76000 8.185
28.78000 2.189
28.80000 0.108
28.82000 7.180
28.84000 11.516
28.86000 8.887
28.88000 2.959
28.90000 -1.686
28.92000 0.205
28.94000 4.352
28.96000 3.693
28.98000 4.881
29.00000 16.085
29.02000 9.537
29.04000 1.256
29.06000 8.880
29.08000 10.011
29.10000 6.752
29.12000 6.579
29.14000 5.892
29.16000 6.768
29.18000 5.693
29.20000 8.094
29.22000 7.719
29.24000 1.360
29.26000 2.835
29.28000 2.961
29.30000 4.441
29.32000 2.939
29.34000 -3.735
29.36000 -1.286
29.38000 6.529
29.40000 4.915
29.42000 5.228
29.44000 4.979
29.46000 3.356
29.48000 0.079
29.50000 7.027
29.52000 7.938
29.54000 5.275
29.56000 6.620
29.58000 9.729
29.60000 3.886
29.62000 0.011
29.64000 0.814
29.66000 1.919
29.68000 1.370
29.70000 3.344
29.72000 5.437
29.74000 3.863
29.76000 -1.334
29.78000 2.153
29.80000 4.621
29.82000 1.528
29.84000 2.283
29.86000 3.382
29.88000 7.474
29.90000 5.739
29.92000 0.539
29.94000 2.651
29.96000 5.407
29.98000 4.821
30.00000 5.633
30.02000 4.256
30.04000 2.629
30.06000 1.102
30.08000 -2.621
30.10000 2.845
30.12000 1.421
30.14000 -1.499
30.16000 -3.727
30.18000 0.783
30.20000 3.340
30.22000 7.426
30.24000 7.032
30.26000 7.832
30.28000 1.108
30.30000 0.772
30.32000 3.374
30.34000 6.866
30.36000 5.112
30.38000 3.684
30.40000 2.193
30.42000 0.741
30.44000 -1.675
30.46000 -1.226
30.48000 2.683
30.50000 3.522
30.52000 0.297
30.54000 7.808
30.56000 5.072
30.58000 10.979
30.60000 7.376
30.62000 7.784
30.64000 5.731
30.66000 -1.644
30.68000 -0.803
30.70000 8.005
30.72000 6.948
30.74000 3.950
30.76000 0.020
30.78000 0.199
30.80000 6.053
30.82000 6.915
30.84000 6.399
30.86000 -3.712
30.88000 -2.773
30.90000 3.358
30.92000 0.106
30.94000 2.037
30.96000 8.802
30.98000 1.326
31.00000 2.110
31.02000 5.631
31.04000 3.861
31.06000 1.213
31.08000 0.475
31.10000 5.314
31.12000 2.278
31.14000 -2.847
31.16000 -1.523
31.18000 3.742
31.20000 4.054
31.22000 1.558
31.24000 4.076
31.26000 6.172
31.28000 2.339
31.30000 -1.237
31.32000 1.014
31.34000 -0.910
31.36000 -0.978
31.38000 4.997
31.40000 6.568
31.42000 5.107
31.44000 1.386
31.46000 4.230
31.48000 4.203
31.50000 4.094
31.52000 7.340
31.54000 4.961
31.56000 5.999
31.58000 5.535
31.60000 6.669
31.62000 9.707
31.64000 7.945
31.66000 2.017
31.68000 1.003
31.70000 -2.918
31.72000 1.002
31.74000 3.208
31.76000 4.193
31.78000 1.252
31.80000 1.253
31.82000 4.856
31.84000 3.437
31.86000 1.076
31.88000 1.227
31.90000 2.770
31.92000 8.305
31.94000 3.770
31.96000 2.344
31.98000 3.947
32.00000 1.918
32.02000 1.962
32.04000 3.120
32.06000 3.176
32.08000 5.598
32.10000 3.161
32.12000 1.229
32.14000 7.307
32.16000 4.717
32.18000 2.968
32.20000 3.120
32.22000 2.367
32.24000 2.131
32.26000 2.123
32.28000 3.208
32.30000 5.885
32.32000 5.639
32.34000 5.463
32.36000 9.978
32.38000 9.233
32.40000 7.362
32.42000 8.103
32.44000 7.206
32.46000 3.110
32.48000 1.194
32.50000 5.678
32.52000 12.749
32.54000 10.466
32.56000 3.190
32.58000 3.927
32.60000 6.818
32.62000 5.873
32.64000 4.904
32.66000 8.163
32.68000 11.369
32.70000 15.003
32.72000 13.880
32.74000 3.927
32.76000 2.944
32.78000 9.802
32.80000 12.392
32.82000 5.211
32.84000 -3.586
32.86000 2.316
32.88000 7.320
32.90000 5.219
32.92000 8.913
32.94000 11.553
32.96000 11.873
32.98000 6.314
33.00000 10.237
33.02000 3.657
33.04000 0.220
33.06000 0.142
33.08000 0.091
33.10000 3.901
33.12000 5.036
33.14000 2.721
33.16000 2.305
33.18000 7.928
33.20000 8.653
33.22000 5.806
33.24000 8.142
33.26000 5.888
33.28000 4.717
33.30000 3.877
33.32000 6.106
33.34000 3.182
33.36000 3.385
33.38000 7.681
33.40000 8.399
33.42000 5.300
33.44000 2.174
33.46000 0.340
33.48000 8.255
33.50000 16.144
33.52000 11.268
33.54000 12.021
33.56000 10.115
33.58000 0.816
33.60000 4.054
33.62000 5.552
33.64000 8.449
33.66000 6.189
33.68000 3.815
33.70000 6.039
33.72000 11.067
33.74000 7.634
33.76000 10.045
33.78000 9.686
33.80000 4.273
33.82000 1.549
33.84000 4.056
33.86000 3.471
33.88000 7.067
33.90000 11.292
33.92000 7.121
33.94000 4.789
33.96000 7.061
33.98000 3.190
34.00000 6.552
34.02000 11.108
34.04000 6.062
34.06000 6.478
34.08000 3.715
34.10000 -0.949
34.12000 1.521
34.14000 2.038
34.16000 6.286
34.18000 7.003
34.20000 2.957
34.22000 7.674
34.24000 9.226
34.26000 10.273
34.28000 7.294
34.30000 4.551
34.32000 8.358
34.34000 9.459
34.36000 6.253
34.38000 5.016
34.40000 7.059
34.42000 8.403
34.44000 8.302
34.46000 3.165
34.48000 9.177
34.50000 3.978
34.52000 5.271
34.54000 5.736
34.56000 4.163
34.58000 5.030
34.60000 3.669
34.62000 6.412
34.64000 4.005
34.66000 5.907
34.68000 9.123
34.70000 8.803
34.72000 5.680
34.74000 4.556
34.76000 2.532
34.78000 4.719
34.80000 7.566
34.82000 5.915
34.84000 3.362
34.86000 1.887
34.88000 1.188
34.90000 3.504
34.92000 -0.171
34.94000 -2.638
34.96000 2.780
34.98000 2.292
35.00000 -3.580
35.02000 0.725
35.04000 2.498
35.06000 6.391
35.08000 5.396
35.10000 2.956
35.12000 7.082
35.14000 9.596
35.16000 7.069
35.18000 8.734
35.20000 9.507
35.22000 8.705
35.24000 2.348
35.26000 4.344
35.28000 4.191
35.30000 3.501
35.32000 2.777
35.34000 3.766
35.36000 7.757
35.38000 4.495
35.40000 8.804
35.42000 6.944
35.44000 3.547
35.46000 1.623
35.48000 3.250
35.50000 2.833
35.52000 2.182
35.54000 1.477
35.56000 5.088
35.58000 5.270
35.60000 0.752
35.62000 6.615
35.64000 6.326
35.66000 4.833
35.68000 2.127
35.70000 5.495
35.72000 6.578
35.74000 5.022
35.76000 3.748
35.78000 3.368
35.80000 3.795
35.82000 6.320
35.84000 8.988
35.86000 8.612
35.88000 8.285
35.90000 1.816
35.92000 3.189
35.94000 3.497
35.96000 3.414
35.98000 7.541
36.00000 10.302
36.02000 -0.028
36.04000 3.704
36.06000 -2.387
36.08000 -3.617
36.10000 2.684
36.12000 0.843
36.14000 2.563
36.16000 4.845
36.18000 4.857
36.20000 2.816
36.22000 6.761
36.24000 5.842
36.26000 6.091
36.28000 5.909
36.30000 2.698
36.32000 4.027
36.34000 4.922
36.36000 5.774
36.38000 3.483
36.40000 5.031
36.42000 4.121
36.44000 11.284
36.46000 11.192
36.48000 9.967
36.50000 7.462
36.52000 12.189
36.54000 8.794
36.56000 6.069
36.58000 8.605
36.60000 8.778
36.62000 8.416
36.64000 9.670
36.66000 8.707
36.68000 12.137
36.70000 9.191
36.72000 8.954
36.74000 8.053
36.76000 10.103
36.78000 8.283
36.80000 10.295
36.82000 10.265
36.84000 10.269
36.86000 5.997
36.88000 4.115
36.90000 8.052
36.92000 10.421
36.94000 7.452
36.96000 10.649
36.98000 10.372
37.00000 14.446
37.02000 12.929
37.04000 13.619
37.06000 11.395
37.08000 12.316
37.10000 12.811
37.12000 12.162
37.14000 14.946
37.16000 16.685
37.18000 15.570
37.20000 15.525
37.22000 11.145
37.24000 14.621
37.26000 15.799
37.28000 18.357
37.30000 16.279
37.32000 13.917
37.34000 15.733
37.36000 24.614
37.38000 24.616
37.40000 21.859
37.42000 18.736
37.44000 16.144
37.46000 18.403
37.48000 24.367
37.50000 19.060
37.52000 21.710
37.54000 22.434
37.56000 18.215
37.58000 19.343
37.60000 24.323
37.62000 22.816
37.64000 26.622
37.66000 27.513
37.68000 32.429
37.70000 33.251
37.72000 28.460
37.74000 25.749
37.76000 30.207
37.78000 35.320
37.80000 32.227
37.82000 33.815
37.84000 36.959
37.86000 33.958
37.88000 35.276
37.90000 36.971
37.92000 38.269
37.94000 36.147
37.96000 37.492
37.98000 39.683
38.00000 42.410
38.02000 41.129
38.04000 42.638
38.06000 47.361
38.08000 51.194
38.10000 53.249
38.12000 50.782
38.14000 49.054
38.16000 52.700
38.18000 55.346
38.20000 58.933
38.22000 57.432
38.24000 62.162
38.26000 64.655
38.28000 64.435
38.30000 66.833
38.32000 72.550
38.34000 71.312
38.36000 70.471
38.38000 79.509
38.40000 88.682
38.42000 92.315
38.44000 105.924
38.46000 103.635
38.48000 101.620
38.50000 106.306
38.52000 115.579
38.54000 126.936
38.56000 129.789
38.58000 139.309
38.60000 148.739
38.62000 159.798
38.64000 164.039
38.66000 172.672
38.68000 188.093
38.70000 191.566
38.72000 208.461
38.74000 217.251
38.76000 232.200
38.78000 250.013
38.80000 261.308
38.82000 268.919
38.84000 274.272
38.86000 290.287
38.88000 304.182
38.90000 312.055
38.92000 316.426
38.94000 320.967
38.96000 332.956
38.98000 334.353
39.00000 338.792
39.02000 346.531
39.04000 343.238
39.06000 342.070
39.08000 342.527
39.10000 337.425
39.12000 329.057
39.14000 319.685
39.16000 318.462
39.18000 307.511
39.20000 299.676
39.22000 289.562
39.24000 271.290
39.26000 262.876
39.28000 254.728
39.30000 243.592
39.32000 228.494
39.34000 213.113
39.36000 199.755
39.38000 187.307
39.40000 184.885
39.42000 172.509
39.44000 162.692
39.46000 154.461
39.48000 144.770
39.50000 137.399
39.52000 127.340
39.54000 120.772
39.56000 108.854
39.58000 105.811
39.60000 108.154
39.62000 98.317
39.64000 93.465
39.66000 87.606
39.68000 79.397
39.70000 72.931
39.72000 73.604
39.74000 68.719
39.76000 60.299
39.78000 57.521
39.80000 59.849
39.82000 56.767
39.84000 56.540
39.86000 50.957
39.88000 49.690
39.90000 46.818
39.92000 48.147
39.94000 42.101
39.96000 39.122
39.98000 36.722
40.00000 36.704
40.02000 37.802
40.04000 35.502
40.06000 34.381
40.08000 32.570
40.10000 29.282
40.12000 28.494
40.14000 27.851
40.16000 24.916
40.18000 25.704
40.20000 26.612
40.22000 26.141
40.24000 22.430
40.26000 21.956
40.28000 22.514
40.30000 20.870
40.32000 15.247
40.34000 16.285
40.36000 21.360
40.38000 17.739
40.40000 13.693
40.42000 14.887
40.44000 18.750
40.46000 15.887
40.48000 20.645
40.50000 14.563
40.52000 12.320
40.54000 9.266
40.56000 14.298
40.58000 9.567
40.60000 9.679
40.62000 8.118
40.64000 9.712
40.66000 10.735
40.68000 9.874
40.70000 5.229
40.72000 5.217
40.74000 3.921
40.76000 6.091
40.78000 9.605
40.80000 6.070
40.82000 8.143
40.84000 13.705
40.86000 11.419
40.88000 8.473
40.90000 2.600
40.92000 4.163
40.94000 4.961
40.96000 4.089
40.98000 6.086
41.00000 3.478
41.02000 1.096
41.04000 0.430
41.06000 4.504
41.08000 6.443
41.10000 -0.054
41.12000 -0.790
41.14000 1.442
41.16000 2.853
41.18000 3.867
41.20000 2.895
41.22000 3.659
41.24000 4.253
41.26000 3.157
41.28000 0.249
41.30000 0.072
41.32000 4.479
41.34000 7.303
41.36000 0.814
41.38000 1.960
41.40000 3.535
41.42000 -1.649
41.44000 -0.642
41.46000 -2.779
41.48000 -1.361
41.50000 0.510
41.52000 3.137
41.54000 2.867
41.56000 2.524
41.58000 -0.546
41.60000 -3.481
41.62000 -1.352
41.64000 1.303
41.66000 2.754
41.68000 -1.453
41.70000 -1.946
41.72000 2.651
41.74000 4.650
41.76000 2.835
41.78000 -1.879
41.80000 -1.743
41.82000 1.191
41.84000 3.182
41.86000 0.539
41.88000 2.933
41.90000 3.206
41.92000 3.065
41.94000 -1.493
41.96000 -3.033
41.98000 -0.613
42.00000 0.083
42.02000 -0.304
42.04000 0.943
42.06000 1.292
42.08000 1.681
42.10000 2.755
42.12000 0.392
42.14000 -2.656
42.16000 -0.996
42.18000 0.938
42.20000 -0.161
42.22000 0.241
42.24000 1.193
42.26000 0.439
42.28000 -2.989
42.30000 0.190
42.32000 0.133
42.34000 -1.992
42.36000 4.579
42.38000 0.819
42.40000 -1.344
42.42000 1.344
42.44000 0.997
42.46000 2.535
42.48000 -1.019
42.50000 -3.345
42.52000 -0.752
42.54000 -0.361
42.56000 -1.744
42.58000 -1.262
42.60000 0.737
42.62000 -0.198
42.64000 0.299
42.66000 -0.295
42.68000 -1.444
42.70000 -1.781
42.72000 2.764
42.74000 4.929
42.76000 -0.183
42.78000 2.358
42.80000 1.771
42.82000 1.827
42.84000 -0.006
42.86000 1.159
42.88000 2.193
42.90000 2.822
42.92000 3.366
42.94000 2.862
42.96000 3.322
42.98000 2.340
43.00000 2.671
43.02000 2.348
43.04000 1.028
43.06000 2.733
43.08000 2.933
43.10000 2.153
43.12000 1.383
43.14000 -0.667
43.16000 -0.389
43.18000 3.751
43.20000 1.901
43.22000 0.803
43.24000 0.265
43.26000 -0.482
43.28000 1.811
43.30000 3.441
43.32000 4.545
43.34000 1.860
43.36000 3.617
43.38000 1.004
43.40000 -3.231
43.42000 2.809
43.44000 1.886
43.46000 -1.116
43.48000 2.204
43.50000 3.879
43.52000 5.279
43.54000 3.863
43.56000 3.794
43.58000 3.507
43.60000 3.718
43.62000 4.142
43.64000 3.694
43.66000 3.423
43.68000 4.884
43.70000 4.384
43.72000 8.306
43.74000 9.096
43.76000 2.223
43.78000 5.710
43.80000 6.845
43.82000 3.442
43.84000 1.998
43.86000 2.293
43.88000 4.320
43.90000 6.118
43.92000 3.735
43.94000 -0.170
43.96000 1.718
43.98000 0.883
44.00000 6.419
44.02000 4.701
44.04000 0.671
44.06000 1.217
44.08000 3.734
44.10000 7.173
44.12000 8.950
44.14000 9.769
44.16000 8.276
44.18000 6.859
44.20000 8.847
44.22000 11.736
44.24000 8.874
44.26000 4.291
44.28000 0.330
44.30000 1.504
44.32000 7.913
44.34000 7.634
44.36000 8.466
44.38000 9.375
44.40000 9.454
44.42000 9.798
44.44000 10.039
44.46000 10.028
44.48000 13.723
44.50000 14.872
44.52000 10.255
44.54000 11.262
44.56000 9.809
44.58000 12.401
44.60000 13.505
44.62000 16.460
44.64000 14.688
44.66000 18.370
44.68000 18.004
44.70000 18.052
44.72000 19.930
44.74000 23.281
44.76000 18.106
44.78000 25.524
44.80000 22.706
44.82000 29.387
44.84000 32.181
44.86000 31.460
44.88000 34.459
44.90000 37.623
44.92000 36.038
44.94000 33.337
44.96000 38.246
44.98000 40.477
45.00000 40.632
45.02000 44.942
45.04000 47.875
45.06000 50.777
45.08000 54.116
45.10000 52.170
45.12000 53.987
45.14000 55.342
45.16000 60.587
45.18000 67.469
45.20000 68.508
45.22000 70.959
45.24000 76.028
45.26000 79.999
45.28000 82.134
45.30000 84.182
45.32000 81.180
45.34000 81.764
45.36000 87.875
45.38000 93.798
45.40000 92.637
45.42000 94.157
45.44000 97.049
45.46000 96.730
45.48000 100.116
45.50000 103.453
45.52000 104.958
45.54000 102.799
45.56000 105.632
45.58000 105.112
45.60000 102.390
45.62000 102.360
45.64000 103.153
45.66000 101.912
45.68000 105.051
45.70000 104.463
45.72000 94.474
45.74000 85.716
45.76000 83.344
45.78000 83.561
45.80000 82.281
45.82000 82.869
45.84000 77.507
45.86000 80.635
45.88000 77.817
45.90000 72.190
45.92000 67.164
45.94000 65.421
45.96000 59.609
45.98000 58.029
46.00000 57.132
46.02000 54.842
46.04000 51.727
46.06000 51.785
46.08000 52.913
46.10000 48.348
46.12000 43.104
46.14000 37.850
46.16000 34.787
46.18000 32.588
46.20000 33.241
46.22000 32.243
46.24000 29.741
46.26000 28.466
46.28000 25.057
46.30000 19.699
46.32000 21.662
46.34000 18.404
46.36000 18.541
46.38000 21.436
46.40000 20.710
46.42000 13.457
46.44000 11.912
46.46000 14.227
46.48000 15.360
46.50000 15.140
46.52000 15.488
46.54000 15.004
46.56000 10.210
46.58000 8.483
46.60000 11.913
46.62000 9.359
46.64000 5.946
46.66000 1.322
46.68000 4.050
46.70000 5.437
46.72000 1.959
46.74000 0.276
46.76000 1.868
46.78000 3.976
46.80000 1.743
46.82000 -1.069
46.84000 5.480
46.86000 6.871
46.88000 0.412
46.90000 -0.370
46.92000 2.439
46.94000 3.357
46.96000 2.866
46.98000 0.999
47.00000 2.783
47.02000 -1.340
47.04000 -0.225
47.06000 2.234
47.08000 0.322
47.10000 0.076
47.12000 -0.392
47.14000 2.915
47.16000 3.176
47.18000 0.629
47.20000 1.422
47.22000 4.097
47.24000 -0.652
47.26000 -1.631
47.28000 5.104
47.30000 2.621
47.32000 2.335
47.34000 4.804
47.36000 5.757
47.38000 4.329
47.40000 4.947
47.42000 4.468
47.44000 7.044
47.46000 3.534
47.48000 3.426
47.50000 2.375
47.52000 3.242
47.54000 3.864
47.56000 3.473
47.58000 1.367
47.60000 5.251
47.62000 4.056
47.64000 4.286
47.66000 2.127
47.68000 5.145
47.70000 2.932
47.72000 -2.769
47.74000 -0.505
47.76000 -1.037
47.78000 2.386
47.80000 6.437
47.82000 4.856
47.84000 2.373
47.86000 0.680
47.88000 3.576
47.90000 7.903
47.92000 2.782
47.94000 3.727
47.96000 -0.610
47.98000 -1.587
48.00000 0.452
48.02000 1.839
48.04000 1.133
48.06000 1.628
48.08000 4.643
48.10000 3.750
48.12000 1.733
48.14000 1.407
48.16000 -1.881
48.18000 0.983
48.20000 -0.045
48.22000 -1.069
48.24000 -0.637
48.26000 1.472
48.28000 -0.831
48.30000 3.015
48.32000 5.348
48.34000 3.744
48.36000 1.134
48.38000 1.238
48.40000 3.671
48.42000 0.778
48.44000 -0.504
48.46000 5.336
48.48000 4.410
48.50000 2.883
48.52000 6.461
48.54000 0.767
48.56000 -2.729
48.58000 3.064
48.60000 5.413
48.62000 3.581
48.64000 1.672
48.66000 1.037
48.68000 2.172
48.70000 0.879
48.72000 2.684
48.74000 4.839
48.76000 1.956
48.78000 2.839
48.80000 -0.006
48.82000 -0.372
48.84000 3.601
48.86000 3.090
48.88000 0.074
48.90000 1.455
48.92000 2.574
48.94000 0.581
48.96000 0.378
48.98000 2.681
49.00000 4.009
49.02000 -0.906
49.04000 -0.198
49.06000 -1.163
49.08000 -2.687
49.10000 0.501
49.12000 5.357
49.14000 5.839
49.16000 3.169
49.18000 1.551
49.20000 4.532
49.22000 3.954
49.24000 1.815
49.26000 -1.378
49.28000 3.528
49.30000 4.346
49.32000 3.194
49.34000 5.806
49.36000 1.066
49.38000 1.235
49.40000 4.683
49.42000 4.330
49.44000 3.668
49.46000 0.825
49.48000 0.585
49.50000 3.615
49.52000 1.579
49.54000 6.873
49.56000 5.849
49.58000 1.754
49.60000 -0.412
49.62000 0.412
49.64000 3.510
49.66000 4.002
49.68000 5.706
49.70000 3.431
49.72000 0.703
49.74000 -0.486
49.76000 3.279
49.78000 4.686
49.80000 3.591
49.82000 5.976
49.84000 5.565
49.86000 4.843
49.88000 6.618
49.90000 2.925
49.92000 -1.042
49.94000 0.661
49.96000 1.966
49.98000 3.537
50.00000 3.033
50.02000 -0.253
50.04000 1.153
50.06000 3.936
50.08000 0.321
50.10000 3.540
50.12000 3.424
50.14000 4.209
50.16000 3.976
50.18000 2.216
50.20000 0.036
50.22000 -1.623
50.24000 -0.739
50.26000 2.143
50.28000 0.860
50.30000 2.610
50.32000 4.948
50.34000 2.918
50.36000 0.800
50.38000 4.042
50.40000 4.570
50.42000 5.007
50.44000 3.926
50.46000 0.257
50.48000 0.029
50.50000 1.039
50.52000 2.501
50.54000 3.093
50.56000 -0.510
50.58000 1.093
50.60000 3.546
50.62000 1.889
50.64000 1.008
50.66000 2.092
50.68000 5.795
50.70000 4.158
50.72000 1.907
50.74000 3.277
50.76000 1.469
50.78000 5.002
50.80000 4.242
50.82000 4.069
50.84000 3.951
50.86000 4.010
50.88000 3.350
50.90000 4.577
50.92000 6.860
50.94000 8.215
50.96000 6.314
50.98000 3.714
51.00000 5.641
51.02000 6.527
51.04000 4.945
51.06000 2.442
51.08000 4.772
51.10000 3.817
51.12000 4.239
51.14000 4.863
51.16000 8.195
51.18000 7.461
51.20000 4.115
51.22000 3.760
51.24000 -2.543
51.26000 -1.649
51.28000 1.690
51.30000 4.699
51.32000 2.964
51.34000 4.600
51.36000 5.132
51.38000 5.004
51.40000 3.494
51.42000 5.285
51.44000 4.513
51.46000 4.389
51.48000 5.989
51.50000 5.069
51.52000 2.646
51.54000 2.692
51.56000 3.640
51.58000 5.486
51.60000 3.239
51.62000 2.551
51.64000 6.353
51.66000 4.863
51.68000 2.935
51.70000 1.346
51.72000 1.536
51.74000 4.717
51.76000 4.293
51.78000 5.038
51.80000 9.418
51.82000 10.367
51.84000 8.400
51.86000 6.754
51.88000 2.362
51.90000 2.147
51.92000 4.467
51.94000 6.691
51.96000 7.295
51.98000 6.690
52.00000 8.702
52.02000 11.322
52.04000 6.034
52.06000 3.150
52.08000 5.255
52.10000 6.422
52.12000 6.231
52.14000 3.471
52.16000 1.574
52.18000 4.980
52.20000 9.152
52.22000 8.904
52.24000 4.907
52.26000 -2.536
52.28000 2.118
52.30000 8.080
52.32000 7.321
52.34000 8.918
52.36000 6.052
52.38000 5.973
52.40000 5.368
52.42000 3.860
52.44000 1.547
52.46000 3.273
52.48000 4.768
52.50000 1.119
52.52000 1.724
52.54000 3.157
52.56000 3.581
52.58000 3.065
52.60000 2.050
52.62000 3.405
52.64000 3.158
52.66000 2.768
52.68000 6.420
52.70000 3.374
52.72000 2.087
52.74000 5.614
52.76000 4.170
52.78000 1.403
52.80000 3.071
52.82000 3.663
52.84000 3.991
52.86000 2.467
52.88000 3.528
52.90000 -0.351
52.92000 -0.684
52.94000 3.027
52.96000 3.328
52.98000 1.873
53.00000 1.474
53.02000 5.117
53.04000 3.516
53.06000 3.730
53.08000 3.151
53.10000 2.202
53.12000 1.827
53.14000 1.735
53.16000 -0.820
53.18000 0.233
53.20000 4.748
53.22000 3.679
53.24000 1.575
53.26000 4.104
53.28000 5.341
53.30000 2.785
53.32000 3.569
53.34000 0.910
53.36000 3.031
53.38000 2.342
53.40000 4.368
53.42000 2.890
53.44000 1.732
53.46000 0.708
53.48000 3.923
53.50000 3.709
53.52000 6.763
53.54000 3.822
53.56000 2.665
53.58000 1.576
53.60000 0.026
53.62000 -0.177
53.64000 -0.764
53.66000 3.313
53.68000 -2.078
53.70000 -0.043
53.72000 0.382
53.74000 1.982
53.76000 0.769
53.78000 0.633
53.80000 2.912
53.82000 2.234
53.84000 1.567
53.86000 4.648
53.88000 5.328
53.90000 4.399
53.92000 1.095
53.94000 3.717
53.96000 3.909
53.98000 0.695
54.00000 1.121
54.02000 4.518
54.04000 0.097
54.06000 -1.341
54.08000 0.244
54.10000 -0.092
54.12000 2.449
54.14000 5.441
54.16000 3.357
54.18000 1.134
54.20000 3.146
54.22000 3.285
54.24000 2.280
54.26000 2.678
54.28000 2.218
54.30000 5.181
54.32000 2.652
54.34000 4.724
54.36000 3.660
54.38000 5.341
54.40000 6.457
54.42000 6.795
54.44000 5.550
54.46000 2.070
54.48000 -2.495
54.50000 1.617
54.52000 4.892
54.54000 8.393
54.56000 7.650
54.58000 1.394
54.60000 2.224
54.62000 3.263
54.64000 2.799
54.66000 2.464
54.68000 6.192
54.70000 4.150
54.72000 5.558
54.74000 5.919
54.76000 0.906
54.78000 1.961
54.80000 2.361
54.82000 1.545
54.84000 3.660
54.86000 3.450
54.88000 5.872
54.90000 6.753
54.92000 3.534
54.94000 -0.027
54.96000 2.044
54.98000 3.159
55.00000 2.251
55.02000 0.024
55.04000 2.244
55.06000 5.538
55.08000 7.493
55.10000 4.090
55.12000 1.300
55.14000 2.839
55.16000 6.008
55.18000 3.937
55.20000 3.252
55.22000 6.306
55.24000 3.923
55.26000 7.436
55.28000 2.198
55.30000 -1.106
55.32000 -2.494
55.34000 2.778
55.36000 2.980
55.38000 4.968
55.40000 6.607
55.42000 1.340
55.44000 2.925
55.46000 6.645
55.48000 2.630
55.50000 3.672
55.52000 3.354
55.54000 5.342
55.56000 0.112
55.58000 0.039
55.60000 2.730
55.62000 5.135
55.64000 6.241
55.66000 4.679
55.68000 4.454
55.70000 4.143
55.72000 2.304
55.74000 0.628
55.76000 2.628
55.78000 4.818
55.80000 3.182
55.82000 0.936
55.84000 -0.495
55.86000 -2.370
55.88000 1.830
55.90000 4.716
55.92000 3.196
55.94000 3.957
55.96000 2.880
55.98000 4.746
56.00000 3.203
56.02000 3.314
56.04000 3.481
56.06000 1.967
56.08000 1.907
56.10000 -1.307
56.12000 0.833
56.14000 4.266
56.16000 4.464
56.18000 3.286
56.20000 2.372
56.22000 -1.207
56.24000 4.285
56.26000 4.317
56.28000 1.305
56.30000 8.013
56.32000 4.455
56.34000 0.735
56.36000 4.322
56.38000 6.533
56.40000 1.495
56.42000 2.918
56.44000 3.356
56.46000 2.154
56.48000 1.612
56.50000 3.796
56.52000 5.263
56.54000 3.729
56.56000 0.396
56.58000 1.218
56.60000 1.786
56.62000 -2.471
56.64000 -0.369
56.66000 2.643
56.68000 1.925
56.70000 1.204
56.72000 -0.743
56.74000 1.090
56.76000 1.415
56.78000 1.694
56.80000 1.821
56.82000 4.242
56.84000 5.305
56.86000 6.634
56.88000 5.346
56.90000 5.071
56.92000 -0.460
56.94000 -1.061
56.96000 2.179
56.98000 -0.521
57.00000 4.107
57.02000 4.767
57.04000 6.362
57.06000 3.490
57.08000 5.139
57.10000 5.161
57.12000 3.438
57.14000 -0.104
57.16000 2.082
57.18000 7.278
57.20000 5.846
57.22000 2.456
57.24000 1.287
57.26000 -2.209
57.28000 0.977
57.30000 5.319
57.32000 7.881
57.34000 4.738
57.36000 3.723
57.38000 3.073
57.40000 1.385
57.42000 1.658
57.44000 5.718
57.46000 7.325
57.48000 2.545
57.50000 -2.424
57.52000 1.028
57.54000 3.065
57.56000 2.566
57.58000 4.254
57.60000 4.232
57.62000 2.197
57.64000 1.015
57.66000 -0.076
57.68000 -0.043
57.70000 4.421
57.72000 2.031
57.74000 5.519
57.76000 6.486
57.78000 4.312
57.80000 0.699
57.82000 0.961
57.84000 1.489
57.86000 1.820
57.88000 0.860
57.90000 1.851
57.92000 1.367
57.94000 0.488
57.96000 1.628
57.98000 3.448
58.00000 4.522
58.02000 3.123
58.04000 1.820
58.06000 3.972
58.08000 0.680
58.10000 -1.696
58.12000 -2.409
58.14000 -1.398
58.16000 0.100
58.18000 1.190
58.20000 0.685
58.22000 3.756
58.24000 2.868
58.26000 1.440
58.28000 4.745
58.30000 5.225
58.32000 3.586
58.34000 2.567
58.36000 3.939
58.38000 3.312
58.40000 0.351
58.42000 2.427
58.44000 2.725
58.46000 2.737
58.48000 1.960
58.50000 1.894
58.52000 3.036
58.54000 -2.391
58.56000 -1.504
58.58000 4.061
58.60000 0.678
58.62000 -1.667
58.64000 2.072
58.66000 1.063
58.68000 3.723
58.70000 3.525
58.72000 6.430
58.74000 7.597
58.76000 7.821
58.78000 5.124
58.80000 5.674
58.82000 0.759
58.84000 -1.570
58.86000 0.627
58.88000 1.497
58.90000 2.478
58.92000 -2.394
58.94000 0.493
58.96000 3.827
58.98000 4.658
59.00000 3.499
59.02000 -1.508
59.04000 1.885
59.06000 2.872
59.08000 1.584
59.10000 3.692
59.12000 6.763
59.14000 2.569
59.16000 -0.554
59.18000 1.483
59.20000 0.976
59.22000 1.398
59.24000 1.881
59.26000 2.370
59.28000 3.010
59.30000 3.945
59.32000 2.723
59.34000 2.049
59.36000 2.878
59.38000 3.742
59.40000 1.502
59.42000 1.410
59.44000 2.238
59.46000 3.034
59.48000 -0.287
59.50000 0.685
59.52000 -0.627
59.54000 1.644
59.56000 -0.055
59.58000 1.196
59.60000 1.356
59.62000 1.636
59.64000 -0.823
59.66000 -1.445
59.68000 2.151
59.70000 0.830
59.72000 -0.467
59.74000 -1.182
59.76000 -1.143
59.78000 0.184
59.80000 0.168
59.82000 -0.593
59.84000 0.480
59.86000 0.079
59.88000 0.814
59.90000 1.027
59.92000 -1.202
59.94000 -1.765
59.96000 0.813
59.98000 -0.718
60.00000 -0.031
60.02000 2.583
60.04000 -2.377
60.06000 -0.689
60.08000 0.532
60.10000 0.791
60.12000 0.040
60.14000 -0.749
60.16000 -0.950
60.18000 4.229
60.20000 3.645
60.22000 0.969
60.24000 1.091
60.26000 2.662
60.28000 1.753
60.30000 3.425
60.32000 2.687
60.34000 2.612
60.36000 1.926
60.38000 1.882
60.40000 2.483
60.42000 0.137
60.44000 2.735
60.46000 0.583
60.48000 1.072
60.50000 2.928
60.52000 4.361
60.54000 1.468
60.56000 0.806
60.58000 -1.615
60.60000 -1.612
60.62000 -1.788
60.64000 -0.124
60.66000 -0.532
60.68000 0.000
60.70000 -2.341
60.72000 0.396
60.74000 2.648
60.76000 1.980
60.78000 2.965
60.80000 1.550
60.82000 0.459
60.84000 0.677
60.86000 4.030
60.88000 3.205
60.90000 1.299
60.92000 -0.610
60.94000 1.942
60.96000 -0.194
60.98000 -0.484
61.00000 1.532
61.02000 0.606
61.04000 -0.607
61.06000 -1.860
61.08000 3.102
61.10000 3.350
61.12000 2.861
61.14000 2.611
61.16000 3.809
61.18000 0.365
61.20000 -0.144
61.22000 0.672
61.24000 -0.271
61.26000 -1.386
61.28000 -2.335
61.30000 1.963
61.32000 2.091
61.34000 2.654
61.36000 -1.203
61.38000 0.593
61.40000 0.656
61.42000 -0.313
61.44000 2.990
61.46000 1.274
61.48000 0.979
61.50000 4.096
61.52000 3.850
61.54000 5.610
61.56000 -0.407
61.58000 1.300
61.60000 -1.962
61.62000 -0.048
61.64000 2.087
61.66000 0.649
61.68000 1.119
61.70000 2.578
61.72000 2.900
61.74000 1.348
61.76000 0.109
61.78000 1.537
61.80000 -1.493
61.82000 1.939
61.84000 5.001
61.86000 3.494
61.88000 5.128
61.90000 5.541
61.92000 3.442
61.94000 1.047
61.96000 2.483
61.98000 1.789
62.00000 2.296
62.02000 5.376
62.04000 9.007
62.06000 5.928
62.08000 1.924
62.10000 2.306
62.12000 3.482
62.14000 2.332
62.16000 3.357
62.18000 3.135
62.20000 0.138
62.22000 1.440
62.24000 4.328
62.26000 3.409
62.28000 3.181
62.30000 4.400
62.32000 1.256
62.34000 -2.272
62.36000 1.887
62.38000 5.417
62.40000 2.607
62.42000 1.355
62.44000 2.279
62.46000 -0.143
62.48000 2.950
62.50000 0.682
62.52000 1.997
62.54000 3.659
62.56000 3.599
62.58000 3.493
62.60000 4.519
62.62000 3.640
62.64000 6.294
62.66000 4.864
62.68000 4.339
62.70000 5.403
62.72000 2.614
62.74000 1.901
62.76000 3.677
62.78000 0.567
62.80000 2.168
62.82000 3.753
62.84000 5.843
62.86000 3.945
62.88000 2.048
62.90000 4.114
62.92000 6.149
62.94000 2.949
62.96000 1.794
62.98000 4.103
63.00000 3.302
63.02000 5.290
63.04000 2.929
63.06000 1.455
63.08000 2.942
63.10000 2.675
63.12000 2.217
63.14000 4.952
63.16000 2.581
63.18000 -0.562
63.20000 -2.252
63.22000 1.544
63.24000 2.588
63.26000 -1.821
63.28000 -1.386
63.30000 4.330
63.32000 4.702
63.34000 5.144
63.36000 1.454
63.38000 -0.926
63.40000 4.184
63.42000 2.305
63.44000 -1.020
63.46000 1.650
63.48000 0.852
63.50000 2.678
63.52000 2.218
63.54000 2.569
63.56000 0.787
63.58000 2.201
63.60000 3.677
63.62000 3.810
63.64000 3.005
63.66000 -0.240
63.68000 -0.136
63.70000 -2.221
63.72000 -0.087
63.74000 1.537
63.76000 4.199
63.78000 2.716
63.80000 2.388
63.82000 0.911
63.84000 0.368
63.86000 1.398
63.88000 4.418
63.90000 2.955
63.92000 0.013
63.94000 -2.280
63.96000 -0.622
63.98000 -0.877
64.00000 2.002
64.02000 1.797
64.04000 -1.826
64.06000 -2.158
64.08000 -0.732
64.10000 0.587
64.12000 2.995
64.14000 3.043
64.16000 -0.070
64.18000 -0.956
64.20000 0.673
64.22000 0.626
64.24000 0.588
64.26000 0.412
64.28000 -1.336
64.30000 3.418
64.32000 3.502
64.34000 3.560
64.36000 3.426
64.38000 -0.883
64.40000 1.417
64.42000 1.106
64.44000 1.730
64.46000 1.931
64.48000 -0.303
64.50000 0.739
64.52000 2.039
64.54000 1.422
64.56000 3.583
64.58000 1.923
64.60000 2.532
64.62000 3.434
64.64000 3.241
64.66000 1.636
64.68000 3.795
64.70000 6.319
64.72000 2.753
64.74000 -2.293
64.76000 0.718
64.78000 -0.178
64.80000 -1.652
64.82000 -0.499
64.84000 -1.328
64.86000 0.551
64.88000 1.714
64.90000 1.332
64.92000 1.738
64.94000 1.771
64.96000 1.647
64.98000 -0.955
65.00000 -2.303
65.02000 0.269
65.04000 1.127
65.06000 -0.911
65.08000 -1.082
65.10000 1.202
65.12000 0.382
65.14000 0.503
65.16000 1.077
65.18000 0.304
65.20000 0.527
65.22000 0.250
65.24000 -1.972
65.26000 1.403
65.28000 1.841
65.30000 3.220
65.32000 2.086
65.34000 0.647
65.36000 0.330
65.38000 -0.821
65.40000 0.937
65.42000 0.523
65.44000 1.155
65.46000 2.204
65.48000 1.594
65.50000 2.053
65.52000 0.218
65.54000 2.297
65.56000 1.549
65.58000 1.386
65.60000 3.286
65.62000 -0.237
65.64000 0.192
65.66000 -1.858
65.68000 0.029
65.70000 0.280
65.72000 -2.133
65.74000 -0.613
65.76000 1.573
65.78000 -0.586
65.80000 2.436
65.82000 2.297
65.84000 1.720
65.86000 1.083
65.88000 3.013
65.90000 4.699
65.92000 4.723
65.94000 2.759
65.96000 3.186
65.98000 3.893
66.00000 3.431
66.02000 3.438
66.04000 1.960
66.06000 1.683
66.08000 1.895
66.10000 4.440
66.12000 5.388
66.14000 4.017
66.16000 5.218
66.18000 4.119
66.20000 5.971
66.22000 5.170
66.24000 5.301
66.26000 5.752
66.28000 3.828
66.30000 5.522
66.32000 5.859
66.34000 7.200
66.36000 4.799
66.38000 7.369
66.40000 8.140
66.42000 3.999
66.44000 3.202
66.46000 4.112
66.48000 3.551
66.50000 5.389
66.52000 3.571
66.54000 6.162
66.56000 4.851
66.58000 2.782
66.60000 3.680
66.62000 5.121
66.64000 4.081
66.66000 2.995
66.68000 2.981
66.70000 2.989
66.72000 5.252
66.74000 3.530
66.76000 1.402
66.78000 1.544
66.80000 0.674
66.82000 2.280
66.84000 -0.254
66.86000 -1.706
66.88000 1.983
66.90000 1.761
66.92000 0.105
66.94000 0.430
66.96000 1.630
66.98000 4.411
67.00000 4.696
67.02000 -0.028
67.04000 -2.095
67.06000 -0.015
67.08000 0.201
67.10000 1.307
67.12000 -0.706
67.14000 -0.974
67.16000 1.188
67.18000 0.909
67.20000 0.559
67.22000 0.165
67.24000 3.234
67.26000 0.961
67.28000 -0.063
67.30000 2.532
67.32000 1.955
67.34000 0.565
67.36000 0.456
67.38000 1.943
67.40000 2.163
67.42000 0.533
67.44000 0.551
67.46000 2.235
67.48000 -2.184
67.50000 -1.150
67.52000 0.377
67.54000 0.317
67.56000 -1.263
67.58000 2.124
67.60000 5.014
67.62000 2.124
67.64000 1.273
67.66000 0.016
67.68000 1.432
67.70000 0.925
67.72000 0.320
67.74000 1.605
67.76000 1.083
67.78000 2.483
67.80000 1.145
67.82000 -1.744
67.84000 -2.198
67.86000 1.041
67.88000 1.846
67.90000 1.178
67.92000 2.369
67.94000 0.467
67.96000 -2.194
67.98000 -0.733
68.00000 0.547
68.02000 0.407
68.04000 -0.437
68.06000 0.945
68.08000 2.409
68.10000 2.318
68.12000 1.949
68.14000 1.908
68.16000 0.065
68.18000 0.118
68.20000 -0.168
68.22000 0.427
68.24000 -1.088
68.26000 0.044
68.28000 -0.445
68.30000 -0.800
68.32000 -1.576
68.34000 1.219
68.36000 1.258
68.38000 1.737
68.40000 -1.247
68.42000 3.199
68.44000 -0.196
68.46000 -1.923
68.48000 -0.287
68.50000 -1.413
68.52000 -2.179
68.54000 -0.739
68.56000 0.901
68.58000 -1.257
68.60000 -1.264
68.62000 0.630
68.64000 0.493
68.66000 1.583
68.68000 0.408
68.70000 1.268
68.72000 1.515
68.74000 0.240
68.76000 0.888
68.78000 0.356
68.80000 -0.012
68.82000 2.477
68.84000 1.551
68.86000 2.034
68.88000 2.955
68.90000 1.303
68.92000 0.085
68.94000 -0.137
68.96000 -1.286
68.98000 0.309
69.00000 1.283
69.02000 -0.611
69.04000 0.489
69.06000 0.934
69.08000 1.113
69.10000 2.019
69.12000 0.216
69.14000 -1.618
69.16000 -0.967
69.18000 1.471
69.20000 0.965
69.22000 0.458
69.24000 3.096
69.26000 4.297
69.28000 3.238
69.30000 0.942
69.32000 -2.127
69.34000 0.525
69.36000 1.221
69.38000 -1.245
69.40000 -0.525
69.42000 -0.492
69.44000 2.248
69.46000 5.532
69.48000 4.033
69.50000 3.633
69.52000 1.441
69.54000 0.401
69.56000 1.437
69.58000 2.788
69.60000 2.177
69.62000 3.568
69.64000 1.148
69.66000 2.233
69.68000 2.952
69.70000 5.799
69.72000 2.562
69.74000 -2.106
69.76000 0.391
69.78000 0.938
69.80000 0.782
69.82000 0.540
69.84000 1.843
69.86000 0.936
69.88000 1.467
69.90000 1.945
69.92000 2.003
69.94000 0.961
69.96000 0.145
69.98000 -1.528
70.00000 2.221
70.02000 2.412
70.04000 2.587
70.06000 1.409
70.08000 0.577
70.10000 2.606
70.12000 1.267
70.14000 1.115
70.16000 0.865
70.18000 4.348
70.20000 1.639
70.22000 2.660
70.24000 -1.885
70.26000 -1.434
70.28000 -0.755
70.30000 2.862
70.32000 2.603
70.34000 1.701
70.36000 0.153
70.38000 0.173
70.40000 -0.185
70.42000 2.458
70.44000 1.331
70.46000 2.330
70.48000 3.000
70.50000 2.673
70.52000 1.985
70.54000 0.863
70.56000 3.114
70.58000 0.563
70.60000 -0.635
70.62000 0.600
70.64000 1.838
70.66000 2.233
70.68000 2.888
70.70000 2.247
70.72000 0.457
70.74000 2.711
70.76000 2.283
70.78000 3.555
70.80000 2.725
70.82000 3.332
70.84000 4.138
70.86000 3.196
70.88000 1.682
70.90000 4.215
70.92000 4.193
70.94000 5.697
70.96000 3.647
70.98000 3.790
71.00000 1.939
71.02000 2.519
71.04000 5.768
71.06000 2.560
71.08000 2.429
71.10000 4.381
71.12000 4.390
71.14000 3.219
71.16000 3.586
71.18000 2.122
71.20000 3.749
71.22000 0.670
71.24000 2.510
71.26000 -2.021
71.28000 1.333
71.30000 2.890
71.32000 5.541
71.34000 4.367
71.36000 2.431
71.38000 4.414
71.40000 6.767
71.42000 2.703
71.44000 0.232
71.46000 0.717
71.48000 1.518
71.50000 0.178
71.52000 0.613
71.54000 1.749
71.56000 2.597
71.58000 1.353
71.60000 4.037
71.62000 1.976
71.64000 1.131
71.66000 0.860
71.68000 0.211
71.70000 -0.309
71.72000 1.269
71.74000 1.035
71.76000 -0.863
71.78000 0.980
71.80000 3.898
71.82000 1.536
71.84000 2.768
71.86000 1.855
71.88000 2.111
71.90000 0.476
71.92000 1.963
71.94000 -0.052
71.96000 0.239
71.98000 -0.258
72.00000 0.749
72.02000 4.344
72.04000 5.715
72.06000 3.897
72.08000 -0.358
72.10000 -0.986
72.12000 1.435
72.14000 1.412
72.16000 1.018
72.18000 0.510
72.20000 1.747
72.22000 2.050
72.24000 2.356
72.26000 2.223
72.28000 -0.010
72.30000 -1.486
72.32000 -1.838
72.34000 -0.831
72.36000 -1.412
72.38000 0.263
72.40000 2.816
72.42000 3.972
72.44000 2.720
72.46000 3.333
72.48000 2.477
72.50000 -0.777
72.52000 -1.789
72.54000 0.162
72.56000 0.237
72.58000 -1.743
72.60000 0.708
72.62000 1.959
72.64000 1.345
72.66000 2.986
72.68000 3.119
72.70000 3.870
72.72000 3.789
72.74000 2.122
72.76000 -1.999
72.78000 0.450
72.80000 -1.306
72.82000 1.312
72.84000 2.735
72.86000 2.108
72.88000 1.415
72.90000 -1.937
72.92000 -1.996
72.94000 1.528
72.96000 3.701
72.98000 4.891
73.00000 3.099
73.02000 1.893
73.04000 3.613
73.06000 1.711
73.08000 2.278
73.10000 2.321
73.12000 -0.285
73.14000 1.864
73.16000 2.160
73.18000 -1.299
73.20000 0.440
73.22000 0.826
73.24000 2.364
73.26000 3.944
73.28000 -0.280
73.30000 1.391
73.32000 1.311
73.34000 0.974
73.36000 0.768
73.38000 -1.593
73.40000 -1.523
73.42000 1.546
73.44000 3.093
73.46000 -0.565
73.48000 0.303
73.50000 3.109
73.52000 2.114
73.54000 4.982
73.56000 6.833
73.58000 5.546
73.60000 6.395
73.62000 4.051
73.64000 0.905
73.66000 3.562
73.68000 6.672
73.70000 3.582
73.72000 1.119
73.74000 2.094
73.76000 2.377
73.78000 2.498
73.80000 3.422
73.82000 4.759
73.84000 3.655
73.86000 2.431
73.88000 1.366
73.90000 4.457
73.92000 1.116
73.94000 0.809
73.96000 -1.949
73.98000 1.790
74.00000 4.832
74.02000 4.381
74.04000 3.270
74.06000 3.469
74.08000 3.212
74.10000 2.959
74.12000 3.717
74.14000 5.002
74.16000 5.909
74.18000 4.444
74.20000 3.743
74.22000 0.516
74.24000 0.777
74.26000 4.110
74.28000 5.357
74.30000 3.170
74.32000 2.482
74.34000 6.269
74.36000 5.935
74.38000 1.788
74.40000 -0.727
74.42000 1.336
74.44000 5.054
74.46000 5.739
74.48000 8.899
74.50000 7.111
74.52000 2.814
74.54000 0.793
74.56000 2.731
74.58000 4.365
74.60000 4.239
74.62000 2.886
74.64000 4.533
74.66000 6.798
74.68000 6.005
74.70000 5.701
74.72000 3.005
74.74000 1.390
74.76000 2.555
74.78000 4.568
74.80000 2.353
74.82000 2.327
74.84000 1.566
74.86000 2.207
74.88000 3.595
74.90000 4.868
74.92000 2.551
74.94000 -0.560
74.96000 -1.960
74.98000 -0.152
75.00000 0.461
75.02000 5.724
75.04000 4.621
75.06000 4.313
75.08000 2.888
75.10000 7.655
75.12000 4.975
75.14000 4.105
75.16000 4.603
75.18000 3.326
75.20000 3.703
75.22000 5.125
75.24000 2.709
75.26000 3.211
75.28000 -0.482
75.30000 0.833
75.32000 3.219
75.34000 1.966
75.36000 0.200
75.38000 -1.094
75.40000 2.300
75.42000 4.489
75.44000 4.724
75.46000 3.054
75.48000 0.395
75.50000 4.879
75.52000 6.085
75.54000 0.571
75.56000 3.487
75.58000 1.176
75.60000 4.343
75.62000 1.689
75.64000 1.098
75.66000 1.649
75.68000 -0.556
75.70000 -0.127
75.72000 1.039
75.74000 0.566
75.76000 0.401
75.78000 3.536
75.80000 4.300
75.82000 4.030
75.84000 4.422
75.86000 4.209
75.88000 4.818
75.90000 5.293
75.92000 4.183
75.94000 0.296
75.96000 1.270
75.98000 -0.029
76.00000 -1.504
76.02000 -0.584
76.04000 1.748
76.06000 2.192
76.08000 2.143
76.10000 3.171
76.12000 -0.101
76.14000 -1.023
76.16000 -0.742
76.18000 2.294
76.20000 -0.117
76.22000 1.711
76.24000 2.355
76.26000 2.818
76.28000 1.702
76.30000 -1.188
76.32000 0.074
76.34000 1.224
76.36000 0.798
76.38000 1.548
76.40000 -2.047
76.42000 -0.435
76.44000 1.746
76.46000 0.698
76.48000 -0.133
76.50000 1.718
76.52000 1.650
76.54000 0.849
76.56000 1.488
76.58000 3.530
76.60000 3.627
76.62000 -1.074
76.64000 2.511
76.66000 0.010
76.68000 -0.283
76.70000 2.987
76.72000 2.427
76.74000 3.230
76.76000 0.444
76.78000 -0.744
76.80000 2.203
76.82000 3.317
76.84000 3.357
76.86000 3.056
76.88000 -2.058
76.90000 -0.959
76.92000 -1.517
76.94000 0.468
76.96000 0.388
76.98000 0.965
77.00000 2.702
77.02000 2.494
77.04000 2.324
77.06000 -0.677
77.08000 -0.626
77.10000 -0.221
77.12000 1.519
77.14000 1.064
77.16000 4.727
77.18000 2.798
77.20000 0.419
77.22000 -0.402
77.24000 2.689
77.26000 2.989
77.28000 -1.427
77.30000 -0.205
77.32000 1.284
77.34000 -1.729
77.36000 -2.089
77.38000 -0.511
77.40000 -0.917
77.42000 -1.586
77.44000 -1.187
77.46000 0.050
77.48000 2.528
77.50000 -0.335
77.52000 -0.886
77.54000 -0.631
77.56000 1.204
77.58000 2.563
77.60000 0.314
77.62000 1.304
77.64000 0.036
77.66000 -0.684
77.68000 2.720
77.70000 3.063
77.72000 1.803
77.74000 1.969
77.76000 1.740
77.78000 2.072
77.80000 0.144
77.82000 0.687
77.84000 1.766
77.86000 2.788
77.88000 0.899
77.90000 2.045
77.92000 -0.475
77.94000 -1.729
77.96000 1.311
77.98000 1.568
78.00000 -0.491
78.02000 -1.441
78.04000 -0.336
78.06000 0.199
78.08000 5.669
78.10000 5.454
78.12000 2.911
78.14000 2.636
78.16000 2.358
78.18000 3.162
78.20000 3.051
78.22000 3.019
78.24000 1.860
78.26000 2.898
78.28000 -0.297
78.30000 -2.132
78.32000 1.324
78.34000 4.636
78.36000 3.397
78.38000 0.107
78.40000 -0.413
78.42000 -0.400
78.44000 1.542
78.46000 3.183
78.48000 2.968
78.50000 7.536
78.52000 5.954
78.54000 4.891
78.56000 4.192
78.58000 3.986
78.60000 2.044
78.62000 1.535
78.64000 2.736
78.66000 3.583
78.68000 4.438
78.70000 5.845
78.72000 7.111
78.74000 5.756
78.76000 6.036
78.78000 3.036
78.80000 3.354
78.82000 3.905
78.84000 4.525
78.86000 5.786
78.88000 6.346
78.90000 6.071
78.92000 5.303
78.94000 5.631
78.96000 5.143
78.98000 6.435
79.00000 7.565
79.02000 11.289
79.04000 11.266
79.06000 8.887
79.08000 10.348
79.10000 9.739
79.12000 14.144
79.14000 14.069
79.16000 13.997
79.18000 13.766
79.20000 10.039
79.22000 6.575
79.24000 8.497
79.26000 16.358
79.28000 16.397
79.30000 14.729
79.32000 14.505
79.34000 15.841
79.36000 20.460
79.38000 18.827
79.40000 19.351
79.42000 19.014
79.44000 21.033
79.46000 21.243
79.48000 18.749
79.50000 20.402
79.52000 18.582
79.54000 18.730
79.56000 18.804
79.58000 22.843
79.60000 27.075
79.62000 26.317
79.64000 26.023
79.66000 28.758
79.68000 25.754
79.70000 24.404
79.72000 20.941
79.74000 22.147
79.76000 25.279
79.78000 27.759
79.80000 30.131
79.82000 29.618
79.84000 30.355
79.86000 26.697
79.88000 26.849
79.90000 26.851
79.92000 26.458
79.94000 27.083
79.96000 30.238
79.98000 25.522
80.00000 27.383
80.02000 28.101
80.04000 26.298
80.06000 22.729
80.08000 25.262
80.10000 26.397
80.12000 19.964
80.14000 19.465
80.16000 20.703
80.18000 23.912
80.20000 22.518
80.22000 20.411
80.24000 22.164
80.26000 22.386
80.28000 18.040
80.30000 14.545
80.32000 15.982
80.34000 14.549
80.36000 14.162
80.38000 13.273
80.40000 12.933
80.42000 16.433
80.44000 18.420
80.46000 16.415
80.48000 12.591
80.50000 10.574
80.52000 9.724
80.54000 10.113
80.56000 7.053
80.58000 5.757
80.60000 8.824
80.62000 6.709
80.64000 4.289
80.66000 7.358
80.68000 8.503
80.70000 6.902
80.72000 3.529
80.74000 2.701
80.76000 2.598
80.78000 3.890
80.80000 8.430
80.82000 5.379
80.84000 4.118
80.86000 5.065
80.88000 4.808
80.90000 3.780
80.92000 -1.167
80.94000 2.976
80.96000 7.012
80.98000 4.767
81.00000 3.920
81.02000 1.242
81.04000 2.784
81.06000 -0.978
81.08000 0.647
81.10000 4.552
81.12000 2.919
81.14000 4.683
81.16000 0.220
81.18000 -1.816
81.20000 -2.288
81.22000 0.075
81.24000 1.092
81.26000 -0.117
81.28000 0.844
81.30000 1.278
81.32000 1.612
81.34000 0.725
81.36000 2.590
81.38000 1.229
81.40000 2.733
81.42000 2.158
81.44000 0.061
81.46000 2.553
81.48000 -0.893
81.50000 0.836
81.52000 0.625
81.54000 1.033
81.56000 0.505
81.58000 -0.647
81.60000 -0.614
81.62000 -0.183
81.64000 -2.293
81.66000 -1.611
81.68000 0.962
81.70000 3.313
81.72000 1.985
81.74000 0.744
81.76000 1.998
81.78000 5.542
81.80000 3.530
81.82000 1.280
81.84000 -2.292
81.86000 -0.498
81.88000 1.076
81.90000 4.085
81.92000 0.499
81.94000 0.951
81.96000 1.464
81.98000 -1.448
82.00000 1.588
82.02000 5.517
82.04000 2.941
82.06000 4.964
82.08000 0.964
82.10000 -0.859
82.12000 1.084
82.14000 3.830
82.16000 2.437
82.18000 1.411
82.20000 1.364
82.22000 4.470
82.24000 1.451
82.26000 3.057
82.28000 5.468
82.30000 3.370
82.32000 2.359
82.34000 4.459
82.36000 4.417
82.38000 0.438
82.40000 0.617
82.42000 2.873
82.44000 2.917
82.46000 0.924
82.48000 2.141
82.50000 6.864
82.52000 7.377
82.54000 5.701
82.56000 5.823
82.58000 7.445
82.60000 8.786
82.62000 7.699
82.64000 8.080
82.66000 5.795
82.68000 3.594
82.70000 5.919
82.72000 8.423
82.74000 7.690
82.76000 9.215
82.78000 12.416
82.80000 10.978
82.82000 9.690
82.84000 9.689
82.86000 9.526
82.88000 14.003
82.90000 11.801
82.92000 14.500
82.94000 11.656
82.96000 13.814
82.98000 13.846
83.00000 16.379
83.02000 18.022
83.04000 18.953
83.06000 12.797
83.08000 13.318
83.10000 15.589
83.12000 18.495
83.14000 23.959
83.16000 23.886
83.18000 22.952
83.20000 26.045
83.22000 25.000
83.24000 26.967
83.26000 24.958
83.28000 24.906
83.30000 28.322
83.32000 23.815
83.34000 26.186
83.36000 25.032
83.38000 27.030
83.40000 35.172
83.42000 38.059
83.44000 39.870
83.46000 40.302
83.48000 37.938
83.50000 36.785
83.52000 39.566
83.54000 39.160
83.56000 38.250
83.58000 41.063
83.60000 43.229
83.62000 46.562
83.64000 49.618
83.66000 49.458
83.68000 52.678
83.70000 49.647
83.72000 47.868
83.74000 48.301
83.76000 41.161
83.78000 43.323
83.80000 50.960
83.82000 50.882
83.84000 48.103
83.86000 49.129
83.88000 48.410
83.90000 49.972
83.92000 50.423
83.94000 49.249
83.96000 48.859
83.98000 45.621
84.00000 46.752
84.02000 47.498
84.04000 45.330
84.06000 43.970
84.08000 39.991
84.10000 39.234
84.12000 38.186
84.14000 36.244
84.16000 36.582
84.18000 34.969
84.20000 33.716
84.22000 32.978
84.24000 30.290
84.26000 28.484
84.28000 31.021
84.30000 29.702
84.32000 32.439
84.34000 25.636
84.36000 21.343
84.38000 21.749
84.40000 19.102
84.42000 17.673
84.44000 20.917
84.46000 17.204
84.48000 11.388
84.50000 12.556
84.52000 13.978
84.54000 14.971
84.56000 14.577
84.58000 14.990
84.60000 13.543
84.62000 14.235
84.64000 11.596
84.66000 7.173
84.68000 8.151
84.70000 8.553
84.72000 8.696
84.74000 8.324
84.76000 6.866
84.78000 5.670
84.80000 5.914
84.82000 5.712
84.84000 1.008
84.86000 3.746
84.88000 3.573
84.90000 1.907
84.92000 4.381
84.94000 2.167
84.96000 1.349
84.98000 1.709
85.00000 2.370
85.02000 0.513
85.04000 -0.942
85.06000 0.860
85.08000 0.687
85.10000 0.719
85.12000 0.508
85.14000 3.470
85.16000 2.122
85.18000 1.478
85.20000 -0.912
85.22000 0.005
85.24000 0.320
85.26000 -2.095
85.28000 -0.248
85.30000 1.161
85.32000 2.971
85.34000 2.157
85.36000 2.163
85.38000 2.328
85.40000 -1.026
85.42000 1.025
85.44000 0.042
85.46000 -0.744
85.48000 1.440
85.50000 3.627
85.52000 2.104
85.54000 -1.167
85.56000 -0.549
85.58000 0.651
85.60000 1.792
85.62000 1.040
85.64000 1.938
85.66000 -0.518
85.68000 1.318
85.70000 2.635
85.72000 2.947
85.74000 1.479
85.76000 1.416
85.78000 -1.080
85.80000 0.803
85.82000 1.762
85.84000 2.166
85.86000 5.523
85.88000 2.753
85.90000 -0.600
85.92000 3.998
85.94000 5.630
85.96000 3.730
85.98000 -1.957
86.00000 1.145
86.02000 4.957
86.04000 6.537
86.06000 7.297
86.08000 5.474
86.10000 0.971
86.12000 2.830
86.14000 3.644
86.16000 3.334
86.18000 2.604
86.20000 3.325
86.22000 2.625
86.24000 1.239
86.26000 0.611
86.28000 5.695
86.30000 3.725
86.32000 1.575
86.34000 2.257
86.36000 1.863
86.38000 2.624
86.40000 2.348
86.42000 1.584
86.44000 -1.224
86.46000 0.631
86.48000 1.217
86.50000 2.204
86.52000 -1.568
86.54000 -1.539
86.56000 2.458
86.58000 -1.348
86.60000 -0.471
86.62000 4.754
86.64000 3.475
86.66000 2.909
86.68000 1.423
86.70000 2.158
86.72000 1.965
86.74000 1.608
86.76000 1.283
86.78000 1.726
86.80000 4.134
86.82000 5.625
86.84000 4.899
86.86000 -0.533
86.88000 2.961
86.90000 1.554
86.92000 2.581
86.94000 3.102
86.96000 3.865
86.98000 0.270
87.00000 -0.124
87.02000 -0.514
87.04000 2.068
87.06000 0.586
87.08000 1.609
87.10000 2.491
87.12000 -0.196
87.14000 1.450
87.16000 2.144
87.18000 5.038
87.20000 6.243
87.22000 3.959
87.24000 4.391
87.26000 1.379
87.28000 1.723
87.30000 1.634
87.32000 0.184
87.34000 1.350
87.36000 2.215
87.38000 0.430
87.40000 -1.875
87.42000 0.566
87.44000 4.080
87.46000 0.379
87.48000 5.085
87.50000 3.609
87.52000 1.105
87.54000 2.946
87.56000 2.947
87.58000 0.832
87.60000 2.711
87.62000 -0.564
87.64000 -1.224
87.66000 0.260
87.68000 1.101
87.70000 1.456
87.72000 0.100
87.74000 3.024
87.76000 2.360
87.78000 0.704
87.80000 0.032
87.82000 1.881
87.84000 -0.006
87.86000 -0.569
87.88000 0.562
87.90000 0.507
87.92000 -0.786
87.94000 0.296
87.96000 -0.596
87.98000 -0.040
88.00000 -0.437
88.02000 0.741
88.04000 0.638
88.06000 1.332
88.08000 0.620
88.10000 2.830
88.12000 0.442
88.14000 -1.550
88.16000 2.684
88.18000 4.054
88.20000 2.191
88.22000 2.288
88.24000 0.880
88.26000 2.479
88.28000 -1.135
88.30000 -0.569
88.32000 0.153
88.34000 0.312
88.36000 2.138
88.38000 -0.635
88.40000 2.722
88.42000 3.772
88.44000 3.145
88.46000 6.395
88.48000 4.658
88.50000 2.395
88.52000 2.020
88.54000 2.250
88.56000 2.120
88.58000 1.463
88.60000 0.847
88.62000 2.116
88.64000 -1.876
88.66000 0.456
88.68000 4.352
88.70000 2.001
88.72000 -0.163
88.74000 3.522
88.76000 0.969
88.78000 1.397
88.80000 4.936
88.82000 0.635
88.84000 3.500
88.86000 1.915
88.88000 1.589
88.90000 1.007
88.92000 -1.226
88.94000 1.436
88.96000 0.143
88.98000 0.264
89.00000 1.045
89.02000 2.508
89.04000 2.690
89.06000 -0.568
89.08000 -1.305
89.10000 0.440
89.12000 3.110
89.14000 2.054
89.16000 0.407
89.18000 1.224
89.20000 0.520
89.22000 1.513
89.24000 1.181
89.26000 1.032
89.28000 0.265
89.30000 1.948
89.32000 3.354
89.34000 3.585
89.36000 0.631
89.38000 3.705
89.40000 3.056
89.42000 0.090
89.44000 -1.870
89.46000 -1.224
89.48000 4.733
89.50000 1.402
89.52000 1.532
89.54000 2.094
89.56000 -0.109
89.58000 -0.057
89.60000 -0.590
89.62000 -1.442
89.64000 3.240
89.66000 1.458
89.68000 -0.846
89.70000 0.091
89.72000 -1.870
89.74000 0.054
89.76000 2.111
89.78000 5.295
89.80000 3.940
89.82000 0.707
89.84000 0.614
89.86000 2.329
89.88000 3.615
89.90000 1.775
89.92000 6.056
89.94000 4.933
89.96000 1.258
89.98000 3.118
90.00000 2.681
90.02000 -1.245
90.04000 -0.432
90.06000 1.865
90.08000 2.163
90.10000 2.496
90.12000 0.666
90.14000 -1.880
90.16000 0.280
90.18000 1.872
90.20000 -0.182
90.22000 0.084
90.24000 -1.204
90.26000 0.227
90.28000 -1.225
90.30000 1.379
90.32000 -1.770
90.34000 0.726
90.36000 3.165
90.38000 1.400
90.40000 0.384
90.42000 1.267
90.44000 -1.189
90.46000 2.397
90.48000 3.191
90.50000 0.649
90.52000 0.749
90.54000 2.207
90.56000 4.341
90.58000 2.048
90.60000 -0.205
90.62000 -1.675
90.64000 -1.287
90.66000 1.151
90.68000 -0.187
90.70000 2.956
90.72000 4.477
90.74000 -0.804
90.76000 -0.629
90.78000 2.008
90.80000 1.602
90.82000 1.432
90.84000 0.187
90.86000 2.267
90.88000 1.781
90.90000 1.758
90.92000 3.594
90.94000 3.154
90.96000 4.308
90.98000 0.159
91.00000 2.007
91.02000 4.097
91.04000 1.716
91.06000 0.657
91.08000 -0.065
91.10000 1.329
91.12000 1.363
91.14000 2.151
91.16000 1.600
91.18000 -1.855
91.20000 2.647
91.22000 5.238
91.24000 0.843
91.26000 1.088
91.28000 -0.361
91.30000 1.643
91.32000 3.563
91.34000 2.446
91.36000 4.535
91.38000 3.166
91.40000 2.779
91.42000 4.360
91.44000 3.243
91.46000 2.582
91.48000 1.373
91.50000 1.477
91.52000 0.978
91.54000 3.626
91.56000 0.230
91.58000 -1.874
91.60000 -0.660
91.62000 0.893
91.64000 1.563
91.66000 3.526
91.68000 4.041
91.70000 3.525
91.72000 1.661
91.74000 1.565
91.76000 0.905
91.78000 2.000
91.80000 1.056
91.82000 1.863
91.84000 2.892
91.86000 -1.257
91.88000 0.907
91.90000 -0.347
91.92000 0.333
91.94000 4.584
91.96000 2.230
91.98000 2.207
92.00000 -0.858
92.02000 -0.779
92.04000 2.603
92.06000 2.253
92.08000 3.510
92.10000 0.255
92.12000 1.308
92.14000 3.808
92.16000 1.933
92.18000 0.546
92.20000 3.322
92.22000 2.860
92.24000 1.295
92.26000 0.450
92.28000 0.347
92.30000 0.249
92.32000 1.186
92.34000 3.809
92.36000 5.011
92.38000 2.941
92.40000 1.502
92.42000 0.677
92.44000 2.713
92.46000 4.132
92.48000 3.507
92.50000 3.387
92.52000 1.534
92.54000 2.829
92.56000 4.053
92.58000 2.575
92.60000 5.049
92.62000 2.414
92.64000 1.278
92.66000 2.722
92.68000 3.766
92.70000 3.370
92.72000 2.955
92.74000 6.104
92.76000 6.067
92.78000 3.432
92.80000 3.595
92.82000 -1.858
92.84000 0.398
92.86000 3.088
92.88000 6.023
92.90000 3.477
92.92000 4.444
92.94000 4.371
92.96000 2.700
92.98000 5.961
93.00000 8.307
93.02000 3.338
93.04000 1.517
93.06000 0.816
93.08000 0.743
93.10000 3.037
93.12000 2.080
93.14000 2.457
93.16000 3.146
93.18000 -0.105
93.20000 0.426
93.22000 3.152
93.24000 3.174
93.26000 0.871
93.28000 2.292
93.30000 4.522
93.32000 0.808
93.34000 0.481
93.36000 4.761
93.38000 4.142
93.40000 3.257
93.42000 2.904
93.44000 1.865
93.46000 2.626
93.48000 -1.878
93.50000 0.116
93.52000 2.228
93.54000 -0.243
93.56000 0.448
93.58000 0.631
93.60000 1.773
93.62000 0.378
93.64000 3.674
93.66000 2.821
93.68000 1.633
93.70000 4.619
93.72000 5.642
93.74000 3.292
93.76000 3.917
93.78000 4.342
93.80000 4.909
93.82000 4.033
93.84000 -0.335
93.86000 -1.877
93.88000 0.538
93.90000 3.279
93.92000 4.185
93.94000 4.197
93.96000 5.494
93.98000 3.215
94.00000 3.241
94.02000 2.180
94.04000 0.091
94.06000 1.277
94.08000 -0.027
94.10000 2.135
94.12000 3.492
94.14000 5.119
94.16000 2.986
94.18000 1.274
94.20000 -1.870
94.22000 -1.056
94.24000 1.139
94.26000 4.393
94.28000 4.279
94.30000 -0.582
94.32000 -1.867
94.34000 1.499
94.36000 2.398
94.38000 1.747
94.40000 -1.336
94.42000 0.668
94.44000 4.980
94.46000 5.235
94.48000 6.689
94.50000 6.137
94.52000 3.000
94.54000 1.724
94.56000 4.794
94.58000 5.348
94.60000 7.156
94.62000 8.119
94.64000 4.032
94.66000 4.594
94.68000 9.045
94.70000 6.188
94.72000 4.350
94.74000 4.707
94.76000 3.222
94.78000 4.794
94.80000 4.789
94.82000 2.624
94.84000 3.443
94.86000 3.387
94.88000 5.403
94.90000 7.476
94.92000 -1.051
94.94000 -1.853
94.96000 2.296
94.98000 5.381
95.00000 5.947
95.02000 6.831
95.04000 10.425
95.06000 6.193
95.08000 3.216
95.10000 5.291
95.12000 5.534
95.14000 4.409
95.16000 4.839
95.18000 8.303
95.20000 5.041
95.22000 4.396
95.24000 5.156
95.26000 2.587
95.28000 3.238
95.30000 5.746
95.32000 7.853
95.34000 7.849
95.36000 7.652
95.38000 8.448
95.40000 7.539
95.42000 3.224
95.44000 3.705
95.46000 0.436
95.48000 0.098
95.50000 1.178
95.52000 1.523
95.54000 4.494
95.56000 6.548
95.58000 4.322
95.60000 4.200
95.62000 3.408
95.64000 0.175
95.66000 -0.552
95.68000 1.209
95.70000 2.066
95.72000 1.795
95.74000 2.094
95.76000 -0.361
95.78000 0.796
95.80000 1.447
95.82000 0.685
95.84000 3.913
95.86000 3.110
95.88000 2.877
95.90000 2.906
95.92000 1.644
95.94000 -1.874
95.96000 0.927
95.98000 8.109
96.00000 7.388
96.02000 2.252
96.04000 1.095
96.06000 3.229
96.08000 5.767
96.10000 3.786
96.12000 1.918
96.14000 0.459
96.16000 2.619
96.18000 2.417
96.20000 2.842
96.22000 -1.268
96.24000 0.166
96.26000 2.495
96.28000 4.525
96.30000 3.931
96.32000 -0.082
96.34000 -1.874
96.36000 0.541
96.38000 5.461
96.40000 6.148
96.42000 2.142
96.44000 2.498
96.46000 7.268
96.48000 6.540
96.50000 -1.460
96.52000 3.271
96.54000 8.259
96.56000 6.583
96.58000 4.756
96.60000 7.537
96.62000 2.867
96.64000 2.273
96.66000 5.272
96.68000 5.051
96.70000 3.466
96.72000 2.743
96.74000 2.595
96.76000 4.807
96.78000 1.886
96.80000 0.032
96.82000 0.965
96.84000 0.577
96.86000 0.920
96.88000 0.764
96.90000 5.152
96.92000 4.490
96.94000 1.161
96.96000 0.711
96.98000 0.427
97.00000 0.319
97.02000 1.520
97.04000 2.322
97.06000 4.005
97.08000 4.039
97.10000 4.443
97.12000 0.872
97.14000 0.983
97.16000 2.075
97.18000 1.500
97.20000 2.884
97.22000 5.102
97.24000 4.453
97.26000 4.318
97.28000 9.900
97.30000 6.612
97.32000 1.690
97.34000 -1.866
97.36000 1.547
97.38000 5.338
97.40000 1.721
97.42000 1.289
97.44000 -0.007
97.46000 -0.931
97.48000 2.399
97.50000 3.230
97.52000 6.427
97.54000 8.305
97.56000 5.697
97.58000 3.609
97.60000 2.635
97.62000 5.638
97.64000 2.442
97.66000 2.912
97.68000 1.557
97.70000 5.651
97.72000 6.756
97.74000 2.419
97.76000 -0.698
97.78000 1.592
97.80000 3.782
97.82000 6.722
97.84000 3.079
97.86000 5.533
97.88000 2.561
97.90000 3.316
97.92000 -0.428
97.94000 2.496
97.96000 3.397
97.98000 3.286
98.00000 2.702
98.02000 3.240
98.04000 8.207
98.06000 6.406
98.08000 3.370
98.10000 3.101
98.12000 2.463
98.14000 -1.597
98.16000 -1.169
98.18000 0.043
98.20000 2.577
98.22000 4.441
98.24000 2.892
98.26000 4.438
98.28000 5.865
98.30000 2.865
98.32000 0.810
98.34000 -1.348
98.36000 1.529
98.38000 2.891
98.40000 3.198
98.42000 4.567
98.44000 5.083
98.46000 6.078
98.48000 7.103
98.50000 4.574
98.52000 0.797
98.54000 1.679
98.56000 2.921
98.58000 0.003
98.60000 6.532
98.62000 1.698
98.64000 -1.788
98.66000 -0.462
98.68000 1.588
98.70000 0.897
98.72000 4.353
98.74000 2.089
98.76000 3.928
98.78000 7.809
98.80000 0.063
98.82000 -1.837
98.84000 0.725
98.86000 -1.189
98.88000 1.348
98.90000 6.791
98.92000 6.564
98.94000 11.858
98.96000 6.439
98.98000 1.785
99.00000 2.270
99.02000 -1.170
99.04000 -1.849
99.06000 1.695
99.08000 -0.390
99.10000 0.005
99.12000 1.277
99.14000 -0.269
99.16000 4.573
99.18000 3.606
99.20000 1.382
99.22000 4.880
99.24000 5.690
99.26000 6.059
99.28000 6.851
99.30000 6.852
99.32000 5.887
99.34000 -1.880
99.36000 2.848
99.38000 1.988
99.40000 0.882
99.42000 -0.685
99.44000 3.875
99.46000 4.266
99.48000 4.265
99.50000 5.335
99.52000 2.736
99.54000 2.549
99.56000 -1.899
99.58000 -1.904
99.60000 8.517
99.62000 7.173
99.64000 9.382
99.66000 4.332
99.68000 3.818
99.70000 1.807
99.72000 2.697
99.74000 7.334
99.76000 3.284
99.78000 6.117
99.80000 6.202
99.82000 5.422
99.84000 4.209
99.86000 0.480
99.88000 -1.993
99.90000 1.586
99.92000 6.843
99.94000 4.081
99.96000 -2.028
99.98000 0.000
