'Id: "0011389" Comment: "Integrate frame 0011389_Au-Ir-Rh_Au-Rich_XRD_Mapping-271-0000.gfrmwith cursor Wedge Cursor #5" Operator: "B?rgel" Anode: "Cu" Wavelength: "1.5406" Scantype: "2Theta (TwoTheta)" TimePerStep: "1" X: "9" Y: "22.5" Z: "5.95" 
10.00000 0.000
10.02000 5.684
10.04000 0.159
10.06000 -4.094
10.08000 1.058
10.10000 10.909
10.12000 20.668
10.14000 34.660
10.16000 21.135
10.18000 14.563
10.20000 9.381
10.22000 9.681
10.24000 13.720
10.26000 20.449
10.28000 25.951
10.30000 22.000
10.32000 30.578
10.34000 32.254
10.36000 12.014
10.38000 1.983
10.40000 7.730
10.42000 -0.073
10.44000 -4.083
10.46000 19.751
10.48000 30.268
10.50000 22.393
10.52000 12.401
10.54000 16.922
10.56000 15.249
10.58000 17.503
10.60000 24.057
10.62000 16.260
10.64000 25.230
10.66000 25.215
10.68000 16.973
10.70000 22.575
10.72000 21.839
10.74000 29.085
10.76000 18.376
10.78000 15.917
10.80000 12.050
10.82000 3.855
10.84000 6.655
10.86000 14.996
10.88000 26.063
10.90000 27.910
10.92000 30.003
10.94000 26.173
10.96000 25.307
10.98000 12.414
11.00000 10.792
11.02000 9.253
11.04000 8.773
11.06000 26.072
11.08000 22.569
11.10000 15.469
11.12000 24.837
11.14000 23.747
11.16000 11.653
11.18000 11.451
11.20000 26.158
11.22000 25.962
11.24000 25.756
11.26000 16.712
11.28000 13.640
11.30000 12.377
11.32000 14.016
11.34000 12.271
11.36000 5.301
11.38000 9.727
11.40000 20.106
11.42000 23.932
11.44000 13.914
11.46000 20.065
11.48000 21.074
11.50000 12.997
11.52000 6.867
11.54000 12.212
11.56000 14.412
11.58000 23.259
11.60000 22.958
11.62000 18.170
11.64000 10.439
11.66000 9.499
11.68000 20.909
11.70000 28.683
11.72000 18.616
11.74000 22.015
11.76000 29.715
11.78000 28.508
11.80000 17.229
11.82000 15.925
11.84000 21.356
11.86000 17.961
11.88000 12.062
11.90000 22.236
11.92000 21.189
11.94000 11.463
11.96000 15.974
11.98000 22.511
12.00000 29.139
12.02000 30.441
12.04000 25.612
12.06000 21.137
12.08000 20.986
12.10000 18.205
12.12000 14.876
12.14000 13.657
12.16000 13.507
12.18000 19.392
12.20000 15.297
12.22000 27.040
12.24000 26.800
12.26000 9.171
12.28000 21.888
12.30000 28.775
12.32000 21.606
12.34000 27.853
12.36000 32.447
12.38000 23.240
12.40000 22.860
12.42000 25.735
12.44000 23.402
12.46000 25.229
12.48000 18.259
12.50000 7.024
12.52000 9.063
12.54000 16.399
12.56000 22.031
12.58000 24.615
12.60000 26.286
12.62000 14.751
12.64000 10.462
12.66000 17.040
12.68000 14.202
12.70000 19.262
12.72000 23.771
12.74000 15.447
12.76000 19.054
12.78000 21.197
12.80000 18.984
12.82000 19.825
12.84000 20.175
12.86000 22.994
12.88000 18.895
12.90000 17.171
12.92000 22.789
12.94000 31.468
12.96000 32.480
12.98000 33.195
13.00000 38.321
13.02000 18.447
13.04000 23.723
13.06000 27.934
13.08000 19.141
13.10000 16.651
13.12000 17.882
13.14000 17.582
13.16000 21.680
13.18000 15.067
13.20000 22.346
13.22000 29.258
13.24000 24.019
13.26000 17.470
13.28000 13.092
13.30000 24.513
13.32000 24.027
13.34000 28.111
13.36000 32.514
13.38000 17.115
13.40000 15.733
13.42000 23.857
13.44000 20.171
13.46000 16.932
13.48000 9.895
13.50000 10.481
13.52000 13.777
13.54000 24.419
13.56000 20.787
13.58000 17.048
13.60000 16.704
13.62000 18.746
13.64000 25.503
13.66000 12.235
13.68000 14.571
13.70000 11.281
13.72000 23.467
13.74000 20.912
13.76000 23.997
13.78000 18.006
13.80000 14.077
13.82000 8.632
13.84000 9.594
13.86000 17.276
13.88000 25.047
13.90000 19.142
13.92000 21.250
13.94000 12.289
13.96000 17.881
13.98000 14.919
14.00000 15.989
14.02000 16.213
14.04000 10.753
14.06000 19.641
14.08000 18.223
14.10000 10.860
14.12000 17.418
14.14000 15.250
14.16000 11.471
14.18000 5.888
14.20000 10.484
14.22000 6.105
14.24000 10.127
14.26000 20.119
14.28000 24.958
14.30000 19.657
14.32000 21.883
14.34000 11.628
14.36000 9.635
14.38000 10.958
14.40000 7.056
14.42000 10.360
14.44000 12.565
14.46000 17.633
14.48000 15.308
14.50000 11.133
14.52000 19.376
14.54000 15.046
14.56000 15.722
14.58000 15.375
14.60000 17.660
14.62000 21.156
14.64000 5.879
14.66000 14.832
14.68000 19.259
14.70000 13.602
14.72000 9.518
14.74000 -1.111
14.76000 9.143
14.78000 12.588
14.80000 14.975
14.82000 10.837
14.84000 6.717
14.86000 14.650
14.88000 15.104
14.90000 11.543
14.92000 19.766
14.94000 18.101
14.96000 22.531
14.98000 21.388
15.00000 17.570
15.02000 8.685
15.04000 10.723
15.06000 11.952
15.08000 11.257
15.10000 16.415
15.12000 4.940
15.14000 -4.460
15.16000 3.546
15.18000 10.746
15.20000 13.776
15.22000 10.556
15.24000 14.944
15.26000 24.194
15.28000 15.951
15.30000 5.808
15.32000 7.142
15.34000 12.052
15.36000 11.645
15.38000 8.231
15.40000 13.823
15.42000 13.116
15.44000 9.735
15.46000 10.331
15.48000 11.802
15.50000 9.969
15.52000 10.662
15.54000 8.740
15.56000 14.527
15.58000 14.996
15.60000 7.605
15.62000 15.069
15.64000 15.831
15.66000 7.820
15.68000 11.946
15.70000 4.258
15.72000 7.998
15.74000 9.700
15.76000 7.212
15.78000 6.915
15.80000 10.417
15.82000 8.230
15.84000 2.955
15.86000 10.015
15.88000 11.790
15.90000 10.950
15.92000 7.731
15.94000 12.500
15.96000 10.800
15.98000 11.190
16.00000 6.269
16.02000 12.463
16.04000 12.373
16.06000 5.606
16.08000 4.470
16.10000 -0.042
16.12000 9.405
16.14000 14.908
16.16000 10.937
16.18000 4.230
16.20000 5.888
16.22000 12.403
16.24000 8.283
16.26000 6.467
16.28000 15.251
16.30000 11.236
16.32000 11.200
16.34000 13.809
16.36000 11.195
16.38000 9.378
16.40000 10.118
16.42000 4.561
16.44000 4.904
16.46000 8.932
16.48000 11.458
16.50000 11.513
16.52000 16.445
16.54000 13.853
16.56000 7.704
16.58000 2.595
16.60000 4.375
16.62000 6.399
16.64000 -4.429
16.66000 -2.692
16.68000 9.947
16.70000 1.902
16.72000 9.937
16.74000 13.468
16.76000 11.810
16.78000 6.859
16.80000 7.615
16.82000 5.080
16.84000 2.127
16.86000 6.522
16.88000 7.178
16.90000 5.265
16.92000 1.541
16.94000 6.037
16.96000 9.441
16.98000 12.096
17.00000 6.343
17.02000 6.733
17.04000 11.897
17.06000 10.305
17.08000 11.696
17.10000 8.846
17.12000 6.913
17.14000 2.016
17.16000 2.788
17.18000 6.653
17.20000 5.841
17.22000 0.964
17.24000 -3.113
17.26000 6.590
17.28000 7.929
17.30000 8.396
17.32000 -0.955
17.34000 -4.422
17.36000 -0.915
17.38000 1.693
17.40000 1.498
17.42000 9.275
17.44000 11.269
17.46000 5.987
17.48000 3.329
17.50000 -3.717
17.52000 0.736
17.54000 4.179
17.56000 6.374
17.58000 3.111
17.60000 4.795
17.62000 10.350
17.64000 8.088
17.66000 0.227
17.68000 0.864
17.70000 8.754
17.72000 1.970
17.74000 2.969
17.76000 1.773
17.78000 4.251
17.80000 -0.581
17.82000 3.635
17.84000 8.340
17.86000 9.463
17.88000 8.354
17.90000 5.088
17.92000 3.123
17.94000 1.270
17.96000 -1.106
17.98000 0.210
18.00000 9.933
18.02000 5.104
18.04000 -1.435
18.06000 -3.823
18.08000 3.923
18.10000 8.603
18.12000 0.457
18.14000 1.655
18.16000 2.244
18.18000 5.775
18.20000 1.223
18.22000 8.659
18.24000 14.283
18.26000 6.669
18.28000 0.212
18.30000 7.864
18.32000 4.572
18.34000 -2.737
18.36000 -0.776
18.38000 3.782
18.40000 1.945
18.42000 -0.926
18.44000 1.327
18.46000 2.113
18.48000 1.845
18.50000 3.529
18.52000 4.434
18.54000 6.215
18.56000 7.515
18.58000 8.035
18.60000 6.000
18.62000 5.049
18.64000 -0.033
18.66000 -2.900
18.68000 2.612
18.70000 -1.347
18.72000 1.316
18.74000 -1.777
18.76000 2.732
18.78000 3.370
18.80000 -0.656
18.82000 -1.077
18.84000 2.146
18.86000 2.195
18.88000 0.524
18.90000 0.886
18.92000 -4.344
18.94000 5.603
18.96000 8.530
18.98000 4.207
19.00000 4.362
19.02000 7.770
19.04000 7.203
19.06000 -2.108
19.08000 4.411
19.10000 12.295
19.12000 3.428
19.14000 -2.064
19.16000 -1.214
19.18000 -3.826
19.20000 -2.885
19.22000 -0.949
19.24000 3.086
19.26000 6.220
19.28000 7.736
19.30000 9.960
19.32000 9.506
19.34000 3.287
19.36000 1.201
19.38000 0.217
19.40000 -0.050
19.42000 0.951
19.44000 -3.147
19.46000 3.077
19.48000 11.737
19.50000 4.617
19.52000 -2.062
19.54000 2.353
19.56000 8.469
19.58000 1.057
19.60000 -4.291
19.62000 -3.302
19.64000 0.980
19.66000 9.307
19.68000 4.941
19.70000 2.523
19.72000 -3.558
19.74000 1.249
19.76000 0.240
19.78000 0.677
19.80000 2.442
19.82000 -2.970
19.84000 -1.697
19.86000 1.681
19.88000 5.808
19.90000 7.214
19.92000 8.185
19.94000 11.101
19.96000 8.082
19.98000 4.717
20.00000 -0.443
20.02000 -2.203
20.04000 2.384
20.06000 5.695
20.08000 3.411
20.10000 -4.020
20.12000 -0.540
20.14000 2.298
20.16000 5.831
20.18000 10.659
20.20000 7.381
20.22000 8.905
20.24000 9.769
20.26000 8.750
20.28000 9.581
20.30000 0.728
20.32000 9.086
20.34000 5.579
20.36000 -1.004
20.38000 -0.219
20.40000 2.925
20.42000 5.589
20.44000 8.367
20.46000 3.936
20.48000 0.504
20.50000 -0.192
20.52000 4.307
20.54000 7.928
20.56000 -0.793
20.58000 -4.215
20.60000 9.298
20.62000 11.598
20.64000 8.787
20.66000 8.191
20.68000 10.611
20.70000 8.185
20.72000 7.684
20.74000 7.112
20.76000 13.333
20.78000 15.827
20.80000 9.418
20.82000 8.287
20.84000 1.259
20.86000 7.195
20.88000 5.509
20.90000 -1.801
20.92000 -1.139
20.94000 6.538
20.96000 5.415
20.98000 10.246
21.00000 3.444
21.02000 6.106
21.04000 8.251
21.06000 7.030
21.08000 0.961
21.10000 5.606
21.12000 8.016
21.14000 0.438
21.16000 -1.519
21.18000 1.541
21.20000 -0.828
21.22000 0.460
21.24000 6.071
21.26000 9.343
21.28000 4.626
21.30000 4.485
21.32000 3.693
21.34000 1.145
21.36000 -1.409
21.38000 -3.816
21.40000 -3.671
21.42000 -0.635
21.44000 3.173
21.46000 2.239
21.48000 1.723
21.50000 11.402
21.52000 7.876
21.54000 2.209
21.56000 2.786
21.58000 2.614
21.60000 2.561
21.62000 6.866
21.64000 5.746
21.66000 4.010
21.68000 10.214
21.70000 2.388
21.72000 -3.766
21.74000 7.025
21.76000 3.688
21.78000 -0.164
21.80000 3.776
21.82000 6.269
21.84000 8.922
21.86000 9.691
21.88000 11.105
21.90000 8.053
21.92000 2.261
21.94000 2.846
21.96000 2.057
21.98000 0.247
22.00000 1.630
22.02000 8.595
22.04000 5.263
22.06000 2.457
22.08000 4.755
22.10000 16.620
22.12000 6.631
22.14000 0.030
22.16000 -0.400
22.18000 8.473
22.20000 7.465
22.22000 7.061
22.24000 8.473
22.26000 4.654
22.28000 3.956
22.30000 -4.114
22.32000 3.105
22.34000 2.964
22.36000 1.194
22.38000 3.318
22.40000 -1.106
22.42000 1.018
22.44000 4.698
22.46000 5.221
22.48000 7.653
22.50000 12.413
22.52000 19.846
22.54000 15.564
22.56000 7.033
22.58000 7.645
22.60000 10.436
22.62000 8.233
22.64000 10.747
22.66000 7.610
22.68000 1.193
22.70000 4.036
22.72000 7.501
22.74000 7.361
22.76000 1.070
22.78000 6.638
22.80000 8.823
22.82000 5.539
22.84000 1.710
22.86000 5.330
22.88000 3.845
22.90000 10.592
22.92000 15.889
22.94000 5.503
22.96000 5.045
22.98000 5.689
23.00000 2.203
23.02000 0.198
23.04000 -1.805
23.06000 -0.795
23.08000 1.449
23.10000 0.981
23.12000 1.763
23.14000 1.871
23.16000 4.206
23.18000 5.340
23.20000 5.938
23.22000 1.723
23.24000 3.676
23.26000 5.394
23.28000 7.963
23.30000 9.227
23.32000 9.689
23.34000 5.397
23.36000 -2.177
23.38000 -1.274
23.40000 2.549
23.42000 10.072
23.44000 12.143
23.46000 5.226
23.48000 1.521
23.50000 5.448
23.52000 4.622
23.54000 1.179
23.56000 3.151
23.58000 2.898
23.60000 4.261
23.62000 7.491
23.64000 6.727
23.66000 3.315
23.68000 4.563
23.70000 2.798
23.72000 0.087
23.74000 0.560
23.76000 3.718
23.78000 4.756
23.80000 5.703
23.82000 2.305
23.84000 -4.035
23.86000 1.235
23.88000 1.636
23.90000 -3.082
23.92000 1.610
23.94000 1.092
23.96000 3.243
23.98000 9.305
24.00000 11.748
24.02000 8.548
24.04000 6.172
24.06000 3.992
24.08000 3.797
24.10000 7.283
24.12000 10.516
24.14000 1.326
24.16000 0.163
24.18000 6.065
24.20000 3.545
24.22000 0.460
24.24000 1.148
24.26000 3.247
24.28000 1.497
24.30000 -1.565
24.32000 2.319
24.34000 3.729
24.36000 1.437
24.38000 0.039
24.40000 1.452
24.42000 6.962
24.44000 5.997
24.46000 5.229
24.48000 4.704
24.50000 2.090
24.52000 -0.876
24.54000 0.624
24.56000 -2.442
24.58000 4.928
24.60000 10.186
24.62000 5.110
24.64000 -3.987
24.66000 0.572
24.68000 8.263
24.70000 5.778
24.72000 1.840
24.74000 0.369
24.76000 6.801
24.78000 6.404
24.80000 1.962
24.82000 3.300
24.84000 2.219
24.86000 6.647
24.88000 9.006
24.90000 8.365
24.92000 0.966
24.94000 -0.836
24.96000 5.250
24.98000 7.810
25.00000 3.920
25.02000 -2.155
25.04000 -3.969
25.06000 -3.910
25.08000 2.332
25.10000 1.892
25.12000 3.254
25.14000 6.462
25.16000 6.842
25.18000 11.351
25.20000 10.903
25.22000 5.487
25.24000 10.072
25.26000 8.451
25.28000 3.318
25.30000 5.301
25.32000 3.073
25.34000 -1.771
25.36000 -1.193
25.38000 3.264
25.40000 6.386
25.42000 5.353
25.44000 3.407
25.46000 5.769
25.48000 0.534
25.50000 -2.602
25.52000 -3.227
25.54000 1.569
25.56000 5.229
25.58000 4.369
25.60000 4.139
25.62000 8.964
25.64000 5.819
25.66000 6.687
25.68000 0.246
25.70000 6.844
25.72000 4.562
25.74000 2.848
25.76000 5.349
25.78000 0.355
25.80000 3.542
25.82000 0.967
25.84000 -2.403
25.86000 -0.117
25.88000 4.787
25.90000 2.233
25.92000 1.999
25.94000 -1.664
25.96000 1.489
25.98000 4.715
26.00000 0.195
26.02000 0.721
26.04000 1.562
26.06000 2.451
26.08000 2.007
26.10000 1.101
26.12000 -0.692
26.14000 -0.571
26.16000 2.721
26.18000 8.677
26.20000 5.550
26.22000 -3.463
26.24000 -0.676
26.26000 -2.424
26.28000 -1.074
26.30000 3.820
26.32000 2.592
26.34000 -1.491
26.36000 4.846
26.38000 1.288
26.40000 0.025
26.42000 -0.929
26.44000 1.076
26.46000 -2.661
26.48000 -0.960
26.50000 4.723
26.52000 5.143
26.54000 6.084
26.56000 1.185
26.58000 -2.004
26.60000 2.582
26.62000 3.391
26.64000 2.771
26.66000 4.388
26.68000 -1.427
26.70000 2.104
26.72000 1.405
26.74000 2.008
26.76000 -1.699
26.78000 3.572
26.80000 5.789
26.82000 6.032
26.84000 2.053
26.86000 1.658
26.88000 -0.112
26.90000 1.144
26.92000 3.509
26.94000 8.074
26.96000 5.417
26.98000 -0.580
27.00000 3.816
27.02000 9.995
27.04000 6.939
27.06000 2.074
27.08000 -1.142
27.10000 -3.902
27.12000 -1.217
27.14000 -2.718
27.16000 -1.144
27.18000 0.911
27.20000 3.294
27.22000 3.516
27.24000 4.300
27.26000 5.361
27.28000 0.797
27.30000 5.612
27.32000 2.500
27.34000 -1.763
27.36000 -2.389
27.38000 1.447
27.40000 4.323
27.42000 -2.364
27.44000 -1.343
27.46000 4.994
27.48000 5.086
27.50000 4.865
27.52000 6.516
27.54000 1.849
27.56000 0.190
27.58000 1.737
27.60000 2.516
27.62000 1.904
27.64000 -2.894
27.66000 -1.784
27.68000 -1.197
27.70000 4.311
27.72000 4.779
27.74000 -1.154
27.76000 -3.858
27.78000 -2.172
27.80000 1.499
27.82000 3.857
27.84000 1.883
27.86000 -0.440
27.88000 0.215
27.90000 0.625
27.92000 1.509
27.94000 2.642
27.96000 3.602
27.98000 -0.237
28.00000 2.477
28.02000 8.243
28.04000 8.423
28.06000 5.624
28.08000 6.138
28.10000 8.755
28.12000 6.321
28.14000 4.776
28.16000 2.078
28.18000 3.098
28.20000 -2.139
28.22000 -0.752
28.24000 -3.818
28.26000 2.650
28.28000 6.518
28.30000 1.939
28.32000 2.185
28.34000 5.953
28.36000 5.149
28.38000 3.385
28.40000 4.210
28.42000 4.848
28.44000 6.624
28.46000 5.138
28.48000 3.489
28.50000 -0.838
28.52000 4.074
28.54000 6.809
28.56000 4.757
28.58000 2.584
28.60000 5.971
28.62000 9.262
28.64000 6.989
28.66000 4.980
28.68000 4.119
28.70000 3.746
28.72000 0.462
28.74000 4.330
28.76000 8.595
28.78000 12.168
28.80000 3.779
28.82000 -0.501
28.84000 5.306
28.86000 4.114
28.88000 1.312
28.90000 4.271
28.92000 6.838
28.94000 6.866
28.96000 5.370
28.98000 7.364
29.00000 6.384
29.02000 3.680
29.04000 0.095
29.06000 -2.386
29.08000 4.923
29.10000 5.724
29.12000 6.023
29.14000 0.894
29.16000 1.280
29.18000 2.653
29.20000 3.100
29.22000 4.631
29.24000 7.265
29.26000 2.817
29.28000 -1.595
29.30000 -3.764
29.32000 0.407
29.34000 5.162
29.36000 4.330
29.38000 3.737
29.40000 4.127
29.42000 -0.141
29.44000 -2.267
29.46000 3.581
29.48000 7.139
29.50000 5.020
29.52000 5.145
29.54000 3.608
29.56000 6.025
29.58000 3.652
29.60000 3.796
29.62000 2.667
29.64000 6.506
29.66000 6.788
29.68000 1.911
29.70000 1.400
29.72000 -0.100
29.74000 -1.130
29.76000 4.747
29.78000 6.127
29.80000 4.967
29.82000 7.467
29.84000 6.660
29.86000 3.674
29.88000 1.972
29.90000 1.679
29.92000 1.701
29.94000 0.620
29.96000 -2.924
29.98000 0.115
30.00000 5.340
30.02000 10.259
30.04000 10.787
30.06000 5.991
30.08000 2.457
30.10000 -2.150
30.12000 -0.390
30.14000 0.233
30.16000 2.249
30.18000 4.160
30.20000 4.475
30.22000 -0.066
30.24000 -1.435
30.26000 -0.609
30.28000 4.327
30.30000 3.881
30.32000 4.497
30.34000 3.837
30.36000 5.225
30.38000 3.237
30.40000 0.111
30.42000 7.803
30.44000 9.045
30.46000 6.231
30.48000 5.646
30.50000 4.526
30.52000 2.328
30.54000 -3.154
30.56000 -1.319
30.58000 5.009
30.60000 -2.159
30.62000 -3.706
30.64000 -1.826
30.66000 -1.489
30.68000 2.074
30.70000 6.007
30.72000 6.957
30.74000 4.326
30.76000 1.586
30.78000 1.241
30.80000 1.636
30.82000 -0.207
30.84000 1.881
30.86000 4.841
30.88000 9.133
30.90000 9.638
30.92000 10.505
30.94000 10.278
30.96000 7.761
30.98000 2.301
31.00000 2.234
31.02000 4.457
31.04000 5.580
31.06000 2.255
31.08000 -0.916
31.10000 2.047
31.12000 5.732
31.14000 5.531
31.16000 9.664
31.18000 3.619
31.20000 1.117
31.22000 1.464
31.24000 -0.252
31.26000 1.715
31.28000 -1.224
31.30000 0.755
31.32000 1.495
31.34000 0.879
31.36000 -2.562
31.38000 -3.681
31.40000 1.247
31.42000 5.542
31.44000 2.766
31.46000 -1.850
31.48000 4.790
31.50000 10.318
31.52000 4.544
31.54000 5.189
31.56000 6.422
31.58000 3.173
31.60000 2.979
31.62000 5.666
31.64000 3.522
31.66000 0.777
31.68000 2.128
31.70000 2.942
31.72000 -1.028
31.74000 0.729
31.76000 2.289
31.78000 0.216
31.80000 0.102
31.82000 9.233
31.84000 5.761
31.86000 3.287
31.88000 2.620
31.90000 1.798
31.92000 3.313
31.94000 -2.819
31.96000 4.309
31.98000 3.949
32.00000 6.872
32.02000 6.060
32.04000 2.032
32.06000 -2.097
32.08000 0.562
32.10000 3.914
32.12000 3.237
32.14000 2.605
32.16000 3.406
32.18000 3.677
32.20000 3.419
32.22000 8.104
32.24000 3.068
32.26000 2.216
32.28000 7.524
32.30000 2.697
32.32000 -3.642
32.34000 -0.168
32.36000 -0.229
32.38000 0.845
32.40000 3.474
32.42000 6.836
32.44000 4.577
32.46000 2.381
32.48000 3.515
32.50000 6.991
32.52000 4.276
32.54000 0.722
32.56000 6.632
32.58000 4.469
32.60000 1.710
32.62000 1.452
32.64000 2.019
32.66000 3.807
32.68000 7.769
32.70000 7.592
32.72000 5.095
32.74000 3.884
32.76000 1.394
32.78000 9.115
32.80000 9.359
32.82000 9.033
32.84000 11.946
32.86000 5.153
32.88000 3.111
32.90000 5.600
32.92000 5.532
32.94000 7.254
32.96000 1.363
32.98000 -0.850
33.00000 -3.628
33.02000 2.944
33.04000 7.734
33.06000 3.788
33.08000 3.500
33.10000 7.422
33.12000 2.685
33.14000 1.764
33.16000 2.264
33.18000 6.321
33.20000 2.874
33.22000 1.271
33.24000 3.113
33.26000 4.905
33.28000 3.686
33.30000 1.696
33.32000 1.962
33.34000 4.449
33.36000 8.120
33.38000 5.904
33.40000 4.206
33.42000 4.873
33.44000 4.462
33.46000 6.098
33.48000 5.287
33.50000 4.478
33.52000 10.834
33.54000 10.079
33.56000 7.855
33.58000 7.525
33.60000 6.601
33.62000 -1.898
33.64000 2.141
33.66000 4.518
33.68000 3.684
33.70000 5.678
33.72000 8.331
33.74000 2.213
33.76000 5.148
33.78000 7.704
33.80000 3.327
33.82000 4.635
33.84000 2.697
33.86000 8.374
33.88000 6.433
33.90000 7.166
33.92000 3.500
33.94000 6.197
33.96000 6.471
33.98000 3.418
34.00000 5.057
34.02000 3.699
34.04000 2.490
34.06000 3.622
34.08000 3.845
34.10000 5.908
34.12000 8.855
34.14000 8.552
34.16000 4.187
34.18000 6.593
34.20000 4.938
34.22000 -3.448
34.24000 -0.970
34.26000 0.961
34.28000 0.340
34.30000 -0.356
34.32000 2.560
34.34000 0.761
34.36000 6.346
34.38000 5.756
34.40000 5.024
34.42000 9.884
34.44000 7.790
34.46000 3.424
34.48000 3.525
34.50000 7.998
34.52000 3.640
34.54000 -0.286
34.56000 3.796
34.58000 3.746
34.60000 -0.861
34.62000 -2.554
34.64000 1.150
34.66000 5.234
34.68000 5.389
34.70000 8.040
34.72000 5.117
34.74000 3.989
34.76000 4.634
34.78000 1.777
34.80000 6.443
34.82000 6.974
34.84000 7.966
34.86000 0.568
34.88000 2.224
34.90000 9.519
34.92000 5.026
34.94000 -3.603
34.96000 2.766
34.98000 2.816
35.00000 2.636
35.02000 6.472
35.04000 10.693
35.06000 6.679
35.08000 6.678
35.10000 5.309
35.12000 3.693
35.14000 9.444
35.16000 5.774
35.18000 3.480
35.20000 7.259
35.22000 2.139
35.24000 0.371
35.26000 5.314
35.28000 4.948
35.30000 -0.013
35.32000 4.766
35.34000 11.608
35.36000 11.210
35.38000 5.078
35.40000 2.027
35.42000 1.680
35.44000 2.510
35.46000 -3.613
35.48000 1.794
35.50000 0.423
35.52000 -0.345
35.54000 3.915
35.56000 7.634
35.58000 4.484
35.60000 6.636
35.62000 6.661
35.64000 5.882
35.66000 2.975
35.68000 3.708
35.70000 1.455
35.72000 5.732
35.74000 4.482
35.76000 7.323
35.78000 1.009
35.80000 -3.093
35.82000 -3.628
35.84000 1.545
35.86000 2.681
35.88000 -0.389
35.90000 5.009
35.92000 5.994
35.94000 4.493
35.96000 0.914
35.98000 3.572
36.00000 5.844
36.02000 1.756
36.04000 -3.319
36.06000 -0.911
36.08000 3.028
36.10000 2.001
36.12000 1.991
36.14000 1.915
36.16000 5.300
36.18000 6.583
36.20000 5.863
36.22000 4.444
36.24000 -0.677
36.26000 5.133
36.28000 2.228
36.30000 2.325
36.32000 4.763
36.34000 2.840
36.36000 -1.716
36.38000 4.135
36.40000 8.076
36.42000 5.431
36.44000 0.710
36.46000 5.679
36.48000 6.277
36.50000 4.062
36.52000 4.520
36.54000 7.675
36.56000 4.910
36.58000 3.700
36.60000 4.048
36.62000 3.213
36.64000 2.804
36.66000 7.452
36.68000 8.708
36.70000 8.759
36.72000 8.430
36.74000 8.487
36.76000 10.568
36.78000 8.336
36.80000 3.572
36.82000 2.618
36.84000 4.018
36.86000 5.533
36.88000 10.067
36.90000 13.036
36.92000 7.069
36.94000 2.954
36.96000 6.261
36.98000 8.700
37.00000 8.267
37.02000 11.078
37.04000 10.682
37.06000 7.777
37.08000 9.192
37.10000 14.592
37.12000 14.746
37.14000 15.032
37.16000 13.426
37.18000 9.389
37.20000 5.646
37.22000 9.429
37.24000 9.598
37.26000 9.751
37.28000 11.464
37.30000 5.942
37.32000 9.753
37.34000 14.494
37.36000 15.009
37.38000 13.126
37.40000 13.228
37.42000 11.081
37.44000 15.060
37.46000 18.828
37.48000 19.949
37.50000 18.353
37.52000 15.223
37.54000 17.245
37.56000 16.378
37.58000 19.595
37.60000 18.573
37.62000 16.903
37.64000 17.645
37.66000 16.456
37.68000 14.826
37.70000 20.413
37.72000 25.319
37.74000 25.992
37.76000 26.402
37.78000 27.430
37.80000 23.628
37.82000 21.738
37.84000 27.791
37.86000 29.125
37.88000 28.351
37.90000 27.342
37.92000 32.002
37.94000 34.667
37.96000 36.007
37.98000 32.262
38.00000 37.787
38.02000 35.476
38.04000 34.926
38.06000 40.222
38.08000 38.144
38.10000 40.248
38.12000 44.754
38.14000 47.047
38.16000 46.158
38.18000 47.506
38.20000 47.015
38.22000 47.127
38.24000 48.411
38.26000 50.577
38.28000 52.412
38.30000 58.865
38.32000 65.343
38.34000 67.752
38.36000 74.004
38.38000 70.863
38.40000 70.131
38.42000 75.505
38.44000 87.039
38.46000 87.898
38.48000 89.473
38.50000 86.314
38.52000 91.173
38.54000 105.875
38.56000 107.480
38.58000 113.221
38.60000 122.155
38.62000 123.662
38.64000 135.658
38.66000 141.203
38.68000 146.279
38.70000 150.130
38.72000 160.607
38.74000 173.433
38.76000 182.137
38.78000 190.170
38.80000 199.699
38.82000 212.690
38.84000 227.841
38.86000 235.696
38.88000 245.145
38.90000 272.938
38.92000 287.102
38.94000 294.726
38.96000 305.087
38.98000 312.616
39.00000 321.995
39.02000 338.545
39.04000 350.270
39.06000 362.221
39.08000 368.667
39.10000 382.571
39.12000 389.415
39.14000 391.146
39.16000 388.346
39.18000 379.670
39.20000 384.873
39.22000 391.033
39.24000 386.216
39.26000 378.734
39.28000 369.119
39.30000 357.499
39.32000 348.692
39.34000 343.186
39.36000 332.524
39.38000 318.144
39.40000 306.407
39.42000 292.162
39.44000 273.089
39.46000 261.045
39.48000 255.477
39.50000 244.088
39.52000 231.954
39.54000 221.425
39.56000 208.625
39.58000 191.638
39.60000 187.505
39.62000 179.074
39.64000 162.404
39.66000 152.583
39.68000 134.461
39.70000 128.673
39.72000 123.077
39.74000 116.515
39.76000 105.476
39.78000 103.140
39.80000 95.259
39.82000 90.846
39.84000 83.778
39.86000 82.376
39.88000 78.603
39.90000 73.514
39.92000 70.135
39.94000 66.592
39.96000 62.874
39.98000 54.155
40.00000 50.119
40.02000 50.356
40.04000 49.763
40.06000 50.198
40.08000 46.826
40.10000 43.476
40.12000 39.572
40.14000 38.637
40.16000 38.158
40.18000 36.214
40.20000 35.631
40.22000 31.643
40.24000 31.106
40.26000 32.684
40.28000 32.585
40.30000 31.353
40.32000 27.798
40.34000 24.884
40.36000 24.948
40.38000 23.343
40.40000 23.622
40.42000 22.877
40.44000 23.489
40.46000 17.545
40.48000 19.301
40.50000 20.307
40.52000 21.931
40.54000 17.352
40.56000 18.840
40.58000 19.489
40.60000 13.844
40.62000 13.435
40.64000 16.879
40.66000 17.492
40.68000 16.619
40.70000 17.880
40.72000 15.694
40.74000 14.959
40.76000 11.447
40.78000 11.294
40.80000 13.541
40.82000 9.679
40.84000 6.534
40.86000 8.215
40.88000 11.665
40.90000 10.055
40.92000 7.992
40.94000 9.877
40.96000 11.839
40.98000 11.411
41.00000 9.826
41.02000 6.288
41.04000 8.467
41.06000 5.940
41.08000 6.840
41.10000 2.946
41.12000 5.568
41.14000 6.285
41.16000 3.738
41.18000 9.250
41.20000 3.703
41.22000 4.159
41.24000 5.246
41.26000 7.950
41.28000 4.768
41.30000 2.166
41.32000 2.815
41.34000 5.151
41.36000 5.223
41.38000 2.703
41.40000 1.824
41.42000 5.178
41.44000 4.533
41.46000 5.576
41.48000 4.752
41.50000 4.907
41.52000 2.848
41.54000 4.500
41.56000 3.814
41.58000 0.716
41.60000 1.049
41.62000 1.422
41.64000 2.378
41.66000 4.636
41.68000 1.144
41.70000 -3.417
41.72000 1.706
41.74000 8.455
41.76000 2.801
41.78000 0.279
41.80000 -0.011
41.82000 0.843
41.84000 4.033
41.86000 3.289
41.88000 -0.651
41.90000 0.340
41.92000 -0.388
41.94000 0.219
41.96000 0.186
41.98000 -0.151
42.00000 2.060
42.02000 5.118
42.04000 5.886
42.06000 3.957
42.08000 1.102
42.10000 -2.261
42.12000 0.187
42.14000 7.034
42.16000 4.145
42.18000 0.460
42.20000 -0.815
42.22000 -0.275
42.24000 -1.781
42.26000 -1.560
42.28000 -0.659
42.30000 1.427
42.32000 -3.342
42.34000 -1.037
42.36000 1.595
42.38000 3.179
42.40000 2.259
42.42000 2.385
42.44000 -0.214
42.46000 1.235
42.48000 -0.266
42.50000 -3.120
42.52000 0.239
42.54000 1.665
42.56000 2.939
42.58000 -1.654
42.60000 -2.643
42.62000 -1.261
42.64000 0.026
42.66000 -0.756
42.68000 0.970
42.70000 0.464
42.72000 -3.136
42.74000 -3.297
42.76000 -1.949
42.78000 -0.992
42.80000 0.651
42.82000 0.124
42.84000 0.312
42.86000 0.620
42.88000 -1.697
42.90000 0.636
42.92000 4.021
42.94000 -1.784
42.96000 -0.116
42.98000 4.654
43.00000 3.041
43.02000 -1.636
43.04000 -0.032
43.06000 1.247
43.08000 3.705
43.10000 1.027
43.12000 0.990
43.14000 0.080
43.16000 -0.270
43.18000 -2.674
43.20000 -2.753
43.22000 -2.707
43.24000 -0.059
43.26000 -0.170
43.28000 -1.555
43.30000 -1.016
43.32000 2.795
43.34000 0.039
43.36000 -0.319
43.38000 1.683
43.40000 -1.406
43.42000 0.775
43.44000 3.036
43.46000 1.230
43.48000 2.061
43.50000 0.509
43.52000 1.921
43.54000 0.577
43.56000 -0.630
43.58000 -3.224
43.60000 0.062
43.62000 3.641
43.64000 4.160
43.66000 2.638
43.68000 0.415
43.70000 -0.906
43.72000 -0.043
43.74000 -0.991
43.76000 -2.603
43.78000 -1.705
43.80000 0.760
43.82000 1.029
43.84000 -0.439
43.86000 -1.399
43.88000 -2.622
43.90000 -1.993
43.92000 -3.029
43.94000 1.352
43.96000 3.969
43.98000 0.936
44.00000 1.539
44.02000 0.873
44.04000 1.557
44.06000 3.369
44.08000 -0.626
44.10000 -3.199
44.12000 -1.332
44.14000 0.703
44.16000 3.620
44.18000 5.192
44.20000 2.647
44.22000 6.105
44.24000 1.936
44.26000 -1.523
44.28000 1.952
44.30000 4.056
44.32000 6.857
44.34000 7.954
44.36000 4.435
44.38000 5.163
44.40000 3.353
44.42000 5.618
44.44000 7.226
44.46000 5.365
44.48000 10.937
44.50000 13.577
44.52000 9.555
44.54000 9.275
44.56000 7.165
44.58000 6.831
44.60000 7.097
44.62000 7.707
44.64000 12.125
44.66000 9.282
44.68000 8.755
44.70000 11.396
44.72000 14.173
44.74000 14.032
44.76000 17.446
44.78000 11.783
44.80000 8.529
44.82000 11.315
44.84000 16.680
44.86000 16.339
44.88000 14.194
44.90000 18.766
44.92000 20.492
44.94000 24.793
44.96000 21.483
44.98000 22.345
45.00000 24.151
45.02000 24.293
45.04000 25.158
45.06000 23.500
45.08000 30.216
45.10000 33.274
45.12000 32.873
45.14000 33.289
45.16000 37.273
45.18000 39.913
45.20000 38.530
45.22000 38.239
45.24000 39.524
45.26000 45.180
45.28000 46.429
45.30000 49.601
45.32000 52.940
45.34000 54.729
45.36000 56.598
45.38000 56.298
45.40000 54.052
45.42000 56.121
45.44000 62.575
45.46000 64.068
45.48000 66.632
45.50000 67.770
45.52000 73.071
45.54000 70.003
45.56000 77.429
45.58000 81.844
45.60000 83.800
45.62000 81.376
45.64000 80.520
45.66000 80.850
45.68000 79.332
45.70000 83.237
45.72000 80.695
45.74000 86.133
45.76000 89.843
45.78000 87.144
45.80000 86.590
45.82000 87.196
45.84000 92.238
45.86000 88.318
45.88000 84.972
45.90000 82.813
45.92000 83.863
45.94000 78.105
45.96000 76.550
45.98000 79.288
46.00000 74.607
46.02000 73.647
46.04000 71.152
46.06000 67.051
46.08000 64.950
46.10000 66.178
46.12000 60.422
46.14000 57.804
46.16000 59.318
46.18000 56.154
46.20000 53.884
46.22000 49.120
46.24000 45.742
46.26000 45.167
46.28000 42.857
46.30000 40.869
46.32000 37.862
46.34000 34.493
46.36000 34.785
46.38000 33.930
46.40000 32.758
46.42000 30.475
46.44000 29.536
46.46000 25.895
46.48000 24.204
46.50000 22.505
46.52000 21.975
46.54000 21.818
46.56000 17.405
46.58000 15.536
46.60000 16.787
46.62000 15.558
46.64000 16.161
46.66000 12.888
46.68000 10.136
46.70000 8.287
46.72000 8.520
46.74000 10.688
46.76000 11.565
46.78000 9.673
46.80000 10.019
46.82000 7.372
46.84000 7.786
46.86000 7.274
46.88000 9.807
46.90000 8.653
46.92000 11.464
46.94000 7.436
46.96000 0.105
46.98000 0.956
47.00000 2.201
47.02000 3.109
47.04000 5.251
47.06000 4.207
47.08000 3.910
47.10000 0.600
47.12000 -2.848
47.14000 -0.253
47.16000 4.878
47.18000 5.119
47.20000 -0.073
47.22000 0.710
47.24000 0.375
47.26000 -0.273
47.28000 1.421
47.30000 1.382
47.32000 6.400
47.34000 7.251
47.36000 6.681
47.38000 4.426
47.40000 5.708
47.42000 6.723
47.44000 7.679
47.46000 3.154
47.48000 4.527
47.50000 3.879
47.52000 4.302
47.54000 4.170
47.56000 4.906
47.58000 1.678
47.60000 -2.198
47.62000 -2.779
47.64000 0.317
47.66000 0.910
47.68000 0.665
47.70000 -0.361
47.72000 2.169
47.74000 2.721
47.76000 3.763
47.78000 0.837
47.80000 2.315
47.82000 0.168
47.84000 1.033
47.86000 2.773
47.88000 5.039
47.90000 2.748
47.92000 -0.435
47.94000 -0.416
47.96000 2.988
47.98000 3.470
48.00000 4.156
48.02000 1.526
48.04000 1.621
48.06000 2.822
48.08000 1.463
48.10000 -1.405
48.12000 -2.079
48.14000 1.921
48.16000 2.497
48.18000 -0.253
48.20000 3.165
48.22000 0.804
48.24000 3.805
48.26000 0.056
48.28000 -0.632
48.30000 -0.956
48.32000 0.097
48.34000 -1.786
48.36000 -0.177
48.38000 5.013
48.40000 1.266
48.42000 0.587
48.44000 -0.506
48.46000 -0.634
48.48000 -0.444
48.50000 0.248
48.52000 3.891
48.54000 6.945
48.56000 5.328
48.58000 5.659
48.60000 5.208
48.62000 1.088
48.64000 0.817
48.66000 3.903
48.68000 7.555
48.70000 5.935
48.72000 2.079
48.74000 2.657
48.76000 3.967
48.78000 5.888
48.80000 4.157
48.82000 3.710
48.84000 4.945
48.86000 -2.625
48.88000 -0.508
48.90000 0.389
48.92000 1.193
48.94000 -0.026
48.96000 -2.550
48.98000 -0.870
49.00000 1.873
49.02000 3.296
49.04000 0.952
49.06000 1.069
49.08000 1.816
49.10000 3.619
49.12000 2.188
49.14000 2.526
49.16000 -0.648
49.18000 2.093
49.20000 2.142
49.22000 5.220
49.24000 6.625
49.26000 5.325
49.28000 2.099
49.30000 5.024
49.32000 4.946
49.34000 4.003
49.36000 5.623
49.38000 5.441
49.40000 5.098
49.42000 3.779
49.44000 3.104
49.46000 6.849
49.48000 3.799
49.50000 6.421
49.52000 5.303
49.54000 1.945
49.56000 -0.429
49.58000 2.016
49.60000 4.117
49.62000 3.657
49.64000 3.910
49.66000 2.075
49.68000 -0.526
49.70000 2.633
49.72000 1.606
49.74000 0.583
49.76000 -1.082
49.78000 -1.518
49.80000 0.447
49.82000 2.899
49.84000 3.456
49.86000 5.983
49.88000 6.952
49.90000 4.784
49.92000 3.263
49.94000 1.857
49.96000 2.493
49.98000 5.832
50.00000 5.309
50.02000 1.147
50.04000 -1.760
50.06000 -2.382
50.08000 1.983
50.10000 2.137
50.12000 4.168
50.14000 5.386
50.16000 3.139
50.18000 2.674
50.20000 4.629
50.22000 1.162
50.24000 3.508
50.26000 1.356
50.28000 0.217
50.30000 2.030
50.32000 2.470
50.34000 1.055
50.36000 3.643
50.38000 0.254
50.40000 1.355
50.42000 5.697
50.44000 5.899
50.46000 3.564
50.48000 4.067
50.50000 4.638
50.52000 3.581
50.54000 6.378
50.56000 2.580
50.58000 1.048
50.60000 2.118
50.62000 6.035
50.64000 4.039
50.66000 7.162
50.68000 5.760
50.70000 -0.031
50.72000 -2.544
50.74000 -0.787
50.76000 1.011
50.78000 1.984
50.80000 4.657
50.82000 3.013
50.84000 0.160
50.86000 2.869
50.88000 3.400
50.90000 1.891
50.92000 -1.400
50.94000 -1.507
50.96000 2.225
50.98000 4.335
51.00000 4.494
51.02000 6.048
51.04000 7.597
51.06000 6.202
51.08000 -0.129
51.10000 6.437
51.12000 9.003
51.14000 6.076
51.16000 3.980
51.18000 4.579
51.20000 6.084
51.22000 6.423
51.24000 3.861
51.26000 1.336
51.28000 3.142
51.30000 7.034
51.32000 3.928
51.34000 2.623
51.36000 1.175
51.38000 4.612
51.40000 2.940
51.42000 2.574
51.44000 4.384
51.46000 4.513
51.48000 0.797
51.50000 1.537
51.52000 2.731
51.54000 1.228
51.56000 2.876
51.58000 3.660
51.60000 3.385
51.62000 4.315
51.64000 5.897
51.66000 5.009
51.68000 3.716
51.70000 5.604
51.72000 -0.659
51.74000 -1.247
51.76000 1.906
51.78000 5.891
51.80000 3.822
51.82000 4.220
51.84000 3.310
51.86000 3.490
51.88000 4.347
51.90000 3.894
51.92000 3.564
51.94000 4.596
51.96000 8.640
51.98000 8.549
52.00000 6.312
52.02000 4.851
52.04000 1.675
52.06000 0.108
52.08000 2.208
52.10000 2.072
52.12000 2.182
52.14000 4.800
52.16000 7.542
52.18000 7.013
52.20000 7.870
52.22000 3.351
52.24000 5.168
52.26000 2.638
52.28000 1.467
52.30000 6.477
52.32000 3.646
52.34000 1.692
52.36000 2.562
52.38000 6.206
52.40000 5.090
52.42000 6.700
52.44000 3.732
52.46000 -2.479
52.48000 0.971
52.50000 2.373
52.52000 2.912
52.54000 3.153
52.56000 4.566
52.58000 5.278
52.60000 3.184
52.62000 5.597
52.64000 5.103
52.66000 3.480
52.68000 6.818
52.70000 10.782
52.72000 3.504
52.74000 2.576
52.76000 5.854
52.78000 0.880
52.80000 0.380
52.82000 0.448
52.84000 4.749
52.86000 3.277
52.88000 5.047
52.90000 3.316
52.92000 -0.282
52.94000 0.025
52.96000 0.384
52.98000 0.822
53.00000 3.565
53.02000 -0.074
53.04000 -1.456
53.06000 -1.186
53.08000 0.315
53.10000 2.386
53.12000 3.437
53.14000 5.350
53.16000 5.203
53.18000 3.344
53.20000 2.124
53.22000 5.652
53.24000 6.158
53.26000 1.898
53.28000 -1.771
53.30000 0.651
53.32000 0.639
53.34000 1.787
53.36000 6.957
53.38000 1.148
53.40000 -0.641
53.42000 0.037
53.44000 1.557
53.46000 2.632
53.48000 1.587
53.50000 -0.952
53.52000 0.561
53.54000 0.871
53.56000 0.188
53.58000 2.996
53.60000 -0.146
53.62000 3.612
53.64000 2.697
53.66000 -1.300
53.68000 -0.030
53.70000 1.925
53.72000 -0.472
53.74000 -1.354
53.76000 0.864
53.78000 1.211
53.80000 -0.236
53.82000 5.169
53.84000 3.697
53.86000 -0.082
53.88000 0.592
53.90000 2.136
53.92000 3.576
53.94000 2.010
53.96000 -0.713
53.98000 3.196
54.00000 5.113
54.02000 2.436
54.04000 1.984
54.06000 2.708
54.08000 1.977
54.10000 0.624
54.12000 -1.954
54.14000 2.750
54.16000 1.173
54.18000 -1.102
54.20000 -0.309
54.22000 0.767
54.24000 0.153
54.26000 1.246
54.28000 1.432
54.30000 3.221
54.32000 6.473
54.34000 4.845
54.36000 0.025
54.38000 1.772
54.40000 2.522
54.42000 0.416
54.44000 0.858
54.46000 1.612
54.48000 1.892
54.50000 1.898
54.52000 3.026
54.54000 5.489
54.56000 5.064
54.58000 5.011
54.60000 2.787
54.62000 3.807
54.64000 1.650
54.66000 -2.474
54.68000 -1.272
54.70000 2.744
54.72000 4.692
54.74000 3.277
54.76000 1.566
54.78000 -0.340
54.80000 2.634
54.82000 3.748
54.84000 5.275
54.86000 4.454
54.88000 4.821
54.90000 3.666
54.92000 2.687
54.94000 5.747
54.96000 4.804
54.98000 2.176
55.00000 0.801
55.02000 1.561
55.04000 1.930
55.06000 1.066
55.08000 -2.095
55.10000 -1.113
55.12000 -1.138
55.14000 -2.454
55.16000 0.310
55.18000 0.768
55.20000 2.435
55.22000 0.263
55.24000 1.659
55.26000 3.950
55.28000 2.284
55.30000 3.150
55.32000 3.914
55.34000 1.635
55.36000 0.125
55.38000 4.380
55.40000 2.878
55.42000 5.080
55.44000 -0.923
55.46000 3.427
55.48000 2.052
55.50000 0.612
55.52000 -0.553
55.54000 -2.455
55.56000 0.863
55.58000 0.595
55.60000 -0.008
55.62000 0.566
55.64000 4.386
55.66000 5.265
55.68000 2.179
55.70000 3.401
55.72000 -0.939
55.74000 -0.421
55.76000 -0.799
55.78000 -2.186
55.80000 -1.872
55.82000 1.239
55.84000 3.777
55.86000 -0.684
55.88000 0.963
55.90000 0.405
55.92000 0.928
55.94000 1.437
55.96000 2.756
55.98000 2.404
56.00000 4.212
56.02000 5.630
56.04000 4.935
56.06000 4.339
56.08000 4.504
56.10000 2.424
56.12000 0.544
56.14000 -2.399
56.16000 0.236
56.18000 1.657
56.20000 2.472
56.22000 2.597
56.24000 3.478
56.26000 3.771
56.28000 2.606
56.30000 4.150
56.32000 3.547
56.34000 1.376
56.36000 1.147
56.38000 2.388
56.40000 -0.570
56.42000 -0.492
56.44000 3.208
56.46000 1.143
56.48000 -2.444
56.50000 -0.279
56.52000 -0.967
56.54000 -2.205
56.56000 0.003
56.58000 1.597
56.60000 0.548
56.62000 1.420
56.64000 3.953
56.66000 5.246
56.68000 3.134
56.70000 0.960
56.72000 1.985
56.74000 -0.221
56.76000 1.299
56.78000 0.174
56.80000 1.771
56.82000 2.346
56.84000 0.170
56.86000 -0.428
56.88000 0.770
56.90000 2.406
56.92000 3.141
56.94000 0.927
56.96000 -0.766
56.98000 -1.560
57.00000 0.119
57.02000 4.365
57.04000 1.679
57.06000 0.435
57.08000 3.183
57.10000 1.803
57.12000 1.497
57.14000 0.819
57.16000 -0.796
57.18000 1.843
57.20000 1.602
57.22000 4.797
57.24000 4.980
57.26000 5.014
57.28000 5.037
57.30000 4.086
57.32000 2.513
57.34000 0.973
57.36000 2.314
57.38000 -1.069
57.40000 -0.163
57.42000 3.979
57.44000 2.884
57.46000 0.527
57.48000 1.404
57.50000 0.770
57.52000 0.478
57.54000 5.067
57.56000 2.494
57.58000 1.100
57.60000 0.730
57.62000 0.876
57.64000 2.132
57.66000 2.106
57.68000 4.540
57.70000 3.930
57.72000 6.078
57.74000 2.223
57.76000 -0.151
57.78000 -1.182
57.80000 -1.626
57.82000 1.337
57.84000 3.696
57.86000 8.426
57.88000 7.306
57.90000 4.175
57.92000 4.409
57.94000 4.181
57.96000 3.820
57.98000 4.342
58.00000 0.911
58.02000 5.138
58.04000 3.178
58.06000 -2.349
58.08000 2.726
58.10000 4.820
58.12000 3.799
58.14000 3.788
58.16000 4.627
58.18000 4.340
58.20000 6.081
58.22000 3.170
58.24000 6.725
58.26000 5.854
58.28000 4.041
58.30000 -1.275
58.32000 0.500
58.34000 4.713
58.36000 5.698
58.38000 4.265
58.40000 3.471
58.42000 4.033
58.44000 4.479
58.46000 4.821
58.48000 5.642
58.50000 5.217
58.52000 2.887
58.54000 2.773
58.56000 5.496
58.58000 1.312
58.60000 0.117
58.62000 5.452
58.64000 6.363
58.66000 4.715
58.68000 3.588
58.70000 1.889
58.72000 1.699
58.74000 6.302
58.76000 1.234
58.78000 0.150
58.80000 2.669
58.82000 3.980
58.84000 5.347
58.86000 3.342
58.88000 1.416
58.90000 2.994
58.92000 4.870
58.94000 1.622
58.96000 -2.335
58.98000 1.942
59.00000 1.259
59.02000 2.043
59.04000 4.004
59.06000 6.782
59.08000 7.831
59.10000 5.959
59.12000 3.568
59.14000 3.022
59.16000 3.666
59.18000 4.375
59.20000 1.882
59.22000 1.730
59.24000 0.657
59.26000 1.345
59.28000 2.832
59.30000 3.128
59.32000 4.199
59.34000 0.451
59.36000 -0.339
59.38000 1.784
59.40000 6.333
59.42000 5.107
59.44000 6.695
59.46000 4.083
59.48000 4.256
59.50000 6.736
59.52000 2.991
59.54000 3.431
59.56000 3.139
59.58000 2.020
59.60000 4.773
59.62000 5.785
59.64000 3.267
59.66000 1.053
59.68000 3.010
59.70000 2.550
59.72000 2.872
59.74000 0.343
59.76000 0.836
59.78000 1.064
59.80000 2.142
59.82000 3.027
59.84000 2.432
59.86000 1.568
59.88000 -1.295
59.90000 0.401
59.92000 2.851
59.94000 3.192
59.96000 5.168
59.98000 5.500
60.00000 4.423
60.02000 2.327
60.04000 0.775
60.06000 2.615
60.08000 3.225
60.10000 1.641
60.12000 0.722
60.14000 -2.290
60.16000 -1.254
60.18000 1.728
60.20000 3.475
60.22000 6.430
60.24000 6.085
60.26000 4.403
60.28000 6.624
60.30000 5.631
60.32000 4.420
60.34000 3.139
60.36000 2.105
60.38000 1.597
60.40000 2.384
60.42000 2.740
60.44000 2.620
60.46000 0.786
60.48000 0.757
60.50000 1.155
60.52000 0.604
60.54000 2.308
60.56000 2.874
60.58000 1.963
60.60000 4.340
60.62000 4.374
60.64000 1.521
60.66000 2.198
60.68000 2.971
60.70000 1.932
60.72000 3.646
60.74000 6.355
60.76000 4.647
60.78000 3.465
60.80000 1.940
60.82000 1.515
60.84000 1.852
60.86000 -1.699
60.88000 -1.147
60.90000 3.302
60.92000 3.637
60.94000 3.936
60.96000 -0.039
60.98000 -1.162
61.00000 0.916
61.02000 3.314
61.04000 4.540
61.06000 3.680
61.08000 1.662
61.10000 0.343
61.12000 2.990
61.14000 0.683
61.16000 2.050
61.18000 3.169
61.20000 3.188
61.22000 3.591
61.24000 3.910
61.26000 2.521
61.28000 3.722
61.30000 2.524
61.32000 0.614
61.34000 -0.663
61.36000 -1.922
61.38000 -1.498
61.40000 0.967
61.42000 1.133
61.44000 1.756
61.46000 0.823
61.48000 2.583
61.50000 2.077
61.52000 3.933
61.54000 3.558
61.56000 1.378
61.58000 4.705
61.60000 4.207
61.62000 2.764
61.64000 3.516
61.66000 1.275
61.68000 2.456
61.70000 0.924
61.72000 3.232
61.74000 0.463
61.76000 -2.248
61.78000 3.004
61.80000 6.203
61.82000 3.594
61.84000 1.513
61.86000 2.745
61.88000 2.498
61.90000 3.262
61.92000 2.311
61.94000 2.285
61.96000 5.112
61.98000 7.825
62.00000 5.379
62.02000 2.527
62.04000 2.443
62.06000 0.656
62.08000 4.787
62.10000 5.415
62.12000 4.180
62.14000 7.003
62.16000 2.855
62.18000 -2.240
62.20000 1.877
62.22000 3.310
62.24000 4.483
62.26000 1.272
62.28000 0.969
62.30000 0.434
62.32000 -1.275
62.34000 2.848
62.36000 2.128
62.38000 -1.037
62.40000 -0.229
62.42000 1.775
62.44000 1.870
62.46000 -0.219
62.48000 0.663
62.50000 3.136
62.52000 5.147
62.54000 1.853
62.56000 4.772
62.58000 6.209
62.60000 2.843
62.62000 0.011
62.64000 1.761
62.66000 2.344
62.68000 0.680
62.70000 0.733
62.72000 1.175
62.74000 0.010
62.76000 -0.470
62.78000 2.196
62.80000 4.623
62.82000 2.197
62.84000 0.646
62.86000 -0.086
62.88000 3.017
62.90000 4.658
62.92000 2.039
62.94000 2.285
62.96000 2.020
62.98000 4.113
63.00000 3.050
63.02000 1.082
63.04000 3.667
63.06000 3.760
63.08000 3.776
63.10000 3.343
63.12000 5.282
63.14000 4.002
63.16000 3.314
63.18000 4.322
63.20000 0.570
63.22000 -2.228
63.24000 -1.606
63.26000 0.727
63.28000 1.761
63.30000 2.229
63.32000 2.838
63.34000 3.794
63.36000 4.092
63.38000 4.141
63.40000 3.513
63.42000 1.475
63.44000 3.193
63.46000 3.299
63.48000 2.822
63.50000 1.740
63.52000 2.902
63.54000 4.705
63.56000 5.235
63.58000 1.672
63.60000 -2.221
63.62000 -1.339
63.64000 1.304
63.66000 1.205
63.68000 0.340
63.70000 -0.062
63.72000 1.281
63.74000 0.920
63.76000 -0.720
63.78000 -2.217
63.80000 1.222
63.82000 3.959
63.84000 4.172
63.86000 4.843
63.88000 5.515
63.90000 1.469
63.92000 -0.724
63.94000 -0.291
63.96000 -0.434
63.98000 1.884
64.00000 3.897
64.02000 1.035
64.04000 0.267
64.06000 2.886
64.08000 4.107
64.10000 6.234
64.12000 5.513
64.14000 1.699
64.16000 3.197
64.18000 2.052
64.20000 4.126
64.22000 5.820
64.24000 3.513
64.26000 2.645
64.28000 3.251
64.30000 1.909
64.32000 0.451
64.34000 0.996
64.36000 1.080
64.38000 4.859
64.40000 5.783
64.42000 0.135
64.44000 -1.122
64.46000 4.548
64.48000 3.415
64.50000 4.025
64.52000 1.564
64.54000 2.748
64.56000 1.866
64.58000 3.337
64.60000 1.912
64.62000 1.559
64.64000 3.586
64.66000 0.042
64.68000 -2.234
64.70000 -0.581
64.72000 4.584
64.74000 3.641
64.76000 3.464
64.78000 3.039
64.80000 1.866
64.82000 0.031
64.84000 -0.661
64.86000 1.960
64.88000 2.422
64.90000 -0.921
64.92000 -0.259
64.94000 1.339
64.96000 1.600
64.98000 0.786
65.00000 -1.621
65.02000 -2.099
65.04000 0.704
65.06000 1.919
65.08000 3.077
65.10000 2.568
65.12000 4.148
65.14000 2.468
65.16000 1.307
65.18000 2.660
65.20000 0.359
65.22000 -0.650
65.24000 0.585
65.26000 0.309
65.28000 2.109
65.30000 2.891
65.32000 3.560
65.34000 2.191
65.36000 -0.470
65.38000 0.314
65.40000 2.589
65.42000 2.876
65.44000 2.666
65.46000 -0.501
65.48000 0.588
65.50000 -0.200
65.52000 2.667
65.54000 3.497
65.56000 -0.054
65.58000 -0.586
65.60000 -0.409
65.62000 0.528
65.64000 3.917
65.66000 3.587
65.68000 0.021
65.70000 -2.263
65.72000 -1.849
65.74000 0.313
65.76000 2.953
65.78000 2.640
65.80000 3.079
65.82000 3.060
65.84000 1.740
65.86000 -0.560
65.88000 3.621
65.90000 5.897
65.92000 5.566
65.94000 3.874
65.96000 3.072
65.98000 2.539
66.00000 2.652
66.02000 1.449
66.04000 1.499
66.06000 4.021
66.08000 4.232
66.10000 3.972
66.12000 4.028
66.14000 4.444
66.16000 3.536
66.18000 4.367
66.20000 8.774
66.22000 6.270
66.24000 5.377
66.26000 4.614
66.28000 5.093
66.30000 7.131
66.32000 8.427
66.34000 7.386
66.36000 8.337
66.38000 6.192
66.40000 5.745
66.42000 8.957
66.44000 10.822
66.46000 11.469
66.48000 9.731
66.50000 8.286
66.52000 8.173
66.54000 8.675
66.56000 10.422
66.58000 10.477
66.60000 11.222
66.62000 11.817
66.64000 9.658
66.66000 7.748
66.68000 5.488
66.70000 8.359
66.72000 9.738
66.74000 8.205
66.76000 5.107
66.78000 6.146
66.80000 3.212
66.82000 5.029
66.84000 8.381
66.86000 7.075
66.88000 6.927
66.90000 6.815
66.92000 8.734
66.94000 7.910
66.96000 7.117
66.98000 6.706
67.00000 5.920
67.02000 4.993
67.04000 1.657
67.06000 1.587
67.08000 3.468
67.10000 5.928
67.12000 3.956
67.14000 3.728
67.16000 4.211
67.18000 4.209
67.20000 2.907
67.22000 2.182
67.24000 1.733
67.26000 2.687
67.28000 4.648
67.30000 4.190
67.32000 3.569
67.34000 4.126
67.36000 3.683
67.38000 2.905
67.40000 1.150
67.42000 2.242
67.44000 2.681
67.46000 3.404
67.48000 -0.220
67.50000 -2.176
67.52000 2.198
67.54000 1.057
67.56000 0.600
67.58000 2.131
67.60000 2.391
67.62000 2.744
67.64000 2.576
67.66000 2.102
67.68000 1.566
67.70000 1.173
67.72000 2.838
67.74000 3.767
67.76000 0.906
67.78000 -0.724
67.80000 2.054
67.82000 2.613
67.84000 1.096
67.86000 0.946
67.88000 -0.860
67.90000 -0.403
67.92000 -1.169
67.94000 -1.961
67.96000 -1.050
67.98000 -1.154
68.00000 1.225
68.02000 -0.926
68.04000 -0.723
68.06000 1.879
68.08000 0.807
68.10000 -0.294
68.12000 -0.225
68.14000 0.888
68.16000 -1.176
68.18000 -1.213
68.20000 -1.178
68.22000 -0.643
68.24000 -1.758
68.26000 1.175
68.28000 0.491
68.30000 1.505
68.32000 1.511
68.34000 -1.273
68.36000 1.423
68.38000 1.249
68.40000 1.805
68.42000 0.712
68.44000 -0.962
68.46000 -2.138
68.48000 0.835
68.50000 1.846
68.52000 -0.306
68.54000 -0.456
68.56000 -0.113
68.58000 -0.470
68.60000 -0.497
68.62000 1.030
68.64000 2.275
68.66000 2.804
68.68000 0.115
68.70000 1.927
68.72000 2.920
68.74000 -0.505
68.76000 -0.861
68.78000 0.142
68.80000 0.323
68.82000 0.626
68.84000 2.595
68.86000 4.186
68.88000 1.435
68.90000 1.399
68.92000 0.837
68.94000 2.056
68.96000 2.676
68.98000 2.295
69.00000 1.023
69.02000 -2.091
69.04000 0.169
69.06000 0.192
69.08000 -1.918
69.10000 -0.507
69.12000 -0.633
69.14000 -1.221
69.16000 0.884
69.18000 -0.237
69.20000 1.252
69.22000 1.289
69.24000 -0.289
69.26000 -2.085
69.28000 0.064
69.30000 2.021
69.32000 0.224
69.34000 0.694
69.36000 1.474
69.38000 -0.384
69.40000 -1.367
69.42000 1.140
69.44000 1.439
69.46000 1.894
69.48000 3.480
69.50000 1.081
69.52000 0.206
69.54000 0.128
69.56000 -0.013
69.58000 1.802
69.60000 1.907
69.62000 1.521
69.64000 3.086
69.66000 2.813
69.68000 0.791
69.70000 0.524
69.72000 -2.061
69.74000 -1.193
69.76000 0.471
69.78000 0.955
69.80000 1.868
69.82000 6.474
69.84000 2.727
69.86000 -0.732
69.88000 1.262
69.90000 1.885
69.92000 0.656
69.94000 0.929
69.96000 1.657
69.98000 1.221
70.00000 1.756
70.02000 1.419
70.04000 2.944
70.06000 0.250
70.08000 -0.208
70.10000 -1.531
70.12000 0.897
70.14000 2.088
70.16000 2.364
70.18000 1.068
70.20000 -1.225
70.22000 -0.226
70.24000 2.929
70.26000 4.995
70.28000 4.669
70.30000 3.230
70.32000 -2.047
70.34000 -0.301
70.36000 3.585
70.38000 4.441
70.40000 2.441
70.42000 2.854
70.44000 1.544
70.46000 2.544
70.48000 1.670
70.50000 0.372
70.52000 1.979
70.54000 0.356
70.56000 -1.753
70.58000 1.358
70.60000 -1.108
70.62000 -1.582
70.64000 -0.312
70.66000 -2.035
70.68000 2.326
70.70000 3.092
70.72000 3.276
70.74000 -0.478
70.76000 0.107
70.78000 0.780
70.80000 -0.593
70.82000 0.283
70.84000 2.246
70.86000 4.479
70.88000 3.437
70.90000 1.109
70.92000 3.394
70.94000 1.920
70.96000 0.637
70.98000 0.613
71.00000 0.167
71.02000 0.916
71.04000 2.061
71.06000 3.681
71.08000 3.859
71.10000 1.647
71.12000 -1.082
71.14000 -0.312
71.16000 0.296
71.18000 1.750
71.20000 2.829
71.22000 1.237
71.24000 2.172
71.26000 2.547
71.28000 3.674
71.30000 0.899
71.32000 -1.991
71.34000 0.185
71.36000 0.774
71.38000 1.999
71.40000 3.787
71.42000 1.649
71.44000 1.482
71.46000 0.165
71.48000 -0.936
71.50000 2.149
71.52000 4.057
71.54000 1.084
71.56000 0.538
71.58000 -0.765
71.60000 -1.146
71.62000 -0.903
71.64000 -1.164
71.66000 0.565
71.68000 -0.886
71.70000 0.810
71.72000 -1.361
71.74000 1.467
71.76000 1.858
71.78000 1.666
71.80000 2.144
71.82000 0.423
71.84000 -0.485
71.86000 3.306
71.88000 3.181
71.90000 4.087
71.92000 2.891
71.94000 1.074
71.96000 1.897
71.98000 3.581
72.00000 -0.274
72.02000 -0.774
72.04000 3.551
72.06000 1.785
72.08000 0.745
72.10000 -0.319
72.12000 0.884
72.14000 3.991
72.16000 2.811
72.18000 2.741
72.20000 0.905
72.22000 -1.986
72.24000 -1.040
72.26000 -1.127
72.28000 1.859
72.30000 1.255
72.32000 0.174
72.34000 0.628
72.36000 -0.961
72.38000 0.190
72.40000 2.886
72.42000 1.243
72.44000 3.795
72.46000 2.597
72.48000 1.363
72.50000 1.089
72.52000 2.151
72.54000 -0.100
72.56000 -0.781
72.58000 0.814
72.60000 4.579
72.62000 3.604
72.64000 2.408
72.66000 1.049
72.68000 2.000
72.70000 -0.277
72.72000 -0.129
72.74000 1.647
72.76000 2.082
72.78000 0.628
72.80000 0.857
72.82000 3.301
72.84000 4.405
72.86000 2.605
72.88000 2.075
72.90000 2.832
72.92000 1.430
72.94000 1.610
72.96000 1.539
72.98000 2.996
73.00000 -0.229
73.02000 -1.025
73.04000 -0.230
73.06000 2.769
73.08000 5.197
73.10000 2.825
73.12000 1.985
73.14000 1.698
73.16000 4.015
73.18000 -0.524
73.20000 1.812
73.22000 1.696
73.24000 1.108
73.26000 2.463
73.28000 3.319
73.30000 4.357
73.32000 4.438
73.34000 3.256
73.36000 2.163
73.38000 5.493
73.40000 3.825
73.42000 3.930
73.44000 4.080
73.46000 4.918
73.48000 0.825
73.50000 -1.915
73.52000 0.350
73.54000 2.228
73.56000 1.802
73.58000 1.895
73.60000 -0.274
73.62000 -0.067
73.64000 2.851
73.66000 3.072
73.68000 5.745
73.70000 2.070
73.72000 0.500
73.74000 0.463
73.76000 2.243
73.78000 2.887
73.80000 2.697
73.82000 4.125
73.84000 4.011
73.86000 3.121
73.88000 1.964
73.90000 1.167
73.92000 2.643
73.94000 4.902
73.96000 4.179
73.98000 0.785
74.00000 3.037
74.02000 1.767
74.04000 0.774
74.06000 -0.578
74.08000 1.739
74.10000 2.052
74.12000 3.450
74.14000 1.804
74.16000 0.442
74.18000 0.981
74.20000 0.217
74.22000 1.265
74.24000 1.549
74.26000 4.264
74.28000 3.299
74.30000 1.822
74.32000 0.187
74.34000 -1.046
74.36000 -0.514
74.38000 1.910
74.40000 2.795
74.42000 3.818
74.44000 1.649
74.46000 0.504
74.48000 -0.064
74.50000 -0.510
74.52000 1.579
74.54000 -0.108
74.56000 0.094
74.58000 1.700
74.60000 4.254
74.62000 4.200
74.64000 3.870
74.66000 3.798
74.68000 -0.620
74.70000 -1.948
74.72000 0.368
74.74000 2.009
74.76000 3.941
74.78000 1.351
74.80000 2.299
74.82000 1.298
74.84000 1.881
74.86000 1.325
74.88000 1.526
74.90000 2.301
74.92000 3.094
74.94000 2.381
74.96000 2.509
74.98000 0.833
75.00000 0.229
75.02000 1.422
75.04000 1.618
75.06000 -0.625
75.08000 -0.404
75.10000 -1.377
75.12000 -0.462
75.14000 1.018
75.16000 0.159
75.18000 4.213
75.20000 3.137
75.22000 0.923
75.24000 2.340
75.26000 2.834
75.28000 4.640
75.30000 2.738
75.32000 0.210
75.34000 -1.365
75.36000 0.925
75.38000 2.181
75.40000 2.523
75.42000 1.884
75.44000 1.153
75.46000 5.259
75.48000 5.183
75.50000 2.666
75.52000 2.949
75.54000 2.253
75.56000 4.065
75.58000 1.436
75.60000 2.209
75.62000 5.644
75.64000 3.035
75.66000 0.291
75.68000 -1.950
75.70000 1.204
75.72000 3.810
75.74000 2.214
75.76000 0.065
75.78000 0.251
75.80000 2.379
75.82000 4.313
75.84000 2.096
75.86000 2.225
75.88000 1.355
75.90000 1.503
75.92000 2.764
75.94000 2.674
75.96000 0.021
75.98000 3.435
76.00000 3.010
76.02000 1.201
76.04000 2.058
76.06000 4.848
76.08000 1.745
76.10000 0.088
76.12000 -1.606
76.14000 -0.364
76.16000 -1.479
76.18000 -1.975
76.20000 2.329
76.22000 1.992
76.24000 0.204
76.26000 -0.759
76.28000 1.535
76.30000 3.273
76.32000 2.865
76.34000 0.341
76.36000 3.274
76.38000 5.698
76.40000 2.537
76.42000 0.381
76.44000 3.894
76.46000 6.225
76.48000 2.412
76.50000 -0.378
76.52000 -1.984
76.54000 0.409
76.56000 1.579
76.58000 4.976
76.60000 3.731
76.62000 1.025
76.64000 2.549
76.66000 4.451
76.68000 3.877
76.70000 -0.670
76.72000 -0.352
76.74000 0.605
76.76000 0.021
76.78000 3.292
76.80000 4.027
76.82000 4.055
76.84000 2.391
76.86000 2.874
76.88000 1.888
76.90000 2.280
76.92000 2.883
76.94000 3.780
76.96000 2.280
76.98000 1.708
77.00000 2.574
77.02000 2.134
77.04000 1.277
77.06000 -2.005
77.08000 -0.177
77.10000 0.647
77.12000 -0.288
77.14000 0.871
77.16000 1.572
77.18000 2.265
77.20000 0.638
77.22000 -1.053
77.24000 2.453
77.26000 2.080
77.28000 2.466
77.30000 3.646
77.32000 1.954
77.34000 0.830
77.36000 -0.473
77.38000 0.116
77.40000 1.175
77.42000 3.450
77.44000 2.518
77.46000 3.301
77.48000 0.103
77.50000 0.182
77.52000 -1.389
77.54000 0.906
77.56000 2.689
77.58000 -0.372
77.60000 -1.664
77.62000 2.605
77.64000 2.810
77.66000 0.006
77.68000 -0.590
77.70000 0.798
77.72000 3.446
77.74000 4.858
77.76000 1.435
77.78000 1.676
77.80000 1.612
77.82000 2.017
77.84000 2.538
77.86000 1.300
77.88000 0.227
77.90000 0.087
77.92000 2.881
77.94000 2.302
77.96000 1.547
77.98000 2.113
78.00000 -0.909
78.02000 -1.989
78.04000 1.738
78.06000 -0.210
78.08000 2.545
78.10000 3.780
78.12000 2.216
78.14000 0.152
78.16000 0.528
78.18000 1.255
78.20000 4.797
78.22000 6.699
78.24000 4.415
78.26000 6.226
78.28000 8.104
78.30000 4.220
78.32000 3.389
78.34000 4.575
78.36000 3.180
78.38000 -2.021
78.40000 3.109
78.42000 7.179
78.44000 3.757
78.46000 1.144
78.48000 3.364
78.50000 1.885
78.52000 2.692
78.54000 3.979
78.56000 1.202
78.58000 3.812
78.60000 4.451
78.62000 5.782
78.64000 5.421
78.66000 4.607
78.68000 5.593
78.70000 5.280
78.72000 2.304
78.74000 1.187
78.76000 3.366
78.78000 0.197
78.80000 3.338
78.82000 3.243
78.84000 3.395
78.86000 2.552
78.88000 4.892
78.90000 5.373
78.92000 3.088
78.94000 3.413
78.96000 6.440
78.98000 5.828
79.00000 4.419
79.02000 1.330
79.04000 2.706
79.06000 2.988
79.08000 4.735
79.10000 4.877
79.12000 4.574
79.14000 6.682
79.16000 3.339
79.18000 1.099
79.20000 3.603
79.22000 5.663
79.24000 4.752
79.26000 7.528
79.28000 8.488
79.30000 7.751
79.32000 10.235
79.34000 10.959
79.36000 8.499
79.38000 8.437
79.40000 10.569
79.42000 10.574
79.44000 10.403
79.46000 12.853
79.48000 11.739
79.50000 10.347
79.52000 6.460
79.54000 8.271
79.56000 10.370
79.58000 11.303
79.60000 11.113
79.62000 10.340
79.64000 7.731
79.66000 10.888
79.68000 11.005
79.70000 10.974
79.72000 10.576
79.74000 14.304
79.76000 14.473
79.78000 18.255
79.80000 21.248
79.82000 17.527
79.84000 16.611
79.86000 17.379
79.88000 18.383
79.90000 17.957
79.92000 17.990
79.94000 21.364
79.96000 20.847
79.98000 24.538
80.00000 26.461
80.02000 24.669
80.04000 22.218
80.06000 20.858
80.08000 19.518
80.10000 24.191
80.12000 23.804
80.14000 24.988
80.16000 28.865
80.18000 26.832
80.20000 25.980
80.22000 25.886
80.24000 27.883
80.26000 24.932
80.28000 22.984
80.30000 22.461
80.32000 19.302
80.34000 23.305
80.36000 22.223
80.38000 20.954
80.40000 22.617
80.42000 25.756
80.44000 23.246
80.46000 22.987
80.48000 26.028
80.50000 23.242
80.52000 23.915
80.54000 20.708
80.56000 21.222
80.58000 18.058
80.60000 20.529
80.62000 22.334
80.64000 16.108
80.66000 16.325
80.68000 18.044
80.70000 17.633
80.72000 20.767
80.74000 21.413
80.76000 16.422
80.78000 18.253
80.80000 13.359
80.82000 10.612
80.84000 14.073
80.86000 15.192
80.88000 13.877
80.90000 11.745
80.92000 11.301
80.94000 10.573
80.96000 8.981
80.98000 5.860
81.00000 8.883
81.02000 9.889
81.04000 11.156
81.06000 14.178
81.08000 12.029
81.10000 11.717
81.12000 10.530
81.14000 8.850
81.16000 6.740
81.18000 8.829
81.20000 9.929
81.22000 5.204
81.24000 4.510
81.26000 6.024
81.28000 6.517
81.30000 7.759
81.32000 9.567
81.34000 9.902
81.36000 4.072
81.38000 6.453
81.40000 6.553
81.42000 7.095
81.44000 7.599
81.46000 5.043
81.48000 4.121
81.50000 4.939
81.52000 6.116
81.54000 6.149
81.56000 6.712
81.58000 3.301
81.60000 5.373
81.62000 3.853
81.64000 1.192
81.66000 5.534
81.68000 6.183
81.70000 6.831
81.72000 5.471
81.74000 6.983
81.76000 3.629
81.78000 -0.216
81.80000 0.417
81.82000 -1.278
81.84000 2.067
81.86000 2.044
81.88000 4.176
81.90000 -2.149
81.92000 0.371
81.94000 4.282
81.96000 4.962
81.98000 4.720
82.00000 6.128
82.02000 5.163
82.04000 6.993
82.06000 5.813
82.08000 3.140
82.10000 6.426
82.12000 5.470
82.14000 4.287
82.16000 4.848
82.18000 3.619
82.20000 2.447
82.22000 3.878
82.24000 3.726
82.26000 5.293
82.28000 2.182
82.30000 1.489
82.32000 2.827
82.34000 0.633
82.36000 4.167
82.38000 4.252
82.40000 4.651
82.42000 2.977
82.44000 5.334
82.46000 5.893
82.48000 3.186
82.50000 1.734
82.52000 2.797
82.54000 3.521
82.56000 1.562
82.58000 -0.639
82.60000 2.482
82.62000 1.477
82.64000 0.980
82.66000 1.612
82.68000 2.493
82.70000 2.808
82.72000 3.722
82.74000 3.790
82.76000 6.620
82.78000 4.251
82.80000 1.848
82.82000 1.111
82.84000 3.024
82.86000 4.617
82.88000 6.370
82.90000 3.368
82.92000 3.287
82.94000 6.326
82.96000 3.267
82.98000 4.883
83.00000 5.231
83.02000 7.338
83.04000 5.755
83.06000 8.156
83.08000 5.849
83.10000 8.015
83.12000 6.590
83.14000 4.593
83.16000 9.561
83.18000 12.048
83.20000 8.951
83.22000 8.841
83.24000 9.820
83.26000 11.664
83.28000 9.134
83.30000 9.294
83.32000 8.502
83.34000 10.826
83.36000 11.676
83.38000 9.898
83.40000 11.718
83.42000 12.944
83.44000 13.109
83.46000 12.395
83.48000 15.161
83.50000 16.935
83.52000 16.489
83.54000 16.526
83.56000 16.399
83.58000 14.431
83.60000 12.547
83.62000 13.439
83.64000 15.827
83.66000 19.492
83.68000 21.090
83.70000 24.377
83.72000 24.409
83.74000 22.179
83.76000 25.744
83.78000 25.769
83.80000 27.550
83.82000 26.538
83.84000 24.586
83.86000 28.882
83.88000 27.924
83.90000 27.091
83.92000 31.348
83.94000 31.058
83.96000 29.399
83.98000 29.539
84.00000 33.186
84.02000 34.172
84.04000 31.827
84.06000 28.930
84.08000 31.995
84.10000 30.277
84.12000 30.435
84.14000 33.302
84.16000 33.405
84.18000 32.807
84.20000 32.292
84.22000 32.294
84.24000 35.881
84.26000 32.080
84.28000 33.489
84.30000 30.362
84.32000 27.254
84.34000 29.004
84.36000 30.970
84.38000 34.384
84.40000 32.236
84.42000 28.785
84.44000 28.569
84.46000 29.973
84.48000 29.437
84.50000 28.369
84.52000 27.591
84.54000 25.070
84.56000 23.663
84.58000 24.796
84.60000 21.263
84.62000 20.664
84.64000 17.644
84.66000 19.104
84.68000 19.951
84.70000 18.159
84.72000 17.381
84.74000 19.274
84.76000 19.059
84.78000 15.117
84.80000 16.026
84.82000 15.636
84.84000 13.763
84.86000 12.524
84.88000 14.830
84.90000 12.243
84.92000 7.949
84.94000 7.920
84.96000 7.434
84.98000 7.349
85.00000 5.328
85.02000 8.958
85.04000 7.629
85.06000 5.330
85.08000 5.309
85.10000 4.084
85.12000 7.289
85.14000 3.145
85.16000 3.081
85.18000 4.690
85.20000 2.863
85.22000 2.940
85.24000 3.294
85.26000 4.360
85.28000 2.681
85.30000 1.243
85.32000 1.090
85.34000 4.099
85.36000 2.287
85.38000 0.199
85.40000 3.100
85.42000 3.156
85.44000 3.958
85.46000 1.171
85.48000 0.576
85.50000 2.306
85.52000 2.822
85.54000 2.136
85.56000 0.268
85.58000 1.438
85.60000 3.018
85.62000 4.073
85.64000 2.898
85.66000 3.033
85.68000 2.548
85.70000 1.676
85.72000 0.363
85.74000 -1.961
85.76000 1.227
85.78000 3.134
85.80000 0.724
85.82000 1.101
85.84000 2.500
85.86000 4.197
85.88000 2.661
85.90000 1.770
85.92000 -0.216
85.94000 -0.801
85.96000 1.759
85.98000 3.047
86.00000 0.600
86.02000 1.794
86.04000 0.305
86.06000 -1.003
86.08000 1.720
86.10000 4.348
86.12000 3.170
86.14000 0.250
86.16000 2.692
86.18000 1.439
86.20000 -0.200
86.22000 0.234
86.24000 1.934
86.26000 1.708
86.28000 3.008
86.30000 2.274
86.32000 2.556
86.34000 -0.811
86.36000 -0.165
86.38000 2.138
86.40000 1.301
86.42000 -1.901
86.44000 -1.645
86.46000 -1.191
86.48000 2.331
86.50000 3.809
86.52000 1.825
86.54000 -1.400
86.56000 2.412
86.58000 3.575
86.60000 1.799
86.62000 1.474
86.64000 1.808
86.66000 -0.563
86.68000 0.800
86.70000 3.264
86.72000 -0.150
86.74000 -1.363
86.76000 -1.150
86.78000 -0.165
86.80000 -0.285
86.82000 -1.784
86.84000 -0.810
86.86000 0.984
86.88000 0.932
86.90000 1.485
86.92000 1.621
86.94000 0.566
86.96000 1.918
86.98000 5.359
87.00000 2.865
87.02000 0.422
87.04000 2.677
87.06000 1.709
87.08000 -1.870
87.10000 -1.336
87.12000 5.386
87.14000 4.290
87.16000 -0.860
87.18000 0.837
87.20000 1.390
87.22000 3.909
87.24000 3.319
87.26000 -0.087
87.28000 0.667
87.30000 1.071
87.32000 2.387
87.34000 0.390
87.36000 0.297
87.38000 1.820
87.40000 3.459
87.42000 2.438
87.44000 1.491
87.46000 1.230
87.48000 4.386
87.50000 5.492
87.52000 2.936
87.54000 -0.107
87.56000 0.200
87.58000 4.960
87.60000 4.389
87.62000 3.214
87.64000 4.203
87.66000 0.954
87.68000 -1.085
87.70000 0.761
87.72000 1.117
87.74000 0.528
87.76000 1.196
87.78000 0.531
87.80000 -1.007
87.82000 -1.859
87.84000 -1.573
87.86000 0.475
87.88000 2.784
87.90000 1.924
87.92000 2.321
87.94000 1.903
87.96000 2.665
87.98000 2.099
88.00000 2.350
88.02000 5.401
88.04000 4.219
88.06000 2.208
88.08000 1.833
88.10000 2.825
88.12000 -1.307
88.14000 -1.842
88.16000 -0.887
88.18000 0.643
88.20000 1.193
88.22000 0.308
88.24000 0.969
88.26000 1.050
88.28000 2.776
88.30000 0.356
88.32000 0.944
88.34000 0.105
88.36000 3.866
88.38000 2.055
88.40000 1.442
88.42000 2.849
88.44000 1.399
88.46000 -0.804
88.48000 -1.534
88.50000 -1.838
88.52000 -1.233
88.54000 -0.733
88.56000 2.736
88.58000 3.503
88.60000 0.640
88.62000 2.587
88.64000 -1.718
88.66000 -0.376
88.68000 1.292
88.70000 4.354
88.72000 4.091
88.74000 2.424
88.76000 -0.244
88.78000 0.583
88.80000 2.495
88.82000 3.195
88.84000 0.910
88.86000 1.571
88.88000 -1.140
88.90000 2.624
88.92000 1.875
88.94000 3.463
88.96000 1.267
88.98000 -0.680
89.00000 0.821
89.02000 1.490
89.04000 2.837
89.06000 4.927
89.08000 4.423
89.10000 2.236
89.12000 1.862
89.14000 1.136
89.16000 2.347
89.18000 3.536
89.20000 4.606
89.22000 2.351
89.24000 -0.445
89.26000 0.587
89.28000 3.183
89.30000 4.693
89.32000 4.595
89.34000 -0.740
89.36000 -1.199
89.38000 1.564
89.40000 1.691
89.42000 4.409
89.44000 5.014
89.46000 1.706
89.48000 3.217
89.50000 4.386
89.52000 5.447
89.54000 2.824
89.56000 -1.791
89.58000 0.353
89.60000 3.461
89.62000 4.226
89.64000 1.779
89.66000 0.833
89.68000 2.197
89.70000 0.781
89.72000 1.656
89.74000 4.159
89.76000 4.388
89.78000 3.666
89.80000 3.434
89.82000 3.234
89.84000 1.897
89.86000 2.399
89.88000 1.225
89.90000 3.529
89.92000 6.841
89.94000 5.549
89.96000 2.748
89.98000 1.832
90.00000 2.015
90.02000 2.169
90.04000 3.285
90.06000 4.013
90.08000 1.149
90.10000 2.975
90.12000 1.994
90.14000 1.232
90.16000 0.505
90.18000 1.285
90.20000 0.044
90.22000 3.055
90.24000 6.958
90.26000 5.081
90.28000 1.923
90.30000 4.439
90.32000 5.384
90.34000 2.145
90.36000 5.609
90.38000 4.356
90.40000 0.620
90.42000 1.489
90.44000 2.224
90.46000 4.587
90.48000 6.260
90.50000 2.222
90.52000 0.235
90.54000 2.860
90.56000 3.609
90.58000 4.749
90.60000 4.661
90.62000 1.526
90.64000 -1.806
90.66000 1.687
90.68000 0.329
90.70000 -0.459
90.72000 4.240
90.74000 3.121
90.76000 4.768
90.78000 4.229
90.80000 1.957
90.82000 4.388
90.84000 3.894
90.86000 3.874
90.88000 1.950
90.90000 1.576
90.92000 -1.169
90.94000 0.031
90.96000 2.132
90.98000 1.890
91.00000 1.710
91.02000 2.189
91.04000 0.912
91.06000 2.142
91.08000 1.490
91.10000 1.358
91.12000 2.521
91.14000 4.482
91.16000 3.692
91.18000 2.061
91.20000 -0.122
91.22000 1.235
91.24000 1.539
91.26000 2.369
91.28000 0.602
91.30000 -0.072
91.32000 1.282
91.34000 4.104
91.36000 2.342
91.38000 2.159
91.40000 2.682
91.42000 2.528
91.44000 3.238
91.46000 4.025
91.48000 5.225
91.50000 5.993
91.52000 8.699
91.54000 3.137
91.56000 1.573
91.58000 1.622
91.60000 1.311
91.62000 -0.111
91.64000 4.284
91.66000 4.572
91.68000 2.002
91.70000 4.131
91.72000 2.066
91.74000 0.940
91.76000 2.132
91.78000 1.337
91.80000 -1.791
91.82000 3.197
91.84000 4.832
91.86000 5.265
91.88000 6.537
91.90000 8.081
91.92000 2.486
91.94000 -1.791
91.96000 -1.191
91.98000 2.522
92.00000 3.327
92.02000 1.727
92.04000 -0.026
92.06000 -1.793
92.08000 0.041
92.10000 1.213
92.12000 0.900
92.14000 4.729
92.16000 6.052
92.18000 3.678
92.20000 3.802
92.22000 2.901
92.24000 0.102
92.26000 3.459
92.28000 8.708
92.30000 8.127
92.32000 4.909
92.34000 0.648
92.36000 2.620
92.38000 3.200
92.40000 -0.443
92.42000 -1.126
92.44000 0.729
92.46000 0.636
92.48000 3.267
92.50000 4.509
92.52000 2.780
92.54000 4.142
92.56000 1.168
92.58000 -0.988
92.60000 2.095
92.62000 3.483
92.64000 2.237
92.66000 4.449
92.68000 5.947
92.70000 3.730
92.72000 0.766
92.74000 1.192
92.76000 3.762
92.78000 3.477
92.80000 1.063
92.82000 0.782
92.84000 0.374
92.86000 3.993
92.88000 2.680
92.90000 1.389
92.92000 -1.063
92.94000 3.754
92.96000 6.509
92.98000 4.444
93.00000 3.902
93.02000 5.447
93.04000 2.076
93.06000 4.542
93.08000 5.397
93.10000 2.415
93.12000 4.690
93.14000 3.342
93.16000 1.905
93.18000 -1.786
93.20000 0.692
93.22000 5.717
93.24000 8.261
93.26000 6.480
93.28000 2.489
93.30000 1.494
93.32000 3.432
93.34000 2.775
93.36000 2.041
93.38000 3.020
93.40000 4.478
93.42000 3.839
93.44000 0.546
93.46000 0.283
93.48000 2.245
93.50000 3.159
93.52000 4.870
93.54000 2.133
93.56000 0.697
93.58000 2.980
93.60000 3.855
93.62000 3.286
93.64000 3.813
93.66000 2.270
93.68000 3.444
93.70000 4.388
93.72000 2.286
93.74000 4.372
93.76000 4.654
93.78000 5.684
93.80000 4.404
93.82000 1.144
93.84000 1.858
93.86000 3.497
93.88000 0.726
93.90000 -0.155
93.92000 -0.386
93.94000 1.971
93.96000 4.268
93.98000 4.049
94.00000 2.565
94.02000 1.126
94.04000 4.895
94.06000 3.523
94.08000 -1.019
94.10000 0.525
94.12000 4.863
94.14000 7.006
94.16000 4.481
94.18000 4.729
94.20000 3.656
94.22000 4.722
94.24000 2.810
94.26000 1.260
94.28000 4.562
94.30000 4.400
94.32000 1.564
94.34000 2.282
94.36000 3.100
94.38000 3.450
94.40000 1.155
94.42000 -0.487
94.44000 1.504
94.46000 1.967
94.48000 4.357
94.50000 5.518
94.52000 1.768
94.54000 3.178
94.56000 3.883
94.58000 1.371
94.60000 1.880
94.62000 3.447
94.64000 3.035
94.66000 2.695
94.68000 4.361
94.70000 4.234
94.72000 3.988
94.74000 2.240
94.76000 0.882
94.78000 0.818
94.80000 0.424
94.82000 1.601
94.84000 1.095
94.86000 3.274
94.88000 3.549
94.90000 2.175
94.92000 -1.837
94.94000 -0.667
94.96000 3.469
94.98000 4.637
95.00000 6.074
95.02000 8.869
95.04000 4.932
95.06000 2.166
95.08000 5.370
95.10000 7.704
95.12000 4.617
95.14000 3.220
95.16000 2.776
95.18000 3.379
95.20000 4.379
95.22000 4.430
95.24000 4.239
95.26000 2.766
95.28000 2.851
95.30000 2.201
95.32000 -1.268
95.34000 -1.187
95.36000 0.353
95.38000 2.195
95.40000 -0.127
95.42000 3.254
95.44000 6.566
95.46000 6.356
95.48000 6.385
95.50000 3.044
95.52000 3.265
95.54000 5.488
95.56000 5.528
95.58000 5.041
95.60000 5.270
95.62000 5.586
95.64000 2.652
95.66000 4.351
95.68000 3.277
95.70000 2.198
95.72000 5.901
95.74000 8.162
95.76000 3.378
95.78000 3.109
95.80000 4.193
95.82000 3.362
95.84000 5.063
95.86000 2.837
95.88000 2.082
95.90000 1.055
95.92000 -1.831
95.94000 0.772
95.96000 1.456
95.98000 2.917
96.00000 7.211
96.02000 8.154
96.04000 5.216
96.06000 4.678
96.08000 5.692
96.10000 3.242
96.12000 3.907
96.14000 7.415
96.16000 4.146
96.18000 2.248
96.20000 6.655
96.22000 4.748
96.24000 4.297
96.26000 -0.316
96.28000 1.443
96.30000 2.485
96.32000 3.007
96.34000 6.647
96.36000 4.025
96.38000 2.361
96.40000 5.802
96.42000 7.081
96.44000 3.665
96.46000 3.161
96.48000 5.984
96.50000 2.241
96.52000 -0.953
96.54000 -0.540
96.56000 5.083
96.58000 4.503
96.60000 1.392
96.62000 -0.071
96.64000 2.927
96.66000 3.278
96.68000 4.473
96.70000 3.413
96.72000 0.300
96.74000 0.566
96.76000 3.901
96.78000 3.093
96.80000 2.539
96.82000 -1.268
96.84000 1.432
96.86000 3.701
96.88000 3.737
96.90000 1.642
96.92000 1.503
96.94000 5.860
96.96000 4.134
96.98000 6.129
97.00000 2.812
97.02000 1.150
97.04000 -0.774
97.06000 2.473
97.08000 1.366
97.10000 -1.311
97.12000 5.537
97.14000 5.135
97.16000 6.084
97.18000 4.610
97.20000 2.965
97.22000 4.276
97.24000 5.430
97.26000 2.491
97.28000 5.422
97.30000 3.492
97.32000 3.842
97.34000 3.124
97.36000 1.275
97.38000 5.220
97.40000 6.008
97.42000 4.681
97.44000 3.578
97.46000 3.092
97.48000 1.613
97.50000 0.487
97.52000 0.382
97.54000 2.969
97.56000 5.773
97.58000 2.626
97.60000 0.810
97.62000 0.306
97.64000 0.550
97.66000 1.974
97.68000 4.008
97.70000 5.816
97.72000 5.665
97.74000 4.143
97.76000 6.823
97.78000 8.860
97.80000 9.700
97.82000 7.628
97.84000 4.728
97.86000 3.188
97.88000 2.105
97.90000 4.309
97.92000 2.942
97.94000 4.576
97.96000 3.886
97.98000 0.972
98.00000 2.466
98.02000 3.535
98.04000 3.483
98.06000 5.313
98.08000 7.601
98.10000 1.584
98.12000 3.425
98.14000 7.181
98.16000 10.015
98.18000 6.455
98.20000 6.049
98.22000 8.440
98.24000 0.690
98.26000 2.054
98.28000 3.358
98.30000 7.073
98.32000 5.630
98.34000 7.567
98.36000 5.949
98.38000 4.966
98.40000 7.526
98.42000 -1.753
98.44000 0.499
98.46000 9.206
98.48000 10.760
98.50000 9.155
98.52000 7.583
98.54000 4.713
98.56000 5.374
98.58000 6.553
98.60000 3.045
98.62000 2.155
98.64000 0.788
98.66000 4.691
98.68000 6.435
98.70000 4.111
98.72000 8.485
98.74000 11.060
98.76000 4.779
98.78000 0.196
98.80000 1.283
98.82000 5.052
98.84000 7.454
98.86000 7.348
98.88000 0.165
98.90000 1.684
98.92000 7.781
98.94000 5.958
98.96000 7.611
98.98000 4.088
99.00000 -1.770
99.02000 3.416
99.04000 1.571
99.06000 -0.393
99.08000 6.993
99.10000 6.791
99.12000 9.536
99.14000 13.958
99.16000 3.698
99.18000 2.739
99.20000 8.363
99.22000 3.639
99.24000 2.545
99.26000 6.958
99.28000 7.182
99.30000 9.198
99.32000 6.588
99.34000 8.327
99.36000 5.467
99.38000 2.014
99.40000 1.918
99.42000 1.594
99.44000 5.670
99.46000 5.760
99.48000 6.896
99.50000 4.164
99.52000 6.056
99.54000 3.265
99.56000 0.527
99.58000 2.109
99.60000 1.740
99.62000 9.785
99.64000 8.265
99.66000 4.340
99.68000 4.312
99.70000 3.945
99.72000 5.665
99.74000 5.974
99.76000 4.391
99.78000 2.047
99.80000 -1.988
99.82000 6.475
99.84000 8.301
99.86000 -1.872
99.88000 -1.896
99.90000 0.875
99.92000 6.615
99.94000 3.799
99.96000 -2.005
99.98000 0.000
