'Id: "0011389" Comment: "Integrate frame 0011389_Au-Ir-Rh_Au-Rich_XRD_Mapping-115-0000.gfrmwith cursor Wedge Cursor #5" Operator: "B?rgel" Anode: "Cu" Wavelength: "1.5406" Scantype: "2Theta (TwoTheta)" TimePerStep: "1" X: "-45" Y: "-9" Z: "5.95" 
10.00000 0.000
10.02000 -4.736
10.04000 3.664
10.06000 1.098
10.08000 -4.698
10.10000 6.687
10.12000 7.068
10.14000 17.918
10.16000 10.895
10.18000 12.160
10.20000 -3.347
10.22000 -0.378
10.24000 -0.286
10.26000 13.053
10.28000 19.099
10.30000 18.281
10.32000 17.546
10.34000 12.745
10.36000 11.498
10.38000 13.938
10.40000 14.593
10.42000 22.760
10.44000 11.704
10.46000 -4.588
10.48000 3.820
10.50000 11.807
10.52000 -4.442
10.54000 -0.630
10.56000 8.355
10.58000 -2.347
10.60000 24.700
10.62000 18.174
10.64000 16.133
10.66000 13.467
10.68000 15.861
10.70000 13.493
10.72000 -0.194
10.74000 13.337
10.76000 12.098
10.78000 5.436
10.80000 15.666
10.82000 2.898
10.84000 -2.812
10.86000 4.314
10.88000 17.285
10.90000 14.179
10.92000 9.534
10.94000 15.051
10.96000 4.992
10.98000 3.996
11.00000 12.494
11.02000 11.155
11.04000 19.834
11.06000 6.797
11.08000 7.736
11.10000 9.964
11.12000 9.747
11.14000 10.808
11.16000 7.370
11.18000 12.476
11.20000 14.182
11.22000 8.199
11.24000 8.015
11.26000 10.501
11.28000 10.049
11.30000 3.118
11.32000 11.425
11.34000 -1.572
11.36000 -4.521
11.38000 8.988
11.40000 9.735
11.42000 7.897
11.44000 9.912
11.46000 6.519
11.48000 12.188
11.50000 13.189
11.52000 14.527
11.54000 -0.002
11.56000 12.245
11.58000 16.672
11.60000 21.886
11.62000 20.496
11.64000 18.844
11.66000 12.412
11.68000 14.476
11.70000 22.851
11.72000 20.405
11.74000 12.358
11.76000 1.488
11.78000 12.527
11.80000 15.029
11.82000 11.829
11.84000 14.223
11.86000 19.406
11.88000 22.277
11.90000 11.059
11.92000 5.805
11.94000 16.278
11.96000 7.775
11.98000 17.073
12.00000 17.369
12.02000 8.213
12.04000 0.611
12.06000 10.613
12.08000 15.391
12.10000 19.496
12.12000 19.259
12.14000 9.814
12.16000 5.003
12.18000 10.028
12.20000 21.023
12.22000 17.350
12.24000 24.265
12.26000 27.064
12.28000 11.673
12.30000 7.411
12.32000 8.955
12.34000 12.420
12.36000 18.866
12.38000 5.733
12.40000 6.701
12.42000 12.396
12.44000 7.452
12.46000 7.746
12.48000 -0.739
12.50000 9.266
12.52000 16.586
12.54000 21.201
12.56000 24.282
12.58000 13.405
12.60000 14.101
12.62000 0.159
12.64000 5.471
12.66000 14.585
12.68000 21.464
12.70000 19.232
12.72000 15.788
12.74000 14.284
12.76000 18.732
12.78000 9.371
12.80000 11.332
12.82000 6.773
12.84000 3.510
12.86000 5.315
12.88000 14.490
12.90000 20.465
12.92000 24.655
12.94000 16.957
12.96000 16.565
12.98000 16.514
13.00000 13.808
13.02000 4.899
13.04000 -4.419
13.06000 3.291
13.08000 9.169
13.10000 7.552
13.12000 8.433
13.14000 14.478
13.16000 17.790
13.18000 20.419
13.20000 21.047
13.22000 26.353
13.24000 15.017
13.26000 15.358
13.28000 19.370
13.30000 23.683
13.32000 18.134
13.34000 20.290
13.36000 18.233
13.38000 22.152
13.40000 17.006
13.42000 9.182
13.44000 16.349
13.46000 13.931
13.48000 14.191
13.50000 10.657
13.52000 14.582
13.54000 23.394
13.56000 9.031
13.58000 12.263
13.60000 21.507
13.62000 17.995
13.64000 12.264
13.66000 20.196
13.68000 18.520
13.70000 9.383
13.72000 7.985
13.74000 12.626
13.76000 19.426
13.78000 14.251
13.80000 4.992
13.82000 1.674
13.84000 -0.296
13.86000 17.491
13.88000 21.024
13.90000 18.109
13.92000 7.237
13.94000 10.375
13.96000 19.212
13.98000 5.487
14.00000 9.306
14.02000 14.568
14.04000 4.447
14.06000 7.692
14.08000 1.502
14.10000 5.542
14.12000 7.973
14.14000 10.524
14.16000 11.236
14.18000 6.429
14.20000 13.085
14.22000 11.336
14.24000 3.185
14.26000 5.934
14.28000 9.124
14.30000 13.860
14.32000 17.463
14.34000 6.131
14.36000 9.804
14.38000 6.080
14.40000 10.392
14.42000 16.440
14.44000 15.976
14.46000 9.731
14.48000 6.587
14.50000 16.688
14.52000 19.994
14.54000 4.795
14.56000 7.630
14.58000 16.171
14.60000 14.092
14.62000 7.888
14.64000 16.830
14.66000 24.352
14.68000 17.579
14.70000 9.277
14.72000 11.428
14.74000 12.701
14.76000 7.573
14.78000 11.880
14.80000 18.849
14.82000 17.043
14.84000 8.565
14.86000 0.295
14.88000 10.227
14.90000 5.890
14.92000 3.320
14.94000 5.420
14.96000 8.315
14.98000 6.340
15.00000 10.854
15.02000 6.528
15.04000 6.849
15.06000 4.062
15.08000 11.569
15.10000 20.977
15.12000 6.805
15.14000 5.937
15.16000 11.347
15.18000 13.244
15.20000 14.372
15.22000 13.896
15.24000 10.185
15.26000 10.034
15.28000 12.713
15.30000 9.820
15.32000 12.424
15.34000 12.527
15.36000 9.965
15.38000 14.850
15.40000 12.154
15.42000 12.445
15.44000 3.423
15.46000 12.502
15.48000 14.268
15.50000 9.566
15.52000 11.754
15.54000 7.229
15.56000 7.638
15.58000 8.994
15.60000 7.383
15.62000 5.249
15.64000 6.759
15.66000 4.469
15.68000 2.731
15.70000 -3.021
15.72000 0.154
15.74000 1.311
15.76000 7.489
15.78000 3.139
15.80000 -2.417
15.82000 1.814
15.84000 -2.388
15.86000 -3.250
15.88000 -4.410
15.90000 7.793
15.92000 14.956
15.94000 7.994
15.96000 3.857
15.98000 0.819
16.00000 2.830
16.02000 1.833
16.04000 11.392
16.06000 10.440
16.08000 5.761
16.10000 5.448
16.12000 5.315
16.14000 3.108
16.16000 1.335
16.18000 5.268
16.20000 2.582
16.22000 1.415
16.24000 -0.794
16.26000 1.814
16.28000 2.128
16.30000 -0.935
16.32000 -2.238
16.34000 11.222
16.36000 16.631
16.38000 12.672
16.40000 14.822
16.42000 12.341
16.44000 12.275
16.46000 15.443
16.48000 9.345
16.50000 10.310
16.52000 9.193
16.54000 4.211
16.56000 1.024
16.58000 1.843
16.60000 -2.110
16.62000 5.107
16.64000 11.337
16.66000 9.723
16.68000 8.272
16.70000 2.472
16.72000 3.038
16.74000 10.944
16.76000 10.604
16.78000 7.968
16.80000 -3.384
16.82000 -4.384
16.84000 -1.003
16.86000 11.305
16.88000 9.629
16.90000 5.713
16.92000 7.812
16.94000 8.660
16.96000 0.657
16.98000 -1.386
17.00000 4.459
17.02000 8.017
17.04000 10.448
17.06000 11.347
17.08000 2.139
17.10000 -2.593
17.12000 -4.071
17.14000 -0.623
17.16000 -3.605
17.18000 -4.365
17.20000 -0.114
17.22000 3.424
17.24000 8.991
17.26000 13.401
17.28000 10.132
17.30000 7.093
17.32000 10.703
17.34000 11.352
17.36000 2.942
17.38000 3.790
17.40000 2.510
17.42000 9.994
17.44000 12.181
17.46000 5.825
17.48000 3.694
17.50000 5.019
17.52000 6.389
17.54000 8.446
17.56000 8.216
17.58000 11.660
17.60000 5.550
17.62000 6.329
17.64000 7.034
17.66000 9.154
17.68000 12.471
17.70000 7.992
17.72000 8.648
17.74000 9.668
17.76000 5.876
17.78000 7.032
17.80000 6.111
17.82000 -2.735
17.84000 -0.908
17.86000 2.416
17.88000 4.803
17.90000 3.260
17.92000 5.008
17.94000 0.847
17.96000 2.934
17.98000 4.920
18.00000 1.679
18.02000 -0.198
18.04000 2.905
18.06000 8.997
18.08000 6.214
18.10000 3.386
18.12000 5.711
18.14000 3.386
18.16000 0.083
18.18000 3.301
18.20000 8.658
18.22000 0.562
18.24000 4.360
18.26000 5.666
18.28000 -2.615
18.30000 5.008
18.32000 5.712
18.34000 2.385
18.36000 2.132
18.38000 -0.059
18.40000 2.676
18.42000 5.197
18.44000 8.824
18.46000 6.330
18.48000 5.467
18.50000 5.418
18.52000 1.592
18.54000 -2.990
18.56000 -0.080
18.58000 2.537
18.60000 3.037
18.62000 2.694
18.64000 0.839
18.66000 6.560
18.68000 5.231
18.70000 6.913
18.72000 9.370
18.74000 -0.779
18.76000 -4.273
18.78000 1.001
18.80000 12.046
18.82000 6.178
18.84000 2.910
18.86000 7.681
18.88000 10.125
18.90000 13.314
18.92000 2.109
18.94000 3.492
18.96000 -2.936
18.98000 -4.258
19.00000 -0.269
19.02000 3.037
19.04000 4.891
19.06000 0.310
19.08000 -2.514
19.10000 -2.151
19.12000 1.338
19.14000 2.844
19.16000 -0.320
19.18000 2.537
19.20000 7.699
19.22000 7.641
19.24000 2.498
19.26000 6.892
19.28000 5.858
19.30000 1.254
19.32000 3.819
19.34000 2.241
19.36000 2.205
19.38000 3.077
19.40000 5.401
19.42000 2.922
19.44000 3.323
19.46000 2.382
19.48000 2.648
19.50000 -3.824
19.52000 -0.072
19.54000 2.940
19.56000 7.385
19.58000 5.619
19.60000 4.240
19.62000 5.720
19.64000 -0.854
19.66000 0.597
19.68000 2.567
19.70000 5.550
19.72000 5.922
19.74000 8.793
19.76000 -0.501
19.78000 5.639
19.80000 9.498
19.82000 11.683
19.84000 10.816
19.86000 4.532
19.88000 -3.135
19.90000 3.540
19.92000 8.786
19.94000 10.695
19.96000 1.269
19.98000 -3.316
20.00000 -1.980
20.02000 1.637
20.04000 2.023
20.06000 0.641
20.08000 -4.204
20.10000 0.911
20.12000 10.156
20.14000 6.127
20.16000 1.355
20.18000 1.462
20.20000 6.929
20.22000 7.450
20.24000 3.825
20.26000 0.626
20.28000 7.989
20.30000 10.455
20.32000 10.982
20.34000 2.769
20.36000 2.163
20.38000 8.844
20.40000 4.687
20.42000 -0.505
20.44000 -2.217
20.46000 0.240
20.48000 -0.182
20.50000 -2.370
20.52000 -2.035
20.54000 -0.830
20.56000 3.057
20.58000 8.956
20.60000 14.272
20.62000 15.917
20.64000 13.177
20.66000 3.864
20.68000 5.527
20.70000 2.409
20.72000 3.466
20.74000 0.195
20.76000 -4.170
20.78000 4.726
20.80000 7.229
20.82000 3.088
20.84000 3.583
20.86000 1.996
20.88000 4.327
20.90000 8.484
20.92000 4.152
20.94000 -3.564
20.96000 0.152
20.98000 -1.264
21.00000 -0.233
21.02000 2.048
21.04000 -0.108
21.06000 4.013
21.08000 1.837
21.10000 9.956
21.12000 4.419
21.14000 -1.342
21.16000 -3.477
21.18000 6.461
21.20000 6.841
21.22000 4.796
21.24000 5.147
21.26000 0.983
21.28000 0.436
21.30000 0.821
21.32000 6.888
21.34000 2.887
21.36000 -2.319
21.38000 -0.236
21.40000 0.332
21.42000 5.891
21.44000 -1.281
21.46000 -0.674
21.48000 2.719
21.50000 2.954
21.52000 2.553
21.54000 4.810
21.56000 4.333
21.58000 6.010
21.60000 7.050
21.62000 6.004
21.64000 0.925
21.66000 1.635
21.68000 2.455
21.70000 1.065
21.72000 5.331
21.74000 8.734
21.76000 9.749
21.78000 6.902
21.80000 5.657
21.82000 1.059
21.84000 1.207
21.86000 2.340
21.88000 -2.939
21.90000 0.404
21.92000 10.322
21.94000 7.072
21.96000 1.273
21.98000 3.314
22.00000 6.870
22.02000 6.641
22.04000 5.019
22.06000 1.721
22.08000 4.017
22.10000 1.095
22.12000 5.808
22.14000 3.489
22.16000 8.840
22.18000 8.907
22.20000 6.634
22.22000 3.858
22.24000 7.925
22.26000 5.243
22.28000 2.037
22.30000 -1.217
22.32000 -4.063
22.34000 6.333
22.36000 4.654
22.38000 7.189
22.40000 6.667
22.42000 -0.818
22.44000 0.647
22.46000 2.236
22.48000 -1.127
22.50000 -1.916
22.52000 0.655
22.54000 6.784
22.56000 9.029
22.58000 4.288
22.60000 4.327
22.62000 2.184
22.64000 0.448
22.66000 2.923
22.68000 6.835
22.70000 6.789
22.72000 6.524
22.74000 3.923
22.76000 -0.299
22.78000 1.191
22.80000 7.213
22.82000 1.182
22.84000 1.410
22.86000 0.836
22.88000 3.786
22.90000 3.638
22.92000 5.145
22.94000 3.792
22.96000 3.280
22.98000 5.015
23.00000 1.015
23.02000 -1.947
23.04000 1.409
23.06000 7.513
23.08000 10.134
23.10000 5.406
23.12000 -1.737
23.14000 0.696
23.16000 0.044
23.18000 7.020
23.20000 4.088
23.22000 0.685
23.24000 5.520
23.26000 1.545
23.28000 12.870
23.30000 8.508
23.32000 6.103
23.34000 6.117
23.36000 5.132
23.38000 2.607
23.40000 1.068
23.42000 3.941
23.44000 5.414
23.46000 0.652
23.48000 -0.737
23.50000 2.611
23.52000 3.248
23.54000 3.711
23.56000 5.140
23.58000 0.576
23.60000 0.690
23.62000 4.940
23.64000 4.654
23.66000 0.214
23.68000 1.811
23.70000 2.465
23.72000 6.364
23.74000 9.569
23.76000 11.482
23.78000 5.646
23.80000 2.187
23.82000 2.964
23.84000 7.326
23.86000 6.687
23.88000 -0.988
23.90000 5.673
23.92000 5.850
23.94000 5.013
23.96000 3.592
23.98000 4.581
24.00000 6.634
24.02000 2.370
24.04000 4.065
24.06000 3.721
24.08000 8.217
24.10000 10.963
24.12000 9.752
24.14000 3.668
24.16000 2.577
24.18000 4.481
24.20000 4.468
24.22000 4.332
24.24000 0.540
24.26000 1.173
24.28000 4.172
24.30000 5.460
24.32000 7.008
24.34000 9.904
24.36000 3.050
24.38000 1.788
24.40000 9.028
24.42000 4.140
24.44000 1.490
24.46000 6.903
24.48000 5.082
24.50000 5.008
24.52000 1.842
24.54000 6.757
24.56000 10.077
24.58000 9.443
24.60000 5.554
24.62000 6.412
24.64000 7.348
24.66000 2.133
24.68000 4.230
24.70000 1.327
24.72000 -3.924
24.74000 3.091
24.76000 5.054
24.78000 6.248
24.80000 10.735
24.82000 10.287
24.84000 10.804
24.86000 5.679
24.88000 4.332
24.90000 6.965
24.92000 8.898
24.94000 1.056
24.96000 -0.278
24.98000 2.232
25.00000 2.293
25.02000 0.448
25.04000 0.596
25.06000 5.429
25.08000 7.017
25.10000 8.267
25.12000 0.093
25.14000 -0.482
25.16000 6.141
25.18000 5.798
25.20000 1.728
25.22000 -1.209
25.24000 -2.959
25.26000 3.743
25.28000 5.585
25.30000 8.916
25.32000 5.854
25.34000 5.313
25.36000 3.744
25.38000 3.293
25.40000 -1.003
25.42000 -0.286
25.44000 4.774
25.46000 4.689
25.48000 7.250
25.50000 3.223
25.52000 1.592
25.54000 1.543
25.56000 -1.454
25.58000 4.776
25.60000 -0.138
25.62000 -0.575
25.64000 1.875
25.66000 2.524
25.68000 1.242
25.70000 1.828
25.72000 0.745
25.74000 -1.404
25.76000 -0.677
25.78000 2.899
25.80000 4.527
25.82000 4.026
25.84000 9.207
25.86000 10.673
25.88000 5.790
25.90000 2.250
25.92000 0.327
25.94000 2.615
25.96000 -3.744
25.98000 0.923
26.00000 3.363
26.02000 2.058
26.04000 2.270
26.06000 -0.171
26.08000 5.088
26.10000 0.399
26.12000 -0.833
26.14000 -3.882
26.16000 -2.509
26.18000 0.782
26.20000 -2.740
26.22000 -0.725
26.24000 8.396
26.26000 -0.294
26.28000 0.721
26.30000 4.636
26.32000 5.976
26.34000 -0.191
26.36000 -0.880
26.38000 2.713
26.40000 -1.737
26.42000 3.147
26.44000 2.668
26.46000 2.219
26.48000 3.969
26.50000 4.239
26.52000 0.111
26.54000 1.540
26.56000 -0.148
26.58000 -3.438
26.60000 -0.177
26.62000 5.646
26.64000 5.808
26.66000 9.707
26.68000 7.776
26.70000 4.083
26.72000 2.663
26.74000 2.433
26.76000 -3.453
26.78000 -2.236
26.80000 -1.491
26.82000 5.683
26.84000 7.211
26.86000 1.954
26.88000 3.249
26.90000 2.232
26.92000 1.316
26.94000 4.457
26.96000 2.202
26.98000 -0.722
27.00000 1.278
27.02000 3.324
27.04000 4.537
27.06000 11.156
27.08000 1.386
27.10000 3.887
27.12000 3.731
27.14000 3.179
27.16000 7.914
27.18000 7.489
27.20000 5.707
27.22000 0.576
27.24000 3.194
27.26000 3.219
27.28000 3.657
27.30000 0.342
27.32000 -0.754
27.34000 -3.787
27.36000 -3.002
27.38000 0.741
27.40000 -0.510
27.42000 2.401
27.44000 1.674
27.46000 -3.013
27.48000 0.103
27.50000 5.917
27.52000 7.767
27.54000 9.023
27.56000 6.947
27.58000 5.161
27.60000 4.592
27.62000 3.319
27.64000 4.004
27.66000 2.579
27.68000 -1.823
27.70000 -1.105
27.72000 1.147
27.74000 5.757
27.76000 5.662
27.78000 4.375
27.80000 4.056
27.82000 1.689
27.84000 2.800
27.86000 5.128
27.88000 1.632
27.90000 0.959
27.92000 1.636
27.94000 -0.225
27.96000 -2.988
27.98000 -0.407
28.00000 0.598
28.02000 3.021
28.04000 7.641
28.06000 4.922
28.08000 3.347
28.10000 1.516
28.12000 8.960
28.14000 9.005
28.16000 2.909
28.18000 0.309
28.20000 2.901
28.22000 6.108
28.24000 0.610
28.26000 0.716
28.28000 -1.578
28.30000 -1.982
28.32000 5.183
28.34000 3.276
28.36000 5.338
28.38000 3.986
28.40000 6.154
28.42000 2.821
28.44000 0.629
28.46000 1.253
28.48000 5.968
28.50000 5.773
28.52000 4.431
28.54000 7.992
28.56000 5.388
28.58000 1.850
28.60000 2.102
28.62000 -0.086
28.64000 0.768
28.66000 6.049
28.68000 5.906
28.70000 1.403
28.72000 -0.243
28.74000 1.180
28.76000 6.800
28.78000 1.779
28.80000 1.702
28.82000 0.209
28.84000 -3.738
28.86000 1.743
28.88000 3.096
28.90000 -0.981
28.92000 -0.208
28.94000 6.036
28.96000 9.547
28.98000 6.815
29.00000 4.609
29.02000 1.006
29.04000 0.044
29.06000 -0.542
29.08000 1.008
29.10000 2.282
29.12000 1.421
29.14000 4.024
29.16000 1.643
29.18000 0.911
29.20000 7.591
29.22000 9.409
29.24000 4.943
29.26000 9.489
29.28000 5.072
29.30000 4.208
29.32000 1.164
29.34000 4.035
29.36000 1.457
29.38000 -3.256
29.40000 0.344
29.42000 3.578
29.44000 3.755
29.46000 2.574
29.48000 2.958
29.50000 6.324
29.52000 4.342
29.54000 5.345
29.56000 4.729
29.58000 5.312
29.60000 5.863
29.62000 3.143
29.64000 6.441
29.66000 4.391
29.68000 5.879
29.70000 8.387
29.72000 3.124
29.74000 0.997
29.76000 1.506
29.78000 6.788
29.80000 4.795
29.82000 6.425
29.84000 6.900
29.86000 7.358
29.88000 6.473
29.90000 1.037
29.92000 -3.652
29.94000 2.049
29.96000 4.376
29.98000 8.248
30.00000 8.800
30.02000 9.287
30.04000 6.916
30.06000 9.638
30.08000 8.571
30.10000 5.944
30.12000 7.624
30.14000 4.498
30.16000 -2.506
30.18000 -0.314
30.20000 10.014
30.22000 7.566
30.24000 5.328
30.26000 5.845
30.28000 13.414
30.30000 9.961
30.32000 -0.157
30.34000 3.935
30.36000 3.886
30.38000 4.765
30.40000 7.019
30.42000 6.885
30.44000 5.884
30.46000 0.922
30.48000 -2.135
30.50000 0.037
30.52000 1.576
30.54000 3.496
30.56000 5.321
30.58000 0.406
30.60000 0.900
30.62000 0.932
30.64000 3.158
30.66000 0.398
30.68000 2.499
30.70000 4.952
30.72000 4.382
30.74000 3.235
30.76000 1.838
30.78000 -0.845
30.80000 -3.648
30.82000 2.354
30.84000 3.956
30.86000 0.220
30.88000 -0.007
30.90000 4.267
30.92000 5.810
30.94000 0.271
30.96000 -0.270
30.98000 5.751
31.00000 10.992
31.02000 9.950
31.04000 4.692
31.06000 -2.513
31.08000 0.871
31.10000 -3.004
31.12000 0.850
31.14000 3.045
31.16000 0.299
31.18000 -1.363
31.20000 0.776
31.22000 -0.658
31.24000 3.749
31.26000 7.237
31.28000 6.078
31.30000 4.064
31.32000 4.102
31.34000 4.308
31.36000 4.859
31.38000 5.260
31.40000 0.502
31.42000 5.783
31.44000 5.400
31.46000 4.072
31.48000 -0.893
31.50000 1.162
31.52000 4.824
31.54000 1.321
31.56000 3.802
31.58000 -0.179
31.60000 -1.439
31.62000 -1.449
31.64000 2.737
31.66000 3.109
31.68000 0.834
31.70000 -2.419
31.72000 -0.446
31.74000 5.392
31.76000 1.679
31.78000 -0.686
31.80000 -0.019
31.82000 2.603
31.84000 5.142
31.86000 -3.617
31.88000 2.968
31.90000 6.909
31.92000 2.485
31.94000 1.957
31.96000 5.179
31.98000 6.004
32.00000 5.792
32.02000 2.495
32.04000 1.363
32.06000 2.636
32.08000 6.852
32.10000 4.373
32.12000 1.520
32.14000 1.969
32.16000 -0.944
32.18000 -3.614
32.20000 2.863
32.22000 -0.027
32.24000 -1.334
32.26000 -1.393
32.28000 -1.125
32.30000 -0.824
32.32000 1.251
32.34000 1.524
32.36000 0.902
32.38000 0.020
32.40000 2.330
32.42000 2.362
32.44000 1.110
32.46000 -1.912
32.48000 -1.422
32.50000 -0.955
32.52000 -3.022
32.54000 -3.265
32.56000 -2.083
32.58000 0.666
32.60000 0.066
32.62000 4.452
32.64000 5.978
32.66000 5.890
32.68000 -0.101
32.70000 1.099
32.72000 2.605
32.74000 -0.420
32.76000 2.006
32.78000 4.962
32.80000 4.429
32.82000 0.192
32.84000 -0.484
32.86000 -2.035
32.88000 5.571
32.90000 0.898
32.92000 3.916
32.94000 2.380
32.96000 6.916
32.98000 3.237
33.00000 -0.683
33.02000 -2.527
33.04000 1.837
33.06000 3.450
33.08000 0.236
33.10000 -1.889
33.12000 -0.671
33.14000 1.764
33.16000 -0.233
33.18000 2.041
33.20000 -3.571
33.22000 0.723
33.24000 6.609
33.26000 3.682
33.28000 1.811
33.30000 2.681
33.32000 7.180
33.34000 7.938
33.36000 0.311
33.38000 2.879
33.40000 4.802
33.42000 3.537
33.44000 7.526
33.46000 4.006
33.48000 -0.771
33.50000 -2.306
33.52000 5.544
33.54000 9.975
33.56000 4.004
33.58000 -2.262
33.60000 2.133
33.62000 0.070
33.64000 -0.099
33.66000 4.830
33.68000 0.283
33.70000 -2.119
33.72000 1.108
33.74000 8.158
33.76000 5.439
33.78000 3.071
33.80000 6.122
33.82000 1.677
33.84000 1.530
33.86000 7.792
33.88000 8.174
33.90000 6.239
33.92000 8.068
33.94000 1.640
33.96000 2.748
33.98000 7.512
34.00000 10.106
34.02000 10.284
34.04000 8.044
34.06000 5.499
34.08000 2.372
34.10000 3.081
34.12000 6.954
34.14000 6.871
34.16000 4.389
34.18000 7.371
34.20000 2.500
34.22000 2.163
34.24000 8.089
34.26000 12.874
34.28000 5.076
34.30000 5.656
34.32000 5.515
34.34000 2.921
34.36000 2.861
34.38000 1.530
34.40000 6.947
34.42000 6.665
34.44000 6.325
34.46000 7.343
34.48000 1.566
34.50000 -3.533
34.52000 3.440
34.54000 5.087
34.56000 5.527
34.58000 3.221
34.60000 5.124
34.62000 8.207
34.64000 10.468
34.66000 6.360
34.68000 0.970
34.70000 5.436
34.72000 2.175
34.74000 0.236
34.76000 1.138
34.78000 2.214
34.80000 6.246
34.82000 2.657
34.84000 0.500
34.86000 0.516
34.88000 3.809
34.90000 0.554
34.92000 0.105
34.94000 3.477
34.96000 3.808
34.98000 2.327
35.00000 1.196
35.02000 2.846
35.04000 1.426
35.06000 1.348
35.08000 0.059
35.10000 1.103
35.12000 -0.639
35.14000 0.417
35.16000 -0.964
35.18000 3.251
35.20000 1.814
35.22000 6.650
35.24000 3.398
35.26000 5.107
35.28000 4.272
35.30000 4.043
35.32000 5.922
35.34000 2.994
35.36000 -0.883
35.38000 -3.223
35.40000 -1.870
35.42000 2.989
35.44000 5.837
35.46000 4.866
35.48000 2.476
35.50000 3.093
35.52000 5.599
35.54000 2.244
35.56000 3.098
35.58000 8.419
35.60000 2.032
35.62000 -3.576
35.64000 0.343
35.66000 2.659
35.68000 2.868
35.70000 -2.009
35.72000 -1.473
35.74000 4.080
35.76000 2.880
35.78000 -3.577
35.80000 -1.098
35.82000 1.488
35.84000 0.106
35.86000 6.416
35.88000 3.114
35.90000 1.450
35.92000 2.392
35.94000 -3.201
35.96000 -3.583
35.98000 1.433
36.00000 5.842
36.02000 5.587
36.04000 5.134
36.06000 2.164
36.08000 0.427
36.10000 1.092
36.12000 -1.125
36.14000 -3.594
36.16000 -3.099
36.18000 -1.321
36.20000 0.573
36.22000 2.984
36.24000 -0.799
36.26000 0.421
36.28000 0.909
36.30000 2.607
36.32000 4.600
36.34000 5.267
36.36000 1.362
36.38000 -0.268
36.40000 -0.650
36.42000 3.642
36.44000 2.720
36.46000 -2.321
36.48000 -0.310
36.50000 3.266
36.52000 3.702
36.54000 4.295
36.56000 4.509
36.58000 2.975
36.60000 4.023
36.62000 5.361
36.64000 2.771
36.66000 3.795
36.68000 4.287
36.70000 4.494
36.72000 1.750
36.74000 1.580
36.76000 2.533
36.78000 0.781
36.80000 -0.646
36.82000 1.058
36.84000 3.573
36.86000 5.702
36.88000 6.027
36.90000 7.186
36.92000 4.450
36.94000 7.061
36.96000 4.025
36.98000 -2.067
37.00000 1.188
37.02000 1.498
37.04000 2.388
37.06000 3.846
37.08000 5.744
37.10000 9.886
37.12000 7.320
37.14000 6.898
37.16000 9.833
37.18000 8.967
37.20000 8.081
37.22000 6.039
37.24000 5.981
37.26000 8.923
37.28000 11.287
37.30000 13.378
37.32000 13.907
37.34000 11.199
37.36000 10.221
37.38000 14.217
37.40000 10.860
37.42000 9.825
37.44000 14.872
37.46000 12.956
37.48000 9.836
37.50000 12.231
37.52000 14.419
37.54000 16.275
37.56000 15.874
37.58000 18.144
37.60000 17.003
37.62000 15.676
37.64000 14.503
37.66000 12.591
37.68000 14.353
37.70000 12.953
37.72000 17.886
37.74000 27.305
37.76000 27.270
37.78000 23.034
37.80000 22.520
37.82000 24.511
37.84000 24.047
37.86000 24.041
37.88000 24.767
37.90000 23.660
37.92000 25.461
37.94000 25.222
37.96000 26.690
37.98000 27.397
38.00000 31.772
38.02000 32.881
38.04000 26.978
38.06000 33.073
38.08000 41.968
38.10000 38.536
38.12000 34.898
38.14000 35.625
38.16000 41.541
38.18000 46.189
38.20000 50.484
38.22000 52.487
38.24000 53.140
38.26000 55.987
38.28000 59.656
38.30000 57.334
38.32000 61.397
38.34000 64.758
38.36000 68.865
38.38000 72.328
38.40000 67.493
38.42000 70.925
38.44000 78.678
38.46000 86.830
38.48000 83.514
38.50000 86.222
38.52000 89.850
38.54000 96.587
38.56000 100.598
38.58000 107.962
38.60000 114.224
38.62000 122.770
38.64000 131.129
38.66000 135.879
38.68000 141.820
38.70000 151.713
38.72000 158.688
38.74000 166.077
38.76000 180.555
38.78000 193.073
38.80000 205.503
38.82000 217.292
38.84000 234.044
38.86000 242.550
38.88000 263.430
38.90000 279.889
38.92000 296.190
38.94000 306.203
38.96000 326.073
38.98000 348.507
39.00000 370.416
39.02000 395.912
39.04000 412.017
39.06000 426.828
39.08000 448.998
39.10000 468.180
39.12000 483.963
39.14000 489.585
39.16000 500.492
39.18000 513.062
39.20000 525.024
39.22000 537.031
39.24000 541.131
39.26000 552.055
39.28000 561.848
39.30000 554.523
39.32000 546.117
39.34000 534.519
39.36000 531.290
39.38000 528.498
39.40000 529.388
39.42000 517.168
39.44000 498.241
39.46000 483.383
39.48000 463.287
39.50000 444.199
39.52000 433.426
39.54000 414.529
39.56000 384.065
39.58000 378.070
39.60000 366.058
39.62000 346.336
39.64000 315.694
39.66000 298.389
39.68000 280.351
39.70000 266.502
39.72000 249.688
39.74000 230.533
39.76000 224.531
39.78000 208.040
39.80000 184.200
39.82000 175.494
39.84000 163.439
39.86000 161.604
39.88000 153.338
39.90000 139.282
39.92000 130.931
39.94000 124.841
39.96000 113.299
39.98000 106.549
40.00000 100.327
40.02000 94.653
40.04000 96.566
40.06000 88.082
40.08000 79.935
40.10000 76.581
40.12000 75.067
40.14000 69.972
40.16000 61.170
40.18000 57.716
40.20000 57.771
40.22000 55.768
40.24000 56.015
40.26000 47.650
40.28000 45.388
40.30000 40.526
40.32000 44.231
40.34000 46.487
40.36000 43.012
40.38000 40.174
40.40000 41.113
40.42000 35.860
40.44000 30.804
40.46000 27.703
40.48000 34.803
40.50000 33.047
40.52000 34.540
40.54000 36.644
40.56000 33.096
40.58000 23.583
40.60000 23.310
40.62000 22.964
40.64000 25.186
40.66000 22.311
40.68000 17.673
40.70000 18.241
40.72000 20.341
40.74000 19.784
40.76000 19.713
40.78000 17.054
40.80000 15.382
40.82000 16.870
40.84000 20.047
40.86000 13.191
40.88000 13.401
40.90000 10.174
40.92000 11.123
40.94000 12.295
40.96000 12.191
40.98000 17.128
41.00000 13.973
41.02000 11.489
41.04000 15.649
41.06000 11.724
41.08000 7.198
41.10000 7.751
41.12000 8.505
41.14000 8.782
41.16000 10.012
41.18000 6.225
41.20000 5.588
41.22000 3.389
41.24000 3.750
41.26000 4.541
41.28000 7.456
41.30000 8.094
41.32000 6.598
41.34000 4.960
41.36000 4.008
41.38000 2.122
41.40000 8.639
41.42000 8.739
41.44000 4.825
41.46000 5.609
41.48000 3.881
41.50000 4.934
41.52000 4.477
41.54000 4.926
41.56000 2.480
41.58000 0.080
41.60000 3.274
41.62000 4.581
41.64000 6.228
41.66000 5.128
41.68000 3.667
41.70000 1.461
41.72000 1.497
41.74000 -0.559
41.76000 2.423
41.78000 3.444
41.80000 2.941
41.82000 3.399
41.84000 2.996
41.86000 2.297
41.88000 6.547
41.90000 5.840
41.92000 0.879
41.94000 5.695
41.96000 8.787
41.98000 8.082
42.00000 8.079
42.02000 4.705
42.04000 2.439
42.06000 1.520
42.08000 -3.400
42.10000 -0.807
42.12000 6.951
42.14000 4.172
42.16000 2.997
42.18000 6.312
42.20000 0.449
42.22000 0.586
42.24000 1.604
42.26000 -0.221
42.28000 0.683
42.30000 0.370
42.32000 2.937
42.34000 3.525
42.36000 -0.496
42.38000 1.763
42.40000 0.254
42.42000 -0.285
42.44000 0.700
42.46000 2.688
42.48000 3.099
42.50000 2.047
42.52000 2.525
42.54000 0.428
42.56000 -0.044
42.58000 -0.681
42.60000 5.033
42.62000 7.811
42.64000 4.638
42.66000 0.792
42.68000 2.065
42.70000 -1.632
42.72000 -0.645
42.74000 -2.074
42.76000 1.719
42.78000 0.988
42.80000 0.038
42.82000 -1.479
42.84000 1.483
42.86000 -0.801
42.88000 0.251
42.90000 0.608
42.92000 0.569
42.94000 -0.369
42.96000 1.358
42.98000 0.431
43.00000 3.616
43.02000 4.062
43.04000 2.369
43.06000 4.971
43.08000 5.066
43.10000 2.090
43.12000 -3.290
43.14000 -2.384
43.16000 -1.397
43.18000 0.725
43.20000 5.272
43.22000 5.842
43.24000 4.074
43.26000 3.643
43.28000 4.607
43.30000 1.168
43.32000 -3.265
43.34000 -0.514
43.36000 1.312
43.38000 2.432
43.40000 -1.049
43.42000 1.593
43.44000 2.085
43.46000 1.879
43.48000 3.965
43.50000 3.182
43.52000 0.501
43.54000 -2.477
43.56000 0.251
43.58000 1.828
43.60000 -1.283
43.62000 -2.107
43.64000 -3.258
43.66000 1.138
43.68000 2.719
43.70000 2.740
43.72000 1.205
43.74000 1.528
43.76000 -3.254
43.78000 -0.394
43.80000 3.729
43.82000 1.539
43.84000 -1.478
43.86000 -0.652
43.88000 1.314
43.90000 1.095
43.92000 2.008
43.94000 -3.162
43.96000 0.121
43.98000 2.309
44.00000 0.952
44.02000 0.280
44.04000 0.106
44.06000 -1.692
44.08000 -0.482
44.10000 1.401
44.12000 0.886
44.14000 0.088
44.16000 -1.097
44.18000 -1.994
44.20000 1.243
44.22000 2.664
44.24000 1.942
44.26000 -1.443
44.28000 0.027
44.30000 -2.906
44.32000 -0.725
44.34000 -0.764
44.36000 1.365
44.38000 3.605
44.40000 0.658
44.42000 4.129
44.44000 6.855
44.46000 2.214
44.48000 3.506
44.50000 5.710
44.52000 0.214
44.54000 0.829
44.56000 0.115
44.58000 1.136
44.60000 5.678
44.62000 7.949
44.64000 6.490
44.66000 0.842
44.68000 2.295
44.70000 -0.731
44.72000 0.978
44.74000 5.814
44.76000 9.137
44.78000 9.186
44.80000 8.350
44.82000 1.681
44.84000 2.912
44.86000 10.128
44.88000 10.569
44.90000 6.669
44.92000 9.744
44.94000 12.961
44.96000 16.308
44.98000 14.256
45.00000 12.811
45.02000 12.969
45.04000 13.693
45.06000 15.184
45.08000 16.143
45.10000 15.676
45.12000 16.087
45.14000 19.206
45.16000 22.432
45.18000 21.433
45.20000 20.633
45.22000 24.037
45.24000 25.197
45.26000 29.685
45.28000 31.111
45.30000 32.330
45.32000 32.330
45.34000 31.660
45.36000 38.000
45.38000 37.243
45.40000 36.697
45.42000 35.947
45.44000 40.875
45.46000 40.202
45.48000 42.766
45.50000 44.871
45.52000 46.653
45.54000 46.916
45.56000 46.846
45.58000 52.804
45.60000 54.221
45.62000 52.033
45.64000 53.748
45.66000 53.695
45.68000 57.498
45.70000 64.667
45.72000 63.398
45.74000 57.790
45.76000 60.482
45.78000 57.058
45.80000 58.016
45.82000 60.759
45.84000 63.362
45.86000 59.845
45.88000 63.600
45.90000 64.241
45.92000 65.453
45.94000 55.610
45.96000 56.024
45.98000 60.360
46.00000 57.563
46.02000 59.347
46.04000 60.234
46.06000 62.006
46.08000 58.450
46.10000 60.747
46.12000 60.253
46.14000 52.746
46.16000 48.981
46.18000 46.219
46.20000 45.974
46.22000 45.400
46.24000 40.744
46.26000 42.184
46.28000 39.825
46.30000 37.048
46.32000 34.346
46.34000 36.620
46.36000 34.159
46.38000 31.199
46.40000 24.485
46.42000 22.775
46.44000 24.457
46.46000 25.156
46.48000 25.559
46.50000 20.991
46.52000 15.726
46.54000 15.741
46.56000 17.111
46.58000 12.605
46.60000 10.226
46.62000 12.207
46.64000 9.642
46.66000 9.973
46.68000 12.794
46.70000 11.730
46.72000 9.676
46.74000 9.882
46.76000 6.649
46.78000 4.367
46.80000 2.046
46.82000 5.710
46.84000 4.217
46.86000 0.624
46.88000 3.937
46.90000 5.883
46.92000 3.907
46.94000 5.768
46.96000 0.768
46.98000 -0.966
47.00000 2.007
47.02000 2.152
47.04000 4.669
47.06000 5.199
47.08000 -1.190
47.10000 -2.569
47.12000 -2.937
47.14000 -1.373
47.16000 -2.842
47.18000 -1.817
47.20000 -2.010
47.22000 1.849
47.24000 2.905
47.26000 4.188
47.28000 4.508
47.30000 0.589
47.32000 1.266
47.34000 1.192
47.36000 -2.891
47.38000 2.194
47.40000 2.954
47.42000 -1.862
47.44000 -0.032
47.46000 0.739
47.48000 -0.422
47.50000 -0.267
47.52000 1.374
47.54000 -0.614
47.56000 1.091
47.58000 1.668
47.60000 1.080
47.62000 1.001
47.64000 1.128
47.66000 1.572
47.68000 1.850
47.70000 0.028
47.72000 -2.476
47.74000 -0.593
47.76000 2.395
47.78000 4.535
47.80000 -1.232
47.82000 -1.231
47.84000 1.387
47.86000 2.133
47.88000 0.778
47.90000 7.092
47.92000 5.324
47.94000 0.069
47.96000 3.153
47.98000 3.411
48.00000 -0.988
48.02000 -2.661
48.04000 -2.591
48.06000 -0.285
48.08000 -1.271
48.10000 0.136
48.12000 2.991
48.14000 3.799
48.16000 5.612
48.18000 -0.272
48.20000 -2.252
48.22000 -1.238
48.24000 0.821
48.26000 -0.091
48.28000 0.415
48.30000 2.116
48.32000 -2.778
48.34000 0.809
48.36000 1.221
48.38000 1.506
48.40000 4.003
48.42000 1.422
48.44000 1.427
48.46000 1.413
48.48000 3.096
48.50000 0.226
48.52000 1.798
48.54000 5.399
48.56000 3.569
48.58000 3.355
48.60000 7.005
48.62000 4.952
48.64000 2.758
48.66000 2.631
48.68000 -2.742
48.70000 1.348
48.72000 1.824
48.74000 2.284
48.76000 5.992
48.78000 3.663
48.80000 8.173
48.82000 4.199
48.84000 1.584
48.86000 -2.315
48.88000 -2.726
48.90000 3.248
48.92000 3.585
48.94000 0.451
48.96000 -2.478
48.98000 0.177
49.00000 2.844
49.02000 5.763
49.04000 2.754
49.06000 3.428
49.08000 1.251
49.10000 -0.507
49.12000 0.255
49.14000 2.998
49.16000 2.828
49.18000 -1.053
49.20000 1.687
49.22000 4.050
49.24000 4.542
49.26000 3.374
49.28000 1.709
49.30000 1.280
49.32000 1.379
49.34000 1.797
49.36000 -0.608
49.38000 4.635
49.40000 3.774
49.42000 0.471
49.44000 1.278
49.46000 6.746
49.48000 10.041
49.50000 2.073
49.52000 2.089
49.54000 0.327
49.56000 1.503
49.58000 2.443
49.60000 5.554
49.62000 6.771
49.64000 4.279
49.66000 4.774
49.68000 5.651
49.70000 3.868
49.72000 3.217
49.74000 -1.805
49.76000 0.295
49.78000 -1.347
49.80000 -2.456
49.82000 -2.072
49.84000 2.420
49.86000 4.808
49.88000 1.250
49.90000 2.547
49.92000 1.491
49.94000 0.030
49.96000 0.433
49.98000 -1.870
50.00000 1.489
50.02000 4.582
50.04000 4.923
50.06000 2.614
50.08000 3.492
50.10000 -2.415
50.12000 -1.481
50.14000 -0.690
50.16000 -1.668
50.18000 2.215
50.20000 5.653
50.22000 8.320
50.24000 7.615
50.26000 1.866
50.28000 -1.659
50.30000 -2.121
50.32000 0.382
50.34000 5.948
50.36000 5.519
50.38000 6.249
50.40000 3.261
50.42000 3.151
50.44000 5.353
50.46000 4.271
50.48000 -2.644
50.50000 -1.992
50.52000 1.870
50.54000 4.224
50.56000 1.754
50.58000 2.048
50.60000 5.505
50.62000 6.767
50.64000 4.485
50.66000 2.947
50.68000 3.487
50.70000 1.505
50.72000 5.349
50.74000 5.760
50.76000 4.969
50.78000 5.078
50.80000 8.009
50.82000 7.318
50.84000 4.729
50.86000 2.175
50.88000 1.735
50.90000 3.486
50.92000 -0.575
50.94000 1.034
50.96000 2.744
50.98000 2.976
51.00000 5.585
51.02000 2.143
51.04000 3.075
51.06000 5.785
51.08000 4.061
51.10000 3.167
51.12000 4.428
51.14000 5.101
51.16000 6.086
51.18000 1.567
51.20000 0.837
51.22000 -0.137
51.24000 -1.308
51.26000 2.754
51.28000 3.213
51.30000 2.892
51.32000 4.331
51.34000 5.178
51.36000 3.167
51.38000 0.541
51.40000 3.534
51.42000 4.317
51.44000 4.265
51.46000 2.540
51.48000 2.119
51.50000 4.680
51.52000 3.003
51.54000 -0.469
51.56000 1.975
51.58000 -2.517
51.60000 -2.636
51.62000 -0.438
51.64000 -0.035
51.66000 2.479
51.68000 3.415
51.70000 1.429
51.72000 0.832
51.74000 1.162
51.76000 3.598
51.78000 -0.121
51.80000 1.680
51.82000 -2.633
51.84000 1.129
51.86000 -0.908
51.88000 0.773
51.90000 3.610
51.92000 5.249
51.94000 2.825
51.96000 3.108
51.98000 4.435
52.00000 1.887
52.02000 2.012
52.04000 0.977
52.06000 0.896
52.08000 1.767
52.10000 2.770
52.12000 3.458
52.14000 1.867
52.16000 3.338
52.18000 0.421
52.20000 -1.360
52.22000 4.137
52.24000 3.267
52.26000 4.765
52.28000 4.047
52.30000 4.617
52.32000 2.550
52.34000 1.841
52.36000 -0.917
52.38000 2.874
52.40000 2.095
52.42000 1.583
52.44000 2.893
52.46000 5.392
52.48000 2.854
52.50000 1.586
52.52000 1.585
52.54000 1.233
52.56000 -0.319
52.58000 1.635
52.60000 4.956
52.62000 5.001
52.64000 1.420
52.66000 0.873
52.68000 4.667
52.70000 4.467
52.72000 2.214
52.74000 6.005
52.76000 6.124
52.78000 4.297
52.80000 1.041
52.82000 1.497
52.84000 3.287
52.86000 2.201
52.88000 3.038
52.90000 2.855
52.92000 -0.026
52.94000 -2.581
52.96000 -1.771
52.98000 -1.468
53.00000 -1.550
53.02000 -0.177
53.04000 -1.797
53.06000 -2.574
53.08000 3.228
53.10000 2.816
53.12000 2.343
53.14000 5.609
53.16000 3.829
53.18000 3.864
53.20000 3.931
53.22000 -0.310
53.24000 1.586
53.26000 -1.727
53.28000 2.022
53.30000 5.547
53.32000 1.129
53.34000 0.807
53.36000 0.810
53.38000 -0.468
53.40000 2.777
53.42000 -0.540
53.44000 -2.567
53.46000 4.377
53.48000 7.478
53.50000 6.866
53.52000 2.411
53.54000 2.578
53.56000 2.378
53.58000 5.122
53.60000 5.766
53.62000 3.722
53.64000 4.060
53.66000 4.618
53.68000 2.647
53.70000 1.855
53.72000 1.691
53.74000 3.594
53.76000 3.793
53.78000 0.840
53.80000 4.974
53.82000 5.339
53.84000 0.496
53.86000 -0.681
53.88000 1.704
53.90000 1.338
53.92000 1.256
53.94000 3.507
53.96000 0.987
53.98000 0.940
54.00000 2.430
54.02000 4.848
54.04000 0.353
54.06000 1.063
54.08000 0.237
54.10000 1.102
54.12000 2.417
54.14000 7.814
54.16000 2.066
54.18000 3.444
54.20000 -1.258
54.22000 -1.313
54.24000 1.037
54.26000 1.249
54.28000 -0.993
54.30000 0.447
54.32000 4.679
54.34000 4.656
54.36000 5.467
54.38000 5.131
54.40000 1.753
54.42000 0.537
54.44000 3.528
54.46000 2.689
54.48000 1.253
54.50000 6.283
54.52000 6.117
54.54000 0.633
54.56000 0.396
54.58000 -0.207
54.60000 -0.353
54.62000 3.628
54.64000 6.789
54.66000 2.630
54.68000 2.489
54.70000 -1.029
54.72000 2.686
54.74000 1.090
54.76000 3.862
54.78000 4.500
54.80000 0.615
54.82000 -1.042
54.84000 1.409
54.86000 6.070
54.88000 6.574
54.90000 7.295
54.92000 3.967
54.94000 0.332
54.96000 -0.887
54.98000 1.710
55.00000 3.391
55.02000 2.282
55.04000 1.006
55.06000 3.904
55.08000 2.839
55.10000 0.713
55.12000 2.109
55.14000 1.390
55.16000 2.374
55.18000 3.116
55.20000 1.924
55.22000 2.694
55.24000 -0.841
55.26000 0.464
55.28000 -2.510
55.30000 -0.680
55.32000 3.964
55.34000 3.211
55.36000 3.230
55.38000 0.960
55.40000 2.303
55.42000 4.427
55.44000 8.526
55.46000 7.622
55.48000 3.223
55.50000 1.460
55.52000 2.838
55.54000 6.874
55.56000 7.340
55.58000 5.433
55.60000 0.625
55.62000 1.255
55.64000 5.894
55.66000 5.527
55.68000 0.873
55.70000 0.005
55.72000 1.507
55.74000 1.757
55.76000 2.574
55.78000 2.751
55.80000 5.184
55.82000 5.160
55.84000 6.616
55.86000 3.529
55.88000 2.968
55.90000 5.250
55.92000 2.506
55.94000 1.246
55.96000 0.151
55.98000 -2.502
56.00000 1.341
56.02000 7.344
56.04000 5.925
56.06000 5.130
56.08000 5.307
56.10000 5.584
56.12000 4.903
56.14000 3.944
56.16000 6.253
56.18000 1.958
56.20000 0.650
56.22000 6.041
56.24000 3.755
56.26000 2.935
56.28000 3.756
56.30000 2.357
56.32000 4.456
56.34000 5.458
56.36000 0.362
56.38000 3.918
56.40000 5.624
56.42000 6.328
56.44000 5.521
56.46000 2.004
56.48000 -1.819
56.50000 0.351
56.52000 4.765
56.54000 0.279
56.56000 -1.731
56.58000 -2.057
56.60000 2.006
56.62000 6.061
56.64000 1.593
56.66000 -0.235
56.68000 6.236
56.70000 2.673
56.72000 5.940
56.74000 5.118
56.76000 3.666
56.78000 1.980
56.80000 -0.982
56.82000 1.818
56.84000 2.175
56.86000 1.524
56.88000 0.055
56.90000 2.643
56.92000 3.124
56.94000 4.366
56.96000 2.250
56.98000 3.718
57.00000 2.754
57.02000 2.062
57.04000 2.569
57.06000 3.303
57.08000 5.403
57.10000 3.673
57.12000 5.033
57.14000 7.171
57.16000 5.417
57.18000 5.064
57.20000 3.154
57.22000 0.418
57.24000 -0.279
57.26000 1.457
57.28000 3.084
57.30000 1.527
57.32000 1.348
57.34000 -0.420
57.36000 2.534
57.38000 5.104
57.40000 -2.457
57.42000 -0.997
57.44000 5.457
57.46000 3.529
57.48000 1.615
57.50000 0.533
57.52000 0.620
57.54000 3.415
57.56000 3.152
57.58000 2.821
57.60000 6.402
57.62000 2.752
57.64000 4.092
57.66000 4.091
57.68000 1.774
57.70000 0.806
57.72000 7.091
57.74000 5.486
57.76000 2.094
57.78000 1.681
57.80000 -2.451
57.82000 0.724
57.84000 3.185
57.86000 0.713
57.88000 0.521
57.90000 0.314
57.92000 2.896
57.94000 2.196
57.96000 -0.824
57.98000 2.510
58.00000 1.619
58.02000 2.795
58.04000 3.928
58.06000 3.193
58.08000 1.221
58.10000 -1.352
58.12000 -1.833
58.14000 2.008
58.16000 1.796
58.18000 2.329
58.20000 0.348
58.22000 1.462
58.24000 -1.479
58.26000 -1.570
58.28000 0.871
58.30000 0.044
58.32000 0.019
58.34000 1.336
58.36000 -1.716
58.38000 1.556
58.40000 5.504
58.42000 4.308
58.44000 3.088
58.46000 2.080
58.48000 3.624
58.50000 3.195
58.52000 0.216
58.54000 2.013
58.56000 2.365
58.58000 1.081
58.60000 -1.898
58.62000 -2.384
58.64000 1.046
58.66000 3.997
58.68000 5.246
58.70000 3.644
58.72000 2.684
58.74000 2.703
58.76000 0.724
58.78000 0.269
58.80000 1.281
58.82000 1.989
58.84000 -1.864
58.86000 -1.687
58.88000 -2.432
58.90000 0.524
58.92000 2.423
58.94000 2.538
58.96000 1.158
58.98000 -0.983
59.00000 3.889
59.02000 5.410
59.04000 1.423
59.06000 -1.422
59.08000 -0.216
59.10000 3.989
59.12000 2.797
59.14000 3.681
59.16000 -1.032
59.18000 0.646
59.20000 0.363
59.22000 2.229
59.24000 2.275
59.26000 -0.355
59.28000 -1.068
59.30000 3.054
59.32000 3.180
59.34000 2.378
59.36000 1.175
59.38000 1.916
59.40000 2.200
59.42000 6.934
59.44000 6.304
59.46000 1.934
59.48000 1.162
59.50000 1.089
59.52000 1.375
59.54000 3.674
59.56000 4.648
59.58000 2.423
59.60000 -0.577
59.62000 -0.585
59.64000 1.753
59.66000 2.752
59.68000 1.289
59.70000 2.117
59.72000 2.440
59.74000 2.903
59.76000 2.081
59.78000 0.533
59.80000 0.906
59.82000 4.163
59.84000 4.504
59.86000 0.702
59.88000 5.066
59.90000 7.035
59.92000 3.301
59.94000 1.961
59.96000 2.363
59.98000 3.654
60.00000 0.328
60.02000 0.359
60.04000 -2.381
60.06000 -1.139
60.08000 1.887
60.10000 3.222
60.12000 3.964
60.14000 0.657
60.16000 0.005
60.18000 4.789
60.20000 3.566
60.22000 3.953
60.24000 5.849
60.26000 4.080
60.28000 1.012
60.30000 4.465
60.32000 3.813
60.34000 4.344
60.36000 2.317
60.38000 2.380
60.40000 -2.361
60.42000 -1.555
60.44000 1.798
60.46000 4.760
60.48000 3.855
60.50000 4.934
60.52000 2.568
60.54000 2.201
60.56000 0.652
60.58000 0.512
60.60000 0.648
60.62000 1.841
60.64000 1.472
60.66000 4.167
60.68000 4.381
60.70000 6.297
60.72000 3.804
60.74000 0.968
60.76000 -1.956
60.78000 -0.734
60.80000 2.778
60.82000 0.175
60.84000 1.024
60.86000 2.968
60.88000 6.598
60.90000 3.592
60.92000 4.202
60.94000 1.602
60.96000 0.365
60.98000 -1.258
61.00000 -1.158
61.02000 -1.955
61.04000 -0.482
61.06000 1.611
61.08000 1.202
61.10000 0.182
61.12000 -0.575
61.14000 -0.479
61.16000 0.829
61.18000 0.269
61.20000 3.501
61.22000 3.911
61.24000 4.368
61.26000 3.999
61.28000 2.165
61.30000 0.950
61.32000 0.522
61.34000 -1.712
61.36000 -0.975
61.38000 2.803
61.40000 2.447
61.42000 0.814
61.44000 -1.121
61.46000 -0.183
61.48000 0.347
61.50000 -0.455
61.52000 -2.192
61.54000 1.988
61.56000 1.629
61.58000 1.837
61.60000 2.236
61.62000 4.221
61.64000 3.015
61.66000 -1.761
61.68000 -0.555
61.70000 -0.873
61.72000 -2.348
61.74000 -1.391
61.76000 1.608
61.78000 5.462
61.80000 3.225
61.82000 4.628
61.84000 2.275
61.86000 3.924
61.88000 2.792
61.90000 1.018
61.92000 -0.066
61.94000 3.226
61.96000 2.430
61.98000 3.460
62.00000 1.953
62.02000 -1.736
62.04000 -1.320
62.06000 -0.294
62.08000 2.080
62.10000 2.675
62.12000 2.558
62.14000 4.923
62.16000 4.409
62.18000 0.646
62.20000 -1.183
62.22000 -2.312
62.24000 0.792
62.26000 1.588
62.28000 3.920
62.30000 0.819
62.32000 0.781
62.34000 0.454
62.36000 -1.238
62.38000 3.353
62.40000 2.555
62.42000 2.932
62.44000 -0.437
62.46000 -1.871
62.48000 -0.851
62.50000 1.091
62.52000 2.276
62.54000 -0.322
62.56000 3.316
62.58000 3.114
62.60000 3.598
62.62000 2.611
62.64000 1.429
62.66000 2.111
62.68000 0.952
62.70000 -0.046
62.72000 1.639
62.74000 -0.051
62.76000 -0.776
62.78000 0.777
62.80000 0.120
62.82000 3.212
62.84000 0.846
62.86000 1.768
62.88000 2.391
62.90000 2.891
62.92000 1.182
62.94000 1.285
62.96000 3.547
62.98000 3.411
63.00000 0.467
63.02000 0.789
63.04000 0.185
63.06000 2.392
63.08000 1.372
63.10000 1.756
63.12000 -2.095
63.14000 -0.399
63.16000 2.132
63.18000 1.879
63.20000 1.002
63.22000 6.192
63.24000 1.834
63.26000 -1.876
63.28000 0.353
63.30000 3.043
63.32000 2.594
63.34000 1.458
63.36000 1.356
63.38000 -1.437
63.40000 -2.309
63.42000 1.795
63.44000 2.505
63.46000 6.269
63.48000 6.197
63.50000 3.820
63.52000 4.135
63.54000 0.980
63.56000 2.784
63.58000 5.277
63.60000 4.712
63.62000 2.672
63.64000 -1.283
63.66000 0.465
63.68000 2.513
63.70000 5.527
63.72000 -0.009
63.74000 1.443
63.76000 1.400
63.78000 -2.289
63.80000 1.245
63.82000 2.020
63.84000 1.145
63.86000 3.104
63.88000 2.140
63.90000 -0.851
63.92000 3.351
63.94000 5.012
63.96000 3.445
63.98000 2.107
64.00000 0.018
64.02000 0.240
64.04000 3.187
64.06000 2.097
64.08000 1.497
64.10000 3.186
64.12000 4.817
64.14000 2.691
64.16000 1.905
64.18000 3.378
64.20000 0.491
64.22000 -1.932
64.24000 1.921
64.26000 1.006
64.28000 -1.213
64.30000 0.522
64.32000 3.490
64.34000 3.987
64.36000 -2.288
64.38000 -1.226
64.40000 2.195
64.42000 1.310
64.44000 3.785
64.46000 2.115
64.48000 2.640
64.50000 2.832
64.52000 2.704
64.54000 4.897
64.56000 5.472
64.58000 1.831
64.60000 1.065
64.62000 2.031
64.64000 2.992
64.66000 0.968
64.68000 -0.015
64.70000 -1.002
64.72000 -1.413
64.74000 -0.924
64.76000 0.119
64.78000 1.161
64.80000 -0.416
64.82000 2.087
64.84000 2.769
64.86000 1.124
64.88000 0.496
64.90000 2.548
64.92000 0.669
64.94000 5.382
64.96000 3.290
64.98000 2.889
65.00000 3.639
65.02000 4.968
65.04000 4.371
65.06000 1.545
65.08000 0.541
65.10000 0.390
65.12000 -0.338
65.14000 2.484
65.16000 5.220
65.18000 0.769
65.20000 -1.563
65.22000 -0.702
65.24000 2.468
65.26000 0.540
65.28000 -2.317
65.30000 -1.057
65.32000 -0.787
65.34000 0.681
65.36000 0.327
65.38000 0.305
65.40000 -1.608
65.42000 -1.647
65.44000 0.112
65.46000 0.645
65.48000 -0.426
65.50000 -1.046
65.52000 -0.337
65.54000 0.058
65.56000 0.084
65.58000 1.233
65.60000 -0.128
65.62000 1.904
65.64000 -0.358
65.66000 1.987
65.68000 4.457
65.70000 3.321
65.72000 2.634
65.74000 0.662
65.76000 1.061
65.78000 -1.200
65.80000 -2.314
65.82000 0.223
65.84000 1.667
65.86000 2.874
65.88000 2.985
65.90000 0.958
65.92000 0.340
65.94000 0.459
65.96000 1.014
65.98000 3.028
66.00000 2.643
66.02000 2.855
66.04000 0.982
66.06000 1.176
66.08000 3.039
66.10000 1.281
66.12000 3.114
66.14000 3.077
66.16000 3.220
66.18000 3.251
66.20000 5.538
66.22000 0.106
66.24000 0.405
66.26000 -0.492
66.28000 -1.316
66.30000 1.064
66.32000 2.050
66.34000 3.122
66.36000 3.102
66.38000 2.740
66.40000 5.448
66.42000 3.721
66.44000 3.959
66.46000 3.820
66.48000 3.398
66.50000 2.231
66.52000 2.135
66.54000 2.758
66.56000 4.330
66.58000 2.537
66.60000 3.956
66.62000 2.764
66.64000 0.967
66.66000 5.266
66.68000 4.626
66.70000 3.680
66.72000 3.081
66.74000 4.284
66.76000 2.830
66.78000 6.533
66.80000 5.069
66.82000 5.461
66.84000 5.923
66.86000 6.143
66.88000 5.114
66.90000 4.358
66.92000 2.283
66.94000 3.045
66.96000 2.204
66.98000 4.822
67.00000 4.772
67.02000 5.825
67.04000 2.705
67.06000 0.644
67.08000 3.714
67.10000 0.374
67.12000 -0.167
67.14000 2.248
67.16000 4.384
67.18000 5.307
67.20000 3.484
67.22000 3.137
67.24000 3.486
67.26000 4.167
67.28000 5.170
67.30000 4.412
67.32000 2.636
67.34000 4.487
67.36000 5.351
67.38000 2.607
67.40000 1.035
67.42000 3.418
67.44000 3.382
67.46000 3.940
67.48000 3.123
67.50000 0.847
67.52000 0.025
67.54000 -2.233
67.56000 -1.623
67.58000 -1.487
67.60000 0.890
67.62000 2.163
67.64000 2.044
67.66000 4.058
67.68000 3.215
67.70000 0.434
67.72000 0.080
67.74000 1.124
67.76000 1.028
67.78000 3.325
67.80000 3.246
67.82000 3.389
67.84000 3.724
67.86000 1.638
67.88000 2.120
67.90000 -0.967
67.92000 0.328
67.94000 -0.013
67.96000 1.099
67.98000 1.150
68.00000 1.734
68.02000 0.960
68.04000 1.149
68.06000 2.242
68.08000 1.815
68.10000 0.149
68.12000 -0.161
68.14000 -0.629
68.16000 -0.974
68.18000 -0.178
68.20000 -1.987
68.22000 -0.983
68.24000 1.538
68.26000 2.066
68.28000 0.795
68.30000 1.403
68.32000 0.660
68.34000 0.343
68.36000 -0.013
68.38000 -0.947
68.40000 -0.634
68.42000 2.241
68.44000 -0.252
68.46000 -0.102
68.48000 1.424
68.50000 -0.634
68.52000 -0.913
68.54000 -0.988
68.56000 0.679
68.58000 0.847
68.60000 2.428
68.62000 4.313
68.64000 2.018
68.66000 1.146
68.68000 0.774
68.70000 3.918
68.72000 1.648
68.74000 1.783
68.76000 -1.336
68.78000 0.195
68.80000 1.382
68.82000 2.231
68.84000 2.386
68.86000 3.589
68.88000 4.495
68.90000 1.596
68.92000 1.466
68.94000 3.113
68.96000 -0.148
68.98000 -0.274
69.00000 -0.734
69.02000 -2.159
69.04000 -0.089
69.06000 0.487
69.08000 1.272
69.10000 -1.250
69.12000 1.987
69.14000 0.152
69.16000 0.542
69.18000 -1.814
69.20000 -0.579
69.22000 -0.338
69.24000 -0.698
69.26000 3.984
69.28000 4.412
69.30000 3.729
69.32000 1.793
69.34000 -0.033
69.36000 0.604
69.38000 1.053
69.40000 2.278
69.42000 1.089
69.44000 -0.114
69.46000 -0.907
69.48000 -1.288
69.50000 -0.361
69.52000 0.439
69.54000 0.060
69.56000 2.428
69.58000 2.116
69.60000 2.393
69.62000 0.125
69.64000 1.213
69.66000 0.971
69.68000 2.970
69.70000 2.821
69.72000 2.546
69.74000 3.941
69.76000 1.462
69.78000 -0.989
69.80000 2.215
69.82000 -0.707
69.84000 -0.677
69.86000 1.860
69.88000 2.119
69.90000 0.429
69.92000 1.162
69.94000 2.811
69.96000 4.035
69.98000 3.855
70.00000 5.993
70.02000 3.328
70.04000 1.148
70.06000 2.265
70.08000 3.263
70.10000 3.174
70.12000 2.954
70.14000 1.919
70.16000 0.531
70.18000 0.476
70.20000 -2.082
70.22000 2.393
70.24000 5.127
70.26000 5.574
70.28000 -0.973
70.30000 0.155
70.32000 2.818
70.34000 4.568
70.36000 4.396
70.38000 1.217
70.40000 2.193
70.42000 0.699
70.44000 4.779
70.46000 5.417
70.48000 3.852
70.50000 0.118
70.52000 -1.985
70.54000 1.137
70.56000 3.009
70.58000 3.185
70.60000 1.554
70.62000 1.155
70.64000 0.726
70.66000 2.853
70.68000 4.145
70.70000 4.338
70.72000 1.600
70.74000 -0.137
70.76000 -1.998
70.78000 -0.346
70.80000 2.819
70.82000 2.637
70.84000 -0.534
70.86000 -0.067
70.88000 1.746
70.90000 3.357
70.92000 7.005
70.94000 3.834
70.96000 2.209
70.98000 2.382
71.00000 0.372
71.02000 1.472
71.04000 0.684
71.06000 1.897
71.08000 -0.689
71.10000 -1.042
71.12000 1.542
71.14000 3.749
71.16000 1.868
71.18000 0.824
71.20000 0.391
71.22000 1.028
71.24000 1.939
71.26000 4.751
71.28000 1.164
71.30000 -2.061
71.32000 2.454
71.34000 0.612
71.36000 -0.149
71.38000 2.465
71.40000 2.536
71.42000 -0.351
71.44000 1.297
71.46000 2.466
71.48000 1.196
71.50000 -0.286
71.52000 0.429
71.54000 2.546
71.56000 4.119
71.58000 1.480
71.60000 -1.483
71.62000 1.191
71.64000 2.128
71.66000 1.960
71.68000 3.776
71.70000 3.585
71.72000 -0.650
71.74000 -2.070
71.76000 -0.693
71.78000 0.291
71.80000 0.003
71.82000 1.983
71.84000 1.262
71.86000 2.577
71.88000 2.091
71.90000 2.382
71.92000 2.792
71.94000 0.808
71.96000 0.573
71.98000 -0.975
72.00000 0.612
72.02000 2.541
72.04000 3.404
72.06000 2.688
72.08000 1.499
72.10000 1.144
72.12000 -0.003
72.14000 0.121
72.16000 0.310
72.18000 -1.803
72.20000 -1.712
72.22000 0.768
72.24000 1.163
72.26000 -0.090
72.28000 -0.377
72.30000 0.022
72.32000 -0.597
72.34000 0.307
72.36000 -1.035
72.38000 -1.148
72.40000 -0.231
72.42000 -2.060
72.44000 -0.212
72.46000 1.261
72.48000 -1.203
72.50000 -0.349
72.52000 -1.816
72.54000 -0.542
72.56000 3.093
72.58000 1.296
72.60000 1.408
72.62000 -0.875
72.64000 -0.779
72.66000 0.429
72.68000 1.766
72.70000 0.307
72.72000 1.689
72.74000 0.169
72.76000 2.104
72.78000 1.648
72.80000 0.160
72.82000 -2.047
72.84000 1.826
72.86000 0.803
72.88000 0.817
72.90000 1.766
72.92000 1.899
72.94000 1.426
72.96000 1.233
72.98000 0.710
73.00000 -1.775
73.02000 -0.687
73.04000 0.745
73.06000 1.476
73.08000 0.916
73.10000 2.309
73.12000 0.417
73.14000 2.104
73.16000 5.147
73.18000 1.319
73.20000 -0.518
73.22000 0.454
73.24000 1.368
73.26000 -0.025
73.28000 -0.630
73.30000 -0.918
73.32000 3.022
73.34000 1.801
73.36000 2.468
73.38000 -1.803
73.40000 -0.192
73.42000 3.136
73.44000 4.610
73.46000 -0.151
73.48000 0.312
73.50000 3.296
73.52000 4.375
73.54000 2.698
73.56000 3.926
73.58000 1.571
73.60000 1.041
73.62000 2.917
73.64000 0.790
73.66000 -1.988
73.68000 2.702
73.70000 1.459
73.72000 3.042
73.74000 -0.091
73.76000 2.434
73.78000 2.071
73.80000 0.879
73.82000 2.742
73.84000 2.121
73.86000 0.210
73.88000 0.820
73.90000 3.481
73.92000 1.304
73.94000 0.077
73.96000 1.766
73.98000 4.475
74.00000 2.631
74.02000 0.106
74.04000 -0.675
74.06000 2.142
74.08000 3.740
74.10000 2.385
74.12000 1.368
74.14000 2.186
74.16000 2.864
74.18000 2.414
74.20000 2.097
74.22000 2.721
74.24000 3.521
74.26000 0.599
74.28000 1.562
74.30000 3.033
74.32000 3.970
74.34000 3.021
74.36000 3.530
74.38000 1.043
74.40000 -1.106
74.42000 -1.201
74.44000 1.131
74.46000 2.148
74.48000 0.815
74.50000 3.554
74.52000 2.967
74.54000 0.679
74.56000 0.287
74.58000 3.053
74.60000 6.556
74.62000 3.127
74.64000 3.205
74.66000 3.286
74.68000 1.280
74.70000 3.990
74.72000 1.495
74.74000 1.197
74.76000 4.688
74.78000 2.155
74.80000 0.415
74.82000 1.556
74.84000 -1.322
74.86000 -1.990
74.88000 0.010
74.90000 -0.200
74.92000 -0.317
74.94000 2.420
74.96000 0.263
74.98000 3.976
75.00000 2.196
75.02000 2.850
75.04000 3.984
75.06000 2.518
75.08000 1.865
75.10000 1.115
75.12000 1.119
75.14000 1.027
75.16000 -0.945
75.18000 -0.047
75.20000 2.305
75.22000 0.205
75.24000 0.658
75.26000 4.412
75.28000 3.653
75.30000 1.772
75.32000 1.564
75.34000 2.480
75.36000 2.389
75.38000 0.649
75.40000 2.659
75.42000 4.045
75.44000 4.154
75.46000 6.628
75.48000 6.166
75.50000 5.434
75.52000 5.991
75.54000 2.172
75.56000 -1.326
75.58000 2.199
75.60000 5.292
75.62000 3.016
75.64000 4.452
75.66000 2.809
75.68000 -1.777
75.70000 -0.177
75.72000 0.857
75.74000 1.157
75.76000 0.214
75.78000 4.311
75.80000 3.644
75.82000 0.485
75.84000 3.725
75.86000 6.688
75.88000 2.288
75.90000 2.426
75.92000 0.590
75.94000 2.479
75.96000 5.240
75.98000 3.118
76.00000 2.464
76.02000 1.211
76.04000 4.239
76.06000 6.783
76.08000 4.359
76.10000 3.744
76.12000 3.689
76.14000 0.047
76.16000 -1.994
76.18000 0.937
76.20000 1.103
76.22000 4.114
76.24000 1.980
76.26000 3.680
76.28000 3.279
76.30000 2.787
76.32000 2.085
76.34000 3.131
76.36000 3.185
76.38000 5.095
76.40000 3.301
76.42000 1.267
76.44000 3.060
76.46000 6.755
76.48000 7.550
76.50000 2.527
76.52000 3.976
76.54000 1.027
76.56000 -0.314
76.58000 -1.479
76.60000 -1.106
76.62000 2.275
76.64000 1.922
76.66000 -0.533
76.68000 2.661
76.70000 5.455
76.72000 3.019
76.74000 0.041
76.76000 -1.979
76.78000 2.534
76.80000 1.892
76.82000 -0.100
76.84000 1.066
76.86000 3.973
76.88000 -1.708
76.90000 -0.813
76.92000 -0.222
76.94000 -0.307
76.96000 4.022
76.98000 3.984
77.00000 2.414
77.02000 2.795
77.04000 3.516
77.06000 1.002
77.08000 2.938
77.10000 -1.475
77.12000 0.758
77.14000 1.612
77.16000 0.400
77.18000 0.955
77.20000 4.313
77.22000 3.802
77.24000 0.477
77.26000 -0.981
77.28000 -0.063
77.30000 -0.487
77.32000 2.235
77.34000 0.344
77.36000 2.057
77.38000 3.190
77.40000 2.180
77.42000 3.604
77.44000 2.715
77.46000 1.029
77.48000 1.037
77.50000 2.214
77.52000 2.784
77.54000 4.396
77.56000 6.428
77.58000 1.381
77.60000 1.120
77.62000 4.379
77.64000 2.644
77.66000 -1.672
77.68000 0.281
77.70000 0.231
77.72000 -2.062
77.74000 -1.365
77.76000 0.682
77.78000 -1.323
77.80000 0.243
77.82000 1.363
77.84000 0.563
77.86000 -0.570
77.88000 -1.250
77.90000 -1.009
77.92000 1.982
77.94000 2.578
77.96000 2.908
77.98000 4.002
78.00000 5.015
78.02000 5.410
78.04000 4.898
78.06000 2.302
78.08000 1.976
78.10000 0.862
78.12000 0.193
78.14000 2.420
78.16000 2.902
78.18000 -0.773
78.20000 2.982
78.22000 2.715
78.24000 -0.130
78.26000 0.418
78.28000 1.246
78.30000 2.294
78.32000 0.630
78.34000 2.075
78.36000 1.632
78.38000 3.403
78.40000 3.091
78.42000 4.554
78.44000 1.360
78.46000 3.103
78.48000 0.257
78.50000 0.155
78.52000 1.309
78.54000 2.624
78.56000 2.702
78.58000 1.467
78.60000 5.010
78.62000 4.919
78.64000 2.845
78.66000 -1.736
78.68000 -2.042
78.70000 -0.156
78.72000 -2.147
78.74000 -0.565
78.76000 1.338
78.78000 1.755
78.80000 1.486
78.82000 1.972
78.84000 -1.375
78.86000 -0.204
78.88000 -0.370
78.90000 0.255
78.92000 -0.726
78.94000 -0.490
78.96000 -1.842
78.98000 0.757
79.00000 3.800
79.02000 1.604
79.04000 0.803
79.06000 2.559
79.08000 2.289
79.10000 3.556
79.12000 3.470
79.14000 2.637
79.16000 1.600
79.18000 1.122
79.20000 0.865
79.22000 0.487
79.24000 1.416
79.26000 1.512
79.28000 7.988
79.30000 3.920
79.32000 0.726
79.34000 0.472
79.36000 2.806
79.38000 0.284
79.40000 1.010
79.42000 -0.064
79.44000 0.477
79.46000 1.454
79.48000 2.025
79.50000 2.424
79.52000 1.458
79.54000 5.086
79.56000 8.486
79.58000 7.641
79.60000 7.874
79.62000 4.511
79.64000 5.981
79.66000 9.263
79.68000 8.965
79.70000 10.713
79.72000 8.583
79.74000 5.970
79.76000 6.156
79.78000 10.598
79.80000 9.483
79.82000 7.077
79.84000 11.228
79.86000 11.097
79.88000 8.654
79.90000 12.211
79.92000 14.513
79.94000 13.195
79.96000 12.345
79.98000 13.286
80.00000 18.468
80.02000 18.658
80.04000 17.355
80.06000 18.558
80.08000 14.287
80.10000 14.399
80.12000 14.192
80.14000 16.817
80.16000 16.142
80.18000 16.600
80.20000 17.144
80.22000 17.045
80.24000 16.091
80.26000 15.123
80.28000 17.991
80.30000 17.620
80.32000 21.432
80.34000 17.696
80.36000 15.720
80.38000 18.326
80.40000 20.138
80.42000 18.738
80.44000 17.174
80.46000 17.504
80.48000 15.565
80.50000 16.925
80.52000 20.284
80.54000 20.236
80.56000 13.796
80.58000 13.077
80.60000 10.644
80.62000 10.861
80.64000 10.774
80.66000 15.191
80.68000 17.186
80.70000 15.413
80.72000 9.392
80.74000 10.607
80.76000 14.101
80.78000 10.321
80.80000 10.762
80.82000 8.602
80.84000 12.253
80.86000 9.058
80.88000 12.989
80.90000 10.107
80.92000 8.272
80.94000 9.790
80.96000 9.687
80.98000 7.936
81.00000 9.669
81.02000 5.505
81.04000 6.167
81.06000 6.798
81.08000 6.829
81.10000 5.834
81.12000 3.847
81.14000 4.617
81.16000 5.898
81.18000 4.893
81.20000 7.653
81.22000 5.171
81.24000 5.393
81.26000 5.167
81.28000 2.652
81.30000 1.833
81.32000 1.011
81.34000 7.118
81.36000 9.115
81.38000 4.960
81.40000 2.786
81.42000 1.629
81.44000 -0.205
81.46000 -2.281
81.48000 -1.122
81.50000 2.683
81.52000 2.820
81.54000 2.630
81.56000 0.661
81.58000 2.811
81.60000 4.666
81.62000 3.651
81.64000 2.603
81.66000 -0.594
81.68000 1.352
81.70000 3.126
81.72000 0.736
81.74000 -1.523
81.76000 -1.664
81.78000 0.145
81.80000 3.426
81.82000 3.530
81.84000 1.830
81.86000 0.533
81.88000 1.179
81.90000 -1.607
81.92000 -0.107
81.94000 1.960
81.96000 2.206
81.98000 0.185
82.00000 2.041
82.02000 1.795
82.04000 1.475
82.06000 -0.603
82.08000 -2.270
82.10000 -0.975
82.12000 1.802
82.14000 4.589
82.16000 1.942
82.18000 1.237
82.20000 2.522
82.22000 2.631
82.24000 -0.339
82.26000 -1.944
82.28000 -1.458
82.30000 -0.327
82.32000 0.699
82.34000 -0.988
82.36000 -0.158
82.38000 2.955
82.40000 0.757
82.42000 2.602
82.44000 1.979
82.46000 3.568
82.48000 2.571
82.50000 3.646
82.52000 0.798
82.54000 -0.521
82.56000 0.996
82.58000 -0.923
82.60000 -0.774
82.62000 -0.141
82.64000 2.893
82.66000 2.301
82.68000 1.624
82.70000 -1.511
82.72000 0.915
82.74000 -0.254
82.76000 -0.186
82.78000 1.362
82.80000 0.422
82.82000 -0.482
82.84000 0.171
82.86000 4.945
82.88000 5.288
82.90000 5.959
82.92000 5.580
82.94000 3.540
82.96000 3.600
82.98000 5.016
83.00000 5.096
83.02000 4.983
83.04000 3.046
83.06000 5.223
83.08000 6.363
83.10000 7.136
83.12000 9.314
83.14000 8.039
83.16000 4.471
83.18000 4.750
83.20000 6.488
83.22000 9.816
83.24000 6.454
83.26000 8.949
83.28000 11.930
83.30000 10.969
83.32000 13.283
83.34000 9.753
83.36000 11.312
83.38000 15.528
83.40000 17.332
83.42000 14.293
83.44000 14.994
83.46000 20.307
83.48000 21.567
83.50000 20.466
83.52000 20.850
83.54000 21.216
83.56000 19.420
83.58000 21.818
83.60000 22.148
83.62000 23.610
83.64000 22.817
83.66000 23.232
83.68000 23.129
83.70000 26.625
83.72000 29.971
83.74000 27.325
83.76000 32.403
83.78000 35.056
83.80000 35.650
83.82000 35.806
83.84000 38.330
83.86000 38.909
83.88000 38.998
83.90000 45.029
83.92000 47.850
83.94000 47.612
83.96000 47.363
83.98000 53.346
84.00000 45.578
84.02000 46.380
84.04000 54.055
84.06000 54.975
84.08000 55.586
84.10000 56.836
84.12000 55.545
84.14000 59.283
84.16000 59.426
84.18000 60.397
84.20000 66.945
84.22000 63.552
84.24000 57.453
84.26000 56.487
84.28000 58.289
84.30000 59.918
84.32000 57.327
84.34000 58.146
84.36000 62.115
84.38000 50.951
84.40000 54.617
84.42000 57.152
84.44000 56.323
84.46000 48.135
84.48000 48.637
84.50000 49.999
84.52000 52.740
84.54000 50.422
84.56000 44.539
84.58000 45.109
84.60000 48.711
84.62000 46.461
84.64000 41.448
84.66000 42.353
84.68000 44.259
84.70000 39.544
84.72000 36.338
84.74000 39.181
84.76000 35.334
84.78000 33.314
84.80000 34.655
84.82000 32.738
84.84000 33.595
84.86000 31.423
84.88000 30.680
84.90000 32.136
84.92000 28.085
84.94000 21.391
84.96000 21.139
84.98000 19.790
85.00000 20.182
85.02000 17.874
85.04000 18.513
85.06000 18.608
85.08000 19.063
85.10000 16.374
85.12000 12.794
85.14000 12.197
85.16000 13.903
85.18000 14.617
85.20000 11.749
85.22000 12.288
85.24000 7.780
85.26000 10.648
85.28000 14.088
85.30000 7.279
85.32000 2.955
85.34000 0.909
85.36000 2.989
85.38000 6.213
85.40000 6.863
85.42000 8.463
85.44000 8.074
85.46000 3.710
85.48000 0.282
85.50000 4.025
85.52000 4.365
85.54000 -0.086
85.56000 -0.674
85.58000 1.956
85.60000 3.274
85.62000 5.945
85.64000 6.676
85.66000 3.776
85.68000 2.137
85.70000 4.384
85.72000 7.898
85.74000 5.863
85.76000 2.994
85.78000 1.398
85.80000 -0.027
85.82000 -0.413
85.84000 -0.515
85.86000 -2.083
85.88000 -0.033
85.90000 0.715
85.92000 0.302
85.94000 4.044
85.96000 3.222
85.98000 1.889
86.00000 -1.634
86.02000 -0.562
86.04000 -1.562
86.06000 1.227
86.08000 2.483
86.10000 2.266
86.12000 0.505
86.14000 -0.613
86.16000 -2.042
86.18000 2.082
86.20000 2.035
86.22000 3.891
86.24000 0.034
86.26000 -0.460
86.28000 -1.537
86.30000 -0.789
86.32000 -1.235
86.34000 1.466
86.36000 4.046
86.38000 5.491
86.40000 1.080
86.42000 1.807
86.44000 5.169
86.46000 4.889
86.48000 -0.271
86.50000 2.034
86.52000 0.957
86.54000 0.561
86.56000 -0.032
86.58000 -1.980
86.60000 -0.498
86.62000 3.059
86.64000 5.869
86.66000 0.767
86.68000 -1.060
86.70000 2.397
86.72000 2.152
86.74000 3.876
86.76000 3.118
86.78000 1.211
86.80000 0.852
86.82000 1.942
86.84000 3.068
86.86000 0.237
86.88000 -0.737
86.90000 4.685
86.92000 5.920
86.94000 5.447
86.96000 7.365
86.98000 2.189
87.00000 -1.935
87.02000 -0.721
87.04000 -0.926
87.06000 3.347
87.08000 0.937
87.10000 1.727
87.12000 -0.241
87.14000 2.470
87.16000 4.858
87.18000 4.015
87.20000 1.886
87.22000 3.942
87.24000 3.198
87.26000 3.314
87.28000 4.610
87.30000 1.824
87.32000 0.738
87.34000 1.450
87.36000 2.182
87.38000 0.504
87.40000 2.283
87.42000 0.543
87.44000 4.248
87.46000 3.458
87.48000 0.569
87.50000 1.043
87.52000 -0.291
87.54000 1.057
87.56000 4.007
87.58000 2.684
87.60000 1.581
87.62000 -0.085
87.64000 2.325
87.66000 2.075
87.68000 2.567
87.70000 2.797
87.72000 0.255
87.74000 1.355
87.76000 3.644
87.78000 -0.762
87.80000 -0.125
87.82000 3.890
87.84000 4.050
87.86000 4.717
87.88000 3.969
87.90000 2.299
87.92000 1.973
87.94000 1.872
87.96000 3.622
87.98000 3.165
88.00000 2.417
88.02000 -0.271
88.04000 0.131
88.06000 -1.316
88.08000 1.780
88.10000 4.092
88.12000 2.979
88.14000 -1.891
88.16000 1.869
88.18000 2.851
88.20000 0.600
88.22000 0.258
88.24000 3.359
88.26000 4.023
88.28000 2.506
88.30000 1.893
88.32000 1.492
88.34000 2.493
88.36000 3.671
88.38000 5.008
88.40000 1.375
88.42000 4.537
88.44000 5.170
88.46000 4.309
88.48000 4.319
88.50000 3.959
88.52000 2.522
88.54000 5.237
88.56000 0.775
88.58000 0.407
88.60000 -1.910
88.62000 0.125
88.64000 0.649
88.66000 -0.105
88.68000 2.306
88.70000 2.817
88.72000 1.609
88.74000 2.302
88.76000 5.777
88.78000 0.702
88.80000 -0.658
88.82000 -0.134
88.84000 3.110
88.86000 0.250
88.88000 -1.208
88.90000 0.987
88.92000 2.229
88.94000 2.465
88.96000 4.842
88.98000 2.776
89.00000 2.581
89.02000 2.361
89.04000 0.755
89.06000 -0.059
89.08000 -1.589
89.10000 -0.486
89.12000 1.830
89.14000 -0.070
89.16000 1.135
89.18000 1.617
89.20000 2.181
89.22000 4.283
89.24000 2.854
89.26000 0.374
89.28000 -0.609
89.30000 -0.854
89.32000 2.287
89.34000 3.181
89.36000 1.065
89.38000 0.951
89.40000 2.722
89.42000 -0.637
89.44000 -0.110
89.46000 -1.599
89.48000 -1.776
89.50000 1.295
89.52000 1.970
89.54000 1.341
89.56000 3.925
89.58000 -0.887
89.60000 -1.230
89.62000 -1.380
89.64000 2.674
89.66000 4.413
89.68000 1.059
89.70000 1.933
89.72000 0.849
89.74000 0.868
89.76000 2.345
89.78000 1.940
89.80000 -0.535
89.82000 -1.889
89.84000 0.573
89.86000 -0.155
89.88000 2.456
89.90000 1.649
89.92000 0.772
89.94000 0.864
89.96000 2.461
89.98000 1.440
90.00000 -0.270
90.02000 0.170
90.04000 0.849
90.06000 1.979
90.08000 4.484
90.10000 6.776
90.12000 4.494
90.14000 -1.020
90.16000 5.517
90.18000 3.461
90.20000 5.059
90.22000 2.643
90.24000 1.546
90.26000 -1.870
90.28000 -1.249
90.30000 3.720
90.32000 4.981
90.34000 3.309
90.36000 1.650
90.38000 3.255
90.40000 0.697
90.42000 0.317
90.44000 -1.860
90.46000 0.940
90.48000 1.131
90.50000 0.784
90.52000 0.634
90.54000 5.224
90.56000 4.028
90.58000 2.066
90.60000 1.360
90.62000 1.980
90.64000 5.402
90.66000 5.965
90.68000 5.947
90.70000 6.139
90.72000 4.796
90.74000 3.781
90.76000 3.361
90.78000 1.342
90.80000 3.206
90.82000 2.215
90.84000 3.194
90.86000 2.493
90.88000 3.623
90.90000 2.032
90.92000 4.648
90.94000 6.937
90.96000 6.061
90.98000 5.029
91.00000 3.441
91.02000 2.408
91.04000 2.532
91.06000 1.826
91.08000 0.539
91.10000 2.556
91.12000 5.584
91.14000 3.720
91.16000 3.527
91.18000 2.334
91.20000 2.639
91.22000 3.067
91.24000 2.070
91.26000 1.906
91.28000 3.329
91.30000 -1.845
91.32000 0.487
91.34000 3.827
91.36000 5.004
91.38000 4.078
91.40000 7.019
91.42000 5.737
91.44000 4.778
91.46000 2.999
91.48000 1.859
91.50000 2.624
91.52000 4.198
91.54000 2.657
91.56000 0.631
91.58000 3.773
91.60000 0.986
91.62000 1.835
91.64000 6.515
91.66000 5.431
91.68000 4.704
91.70000 4.884
91.72000 5.284
91.74000 4.191
91.76000 -0.688
91.78000 -1.153
91.80000 2.198
91.82000 0.988
91.84000 1.538
91.86000 2.166
91.88000 1.458
91.90000 2.133
91.92000 1.152
91.94000 1.390
91.96000 2.920
91.98000 3.044
92.00000 2.814
92.02000 3.841
92.04000 5.004
92.06000 4.642
92.08000 2.342
92.10000 6.621
92.12000 4.016
92.14000 3.228
92.16000 2.868
92.18000 1.630
92.20000 2.890
92.22000 7.439
92.24000 4.039
92.26000 4.387
92.28000 5.670
92.30000 5.025
92.32000 3.988
92.34000 3.387
92.36000 5.784
92.38000 7.919
92.40000 5.684
92.42000 8.521
92.44000 -0.516
92.46000 -1.840
92.48000 1.948
92.50000 6.912
92.52000 8.025
92.54000 6.304
92.56000 6.133
92.58000 4.002
92.60000 4.534
92.62000 4.397
92.64000 1.872
92.66000 1.390
92.68000 2.566
92.70000 3.306
92.72000 6.500
92.74000 5.996
92.76000 2.184
92.78000 3.120
92.80000 0.104
92.82000 1.590
92.84000 2.790
92.86000 6.681
92.88000 5.147
92.90000 2.585
92.92000 3.230
92.94000 0.262
92.96000 0.971
92.98000 -1.062
93.00000 -0.036
93.02000 0.233
93.04000 1.953
93.06000 4.827
93.08000 4.209
93.10000 4.364
93.12000 4.449
93.14000 0.206
93.16000 1.073
93.18000 0.762
93.20000 2.758
93.22000 2.573
93.24000 1.259
93.26000 1.470
93.28000 1.614
93.30000 3.805
93.32000 2.700
93.34000 3.511
93.36000 5.292
93.38000 3.046
93.40000 4.685
93.42000 6.935
93.44000 5.918
93.46000 1.054
93.48000 1.502
93.50000 -0.094
93.52000 -1.588
93.54000 3.157
93.56000 3.470
93.58000 2.925
93.60000 0.700
93.62000 2.730
93.64000 0.550
93.66000 1.579
93.68000 0.718
93.70000 -0.614
93.72000 -0.807
93.74000 -1.014
93.76000 1.903
93.78000 1.722
93.80000 2.731
93.82000 3.849
93.84000 2.733
93.86000 -1.925
93.88000 0.089
93.90000 -0.154
93.92000 0.383
93.94000 3.760
93.96000 -1.924
93.98000 1.331
94.00000 5.835
94.02000 7.148
94.04000 5.820
94.06000 0.747
94.08000 2.539
94.10000 1.973
94.12000 1.164
94.14000 2.082
94.16000 4.621
94.18000 3.226
94.20000 3.993
94.22000 3.717
94.24000 1.280
94.26000 -1.130
94.28000 0.702
94.30000 4.295
94.32000 7.003
94.34000 6.053
94.36000 2.039
94.38000 -1.917
94.40000 0.137
94.42000 -0.002
94.44000 0.927
94.46000 3.504
94.48000 4.791
94.50000 3.443
94.52000 2.160
94.54000 3.146
94.56000 4.363
94.58000 5.608
94.60000 4.239
94.62000 4.100
94.64000 0.179
94.66000 2.239
94.68000 1.485
94.70000 -0.063
94.72000 1.665
94.74000 -0.896
94.76000 3.659
94.78000 2.577
94.80000 0.717
94.82000 1.543
94.84000 2.163
94.86000 3.472
94.88000 5.111
94.90000 6.575
94.92000 2.951
94.94000 0.933
94.96000 -1.263
94.98000 1.145
95.00000 1.551
95.02000 0.969
95.04000 -0.133
95.06000 1.073
95.08000 2.947
95.10000 2.996
95.12000 5.443
95.14000 7.425
95.16000 5.519
95.18000 1.418
95.20000 2.691
95.22000 3.217
95.24000 3.291
95.26000 2.572
95.28000 3.117
95.30000 3.350
95.32000 1.823
95.34000 0.283
95.36000 3.871
95.38000 6.577
95.40000 4.646
95.42000 4.699
95.44000 3.316
95.46000 2.401
95.48000 0.883
95.50000 2.727
95.52000 5.650
95.54000 4.036
95.56000 -1.337
95.58000 -1.412
95.60000 3.109
95.62000 4.311
95.64000 3.937
95.66000 -0.211
95.68000 3.482
95.70000 4.153
95.72000 4.707
95.74000 3.617
95.76000 6.226
95.78000 5.060
95.80000 6.822
95.82000 4.267
95.84000 2.158
95.86000 4.190
95.88000 -1.878
95.90000 -0.023
95.92000 4.035
95.94000 5.818
95.96000 3.893
95.98000 8.584
96.00000 6.895
96.02000 2.551
96.04000 1.984
96.06000 4.876
96.08000 7.610
96.10000 8.571
96.12000 8.328
96.14000 4.852
96.16000 4.995
96.18000 2.548
96.20000 1.183
96.22000 1.764
96.24000 2.866
96.26000 2.470
96.28000 2.851
96.30000 -1.866
96.32000 1.040
96.34000 1.870
96.36000 2.364
96.38000 4.801
96.40000 5.390
96.42000 2.300
96.44000 4.854
96.46000 4.677
96.48000 4.353
96.50000 3.609
96.52000 2.342
96.54000 2.730
96.56000 5.714
96.58000 6.679
96.60000 3.995
96.62000 3.608
96.64000 5.269
96.66000 4.892
96.68000 3.296
96.70000 7.238
96.72000 8.066
96.74000 7.622
96.76000 2.887
96.78000 3.968
96.80000 7.283
96.82000 5.318
96.84000 4.508
96.86000 7.425
96.88000 6.004
96.90000 7.045
96.92000 3.015
96.94000 2.373
96.96000 -0.983
96.98000 0.752
97.00000 4.077
97.02000 3.294
97.04000 3.019
97.06000 1.430
97.08000 4.653
97.10000 5.926
97.12000 1.793
97.14000 2.723
97.16000 2.311
97.18000 -1.846
97.20000 0.164
97.22000 5.601
97.24000 1.205
97.26000 0.145
97.28000 2.704
97.30000 1.968
97.32000 7.397
97.34000 8.035
97.36000 8.325
97.38000 2.851
97.40000 2.212
97.42000 4.650
97.44000 7.057
97.46000 3.201
97.48000 4.079
97.50000 4.911
97.52000 0.229
97.54000 1.424
97.56000 3.124
97.58000 3.666
97.60000 4.867
97.62000 0.843
97.64000 7.849
97.66000 9.485
97.68000 5.430
97.70000 10.104
97.72000 5.825
97.74000 4.176
97.76000 1.157
97.78000 5.051
97.80000 3.419
97.82000 2.996
97.84000 3.937
97.86000 4.627
97.88000 6.787
97.90000 5.894
97.92000 6.737
97.94000 6.624
97.96000 2.734
97.98000 1.732
98.00000 4.158
98.02000 7.087
98.04000 7.007
98.06000 2.412
98.08000 0.955
98.10000 3.496
98.12000 6.483
98.14000 1.008
98.16000 1.378
98.18000 2.097
98.20000 5.985
98.22000 1.528
98.24000 3.509
98.26000 5.504
98.28000 3.821
98.30000 6.125
98.32000 7.481
98.34000 9.613
98.36000 9.768
98.38000 4.541
98.40000 6.922
98.42000 12.831
98.44000 10.278
98.46000 7.738
98.48000 8.677
98.50000 9.379
98.52000 7.044
98.54000 13.098
98.56000 11.619
98.58000 9.015
98.60000 4.973
98.62000 4.652
98.64000 -0.533
98.66000 -1.782
98.68000 7.781
98.70000 4.914
98.72000 3.214
98.74000 8.858
98.76000 8.788
98.78000 12.476
98.80000 14.028
98.82000 5.560
98.84000 3.829
98.86000 0.298
98.88000 2.372
98.90000 9.152
98.92000 11.260
98.94000 5.207
98.96000 9.420
98.98000 12.369
99.00000 9.032
99.02000 14.067
99.04000 6.603
99.06000 7.032
99.08000 7.875
99.10000 2.317
99.12000 7.994
99.14000 6.873
99.16000 7.341
99.18000 7.123
99.20000 6.414
99.22000 -0.637
99.24000 7.507
99.26000 5.173
99.28000 6.454
99.30000 4.191
99.32000 5.689
99.34000 8.620
99.36000 4.893
99.38000 2.361
99.40000 -1.414
99.42000 3.809
99.44000 9.005
99.46000 4.441
99.48000 2.205
99.50000 5.885
99.52000 2.464
99.54000 10.560
99.56000 9.402
99.58000 1.505
99.60000 -1.844
99.62000 -1.295
99.64000 8.173
99.66000 5.817
99.68000 5.122
99.70000 6.936
99.72000 1.443
99.74000 1.913
99.76000 2.048
99.78000 -1.933
99.80000 1.408
99.82000 5.741
99.84000 6.612
99.86000 4.531
99.88000 5.067
99.90000 2.880
99.92000 3.341
99.94000 10.718
99.96000 3.701
99.98000 0.000
