'Id: "0011387" Comment: "Integrate frame 0011387_Au-Ir-Rh_Rh-rich_XRD-Mapping-027-0000.gfrmwith cursor Wedge Cursor #5" Operator: "B?rgel" Anode: "Cu" Wavelength: "1.5406" Scantype: "2Theta (TwoTheta)" TimePerStep: "1" X: "-18" Y: "-31.5" Z: "5.95" 
10.00000 0.000
10.02000 10.367
10.04000 15.809
10.06000 18.569
10.08000 -4.793
10.10000 4.333
10.12000 19.074
10.14000 9.103
10.16000 -6.590
10.18000 12.081
10.20000 26.807
10.22000 29.062
10.24000 17.213
10.26000 18.474
10.28000 12.159
10.30000 19.189
10.32000 17.226
10.34000 8.599
10.36000 11.448
10.38000 20.400
10.40000 32.296
10.42000 21.579
10.44000 11.381
10.46000 22.351
10.48000 33.831
10.50000 24.949
10.52000 23.091
10.54000 23.056
10.56000 33.908
10.58000 32.461
10.60000 29.121
10.62000 26.544
10.64000 11.343
10.66000 15.449
10.68000 5.800
10.70000 10.537
10.72000 15.447
10.74000 21.439
10.76000 13.896
10.78000 15.372
10.80000 33.279
10.82000 19.403
10.84000 -4.562
10.86000 1.161
10.88000 12.966
10.90000 13.043
10.92000 -1.030
10.94000 6.814
10.96000 17.569
10.98000 9.636
11.00000 13.355
11.02000 18.489
11.04000 13.699
11.06000 7.965
11.08000 22.324
11.10000 28.666
11.12000 26.777
11.14000 17.497
11.16000 15.063
11.18000 6.040
11.20000 12.318
11.22000 4.289
11.24000 10.353
11.26000 6.109
11.28000 5.557
11.30000 27.877
11.32000 27.895
11.34000 22.900
11.36000 19.533
11.38000 14.377
11.40000 3.299
11.42000 6.215
11.44000 19.240
11.46000 12.699
11.48000 14.558
11.50000 8.380
11.52000 1.379
11.54000 0.388
11.56000 16.759
11.58000 6.027
11.60000 9.436
11.62000 23.509
11.64000 11.377
11.66000 19.226
11.68000 15.239
11.70000 9.404
11.72000 9.708
11.74000 5.471
11.76000 13.152
11.78000 22.104
11.80000 21.906
11.82000 13.863
11.84000 8.455
11.86000 0.115
11.88000 10.374
11.90000 17.137
11.92000 11.643
11.94000 14.947
11.96000 14.025
11.98000 15.458
12.00000 12.154
12.02000 5.098
12.04000 13.360
12.06000 15.568
12.08000 6.275
12.10000 15.097
12.12000 24.111
12.14000 18.157
12.16000 9.113
12.18000 14.688
12.20000 16.946
12.22000 26.900
12.24000 29.364
12.26000 29.629
12.28000 17.718
12.30000 21.013
12.32000 13.889
12.34000 -0.050
12.36000 -4.615
12.38000 9.669
12.40000 15.864
12.42000 21.824
12.44000 26.085
12.46000 19.755
12.48000 14.548
12.50000 14.073
12.52000 17.006
12.54000 9.728
12.56000 20.282
12.58000 27.998
12.60000 32.081
12.62000 13.543
12.64000 6.119
12.66000 12.813
12.68000 21.500
12.70000 27.103
12.72000 12.244
12.74000 14.512
12.76000 10.847
12.78000 10.263
12.80000 8.703
12.82000 9.553
12.84000 9.001
12.86000 1.174
12.88000 3.047
12.90000 0.269
12.92000 3.929
12.94000 0.089
12.96000 6.140
12.98000 -1.860
13.00000 8.120
13.02000 14.694
13.04000 8.524
13.06000 2.679
13.08000 9.602
13.10000 7.025
13.12000 5.524
13.14000 9.875
13.16000 12.617
13.18000 5.173
13.20000 5.342
13.22000 10.353
13.24000 23.032
13.26000 14.555
13.28000 9.590
13.30000 13.224
13.32000 -0.357
13.34000 4.184
13.36000 19.582
13.38000 20.685
13.40000 12.581
13.42000 6.159
13.44000 9.720
13.46000 2.158
13.48000 4.766
13.50000 11.210
13.52000 5.244
13.54000 9.149
13.56000 10.940
13.58000 2.758
13.60000 -0.191
13.62000 7.232
13.64000 -2.359
13.66000 4.583
13.68000 -1.350
13.70000 8.029
13.72000 18.165
13.74000 4.095
13.76000 2.342
13.78000 9.619
13.80000 9.332
13.82000 9.289
13.84000 18.618
13.86000 14.126
13.88000 11.655
13.90000 15.063
13.92000 9.071
13.94000 8.164
13.96000 11.678
13.98000 6.295
14.00000 -1.351
14.02000 -4.638
14.04000 -4.638
14.06000 6.233
14.08000 7.329
14.10000 3.818
14.12000 2.969
14.14000 10.033
14.16000 1.236
14.18000 13.185
14.20000 14.193
14.22000 11.897
14.24000 4.465
14.26000 5.137
14.28000 -0.003
14.30000 0.297
14.32000 3.743
14.34000 -4.542
14.36000 4.614
14.38000 5.882
14.40000 -3.192
14.42000 -0.611
14.44000 5.366
14.46000 5.258
14.48000 14.773
14.50000 14.891
14.52000 12.053
14.54000 16.306
14.56000 7.245
14.58000 1.326
14.60000 -3.917
14.62000 7.482
14.64000 10.875
14.66000 -2.579
14.68000 -0.222
14.70000 -0.154
14.72000 0.307
14.74000 15.852
14.76000 16.962
14.78000 6.116
14.80000 7.274
14.82000 7.207
14.84000 0.216
14.86000 3.125
14.88000 4.271
14.90000 9.114
14.92000 16.355
14.94000 11.493
14.96000 9.109
14.98000 8.745
15.00000 5.596
15.02000 1.466
15.04000 2.054
15.06000 8.333
15.08000 8.936
15.10000 11.184
15.12000 9.689
15.14000 1.541
15.16000 3.266
15.18000 11.128
15.20000 11.560
15.22000 8.970
15.24000 10.367
15.26000 8.473
15.28000 5.876
15.30000 8.053
15.32000 13.243
15.34000 10.449
15.36000 11.706
15.38000 6.697
15.40000 9.051
15.42000 -3.801
15.44000 1.453
15.46000 2.854
15.48000 -2.408
15.50000 3.739
15.52000 0.358
15.54000 4.921
15.56000 4.456
15.58000 12.448
15.60000 2.748
15.62000 4.778
15.64000 13.960
15.66000 13.104
15.68000 10.151
15.70000 14.598
15.72000 12.201
15.74000 0.535
15.76000 6.317
15.78000 15.903
15.80000 5.571
15.82000 -4.589
15.84000 10.063
15.86000 3.043
15.88000 0.268
15.90000 0.685
15.92000 10.229
15.94000 8.282
15.96000 2.344
15.98000 0.855
16.00000 11.449
16.02000 18.018
16.04000 14.338
16.06000 11.398
16.08000 8.963
16.10000 4.098
16.12000 4.514
16.14000 -2.323
16.16000 5.837
16.18000 11.786
16.20000 -0.502
16.22000 1.748
16.24000 3.254
16.26000 -0.754
16.28000 -1.671
16.30000 6.217
16.32000 8.705
16.34000 5.718
16.36000 4.507
16.38000 7.107
16.40000 6.799
16.42000 6.772
16.44000 12.095
16.46000 6.343
16.48000 1.629
16.50000 7.180
16.52000 6.164
16.54000 6.532
16.56000 4.228
16.58000 -4.534
16.60000 2.589
16.62000 5.611
16.64000 7.270
16.66000 8.476
16.68000 -0.980
16.70000 -1.410
16.72000 2.622
16.74000 -1.339
16.76000 -4.518
16.78000 6.696
16.80000 5.165
16.82000 4.610
16.84000 8.851
16.86000 16.815
16.88000 3.169
16.90000 2.405
16.92000 10.904
16.94000 3.052
16.96000 8.710
16.98000 8.053
17.00000 9.042
17.02000 4.302
17.04000 3.817
17.06000 -4.525
17.08000 5.539
17.10000 4.865
17.12000 14.833
17.14000 13.240
17.16000 4.113
17.18000 6.328
17.20000 5.357
17.22000 4.374
17.24000 1.581
17.26000 0.205
17.28000 -0.110
17.30000 4.454
17.32000 5.759
17.34000 10.664
17.36000 10.952
17.38000 10.304
17.40000 2.163
17.42000 0.926
17.44000 1.046
17.46000 1.858
17.48000 0.401
17.50000 7.163
17.52000 15.195
17.54000 13.504
17.56000 9.013
17.58000 13.198
17.60000 12.514
17.62000 6.210
17.64000 5.895
17.66000 -1.121
17.68000 -2.526
17.70000 -2.530
17.72000 -0.670
17.74000 5.483
17.76000 9.074
17.78000 7.565
17.80000 5.874
17.82000 -3.495
17.84000 3.263
17.86000 9.730
17.88000 4.888
17.90000 -2.181
17.92000 -4.481
17.94000 -3.400
17.96000 9.554
17.98000 8.427
18.00000 3.374
18.02000 3.693
18.04000 2.960
18.06000 5.956
18.08000 12.016
18.10000 8.033
18.12000 6.118
18.14000 5.767
18.16000 7.408
18.18000 6.339
18.20000 15.174
18.22000 7.384
18.24000 7.094
18.26000 8.059
18.28000 2.960
18.30000 5.845
18.32000 6.079
18.34000 1.884
18.36000 10.146
18.38000 11.215
18.40000 6.626
18.42000 5.907
18.44000 0.022
18.46000 -3.843
18.48000 6.301
18.50000 17.260
18.52000 10.448
18.54000 8.881
18.56000 9.010
18.58000 5.579
18.60000 2.325
18.62000 7.727
18.64000 14.651
18.66000 6.977
18.68000 0.348
18.70000 2.934
18.72000 6.595
18.74000 7.046
18.76000 1.957
18.78000 -0.480
18.80000 6.711
18.82000 5.640
18.84000 5.469
18.86000 6.375
18.88000 6.964
18.90000 0.351
18.92000 -1.544
18.94000 0.086
18.96000 2.509
18.98000 2.719
19.00000 3.686
19.02000 1.464
19.04000 0.921
19.06000 -3.284
19.08000 -0.342
19.10000 -4.381
19.12000 -1.053
19.14000 2.653
19.16000 0.394
19.18000 3.657
19.20000 1.394
19.22000 1.832
19.24000 4.675
19.26000 0.351
19.28000 4.062
19.30000 11.220
19.32000 13.564
19.34000 9.407
19.36000 5.983
19.38000 7.193
19.40000 7.041
19.42000 7.572
19.44000 6.169
19.46000 8.997
19.48000 7.969
19.50000 8.028
19.52000 8.682
19.54000 7.455
19.56000 3.768
19.58000 4.114
19.60000 -3.720
19.62000 1.950
19.64000 8.123
19.66000 9.241
19.68000 5.540
19.70000 2.763
19.72000 2.191
19.74000 1.373
19.76000 2.617
19.78000 5.696
19.80000 1.122
19.82000 -3.441
19.84000 -2.667
19.86000 4.770
19.88000 14.188
19.90000 8.866
19.92000 5.975
19.94000 9.450
19.96000 7.093
19.98000 5.837
20.00000 3.536
20.02000 9.522
20.04000 7.195
20.06000 11.998
20.08000 13.345
20.10000 7.825
20.12000 2.093
20.14000 2.364
20.16000 2.768
20.18000 3.046
20.20000 6.741
20.22000 4.517
20.24000 -0.506
20.26000 -4.317
20.28000 3.589
20.30000 4.011
20.32000 7.811
20.34000 7.448
20.36000 8.183
20.38000 7.165
20.40000 9.094
20.42000 9.536
20.44000 11.622
20.46000 9.698
20.48000 1.342
20.50000 0.937
20.52000 2.365
20.54000 2.606
20.56000 9.238
20.58000 3.781
20.60000 4.044
20.62000 12.000
20.64000 1.318
20.66000 -4.278
20.68000 3.229
20.70000 4.354
20.72000 13.282
20.74000 14.795
20.76000 12.128
20.78000 13.812
20.80000 12.155
20.82000 4.812
20.84000 4.936
20.86000 14.194
20.88000 8.875
20.90000 8.787
20.92000 7.768
20.94000 3.216
20.96000 2.021
20.98000 9.246
21.00000 8.306
21.02000 4.292
21.04000 4.306
21.06000 -2.569
21.08000 0.518
21.10000 2.653
21.12000 6.691
21.14000 7.533
21.16000 6.921
21.18000 6.051
21.20000 6.901
21.22000 6.433
21.24000 10.662
21.26000 6.276
21.28000 3.707
21.30000 4.608
21.32000 8.179
21.34000 9.969
21.36000 14.498
21.38000 13.045
21.40000 10.386
21.42000 9.005
21.44000 3.794
21.46000 2.279
21.48000 -4.231
21.50000 -0.161
21.52000 2.323
21.54000 2.425
21.56000 1.107
21.58000 1.978
21.60000 7.210
21.62000 4.577
21.64000 3.344
21.66000 -3.118
21.68000 3.194
21.70000 4.642
21.72000 1.427
21.74000 5.412
21.76000 6.354
21.78000 2.358
21.80000 6.792
21.82000 6.186
21.84000 3.713
21.86000 8.034
21.88000 6.438
21.90000 -1.357
21.92000 1.619
21.94000 6.995
21.96000 5.204
21.98000 -0.183
22.00000 3.604
22.02000 3.038
22.04000 6.869
22.06000 9.218
22.08000 6.926
22.10000 7.270
22.12000 6.053
22.14000 4.899
22.16000 7.445
22.18000 0.010
22.20000 -3.192
22.22000 -1.042
22.24000 -0.322
22.26000 2.953
22.28000 8.705
22.30000 4.694
22.32000 3.190
22.34000 2.020
22.36000 -0.330
22.38000 -2.275
22.40000 8.136
22.42000 8.009
22.44000 0.519
22.46000 -1.178
22.48000 2.180
22.50000 1.027
22.52000 1.718
22.54000 7.642
22.56000 4.505
22.58000 1.354
22.60000 7.046
22.62000 0.293
22.64000 3.842
22.66000 5.486
22.68000 1.913
22.70000 -3.036
22.72000 -0.117
22.74000 9.770
22.76000 8.977
22.78000 3.066
22.80000 9.693
22.82000 11.135
22.84000 7.001
22.86000 4.117
22.88000 5.827
22.90000 6.502
22.92000 -0.473
22.94000 -4.183
22.96000 1.620
22.98000 2.403
23.00000 0.089
23.02000 2.999
23.04000 2.200
23.06000 2.687
23.08000 6.233
23.10000 8.127
23.12000 7.900
23.14000 1.245
23.16000 3.355
23.18000 2.235
23.20000 -0.225
23.22000 -1.860
23.24000 -1.933
23.26000 -0.015
23.28000 4.063
23.30000 0.230
23.32000 -0.687
23.34000 7.118
23.36000 6.143
23.38000 2.566
23.40000 6.677
23.42000 4.519
23.44000 -3.442
23.46000 4.679
23.48000 5.051
23.50000 -1.031
23.52000 2.632
23.54000 3.178
23.56000 -1.096
23.58000 6.290
23.60000 6.741
23.62000 4.432
23.64000 4.491
23.66000 2.047
23.68000 -4.117
23.70000 -1.431
23.72000 1.181
23.74000 4.874
23.76000 10.400
23.78000 7.288
23.80000 3.329
23.82000 3.369
23.84000 3.264
23.86000 -0.224
23.88000 1.745
23.90000 -1.476
23.92000 -4.092
23.94000 0.953
23.96000 11.262
23.98000 13.735
24.00000 9.225
24.02000 12.324
24.04000 10.650
24.06000 2.106
24.08000 -1.390
24.10000 1.331
24.12000 5.575
24.14000 5.136
24.16000 2.288
24.18000 -1.643
24.20000 -2.596
24.22000 0.633
24.24000 3.010
24.26000 6.736
24.28000 11.761
24.30000 10.989
24.32000 8.587
24.34000 11.362
24.36000 4.871
24.38000 2.536
24.40000 1.175
24.42000 2.016
24.44000 -4.073
24.46000 -0.663
24.48000 2.684
24.50000 6.939
24.52000 2.299
24.54000 5.467
24.56000 -0.366
24.58000 -3.611
24.60000 4.227
24.62000 1.281
24.64000 -0.985
24.66000 0.157
24.68000 -2.060
24.70000 4.939
24.72000 4.600
24.74000 5.611
24.76000 1.994
24.78000 -0.220
24.80000 2.072
24.82000 2.256
24.84000 -1.140
24.86000 1.219
24.88000 1.426
24.90000 2.581
24.92000 -1.474
24.94000 3.659
24.96000 -2.329
24.98000 -1.898
25.00000 0.159
25.02000 1.632
25.04000 4.834
25.06000 -0.035
25.08000 -3.753
25.10000 2.663
25.12000 5.614
25.14000 5.957
25.16000 -0.711
25.18000 -2.671
25.20000 0.436
25.22000 -1.924
25.24000 -1.206
25.26000 4.269
25.28000 3.160
25.30000 4.216
25.32000 4.156
25.34000 0.291
25.36000 0.148
25.38000 -0.852
25.40000 3.693
25.42000 13.395
25.44000 9.230
25.46000 1.731
25.48000 -3.851
25.50000 -1.369
25.52000 2.544
25.54000 -3.388
25.56000 -1.828
25.58000 5.638
25.60000 2.892
25.62000 7.764
25.64000 9.420
25.66000 1.743
25.68000 0.223
25.70000 -0.485
25.72000 1.884
25.74000 11.505
25.76000 6.747
25.78000 3.514
25.80000 1.016
25.82000 1.819
25.84000 2.912
25.86000 5.245
25.88000 1.072
25.90000 -1.137
25.92000 -3.096
25.94000 4.268
25.96000 4.957
25.98000 4.581
26.00000 5.955
26.02000 9.902
26.04000 8.893
26.06000 9.139
26.08000 7.190
26.10000 5.433
26.12000 -1.660
26.14000 -2.409
26.16000 -3.972
26.18000 7.822
26.20000 9.884
26.22000 4.655
26.24000 7.358
26.26000 6.299
26.28000 6.509
26.30000 8.766
26.32000 5.808
26.34000 2.183
26.36000 5.065
26.38000 10.390
26.40000 9.405
26.42000 4.327
26.44000 7.033
26.46000 12.886
26.48000 6.617
26.50000 7.049
26.52000 3.342
26.54000 1.040
26.56000 8.484
26.58000 9.094
26.60000 4.855
26.62000 4.848
26.64000 6.878
26.66000 4.211
26.68000 2.758
26.70000 3.006
26.72000 6.028
26.74000 4.425
26.76000 1.087
26.78000 2.705
26.80000 1.014
26.82000 2.262
26.84000 1.594
26.86000 -1.647
26.88000 -3.952
26.90000 4.040
26.92000 5.163
26.94000 1.012
26.96000 5.740
26.98000 6.927
27.00000 6.140
27.02000 8.782
27.04000 2.533
27.06000 3.928
27.08000 6.888
27.10000 3.639
27.12000 3.701
27.14000 -0.942
27.16000 2.594
27.18000 1.821
27.20000 5.882
27.22000 6.468
27.24000 1.316
27.26000 3.986
27.28000 1.553
27.30000 -2.656
27.32000 -1.577
27.34000 1.834
27.36000 3.485
27.38000 6.304
27.40000 2.775
27.42000 3.062
27.44000 4.678
27.46000 5.099
27.48000 -2.223
27.50000 -1.855
27.52000 2.846
27.54000 1.949
27.56000 2.256
27.58000 5.318
27.60000 5.424
27.62000 0.022
27.64000 1.444
27.66000 -1.670
27.68000 -0.009
27.70000 2.617
27.72000 6.542
27.74000 8.263
27.76000 4.568
27.78000 4.320
27.80000 2.127
27.82000 4.913
27.84000 7.529
27.86000 9.785
27.88000 3.803
27.90000 -0.171
27.92000 0.440
27.94000 5.818
27.96000 6.965
27.98000 6.366
28.00000 8.654
28.02000 11.082
28.04000 6.060
28.06000 -1.588
28.08000 4.531
28.10000 6.149
28.12000 5.937
28.14000 7.414
28.16000 1.367
28.18000 2.276
28.20000 7.431
28.22000 7.244
28.24000 4.812
28.26000 1.995
28.28000 4.648
28.30000 5.174
28.32000 5.441
28.34000 3.300
28.36000 1.831
28.38000 4.137
28.40000 6.193
28.42000 3.590
28.44000 8.884
28.46000 5.323
28.48000 9.806
28.50000 9.476
28.52000 2.882
28.54000 -3.824
28.56000 5.648
28.58000 9.953
28.60000 8.796
28.62000 6.099
28.64000 8.316
28.66000 9.126
28.68000 10.435
28.70000 6.686
28.72000 0.136
28.74000 6.286
28.76000 6.798
28.78000 1.745
28.80000 5.452
28.82000 -0.756
28.84000 -3.119
28.86000 3.225
28.88000 2.891
28.90000 2.168
28.92000 1.800
28.94000 3.131
28.96000 0.130
28.98000 4.456
29.00000 4.447
29.02000 0.215
29.04000 5.548
29.06000 10.195
29.08000 6.229
29.10000 4.040
29.12000 5.066
29.14000 4.695
29.16000 -2.476
29.18000 -2.098
29.20000 2.888
29.22000 6.077
29.24000 6.975
29.26000 3.557
29.28000 3.061
29.30000 5.236
29.32000 2.258
29.34000 2.562
29.36000 -0.937
29.38000 3.972
29.40000 7.290
29.42000 5.262
29.44000 2.585
29.46000 1.979
29.48000 1.738
29.50000 -1.251
29.52000 4.785
29.54000 1.483
29.56000 -1.007
29.58000 5.147
29.60000 1.567
29.62000 -1.476
29.64000 1.050
29.66000 3.816
29.68000 6.399
29.70000 3.542
29.72000 4.728
29.74000 8.014
29.76000 6.632
29.78000 1.306
29.80000 0.532
29.82000 5.162
29.84000 2.591
29.86000 5.611
29.88000 7.443
29.90000 8.442
29.92000 2.889
29.94000 4.490
29.96000 2.231
29.98000 4.765
30.00000 3.082
30.02000 3.178
30.04000 3.441
30.06000 2.004
30.08000 3.418
30.10000 6.172
30.12000 5.929
30.14000 5.691
30.16000 7.458
30.18000 7.185
30.20000 7.785
30.22000 6.529
30.24000 10.118
30.26000 5.327
30.28000 0.727
30.30000 -3.749
30.32000 1.793
30.34000 2.121
30.36000 4.840
30.38000 8.557
30.40000 5.537
30.42000 4.237
30.44000 1.738
30.46000 -1.468
30.48000 -0.407
30.50000 0.192
30.52000 -0.783
30.54000 -1.102
30.56000 0.966
30.58000 3.216
30.60000 -0.630
30.62000 4.018
30.64000 4.682
30.66000 5.437
30.68000 4.816
30.70000 -1.732
30.72000 -1.046
30.74000 2.711
30.76000 1.831
30.78000 8.304
30.80000 5.864
30.82000 4.511
30.84000 1.298
30.86000 0.077
30.88000 4.176
30.90000 5.007
30.92000 2.375
30.94000 -0.936
30.96000 2.184
30.98000 -0.534
31.00000 -0.434
31.02000 -3.393
31.04000 1.484
31.06000 -0.215
31.08000 1.577
31.10000 -0.145
31.12000 -0.234
31.14000 3.240
31.16000 1.462
31.18000 1.661
31.20000 2.283
31.22000 5.891
31.24000 1.535
31.26000 0.371
31.28000 -0.409
31.30000 1.617
31.32000 3.288
31.34000 4.293
31.36000 3.714
31.38000 4.452
31.40000 6.542
31.42000 3.196
31.44000 -0.811
31.46000 1.850
31.48000 1.031
31.50000 -3.715
31.52000 -2.676
31.54000 -0.266
31.56000 4.103
31.58000 8.699
31.60000 5.336
31.62000 4.663
31.64000 -1.231
31.66000 -3.454
31.68000 0.539
31.70000 1.474
31.72000 5.398
31.74000 2.384
31.76000 0.371
31.78000 6.384
31.80000 4.026
31.82000 0.078
31.84000 -3.699
31.86000 -0.568
31.88000 4.108
31.90000 6.165
31.92000 -1.762
31.94000 3.432
31.96000 7.798
31.98000 -2.092
32.00000 -2.876
32.02000 0.922
32.04000 3.518
32.06000 3.018
32.08000 6.882
32.10000 2.375
32.12000 3.403
32.14000 0.310
32.16000 6.925
32.18000 5.946
32.20000 5.128
32.22000 9.123
32.24000 7.953
32.26000 4.897
32.28000 -3.677
32.30000 1.959
32.32000 4.851
32.34000 6.527
32.36000 3.877
32.38000 -2.069
32.40000 -1.915
32.42000 6.371
32.44000 7.059
32.46000 4.036
32.48000 3.730
32.50000 0.152
32.52000 -0.764
32.54000 0.329
32.56000 -3.663
32.58000 -2.516
32.60000 1.925
32.62000 -1.089
32.64000 -0.084
32.66000 -0.539
32.68000 -0.237
32.70000 -0.486
32.72000 2.606
32.74000 3.057
32.76000 2.190
32.78000 0.383
32.80000 1.305
32.82000 -0.536
32.84000 1.821
32.86000 3.300
32.88000 3.170
32.90000 3.804
32.92000 1.323
32.94000 2.755
32.96000 1.595
32.98000 2.710
33.00000 1.488
33.02000 1.067
33.04000 -1.326
33.06000 -0.089
33.08000 1.433
33.10000 4.104
33.12000 5.311
33.14000 6.051
33.16000 4.629
33.18000 -0.525
33.20000 2.818
33.22000 3.751
33.24000 1.232
33.26000 1.834
33.28000 5.242
33.30000 5.725
33.32000 8.527
33.34000 3.325
33.36000 1.448
33.38000 2.694
33.40000 -0.657
33.42000 0.696
33.44000 3.819
33.46000 5.006
33.48000 3.925
33.50000 0.679
33.52000 3.008
33.54000 -1.189
33.56000 1.742
33.58000 8.268
33.60000 4.446
33.62000 0.875
33.64000 4.655
33.66000 2.486
33.68000 -0.285
33.70000 -0.308
33.72000 1.372
33.74000 0.021
33.76000 -3.230
33.78000 -3.637
33.80000 2.641
33.82000 1.169
33.84000 -0.095
33.86000 4.232
33.88000 2.398
33.90000 2.617
33.92000 3.950
33.94000 5.695
33.96000 1.671
33.98000 -0.649
34.00000 5.163
34.02000 3.870
34.04000 5.221
34.06000 7.290
34.08000 3.984
34.10000 -0.816
34.12000 -0.454
34.14000 0.618
34.16000 1.904
34.18000 5.895
34.20000 6.376
34.22000 3.417
34.24000 0.029
34.26000 -1.474
34.28000 -1.288
34.30000 2.846
34.32000 1.791
34.34000 -2.020
34.36000 2.743
34.38000 7.862
34.40000 5.972
34.42000 3.329
34.44000 2.844
34.46000 1.321
34.48000 2.465
34.50000 6.742
34.52000 6.553
34.54000 6.404
34.56000 3.416
34.58000 2.761
34.60000 4.618
34.62000 6.265
34.64000 3.226
34.66000 -1.913
34.68000 2.302
34.70000 4.726
34.72000 3.080
34.74000 2.844
34.76000 0.914
34.78000 -1.626
34.80000 -3.585
34.82000 -2.483
34.84000 4.678
34.86000 2.229
34.88000 -1.484
34.90000 2.219
34.92000 -0.291
34.94000 -0.045
34.96000 0.159
34.98000 -1.047
35.00000 -1.147
35.02000 0.443
35.04000 1.765
35.06000 1.778
35.08000 4.237
35.10000 5.728
35.12000 3.970
35.14000 -0.085
35.16000 -1.442
35.18000 -0.311
35.20000 -3.530
35.22000 -1.849
35.24000 3.351
35.26000 2.503
35.28000 4.918
35.30000 7.993
35.32000 2.376
35.34000 4.598
35.36000 6.168
35.38000 3.991
35.40000 3.932
35.42000 0.268
35.44000 0.306
35.46000 -1.496
35.48000 2.346
35.50000 3.967
35.52000 1.807
35.54000 0.019
35.56000 0.189
35.58000 -2.263
35.60000 0.458
35.62000 -2.143
35.64000 -1.246
35.66000 4.428
35.68000 1.019
35.70000 -0.059
35.72000 -0.076
35.74000 5.066
35.76000 8.610
35.78000 5.146
35.80000 -0.105
35.82000 -3.564
35.84000 -3.556
35.86000 0.584
35.88000 2.489
35.90000 2.645
35.92000 0.175
35.94000 -3.562
35.96000 -0.082
35.98000 2.969
36.00000 0.234
36.02000 -0.328
36.04000 7.268
36.06000 2.776
36.08000 5.732
36.10000 5.847
36.12000 1.233
36.14000 -1.061
36.16000 3.352
36.18000 1.395
36.20000 3.755
36.22000 1.120
36.24000 -0.099
36.26000 0.370
36.28000 -2.436
36.30000 -3.571
36.32000 1.360
36.34000 1.352
36.36000 0.956
36.38000 -0.874
36.40000 2.578
36.42000 -0.426
36.44000 3.715
36.46000 3.250
36.48000 1.077
36.50000 1.155
36.52000 -0.604
36.54000 -2.422
36.56000 0.624
36.58000 2.854
36.60000 3.027
36.62000 3.940
36.64000 -0.240
36.66000 -2.939
36.68000 -2.205
36.70000 3.584
36.72000 2.848
36.74000 3.312
36.76000 4.856
36.78000 2.966
36.80000 2.209
36.82000 2.903
36.84000 2.798
36.86000 4.461
36.88000 1.663
36.90000 1.671
36.92000 5.715
36.94000 6.496
36.96000 0.629
36.98000 -3.585
37.00000 -2.514
37.02000 1.857
37.04000 3.790
37.06000 -0.413
37.08000 -0.696
37.10000 5.465
37.12000 8.947
37.14000 4.632
37.16000 1.861
37.18000 2.241
37.20000 -0.543
37.22000 -3.503
37.24000 -2.660
37.26000 2.429
37.28000 0.388
37.30000 -3.163
37.32000 -1.297
37.34000 2.601
37.36000 -0.662
37.38000 1.932
37.40000 0.462
37.42000 -0.456
37.44000 -0.501
37.46000 4.791
37.48000 7.943
37.50000 0.087
37.52000 -0.846
37.54000 1.658
37.56000 1.599
37.58000 1.321
37.60000 -0.203
37.62000 -3.066
37.64000 -2.652
37.66000 2.719
37.68000 1.558
37.70000 6.071
37.72000 3.281
37.74000 -3.638
37.76000 0.722
37.78000 4.779
37.80000 3.115
37.82000 2.031
37.84000 4.233
37.86000 1.961
37.88000 1.551
37.90000 1.415
37.92000 5.073
37.94000 4.620
37.96000 6.552
37.98000 5.630
38.00000 7.721
38.02000 9.606
38.04000 8.992
38.06000 10.048
38.08000 9.817
38.10000 9.856
38.12000 10.439
38.14000 8.713
38.16000 6.724
38.18000 10.462
38.20000 10.503
38.22000 11.461
38.24000 10.795
38.26000 8.383
38.28000 8.027
38.30000 8.918
38.32000 9.032
38.34000 11.289
38.36000 10.768
38.38000 11.672
38.40000 14.263
38.42000 24.187
38.44000 18.054
38.46000 10.827
38.48000 16.076
38.50000 25.428
38.52000 23.235
38.54000 17.508
38.56000 23.718
38.58000 26.292
38.60000 21.179
38.62000 20.573
38.64000 21.748
38.66000 26.455
38.68000 21.744
38.70000 22.429
38.72000 20.008
38.74000 22.645
38.76000 23.453
38.78000 23.433
38.80000 24.652
38.82000 24.544
38.84000 25.247
38.86000 23.759
38.88000 23.185
38.90000 26.808
38.92000 34.839
38.94000 32.251
38.96000 31.767
38.98000 28.791
39.00000 31.187
39.02000 33.155
39.04000 33.808
39.06000 37.959
39.08000 31.539
39.10000 32.960
39.12000 37.328
39.14000 37.283
39.16000 40.523
39.18000 41.541
39.20000 48.645
39.22000 51.411
39.24000 53.178
39.26000 51.120
39.28000 53.686
39.30000 56.517
39.32000 57.590
39.34000 57.047
39.36000 66.051
39.38000 66.258
39.40000 66.945
39.42000 69.558
39.44000 66.098
39.46000 77.096
39.48000 85.700
39.50000 85.486
39.52000 92.883
39.54000 98.269
39.56000 104.218
39.58000 106.016
39.60000 111.363
39.62000 110.990
39.64000 118.996
39.66000 135.464
39.68000 145.306
39.70000 156.883
39.72000 166.562
39.74000 178.207
39.76000 188.838
39.78000 193.668
39.80000 206.883
39.82000 226.358
39.84000 251.168
39.86000 265.360
39.88000 279.997
39.90000 292.791
39.92000 319.127
39.94000 349.182
39.96000 375.801
39.98000 407.716
40.00000 425.421
40.02000 461.357
40.04000 502.510
40.06000 542.931
40.08000 584.068
40.10000 630.842
40.12000 677.677
40.14000 714.011
40.16000 759.666
40.18000 802.051
40.20000 868.507
40.22000 902.972
40.24000 969.870
40.26000 1035.759
40.28000 1069.107
40.30000 1104.165
40.32000 1150.345
40.34000 1185.980
40.36000 1213.125
40.38000 1246.375
40.40000 1286.288
40.42000 1300.187
40.44000 1322.962
40.46000 1326.403
40.48000 1331.417
40.50000 1307.043
40.52000 1295.151
40.54000 1291.898
40.56000 1287.466
40.58000 1277.003
40.60000 1245.628
40.62000 1215.809
40.64000 1183.342
40.66000 1147.914
40.68000 1110.267
40.70000 1088.003
40.72000 1038.159
40.74000 1003.812
40.76000 980.047
40.78000 938.612
40.80000 896.538
40.82000 862.337
40.84000 830.718
40.86000 785.954
40.88000 740.462
40.90000 714.811
40.92000 672.590
40.94000 632.610
40.96000 612.623
40.98000 583.436
41.00000 548.634
41.02000 522.184
41.04000 489.738
41.06000 463.838
41.08000 445.637
41.10000 424.955
41.12000 395.249
41.14000 361.060
41.16000 348.713
41.18000 332.044
41.20000 315.031
41.22000 299.718
41.24000 281.938
41.26000 267.355
41.28000 250.036
41.30000 238.943
41.32000 230.404
41.34000 219.476
41.36000 212.235
41.38000 196.582
41.40000 185.280
41.42000 174.076
41.44000 165.784
41.46000 155.927
41.48000 160.253
41.50000 154.241
41.52000 144.270
41.54000 139.757
41.56000 128.840
41.58000 114.251
41.60000 106.474
41.62000 106.221
41.64000 106.474
41.66000 98.420
41.68000 98.256
41.70000 94.374
41.72000 85.974
41.74000 89.618
41.76000 79.197
41.78000 71.345
41.80000 72.986
41.82000 71.833
41.84000 70.320
41.86000 62.807
41.88000 60.926
41.90000 58.092
41.92000 57.468
41.94000 57.604
41.96000 52.251
41.98000 50.686
42.00000 47.545
42.02000 47.802
42.04000 44.699
42.06000 45.488
42.08000 45.965
42.10000 42.517
42.12000 36.983
42.14000 34.406
42.16000 34.413
42.18000 35.053
42.20000 31.538
42.22000 30.641
42.24000 26.458
42.26000 24.712
42.28000 28.102
42.30000 25.163
42.32000 23.493
42.34000 25.021
42.36000 28.022
42.38000 26.336
42.40000 19.526
42.42000 21.279
42.44000 16.721
42.46000 12.363
42.48000 15.471
42.50000 16.044
42.52000 16.780
42.54000 17.691
42.56000 14.524
42.58000 13.340
42.60000 13.514
42.62000 15.003
42.64000 12.585
42.66000 10.384
42.68000 11.443
42.70000 12.906
42.72000 14.815
42.74000 12.652
42.76000 11.403
42.78000 8.678
42.80000 7.153
42.82000 8.551
42.84000 9.694
42.86000 7.658
42.88000 4.345
42.90000 2.345
42.92000 8.190
42.94000 9.119
42.96000 6.315
42.98000 -1.048
43.00000 -3.060
43.02000 -2.265
43.04000 -1.379
43.06000 -1.316
43.08000 1.692
43.10000 2.222
43.12000 1.456
43.14000 -2.812
43.16000 -3.566
43.18000 -3.286
43.20000 0.518
43.22000 -1.931
43.24000 -0.174
43.26000 -0.408
43.28000 1.605
43.30000 -1.895
43.32000 3.620
43.34000 1.980
43.36000 -0.616
43.38000 1.491
43.40000 -0.801
43.42000 -2.368
43.44000 -3.510
43.46000 -3.299
43.48000 2.231
43.50000 0.663
43.52000 0.084
43.54000 -1.874
43.56000 -2.359
43.58000 -0.415
43.60000 -0.463
43.62000 2.530
43.64000 1.900
43.66000 -0.347
43.68000 0.002
43.70000 1.352
43.72000 -3.452
43.74000 -1.131
43.76000 0.258
43.78000 -2.492
43.80000 -2.535
43.82000 -1.045
43.84000 0.639
43.86000 0.048
43.88000 2.439
43.90000 4.468
43.92000 -0.610
43.94000 -2.623
43.96000 -0.295
43.98000 -0.653
44.00000 -2.313
44.02000 -0.395
44.04000 -0.627
44.06000 -1.663
44.08000 -1.748
44.10000 -1.848
44.12000 0.354
44.14000 5.801
44.16000 3.451
44.18000 -1.459
44.20000 -2.279
44.22000 -3.332
44.24000 -0.563
44.26000 0.079
44.28000 0.163
44.30000 3.933
44.32000 -0.935
44.34000 -0.995
44.36000 3.177
44.38000 -0.462
44.40000 -3.291
44.42000 -0.098
44.44000 5.229
44.46000 2.547
44.48000 0.158
44.50000 1.597
44.52000 3.935
44.54000 4.058
44.56000 3.139
44.58000 4.685
44.60000 2.128
44.62000 -1.586
44.64000 0.387
44.66000 3.070
44.68000 5.800
44.70000 6.032
44.72000 4.775
44.74000 1.483
44.76000 1.085
44.78000 -0.943
44.80000 -2.568
44.82000 1.735
44.84000 2.396
44.86000 4.154
44.88000 0.932
44.90000 0.420
44.92000 4.841
44.94000 3.434
44.96000 2.946
44.98000 1.165
45.00000 -0.943
45.02000 -1.712
45.04000 -3.243
45.06000 1.699
45.08000 5.978
45.10000 4.930
45.12000 5.521
45.14000 3.878
45.16000 2.942
45.18000 2.211
45.20000 1.875
45.22000 5.026
45.24000 4.678
45.26000 -0.653
45.28000 0.805
45.30000 2.272
45.32000 3.162
45.34000 2.340
45.36000 2.212
45.38000 1.882
45.40000 1.304
45.42000 3.035
45.44000 5.524
45.46000 6.549
45.48000 2.157
45.50000 4.664
45.52000 2.987
45.54000 2.715
45.56000 2.230
45.58000 8.081
45.60000 10.163
45.62000 8.455
45.64000 6.315
45.66000 6.189
45.68000 7.905
45.70000 9.231
45.72000 9.086
45.74000 9.146
45.76000 10.804
45.78000 10.934
45.80000 11.697
45.82000 10.245
45.84000 12.663
45.86000 13.489
45.88000 11.100
45.90000 13.172
45.92000 12.410
45.94000 14.639
45.96000 14.953
45.98000 15.349
46.00000 16.191
46.02000 15.391
46.04000 18.557
46.06000 20.855
46.08000 23.135
46.10000 25.865
46.12000 23.320
46.14000 21.611
46.16000 21.497
46.18000 25.539
46.20000 26.601
46.22000 27.709
46.24000 28.697
46.26000 32.203
46.28000 34.038
46.30000 28.927
46.32000 28.883
46.34000 31.881
46.36000 30.485
46.38000 34.722
46.40000 38.983
46.42000 41.868
46.44000 45.551
46.46000 42.570
46.48000 50.538
46.50000 55.902
46.52000 52.433
46.54000 57.384
46.56000 56.238
46.58000 59.182
46.60000 65.414
46.62000 67.474
46.64000 68.151
46.66000 65.580
46.68000 67.349
46.70000 71.303
46.72000 79.345
46.74000 84.035
46.76000 87.790
46.78000 87.521
46.80000 91.606
46.82000 99.452
46.84000 105.923
46.86000 107.929
46.88000 111.544
46.90000 113.015
46.92000 120.074
46.94000 119.583
46.96000 123.335
46.98000 130.082
47.00000 133.054
47.02000 135.646
47.04000 137.902
47.06000 142.932
47.08000 135.934
47.10000 140.050
47.12000 142.699
47.14000 144.500
47.16000 140.433
47.18000 138.946
47.20000 138.038
47.22000 134.940
47.24000 136.094
47.26000 132.574
47.28000 128.527
47.30000 124.846
47.32000 124.350
47.34000 127.244
47.36000 123.880
47.38000 119.281
47.40000 111.004
47.42000 106.494
47.44000 99.048
47.46000 101.329
47.48000 96.567
47.50000 90.550
47.52000 88.739
47.54000 93.159
47.56000 91.731
47.58000 82.577
47.60000 75.065
47.62000 71.350
47.64000 72.916
47.66000 67.003
47.68000 64.634
47.70000 59.172
47.72000 57.583
47.74000 57.193
47.76000 57.524
47.78000 49.167
47.80000 40.729
47.82000 42.061
47.84000 45.219
47.86000 40.220
47.88000 35.884
47.90000 36.010
47.92000 31.676
47.94000 31.183
47.96000 31.515
47.98000 30.226
48.00000 28.800
48.02000 21.940
48.04000 19.930
48.06000 19.861
48.08000 21.828
48.10000 20.674
48.12000 20.664
48.14000 18.625
48.16000 17.620
48.18000 15.837
48.20000 9.555
48.22000 7.413
48.24000 11.842
48.26000 9.662
48.28000 12.614
48.30000 10.717
48.32000 5.589
48.34000 8.187
48.36000 9.604
48.38000 8.098
48.40000 7.175
48.42000 9.338
48.44000 8.275
48.46000 10.215
48.48000 10.728
48.50000 7.957
48.52000 7.042
48.54000 5.332
48.56000 8.030
48.58000 4.991
48.60000 6.779
48.62000 6.367
48.64000 6.541
48.66000 6.264
48.68000 6.768
48.70000 7.838
48.72000 6.222
48.74000 3.277
48.76000 4.456
48.78000 4.565
48.80000 0.386
48.82000 1.825
48.84000 2.164
48.86000 3.212
48.88000 5.760
48.90000 3.616
48.92000 4.333
48.94000 4.593
48.96000 4.674
48.98000 6.960
49.00000 2.754
49.02000 1.368
49.04000 3.122
49.06000 -2.625
49.08000 5.424
49.10000 5.766
49.12000 1.665
49.14000 3.743
49.16000 3.438
49.18000 6.572
49.20000 6.282
49.22000 3.531
49.24000 1.975
49.26000 3.052
49.28000 6.558
49.30000 7.702
49.32000 2.109
49.34000 2.372
49.36000 -0.140
49.38000 0.590
49.40000 2.360
49.42000 1.412
49.44000 2.503
49.46000 1.407
49.48000 2.979
49.50000 1.177
49.52000 -1.527
49.54000 -2.269
49.56000 1.334
49.58000 4.260
49.60000 1.934
49.62000 2.800
49.64000 6.152
49.66000 3.482
49.68000 1.753
49.70000 1.095
49.72000 4.233
49.74000 1.293
49.76000 1.896
49.78000 3.592
49.80000 -0.826
49.82000 -1.889
49.84000 1.648
49.86000 0.645
49.88000 0.143
49.90000 0.395
49.92000 1.916
49.94000 1.357
49.96000 -0.309
49.98000 1.636
50.00000 3.837
50.02000 3.194
50.04000 8.167
50.06000 6.032
50.08000 5.906
50.10000 3.360
50.12000 4.092
50.14000 4.749
50.16000 2.957
50.18000 2.276
50.20000 0.119
50.22000 -1.390
50.24000 0.166
50.26000 -1.086
50.28000 1.584
50.30000 2.453
50.32000 -2.508
50.34000 -0.704
50.36000 0.765
50.38000 3.310
50.40000 3.190
50.42000 2.211
50.44000 3.178
50.46000 2.931
50.48000 3.232
50.50000 2.716
50.52000 2.385
50.54000 2.748
50.56000 0.232
50.58000 1.357
50.60000 1.627
50.62000 1.160
50.64000 2.224
50.66000 1.785
50.68000 1.296
50.70000 1.499
50.72000 -1.297
50.74000 6.497
50.76000 7.240
50.78000 0.555
50.80000 2.717
50.82000 1.727
50.84000 0.258
50.86000 7.159
50.88000 3.883
50.90000 0.100
50.92000 2.389
50.94000 1.209
50.96000 -0.867
50.98000 -1.623
51.00000 3.366
51.02000 4.421
51.04000 5.551
51.06000 5.139
51.08000 3.222
51.10000 5.476
51.12000 4.618
51.14000 1.242
51.16000 -1.707
51.18000 -1.275
51.20000 0.639
51.22000 0.889
51.24000 -1.421
51.26000 0.542
51.28000 1.630
51.30000 0.427
51.32000 1.787
51.34000 -0.235
51.36000 0.305
51.38000 4.810
51.40000 3.573
51.42000 3.777
51.44000 6.475
51.46000 4.451
51.48000 -0.372
51.50000 -2.451
51.52000 -0.747
51.54000 0.747
51.56000 0.590
51.58000 1.333
51.60000 1.478
51.62000 2.526
51.64000 3.376
51.66000 5.166
51.68000 2.611
51.70000 1.248
51.72000 4.218
51.74000 5.567
51.76000 3.440
51.78000 1.884
51.80000 1.606
51.82000 1.911
51.84000 -1.573
51.86000 -2.436
51.88000 -1.690
51.90000 3.932
51.92000 5.129
51.94000 5.732
51.96000 3.743
51.98000 0.005
52.00000 1.271
52.02000 1.382
52.04000 -1.344
52.06000 0.099
52.08000 3.481
52.10000 4.943
52.12000 2.557
52.14000 4.687
52.16000 2.980
52.18000 3.577
52.20000 1.757
52.22000 0.301
52.24000 0.384
52.26000 2.487
52.28000 0.499
52.30000 -0.053
52.32000 3.237
52.34000 4.265
52.36000 5.594
52.38000 4.776
52.40000 5.126
52.42000 5.450
52.44000 1.363
52.46000 4.452
52.48000 4.490
52.50000 1.127
52.52000 3.475
52.54000 1.864
52.56000 1.851
52.58000 2.957
52.60000 0.161
52.62000 -2.411
52.64000 2.733
52.66000 0.603
52.68000 1.115
52.70000 2.710
52.72000 1.018
52.74000 -0.137
52.76000 1.165
52.78000 0.561
52.80000 2.135
52.82000 1.995
52.84000 0.977
52.86000 1.216
52.88000 2.194
52.90000 0.560
52.92000 0.835
52.94000 3.878
52.96000 5.260
52.98000 4.287
53.00000 -0.033
53.02000 -1.206
53.04000 2.139
53.06000 0.330
53.08000 -0.349
53.10000 1.347
53.12000 2.590
53.14000 -1.414
53.16000 1.955
53.18000 2.370
53.20000 3.231
53.22000 -2.029
53.24000 1.315
53.26000 1.704
53.28000 -1.107
53.30000 1.950
53.32000 -1.418
53.34000 0.357
53.36000 3.833
53.38000 -0.367
53.40000 -0.660
53.42000 0.466
53.44000 3.748
53.46000 3.433
53.48000 0.755
53.50000 3.914
53.52000 5.356
53.54000 1.007
53.56000 3.676
53.58000 1.595
53.60000 1.463
53.62000 -0.483
53.64000 -1.654
53.66000 0.534
53.68000 -1.160
53.70000 2.644
53.72000 3.656
53.74000 1.246
53.76000 2.994
53.78000 2.633
53.80000 1.069
53.82000 5.702
53.84000 3.665
53.86000 1.988
53.88000 3.635
53.90000 5.467
53.92000 2.364
53.94000 3.648
53.96000 3.658
53.98000 -2.230
54.00000 2.488
54.02000 3.750
54.04000 2.128
54.06000 1.203
54.08000 1.465
54.10000 2.131
54.12000 1.076
54.14000 2.355
54.16000 0.962
54.18000 -2.321
54.20000 2.775
54.22000 5.432
54.24000 2.423
54.26000 3.807
54.28000 2.285
54.30000 -0.113
54.32000 0.434
54.34000 2.280
54.36000 1.841
54.38000 0.126
54.40000 3.208
54.42000 3.154
54.44000 2.785
54.46000 3.681
54.48000 2.873
54.50000 3.583
54.52000 3.698
54.54000 4.877
54.56000 2.078
54.58000 2.455
54.60000 3.592
54.62000 2.889
54.64000 -1.836
54.66000 -1.633
54.68000 5.261
54.70000 5.678
54.72000 4.768
54.74000 -0.376
54.76000 2.561
54.78000 3.237
54.80000 1.252
54.82000 0.095
54.84000 0.298
54.86000 0.228
54.88000 0.929
54.90000 -0.593
54.92000 0.910
54.94000 1.889
54.96000 0.174
54.98000 1.214
55.00000 2.266
55.02000 1.253
55.04000 -0.197
55.06000 0.072
55.08000 0.003
55.10000 -0.350
55.12000 2.732
55.14000 1.607
55.16000 4.258
55.18000 1.932
55.20000 0.974
55.22000 -0.005
55.24000 -0.947
55.26000 2.544
55.28000 -0.090
55.30000 2.886
55.32000 0.569
55.34000 2.318
55.36000 2.804
55.38000 4.434
55.40000 2.016
55.42000 1.258
55.44000 1.710
55.46000 5.997
55.48000 3.792
55.50000 1.421
55.52000 0.820
55.54000 5.219
55.56000 2.028
55.58000 0.042
55.60000 -1.425
55.62000 -2.324
55.64000 2.842
55.66000 0.028
55.68000 0.939
55.70000 -1.120
55.72000 -1.032
55.74000 2.524
55.76000 3.782
55.78000 1.554
55.80000 -0.046
55.82000 4.783
55.84000 6.290
55.86000 3.223
55.88000 -1.338
55.90000 -0.532
55.92000 1.329
55.94000 0.683
55.96000 2.378
55.98000 5.292
56.00000 4.431
56.02000 5.435
56.04000 4.112
56.06000 -0.940
56.08000 4.178
56.10000 5.362
56.12000 1.813
56.14000 -0.360
56.16000 1.380
56.18000 4.479
56.20000 6.762
56.22000 4.475
56.24000 1.276
56.26000 1.568
56.28000 1.372
56.30000 2.064
56.32000 1.289
56.34000 1.253
56.36000 0.485
56.38000 -2.315
56.40000 -2.014
56.42000 1.933
56.44000 1.507
56.46000 3.365
56.48000 0.969
56.50000 2.600
56.52000 5.005
56.54000 2.616
56.56000 1.321
56.58000 3.084
56.60000 0.340
56.62000 1.046
56.64000 1.266
56.66000 2.353
56.68000 2.278
56.70000 2.257
56.72000 -0.004
56.74000 -0.448
56.76000 0.405
56.78000 1.005
56.80000 -0.469
56.82000 2.469
56.84000 1.396
56.86000 0.630
56.88000 0.961
56.90000 0.864
56.92000 2.527
56.94000 1.797
56.96000 0.726
56.98000 -0.595
57.00000 -1.688
57.02000 0.486
57.04000 1.464
57.06000 0.513
57.08000 1.064
57.10000 1.589
57.12000 2.439
57.14000 2.421
57.16000 0.346
57.18000 1.664
57.20000 0.684
57.22000 1.434
57.24000 0.967
57.26000 3.606
57.28000 6.858
57.30000 3.756
57.32000 0.235
57.34000 2.162
57.36000 1.840
57.38000 -0.412
57.40000 1.030
57.42000 -2.267
57.44000 2.149
57.46000 4.714
57.48000 1.651
57.50000 1.228
57.52000 1.224
57.54000 3.582
57.56000 3.949
57.58000 3.084
57.60000 5.916
57.62000 6.380
57.64000 1.821
57.66000 3.082
57.68000 4.257
57.70000 2.681
57.72000 2.049
57.74000 1.984
57.76000 -1.219
57.78000 1.985
57.80000 0.799
57.82000 1.291
57.84000 -1.500
57.86000 0.077
57.88000 -0.064
57.90000 0.133
57.92000 5.865
57.94000 1.833
57.96000 -0.464
57.98000 -2.268
58.00000 0.170
58.02000 0.258
58.04000 2.738
58.06000 0.728
58.08000 2.410
58.10000 0.032
58.12000 1.329
58.14000 0.165
58.16000 -1.167
58.18000 0.616
58.20000 1.056
58.22000 -1.189
58.24000 -0.567
58.26000 0.828
58.28000 3.486
58.30000 4.230
58.32000 0.469
58.34000 -0.027
58.36000 0.806
58.38000 -0.621
58.40000 -1.692
58.42000 0.486
58.44000 -0.121
58.46000 0.186
58.48000 3.009
58.50000 0.633
58.52000 -1.218
58.54000 1.552
58.56000 3.355
58.58000 0.813
58.60000 0.281
58.62000 0.023
58.64000 -2.239
58.66000 1.996
58.68000 2.734
58.70000 3.062
58.72000 4.545
58.74000 1.656
58.76000 -0.115
58.78000 -0.651
58.80000 3.397
58.82000 5.042
58.84000 2.501
58.86000 -1.458
58.88000 -1.637
58.90000 -2.175
58.92000 -0.174
58.94000 -0.273
58.96000 1.465
58.98000 3.400
59.00000 0.339
59.02000 -0.923
59.04000 1.296
59.06000 3.188
59.08000 1.421
59.10000 2.582
59.12000 1.397
59.14000 0.331
59.16000 -0.730
59.18000 0.244
59.20000 -0.511
59.22000 -2.212
59.24000 -2.221
59.26000 -0.355
59.28000 1.028
59.30000 2.862
59.32000 6.794
59.34000 6.503
59.36000 1.403
59.38000 2.820
59.40000 3.983
59.42000 1.173
59.44000 2.629
59.46000 2.181
59.48000 1.584
59.50000 0.295
59.52000 -0.894
59.54000 2.714
59.56000 0.932
59.58000 1.239
59.60000 2.414
59.62000 1.687
59.64000 1.715
59.66000 -0.781
59.68000 -0.284
59.70000 2.083
59.72000 -0.168
59.74000 -1.045
59.76000 1.058
59.78000 1.191
59.80000 -0.456
59.82000 0.247
59.84000 2.079
59.86000 0.629
59.88000 2.866
59.90000 2.026
59.92000 3.602
59.94000 2.353
59.96000 4.735
59.98000 2.575
60.00000 2.060
60.02000 0.792
60.04000 -0.618
60.06000 -0.156
60.08000 0.747
60.10000 -0.205
60.12000 1.161
60.14000 0.969
60.16000 1.501
60.18000 2.002
60.20000 -0.327
60.22000 0.080
60.24000 2.749
60.26000 2.128
60.28000 -0.917
60.30000 1.021
60.32000 2.635
60.34000 1.896
60.36000 -0.543
60.38000 -1.553
60.40000 0.062
60.42000 2.880
60.44000 3.254
60.46000 2.422
60.48000 1.103
60.50000 -1.002
60.52000 -2.174
60.54000 -0.427
60.56000 2.793
60.58000 5.182
60.60000 4.715
60.62000 5.785
60.64000 1.964
60.66000 -1.442
60.68000 -0.482
60.70000 0.429
60.72000 4.190
60.74000 2.443
60.76000 2.584
60.78000 1.710
60.80000 -0.982
60.82000 -0.119
60.84000 4.493
60.86000 3.962
60.88000 -0.001
60.90000 -0.195
60.92000 1.392
60.94000 3.058
60.96000 2.283
60.98000 5.459
61.00000 2.993
61.02000 0.056
61.04000 0.717
61.06000 1.758
61.08000 2.394
61.10000 2.010
61.12000 3.461
61.14000 2.999
61.16000 0.611
61.18000 1.122
61.20000 3.566
61.22000 2.652
61.24000 1.614
61.26000 2.924
61.28000 1.431
61.30000 -0.400
61.32000 -1.688
61.34000 -0.660
61.36000 -0.330
61.38000 -1.265
61.40000 2.034
61.42000 0.896
61.44000 0.935
61.46000 1.321
61.48000 1.325
61.50000 1.772
61.52000 0.452
61.54000 0.352
61.56000 -0.955
61.58000 -0.706
61.60000 -2.149
61.62000 1.565
61.64000 0.931
61.66000 0.978
61.68000 1.881
61.70000 1.511
61.72000 0.546
61.74000 1.427
61.76000 1.375
61.78000 0.597
61.80000 1.199
61.82000 2.324
61.84000 2.719
61.86000 4.070
61.88000 1.400
61.90000 1.538
61.92000 2.526
61.94000 3.173
61.96000 3.987
61.98000 4.450
62.00000 0.804
62.02000 -1.341
62.04000 1.393
62.06000 3.507
62.08000 2.701
62.10000 0.508
62.12000 1.328
62.14000 2.791
62.16000 -0.735
62.18000 -2.143
62.20000 2.826
62.22000 3.230
62.24000 1.248
62.26000 3.139
62.28000 2.463
62.30000 0.765
62.32000 0.680
62.34000 0.938
62.36000 1.560
62.38000 0.368
62.40000 -0.035
62.42000 -2.018
62.44000 -1.659
62.46000 1.570
62.48000 2.450
62.50000 1.293
62.52000 -0.450
62.54000 -1.952
62.56000 -0.478
62.58000 -0.960
62.60000 1.463
62.62000 1.170
62.64000 -0.107
62.66000 -0.343
62.68000 -0.452
62.70000 -0.618
62.72000 0.249
62.74000 -0.225
62.76000 -0.751
62.78000 0.979
62.80000 4.750
62.82000 3.930
62.84000 1.397
62.86000 -0.432
62.88000 -0.740
62.90000 -2.166
62.92000 -1.683
62.94000 0.856
62.96000 -1.909
62.98000 -1.013
63.00000 0.213
63.02000 -1.253
63.04000 -1.495
63.06000 -1.619
63.08000 -1.856
63.10000 1.509
63.12000 4.907
63.14000 1.536
63.16000 -0.610
63.18000 2.196
63.20000 0.916
63.22000 3.368
63.24000 4.107
63.26000 0.507
63.28000 0.770
63.30000 2.516
63.32000 2.637
63.34000 1.805
63.36000 2.023
63.38000 1.027
63.40000 2.512
63.42000 0.534
63.44000 0.643
63.46000 2.262
63.48000 0.478
63.50000 -0.473
63.52000 0.531
63.54000 0.555
63.56000 0.890
63.58000 3.292
63.60000 3.849
63.62000 1.815
63.64000 2.190
63.66000 0.695
63.68000 -1.055
63.70000 -2.124
63.72000 -1.805
63.74000 -0.164
63.76000 1.712
63.78000 2.252
63.80000 2.569
63.82000 1.220
63.84000 1.222
63.86000 0.384
63.88000 1.442
63.90000 0.056
63.92000 -0.933
63.94000 4.245
63.96000 0.445
63.98000 4.096
64.00000 6.223
64.02000 5.404
64.04000 3.712
64.06000 -0.721
64.08000 1.117
64.10000 4.051
64.12000 3.546
64.14000 3.572
64.16000 0.923
64.18000 -0.061
64.20000 -0.956
64.22000 0.544
64.24000 0.197
64.26000 0.555
64.28000 1.144
64.30000 4.003
64.32000 2.070
64.34000 -0.491
64.36000 1.915
64.38000 3.260
64.40000 1.102
64.42000 1.577
64.44000 2.545
64.46000 4.323
64.48000 -0.840
64.50000 -2.136
64.52000 1.345
64.54000 5.139
64.56000 5.333
64.58000 4.109
64.60000 1.489
64.62000 -0.317
64.64000 1.457
64.66000 -0.059
64.68000 3.071
64.70000 5.184
64.72000 1.568
64.74000 -2.129
64.76000 -0.743
64.78000 2.373
64.80000 1.237
64.82000 0.067
64.84000 0.701
64.86000 1.044
64.88000 0.275
64.90000 -0.117
64.92000 1.634
64.94000 2.705
64.96000 1.765
64.98000 0.133
65.00000 -0.606
65.02000 -0.758
65.04000 0.350
65.06000 1.966
65.08000 2.516
65.10000 0.496
65.12000 0.638
65.14000 0.411
65.16000 0.075
65.18000 0.838
65.20000 0.535
65.22000 0.994
65.24000 0.660
65.26000 1.447
65.28000 2.777
65.30000 1.262
65.32000 -1.466
65.34000 -0.064
65.36000 1.400
65.38000 -0.060
65.40000 1.805
65.42000 0.872
65.44000 1.276
65.46000 3.527
65.48000 1.817
65.50000 0.720
65.52000 1.760
65.54000 -1.267
65.56000 -2.137
65.58000 1.343
65.60000 0.552
65.62000 0.425
65.64000 1.001
65.66000 3.693
65.68000 0.787
65.70000 -1.990
65.72000 -1.257
65.74000 0.613
65.76000 2.729
65.78000 1.728
65.80000 2.306
65.82000 -1.133
65.84000 1.222
65.86000 0.972
65.88000 -0.026
65.90000 -0.244
65.92000 0.381
65.94000 1.336
65.96000 1.986
65.98000 2.828
66.00000 -0.290
66.02000 -1.811
66.04000 1.654
66.06000 1.143
66.08000 2.854
66.10000 3.292
66.12000 3.791
66.14000 0.070
66.16000 -0.241
66.18000 -2.138
66.20000 -0.943
66.22000 -0.229
66.24000 0.122
66.26000 -0.563
66.28000 -1.331
66.30000 -0.421
66.32000 2.353
66.34000 -0.256
66.36000 -2.135
66.38000 -1.088
66.40000 -1.054
66.42000 0.609
66.44000 1.685
66.46000 1.184
66.48000 0.959
66.50000 0.773
66.52000 2.476
66.54000 1.976
66.56000 1.904
66.58000 2.702
66.60000 1.553
66.62000 1.871
66.64000 1.080
66.66000 -1.314
66.68000 -0.742
66.70000 -1.226
66.72000 -1.993
66.74000 0.006
66.76000 -0.518
66.78000 1.862
66.80000 2.372
66.82000 -0.313
66.84000 -0.472
66.86000 0.604
66.88000 1.844
66.90000 2.404
66.92000 0.456
66.94000 -0.284
66.96000 0.771
66.98000 -0.538
67.00000 1.708
67.02000 0.256
67.04000 -0.624
67.06000 -1.503
67.08000 -0.996
67.10000 0.284
67.12000 2.768
67.14000 -0.030
67.16000 -0.276
67.18000 1.362
67.20000 1.708
67.22000 -0.158
67.24000 -2.170
67.26000 0.228
67.28000 1.254
67.30000 0.451
67.32000 2.076
67.34000 -0.457
67.36000 1.236
67.38000 1.400
67.40000 0.639
67.42000 -1.718
67.44000 -0.601
67.46000 -0.702
67.48000 -1.533
67.50000 -0.826
67.52000 1.033
67.54000 -0.152
67.56000 -0.434
67.58000 0.565
67.60000 -0.254
67.62000 -0.826
67.64000 -2.167
67.66000 -2.115
67.68000 0.661
67.70000 2.785
67.72000 2.200
67.74000 -0.778
67.76000 -2.193
67.78000 1.087
67.80000 1.600
67.82000 1.187
67.84000 5.142
67.86000 2.754
67.88000 0.213
67.90000 0.472
67.92000 2.758
67.94000 1.548
67.96000 0.421
67.98000 0.259
68.00000 -1.291
68.02000 -0.434
68.04000 -0.272
68.06000 0.777
68.08000 -0.526
68.10000 1.018
68.12000 2.026
68.14000 2.203
68.16000 2.789
68.18000 3.856
68.20000 3.380
68.22000 3.171
68.24000 1.258
68.26000 1.117
68.28000 3.884
68.30000 7.796
68.32000 5.363
68.34000 6.441
68.36000 6.913
68.38000 7.063
68.40000 7.826
68.42000 8.845
68.44000 9.325
68.46000 7.624
68.48000 8.311
68.50000 10.968
68.52000 11.663
68.54000 11.734
68.56000 15.258
68.58000 16.176
68.60000 14.169
68.62000 11.575
68.64000 13.888
68.66000 16.532
68.68000 18.498
68.70000 19.324
68.72000 16.507
68.74000 19.043
68.76000 18.843
68.78000 22.660
68.80000 21.367
68.82000 22.836
68.84000 20.569
68.86000 20.312
68.88000 19.722
68.90000 20.074
68.92000 20.558
68.94000 20.739
68.96000 21.087
68.98000 18.414
69.00000 21.122
69.02000 18.203
69.04000 16.295
69.06000 18.015
69.08000 20.610
69.10000 20.355
69.12000 21.043
69.14000 20.513
69.16000 17.437
69.18000 15.502
69.20000 13.025
69.22000 12.254
69.24000 16.154
69.26000 15.065
69.28000 10.526
69.30000 11.981
69.32000 12.316
69.34000 8.446
69.36000 9.856
69.38000 7.673
69.40000 8.400
69.42000 6.920
69.44000 8.600
69.46000 9.480
69.48000 10.484
69.50000 9.084
69.52000 9.292
69.54000 9.383
69.56000 7.964
69.58000 9.069
69.60000 6.827
69.62000 4.360
69.64000 5.453
69.66000 3.577
69.68000 1.945
69.70000 0.774
69.72000 4.365
69.74000 5.942
69.76000 6.510
69.78000 6.399
69.80000 3.614
69.82000 3.218
69.84000 2.314
69.86000 0.684
69.88000 1.393
69.90000 1.499
69.92000 1.628
69.94000 1.435
69.96000 0.207
69.98000 0.632
70.00000 1.531
70.02000 2.965
70.04000 -0.712
70.06000 1.087
70.08000 2.586
70.10000 1.954
70.12000 -0.868
70.14000 -0.538
70.16000 -1.396
70.18000 -0.946
70.20000 0.784
70.22000 0.370
70.24000 -2.141
70.26000 1.425
70.28000 0.406
70.30000 1.896
70.32000 -1.778
70.34000 -0.339
70.36000 0.035
70.38000 0.026
70.40000 1.359
70.42000 1.742
70.44000 1.469
70.46000 -2.110
70.48000 0.226
70.50000 2.752
70.52000 2.480
70.54000 1.602
70.56000 -0.744
70.58000 -1.948
70.60000 -0.706
70.62000 -1.446
70.64000 1.644
70.66000 4.083
70.68000 1.576
70.70000 -1.792
70.72000 0.607
70.74000 0.117
70.76000 1.992
70.78000 3.475
70.80000 0.710
70.82000 -0.821
70.84000 1.620
70.86000 3.233
70.88000 2.410
70.90000 -0.125
70.92000 2.337
70.94000 3.342
70.96000 3.259
70.98000 2.571
71.00000 -0.712
71.02000 -0.677
71.04000 2.188
71.06000 1.521
71.08000 -1.433
71.10000 0.717
71.12000 1.703
71.14000 1.741
71.16000 -0.733
71.18000 -0.770
71.20000 -0.430
71.22000 1.236
71.24000 -0.269
71.26000 -0.084
71.28000 1.363
71.30000 0.306
71.32000 0.116
71.34000 -2.042
71.36000 -0.550
71.38000 -0.253
71.40000 0.449
71.42000 1.621
71.44000 -0.635
71.46000 0.490
71.48000 2.250
71.50000 2.594
71.52000 3.610
71.54000 2.251
71.56000 3.426
71.58000 0.713
71.60000 1.105
71.62000 1.974
71.64000 2.410
71.66000 3.073
71.68000 3.500
71.70000 2.386
71.72000 -2.015
71.74000 -1.480
71.76000 -2.029
71.78000 0.826
71.80000 2.565
71.82000 4.562
71.84000 2.634
71.86000 5.057
71.88000 3.988
71.90000 1.274
71.92000 2.055
71.94000 2.108
71.96000 -0.903
71.98000 0.323
72.00000 2.123
72.02000 1.947
72.04000 3.166
72.06000 3.641
72.08000 4.343
72.10000 0.045
72.12000 1.167
72.14000 -0.945
72.16000 1.526
72.18000 2.481
72.20000 0.800
72.22000 -0.430
72.24000 1.607
72.26000 1.499
72.28000 -0.710
72.30000 -1.648
72.32000 2.713
72.34000 2.420
72.36000 0.481
72.38000 0.847
72.40000 2.103
72.42000 1.872
72.44000 0.083
72.46000 1.693
72.48000 -0.447
72.50000 -0.215
72.52000 -1.497
72.54000 2.432
72.56000 5.225
72.58000 3.884
72.60000 2.532
72.62000 3.335
72.64000 3.204
72.66000 2.390
72.68000 2.434
72.70000 1.842
72.72000 3.505
72.74000 1.422
72.76000 1.407
72.78000 -0.674
72.80000 -1.106
72.82000 -1.968
72.84000 1.492
72.86000 1.966
72.88000 0.769
72.90000 0.071
72.92000 0.252
72.94000 1.160
72.96000 3.099
72.98000 1.560
73.00000 2.717
73.02000 4.177
73.04000 2.567
73.06000 2.421
73.08000 3.449
73.10000 1.626
73.12000 6.805
73.14000 5.911
73.16000 3.442
73.18000 1.514
73.20000 1.119
73.22000 0.397
73.24000 4.622
73.26000 0.041
73.28000 -0.764
73.30000 0.732
73.32000 2.579
73.34000 2.873
73.36000 3.097
73.38000 4.578
73.40000 3.269
73.42000 2.501
73.44000 0.849
73.46000 3.049
73.48000 0.904
73.50000 1.213
73.52000 3.484
73.54000 3.823
73.56000 4.723
73.58000 1.948
73.60000 1.184
73.62000 0.197
73.64000 -1.914
73.66000 0.052
73.68000 4.259
73.70000 0.719
73.72000 2.547
73.74000 4.344
73.76000 2.095
73.78000 3.008
73.80000 2.841
73.82000 1.436
73.84000 4.766
73.86000 3.776
73.88000 4.148
73.90000 6.343
73.92000 6.157
73.94000 4.957
73.96000 3.782
73.98000 5.017
74.00000 3.175
74.02000 1.877
74.04000 2.570
74.06000 5.095
74.08000 2.342
74.10000 2.140
74.12000 1.565
74.14000 0.858
74.16000 3.938
74.18000 2.861
74.20000 2.044
74.22000 2.804
74.24000 6.428
74.26000 6.991
74.28000 6.554
74.30000 6.950
74.32000 4.304
74.34000 3.573
74.36000 3.810
74.38000 2.970
74.40000 1.313
74.42000 -0.128
74.44000 0.448
74.46000 1.823
74.48000 -0.539
74.50000 2.085
74.52000 2.154
74.54000 -1.934
74.56000 -1.768
74.58000 -0.181
74.60000 0.937
74.62000 0.668
74.64000 2.651
74.66000 2.420
74.68000 5.098
74.70000 5.962
74.72000 1.065
74.74000 -0.179
74.76000 -0.638
74.78000 1.419
74.80000 -0.522
74.82000 0.553
74.84000 4.667
74.86000 4.525
74.88000 3.295
74.90000 2.009
74.92000 2.837
74.94000 3.297
74.96000 2.630
74.98000 1.740
75.00000 4.264
75.02000 4.518
75.04000 0.643
75.06000 1.456
75.08000 1.526
75.10000 -0.067
75.12000 -0.796
75.14000 -1.556
75.16000 -0.362
75.18000 -1.178
75.20000 2.165
75.22000 1.702
75.24000 1.286
75.26000 1.212
75.28000 -0.121
75.30000 -0.621
75.32000 -0.553
75.34000 0.625
75.36000 2.646
75.38000 1.478
75.40000 2.565
75.42000 -0.656
75.44000 -1.979
75.46000 2.442
75.48000 2.525
75.50000 1.218
75.52000 0.022
75.54000 1.146
75.56000 3.145
75.58000 0.316
75.60000 0.702
75.62000 4.547
75.64000 5.014
75.66000 4.340
75.68000 3.650
75.70000 2.471
75.72000 2.643
75.74000 2.593
75.76000 -0.316
75.78000 1.774
75.80000 2.259
75.82000 1.816
75.84000 1.777
75.86000 1.647
75.88000 2.849
75.90000 1.568
75.92000 0.372
75.94000 0.680
75.96000 2.582
75.98000 -1.745
76.00000 -1.332
76.02000 -1.966
76.04000 0.543
76.06000 3.181
76.08000 4.668
76.10000 7.074
76.12000 4.399
76.14000 2.155
76.16000 3.010
76.18000 2.722
76.20000 2.151
76.22000 3.908
76.24000 3.727
76.26000 5.697
76.28000 4.442
76.30000 3.264
76.32000 2.317
76.34000 0.510
76.36000 1.088
76.38000 1.042
76.40000 1.764
76.42000 2.607
76.44000 0.753
76.46000 -0.212
76.48000 -1.471
76.50000 1.143
76.52000 0.396
76.54000 0.081
76.56000 0.100
76.58000 0.853
76.60000 1.475
76.62000 1.979
76.64000 1.818
76.66000 2.648
76.68000 1.468
76.70000 -0.636
76.72000 1.646
76.74000 2.791
76.76000 -1.992
76.78000 -1.079
76.80000 3.930
76.82000 4.203
76.84000 0.265
76.86000 -0.244
76.88000 0.422
76.90000 2.629
76.92000 3.082
76.94000 2.395
76.96000 0.720
76.98000 -0.243
77.00000 -1.990
77.02000 1.414
77.04000 2.456
77.06000 2.182
77.08000 2.023
77.10000 3.686
77.12000 0.541
77.14000 1.878
77.16000 3.561
77.18000 7.644
77.20000 3.957
77.22000 -0.858
77.24000 -0.243
77.26000 1.609
77.28000 1.099
77.30000 1.352
77.32000 2.152
77.34000 4.491
77.36000 3.351
77.38000 -0.285
77.40000 3.139
77.42000 3.129
77.44000 0.861
77.46000 -0.770
77.48000 0.487
77.50000 1.273
77.52000 -0.255
77.54000 0.106
77.56000 2.919
77.58000 0.522
77.60000 2.045
77.62000 2.739
77.64000 2.055
77.66000 1.307
77.68000 -1.990
77.70000 0.956
77.72000 3.507
77.74000 6.094
77.76000 2.636
77.78000 -0.246
77.80000 2.771
77.82000 2.793
77.84000 4.314
77.86000 0.965
77.88000 2.919
77.90000 3.347
77.92000 3.391
77.94000 2.204
77.96000 -1.592
77.98000 0.026
78.00000 2.088
78.02000 2.793
78.04000 3.467
78.06000 5.345
78.08000 5.528
78.10000 3.673
78.12000 1.252
78.14000 2.293
78.16000 2.667
78.18000 1.599
78.20000 -0.960
78.22000 2.678
78.24000 3.623
78.26000 0.012
78.28000 -1.400
78.30000 -0.877
78.32000 -1.184
78.34000 0.300
78.36000 1.438
78.38000 2.963
78.40000 2.237
78.42000 2.477
78.44000 0.001
78.46000 -1.111
78.48000 -0.141
78.50000 3.850
78.52000 -0.849
78.54000 -1.888
78.56000 -1.730
78.58000 2.999
78.60000 3.111
78.62000 5.694
78.64000 2.573
78.66000 -0.322
78.68000 2.387
78.70000 4.584
78.72000 1.636
78.74000 -0.133
78.76000 1.220
78.78000 -0.143
78.80000 -1.884
78.82000 -2.013
78.84000 -0.968
78.86000 3.174
78.88000 3.470
78.90000 1.913
78.92000 0.912
78.94000 0.592
78.96000 1.379
78.98000 1.511
79.00000 1.042
79.02000 3.368
79.04000 -0.002
79.06000 1.645
79.08000 1.301
79.10000 2.290
79.12000 2.531
79.14000 1.905
79.16000 1.319
79.18000 2.647
79.20000 -0.852
79.22000 0.992
79.24000 -0.801
79.26000 1.418
79.28000 1.646
79.30000 0.694
79.32000 3.661
79.34000 4.993
79.36000 5.923
79.38000 0.977
79.40000 2.498
79.42000 -2.033
79.44000 -1.980
79.46000 -0.299
79.48000 0.418
79.50000 0.915
79.52000 3.958
79.54000 5.884
79.56000 3.714
79.58000 1.452
79.60000 2.805
79.62000 2.643
79.64000 0.724
79.66000 -0.698
79.68000 1.992
79.70000 1.508
79.72000 0.800
79.74000 3.868
79.76000 1.077
79.78000 0.480
79.80000 2.560
79.82000 1.351
79.84000 2.978
79.86000 1.077
79.88000 -0.917
79.90000 -1.913
79.92000 0.753
79.94000 1.369
79.96000 2.168
79.98000 2.091
80.00000 1.255
80.02000 2.474
80.04000 0.613
80.06000 1.361
80.08000 -0.529
80.10000 -0.011
80.12000 2.362
80.14000 5.427
80.16000 3.738
80.18000 1.758
80.20000 -2.073
80.22000 0.772
80.24000 -1.111
80.26000 1.292
80.28000 2.265
80.30000 1.189
80.32000 1.976
80.34000 1.891
80.36000 -0.048
80.38000 -1.461
80.40000 -0.355
80.42000 -0.287
80.44000 0.739
80.46000 -0.540
80.48000 0.913
80.50000 0.443
80.52000 3.145
80.54000 3.378
80.56000 2.753
80.58000 1.365
80.60000 3.103
80.62000 5.151
80.64000 1.068
80.66000 2.972
80.68000 7.011
80.70000 3.595
80.72000 1.660
80.74000 1.517
80.76000 2.423
80.78000 -0.724
80.80000 -0.833
80.82000 -1.840
80.84000 1.834
80.86000 0.888
80.88000 -0.399
80.90000 1.305
80.92000 4.738
80.94000 2.109
80.96000 1.514
80.98000 -0.246
81.00000 -0.300
81.02000 -2.105
81.04000 -0.573
81.06000 0.644
81.08000 0.875
81.10000 0.024
81.12000 0.989
81.14000 -0.958
81.16000 -1.089
81.18000 1.455
81.20000 1.328
81.22000 -1.506
81.24000 0.290
81.26000 4.000
81.28000 3.760
81.30000 3.130
81.32000 2.822
81.34000 1.546
81.36000 -0.843
81.38000 -0.051
81.40000 -1.537
81.42000 -0.745
81.44000 0.934
81.46000 3.640
81.48000 4.941
81.50000 2.713
81.52000 1.956
81.54000 -0.133
81.56000 -2.186
81.58000 -1.123
81.60000 4.333
81.62000 6.335
81.64000 3.820
81.66000 0.024
81.68000 4.775
81.70000 1.730
81.72000 3.693
81.74000 2.874
81.76000 0.618
81.78000 1.895
81.80000 1.096
81.82000 0.924
81.84000 -1.506
81.86000 0.609
81.88000 3.820
81.90000 5.855
81.92000 5.083
81.94000 6.355
81.96000 7.614
81.98000 7.206
82.00000 7.609
82.02000 7.736
82.04000 7.321
82.06000 7.596
82.08000 5.823
82.10000 9.099
82.12000 10.816
82.14000 8.634
82.16000 8.868
82.18000 7.963
82.20000 5.857
82.22000 9.398
82.24000 9.227
82.26000 9.551
82.28000 11.977
82.30000 13.775
82.32000 16.777
82.34000 22.277
82.36000 20.131
82.38000 18.182
82.40000 18.626
82.42000 24.247
82.44000 27.427
82.46000 20.248
82.48000 23.573
82.50000 25.662
82.52000 26.257
82.54000 27.403
82.56000 25.399
82.58000 28.841
82.60000 34.504
82.62000 38.271
82.64000 33.206
82.66000 34.490
82.68000 38.865
82.70000 39.045
82.72000 38.553
82.74000 42.315
82.76000 47.773
82.78000 40.296
82.80000 43.284
82.82000 43.969
82.84000 46.761
82.86000 49.025
82.88000 54.728
82.90000 54.921
82.92000 54.649
82.94000 57.635
82.96000 60.438
82.98000 59.280
83.00000 61.676
83.02000 57.709
83.04000 60.021
83.06000 64.205
83.08000 63.420
83.10000 61.379
83.12000 62.439
83.14000 62.237
83.16000 69.693
83.18000 66.889
83.20000 62.176
83.22000 65.261
83.24000 63.817
83.26000 64.427
83.28000 59.006
83.30000 64.028
83.32000 59.997
83.34000 62.318
83.36000 56.504
83.38000 55.076
83.40000 56.046
83.42000 56.238
83.44000 49.045
83.46000 48.356
83.48000 54.849
83.50000 49.775
83.52000 44.938
83.54000 43.044
83.56000 38.585
83.58000 37.654
83.60000 38.571
83.62000 37.413
83.64000 37.458
83.66000 36.847
83.68000 35.191
83.70000 33.759
83.72000 31.658
83.74000 30.942
83.76000 28.039
83.78000 27.814
83.80000 25.374
83.82000 25.764
83.84000 25.002
83.86000 25.817
83.88000 24.367
83.90000 23.740
83.92000 23.520
83.94000 21.508
83.96000 19.142
83.98000 17.165
84.00000 17.139
84.02000 15.609
84.04000 18.257
84.06000 19.412
84.08000 13.878
84.10000 13.079
84.12000 17.473
84.14000 14.808
84.16000 11.424
84.18000 11.814
84.20000 13.814
84.22000 11.722
84.24000 12.186
84.26000 8.423
84.28000 11.575
84.30000 10.824
84.32000 9.852
84.34000 4.716
84.36000 6.208
84.38000 9.904
84.40000 11.677
84.42000 10.523
84.44000 6.844
84.46000 3.273
84.48000 3.731
84.50000 4.659
84.52000 6.209
84.54000 9.733
84.56000 10.019
84.58000 6.964
84.60000 7.806
84.62000 10.105
84.64000 7.773
84.66000 0.905
84.68000 1.980
84.70000 3.277
84.72000 7.667
84.74000 1.811
84.76000 -2.149
84.78000 1.882
84.80000 3.409
84.82000 2.711
84.84000 3.835
84.86000 -1.016
84.88000 3.530
84.90000 5.624
84.92000 2.797
84.94000 2.335
84.96000 4.185
84.98000 2.733
85.00000 3.432
85.02000 5.853
85.04000 3.671
85.06000 2.891
85.08000 2.204
85.10000 2.892
85.12000 5.080
85.14000 5.376
85.16000 3.625
85.18000 4.905
85.20000 -0.238
85.22000 -1.239
85.24000 4.696
85.26000 2.163
85.28000 0.248
85.30000 -0.216
85.32000 0.001
85.34000 0.373
85.36000 2.209
85.38000 1.558
85.40000 1.573
85.42000 0.339
85.44000 4.039
85.46000 5.898
85.48000 6.712
85.50000 4.539
85.52000 0.587
85.54000 1.996
85.56000 4.950
85.58000 3.649
85.60000 4.256
85.62000 1.967
85.64000 -2.073
85.66000 -2.075
85.68000 1.353
85.70000 1.039
85.72000 1.906
85.74000 4.489
85.76000 -1.367
85.78000 -0.701
85.80000 0.237
85.82000 1.665
85.84000 3.638
85.86000 1.818
85.88000 -1.677
85.90000 -2.101
85.92000 1.355
85.94000 1.183
85.96000 0.494
85.98000 2.991
86.00000 2.206
86.02000 -0.373
86.04000 -1.477
86.06000 0.440
86.08000 2.705
86.10000 2.833
86.12000 0.311
86.14000 -0.475
86.16000 -1.111
86.18000 0.543
86.20000 0.636
86.22000 0.057
86.24000 -0.751
86.26000 0.792
86.28000 1.284
86.30000 2.070
86.32000 1.114
86.34000 2.115
86.36000 0.926
86.38000 -2.154
86.40000 2.283
86.42000 4.261
86.44000 7.054
86.46000 4.020
86.48000 1.616
86.50000 -0.117
86.52000 2.093
86.54000 -0.045
86.56000 0.562
86.58000 0.728
86.60000 2.866
86.62000 2.871
86.64000 6.082
86.66000 5.898
86.68000 7.399
86.70000 8.167
86.72000 8.050
86.74000 5.985
86.76000 3.297
86.78000 5.244
86.80000 10.889
86.82000 12.842
86.84000 16.210
86.86000 10.313
86.88000 9.862
86.90000 15.690
86.92000 14.741
86.94000 12.764
86.96000 16.693
86.98000 17.193
87.00000 16.672
87.02000 15.871
87.04000 19.677
87.06000 22.338
87.08000 19.532
87.10000 18.665
87.12000 17.835
87.14000 20.703
87.16000 20.944
87.18000 24.744
87.20000 29.548
87.22000 25.254
87.24000 26.923
87.26000 28.193
87.28000 32.753
87.30000 33.244
87.32000 28.790
87.34000 26.914
87.36000 25.467
87.38000 30.400
87.40000 32.670
87.42000 32.873
87.44000 29.287
87.46000 33.417
87.48000 39.900
87.50000 34.869
87.52000 34.648
87.54000 36.278
87.56000 34.545
87.58000 33.395
87.60000 33.923
87.62000 33.996
87.64000 34.999
87.66000 37.588
87.68000 38.490
87.70000 33.968
87.72000 32.278
87.74000 33.273
87.76000 32.921
87.78000 33.679
87.80000 29.000
87.82000 30.489
87.84000 32.767
87.86000 33.653
87.88000 32.663
87.90000 25.899
87.92000 23.660
87.94000 24.003
87.96000 27.078
87.98000 26.729
88.00000 25.798
88.02000 21.573
88.04000 23.107
88.06000 19.939
88.08000 18.928
88.10000 19.109
88.12000 20.286
88.14000 18.998
88.16000 17.800
88.18000 19.331
88.20000 21.262
88.22000 18.151
88.24000 14.373
88.26000 11.912
88.28000 16.536
88.30000 16.079
88.32000 10.548
88.34000 8.613
88.36000 9.905
88.38000 11.263
88.40000 9.064
88.42000 6.365
88.44000 9.225
88.46000 10.770
88.48000 12.235
88.50000 8.948
88.52000 9.433
88.54000 6.563
88.56000 5.444
88.58000 6.678
88.60000 9.049
88.62000 8.542
88.64000 4.095
88.66000 1.020
88.68000 2.663
88.70000 3.695
88.72000 3.192
88.74000 1.807
88.76000 3.507
88.78000 3.006
88.80000 1.498
88.82000 3.732
88.84000 1.621
88.86000 4.603
88.88000 4.703
88.90000 3.814
88.92000 2.883
88.94000 3.290
88.96000 5.876
88.98000 3.498
89.00000 0.660
89.02000 3.057
89.04000 3.736
89.06000 3.041
89.08000 0.430
89.10000 0.124
89.12000 4.156
89.14000 2.387
89.16000 2.846
89.18000 4.999
89.20000 4.956
89.22000 7.858
89.24000 3.652
89.26000 4.646
89.28000 6.307
89.30000 0.635
89.32000 -1.967
89.34000 -1.868
89.36000 -1.494
89.38000 1.823
89.40000 5.362
89.42000 4.921
89.44000 1.774
89.46000 1.105
89.48000 1.689
89.50000 1.142
89.52000 0.531
89.54000 0.653
89.56000 -0.725
89.58000 -1.919
89.60000 4.958
89.62000 6.135
89.64000 4.089
89.66000 1.401
89.68000 0.716
89.70000 4.263
89.72000 3.241
89.74000 3.579
89.76000 -1.176
89.78000 1.123
89.80000 0.416
89.82000 1.888
89.84000 -1.927
89.86000 -0.730
89.88000 2.833
89.90000 3.092
89.92000 1.689
89.94000 2.417
89.96000 0.679
89.98000 0.962
90.00000 1.164
90.02000 -0.949
90.04000 -1.405
90.06000 -0.387
90.08000 -0.149
90.10000 1.297
90.12000 2.077
90.14000 -0.765
90.16000 0.188
90.18000 0.138
90.20000 0.594
90.22000 -1.063
90.24000 -0.218
90.26000 1.220
90.28000 -0.343
90.30000 -1.087
90.32000 1.137
90.34000 1.093
90.36000 6.212
90.38000 3.432
90.40000 0.515
90.42000 -1.926
90.44000 0.308
90.46000 -0.037
90.48000 4.269
90.50000 2.371
90.52000 1.218
90.54000 -1.046
90.56000 1.237
90.58000 1.607
90.60000 2.959
90.62000 3.184
90.64000 0.690
90.66000 0.564
90.68000 3.245
90.70000 2.749
90.72000 1.296
90.74000 2.404
90.76000 0.196
90.78000 1.793
90.80000 1.121
90.82000 0.285
90.84000 2.452
90.86000 3.876
90.88000 -0.481
90.90000 -1.894
90.92000 -0.313
90.94000 2.754
90.96000 4.249
90.98000 3.269
91.00000 -0.248
91.02000 2.122
91.04000 3.611
91.06000 3.474
91.08000 3.046
91.10000 1.849
91.12000 1.400
91.14000 3.417
91.16000 2.505
91.18000 1.573
91.20000 2.120
91.22000 -1.432
91.24000 1.099
91.26000 1.009
91.28000 1.197
91.30000 2.255
91.32000 0.307
91.34000 -1.145
91.36000 -1.864
91.38000 0.405
91.40000 5.260
91.42000 6.352
91.44000 7.256
91.46000 6.170
91.48000 1.330
91.50000 0.820
91.52000 1.688
91.54000 3.487
91.56000 -1.863
91.58000 0.323
91.60000 2.310
91.62000 2.083
91.64000 2.517
91.66000 2.988
91.68000 3.616
91.70000 0.682
91.72000 2.472
91.74000 2.243
91.76000 3.410
91.78000 0.385
91.80000 1.841
91.82000 0.718
91.84000 1.856
91.86000 3.138
91.88000 2.639
91.90000 -0.698
91.92000 0.678
91.94000 2.662
91.96000 2.414
91.98000 1.399
92.00000 2.202
92.02000 -1.181
92.04000 0.492
92.06000 1.419
92.08000 2.086
92.10000 3.330
92.12000 0.046
92.14000 4.725
92.16000 0.944
92.18000 1.310
92.20000 2.359
92.22000 1.242
92.24000 1.885
92.26000 0.538
92.28000 1.281
92.30000 2.116
92.32000 2.960
92.34000 4.188
92.36000 2.330
92.38000 2.147
92.40000 4.413
92.42000 3.615
92.44000 3.055
92.46000 1.703
92.48000 -0.368
92.50000 1.944
92.52000 2.391
92.54000 3.542
92.56000 6.037
92.58000 2.624
92.60000 -1.884
92.62000 0.621
92.64000 -0.058
92.66000 -1.060
92.68000 1.338
92.70000 2.394
92.72000 3.378
92.74000 2.655
92.76000 7.027
92.78000 10.251
92.80000 5.120
92.82000 3.347
92.84000 1.381
92.86000 3.940
92.88000 2.996
92.90000 2.331
92.92000 3.172
92.94000 1.984
92.96000 2.743
92.98000 0.849
93.00000 2.030
93.02000 4.135
93.04000 3.894
93.06000 1.091
93.08000 1.025
93.10000 -1.050
93.12000 1.246
93.14000 4.879
93.16000 3.734
93.18000 -0.741
93.20000 -1.865
93.22000 1.609
93.24000 0.208
93.26000 5.296
93.28000 3.017
93.30000 1.203
93.32000 2.690
93.34000 5.577
93.36000 4.245
93.38000 1.840
93.40000 3.456
93.42000 1.645
93.44000 -0.287
93.46000 0.573
93.48000 0.123
93.50000 4.732
93.52000 1.609
93.54000 -0.380
93.56000 1.080
93.58000 -1.207
93.60000 0.733
93.62000 2.607
93.64000 5.346
93.66000 1.539
93.68000 -0.087
93.70000 0.895
93.72000 0.250
93.74000 1.544
93.76000 3.210
93.78000 -0.856
93.80000 3.375
93.82000 1.765
93.84000 1.021
93.86000 3.519
93.88000 0.066
93.90000 -0.547
93.92000 2.570
93.94000 4.811
93.96000 1.656
93.98000 -0.108
94.00000 2.534
94.02000 2.772
94.04000 3.771
94.06000 3.539
94.08000 4.040
94.10000 1.801
94.12000 0.910
94.14000 2.561
94.16000 1.493
94.18000 -0.484
94.20000 -0.301
94.22000 1.178
94.24000 -1.591
94.26000 1.291
94.28000 8.106
94.30000 6.176
94.32000 1.628
94.34000 2.195
94.36000 2.463
94.38000 -1.913
94.40000 0.498
94.42000 -0.333
94.44000 1.964
94.46000 2.349
94.48000 0.981
94.50000 2.364
94.52000 5.554
94.54000 5.388
94.56000 3.036
94.58000 4.673
94.60000 8.155
94.62000 8.215
94.64000 5.344
94.66000 5.392
94.68000 1.519
94.70000 -0.025
94.72000 1.977
94.74000 3.205
94.76000 7.948
94.78000 3.740
94.80000 3.816
94.82000 0.185
94.84000 3.660
94.86000 9.552
94.88000 9.899
94.90000 7.642
94.92000 6.364
94.94000 7.733
94.96000 3.408
94.98000 2.627
95.00000 3.538
95.02000 2.404
95.04000 3.545
95.06000 7.301
95.08000 5.739
95.10000 3.720
95.12000 1.926
95.14000 2.760
95.16000 5.782
95.18000 6.854
95.20000 4.203
95.22000 2.493
95.24000 -1.866
95.26000 1.086
95.28000 3.880
95.30000 3.979
95.32000 5.430
95.34000 3.694
95.36000 3.720
95.38000 7.648
95.40000 6.852
95.42000 3.590
95.44000 3.787
95.46000 5.926
95.48000 6.090
95.50000 5.150
95.52000 6.661
95.54000 4.894
95.56000 4.696
95.58000 4.312
95.60000 0.603
95.62000 2.350
95.64000 4.571
95.66000 8.774
95.68000 3.435
95.70000 0.632
95.72000 1.175
95.74000 1.931
95.76000 -0.402
95.78000 -1.884
95.80000 -0.311
95.82000 2.492
95.84000 5.168
95.86000 5.453
95.88000 6.175
95.90000 6.007
95.92000 0.405
95.94000 4.412
95.96000 6.105
95.98000 4.358
96.00000 2.235
96.02000 0.355
96.04000 3.478
96.06000 1.680
96.08000 2.900
96.10000 0.640
96.12000 -0.638
96.14000 1.077
96.16000 4.238
96.18000 6.752
96.20000 7.647
96.22000 0.832
96.24000 1.268
96.26000 3.735
96.28000 -0.579
96.30000 -1.628
96.32000 2.702
96.34000 2.218
96.36000 0.549
96.38000 -1.167
96.40000 -0.832
96.42000 2.330
96.44000 4.864
96.46000 1.176
96.48000 -1.802
96.50000 2.452
96.52000 3.019
96.54000 2.796
96.56000 1.183
96.58000 1.328
96.60000 3.468
96.62000 4.245
96.64000 3.220
96.66000 2.677
96.68000 0.222
96.70000 5.217
96.72000 8.867
96.74000 5.581
96.76000 3.223
96.78000 6.788
96.80000 8.761
96.82000 1.757
96.84000 2.886
96.86000 0.963
96.88000 -1.694
96.90000 4.618
96.92000 5.022
96.94000 3.755
96.96000 4.467
96.98000 5.195
97.00000 4.245
97.02000 3.657
97.04000 1.955
97.06000 3.582
97.08000 9.464
97.10000 5.311
97.12000 2.234
97.14000 4.550
97.16000 -0.702
97.18000 -0.446
97.20000 3.978
97.22000 5.936
97.24000 2.190
97.26000 2.437
97.28000 2.547
97.30000 6.580
97.32000 6.195
97.34000 5.458
97.36000 0.872
97.38000 2.923
97.40000 9.524
97.42000 7.680
97.44000 -0.583
97.46000 0.803
97.48000 5.021
97.50000 3.018
97.52000 6.039
97.54000 7.046
97.56000 4.307
97.58000 2.110
97.60000 2.896
97.62000 3.957
97.64000 2.906
97.66000 2.487
97.68000 2.321
97.70000 5.999
97.72000 13.874
97.74000 11.297
97.76000 5.330
97.78000 -0.446
97.80000 -1.831
97.82000 1.245
97.84000 3.198
97.86000 5.910
97.88000 8.514
97.90000 7.388
97.92000 3.522
97.94000 6.718
97.96000 5.390
97.98000 3.621
98.00000 7.385
98.02000 3.784
98.04000 6.837
98.06000 8.325
98.08000 5.803
98.10000 4.671
98.12000 -1.823
98.14000 2.252
98.16000 10.558
98.18000 12.709
98.20000 3.493
98.22000 1.055
98.24000 1.221
98.26000 1.996
98.28000 7.518
98.30000 12.793
98.32000 8.790
98.34000 7.105
98.36000 0.619
98.38000 0.397
98.40000 0.378
98.42000 6.277
98.44000 8.833
98.46000 3.631
98.48000 8.541
98.50000 9.782
98.52000 7.380
98.54000 0.941
98.56000 5.138
98.58000 9.670
98.60000 4.587
98.62000 3.466
98.64000 11.581
98.66000 11.165
98.68000 9.291
98.70000 12.708
98.72000 6.031
98.74000 -3.343
98.76000 3.150
98.78000 8.517
98.80000 9.534
98.82000 8.304
98.84000 6.720
98.86000 11.006
98.88000 8.116
98.90000 7.257
98.92000 8.165
98.94000 6.882
98.96000 6.037
98.98000 3.391
99.00000 9.401
99.02000 8.297
99.04000 6.877
99.06000 5.951
99.08000 4.055
99.10000 4.445
99.12000 13.800
99.14000 8.774
99.16000 5.406
99.18000 14.755
99.20000 9.184
99.22000 9.276
99.24000 10.487
99.26000 3.685
99.28000 4.254
99.30000 5.131
99.32000 2.857
99.34000 2.306
99.36000 6.841
99.38000 10.089
99.40000 3.084
99.42000 4.855
99.44000 3.975
99.46000 10.423
99.48000 7.965
99.50000 4.055
99.52000 -0.851
99.54000 6.170
99.56000 12.752
99.58000 4.814
99.60000 6.256
99.62000 7.498
99.64000 7.943
99.66000 5.738
99.68000 2.853
99.70000 0.054
99.72000 0.650
99.74000 12.054
99.76000 14.895
99.78000 14.052
99.80000 8.298
99.82000 4.810
99.84000 3.368
99.86000 4.127
99.88000 8.643
99.90000 -1.830
99.92000 -2.645
99.94000 11.468
99.96000 5.262
99.98000 0.000
