'Id: "0011387" Comment: "Integrate frame 0011387_Au-Ir-Rh_Rh-rich_XRD-Mapping-313-0000.gfrmwith cursor Wedge Cursor #5" Operator: "B?rgel" Anode: "Cu" Wavelength: "1.5406" Scantype: "2Theta (TwoTheta)" TimePerStep: "1" X: "-18" Y: "36" Z: "5.95" 
10.00000 0.000
10.02000 -4.633
10.04000 -4.596
10.06000 5.887
10.08000 13.098
10.10000 4.296
10.12000 12.304
10.14000 19.494
10.16000 36.233
10.18000 22.228
10.20000 6.768
10.22000 10.025
10.24000 12.811
10.26000 15.236
10.28000 13.078
10.30000 28.091
10.32000 23.055
10.34000 2.943
10.36000 -4.467
10.38000 0.302
10.40000 -2.853
10.42000 10.610
10.44000 14.296
10.46000 27.975
10.48000 10.837
10.50000 7.663
10.52000 5.753
10.54000 6.071
10.56000 7.240
10.58000 19.449
10.60000 17.389
10.62000 8.775
10.64000 10.208
10.66000 9.253
10.68000 15.910
10.70000 9.572
10.72000 2.686
10.74000 8.030
10.76000 4.066
10.78000 12.031
10.80000 19.839
10.82000 20.836
10.84000 14.856
10.86000 1.595
10.88000 4.137
10.90000 0.058
10.92000 0.804
10.94000 10.242
10.96000 14.119
10.98000 -4.275
11.00000 -4.038
11.02000 0.393
11.04000 3.406
11.06000 7.446
11.08000 4.464
11.10000 23.988
11.12000 20.120
11.14000 8.786
11.16000 -0.655
11.18000 19.270
11.20000 24.000
11.22000 24.860
11.24000 23.516
11.26000 1.732
11.28000 5.122
11.30000 18.314
11.32000 24.865
11.34000 16.541
11.36000 13.157
11.38000 12.828
11.40000 5.384
11.42000 7.608
11.44000 -0.168
11.46000 -4.508
11.48000 2.321
11.50000 13.130
11.52000 9.216
11.54000 24.482
11.56000 33.918
11.58000 39.616
11.60000 35.073
11.62000 18.317
11.64000 18.993
11.66000 14.008
11.68000 17.679
11.70000 27.605
11.72000 27.453
11.74000 21.692
11.76000 17.895
11.78000 21.862
11.80000 20.132
11.82000 2.999
11.84000 0.724
11.86000 5.908
11.88000 14.870
11.90000 12.690
11.92000 10.228
11.94000 21.362
11.96000 7.995
11.98000 17.643
12.00000 14.805
12.02000 16.061
12.04000 21.178
12.06000 15.047
12.08000 17.936
12.10000 8.468
12.12000 11.901
12.14000 20.826
12.16000 21.082
12.18000 20.122
12.20000 4.902
12.22000 1.455
12.24000 13.662
12.26000 18.333
12.28000 22.389
12.30000 20.089
12.32000 9.807
12.34000 8.502
12.36000 9.887
12.38000 2.385
12.40000 8.530
12.42000 9.431
12.44000 21.258
12.46000 24.745
12.48000 23.185
12.50000 9.834
12.52000 -3.043
12.54000 1.102
12.56000 15.359
12.58000 21.855
12.60000 30.838
12.62000 13.474
12.64000 0.636
12.66000 7.173
12.68000 15.928
12.70000 8.293
12.72000 13.790
12.74000 16.438
12.76000 2.301
12.78000 1.037
12.80000 12.777
12.82000 11.810
12.84000 19.438
12.86000 7.956
12.88000 10.472
12.90000 10.429
12.92000 22.742
12.94000 5.076
12.96000 -0.534
12.98000 9.489
13.00000 9.230
13.02000 8.480
13.04000 15.611
13.06000 10.501
13.08000 8.698
13.10000 16.304
13.12000 16.425
13.14000 7.896
13.16000 11.580
13.18000 19.167
13.20000 20.339
13.22000 18.091
13.24000 18.016
13.26000 14.956
13.28000 14.569
13.30000 15.492
13.32000 25.061
13.34000 22.217
13.36000 20.911
13.38000 16.094
13.40000 15.941
13.42000 16.274
13.44000 16.028
13.46000 5.710
13.48000 5.153
13.50000 12.489
13.52000 16.708
13.54000 15.059
13.56000 8.330
13.58000 9.164
13.60000 8.195
13.62000 11.685
13.64000 12.470
13.66000 14.805
13.68000 12.705
13.70000 -4.482
13.72000 4.133
13.74000 15.989
13.76000 19.184
13.78000 10.521
13.80000 10.383
13.82000 6.472
13.84000 5.059
13.86000 10.472
13.88000 17.137
13.90000 12.942
13.92000 15.843
13.94000 17.156
13.96000 11.180
13.98000 0.894
14.00000 4.752
14.02000 5.392
14.04000 10.538
14.06000 24.090
14.08000 12.775
14.10000 1.374
14.12000 10.085
14.14000 10.515
14.16000 12.148
14.18000 17.469
14.20000 13.697
14.22000 13.476
14.24000 4.094
14.26000 5.529
14.28000 13.982
14.30000 11.678
14.32000 4.623
14.34000 8.111
14.36000 7.923
14.38000 4.377
14.40000 3.397
14.42000 5.541
14.44000 6.537
14.46000 14.616
14.48000 9.471
14.50000 4.442
14.52000 7.418
14.54000 9.875
14.56000 13.457
14.58000 8.397
14.60000 19.988
14.62000 21.270
14.64000 7.652
14.66000 7.493
14.68000 10.513
14.70000 8.959
14.72000 7.153
14.74000 5.343
14.76000 8.794
14.78000 13.616
14.80000 10.570
14.82000 14.330
14.84000 18.070
14.86000 24.983
14.88000 19.351
14.90000 7.913
14.92000 6.044
14.94000 12.584
14.96000 10.619
14.98000 11.053
15.00000 11.535
15.02000 -0.229
15.04000 0.491
15.06000 11.021
15.08000 13.355
15.10000 3.690
15.12000 4.775
15.14000 0.573
15.16000 1.015
15.18000 -2.507
15.20000 8.176
15.22000 12.758
15.24000 6.986
15.26000 4.125
15.28000 11.057
15.30000 13.913
15.32000 9.334
15.34000 3.243
15.36000 3.359
15.38000 -0.070
15.40000 6.565
15.42000 15.563
15.44000 6.476
15.46000 6.456
15.48000 4.363
15.50000 11.990
15.52000 -0.806
15.54000 -2.911
15.56000 4.001
15.58000 12.905
15.60000 8.537
15.62000 9.756
15.64000 12.136
15.66000 -0.400
15.68000 2.727
15.70000 8.936
15.72000 12.293
15.74000 9.987
15.76000 14.953
15.78000 10.895
15.80000 6.337
15.82000 5.343
15.84000 2.893
15.86000 2.702
15.88000 7.306
15.90000 5.128
15.92000 -1.426
15.94000 0.157
15.96000 2.109
15.98000 7.895
16.00000 4.136
16.02000 -2.773
16.04000 6.582
16.06000 3.198
16.08000 5.212
16.10000 13.448
16.12000 8.658
16.14000 -4.455
16.16000 2.715
16.18000 6.551
16.20000 4.732
16.22000 5.261
16.24000 5.880
16.26000 6.925
16.28000 12.495
16.30000 5.016
16.32000 4.262
16.34000 7.511
16.36000 5.427
16.38000 -1.079
16.40000 6.446
16.42000 5.451
16.44000 -0.171
16.46000 -0.719
16.48000 6.698
16.50000 10.380
16.52000 13.232
16.54000 16.156
16.56000 12.317
16.58000 16.331
16.60000 5.500
16.62000 3.552
16.64000 8.853
16.66000 11.488
16.68000 5.756
16.70000 4.733
16.72000 4.924
16.74000 1.831
16.76000 3.201
16.78000 -4.413
16.80000 2.317
16.82000 9.498
16.84000 7.218
16.86000 9.694
16.88000 3.066
16.90000 7.395
16.92000 9.875
16.94000 7.947
16.96000 15.636
16.98000 14.874
17.00000 9.000
17.02000 9.423
17.04000 15.448
17.06000 11.879
17.08000 11.918
17.10000 8.585
17.12000 1.561
17.14000 10.767
17.16000 7.809
17.18000 7.761
17.20000 8.605
17.22000 8.160
17.24000 1.756
17.26000 7.955
17.28000 16.180
17.30000 8.926
17.32000 3.663
17.34000 6.857
17.36000 10.014
17.38000 4.399
17.40000 -4.365
17.42000 0.289
17.44000 14.750
17.46000 12.313
17.48000 9.091
17.50000 6.566
17.52000 6.344
17.54000 9.234
17.56000 9.998
17.58000 11.098
17.60000 6.915
17.62000 9.016
17.64000 7.109
17.66000 6.361
17.68000 11.751
17.70000 13.253
17.72000 7.634
17.74000 4.734
17.76000 10.059
17.78000 8.660
17.80000 13.760
17.82000 8.686
17.84000 12.594
17.86000 4.126
17.88000 0.364
17.90000 12.460
17.92000 11.981
17.94000 11.531
17.96000 15.362
17.98000 16.233
18.00000 14.013
18.02000 10.816
18.04000 16.929
18.06000 6.450
18.08000 -4.300
18.10000 10.470
18.12000 13.651
18.14000 7.966
18.16000 8.391
18.18000 10.142
18.20000 18.015
18.22000 19.362
18.24000 13.771
18.26000 8.118
18.28000 2.981
18.30000 9.187
18.32000 6.821
18.34000 7.320
18.36000 15.555
18.38000 9.445
18.40000 5.761
18.42000 9.232
18.44000 13.263
18.46000 15.268
18.48000 10.788
18.50000 2.544
18.52000 12.430
18.54000 15.825
18.56000 16.254
18.58000 7.784
18.60000 3.781
18.62000 2.140
18.64000 6.520
18.66000 6.478
18.68000 1.998
18.70000 7.022
18.72000 6.687
18.74000 13.426
18.76000 8.128
18.78000 8.753
18.80000 3.454
18.82000 2.137
18.84000 5.695
18.86000 8.427
18.88000 13.251
18.90000 11.057
18.92000 1.815
18.94000 1.621
18.96000 7.066
18.98000 6.543
19.00000 6.301
19.02000 7.221
19.04000 11.845
19.06000 4.349
19.08000 -1.852
19.10000 -0.849
19.12000 0.499
19.14000 7.077
19.16000 8.482
19.18000 7.843
19.20000 4.543
19.22000 8.024
19.24000 -0.647
19.26000 1.637
19.28000 3.205
19.30000 9.061
19.32000 4.343
19.34000 5.627
19.36000 13.419
19.38000 6.795
19.40000 5.794
19.42000 10.850
19.44000 8.868
19.46000 11.079
19.48000 10.464
19.50000 12.694
19.52000 10.031
19.54000 9.035
19.56000 7.787
19.58000 5.411
19.60000 4.243
19.62000 1.515
19.64000 3.642
19.66000 6.830
19.68000 2.647
19.70000 5.750
19.72000 5.355
19.74000 3.268
19.76000 2.615
19.78000 4.910
19.80000 4.465
19.82000 -1.911
19.84000 -0.829
19.86000 2.562
19.88000 -3.728
19.90000 -2.723
19.92000 4.106
19.94000 6.368
19.96000 -0.975
19.98000 -0.660
20.00000 -4.252
20.02000 2.086
20.04000 10.581
20.06000 8.141
20.08000 5.827
20.10000 10.361
20.12000 0.604
20.14000 2.848
20.16000 2.436
20.18000 4.047
20.20000 4.454
20.22000 3.471
20.24000 12.069
20.26000 14.896
20.28000 8.913
20.30000 1.170
20.32000 9.385
20.34000 8.704
20.36000 3.600
20.38000 5.721
20.40000 3.584
20.42000 4.041
20.44000 0.542
20.46000 -3.470
20.48000 -3.956
20.50000 6.009
20.52000 7.322
20.54000 9.843
20.56000 4.390
20.58000 0.435
20.60000 4.443
20.62000 8.739
20.64000 7.776
20.66000 7.781
20.68000 8.364
20.70000 6.779
20.72000 8.599
20.74000 5.921
20.76000 13.107
20.78000 8.467
20.80000 12.601
20.82000 11.482
20.84000 14.292
20.86000 14.259
20.88000 13.038
20.90000 6.817
20.92000 7.085
20.94000 8.990
20.96000 7.423
20.98000 -0.954
21.00000 4.311
21.02000 6.593
21.04000 11.759
21.06000 12.573
21.08000 9.195
21.10000 7.912
21.12000 11.264
21.14000 11.506
21.16000 5.764
21.18000 7.103
21.20000 6.578
21.22000 0.570
21.24000 2.952
21.26000 -2.225
21.28000 -4.152
21.30000 5.077
21.32000 8.281
21.34000 9.483
21.36000 8.709
21.38000 0.127
21.40000 5.046
21.42000 3.428
21.44000 2.566
21.46000 4.321
21.48000 2.215
21.50000 2.127
21.52000 6.281
21.54000 -0.450
21.56000 2.801
21.58000 2.970
21.60000 6.398
21.62000 10.823
21.64000 8.212
21.66000 4.762
21.68000 4.148
21.70000 5.268
21.72000 6.584
21.74000 11.819
21.76000 6.782
21.78000 4.058
21.80000 10.213
21.82000 10.434
21.84000 6.493
21.86000 10.104
21.88000 11.441
21.90000 12.331
21.92000 10.050
21.94000 4.258
21.96000 -0.269
21.98000 3.397
22.00000 7.989
22.02000 7.093
22.04000 2.463
22.06000 -3.043
22.08000 8.304
22.10000 6.243
22.12000 1.765
22.14000 6.202
22.16000 6.273
22.18000 3.139
22.20000 4.428
22.22000 5.437
22.24000 1.121
22.26000 -4.118
22.28000 0.521
22.30000 0.331
22.32000 -2.624
22.34000 3.493
22.36000 5.643
22.38000 9.626
22.40000 10.394
22.42000 7.820
22.44000 4.622
22.46000 7.663
22.48000 7.762
22.50000 3.397
22.52000 2.033
22.54000 7.911
22.56000 0.503
22.58000 3.067
22.60000 4.154
22.62000 4.770
22.64000 0.122
22.66000 6.479
22.68000 5.735
22.70000 5.631
22.72000 4.643
22.74000 -0.699
22.76000 -0.588
22.78000 2.477
22.80000 0.566
22.82000 2.573
22.84000 6.816
22.86000 4.256
22.88000 2.239
22.90000 -1.248
22.92000 2.593
22.94000 0.756
22.96000 1.053
22.98000 4.614
23.00000 5.147
23.02000 3.764
23.04000 6.881
23.06000 5.613
23.08000 4.945
23.10000 8.230
23.12000 9.254
23.14000 4.911
23.16000 3.220
23.18000 2.703
23.20000 -0.782
23.22000 0.758
23.24000 6.029
23.26000 10.685
23.28000 4.490
23.30000 5.332
23.32000 0.684
23.34000 -4.045
23.36000 3.832
23.38000 3.856
23.40000 2.298
23.42000 -0.478
23.44000 3.529
23.46000 6.154
23.48000 7.536
23.50000 4.280
23.52000 10.091
23.54000 1.529
23.56000 -2.909
23.58000 5.023
23.60000 4.070
23.62000 -0.777
23.64000 3.578
23.66000 6.286
23.68000 -2.093
23.70000 3.340
23.72000 7.136
23.74000 0.932
23.76000 0.040
23.78000 -0.564
23.80000 -3.134
23.82000 0.760
23.84000 0.887
23.86000 2.402
23.88000 4.548
23.90000 3.452
23.92000 0.814
23.94000 2.698
23.96000 5.573
23.98000 8.733
24.00000 -1.680
24.02000 -4.038
24.04000 1.835
24.06000 8.582
24.08000 6.187
24.10000 4.439
24.12000 4.091
24.14000 -0.902
24.16000 -1.325
24.18000 -0.598
24.20000 0.145
24.22000 4.651
24.24000 0.428
24.26000 -0.228
24.28000 1.096
24.30000 0.724
24.32000 2.514
24.34000 4.542
24.36000 0.723
24.38000 0.134
24.40000 4.654
24.42000 2.765
24.44000 -1.951
24.46000 -3.163
24.48000 -2.735
24.50000 2.256
24.52000 11.012
24.54000 6.638
24.56000 -0.703
24.58000 0.273
24.60000 0.482
24.62000 -2.505
24.64000 -3.457
24.66000 -0.656
24.68000 0.710
24.70000 3.273
24.72000 -0.195
24.74000 -3.993
24.76000 2.088
24.78000 2.311
24.80000 2.808
24.82000 3.423
24.84000 1.899
24.86000 1.412
24.88000 4.519
24.90000 3.780
24.92000 -1.077
24.94000 -0.493
24.96000 4.037
24.98000 -0.837
25.00000 0.579
25.02000 0.984
25.04000 0.532
25.06000 3.159
25.08000 -1.078
25.10000 -0.284
25.12000 1.793
25.14000 -0.668
25.16000 0.306
25.18000 -2.809
25.20000 -2.572
25.22000 0.921
25.24000 1.116
25.26000 7.937
25.28000 7.551
25.30000 5.964
25.32000 5.200
25.34000 3.542
25.36000 -3.384
25.38000 0.823
25.40000 1.929
25.42000 3.156
25.44000 2.928
25.46000 -0.089
25.48000 -3.974
25.50000 -1.974
25.52000 1.646
25.54000 1.766
25.56000 -0.705
25.58000 3.200
25.60000 2.977
25.62000 0.269
25.64000 2.816
25.66000 0.092
25.68000 -1.999
25.70000 2.128
25.72000 3.888
25.74000 -0.833
25.76000 -3.624
25.78000 -3.726
25.80000 1.480
25.82000 -1.928
25.84000 -3.961
25.86000 -1.643
25.88000 -1.317
25.90000 -1.622
25.92000 2.406
25.94000 3.928
25.96000 1.561
25.98000 -0.089
26.00000 6.799
26.02000 5.495
26.04000 0.647
26.06000 4.989
26.08000 1.150
26.10000 0.249
26.12000 6.921
26.14000 5.959
26.16000 0.919
26.18000 2.976
26.20000 3.174
26.22000 -0.135
26.24000 -2.387
26.26000 0.632
26.28000 3.857
26.30000 -0.323
26.32000 1.359
26.34000 4.169
26.36000 0.505
26.38000 -3.128
26.40000 -1.137
26.42000 2.171
26.44000 3.986
26.46000 2.429
26.48000 -0.815
26.50000 -1.120
26.52000 -1.285
26.54000 2.468
26.56000 3.016
26.58000 2.244
26.60000 2.645
26.62000 2.394
26.64000 -0.804
26.66000 -3.041
26.68000 -1.661
26.70000 -0.364
26.72000 3.410
26.74000 0.535
26.76000 -0.647
26.78000 -0.963
26.80000 0.541
26.82000 0.451
26.84000 3.264
26.86000 3.872
26.88000 2.576
26.90000 6.052
26.92000 3.104
26.94000 1.355
26.96000 0.734
26.98000 -1.003
27.00000 -2.914
27.02000 1.639
27.04000 5.077
27.06000 9.602
27.08000 7.070
27.10000 4.337
27.12000 3.696
27.14000 3.295
27.16000 0.201
27.18000 -0.717
27.20000 4.279
27.22000 4.247
27.24000 2.799
27.26000 3.001
27.28000 -0.015
27.30000 2.604
27.32000 1.936
27.34000 4.628
27.36000 8.608
27.38000 5.083
27.40000 6.922
27.42000 4.128
27.44000 1.779
27.46000 1.463
27.48000 4.951
27.50000 3.629
27.52000 -3.819
27.54000 3.941
27.56000 12.340
27.58000 5.879
27.60000 6.596
27.62000 6.301
27.64000 4.323
27.66000 9.010
27.68000 7.441
27.70000 8.569
27.72000 8.453
27.74000 1.763
27.76000 3.496
27.78000 2.421
27.80000 2.157
27.82000 -1.136
27.84000 -2.093
27.86000 2.904
27.88000 -0.034
27.90000 -0.813
27.92000 3.959
27.94000 2.502
27.96000 5.145
27.98000 5.551
28.00000 3.266
28.02000 4.625
28.04000 6.398
28.06000 8.963
28.08000 3.595
28.10000 6.912
28.12000 2.073
28.14000 -2.037
28.16000 -3.804
28.18000 0.297
28.20000 3.661
28.22000 5.066
28.24000 3.934
28.26000 -1.566
28.28000 -2.576
28.30000 4.016
28.32000 2.519
28.34000 -0.298
28.36000 -2.304
28.38000 1.071
28.40000 6.321
28.42000 2.564
28.44000 1.989
28.46000 4.211
28.48000 4.396
28.50000 3.229
28.52000 6.005
28.54000 1.271
28.56000 -2.352
28.58000 -0.184
28.60000 4.895
28.62000 2.764
28.64000 7.281
28.66000 9.635
28.68000 2.669
28.70000 2.054
28.72000 -2.250
28.74000 -0.885
28.76000 2.229
28.78000 -2.888
28.80000 -3.368
28.82000 2.109
28.84000 4.096
28.86000 3.255
28.88000 -3.769
28.90000 1.764
28.92000 5.324
28.94000 -0.356
28.96000 -1.722
28.98000 -0.995
29.00000 2.362
29.02000 2.645
29.04000 -2.606
29.06000 2.084
29.08000 6.564
29.10000 3.878
29.12000 5.421
29.14000 4.169
29.16000 0.123
29.18000 3.058
29.20000 0.698
29.22000 0.743
29.24000 -1.270
29.26000 5.830
29.28000 2.773
29.30000 0.496
29.32000 -0.095
29.34000 2.633
29.36000 5.036
29.38000 0.336
29.40000 0.035
29.42000 0.638
29.44000 3.951
29.46000 -2.091
29.48000 -3.726
29.50000 3.338
29.52000 2.495
29.54000 1.489
29.56000 0.899
29.58000 6.264
29.60000 4.569
29.62000 4.445
29.64000 3.279
29.66000 6.228
29.68000 5.014
29.70000 3.075
29.72000 4.942
29.74000 5.833
29.76000 7.278
29.78000 2.191
29.80000 3.070
29.82000 2.399
29.84000 0.550
29.86000 1.908
29.88000 3.852
29.90000 4.965
29.92000 1.929
29.94000 -1.369
29.96000 2.438
29.98000 4.122
30.00000 3.743
30.02000 2.030
30.04000 3.224
30.06000 4.042
30.08000 3.572
30.10000 1.500
30.12000 1.932
30.14000 6.551
30.16000 2.711
30.18000 -1.557
30.20000 -2.553
30.22000 -0.656
30.24000 2.054
30.26000 0.038
30.28000 -0.265
30.30000 2.832
30.32000 6.664
30.34000 3.470
30.36000 3.592
30.38000 2.747
30.40000 -0.524
30.42000 -0.878
30.44000 0.684
30.46000 0.527
30.48000 0.871
30.50000 2.830
30.52000 2.917
30.54000 5.855
30.56000 3.951
30.58000 0.578
30.60000 -1.752
30.62000 -0.070
30.64000 -2.074
30.66000 -3.676
30.68000 1.881
30.70000 4.712
30.72000 2.025
30.74000 0.868
30.76000 2.543
30.78000 5.443
30.80000 0.867
30.82000 -1.878
30.84000 3.789
30.86000 11.088
30.88000 6.918
30.90000 1.063
30.92000 0.036
30.94000 1.336
30.96000 -0.923
30.98000 1.716
31.00000 1.709
31.02000 -3.272
31.04000 -0.354
31.06000 1.484
31.08000 1.793
31.10000 5.769
31.12000 6.365
31.14000 3.514
31.16000 4.446
31.18000 3.720
31.20000 5.516
31.22000 -0.034
31.24000 0.556
31.26000 5.651
31.28000 2.488
31.30000 1.908
31.32000 3.541
31.34000 2.724
31.36000 -1.772
31.38000 0.900
31.40000 6.846
31.42000 8.599
31.44000 -1.366
31.46000 -3.297
31.48000 0.648
31.50000 -1.285
31.52000 1.933
31.54000 4.948
31.56000 -0.434
31.58000 0.387
31.60000 -1.049
31.62000 1.855
31.64000 4.674
31.66000 6.345
31.68000 6.229
31.70000 5.660
31.72000 7.174
31.74000 4.324
31.76000 5.011
31.78000 2.398
31.80000 1.267
31.82000 2.641
31.84000 1.522
31.86000 -2.284
31.88000 0.428
31.90000 8.250
31.92000 8.726
31.94000 3.588
31.96000 -3.621
31.98000 3.822
32.00000 7.971
32.02000 1.403
32.04000 -1.053
32.06000 -1.385
32.08000 2.906
32.10000 5.357
32.12000 5.605
32.14000 8.194
32.16000 -1.011
32.18000 -2.815
32.20000 1.777
32.22000 1.354
32.24000 0.027
32.26000 2.181
32.28000 5.697
32.30000 0.017
32.32000 -1.936
32.34000 -3.159
32.36000 -1.854
32.38000 1.230
32.40000 1.384
32.42000 0.348
32.44000 2.435
32.46000 5.608
32.48000 10.720
32.50000 3.180
32.52000 4.771
32.54000 5.498
32.56000 4.165
32.58000 5.123
32.60000 4.353
32.62000 2.285
32.64000 -0.110
32.66000 2.906
32.68000 4.195
32.70000 4.834
32.72000 7.910
32.74000 2.148
32.76000 -2.495
32.78000 -3.602
32.80000 3.237
32.82000 3.061
32.84000 -1.825
32.86000 -1.147
32.88000 1.801
32.90000 1.005
32.92000 -0.350
32.94000 2.519
32.96000 7.392
32.98000 5.326
33.00000 8.248
33.02000 7.918
33.04000 4.657
33.06000 -0.710
33.08000 -3.608
33.10000 -1.477
33.12000 1.153
33.14000 6.145
33.16000 7.886
33.18000 2.683
33.20000 4.868
33.22000 0.245
33.24000 -0.185
33.26000 -1.387
33.28000 -1.100
33.30000 -0.125
33.32000 1.560
33.34000 4.507
33.36000 0.079
33.38000 -3.303
33.40000 -0.111
33.42000 1.007
33.44000 0.721
33.46000 2.607
33.48000 5.681
33.50000 2.818
33.52000 1.176
33.54000 5.009
33.56000 4.804
33.58000 1.311
33.60000 -2.594
33.62000 -2.049
33.64000 -1.445
33.66000 -1.249
33.68000 4.624
33.70000 2.727
33.72000 -3.182
33.74000 2.577
33.76000 4.520
33.78000 0.891
33.80000 -0.960
33.82000 1.436
33.84000 0.332
33.86000 -1.668
33.88000 -0.435
33.90000 -1.060
33.92000 2.382
33.94000 1.100
33.96000 -0.999
33.98000 2.146
34.00000 0.720
34.02000 -0.613
34.04000 -2.939
34.06000 -2.144
34.08000 2.483
34.10000 2.457
34.12000 0.344
34.14000 -0.983
34.16000 5.471
34.18000 4.359
34.20000 5.369
34.22000 0.064
34.24000 -0.638
34.26000 -2.184
34.28000 -1.756
34.30000 0.259
34.32000 5.209
34.34000 3.306
34.36000 3.174
34.38000 3.057
34.40000 2.740
34.42000 -0.021
34.44000 -0.153
34.46000 -1.479
34.48000 2.655
34.50000 -1.592
34.52000 0.488
34.54000 5.331
34.56000 6.580
34.58000 -1.030
34.60000 -0.617
34.62000 -0.128
34.64000 -3.073
34.66000 3.558
34.68000 8.996
34.70000 5.890
34.72000 4.534
34.74000 0.197
34.76000 7.985
34.78000 6.879
34.80000 1.176
34.82000 -1.288
34.84000 -3.578
34.86000 0.078
34.88000 1.576
34.90000 -0.487
34.92000 6.380
34.94000 5.836
34.96000 2.634
34.98000 2.705
35.00000 0.123
35.02000 5.255
35.04000 1.255
35.06000 -1.569
35.08000 -2.666
35.10000 -1.006
35.12000 -1.021
35.14000 1.304
35.16000 3.768
35.18000 0.206
35.20000 -1.048
35.22000 -2.183
35.24000 1.687
35.26000 4.118
35.28000 2.370
35.30000 1.716
35.32000 7.421
35.34000 4.488
35.36000 4.350
35.38000 -0.565
35.40000 -0.909
35.42000 0.674
35.44000 -2.454
35.46000 3.525
35.48000 2.532
35.50000 1.674
35.52000 2.179
35.54000 -3.565
35.56000 0.972
35.58000 9.279
35.60000 6.266
35.62000 2.640
35.64000 1.736
35.66000 1.065
35.68000 -2.590
35.70000 -0.047
35.72000 3.622
35.74000 1.614
35.76000 0.759
35.78000 1.991
35.80000 1.314
35.82000 2.195
35.84000 6.152
35.86000 2.536
35.88000 1.106
35.90000 1.104
35.92000 -2.182
35.94000 -1.602
35.96000 2.294
35.98000 4.797
36.00000 3.076
36.02000 1.133
36.04000 0.333
36.06000 -1.629
36.08000 -2.083
36.10000 0.775
36.12000 1.913
36.14000 4.888
36.16000 3.724
36.18000 3.421
36.20000 2.362
36.22000 0.126
36.24000 3.767
36.26000 6.785
36.28000 1.499
36.30000 -2.491
36.32000 -0.870
36.34000 -2.289
36.36000 -0.075
36.38000 10.741
36.40000 5.765
36.42000 3.654
36.44000 2.462
36.46000 6.251
36.48000 -3.602
36.50000 -2.857
36.52000 -0.041
36.54000 5.029
36.56000 5.509
36.58000 5.117
36.60000 -0.323
36.62000 1.828
36.64000 0.709
36.66000 1.926
36.68000 -3.609
36.70000 -0.972
36.72000 1.127
36.74000 5.126
36.76000 5.303
36.78000 2.968
36.80000 1.275
36.82000 3.145
36.84000 3.298
36.86000 5.444
36.88000 8.704
36.90000 10.290
36.92000 11.394
36.94000 6.209
36.96000 1.571
36.98000 -2.483
37.00000 -1.305
37.02000 1.701
37.04000 6.348
37.06000 5.501
37.08000 2.741
37.10000 3.217
37.12000 1.380
37.14000 5.939
37.16000 10.158
37.18000 5.495
37.20000 2.415
37.22000 5.127
37.24000 7.184
37.26000 4.326
37.28000 11.444
37.30000 4.844
37.32000 8.572
37.34000 12.442
37.36000 10.980
37.38000 4.713
37.40000 1.493
37.42000 4.438
37.44000 8.858
37.46000 8.240
37.48000 2.048
37.50000 5.636
37.52000 7.208
37.54000 8.832
37.56000 5.115
37.58000 2.012
37.60000 3.831
37.62000 6.952
37.64000 6.729
37.66000 6.441
37.68000 5.808
37.70000 7.884
37.72000 9.922
37.74000 11.450
37.76000 13.150
37.78000 16.156
37.80000 15.763
37.82000 14.147
37.84000 16.150
37.86000 9.348
37.88000 7.973
37.90000 15.683
37.92000 17.692
37.94000 13.811
37.96000 19.365
37.98000 21.539
38.00000 16.709
38.02000 16.594
38.04000 16.744
38.06000 17.744
38.08000 18.210
38.10000 20.528
38.12000 19.384
38.14000 14.870
38.16000 23.002
38.18000 28.578
38.20000 29.026
38.22000 34.204
38.24000 33.391
38.26000 29.272
38.28000 34.417
38.30000 36.059
38.32000 33.830
38.34000 36.547
38.36000 38.202
38.38000 44.537
38.40000 44.526
38.42000 43.123
38.44000 41.545
38.46000 48.004
38.48000 45.114
38.50000 45.782
38.52000 51.078
38.54000 53.774
38.56000 54.205
38.58000 58.681
38.60000 65.211
38.62000 65.517
38.64000 66.284
38.66000 69.562
38.68000 71.174
38.70000 74.812
38.72000 77.877
38.74000 78.329
38.76000 87.053
38.78000 82.750
38.80000 82.972
38.82000 92.447
38.84000 97.251
38.86000 101.867
38.88000 107.000
38.90000 109.598
38.92000 115.790
38.94000 123.161
38.96000 125.633
38.98000 130.522
39.00000 135.702
39.02000 147.269
39.04000 154.811
39.06000 162.074
39.08000 167.163
39.10000 176.966
39.12000 188.924
39.14000 196.075
39.16000 202.539
39.18000 213.976
39.20000 221.726
39.22000 232.417
39.24000 245.805
39.26000 259.699
39.28000 264.499
39.30000 282.951
39.32000 289.937
39.34000 308.360
39.36000 322.774
39.38000 344.918
39.40000 352.465
39.42000 375.469
39.44000 391.479
39.46000 412.076
39.48000 440.110
39.50000 463.539
39.52000 483.543
39.54000 505.456
39.56000 528.398
39.58000 549.708
39.60000 584.131
39.62000 598.283
39.64000 620.701
39.66000 642.717
39.68000 653.813
39.70000 679.473
39.72000 711.351
39.74000 730.772
39.76000 740.069
39.78000 757.660
39.80000 765.360
39.82000 769.082
39.84000 777.975
39.86000 782.161
39.88000 789.124
39.90000 794.966
39.92000 788.967
39.94000 775.110
39.96000 769.783
39.98000 758.465
40.00000 746.726
40.02000 740.270
40.04000 731.311
40.06000 717.447
40.08000 684.589
40.10000 663.924
40.12000 643.150
40.14000 626.165
40.16000 596.834
40.18000 578.977
40.20000 561.733
40.22000 532.431
40.24000 510.486
40.26000 487.225
40.28000 466.049
40.30000 451.342
40.32000 427.413
40.34000 406.669
40.36000 390.027
40.38000 360.058
40.40000 327.598
40.42000 318.302
40.44000 304.605
40.46000 287.095
40.48000 275.937
40.50000 252.785
40.52000 235.142
40.54000 212.514
40.56000 204.489
40.58000 200.426
40.60000 190.905
40.62000 171.827
40.64000 162.758
40.66000 159.544
40.68000 153.272
40.70000 140.064
40.72000 129.682
40.74000 120.948
40.76000 116.011
40.78000 113.218
40.80000 103.800
40.82000 98.636
40.84000 88.538
40.86000 84.386
40.88000 84.035
40.90000 80.809
40.92000 74.142
40.94000 64.599
40.96000 55.912
40.98000 54.048
41.00000 52.882
41.02000 49.912
41.04000 51.709
41.06000 47.999
41.08000 40.467
41.10000 34.476
41.12000 36.936
41.14000 37.558
41.16000 37.746
41.18000 36.786
41.20000 34.908
41.22000 33.262
41.24000 29.357
41.26000 24.321
41.28000 26.823
41.30000 25.412
41.32000 28.489
41.34000 25.650
41.36000 23.892
41.38000 21.050
41.40000 16.379
41.42000 15.526
41.44000 17.148
41.46000 15.734
41.48000 12.728
41.50000 16.040
41.52000 13.923
41.54000 9.979
41.56000 10.291
41.58000 10.411
41.60000 6.754
41.62000 10.030
41.64000 10.739
41.66000 8.833
41.68000 9.699
41.70000 13.692
41.72000 8.996
41.74000 10.836
41.76000 7.738
41.78000 8.599
41.80000 6.842
41.82000 3.743
41.84000 3.477
41.86000 6.923
41.88000 7.390
41.90000 3.289
41.92000 1.412
41.94000 0.866
41.96000 -1.749
41.98000 -0.389
42.00000 1.105
42.02000 7.528
42.04000 5.007
42.06000 3.472
42.08000 1.995
42.10000 0.455
42.12000 1.937
42.14000 4.096
42.16000 1.409
42.18000 2.459
42.20000 -3.527
42.22000 -1.099
42.24000 -2.845
42.26000 -0.491
42.28000 -2.105
42.30000 2.661
42.32000 1.178
42.34000 -1.725
42.36000 -3.465
42.38000 -3.472
42.40000 0.305
42.42000 3.461
42.44000 3.489
42.46000 6.066
42.48000 0.752
42.50000 -2.677
42.52000 0.056
42.54000 0.156
42.56000 0.882
42.58000 1.782
42.60000 1.594
42.62000 -0.938
42.64000 -1.283
42.66000 1.670
42.68000 -2.316
42.70000 -0.686
42.72000 -1.754
42.74000 -1.158
42.76000 0.034
42.78000 5.134
42.80000 7.064
42.82000 2.273
42.84000 -3.408
42.86000 -3.056
42.88000 -1.571
42.90000 -1.260
42.92000 1.788
42.94000 1.265
42.96000 -0.159
42.98000 -3.379
43.00000 -0.532
43.02000 5.414
43.04000 5.345
43.06000 2.856
43.08000 0.104
43.10000 2.447
43.12000 -0.232
43.14000 -0.084
43.16000 2.659
43.18000 3.761
43.20000 -1.355
43.22000 -3.354
43.24000 -0.765
43.26000 0.062
43.28000 6.609
43.30000 6.697
43.32000 3.857
43.34000 -0.649
43.36000 -0.474
43.38000 -0.046
43.40000 2.953
43.42000 5.007
43.44000 3.397
43.46000 2.253
43.48000 3.119
43.50000 4.585
43.52000 4.287
43.54000 3.205
43.56000 2.402
43.58000 1.771
43.60000 1.342
43.62000 2.194
43.64000 4.335
43.66000 -0.099
43.68000 -3.316
43.70000 -0.440
43.72000 2.426
43.74000 3.236
43.76000 3.227
43.78000 1.299
43.80000 -0.344
43.82000 2.195
43.84000 1.346
43.86000 -0.595
43.88000 -1.877
43.90000 -2.781
43.92000 -2.865
43.94000 0.503
43.96000 0.464
43.98000 -1.728
44.00000 -0.962
44.02000 1.351
44.04000 2.015
44.06000 3.471
44.08000 1.669
44.10000 1.251
44.12000 4.817
44.14000 4.664
44.16000 1.891
44.18000 2.329
44.20000 3.889
44.22000 6.098
44.24000 5.007
44.26000 3.690
44.28000 -0.971
44.30000 -3.323
44.32000 1.831
44.34000 1.458
44.36000 1.343
44.38000 0.317
44.40000 -2.281
44.42000 -0.144
44.44000 1.252
44.46000 7.001
44.48000 7.371
44.50000 5.124
44.52000 6.191
44.54000 1.822
44.56000 0.675
44.58000 4.246
44.60000 2.859
44.62000 0.404
44.64000 4.061
44.66000 5.990
44.68000 9.122
44.70000 6.109
44.72000 5.822
44.74000 6.502
44.76000 6.109
44.78000 6.584
44.80000 5.719
44.82000 2.862
44.84000 5.213
44.86000 7.044
44.88000 7.809
44.90000 7.135
44.92000 3.694
44.94000 8.191
44.96000 6.061
44.98000 8.844
45.00000 7.391
45.02000 7.374
45.04000 9.914
45.06000 9.226
45.08000 7.642
45.10000 11.552
45.12000 11.483
45.14000 14.275
45.16000 13.894
45.18000 14.074
45.20000 17.801
45.22000 17.514
45.24000 18.695
45.26000 18.477
45.28000 13.188
45.30000 16.858
45.32000 20.034
45.34000 18.318
45.36000 16.506
45.38000 15.864
45.40000 18.034
45.42000 18.786
45.44000 23.635
45.46000 28.353
45.48000 22.955
45.50000 27.941
45.52000 30.538
45.54000 30.437
45.56000 29.860
45.58000 30.853
45.60000 33.642
45.62000 33.840
45.64000 27.196
45.66000 34.289
45.68000 35.815
45.70000 32.796
45.72000 37.073
45.74000 45.803
45.76000 44.400
45.78000 38.811
45.80000 45.761
45.82000 50.193
45.84000 47.611
45.86000 48.081
45.88000 51.822
45.90000 56.532
45.92000 62.803
45.94000 64.268
45.96000 62.790
45.98000 64.246
46.00000 63.458
46.02000 67.127
46.04000 68.542
46.06000 67.827
46.08000 70.440
46.10000 72.215
46.12000 72.433
46.14000 77.218
46.16000 78.811
46.18000 83.615
46.20000 86.600
46.22000 90.240
46.24000 83.928
46.26000 85.582
46.28000 86.038
46.30000 87.901
46.32000 93.311
46.34000 95.599
46.36000 102.245
46.38000 100.519
46.40000 103.808
46.42000 107.031
46.44000 107.256
46.46000 104.864
46.48000 107.627
46.50000 107.014
46.52000 104.806
46.54000 111.204
46.56000 108.633
46.58000 108.253
46.60000 108.305
46.62000 111.040
46.64000 106.036
46.66000 109.961
46.68000 111.392
46.70000 111.449
46.72000 111.901
46.74000 109.395
46.76000 106.813
46.78000 104.804
46.80000 99.517
46.82000 97.687
46.84000 95.928
46.86000 94.067
46.88000 94.541
46.90000 93.902
46.92000 82.941
46.94000 81.009
46.96000 84.655
46.98000 78.262
47.00000 74.353
47.02000 76.993
47.04000 74.044
47.06000 69.065
47.08000 68.305
47.10000 65.438
47.12000 65.223
47.14000 62.466
47.16000 64.188
47.18000 55.676
47.20000 55.310
47.22000 53.390
47.24000 50.170
47.26000 45.185
47.28000 41.937
47.30000 37.152
47.32000 38.396
47.34000 34.868
47.36000 38.614
47.38000 35.698
47.40000 32.185
47.42000 28.514
47.44000 25.777
47.46000 23.158
47.48000 25.166
47.50000 23.871
47.52000 23.102
47.54000 18.842
47.56000 15.532
47.58000 18.501
47.60000 14.986
47.62000 16.303
47.64000 14.058
47.66000 8.417
47.68000 7.715
47.70000 11.809
47.72000 9.772
47.74000 7.067
47.76000 2.637
47.78000 10.008
47.80000 5.463
47.82000 5.258
47.84000 6.551
47.86000 6.859
47.88000 6.099
47.90000 8.840
47.92000 8.791
47.94000 7.441
47.96000 4.065
47.98000 3.674
48.00000 2.805
48.02000 2.561
48.04000 2.860
48.06000 2.776
48.08000 2.968
48.10000 0.857
48.12000 1.405
48.14000 0.890
48.16000 8.116
48.18000 4.062
48.20000 -0.143
48.22000 -0.892
48.24000 2.819
48.26000 3.170
48.28000 2.739
48.30000 4.130
48.32000 4.681
48.34000 -0.268
48.36000 3.400
48.38000 0.495
48.40000 -2.256
48.42000 -0.750
48.44000 -0.689
48.46000 3.114
48.48000 2.369
48.50000 1.026
48.52000 3.046
48.54000 1.678
48.56000 -1.363
48.58000 2.412
48.60000 1.102
48.62000 0.290
48.64000 -0.313
48.66000 2.987
48.68000 4.814
48.70000 3.927
48.72000 6.005
48.74000 2.507
48.76000 -2.840
48.78000 -1.943
48.80000 4.027
48.82000 5.098
48.84000 2.640
48.86000 4.013
48.88000 4.578
48.90000 2.897
48.92000 0.758
48.94000 2.034
48.96000 3.882
48.98000 6.337
49.00000 4.806
49.02000 0.108
49.04000 -1.450
49.06000 -0.826
49.08000 -2.789
49.10000 0.670
49.12000 5.900
49.14000 5.696
49.16000 3.121
49.18000 -0.823
49.20000 0.843
49.22000 1.995
49.24000 4.029
49.26000 4.621
49.28000 3.506
49.30000 4.609
49.32000 2.382
49.34000 2.264
49.36000 6.828
49.38000 5.367
49.40000 4.504
49.42000 7.417
49.44000 3.561
49.46000 2.466
49.48000 3.425
49.50000 4.312
49.52000 2.700
49.54000 6.635
49.56000 1.778
49.58000 -2.668
49.60000 -1.106
49.62000 0.980
49.64000 3.776
49.66000 2.416
49.68000 1.717
49.70000 1.606
49.72000 5.868
49.74000 8.783
49.76000 5.722
49.78000 4.042
49.80000 3.766
49.82000 1.831
49.84000 3.472
49.86000 8.081
49.88000 7.554
49.90000 4.671
49.92000 -2.719
49.94000 -2.158
49.96000 1.761
49.98000 -1.617
50.00000 1.940
50.02000 3.436
50.04000 7.232
50.06000 4.810
50.08000 5.792
50.10000 4.071
50.12000 3.014
50.14000 0.763
50.16000 -0.844
50.18000 -0.829
50.20000 -0.626
50.22000 5.975
50.24000 8.050
50.26000 5.481
50.28000 0.273
50.30000 -0.657
50.32000 3.073
50.34000 2.611
50.36000 0.884
50.38000 0.280
50.40000 1.804
50.42000 4.864
50.44000 5.454
50.46000 2.871
50.48000 2.972
50.50000 3.784
50.52000 6.445
50.54000 4.055
50.56000 2.095
50.58000 2.800
50.60000 1.465
50.62000 3.384
50.64000 4.100
50.66000 5.627
50.68000 6.084
50.70000 6.315
50.72000 7.475
50.74000 4.155
50.76000 -2.681
50.78000 -0.136
50.80000 2.339
50.82000 1.238
50.84000 4.883
50.86000 5.287
50.88000 2.135
50.90000 1.747
50.92000 -2.019
50.94000 -2.477
50.96000 -1.495
50.98000 -1.010
51.00000 0.971
51.02000 -2.663
51.04000 -2.305
51.06000 -0.091
51.08000 2.746
51.10000 2.969
51.12000 2.514
51.14000 4.475
51.16000 3.938
51.18000 1.512
51.20000 3.495
51.22000 2.852
51.24000 6.125
51.26000 2.084
51.28000 0.958
51.30000 0.135
51.32000 0.547
51.34000 0.092
51.36000 -0.888
51.38000 0.796
51.40000 2.273
51.42000 2.721
51.44000 4.319
51.46000 3.322
51.48000 3.001
51.50000 1.299
51.52000 -2.672
51.54000 -2.514
51.56000 -0.559
51.58000 0.566
51.60000 2.635
51.62000 0.772
51.64000 -0.218
51.66000 4.049
51.68000 1.574
51.70000 2.000
51.72000 3.832
51.74000 -1.627
51.76000 1.237
51.78000 1.612
51.80000 0.693
51.82000 -1.289
51.84000 -1.028
51.86000 2.137
51.88000 3.742
51.90000 6.408
51.92000 4.215
51.94000 3.742
51.96000 4.166
51.98000 1.552
52.00000 2.578
52.02000 6.662
52.04000 2.970
52.06000 1.561
52.08000 3.379
52.10000 -2.015
52.12000 -1.632
52.14000 0.602
52.16000 3.750
52.18000 3.137
52.20000 2.161
52.22000 0.600
52.24000 0.497
52.26000 1.594
52.28000 4.286
52.30000 3.133
52.32000 0.828
52.34000 2.012
52.36000 3.924
52.38000 3.380
52.40000 2.326
52.42000 4.728
52.44000 1.760
52.46000 1.120
52.48000 -1.113
52.50000 2.249
52.52000 5.292
52.54000 5.348
52.56000 6.021
52.58000 4.364
52.60000 2.967
52.62000 2.662
52.64000 3.242
52.66000 3.342
52.68000 2.260
52.70000 3.137
52.72000 1.951
52.74000 -2.221
52.76000 1.384
52.78000 3.520
52.80000 -2.616
52.82000 -0.744
52.84000 -1.173
52.86000 -2.239
52.88000 0.545
52.90000 0.081
52.92000 3.500
52.94000 3.300
52.96000 1.368
52.98000 1.968
53.00000 3.889
53.02000 2.579
53.04000 -1.383
53.06000 0.776
53.08000 2.384
53.10000 3.626
53.12000 2.946
53.14000 0.563
53.16000 1.824
53.18000 -0.246
53.20000 1.995
53.22000 2.743
53.24000 2.816
53.26000 -0.099
53.28000 0.286
53.30000 -0.851
53.32000 0.628
53.34000 1.065
53.36000 2.192
53.38000 2.568
53.40000 -0.217
53.42000 0.586
53.44000 5.177
53.46000 7.895
53.48000 2.040
53.50000 3.695
53.52000 2.457
53.54000 2.508
53.56000 2.021
53.58000 0.754
53.60000 3.666
53.62000 5.519
53.64000 3.853
53.66000 2.532
53.68000 3.898
53.70000 6.134
53.72000 5.671
53.74000 3.573
53.76000 0.042
53.78000 1.622
53.80000 4.258
53.82000 5.453
53.84000 2.286
53.86000 -0.906
53.88000 2.793
53.90000 2.482
53.92000 1.854
53.94000 3.625
53.96000 4.306
53.98000 3.877
54.00000 0.273
54.02000 3.195
54.04000 4.557
54.06000 2.959
54.08000 1.459
54.10000 4.561
54.12000 3.202
54.14000 2.431
54.16000 5.044
54.18000 7.367
54.20000 9.759
54.22000 7.374
54.24000 7.361
54.26000 2.710
54.28000 3.182
54.30000 2.520
54.32000 -2.532
54.34000 3.129
54.36000 9.165
54.38000 5.202
54.40000 6.621
54.42000 7.845
54.44000 5.391
54.46000 3.390
54.48000 6.569
54.50000 7.813
54.52000 5.111
54.54000 6.579
54.56000 1.911
54.58000 3.772
54.60000 4.092
54.62000 7.553
54.64000 9.161
54.66000 5.284
54.68000 5.659
54.70000 2.853
54.72000 4.757
54.74000 4.039
54.76000 2.552
54.78000 1.899
54.80000 4.052
54.82000 3.962
54.84000 5.473
54.86000 4.694
54.88000 3.115
54.90000 0.953
54.92000 3.223
54.94000 -0.407
54.96000 4.036
54.98000 5.194
55.00000 0.947
55.02000 -0.392
55.04000 3.034
55.06000 2.942
55.08000 3.144
55.10000 2.521
55.12000 6.114
55.14000 3.004
55.16000 4.752
55.18000 5.759
55.20000 1.953
55.22000 6.462
55.24000 6.087
55.26000 6.186
55.28000 6.538
55.30000 3.626
55.32000 3.712
55.34000 0.706
55.36000 4.125
55.38000 6.586
55.40000 2.190
55.42000 6.876
55.44000 5.051
55.46000 4.384
55.48000 3.414
55.50000 4.128
55.52000 6.829
55.54000 2.459
55.56000 3.712
55.58000 3.456
55.60000 3.850
55.62000 7.295
55.64000 5.899
55.66000 5.118
55.68000 6.407
55.70000 5.159
55.72000 4.031
55.74000 5.809
55.76000 2.879
55.78000 4.625
55.80000 4.774
55.82000 3.776
55.84000 3.601
55.86000 1.595
55.88000 2.491
55.90000 1.933
55.92000 -2.493
55.94000 1.081
55.96000 4.933
55.98000 1.451
56.00000 3.714
56.02000 1.102
56.04000 7.157
56.06000 9.634
56.08000 9.646
56.10000 3.159
56.12000 2.295
56.14000 5.775
56.16000 5.777
56.18000 2.859
56.20000 1.426
56.22000 6.367
56.24000 5.427
56.26000 6.036
56.28000 7.139
56.30000 7.171
56.32000 5.344
56.34000 1.168
56.36000 0.047
56.38000 3.130
56.40000 0.996
56.42000 0.672
56.44000 4.523
56.46000 1.680
56.48000 0.446
56.50000 1.841
56.52000 0.322
56.54000 -1.593
56.56000 0.336
56.58000 -0.715
56.60000 0.260
56.62000 2.343
56.64000 0.593
56.66000 1.485
56.68000 0.131
56.70000 0.711
56.72000 3.215
56.74000 3.501
56.76000 -1.446
56.78000 0.907
56.80000 -1.377
56.82000 3.052
56.84000 2.095
56.86000 5.571
56.88000 9.029
56.90000 6.986
56.92000 1.818
56.94000 0.219
56.96000 0.990
56.98000 1.693
57.00000 3.980
57.02000 1.502
57.04000 4.842
57.06000 4.363
57.08000 2.396
57.10000 0.258
57.12000 3.306
57.14000 2.975
57.16000 1.067
57.18000 1.595
57.20000 0.608
57.22000 -1.594
57.24000 2.330
57.26000 4.283
57.28000 1.980
57.30000 0.243
57.32000 2.835
57.34000 0.625
57.36000 0.611
57.38000 2.148
57.40000 -0.999
57.42000 1.761
57.44000 -0.862
57.46000 -2.501
57.48000 -0.945
57.50000 -0.408
57.52000 0.944
57.54000 0.601
57.56000 -0.471
57.58000 -0.344
57.60000 -1.270
57.62000 -1.119
57.64000 0.555
57.66000 3.273
57.68000 -0.435
57.70000 1.316
57.72000 1.337
57.74000 0.002
57.76000 0.671
57.78000 0.673
57.80000 0.422
57.82000 5.474
57.84000 4.441
57.86000 3.353
57.88000 -0.568
57.90000 -1.498
57.92000 2.785
57.94000 0.669
57.96000 -0.834
57.98000 -1.239
58.00000 -0.414
58.02000 4.847
58.04000 0.927
58.06000 1.014
58.08000 3.181
58.10000 6.730
58.12000 5.467
58.14000 4.177
58.16000 4.155
58.18000 1.380
58.20000 -0.768
58.22000 -2.468
58.24000 -0.138
58.26000 0.451
58.28000 -1.562
58.30000 0.750
58.32000 1.186
58.34000 2.539
58.36000 1.205
58.38000 -0.308
58.40000 0.123
58.42000 3.828
58.44000 6.568
58.46000 2.841
58.48000 -2.464
58.50000 0.065
58.52000 -0.109
58.54000 0.940
58.56000 0.991
58.58000 1.753
58.60000 4.863
58.62000 5.952
58.64000 5.972
58.66000 2.764
58.68000 -1.696
58.70000 0.997
58.72000 1.149
58.74000 1.479
58.76000 2.676
58.78000 4.664
58.80000 5.051
58.82000 1.717
58.84000 0.777
58.86000 -0.544
58.88000 -1.582
58.90000 -0.186
58.92000 2.184
58.94000 3.976
58.96000 4.966
58.98000 0.800
59.00000 -1.349
59.02000 -1.411
59.04000 1.257
59.06000 3.032
59.08000 2.763
59.10000 1.625
59.12000 1.837
59.14000 3.699
59.16000 4.216
59.18000 4.572
59.20000 3.387
59.22000 5.564
59.24000 3.250
59.26000 -0.338
59.28000 -0.850
59.30000 1.753
59.32000 -0.479
59.34000 -1.394
59.36000 2.551
59.38000 2.812
59.40000 1.529
59.42000 1.738
59.44000 3.876
59.46000 4.855
59.48000 -0.677
59.50000 0.424
59.52000 -0.461
59.54000 1.965
59.56000 0.833
59.58000 2.326
59.60000 3.240
59.62000 1.429
59.64000 0.620
59.66000 1.215
59.68000 0.790
59.70000 -1.950
59.72000 2.883
59.74000 8.436
59.76000 7.281
59.78000 2.922
59.80000 -2.415
59.82000 0.364
59.84000 1.706
59.86000 2.630
59.88000 4.833
59.90000 1.817
59.92000 0.947
59.94000 0.970
59.96000 3.170
59.98000 2.140
60.00000 0.510
60.02000 -0.236
60.04000 1.439
60.06000 -0.820
60.08000 1.763
60.10000 -0.155
60.12000 -2.408
60.14000 3.193
60.16000 0.955
60.18000 2.251
60.20000 3.373
60.22000 -0.281
60.24000 1.410
60.26000 3.195
60.28000 0.725
60.30000 0.360
60.32000 1.491
60.34000 5.060
60.36000 4.784
60.38000 3.451
60.40000 2.686
60.42000 2.727
60.44000 1.252
60.46000 0.990
60.48000 2.093
60.50000 2.520
60.52000 1.416
60.54000 2.989
60.56000 1.190
60.58000 -0.311
60.60000 4.578
60.62000 3.566
60.64000 3.247
60.66000 2.798
60.68000 1.876
60.70000 1.453
60.72000 0.599
60.74000 -0.170
60.76000 -0.131
60.78000 0.900
60.80000 1.759
60.82000 4.733
60.84000 4.403
60.86000 1.755
60.88000 3.242
60.90000 -2.391
60.92000 -0.385
60.94000 2.871
60.96000 1.709
60.98000 1.506
61.00000 1.909
61.02000 -0.186
61.04000 4.855
61.06000 1.918
61.08000 -0.280
61.10000 -0.596
61.12000 0.337
61.14000 -0.294
61.16000 -1.393
61.18000 -0.773
61.20000 -0.009
61.22000 5.631
61.24000 4.065
61.26000 0.781
61.28000 5.834
61.30000 3.184
61.32000 1.448
61.34000 2.721
61.36000 3.049
61.38000 1.330
61.40000 2.482
61.42000 3.833
61.44000 4.169
61.46000 1.529
61.48000 2.402
61.50000 2.970
61.52000 3.456
61.54000 0.612
61.56000 -0.435
61.58000 -0.164
61.60000 2.084
61.62000 2.864
61.64000 0.638
61.66000 -1.444
61.68000 -1.821
61.70000 3.267
61.72000 6.316
61.74000 6.695
61.76000 3.993
61.78000 -0.889
61.80000 -2.020
61.82000 -2.371
61.84000 2.028
61.86000 2.303
61.88000 2.084
61.90000 -0.267
61.92000 2.191
61.94000 3.075
61.96000 2.748
61.98000 -0.084
62.00000 1.287
62.02000 3.899
62.04000 6.657
62.06000 2.703
62.08000 1.699
62.10000 0.448
62.12000 3.195
62.14000 4.010
62.16000 -0.079
62.18000 -2.007
62.20000 3.626
62.22000 2.697
62.24000 1.895
62.26000 3.059
62.28000 7.645
62.30000 4.230
62.32000 4.386
62.34000 3.510
62.36000 0.485
62.38000 2.059
62.40000 0.484
62.42000 0.848
62.44000 1.768
62.46000 4.039
62.48000 3.606
62.50000 2.904
62.52000 -0.527
62.54000 0.021
62.56000 1.688
62.58000 2.902
62.60000 2.417
62.62000 0.217
62.64000 0.261
62.66000 1.345
62.68000 0.702
62.70000 1.193
62.72000 3.158
62.74000 1.189
62.76000 -1.111
62.78000 1.252
62.80000 0.111
62.82000 3.798
62.84000 2.256
62.86000 0.714
62.88000 2.807
62.90000 1.767
62.92000 2.680
62.94000 2.042
62.96000 2.222
62.98000 2.545
63.00000 3.952
63.02000 1.970
63.04000 0.589
63.06000 -2.377
63.08000 1.851
63.10000 4.749
63.12000 5.855
63.14000 -0.814
63.16000 -0.245
63.18000 0.192
63.20000 -1.215
63.22000 -1.129
63.24000 1.143
63.26000 2.305
63.28000 2.605
63.30000 3.870
63.32000 1.364
63.34000 0.042
63.36000 2.410
63.38000 2.983
63.40000 2.935
63.42000 1.484
63.44000 -1.681
63.46000 -0.403
63.48000 -2.363
63.50000 -0.260
63.52000 0.654
63.54000 -1.121
63.56000 1.804
63.58000 -0.227
63.60000 0.183
63.62000 -0.845
63.64000 -1.849
63.66000 -2.086
63.68000 0.974
63.70000 2.991
63.72000 3.289
63.74000 0.295
63.76000 -1.495
63.78000 -0.431
63.80000 -0.304
63.82000 -0.668
63.84000 -0.479
63.86000 0.290
63.88000 2.076
63.90000 -0.313
63.92000 0.654
63.94000 0.119
63.96000 -1.781
63.98000 -0.357
64.00000 -0.150
64.02000 -1.866
64.04000 -2.396
64.06000 2.152
64.08000 2.139
64.10000 -1.394
64.12000 0.442
64.14000 0.133
64.16000 1.721
64.18000 2.954
64.20000 1.179
64.22000 -1.927
64.24000 -0.840
64.26000 0.539
64.28000 -1.239
64.30000 -2.140
64.32000 -0.773
64.34000 0.798
64.36000 0.835
64.38000 1.745
64.40000 -1.518
64.42000 0.604
64.44000 2.013
64.46000 0.895
64.48000 -2.386
64.50000 0.241
64.52000 -2.164
64.54000 -1.901
64.56000 0.183
64.58000 2.255
64.60000 0.579
64.62000 0.789
64.64000 0.914
64.66000 1.561
64.68000 -0.422
64.70000 -0.654
64.72000 2.846
64.74000 2.857
64.76000 1.478
64.78000 0.135
64.80000 0.465
64.82000 1.810
64.84000 3.596
64.86000 1.145
64.88000 -2.402
64.90000 2.343
64.92000 4.605
64.94000 1.969
64.96000 1.902
64.98000 2.363
65.00000 0.207
65.02000 -0.093
65.04000 0.341
65.06000 0.274
65.08000 1.310
65.10000 2.416
65.12000 3.575
65.14000 2.058
65.16000 1.443
65.18000 0.351
65.20000 -0.253
65.22000 2.068
65.24000 1.666
65.26000 0.911
65.28000 0.808
65.30000 3.445
65.32000 -0.872
65.34000 -1.814
65.36000 -2.405
65.38000 -0.147
65.40000 0.527
65.42000 4.825
65.44000 3.721
65.46000 3.871
65.48000 1.757
65.50000 3.245
65.52000 2.340
65.54000 6.106
65.56000 2.876
65.58000 1.793
65.60000 3.100
65.62000 0.799
65.64000 2.479
65.66000 1.698
65.68000 1.270
65.70000 2.696
65.72000 1.469
65.74000 4.103
65.76000 3.530
65.78000 0.482
65.80000 -1.091
65.82000 0.636
65.84000 -0.091
65.86000 0.744
65.88000 -2.448
65.90000 1.292
65.92000 1.826
65.94000 1.955
65.96000 1.043
65.98000 2.347
66.00000 1.895
66.02000 0.775
66.04000 -0.562
66.06000 -1.900
66.08000 -0.373
66.10000 1.469
66.12000 1.964
66.14000 1.218
66.16000 2.859
66.18000 2.036
66.20000 3.463
66.22000 2.205
66.24000 -1.306
66.26000 -1.368
66.28000 3.361
66.30000 1.976
66.32000 -0.066
66.34000 -1.507
66.36000 0.247
66.38000 3.100
66.40000 0.719
66.42000 0.336
66.44000 -0.414
66.46000 2.921
66.48000 2.238
66.50000 -0.119
66.52000 1.468
66.54000 -0.606
66.56000 -0.700
66.58000 1.582
66.60000 1.685
66.62000 1.827
66.64000 2.813
66.66000 3.134
66.68000 3.172
66.70000 2.535
66.72000 0.678
66.74000 3.700
66.76000 2.312
66.78000 3.542
66.80000 5.950
66.82000 6.504
66.84000 3.091
66.86000 2.790
66.88000 3.910
66.90000 4.318
66.92000 4.938
66.94000 6.148
66.96000 7.190
66.98000 6.293
67.00000 5.955
67.02000 6.406
67.04000 9.255
67.06000 10.368
67.08000 12.022
67.10000 9.871
67.12000 8.608
67.14000 8.414
67.16000 7.305
67.18000 11.376
67.20000 11.342
67.22000 9.423
67.24000 9.844
67.26000 8.696
67.28000 10.909
67.30000 10.728
67.32000 10.307
67.34000 10.148
67.36000 9.702
67.38000 13.524
67.40000 14.404
67.42000 13.537
67.44000 11.467
67.46000 12.635
67.48000 12.360
67.50000 11.422
67.52000 15.189
67.54000 12.871
67.56000 12.031
67.58000 13.065
67.60000 10.231
67.62000 11.230
67.64000 15.457
67.66000 17.122
67.68000 17.403
67.70000 17.727
67.72000 19.097
67.74000 17.016
67.76000 15.874
67.78000 16.339
67.80000 19.638
67.82000 19.681
67.84000 19.764
67.86000 22.489
67.88000 24.055
67.90000 22.507
67.92000 21.667
67.94000 20.963
67.96000 20.031
67.98000 19.091
68.00000 19.579
68.02000 19.425
68.04000 18.101
68.06000 17.761
68.08000 18.137
68.10000 16.386
68.12000 19.131
68.14000 22.027
68.16000 18.427
68.18000 18.357
68.20000 19.008
68.22000 20.309
68.24000 19.375
68.26000 18.519
68.28000 18.001
68.30000 17.598
68.32000 15.054
68.34000 15.447
68.36000 17.346
68.38000 15.615
68.40000 12.785
68.42000 10.763
68.44000 12.588
68.46000 13.303
68.48000 13.529
68.50000 12.649
68.52000 13.558
68.54000 13.264
68.56000 9.379
68.58000 6.291
68.60000 7.707
68.62000 9.951
68.64000 9.937
68.66000 8.102
68.68000 7.599
68.70000 10.695
68.72000 11.737
68.74000 10.373
68.76000 6.290
68.78000 3.002
68.80000 3.335
68.82000 4.431
68.84000 3.268
68.86000 3.932
68.88000 4.166
68.90000 4.196
68.92000 3.986
68.94000 5.405
68.96000 5.192
68.98000 3.848
69.00000 2.905
69.02000 2.468
69.04000 0.422
69.06000 -2.423
69.08000 1.165
69.10000 0.946
69.12000 1.572
69.14000 -0.336
69.16000 1.350
69.18000 -2.409
69.20000 -1.333
69.22000 -1.171
69.24000 0.211
69.26000 1.956
69.28000 4.937
69.30000 2.094
69.32000 -0.461
69.34000 -1.954
69.36000 -1.309
69.38000 -1.556
69.40000 -0.930
69.42000 -1.210
69.44000 1.396
69.46000 2.358
69.48000 3.184
69.50000 0.181
69.52000 2.784
69.54000 -0.506
69.56000 1.619
69.58000 2.357
69.60000 2.224
69.62000 -1.667
69.64000 0.033
69.66000 1.863
69.68000 2.126
69.70000 -1.607
69.72000 -1.885
69.74000 -1.075
69.76000 -2.346
69.78000 0.210
69.80000 0.455
69.82000 2.540
69.84000 1.883
69.86000 -0.070
69.88000 0.636
69.90000 2.453
69.92000 2.964
69.94000 4.529
69.96000 1.260
69.98000 -2.321
70.00000 4.120
70.02000 4.403
70.04000 0.626
70.06000 -0.364
70.08000 2.023
70.10000 -0.559
70.12000 1.988
70.14000 4.710
70.16000 3.967
70.18000 3.264
70.20000 2.385
70.22000 2.515
70.24000 3.873
70.26000 1.734
70.28000 -2.287
70.30000 -0.999
70.32000 -1.393
70.34000 3.755
70.36000 6.358
70.38000 1.514
70.40000 -1.698
70.42000 2.436
70.44000 -0.354
70.46000 0.621
70.48000 3.895
70.50000 1.374
70.52000 -0.428
70.54000 -0.474
70.56000 -2.278
70.58000 0.736
70.60000 3.968
70.62000 3.811
70.64000 -1.334
70.66000 4.451
70.68000 3.584
70.70000 0.409
70.72000 -0.657
70.74000 -1.506
70.76000 -1.542
70.78000 -0.193
70.80000 0.416
70.82000 1.181
70.84000 -0.137
70.86000 5.345
70.88000 7.443
70.90000 3.838
70.92000 2.399
70.94000 1.046
70.96000 -0.340
70.98000 2.368
71.00000 3.049
71.02000 2.726
71.04000 3.190
71.06000 3.191
71.08000 1.718
71.10000 -1.419
71.12000 -0.083
71.14000 -1.750
71.16000 -2.273
71.18000 0.057
71.20000 1.280
71.22000 1.623
71.24000 0.730
71.26000 3.576
71.28000 0.943
71.30000 -1.695
71.32000 0.276
71.34000 2.527
71.36000 1.946
71.38000 1.823
71.40000 0.639
71.42000 -1.016
71.44000 0.168
71.46000 1.621
71.48000 2.757
71.50000 3.277
71.52000 6.034
71.54000 3.826
71.56000 3.312
71.58000 3.924
71.60000 2.771
71.62000 -0.346
71.64000 -0.666
71.66000 -1.545
71.68000 -0.642
71.70000 -2.054
71.72000 0.416
71.74000 2.176
71.76000 3.809
71.78000 3.650
71.80000 4.134
71.82000 1.053
71.84000 5.321
71.86000 5.107
71.88000 0.423
71.90000 -0.558
71.92000 1.376
71.94000 0.777
71.96000 -1.265
71.98000 0.447
72.00000 0.075
72.02000 3.266
72.04000 4.829
72.06000 4.727
72.08000 4.477
72.10000 5.503
72.12000 0.876
72.14000 3.863
72.16000 5.527
72.18000 5.567
72.20000 2.344
72.22000 2.128
72.24000 3.081
72.26000 1.423
72.28000 3.530
72.30000 1.845
72.32000 0.557
72.34000 1.989
72.36000 7.697
72.38000 3.140
72.40000 4.827
72.42000 5.916
72.44000 5.874
72.46000 3.888
72.48000 1.997
72.50000 -2.191
72.52000 -2.189
72.54000 1.811
72.56000 2.910
72.58000 2.472
72.60000 2.194
72.62000 4.472
72.64000 3.117
72.66000 6.044
72.68000 5.321
72.70000 3.247
72.72000 7.037
72.74000 5.532
72.76000 2.430
72.78000 0.776
72.80000 4.471
72.82000 2.472
72.84000 2.082
72.86000 4.892
72.88000 4.130
72.90000 5.706
72.92000 2.907
72.94000 0.520
72.96000 1.847
72.98000 1.191
73.00000 3.072
73.02000 6.596
73.04000 6.774
73.06000 6.134
73.08000 4.705
73.10000 1.746
73.12000 1.612
73.14000 1.282
73.16000 2.961
73.18000 3.758
73.20000 3.412
73.22000 2.584
73.24000 4.514
73.26000 8.494
73.28000 6.662
73.30000 3.299
73.32000 -2.167
73.34000 1.191
73.36000 5.027
73.38000 5.183
73.40000 6.287
73.42000 6.194
73.44000 7.171
73.46000 3.201
73.48000 0.368
73.50000 -1.645
73.52000 1.243
73.54000 2.678
73.56000 4.034
73.58000 6.589
73.60000 7.018
73.62000 3.676
73.64000 1.152
73.66000 -0.654
73.68000 1.799
73.70000 -0.617
73.72000 1.409
73.74000 2.566
73.76000 3.755
73.78000 7.010
73.80000 3.715
73.82000 4.914
73.84000 3.321
73.86000 3.730
73.88000 0.773
73.90000 1.910
73.92000 3.040
73.94000 2.331
73.96000 3.690
73.98000 1.656
74.00000 -0.325
74.02000 -0.684
74.04000 3.656
74.06000 3.305
74.08000 1.440
74.10000 1.023
74.12000 2.090
74.14000 1.715
74.16000 -0.135
74.18000 0.317
74.20000 1.097
74.22000 -0.371
74.24000 -0.800
74.26000 1.119
74.28000 3.773
74.30000 2.665
74.32000 2.032
74.34000 2.271
74.36000 2.374
74.38000 -0.284
74.40000 -0.583
74.42000 3.014
74.44000 3.472
74.46000 -0.639
74.48000 1.065
74.50000 0.115
74.52000 -1.499
74.54000 -0.353
74.56000 1.437
74.58000 2.114
74.60000 3.026
74.62000 -0.785
74.64000 -1.003
74.66000 2.548
74.68000 2.073
74.70000 -1.484
74.72000 -0.295
74.74000 0.852
74.76000 3.496
74.78000 2.189
74.80000 -1.068
74.82000 2.790
74.84000 1.437
74.86000 -0.573
74.88000 -2.191
74.90000 1.263
74.92000 2.631
74.94000 2.828
74.96000 5.356
74.98000 0.553
75.00000 -0.327
75.02000 -0.414
75.04000 -0.086
75.06000 2.389
75.08000 3.015
75.10000 5.102
75.12000 6.258
75.14000 0.891
75.16000 0.415
75.18000 2.714
75.20000 4.104
75.22000 2.520
75.24000 2.219
75.26000 2.141
75.28000 3.427
75.30000 3.571
75.32000 3.970
75.34000 4.695
75.36000 3.238
75.38000 4.156
75.40000 2.342
75.42000 2.589
75.44000 0.770
75.46000 2.525
75.48000 3.553
75.50000 4.968
75.52000 1.512
75.54000 3.860
75.56000 8.078
75.58000 4.557
75.60000 -0.934
75.62000 0.752
75.64000 1.497
75.66000 -0.509
75.68000 -2.187
75.70000 4.899
75.72000 6.545
75.74000 4.291
75.76000 2.550
75.78000 1.913
75.80000 1.010
75.82000 2.683
75.84000 1.372
75.86000 0.999
75.88000 3.925
75.90000 5.853
75.92000 7.217
75.94000 4.770
75.96000 5.775
75.98000 7.907
76.00000 3.670
76.02000 -0.097
76.04000 -2.192
76.06000 2.922
76.08000 5.090
76.10000 5.806
76.12000 6.144
76.14000 6.398
76.16000 0.919
76.18000 0.036
76.20000 -1.306
76.22000 2.220
76.24000 4.837
76.26000 2.502
76.28000 1.017
76.30000 -0.659
76.32000 -1.244
76.34000 1.873
76.36000 3.538
76.38000 5.019
76.40000 5.385
76.42000 3.913
76.44000 2.743
76.46000 0.406
76.48000 3.336
76.50000 6.360
76.52000 4.423
76.54000 2.586
76.56000 1.023
76.58000 -1.939
76.60000 0.775
76.62000 5.843
76.64000 5.267
76.66000 6.730
76.68000 1.730
76.70000 -1.125
76.72000 1.006
76.74000 3.490
76.76000 1.037
76.78000 0.746
76.80000 3.632
76.82000 -1.136
76.84000 -2.224
76.86000 -1.296
76.88000 1.398
76.90000 2.744
76.92000 2.031
76.94000 1.789
76.96000 3.367
76.98000 2.520
77.00000 2.575
77.02000 6.218
77.04000 7.229
77.06000 1.169
77.08000 2.791
77.10000 -0.315
77.12000 5.089
77.14000 0.969
77.16000 1.218
77.18000 3.999
77.20000 2.250
77.22000 5.019
77.24000 1.750
77.26000 -2.234
77.28000 -1.378
77.30000 2.175
77.32000 2.465
77.34000 -0.949
77.36000 3.760
77.38000 4.430
77.40000 5.373
77.42000 4.641
77.44000 -1.675
77.46000 1.297
77.48000 4.382
77.50000 1.044
77.52000 1.737
77.54000 2.880
77.56000 3.546
77.58000 5.277
77.60000 3.316
77.62000 3.347
77.64000 1.261
77.66000 0.336
77.68000 -0.978
77.70000 2.287
77.72000 1.330
77.74000 -0.529
77.76000 3.959
77.78000 0.713
77.80000 -0.595
77.82000 0.386
77.84000 4.367
77.86000 4.522
77.88000 6.146
77.90000 2.505
77.92000 0.311
77.94000 1.778
77.96000 0.548
77.98000 3.096
78.00000 4.750
78.02000 4.780
78.04000 1.193
78.06000 -0.189
78.08000 0.434
78.10000 -0.309
78.12000 -2.253
78.14000 1.591
78.16000 3.412
78.18000 4.373
78.20000 4.926
78.22000 5.136
78.24000 9.233
78.26000 3.866
78.28000 2.289
78.30000 1.441
78.32000 1.992
78.34000 3.601
78.36000 1.983
78.38000 -1.723
78.40000 -2.250
78.42000 0.372
78.44000 -0.109
78.46000 0.775
78.48000 -2.256
78.50000 3.427
78.52000 7.596
78.54000 4.935
78.56000 7.981
78.58000 6.069
78.60000 2.405
78.62000 0.444
78.64000 1.019
78.66000 4.116
78.68000 4.265
78.70000 2.909
78.72000 3.279
78.74000 6.893
78.76000 4.531
78.78000 1.335
78.80000 3.008
78.82000 0.546
78.84000 -1.810
78.86000 4.348
78.88000 -0.037
78.90000 0.972
78.92000 3.575
78.94000 3.936
78.96000 2.290
78.98000 3.349
79.00000 0.057
79.02000 6.133
79.04000 5.259
79.06000 3.723
79.08000 3.041
79.10000 -0.338
79.12000 3.806
79.14000 1.370
79.16000 0.172
79.18000 -0.187
79.20000 3.341
79.22000 4.054
79.24000 1.818
79.26000 3.391
79.28000 3.779
79.30000 1.600
79.32000 1.542
79.34000 4.062
79.36000 5.100
79.38000 4.564
79.40000 3.696
79.42000 3.928
79.44000 5.183
79.46000 2.669
79.48000 -1.601
79.50000 3.920
79.52000 4.930
79.54000 1.976
79.56000 1.833
79.58000 5.373
79.60000 2.298
79.62000 3.429
79.64000 -1.171
79.66000 -2.324
79.68000 3.316
79.70000 8.870
79.72000 8.937
79.74000 5.820
79.76000 3.707
79.78000 0.573
79.80000 4.024
79.82000 3.325
79.84000 1.974
79.86000 4.075
79.88000 8.485
79.90000 5.395
79.92000 2.754
79.94000 -0.095
79.96000 3.511
79.98000 3.171
80.00000 0.189
80.02000 3.650
80.04000 4.664
80.06000 0.470
80.08000 2.755
80.10000 2.938
80.12000 2.611
80.14000 7.827
80.16000 6.825
80.18000 6.684
80.20000 3.997
80.22000 7.516
80.24000 7.374
80.26000 7.110
80.28000 3.713
80.30000 2.340
80.32000 3.249
80.34000 0.315
80.36000 -1.567
80.38000 2.988
80.40000 6.009
80.42000 1.785
80.44000 -0.820
80.46000 5.998
80.48000 0.635
80.50000 0.517
80.52000 -1.350
80.54000 3.233
80.56000 3.963
80.58000 3.548
80.60000 5.401
80.62000 5.819
80.64000 4.321
80.66000 7.872
80.68000 6.800
80.70000 8.447
80.72000 8.646
80.74000 6.335
80.76000 4.012
80.78000 13.013
80.80000 11.025
80.82000 5.109
80.84000 8.015
80.86000 10.978
80.88000 10.118
80.90000 9.988
80.92000 11.852
80.94000 10.670
80.96000 6.263
80.98000 7.276
81.00000 10.474
81.02000 10.542
81.04000 12.058
81.06000 10.163
81.08000 11.604
81.10000 8.310
81.12000 12.397
81.14000 14.764
81.16000 15.693
81.18000 17.421
81.20000 17.601
81.22000 17.583
81.24000 17.473
81.26000 14.679
81.28000 14.465
81.30000 13.325
81.32000 17.904
81.34000 15.447
81.36000 15.521
81.38000 13.022
81.40000 21.177
81.42000 19.459
81.44000 25.683
81.46000 26.157
81.48000 24.917
81.50000 27.458
81.52000 24.671
81.54000 24.010
81.56000 21.824
81.58000 21.616
81.60000 20.373
81.62000 23.439
81.64000 27.152
81.66000 27.091
81.68000 29.329
81.70000 23.845
81.72000 27.906
81.74000 29.610
81.76000 31.127
81.78000 30.870
81.80000 29.530
81.82000 26.108
81.84000 26.589
81.86000 27.896
81.88000 32.044
81.90000 28.274
81.92000 23.070
81.94000 31.374
81.96000 32.980
81.98000 29.726
82.00000 24.605
82.02000 25.056
82.04000 27.661
82.06000 30.848
82.08000 29.955
82.10000 30.141
82.12000 31.305
82.14000 25.484
82.16000 22.969
82.18000 24.271
82.20000 23.918
82.22000 21.150
82.24000 22.735
82.26000 26.713
82.28000 29.531
82.30000 29.929
82.32000 26.911
82.34000 19.739
82.36000 19.296
82.38000 27.095
82.40000 20.510
82.42000 19.021
82.44000 19.738
82.46000 20.147
82.48000 23.467
82.50000 28.407
82.52000 24.793
82.54000 21.522
82.56000 18.976
82.58000 14.758
82.60000 16.396
82.62000 14.554
82.64000 13.382
82.66000 13.358
82.68000 14.079
82.70000 8.295
82.72000 14.486
82.74000 11.543
82.76000 12.104
82.78000 15.481
82.80000 9.588
82.82000 11.687
82.84000 10.347
82.86000 6.240
82.88000 10.623
82.90000 10.859
82.92000 12.133
82.94000 10.132
82.96000 8.271
82.98000 4.857
83.00000 7.199
83.02000 6.408
83.04000 4.940
83.06000 5.694
83.08000 5.175
83.10000 6.358
83.12000 6.770
83.14000 9.471
83.16000 6.329
83.18000 7.932
83.20000 8.693
83.22000 4.426
83.24000 9.337
83.26000 9.577
83.28000 6.208
83.30000 3.906
83.32000 5.193
83.34000 4.890
83.36000 5.444
83.38000 4.374
83.40000 4.908
83.42000 1.220
83.44000 1.107
83.46000 3.990
83.48000 1.381
83.50000 -0.156
83.52000 1.137
83.54000 0.983
83.56000 -0.687
83.58000 3.852
83.60000 0.617
83.62000 2.701
83.64000 0.525
83.66000 0.572
83.68000 -0.620
83.70000 0.613
83.72000 4.767
83.74000 5.401
83.76000 3.509
83.78000 0.163
83.80000 2.210
83.82000 1.990
83.84000 -2.370
83.86000 -0.348
83.88000 4.981
83.90000 6.535
83.92000 5.863
83.94000 5.883
83.96000 0.777
83.98000 1.019
84.00000 2.131
84.02000 -2.356
84.04000 -1.289
84.06000 0.292
84.08000 1.782
84.10000 1.876
84.12000 4.624
84.14000 4.388
84.16000 5.186
84.18000 5.957
84.20000 5.867
84.22000 6.763
84.24000 2.089
84.26000 1.467
84.28000 3.666
84.30000 4.129
84.32000 0.127
84.34000 0.406
84.36000 1.455
84.38000 -1.951
84.40000 3.458
84.42000 4.219
84.44000 0.278
84.46000 0.842
84.48000 1.588
84.50000 4.004
84.52000 6.158
84.54000 0.542
84.56000 5.244
84.58000 1.740
84.60000 -0.450
84.62000 0.168
84.64000 -0.970
84.66000 -0.929
84.68000 -2.399
84.70000 0.512
84.72000 1.154
84.74000 0.083
84.76000 0.814
84.78000 1.512
84.80000 3.881
84.82000 -0.075
84.84000 3.877
84.86000 3.150
84.88000 2.667
84.90000 2.398
84.92000 -0.282
84.94000 0.989
84.96000 2.231
84.98000 2.542
85.00000 5.895
85.02000 3.264
85.04000 1.052
85.06000 3.519
85.08000 3.841
85.10000 7.506
85.12000 7.200
85.14000 6.533
85.16000 3.617
85.18000 6.629
85.20000 10.472
85.22000 10.050
85.24000 11.716
85.26000 8.259
85.28000 11.971
85.30000 12.701
85.32000 7.871
85.34000 8.246
85.36000 12.878
85.38000 13.682
85.40000 11.126
85.42000 11.573
85.44000 13.556
85.46000 17.112
85.48000 15.738
85.50000 17.696
85.52000 17.103
85.54000 21.526
85.56000 20.414
85.58000 18.261
85.60000 20.082
85.62000 16.622
85.64000 18.576
85.66000 21.608
85.68000 23.225
85.70000 26.803
85.72000 26.367
85.74000 23.413
85.76000 20.604
85.78000 19.872
85.80000 21.038
85.82000 25.847
85.84000 27.793
85.86000 22.494
85.88000 26.835
85.90000 28.290
85.92000 22.090
85.94000 19.386
85.96000 22.227
85.98000 25.211
86.00000 30.847
86.02000 24.767
86.04000 28.230
86.06000 29.576
86.08000 28.641
86.10000 27.292
86.12000 28.886
86.14000 25.682
86.16000 27.069
86.18000 26.098
86.20000 29.875
86.22000 31.152
86.24000 28.613
86.26000 26.826
86.28000 26.191
86.30000 25.505
86.32000 22.663
86.34000 22.381
86.36000 21.713
86.38000 26.679
86.40000 29.966
86.42000 28.062
86.44000 24.382
86.46000 18.428
86.48000 14.553
86.50000 18.278
86.52000 18.449
86.54000 18.414
86.56000 18.444
86.58000 15.067
86.60000 15.124
86.62000 19.093
86.64000 20.229
86.66000 15.445
86.68000 12.185
86.70000 11.111
86.72000 11.655
86.74000 12.182
86.76000 10.482
86.78000 9.730
86.80000 9.424
86.82000 10.366
86.84000 10.207
86.86000 8.479
86.88000 11.796
86.90000 9.552
86.92000 6.678
86.94000 9.139
86.96000 11.290
86.98000 9.010
87.00000 5.678
87.02000 5.647
87.04000 7.603
87.06000 5.914
87.08000 1.709
87.10000 -0.751
87.12000 0.064
87.14000 3.928
87.16000 3.208
87.18000 4.683
87.20000 4.197
87.22000 2.600
87.24000 3.004
87.26000 5.189
87.28000 2.785
87.30000 2.819
87.32000 8.100
87.34000 4.049
87.36000 3.663
87.38000 0.706
87.40000 -0.741
87.42000 1.652
87.44000 2.511
87.46000 -0.839
87.48000 -0.346
87.50000 -0.891
87.52000 2.124
87.54000 1.176
87.56000 -2.232
87.58000 -1.934
87.60000 0.776
87.62000 3.236
87.64000 0.861
87.66000 -1.893
87.68000 2.132
87.70000 1.333
87.72000 2.474
87.74000 0.475
87.76000 2.600
87.78000 3.141
87.80000 -0.424
87.82000 3.725
87.84000 3.449
87.86000 6.406
87.88000 4.620
87.90000 2.088
87.92000 4.470
87.94000 4.185
87.96000 4.554
87.98000 2.073
88.00000 1.286
88.02000 6.006
88.04000 2.848
88.06000 4.234
88.08000 5.223
88.10000 6.578
88.12000 -2.130
88.14000 -0.483
88.16000 1.569
88.18000 4.487
88.20000 7.223
88.22000 1.692
88.24000 -0.095
88.26000 3.545
88.28000 0.416
88.30000 -0.181
88.32000 0.490
88.34000 1.822
88.36000 -1.488
88.38000 0.507
88.40000 -0.468
88.42000 -1.888
88.44000 -2.129
88.46000 -1.337
88.48000 0.819
88.50000 -1.828
88.52000 -1.517
88.54000 0.791
88.56000 0.149
88.58000 2.516
88.60000 3.574
88.62000 3.106
88.64000 0.555
88.66000 1.085
88.68000 0.401
88.70000 5.339
88.72000 3.195
88.74000 2.183
88.76000 4.242
88.78000 1.843
88.80000 0.291
88.82000 0.271
88.84000 -1.287
88.86000 -1.908
88.88000 -0.842
88.90000 -0.591
88.92000 2.708
88.94000 6.214
88.96000 3.668
88.98000 2.605
89.00000 -0.117
89.02000 -0.289
89.04000 1.648
89.06000 0.413
89.08000 2.137
89.10000 1.295
89.12000 1.871
89.14000 0.554
89.16000 1.514
89.18000 4.585
89.20000 0.914
89.22000 -1.421
89.24000 -0.466
89.26000 -2.097
89.28000 -0.540
89.30000 -1.137
89.32000 1.804
89.34000 -1.233
89.36000 1.127
89.38000 -1.017
89.40000 2.286
89.42000 2.524
89.44000 0.776
89.46000 0.722
89.48000 1.425
89.50000 0.009
89.52000 -1.618
89.54000 -1.022
89.56000 -0.465
89.58000 0.104
89.60000 2.619
89.62000 3.789
89.64000 2.952
89.66000 1.129
89.68000 3.877
89.70000 2.863
89.72000 0.300
89.74000 0.126
89.76000 1.013
89.78000 -1.289
89.80000 2.830
89.82000 4.631
89.84000 7.294
89.86000 5.329
89.88000 0.177
89.90000 2.499
89.92000 -0.058
89.94000 -0.012
89.96000 2.218
89.98000 0.129
90.00000 -1.183
90.02000 -0.452
90.04000 -1.024
90.06000 0.391
90.08000 2.487
90.10000 6.323
90.12000 4.384
90.14000 -0.393
90.16000 1.505
90.18000 -1.139
90.20000 -2.074
90.22000 -0.313
90.24000 1.701
90.26000 4.792
90.28000 3.670
90.30000 1.548
90.32000 4.214
90.34000 0.943
90.36000 -1.467
90.38000 0.197
90.40000 1.127
90.42000 1.510
90.44000 2.443
90.46000 3.066
90.48000 4.806
90.50000 3.234
90.52000 0.705
90.54000 5.770
90.56000 7.245
90.58000 5.758
90.60000 3.199
90.62000 3.264
90.64000 5.523
90.66000 4.784
90.68000 4.883
90.70000 5.418
90.72000 5.552
90.74000 2.909
90.76000 1.784
90.78000 -1.154
90.80000 2.129
90.82000 3.484
90.84000 3.717
90.86000 3.252
90.88000 5.395
90.90000 6.204
90.92000 7.702
90.94000 6.295
90.96000 4.163
90.98000 3.962
91.00000 6.768
91.02000 6.946
91.04000 3.295
91.06000 -2.043
91.08000 0.484
91.10000 0.801
91.12000 4.842
91.14000 3.996
91.16000 1.134
91.18000 1.794
91.20000 7.439
91.22000 9.417
91.24000 3.040
91.26000 3.291
91.28000 3.908
91.30000 6.513
91.32000 5.588
91.34000 5.757
91.36000 5.119
91.38000 3.142
91.40000 2.030
91.42000 1.598
91.44000 4.029
91.46000 1.860
91.48000 -0.050
91.50000 3.047
91.52000 0.825
91.54000 0.841
91.56000 4.431
91.58000 4.909
91.60000 5.429
91.62000 3.462
91.64000 2.962
91.66000 2.857
91.68000 1.480
91.70000 1.007
91.72000 5.517
91.74000 3.042
91.76000 -1.421
91.78000 3.712
91.80000 5.096
91.82000 2.997
91.84000 2.030
91.86000 -0.339
91.88000 3.525
91.90000 -0.914
91.92000 -1.101
91.94000 -0.182
91.96000 2.616
91.98000 4.007
92.00000 1.759
92.02000 1.980
92.04000 2.521
92.06000 0.460
92.08000 2.802
92.10000 4.280
92.12000 2.163
92.14000 1.202
92.16000 1.833
92.18000 3.448
92.20000 2.188
92.22000 3.233
92.24000 3.645
92.26000 3.924
92.28000 4.572
92.30000 1.974
92.32000 1.272
92.34000 3.498
92.36000 3.612
92.38000 2.598
92.40000 0.853
92.42000 3.883
92.44000 4.407
92.46000 0.884
92.48000 0.523
92.50000 8.365
92.52000 4.034
92.54000 2.281
92.56000 -0.496
92.58000 1.399
92.60000 -0.179
92.62000 -1.001
92.64000 -2.015
92.66000 -0.265
92.68000 4.416
92.70000 2.963
92.72000 0.108
92.74000 0.308
92.76000 2.367
92.78000 3.010
92.80000 2.995
92.82000 7.709
92.84000 5.945
92.86000 4.824
92.88000 2.810
92.90000 4.688
92.92000 1.683
92.94000 1.112
92.96000 1.815
92.98000 4.546
93.00000 0.122
93.02000 3.543
93.04000 5.844
93.06000 5.932
93.08000 -0.029
93.10000 -2.041
93.12000 3.267
93.14000 1.661
93.16000 4.214
93.18000 5.100
93.20000 2.032
93.22000 5.860
93.24000 4.256
93.26000 3.693
93.28000 3.297
93.30000 3.377
93.32000 3.447
93.34000 2.909
93.36000 0.649
93.38000 3.343
93.40000 0.776
93.42000 0.482
93.44000 0.360
93.46000 3.726
93.48000 6.449
93.50000 0.662
93.52000 2.938
93.54000 6.066
93.56000 7.336
93.58000 5.778
93.60000 4.567
93.62000 2.337
93.64000 4.083
93.66000 3.143
93.68000 5.315
93.70000 7.417
93.72000 2.510
93.74000 -1.255
93.76000 1.684
93.78000 3.499
93.80000 0.587
93.82000 2.838
93.84000 4.017
93.86000 4.948
93.88000 0.141
93.90000 2.339
93.92000 0.998
93.94000 1.275
93.96000 4.669
93.98000 3.056
94.00000 0.114
94.02000 -0.273
94.04000 4.174
94.06000 1.664
94.08000 -2.105
94.10000 1.872
94.12000 7.223
94.14000 3.930
94.16000 2.643
94.18000 -0.386
94.20000 2.648
94.22000 3.553
94.24000 0.203
94.26000 1.621
94.28000 -1.147
94.30000 1.214
94.32000 4.125
94.34000 5.934
94.36000 2.882
94.38000 1.372
94.40000 5.321
94.42000 5.997
94.44000 0.866
94.46000 2.062
94.48000 0.582
94.50000 0.901
94.52000 3.071
94.54000 2.176
94.56000 1.785
94.58000 0.476
94.60000 1.059
94.62000 0.023
94.64000 4.338
94.66000 4.265
94.68000 4.050
94.70000 -2.101
94.72000 1.551
94.74000 3.768
94.76000 5.030
94.78000 0.766
94.80000 3.470
94.82000 5.452
94.84000 5.854
94.86000 0.845
94.88000 3.168
94.90000 6.580
94.92000 3.109
94.94000 -0.713
94.96000 4.342
94.98000 6.843
95.00000 5.426
95.02000 7.429
95.04000 3.774
95.06000 3.930
95.08000 1.088
95.10000 -0.829
95.12000 6.631
95.14000 6.366
95.16000 5.890
95.18000 9.946
95.20000 5.795
95.22000 3.823
95.24000 0.762
95.26000 4.428
95.28000 8.694
95.30000 8.043
95.32000 5.344
95.34000 5.502
95.36000 3.834
95.38000 1.390
95.40000 2.595
95.42000 3.168
95.44000 4.161
95.46000 2.612
95.48000 3.487
95.50000 5.842
95.52000 10.332
95.54000 9.740
95.56000 6.480
95.58000 6.137
95.60000 6.840
95.62000 5.170
95.64000 1.747
95.66000 3.693
95.68000 3.852
95.70000 -2.061
95.72000 1.954
95.74000 2.349
95.76000 5.265
95.78000 7.506
95.80000 6.334
95.82000 3.492
95.84000 4.557
95.86000 8.402
95.88000 5.394
95.90000 9.177
95.92000 7.028
95.94000 6.667
95.96000 6.979
95.98000 5.280
96.00000 4.163
96.02000 1.845
96.04000 9.623
96.06000 2.763
96.08000 1.156
96.10000 -0.349
96.12000 2.354
96.14000 2.590
96.16000 0.769
96.18000 6.200
96.20000 6.837
96.22000 1.624
96.24000 0.921
96.26000 0.670
96.28000 -0.354
96.30000 0.417
96.32000 3.073
96.34000 1.001
96.36000 6.119
96.38000 4.050
96.40000 6.582
96.42000 5.179
96.44000 0.086
96.46000 1.910
96.48000 8.382
96.50000 7.178
96.52000 5.133
96.54000 7.217
96.56000 5.733
96.58000 5.741
96.60000 4.953
96.62000 4.023
96.64000 4.007
96.66000 5.247
96.68000 7.538
96.70000 6.361
96.72000 0.521
96.74000 7.100
96.76000 7.534
96.78000 5.559
96.80000 3.884
96.82000 3.776
96.84000 3.760
96.86000 4.982
96.88000 6.063
96.90000 2.954
96.92000 1.545
96.94000 3.598
96.96000 3.287
96.98000 4.794
97.00000 2.286
97.02000 3.075
97.04000 4.633
97.06000 2.685
97.08000 3.737
97.10000 2.017
97.12000 0.542
97.14000 2.976
97.16000 4.554
97.18000 3.664
97.20000 6.757
97.22000 6.027
97.24000 6.456
97.26000 5.511
97.28000 3.463
97.30000 3.201
97.32000 4.052
97.34000 6.346
97.36000 7.949
97.38000 10.425
97.40000 4.167
97.42000 7.655
97.44000 5.791
97.46000 3.899
97.48000 3.876
97.50000 5.881
97.52000 9.541
97.54000 4.335
97.56000 -2.007
97.58000 3.978
97.60000 8.592
97.62000 6.256
97.64000 4.789
97.66000 6.089
97.68000 9.514
97.70000 12.016
97.72000 10.194
97.74000 6.135
97.76000 0.933
97.78000 1.318
97.80000 -1.348
97.82000 -0.426
97.84000 2.987
97.86000 8.173
97.88000 9.018
97.90000 8.273
97.92000 6.891
97.94000 2.649
97.96000 -1.510
97.98000 -1.908
98.00000 3.004
98.02000 0.977
98.04000 -0.131
98.06000 6.072
98.08000 5.917
98.10000 6.954
98.12000 0.301
98.14000 -0.845
98.16000 7.106
98.18000 10.061
98.20000 8.032
98.22000 4.289
98.24000 0.506
98.26000 2.028
98.28000 2.687
98.30000 7.572
98.32000 3.001
98.34000 6.070
98.36000 8.902
98.38000 1.581
98.40000 -1.842
98.42000 -0.841
98.44000 6.970
98.46000 0.359
98.48000 7.532
98.50000 2.645
98.52000 2.911
98.54000 3.342
98.56000 -0.860
98.58000 -0.542
98.60000 -2.036
98.62000 4.126
98.64000 4.508
98.66000 3.531
98.68000 9.565
98.70000 6.171
98.72000 5.981
98.74000 3.293
98.76000 0.412
98.78000 2.738
98.80000 2.275
98.82000 2.613
98.84000 9.732
98.86000 7.510
98.88000 9.539
98.90000 1.932
98.92000 5.268
98.94000 8.652
98.96000 4.490
98.98000 7.662
99.00000 7.625
99.02000 5.512
99.04000 2.345
99.06000 5.331
99.08000 10.345
99.10000 8.288
99.12000 11.508
99.14000 7.700
99.16000 0.315
99.18000 6.508
99.20000 4.639
99.22000 6.244
99.24000 6.185
99.26000 9.142
99.28000 15.868
99.30000 8.490
99.32000 8.855
99.34000 8.410
99.36000 4.336
99.38000 3.691
99.40000 6.604
99.42000 5.342
99.44000 3.066
99.46000 6.001
99.48000 -1.604
99.50000 4.430
99.52000 7.502
99.54000 0.100
99.56000 -2.017
99.58000 4.793
99.60000 8.767
99.62000 10.375
99.64000 1.780
99.66000 3.810
99.68000 0.429
99.70000 2.024
99.72000 0.459
99.74000 5.347
99.76000 9.181
99.78000 10.716
99.80000 6.778
99.82000 3.350
99.84000 4.059
99.86000 -2.054
99.88000 3.763
99.90000 7.343
99.92000 5.547
99.94000 11.624
99.96000 7.011
99.98000 0.000
