'Id: "0011388" Comment: "Integrate frame 0011388_Au-Ir-Rh_Rh-rich_XRD-Mapping-302-0000.gfrmwith cursor Wedge Cursor #5" Operator: "B?rgel" Anode: "Cu" Wavelength: "1.5406" Scantype: "2Theta (TwoTheta)" TimePerStep: "1" X: "-4.5" Y: "31.5" Z: "5.95" 
10.00000 0.000
10.02000 3.813
10.04000 3.167
10.06000 7.225
10.08000 13.315
10.10000 25.373
10.12000 18.609
10.14000 8.372
10.16000 14.264
10.18000 2.918
10.20000 11.692
10.22000 26.493
10.24000 14.183
10.26000 -4.905
10.28000 6.764
10.30000 8.664
10.32000 6.723
10.34000 29.367
10.36000 30.606
10.38000 2.825
10.40000 2.727
10.42000 27.043
10.44000 21.042
10.46000 13.258
10.48000 11.456
10.50000 12.711
10.52000 15.382
10.54000 16.264
10.56000 13.282
10.58000 42.113
10.60000 26.407
10.62000 17.777
10.64000 13.906
10.66000 4.656
10.68000 6.396
10.70000 29.451
10.72000 17.973
10.74000 19.004
10.76000 20.152
10.78000 25.035
10.80000 25.085
10.82000 5.543
10.84000 8.301
10.86000 22.285
10.88000 21.366
10.90000 4.273
10.92000 7.541
10.94000 26.728
10.96000 21.549
10.98000 15.756
11.00000 7.029
11.02000 2.582
11.04000 -4.316
11.06000 3.906
11.08000 19.608
11.10000 21.971
11.12000 19.220
11.14000 20.713
11.16000 14.610
11.18000 15.762
11.20000 25.701
11.22000 36.306
11.24000 26.401
11.26000 24.110
11.28000 6.790
11.30000 5.981
11.32000 15.160
11.34000 6.780
11.36000 16.932
11.38000 22.075
11.40000 21.283
11.42000 17.246
11.44000 19.633
11.46000 4.202
11.48000 8.650
11.50000 24.546
11.52000 33.821
11.54000 24.789
11.56000 21.292
11.58000 18.754
11.60000 14.311
11.62000 21.373
11.64000 11.425
11.66000 4.973
11.68000 16.851
11.70000 10.967
11.72000 18.499
11.74000 11.679
11.76000 15.391
11.78000 13.806
11.80000 19.237
11.82000 21.080
11.84000 8.644
11.86000 18.168
11.88000 21.373
11.90000 25.308
11.92000 25.289
11.94000 18.911
11.96000 24.164
11.98000 14.817
12.00000 17.274
12.02000 15.442
12.04000 15.420
12.06000 19.687
12.08000 13.768
12.10000 4.625
12.12000 5.483
12.14000 16.196
12.16000 14.869
12.18000 17.449
12.20000 16.434
12.22000 23.588
12.24000 19.295
12.26000 15.873
12.28000 15.623
12.30000 13.037
12.32000 15.881
12.34000 13.645
12.36000 4.998
12.38000 19.167
12.40000 19.260
12.42000 13.425
12.44000 8.869
12.46000 9.421
12.48000 1.053
12.50000 12.908
12.52000 4.579
12.54000 15.533
12.56000 25.557
12.58000 26.954
12.60000 15.154
12.62000 12.698
12.64000 19.069
12.66000 14.059
12.68000 12.402
12.70000 15.063
12.72000 11.920
12.74000 14.000
12.76000 17.061
12.78000 17.958
12.80000 13.707
12.82000 14.420
12.84000 13.057
12.86000 12.675
12.88000 12.890
12.90000 12.273
12.92000 19.155
12.94000 14.714
12.96000 8.193
12.98000 8.177
13.00000 11.731
13.02000 11.898
13.04000 14.460
13.06000 7.410
13.08000 2.746
13.10000 13.586
13.12000 15.488
13.14000 15.495
13.16000 11.255
13.18000 11.325
13.20000 8.848
13.22000 10.276
13.24000 8.745
13.26000 11.573
13.28000 16.719
13.30000 8.372
13.32000 3.030
13.34000 12.907
13.36000 10.868
13.38000 6.293
13.40000 2.201
13.42000 20.417
13.44000 16.478
13.46000 17.157
13.48000 6.988
13.50000 -0.366
13.52000 15.767
13.54000 19.689
13.56000 15.016
13.58000 13.565
13.60000 5.658
13.62000 0.861
13.64000 1.052
13.66000 5.206
13.68000 12.309
13.70000 15.192
13.72000 16.168
13.74000 11.870
13.76000 10.866
13.78000 12.247
13.80000 15.150
13.82000 0.422
13.84000 -0.978
13.86000 -0.330
13.88000 5.852
13.90000 14.392
13.92000 10.814
13.94000 14.508
13.96000 12.893
13.98000 6.757
14.00000 6.062
14.02000 6.133
14.04000 13.998
14.06000 13.402
14.08000 8.876
14.10000 6.964
14.12000 14.379
14.14000 13.949
14.16000 -0.422
14.18000 -2.485
14.20000 -0.293
14.22000 2.191
14.24000 9.172
14.26000 21.646
14.28000 17.511
14.30000 10.578
14.32000 9.197
14.34000 5.214
14.36000 -2.980
14.38000 -3.989
14.40000 5.034
14.42000 5.707
14.44000 1.037
14.46000 7.528
14.48000 6.674
14.50000 4.281
14.52000 6.237
14.54000 2.526
14.56000 2.175
14.58000 10.969
14.60000 9.253
14.62000 -1.551
14.64000 -0.746
14.66000 3.922
14.68000 10.676
14.70000 0.975
14.72000 -4.515
14.74000 11.082
14.76000 3.022
14.78000 5.252
14.80000 7.487
14.82000 10.634
14.84000 1.508
14.86000 8.090
14.88000 17.751
14.90000 2.870
14.92000 -3.463
14.94000 -2.732
14.96000 1.633
14.98000 5.454
15.00000 3.857
15.02000 11.209
15.04000 15.524
15.06000 9.937
15.08000 10.241
15.10000 6.397
15.12000 3.901
15.14000 2.362
15.16000 -4.502
15.18000 -1.507
15.20000 9.245
15.22000 5.208
15.24000 4.347
15.26000 9.688
15.28000 11.781
15.30000 4.504
15.32000 7.078
15.34000 1.386
15.36000 2.969
15.38000 -0.720
15.40000 9.470
15.42000 12.758
15.44000 3.748
15.46000 3.867
15.48000 8.725
15.50000 8.144
15.52000 16.919
15.54000 11.052
15.56000 9.351
15.58000 3.895
15.60000 5.234
15.62000 1.223
15.64000 3.592
15.66000 9.088
15.68000 11.302
15.70000 4.553
15.72000 0.033
15.74000 8.313
15.76000 9.727
15.78000 0.678
15.80000 9.261
15.82000 6.750
15.84000 12.936
15.86000 11.383
15.88000 3.567
15.90000 7.245
15.92000 10.031
15.94000 15.844
15.96000 11.166
15.98000 4.815
16.00000 -1.001
16.02000 -2.136
16.04000 0.699
16.06000 -0.004
16.08000 -4.462
16.10000 0.739
16.12000 13.215
16.14000 9.635
16.16000 7.537
16.18000 4.220
16.20000 4.901
16.22000 9.559
16.24000 10.005
16.26000 10.908
16.28000 7.138
16.30000 4.121
16.32000 0.178
16.34000 8.877
16.36000 7.175
16.38000 3.941
16.40000 6.543
16.42000 2.433
16.44000 3.984
16.46000 5.903
16.48000 1.814
16.50000 10.629
16.52000 7.352
16.54000 8.687
16.56000 2.083
16.58000 6.045
16.60000 2.117
16.62000 -0.193
16.64000 5.077
16.66000 8.863
16.68000 3.839
16.70000 5.255
16.72000 8.335
16.74000 7.615
16.76000 4.669
16.78000 7.288
16.80000 3.275
16.82000 4.320
16.84000 5.530
16.86000 2.030
16.88000 0.549
16.90000 0.900
16.92000 -3.544
16.94000 3.104
16.96000 7.977
16.98000 0.837
17.00000 6.754
17.02000 9.673
17.04000 1.976
17.06000 5.168
17.08000 7.356
17.10000 6.088
17.12000 4.483
17.14000 2.939
17.16000 5.458
17.18000 7.862
17.20000 7.361
17.22000 4.882
17.24000 6.269
17.26000 1.209
17.28000 -1.865
17.30000 4.450
17.32000 14.272
17.34000 9.406
17.36000 4.215
17.38000 7.583
17.40000 10.148
17.42000 6.724
17.44000 3.094
17.46000 0.461
17.48000 5.048
17.50000 5.821
17.52000 3.932
17.54000 0.994
17.56000 -1.574
17.58000 -2.998
17.60000 -1.704
17.62000 0.996
17.64000 4.572
17.66000 0.766
17.68000 -1.873
17.70000 -3.540
17.72000 3.599
17.74000 1.021
17.76000 -4.278
17.78000 -4.405
17.80000 5.189
17.82000 10.272
17.84000 7.612
17.86000 8.549
17.88000 3.906
17.90000 2.797
17.92000 -4.397
17.94000 -3.810
17.96000 -1.388
17.98000 -2.771
18.00000 0.177
18.02000 1.430
18.04000 3.747
18.06000 0.951
18.08000 -3.160
18.10000 4.433
18.12000 8.112
18.14000 0.262
18.16000 2.566
18.18000 8.734
18.20000 5.348
18.22000 4.168
18.24000 4.155
18.26000 1.745
18.28000 4.058
18.30000 6.594
18.32000 1.448
18.34000 -1.939
18.36000 -0.657
18.38000 2.820
18.40000 4.285
18.42000 -0.934
18.44000 -1.281
18.46000 0.798
18.48000 3.736
18.50000 4.100
18.52000 -4.356
18.54000 0.094
18.56000 2.162
18.58000 -0.941
18.60000 4.569
18.62000 3.847
18.64000 6.699
18.66000 5.128
18.68000 2.145
18.70000 5.955
18.72000 7.674
18.74000 9.110
18.76000 5.501
18.78000 1.441
18.80000 1.294
18.82000 5.757
18.84000 0.553
18.86000 -0.324
18.88000 7.411
18.90000 4.513
18.92000 2.945
18.94000 4.257
18.96000 6.896
18.98000 -1.149
19.00000 -4.314
19.02000 -0.478
19.04000 0.545
19.06000 6.745
19.08000 2.864
19.10000 7.064
19.12000 1.274
19.14000 -3.335
19.16000 1.962
19.18000 5.923
19.20000 4.200
19.22000 8.382
19.24000 7.317
19.26000 -4.302
19.28000 0.496
19.30000 -0.826
19.32000 1.657
19.34000 11.458
19.36000 7.356
19.38000 5.773
19.40000 3.411
19.42000 4.909
19.44000 1.764
19.46000 3.935
19.48000 -0.663
19.50000 4.302
19.52000 3.748
19.54000 0.049
19.56000 6.593
19.58000 6.907
19.60000 2.721
19.62000 4.398
19.64000 3.834
19.66000 5.715
19.68000 3.479
19.70000 6.610
19.72000 9.995
19.74000 6.002
19.76000 -1.554
19.78000 -0.909
19.80000 5.866
19.82000 1.705
19.84000 2.942
19.86000 6.633
19.88000 10.860
19.90000 3.295
19.92000 3.327
19.94000 11.363
19.96000 9.970
19.98000 0.396
20.00000 1.766
20.02000 3.976
20.04000 3.293
20.06000 -1.198
20.08000 -3.908
20.10000 4.134
20.12000 2.418
20.14000 -4.252
20.16000 4.538
20.18000 4.413
20.20000 9.989
20.22000 11.664
20.24000 3.648
20.26000 2.131
20.28000 8.446
20.30000 9.815
20.32000 12.077
20.34000 3.912
20.36000 5.512
20.38000 3.510
20.40000 -3.126
20.42000 -1.486
20.44000 4.068
20.46000 7.338
20.48000 7.362
20.50000 -0.086
20.52000 4.616
20.54000 -3.725
20.56000 0.815
20.58000 4.349
20.60000 7.054
20.62000 6.473
20.64000 9.757
20.66000 9.048
20.68000 6.770
20.70000 6.670
20.72000 -1.127
20.74000 6.289
20.76000 5.741
20.78000 2.425
20.80000 5.875
20.82000 4.237
20.84000 -0.783
20.86000 7.284
20.88000 8.250
20.90000 7.605
20.92000 2.829
20.94000 6.451
20.96000 9.861
20.98000 11.082
21.00000 3.629
21.02000 0.826
21.04000 2.874
21.06000 13.180
21.08000 12.085
21.10000 8.385
21.12000 5.416
21.14000 0.696
21.16000 1.734
21.18000 6.957
21.20000 4.662
21.22000 3.302
21.24000 3.685
21.26000 4.184
21.28000 5.410
21.30000 6.184
21.32000 1.819
21.34000 -4.168
21.36000 2.120
21.38000 5.143
21.40000 11.343
21.42000 11.028
21.44000 9.748
21.46000 9.769
21.48000 5.899
21.50000 6.015
21.52000 11.080
21.54000 5.247
21.56000 3.243
21.58000 5.178
21.60000 4.704
21.62000 2.227
21.64000 2.092
21.66000 4.992
21.68000 14.795
21.70000 10.212
21.72000 6.500
21.74000 3.404
21.76000 4.816
21.78000 2.194
21.80000 0.430
21.82000 2.737
21.84000 2.841
21.86000 3.326
21.88000 3.080
21.90000 11.133
21.92000 12.253
21.94000 5.844
21.96000 4.620
21.98000 6.458
22.00000 5.403
22.02000 9.357
22.04000 6.557
22.06000 5.064
22.08000 7.789
22.10000 9.115
22.12000 3.103
22.14000 2.512
22.16000 5.751
22.18000 -0.924
22.20000 -4.132
22.22000 2.441
22.24000 6.724
22.26000 6.232
22.28000 3.877
22.30000 1.888
22.32000 0.171
22.34000 -2.557
22.36000 -1.245
22.38000 -0.314
22.40000 1.423
22.42000 3.756
22.44000 -2.199
22.46000 -2.549
22.48000 -1.070
22.50000 8.683
22.52000 12.941
22.54000 2.981
22.56000 6.492
22.58000 9.701
22.60000 2.432
22.62000 4.440
22.64000 2.956
22.66000 1.079
22.68000 -1.677
22.70000 4.392
22.72000 2.323
22.74000 2.353
22.76000 3.080
22.78000 -1.800
22.80000 9.556
22.82000 3.820
22.84000 7.724
22.86000 6.142
22.88000 5.857
22.90000 6.309
22.92000 6.278
22.94000 3.253
22.96000 2.069
22.98000 -2.296
23.00000 -0.263
23.02000 -1.344
23.04000 2.505
23.06000 -2.230
23.08000 2.721
23.10000 3.274
23.12000 -2.612
23.14000 6.367
23.16000 2.806
23.18000 2.086
23.20000 1.548
23.22000 -4.074
23.24000 0.332
23.26000 0.591
23.28000 -3.613
23.30000 4.757
23.32000 10.372
23.34000 4.464
23.36000 2.800
23.38000 7.394
23.40000 6.695
23.42000 -3.794
23.44000 2.312
23.46000 6.498
23.48000 5.478
23.50000 4.026
23.52000 5.744
23.54000 6.929
23.56000 5.278
23.58000 2.302
23.60000 8.278
23.62000 8.676
23.64000 -0.598
23.66000 -1.833
23.68000 4.227
23.70000 6.642
23.72000 5.739
23.74000 3.646
23.76000 4.425
23.78000 2.447
23.80000 5.514
23.82000 7.816
23.84000 1.296
23.86000 -4.052
23.88000 -2.116
23.90000 1.112
23.92000 4.347
23.94000 1.139
23.96000 2.826
23.98000 -0.585
24.00000 -0.193
24.02000 0.891
24.04000 6.814
24.06000 7.638
24.08000 8.542
24.10000 10.839
24.12000 6.497
24.14000 -0.001
24.16000 0.262
24.18000 2.220
24.20000 4.031
24.22000 1.763
24.24000 -2.081
24.26000 -3.159
24.28000 3.105
24.30000 4.615
24.32000 1.425
24.34000 2.003
24.36000 4.670
24.38000 -1.829
24.40000 -2.313
24.42000 0.631
24.44000 4.254
24.46000 2.955
24.48000 0.352
24.50000 3.089
24.52000 7.120
24.54000 12.445
24.56000 8.708
24.58000 0.778
24.60000 5.026
24.62000 5.058
24.64000 6.529
24.66000 1.707
24.68000 1.506
24.70000 1.687
24.72000 3.035
24.74000 2.301
24.76000 7.927
24.78000 5.336
24.80000 -0.230
24.82000 0.989
24.84000 -0.024
24.86000 2.521
24.88000 1.141
24.90000 1.167
24.92000 1.758
24.94000 3.239
24.96000 6.750
24.98000 2.574
25.00000 2.441
25.02000 6.557
25.04000 0.615
25.06000 1.029
25.08000 -1.646
25.10000 -2.260
25.12000 -2.822
25.14000 0.330
25.16000 -1.058
25.18000 2.080
25.20000 7.147
25.22000 4.268
25.24000 0.268
25.26000 -2.060
25.28000 -0.259
25.30000 2.760
25.32000 3.388
25.34000 4.116
25.36000 -0.183
25.38000 -3.212
25.40000 4.897
25.42000 -0.019
25.44000 1.563
25.46000 4.243
25.48000 5.401
25.50000 4.069
25.52000 -2.327
25.54000 -3.954
25.56000 3.916
25.58000 -1.960
25.60000 0.676
25.62000 6.828
25.64000 8.203
25.66000 8.768
25.68000 6.343
25.70000 3.961
25.72000 2.953
25.74000 1.727
25.76000 0.982
25.78000 0.410
25.80000 5.109
25.82000 3.650
25.84000 -2.582
25.86000 1.852
25.88000 2.401
25.90000 1.068
25.92000 3.702
25.94000 4.950
25.96000 2.845
25.98000 3.798
26.00000 -1.586
26.02000 -1.011
26.04000 0.814
26.06000 4.534
26.08000 4.776
26.10000 3.616
26.12000 -0.670
26.14000 1.596
26.16000 -1.360
26.18000 1.768
26.20000 4.531
26.22000 3.544
26.24000 4.680
26.26000 2.988
26.28000 3.924
26.30000 3.108
26.32000 5.684
26.34000 8.870
26.36000 0.094
26.38000 -3.546
26.40000 -3.908
26.42000 2.202
26.44000 8.196
26.46000 4.006
26.48000 6.628
26.50000 4.078
26.52000 5.371
26.54000 -2.352
26.56000 1.197
26.58000 2.216
26.60000 1.894
26.62000 1.027
26.64000 -3.900
26.66000 1.088
26.68000 2.090
26.70000 1.453
26.72000 3.552
26.74000 3.533
26.76000 3.286
26.78000 0.914
26.80000 3.600
26.82000 1.294
26.84000 3.484
26.86000 6.877
26.88000 7.822
26.90000 0.705
26.92000 4.193
26.94000 7.135
26.96000 0.106
26.98000 1.618
27.00000 5.558
27.02000 3.223
27.04000 2.913
27.06000 2.712
27.08000 1.602
27.10000 0.874
27.12000 -0.301
27.14000 1.265
27.16000 0.161
27.18000 -3.885
27.20000 4.283
27.22000 5.475
27.24000 2.966
27.26000 -3.799
27.28000 -0.198
27.30000 -0.972
27.32000 -1.397
27.34000 0.573
27.36000 0.909
27.38000 -0.286
27.40000 4.526
27.42000 3.341
27.44000 2.515
27.46000 -0.894
27.48000 -0.683
27.50000 6.652
27.52000 2.456
27.54000 -1.217
27.56000 2.676
27.58000 -0.166
27.60000 -1.036
27.62000 -1.082
27.64000 -0.266
27.66000 -1.569
27.68000 -2.112
27.70000 -1.684
27.72000 -2.318
27.74000 0.453
27.76000 0.486
27.78000 4.270
27.80000 2.755
27.82000 5.833
27.84000 -0.605
27.86000 -0.170
27.88000 0.435
27.90000 0.055
27.92000 2.990
27.94000 1.765
27.96000 3.614
27.98000 0.844
28.00000 0.036
28.02000 7.628
28.04000 4.359
28.06000 0.765
28.08000 5.170
28.10000 4.175
28.12000 4.691
28.14000 5.753
28.16000 7.118
28.18000 6.042
28.20000 4.396
28.22000 5.683
28.24000 1.641
28.26000 1.049
28.28000 1.095
28.30000 0.813
28.32000 -1.459
28.34000 -0.804
28.36000 -0.165
28.38000 3.231
28.40000 -0.497
28.42000 4.307
28.44000 5.125
28.46000 1.782
28.48000 -3.803
28.50000 -3.259
28.52000 3.309
28.54000 5.705
28.56000 0.900
28.58000 -0.670
28.60000 0.851
28.62000 0.941
28.64000 1.687
28.66000 -0.871
28.68000 0.944
28.70000 -0.999
28.72000 -1.228
28.74000 3.655
28.76000 6.408
28.78000 10.120
28.80000 6.391
28.82000 6.366
28.84000 2.886
28.86000 4.394
28.88000 5.074
28.90000 3.650
28.92000 3.683
28.94000 5.519
28.96000 6.033
28.98000 1.854
29.00000 2.662
29.02000 8.608
29.04000 6.428
29.06000 5.221
29.08000 3.282
29.10000 4.981
29.12000 4.363
29.14000 3.697
29.16000 3.492
29.18000 9.350
29.20000 7.636
29.22000 6.333
29.24000 1.538
29.26000 -0.005
29.28000 3.105
29.30000 1.749
29.32000 4.155
29.34000 2.043
29.36000 -0.460
29.38000 -2.601
29.40000 0.284
29.42000 1.967
29.44000 2.988
29.46000 9.811
29.48000 3.578
29.50000 0.765
29.52000 5.354
29.54000 6.865
29.56000 1.460
29.58000 2.311
29.60000 3.973
29.62000 4.460
29.64000 7.710
29.66000 4.948
29.68000 3.072
29.70000 3.175
29.72000 -2.719
29.74000 1.959
29.76000 1.889
29.78000 3.835
29.80000 7.453
29.82000 2.850
29.84000 4.949
29.86000 7.966
29.88000 4.501
29.90000 8.291
29.92000 0.510
29.94000 -3.707
29.96000 -1.819
29.98000 -1.378
30.00000 4.474
30.02000 11.721
30.04000 4.097
30.06000 3.465
30.08000 1.681
30.10000 3.743
30.12000 4.480
30.14000 3.487
30.16000 2.828
30.18000 1.241
30.20000 1.466
30.22000 3.982
30.24000 1.988
30.26000 3.364
30.28000 5.410
30.30000 6.759
30.32000 3.567
30.34000 -0.323
30.36000 -0.064
30.38000 1.641
30.40000 7.040
30.42000 3.834
30.44000 2.821
30.46000 5.148
30.48000 3.572
30.50000 4.260
30.52000 6.920
30.54000 5.883
30.56000 -0.046
30.58000 2.281
30.60000 4.531
30.62000 7.675
30.64000 3.769
30.66000 4.706
30.68000 -2.167
30.70000 1.548
30.72000 4.655
30.74000 2.135
30.76000 1.893
30.78000 3.836
30.80000 3.142
30.82000 5.328
30.84000 4.021
30.86000 6.969
30.88000 3.783
30.90000 4.122
30.92000 1.466
30.94000 -3.429
30.96000 -1.201
30.98000 2.970
31.00000 -0.184
31.02000 -0.323
31.04000 -0.489
31.06000 1.759
31.08000 -0.223
31.10000 -3.702
31.12000 -1.010
31.14000 2.141
31.16000 0.569
31.18000 1.309
31.20000 0.250
31.22000 2.755
31.24000 -0.313
31.26000 -3.698
31.28000 -1.122
31.30000 4.927
31.32000 6.738
31.34000 5.433
31.36000 2.480
31.38000 2.440
31.40000 1.307
31.42000 4.884
31.44000 7.038
31.46000 4.348
31.48000 -1.407
31.50000 -1.295
31.52000 -1.859
31.54000 0.210
31.56000 1.700
31.58000 2.915
31.60000 1.117
31.62000 3.320
31.64000 0.146
31.66000 -0.397
31.68000 -0.514
31.70000 2.858
31.72000 -1.186
31.74000 -2.140
31.76000 -1.570
31.78000 -1.013
31.80000 -0.545
31.82000 -2.027
31.84000 -2.305
31.86000 1.177
31.88000 1.881
31.90000 0.921
31.92000 -0.407
31.94000 -1.398
31.96000 4.015
31.98000 2.940
32.00000 -1.503
32.02000 -3.668
32.04000 -1.583
32.06000 1.637
32.08000 1.935
32.10000 3.132
32.12000 2.881
32.14000 2.813
32.16000 0.546
32.18000 -1.805
32.20000 -1.673
32.22000 2.612
32.24000 -0.605
32.26000 1.465
32.28000 3.018
32.30000 -0.426
32.32000 -3.659
32.34000 0.538
32.36000 3.365
32.38000 0.120
32.40000 -2.226
32.42000 2.181
32.44000 3.836
32.46000 2.493
32.48000 -2.901
32.50000 -0.975
32.52000 -1.970
32.54000 3.211
32.56000 3.573
32.58000 2.737
32.60000 1.977
32.62000 2.811
32.64000 -1.056
32.66000 -2.174
32.68000 -1.654
32.70000 1.992
32.72000 2.147
32.74000 -2.159
32.76000 2.782
32.78000 2.646
32.80000 0.157
32.82000 3.907
32.84000 1.074
32.86000 3.842
32.88000 -0.106
32.90000 0.429
32.92000 3.954
32.94000 2.295
32.96000 -3.641
32.98000 -0.422
33.00000 1.104
33.02000 3.153
33.04000 -0.326
33.06000 0.518
33.08000 -2.121
33.10000 -2.993
33.12000 -3.155
33.14000 3.266
33.16000 -2.008
33.18000 -1.305
33.20000 9.090
33.22000 8.509
33.24000 4.037
33.26000 6.745
33.28000 4.279
33.30000 3.369
33.32000 4.441
33.34000 2.264
33.36000 0.712
33.38000 -2.928
33.40000 0.714
33.42000 4.183
33.44000 6.710
33.46000 6.932
33.48000 2.428
33.50000 -0.453
33.52000 1.011
33.54000 2.874
33.56000 4.705
33.58000 1.651
33.60000 5.554
33.62000 2.338
33.64000 2.859
33.66000 5.398
33.68000 6.423
33.70000 2.658
33.72000 5.516
33.74000 6.046
33.76000 5.210
33.78000 2.910
33.80000 3.811
33.82000 4.245
33.84000 7.295
33.86000 2.120
33.88000 0.244
33.90000 -3.593
33.92000 1.176
33.94000 4.835
33.96000 9.586
33.98000 5.303
34.00000 4.858
34.02000 0.283
34.04000 -0.604
34.06000 5.807
34.08000 7.340
34.10000 5.043
34.12000 2.960
34.14000 2.271
34.16000 1.337
34.18000 5.373
34.20000 1.983
34.22000 5.190
34.24000 4.629
34.26000 5.400
34.28000 7.104
34.30000 6.842
34.32000 4.007
34.34000 0.460
34.36000 2.397
34.38000 3.271
34.40000 1.871
34.42000 1.264
34.44000 0.543
34.46000 0.890
34.48000 1.124
34.50000 2.180
34.52000 0.760
34.54000 -1.720
34.56000 3.729
34.58000 3.775
34.60000 3.956
34.62000 5.777
34.64000 6.527
34.66000 3.665
34.68000 2.975
34.70000 0.857
34.72000 5.156
34.74000 1.788
34.76000 4.404
34.78000 4.350
34.80000 2.829
34.82000 2.155
34.84000 2.129
34.86000 0.556
34.88000 3.710
34.90000 6.254
34.92000 0.842
34.94000 2.736
34.96000 0.327
34.98000 -2.786
35.00000 -2.176
35.02000 1.955
35.04000 1.269
35.06000 0.485
35.08000 1.343
35.10000 -0.185
35.12000 -0.638
35.14000 3.053
35.16000 -0.424
35.18000 -2.037
35.20000 4.447
35.22000 7.766
35.24000 6.090
35.26000 6.455
35.28000 1.872
35.30000 1.111
35.32000 -2.631
35.34000 5.175
35.36000 5.974
35.38000 6.203
35.40000 3.067
35.42000 0.533
35.44000 -0.456
35.46000 2.379
35.48000 3.038
35.50000 -1.353
35.52000 -3.560
35.54000 2.567
35.56000 7.101
35.58000 6.937
35.60000 5.643
35.62000 5.454
35.64000 4.032
35.66000 2.517
35.68000 4.957
35.70000 3.793
35.72000 1.609
35.74000 3.823
35.76000 6.222
35.78000 8.149
35.80000 5.025
35.82000 3.516
35.84000 -2.710
35.86000 5.246
35.88000 4.234
35.90000 6.029
35.92000 5.237
35.94000 6.529
35.96000 9.730
35.98000 10.168
36.00000 3.270
36.02000 1.125
36.04000 7.629
36.06000 6.610
36.08000 9.606
36.10000 10.574
36.12000 8.975
36.14000 3.495
36.16000 4.518
36.18000 4.864
36.20000 3.170
36.22000 7.036
36.24000 5.542
36.26000 2.169
36.28000 0.294
36.30000 -3.578
36.32000 2.118
36.34000 3.587
36.36000 3.220
36.38000 4.813
36.40000 2.352
36.42000 2.570
36.44000 1.761
36.46000 6.039
36.48000 4.452
36.50000 0.992
36.52000 3.555
36.54000 -1.188
36.56000 -0.566
36.58000 -0.659
36.60000 1.845
36.62000 1.599
36.64000 1.200
36.66000 0.109
36.68000 -1.581
36.70000 -3.204
36.72000 -0.047
36.74000 2.573
36.76000 4.527
36.78000 5.409
36.80000 2.878
36.82000 0.803
36.84000 0.406
36.86000 0.685
36.88000 -1.442
36.90000 -0.277
36.92000 0.884
36.94000 2.317
36.96000 -2.202
36.98000 0.263
37.00000 5.831
37.02000 0.439
37.04000 0.614
37.06000 3.728
37.08000 3.439
37.10000 -0.010
37.12000 -2.441
37.14000 -0.889
37.16000 -2.243
37.18000 -1.593
37.20000 -2.055
37.22000 1.181
37.24000 2.217
37.26000 3.132
37.28000 2.312
37.30000 -2.618
37.32000 -3.723
37.34000 -3.095
37.36000 -3.417
37.38000 1.717
37.40000 3.405
37.42000 -2.835
37.44000 -3.022
37.46000 0.746
37.48000 4.306
37.50000 5.028
37.52000 3.684
37.54000 0.144
37.56000 3.065
37.58000 3.944
37.60000 4.882
37.62000 3.049
37.64000 3.968
37.66000 3.090
37.68000 0.117
37.70000 6.084
37.72000 5.761
37.74000 4.423
37.76000 5.310
37.78000 12.703
37.80000 8.199
37.82000 8.431
37.84000 8.004
37.86000 3.014
37.88000 5.119
37.90000 4.879
37.92000 7.733
37.94000 9.432
37.96000 12.710
37.98000 12.029
38.00000 12.620
38.02000 13.520
38.04000 11.676
38.06000 14.213
38.08000 17.376
38.10000 18.911
38.12000 14.625
38.14000 19.066
38.16000 19.991
38.18000 19.411
38.20000 17.404
38.22000 19.473
38.24000 26.103
38.26000 23.915
38.28000 20.083
38.30000 16.561
38.32000 14.377
38.34000 17.246
38.36000 21.682
38.38000 23.697
38.40000 25.051
38.42000 25.801
38.44000 28.882
38.46000 30.284
38.48000 30.864
38.50000 30.382
38.52000 28.157
38.54000 30.511
38.56000 35.727
38.58000 35.794
38.60000 31.077
38.62000 36.164
38.64000 37.170
38.66000 35.665
38.68000 42.687
38.70000 46.009
38.72000 48.785
38.74000 45.194
38.76000 53.202
38.78000 57.032
38.80000 56.326
38.82000 53.376
38.84000 56.684
38.86000 60.312
38.88000 62.620
38.90000 61.290
38.92000 64.327
38.94000 71.348
38.96000 72.194
38.98000 71.762
39.00000 73.482
39.02000 79.427
39.04000 84.648
39.06000 92.801
39.08000 96.109
39.10000 93.439
39.12000 93.202
39.14000 97.923
39.16000 101.190
39.18000 107.931
39.20000 118.181
39.22000 124.656
39.24000 129.793
39.26000 136.123
39.28000 143.122
39.30000 145.976
39.32000 154.604
39.34000 168.115
39.36000 173.912
39.38000 178.607
39.40000 180.368
39.42000 183.729
39.44000 200.982
39.46000 211.181
39.48000 225.749
39.50000 226.238
39.52000 235.359
39.54000 254.551
39.56000 267.326
39.58000 282.839
39.60000 290.558
39.62000 297.417
39.64000 310.279
39.66000 332.629
39.68000 351.780
39.70000 372.634
39.72000 378.626
39.74000 389.486
39.76000 409.327
39.78000 446.607
39.80000 472.814
39.82000 476.977
39.84000 489.385
39.86000 515.738
39.88000 523.511
39.90000 552.767
39.92000 564.800
39.94000 583.896
39.96000 596.407
39.98000 611.726
40.00000 619.702
40.02000 638.061
40.04000 648.421
40.06000 666.584
40.08000 690.573
40.10000 690.030
40.12000 697.391
40.14000 695.861
40.16000 701.234
40.18000 710.659
40.20000 694.798
40.22000 701.481
40.24000 707.680
40.26000 702.056
40.28000 687.799
40.30000 684.399
40.32000 664.290
40.34000 647.984
40.36000 637.075
40.38000 625.874
40.40000 607.690
40.42000 594.662
40.44000 590.054
40.46000 561.644
40.48000 549.452
40.50000 520.155
40.52000 502.838
40.54000 480.897
40.56000 456.377
40.58000 449.904
40.60000 437.307
40.62000 416.409
40.64000 390.971
40.66000 364.625
40.68000 357.873
40.70000 335.878
40.72000 314.089
40.74000 302.358
40.76000 285.948
40.78000 276.985
40.80000 255.533
40.82000 244.056
40.84000 232.882
40.86000 216.070
40.88000 200.791
40.90000 193.825
40.92000 181.965
40.94000 169.809
40.96000 163.708
40.98000 154.025
41.00000 151.785
41.02000 139.514
41.04000 123.735
41.06000 117.224
41.08000 115.672
41.10000 111.541
41.12000 112.552
41.14000 104.525
41.16000 97.351
41.18000 87.494
41.20000 81.536
41.22000 83.013
41.24000 73.637
41.26000 70.890
41.28000 68.612
41.30000 61.528
41.32000 57.631
41.34000 56.107
41.36000 50.991
41.38000 45.828
41.40000 41.348
41.42000 44.869
41.44000 42.978
41.46000 41.818
41.48000 40.842
41.50000 38.536
41.52000 34.419
41.54000 32.485
41.56000 31.198
41.58000 26.870
41.60000 27.095
41.62000 24.906
41.64000 28.301
41.66000 23.988
41.68000 23.452
41.70000 20.496
41.72000 16.913
41.74000 14.228
41.76000 14.359
41.78000 15.445
41.80000 13.403
41.82000 15.367
41.84000 16.228
41.86000 12.409
41.88000 13.996
41.90000 12.537
41.92000 14.456
41.94000 7.634
41.96000 7.801
41.98000 13.172
42.00000 14.434
42.02000 15.251
42.04000 11.470
42.06000 8.374
42.08000 4.539
42.10000 6.818
42.12000 7.123
42.14000 4.842
42.16000 5.446
42.18000 3.757
42.20000 6.011
42.22000 3.329
42.24000 0.577
42.26000 9.558
42.28000 9.818
42.30000 8.288
42.32000 7.935
42.34000 2.278
42.36000 0.880
42.38000 0.661
42.40000 2.169
42.42000 4.265
42.44000 6.205
42.46000 6.376
42.48000 4.555
42.50000 2.605
42.52000 4.987
42.54000 4.106
42.56000 0.850
42.58000 4.542
42.60000 1.891
42.62000 -2.778
42.64000 -3.634
42.66000 1.527
42.68000 2.093
42.70000 -1.323
42.72000 -1.135
42.74000 1.425
42.76000 5.396
42.78000 3.118
42.80000 4.383
42.82000 3.052
42.84000 -2.923
42.86000 1.759
42.88000 3.752
42.90000 5.008
42.92000 1.924
42.94000 2.048
42.96000 1.279
42.98000 0.440
43.00000 -1.785
43.02000 -1.587
43.04000 -2.597
43.06000 2.047
43.08000 -1.993
43.10000 6.167
43.12000 10.290
43.14000 9.676
43.16000 7.024
43.18000 4.146
43.20000 1.585
43.22000 1.111
43.24000 -3.553
43.26000 -1.045
43.28000 3.698
43.30000 -0.125
43.32000 0.540
43.34000 1.370
43.36000 -0.714
43.38000 -0.095
43.40000 0.795
43.42000 -2.428
43.44000 -1.871
43.46000 -1.678
43.48000 0.513
43.50000 0.735
43.52000 0.412
43.54000 2.041
43.56000 0.688
43.58000 -3.540
43.60000 0.956
43.62000 3.485
43.64000 3.382
43.66000 1.737
43.68000 5.968
43.70000 4.900
43.72000 -2.661
43.74000 2.574
43.76000 -1.495
43.78000 -0.512
43.80000 3.192
43.82000 5.466
43.84000 5.224
43.86000 1.503
43.88000 3.417
43.90000 2.892
43.92000 -0.337
43.94000 1.096
43.96000 -3.127
43.98000 -3.526
44.00000 3.335
44.02000 4.628
44.04000 2.041
44.06000 -2.459
44.08000 -2.813
44.10000 -0.165
44.12000 2.292
44.14000 4.619
44.16000 -1.048
44.18000 -2.888
44.20000 -1.485
44.22000 0.154
44.24000 5.235
44.26000 1.291
44.28000 -3.549
44.30000 1.794
44.32000 1.840
44.34000 -1.415
44.36000 1.106
44.38000 3.619
44.40000 2.302
44.42000 -0.442
44.44000 0.534
44.46000 2.209
44.48000 0.835
44.50000 3.065
44.52000 2.482
44.54000 4.053
44.56000 3.395
44.58000 0.926
44.60000 -0.748
44.62000 -3.556
44.64000 -1.491
44.66000 6.285
44.68000 7.427
44.70000 4.222
44.72000 10.853
44.74000 9.402
44.76000 8.249
44.78000 7.700
44.80000 2.814
44.82000 -0.950
44.84000 3.173
44.86000 1.341
44.88000 -2.705
44.90000 0.594
44.92000 7.074
44.94000 7.542
44.96000 9.454
44.98000 11.573
45.00000 10.366
45.02000 10.479
45.04000 4.682
45.06000 6.508
45.08000 14.722
45.10000 9.560
45.12000 10.666
45.14000 10.928
45.16000 10.123
45.18000 11.154
45.20000 8.379
45.22000 6.723
45.24000 1.555
45.26000 7.745
45.28000 13.049
45.30000 15.992
45.32000 18.174
45.34000 16.395
45.36000 13.189
45.38000 17.767
45.40000 19.773
45.42000 14.186
45.44000 14.610
45.46000 14.685
45.48000 17.487
45.50000 20.511
45.52000 18.801
45.54000 15.392
45.56000 21.553
45.58000 26.707
45.60000 27.613
45.62000 29.698
45.64000 30.729
45.66000 33.649
45.68000 31.020
45.70000 32.814
45.72000 31.606
45.74000 27.100
45.76000 29.680
45.78000 31.516
45.80000 28.165
45.82000 34.522
45.84000 31.377
45.86000 32.680
45.88000 34.406
45.90000 35.778
45.92000 37.878
45.94000 42.332
45.96000 43.710
45.98000 45.052
46.00000 41.198
46.02000 45.903
46.04000 46.733
46.06000 41.115
46.08000 44.787
46.10000 52.415
46.12000 53.188
46.14000 53.947
46.16000 56.576
46.18000 53.288
46.20000 55.174
46.22000 61.732
46.24000 59.279
46.26000 59.286
46.28000 74.648
46.30000 76.919
46.32000 77.956
46.34000 71.757
46.36000 70.473
46.38000 76.147
46.40000 76.836
46.42000 72.266
46.44000 67.894
46.46000 71.617
46.48000 70.048
46.50000 71.246
46.52000 73.897
46.54000 77.643
46.56000 73.713
46.58000 77.600
46.60000 85.976
46.62000 80.861
46.64000 76.213
46.66000 80.131
46.68000 80.497
46.70000 82.166
46.72000 82.773
46.74000 91.516
46.76000 83.752
46.78000 76.640
46.80000 82.490
46.82000 82.354
46.84000 83.953
46.86000 76.415
46.88000 77.595
46.90000 79.837
46.92000 81.189
46.94000 74.529
46.96000 75.419
46.98000 78.517
47.00000 80.323
47.02000 77.800
47.04000 72.905
47.06000 72.296
47.08000 74.350
47.10000 69.084
47.12000 64.640
47.14000 70.029
47.16000 65.781
47.18000 67.330
47.20000 70.960
47.22000 67.873
47.24000 68.015
47.26000 58.975
47.28000 51.308
47.30000 48.003
47.32000 49.008
47.34000 46.090
47.36000 43.110
47.38000 49.191
47.40000 52.423
47.42000 50.336
47.44000 45.396
47.46000 44.058
47.48000 44.727
47.50000 43.119
47.52000 45.695
47.54000 48.196
47.56000 37.796
47.58000 35.007
47.60000 26.847
47.62000 27.354
47.64000 22.259
47.66000 20.035
47.68000 25.683
47.70000 20.740
47.72000 17.523
47.74000 18.454
47.76000 22.352
47.78000 20.365
47.80000 23.319
47.82000 19.753
47.84000 13.617
47.86000 15.809
47.88000 13.881
47.90000 15.292
47.92000 15.741
47.94000 10.188
47.96000 6.144
47.98000 11.563
48.00000 17.106
48.02000 17.517
48.04000 12.959
48.06000 8.880
48.08000 10.797
48.10000 6.602
48.12000 7.321
48.14000 2.141
48.16000 3.049
48.18000 4.937
48.20000 4.320
48.22000 3.780
48.24000 11.201
48.26000 7.618
48.28000 7.907
48.30000 7.783
48.32000 6.757
48.34000 8.820
48.36000 5.081
48.38000 0.162
48.40000 6.782
48.42000 -0.094
48.44000 -1.142
48.46000 -0.135
48.48000 -0.126
48.50000 -2.132
48.52000 -3.291
48.54000 0.195
48.56000 2.886
48.58000 0.996
48.60000 -2.621
48.62000 -3.269
48.64000 6.141
48.66000 1.403
48.68000 -0.079
48.70000 -0.696
48.72000 2.997
48.74000 3.295
48.76000 1.560
48.78000 1.550
48.80000 3.161
48.82000 0.496
48.84000 -0.747
48.86000 -1.242
48.88000 -2.078
48.90000 -3.068
48.92000 -1.305
48.94000 1.282
48.96000 -3.223
48.98000 -3.155
49.00000 -0.169
49.02000 0.291
49.04000 3.680
49.06000 3.553
49.08000 -0.247
49.10000 -0.913
49.12000 4.540
49.14000 5.266
49.16000 2.321
49.18000 -3.198
49.20000 -0.427
49.22000 6.131
49.24000 -2.258
49.26000 -2.227
49.28000 0.553
49.30000 6.883
49.32000 2.743
49.34000 3.262
49.36000 0.185
49.38000 -1.697
49.40000 2.094
49.42000 1.996
49.44000 4.587
49.46000 5.659
49.48000 2.481
49.50000 0.859
49.52000 0.103
49.54000 4.929
49.56000 2.618
49.58000 -0.709
49.60000 -3.144
49.62000 0.172
49.64000 1.055
49.66000 3.306
49.68000 1.006
49.70000 7.187
49.72000 4.110
49.74000 -0.710
49.76000 3.260
49.78000 -0.653
49.80000 -1.696
49.82000 -2.431
49.84000 3.685
49.86000 3.484
49.88000 2.216
49.90000 2.070
49.92000 2.116
49.94000 1.373
49.96000 0.044
49.98000 -1.305
50.00000 3.912
50.02000 5.336
50.04000 3.621
50.06000 3.343
50.08000 2.556
50.10000 -3.074
50.12000 0.143
50.14000 -1.480
50.16000 -0.834
50.18000 1.705
50.20000 7.415
50.22000 13.945
50.24000 13.883
50.26000 11.260
50.28000 4.827
50.30000 -2.193
50.32000 0.146
50.34000 2.608
50.36000 3.842
50.38000 0.293
50.40000 4.969
50.42000 5.872
50.44000 4.495
50.46000 1.242
50.48000 1.399
50.50000 -1.380
50.52000 0.891
50.54000 4.677
50.56000 6.213
50.58000 3.843
50.60000 -1.758
50.62000 -0.981
50.64000 3.573
50.66000 6.577
50.68000 5.775
50.70000 8.950
50.72000 2.112
50.74000 -2.468
50.76000 2.116
50.78000 4.932
50.80000 6.253
50.82000 8.271
50.84000 6.264
50.86000 5.496
50.88000 1.697
50.90000 -0.994
50.92000 -2.286
50.94000 0.321
50.96000 1.246
50.98000 -0.190
51.00000 4.173
51.02000 0.308
51.04000 -0.033
51.06000 0.254
51.08000 -0.280
51.10000 0.837
51.12000 4.216
51.14000 -3.030
51.16000 0.500
51.18000 5.347
51.20000 5.090
51.22000 0.408
51.24000 0.160
51.26000 6.225
51.28000 6.981
51.30000 3.730
51.32000 9.421
51.34000 7.992
51.36000 -0.262
51.38000 -1.221
51.40000 -0.868
51.42000 -0.696
51.44000 0.160
51.46000 6.198
51.48000 7.385
51.50000 1.620
51.52000 3.307
51.54000 5.919
51.56000 9.659
51.58000 9.858
51.60000 5.132
51.62000 4.357
51.64000 2.841
51.66000 3.112
51.68000 3.406
51.70000 5.470
51.72000 1.170
51.74000 3.597
51.76000 5.269
51.78000 7.812
51.80000 3.520
51.82000 2.681
51.84000 6.168
51.86000 4.807
51.88000 3.209
51.90000 5.560
51.92000 3.734
51.94000 5.635
51.96000 5.266
51.98000 3.962
52.00000 2.627
52.02000 4.686
52.04000 8.440
52.06000 3.190
52.08000 5.522
52.10000 8.062
52.12000 3.779
52.14000 -1.425
52.16000 -2.947
52.18000 3.073
52.20000 1.518
52.22000 1.673
52.24000 5.779
52.26000 7.115
52.28000 6.656
52.30000 2.323
52.32000 7.783
52.34000 12.757
52.36000 9.524
52.38000 7.148
52.40000 5.597
52.42000 4.700
52.44000 3.497
52.46000 -2.954
52.48000 -2.954
52.50000 3.633
52.52000 6.937
52.54000 7.072
52.56000 8.347
52.58000 2.010
52.60000 -1.032
52.62000 -0.349
52.64000 4.487
52.66000 4.750
52.68000 5.648
52.70000 8.588
52.72000 8.108
52.74000 1.074
52.76000 0.621
52.78000 3.228
52.80000 4.435
52.82000 0.621
52.84000 7.409
52.86000 8.909
52.88000 5.969
52.90000 3.840
52.92000 3.565
52.94000 2.980
52.96000 3.133
52.98000 3.654
53.00000 3.831
53.02000 5.919
53.04000 10.410
53.06000 8.601
53.08000 2.618
53.10000 -0.031
53.12000 -0.823
53.14000 2.568
53.16000 4.760
53.18000 7.097
53.20000 3.572
53.22000 3.336
53.24000 1.339
53.26000 5.356
53.28000 8.623
53.30000 7.842
53.32000 8.245
53.34000 5.884
53.36000 3.376
53.38000 4.909
53.40000 4.972
53.42000 4.476
53.44000 5.641
53.46000 4.937
53.48000 8.617
53.50000 7.212
53.52000 10.768
53.54000 4.674
53.56000 0.328
53.58000 -1.447
53.60000 -1.872
53.62000 0.876
53.64000 5.957
53.66000 6.822
53.68000 0.714
53.70000 -0.832
53.72000 4.905
53.74000 1.143
53.76000 7.906
53.78000 5.884
53.80000 7.926
53.82000 7.311
53.84000 6.024
53.86000 9.867
53.88000 4.090
53.90000 2.439
53.92000 5.242
53.94000 9.577
53.96000 5.256
53.98000 9.176
54.00000 5.866
54.02000 1.057
54.04000 -2.933
54.06000 7.114
54.08000 1.294
54.10000 1.985
54.12000 4.025
54.14000 4.834
54.16000 4.152
54.18000 3.068
54.20000 1.185
54.22000 0.304
54.24000 1.511
54.26000 5.512
54.28000 5.831
54.30000 1.774
54.32000 -1.204
54.34000 1.571
54.36000 3.474
54.38000 3.802
54.40000 6.032
54.42000 6.047
54.44000 6.759
54.46000 1.105
54.48000 -0.978
54.50000 3.550
54.52000 0.539
54.54000 4.614
54.56000 10.256
54.58000 2.984
54.60000 0.220
54.62000 -0.721
54.64000 3.311
54.66000 10.707
54.68000 5.360
54.70000 3.430
54.72000 3.809
54.74000 5.955
54.76000 1.717
54.78000 2.379
54.80000 5.837
54.82000 5.085
54.84000 6.169
54.86000 1.427
54.88000 3.411
54.90000 0.453
54.92000 2.226
54.94000 4.808
54.96000 4.678
54.98000 3.027
55.00000 2.683
55.02000 4.554
55.04000 1.254
55.06000 4.028
55.08000 1.868
55.10000 2.840
55.12000 -2.917
55.14000 -1.169
55.16000 1.500
55.18000 4.914
55.20000 7.564
55.22000 4.755
55.24000 4.544
55.26000 4.797
55.28000 4.235
55.30000 0.968
55.32000 3.442
55.34000 4.084
55.36000 6.340
55.38000 3.606
55.40000 3.936
55.42000 1.821
55.44000 6.539
55.46000 4.629
55.48000 3.243
55.50000 3.425
55.52000 3.542
55.54000 0.730
55.56000 -2.481
55.58000 -0.809
55.60000 4.585
55.62000 5.501
55.64000 2.502
55.66000 1.312
55.68000 2.507
55.70000 -0.624
55.72000 0.500
55.74000 5.889
55.76000 9.714
55.78000 5.894
55.80000 4.094
55.82000 4.829
55.84000 -2.878
55.86000 2.476
55.88000 3.718
55.90000 8.798
55.92000 4.982
55.94000 8.826
55.96000 6.706
55.98000 5.183
56.00000 4.112
56.02000 7.636
56.04000 6.866
56.06000 8.125
56.08000 11.551
56.10000 7.862
56.12000 0.456
56.14000 -2.184
56.16000 5.353
56.18000 5.755
56.20000 6.295
56.22000 0.799
56.24000 3.285
56.26000 1.155
56.28000 3.201
56.30000 0.606
56.32000 0.239
56.34000 2.997
56.36000 -0.320
56.38000 2.766
56.40000 3.860
56.42000 3.966
56.44000 3.786
56.46000 4.916
56.48000 1.935
56.50000 1.635
56.52000 5.506
56.54000 3.796
56.56000 5.786
56.58000 4.832
56.60000 3.572
56.62000 2.715
56.64000 4.703
56.66000 0.419
56.68000 1.528
56.70000 5.947
56.72000 6.550
56.74000 8.317
56.76000 9.444
56.78000 9.168
56.80000 10.077
56.82000 3.544
56.84000 5.327
56.86000 6.288
56.88000 5.109
56.90000 4.119
56.92000 3.252
56.94000 4.929
56.96000 8.036
56.98000 6.759
57.00000 7.405
57.02000 10.911
57.04000 9.883
57.06000 8.063
57.08000 8.435
57.10000 1.763
57.12000 2.459
57.14000 0.731
57.16000 6.384
57.18000 7.009
57.20000 7.132
57.22000 9.199
57.24000 4.304
57.26000 3.723
57.28000 7.777
57.30000 6.080
57.32000 -0.790
57.34000 -2.810
57.36000 -1.316
57.38000 -0.761
57.40000 5.091
57.42000 4.764
57.44000 3.095
57.46000 0.354
57.48000 7.672
57.50000 7.342
57.52000 2.990
57.54000 3.376
57.56000 0.865
57.58000 3.076
57.60000 6.625
57.62000 8.231
57.64000 5.327
57.66000 4.618
57.68000 7.742
57.70000 7.910
57.72000 7.625
57.74000 0.616
57.76000 2.808
57.78000 3.330
57.80000 6.115
57.82000 6.300
57.84000 4.747
57.86000 3.537
57.88000 4.362
57.90000 -0.236
57.92000 1.542
57.94000 2.551
57.96000 1.861
57.98000 5.566
58.00000 8.662
58.02000 1.874
58.04000 -2.508
58.06000 3.308
58.08000 9.059
58.10000 12.184
58.12000 7.006
58.14000 6.206
58.16000 3.201
58.18000 -1.278
58.20000 7.115
58.22000 5.242
58.24000 4.578
58.26000 0.347
58.28000 6.129
58.30000 6.059
58.32000 5.578
58.34000 3.003
58.36000 2.778
58.38000 2.941
58.40000 2.390
58.42000 1.134
58.44000 1.692
58.46000 0.949
58.48000 2.471
58.50000 7.653
58.52000 5.142
58.54000 2.250
58.56000 8.819
58.58000 10.273
58.60000 5.664
58.62000 -0.240
58.64000 2.339
58.66000 2.541
58.68000 7.232
58.70000 1.408
58.72000 1.489
58.74000 2.573
58.76000 -0.452
58.78000 5.459
58.80000 5.600
58.82000 -0.917
58.84000 -2.733
58.86000 -0.408
58.88000 1.702
58.90000 4.272
58.92000 6.094
58.94000 6.472
58.96000 6.185
58.98000 8.975
59.00000 10.816
59.02000 8.057
59.04000 3.718
59.06000 7.073
59.08000 6.883
59.10000 7.066
59.12000 5.237
59.14000 5.236
59.16000 9.677
59.18000 4.232
59.20000 5.760
59.22000 3.601
59.24000 4.259
59.26000 7.115
59.28000 3.281
59.30000 1.433
59.32000 2.228
59.34000 3.797
59.36000 2.773
59.38000 1.678
59.40000 3.684
59.42000 1.523
59.44000 5.116
59.46000 5.363
59.48000 1.815
59.50000 0.133
59.52000 3.673
59.54000 -0.941
59.56000 1.264
59.58000 3.046
59.60000 3.552
59.62000 -0.287
59.64000 0.697
59.66000 8.732
59.68000 4.054
59.70000 6.077
59.72000 7.107
59.74000 6.281
59.76000 1.966
59.78000 -1.242
59.80000 3.454
59.82000 2.765
59.84000 1.171
59.86000 1.942
59.88000 6.245
59.90000 -1.305
59.92000 -1.156
59.94000 -0.944
59.96000 -2.159
59.98000 0.552
60.00000 0.300
60.02000 1.352
60.04000 4.407
60.06000 0.139
60.08000 5.038
60.10000 4.305
60.12000 1.904
60.14000 3.814
60.16000 4.549
60.18000 1.518
60.20000 3.216
60.22000 1.246
60.24000 1.511
60.26000 -0.133
60.28000 2.453
60.30000 5.781
60.32000 3.346
60.34000 5.066
60.36000 4.893
60.38000 6.079
60.40000 6.169
60.42000 8.029
60.44000 7.251
60.46000 5.035
60.48000 3.247
60.50000 4.865
60.52000 3.457
60.54000 0.795
60.56000 2.363
60.58000 4.152
60.60000 2.838
60.62000 4.734
60.64000 -0.211
60.66000 -1.087
60.68000 5.278
60.70000 5.152
60.72000 -2.717
60.74000 3.841
60.76000 8.504
60.78000 4.612
60.80000 0.475
60.82000 3.304
60.84000 2.100
60.86000 3.321
60.88000 1.926
60.90000 3.773
60.92000 6.279
60.94000 8.586
60.96000 5.751
60.98000 4.369
61.00000 3.241
61.02000 2.019
61.04000 4.297
61.06000 5.035
61.08000 1.578
61.10000 0.743
61.12000 -1.293
61.14000 1.086
61.16000 1.196
61.18000 3.498
61.20000 3.334
61.22000 7.172
61.24000 3.866
61.26000 1.525
61.28000 2.269
61.30000 0.316
61.32000 4.399
61.34000 7.290
61.36000 1.844
61.38000 2.055
61.40000 3.524
61.42000 2.958
61.44000 1.848
61.46000 2.208
61.48000 6.159
61.50000 10.025
61.52000 4.114
61.54000 0.000
61.56000 0.417
61.58000 -0.291
61.60000 0.351
61.62000 6.200
61.64000 0.654
61.66000 -0.350
61.68000 3.409
61.70000 5.277
61.72000 1.500
61.74000 4.416
61.76000 8.180
61.78000 5.615
61.80000 1.448
61.82000 -2.657
61.84000 -1.920
61.86000 4.201
61.88000 7.247
61.90000 8.145
61.92000 3.950
61.94000 2.959
61.96000 2.787
61.98000 5.930
62.00000 5.530
62.02000 1.162
62.04000 -0.596
62.06000 0.545
62.08000 1.459
62.10000 6.299
62.12000 2.289
62.14000 3.076
62.16000 2.960
62.18000 1.755
62.20000 3.180
62.22000 5.918
62.24000 3.163
62.26000 0.341
62.28000 4.222
62.30000 3.033
62.32000 2.545
62.34000 4.575
62.36000 5.665
62.38000 -0.249
62.40000 5.929
62.42000 5.686
62.44000 5.931
62.46000 0.616
62.48000 -1.081
62.50000 -1.303
62.52000 -0.301
62.54000 0.529
62.56000 3.786
62.58000 6.024
62.60000 8.802
62.62000 5.811
62.64000 0.520
62.66000 5.771
62.68000 7.053
62.70000 0.350
62.72000 3.577
62.74000 6.427
62.76000 3.478
62.78000 0.855
62.80000 1.823
62.82000 3.580
62.84000 5.323
62.86000 4.594
62.88000 5.883
62.90000 7.345
62.92000 6.275
62.94000 5.684
62.96000 0.633
62.98000 -0.029
63.00000 3.711
63.02000 3.548
63.04000 -0.193
63.06000 -2.679
63.08000 -1.891
63.10000 -0.488
63.12000 6.960
63.14000 2.212
63.16000 2.247
63.18000 6.182
63.20000 7.322
63.22000 1.601
63.24000 -1.975
63.26000 1.213
63.28000 2.905
63.30000 2.483
63.32000 0.626
63.34000 0.822
63.36000 -0.748
63.38000 -0.216
63.40000 1.230
63.42000 0.361
63.44000 3.379
63.46000 4.214
63.48000 -2.070
63.50000 -0.221
63.52000 1.710
63.54000 -0.095
63.56000 0.399
63.58000 -1.417
63.60000 0.768
63.62000 3.123
63.64000 -1.652
63.66000 2.824
63.68000 5.210
63.70000 4.605
63.72000 -2.681
63.74000 -0.426
63.76000 2.248
63.78000 2.181
63.80000 -1.374
63.82000 -2.179
63.84000 -0.246
63.86000 3.041
63.88000 4.536
63.90000 2.932
63.92000 -1.797
63.94000 -1.565
63.96000 0.451
63.98000 4.247
64.00000 4.952
64.02000 0.303
64.04000 1.692
64.06000 1.086
64.08000 1.812
64.10000 0.850
64.12000 3.604
64.14000 2.986
64.16000 5.034
64.18000 5.676
64.20000 4.552
64.22000 3.360
64.24000 -0.159
64.26000 3.194
64.28000 -0.412
64.30000 -0.724
64.32000 -0.191
64.34000 -1.022
64.36000 3.349
64.38000 4.703
64.40000 4.642
64.42000 2.306
64.44000 2.426
64.46000 0.315
64.48000 4.089
64.50000 6.255
64.52000 3.489
64.54000 2.954
64.56000 2.683
64.58000 0.904
64.60000 -1.734
64.62000 -0.865
64.64000 -0.155
64.66000 -1.653
64.68000 2.752
64.70000 2.498
64.72000 0.480
64.74000 -1.184
64.76000 -2.694
64.78000 -0.554
64.80000 3.385
64.82000 3.677
64.84000 4.412
64.86000 4.271
64.88000 4.351
64.90000 0.781
64.92000 2.225
64.94000 0.214
64.96000 6.126
64.98000 2.444
65.00000 2.049
65.02000 2.030
65.04000 0.190
65.06000 -0.806
65.08000 2.088
65.10000 4.680
65.12000 1.230
65.14000 -2.711
65.16000 0.381
65.18000 5.206
65.20000 3.366
65.22000 1.847
65.24000 -1.276
65.26000 2.771
65.28000 3.856
65.30000 0.749
65.32000 2.596
65.34000 -0.368
65.36000 -2.023
65.38000 0.800
65.40000 3.170
65.42000 1.177
65.44000 0.013
65.46000 3.355
65.48000 0.669
65.50000 -2.746
65.52000 -2.490
65.54000 -1.763
65.56000 0.375
65.58000 4.710
65.60000 -1.658
65.62000 1.542
65.64000 2.437
65.66000 3.560
65.68000 0.607
65.70000 -0.656
65.72000 2.197
65.74000 0.289
65.76000 -1.272
65.78000 2.731
65.80000 2.221
65.82000 2.656
65.84000 1.070
65.86000 0.435
65.88000 -2.513
65.90000 -2.278
65.92000 0.874
65.94000 -2.775
65.96000 -1.000
65.98000 4.139
66.00000 5.800
66.02000 2.478
66.04000 -2.189
66.06000 -1.882
66.08000 -1.069
66.10000 2.868
66.12000 4.465
66.14000 -1.016
66.16000 -1.853
66.18000 2.443
66.20000 0.493
66.22000 -1.413
66.24000 0.149
66.26000 0.853
66.28000 1.178
66.30000 -2.803
66.32000 0.836
66.34000 1.430
66.36000 0.101
66.38000 -2.199
66.40000 -0.494
66.42000 -0.549
66.44000 -0.527
66.46000 -1.123
66.48000 0.522
66.50000 3.255
66.52000 0.885
66.54000 -0.366
66.56000 -1.303
66.58000 -0.320
66.60000 4.624
66.62000 2.227
66.64000 2.715
66.66000 3.294
66.68000 1.914
66.70000 0.752
66.72000 0.918
66.74000 1.987
66.76000 4.640
66.78000 3.182
66.80000 3.225
66.82000 4.522
66.84000 2.389
66.86000 2.043
66.88000 3.823
66.90000 2.711
66.92000 3.630
66.94000 4.319
66.96000 5.758
66.98000 6.755
67.00000 9.995
67.02000 4.120
67.04000 2.631
67.06000 4.104
67.08000 9.483
67.10000 10.646
67.12000 10.912
67.14000 11.823
67.16000 7.799
67.18000 1.315
67.20000 4.511
67.22000 7.428
67.24000 10.042
67.26000 6.565
67.28000 7.562
67.30000 9.579
67.32000 11.522
67.34000 14.886
67.36000 11.594
67.38000 10.180
67.40000 10.797
67.42000 14.663
67.44000 15.542
67.46000 11.424
67.48000 13.026
67.50000 8.761
67.52000 10.724
67.54000 15.580
67.56000 15.926
67.58000 17.190
67.60000 14.580
67.62000 12.789
67.64000 8.273
67.66000 12.980
67.68000 16.365
67.70000 18.791
67.72000 19.066
67.74000 16.073
67.76000 13.423
67.78000 11.739
67.80000 15.025
67.82000 17.829
67.84000 21.034
67.86000 19.208
67.88000 20.442
67.90000 18.256
67.92000 22.681
67.94000 24.629
67.96000 18.678
67.98000 21.823
68.00000 22.050
68.02000 19.976
68.04000 21.657
68.06000 23.295
68.08000 21.436
68.10000 21.440
68.12000 23.774
68.14000 19.544
68.16000 20.237
68.18000 23.982
68.20000 19.358
68.22000 21.436
68.24000 23.449
68.26000 26.216
68.28000 21.724
68.30000 21.249
68.32000 20.938
68.34000 23.044
68.36000 24.171
68.38000 21.227
68.40000 19.286
68.42000 20.261
68.44000 21.630
68.46000 24.463
68.48000 24.795
68.50000 21.173
68.52000 20.234
68.54000 22.360
68.56000 23.140
68.58000 20.596
68.60000 19.763
68.62000 22.787
68.64000 19.681
68.66000 22.305
68.68000 22.071
68.70000 18.047
68.72000 16.150
68.74000 17.673
68.76000 14.863
68.78000 14.909
68.80000 15.868
68.82000 12.678
68.84000 15.619
68.86000 16.947
68.88000 16.051
68.90000 15.658
68.92000 13.638
68.94000 14.972
68.96000 13.397
68.98000 9.579
69.00000 11.273
69.02000 15.215
69.04000 14.119
69.06000 10.400
69.08000 6.384
69.10000 10.694
69.12000 9.682
69.14000 5.958
69.16000 6.079
69.18000 10.291
69.20000 9.663
69.22000 5.857
69.24000 9.565
69.26000 13.894
69.28000 8.654
69.30000 5.254
69.32000 3.466
69.34000 5.286
69.36000 11.184
69.38000 12.707
69.40000 7.672
69.42000 1.580
69.44000 0.264
69.46000 1.744
69.48000 2.405
69.50000 2.414
69.52000 5.156
69.54000 1.526
69.56000 -2.725
69.58000 -0.607
69.60000 2.923
69.62000 1.320
69.64000 -1.207
69.66000 1.492
69.68000 3.701
69.70000 2.761
69.72000 0.239
69.74000 -1.852
69.76000 0.765
69.78000 4.116
69.80000 2.461
69.82000 -0.089
69.84000 1.174
69.86000 3.182
69.88000 6.372
69.90000 0.617
69.92000 6.836
69.94000 8.400
69.96000 6.768
69.98000 0.892
70.00000 1.008
70.02000 3.175
70.04000 3.129
70.06000 -1.120
70.08000 -2.158
70.10000 -0.490
70.12000 -0.443
70.14000 1.510
70.16000 5.858
70.18000 1.419
70.20000 -2.646
70.22000 -0.585
70.24000 -2.089
70.26000 1.405
70.28000 1.471
70.30000 0.223
70.32000 -0.203
70.34000 -0.783
70.36000 0.376
70.38000 -0.213
70.40000 3.761
70.42000 1.276
70.44000 -0.129
70.46000 1.582
70.48000 1.658
70.50000 1.897
70.52000 4.369
70.54000 3.137
70.56000 3.694
70.58000 0.363
70.60000 -0.778
70.62000 0.353
70.64000 1.873
70.66000 3.694
70.68000 4.809
70.70000 0.805
70.72000 -0.403
70.74000 0.985
70.76000 -1.736
70.78000 -0.595
70.80000 0.229
70.82000 2.284
70.84000 3.416
70.86000 2.932
70.88000 0.834
70.90000 1.285
70.92000 0.278
70.94000 0.043
70.96000 0.593
70.98000 0.872
71.00000 -1.418
71.02000 -2.552
71.04000 3.348
71.06000 6.082
71.08000 7.443
71.10000 5.979
71.12000 6.393
71.14000 9.708
71.16000 5.916
71.18000 3.153
71.20000 5.449
71.22000 7.986
71.24000 5.080
71.26000 5.178
71.28000 8.368
71.30000 8.585
71.32000 3.454
71.34000 2.066
71.36000 8.793
71.38000 5.286
71.40000 2.385
71.42000 5.454
71.44000 7.926
71.46000 8.157
71.48000 5.804
71.50000 3.336
71.52000 8.357
71.54000 9.634
71.56000 8.068
71.58000 6.600
71.60000 1.759
71.62000 1.389
71.64000 2.778
71.66000 5.600
71.68000 5.134
71.70000 5.362
71.72000 2.767
71.74000 6.801
71.76000 7.926
71.78000 7.724
71.80000 5.322
71.82000 5.371
71.84000 12.584
71.86000 12.559
71.88000 10.632
71.90000 10.191
71.92000 9.304
71.94000 8.435
71.96000 8.526
71.98000 7.795
72.00000 6.459
72.02000 6.216
72.04000 6.810
72.06000 4.742
72.08000 -2.442
72.10000 2.789
72.12000 7.192
72.14000 7.430
72.16000 5.309
72.18000 7.491
72.20000 4.297
72.22000 12.489
72.24000 12.431
72.26000 10.553
72.28000 10.555
72.30000 10.067
72.32000 4.810
72.34000 4.981
72.36000 1.378
72.38000 5.333
72.40000 7.013
72.42000 8.411
72.44000 3.026
72.46000 8.681
72.48000 10.378
72.50000 6.924
72.52000 4.832
72.54000 6.328
72.56000 4.870
72.58000 4.024
72.60000 2.363
72.62000 3.205
72.64000 8.243
72.66000 9.407
72.68000 4.697
72.70000 7.895
72.72000 6.505
72.74000 5.428
72.76000 5.230
72.78000 10.044
72.80000 7.412
72.82000 2.888
72.84000 4.725
72.86000 2.629
72.88000 8.493
72.90000 13.169
72.92000 14.119
72.94000 4.555
72.96000 1.645
72.98000 1.989
73.00000 0.921
73.02000 4.679
73.04000 8.343
73.06000 5.484
73.08000 1.578
73.10000 0.386
73.12000 5.740
73.14000 4.068
73.16000 0.133
73.18000 3.221
73.20000 9.219
73.22000 15.234
73.24000 14.055
73.26000 9.856
73.28000 -1.211
73.30000 -2.420
73.32000 2.995
73.34000 8.444
73.36000 8.614
73.38000 7.349
73.40000 6.625
73.42000 5.833
73.44000 2.452
73.46000 1.784
73.48000 5.826
73.50000 4.788
73.52000 3.412
73.54000 4.548
73.56000 4.872
73.58000 1.489
73.60000 4.412
73.62000 7.117
73.64000 8.516
73.66000 10.092
73.68000 8.016
73.70000 -0.636
73.72000 2.299
73.74000 7.168
73.76000 9.307
73.78000 2.904
73.80000 -0.816
73.82000 6.433
73.84000 7.586
73.86000 7.434
73.88000 5.099
73.90000 3.008
73.92000 3.493
73.94000 1.820
73.96000 3.418
73.98000 2.867
74.00000 1.150
74.02000 -1.830
74.04000 0.362
74.06000 5.855
74.08000 4.492
74.10000 6.903
74.12000 7.267
74.14000 4.853
74.16000 1.477
74.18000 -0.155
74.20000 3.583
74.22000 7.199
74.24000 6.607
74.26000 11.391
74.28000 7.249
74.30000 7.800
74.32000 4.582
74.34000 3.102
74.36000 6.227
74.38000 8.759
74.40000 5.938
74.42000 3.293
74.44000 1.389
74.46000 0.917
74.48000 4.821
74.50000 3.678
74.52000 -0.916
74.54000 2.524
74.56000 1.094
74.58000 -0.106
74.60000 3.284
74.62000 3.378
74.64000 5.949
74.66000 9.647
74.68000 6.758
74.70000 3.588
74.72000 2.326
74.74000 5.100
74.76000 5.915
74.78000 6.742
74.80000 5.376
74.82000 5.635
74.84000 3.242
74.86000 5.614
74.88000 8.181
74.90000 4.502
74.92000 10.915
74.94000 11.419
74.96000 15.587
74.98000 8.400
75.00000 3.992
75.02000 1.839
75.04000 5.180
75.06000 4.439
75.08000 4.143
75.10000 1.830
75.12000 -2.410
75.14000 5.743
75.16000 5.016
75.18000 4.035
75.20000 7.123
75.22000 1.428
75.24000 4.984
75.26000 8.572
75.28000 9.272
75.30000 10.563
75.32000 5.737
75.34000 6.467
75.36000 10.448
75.38000 10.694
75.40000 7.967
75.42000 5.747
75.44000 6.859
75.46000 3.738
75.48000 3.367
75.50000 -0.985
75.52000 0.748
75.54000 7.061
75.56000 4.629
75.58000 4.303
75.60000 3.094
75.62000 3.951
75.64000 3.002
75.66000 1.147
75.68000 -0.764
75.70000 -0.729
75.72000 3.235
75.74000 3.084
75.76000 3.202
75.78000 -2.476
75.80000 -0.648
75.82000 -0.687
75.84000 -1.917
75.86000 2.691
75.88000 6.947
75.90000 6.786
75.92000 8.410
75.94000 2.653
75.96000 -0.411
75.98000 -1.850
76.00000 -0.626
76.02000 -1.726
76.04000 2.648
76.06000 2.806
76.08000 7.747
76.10000 3.787
76.12000 -1.882
76.14000 2.081
76.16000 1.795
76.18000 7.952
76.20000 9.961
76.22000 6.720
76.24000 0.980
76.26000 1.632
76.28000 4.637
76.30000 1.164
76.32000 -1.732
76.34000 2.543
76.36000 1.510
76.38000 3.383
76.40000 3.537
76.42000 -0.861
76.44000 -0.451
76.46000 1.955
76.48000 0.995
76.50000 -0.848
76.52000 -2.016
76.54000 -2.335
76.56000 -1.501
76.58000 0.279
76.60000 3.132
76.62000 4.515
76.64000 8.676
76.66000 6.608
76.68000 0.193
76.70000 5.209
76.72000 4.667
76.74000 0.994
76.76000 3.058
76.78000 1.260
76.80000 -0.435
76.82000 4.043
76.84000 6.008
76.86000 6.654
76.88000 -2.524
76.90000 1.262
76.92000 5.056
76.94000 6.705
76.96000 7.415
76.98000 4.702
77.00000 3.370
77.02000 0.388
77.04000 1.438
77.06000 6.482
77.08000 3.615
77.10000 2.118
77.12000 -1.090
77.14000 -0.027
77.16000 0.823
77.18000 3.898
77.20000 4.024
77.22000 0.832
77.24000 3.202
77.26000 1.716
77.28000 4.678
77.30000 7.963
77.32000 2.289
77.34000 -2.113
77.36000 0.850
77.38000 -0.376
77.40000 -2.520
77.42000 0.487
77.44000 3.377
77.46000 2.347
77.48000 1.092
77.50000 -0.966
77.52000 0.579
77.54000 0.983
77.56000 4.492
77.58000 0.417
77.60000 0.316
77.62000 2.485
77.64000 4.674
77.66000 3.568
77.68000 7.168
77.70000 1.438
77.72000 -1.696
77.74000 4.216
77.76000 3.828
77.78000 -1.979
77.80000 -2.514
77.82000 4.267
77.84000 7.168
77.86000 3.890
77.88000 2.345
77.90000 3.684
77.92000 13.406
77.94000 8.954
77.96000 2.375
77.98000 1.465
78.00000 10.641
78.02000 7.969
78.04000 3.429
78.06000 -0.284
78.08000 2.710
78.10000 1.613
78.12000 1.550
78.14000 6.392
78.16000 3.414
78.18000 8.726
78.20000 6.306
78.22000 7.479
78.24000 2.518
78.26000 5.001
78.28000 3.626
78.30000 6.266
78.32000 2.863
78.34000 4.424
78.36000 4.456
78.38000 2.032
78.40000 2.424
78.42000 2.892
78.44000 0.714
78.46000 0.397
78.48000 0.284
78.50000 0.854
78.52000 -0.907
78.54000 0.823
78.56000 3.212
78.58000 0.930
78.60000 -1.178
78.62000 1.307
78.64000 5.332
78.66000 6.099
78.68000 5.673
78.70000 9.536
78.72000 12.465
78.74000 7.840
78.76000 3.638
78.78000 8.319
78.80000 7.343
78.82000 3.671
78.84000 3.413
78.86000 2.346
78.88000 4.739
78.90000 5.103
78.92000 2.238
78.94000 -0.219
78.96000 4.773
78.98000 8.144
79.00000 5.616
79.02000 4.438
79.04000 -0.575
79.06000 -2.539
79.08000 -2.450
79.10000 4.999
79.12000 7.313
79.14000 6.516
79.16000 4.909
79.18000 3.748
79.20000 3.073
79.22000 4.609
79.24000 0.122
79.26000 2.591
79.28000 7.044
79.30000 3.597
79.32000 0.241
79.34000 0.389
79.36000 4.594
79.38000 -0.185
79.40000 4.027
79.42000 6.778
79.44000 6.654
79.46000 1.482
79.48000 1.637
79.50000 2.187
79.52000 -0.155
79.54000 2.255
79.56000 3.494
79.58000 0.472
79.60000 -2.436
79.62000 -0.013
79.64000 -2.618
79.66000 0.556
79.68000 4.368
79.70000 2.694
79.72000 3.200
79.74000 2.189
79.76000 1.614
79.78000 1.794
79.80000 3.388
79.82000 4.582
79.84000 5.472
79.86000 -0.543
79.88000 -1.782
79.90000 -2.101
79.92000 4.843
79.94000 4.609
79.96000 1.577
79.98000 6.397
80.00000 4.344
80.02000 -0.152
80.04000 -1.271
80.06000 -1.802
80.08000 0.873
80.10000 -0.874
80.12000 -0.459
80.14000 -1.028
80.16000 3.920
80.18000 2.806
80.20000 3.267
80.22000 2.497
80.24000 5.462
80.26000 5.779
80.28000 4.155
80.30000 7.934
80.32000 4.457
80.34000 4.387
80.36000 6.233
80.38000 3.546
80.40000 6.718
80.42000 1.498
80.44000 3.436
80.46000 2.441
80.48000 -0.078
80.50000 3.032
80.52000 2.823
80.54000 0.241
80.56000 2.527
80.58000 1.391
80.60000 2.953
80.62000 0.284
80.64000 -0.732
80.66000 4.547
80.68000 9.454
80.70000 4.291
80.72000 12.757
80.74000 7.420
80.76000 5.305
80.78000 4.522
80.80000 5.804
80.82000 3.748
80.84000 7.263
80.86000 11.058
80.88000 11.977
80.90000 7.433
80.92000 7.666
80.94000 4.854
80.96000 6.107
80.98000 4.669
81.00000 4.681
81.02000 -2.731
81.04000 1.459
81.06000 3.448
81.08000 10.686
81.10000 11.462
81.12000 10.314
81.14000 8.012
81.16000 10.758
81.18000 7.272
81.20000 9.589
81.22000 11.960
81.24000 10.670
81.26000 8.524
81.28000 9.611
81.30000 10.113
81.32000 7.585
81.34000 8.194
81.36000 11.491
81.38000 9.558
81.40000 2.045
81.42000 10.500
81.44000 17.634
81.46000 11.171
81.48000 12.372
81.50000 11.220
81.52000 13.255
81.54000 13.286
81.56000 15.903
81.58000 17.824
81.60000 16.973
81.62000 13.857
81.64000 8.991
81.66000 14.157
81.68000 15.743
81.70000 15.666
81.72000 15.241
81.74000 14.165
81.76000 13.930
81.78000 21.897
81.80000 19.067
81.82000 20.296
81.84000 20.861
81.86000 17.935
81.88000 16.259
81.90000 13.697
81.92000 16.975
81.94000 20.483
81.96000 20.074
81.98000 20.146
82.00000 22.051
82.02000 18.929
82.04000 18.843
82.06000 14.324
82.08000 17.862
82.10000 25.024
82.12000 21.420
82.14000 26.028
82.16000 24.133
82.18000 24.937
82.20000 23.245
82.22000 19.590
82.24000 24.940
82.26000 23.357
82.28000 28.387
82.30000 25.525
82.32000 28.796
82.34000 26.518
82.36000 29.060
82.38000 19.746
82.40000 16.283
82.42000 22.437
82.44000 24.456
82.46000 25.473
82.48000 24.880
82.50000 27.156
82.52000 27.757
82.54000 23.074
82.56000 27.909
82.58000 30.352
82.60000 29.227
82.62000 23.391
82.64000 15.717
82.66000 19.110
82.68000 26.259
82.70000 25.863
82.72000 19.899
82.74000 17.486
82.76000 20.458
82.78000 24.593
82.80000 24.175
82.82000 28.744
82.84000 25.912
82.86000 22.924
82.88000 20.111
82.90000 15.660
82.92000 18.935
82.94000 23.428
82.96000 19.758
82.98000 23.673
83.00000 19.977
83.02000 18.518
83.04000 15.152
83.06000 17.655
83.08000 22.694
83.10000 20.380
83.12000 16.256
83.14000 13.204
83.16000 14.838
83.18000 13.773
83.20000 9.114
83.22000 13.328
83.24000 16.793
83.26000 12.749
83.28000 17.624
83.30000 18.655
83.32000 12.967
83.34000 9.290
83.36000 13.153
83.38000 13.369
83.40000 9.278
83.42000 11.814
83.44000 4.454
83.46000 4.977
83.48000 12.426
83.50000 9.892
83.52000 8.256
83.54000 10.346
83.56000 3.080
83.58000 5.798
83.60000 8.004
83.62000 10.059
83.64000 15.792
83.66000 10.600
83.68000 4.267
83.70000 2.600
83.72000 3.953
83.74000 4.411
83.76000 3.946
83.78000 8.574
83.80000 9.020
83.82000 3.439
83.84000 4.969
83.86000 5.225
83.88000 6.281
83.90000 4.284
83.92000 1.960
83.94000 1.053
83.96000 2.901
83.98000 4.008
84.00000 6.214
84.02000 0.471
84.04000 5.876
84.06000 7.882
84.08000 7.139
84.10000 0.981
84.12000 -2.700
84.14000 -0.822
84.16000 3.700
84.18000 7.247
84.20000 8.581
84.22000 5.576
84.24000 5.757
84.26000 2.909
84.28000 3.132
84.30000 1.090
84.32000 -2.665
84.34000 -1.691
84.36000 1.928
84.38000 2.107
84.40000 1.495
84.42000 1.985
84.44000 3.662
84.46000 4.144
84.48000 5.053
84.50000 8.720
84.52000 6.623
84.54000 6.938
84.56000 6.610
84.58000 3.909
84.60000 1.059
84.62000 0.963
84.64000 2.446
84.66000 2.680
84.68000 1.491
84.70000 5.708
84.72000 1.108
84.74000 -1.150
84.76000 -2.611
84.78000 0.658
84.80000 5.685
84.82000 12.893
84.84000 7.628
84.86000 3.130
84.88000 1.640
84.90000 5.408
84.92000 5.679
84.94000 3.218
84.96000 4.520
84.98000 7.405
85.00000 8.068
85.02000 10.218
85.04000 5.580
85.06000 1.181
85.08000 2.482
85.10000 4.788
85.12000 1.509
85.14000 -0.661
85.16000 4.289
85.18000 5.906
85.20000 2.230
85.22000 1.695
85.24000 -0.211
85.26000 -0.007
85.28000 6.413
85.30000 7.248
85.32000 0.270
85.34000 4.079
85.36000 3.163
85.38000 4.011
85.40000 1.684
85.42000 4.935
85.44000 9.888
85.46000 6.057
85.48000 2.536
85.50000 -2.614
85.52000 -0.099
85.54000 -0.653
85.56000 4.183
85.58000 6.297
85.60000 8.175
85.62000 4.974
85.64000 8.873
85.66000 10.134
85.68000 6.904
85.70000 11.291
85.72000 16.277
85.74000 16.133
85.76000 11.276
85.78000 7.986
85.80000 4.676
85.82000 7.501
85.84000 8.266
85.86000 6.856
85.88000 5.938
85.90000 11.195
85.92000 12.274
85.94000 18.344
85.96000 19.688
85.98000 13.761
86.00000 15.622
86.02000 15.893
86.04000 19.298
86.06000 15.065
86.08000 15.271
86.10000 20.826
86.12000 22.725
86.14000 16.153
86.16000 19.623
86.18000 18.798
86.20000 21.151
86.22000 26.608
86.24000 25.125
86.26000 24.227
86.28000 25.519
86.30000 28.420
86.32000 22.326
86.34000 22.508
86.36000 26.562
86.38000 18.347
86.40000 17.612
86.42000 20.216
86.44000 31.064
86.46000 32.915
86.48000 29.527
86.50000 27.423
86.52000 22.450
86.54000 24.649
86.56000 30.668
86.58000 35.566
86.60000 32.946
86.62000 37.586
86.64000 36.382
86.66000 32.090
86.68000 33.466
86.70000 31.989
86.72000 32.323
86.74000 33.388
86.76000 35.296
86.78000 32.137
86.80000 34.818
86.82000 31.077
86.84000 32.712
86.86000 35.923
86.88000 38.275
86.90000 31.677
86.92000 25.723
86.94000 29.110
86.96000 31.301
86.98000 37.249
87.00000 41.169
87.02000 29.998
87.04000 27.675
87.06000 31.702
87.08000 28.850
87.10000 27.708
87.12000 27.849
87.14000 26.284
87.16000 22.643
87.18000 19.957
87.20000 23.881
87.22000 23.307
87.24000 22.442
87.26000 19.110
87.28000 17.549
87.30000 20.964
87.32000 27.415
87.34000 27.493
87.36000 21.863
87.38000 24.575
87.40000 29.059
87.42000 27.878
87.44000 22.398
87.46000 15.845
87.48000 14.593
87.50000 15.650
87.52000 15.747
87.54000 14.604
87.56000 10.217
87.58000 12.688
87.60000 19.181
87.62000 15.809
87.64000 11.450
87.66000 11.719
87.68000 8.881
87.70000 5.644
87.72000 4.488
87.74000 16.087
87.76000 11.492
87.78000 9.557
87.80000 6.890
87.82000 6.494
87.84000 9.604
87.86000 8.104
87.88000 10.081
87.90000 10.595
87.92000 9.974
87.94000 9.668
87.96000 7.058
87.98000 8.434
88.00000 8.426
88.02000 10.687
88.04000 4.388
88.06000 2.765
88.08000 3.222
88.10000 5.203
88.12000 6.659
88.14000 6.710
88.16000 10.125
88.18000 4.493
88.20000 1.302
88.22000 2.159
88.24000 -0.127
88.26000 -2.509
88.28000 1.031
88.30000 3.434
88.32000 3.354
88.34000 -0.093
88.36000 3.397
88.38000 5.852
88.40000 -0.774
88.42000 -0.340
88.44000 6.181
88.46000 5.267
88.48000 0.161
88.50000 3.343
88.52000 8.295
88.54000 3.385
88.56000 4.803
88.58000 3.766
88.60000 2.879
88.62000 -0.299
88.64000 1.956
88.66000 0.799
88.68000 0.194
88.70000 2.494
88.72000 -2.180
88.74000 2.701
88.76000 6.850
88.78000 3.813
88.80000 1.896
88.82000 2.116
88.84000 2.204
88.86000 -1.080
88.88000 -1.606
88.90000 5.544
88.92000 -2.441
88.94000 -1.799
88.96000 1.344
88.98000 4.174
89.00000 -2.161
89.02000 3.820
89.04000 2.419
89.06000 0.014
89.08000 1.702
89.10000 5.104
89.12000 1.080
89.14000 4.985
89.16000 4.690
89.18000 5.595
89.20000 5.332
89.22000 0.007
89.24000 -2.408
89.26000 2.970
89.28000 2.724
89.30000 2.616
89.32000 4.649
89.34000 5.851
89.36000 2.536
89.38000 -2.402
89.40000 2.830
89.42000 2.985
89.44000 5.726
89.46000 6.064
89.48000 7.672
89.50000 3.043
89.52000 -2.332
89.54000 0.705
89.56000 7.775
89.58000 7.755
89.60000 3.199
89.62000 -0.565
89.64000 -1.275
89.66000 -2.147
89.68000 1.174
89.70000 2.124
89.72000 -1.579
89.74000 1.984
89.76000 2.643
89.78000 4.361
89.80000 3.784
89.82000 1.585
89.84000 -0.828
89.86000 2.437
89.88000 5.749
89.90000 5.995
89.92000 0.293
89.94000 3.200
89.96000 6.671
89.98000 4.380
90.00000 3.916
90.02000 4.209
90.04000 1.230
90.06000 3.846
90.08000 4.916
90.10000 4.229
90.12000 4.016
90.14000 4.150
90.16000 3.021
90.18000 0.871
90.20000 -0.932
90.22000 -2.352
90.24000 -0.087
90.26000 3.798
90.28000 2.984
90.30000 7.418
90.32000 9.874
90.34000 9.653
90.36000 3.150
90.38000 -2.344
90.40000 -0.169
90.42000 3.736
90.44000 2.004
90.46000 4.676
90.48000 0.758
90.50000 1.867
90.52000 2.096
90.54000 -0.486
90.56000 -1.991
90.58000 1.263
90.60000 -2.335
90.62000 -0.032
90.64000 3.550
90.66000 4.141
90.68000 4.101
90.70000 5.306
90.72000 5.240
90.74000 8.903
90.76000 8.949
90.78000 8.299
90.80000 -0.539
90.82000 -1.516
90.84000 -0.037
90.86000 2.223
90.88000 2.055
90.90000 2.498
90.92000 3.559
90.94000 3.326
90.96000 5.634
90.98000 7.050
91.00000 3.043
91.02000 6.609
91.04000 0.248
91.06000 -0.131
91.08000 3.251
91.10000 4.082
91.12000 2.737
91.14000 4.081
91.16000 0.847
91.18000 4.488
91.20000 -0.428
91.22000 1.397
91.24000 1.809
91.26000 -1.491
91.28000 2.371
91.30000 3.836
91.32000 2.279
91.34000 1.113
91.36000 0.002
91.38000 -1.459
91.40000 4.112
91.42000 7.627
91.44000 7.709
91.46000 4.642
91.48000 4.825
91.50000 1.656
91.52000 1.374
91.54000 1.993
91.56000 2.159
91.58000 8.128
91.60000 11.841
91.62000 7.751
91.64000 9.330
91.66000 6.004
91.68000 2.650
91.70000 3.445
91.72000 4.715
91.74000 5.260
91.76000 7.454
91.78000 6.132
91.80000 0.998
91.82000 -1.977
91.84000 2.401
91.86000 -2.312
91.88000 3.552
91.90000 6.733
91.92000 4.744
91.94000 5.386
91.96000 8.974
91.98000 9.791
92.00000 5.963
92.02000 1.111
92.04000 -1.658
92.06000 2.565
92.08000 3.155
92.10000 2.676
92.12000 12.755
92.14000 11.898
92.16000 8.772
92.18000 5.633
92.20000 3.038
92.22000 0.859
92.24000 6.262
92.26000 5.050
92.28000 4.971
92.30000 7.523
92.32000 5.863
92.34000 4.188
92.36000 7.037
92.38000 9.414
92.40000 8.287
92.42000 6.972
92.44000 4.395
92.46000 6.003
92.48000 5.740
92.50000 1.579
92.52000 2.134
92.54000 5.466
92.56000 4.250
92.58000 3.251
92.60000 2.624
92.62000 0.399
92.64000 1.478
92.66000 1.298
92.68000 0.675
92.70000 -0.219
92.72000 3.129
92.74000 -0.457
92.76000 2.322
92.78000 6.629
92.80000 12.369
92.82000 9.172
92.84000 4.969
92.86000 9.588
92.88000 11.695
92.90000 5.246
92.92000 2.113
92.94000 4.108
92.96000 3.333
92.98000 2.561
93.00000 1.679
93.02000 2.999
93.04000 1.257
93.06000 6.498
93.08000 4.281
93.10000 7.083
93.12000 5.750
93.14000 1.290
93.16000 6.704
93.18000 3.210
93.20000 -0.829
93.22000 2.334
93.24000 -2.300
93.26000 1.705
93.28000 9.928
93.30000 9.908
93.32000 8.319
93.34000 8.735
93.36000 4.445
93.38000 2.363
93.40000 6.339
93.42000 6.289
93.44000 12.951
93.46000 11.665
93.48000 8.967
93.50000 3.618
93.52000 5.249
93.54000 11.978
93.56000 11.030
93.58000 8.991
93.60000 9.676
93.62000 11.329
93.64000 8.399
93.66000 0.656
93.68000 6.601
93.70000 7.608
93.72000 11.252
93.74000 9.495
93.76000 0.834
93.78000 -2.294
93.80000 1.950
93.82000 8.048
93.84000 7.901
93.86000 6.708
93.88000 9.267
93.90000 7.493
93.92000 2.028
93.94000 2.658
93.96000 5.225
93.98000 12.176
94.00000 7.418
94.02000 1.756
94.04000 5.976
94.06000 4.690
94.08000 11.102
94.10000 5.070
94.12000 6.566
94.14000 3.105
94.16000 2.906
94.18000 6.993
94.20000 8.387
94.22000 5.911
94.24000 5.522
94.26000 5.474
94.28000 3.041
94.30000 4.828
94.32000 10.254
94.34000 4.601
94.36000 -0.449
94.38000 2.897
94.40000 3.761
94.42000 4.788
94.44000 3.197
94.46000 3.605
94.48000 5.541
94.50000 4.686
94.52000 5.900
94.54000 6.048
94.56000 4.904
94.58000 4.047
94.60000 7.056
94.62000 1.609
94.64000 -2.356
94.66000 -0.650
94.68000 2.699
94.70000 5.021
94.72000 6.782
94.74000 5.277
94.76000 4.982
94.78000 2.460
94.80000 -0.251
94.82000 0.054
94.84000 4.577
94.86000 12.445
94.88000 6.549
94.90000 -1.010
94.92000 2.074
94.94000 9.083
94.96000 4.129
94.98000 2.967
95.00000 6.526
95.02000 3.811
95.04000 5.148
95.06000 6.275
95.08000 5.460
95.10000 4.039
95.12000 2.243
95.14000 3.976
95.16000 5.968
95.18000 3.326
95.20000 2.746
95.22000 3.597
95.24000 1.858
95.26000 -0.939
95.28000 0.732
95.30000 2.049
95.32000 -0.262
95.34000 2.194
95.36000 -0.507
95.38000 3.463
95.40000 4.004
95.42000 2.163
95.44000 1.379
95.46000 3.489
95.48000 6.523
95.50000 9.263
95.52000 6.547
95.54000 1.232
95.56000 6.104
95.58000 3.425
95.60000 6.761
95.62000 4.838
95.64000 2.074
95.66000 -2.389
95.68000 -2.017
95.70000 2.973
95.72000 6.447
95.74000 2.928
95.76000 3.611
95.78000 2.527
95.80000 2.167
95.82000 2.923
95.84000 1.025
95.86000 2.222
95.88000 6.276
95.90000 2.424
95.92000 0.163
95.94000 3.096
95.96000 2.761
95.98000 0.575
96.00000 1.154
96.02000 1.188
96.04000 4.783
96.06000 5.669
96.08000 3.930
96.10000 1.328
96.12000 -1.134
96.14000 -0.015
96.16000 3.281
96.18000 2.877
96.20000 2.835
96.22000 1.305
96.24000 7.604
96.26000 8.952
96.28000 9.643
96.30000 3.349
96.32000 -0.515
96.34000 1.052
96.36000 4.123
96.38000 4.357
96.40000 3.485
96.42000 4.703
96.44000 10.332
96.46000 7.006
96.48000 1.917
96.50000 2.125
96.52000 3.099
96.54000 7.966
96.56000 5.330
96.58000 2.099
96.60000 5.565
96.62000 10.466
96.64000 6.079
96.66000 7.113
96.68000 5.223
96.70000 -2.366
96.72000 2.595
96.74000 5.167
96.76000 6.048
96.78000 5.642
96.80000 -0.358
96.82000 1.747
96.84000 7.259
96.86000 6.727
96.88000 9.944
96.90000 5.870
96.92000 13.894
96.94000 9.320
96.96000 10.281
96.98000 10.552
97.00000 7.443
97.02000 4.160
97.04000 5.014
97.06000 8.133
97.08000 11.643
97.10000 6.606
97.12000 0.992
97.14000 2.678
97.16000 7.400
97.18000 -1.064
97.20000 1.946
97.22000 6.963
97.24000 5.657
97.26000 9.551
97.28000 6.182
97.30000 1.070
97.32000 4.791
97.34000 3.721
97.36000 8.506
97.38000 11.451
97.40000 11.457
97.42000 4.791
97.44000 5.863
97.46000 0.960
97.48000 2.809
97.50000 2.334
97.52000 5.445
97.54000 15.318
97.56000 15.912
97.58000 6.955
97.60000 6.531
97.62000 2.606
97.64000 4.402
97.66000 5.950
97.68000 8.574
97.70000 10.409
97.72000 7.577
97.74000 10.265
97.76000 11.253
97.78000 13.763
97.80000 2.328
97.82000 -2.286
97.84000 1.707
97.86000 9.419
97.88000 7.873
97.90000 3.959
97.92000 9.218
97.94000 5.083
97.96000 0.960
97.98000 2.132
98.00000 4.771
98.02000 3.682
98.04000 5.642
98.06000 10.506
98.08000 2.126
98.10000 4.298
98.12000 7.335
98.14000 2.759
98.16000 2.527
98.18000 11.780
98.20000 13.122
98.22000 5.777
98.24000 4.919
98.26000 7.745
98.28000 1.794
98.30000 -0.762
98.32000 12.352
98.34000 8.225
98.36000 7.050
98.38000 8.398
98.40000 1.290
98.42000 5.715
98.44000 3.504
98.46000 4.042
98.48000 9.686
98.50000 4.856
98.52000 4.352
98.54000 8.574
98.56000 2.010
98.58000 8.645
98.60000 13.863
98.62000 11.376
98.64000 6.662
98.66000 7.600
98.68000 8.000
98.70000 2.311
98.72000 2.698
98.74000 5.273
98.76000 3.177
98.78000 3.057
98.80000 -2.903
98.82000 8.848
98.84000 7.706
98.86000 6.723
98.88000 3.898
98.90000 -0.727
98.92000 4.550
98.94000 1.053
98.96000 3.813
98.98000 -1.049
99.00000 3.729
99.02000 6.090
99.04000 -0.247
99.06000 0.264
99.08000 3.073
99.10000 3.028
99.12000 8.745
99.14000 11.684
99.16000 17.150
99.18000 8.981
99.20000 2.938
99.22000 5.190
99.24000 3.474
99.26000 1.490
99.28000 -1.769
99.30000 11.738
99.32000 9.954
99.34000 11.092
99.36000 1.326
99.38000 -2.344
99.40000 5.283
99.42000 2.883
99.44000 0.373
99.46000 -6.319
99.48000 12.174
99.50000 17.715
99.52000 8.538
99.54000 8.171
99.56000 -0.141
99.58000 -2.341
99.60000 11.864
99.62000 3.896
99.64000 -1.245
99.66000 7.619
99.68000 6.351
99.70000 2.707
99.72000 -2.389
99.74000 9.174
99.76000 12.384
99.78000 14.790
99.80000 8.430
99.82000 -0.814
99.84000 4.497
99.86000 0.766
99.88000 -2.404
99.90000 5.538
99.92000 2.179
99.94000 -0.868
99.96000 -2.513
99.98000 0.000
