'Id: "0011388" Comment: "Integrate frame 0011388_Au-Ir-Rh_Rh-rich_XRD-Mapping-116-0000.gfrmwith cursor Wedge Cursor #5" Operator: "B?rgel" Anode: "Cu" Wavelength: "1.5406" Scantype: "2Theta (TwoTheta)" TimePerStep: "1" X: "-40.5" Y: "-9" Z: "5.95" 
10.00000 0.000
10.02000 22.575
10.04000 29.155
10.06000 12.916
10.08000 2.860
10.10000 26.564
10.12000 12.983
10.14000 10.417
10.16000 22.527
10.18000 15.569
10.20000 -4.473
10.22000 5.312
10.24000 21.476
10.26000 26.373
10.28000 23.278
10.30000 26.468
10.32000 38.264
10.34000 20.831
10.36000 9.136
10.38000 14.243
10.40000 14.005
10.42000 20.477
10.44000 26.579
10.46000 33.275
10.48000 14.195
10.50000 3.604
10.52000 9.457
10.54000 10.159
10.56000 13.640
10.58000 20.661
10.60000 18.775
10.62000 21.634
10.64000 20.755
10.66000 10.745
10.68000 7.930
10.70000 12.898
10.72000 14.235
10.74000 22.356
10.76000 6.910
10.78000 7.697
10.80000 7.029
10.82000 14.537
10.84000 8.548
10.86000 -1.310
10.88000 4.950
10.90000 4.982
10.92000 16.753
10.94000 8.228
10.96000 11.551
10.98000 8.589
11.00000 5.471
11.02000 16.363
11.04000 21.000
11.06000 17.626
11.08000 10.073
11.10000 18.608
11.12000 20.907
11.14000 21.459
11.16000 11.693
11.18000 6.201
11.20000 5.170
11.22000 14.743
11.24000 19.500
11.26000 12.309
11.28000 18.674
11.30000 11.244
11.32000 8.551
11.34000 -4.479
11.36000 10.580
11.38000 15.117
11.40000 11.153
11.42000 17.876
11.44000 13.716
11.46000 11.049
11.48000 12.199
11.50000 4.951
11.52000 2.424
11.54000 5.177
11.56000 8.396
11.58000 15.176
11.60000 16.546
11.62000 12.085
11.64000 17.058
11.66000 18.693
11.68000 13.219
11.70000 17.478
11.72000 18.174
11.74000 13.256
11.76000 13.187
11.78000 12.425
11.80000 8.861
11.82000 6.976
11.84000 1.710
11.86000 -1.437
11.88000 2.809
11.90000 -4.477
11.92000 14.073
11.94000 12.035
11.96000 16.708
11.98000 16.319
12.00000 17.345
12.02000 18.995
12.04000 18.585
12.06000 23.397
12.08000 14.605
12.10000 13.582
12.12000 6.582
12.14000 1.282
12.16000 4.053
12.18000 9.204
12.20000 13.266
12.22000 14.413
12.24000 11.761
12.26000 9.671
12.28000 2.798
12.30000 1.744
12.32000 2.248
12.34000 4.590
12.36000 11.734
12.38000 13.260
12.40000 11.570
12.42000 3.883
12.44000 0.896
12.46000 11.094
12.48000 7.723
12.50000 13.162
12.52000 12.292
12.54000 10.861
12.56000 6.002
12.58000 11.240
12.60000 12.902
12.62000 6.290
12.64000 2.199
12.66000 10.250
12.68000 0.957
12.70000 9.507
12.72000 15.956
12.74000 7.186
12.76000 13.736
12.78000 12.746
12.80000 9.692
12.82000 4.936
12.84000 2.933
12.86000 -0.958
12.88000 7.302
12.90000 15.689
12.92000 1.172
12.94000 4.225
12.96000 9.138
12.98000 11.285
13.00000 5.652
13.02000 4.100
13.04000 8.509
13.06000 13.008
13.08000 16.353
13.10000 14.727
13.12000 3.171
13.14000 11.943
13.16000 12.228
13.18000 10.294
13.20000 13.944
13.22000 13.556
13.24000 8.465
13.26000 7.292
13.28000 19.869
13.30000 13.094
13.32000 10.195
13.34000 7.450
13.36000 7.663
13.38000 11.923
13.40000 16.544
13.42000 11.248
13.44000 10.281
13.46000 6.323
13.48000 13.942
13.50000 18.110
13.52000 12.981
13.54000 10.398
13.56000 11.624
13.58000 9.045
13.60000 12.820
13.62000 10.956
13.64000 2.675
13.66000 4.874
13.68000 2.916
13.70000 7.082
13.72000 15.133
13.74000 12.403
13.76000 3.431
13.78000 9.379
13.80000 11.509
13.82000 9.231
13.84000 13.346
13.86000 8.551
13.88000 12.906
13.90000 15.209
13.92000 7.199
13.94000 11.966
13.96000 22.261
13.98000 5.745
14.00000 2.155
14.02000 3.111
14.04000 0.897
14.06000 4.878
14.08000 1.598
14.10000 3.680
14.12000 12.519
14.14000 15.103
14.16000 10.000
14.18000 13.620
14.20000 13.354
14.22000 12.411
14.24000 15.770
14.26000 14.016
14.28000 21.511
14.30000 14.063
14.32000 12.260
14.34000 11.833
14.36000 13.815
14.38000 18.974
14.40000 14.391
14.42000 16.794
14.44000 13.474
14.46000 4.926
14.48000 -4.434
14.50000 9.184
14.52000 20.983
14.54000 13.624
14.56000 15.297
14.58000 17.248
14.60000 14.874
14.62000 19.932
14.64000 15.818
14.66000 -0.897
14.68000 0.149
14.70000 6.359
14.72000 2.388
14.74000 6.984
14.76000 13.587
14.78000 12.195
14.80000 7.599
14.82000 12.576
14.84000 16.795
14.86000 17.011
14.88000 8.333
14.90000 9.521
14.92000 9.091
14.94000 8.112
14.96000 17.076
14.98000 16.534
15.00000 18.930
15.02000 11.064
15.04000 1.786
15.06000 1.662
15.08000 5.448
15.10000 2.317
15.12000 1.772
15.14000 4.206
15.16000 10.845
15.18000 6.499
15.20000 2.483
15.22000 -3.300
15.24000 -0.610
15.26000 11.078
15.28000 13.214
15.30000 10.665
15.32000 5.223
15.34000 3.680
15.36000 1.197
15.38000 -0.849
15.40000 -3.818
15.42000 -1.401
15.44000 4.985
15.46000 4.340
15.48000 14.535
15.50000 11.220
15.52000 4.250
15.54000 5.693
15.56000 1.106
15.58000 -0.757
15.60000 -0.694
15.62000 5.043
15.64000 6.851
15.66000 8.766
15.68000 4.045
15.70000 0.849
15.72000 -4.434
15.74000 2.814
15.76000 10.855
15.78000 2.168
15.80000 0.676
15.82000 4.949
15.84000 7.237
15.86000 7.862
15.88000 4.937
15.90000 3.789
15.92000 0.481
15.94000 7.658
15.96000 7.925
15.98000 -0.663
16.00000 6.237
16.02000 11.493
16.04000 10.451
16.06000 5.515
16.08000 1.262
16.10000 9.254
16.12000 9.137
16.14000 4.035
16.16000 14.277
16.18000 12.055
16.20000 4.956
16.22000 4.722
16.24000 9.307
16.26000 8.409
16.28000 11.000
16.30000 14.137
16.32000 9.148
16.34000 7.408
16.36000 4.287
16.38000 2.184
16.40000 1.675
16.42000 3.739
16.44000 9.324
16.46000 7.868
16.48000 4.220
16.50000 7.708
16.52000 3.081
16.54000 1.291
16.56000 5.392
16.58000 7.260
16.60000 0.533
16.62000 -2.253
16.64000 5.593
16.66000 7.124
16.68000 -0.708
16.70000 4.152
16.72000 7.950
16.74000 6.445
16.76000 12.609
16.78000 0.854
16.80000 -4.403
16.82000 1.162
16.84000 5.582
16.86000 -1.851
16.88000 4.580
16.90000 11.597
16.92000 3.032
16.94000 7.859
16.96000 17.276
16.98000 14.760
17.00000 11.202
17.02000 2.336
17.04000 12.074
17.06000 10.330
17.08000 3.273
17.10000 3.234
17.12000 4.109
17.14000 13.387
17.16000 16.021
17.18000 9.666
17.20000 4.683
17.22000 2.875
17.24000 6.825
17.26000 10.715
17.28000 7.292
17.30000 8.440
17.32000 7.319
17.34000 2.976
17.36000 3.922
17.38000 5.102
17.40000 13.156
17.42000 6.530
17.44000 0.249
17.46000 5.554
17.48000 9.078
17.50000 1.158
17.52000 0.151
17.54000 0.245
17.56000 0.010
17.58000 7.005
17.60000 8.343
17.62000 3.042
17.64000 2.049
17.66000 5.391
17.68000 7.311
17.70000 10.000
17.72000 8.449
17.74000 0.584
17.76000 8.994
17.78000 9.012
17.80000 3.953
17.82000 4.318
17.84000 9.946
17.86000 11.593
17.88000 14.645
17.90000 9.154
17.92000 4.041
17.94000 3.328
17.96000 10.134
17.98000 7.512
18.00000 4.424
18.02000 1.625
18.04000 -4.312
18.06000 -1.763
18.08000 4.884
18.10000 0.207
18.12000 6.157
18.14000 4.522
18.16000 0.722
18.18000 2.188
18.20000 10.176
18.22000 8.355
18.24000 3.673
18.26000 0.603
18.28000 6.505
18.30000 3.909
18.32000 -0.424
18.34000 3.702
18.36000 17.427
18.38000 18.085
18.40000 11.266
18.42000 7.414
18.44000 7.466
18.46000 7.428
18.48000 11.191
18.50000 9.143
18.52000 6.013
18.54000 6.138
18.56000 5.507
18.58000 7.283
18.60000 2.774
18.62000 4.843
18.64000 10.996
18.66000 8.414
18.68000 0.365
18.70000 2.937
18.72000 8.397
18.74000 13.529
18.76000 6.700
18.78000 2.671
18.80000 8.660
18.82000 1.877
18.84000 -0.724
18.86000 -4.238
18.88000 0.527
18.90000 0.769
18.92000 -1.456
18.94000 8.583
18.96000 7.694
18.98000 9.400
19.00000 10.899
19.02000 1.582
19.04000 4.774
19.06000 12.882
19.08000 15.618
19.10000 7.573
19.12000 6.074
19.14000 7.616
19.16000 12.767
19.18000 11.085
19.20000 12.277
19.22000 1.882
19.24000 1.084
19.26000 3.911
19.28000 9.343
19.30000 12.916
19.32000 13.254
19.34000 14.108
19.36000 15.211
19.38000 12.304
19.40000 16.196
19.42000 14.621
19.44000 8.764
19.46000 7.190
19.48000 2.815
19.50000 1.686
19.52000 5.474
19.54000 8.827
19.56000 10.564
19.58000 11.871
19.60000 13.501
19.62000 7.197
19.64000 -4.178
19.66000 -1.325
19.68000 4.154
19.70000 5.325
19.72000 7.002
19.74000 4.855
19.76000 -2.262
19.78000 3.738
19.80000 10.607
19.82000 6.427
19.84000 6.914
19.86000 14.692
19.88000 10.873
19.90000 11.281
19.92000 9.663
19.94000 6.388
19.96000 7.264
19.98000 8.200
20.00000 7.168
20.02000 1.000
20.04000 3.301
20.06000 9.425
20.08000 6.445
20.10000 -0.363
20.12000 0.796
20.14000 7.666
20.16000 11.437
20.18000 10.695
20.20000 6.883
20.22000 6.000
20.24000 2.721
20.26000 8.622
20.28000 7.616
20.30000 10.284
20.32000 3.844
20.34000 3.708
20.36000 12.105
20.38000 12.504
20.40000 8.460
20.42000 12.441
20.44000 9.702
20.46000 8.990
20.48000 2.698
20.50000 2.727
20.52000 0.296
20.54000 2.951
20.56000 2.279
20.58000 7.494
20.60000 9.102
20.62000 10.376
20.64000 4.673
20.66000 7.243
20.68000 2.400
20.70000 2.887
20.72000 7.551
20.74000 3.163
20.76000 2.794
20.78000 1.683
20.80000 5.588
20.82000 10.181
20.84000 4.091
20.86000 6.631
20.88000 3.929
20.90000 0.337
20.92000 5.455
20.94000 2.445
20.96000 9.566
20.98000 10.373
21.00000 3.202
21.02000 1.420
21.04000 4.738
21.06000 4.791
21.08000 6.332
21.10000 1.130
21.12000 -2.512
21.14000 -0.309
21.16000 5.145
21.18000 3.372
21.20000 7.040
21.22000 10.810
21.24000 11.056
21.26000 10.273
21.28000 12.697
21.30000 6.165
21.32000 5.660
21.34000 1.502
21.36000 0.980
21.38000 -1.828
21.40000 1.920
21.42000 10.048
21.44000 9.213
21.46000 11.273
21.48000 7.288
21.50000 5.454
21.52000 7.686
21.54000 16.601
21.56000 11.060
21.58000 11.323
21.60000 15.222
21.62000 7.309
21.64000 -3.386
21.66000 0.156
21.68000 3.959
21.70000 2.032
21.72000 6.471
21.74000 9.641
21.76000 9.667
21.78000 8.875
21.80000 9.651
21.82000 9.005
21.84000 11.668
21.86000 8.104
21.88000 4.348
21.90000 10.789
21.92000 11.120
21.94000 8.233
21.96000 10.484
21.98000 12.425
22.00000 5.887
22.02000 4.075
22.04000 6.150
22.06000 -4.060
22.08000 3.678
22.10000 3.563
22.12000 5.598
22.14000 7.928
22.16000 11.603
22.18000 17.034
22.20000 12.844
22.22000 7.591
22.24000 3.820
22.26000 6.598
22.28000 14.705
22.30000 10.464
22.32000 8.027
22.34000 2.882
22.36000 2.701
22.38000 6.984
22.40000 7.380
22.42000 9.586
22.44000 6.514
22.46000 3.673
22.48000 7.007
22.50000 5.190
22.52000 7.842
22.54000 12.629
22.56000 12.884
22.58000 10.384
22.60000 5.059
22.62000 1.315
22.64000 2.267
22.66000 3.032
22.68000 11.757
22.70000 11.846
22.72000 3.723
22.74000 5.261
22.76000 3.587
22.78000 4.012
22.80000 5.106
22.82000 -0.827
22.84000 2.479
22.86000 13.056
22.88000 12.668
22.90000 8.558
22.92000 9.555
22.94000 7.910
22.96000 7.511
22.98000 8.632
23.00000 10.650
23.02000 9.346
23.04000 10.275
23.06000 7.025
23.08000 1.344
23.10000 -1.870
23.12000 2.194
23.14000 -0.618
23.16000 1.222
23.18000 6.780
23.20000 8.739
23.22000 1.276
23.24000 3.665
23.26000 8.685
23.28000 8.036
23.30000 1.973
23.32000 -3.996
23.34000 -1.511
23.36000 8.036
23.38000 6.622
23.40000 5.744
23.42000 9.223
23.44000 10.240
23.46000 11.146
23.48000 3.967
23.50000 4.077
23.52000 3.403
23.54000 8.651
23.56000 11.980
23.58000 6.197
23.60000 4.186
23.62000 2.118
23.64000 2.749
23.66000 2.054
23.68000 6.049
23.70000 1.640
23.72000 0.939
23.74000 5.088
23.76000 7.998
23.78000 9.023
23.80000 9.226
23.82000 8.782
23.84000 8.195
23.86000 6.340
23.88000 -0.788
23.90000 -2.083
23.92000 1.945
23.94000 1.013
23.96000 0.927
23.98000 2.973
24.00000 3.897
24.02000 1.909
24.04000 3.801
24.06000 2.684
24.08000 0.081
24.10000 -2.255
24.12000 1.101
24.14000 -0.613
24.16000 2.784
24.18000 3.784
24.20000 3.164
24.22000 4.200
24.24000 0.257
24.26000 3.398
24.28000 2.851
24.30000 1.079
24.32000 0.260
24.34000 3.410
24.36000 9.101
24.38000 8.465
24.40000 -0.289
24.42000 2.577
24.44000 2.935
24.46000 4.914
24.48000 7.265
24.50000 4.259
24.52000 6.029
24.54000 2.707
24.56000 4.293
24.58000 5.339
24.60000 2.311
24.62000 0.350
24.64000 1.289
24.66000 -2.336
24.68000 1.262
24.70000 2.122
24.72000 5.168
24.74000 -1.364
24.76000 -1.711
24.78000 1.526
24.80000 -0.388
24.82000 0.644
24.84000 -1.872
24.86000 -0.912
24.88000 4.773
24.90000 8.140
24.92000 7.477
24.94000 3.267
24.96000 3.956
24.98000 2.644
25.00000 2.975
25.02000 -2.850
25.04000 -1.983
25.06000 8.809
25.08000 6.465
25.10000 -1.723
25.12000 -3.944
25.14000 1.289
25.16000 8.627
25.18000 10.426
25.20000 1.695
25.22000 2.119
25.24000 1.392
25.26000 -1.105
25.28000 -0.508
25.30000 -1.873
25.32000 2.319
25.34000 2.366
25.36000 4.405
25.38000 1.986
25.40000 -2.605
25.42000 -3.635
25.44000 -1.180
25.46000 3.212
25.48000 6.958
25.50000 8.453
25.52000 -0.369
25.54000 3.386
25.56000 6.792
25.58000 0.561
25.60000 -1.374
25.62000 7.931
25.64000 8.712
25.66000 7.253
25.68000 5.055
25.70000 0.887
25.72000 -0.616
25.74000 5.503
25.76000 3.162
25.78000 0.472
25.80000 3.555
25.82000 5.778
25.84000 4.371
25.86000 0.437
25.88000 -0.938
25.90000 -1.489
25.92000 2.539
25.94000 2.752
25.96000 1.169
25.98000 4.016
26.00000 4.938
26.02000 -2.862
26.04000 -3.882
26.06000 3.727
26.08000 4.990
26.10000 12.118
26.12000 11.082
26.14000 2.824
26.16000 1.974
26.18000 3.808
26.20000 3.210
26.22000 2.978
26.24000 3.557
26.26000 1.543
26.28000 3.730
26.30000 2.543
26.32000 3.454
26.34000 5.025
26.36000 3.495
26.38000 0.995
26.40000 0.430
26.42000 2.991
26.44000 -3.858
26.46000 -3.188
26.48000 0.254
26.50000 3.853
26.52000 1.165
26.54000 1.924
26.56000 4.653
26.58000 4.592
26.60000 2.137
26.62000 3.242
26.64000 1.819
26.66000 1.440
26.68000 2.495
26.70000 0.239
26.72000 1.846
26.74000 1.539
26.76000 3.462
26.78000 1.519
26.80000 3.583
26.82000 10.909
26.84000 7.788
26.86000 4.485
26.88000 6.217
26.90000 4.220
26.92000 4.358
26.94000 1.085
26.96000 2.395
26.98000 8.123
27.00000 11.427
27.02000 8.954
27.04000 5.632
27.06000 8.347
27.08000 1.286
27.10000 2.753
27.12000 -1.082
27.14000 -0.169
27.16000 3.639
27.18000 -0.778
27.20000 -3.806
27.22000 -2.615
27.24000 1.305
27.26000 0.002
27.28000 -2.928
27.30000 0.242
27.32000 3.697
27.34000 10.808
27.36000 10.896
27.38000 3.600
27.40000 2.179
27.42000 3.697
27.44000 6.023
27.46000 1.533
27.48000 1.755
27.50000 -1.907
27.52000 3.734
27.54000 5.424
27.56000 7.186
27.58000 2.060
27.60000 2.400
27.62000 3.127
27.64000 0.372
27.66000 -3.559
27.68000 3.424
27.70000 11.312
27.72000 7.068
27.74000 5.638
27.76000 1.738
27.78000 2.028
27.80000 -1.721
27.82000 1.979
27.84000 9.496
27.86000 3.886
27.88000 1.125
27.90000 2.202
27.92000 0.027
27.94000 -1.903
27.96000 -0.344
27.98000 3.028
28.00000 3.454
28.02000 4.236
28.04000 1.830
28.06000 3.370
28.08000 2.489
28.10000 0.533
28.12000 3.277
28.14000 -1.084
28.16000 -2.077
28.18000 0.020
28.20000 5.615
28.22000 2.370
28.24000 6.448
28.26000 5.691
28.28000 3.988
28.30000 2.351
28.32000 2.247
28.34000 2.114
28.36000 0.884
28.38000 -0.580
28.40000 2.199
28.42000 2.693
28.44000 0.938
28.46000 0.328
28.48000 1.291
28.50000 -3.631
28.52000 -3.066
28.54000 2.588
28.56000 6.396
28.58000 5.648
28.60000 2.042
28.62000 3.402
28.64000 1.175
28.66000 5.018
28.68000 2.832
28.70000 3.770
28.72000 2.670
28.74000 4.206
28.76000 3.506
28.78000 8.302
28.80000 8.020
28.82000 5.464
28.84000 -3.267
28.86000 -1.112
28.88000 3.571
28.90000 5.480
28.92000 2.303
28.94000 1.190
28.96000 6.500
28.98000 9.372
29.00000 7.142
29.02000 8.343
29.04000 4.744
29.06000 1.110
29.08000 1.457
29.10000 1.772
29.12000 6.226
29.14000 10.779
29.16000 2.568
29.18000 2.181
29.20000 0.280
29.22000 3.464
29.24000 0.194
29.26000 -3.698
29.28000 -0.273
29.30000 1.616
29.32000 3.581
29.34000 6.614
29.36000 1.256
29.38000 5.702
29.40000 3.929
29.42000 3.957
29.44000 4.042
29.46000 3.709
29.48000 2.604
29.50000 2.788
29.52000 5.792
29.54000 2.624
29.56000 0.602
29.58000 3.054
29.60000 2.600
29.62000 -1.241
29.64000 5.794
29.66000 7.480
29.68000 6.800
29.70000 8.209
29.72000 5.295
29.74000 2.714
29.76000 3.716
29.78000 2.656
29.80000 3.939
29.82000 2.050
29.84000 1.430
29.86000 2.189
29.88000 1.592
29.90000 -2.778
29.92000 1.196
29.94000 -0.295
29.96000 6.236
29.98000 2.008
30.00000 3.939
30.02000 0.825
30.04000 0.992
30.06000 3.958
30.08000 6.877
30.10000 3.415
30.12000 -0.909
30.14000 0.512
30.16000 3.609
30.18000 3.752
30.20000 3.181
30.22000 3.266
30.24000 3.644
30.26000 4.545
30.28000 0.359
30.30000 -1.333
30.32000 3.429
30.34000 4.392
30.36000 3.950
30.38000 2.825
30.40000 2.511
30.42000 7.903
30.44000 5.122
30.46000 -1.611
30.48000 -1.861
30.50000 -3.637
30.52000 1.148
30.54000 5.594
30.56000 9.321
30.58000 5.421
30.60000 5.633
30.62000 10.934
30.64000 6.269
30.66000 4.052
30.68000 2.829
30.70000 3.393
30.72000 2.456
30.74000 4.773
30.76000 0.677
30.78000 2.727
30.80000 6.432
30.82000 3.669
30.84000 1.714
30.86000 4.518
30.88000 7.964
30.90000 4.829
30.92000 1.819
30.94000 5.627
30.96000 9.152
30.98000 8.040
31.00000 8.457
31.02000 7.505
31.04000 3.898
31.06000 0.603
31.08000 2.309
31.10000 -2.475
31.12000 -0.217
31.14000 5.309
31.16000 8.289
31.18000 0.946
31.20000 -0.857
31.22000 -1.092
31.24000 7.171
31.26000 6.630
31.28000 4.511
31.30000 0.934
31.32000 4.459
31.34000 2.754
31.36000 2.429
31.38000 -0.497
31.40000 -2.083
31.42000 -0.089
31.44000 0.192
31.46000 1.671
31.48000 1.311
31.50000 1.722
31.52000 -0.629
31.54000 -0.516
31.56000 -0.124
31.58000 -3.602
31.60000 -1.990
31.62000 2.994
31.64000 1.952
31.66000 3.897
31.68000 0.778
31.70000 -0.631
31.72000 2.689
31.74000 -0.243
31.76000 -3.607
31.78000 -0.215
31.80000 -1.929
31.82000 2.287
31.84000 2.543
31.86000 2.967
31.88000 2.754
31.90000 -0.638
31.92000 -0.429
31.94000 1.331
31.96000 -1.401
31.98000 0.478
32.00000 0.931
32.02000 3.118
32.04000 3.614
32.06000 0.076
32.08000 -2.223
32.10000 -0.685
32.12000 -1.501
32.14000 -0.526
32.16000 -0.460
32.18000 0.354
32.20000 1.637
32.22000 1.288
32.24000 7.403
32.26000 3.653
32.28000 1.815
32.30000 0.827
32.32000 1.278
32.34000 -0.730
32.36000 2.844
32.38000 4.004
32.40000 2.913
32.42000 1.072
32.44000 5.513
32.46000 2.589
32.48000 2.271
32.50000 5.043
32.52000 1.498
32.54000 -3.562
32.56000 2.703
32.58000 -0.253
32.60000 0.658
32.62000 4.666
32.64000 7.915
32.66000 1.611
32.68000 4.827
32.70000 1.808
32.72000 -0.750
32.74000 -3.313
32.76000 -3.584
32.78000 -0.092
32.80000 0.901
32.82000 -0.032
32.84000 0.528
32.86000 -0.403
32.88000 -1.212
32.90000 -1.325
32.92000 5.091
32.94000 4.257
32.96000 -2.350
32.98000 2.178
33.00000 6.207
33.02000 2.365
33.04000 -2.526
33.06000 0.024
33.08000 -3.568
33.10000 -2.451
33.12000 -1.151
33.14000 2.438
33.16000 1.295
33.18000 0.291
33.20000 -2.496
33.22000 -0.490
33.24000 -1.294
33.26000 0.497
33.28000 3.237
33.30000 2.076
33.32000 2.849
33.34000 4.383
33.36000 2.243
33.38000 4.353
33.40000 6.511
33.42000 1.418
33.44000 0.807
33.46000 -1.513
33.48000 0.914
33.50000 5.340
33.52000 4.151
33.54000 -0.003
33.56000 2.982
33.58000 -0.144
33.60000 1.611
33.62000 3.878
33.64000 5.950
33.66000 7.921
33.68000 6.017
33.70000 -0.968
33.72000 2.443
33.74000 2.584
33.76000 5.924
33.78000 5.234
33.80000 2.870
33.82000 2.040
33.84000 0.009
33.86000 -3.532
33.88000 0.588
33.90000 4.254
33.92000 4.309
33.94000 3.731
33.96000 6.115
33.98000 6.063
34.00000 2.084
34.02000 -2.239
34.04000 -1.113
34.06000 2.397
34.08000 1.985
34.10000 2.766
34.12000 6.401
34.14000 6.044
34.16000 3.645
34.18000 4.213
34.20000 3.134
34.22000 3.579
34.24000 5.306
34.26000 0.062
34.28000 -0.841
34.30000 3.746
34.32000 6.577
34.34000 2.895
34.36000 4.064
34.38000 3.000
34.40000 -0.598
34.42000 0.066
34.44000 2.594
34.46000 1.769
34.48000 0.913
34.50000 -1.305
34.52000 1.724
34.54000 3.637
34.56000 4.071
34.58000 2.455
34.60000 4.106
34.62000 0.868
34.64000 -3.508
34.66000 -2.530
34.68000 -2.199
34.70000 -3.420
34.72000 -1.136
34.74000 0.793
34.76000 5.335
34.78000 5.656
34.80000 3.526
34.82000 1.792
34.84000 5.217
34.86000 4.691
34.88000 -0.426
34.90000 3.275
34.92000 4.768
34.94000 4.229
34.96000 4.271
34.98000 2.023
35.00000 3.896
35.02000 2.374
35.04000 -2.053
35.06000 0.917
35.08000 2.864
35.10000 3.395
35.12000 5.498
35.14000 0.252
35.16000 -0.603
35.18000 1.075
35.20000 -0.708
35.22000 -3.496
35.24000 -0.666
35.26000 3.708
35.28000 2.611
35.30000 2.444
35.32000 4.920
35.34000 3.670
35.36000 -0.911
35.38000 -3.396
35.40000 -3.012
35.42000 -0.438
35.44000 1.492
35.46000 1.658
35.48000 -0.728
35.50000 -1.252
35.52000 1.786
35.54000 2.593
35.56000 -0.178
35.58000 -1.251
35.60000 5.138
35.62000 4.307
35.64000 1.053
35.66000 -1.631
35.68000 -2.986
35.70000 -0.362
35.72000 4.200
35.74000 7.524
35.76000 0.636
35.78000 -0.295
35.80000 -0.370
35.82000 0.878
35.84000 -3.493
35.86000 2.497
35.88000 -0.243
35.90000 1.989
35.92000 -0.223
35.94000 1.354
35.96000 1.579
35.98000 8.972
36.00000 9.757
36.02000 3.058
36.04000 2.719
36.06000 -0.089
36.08000 2.005
36.10000 1.146
36.12000 1.110
36.14000 4.843
36.16000 5.150
36.18000 3.447
36.20000 -1.790
36.22000 2.676
36.24000 3.162
36.26000 -0.157
36.28000 2.422
36.30000 -0.666
36.32000 -1.075
36.34000 -1.829
36.36000 -1.041
36.38000 -0.347
36.40000 4.240
36.42000 4.318
36.44000 -1.982
36.46000 -2.460
36.48000 -2.462
36.50000 1.533
36.52000 4.832
36.54000 6.363
36.56000 4.554
36.58000 3.970
36.60000 2.523
36.62000 2.483
36.64000 -0.096
36.66000 6.902
36.68000 7.305
36.70000 4.503
36.72000 -0.163
36.74000 4.556
36.76000 0.848
36.78000 -3.236
36.80000 -3.524
36.82000 -0.775
36.84000 -2.368
36.86000 2.981
36.88000 4.901
36.90000 4.687
36.92000 5.149
36.94000 4.662
36.96000 4.102
36.98000 1.218
37.00000 -1.904
37.02000 -3.159
37.04000 0.288
37.06000 1.039
37.08000 3.820
37.10000 4.479
37.12000 0.653
37.14000 -3.003
37.16000 -2.280
37.18000 0.200
37.20000 3.250
37.22000 3.988
37.24000 4.006
37.26000 0.902
37.28000 5.802
37.30000 6.292
37.32000 3.413
37.34000 3.233
37.36000 2.996
37.38000 -1.489
37.40000 -3.549
37.42000 2.824
37.44000 2.650
37.46000 1.008
37.48000 -0.226
37.50000 6.860
37.52000 6.442
37.54000 7.009
37.56000 4.099
37.58000 1.399
37.60000 5.179
37.62000 6.640
37.64000 5.922
37.66000 0.362
37.68000 3.068
37.70000 4.222
37.72000 5.412
37.74000 4.247
37.76000 3.322
37.78000 4.290
37.80000 5.108
37.82000 9.029
37.84000 12.121
37.86000 5.938
37.88000 6.685
37.90000 3.335
37.92000 2.458
37.94000 7.226
37.96000 8.304
37.98000 4.423
38.00000 5.136
38.02000 -0.145
38.04000 4.414
38.06000 9.565
38.08000 6.197
38.10000 5.363
38.12000 7.633
38.14000 8.752
38.16000 10.068
38.18000 12.604
38.20000 16.087
38.22000 9.752
38.24000 12.125
38.26000 16.009
38.28000 15.301
38.30000 15.091
38.32000 17.014
38.34000 16.603
38.36000 15.847
38.38000 11.665
38.40000 10.394
38.42000 9.591
38.44000 15.814
38.46000 21.206
38.48000 21.265
38.50000 26.207
38.52000 25.739
38.54000 20.068
38.56000 16.779
38.58000 24.139
38.60000 17.112
38.62000 15.125
38.64000 16.023
38.66000 21.896
38.68000 24.027
38.70000 22.549
38.72000 24.502
38.74000 24.810
38.76000 28.040
38.78000 27.859
38.80000 33.065
38.82000 27.031
38.84000 29.169
38.86000 31.051
38.88000 29.738
38.90000 33.579
38.92000 34.183
38.94000 33.488
38.96000 33.404
38.98000 34.866
39.00000 41.173
39.02000 47.056
39.04000 50.206
39.06000 49.593
39.08000 50.440
39.10000 48.319
39.12000 50.316
39.14000 53.144
39.16000 52.545
39.18000 53.811
39.20000 58.064
39.22000 64.701
39.24000 64.285
39.26000 65.733
39.28000 68.352
39.30000 66.934
39.32000 69.005
39.34000 76.108
39.36000 79.761
39.38000 87.366
39.40000 94.810
39.42000 94.350
39.44000 102.191
39.46000 108.348
39.48000 106.111
39.50000 108.575
39.52000 108.848
39.54000 119.280
39.56000 123.924
39.58000 139.464
39.60000 139.685
39.62000 145.056
39.64000 150.495
39.66000 157.995
39.68000 162.547
39.70000 180.729
39.72000 198.990
39.74000 207.349
39.76000 210.366
39.78000 222.047
39.80000 231.089
39.82000 240.883
39.84000 253.494
39.86000 271.432
39.88000 287.043
39.90000 308.505
39.92000 320.269
39.94000 330.116
39.96000 344.433
39.98000 359.356
40.00000 374.388
40.02000 394.756
40.04000 411.854
40.06000 430.724
40.08000 455.340
40.10000 474.554
40.12000 479.932
40.14000 498.153
40.16000 512.206
40.18000 529.719
40.20000 540.628
40.22000 549.415
40.24000 566.611
40.26000 575.337
40.28000 588.746
40.30000 599.728
40.32000 598.164
40.34000 595.912
40.36000 591.203
40.38000 601.926
40.40000 612.173
40.42000 617.389
40.44000 602.253
40.46000 593.340
40.48000 587.959
40.50000 569.165
40.52000 549.153
40.54000 541.613
40.56000 534.371
40.58000 527.688
40.60000 513.379
40.62000 500.409
40.64000 488.975
40.66000 461.922
40.68000 446.451
40.70000 430.459
40.72000 405.079
40.74000 399.734
40.76000 383.089
40.78000 368.796
40.80000 348.383
40.82000 325.652
40.84000 313.260
40.86000 296.442
40.88000 277.282
40.90000 265.616
40.92000 252.093
40.94000 243.730
40.96000 221.724
40.98000 208.447
41.00000 198.410
41.02000 189.308
41.04000 180.966
41.06000 171.805
41.08000 157.995
41.10000 150.321
41.12000 149.465
41.14000 140.338
41.16000 126.050
41.18000 119.249
41.20000 113.577
41.22000 107.116
41.24000 104.380
41.26000 95.024
41.28000 83.844
41.30000 80.928
41.32000 80.294
41.34000 74.941
41.36000 70.052
41.38000 67.950
41.40000 66.132
41.42000 62.090
41.44000 64.229
41.46000 63.102
41.48000 58.894
41.50000 46.290
41.52000 44.101
41.54000 42.964
41.56000 45.042
41.58000 43.049
41.60000 38.109
41.62000 37.334
41.64000 37.823
41.66000 36.513
41.68000 30.940
41.70000 25.361
41.72000 29.436
41.74000 27.339
41.76000 29.299
41.78000 26.844
41.80000 21.962
41.82000 21.250
41.84000 20.373
41.86000 14.814
41.88000 19.634
41.90000 22.386
41.92000 17.705
41.94000 14.088
41.96000 13.340
41.98000 14.745
42.00000 18.643
42.02000 14.228
42.04000 9.810
42.06000 11.575
42.08000 8.408
42.10000 5.592
42.12000 7.987
42.14000 4.647
42.16000 6.352
42.18000 5.821
42.20000 11.368
42.22000 9.732
42.24000 6.346
42.26000 5.726
42.28000 5.712
42.30000 8.756
42.32000 8.322
42.34000 3.612
42.36000 2.324
42.38000 6.110
42.40000 4.033
42.42000 1.456
42.44000 3.182
42.46000 3.754
42.48000 3.915
42.50000 1.254
42.52000 -0.974
42.54000 4.150
42.56000 6.470
42.58000 0.481
42.60000 -0.077
42.62000 5.657
42.64000 6.477
42.66000 6.301
42.68000 1.455
42.70000 -1.275
42.72000 -3.067
42.74000 4.976
42.76000 5.876
42.78000 2.729
42.80000 0.310
42.82000 -0.050
42.84000 -1.847
42.86000 -1.264
42.88000 0.136
42.90000 0.795
42.92000 -0.114
42.94000 0.007
42.96000 0.147
42.98000 -0.095
43.00000 -3.509
43.02000 -0.284
43.04000 2.609
43.06000 -2.386
43.08000 -2.320
43.10000 -1.361
43.12000 1.441
43.14000 5.308
43.16000 -0.269
43.18000 -2.318
43.20000 2.116
43.22000 1.392
43.24000 -0.066
43.26000 3.140
43.28000 1.994
43.30000 3.999
43.32000 3.200
43.34000 2.491
43.36000 7.084
43.38000 0.543
43.40000 -2.321
43.42000 1.160
43.44000 4.407
43.46000 3.110
43.48000 7.369
43.50000 4.720
43.52000 2.073
43.54000 0.901
43.56000 -3.437
43.58000 -0.394
43.60000 1.532
43.62000 1.800
43.64000 3.352
43.66000 6.960
43.68000 3.754
43.70000 1.878
43.72000 -0.066
43.74000 4.277
43.76000 3.438
43.78000 2.453
43.80000 2.072
43.82000 -1.043
43.84000 3.910
43.86000 6.043
43.88000 3.385
43.90000 -3.056
43.92000 -3.432
43.94000 -1.298
43.96000 2.274
43.98000 0.742
44.00000 -0.198
44.02000 -0.575
44.04000 -2.679
44.06000 -1.175
44.08000 0.248
44.10000 0.702
44.12000 -2.596
44.14000 -1.035
44.16000 0.977
44.18000 0.172
44.20000 -0.329
44.22000 -0.889
44.24000 3.376
44.26000 3.305
44.28000 -2.598
44.30000 -0.909
44.32000 0.094
44.34000 0.673
44.36000 -0.596
44.38000 -0.458
44.40000 2.481
44.42000 5.144
44.44000 1.521
44.46000 1.541
44.48000 -1.750
44.50000 -1.538
44.52000 2.600
44.54000 0.374
44.56000 -3.374
44.58000 -2.462
44.60000 -0.706
44.62000 0.122
44.64000 0.267
44.66000 0.923
44.68000 -1.882
44.70000 -1.905
44.72000 -2.975
44.74000 -3.458
44.76000 -0.894
44.78000 2.351
44.80000 1.769
44.82000 4.405
44.84000 6.449
44.86000 4.595
44.88000 1.584
44.90000 0.809
44.92000 0.961
44.94000 3.012
44.96000 3.530
44.98000 2.940
45.00000 -2.312
45.02000 1.101
45.04000 4.105
45.06000 5.693
45.08000 2.519
45.10000 2.865
45.12000 7.413
45.14000 7.486
45.16000 6.459
45.18000 2.937
45.20000 6.119
45.22000 10.168
45.24000 9.983
45.26000 4.519
45.28000 2.205
45.30000 4.876
45.32000 9.015
45.34000 9.769
45.36000 9.394
45.38000 9.208
45.40000 14.474
45.42000 16.677
45.44000 14.416
45.46000 13.841
45.48000 14.166
45.50000 11.836
45.52000 10.075
45.54000 9.970
45.56000 15.082
45.58000 20.904
45.60000 18.078
45.62000 14.583
45.64000 13.268
45.66000 20.105
45.68000 16.743
45.70000 11.202
45.72000 18.188
45.74000 18.917
45.76000 15.629
45.78000 16.496
45.80000 23.994
45.82000 25.380
45.84000 25.472
45.86000 24.238
45.88000 26.319
45.90000 28.497
45.92000 28.509
45.94000 26.034
45.96000 27.350
45.98000 29.648
46.00000 30.885
46.02000 36.327
46.04000 36.041
46.06000 37.272
46.08000 36.278
46.10000 29.137
46.12000 33.483
46.14000 36.879
46.16000 42.116
46.18000 42.046
46.20000 48.116
46.22000 50.007
46.24000 52.677
46.26000 49.555
46.28000 49.450
46.30000 53.747
46.32000 54.716
46.34000 54.289
46.36000 61.546
46.38000 57.906
46.40000 56.424
46.42000 59.397
46.44000 64.315
46.46000 61.048
46.48000 64.822
46.50000 68.256
46.52000 73.593
46.54000 73.324
46.56000 71.056
46.58000 73.423
46.60000 71.183
46.62000 71.686
46.64000 75.224
46.66000 77.430
46.68000 80.613
46.70000 85.526
46.72000 84.767
46.74000 89.266
46.76000 84.975
46.78000 85.538
46.80000 82.459
46.82000 88.775
46.84000 87.281
46.86000 87.922
46.88000 96.987
46.90000 90.420
46.92000 92.919
46.94000 94.527
46.96000 93.069
46.98000 91.598
47.00000 92.061
47.02000 94.337
47.04000 95.058
47.06000 93.900
47.08000 90.631
47.10000 95.334
47.12000 97.122
47.14000 90.759
47.16000 93.761
47.18000 91.404
47.20000 87.357
47.22000 87.930
47.24000 86.465
47.26000 94.164
47.28000 91.111
47.30000 82.243
47.32000 79.426
47.34000 76.090
47.36000 82.493
47.38000 76.236
47.40000 74.933
47.42000 71.634
47.44000 68.723
47.46000 62.099
47.48000 61.952
47.50000 60.272
47.52000 62.589
47.54000 60.883
47.56000 55.160
47.58000 48.376
47.60000 47.157
47.62000 54.219
47.64000 48.544
47.66000 45.918
47.68000 42.591
47.70000 42.084
47.72000 38.360
47.74000 40.967
47.76000 37.666
47.78000 34.752
47.80000 32.142
47.82000 33.741
47.84000 27.984
47.86000 28.113
47.88000 32.135
47.90000 24.223
47.92000 19.905
47.94000 19.978
47.96000 18.624
47.98000 21.967
48.00000 22.523
48.02000 23.438
48.04000 24.747
48.06000 18.806
48.08000 18.773
48.10000 14.612
48.12000 13.726
48.14000 10.980
48.16000 9.310
48.18000 7.724
48.20000 7.923
48.22000 8.074
48.24000 13.564
48.26000 9.125
48.28000 10.076
48.30000 9.654
48.32000 6.123
48.34000 6.560
48.36000 7.305
48.38000 5.143
48.40000 4.381
48.42000 8.257
48.44000 7.206
48.46000 8.550
48.48000 8.680
48.50000 8.719
48.52000 4.408
48.54000 2.344
48.56000 1.599
48.58000 -2.657
48.60000 -0.593
48.62000 4.822
48.64000 1.306
48.66000 1.231
48.68000 7.791
48.70000 3.106
48.72000 5.129
48.74000 4.989
48.76000 3.335
48.78000 1.521
48.80000 2.719
48.82000 0.401
48.84000 0.321
48.86000 -3.101
48.88000 2.859
48.90000 4.901
48.92000 1.988
48.94000 0.029
48.96000 1.598
48.98000 1.829
49.00000 3.663
49.02000 3.458
49.04000 1.902
49.06000 5.574
49.08000 3.355
49.10000 1.003
49.12000 3.283
49.14000 0.444
49.16000 -0.909
49.18000 -1.936
49.20000 -1.331
49.22000 -1.926
49.24000 -3.042
49.26000 0.881
49.28000 6.315
49.30000 0.688
49.32000 -0.492
49.34000 -0.741
49.36000 3.758
49.38000 8.033
49.40000 7.274
49.42000 8.848
49.44000 6.194
49.46000 1.386
49.48000 -0.347
49.50000 1.368
49.52000 2.607
49.54000 1.360
49.56000 3.330
49.58000 0.680
49.60000 0.075
49.62000 3.959
49.64000 7.902
49.66000 3.068
49.68000 0.967
49.70000 3.562
49.72000 7.361
49.74000 1.462
49.76000 3.998
49.78000 3.228
49.80000 0.887
49.82000 3.209
49.84000 2.231
49.86000 3.772
49.88000 0.550
49.90000 1.816
49.92000 -2.594
49.94000 -0.177
49.96000 -2.948
49.98000 1.985
50.00000 6.935
50.02000 4.066
50.04000 3.998
50.06000 -0.537
50.08000 2.094
50.10000 5.896
50.12000 5.917
50.14000 3.148
50.16000 -1.261
50.18000 -1.138
50.20000 -0.507
50.22000 4.940
50.24000 4.095
50.26000 -0.693
50.28000 4.017
50.30000 7.522
50.32000 -0.634
50.34000 -2.392
50.36000 1.311
50.38000 -2.905
50.40000 -0.837
50.42000 3.451
50.44000 6.799
50.46000 4.422
50.48000 6.254
50.50000 7.443
50.52000 3.168
50.54000 -0.112
50.56000 2.283
50.58000 3.353
50.60000 4.789
50.62000 4.035
50.64000 1.663
50.66000 3.037
50.68000 2.930
50.70000 2.567
50.72000 -2.878
50.74000 -2.101
50.76000 3.984
50.78000 0.614
50.80000 4.056
50.82000 1.111
50.84000 -0.555
50.86000 0.351
50.88000 8.893
50.90000 6.995
50.92000 4.253
50.94000 0.901
50.96000 2.985
50.98000 0.604
51.00000 2.892
51.02000 3.613
51.04000 0.588
51.06000 3.941
51.08000 3.190
51.10000 2.886
51.12000 3.669
51.14000 0.690
51.16000 -1.852
51.18000 1.716
51.20000 0.614
51.22000 -2.643
51.24000 0.651
51.26000 4.881
51.28000 4.360
51.30000 2.405
51.32000 1.680
51.34000 0.916
51.36000 3.195
51.38000 1.497
51.40000 7.167
51.42000 4.091
51.44000 1.078
51.46000 2.861
51.48000 -1.388
51.50000 2.769
51.52000 1.941
51.54000 0.684
51.56000 2.258
51.58000 -2.859
51.60000 0.595
51.62000 0.362
51.64000 -0.449
51.66000 0.582
51.68000 -0.101
51.70000 3.514
51.72000 -0.185
51.74000 1.452
51.76000 1.545
51.78000 -1.232
51.80000 -0.548
51.82000 -2.173
51.84000 -0.267
51.86000 -2.692
51.88000 2.286
51.90000 4.521
51.92000 7.613
51.94000 5.470
51.96000 0.370
51.98000 2.279
52.00000 2.479
52.02000 3.453
52.04000 10.074
52.06000 10.367
52.08000 4.386
52.10000 2.508
52.12000 1.888
52.14000 1.451
52.16000 -0.744
52.18000 2.455
52.20000 0.576
52.22000 3.185
52.24000 3.040
52.26000 -2.832
52.28000 -2.046
52.30000 2.671
52.32000 6.792
52.34000 7.680
52.36000 4.905
52.38000 6.468
52.40000 6.339
52.42000 5.495
52.44000 9.265
52.46000 5.253
52.48000 0.595
52.50000 4.573
52.52000 4.044
52.54000 7.163
52.56000 10.089
52.58000 3.410
52.60000 7.358
52.62000 7.635
52.64000 4.293
52.66000 4.805
52.68000 2.375
52.70000 0.759
52.72000 2.063
52.74000 3.551
52.76000 4.004
52.78000 3.921
52.80000 -0.578
52.82000 -0.292
52.84000 3.698
52.86000 5.931
52.88000 4.656
52.90000 2.062
52.92000 4.059
52.94000 11.146
52.96000 12.147
52.98000 5.939
53.00000 2.772
53.02000 3.776
53.04000 1.346
53.06000 5.733
53.08000 7.816
53.10000 7.536
53.12000 6.453
53.14000 8.274
53.16000 6.653
53.18000 2.561
53.20000 7.813
53.22000 11.201
53.24000 5.813
53.26000 7.298
53.28000 6.784
53.30000 2.958
53.32000 0.486
53.34000 6.223
53.36000 6.935
53.38000 6.538
53.40000 4.638
53.42000 -0.123
53.44000 -2.737
53.46000 5.559
53.48000 7.756
53.50000 7.747
53.52000 5.963
53.54000 4.392
53.56000 5.069
53.58000 0.726
53.60000 -1.250
53.62000 -0.036
53.64000 0.869
53.66000 2.556
53.68000 2.995
53.70000 2.219
53.72000 6.308
53.74000 7.846
53.76000 5.977
53.78000 2.485
53.80000 5.750
53.82000 5.103
53.84000 5.067
53.86000 1.662
53.88000 0.056
53.90000 0.507
53.92000 2.992
53.94000 7.344
53.96000 5.152
53.98000 -0.910
54.00000 -2.747
54.02000 3.629
54.04000 6.012
54.06000 5.461
54.08000 7.649
54.10000 6.259
54.12000 4.618
54.14000 5.221
54.16000 1.543
54.18000 5.634
54.20000 4.669
54.22000 2.068
54.24000 7.521
54.26000 5.582
54.28000 6.213
54.30000 7.131
54.32000 2.868
54.34000 0.316
54.36000 1.962
54.38000 -1.075
54.40000 -0.493
54.42000 1.281
54.44000 2.042
54.46000 2.903
54.48000 0.213
54.50000 -2.636
54.52000 -1.793
54.54000 3.189
54.56000 1.531
54.58000 -0.521
54.60000 4.521
54.62000 3.893
54.64000 2.558
54.66000 3.296
54.68000 1.778
54.70000 1.752
54.72000 3.272
54.74000 0.395
54.76000 2.721
54.78000 1.136
54.80000 2.471
54.82000 1.991
54.84000 4.893
54.86000 6.459
54.88000 -0.840
54.90000 -0.153
54.92000 0.524
54.94000 -2.403
54.96000 0.722
54.98000 1.665
55.00000 2.111
55.02000 0.951
55.04000 -1.365
55.06000 -0.269
55.08000 3.887
55.10000 0.557
55.12000 3.508
55.14000 2.584
55.16000 1.367
55.18000 3.729
55.20000 1.352
55.22000 -1.781
55.24000 -2.726
55.26000 1.426
55.28000 5.110
55.30000 3.221
55.32000 6.062
55.34000 5.675
55.36000 3.492
55.38000 2.572
55.40000 7.937
55.42000 4.999
55.44000 -0.038
55.46000 -2.192
55.48000 -0.721
55.50000 2.147
55.52000 6.106
55.54000 4.759
55.56000 5.692
55.58000 4.729
55.60000 -0.507
55.62000 -0.271
55.64000 -1.458
55.66000 -0.712
55.68000 2.026
55.70000 0.767
55.72000 -1.990
55.74000 -0.414
55.76000 1.007
55.78000 1.133
55.80000 1.579
55.82000 3.254
55.84000 0.041
55.86000 1.499
55.88000 1.324
55.90000 -2.699
55.92000 1.395
55.94000 1.309
55.96000 -0.056
55.98000 6.306
56.00000 7.468
56.02000 6.479
56.04000 3.927
56.06000 0.532
56.08000 2.804
56.10000 4.513
56.12000 3.607
56.14000 6.624
56.16000 2.419
56.18000 2.545
56.20000 3.123
56.22000 5.071
56.24000 2.765
56.26000 1.328
56.28000 3.653
56.30000 4.483
56.32000 2.571
56.34000 -2.157
56.36000 -0.444
56.38000 0.390
56.40000 2.944
56.42000 2.136
56.44000 0.858
56.46000 4.978
56.48000 7.370
56.50000 3.220
56.52000 -0.810
56.54000 1.181
56.56000 1.221
56.58000 5.082
56.60000 -0.258
56.62000 2.664
56.64000 2.481
56.66000 4.350
56.68000 4.714
56.70000 3.986
56.72000 0.028
56.74000 1.573
56.76000 1.661
56.78000 1.187
56.80000 2.208
56.82000 1.583
56.84000 0.363
56.86000 5.907
56.88000 2.236
56.90000 0.899
56.92000 1.262
56.94000 -0.994
56.96000 2.194
56.98000 3.882
57.00000 5.035
57.02000 8.026
57.04000 2.911
57.06000 1.713
57.08000 1.097
57.10000 -1.817
57.12000 2.476
57.14000 3.111
57.16000 5.842
57.18000 6.232
57.20000 0.116
57.22000 -0.325
57.24000 1.670
57.26000 -0.205
57.28000 -0.689
57.30000 3.168
57.32000 3.145
57.34000 3.560
57.36000 0.349
57.38000 1.803
57.40000 5.467
57.42000 4.371
57.44000 -1.078
57.46000 0.279
57.48000 -2.646
57.50000 0.780
57.52000 2.648
57.54000 -0.652
57.56000 6.536
57.58000 8.981
57.60000 8.411
57.62000 5.603
57.64000 -1.083
57.66000 2.956
57.68000 5.798
57.70000 4.350
57.72000 -1.927
57.74000 -0.064
57.76000 -1.205
57.78000 2.742
57.80000 6.939
57.82000 7.543
57.84000 5.927
57.86000 3.392
57.88000 2.946
57.90000 3.925
57.92000 2.606
57.94000 2.604
57.96000 4.047
57.98000 3.172
58.00000 -1.999
58.02000 2.949
58.04000 3.757
58.06000 0.976
58.08000 -0.058
58.10000 0.261
58.12000 1.501
58.14000 5.499
58.16000 3.128
58.18000 2.339
58.20000 0.103
58.22000 -0.289
58.24000 0.391
58.26000 0.683
58.28000 -1.008
58.30000 1.321
58.32000 -2.624
58.34000 1.828
58.36000 5.664
58.38000 4.289
58.40000 6.996
58.42000 4.144
58.44000 0.426
58.46000 0.475
58.48000 2.853
58.50000 1.711
58.52000 3.592
58.54000 5.645
58.56000 4.364
58.58000 1.357
58.60000 0.321
58.62000 3.931
58.64000 7.344
58.66000 3.144
58.68000 2.560
58.70000 3.051
58.72000 2.793
58.74000 1.451
58.76000 5.274
58.78000 0.997
58.80000 2.827
58.82000 6.204
58.84000 7.587
58.86000 4.156
58.88000 3.000
58.90000 4.142
58.92000 1.485
58.94000 0.929
58.96000 1.584
58.98000 2.011
59.00000 0.964
59.02000 -1.246
59.04000 -1.527
59.06000 0.176
59.08000 6.245
59.10000 5.255
59.12000 -0.665
59.14000 2.390
59.16000 3.268
59.18000 4.319
59.20000 4.733
59.22000 3.746
59.24000 0.535
59.26000 2.231
59.28000 3.582
59.30000 -1.076
59.32000 0.816
59.34000 0.771
59.36000 2.822
59.38000 4.333
59.40000 0.407
59.42000 0.626
59.44000 1.048
59.46000 2.121
59.48000 0.616
59.50000 0.108
59.52000 -0.958
59.54000 1.727
59.56000 -0.278
59.58000 0.600
59.60000 2.952
59.62000 1.176
59.64000 6.699
59.66000 10.758
59.68000 6.054
59.70000 2.434
59.72000 4.188
59.74000 6.388
59.76000 5.201
59.78000 4.841
59.80000 4.894
59.82000 3.860
59.84000 3.912
59.86000 -0.735
59.88000 -2.552
59.90000 -1.625
59.92000 1.381
59.94000 5.127
59.96000 4.022
59.98000 4.806
60.00000 4.657
60.02000 4.517
60.04000 10.398
60.06000 2.952
60.08000 -0.408
60.10000 0.784
60.12000 3.987
60.14000 1.966
60.16000 4.172
60.18000 5.122
60.20000 1.537
60.22000 2.873
60.24000 1.056
60.26000 5.943
60.28000 5.682
60.30000 -2.422
60.32000 -0.007
60.34000 6.956
60.36000 4.309
60.38000 5.410
60.40000 5.108
60.42000 3.850
60.44000 6.715
60.46000 5.755
60.48000 5.505
60.50000 3.216
60.52000 2.012
60.54000 2.450
60.56000 2.016
60.58000 3.533
60.60000 8.788
60.62000 4.180
60.64000 1.200
60.66000 -1.538
60.68000 2.942
60.70000 3.082
60.72000 3.138
60.74000 6.471
60.76000 5.842
60.78000 3.339
60.80000 4.206
60.82000 5.411
60.84000 0.931
60.86000 0.725
60.88000 -0.712
60.90000 -2.509
60.92000 -1.944
60.94000 0.925
60.96000 4.779
60.98000 5.863
61.00000 2.362
61.02000 3.670
61.04000 7.157
61.06000 3.877
61.08000 0.438
61.10000 0.129
61.12000 0.225
61.14000 -0.041
61.16000 2.834
61.18000 1.026
61.20000 3.231
61.22000 9.030
61.24000 4.704
61.26000 1.402
61.28000 6.563
61.30000 4.671
61.32000 3.926
61.34000 3.943
61.36000 1.132
61.38000 1.644
61.40000 -1.204
61.42000 1.562
61.44000 5.371
61.46000 8.788
61.48000 6.557
61.50000 4.144
61.52000 2.748
61.54000 5.602
61.56000 4.584
61.58000 2.487
61.60000 3.696
61.62000 4.839
61.64000 8.925
61.66000 7.591
61.68000 5.548
61.70000 1.798
61.72000 2.111
61.74000 3.524
61.76000 6.120
61.78000 1.993
61.80000 1.275
61.82000 4.381
61.84000 6.019
61.86000 3.444
61.88000 6.354
61.90000 5.610
61.92000 4.634
61.94000 5.707
61.96000 5.883
61.98000 4.993
62.00000 3.055
62.02000 0.488
62.04000 -2.466
62.06000 3.137
62.08000 3.519
62.10000 1.154
62.12000 5.487
62.14000 13.015
62.16000 6.031
62.18000 0.697
62.20000 4.168
62.22000 4.809
62.24000 3.314
62.26000 5.816
62.28000 2.786
62.30000 4.580
62.32000 2.841
62.34000 -0.859
62.36000 3.075
62.38000 11.043
62.40000 7.015
62.42000 3.349
62.44000 4.670
62.46000 5.161
62.48000 0.579
62.50000 -0.829
62.52000 -0.536
62.54000 -1.394
62.56000 0.882
62.58000 2.558
62.60000 2.268
62.62000 3.800
62.64000 2.838
62.66000 0.974
62.68000 2.963
62.70000 0.811
62.72000 3.676
62.74000 0.045
62.76000 1.502
62.78000 7.221
62.80000 3.617
62.82000 1.271
62.84000 4.468
62.86000 5.625
62.88000 6.265
62.90000 4.241
62.92000 4.027
62.94000 -0.103
62.96000 0.877
62.98000 3.277
63.00000 3.500
63.02000 1.508
63.04000 -2.499
63.06000 0.241
63.08000 0.729
63.10000 2.130
63.12000 5.436
63.14000 5.997
63.16000 0.175
63.18000 -0.105
63.20000 3.761
63.22000 3.006
63.24000 3.237
63.26000 2.677
63.28000 3.313
63.30000 3.495
63.32000 2.411
63.34000 1.909
63.36000 2.444
63.38000 2.000
63.40000 2.794
63.42000 2.822
63.44000 1.196
63.46000 1.659
63.48000 1.283
63.50000 3.397
63.52000 2.244
63.54000 1.051
63.56000 1.652
63.58000 2.449
63.60000 3.440
63.62000 5.854
63.64000 4.421
63.66000 -2.489
63.68000 1.568
63.70000 2.450
63.72000 4.260
63.74000 2.825
63.76000 -2.152
63.78000 -0.628
63.80000 1.218
63.82000 1.489
63.84000 3.565
63.86000 4.217
63.88000 2.146
63.90000 0.539
63.92000 2.987
63.94000 2.987
63.96000 6.034
63.98000 4.474
64.00000 6.556
64.02000 5.233
64.04000 2.645
64.06000 4.333
64.08000 4.660
64.10000 4.975
64.12000 1.356
64.14000 4.241
64.16000 2.561
64.18000 1.822
64.20000 5.413
64.22000 3.482
64.24000 2.187
64.26000 -1.005
64.28000 -0.116
64.30000 0.452
64.32000 3.527
64.34000 4.013
64.36000 3.906
64.38000 2.183
64.40000 0.035
64.42000 4.408
64.44000 2.122
64.46000 3.001
64.48000 3.180
64.50000 3.493
64.52000 2.291
64.54000 1.748
64.56000 -0.008
64.58000 1.153
64.60000 0.585
64.62000 1.585
64.64000 0.918
64.66000 2.553
64.68000 1.837
64.70000 -1.471
64.72000 3.310
64.74000 7.033
64.76000 4.371
64.78000 1.583
64.80000 1.617
64.82000 5.781
64.84000 3.264
64.86000 0.506
64.88000 0.893
64.90000 2.487
64.92000 1.138
64.94000 1.580
64.96000 1.239
64.98000 0.330
65.00000 2.659
65.02000 3.278
65.04000 3.208
65.06000 2.214
65.08000 3.017
65.10000 2.786
65.12000 -2.502
65.14000 -0.150
65.16000 0.124
65.18000 3.740
65.20000 4.016
65.22000 0.229
65.24000 2.417
65.26000 1.940
65.28000 4.610
65.30000 4.224
65.32000 1.042
65.34000 3.295
65.36000 2.236
65.38000 0.481
65.40000 -1.828
65.42000 0.558
65.44000 3.659
65.46000 2.556
65.48000 -0.356
65.50000 2.724
65.52000 -0.180
65.54000 2.576
65.56000 3.903
65.58000 1.790
65.60000 3.229
65.62000 2.701
65.64000 -0.816
65.66000 0.635
65.68000 1.760
65.70000 3.582
65.72000 4.212
65.74000 2.860
65.76000 2.828
65.78000 1.888
65.80000 -2.530
65.82000 0.797
65.84000 5.631
65.86000 6.544
65.88000 2.812
65.90000 2.034
65.92000 2.586
65.94000 0.176
65.96000 2.610
65.98000 2.843
66.00000 1.373
66.02000 -2.267
66.04000 0.336
66.06000 0.639
66.08000 -0.023
66.10000 1.812
66.12000 2.639
66.14000 0.019
66.16000 3.760
66.18000 5.369
66.20000 1.627
66.22000 -1.903
66.24000 -0.984
66.26000 0.251
66.28000 2.948
66.30000 5.305
66.32000 5.170
66.34000 4.792
66.36000 0.159
66.38000 -2.459
66.40000 -1.455
66.42000 -0.433
66.44000 -0.198
66.46000 0.929
66.48000 2.655
66.50000 0.661
66.52000 -2.563
66.54000 0.118
66.56000 0.459
66.58000 0.993
66.60000 2.908
66.62000 0.067
66.64000 -1.430
66.66000 -0.740
66.68000 3.805
66.70000 2.865
66.72000 0.397
66.74000 1.734
66.76000 3.301
66.78000 -0.614
66.80000 0.058
66.82000 3.780
66.84000 2.278
66.86000 0.235
66.88000 1.228
66.90000 -0.765
66.92000 -2.482
66.94000 0.985
66.96000 3.033
66.98000 2.742
67.00000 3.371
67.02000 -0.904
67.04000 -2.036
67.06000 2.133
67.08000 4.641
67.10000 0.263
67.12000 3.147
67.14000 4.975
67.16000 2.468
67.18000 2.218
67.20000 -0.996
67.22000 -0.374
67.24000 0.012
67.26000 1.322
67.28000 4.931
67.30000 3.305
67.32000 2.244
67.34000 7.117
67.36000 2.878
67.38000 2.763
67.40000 4.449
67.42000 7.270
67.44000 3.089
67.46000 -2.135
67.48000 -0.250
67.50000 2.086
67.52000 3.241
67.54000 6.431
67.56000 5.788
67.58000 5.508
67.60000 5.351
67.62000 4.231
67.64000 4.213
67.66000 6.120
67.68000 4.624
67.70000 5.563
67.72000 5.604
67.74000 8.478
67.76000 9.861
67.78000 11.830
67.80000 11.854
67.82000 9.472
67.84000 10.086
67.86000 13.355
67.88000 11.915
67.90000 6.618
67.92000 11.561
67.94000 12.419
67.96000 12.858
67.98000 11.635
68.00000 17.596
68.02000 14.512
68.04000 10.632
68.06000 10.945
68.08000 11.242
68.10000 14.429
68.12000 12.046
68.14000 10.816
68.16000 11.295
68.18000 11.919
68.20000 13.391
68.22000 15.263
68.24000 15.919
68.26000 18.098
68.28000 14.891
68.30000 14.480
68.32000 17.590
68.34000 18.778
68.36000 16.301
68.38000 20.538
68.40000 21.375
68.42000 19.776
68.44000 17.870
68.46000 17.003
68.48000 19.693
68.50000 18.491
68.52000 18.854
68.54000 17.275
68.56000 15.007
68.58000 19.639
68.60000 16.826
68.62000 21.630
68.64000 18.076
68.66000 15.139
68.68000 18.950
68.70000 19.320
68.72000 15.799
68.74000 17.337
68.76000 15.753
68.78000 18.189
68.80000 16.415
68.82000 15.392
68.84000 17.463
68.86000 18.992
68.88000 19.658
68.90000 16.039
68.92000 16.906
68.94000 15.612
68.96000 13.546
68.98000 13.467
69.00000 14.499
69.02000 17.034
69.04000 13.053
69.06000 11.400
69.08000 15.543
69.10000 16.048
69.12000 15.594
69.14000 12.599
69.16000 10.044
69.18000 10.098
69.20000 11.857
69.22000 12.445
69.24000 11.485
69.26000 10.704
69.28000 9.013
69.30000 5.347
69.32000 7.062
69.34000 7.945
69.36000 8.375
69.38000 11.910
69.40000 11.468
69.42000 7.738
69.44000 8.928
69.46000 7.092
69.48000 4.690
69.50000 5.144
69.52000 4.145
69.54000 4.791
69.56000 6.743
69.58000 5.484
69.60000 2.922
69.62000 1.390
69.64000 2.378
69.66000 4.523
69.68000 5.219
69.70000 7.325
69.72000 5.555
69.74000 -2.525
69.76000 0.592
69.78000 1.040
69.80000 2.619
69.82000 0.583
69.84000 -0.179
69.86000 3.432
69.88000 7.306
69.90000 3.851
69.92000 2.468
69.94000 4.322
69.96000 1.091
69.98000 1.729
70.00000 4.108
70.02000 4.857
70.04000 3.827
70.06000 1.738
70.08000 3.045
70.10000 4.139
70.12000 5.400
70.14000 5.621
70.16000 5.386
70.18000 2.403
70.20000 0.989
70.22000 0.088
70.24000 -1.427
70.26000 0.477
70.28000 0.258
70.30000 1.947
70.32000 4.875
70.34000 4.090
70.36000 3.233
70.38000 2.866
70.40000 1.799
70.42000 0.522
70.44000 -0.031
70.46000 1.957
70.48000 -0.032
70.50000 0.921
70.52000 1.461
70.54000 2.973
70.56000 1.644
70.58000 3.391
70.60000 2.598
70.62000 -1.479
70.64000 -0.524
70.66000 2.448
70.68000 2.374
70.70000 4.412
70.72000 5.031
70.74000 -2.415
70.76000 2.657
70.78000 1.416
70.80000 6.999
70.82000 3.429
70.84000 4.485
70.86000 4.272
70.88000 2.470
70.90000 -0.509
70.92000 0.006
70.94000 0.259
70.96000 4.620
70.98000 5.867
71.00000 8.295
71.02000 5.886
71.04000 5.940
71.06000 3.716
71.08000 0.770
71.10000 3.352
71.12000 3.480
71.14000 7.867
71.16000 5.819
71.18000 5.844
71.20000 4.498
71.22000 3.784
71.24000 1.457
71.26000 2.691
71.28000 4.501
71.30000 3.746
71.32000 6.044
71.34000 6.854
71.36000 7.472
71.38000 4.890
71.40000 4.956
71.42000 0.629
71.44000 4.746
71.46000 5.695
71.48000 7.309
71.50000 5.891
71.52000 1.065
71.54000 1.945
71.56000 6.926
71.58000 7.617
71.60000 4.511
71.62000 2.682
71.64000 3.875
71.66000 8.900
71.68000 9.680
71.70000 6.953
71.72000 3.187
71.74000 3.292
71.76000 3.452
71.78000 5.936
71.80000 6.707
71.82000 5.048
71.84000 3.775
71.86000 4.035
71.88000 6.025
71.90000 4.339
71.92000 4.571
71.94000 2.007
71.96000 7.103
71.98000 6.455
72.00000 4.916
72.02000 2.856
72.04000 1.119
72.06000 -2.309
72.08000 4.635
72.10000 7.162
72.12000 6.651
72.14000 5.114
72.16000 5.404
72.18000 4.506
72.20000 3.522
72.22000 2.772
72.24000 -1.166
72.26000 0.083
72.28000 1.536
72.30000 4.413
72.32000 7.498
72.34000 9.375
72.36000 10.135
72.38000 1.888
72.40000 3.752
72.42000 6.877
72.44000 7.200
72.46000 3.304
72.48000 5.488
72.50000 3.998
72.52000 2.918
72.54000 5.101
72.56000 4.003
72.58000 4.809
72.60000 5.407
72.62000 2.753
72.64000 0.600
72.66000 5.190
72.68000 4.579
72.70000 2.019
72.72000 3.013
72.74000 8.223
72.76000 9.964
72.78000 5.242
72.80000 2.587
72.82000 6.032
72.84000 2.887
72.86000 0.855
72.88000 3.728
72.90000 3.107
72.92000 0.865
72.94000 0.933
72.96000 1.909
72.98000 -1.128
73.00000 -0.216
73.02000 0.243
73.04000 1.781
73.06000 4.058
73.08000 1.420
73.10000 0.693
73.12000 0.598
73.14000 2.737
73.16000 2.712
73.18000 3.925
73.20000 4.030
73.22000 4.186
73.24000 2.288
73.26000 -2.326
73.28000 3.883
73.30000 3.258
73.32000 3.005
73.34000 3.359
73.36000 4.101
73.38000 4.676
73.40000 7.123
73.42000 4.391
73.44000 3.367
73.46000 0.426
73.48000 -0.480
73.50000 4.100
73.52000 3.166
73.54000 3.368
73.56000 1.731
73.58000 2.159
73.60000 -1.576
73.62000 -1.277
73.64000 0.327
73.66000 0.903
73.68000 4.557
73.70000 1.968
73.72000 0.789
73.74000 3.245
73.76000 6.899
73.78000 6.469
73.80000 2.146
73.82000 2.822
73.84000 0.416
73.86000 2.434
73.88000 6.674
73.90000 2.202
73.92000 1.872
73.94000 7.220
73.96000 4.275
73.98000 7.492
74.00000 6.300
74.02000 5.313
74.04000 4.549
74.06000 5.605
74.08000 1.880
74.10000 2.002
74.12000 4.411
74.14000 3.138
74.16000 4.005
74.18000 4.157
74.20000 1.209
74.22000 1.622
74.24000 0.875
74.26000 3.822
74.28000 5.524
74.30000 3.153
74.32000 -0.126
74.34000 3.641
74.36000 3.138
74.38000 -1.708
74.40000 0.161
74.42000 2.974
74.44000 5.881
74.46000 7.155
74.48000 7.482
74.50000 9.155
74.52000 8.625
74.54000 6.753
74.56000 2.323
74.58000 -2.279
74.60000 2.455
74.62000 7.645
74.64000 9.764
74.66000 5.245
74.68000 1.568
74.70000 3.061
74.72000 7.338
74.74000 5.333
74.76000 4.683
74.78000 5.248
74.80000 5.519
74.82000 3.110
74.84000 1.321
74.86000 2.959
74.88000 8.765
74.90000 6.785
74.92000 2.939
74.94000 4.046
74.96000 2.960
74.98000 3.244
75.00000 5.757
75.02000 5.358
75.04000 2.421
75.06000 3.491
75.08000 2.833
75.10000 0.850
75.12000 3.316
75.14000 4.065
75.16000 2.715
75.18000 3.142
75.20000 2.747
75.22000 5.321
75.24000 6.127
75.26000 1.769
75.28000 0.391
75.30000 2.553
75.32000 3.620
75.34000 5.197
75.36000 3.983
75.38000 6.033
75.40000 2.922
75.42000 1.400
75.44000 1.208
75.46000 -2.326
75.48000 0.778
75.50000 4.982
75.52000 2.050
75.54000 3.886
75.56000 3.021
75.58000 2.390
75.60000 7.201
75.62000 3.324
75.64000 1.159
75.66000 3.446
75.68000 6.594
75.70000 7.030
75.72000 5.299
75.74000 5.397
75.76000 1.884
75.78000 1.563
75.80000 -1.549
75.82000 0.934
75.84000 0.579
75.86000 1.015
75.88000 3.834
75.90000 3.444
75.92000 3.869
75.94000 2.184
75.96000 0.582
75.98000 0.970
76.00000 2.923
76.02000 3.174
76.04000 3.375
76.06000 6.722
76.08000 5.045
76.10000 2.166
76.12000 1.302
76.14000 4.699
76.16000 2.130
76.18000 0.290
76.20000 2.178
76.22000 1.599
76.24000 2.464
76.26000 7.320
76.28000 6.944
76.30000 4.317
76.32000 2.231
76.34000 3.035
76.36000 4.338
76.38000 2.676
76.40000 3.970
76.42000 6.779
76.44000 6.469
76.46000 6.515
76.48000 3.776
76.50000 1.794
76.52000 3.814
76.54000 3.546
76.56000 1.829
76.58000 3.560
76.60000 2.046
76.62000 3.374
76.64000 1.193
76.66000 0.273
76.68000 2.545
76.70000 -0.636
76.72000 -2.329
76.74000 3.084
76.76000 5.250
76.78000 4.565
76.80000 4.163
76.82000 6.045
76.84000 2.021
76.86000 1.283
76.88000 4.312
76.90000 4.992
76.92000 3.839
76.94000 4.715
76.96000 3.895
76.98000 5.537
77.00000 2.637
77.02000 -0.398
77.04000 -1.143
77.06000 0.723
77.08000 5.614
77.10000 1.791
77.12000 -0.983
77.14000 1.858
77.16000 2.807
77.18000 4.368
77.20000 6.079
77.22000 3.771
77.24000 3.128
77.26000 3.277
77.28000 5.136
77.30000 7.306
77.32000 4.709
77.34000 4.649
77.36000 5.705
77.38000 6.200
77.40000 8.510
77.42000 4.860
77.44000 2.465
77.46000 1.842
77.48000 0.870
77.50000 4.761
77.52000 3.205
77.54000 3.370
77.56000 8.237
77.58000 2.408
77.60000 3.117
77.62000 0.641
77.64000 0.935
77.66000 0.758
77.68000 4.538
77.70000 6.884
77.72000 4.394
77.74000 2.893
77.76000 2.271
77.78000 2.893
77.80000 3.092
77.82000 0.535
77.84000 1.329
77.86000 4.731
77.88000 3.504
77.90000 3.260
77.92000 6.042
77.94000 4.259
77.96000 1.312
77.98000 2.523
78.00000 7.356
78.02000 2.714
78.04000 3.503
78.06000 0.368
78.08000 5.193
78.10000 3.333
78.12000 1.435
78.14000 1.178
78.16000 1.096
78.18000 3.797
78.20000 10.988
78.22000 4.214
78.24000 0.631
78.26000 2.841
78.28000 6.600
78.30000 1.355
78.32000 3.697
78.34000 7.171
78.36000 8.285
78.38000 7.929
78.40000 3.752
78.42000 3.441
78.44000 3.572
78.46000 -1.326
78.48000 1.467
78.50000 -0.062
78.52000 1.054
78.54000 2.906
78.56000 4.403
78.58000 6.786
78.60000 3.840
78.62000 0.412
78.64000 2.017
78.66000 3.364
78.68000 0.300
78.70000 -2.333
78.72000 5.393
78.74000 11.920
78.76000 9.135
78.78000 7.971
78.80000 8.414
78.82000 6.900
78.84000 3.071
78.86000 2.743
78.88000 1.259
78.90000 3.625
78.92000 4.352
78.94000 3.723
78.96000 7.870
78.98000 9.527
79.00000 7.110
79.02000 1.907
79.04000 -1.706
79.06000 0.469
79.08000 4.339
79.10000 2.288
79.12000 1.535
79.14000 0.561
79.16000 -1.976
79.18000 -0.373
79.20000 0.372
79.22000 -0.249
79.24000 2.038
79.26000 2.023
79.28000 3.068
79.30000 5.356
79.32000 1.967
79.34000 1.502
79.36000 1.221
79.38000 -0.618
79.40000 0.705
79.42000 6.418
79.44000 5.967
79.46000 4.584
79.48000 3.997
79.50000 -0.521
79.52000 -2.421
79.54000 0.591
79.56000 2.958
79.58000 2.203
79.60000 0.992
79.62000 1.733
79.64000 2.144
79.66000 1.849
79.68000 -2.001
79.70000 -2.441
79.72000 1.773
79.74000 4.345
79.76000 5.572
79.78000 6.924
79.80000 -0.105
79.82000 -0.505
79.84000 0.817
79.86000 1.383
79.88000 -2.112
79.90000 -1.589
79.92000 -0.765
79.94000 3.691
79.96000 1.129
79.98000 -0.328
80.00000 0.428
80.02000 5.689
80.04000 3.398
80.06000 -0.077
80.08000 -0.241
80.10000 0.304
80.12000 4.512
80.14000 0.236
80.16000 -0.937
80.18000 2.910
80.20000 7.531
80.22000 9.055
80.24000 8.658
80.26000 2.661
80.28000 -1.799
80.30000 2.402
80.32000 -0.597
80.34000 0.599
80.36000 2.930
80.38000 2.807
80.40000 3.904
80.42000 0.434
80.44000 -2.441
80.46000 -0.884
80.48000 0.165
80.50000 -2.238
80.52000 1.730
80.54000 -0.107
80.56000 0.234
80.58000 3.589
80.60000 2.392
80.62000 4.007
80.64000 1.563
80.66000 1.535
80.68000 2.103
80.70000 -1.699
80.72000 1.087
80.74000 -1.453
80.76000 3.089
80.78000 1.676
80.80000 3.768
80.82000 4.940
80.84000 4.886
80.86000 2.616
80.88000 2.254
80.90000 2.157
80.92000 -2.529
80.94000 -1.971
80.96000 1.193
80.98000 1.782
81.00000 3.117
81.02000 4.295
81.04000 9.411
81.06000 11.889
81.08000 6.281
81.10000 6.118
81.12000 3.349
81.14000 4.589
81.16000 2.484
81.18000 0.492
81.20000 0.994
81.22000 4.599
81.24000 1.570
81.26000 4.012
81.28000 6.333
81.30000 2.159
81.32000 5.482
81.34000 5.397
81.36000 5.542
81.38000 6.646
81.40000 2.126
81.42000 -1.615
81.44000 -0.869
81.46000 2.512
81.48000 6.529
81.50000 12.184
81.52000 15.167
81.54000 11.368
81.56000 7.128
81.58000 10.855
81.60000 8.895
81.62000 11.724
81.64000 11.046
81.66000 11.897
81.68000 10.440
81.70000 8.089
81.72000 9.951
81.74000 7.802
81.76000 6.536
81.78000 14.103
81.80000 14.417
81.82000 15.010
81.84000 7.113
81.86000 12.909
81.88000 13.545
81.90000 11.676
81.92000 13.901
81.94000 12.174
81.96000 13.652
81.98000 17.938
82.00000 12.091
82.02000 11.529
82.04000 18.291
82.06000 18.957
82.08000 18.049
82.10000 16.736
82.12000 12.906
82.14000 13.925
82.16000 16.717
82.18000 19.721
82.20000 21.422
82.22000 21.108
82.24000 21.702
82.26000 22.064
82.28000 20.759
82.30000 19.374
82.32000 23.594
82.34000 21.913
82.36000 24.309
82.38000 25.671
82.40000 20.625
82.42000 20.516
82.44000 20.929
82.46000 21.276
82.48000 24.156
82.50000 25.715
82.52000 26.743
82.54000 30.624
82.56000 27.132
82.58000 21.632
82.60000 21.640
82.62000 20.383
82.64000 21.499
82.66000 21.920
82.68000 28.710
82.70000 28.275
82.72000 25.288
82.74000 26.721
82.76000 27.978
82.78000 22.953
82.80000 21.226
82.82000 24.633
82.84000 31.723
82.86000 26.152
82.88000 25.993
82.90000 25.730
82.92000 25.799
82.94000 23.602
82.96000 19.721
82.98000 24.931
83.00000 21.282
83.02000 26.580
83.04000 29.185
83.06000 24.303
83.08000 19.457
83.10000 23.477
83.12000 28.348
83.14000 21.312
83.16000 28.434
83.18000 21.368
83.20000 19.194
83.22000 21.056
83.24000 16.671
83.26000 14.700
83.28000 19.502
83.30000 25.763
83.32000 19.931
83.34000 13.688
83.36000 17.268
83.38000 21.888
83.40000 12.431
83.42000 6.887
83.44000 10.626
83.46000 13.447
83.48000 10.412
83.50000 16.457
83.52000 16.865
83.54000 13.045
83.56000 12.348
83.58000 9.802
83.60000 9.294
83.62000 12.910
83.64000 12.170
83.66000 12.544
83.68000 9.482
83.70000 9.023
83.72000 8.024
83.74000 5.777
83.76000 8.405
83.78000 12.260
83.80000 10.326
83.82000 10.185
83.84000 7.159
83.86000 3.979
83.88000 5.468
83.90000 2.679
83.92000 -0.522
83.94000 9.084
83.96000 10.426
83.98000 3.905
84.00000 3.088
84.02000 3.168
84.04000 2.669
84.06000 5.342
84.08000 9.561
84.10000 9.183
84.12000 6.381
84.14000 2.528
84.16000 3.469
84.18000 4.785
84.20000 3.074
84.22000 2.331
84.24000 2.479
84.26000 -1.072
84.28000 0.661
84.30000 1.201
84.32000 8.754
84.34000 8.953
84.36000 7.784
84.38000 1.795
84.40000 2.258
84.42000 4.898
84.44000 0.034
84.46000 -2.501
84.48000 0.497
84.50000 3.893
84.52000 0.435
84.54000 2.555
84.56000 2.398
84.58000 5.707
84.60000 0.545
84.62000 -0.324
84.64000 5.088
84.66000 2.370
84.68000 0.957
84.70000 1.425
84.72000 6.584
84.74000 4.347
84.76000 5.482
84.78000 0.495
84.80000 -0.607
84.82000 0.041
84.84000 1.471
84.86000 0.525
84.88000 -0.567
84.90000 1.556
84.92000 -0.276
84.94000 9.338
84.96000 1.539
84.98000 0.625
85.00000 4.816
85.02000 -0.399
85.04000 1.391
85.06000 2.241
85.08000 1.146
85.10000 3.100
85.12000 3.416
85.14000 0.001
85.16000 3.243
85.18000 5.545
85.20000 5.553
85.22000 5.105
85.24000 -2.401
85.26000 -0.507
85.28000 8.117
85.30000 4.084
85.32000 3.002
85.34000 1.365
85.36000 0.487
85.38000 -1.138
85.40000 0.824
85.42000 1.066
85.44000 2.694
85.46000 1.836
85.48000 0.778
85.50000 2.829
85.52000 1.269
85.54000 7.105
85.56000 8.056
85.58000 3.161
85.60000 3.792
85.62000 7.131
85.64000 5.376
85.66000 3.957
85.68000 0.444
85.70000 0.385
85.72000 4.552
85.74000 7.651
85.76000 8.162
85.78000 8.008
85.80000 6.965
85.82000 4.819
85.84000 2.030
85.86000 2.805
85.88000 3.817
85.90000 5.938
85.92000 5.787
85.94000 2.135
85.96000 4.681
85.98000 7.239
86.00000 6.124
86.02000 5.236
86.04000 1.336
86.06000 3.250
86.08000 5.486
86.10000 8.033
86.12000 8.870
86.14000 5.323
86.16000 10.707
86.18000 6.147
86.20000 8.387
86.22000 7.736
86.24000 7.744
86.26000 6.263
86.28000 9.166
86.30000 9.679
86.32000 9.594
86.34000 10.341
86.36000 11.282
86.38000 9.825
86.40000 11.525
86.42000 12.912
86.44000 12.989
86.46000 9.559
86.48000 7.952
86.50000 6.182
86.52000 12.008
86.54000 13.584
86.56000 12.877
86.58000 10.849
86.60000 9.600
86.62000 17.538
86.64000 19.116
86.66000 19.933
86.68000 13.476
86.70000 18.496
86.72000 18.320
86.74000 17.872
86.76000 15.233
86.78000 23.211
86.80000 22.939
86.82000 19.865
86.84000 22.947
86.86000 21.411
86.88000 21.746
86.90000 24.574
86.92000 24.427
86.94000 20.144
86.96000 23.090
86.98000 23.762
87.00000 25.058
87.02000 25.321
87.04000 23.824
87.06000 25.245
87.08000 27.987
87.10000 25.166
87.12000 28.352
87.14000 25.401
87.16000 27.639
87.18000 26.840
87.20000 23.729
87.22000 25.622
87.24000 28.093
87.26000 23.050
87.28000 20.282
87.30000 24.707
87.32000 26.438
87.34000 22.081
87.36000 22.763
87.38000 25.882
87.40000 24.134
87.42000 19.576
87.44000 25.690
87.46000 25.050
87.48000 22.259
87.50000 20.329
87.52000 18.062
87.54000 22.491
87.56000 21.870
87.58000 20.423
87.60000 21.729
87.62000 17.547
87.64000 19.487
87.66000 17.601
87.68000 17.249
87.70000 21.365
87.72000 16.480
87.74000 16.409
87.76000 14.657
87.78000 12.022
87.80000 7.484
87.82000 5.805
87.84000 9.929
87.86000 12.372
87.88000 16.288
87.90000 14.954
87.92000 12.138
87.94000 10.640
87.96000 10.608
87.98000 9.504
88.00000 8.371
88.02000 7.853
88.04000 5.584
88.06000 3.642
88.08000 8.549
88.10000 5.598
88.12000 4.394
88.14000 7.384
88.16000 4.194
88.18000 6.268
88.20000 5.783
88.22000 4.386
88.24000 4.910
88.26000 -0.473
88.28000 -0.104
88.30000 2.477
88.32000 6.477
88.34000 2.932
88.36000 1.270
88.38000 2.419
88.40000 3.483
88.42000 1.392
88.44000 -0.154
88.46000 1.988
88.48000 1.782
88.50000 3.158
88.52000 6.623
88.54000 3.614
88.56000 2.191
88.58000 4.728
88.60000 1.057
88.62000 2.754
88.64000 4.835
88.66000 2.205
88.68000 -1.256
88.70000 -0.085
88.72000 1.761
88.74000 0.761
88.76000 0.119
88.78000 1.668
88.80000 6.059
88.82000 1.554
88.84000 1.160
88.86000 -1.080
88.88000 -2.329
88.90000 0.268
88.92000 -1.490
88.94000 1.089
88.96000 3.658
88.98000 0.869
89.00000 -2.283
89.02000 2.779
89.04000 -1.392
89.06000 1.755
89.08000 4.546
89.10000 7.025
89.12000 1.743
89.14000 -1.942
89.16000 -2.273
89.18000 -1.887
89.20000 3.985
89.22000 7.460
89.24000 5.441
89.26000 0.671
89.28000 2.874
89.30000 2.686
89.32000 5.731
89.34000 3.792
89.36000 0.927
89.38000 1.876
89.40000 1.236
89.42000 2.784
89.44000 1.857
89.46000 3.221
89.48000 0.958
89.50000 3.672
89.52000 2.156
89.54000 -1.084
89.56000 1.264
89.58000 0.474
89.60000 2.687
89.62000 3.625
89.64000 3.734
89.66000 3.120
89.68000 1.167
89.70000 -0.879
89.72000 1.876
89.74000 2.360
89.76000 0.628
89.78000 -2.257
89.80000 0.685
89.82000 9.122
89.84000 3.221
89.86000 3.286
89.88000 3.895
89.90000 3.814
89.92000 3.413
89.94000 3.604
89.96000 2.871
89.98000 3.164
90.00000 4.490
90.02000 7.071
90.04000 6.226
90.06000 0.072
90.08000 1.327
90.10000 1.778
90.12000 -2.228
90.14000 1.247
90.16000 0.868
90.18000 1.334
90.20000 7.482
90.22000 1.244
90.24000 4.163
90.26000 5.222
90.28000 6.314
90.30000 3.175
90.32000 3.027
90.34000 1.977
90.36000 -0.386
90.38000 3.553
90.40000 1.293
90.42000 6.917
90.44000 5.595
90.46000 2.602
90.48000 4.943
90.50000 8.557
90.52000 5.900
90.54000 4.022
90.56000 2.061
90.58000 3.220
90.60000 3.230
90.62000 2.639
90.64000 4.399
90.66000 4.992
90.68000 2.913
90.70000 -1.847
90.72000 3.823
90.74000 4.419
90.76000 0.707
90.78000 1.270
90.80000 1.800
90.82000 4.126
90.84000 4.537
90.86000 1.571
90.88000 1.807
90.90000 1.788
90.92000 5.940
90.94000 1.413
90.96000 1.201
90.98000 3.871
91.00000 5.994
91.02000 5.534
91.04000 1.531
91.06000 4.175
91.08000 2.849
91.10000 -0.192
91.12000 2.519
91.14000 4.674
91.16000 4.699
91.18000 7.775
91.20000 5.477
91.22000 -2.200
91.24000 0.796
91.26000 6.177
91.28000 2.465
91.30000 2.761
91.32000 7.018
91.34000 8.486
91.36000 4.997
91.38000 4.909
91.40000 5.091
91.42000 0.215
91.44000 0.397
91.46000 2.679
91.48000 1.150
91.50000 -0.401
91.52000 1.538
91.54000 0.090
91.56000 3.867
91.58000 2.733
91.60000 0.977
91.62000 -0.791
91.64000 -0.368
91.66000 5.442
91.68000 4.136
91.70000 2.247
91.72000 6.363
91.74000 5.681
91.76000 2.308
91.78000 4.774
91.80000 7.819
91.82000 3.967
91.84000 4.571
91.86000 9.951
91.88000 0.905
91.90000 -0.006
91.92000 -1.455
91.94000 3.090
91.96000 1.339
91.98000 1.121
92.00000 2.843
92.02000 7.598
92.04000 4.254
92.06000 0.199
92.08000 4.003
92.10000 3.237
92.12000 7.173
92.14000 1.818
92.16000 -0.299
92.18000 1.638
92.20000 3.563
92.22000 2.540
92.24000 2.013
92.26000 2.172
92.28000 4.921
92.30000 5.876
92.32000 2.903
92.34000 3.759
92.36000 4.807
92.38000 7.409
92.40000 4.733
92.42000 4.924
92.44000 3.787
92.46000 -0.994
92.48000 -0.327
92.50000 1.709
92.52000 5.784
92.54000 6.787
92.56000 5.063
92.58000 1.901
92.60000 -0.180
92.62000 -2.039
92.64000 1.620
92.66000 6.584
92.68000 3.058
92.70000 1.883
92.72000 2.892
92.74000 1.053
92.76000 3.092
92.78000 -2.228
92.80000 1.614
92.82000 2.644
92.84000 3.035
92.86000 3.271
92.88000 1.609
92.90000 3.789
92.92000 3.995
92.94000 3.600
92.96000 4.256
92.98000 1.989
93.00000 1.182
93.02000 3.264
93.04000 5.961
93.06000 4.521
93.08000 6.392
93.10000 4.292
93.12000 1.696
93.14000 5.432
93.16000 1.903
93.18000 2.519
93.20000 7.120
93.22000 9.327
93.24000 5.799
93.26000 1.608
93.28000 0.228
93.30000 6.032
93.32000 7.308
93.34000 5.474
93.36000 3.361
93.38000 3.360
93.40000 4.151
93.42000 3.002
93.44000 1.619
93.46000 6.014
93.48000 3.706
93.50000 2.894
93.52000 7.870
93.54000 5.240
93.56000 3.512
93.58000 1.018
93.60000 -0.739
93.62000 -2.230
93.64000 1.091
93.66000 5.927
93.68000 4.197
93.70000 5.786
93.72000 3.223
93.74000 7.705
93.76000 7.405
93.78000 1.853
93.80000 6.781
93.82000 2.077
93.84000 4.642
93.86000 2.272
93.88000 0.826
93.90000 5.416
93.92000 5.203
93.94000 1.341
93.96000 2.506
93.98000 1.192
94.00000 -0.588
94.02000 -0.087
94.04000 -0.996
94.06000 -1.624
94.08000 -1.249
94.10000 1.813
94.12000 1.571
94.14000 5.136
94.16000 4.249
94.18000 7.212
94.20000 7.816
94.22000 2.627
94.24000 4.043
94.26000 6.048
94.28000 7.587
94.30000 5.094
94.32000 4.226
94.34000 4.275
94.36000 4.026
94.38000 -0.554
94.40000 -2.048
94.42000 -2.207
94.44000 2.522
94.46000 3.263
94.48000 2.046
94.50000 4.263
94.52000 4.317
94.54000 1.349
94.56000 -1.823
94.58000 -1.781
94.60000 1.121
94.62000 6.576
94.64000 5.163
94.66000 -1.836
94.68000 -2.063
94.70000 -2.250
94.72000 2.869
94.74000 4.451
94.76000 4.726
94.78000 6.770
94.80000 3.903
94.82000 9.352
94.84000 4.029
94.86000 3.347
94.88000 7.759
94.90000 6.999
94.92000 8.377
94.94000 2.501
94.96000 2.144
94.98000 4.595
95.00000 9.134
95.02000 6.722
95.04000 7.331
95.06000 9.208
95.08000 7.930
95.10000 0.614
95.12000 4.933
95.14000 9.102
95.16000 5.307
95.18000 4.560
95.20000 5.486
95.22000 1.232
95.24000 0.561
95.26000 -2.238
95.28000 3.372
95.30000 3.254
95.32000 3.873
95.34000 3.931
95.36000 3.423
95.38000 0.787
95.40000 4.375
95.42000 3.085
95.44000 3.711
95.46000 5.328
95.48000 6.031
95.50000 4.221
95.52000 7.046
95.54000 2.232
95.56000 6.378
95.58000 7.998
95.60000 7.675
95.62000 2.809
95.64000 -0.673
95.66000 1.595
95.68000 4.214
95.70000 6.000
95.72000 5.939
95.74000 4.115
95.76000 -1.041
95.78000 -1.955
95.80000 4.071
95.82000 5.826
95.84000 1.747
95.86000 -0.176
95.88000 -1.094
95.90000 -0.984
95.92000 -2.252
95.94000 2.819
95.96000 3.565
95.98000 8.827
96.00000 4.591
96.02000 -0.956
96.04000 5.313
96.06000 6.160
96.08000 2.328
96.10000 -0.631
96.12000 0.431
96.14000 -0.692
96.16000 -0.491
96.18000 2.777
96.20000 3.170
96.22000 3.025
96.24000 4.400
96.26000 6.419
96.28000 2.929
96.30000 4.553
96.32000 7.584
96.34000 6.153
96.36000 5.021
96.38000 2.724
96.40000 4.460
96.42000 5.252
96.44000 1.338
96.46000 1.135
96.48000 5.906
96.50000 3.842
96.52000 4.068
96.54000 4.033
96.56000 8.520
96.58000 0.542
96.60000 -0.615
96.62000 3.693
96.64000 -2.229
96.66000 3.718
96.68000 1.813
96.70000 0.267
96.72000 2.535
96.74000 6.772
96.76000 3.376
96.78000 -2.226
96.80000 -2.160
96.82000 4.257
96.84000 2.557
96.86000 3.979
96.88000 5.537
96.90000 3.960
96.92000 7.703
96.94000 10.758
96.96000 -1.049
96.98000 0.700
97.00000 2.714
97.02000 3.823
97.04000 4.072
97.06000 3.090
97.08000 9.150
97.10000 5.615
97.12000 2.970
97.14000 4.821
97.16000 1.276
97.18000 0.173
97.20000 4.793
97.22000 3.363
97.24000 1.806
97.26000 0.342
97.28000 1.973
97.30000 1.294
97.32000 2.088
97.34000 9.038
97.36000 9.714
97.38000 11.636
97.40000 7.781
97.42000 2.941
97.44000 8.097
97.46000 7.015
97.48000 5.916
97.50000 6.328
97.52000 2.343
97.54000 1.660
97.56000 3.819
97.58000 6.638
97.60000 9.986
97.62000 1.917
97.64000 3.192
97.66000 3.903
97.68000 7.675
97.70000 5.358
97.72000 6.433
97.74000 5.131
97.76000 -0.620
97.78000 0.743
97.80000 5.970
97.82000 3.042
97.84000 4.243
97.86000 9.293
97.88000 9.305
97.90000 7.449
97.92000 5.825
97.94000 13.968
97.96000 10.346
97.98000 1.190
98.00000 4.963
98.02000 4.266
98.04000 3.566
98.06000 -0.241
98.08000 -2.209
98.10000 4.897
98.12000 5.454
98.14000 9.604
98.16000 7.339
98.18000 5.996
98.20000 -0.814
98.22000 -0.976
98.24000 -1.573
98.26000 5.213
98.28000 5.204
98.30000 6.140
98.32000 9.369
98.34000 5.294
98.36000 8.480
98.38000 3.100
98.40000 2.773
98.42000 -0.446
98.44000 2.375
98.46000 9.236
98.48000 8.794
98.50000 3.942
98.52000 -0.377
98.54000 4.270
98.56000 -0.536
98.58000 1.329
98.60000 -0.905
98.62000 0.430
98.64000 -2.763
98.66000 10.740
98.68000 6.526
98.70000 6.680
98.72000 6.064
98.74000 4.567
98.76000 7.711
98.78000 11.586
98.80000 10.557
98.82000 10.329
98.84000 4.551
98.86000 5.394
98.88000 4.043
98.90000 2.411
98.92000 -1.104
98.94000 7.575
98.96000 9.307
98.98000 12.775
99.00000 4.384
99.02000 3.347
99.04000 2.583
99.06000 -0.019
99.08000 9.153
99.10000 12.405
99.12000 10.776
99.14000 6.226
99.16000 -2.137
99.18000 1.384
99.20000 6.055
99.22000 1.874
99.24000 5.337
99.26000 11.031
99.28000 8.527
99.30000 19.205
99.32000 10.859
99.34000 12.411
99.36000 9.044
99.38000 17.515
99.40000 5.949
99.42000 -1.004
99.44000 1.766
99.46000 7.474
99.48000 9.810
99.50000 2.081
99.52000 10.799
99.54000 15.979
99.56000 13.787
99.58000 2.728
99.60000 1.286
99.62000 4.197
99.64000 -1.915
99.66000 10.634
99.68000 13.274
99.70000 6.123
99.72000 -6.864
99.74000 4.075
99.76000 23.695
99.78000 8.671
99.80000 9.045
99.82000 10.902
99.84000 0.355
99.86000 3.782
99.88000 5.518
99.90000 1.610
99.92000 0.470
99.94000 -2.327
99.96000 -0.086
99.98000 0.000
