'Id: "0011388" Comment: "Integrate frame 0011388_Au-Ir-Rh_Rh-rich_XRD-Mapping-303-0000.gfrmwith cursor Wedge Cursor #5" Operator: "B?rgel" Anode: "Cu" Wavelength: "1.5406" Scantype: "2Theta (TwoTheta)" TimePerStep: "1" X: "0" Y: "31.5" Z: "5.95" 
10.00000 0.000
10.02000 2.156
10.04000 2.626
10.06000 -2.949
10.08000 -4.266
10.10000 0.442
10.12000 17.617
10.14000 14.449
10.16000 5.913
10.18000 9.352
10.20000 10.866
10.22000 9.487
10.24000 -4.258
10.26000 -3.943
10.28000 19.258
10.30000 16.621
10.32000 7.527
10.34000 9.978
10.36000 16.391
10.38000 -4.511
10.40000 5.717
10.42000 10.433
10.44000 9.813
10.46000 12.672
10.48000 27.503
10.50000 22.031
10.52000 15.552
10.54000 12.388
10.56000 2.206
10.58000 5.070
10.60000 5.625
10.62000 8.624
10.64000 7.839
10.66000 17.662
10.68000 38.699
10.70000 25.381
10.72000 14.373
10.74000 10.994
10.76000 10.472
10.78000 18.906
10.80000 11.629
10.82000 2.716
10.84000 5.314
10.86000 7.584
10.88000 19.261
10.90000 17.467
10.92000 1.030
10.94000 8.084
10.96000 8.950
10.98000 11.962
11.00000 15.974
11.02000 4.798
11.04000 2.467
11.06000 10.718
11.08000 5.024
11.10000 12.052
11.12000 15.028
11.14000 -2.873
11.16000 6.121
11.18000 15.028
11.20000 20.211
11.22000 21.770
11.24000 20.747
11.26000 19.624
11.28000 15.640
11.30000 19.399
11.32000 3.696
11.34000 -4.319
11.36000 -0.768
11.38000 8.131
11.40000 25.444
11.42000 8.123
11.44000 5.221
11.46000 13.987
11.48000 14.258
11.50000 16.440
11.52000 17.777
11.54000 15.334
11.56000 15.038
11.58000 22.325
11.60000 16.979
11.62000 22.659
11.64000 14.827
11.66000 20.038
11.68000 23.174
11.70000 27.487
11.72000 17.298
11.74000 16.568
11.76000 15.631
11.78000 23.569
11.80000 17.547
11.82000 13.857
11.84000 12.461
11.86000 13.683
11.88000 10.832
11.90000 16.452
11.92000 28.698
11.94000 24.064
11.96000 18.403
11.98000 17.284
12.00000 8.395
12.02000 12.766
12.04000 26.017
12.06000 14.583
12.08000 13.362
12.10000 22.042
12.12000 12.288
12.14000 6.255
12.16000 17.146
12.18000 18.270
12.20000 10.294
12.22000 16.915
12.24000 8.957
12.26000 6.669
12.28000 19.147
12.30000 9.564
12.32000 16.105
12.34000 10.773
12.36000 11.973
12.38000 11.557
12.40000 17.082
12.42000 30.554
12.44000 26.925
12.46000 25.072
12.48000 30.023
12.50000 28.691
12.52000 13.350
12.54000 1.626
12.56000 20.431
12.58000 14.791
12.60000 13.740
12.62000 11.586
12.64000 16.800
12.66000 17.834
12.68000 13.847
12.70000 14.623
12.72000 20.523
12.74000 11.831
12.76000 8.738
12.78000 14.917
12.80000 22.883
12.82000 23.850
12.84000 13.006
12.86000 9.257
12.88000 27.489
12.90000 21.492
12.92000 14.989
12.94000 22.864
12.96000 11.028
12.98000 13.670
13.00000 18.069
13.02000 12.092
13.04000 9.276
13.06000 14.584
13.08000 12.920
13.10000 15.502
13.12000 22.452
13.14000 20.526
13.16000 13.844
13.18000 9.743
13.20000 5.440
13.22000 17.766
13.24000 10.572
13.26000 9.114
13.28000 15.264
13.30000 16.195
13.32000 16.030
13.34000 14.240
13.36000 11.984
13.38000 7.365
13.40000 12.453
13.42000 18.906
13.44000 7.067
13.46000 4.174
13.48000 5.741
13.50000 15.779
13.52000 23.986
13.54000 21.691
13.56000 20.100
13.58000 16.427
13.60000 16.747
13.62000 10.598
13.64000 5.973
13.66000 6.907
13.68000 15.809
13.70000 25.442
13.72000 10.506
13.74000 7.928
13.76000 17.410
13.78000 12.242
13.80000 13.795
13.82000 9.375
13.84000 13.309
13.86000 19.345
13.88000 17.314
13.90000 11.765
13.92000 12.062
13.94000 10.396
13.96000 -3.193
13.98000 0.900
14.00000 9.894
14.02000 16.097
14.04000 12.209
14.06000 7.504
14.08000 17.995
14.10000 13.565
14.12000 5.344
14.14000 9.258
14.16000 1.692
14.18000 0.146
14.20000 4.271
14.22000 19.150
14.24000 19.338
14.26000 25.022
14.28000 18.123
14.30000 18.013
14.32000 12.123
14.34000 2.813
14.36000 4.853
14.38000 12.654
14.40000 4.479
14.42000 5.245
14.44000 10.005
14.46000 11.329
14.48000 8.193
14.50000 13.487
14.52000 24.992
14.54000 20.200
14.56000 10.193
14.58000 0.512
14.60000 2.620
14.62000 8.254
14.64000 2.258
14.66000 5.543
14.68000 15.266
14.70000 19.615
14.72000 11.883
14.74000 9.153
14.76000 12.634
14.78000 12.997
14.80000 15.414
14.82000 15.138
14.84000 9.332
14.86000 9.447
14.88000 7.696
14.90000 5.128
14.92000 6.640
14.94000 7.475
14.96000 5.248
14.98000 11.448
15.00000 13.920
15.02000 12.330
15.04000 11.232
15.06000 11.578
15.08000 11.375
15.10000 19.863
15.12000 16.821
15.14000 19.534
15.16000 8.687
15.18000 -3.794
15.20000 -4.439
15.22000 -4.284
15.24000 8.487
15.26000 16.370
15.28000 11.373
15.30000 17.380
15.32000 9.758
15.34000 10.726
15.36000 2.878
15.38000 5.311
15.40000 10.368
15.42000 9.789
15.44000 13.624
15.46000 8.104
15.48000 8.074
15.50000 11.600
15.52000 13.244
15.54000 12.345
15.56000 13.377
15.58000 10.646
15.60000 7.038
15.62000 7.400
15.64000 11.724
15.66000 8.781
15.68000 8.086
15.70000 15.221
15.72000 15.132
15.74000 6.886
15.76000 10.891
15.78000 8.419
15.80000 8.464
15.82000 16.617
15.84000 9.067
15.86000 -0.129
15.88000 4.833
15.90000 2.874
15.92000 12.637
15.94000 14.305
15.96000 15.049
15.98000 17.896
16.00000 9.470
16.02000 8.294
16.04000 16.085
16.06000 12.551
16.08000 8.213
16.10000 7.605
16.12000 8.276
16.14000 4.657
16.16000 9.978
16.18000 13.205
16.20000 16.570
16.22000 20.488
16.24000 19.089
16.26000 19.156
16.28000 9.402
16.30000 -4.418
16.32000 -0.742
16.34000 1.815
16.36000 9.247
16.38000 4.440
16.40000 3.593
16.42000 8.806
16.44000 11.496
16.46000 11.878
16.48000 4.626
16.50000 14.242
16.52000 13.843
16.54000 9.057
16.56000 8.609
16.58000 5.959
16.60000 4.930
16.62000 8.101
16.64000 5.042
16.66000 4.933
16.68000 9.427
16.70000 11.816
16.72000 9.359
16.74000 8.816
16.76000 4.703
16.78000 5.916
16.80000 1.778
16.82000 9.355
16.84000 4.591
16.86000 8.207
16.88000 13.051
16.90000 13.654
16.92000 3.613
16.94000 0.146
16.96000 3.426
16.98000 6.313
17.00000 3.579
17.02000 5.706
17.04000 11.639
17.06000 5.704
17.08000 1.592
17.10000 3.707
17.12000 2.697
17.14000 5.960
17.16000 4.433
17.18000 4.921
17.20000 7.340
17.22000 17.631
17.24000 12.978
17.26000 4.086
17.28000 1.896
17.30000 8.655
17.32000 8.351
17.34000 7.968
17.36000 10.548
17.38000 7.782
17.40000 7.263
17.42000 10.038
17.44000 10.491
17.46000 8.537
17.48000 6.518
17.50000 8.155
17.52000 3.218
17.54000 2.499
17.56000 3.943
17.58000 1.669
17.60000 1.567
17.62000 1.734
17.64000 4.632
17.66000 3.221
17.68000 6.314
17.70000 0.976
17.72000 -2.313
17.74000 4.716
17.76000 12.500
17.78000 7.093
17.80000 3.746
17.82000 2.048
17.84000 3.555
17.86000 5.220
17.88000 2.774
17.90000 1.398
17.92000 6.620
17.94000 5.254
17.96000 3.917
17.98000 3.681
18.00000 10.854
18.02000 3.716
18.04000 3.761
18.06000 3.143
18.08000 7.580
18.10000 9.606
18.12000 3.487
18.14000 9.648
18.16000 10.692
18.18000 12.106
18.20000 5.835
18.22000 4.424
18.24000 5.991
18.26000 10.816
18.28000 13.388
18.30000 2.151
18.32000 1.660
18.34000 5.624
18.36000 5.714
18.38000 1.689
18.40000 10.096
18.42000 5.685
18.44000 2.375
18.46000 5.734
18.48000 1.002
18.50000 3.200
18.52000 5.027
18.54000 -3.931
18.56000 -4.352
18.58000 1.935
18.60000 2.587
18.62000 5.059
18.64000 2.997
18.66000 -0.999
18.68000 5.921
18.70000 4.814
18.72000 0.900
18.74000 1.332
18.76000 2.756
18.78000 8.555
18.80000 5.104
18.82000 1.064
18.84000 6.451
18.86000 13.639
18.88000 8.940
18.90000 2.383
18.92000 0.567
18.94000 8.116
18.96000 5.506
18.98000 -1.453
19.00000 -4.329
19.02000 0.036
19.04000 14.477
19.06000 9.978
19.08000 4.538
19.10000 4.427
19.12000 -0.987
19.14000 2.206
19.16000 1.673
19.18000 4.026
19.20000 4.928
19.22000 2.650
19.24000 0.909
19.26000 4.066
19.28000 3.728
19.30000 5.548
19.32000 1.391
19.34000 1.009
19.36000 5.788
19.38000 10.439
19.40000 5.872
19.42000 2.512
19.44000 -1.224
19.46000 -4.307
19.48000 -3.777
19.50000 6.449
19.52000 1.319
19.54000 -1.347
19.56000 1.941
19.58000 3.451
19.60000 2.586
19.62000 -1.886
19.64000 2.572
19.66000 11.321
19.68000 10.302
19.70000 1.455
19.72000 1.214
19.74000 7.439
19.76000 7.684
19.78000 4.693
19.80000 -3.324
19.82000 -1.234
19.84000 1.024
19.86000 2.433
19.88000 2.401
19.90000 2.062
19.92000 0.888
19.94000 1.944
19.96000 -0.090
19.98000 -1.159
20.00000 4.043
20.02000 3.650
20.04000 2.639
20.06000 3.551
20.08000 2.970
20.10000 3.218
20.12000 4.783
20.14000 3.869
20.16000 0.512
20.18000 -0.412
20.20000 -0.583
20.22000 -2.042
20.24000 2.867
20.26000 1.479
20.28000 1.213
20.30000 1.325
20.32000 2.032
20.34000 5.872
20.36000 5.791
20.38000 10.191
20.40000 6.986
20.42000 9.813
20.44000 2.390
20.46000 7.800
20.48000 8.246
20.50000 9.628
20.52000 4.629
20.54000 3.958
20.56000 9.168
20.58000 7.658
20.60000 11.726
20.62000 17.993
20.64000 6.253
20.66000 0.803
20.68000 0.374
20.70000 -0.172
20.72000 3.867
20.74000 3.672
20.76000 9.684
20.78000 9.394
20.80000 7.339
20.82000 0.921
20.84000 4.447
20.86000 -4.200
20.88000 -1.830
20.90000 6.752
20.92000 10.030
20.94000 7.164
20.96000 -1.431
20.98000 4.206
21.00000 3.652
21.02000 2.961
21.04000 6.605
21.06000 7.595
21.08000 5.836
21.10000 5.049
21.12000 6.305
21.14000 13.265
21.16000 13.931
21.18000 8.687
21.20000 2.789
21.22000 1.424
21.24000 8.858
21.26000 7.394
21.28000 -2.814
21.30000 -0.521
21.32000 5.100
21.34000 -4.172
21.36000 0.605
21.38000 11.162
21.40000 5.632
21.42000 6.101
21.44000 4.064
21.46000 13.302
21.48000 10.183
21.50000 12.426
21.52000 5.574
21.54000 9.681
21.56000 11.171
21.58000 2.787
21.60000 -2.219
21.62000 7.675
21.64000 5.279
21.66000 4.951
21.68000 8.340
21.70000 7.947
21.72000 4.055
21.74000 -4.145
21.76000 4.398
21.78000 9.815
21.80000 11.079
21.82000 9.392
21.84000 6.712
21.86000 10.414
21.88000 11.810
21.90000 4.406
21.92000 7.675
21.94000 8.387
21.96000 0.215
21.98000 4.260
22.00000 7.463
22.02000 6.712
22.04000 2.773
22.06000 1.175
22.08000 2.790
22.10000 -1.412
22.12000 3.526
22.14000 10.244
22.16000 6.223
22.18000 6.651
22.20000 4.643
22.22000 0.861
22.24000 0.578
22.26000 4.352
22.28000 3.178
22.30000 10.176
22.32000 5.119
22.34000 8.340
22.36000 6.451
22.38000 5.843
22.40000 4.044
22.42000 6.267
22.44000 7.434
22.46000 4.405
22.48000 8.114
22.50000 0.811
22.52000 7.411
22.54000 4.709
22.56000 2.662
22.58000 7.506
22.60000 3.343
22.62000 3.916
22.64000 5.014
22.66000 0.405
22.68000 0.064
22.70000 -2.345
22.72000 2.029
22.74000 -1.112
22.76000 2.835
22.78000 2.135
22.80000 5.572
22.82000 6.088
22.84000 -0.832
22.86000 -2.718
22.88000 4.147
22.90000 3.196
22.92000 1.734
22.94000 2.004
22.96000 -0.890
22.98000 1.164
23.00000 -1.479
23.02000 -0.717
23.04000 2.450
23.06000 0.497
23.08000 -3.485
23.10000 -2.891
23.12000 -2.095
23.14000 1.222
23.16000 4.530
23.18000 0.838
23.20000 -3.494
23.22000 0.725
23.24000 3.004
23.26000 -1.166
23.28000 -1.574
23.30000 3.440
23.32000 4.740
23.34000 4.946
23.36000 -1.236
23.38000 -1.272
23.40000 1.092
23.42000 2.142
23.44000 5.116
23.46000 5.884
23.48000 5.743
23.50000 -0.960
23.52000 -0.534
23.54000 2.036
23.56000 4.828
23.58000 -2.745
23.60000 -3.596
23.62000 -3.402
23.64000 1.340
23.66000 -0.039
23.68000 0.742
23.70000 -1.685
23.72000 1.137
23.74000 3.780
23.76000 4.669
23.78000 7.055
23.80000 6.977
23.82000 3.225
23.84000 5.735
23.86000 0.783
23.88000 1.451
23.90000 3.005
23.92000 -0.381
23.94000 -4.064
23.96000 2.763
23.98000 0.829
24.00000 -4.059
24.02000 -1.389
24.04000 6.434
24.06000 7.643
24.08000 2.752
24.10000 2.220
24.12000 5.756
24.14000 3.212
24.16000 0.716
24.18000 5.833
24.20000 3.275
24.22000 0.359
24.24000 2.199
24.26000 3.588
24.28000 6.902
24.30000 2.648
24.32000 4.078
24.34000 1.959
24.36000 -1.722
24.38000 -2.497
24.40000 2.397
24.42000 7.146
24.44000 7.292
24.46000 1.867
24.48000 -1.225
24.50000 0.451
24.52000 2.376
24.54000 6.013
24.56000 1.065
24.58000 1.390
24.60000 3.362
24.62000 -0.644
24.64000 -3.693
24.66000 -1.564
24.68000 1.417
24.70000 5.506
24.72000 0.354
24.74000 3.606
24.76000 5.118
24.78000 4.707
24.80000 5.986
24.82000 9.824
24.84000 3.385
24.86000 3.090
24.88000 3.559
24.90000 1.417
24.92000 0.199
24.94000 0.128
24.96000 -3.348
24.98000 2.952
25.00000 4.714
25.02000 -0.237
25.04000 1.593
25.06000 7.666
25.08000 5.545
25.10000 -0.390
25.12000 -3.194
25.14000 -2.773
25.16000 -3.972
25.18000 1.388
25.20000 3.784
25.22000 6.907
25.24000 5.722
25.26000 4.517
25.28000 3.424
25.30000 6.103
25.32000 7.322
25.34000 8.561
25.36000 6.533
25.38000 0.416
25.40000 -0.305
25.42000 6.449
25.44000 4.216
25.46000 1.490
25.48000 3.910
25.50000 1.883
25.52000 1.709
25.54000 5.776
25.56000 8.420
25.58000 4.940
25.60000 9.264
25.62000 5.487
25.64000 3.333
25.66000 2.154
25.68000 1.783
25.70000 0.758
25.72000 3.929
25.74000 3.515
25.76000 2.700
25.78000 -0.728
25.80000 1.840
25.82000 7.061
25.84000 4.645
25.86000 4.291
25.88000 -0.743
25.90000 -1.960
25.92000 3.746
25.94000 7.334
25.96000 5.893
25.98000 5.829
26.00000 5.372
26.02000 4.214
26.04000 4.540
26.06000 4.737
26.08000 3.631
26.10000 3.397
26.12000 1.562
26.14000 0.333
26.16000 3.180
26.18000 5.945
26.20000 8.774
26.22000 12.480
26.24000 8.765
26.26000 5.182
26.28000 -3.924
26.30000 0.550
26.32000 1.777
26.34000 4.048
26.36000 9.160
26.38000 6.489
26.40000 2.199
26.42000 4.461
26.44000 2.246
26.46000 -0.510
26.48000 3.319
26.50000 8.019
26.52000 6.372
26.54000 9.984
26.56000 7.071
26.58000 4.760
26.60000 6.815
26.62000 1.500
26.64000 0.773
26.66000 -3.909
26.68000 -1.620
26.70000 0.236
26.72000 -0.154
26.74000 -0.389
26.76000 6.577
26.78000 3.984
26.80000 3.811
26.82000 -0.146
26.84000 -1.699
26.86000 5.824
26.88000 6.252
26.90000 2.083
26.92000 -1.294
26.94000 -1.607
26.96000 1.957
26.98000 0.148
27.00000 2.249
27.02000 1.362
27.04000 5.781
27.06000 5.466
27.08000 1.904
27.10000 0.531
27.12000 -1.968
27.14000 4.669
27.16000 4.468
27.18000 0.835
27.20000 1.726
27.22000 7.193
27.24000 8.783
27.26000 0.861
27.28000 -2.931
27.30000 -1.627
27.32000 -1.130
27.34000 0.432
27.36000 -3.647
27.38000 -3.873
27.40000 -3.404
27.42000 1.369
27.44000 2.897
27.46000 0.873
27.48000 4.656
27.50000 2.203
27.52000 1.328
27.54000 -3.457
27.56000 0.033
27.58000 7.953
27.60000 5.413
27.62000 3.732
27.64000 1.028
27.66000 4.195
27.68000 3.760
27.70000 3.988
27.72000 -1.141
27.74000 0.965
27.76000 0.574
27.78000 -0.069
27.80000 4.413
27.82000 1.081
27.84000 -0.321
27.86000 3.973
27.88000 8.347
27.90000 7.622
27.92000 1.707
27.94000 1.210
27.96000 2.719
27.98000 4.327
28.00000 2.543
28.02000 -0.616
28.04000 2.673
28.06000 3.958
28.08000 1.573
28.10000 3.524
28.12000 1.061
28.14000 4.553
28.16000 3.673
28.18000 7.243
28.20000 3.892
28.22000 3.214
28.24000 10.884
28.26000 6.535
28.28000 3.061
28.30000 0.215
28.32000 -3.790
28.34000 3.228
28.36000 8.275
28.38000 6.571
28.40000 1.699
28.42000 3.623
28.44000 5.244
28.46000 9.115
28.48000 3.151
28.50000 0.260
28.52000 2.395
28.54000 3.830
28.56000 6.010
28.58000 7.064
28.60000 7.266
28.62000 4.398
28.64000 3.410
28.66000 7.553
28.68000 6.749
28.70000 3.081
28.72000 5.353
28.74000 10.235
28.76000 9.494
28.78000 7.486
28.80000 3.076
28.82000 4.843
28.84000 6.316
28.86000 0.869
28.88000 -2.097
28.90000 1.910
28.92000 3.060
28.94000 -0.309
28.96000 0.124
28.98000 2.816
29.00000 6.707
29.02000 0.731
29.04000 1.627
29.06000 2.259
29.08000 2.196
29.10000 1.410
29.12000 -2.334
29.14000 1.514
29.16000 3.043
29.18000 3.077
29.20000 1.135
29.22000 1.110
29.24000 -0.665
29.26000 6.585
29.28000 3.047
29.30000 3.604
29.32000 1.168
29.34000 -2.122
29.36000 0.333
29.38000 5.302
29.40000 3.052
29.42000 0.901
29.44000 3.650
29.46000 0.183
29.48000 -0.011
29.50000 -0.877
29.52000 2.579
29.54000 4.939
29.56000 2.237
29.58000 4.211
29.60000 6.528
29.62000 4.466
29.64000 4.015
29.66000 1.458
29.68000 -0.340
29.70000 -1.560
29.72000 0.822
29.74000 3.406
29.76000 5.840
29.78000 4.802
29.80000 2.101
29.82000 -0.687
29.84000 1.734
29.86000 7.002
29.88000 3.485
29.90000 5.920
29.92000 8.380
29.94000 5.243
29.96000 6.730
29.98000 6.857
30.00000 2.820
30.02000 -3.733
30.04000 -3.708
30.06000 1.116
30.08000 1.517
30.10000 2.829
30.12000 -0.149
30.14000 5.260
30.16000 3.500
30.18000 6.538
30.20000 6.185
30.22000 6.842
30.24000 3.557
30.26000 0.616
30.28000 3.231
30.30000 1.308
30.32000 2.231
30.34000 0.972
30.36000 0.415
30.38000 2.791
30.40000 8.394
30.42000 4.837
30.44000 3.105
30.46000 4.845
30.48000 3.056
30.50000 1.879
30.52000 5.825
30.54000 5.813
30.56000 3.238
30.58000 -3.696
30.60000 2.045
30.62000 7.531
30.64000 4.225
30.66000 2.180
30.68000 4.260
30.70000 3.128
30.72000 4.728
30.74000 -1.064
30.76000 3.039
30.78000 4.584
30.80000 4.681
30.82000 2.896
30.84000 0.386
30.86000 6.682
30.88000 5.982
30.90000 10.865
30.92000 6.333
30.94000 4.787
30.96000 5.479
30.98000 2.748
31.00000 4.177
31.02000 4.019
31.04000 -3.669
31.06000 1.111
31.08000 4.848
31.10000 7.992
31.12000 8.234
31.14000 9.634
31.16000 7.842
31.18000 6.596
31.20000 8.482
31.22000 9.488
31.24000 6.322
31.26000 2.068
31.28000 -1.651
31.30000 0.586
31.32000 5.060
31.34000 7.051
31.36000 4.767
31.38000 4.100
31.40000 5.746
31.42000 6.075
31.44000 5.525
31.46000 1.612
31.48000 -3.652
31.50000 0.588
31.52000 -1.883
31.54000 1.704
31.56000 3.809
31.58000 4.720
31.60000 6.724
31.62000 6.902
31.64000 4.759
31.66000 7.103
31.68000 6.697
31.70000 2.351
31.72000 2.150
31.74000 5.295
31.76000 2.888
31.78000 -0.350
31.80000 -0.144
31.82000 1.353
31.84000 0.472
31.86000 3.740
31.88000 5.196
31.90000 3.201
31.92000 5.248
31.94000 6.489
31.96000 2.245
31.98000 4.526
32.00000 3.320
32.02000 5.116
32.04000 3.523
32.06000 1.493
32.08000 -0.112
32.10000 2.630
32.12000 2.798
32.14000 4.238
32.16000 4.736
32.18000 5.059
32.20000 -2.768
32.22000 -3.626
32.24000 1.492
32.26000 4.505
32.28000 4.458
32.30000 7.844
32.32000 4.678
32.34000 3.033
32.36000 3.505
32.38000 2.452
32.40000 4.531
32.42000 7.845
32.44000 4.938
32.46000 -1.181
32.48000 2.138
32.50000 1.247
32.52000 7.852
32.54000 9.159
32.56000 8.911
32.58000 8.675
32.60000 1.816
32.62000 -1.181
32.64000 2.833
32.66000 5.958
32.68000 7.203
32.70000 6.493
32.72000 6.486
32.74000 3.843
32.76000 0.077
32.78000 5.674
32.80000 3.771
32.82000 4.011
32.84000 2.404
32.86000 1.877
32.88000 3.936
32.90000 4.031
32.92000 3.682
32.94000 6.780
32.96000 6.212
32.98000 1.681
33.00000 -1.585
33.02000 0.776
33.04000 1.525
33.06000 -0.500
33.08000 -0.546
33.10000 -2.863
33.12000 -1.654
33.14000 -0.904
33.16000 -1.647
33.18000 0.108
33.20000 3.749
33.22000 2.284
33.24000 -3.615
33.26000 0.819
33.28000 1.366
33.30000 3.883
33.32000 4.006
33.34000 2.522
33.36000 4.414
33.38000 3.956
33.40000 1.662
33.42000 5.687
33.44000 5.653
33.46000 8.244
33.48000 10.880
33.50000 3.136
33.52000 4.296
33.54000 6.382
33.56000 2.853
33.58000 0.803
33.60000 5.167
33.62000 7.115
33.64000 0.592
33.66000 1.903
33.68000 4.504
33.70000 1.879
33.72000 0.963
33.74000 4.524
33.76000 2.879
33.78000 4.633
33.80000 4.844
33.82000 8.674
33.84000 3.219
33.86000 5.825
33.88000 5.692
33.90000 3.674
33.92000 2.149
33.94000 2.600
33.96000 1.835
33.98000 2.455
34.00000 4.477
34.02000 6.299
34.04000 5.376
34.06000 6.930
34.08000 5.892
34.10000 7.949
34.12000 1.089
34.14000 -1.014
34.16000 1.199
34.18000 1.262
34.20000 -1.035
34.22000 -1.428
34.24000 2.973
34.26000 4.497
34.28000 4.037
34.30000 4.254
34.32000 -1.680
34.34000 -1.008
34.36000 -1.040
34.38000 2.787
34.40000 2.507
34.42000 -1.130
34.44000 -2.998
34.46000 -0.177
34.48000 3.230
34.50000 3.121
34.52000 2.830
34.54000 0.581
34.56000 2.679
34.58000 2.528
34.60000 0.490
34.62000 -0.942
34.64000 2.473
34.66000 3.607
34.68000 1.353
34.70000 -0.996
34.72000 -1.671
34.74000 -3.528
34.76000 0.386
34.78000 0.445
34.80000 0.659
34.82000 -1.840
34.84000 6.285
34.86000 5.368
34.88000 3.262
34.90000 1.049
34.92000 -0.821
34.94000 0.224
34.96000 -0.718
34.98000 5.156
35.00000 7.228
35.02000 1.680
35.04000 3.573
35.06000 4.872
35.08000 4.639
35.10000 3.648
35.12000 6.949
35.14000 3.416
35.16000 2.443
35.18000 6.401
35.20000 5.194
35.22000 6.912
35.24000 4.947
35.26000 5.163
35.28000 1.141
35.30000 0.089
35.32000 0.785
35.34000 -3.573
35.36000 2.728
35.38000 7.551
35.40000 6.110
35.42000 4.267
35.44000 5.257
35.46000 0.093
35.48000 -1.022
35.50000 -2.351
35.52000 2.378
35.54000 2.681
35.56000 2.411
35.58000 1.089
35.60000 2.044
35.62000 0.845
35.64000 -2.554
35.66000 -1.162
35.68000 -3.590
35.70000 -0.509
35.72000 3.612
35.74000 1.234
35.76000 0.876
35.78000 -0.701
35.80000 2.259
35.82000 1.721
35.84000 3.090
35.86000 5.844
35.88000 -0.326
35.90000 -3.601
35.92000 -1.299
35.94000 1.420
35.96000 1.182
35.98000 2.168
36.00000 2.950
36.02000 -2.127
36.04000 1.646
36.06000 3.259
36.08000 -0.663
36.10000 4.937
36.12000 5.268
36.14000 4.508
36.16000 3.976
36.18000 2.133
36.20000 -0.208
36.22000 -1.262
36.24000 3.389
36.26000 7.153
36.28000 2.667
36.30000 -0.623
36.32000 2.929
36.34000 0.781
36.36000 -1.347
36.38000 -1.362
36.40000 -3.623
36.42000 1.172
36.44000 -1.688
36.46000 2.131
36.48000 1.279
36.50000 -3.096
36.52000 2.421
36.54000 1.184
36.56000 2.932
36.58000 2.251
36.60000 1.100
36.62000 2.276
36.64000 4.272
36.66000 5.016
36.68000 1.695
36.70000 3.422
36.72000 0.018
36.74000 2.074
36.76000 -3.425
36.78000 2.990
36.80000 -0.364
36.82000 -2.064
36.84000 0.375
36.86000 0.095
36.88000 -0.020
36.90000 2.515
36.92000 2.328
36.94000 0.613
36.96000 -3.660
36.98000 0.566
37.00000 -1.023
37.02000 1.884
37.04000 4.251
37.06000 3.553
37.08000 4.547
37.10000 1.159
37.12000 3.178
37.14000 -0.375
37.16000 -0.390
37.18000 -1.294
37.20000 -2.360
37.22000 3.166
37.24000 3.701
37.26000 -1.684
37.28000 2.047
37.30000 0.454
37.32000 3.088
37.34000 1.885
37.36000 -0.417
37.38000 -3.699
37.40000 -2.220
37.42000 1.730
37.44000 1.734
37.46000 1.568
37.48000 1.677
37.50000 3.586
37.52000 0.612
37.54000 0.719
37.56000 3.366
37.58000 8.529
37.60000 7.663
37.62000 0.667
37.64000 -0.160
37.66000 8.675
37.68000 9.408
37.70000 7.042
37.72000 6.859
37.74000 7.291
37.76000 10.044
37.78000 14.028
37.80000 11.133
37.82000 9.290
37.84000 12.939
37.86000 10.475
37.88000 12.525
37.90000 15.484
37.92000 9.640
37.94000 9.167
37.96000 14.403
37.98000 14.858
38.00000 17.371
38.02000 14.463
38.04000 11.663
38.06000 12.391
38.08000 16.560
38.10000 18.275
38.12000 21.329
38.14000 20.893
38.16000 21.361
38.18000 19.540
38.20000 20.181
38.22000 16.144
38.24000 13.429
38.26000 19.032
38.28000 19.616
38.30000 22.238
38.32000 24.137
38.34000 24.146
38.36000 23.906
38.38000 26.363
38.40000 24.854
38.42000 24.235
38.44000 25.548
38.46000 26.524
38.48000 29.289
38.50000 27.644
38.52000 25.724
38.54000 25.524
38.56000 29.472
38.58000 31.119
38.60000 35.048
38.62000 39.902
38.64000 41.363
38.66000 42.571
38.68000 35.640
38.70000 31.951
38.72000 35.441
38.74000 39.423
38.76000 43.538
38.78000 48.291
38.80000 49.042
38.82000 46.694
38.84000 48.929
38.86000 51.797
38.88000 54.600
38.90000 56.620
38.92000 61.609
38.94000 66.299
38.96000 65.166
38.98000 67.385
39.00000 71.931
39.02000 73.577
39.04000 76.281
39.06000 77.196
39.08000 78.628
39.10000 88.752
39.12000 94.101
39.14000 94.288
39.16000 96.652
39.18000 101.210
39.20000 103.253
39.22000 111.346
39.24000 117.310
39.26000 120.566
39.28000 131.070
39.30000 130.576
39.32000 134.461
39.34000 149.075
39.36000 153.839
39.38000 154.779
39.40000 163.080
39.42000 175.614
39.44000 184.095
39.46000 193.272
39.48000 197.148
39.50000 204.576
39.52000 217.857
39.54000 230.501
39.56000 238.595
39.58000 248.680
39.60000 255.959
39.62000 263.420
39.64000 273.947
39.66000 288.161
39.68000 307.627
39.70000 336.238
39.72000 349.567
39.74000 362.330
39.76000 372.400
39.78000 385.584
39.80000 405.517
39.82000 416.948
39.84000 432.884
39.86000 458.992
39.88000 480.637
39.90000 495.216
39.92000 514.808
39.94000 538.638
39.96000 546.716
39.98000 572.257
40.00000 586.853
40.02000 591.709
40.04000 608.355
40.06000 626.915
40.08000 641.574
40.10000 653.649
40.12000 667.609
40.14000 680.960
40.16000 684.629
40.18000 681.470
40.20000 687.618
40.22000 701.749
40.24000 708.301
40.26000 704.293
40.28000 701.724
40.30000 686.050
40.32000 675.422
40.34000 674.680
40.36000 664.850
40.38000 657.793
40.40000 642.854
40.42000 626.223
40.44000 614.346
40.46000 585.849
40.48000 580.295
40.50000 556.690
40.52000 528.566
40.54000 523.350
40.56000 505.990
40.58000 484.747
40.60000 468.096
40.62000 449.948
40.64000 425.943
40.66000 404.529
40.68000 379.840
40.70000 356.977
40.72000 346.694
40.74000 335.568
40.76000 315.642
40.78000 296.032
40.80000 283.277
40.82000 271.164
40.84000 260.267
40.86000 247.992
40.88000 237.529
40.90000 224.964
40.92000 209.488
40.94000 198.040
40.96000 187.816
40.98000 180.336
41.00000 171.141
41.02000 161.468
41.04000 155.811
41.06000 142.549
41.08000 137.015
41.10000 125.473
41.12000 121.133
41.14000 112.041
41.16000 106.914
41.18000 101.692
41.20000 90.699
41.22000 87.553
41.24000 85.330
41.26000 82.905
41.28000 78.379
41.30000 69.422
41.32000 63.651
41.34000 63.590
41.36000 62.147
41.38000 57.469
41.40000 48.640
41.42000 45.934
41.44000 48.259
41.46000 40.759
41.48000 41.102
41.50000 42.144
41.52000 41.960
41.54000 35.361
41.56000 40.998
41.58000 35.271
41.60000 26.796
41.62000 24.521
41.64000 28.300
41.66000 29.367
41.68000 26.193
41.70000 23.123
41.72000 25.947
41.74000 19.420
41.76000 20.691
41.78000 16.233
41.80000 17.909
41.82000 22.435
41.84000 22.290
41.86000 17.238
41.88000 12.917
41.90000 11.814
41.92000 15.694
41.94000 11.549
41.96000 6.388
41.98000 4.052
42.00000 11.207
42.02000 7.272
42.04000 2.415
42.06000 4.052
42.08000 10.501
42.10000 9.005
42.12000 7.678
42.14000 7.345
42.16000 3.345
42.18000 7.307
42.20000 8.409
42.22000 9.613
42.24000 5.455
42.26000 5.679
42.28000 2.842
42.30000 7.369
42.32000 6.970
42.34000 1.850
42.36000 4.740
42.38000 6.824
42.40000 3.470
42.42000 2.510
42.44000 3.172
42.46000 3.505
42.48000 2.440
42.50000 2.606
42.52000 0.222
42.54000 2.921
42.56000 5.324
42.58000 3.439
42.60000 -0.281
42.62000 4.922
42.64000 6.748
42.66000 2.889
42.68000 -0.591
42.70000 -1.379
42.72000 5.575
42.74000 7.198
42.76000 5.978
42.78000 3.271
42.80000 4.571
42.82000 1.990
42.84000 4.506
42.86000 7.367
42.88000 -0.135
42.90000 -2.311
42.92000 2.638
42.94000 2.710
42.96000 -0.453
42.98000 0.460
43.00000 -0.347
43.02000 3.142
43.04000 3.777
43.06000 1.837
43.08000 0.432
43.10000 -3.585
43.12000 -2.712
43.14000 0.711
43.16000 3.137
43.18000 2.023
43.20000 2.428
43.22000 5.392
43.24000 1.385
43.26000 2.781
43.28000 8.077
43.30000 4.230
43.32000 2.367
43.34000 0.838
43.36000 -0.874
43.38000 -1.283
43.40000 3.088
43.42000 4.751
43.44000 1.763
43.46000 2.864
43.48000 1.821
43.50000 2.315
43.52000 2.492
43.54000 0.681
43.56000 1.352
43.58000 0.932
43.60000 -0.348
43.62000 -3.542
43.64000 2.650
43.66000 1.627
43.68000 2.086
43.70000 0.063
43.72000 4.282
43.74000 4.731
43.76000 5.581
43.78000 4.091
43.80000 3.241
43.82000 2.326
43.84000 6.148
43.86000 1.886
43.88000 1.926
43.90000 0.464
43.92000 -1.581
43.94000 -2.945
43.96000 0.281
43.98000 5.328
44.00000 1.634
44.02000 5.834
44.04000 8.192
44.06000 3.961
44.08000 1.207
44.10000 -0.059
44.12000 3.542
44.14000 10.626
44.16000 5.216
44.18000 4.839
44.20000 5.095
44.22000 11.797
44.24000 12.347
44.26000 14.000
44.28000 11.394
44.30000 8.716
44.32000 10.205
44.34000 9.560
44.36000 8.638
44.38000 2.297
44.40000 -3.489
44.42000 -1.345
44.44000 9.296
44.46000 10.060
44.48000 6.511
44.50000 7.751
44.52000 6.761
44.54000 8.513
44.56000 5.725
44.58000 2.977
44.60000 8.285
44.62000 10.062
44.64000 6.793
44.66000 7.457
44.68000 4.391
44.70000 -0.444
44.72000 1.155
44.74000 7.896
44.76000 10.785
44.78000 6.952
44.80000 8.990
44.82000 5.281
44.84000 14.200
44.86000 11.349
44.88000 5.101
44.90000 11.151
44.92000 10.826
44.94000 10.708
44.96000 13.725
44.98000 9.895
45.00000 7.553
45.02000 7.003
45.04000 11.715
45.06000 9.387
45.08000 12.213
45.10000 22.904
45.12000 22.962
45.14000 9.957
45.16000 12.256
45.18000 14.396
45.20000 10.969
45.22000 8.172
45.24000 8.596
45.26000 16.605
45.28000 17.166
45.30000 13.030
45.32000 13.688
45.34000 13.709
45.36000 18.709
45.38000 17.874
45.40000 19.409
45.42000 21.241
45.44000 27.677
45.46000 22.567
45.48000 25.957
45.50000 23.975
45.52000 22.366
45.54000 23.354
45.56000 20.906
45.58000 21.904
45.60000 20.532
45.62000 24.777
45.64000 25.418
45.66000 24.992
45.68000 32.272
45.70000 30.858
45.72000 30.741
45.74000 35.492
45.76000 36.708
45.78000 35.012
45.80000 37.545
45.82000 40.723
45.84000 43.602
45.86000 42.961
45.88000 44.239
45.90000 45.622
45.92000 46.974
45.94000 44.734
45.96000 39.705
45.98000 39.064
46.00000 43.491
46.02000 46.705
46.04000 50.072
46.06000 46.021
46.08000 49.358
46.10000 61.864
46.12000 51.123
46.14000 52.182
46.16000 50.997
46.18000 58.878
46.20000 53.202
46.22000 55.524
46.24000 59.232
46.26000 63.484
46.28000 66.814
46.30000 71.211
46.32000 62.925
46.34000 62.676
46.36000 70.826
46.38000 72.197
46.40000 71.523
46.42000 72.565
46.44000 73.167
46.46000 64.669
46.48000 73.430
46.50000 74.459
46.52000 75.719
46.54000 76.926
46.56000 76.355
46.58000 76.861
46.60000 86.346
46.62000 79.191
46.64000 81.204
46.66000 75.511
46.68000 75.050
46.70000 84.036
46.72000 85.902
46.74000 90.424
46.76000 88.798
46.78000 91.772
46.80000 86.104
46.82000 86.260
46.84000 81.126
46.86000 85.824
46.88000 82.191
46.90000 86.257
46.92000 80.782
46.94000 77.058
46.96000 75.177
46.98000 76.974
47.00000 78.929
47.02000 79.362
47.04000 79.199
47.06000 84.952
47.08000 77.103
47.10000 70.853
47.12000 75.576
47.14000 75.439
47.16000 71.789
47.18000 72.109
47.20000 68.306
47.22000 67.981
47.24000 67.858
47.26000 63.600
47.28000 61.312
47.30000 61.018
47.32000 56.835
47.34000 59.452
47.36000 60.956
47.38000 54.246
47.40000 47.212
47.42000 48.764
47.44000 52.762
47.46000 53.412
47.48000 48.720
47.50000 39.772
47.52000 35.585
47.54000 41.328
47.56000 43.901
47.58000 39.980
47.60000 34.462
47.62000 33.720
47.64000 34.150
47.66000 37.623
47.68000 33.083
47.70000 26.091
47.72000 20.877
47.74000 24.619
47.76000 27.429
47.78000 29.952
47.80000 25.391
47.82000 22.113
47.84000 21.054
47.86000 19.507
47.88000 20.862
47.90000 24.988
47.92000 19.597
47.94000 9.441
47.96000 16.387
47.98000 14.318
48.00000 13.857
48.02000 15.711
48.04000 11.893
48.06000 14.698
48.08000 17.215
48.10000 18.080
48.12000 12.150
48.14000 11.619
48.16000 9.924
48.18000 14.762
48.20000 16.625
48.22000 11.598
48.24000 8.357
48.26000 9.220
48.28000 13.047
48.30000 17.591
48.32000 10.306
48.34000 6.141
48.36000 4.753
48.38000 10.522
48.40000 11.495
48.42000 4.549
48.44000 2.519
48.46000 5.642
48.48000 6.365
48.50000 9.392
48.52000 2.008
48.54000 4.594
48.56000 -0.113
48.58000 5.715
48.60000 1.386
48.62000 0.008
48.64000 -1.001
48.66000 0.599
48.68000 -0.319
48.70000 1.961
48.72000 4.024
48.74000 3.215
48.76000 -2.191
48.78000 -0.131
48.80000 -1.061
48.82000 -3.217
48.84000 1.805
48.86000 1.536
48.88000 5.162
48.90000 1.588
48.92000 1.934
48.94000 3.515
48.96000 8.660
48.98000 9.452
49.00000 3.220
49.02000 -0.147
49.04000 -0.645
49.06000 9.867
49.08000 7.017
49.10000 2.975
49.12000 2.912
49.14000 3.782
49.16000 5.225
49.18000 2.074
49.20000 5.341
49.22000 5.258
49.24000 5.568
49.26000 2.088
49.28000 -2.473
49.30000 -0.239
49.32000 5.450
49.34000 7.404
49.36000 6.383
49.38000 7.644
49.40000 5.275
49.42000 1.225
49.44000 0.469
49.46000 2.918
49.48000 -3.122
49.50000 -3.142
49.52000 2.226
49.54000 5.761
49.56000 0.933
49.58000 -0.093
49.60000 3.176
49.62000 7.409
49.64000 4.290
49.66000 0.484
49.68000 -0.321
49.70000 -3.100
49.72000 1.473
49.74000 1.551
49.76000 -0.943
49.78000 5.033
49.80000 3.759
49.82000 0.120
49.84000 0.668
49.86000 0.640
49.88000 3.721
49.90000 9.588
49.92000 3.973
49.94000 1.549
49.96000 2.490
49.98000 2.164
50.00000 0.783
50.02000 0.388
50.04000 -1.890
50.06000 -2.543
50.08000 1.617
50.10000 1.181
50.12000 1.773
50.14000 5.484
50.16000 7.171
50.18000 4.797
50.20000 0.300
50.22000 -1.453
50.24000 0.178
50.26000 -0.874
50.28000 -2.138
50.30000 -1.350
50.32000 -1.523
50.34000 0.637
50.36000 7.100
50.38000 1.387
50.40000 0.103
50.42000 1.897
50.44000 0.690
50.46000 -1.889
50.48000 -0.450
50.50000 -3.051
50.52000 -1.126
50.54000 3.080
50.56000 2.335
50.58000 3.933
50.60000 1.823
50.62000 5.229
50.64000 4.547
50.66000 2.419
50.68000 2.508
50.70000 4.496
50.72000 8.809
50.74000 10.148
50.76000 4.000
50.78000 0.191
50.80000 2.519
50.82000 2.973
50.84000 3.441
50.86000 1.637
50.88000 2.765
50.90000 0.427
50.92000 -2.990
50.94000 -1.532
50.96000 2.453
50.98000 4.568
51.00000 5.393
51.02000 2.475
51.04000 0.611
51.06000 8.641
51.08000 6.963
51.10000 -0.041
51.12000 -0.259
51.14000 2.008
51.16000 -0.322
51.18000 0.771
51.20000 3.042
51.22000 3.789
51.24000 1.201
51.26000 0.565
51.28000 7.300
51.30000 5.054
51.32000 9.155
51.34000 5.932
51.36000 1.713
51.38000 2.178
51.40000 8.835
51.42000 2.522
51.44000 1.106
51.46000 2.468
51.48000 -2.785
51.50000 2.012
51.52000 3.507
51.54000 2.211
51.56000 1.769
51.58000 4.441
51.60000 -0.596
51.62000 -3.009
51.64000 -2.929
51.66000 -2.287
51.68000 3.332
51.70000 5.752
51.72000 5.115
51.74000 6.567
51.76000 2.035
51.78000 7.856
51.80000 6.009
51.82000 4.070
51.84000 4.642
51.86000 0.009
51.88000 3.529
51.90000 0.724
51.92000 3.259
51.94000 2.441
51.96000 0.393
51.98000 3.071
52.00000 3.159
52.02000 -0.711
52.04000 0.481
52.06000 0.108
52.08000 4.477
52.10000 4.465
52.12000 3.544
52.14000 4.855
52.16000 3.753
52.18000 2.515
52.20000 2.364
52.22000 4.821
52.24000 5.793
52.26000 3.265
52.28000 2.767
52.30000 -0.688
52.32000 -0.828
52.34000 4.933
52.36000 1.981
52.38000 -0.941
52.40000 0.322
52.42000 6.342
52.44000 2.870
52.46000 2.074
52.48000 3.241
52.50000 3.922
52.52000 2.332
52.54000 1.664
52.56000 1.689
52.58000 -1.185
52.60000 -2.226
52.62000 0.203
52.64000 0.660
52.66000 -2.030
52.68000 -2.710
52.70000 2.261
52.72000 0.354
52.74000 -0.338
52.76000 -0.316
52.78000 -1.441
52.80000 1.956
52.82000 10.390
52.84000 5.991
52.86000 1.983
52.88000 3.743
52.90000 3.204
52.92000 7.608
52.94000 6.944
52.96000 8.932
52.98000 8.323
53.00000 1.169
53.02000 3.627
53.04000 4.094
53.06000 6.268
53.08000 6.614
53.10000 5.072
53.12000 -0.338
53.14000 3.585
53.16000 5.406
53.18000 7.910
53.20000 4.551
53.22000 2.521
53.24000 5.630
53.26000 6.895
53.28000 6.694
53.30000 4.675
53.32000 -1.072
53.34000 -2.915
53.36000 -0.231
53.38000 5.196
53.40000 7.067
53.42000 4.898
53.44000 2.703
53.46000 3.743
53.48000 4.369
53.50000 5.352
53.52000 8.265
53.54000 12.765
53.56000 8.804
53.58000 4.027
53.60000 4.785
53.62000 6.132
53.64000 11.788
53.66000 9.037
53.68000 7.039
53.70000 6.618
53.72000 4.307
53.74000 8.359
53.76000 8.538
53.78000 5.288
53.80000 6.899
53.82000 8.852
53.84000 5.955
53.86000 5.436
53.88000 0.982
53.90000 1.106
53.92000 7.793
53.94000 6.966
53.96000 8.612
53.98000 4.262
54.00000 10.746
54.02000 5.226
54.04000 -0.040
54.06000 0.888
54.08000 4.101
54.10000 6.286
54.12000 5.566
54.14000 2.478
54.16000 4.000
54.18000 -0.610
54.20000 2.142
54.22000 3.554
54.24000 6.245
54.26000 -0.433
54.28000 2.840
54.30000 3.425
54.32000 3.959
54.34000 -1.660
54.36000 -1.416
54.38000 -0.235
54.40000 5.423
54.42000 5.177
54.44000 5.614
54.46000 3.737
54.48000 5.768
54.50000 3.785
54.52000 6.207
54.54000 1.396
54.56000 -2.899
54.58000 3.235
54.60000 7.918
54.62000 10.837
54.64000 9.825
54.66000 4.405
54.68000 7.209
54.70000 5.692
54.72000 2.235
54.74000 -1.115
54.76000 5.863
54.78000 5.251
54.80000 3.501
54.82000 5.009
54.84000 7.486
54.86000 2.733
54.88000 2.108
54.90000 1.778
54.92000 4.524
54.94000 -1.094
54.96000 -0.219
54.98000 7.331
55.00000 5.440
55.02000 1.175
55.04000 2.257
55.06000 3.137
55.08000 1.726
55.10000 2.569
55.12000 -0.521
55.14000 -0.206
55.16000 5.629
55.18000 3.082
55.20000 1.611
55.22000 3.564
55.24000 3.595
55.26000 2.232
55.28000 4.625
55.30000 5.816
55.32000 3.801
55.34000 4.185
55.36000 3.665
55.38000 1.620
55.40000 6.935
55.42000 2.780
55.44000 1.493
55.46000 6.197
55.48000 13.660
55.50000 13.491
55.52000 9.947
55.54000 -2.886
55.56000 3.594
55.58000 6.267
55.60000 2.677
55.62000 3.679
55.64000 4.588
55.66000 2.823
55.68000 4.579
55.70000 8.060
55.72000 6.669
55.74000 4.044
55.76000 7.566
55.78000 5.678
55.80000 6.696
55.82000 4.957
55.84000 4.377
55.86000 0.502
55.88000 1.220
55.90000 4.300
55.92000 -0.444
55.94000 -0.132
55.96000 5.836
55.98000 7.114
56.00000 6.539
56.02000 4.621
56.04000 -0.369
56.06000 -0.351
56.08000 5.289
56.10000 0.642
56.12000 -0.587
56.14000 3.822
56.16000 4.494
56.18000 3.538
56.20000 5.795
56.22000 7.967
56.24000 4.742
56.26000 5.594
56.28000 4.228
56.30000 -2.732
56.32000 -2.682
56.34000 2.963
56.36000 1.095
56.38000 1.704
56.40000 6.565
56.42000 7.326
56.44000 6.663
56.46000 3.807
56.48000 1.471
56.50000 0.171
56.52000 2.223
56.54000 -1.494
56.56000 3.628
56.58000 1.811
56.60000 0.288
56.62000 1.935
56.64000 4.242
56.66000 1.049
56.68000 5.733
56.70000 6.365
56.72000 -0.580
56.74000 1.640
56.76000 2.515
56.78000 5.662
56.80000 4.607
56.82000 -0.703
56.84000 4.115
56.86000 7.316
56.88000 5.236
56.90000 5.732
56.92000 4.579
56.94000 -1.733
56.96000 0.386
56.98000 2.719
57.00000 3.289
57.02000 2.514
57.04000 2.711
57.06000 3.375
57.08000 1.654
57.10000 0.958
57.12000 -1.275
57.14000 -1.306
57.16000 -2.374
57.18000 2.422
57.20000 -2.368
57.22000 -0.617
57.24000 2.035
57.26000 2.779
57.28000 -0.287
57.30000 1.832
57.32000 2.788
57.34000 1.788
57.36000 3.278
57.38000 2.708
57.40000 -2.823
57.42000 1.197
57.44000 -0.892
57.46000 -1.437
57.48000 3.845
57.50000 2.751
57.52000 3.255
57.54000 4.358
57.56000 4.479
57.58000 3.693
57.60000 2.111
57.62000 1.718
57.64000 2.704
57.66000 4.382
57.68000 5.255
57.70000 4.246
57.72000 2.264
57.74000 4.202
57.76000 4.845
57.78000 4.393
57.80000 6.234
57.82000 6.528
57.84000 0.700
57.86000 4.194
57.88000 8.722
57.90000 4.330
57.92000 2.076
57.94000 3.366
57.96000 5.408
57.98000 8.898
58.00000 11.864
58.02000 2.775
58.04000 -1.041
58.06000 7.522
58.08000 1.948
58.10000 1.768
58.12000 8.664
58.14000 8.484
58.16000 1.098
58.18000 5.495
58.20000 6.094
58.22000 2.957
58.24000 6.857
58.26000 9.442
58.28000 12.203
58.30000 12.361
58.32000 6.815
58.34000 6.244
58.36000 4.323
58.38000 3.844
58.40000 6.514
58.42000 5.277
58.44000 5.254
58.46000 3.290
58.48000 3.052
58.50000 -2.785
58.52000 0.487
58.54000 2.211
58.56000 2.554
58.58000 2.258
58.60000 4.776
58.62000 6.907
58.64000 8.669
58.66000 5.875
58.68000 0.069
58.70000 6.648
58.72000 8.490
58.74000 9.147
58.76000 4.364
58.78000 5.695
58.80000 9.920
58.82000 6.885
58.84000 5.357
58.86000 4.032
58.88000 2.935
58.90000 4.534
58.92000 1.571
58.94000 0.071
58.96000 4.587
58.98000 -2.332
59.00000 5.176
59.02000 2.572
59.04000 2.547
59.06000 1.581
59.08000 4.236
59.10000 1.562
59.12000 -1.034
59.14000 1.548
59.16000 4.918
59.18000 2.184
59.20000 0.583
59.22000 1.221
59.24000 3.789
59.26000 0.541
59.28000 -2.768
59.30000 0.432
59.32000 2.732
59.34000 1.825
59.36000 0.994
59.38000 5.373
59.40000 6.104
59.42000 1.550
59.44000 4.904
59.46000 2.350
59.48000 -2.230
59.50000 1.936
59.52000 3.785
59.54000 2.189
59.56000 1.211
59.58000 -2.019
59.60000 -0.626
59.62000 2.098
59.64000 0.547
59.66000 3.934
59.68000 5.175
59.70000 1.634
59.72000 -0.916
59.74000 -0.355
59.76000 -0.231
59.78000 1.843
59.80000 0.687
59.82000 -0.212
59.84000 3.488
59.86000 5.657
59.88000 4.532
59.90000 0.814
59.92000 -2.682
59.94000 -2.757
59.96000 2.974
59.98000 7.870
60.00000 -0.500
60.02000 -0.053
60.04000 -0.703
60.06000 4.107
60.08000 2.180
60.10000 3.328
60.12000 2.698
60.14000 0.027
60.16000 1.131
60.18000 8.004
60.20000 5.915
60.22000 3.294
60.24000 2.576
60.26000 1.940
60.28000 -0.751
60.30000 -0.481
60.32000 3.477
60.34000 1.249
60.36000 0.698
60.38000 2.719
60.40000 4.889
60.42000 2.089
60.44000 -2.218
60.46000 0.399
60.48000 0.306
60.50000 0.902
60.52000 0.901
60.54000 1.123
60.56000 3.694
60.58000 4.072
60.60000 -1.980
60.62000 -2.723
60.64000 3.433
60.66000 6.245
60.68000 6.596
60.70000 4.282
60.72000 3.459
60.74000 4.447
60.76000 3.438
60.78000 4.287
60.80000 2.891
60.82000 -1.169
60.84000 0.505
60.86000 1.878
60.88000 5.705
60.90000 1.693
60.92000 -0.050
60.94000 1.589
60.96000 5.392
60.98000 5.202
61.00000 1.651
61.02000 2.290
61.04000 4.014
61.06000 3.361
61.08000 4.496
61.10000 5.971
61.12000 -0.960
61.14000 -2.676
61.16000 1.170
61.18000 5.838
61.20000 1.720
61.22000 8.219
61.24000 5.620
61.26000 1.093
61.28000 3.864
61.30000 5.506
61.32000 6.681
61.34000 12.113
61.36000 7.275
61.38000 2.617
61.40000 0.904
61.42000 3.448
61.44000 3.157
61.46000 3.060
61.48000 1.112
61.50000 -1.385
61.52000 0.315
61.54000 0.053
61.56000 1.242
61.58000 5.338
61.60000 7.883
61.62000 4.864
61.64000 1.892
61.66000 3.073
61.68000 2.712
61.70000 4.409
61.72000 5.368
61.74000 6.616
61.76000 7.998
61.78000 6.898
61.80000 6.917
61.82000 5.236
61.84000 1.975
61.86000 4.984
61.88000 3.719
61.90000 2.383
61.92000 2.253
61.94000 1.551
61.96000 4.167
61.98000 1.115
62.00000 1.069
62.02000 4.127
62.04000 1.485
62.06000 2.433
62.08000 1.819
62.10000 1.529
62.12000 1.260
62.14000 -1.011
62.16000 2.074
62.18000 4.951
62.20000 1.773
62.22000 1.042
62.24000 2.252
62.26000 2.364
62.28000 1.407
62.30000 0.805
62.32000 2.965
62.34000 3.488
62.36000 5.718
62.38000 3.017
62.40000 2.166
62.42000 3.689
62.44000 0.886
62.46000 0.020
62.48000 -1.571
62.50000 -2.682
62.52000 2.321
62.54000 3.974
62.56000 4.440
62.58000 6.248
62.60000 4.838
62.62000 1.554
62.64000 -0.645
62.66000 0.690
62.68000 4.430
62.70000 2.793
62.72000 3.711
62.74000 1.704
62.76000 1.862
62.78000 1.442
62.80000 -0.863
62.82000 0.325
62.84000 3.349
62.86000 -1.732
62.88000 -2.344
62.90000 3.438
62.92000 5.030
62.94000 5.849
62.96000 9.079
62.98000 4.523
63.00000 -0.295
63.02000 -2.391
63.04000 -1.474
63.06000 4.886
63.08000 5.706
63.10000 -0.141
63.12000 -0.676
63.14000 2.569
63.16000 6.390
63.18000 5.539
63.20000 5.138
63.22000 3.419
63.24000 0.875
63.26000 3.246
63.28000 3.095
63.30000 8.899
63.32000 9.915
63.34000 7.157
63.36000 3.273
63.38000 2.442
63.40000 1.910
63.42000 0.551
63.44000 0.784
63.46000 -0.040
63.48000 -0.408
63.50000 -0.573
63.52000 2.291
63.54000 3.430
63.56000 4.157
63.58000 4.210
63.60000 0.549
63.62000 3.687
63.64000 6.659
63.66000 6.776
63.68000 8.093
63.70000 5.102
63.72000 4.528
63.74000 -1.410
63.76000 -2.628
63.78000 1.181
63.80000 7.887
63.82000 4.791
63.84000 1.000
63.86000 4.650
63.88000 6.613
63.90000 6.543
63.92000 0.596
63.94000 2.423
63.96000 0.733
63.98000 6.431
64.00000 11.418
64.02000 8.235
64.04000 8.126
64.06000 1.460
64.08000 1.815
64.10000 1.519
64.12000 1.645
64.14000 1.494
64.16000 2.473
64.18000 2.431
64.20000 4.124
64.22000 2.242
64.24000 0.654
64.26000 2.190
64.28000 6.328
64.30000 5.622
64.32000 3.057
64.34000 0.945
64.36000 -2.298
64.38000 1.741
64.40000 2.382
64.42000 1.644
64.44000 1.288
64.46000 4.091
64.48000 2.636
64.50000 1.447
64.52000 4.063
64.54000 5.425
64.56000 2.827
64.58000 4.365
64.60000 8.296
64.62000 7.222
64.64000 6.208
64.66000 4.227
64.68000 3.934
64.70000 5.944
64.72000 2.323
64.74000 3.163
64.76000 2.358
64.78000 0.574
64.80000 2.711
64.82000 4.109
64.84000 6.406
64.86000 5.557
64.88000 3.468
64.90000 3.919
64.92000 4.449
64.94000 5.182
64.96000 0.967
64.98000 4.438
65.00000 7.555
65.02000 1.955
65.04000 0.015
65.06000 3.562
65.08000 8.079
65.10000 6.508
65.12000 6.862
65.14000 4.714
65.16000 3.778
65.18000 2.681
65.20000 1.744
65.22000 2.129
65.24000 6.757
65.26000 7.856
65.28000 5.488
65.30000 -1.407
65.32000 3.241
65.34000 1.256
65.36000 -1.695
65.38000 0.964
65.40000 2.356
65.42000 0.593
65.44000 -2.678
65.46000 0.688
65.48000 3.011
65.50000 0.933
65.52000 0.937
65.54000 0.789
65.56000 3.256
65.58000 4.107
65.60000 3.053
65.62000 -1.942
65.64000 1.845
65.66000 4.452
65.68000 1.503
65.70000 0.835
65.72000 2.706
65.74000 2.215
65.76000 2.062
65.78000 1.313
65.80000 3.052
65.82000 5.247
65.84000 4.957
65.86000 2.465
65.88000 6.270
65.90000 5.169
65.92000 3.595
65.94000 5.142
65.96000 1.674
65.98000 3.138
66.00000 2.459
66.02000 2.283
66.04000 1.776
66.06000 4.962
66.08000 2.490
66.10000 -1.884
66.12000 -0.883
66.14000 -0.830
66.16000 -1.994
66.18000 -1.604
66.20000 -0.113
66.22000 1.605
66.24000 1.198
66.26000 2.445
66.28000 2.320
66.30000 -1.161
66.32000 -2.616
66.34000 -2.003
66.36000 -0.346
66.38000 2.379
66.40000 0.100
66.42000 -2.307
66.44000 2.484
66.46000 -1.037
66.48000 -1.119
66.50000 2.970
66.52000 4.637
66.54000 0.641
66.56000 -2.511
66.58000 -0.273
66.60000 -0.964
66.62000 3.378
66.64000 -0.404
66.66000 2.438
66.68000 1.774
66.70000 2.257
66.72000 3.720
66.74000 -0.277
66.76000 2.088
66.78000 6.652
66.80000 0.478
66.82000 4.083
66.84000 3.524
66.86000 2.098
66.88000 0.863
66.90000 2.515
66.92000 4.494
66.94000 0.918
66.96000 1.163
66.98000 6.389
67.00000 6.108
67.02000 -0.665
67.04000 4.216
67.06000 6.346
67.08000 6.821
67.10000 6.261
67.12000 8.194
67.14000 6.735
67.16000 7.332
67.18000 5.051
67.20000 3.977
67.22000 7.440
67.24000 4.218
67.26000 8.546
67.28000 10.688
67.30000 9.941
67.32000 10.620
67.34000 9.618
67.36000 8.922
67.38000 10.951
67.40000 10.484
67.42000 14.500
67.44000 9.301
67.46000 10.524
67.48000 7.611
67.50000 6.876
67.52000 9.966
67.54000 10.389
67.56000 19.177
67.58000 15.902
67.60000 12.074
67.62000 13.443
67.64000 14.577
67.66000 16.632
67.68000 16.578
67.70000 15.303
67.72000 12.244
67.74000 11.391
67.76000 14.793
67.78000 17.428
67.80000 13.127
67.82000 13.725
67.84000 18.570
67.86000 17.290
67.88000 19.431
67.90000 23.160
67.92000 23.718
67.94000 22.608
67.96000 22.360
67.98000 21.251
68.00000 20.860
68.02000 21.365
68.04000 17.163
68.06000 21.504
68.08000 22.665
68.10000 20.233
68.12000 18.794
68.14000 21.803
68.16000 20.787
68.18000 23.486
68.20000 26.092
68.22000 30.106
68.24000 26.137
68.26000 23.032
68.28000 21.393
68.30000 25.097
68.32000 24.882
68.34000 25.106
68.36000 28.388
68.38000 25.655
68.40000 23.261
68.42000 24.984
68.44000 24.589
68.46000 26.042
68.48000 23.041
68.50000 27.159
68.52000 24.513
68.54000 21.957
68.56000 24.390
68.58000 23.700
68.60000 24.299
68.62000 23.511
68.64000 21.217
68.66000 19.343
68.68000 19.115
68.70000 24.279
68.72000 22.475
68.74000 22.524
68.76000 23.570
68.78000 22.751
68.80000 18.841
68.82000 24.306
68.84000 24.151
68.86000 17.400
68.88000 18.979
68.90000 21.254
68.92000 17.600
68.94000 15.730
68.96000 15.713
68.98000 12.852
69.00000 11.018
69.02000 14.854
69.04000 14.614
69.06000 13.473
69.08000 10.483
69.10000 10.749
69.12000 14.891
69.14000 14.206
69.16000 11.665
69.18000 12.141
69.20000 14.301
69.22000 13.009
69.24000 7.759
69.26000 7.630
69.28000 8.042
69.30000 5.436
69.32000 3.639
69.34000 4.632
69.36000 6.824
69.38000 10.380
69.40000 5.165
69.42000 3.892
69.44000 7.499
69.46000 5.109
69.48000 -0.302
69.50000 0.216
69.52000 1.970
69.54000 2.937
69.56000 3.908
69.58000 2.205
69.60000 2.417
69.62000 5.455
69.64000 7.014
69.66000 8.676
69.68000 4.733
69.70000 3.607
69.72000 5.738
69.74000 7.078
69.76000 4.074
69.78000 6.603
69.80000 7.102
69.82000 4.472
69.84000 5.801
69.86000 7.581
69.88000 3.039
69.90000 1.372
69.92000 4.838
69.94000 2.652
69.96000 2.027
69.98000 2.085
70.00000 2.017
70.02000 2.896
70.04000 1.414
70.06000 1.574
70.08000 2.124
70.10000 4.406
70.12000 4.959
70.14000 2.755
70.16000 2.753
70.18000 3.477
70.20000 1.784
70.22000 0.724
70.24000 -2.322
70.26000 -0.685
70.28000 -2.623
70.30000 -0.486
70.32000 5.143
70.34000 10.239
70.36000 5.129
70.38000 1.847
70.40000 3.655
70.42000 3.127
70.44000 0.784
70.46000 0.354
70.48000 2.652
70.50000 4.551
70.52000 6.149
70.54000 7.870
70.56000 2.408
70.58000 2.949
70.60000 0.108
70.62000 3.747
70.64000 -0.388
70.66000 -2.602
70.68000 -1.820
70.70000 4.862
70.72000 9.051
70.74000 5.463
70.76000 3.829
70.78000 0.500
70.80000 4.101
70.82000 0.632
70.84000 1.322
70.86000 3.530
70.88000 -1.238
70.90000 3.290
70.92000 6.304
70.94000 4.576
70.96000 4.331
70.98000 3.774
71.00000 0.476
71.02000 0.712
71.04000 3.069
71.06000 4.672
71.08000 4.697
71.10000 7.211
71.12000 3.263
71.14000 5.917
71.16000 1.870
71.18000 0.977
71.20000 3.511
71.22000 5.195
71.24000 5.754
71.26000 0.933
71.28000 3.750
71.30000 3.609
71.32000 0.892
71.34000 2.603
71.36000 3.211
71.38000 2.309
71.40000 2.525
71.42000 1.979
71.44000 0.575
71.46000 6.697
71.48000 8.055
71.50000 3.559
71.52000 6.837
71.54000 9.199
71.56000 -1.454
71.58000 2.833
71.60000 2.918
71.62000 5.050
71.64000 5.273
71.66000 -2.037
71.68000 -1.814
71.70000 1.701
71.72000 6.550
71.74000 5.367
71.76000 0.977
71.78000 7.078
71.80000 10.568
71.82000 8.056
71.84000 4.094
71.86000 7.820
71.88000 6.897
71.90000 3.051
71.92000 6.749
71.94000 3.762
71.96000 4.248
71.98000 9.692
72.00000 4.713
72.02000 -2.471
72.04000 1.612
72.06000 1.565
72.08000 1.934
72.10000 2.181
72.12000 4.287
72.14000 3.292
72.16000 2.545
72.18000 4.522
72.20000 3.921
72.22000 5.434
72.24000 5.417
72.26000 1.734
72.28000 5.772
72.30000 2.063
72.32000 3.635
72.34000 6.754
72.36000 4.146
72.38000 2.803
72.40000 3.734
72.42000 2.148
72.44000 -2.189
72.46000 2.571
72.48000 4.413
72.50000 0.855
72.52000 7.267
72.54000 5.339
72.56000 1.473
72.58000 3.850
72.60000 6.695
72.62000 4.378
72.64000 3.738
72.66000 4.170
72.68000 1.993
72.70000 5.994
72.72000 3.096
72.74000 5.252
72.76000 5.756
72.78000 3.902
72.80000 1.993
72.82000 4.152
72.84000 6.420
72.86000 6.735
72.88000 7.666
72.90000 6.539
72.92000 3.224
72.94000 2.422
72.96000 0.518
72.98000 -1.329
73.00000 1.710
73.02000 4.239
73.04000 7.157
73.06000 4.154
73.08000 2.039
73.10000 0.955
73.12000 1.239
73.14000 4.551
73.16000 6.515
73.18000 2.656
73.20000 1.236
73.22000 1.332
73.24000 4.516
73.26000 1.806
73.28000 1.258
73.30000 1.972
73.32000 -1.971
73.34000 -0.773
73.36000 2.066
73.38000 1.958
73.40000 2.516
73.42000 0.593
73.44000 2.950
73.46000 2.767
73.48000 -0.882
73.50000 2.070
73.52000 2.033
73.54000 4.098
73.56000 2.226
73.58000 3.131
73.60000 6.754
73.62000 5.074
73.64000 1.787
73.66000 1.065
73.68000 7.356
73.70000 2.259
73.72000 2.949
73.74000 5.923
73.76000 9.559
73.78000 2.814
73.80000 2.071
73.82000 7.485
73.84000 4.461
73.86000 -0.794
73.88000 2.039
73.90000 3.055
73.92000 1.453
73.94000 6.988
73.96000 2.383
73.98000 2.153
74.00000 6.396
74.02000 6.322
74.04000 10.270
74.06000 4.869
74.08000 3.346
74.10000 0.149
74.12000 5.544
74.14000 2.852
74.16000 1.378
74.18000 -0.356
74.20000 4.037
74.22000 5.654
74.24000 3.410
74.26000 1.503
74.28000 3.818
74.30000 5.741
74.32000 8.090
74.34000 5.813
74.36000 1.629
74.38000 -2.422
74.40000 1.810
74.42000 1.809
74.44000 5.039
74.46000 4.244
74.48000 2.079
74.50000 6.021
74.52000 4.426
74.54000 8.769
74.56000 7.882
74.58000 1.726
74.60000 3.159
74.62000 3.466
74.64000 5.363
74.66000 5.067
74.68000 6.141
74.70000 2.761
74.72000 3.933
74.74000 6.653
74.76000 -0.544
74.78000 2.534
74.80000 0.235
74.82000 5.734
74.84000 6.741
74.86000 5.388
74.88000 6.428
74.90000 6.165
74.92000 4.530
74.94000 6.017
74.96000 8.365
74.98000 7.552
75.00000 3.789
75.02000 4.559
75.04000 6.354
75.06000 8.002
75.08000 3.135
75.10000 3.195
75.12000 4.627
75.14000 3.622
75.16000 5.411
75.18000 6.553
75.20000 3.668
75.22000 2.329
75.24000 4.923
75.26000 1.942
75.28000 0.171
75.30000 -2.459
75.32000 9.524
75.34000 5.067
75.36000 1.776
75.38000 1.989
75.40000 4.930
75.42000 6.671
75.44000 3.075
75.46000 4.659
75.48000 6.518
75.50000 3.429
75.52000 3.787
75.54000 7.028
75.56000 6.581
75.58000 3.346
75.60000 2.333
75.62000 2.862
75.64000 -0.750
75.66000 2.762
75.68000 6.386
75.70000 2.479
75.72000 2.002
75.74000 -0.312
75.76000 6.402
75.78000 11.464
75.80000 6.086
75.82000 5.825
75.84000 5.556
75.86000 4.230
75.88000 5.610
75.90000 2.184
75.92000 3.555
75.94000 10.502
75.96000 5.092
75.98000 -2.465
76.00000 -0.745
76.02000 7.933
76.04000 12.580
76.06000 13.620
76.08000 12.923
76.10000 1.384
76.12000 0.122
76.14000 0.700
76.16000 0.332
76.18000 0.720
76.20000 0.949
76.22000 6.847
76.24000 5.563
76.26000 0.534
76.28000 5.154
76.30000 7.306
76.32000 6.329
76.34000 2.762
76.36000 4.718
76.38000 6.736
76.40000 4.630
76.42000 -1.096
76.44000 -2.050
76.46000 -0.432
76.48000 2.358
76.50000 2.843
76.52000 4.368
76.54000 2.077
76.56000 -0.732
76.58000 -2.189
76.60000 1.212
76.62000 6.872
76.64000 4.553
76.66000 3.530
76.68000 5.382
76.70000 5.632
76.72000 4.122
76.74000 3.006
76.76000 1.466
76.78000 0.498
76.80000 -2.504
76.82000 6.069
76.84000 3.793
76.86000 6.948
76.88000 9.436
76.90000 1.024
76.92000 0.155
76.94000 2.628
76.96000 3.434
76.98000 9.197
77.00000 11.412
77.02000 9.904
77.04000 1.282
77.06000 2.447
77.08000 3.070
77.10000 3.406
77.12000 -0.010
77.14000 2.244
77.16000 5.188
77.18000 4.205
77.20000 -0.387
77.22000 0.912
77.24000 1.332
77.26000 0.404
77.28000 -0.136
77.30000 5.588
77.32000 0.993
77.34000 -1.691
77.36000 -0.608
77.38000 1.346
77.40000 -0.907
77.42000 2.931
77.44000 -1.033
77.46000 -0.127
77.48000 5.427
77.50000 6.057
77.52000 8.209
77.54000 6.359
77.56000 1.656
77.58000 0.657
77.60000 -0.646
77.62000 0.722
77.64000 0.256
77.66000 5.368
77.68000 3.804
77.70000 1.780
77.72000 4.673
77.74000 2.525
77.76000 1.798
77.78000 1.321
77.80000 1.595
77.82000 -0.695
77.84000 -0.955
77.86000 0.473
77.88000 0.607
77.90000 -1.461
77.92000 -0.231
77.94000 0.932
77.96000 1.754
77.98000 -0.286
78.00000 0.330
78.02000 4.479
78.04000 6.133
78.06000 6.219
78.08000 0.027
78.10000 2.659
78.12000 1.782
78.14000 8.221
78.16000 7.239
78.18000 0.971
78.20000 0.710
78.22000 0.830
78.24000 5.418
78.26000 4.833
78.28000 3.029
78.30000 3.993
78.32000 4.501
78.34000 3.680
78.36000 1.725
78.38000 7.147
78.40000 6.902
78.42000 3.502
78.44000 3.955
78.46000 -0.501
78.48000 0.864
78.50000 2.025
78.52000 0.214
78.54000 0.801
78.56000 5.987
78.58000 2.819
78.60000 2.389
78.62000 4.846
78.64000 4.849
78.66000 0.732
78.68000 7.348
78.70000 5.126
78.72000 3.225
78.74000 2.043
78.76000 1.835
78.78000 5.754
78.80000 5.041
78.82000 7.466
78.84000 3.714
78.86000 -0.474
78.88000 -2.542
78.90000 0.632
78.92000 1.537
78.94000 0.796
78.96000 -2.199
78.98000 1.701
79.00000 1.814
79.02000 -1.493
79.04000 4.196
79.06000 2.930
79.08000 2.791
79.10000 4.523
79.12000 7.467
79.14000 3.546
79.16000 4.909
79.18000 6.273
79.20000 1.567
79.22000 3.536
79.24000 1.250
79.26000 2.819
79.28000 3.696
79.30000 1.030
79.32000 -0.031
79.34000 1.706
79.36000 5.222
79.38000 3.610
79.40000 -1.027
79.42000 -2.562
79.44000 -0.604
79.46000 0.634
79.48000 -0.035
79.50000 0.252
79.52000 3.381
79.54000 0.230
79.56000 -1.050
79.58000 4.196
79.60000 6.794
79.62000 8.690
79.64000 2.896
79.66000 5.559
79.68000 7.345
79.70000 8.620
79.72000 9.390
79.74000 5.648
79.76000 1.061
79.78000 0.707
79.80000 7.004
79.82000 4.812
79.84000 4.843
79.86000 4.995
79.88000 3.304
79.90000 -0.505
79.92000 3.951
79.94000 6.132
79.96000 7.806
79.98000 5.138
80.00000 4.847
80.02000 4.033
80.04000 -0.766
80.06000 1.972
80.08000 6.157
80.10000 4.221
80.12000 6.258
80.14000 2.488
80.16000 4.726
80.18000 2.827
80.20000 1.285
80.22000 9.089
80.24000 4.951
80.26000 9.244
80.28000 6.276
80.30000 6.438
80.32000 1.631
80.34000 -1.854
80.36000 -1.151
80.38000 -2.654
80.40000 3.428
80.42000 7.008
80.44000 8.077
80.46000 2.670
80.48000 3.055
80.50000 1.023
80.52000 2.484
80.54000 7.747
80.56000 8.188
80.58000 6.357
80.60000 8.882
80.62000 10.310
80.64000 8.401
80.66000 1.543
80.68000 0.405
80.70000 0.946
80.72000 2.623
80.74000 3.713
80.76000 8.677
80.78000 3.771
80.80000 2.471
80.82000 5.292
80.84000 3.119
80.86000 5.113
80.88000 4.366
80.90000 10.742
80.92000 5.080
80.94000 6.653
80.96000 8.137
80.98000 5.033
81.00000 5.789
81.02000 4.557
81.04000 7.176
81.06000 7.843
81.08000 11.471
81.10000 13.282
81.12000 2.642
81.14000 0.950
81.16000 2.854
81.18000 3.854
81.20000 9.204
81.22000 11.434
81.24000 7.635
81.26000 8.168
81.28000 7.764
81.30000 6.690
81.32000 6.978
81.34000 6.238
81.36000 10.830
81.38000 10.821
81.40000 4.228
81.42000 9.285
81.44000 10.333
81.46000 9.639
81.48000 14.067
81.50000 7.474
81.52000 6.403
81.54000 12.185
81.56000 13.017
81.58000 12.775
81.60000 14.612
81.62000 15.468
81.64000 18.937
81.66000 13.808
81.68000 12.944
81.70000 11.764
81.72000 11.971
81.74000 12.930
81.76000 17.740
81.78000 17.426
81.80000 16.886
81.82000 21.231
81.84000 19.796
81.86000 16.603
81.88000 9.440
81.90000 13.125
81.92000 17.045
81.94000 18.199
81.96000 24.212
81.98000 23.005
82.00000 22.427
82.02000 20.104
82.04000 16.653
82.06000 21.844
82.08000 21.968
82.10000 20.961
82.12000 22.351
82.14000 22.648
82.16000 24.064
82.18000 20.832
82.20000 17.505
82.22000 17.408
82.24000 20.879
82.26000 24.271
82.28000 26.782
82.30000 24.597
82.32000 20.515
82.34000 14.763
82.36000 16.344
82.38000 17.539
82.40000 23.943
82.42000 24.315
82.44000 21.486
82.46000 17.777
82.48000 14.496
82.50000 20.885
82.52000 23.806
82.54000 21.688
82.56000 24.849
82.58000 21.467
82.60000 18.767
82.62000 17.192
82.64000 20.289
82.66000 19.516
82.68000 20.672
82.70000 22.244
82.72000 22.895
82.74000 24.428
82.76000 27.806
82.78000 27.263
82.80000 23.590
82.82000 28.921
82.84000 30.991
82.86000 25.657
82.88000 23.680
82.90000 25.383
82.92000 24.443
82.94000 15.111
82.96000 17.359
82.98000 17.314
83.00000 21.412
83.02000 20.484
83.04000 24.097
83.06000 27.437
83.08000 28.858
83.10000 24.183
83.12000 18.247
83.14000 23.211
83.16000 20.353
83.18000 12.639
83.20000 14.110
83.22000 13.500
83.24000 14.319
83.26000 21.011
83.28000 15.278
83.30000 11.311
83.32000 6.959
83.34000 8.061
83.36000 13.871
83.38000 14.552
83.40000 13.218
83.42000 10.693
83.44000 13.324
83.46000 12.356
83.48000 13.258
83.50000 18.239
83.52000 12.904
83.54000 2.212
83.56000 0.833
83.58000 6.043
83.60000 7.784
83.62000 12.341
83.64000 11.319
83.66000 8.737
83.68000 5.709
83.70000 7.616
83.72000 9.785
83.74000 8.401
83.76000 6.550
83.78000 8.787
83.80000 9.319
83.82000 10.327
83.84000 6.710
83.86000 5.747
83.88000 6.135
83.90000 1.241
83.92000 2.783
83.94000 2.786
83.96000 7.440
83.98000 6.310
84.00000 6.686
84.02000 1.979
84.04000 2.517
84.06000 1.929
84.08000 1.295
84.10000 -1.756
84.12000 -2.707
84.14000 5.237
84.16000 6.642
84.18000 7.289
84.20000 4.127
84.22000 7.662
84.24000 3.860
84.26000 2.316
84.28000 0.570
84.30000 0.982
84.32000 7.205
84.34000 3.299
84.36000 2.267
84.38000 1.363
84.40000 3.365
84.42000 5.539
84.44000 0.129
84.46000 0.859
84.48000 2.912
84.50000 8.257
84.52000 5.591
84.54000 1.971
84.56000 0.759
84.58000 0.440
84.60000 2.766
84.62000 3.137
84.64000 -1.649
84.66000 -0.799
84.68000 0.893
84.70000 -0.829
84.72000 3.595
84.74000 3.202
84.76000 1.590
84.78000 -1.962
84.80000 -0.494
84.82000 2.676
84.84000 5.096
84.86000 6.528
84.88000 6.573
84.90000 2.821
84.92000 1.866
84.94000 2.506
84.96000 0.444
84.98000 -1.018
85.00000 -2.621
85.02000 1.284
85.04000 9.418
85.06000 8.851
85.08000 5.510
85.10000 3.574
85.12000 2.824
85.14000 5.174
85.16000 2.296
85.18000 5.882
85.20000 6.596
85.22000 9.124
85.24000 8.044
85.26000 3.607
85.28000 2.205
85.30000 0.763
85.32000 0.235
85.34000 -0.028
85.36000 0.066
85.38000 6.027
85.40000 4.152
85.42000 3.447
85.44000 3.165
85.46000 4.798
85.48000 -1.155
85.50000 -0.505
85.52000 2.499
85.54000 1.030
85.56000 0.460
85.58000 0.376
85.60000 0.849
85.62000 3.078
85.64000 2.538
85.66000 7.497
85.68000 10.649
85.70000 9.175
85.72000 5.848
85.74000 8.530
85.76000 9.954
85.78000 5.761
85.80000 4.462
85.82000 3.941
85.84000 4.620
85.86000 3.455
85.88000 -0.129
85.90000 3.797
85.92000 6.810
85.94000 9.636
85.96000 4.345
85.98000 7.592
86.00000 2.454
86.02000 10.075
86.04000 11.918
86.06000 11.178
86.08000 6.474
86.10000 7.036
86.12000 8.190
86.14000 15.235
86.16000 18.619
86.18000 14.483
86.20000 7.136
86.22000 11.941
86.24000 10.610
86.26000 9.779
86.28000 13.379
86.30000 15.032
86.32000 17.559
86.34000 14.433
86.36000 11.191
86.38000 13.895
86.40000 13.589
86.42000 15.231
86.44000 19.431
86.46000 21.676
86.48000 16.111
86.50000 25.052
86.52000 26.349
86.54000 21.158
86.56000 20.415
86.58000 24.829
86.60000 23.169
86.62000 22.236
86.64000 22.756
86.66000 30.720
86.68000 25.191
86.70000 23.675
86.72000 21.826
86.74000 24.035
86.76000 24.860
86.78000 28.925
86.80000 32.027
86.82000 25.516
86.84000 31.229
86.86000 23.590
86.88000 25.692
86.90000 28.963
86.92000 23.817
86.94000 24.934
86.96000 29.191
86.98000 32.395
87.00000 27.433
87.02000 29.895
87.04000 22.105
87.06000 29.565
87.08000 26.527
87.10000 24.037
87.12000 27.744
87.14000 28.278
87.16000 21.997
87.18000 22.866
87.20000 21.015
87.22000 21.423
87.24000 22.165
87.26000 23.119
87.28000 22.981
87.30000 25.318
87.32000 29.646
87.34000 26.966
87.36000 26.434
87.38000 23.021
87.40000 22.088
87.42000 22.097
87.44000 20.090
87.46000 20.689
87.48000 21.689
87.50000 14.486
87.52000 19.207
87.54000 24.569
87.56000 18.649
87.58000 14.007
87.60000 10.352
87.62000 13.087
87.64000 9.591
87.66000 13.818
87.68000 17.246
87.70000 16.257
87.72000 15.045
87.74000 11.203
87.76000 10.601
87.78000 14.339
87.80000 17.219
87.82000 11.444
87.84000 4.048
87.86000 8.432
87.88000 6.398
87.90000 -1.256
87.92000 9.988
87.94000 10.788
87.96000 10.670
87.98000 10.154
88.00000 11.040
88.02000 8.398
88.04000 7.064
88.06000 7.245
88.08000 11.040
88.10000 10.061
88.12000 7.892
88.14000 2.930
88.16000 1.945
88.18000 8.086
88.20000 10.421
88.22000 6.989
88.24000 3.045
88.26000 7.476
88.28000 7.428
88.30000 4.811
88.32000 2.442
88.34000 7.232
88.36000 6.046
88.38000 7.496
88.40000 4.855
88.42000 3.226
88.44000 2.423
88.46000 3.296
88.48000 6.470
88.50000 2.515
88.52000 0.743
88.54000 3.008
88.56000 7.190
88.58000 4.428
88.60000 1.935
88.62000 3.553
88.64000 -1.155
88.66000 -0.483
88.68000 5.662
88.70000 4.605
88.72000 4.424
88.74000 0.611
88.76000 -2.451
88.78000 -0.129
88.80000 2.858
88.82000 5.601
88.84000 3.120
88.86000 1.947
88.88000 5.617
88.90000 3.721
88.92000 4.115
88.94000 5.622
88.96000 2.833
88.98000 2.290
89.00000 6.815
89.02000 3.331
89.04000 3.096
89.06000 6.021
89.08000 4.748
89.10000 1.774
89.12000 -0.805
89.14000 0.357
89.16000 1.029
89.18000 6.257
89.20000 9.214
89.22000 6.335
89.24000 7.363
89.26000 4.468
89.28000 1.245
89.30000 3.577
89.32000 1.882
89.34000 -2.376
89.36000 2.322
89.38000 2.618
89.40000 3.123
89.42000 1.062
89.44000 3.449
89.46000 4.766
89.48000 5.147
89.50000 1.174
89.52000 1.866
89.54000 3.279
89.56000 6.039
89.58000 0.479
89.60000 2.901
89.62000 11.552
89.64000 6.676
89.66000 0.060
89.68000 1.017
89.70000 -0.060
89.72000 1.107
89.74000 3.274
89.76000 0.713
89.78000 1.866
89.80000 4.904
89.82000 2.593
89.84000 -1.894
89.86000 4.773
89.88000 5.558
89.90000 3.387
89.92000 1.586
89.94000 0.215
89.96000 1.197
89.98000 2.449
90.00000 0.841
90.02000 -0.637
90.04000 -0.390
90.06000 2.341
90.08000 4.564
90.10000 1.210
90.12000 -2.402
90.14000 -0.387
90.16000 -0.103
90.18000 3.051
90.20000 -1.282
90.22000 1.714
90.24000 1.833
90.26000 2.774
90.28000 3.281
90.30000 2.429
90.32000 0.101
90.34000 4.220
90.36000 2.807
90.38000 3.281
90.40000 0.751
90.42000 2.395
90.44000 -1.237
90.46000 2.247
90.48000 1.372
90.50000 5.719
90.52000 5.475
90.54000 2.933
90.56000 -2.323
90.58000 0.608
90.60000 2.551
90.62000 1.789
90.64000 -1.599
90.66000 3.707
90.68000 3.985
90.70000 0.644
90.72000 4.517
90.74000 0.180
90.76000 -1.995
90.78000 1.761
90.80000 2.498
90.82000 3.693
90.84000 5.528
90.86000 2.555
90.88000 0.142
90.90000 0.077
90.92000 3.108
90.94000 3.471
90.96000 2.457
90.98000 1.368
91.00000 4.217
91.02000 4.533
91.04000 3.342
91.06000 -0.865
91.08000 1.381
91.10000 5.720
91.12000 4.467
91.14000 -0.336
91.16000 -2.368
91.18000 -0.420
91.20000 1.853
91.22000 2.086
91.24000 5.107
91.26000 1.915
91.28000 -1.607
91.30000 3.975
91.32000 4.523
91.34000 6.955
91.36000 6.089
91.38000 2.294
91.40000 0.742
91.42000 5.976
91.44000 1.902
91.46000 3.475
91.48000 2.642
91.50000 -2.355
91.52000 1.078
91.54000 1.064
91.56000 -1.712
91.58000 1.010
91.60000 0.550
91.62000 -0.001
91.64000 0.099
91.66000 2.412
91.68000 4.464
91.70000 4.573
91.72000 6.622
91.74000 8.845
91.76000 5.686
91.78000 5.714
91.80000 8.334
91.82000 1.755
91.84000 3.037
91.86000 7.068
91.88000 4.737
91.90000 2.596
91.92000 4.232
91.94000 7.412
91.96000 4.713
91.98000 5.220
92.00000 6.115
92.02000 5.813
92.04000 6.543
92.06000 4.241
92.08000 1.619
92.10000 -2.314
92.12000 0.599
92.14000 4.851
92.16000 8.486
92.18000 6.182
92.20000 7.977
92.22000 9.306
92.24000 2.019
92.26000 5.654
92.28000 8.259
92.30000 6.365
92.32000 7.404
92.34000 4.884
92.36000 1.575
92.38000 6.022
92.40000 5.244
92.42000 3.243
92.44000 4.952
92.46000 6.103
92.48000 1.306
92.50000 2.452
92.52000 3.016
92.54000 3.741
92.56000 3.658
92.58000 0.369
92.60000 1.344
92.62000 5.316
92.64000 4.283
92.66000 4.999
92.68000 4.974
92.70000 2.573
92.72000 5.288
92.74000 10.547
92.76000 6.642
92.78000 2.745
92.80000 6.556
92.82000 8.536
92.84000 3.502
92.86000 -0.610
92.88000 5.835
92.90000 6.359
92.92000 7.234
92.94000 2.582
92.96000 3.068
92.98000 0.275
93.00000 1.682
93.02000 -0.919
93.04000 4.623
93.06000 3.161
93.08000 5.773
93.10000 4.356
93.12000 5.453
93.14000 3.447
93.16000 1.658
93.18000 1.773
93.20000 2.843
93.22000 2.917
93.24000 9.692
93.26000 6.833
93.28000 4.459
93.30000 -0.156
93.32000 -1.838
93.34000 3.541
93.36000 3.331
93.38000 -2.334
93.40000 -0.546
93.42000 5.742
93.44000 8.243
93.46000 8.815
93.48000 4.959
93.50000 0.585
93.52000 -2.346
93.54000 4.948
93.56000 2.373
93.58000 1.219
93.60000 7.860
93.62000 8.435
93.64000 8.838
93.66000 4.108
93.68000 2.215
93.70000 3.595
93.72000 2.448
93.74000 7.000
93.76000 7.332
93.78000 5.788
93.80000 13.840
93.82000 9.910
93.84000 1.081
93.86000 5.527
93.88000 11.499
93.90000 4.739
93.92000 0.228
93.94000 3.457
93.96000 1.939
93.98000 4.865
94.00000 5.406
94.02000 5.333
94.04000 3.313
94.06000 -2.361
94.08000 -2.088
94.10000 2.486
94.12000 4.867
94.14000 7.937
94.16000 4.086
94.18000 3.004
94.20000 0.353
94.22000 1.699
94.24000 1.267
94.26000 7.867
94.28000 9.565
94.30000 6.061
94.32000 4.194
94.34000 3.568
94.36000 5.383
94.38000 6.090
94.40000 6.070
94.42000 1.616
94.44000 0.745
94.46000 1.305
94.48000 6.169
94.50000 5.955
94.52000 7.346
94.54000 5.312
94.56000 4.227
94.58000 3.251
94.60000 0.795
94.62000 2.260
94.64000 5.472
94.66000 9.548
94.68000 5.035
94.70000 0.819
94.72000 -1.373
94.74000 -0.203
94.76000 4.272
94.78000 3.503
94.80000 3.866
94.82000 2.987
94.84000 1.792
94.86000 -0.269
94.88000 0.774
94.90000 -2.374
94.92000 4.722
94.94000 2.726
94.96000 2.698
94.98000 -0.132
95.00000 3.597
95.02000 2.587
95.04000 2.914
95.06000 5.466
95.08000 3.325
95.10000 -0.399
95.12000 -1.349
95.14000 2.909
95.16000 6.443
95.18000 1.929
95.20000 6.539
95.22000 8.093
95.24000 3.761
95.26000 4.486
95.28000 9.342
95.30000 7.497
95.32000 4.283
95.34000 4.680
95.36000 2.083
95.38000 2.386
95.40000 1.530
95.42000 -1.947
95.44000 -2.381
95.46000 -0.346
95.48000 3.561
95.50000 4.592
95.52000 3.811
95.54000 4.205
95.56000 6.139
95.58000 3.597
95.60000 5.285
95.62000 7.208
95.64000 10.498
95.66000 5.525
95.68000 11.685
95.70000 10.332
95.72000 -2.377
95.74000 0.035
95.76000 2.414
95.78000 7.892
95.80000 2.719
95.82000 -0.329
95.84000 0.737
95.86000 1.503
95.88000 2.805
95.90000 3.926
95.92000 8.178
95.94000 9.747
95.96000 7.637
95.98000 6.200
96.00000 -1.856
96.02000 -1.250
96.04000 4.727
96.06000 3.485
96.08000 9.298
96.10000 8.896
96.12000 1.881
96.14000 10.465
96.16000 9.812
96.18000 8.557
96.20000 10.074
96.22000 12.864
96.24000 5.210
96.26000 3.938
96.28000 9.694
96.30000 10.955
96.32000 5.296
96.34000 8.507
96.36000 4.492
96.38000 9.094
96.40000 5.314
96.42000 7.558
96.44000 6.198
96.46000 3.951
96.48000 0.914
96.50000 6.357
96.52000 4.447
96.54000 2.587
96.56000 6.949
96.58000 4.258
96.60000 3.237
96.62000 2.366
96.64000 1.201
96.66000 5.049
96.68000 3.300
96.70000 4.442
96.72000 9.605
96.74000 12.577
96.76000 10.905
96.78000 3.401
96.80000 6.604
96.82000 8.012
96.84000 5.121
96.86000 5.061
96.88000 3.911
96.90000 8.389
96.92000 5.898
96.94000 5.113
96.96000 0.328
96.98000 -0.719
97.00000 -2.167
97.02000 0.109
97.04000 4.306
97.06000 4.855
97.08000 9.056
97.10000 7.143
97.12000 7.926
97.14000 13.309
97.16000 6.176
97.18000 1.228
97.20000 4.470
97.22000 8.177
97.24000 8.343
97.26000 10.897
97.28000 4.789
97.30000 9.301
97.32000 14.732
97.34000 5.945
97.36000 4.991
97.38000 5.420
97.40000 5.106
97.42000 2.270
97.44000 0.727
97.46000 -0.643
97.48000 5.608
97.50000 11.854
97.52000 6.080
97.54000 7.983
97.56000 6.559
97.58000 5.243
97.60000 2.216
97.62000 -1.303
97.64000 -1.337
97.66000 1.668
97.68000 3.390
97.70000 3.545
97.72000 10.367
97.74000 12.703
97.76000 13.152
97.78000 11.601
97.80000 12.192
97.82000 17.254
97.84000 14.678
97.86000 7.906
97.88000 7.801
97.90000 4.634
97.92000 -3.667
97.94000 6.681
97.96000 10.051
97.98000 3.851
98.00000 3.512
98.02000 13.606
98.04000 6.538
98.06000 0.745
98.08000 3.917
98.10000 10.794
98.12000 12.718
98.14000 10.439
98.16000 6.985
98.18000 4.967
98.20000 2.478
98.22000 12.982
98.24000 3.689
98.26000 2.386
98.28000 5.925
98.30000 11.838
98.32000 6.293
98.34000 1.356
98.36000 0.265
98.38000 8.505
98.40000 5.045
98.42000 1.515
98.44000 10.524
98.46000 3.004
98.48000 5.982
98.50000 15.235
98.52000 15.147
98.54000 -0.668
98.56000 4.852
98.58000 5.766
98.60000 9.198
98.62000 8.537
98.64000 15.965
98.66000 21.819
98.68000 15.461
98.70000 15.263
98.72000 8.483
98.74000 7.790
98.76000 10.735
98.78000 16.595
98.80000 16.626
98.82000 14.120
98.84000 12.034
98.86000 15.337
98.88000 1.813
98.90000 -2.244
98.92000 6.884
98.94000 22.077
98.96000 2.236
98.98000 7.513
99.00000 2.385
99.02000 4.352
99.04000 -2.259
99.06000 1.391
99.08000 4.545
99.10000 7.937
99.12000 14.529
99.14000 13.235
99.16000 11.052
99.18000 3.158
99.20000 7.241
99.22000 7.714
99.24000 9.779
99.26000 6.021
99.28000 10.416
99.30000 6.358
99.32000 2.029
99.34000 3.971
99.36000 -1.464
99.38000 2.381
99.40000 11.560
99.42000 6.578
99.44000 -4.067
99.46000 4.807
99.48000 14.677
99.50000 13.279
99.52000 2.909
99.54000 7.842
99.56000 11.151
99.58000 13.419
99.60000 9.407
99.62000 6.888
99.64000 9.629
99.66000 7.529
99.68000 12.842
99.70000 10.770
99.72000 6.380
99.74000 13.038
99.76000 10.016
99.78000 26.046
99.80000 7.302
99.82000 1.677
99.84000 -4.472
99.86000 6.070
99.88000 9.669
99.90000 4.780
99.92000 -2.254
99.94000 3.302
99.96000 -2.716
99.98000 0.000
