'Id: "0011387" Comment: "Integrate frame 0011387_Au-Ir-Rh_Rh-rich_XRD-Mapping-114-0000.gfrmwith cursor Wedge Cursor #5" Operator: "B?rgel" Anode: "Cu" Wavelength: "1.5406" Scantype: "2Theta (TwoTheta)" TimePerStep: "1" X: "45" Y: "-13.5" Z: "5.95" 
10.00000 0.000
10.02000 7.163
10.04000 9.689
10.06000 4.457
10.08000 4.595
10.10000 2.705
10.12000 -2.821
10.14000 4.189
10.16000 -0.184
10.18000 -1.308
10.20000 -2.528
10.22000 -0.335
10.24000 1.399
10.26000 7.663
10.28000 17.860
10.30000 13.725
10.32000 10.565
10.34000 10.476
10.36000 9.593
10.38000 10.417
10.40000 16.826
10.42000 16.220
10.44000 20.984
10.46000 28.079
10.48000 23.555
10.50000 12.027
10.52000 12.785
10.54000 14.035
10.56000 16.223
10.58000 21.631
10.60000 29.577
10.62000 25.525
10.64000 17.323
10.66000 16.520
10.68000 18.188
10.70000 22.420
10.72000 20.494
10.74000 28.699
10.76000 33.420
10.78000 30.381
10.80000 30.841
10.82000 29.399
10.84000 11.202
10.86000 12.729
10.88000 27.113
10.90000 22.995
10.92000 26.630
10.94000 34.195
10.96000 33.569
10.98000 29.136
11.00000 24.928
11.02000 18.258
11.04000 15.306
11.06000 20.235
11.08000 35.067
11.10000 31.567
11.12000 25.687
11.14000 31.899
11.16000 40.848
11.18000 37.692
11.20000 44.134
11.22000 53.130
11.24000 41.313
11.26000 37.251
11.28000 39.054
11.30000 30.583
11.32000 31.281
11.34000 32.813
11.36000 30.430
11.38000 47.908
11.40000 44.718
11.42000 35.930
11.44000 49.376
11.46000 47.330
11.48000 46.528
11.50000 44.720
11.52000 37.810
11.54000 36.482
11.56000 42.296
11.58000 44.975
11.60000 53.465
11.62000 51.001
11.64000 44.091
11.66000 49.399
11.68000 51.797
11.70000 45.851
11.72000 35.649
11.74000 39.746
11.76000 34.086
11.78000 46.456
11.80000 50.265
11.82000 52.830
11.84000 52.016
11.86000 38.369
11.88000 49.236
11.90000 45.379
11.92000 52.488
11.94000 60.443
11.96000 51.844
11.98000 41.975
12.00000 44.796
12.02000 52.025
12.04000 48.281
12.06000 51.277
12.08000 57.688
12.10000 59.704
12.12000 56.754
12.14000 50.736
12.16000 46.187
12.18000 43.440
12.20000 53.956
12.22000 58.643
12.24000 66.569
12.26000 56.787
12.28000 49.049
12.30000 60.392
12.32000 55.337
12.34000 54.274
12.36000 57.357
12.38000 59.883
12.40000 56.854
12.42000 60.621
12.44000 68.457
12.46000 59.031
12.48000 49.604
12.50000 48.886
12.52000 49.544
12.54000 57.752
12.56000 56.026
12.58000 52.541
12.60000 59.808
12.62000 68.397
12.64000 66.603
12.66000 72.598
12.68000 68.586
12.70000 60.678
12.72000 54.163
12.74000 53.549
12.76000 57.599
12.78000 58.575
12.80000 47.921
12.82000 50.789
12.84000 55.363
12.86000 58.935
12.88000 57.977
12.90000 56.015
12.92000 51.776
12.94000 58.683
12.96000 55.872
12.98000 51.692
13.00000 47.937
13.02000 39.860
13.04000 47.759
13.06000 55.536
13.08000 62.009
13.10000 68.191
13.12000 57.536
13.14000 54.881
13.16000 54.781
13.18000 65.772
13.20000 66.911
13.22000 55.717
13.24000 57.163
13.26000 61.177
13.28000 48.456
13.30000 45.565
13.32000 53.989
13.34000 60.874
13.36000 63.294
13.38000 51.818
13.40000 51.761
13.42000 52.515
13.44000 47.459
13.46000 50.671
13.48000 48.718
13.50000 49.829
13.52000 48.887
13.54000 48.998
13.56000 49.803
13.58000 54.412
13.60000 53.640
13.62000 52.199
13.64000 53.352
13.66000 51.155
13.68000 49.288
13.70000 53.723
13.72000 54.880
13.74000 56.821
13.76000 55.716
13.78000 49.441
13.80000 55.383
13.82000 57.055
13.84000 53.740
13.86000 45.692
13.88000 51.653
13.90000 49.763
13.92000 42.020
13.94000 43.628
13.96000 50.548
13.98000 45.801
14.00000 44.465
14.02000 44.623
14.04000 44.813
14.06000 50.433
14.08000 45.022
14.10000 43.991
14.12000 44.204
14.14000 46.930
14.16000 36.198
14.18000 32.683
14.20000 46.154
14.22000 55.819
14.24000 51.060
14.26000 44.430
14.28000 46.622
14.30000 45.188
14.32000 45.755
14.34000 45.985
14.36000 45.163
14.38000 37.217
14.40000 40.503
14.42000 43.165
14.44000 41.858
14.46000 38.552
14.48000 46.148
14.50000 47.480
14.52000 38.602
14.54000 38.233
14.56000 39.713
14.58000 43.552
14.60000 47.442
14.62000 37.279
14.64000 40.232
14.66000 40.382
14.68000 36.898
14.70000 43.449
14.72000 36.489
14.74000 35.469
14.76000 43.608
14.78000 39.709
14.80000 42.417
14.82000 48.565
14.84000 47.980
14.86000 43.325
14.88000 41.409
14.90000 47.730
14.92000 40.607
14.94000 48.460
14.96000 40.041
14.98000 35.200
15.00000 42.142
15.02000 36.598
15.04000 40.377
15.06000 46.494
15.08000 42.143
15.10000 36.214
15.12000 41.565
15.14000 44.513
15.16000 35.530
15.18000 37.186
15.20000 44.705
15.22000 41.495
15.24000 27.246
15.26000 27.854
15.28000 35.794
15.30000 32.411
15.32000 30.298
15.34000 27.417
15.36000 29.267
15.38000 31.568
15.40000 30.995
15.42000 37.762
15.44000 36.511
15.46000 32.093
15.48000 37.339
15.50000 40.715
15.52000 38.007
15.54000 38.080
15.56000 35.116
15.58000 36.580
15.60000 42.286
15.62000 36.917
15.64000 38.836
15.66000 41.210
15.68000 36.707
15.70000 33.683
15.72000 28.389
15.74000 26.226
15.76000 27.908
15.78000 31.886
15.80000 39.011
15.82000 33.289
15.84000 21.994
15.86000 25.362
15.88000 28.383
15.90000 24.657
15.92000 27.341
15.94000 23.309
15.96000 25.227
15.98000 22.469
16.00000 26.988
16.02000 24.901
16.04000 22.881
16.06000 20.805
16.08000 18.661
16.10000 19.148
16.12000 24.299
16.14000 26.680
16.16000 26.980
16.18000 30.396
16.20000 32.586
16.22000 21.901
16.24000 20.896
16.26000 20.174
16.28000 20.871
16.30000 15.601
16.32000 27.809
16.34000 34.001
16.36000 26.977
16.38000 21.773
16.40000 20.063
16.42000 27.613
16.44000 26.484
16.46000 23.198
16.48000 23.324
16.50000 25.417
16.52000 20.413
16.54000 19.842
16.56000 16.913
16.58000 13.411
16.60000 14.820
16.62000 17.568
16.64000 18.391
16.66000 7.445
16.68000 11.059
16.70000 12.207
16.72000 17.518
16.74000 20.998
16.76000 21.699
16.78000 27.325
16.80000 31.047
16.82000 30.085
16.84000 19.323
16.86000 8.940
16.88000 11.990
16.90000 18.877
16.92000 17.001
16.94000 15.253
16.96000 11.741
16.98000 6.939
17.00000 15.175
17.02000 21.329
17.04000 12.607
17.06000 11.886
17.08000 14.128
17.10000 15.738
17.12000 15.616
17.14000 15.243
17.16000 14.320
17.18000 17.078
17.20000 20.139
17.22000 18.465
17.24000 12.589
17.26000 14.411
17.28000 13.859
17.30000 13.068
17.32000 13.599
17.34000 8.446
17.36000 5.232
17.38000 10.105
17.40000 13.258
17.42000 11.816
17.44000 13.239
17.46000 14.966
17.48000 11.458
17.50000 3.308
17.52000 14.190
17.54000 18.841
17.56000 18.442
17.58000 15.389
17.60000 8.847
17.62000 10.019
17.64000 19.868
17.66000 14.569
17.68000 9.350
17.70000 10.308
17.72000 11.486
17.74000 9.026
17.76000 6.681
17.78000 14.279
17.80000 21.108
17.82000 17.937
17.84000 16.684
17.86000 10.381
17.88000 6.018
17.90000 9.326
17.92000 5.210
17.94000 9.198
17.96000 12.761
17.98000 12.038
18.00000 18.574
18.02000 10.801
18.04000 4.518
18.06000 14.691
18.08000 15.258
18.10000 10.363
18.12000 13.202
18.14000 10.184
18.16000 8.767
18.18000 6.985
18.20000 15.580
18.22000 16.646
18.24000 7.169
18.26000 11.264
18.28000 12.769
18.30000 8.518
18.32000 4.680
18.34000 6.010
18.36000 8.982
18.38000 5.958
18.40000 12.415
18.42000 13.955
18.44000 8.897
18.46000 12.520
18.48000 9.094
18.50000 10.421
18.52000 1.313
18.54000 4.484
18.56000 13.446
18.58000 8.146
18.60000 9.643
18.62000 11.078
18.64000 7.515
18.66000 2.170
18.68000 2.442
18.70000 2.832
18.72000 8.601
18.74000 7.895
18.76000 5.833
18.78000 1.727
18.80000 1.261
18.82000 6.760
18.84000 7.937
18.86000 3.130
18.88000 2.048
18.90000 -0.486
18.92000 3.952
18.94000 6.183
18.96000 0.553
18.98000 5.443
19.00000 8.020
19.02000 12.171
19.04000 7.198
19.06000 5.644
19.08000 1.318
19.10000 -4.239
19.12000 -0.730
19.14000 -1.772
19.16000 7.334
19.18000 13.913
19.20000 7.276
19.22000 5.767
19.24000 6.345
19.26000 8.740
19.28000 8.739
19.30000 11.368
19.32000 11.235
19.34000 10.685
19.36000 9.189
19.38000 12.143
19.40000 9.790
19.42000 1.357
19.44000 1.052
19.46000 -1.172
19.48000 -3.877
19.50000 2.009
19.52000 5.588
19.54000 5.423
19.56000 1.956
19.58000 0.764
19.60000 2.812
19.62000 7.365
19.64000 5.887
19.66000 7.027
19.68000 8.295
19.70000 1.218
19.72000 4.723
19.74000 4.704
19.76000 4.145
19.78000 8.732
19.80000 10.964
19.82000 10.793
19.84000 8.225
19.86000 9.685
19.88000 2.640
19.90000 1.762
19.92000 3.831
19.94000 0.096
19.96000 3.187
19.98000 8.122
20.00000 5.004
20.02000 0.961
20.04000 -0.679
20.06000 -2.103
20.08000 -3.245
20.10000 2.049
20.12000 2.802
20.14000 4.357
20.16000 2.330
20.18000 1.773
20.20000 8.514
20.22000 4.888
20.24000 5.641
20.26000 8.791
20.28000 7.762
20.30000 1.616
20.32000 2.361
20.34000 2.985
20.36000 5.606
20.38000 8.478
20.40000 8.055
20.42000 11.573
20.44000 10.071
20.46000 5.731
20.48000 7.589
20.50000 5.305
20.52000 6.644
20.54000 6.465
20.56000 4.720
20.58000 2.392
20.60000 4.170
20.62000 8.462
20.64000 8.761
20.66000 -4.153
20.68000 -3.028
20.70000 2.541
20.72000 4.155
20.74000 2.338
20.76000 8.636
20.78000 8.804
20.80000 4.595
20.82000 7.677
20.84000 6.337
20.86000 -0.228
20.88000 2.873
20.90000 0.588
20.92000 -0.116
20.94000 2.657
20.96000 3.390
20.98000 -0.299
21.00000 4.178
21.02000 8.356
21.04000 1.496
21.06000 -0.678
21.08000 0.803
21.10000 2.917
21.12000 5.321
21.14000 2.674
21.16000 5.435
21.18000 7.074
21.20000 0.605
21.22000 2.442
21.24000 6.901
21.26000 4.519
21.28000 1.261
21.30000 -0.031
21.32000 2.074
21.34000 3.326
21.36000 3.027
21.38000 4.405
21.40000 6.185
21.42000 4.713
21.44000 7.557
21.46000 9.573
21.48000 6.762
21.50000 10.590
21.52000 10.181
21.54000 2.913
21.56000 -0.097
21.58000 0.431
21.60000 -1.093
21.62000 -0.829
21.64000 -0.157
21.66000 2.658
21.68000 4.312
21.70000 4.102
21.72000 0.955
21.74000 4.684
21.76000 3.381
21.78000 8.035
21.80000 10.755
21.82000 9.211
21.84000 1.682
21.86000 -0.856
21.88000 -3.090
21.90000 5.517
21.92000 7.184
21.94000 7.143
21.96000 3.774
21.98000 7.201
22.00000 4.278
22.02000 -0.848
22.04000 -1.766
22.06000 -0.704
22.08000 0.151
22.10000 1.573
22.12000 1.469
22.14000 -3.370
22.16000 0.157
22.18000 6.462
22.20000 8.232
22.22000 5.364
22.24000 2.588
22.26000 1.312
22.28000 3.523
22.30000 4.530
22.32000 -2.852
22.34000 -1.126
22.36000 0.486
22.38000 2.761
22.40000 -0.118
22.42000 1.853
22.44000 4.599
22.46000 -0.213
22.48000 7.077
22.50000 2.419
22.52000 -2.295
22.54000 4.539
22.56000 4.693
22.58000 4.945
22.60000 4.123
22.62000 10.433
22.64000 5.272
22.66000 -4.039
22.68000 -0.198
22.70000 4.690
22.72000 5.148
22.74000 5.389
22.76000 8.267
22.78000 7.698
22.80000 4.104
22.82000 7.716
22.84000 3.864
22.86000 6.097
22.88000 7.489
22.90000 8.583
22.92000 9.131
22.94000 9.830
22.96000 4.765
22.98000 0.095
23.00000 9.217
23.02000 11.950
23.04000 4.805
23.06000 1.603
23.08000 6.085
23.10000 5.458
23.12000 3.352
23.14000 7.633
23.16000 11.847
23.18000 11.644
23.20000 13.103
23.22000 16.538
23.24000 10.805
23.26000 3.988
23.28000 0.621
23.30000 6.522
23.32000 9.759
23.34000 5.359
23.36000 1.916
23.38000 7.886
23.40000 2.729
23.42000 4.223
23.44000 3.620
23.46000 1.988
23.48000 6.774
23.50000 6.943
23.52000 -0.339
23.54000 0.730
23.56000 1.338
23.58000 -0.946
23.60000 2.189
23.62000 11.960
23.64000 7.328
23.66000 2.641
23.68000 5.713
23.70000 11.169
23.72000 12.381
23.74000 3.774
23.76000 2.242
23.78000 12.303
23.80000 14.234
23.82000 6.800
23.84000 8.134
23.86000 11.287
23.88000 4.842
23.90000 9.191
23.92000 5.997
23.94000 3.891
23.96000 5.291
23.98000 11.313
24.00000 9.769
24.02000 6.428
24.04000 6.180
24.06000 9.534
24.08000 7.026
24.10000 3.967
24.12000 -0.228
24.14000 6.093
24.16000 5.999
24.18000 3.780
24.20000 4.725
24.22000 4.247
24.24000 8.281
24.26000 7.078
24.28000 10.792
24.30000 12.900
24.32000 7.709
24.34000 8.771
24.36000 6.231
24.38000 4.995
24.40000 7.890
24.42000 3.264
24.44000 7.031
24.46000 3.786
24.48000 -1.548
24.50000 -0.646
24.52000 0.411
24.54000 -3.916
24.56000 2.389
24.58000 6.779
24.60000 7.849
24.62000 1.775
24.64000 9.152
24.66000 4.283
24.68000 4.577
24.70000 5.298
24.72000 7.093
24.74000 9.089
24.76000 11.364
24.78000 7.346
24.80000 6.024
24.82000 5.157
24.84000 4.590
24.86000 6.708
24.88000 3.615
24.90000 4.280
24.92000 6.200
24.94000 5.967
24.96000 1.523
24.98000 5.254
25.00000 2.563
25.02000 2.696
25.04000 4.091
25.06000 4.016
25.08000 3.221
25.10000 6.829
25.12000 8.196
25.14000 7.111
25.16000 7.345
25.18000 3.532
25.20000 7.896
25.22000 8.699
25.24000 3.004
25.26000 4.113
25.28000 6.958
25.30000 12.661
25.32000 12.361
25.34000 2.966
25.36000 0.645
25.38000 2.265
25.40000 1.805
25.42000 1.151
25.44000 2.675
25.46000 3.049
25.48000 6.455
25.50000 4.665
25.52000 4.655
25.54000 6.887
25.56000 6.911
25.58000 4.542
25.60000 4.147
25.62000 3.865
25.64000 3.901
25.66000 4.554
25.68000 4.470
25.70000 10.269
25.72000 3.227
25.74000 1.168
25.76000 5.013
25.78000 8.583
25.80000 6.198
25.82000 8.111
25.84000 5.076
25.86000 -3.863
25.88000 2.156
25.90000 4.689
25.92000 3.288
25.94000 3.371
25.96000 5.417
25.98000 7.224
26.00000 9.709
26.02000 13.715
26.04000 9.310
26.06000 3.730
26.08000 0.736
26.10000 3.586
26.12000 3.709
26.14000 2.622
26.16000 2.975
26.18000 0.370
26.20000 1.303
26.22000 1.540
26.24000 0.357
26.26000 9.107
26.28000 4.407
26.30000 6.378
26.32000 5.942
26.34000 8.058
26.36000 3.589
26.38000 2.991
26.40000 1.186
26.42000 -2.498
26.44000 -0.996
26.46000 4.633
26.48000 7.969
26.50000 6.396
26.52000 1.092
26.54000 3.818
26.56000 10.809
26.58000 8.175
26.60000 3.005
26.62000 3.027
26.64000 -0.205
26.66000 0.234
26.68000 4.252
26.70000 3.395
26.72000 5.041
26.74000 5.858
26.76000 7.598
26.78000 4.250
26.80000 0.071
26.82000 -0.332
26.84000 8.461
26.86000 6.246
26.88000 3.941
26.90000 -0.986
26.92000 -0.924
26.94000 0.295
26.96000 0.990
26.98000 4.938
27.00000 3.221
27.02000 -2.410
27.04000 -1.255
27.06000 1.427
27.08000 1.938
27.10000 0.824
27.12000 -2.135
27.14000 -0.833
27.16000 0.795
27.18000 8.216
27.20000 7.678
27.22000 4.200
27.24000 1.448
27.26000 1.185
27.28000 -2.023
27.30000 8.106
27.32000 8.017
27.34000 5.719
27.36000 6.295
27.38000 3.885
27.40000 10.136
27.42000 7.872
27.44000 2.662
27.46000 -1.884
27.48000 3.301
27.50000 1.088
27.52000 6.827
27.54000 3.817
27.56000 0.945
27.58000 2.632
27.60000 -2.731
27.62000 -1.220
27.64000 0.014
27.66000 3.436
27.68000 3.068
27.70000 4.798
27.72000 4.520
27.74000 2.246
27.76000 3.202
27.78000 1.046
27.80000 -3.490
27.82000 -3.787
27.84000 0.715
27.86000 2.934
27.88000 2.788
27.90000 4.043
27.92000 5.424
27.94000 2.624
27.96000 4.099
27.98000 5.050
28.00000 2.928
28.02000 7.524
28.04000 2.924
28.06000 4.923
28.08000 4.767
28.10000 3.999
28.12000 3.134
28.14000 2.072
28.16000 3.933
28.18000 -1.876
28.20000 -3.768
28.22000 1.870
28.24000 2.259
28.26000 1.944
28.28000 8.461
28.30000 3.001
28.32000 1.753
28.34000 2.584
28.36000 5.945
28.38000 6.893
28.40000 3.457
28.42000 1.545
28.44000 4.704
28.46000 7.851
28.48000 2.488
28.50000 -2.809
28.52000 -0.237
28.54000 3.426
28.56000 3.279
28.58000 1.050
28.60000 0.367
28.62000 0.361
28.64000 2.725
28.66000 2.937
28.68000 2.307
28.70000 1.512
28.72000 1.727
28.74000 1.252
28.76000 4.308
28.78000 6.409
28.80000 1.966
28.82000 -0.085
28.84000 2.742
28.86000 0.383
28.88000 0.791
28.90000 3.011
28.92000 5.420
28.94000 -0.376
28.96000 1.276
28.98000 4.856
29.00000 4.482
29.02000 0.380
29.04000 -1.300
29.06000 2.509
29.08000 2.944
29.10000 4.245
29.12000 3.962
29.14000 5.505
29.16000 8.311
29.18000 8.299
29.20000 4.233
29.22000 7.455
29.24000 5.148
29.26000 0.309
29.28000 -0.550
29.30000 -3.686
29.32000 -0.697
29.34000 1.197
29.36000 3.347
29.38000 3.351
29.40000 4.838
29.42000 -1.019
29.44000 -3.237
29.46000 3.731
29.48000 4.921
29.50000 3.749
29.52000 3.395
29.54000 0.887
29.56000 3.809
29.58000 3.817
29.60000 3.502
29.62000 7.652
29.64000 0.378
29.66000 6.550
29.68000 7.465
29.70000 3.980
29.72000 3.044
29.74000 0.483
29.76000 0.336
29.78000 0.735
29.80000 -2.977
29.82000 -1.675
29.84000 -1.196
29.86000 1.882
29.88000 2.716
29.90000 -1.623
29.92000 -1.960
29.94000 4.976
29.96000 6.223
29.98000 1.803
30.00000 2.500
30.02000 0.159
30.04000 9.454
30.06000 8.028
30.08000 3.921
30.10000 2.521
30.12000 0.528
30.14000 -0.036
30.16000 -1.697
30.18000 1.248
30.20000 4.694
30.22000 5.034
30.24000 3.165
30.26000 -0.900
30.28000 -3.652
30.30000 -0.438
30.32000 5.803
30.34000 2.510
30.36000 5.277
30.38000 9.102
30.40000 -0.829
30.42000 0.733
30.44000 4.714
30.46000 2.248
30.48000 0.493
30.50000 -0.246
30.52000 3.778
30.54000 3.394
30.56000 4.708
30.58000 1.656
30.60000 2.182
30.62000 2.478
30.64000 0.037
30.66000 0.464
30.68000 1.480
30.70000 2.926
30.72000 1.371
30.74000 1.921
30.76000 0.279
30.78000 2.381
30.80000 4.565
30.82000 2.827
30.84000 4.949
30.86000 2.768
30.88000 0.852
30.90000 -1.341
30.92000 2.593
30.94000 3.390
30.96000 3.597
30.98000 10.942
31.00000 10.115
31.02000 0.707
31.04000 1.417
31.06000 7.063
31.08000 8.509
31.10000 4.426
31.12000 -0.348
31.14000 -0.468
31.16000 5.544
31.18000 4.338
31.20000 0.540
31.22000 -3.601
31.24000 -1.737
31.26000 4.917
31.28000 1.178
31.30000 -3.597
31.32000 3.623
31.34000 5.790
31.36000 3.850
31.38000 4.717
31.40000 2.002
31.42000 -0.698
31.44000 -1.768
31.46000 0.485
31.48000 4.643
31.50000 6.279
31.52000 8.139
31.54000 7.506
31.56000 3.849
31.58000 3.228
31.60000 6.491
31.62000 2.996
31.64000 3.903
31.66000 3.832
31.68000 1.318
31.70000 5.746
31.72000 12.015
31.74000 9.313
31.76000 2.896
31.78000 4.488
31.80000 3.279
31.82000 4.285
31.84000 3.843
31.86000 5.157
31.88000 4.168
31.90000 4.499
31.92000 4.916
31.94000 0.265
31.96000 -1.467
31.98000 3.683
32.00000 4.634
32.02000 4.377
32.04000 3.917
32.06000 4.702
32.08000 -0.767
32.10000 0.581
32.12000 0.320
32.14000 1.109
32.16000 3.624
32.18000 10.421
32.20000 7.982
32.22000 3.666
32.24000 1.050
32.26000 1.948
32.28000 5.740
32.30000 5.676
32.32000 4.793
32.34000 -0.190
32.36000 2.850
32.38000 8.200
32.40000 6.045
32.42000 5.527
32.44000 4.799
32.46000 0.248
32.48000 2.363
32.50000 6.039
32.52000 5.517
32.54000 0.740
32.56000 -3.528
32.58000 0.309
32.60000 5.359
32.62000 8.121
32.64000 8.954
32.66000 7.334
32.68000 3.118
32.70000 0.633
32.72000 4.092
32.74000 7.125
32.76000 7.224
32.78000 6.327
32.80000 7.550
32.82000 3.874
32.84000 5.542
32.86000 7.103
32.88000 2.293
32.90000 3.492
32.92000 1.073
32.94000 2.025
32.96000 4.863
32.98000 3.771
33.00000 2.552
33.02000 6.670
33.04000 6.285
33.06000 0.678
33.08000 3.173
33.10000 2.439
33.12000 1.696
33.14000 3.982
33.16000 4.784
33.18000 0.345
33.20000 2.765
33.22000 5.861
33.24000 6.139
33.26000 3.682
33.28000 6.777
33.30000 5.721
33.32000 9.755
33.34000 3.914
33.36000 -2.440
33.38000 4.622
33.40000 5.851
33.42000 2.608
33.44000 2.311
33.46000 4.535
33.48000 1.096
33.50000 -0.319
33.52000 2.620
33.54000 5.770
33.56000 -1.522
33.58000 -2.200
33.60000 3.362
33.62000 6.474
33.64000 4.119
33.66000 6.658
33.68000 11.269
33.70000 8.705
33.72000 3.899
33.74000 2.668
33.76000 5.017
33.78000 2.920
33.80000 7.245
33.82000 7.233
33.84000 6.830
33.86000 6.819
33.88000 9.009
33.90000 9.298
33.92000 4.304
33.94000 1.234
33.96000 0.379
33.98000 2.599
34.00000 1.362
34.02000 2.263
34.04000 -1.875
34.06000 1.369
34.08000 1.497
34.10000 -1.105
34.12000 4.342
34.14000 8.256
34.16000 -0.154
34.18000 2.018
34.20000 3.359
34.22000 2.570
34.24000 3.512
34.26000 2.505
34.28000 2.908
34.30000 6.974
34.32000 4.544
34.34000 6.697
34.36000 5.845
34.38000 5.603
34.40000 0.573
34.42000 -3.479
34.44000 3.333
34.46000 8.301
34.48000 4.798
34.50000 5.013
34.52000 1.335
34.54000 -0.302
34.56000 3.735
34.58000 7.753
34.60000 7.831
34.62000 8.051
34.64000 2.735
34.66000 2.800
34.68000 2.815
34.70000 -0.629
34.72000 2.395
34.74000 7.735
34.76000 7.242
34.78000 -0.276
34.80000 1.502
34.82000 4.422
34.84000 5.298
34.86000 0.387
34.88000 -1.307
34.90000 1.406
34.92000 3.578
34.94000 4.202
34.96000 1.299
34.98000 -1.266
35.00000 -3.466
35.02000 3.004
35.04000 0.926
35.06000 -1.872
35.08000 3.695
35.10000 1.277
35.12000 -3.484
35.14000 -2.404
35.16000 0.177
35.18000 6.875
35.20000 9.746
35.22000 7.263
35.24000 1.656
35.26000 -1.507
35.28000 2.453
35.30000 8.008
35.32000 8.711
35.34000 7.236
35.36000 5.409
35.38000 3.868
35.40000 2.847
35.42000 5.140
35.44000 3.547
35.46000 4.455
35.48000 6.548
35.50000 3.844
35.52000 2.000
35.54000 1.732
35.56000 2.971
35.58000 -1.036
35.60000 -3.146
35.62000 0.328
35.64000 3.482
35.66000 -0.996
35.68000 -3.471
35.70000 0.298
35.72000 7.632
35.74000 4.437
35.76000 2.053
35.78000 0.990
35.80000 2.046
35.82000 6.458
35.84000 5.054
35.86000 0.186
35.88000 -2.311
35.90000 0.548
35.92000 4.690
35.94000 5.220
35.96000 4.198
35.98000 1.487
36.00000 0.395
36.02000 2.052
36.04000 8.594
36.06000 3.232
36.08000 1.394
36.10000 3.059
36.12000 6.620
36.14000 2.848
36.16000 2.847
36.18000 2.129
36.20000 2.176
36.22000 -2.523
36.24000 0.936
36.26000 1.087
36.28000 2.618
36.30000 4.781
36.32000 -1.632
36.34000 -3.461
36.36000 1.601
36.38000 5.735
36.40000 8.223
36.42000 5.355
36.44000 0.848
36.46000 1.527
36.48000 1.478
36.50000 -0.254
36.52000 -2.187
36.54000 -0.078
36.56000 0.027
36.58000 -2.432
36.60000 2.875
36.62000 2.224
36.64000 2.821
36.66000 3.831
36.68000 2.794
36.70000 4.324
36.72000 2.661
36.74000 3.810
36.76000 1.175
36.78000 3.915
36.80000 -0.234
36.82000 0.328
36.84000 2.882
36.86000 3.651
36.88000 5.929
36.90000 3.747
36.92000 -0.142
36.94000 -3.270
36.96000 -3.490
36.98000 -0.646
37.00000 -1.123
37.02000 -1.977
37.04000 -0.189
37.06000 0.921
37.08000 2.502
37.10000 6.041
37.12000 -0.435
37.14000 -2.136
37.16000 -1.095
37.18000 -0.965
37.20000 -1.816
37.22000 0.011
37.24000 2.247
37.26000 7.454
37.28000 5.269
37.30000 -1.318
37.32000 -0.517
37.34000 1.242
37.36000 -1.854
37.38000 -0.266
37.40000 -0.546
37.42000 -3.527
37.44000 -1.780
37.46000 0.609
37.48000 -0.205
37.50000 -0.153
37.52000 -1.732
37.54000 -2.368
37.56000 -1.141
37.58000 -0.878
37.60000 2.383
37.62000 4.588
37.64000 -2.874
37.66000 -2.195
37.68000 0.908
37.70000 -0.488
37.72000 -0.378
37.74000 4.758
37.76000 1.269
37.78000 3.362
37.80000 2.904
37.82000 5.315
37.84000 8.071
37.86000 3.801
37.88000 -0.498
37.90000 -2.640
37.92000 -0.167
37.94000 5.174
37.96000 4.543
37.98000 2.714
38.00000 5.224
38.02000 2.828
38.04000 2.573
38.06000 5.245
38.08000 -2.051
38.10000 -0.531
38.12000 5.709
38.14000 6.166
38.16000 11.838
38.18000 7.234
38.20000 8.076
38.22000 7.117
38.24000 4.818
38.26000 7.039
38.28000 8.991
38.30000 9.921
38.32000 11.751
38.34000 13.316
38.36000 16.511
38.38000 16.098
38.40000 9.734
38.42000 8.438
38.44000 14.148
38.46000 16.849
38.48000 15.259
38.50000 12.576
38.52000 12.196
38.54000 10.379
38.56000 7.054
38.58000 14.721
38.60000 12.984
38.62000 9.424
38.64000 11.257
38.66000 11.778
38.68000 12.668
38.70000 14.071
38.72000 13.915
38.74000 17.326
38.76000 15.092
38.78000 15.321
38.80000 16.544
38.82000 15.045
38.84000 12.928
38.86000 14.472
38.88000 17.037
38.90000 17.809
38.92000 19.291
38.94000 21.850
38.96000 26.938
38.98000 30.221
39.00000 26.624
39.02000 26.167
39.04000 25.501
39.06000 25.755
39.08000 27.008
39.10000 28.929
39.12000 27.259
39.14000 27.242
39.16000 26.498
39.18000 27.590
39.20000 33.926
39.22000 33.252
39.24000 35.374
39.26000 37.754
39.28000 40.079
39.30000 38.163
39.32000 40.487
39.34000 40.013
39.36000 41.093
39.38000 41.646
39.40000 48.233
39.42000 50.346
39.44000 48.477
39.46000 50.401
39.48000 58.366
39.50000 53.475
39.52000 53.041
39.54000 58.314
39.56000 60.465
39.58000 65.279
39.60000 69.139
39.62000 69.619
39.64000 77.586
39.66000 78.488
39.68000 90.863
39.70000 91.435
39.72000 93.100
39.74000 98.938
39.76000 102.207
39.78000 106.173
39.80000 103.196
39.82000 112.894
39.84000 125.158
39.86000 133.459
39.88000 145.082
39.90000 157.107
39.92000 161.717
39.94000 168.126
39.96000 179.791
39.98000 177.165
40.00000 188.927
40.02000 202.698
40.04000 214.689
40.06000 235.914
40.08000 249.761
40.10000 256.112
40.12000 273.827
40.14000 288.847
40.16000 307.818
40.18000 317.593
40.20000 342.290
40.22000 355.723
40.24000 379.269
40.26000 398.443
40.28000 411.081
40.30000 434.260
40.32000 442.094
40.34000 457.054
40.36000 481.314
40.38000 501.655
40.40000 510.527
40.42000 525.981
40.44000 548.255
40.46000 563.226
40.48000 576.923
40.50000 575.977
40.52000 577.646
40.54000 590.668
40.56000 592.144
40.58000 592.883
40.60000 595.517
40.62000 599.490
40.64000 590.457
40.66000 583.481
40.68000 576.260
40.70000 565.160
40.72000 540.929
40.74000 533.235
40.76000 526.193
40.78000 514.325
40.80000 497.478
40.82000 480.207
40.84000 469.040
40.86000 437.835
40.88000 423.537
40.90000 409.685
40.92000 400.385
40.94000 384.500
40.96000 368.554
40.98000 351.961
41.00000 331.533
41.02000 315.797
41.04000 304.444
41.06000 289.314
41.08000 272.798
41.10000 263.297
41.12000 246.637
41.14000 234.741
41.16000 222.272
41.18000 217.807
41.20000 205.771
41.22000 189.726
41.24000 176.691
41.26000 165.160
41.28000 162.683
41.30000 161.160
41.32000 150.598
41.34000 145.385
41.36000 135.072
41.38000 124.739
41.40000 116.171
41.42000 111.498
41.44000 103.720
41.46000 104.280
41.48000 104.874
41.50000 93.069
41.52000 84.457
41.54000 80.663
41.56000 78.192
41.58000 71.735
41.60000 73.282
41.62000 69.442
41.64000 62.775
41.66000 63.504
41.68000 63.980
41.70000 58.613
41.72000 57.559
41.74000 54.458
41.76000 49.612
41.78000 44.662
41.80000 46.998
41.82000 43.453
41.84000 41.417
41.86000 35.552
41.88000 37.254
41.90000 37.523
41.92000 37.608
41.94000 32.960
41.96000 30.501
41.98000 28.951
42.00000 24.000
42.02000 24.913
42.04000 25.797
42.06000 21.733
42.08000 23.621
42.10000 20.752
42.12000 21.470
42.14000 23.892
42.16000 26.543
42.18000 23.920
42.20000 23.482
42.22000 13.980
42.24000 13.439
42.26000 11.831
42.28000 19.013
42.30000 18.193
42.32000 13.511
42.34000 14.968
42.36000 13.797
42.38000 11.648
42.40000 13.187
42.42000 12.207
42.44000 9.921
42.46000 7.495
42.48000 7.537
42.50000 6.133
42.52000 5.488
42.54000 6.444
42.56000 5.503
42.58000 7.754
42.60000 7.533
42.62000 7.573
42.64000 5.132
42.66000 3.829
42.68000 2.775
42.70000 3.948
42.72000 7.333
42.74000 9.237
42.76000 6.839
42.78000 8.004
42.80000 6.450
42.82000 3.089
42.84000 3.405
42.86000 3.468
42.88000 2.104
42.90000 1.543
42.92000 1.922
42.94000 3.528
42.96000 7.044
42.98000 4.687
43.00000 -0.697
43.02000 2.804
43.04000 0.744
43.06000 2.060
43.08000 5.059
43.10000 3.078
43.12000 2.160
43.14000 3.549
43.16000 1.524
43.18000 -3.439
43.20000 -3.332
43.22000 1.992
43.24000 4.134
43.26000 2.031
43.28000 4.370
43.30000 3.616
43.32000 0.269
43.34000 -0.884
43.36000 -2.109
43.38000 -0.264
43.40000 2.991
43.42000 0.214
43.44000 2.104
43.46000 0.503
43.48000 -0.075
43.50000 0.011
43.52000 1.859
43.54000 -3.103
43.56000 -2.038
43.58000 -2.604
43.60000 -1.337
43.62000 0.492
43.64000 1.446
43.66000 4.960
43.68000 1.336
43.70000 1.098
43.72000 2.413
43.74000 1.202
43.76000 1.300
43.78000 -1.413
43.80000 -0.551
43.82000 -1.469
43.84000 -0.381
43.86000 3.339
43.88000 1.988
43.90000 -1.780
43.92000 2.172
43.94000 1.189
43.96000 -0.261
43.98000 -2.294
44.00000 2.298
44.02000 5.173
44.04000 3.918
44.06000 3.293
44.08000 -2.000
44.10000 0.326
44.12000 -3.314
44.14000 -0.684
44.16000 5.849
44.18000 2.924
44.20000 -0.210
44.22000 2.053
44.24000 0.758
44.26000 2.955
44.28000 5.871
44.30000 0.878
44.32000 -0.013
44.34000 2.680
44.36000 3.447
44.38000 -3.278
44.40000 -1.075
44.42000 2.147
44.44000 4.368
44.46000 5.664
44.48000 4.936
44.50000 6.977
44.52000 0.754
44.54000 0.923
44.56000 3.461
44.58000 4.597
44.60000 3.197
44.62000 -0.601
44.64000 -0.494
44.66000 2.965
44.68000 5.082
44.70000 0.580
44.72000 -1.726
44.74000 0.076
44.76000 0.968
44.78000 -0.131
44.80000 1.449
44.82000 -0.412
44.84000 -1.093
44.86000 0.717
44.88000 -0.298
44.90000 -3.073
44.92000 -0.735
44.94000 -2.503
44.96000 -1.187
44.98000 0.946
45.00000 1.936
45.02000 -1.724
45.04000 3.940
45.06000 2.845
45.08000 1.089
45.10000 4.351
45.12000 1.707
45.14000 0.438
45.16000 0.528
45.18000 -2.088
45.20000 1.639
45.22000 1.063
45.24000 -2.738
45.26000 -3.291
45.28000 -1.452
45.30000 -0.680
45.32000 0.965
45.34000 0.208
45.36000 2.058
45.38000 -1.607
45.40000 -1.410
45.42000 1.173
45.44000 2.258
45.46000 3.517
45.48000 0.879
45.50000 0.695
45.52000 3.473
45.54000 2.163
45.56000 1.790
45.58000 -0.354
45.60000 3.057
45.62000 7.152
45.64000 9.526
45.66000 9.291
45.68000 9.392
45.70000 5.318
45.72000 3.121
45.74000 3.296
45.76000 3.341
45.78000 4.546
45.80000 3.637
45.82000 3.484
45.84000 5.906
45.86000 8.527
45.88000 9.960
45.90000 8.914
45.92000 8.887
45.94000 12.156
45.96000 10.415
45.98000 14.197
46.00000 16.331
46.02000 10.874
46.04000 15.796
46.06000 17.894
46.08000 15.250
46.10000 15.228
46.12000 11.925
46.14000 15.958
46.16000 16.765
46.18000 20.671
46.20000 24.169
46.22000 21.808
46.24000 20.103
46.26000 20.712
46.28000 20.149
46.30000 20.782
46.32000 25.961
46.34000 31.086
46.36000 26.983
46.38000 22.687
46.40000 28.798
46.42000 30.823
46.44000 27.678
46.46000 31.729
46.48000 35.294
46.50000 33.978
46.52000 33.884
46.54000 37.023
46.56000 38.614
46.58000 40.556
46.60000 37.454
46.62000 39.287
46.64000 42.148
46.66000 53.892
46.68000 54.404
46.70000 54.077
46.72000 56.032
46.74000 54.774
46.76000 53.561
46.78000 53.714
46.80000 54.298
46.82000 59.836
46.84000 63.811
46.86000 65.046
46.88000 61.208
46.90000 58.699
46.92000 63.496
46.94000 69.407
46.96000 70.011
46.98000 65.903
47.00000 72.062
47.02000 78.165
47.04000 73.561
47.06000 74.806
47.08000 76.363
47.10000 71.732
47.12000 73.704
47.14000 78.611
47.16000 77.935
47.18000 78.831
47.20000 80.113
47.22000 80.250
47.24000 78.193
47.26000 75.111
47.28000 70.742
47.30000 71.127
47.32000 72.974
47.34000 69.951
47.36000 69.980
47.38000 70.604
47.40000 79.000
47.42000 74.440
47.44000 71.805
47.46000 72.892
47.48000 71.821
47.50000 67.087
47.52000 65.948
47.54000 65.895
47.56000 65.394
47.58000 57.590
47.60000 54.801
47.62000 57.576
47.64000 61.785
47.66000 53.709
47.68000 55.847
47.70000 51.106
47.72000 47.391
47.74000 55.757
47.76000 49.533
47.78000 41.780
47.80000 38.364
47.82000 40.786
47.84000 42.317
47.86000 34.914
47.88000 37.020
47.90000 33.007
47.92000 28.369
47.94000 29.321
47.96000 31.087
47.98000 30.276
48.00000 25.234
48.02000 24.184
48.04000 22.856
48.06000 24.185
48.08000 25.302
48.10000 26.000
48.12000 22.139
48.14000 17.626
48.16000 17.644
48.18000 16.698
48.20000 17.732
48.22000 16.048
48.24000 17.748
48.26000 21.090
48.28000 18.113
48.30000 12.610
48.32000 14.033
48.34000 12.185
48.36000 10.558
48.38000 9.931
48.40000 10.970
48.42000 16.610
48.44000 10.403
48.46000 8.840
48.48000 7.342
48.50000 8.589
48.52000 6.690
48.54000 10.547
48.56000 11.919
48.58000 12.955
48.60000 8.464
48.62000 4.687
48.64000 5.210
48.66000 7.531
48.68000 3.183
48.70000 2.293
48.72000 7.162
48.74000 6.161
48.76000 4.839
48.78000 2.794
48.80000 1.349
48.82000 4.026
48.84000 -2.909
48.86000 1.405
48.88000 2.671
48.90000 1.814
48.92000 2.452
48.94000 1.514
48.96000 5.053
48.98000 3.595
49.00000 5.165
49.02000 5.346
49.04000 2.589
49.06000 2.702
49.08000 1.470
49.10000 -0.179
49.12000 -0.957
49.14000 0.642
49.16000 -1.052
49.18000 0.541
49.20000 7.747
49.22000 1.484
49.24000 3.809
49.26000 0.861
49.28000 3.476
49.30000 1.078
49.32000 0.891
49.34000 2.178
49.36000 -1.113
49.38000 2.691
49.40000 6.639
49.42000 5.556
49.44000 0.718
49.46000 1.207
49.48000 2.544
49.50000 5.595
49.52000 6.980
49.54000 2.964
49.56000 6.354
49.58000 7.562
49.60000 7.878
49.62000 5.786
49.64000 5.689
49.66000 7.090
49.68000 1.097
49.70000 -2.730
49.72000 4.856
49.74000 1.664
49.76000 2.175
49.78000 5.963
49.80000 6.968
49.82000 2.098
49.84000 6.627
49.86000 5.436
49.88000 1.096
49.90000 1.821
49.92000 2.216
49.94000 4.074
49.96000 6.813
49.98000 5.476
50.00000 1.217
50.02000 2.179
50.04000 1.889
50.06000 0.965
50.08000 2.770
50.10000 3.105
50.12000 -0.187
50.14000 -2.442
50.16000 1.742
50.18000 2.295
50.20000 1.558
50.22000 2.584
50.24000 1.134
50.26000 0.109
50.28000 -0.130
50.30000 2.918
50.32000 1.780
50.34000 3.281
50.36000 1.059
50.38000 1.073
50.40000 0.251
50.42000 0.596
50.44000 -0.589
50.46000 -0.672
50.48000 2.293
50.50000 2.720
50.52000 3.524
50.54000 4.654
50.56000 1.799
50.58000 1.475
50.60000 1.488
50.62000 2.024
50.64000 1.670
50.66000 -0.378
50.68000 0.829
50.70000 0.833
50.72000 -0.294
50.74000 -0.405
50.76000 3.123
50.78000 5.248
50.80000 7.881
50.82000 1.652
50.84000 -2.135
50.86000 -0.603
50.88000 -0.698
50.90000 -1.092
50.92000 -0.497
50.94000 -0.456
50.96000 2.047
50.98000 0.496
51.00000 -0.262
51.02000 -2.498
51.04000 -0.125
51.06000 -0.411
51.08000 4.320
51.10000 5.254
51.12000 6.037
51.14000 5.336
51.16000 1.032
51.18000 -0.517
51.20000 3.462
51.22000 1.220
51.24000 2.130
51.26000 -2.030
51.28000 2.671
51.30000 2.409
51.32000 5.081
51.34000 0.825
51.36000 -0.047
51.38000 1.191
51.40000 0.010
51.42000 1.573
51.44000 3.255
51.46000 0.155
51.48000 -2.278
51.50000 0.232
51.52000 -1.230
51.54000 1.765
51.56000 0.798
51.58000 1.080
51.60000 0.736
51.62000 1.304
51.64000 -1.950
51.66000 1.759
51.68000 1.549
51.70000 1.901
51.72000 0.150
51.74000 0.944
51.76000 5.780
51.78000 8.595
51.80000 7.482
51.82000 7.526
51.84000 7.114
51.86000 8.831
51.88000 5.636
51.90000 2.755
51.92000 0.169
51.94000 3.161
51.96000 5.260
51.98000 6.037
52.00000 5.905
52.02000 3.472
52.04000 2.320
52.06000 3.476
52.08000 0.009
52.10000 -0.983
52.12000 -2.599
52.14000 1.600
52.16000 4.340
52.18000 3.875
52.20000 2.494
52.22000 7.483
52.24000 9.934
52.26000 3.697
52.28000 -2.477
52.30000 2.885
52.32000 3.507
52.34000 6.983
52.36000 4.552
52.38000 5.554
52.40000 2.386
52.42000 -0.341
52.44000 2.427
52.46000 0.603
52.48000 1.402
52.50000 7.127
52.52000 3.820
52.54000 3.012
52.56000 6.808
52.58000 4.894
52.60000 0.914
52.62000 1.487
52.64000 0.333
52.66000 -0.953
52.68000 3.571
52.70000 5.944
52.72000 6.837
52.74000 4.764
52.76000 3.296
52.78000 3.160
52.80000 3.928
52.82000 4.759
52.84000 0.643
52.86000 4.377
52.88000 6.031
52.90000 5.355
52.92000 1.363
52.94000 1.960
52.96000 6.611
52.98000 3.499
53.00000 2.529
53.02000 3.806
53.04000 1.027
53.06000 3.455
53.08000 8.059
53.10000 7.130
53.12000 5.327
53.14000 4.333
53.16000 4.419
53.18000 3.093
53.20000 5.947
53.22000 3.202
53.24000 -0.747
53.26000 -2.005
53.28000 -2.418
53.30000 -1.060
53.32000 2.193
53.34000 0.018
53.36000 -0.543
53.38000 3.426
53.40000 3.440
53.42000 0.496
53.44000 -2.579
53.46000 1.220
53.48000 2.272
53.50000 1.014
53.52000 3.534
53.54000 3.828
53.56000 4.300
53.58000 2.679
53.60000 0.895
53.62000 2.821
53.64000 6.147
53.66000 2.237
53.68000 1.656
53.70000 0.978
53.72000 -0.249
53.74000 -1.297
53.76000 2.019
53.78000 2.144
53.80000 2.993
53.82000 1.439
53.84000 4.960
53.86000 5.278
53.88000 2.309
53.90000 6.357
53.92000 1.779
53.94000 0.886
53.96000 3.257
53.98000 2.328
54.00000 0.593
54.02000 2.062
54.04000 4.126
54.06000 1.416
54.08000 2.002
54.10000 7.621
54.12000 5.869
54.14000 1.689
54.16000 -2.563
54.18000 1.035
54.20000 -0.147
54.22000 3.469
54.24000 5.531
54.26000 5.559
54.28000 4.340
54.30000 1.619
54.32000 0.577
54.34000 1.965
54.36000 7.417
54.38000 2.103
54.40000 2.182
54.42000 6.839
54.44000 6.034
54.46000 2.733
54.48000 1.716
54.50000 -1.343
54.52000 -1.190
54.54000 -1.657
54.56000 1.161
54.58000 1.981
54.60000 3.366
54.62000 2.759
54.64000 2.751
54.66000 -0.025
54.68000 -1.766
54.70000 -2.554
54.72000 0.625
54.74000 3.969
54.76000 3.580
54.78000 3.188
54.80000 2.804
54.82000 0.469
54.84000 4.032
54.86000 7.259
54.88000 4.745
54.90000 3.448
54.92000 0.020
54.94000 -0.263
54.96000 2.413
54.98000 1.960
55.00000 3.627
55.02000 0.118
55.04000 -0.997
55.06000 4.915
55.08000 3.053
55.10000 5.972
55.12000 3.008
55.14000 -0.944
55.16000 0.739
55.18000 -0.626
55.20000 0.296
55.22000 4.087
55.24000 5.498
55.26000 3.147
55.28000 3.291
55.30000 2.466
55.32000 -1.943
55.34000 2.286
55.36000 4.501
55.38000 5.521
55.40000 1.524
55.42000 -2.532
55.44000 -0.838
55.46000 1.792
55.48000 3.734
55.50000 4.304
55.52000 2.366
55.54000 -0.003
55.56000 3.234
55.58000 5.263
55.60000 6.450
55.62000 4.580
55.64000 3.943
55.66000 4.891
55.68000 4.263
55.70000 3.632
55.72000 5.985
55.74000 -0.719
55.76000 -0.703
55.78000 2.412
55.80000 3.346
55.82000 3.956
55.84000 2.939
55.86000 3.880
55.88000 6.228
55.90000 1.782
55.92000 5.634
55.94000 4.551
55.96000 -1.545
55.98000 -2.508
56.00000 1.068
56.02000 1.624
56.04000 2.256
56.06000 5.234
56.08000 5.580
56.10000 6.151
56.12000 1.654
56.14000 -2.016
56.16000 0.193
56.18000 1.037
56.20000 2.968
56.22000 4.349
56.24000 4.683
56.26000 3.106
56.28000 4.948
56.30000 2.434
56.32000 2.201
56.34000 0.136
56.36000 2.157
56.38000 2.968
56.40000 -0.315
56.42000 -2.498
56.44000 -0.405
56.46000 3.032
56.48000 0.975
56.50000 1.579
56.52000 4.609
56.54000 4.634
56.56000 3.211
56.58000 2.983
56.60000 2.031
56.62000 3.721
56.64000 4.672
56.66000 5.974
56.68000 7.768
56.70000 3.198
56.72000 3.259
56.74000 2.151
56.76000 -1.011
56.78000 3.706
56.80000 5.477
56.82000 0.056
56.84000 0.720
56.86000 3.289
56.88000 1.867
56.90000 1.949
56.92000 3.135
56.94000 -2.491
56.96000 -1.934
56.98000 0.263
57.00000 0.870
57.02000 3.094
57.04000 4.655
57.06000 4.786
57.08000 1.266
57.10000 2.006
57.12000 1.143
57.14000 1.032
57.16000 3.672
57.18000 3.913
57.20000 6.998
57.22000 5.233
57.24000 3.553
57.26000 0.782
57.28000 2.895
57.30000 3.697
57.32000 0.365
57.34000 0.728
57.36000 2.090
57.38000 2.167
57.40000 4.396
57.42000 2.636
57.44000 3.973
57.46000 3.952
57.48000 5.011
57.50000 4.511
57.52000 4.361
57.54000 1.912
57.56000 -0.713
57.58000 -0.521
57.60000 -0.788
57.62000 3.552
57.64000 6.635
57.66000 0.878
57.68000 -2.459
57.70000 0.534
57.72000 2.637
57.74000 4.526
57.76000 3.789
57.78000 2.141
57.80000 -0.569
57.82000 1.340
57.84000 3.303
57.86000 6.039
57.88000 5.915
57.90000 2.822
57.92000 4.892
57.94000 1.476
57.96000 -1.076
57.98000 -0.889
58.00000 -0.088
58.02000 2.771
58.04000 0.812
58.06000 4.646
58.08000 5.747
58.10000 1.777
58.12000 2.435
58.14000 2.162
58.16000 2.063
58.18000 2.057
58.20000 1.295
58.22000 1.908
58.24000 0.122
58.26000 -2.449
58.28000 -0.289
58.30000 6.891
58.32000 4.402
58.34000 -0.916
58.36000 2.094
58.38000 1.528
58.40000 1.069
58.42000 -0.259
58.44000 2.204
58.46000 5.322
58.48000 5.851
58.50000 4.410
58.52000 5.481
58.54000 5.312
58.56000 4.059
58.58000 3.051
58.60000 0.833
58.62000 0.934
58.64000 1.169
58.66000 0.459
58.68000 0.063
58.70000 7.660
58.72000 8.195
58.74000 3.973
58.76000 1.036
58.78000 1.898
58.80000 2.820
58.82000 3.884
58.84000 1.722
58.86000 2.113
58.88000 -0.628
58.90000 -2.410
58.92000 -0.229
58.94000 3.776
58.96000 2.004
58.98000 -2.406
59.00000 -1.052
59.02000 1.922
59.04000 0.295
59.06000 -0.300
59.08000 2.858
59.10000 0.137
59.12000 2.627
59.14000 4.125
59.16000 5.364
59.18000 4.964
59.20000 3.822
59.22000 3.483
59.24000 4.000
59.26000 1.730
59.28000 4.209
59.30000 -1.154
59.32000 1.352
59.34000 3.347
59.36000 4.998
59.38000 4.331
59.40000 1.801
59.42000 3.290
59.44000 -0.484
59.46000 2.044
59.48000 4.189
59.50000 3.134
59.52000 2.749
59.54000 0.272
59.56000 3.025
59.58000 4.416
59.60000 0.713
59.62000 0.569
59.64000 3.586
59.66000 3.442
59.68000 3.595
59.70000 2.587
59.72000 5.289
59.74000 3.721
59.76000 -0.200
59.78000 -2.381
59.80000 1.126
59.82000 0.565
59.84000 3.459
59.86000 3.784
59.88000 3.170
59.90000 4.756
59.92000 4.539
59.94000 2.882
59.96000 2.388
59.98000 -0.629
60.00000 4.251
60.02000 5.250
60.04000 3.181
60.06000 3.515
60.08000 5.511
60.10000 5.317
60.12000 5.854
60.14000 4.724
60.16000 2.812
60.18000 5.263
60.20000 5.650
60.22000 2.724
60.24000 7.494
60.26000 4.526
60.28000 0.138
60.30000 -0.448
60.32000 1.812
60.34000 6.616
60.36000 2.451
60.38000 4.000
60.40000 4.399
60.42000 4.917
60.44000 -1.344
60.46000 0.456
60.48000 -0.575
60.50000 -0.640
60.52000 2.908
60.54000 2.310
60.56000 3.016
60.58000 4.407
60.60000 4.988
60.62000 3.880
60.64000 1.127
60.66000 1.213
60.68000 3.788
60.70000 5.158
60.72000 1.271
60.74000 -0.401
60.76000 -2.345
60.78000 2.336
60.80000 2.395
60.82000 3.357
60.84000 6.582
60.86000 3.381
60.88000 0.994
60.90000 3.862
60.92000 5.404
60.94000 7.844
60.96000 5.810
60.98000 5.552
61.00000 4.604
61.02000 0.699
61.04000 3.351
61.06000 3.587
61.08000 0.245
61.10000 -0.390
61.12000 2.924
61.14000 5.230
61.16000 1.266
61.18000 3.575
61.20000 2.813
61.22000 0.005
61.24000 -1.552
61.26000 1.852
61.28000 -0.029
61.30000 -0.936
61.32000 0.637
61.34000 2.198
61.36000 2.624
61.38000 3.305
61.40000 1.895
61.42000 -0.033
61.44000 -0.098
61.46000 1.265
61.48000 1.363
61.50000 -0.373
61.52000 -1.942
61.54000 0.448
61.56000 2.527
61.58000 4.018
61.60000 0.830
61.62000 1.788
61.64000 1.907
61.66000 4.469
61.68000 -1.791
61.70000 -0.403
61.72000 1.713
61.74000 1.008
61.76000 2.067
61.78000 3.115
61.80000 2.601
61.82000 2.718
61.84000 4.155
61.86000 2.268
61.88000 4.205
61.90000 4.643
61.92000 1.185
61.94000 1.403
61.96000 1.069
61.98000 1.922
62.00000 0.002
62.02000 -0.959
62.04000 -1.636
62.06000 -0.355
62.08000 0.833
62.10000 2.200
62.12000 1.265
62.14000 1.999
62.16000 0.568
62.18000 1.701
62.20000 -0.624
62.22000 0.073
62.24000 -2.335
62.26000 3.317
62.28000 3.384
62.30000 1.529
62.32000 3.630
62.34000 1.273
62.36000 2.158
62.38000 -0.747
62.40000 1.305
62.42000 -0.506
62.44000 1.120
62.46000 1.969
62.48000 3.202
62.50000 6.627
62.52000 4.445
62.54000 -2.055
62.56000 -2.302
62.58000 2.083
62.60000 3.814
62.62000 0.357
62.64000 2.167
62.66000 0.458
62.68000 -1.057
62.70000 1.507
62.72000 2.196
62.74000 1.242
62.76000 4.423
62.78000 2.574
62.80000 0.658
62.82000 2.631
62.84000 3.992
62.86000 4.145
62.88000 2.280
62.90000 0.254
62.92000 1.588
62.94000 -2.337
62.96000 -0.552
62.98000 2.771
63.00000 1.571
63.02000 -1.171
63.04000 0.182
63.06000 0.698
63.08000 2.443
63.10000 -0.259
63.12000 1.051
63.14000 3.129
63.16000 5.791
63.18000 3.737
63.20000 4.841
63.22000 1.305
63.24000 0.006
63.26000 -0.702
63.28000 3.448
63.30000 -0.686
63.32000 -1.059
63.34000 -1.439
63.36000 0.025
63.38000 -0.105
63.40000 -0.362
63.42000 0.237
63.44000 0.006
63.46000 0.232
63.48000 1.998
63.50000 2.710
63.52000 2.035
63.54000 -1.312
63.56000 -2.319
63.58000 2.614
63.60000 1.455
63.62000 2.375
63.64000 2.317
63.66000 3.299
63.68000 1.508
63.70000 2.720
63.72000 2.547
63.74000 2.406
63.76000 4.215
63.78000 -1.491
63.80000 0.023
63.82000 4.340
63.84000 1.188
63.86000 1.697
63.88000 2.956
63.90000 -0.093
63.92000 0.297
63.94000 0.650
63.96000 1.255
63.98000 1.745
64.00000 0.500
64.02000 3.846
64.04000 4.787
64.06000 3.541
64.08000 1.496
64.10000 -0.208
64.12000 -0.531
64.14000 0.957
64.16000 0.817
64.18000 4.830
64.20000 4.727
64.22000 3.729
64.24000 5.448
64.26000 3.602
64.28000 0.185
64.30000 0.344
64.32000 1.452
64.34000 2.550
64.36000 0.658
64.38000 1.477
64.40000 3.371
64.42000 2.311
64.44000 -2.319
64.46000 -0.519
64.48000 1.949
64.50000 3.254
64.52000 3.971
64.54000 2.208
64.56000 1.544
64.58000 3.112
64.60000 1.913
64.62000 2.953
64.64000 2.635
64.66000 0.309
64.68000 -1.352
64.70000 -2.331
64.72000 3.699
64.74000 3.340
64.76000 1.808
64.78000 2.103
64.80000 1.337
64.82000 1.050
64.84000 3.396
64.86000 1.695
64.88000 -0.197
64.90000 3.094
64.92000 3.174
64.94000 3.839
64.96000 2.564
64.98000 1.441
65.00000 2.239
65.02000 0.864
65.04000 -1.607
65.06000 -2.344
65.08000 0.690
65.10000 1.382
65.12000 0.148
65.14000 -0.344
65.16000 1.689
65.18000 2.092
65.20000 2.530
65.22000 0.237
65.24000 1.744
65.26000 1.099
65.28000 2.346
65.30000 0.418
65.32000 1.930
65.34000 0.793
65.36000 0.265
65.38000 -1.445
65.40000 -1.391
65.42000 2.057
65.44000 4.238
65.46000 -0.541
65.48000 -2.023
65.50000 2.549
65.52000 2.052
65.54000 1.552
65.56000 1.208
65.58000 4.325
65.60000 2.600
65.62000 3.496
65.64000 2.438
65.66000 -0.284
65.68000 1.541
65.70000 -2.049
65.72000 -0.914
65.74000 2.033
65.76000 5.447
65.78000 3.746
65.80000 -0.863
65.82000 0.197
65.84000 2.167
65.86000 1.253
65.88000 0.120
65.90000 -2.351
65.92000 0.785
65.94000 0.787
65.96000 -0.838
65.98000 -1.127
66.00000 0.181
66.02000 0.229
66.04000 0.415
66.06000 3.288
66.08000 2.465
66.10000 0.368
66.12000 -0.618
66.14000 -1.633
66.16000 -0.217
66.18000 -2.351
66.20000 3.258
66.22000 5.070
66.24000 2.744
66.26000 0.738
66.28000 2.049
66.30000 1.823
66.32000 1.247
66.34000 0.851
66.36000 0.430
66.38000 -0.035
66.40000 -1.746
66.42000 0.804
66.44000 -0.205
66.46000 1.867
66.48000 3.486
66.50000 1.516
66.52000 1.700
66.54000 1.223
66.56000 2.636
66.58000 -1.385
66.60000 -0.782
66.62000 -0.264
66.64000 0.448
66.66000 -1.488
66.68000 -1.894
66.70000 1.643
66.72000 -2.346
66.74000 0.144
66.76000 0.577
66.78000 3.674
66.80000 0.600
66.82000 1.443
66.84000 1.791
66.86000 1.150
66.88000 0.543
66.90000 1.382
66.92000 -0.904
66.94000 -1.813
66.96000 -0.351
66.98000 -1.475
67.00000 -0.884
67.02000 1.488
67.04000 0.674
67.06000 0.019
67.08000 -1.423
67.10000 -1.011
67.12000 -1.250
67.14000 -0.825
67.16000 1.667
67.18000 2.710
67.20000 0.990
67.22000 3.975
67.24000 0.684
67.26000 0.033
67.28000 1.328
67.30000 -0.324
67.32000 -0.691
67.34000 0.208
67.36000 3.114
67.38000 -0.387
67.40000 0.405
67.42000 4.341
67.44000 1.453
67.46000 -2.384
67.48000 1.511
67.50000 2.399
67.52000 1.191
67.54000 0.866
67.56000 0.624
67.58000 1.489
67.60000 1.768
67.62000 2.265
67.64000 1.200
67.66000 0.373
67.68000 2.220
67.70000 1.756
67.72000 1.289
67.74000 2.278
67.76000 2.886
67.78000 3.656
67.80000 3.987
67.82000 1.462
67.84000 -1.767
67.86000 -1.845
67.88000 2.175
67.90000 3.180
67.92000 2.360
67.94000 3.576
67.96000 3.871
67.98000 2.772
68.00000 4.165
68.02000 4.869
68.04000 3.149
68.06000 0.958
68.08000 5.297
68.10000 7.085
68.12000 4.980
68.14000 3.667
68.16000 3.717
68.18000 5.565
68.20000 6.584
68.22000 4.754
68.24000 6.065
68.26000 6.859
68.28000 5.476
68.30000 7.607
68.32000 9.363
68.34000 10.212
68.36000 7.159
68.38000 5.200
68.40000 12.328
68.42000 13.005
68.44000 9.975
68.46000 7.341
68.48000 11.313
68.50000 14.802
68.52000 14.074
68.54000 11.557
68.56000 10.538
68.58000 11.685
68.60000 12.027
68.62000 14.177
68.64000 17.980
68.66000 16.837
68.68000 16.143
68.70000 18.289
68.72000 21.499
68.74000 20.189
68.76000 20.599
68.78000 21.312
68.80000 20.152
68.82000 19.526
68.84000 19.756
68.86000 19.215
68.88000 20.091
68.90000 21.334
68.92000 22.162
68.94000 22.507
68.96000 22.136
68.98000 17.347
69.00000 19.322
69.02000 19.151
69.04000 18.054
69.06000 23.374
69.08000 20.591
69.10000 21.365
69.12000 23.330
69.14000 22.582
69.16000 17.986
69.18000 18.002
69.20000 18.904
69.22000 17.586
69.24000 16.109
69.26000 19.205
69.28000 18.318
69.30000 18.797
69.32000 16.451
69.34000 16.378
69.36000 16.128
69.38000 13.644
69.40000 14.762
69.42000 15.600
69.44000 15.216
69.46000 14.355
69.48000 14.471
69.50000 15.317
69.52000 15.396
69.54000 12.562
69.56000 12.592
69.58000 13.780
69.60000 8.480
69.62000 5.546
69.64000 7.212
69.66000 9.380
69.68000 10.992
69.70000 8.072
69.72000 4.551
69.74000 4.190
69.76000 8.077
69.78000 8.770
69.80000 9.758
69.82000 9.484
69.84000 9.919
69.86000 8.105
69.88000 6.110
69.90000 7.913
69.92000 7.677
69.94000 7.389
69.96000 6.670
69.98000 5.816
70.00000 5.673
70.02000 4.708
70.04000 4.171
70.06000 6.729
70.08000 7.334
70.10000 5.533
70.12000 3.918
70.14000 8.110
70.16000 6.753
70.18000 7.070
70.20000 9.981
70.22000 8.167
70.24000 5.039
70.26000 3.495
70.28000 1.002
70.30000 4.038
70.32000 7.638
70.34000 6.214
70.36000 1.322
70.38000 2.875
70.40000 0.034
70.42000 -2.248
70.44000 3.834
70.46000 3.643
70.48000 4.163
70.50000 5.812
70.52000 4.568
70.54000 4.703
70.56000 7.287
70.58000 4.366
70.60000 3.865
70.62000 1.310
70.64000 2.052
70.66000 3.371
70.68000 1.469
70.70000 3.811
70.72000 0.500
70.74000 1.702
70.76000 4.963
70.78000 3.798
70.80000 1.688
70.82000 3.584
70.84000 1.926
70.86000 4.930
70.88000 5.979
70.90000 4.854
70.92000 4.526
70.94000 4.018
70.96000 2.277
70.98000 1.896
71.00000 0.213
71.02000 2.501
71.04000 3.401
71.06000 2.226
71.08000 -0.427
71.10000 -1.307
71.12000 2.508
71.14000 4.424
71.16000 2.996
71.18000 2.338
71.20000 2.883
71.22000 0.944
71.24000 1.939
71.26000 3.479
71.28000 3.603
71.30000 2.935
71.32000 3.263
71.34000 6.864
71.36000 5.942
71.38000 3.370
71.40000 3.519
71.42000 1.615
71.44000 2.305
71.46000 0.630
71.48000 2.298
71.50000 -0.633
71.52000 0.123
71.54000 0.662
71.56000 1.744
71.58000 3.166
71.60000 1.780
71.62000 3.521
71.64000 3.385
71.66000 0.443
71.68000 3.790
71.70000 2.758
71.72000 4.762
71.74000 1.428
71.76000 -0.218
71.78000 2.219
71.80000 3.918
71.82000 1.675
71.84000 -1.331
71.86000 -2.181
71.88000 -1.690
71.90000 3.355
71.92000 1.406
71.94000 1.529
71.96000 5.908
71.98000 3.482
72.00000 2.405
72.02000 2.363
72.04000 6.626
72.06000 5.522
72.08000 -0.022
72.10000 -1.016
72.12000 3.174
72.14000 0.755
72.16000 0.719
72.18000 2.203
72.20000 3.697
72.22000 0.956
72.24000 1.915
72.26000 5.283
72.28000 2.148
72.30000 -1.757
72.32000 1.424
72.34000 2.678
72.36000 2.909
72.38000 -1.380
72.40000 0.008
72.42000 4.355
72.44000 4.376
72.46000 4.063
72.48000 3.151
72.50000 3.761
72.52000 2.845
72.54000 0.315
72.56000 1.825
72.58000 2.405
72.60000 2.756
72.62000 1.911
72.64000 2.278
72.66000 2.962
72.68000 3.229
72.70000 0.711
72.72000 3.253
72.74000 3.908
72.76000 4.016
72.78000 5.440
72.80000 7.272
72.82000 4.534
72.84000 4.021
72.86000 5.477
72.88000 2.511
72.90000 0.772
72.92000 3.864
72.94000 3.068
72.96000 7.737
72.98000 5.828
73.00000 6.127
73.02000 5.670
73.04000 3.444
73.06000 -2.129
73.08000 -0.191
73.10000 2.745
73.12000 3.903
73.14000 5.969
73.16000 3.477
73.18000 3.018
73.20000 2.510
73.22000 2.814
73.24000 2.514
73.26000 1.727
73.28000 2.106
73.30000 1.987
73.32000 3.972
73.34000 3.176
73.36000 4.735
73.38000 2.506
73.40000 4.769
73.42000 5.801
73.44000 0.179
73.46000 -0.904
73.48000 2.099
73.50000 4.334
73.52000 8.126
73.54000 7.404
73.56000 2.346
73.58000 1.708
73.60000 0.802
73.62000 1.592
73.64000 2.366
73.66000 3.213
73.68000 4.045
73.70000 3.316
73.72000 0.407
73.74000 -0.356
73.76000 -0.139
73.78000 0.569
73.80000 0.662
73.82000 2.636
73.84000 4.597
73.86000 3.408
73.88000 4.046
73.90000 4.675
73.92000 1.869
73.94000 -1.609
73.96000 -1.561
73.98000 -1.603
74.00000 0.431
74.02000 0.911
74.04000 1.305
74.06000 -1.105
74.08000 0.121
74.10000 -0.276
74.12000 -0.586
74.14000 4.335
74.16000 -0.362
74.18000 -1.300
74.20000 0.756
74.22000 -0.383
74.24000 0.879
74.26000 -0.500
74.28000 0.788
74.30000 1.123
74.32000 1.632
74.34000 3.414
74.36000 7.228
74.38000 5.685
74.40000 5.743
74.42000 3.941
74.44000 -1.109
74.46000 -2.146
74.48000 1.209
74.50000 0.766
74.52000 0.251
74.54000 1.779
74.56000 1.932
74.58000 4.658
74.60000 3.174
74.62000 1.730
74.64000 2.101
74.66000 0.674
74.68000 3.710
74.70000 2.525
74.72000 1.386
74.74000 0.910
74.76000 1.333
74.78000 1.983
74.80000 1.083
74.82000 4.476
74.84000 2.539
74.86000 -0.003
74.88000 -2.154
74.90000 2.523
74.92000 3.199
74.94000 3.470
74.96000 1.230
74.98000 1.189
75.00000 1.398
75.02000 -1.001
75.04000 1.438
75.06000 4.925
75.08000 1.885
75.10000 1.129
75.12000 3.793
75.14000 3.585
75.16000 3.496
75.18000 -0.223
75.20000 -1.875
75.22000 0.700
75.24000 2.348
75.26000 1.501
75.28000 0.084
75.30000 -0.453
75.32000 2.793
75.34000 1.364
75.36000 3.103
75.38000 1.540
75.40000 -0.888
75.42000 1.030
75.44000 -2.170
75.46000 -2.163
75.48000 -0.192
75.50000 3.373
75.52000 6.543
75.54000 1.936
75.56000 3.145
75.58000 3.040
75.60000 0.705
75.62000 -1.298
75.64000 -0.055
75.66000 3.751
75.68000 0.112
75.70000 -0.353
75.72000 1.361
75.74000 -0.516
75.76000 1.039
75.78000 -0.245
75.80000 -1.215
75.82000 2.963
75.84000 3.586
75.86000 2.654
75.88000 2.206
75.90000 2.237
75.92000 4.630
75.94000 2.980
75.96000 2.445
75.98000 1.668
76.00000 0.940
76.02000 1.885
76.04000 3.361
76.06000 1.421
76.08000 0.933
76.10000 2.014
76.12000 -0.066
76.14000 -0.548
76.16000 1.512
76.18000 -0.476
76.20000 -2.166
76.22000 0.930
76.24000 0.942
76.26000 -0.266
76.28000 -0.090
76.30000 2.155
76.32000 -0.044
76.34000 1.737
76.36000 3.712
76.38000 5.492
76.40000 1.533
76.42000 -1.075
76.44000 -1.569
76.46000 0.836
76.48000 3.470
76.50000 2.234
76.52000 1.192
76.54000 1.467
76.56000 4.498
76.58000 1.243
76.60000 -2.163
76.62000 3.056
76.64000 4.450
76.66000 4.702
76.68000 3.019
76.70000 1.880
76.72000 3.313
76.74000 0.934
76.76000 0.181
76.78000 3.031
76.80000 1.426
76.82000 3.582
76.84000 3.513
76.86000 4.795
76.88000 3.943
76.90000 2.806
76.92000 2.923
76.94000 0.149
76.96000 3.773
76.98000 2.721
77.00000 3.114
77.02000 4.299
77.04000 1.872
77.06000 2.219
77.08000 1.334
77.10000 0.582
77.12000 3.957
77.14000 8.881
77.16000 6.578
77.18000 3.780
77.20000 -2.153
77.22000 -1.673
77.24000 1.451
77.26000 1.823
77.28000 3.934
77.30000 2.759
77.32000 4.318
77.34000 5.056
77.36000 3.165
77.38000 4.389
77.40000 1.654
77.42000 3.989
77.44000 5.930
77.46000 9.422
77.48000 4.899
77.50000 3.322
77.52000 1.939
77.54000 2.456
77.56000 3.011
77.58000 3.120
77.60000 5.291
77.62000 3.433
77.64000 4.255
77.66000 -0.963
77.68000 2.590
77.70000 3.449
77.72000 3.601
77.74000 0.358
77.76000 -2.139
77.78000 1.104
77.80000 2.983
77.82000 2.826
77.84000 1.146
77.86000 4.118
77.88000 8.084
77.90000 5.418
77.92000 5.039
77.94000 1.752
77.96000 1.332
77.98000 5.946
78.00000 5.098
78.02000 4.166
78.04000 2.660
78.06000 4.000
78.08000 3.193
78.10000 0.652
78.12000 2.729
78.14000 3.018
78.16000 4.244
78.18000 6.683
78.20000 3.440
78.22000 4.084
78.24000 1.762
78.26000 3.004
78.28000 1.439
78.30000 3.321
78.32000 2.974
78.34000 4.550
78.36000 8.005
78.38000 2.047
78.40000 1.731
78.42000 0.600
78.44000 1.407
78.46000 0.872
78.48000 2.328
78.50000 4.890
78.52000 4.536
78.54000 1.947
78.56000 3.097
78.58000 5.050
78.60000 4.581
78.62000 3.031
78.64000 3.773
78.66000 4.568
78.68000 3.546
78.70000 5.521
78.72000 5.138
78.74000 1.455
78.76000 3.428
78.78000 3.379
78.80000 1.719
78.82000 4.355
78.84000 3.262
78.86000 2.267
78.88000 3.336
78.90000 5.527
78.92000 7.148
78.94000 5.304
78.96000 4.845
78.98000 3.446
79.00000 4.437
79.02000 2.314
79.04000 0.588
79.06000 -0.662
79.08000 4.663
79.10000 4.991
79.12000 4.813
79.14000 3.736
79.16000 7.272
79.18000 8.192
79.20000 4.076
79.22000 -0.467
79.24000 0.641
79.26000 2.541
79.28000 5.529
79.30000 1.539
79.32000 -2.158
79.34000 2.984
79.36000 4.834
79.38000 8.587
79.40000 7.906
79.42000 5.613
79.44000 2.729
79.46000 2.552
79.48000 -1.958
79.50000 0.430
79.52000 1.537
79.54000 5.515
79.56000 4.248
79.58000 3.327
79.60000 3.256
79.62000 7.650
79.64000 6.571
79.66000 2.787
79.68000 3.588
79.70000 2.610
79.72000 2.841
79.74000 4.857
79.76000 1.983
79.78000 -1.366
79.80000 -0.021
79.82000 1.923
79.84000 0.359
79.86000 -2.213
79.88000 -1.164
79.90000 3.681
79.92000 1.236
79.94000 0.208
79.96000 -2.060
79.98000 -0.469
80.00000 0.429
80.02000 2.761
80.04000 4.505
80.06000 1.494
80.08000 4.355
80.10000 1.133
80.12000 -0.729
80.14000 0.575
80.16000 2.664
80.18000 3.794
80.20000 2.551
80.22000 5.288
80.24000 3.547
80.26000 0.430
80.28000 -0.895
80.30000 1.287
80.32000 3.310
80.34000 1.882
80.36000 0.438
80.38000 2.659
80.40000 0.601
80.42000 -1.299
80.44000 0.336
80.46000 -1.062
80.48000 0.496
80.50000 1.673
80.52000 -1.229
80.54000 2.131
80.56000 2.285
80.58000 2.153
80.60000 -1.402
80.62000 -0.422
80.64000 -0.015
80.66000 2.276
80.68000 -0.048
80.70000 5.277
80.72000 6.184
80.74000 0.028
80.76000 -0.252
80.78000 -1.680
80.80000 1.697
80.82000 2.918
80.84000 3.974
80.86000 1.867
80.88000 -0.198
80.90000 -0.019
80.92000 1.730
80.94000 1.003
80.96000 -1.679
80.98000 -0.671
81.00000 2.182
81.02000 4.040
81.04000 0.948
81.06000 2.451
81.08000 0.675
81.10000 0.285
81.12000 -1.614
81.14000 1.403
81.16000 1.733
81.18000 1.379
81.20000 4.659
81.22000 7.044
81.24000 6.136
81.26000 3.952
81.28000 -0.109
81.30000 -2.263
81.32000 1.089
81.34000 2.934
81.36000 4.177
81.38000 5.030
81.40000 6.842
81.42000 4.382
81.44000 4.578
81.46000 5.152
81.48000 2.753
81.50000 3.087
81.52000 2.941
81.54000 3.329
81.56000 3.624
81.58000 1.482
81.60000 1.541
81.62000 2.474
81.64000 1.347
81.66000 3.527
81.68000 2.591
81.70000 -0.023
81.72000 0.421
81.74000 1.909
81.76000 3.518
81.78000 3.638
81.80000 2.676
81.82000 5.100
81.84000 5.661
81.86000 2.258
81.88000 3.677
81.90000 2.248
81.92000 1.666
81.94000 1.208
81.96000 1.483
81.98000 3.036
82.00000 3.910
82.02000 1.966
82.04000 1.817
82.06000 3.579
82.08000 7.031
82.10000 7.082
82.12000 5.129
82.14000 6.661
82.16000 5.455
82.18000 4.453
82.20000 8.661
82.22000 7.296
82.24000 4.589
82.26000 7.723
82.28000 11.380
82.30000 5.910
82.32000 4.149
82.34000 7.278
82.36000 6.636
82.38000 8.215
82.40000 9.883
82.42000 9.118
82.44000 6.371
82.46000 11.931
82.48000 13.290
82.50000 9.325
82.52000 8.035
82.54000 11.399
82.56000 11.606
82.58000 15.341
82.60000 10.755
82.62000 12.968
82.64000 12.655
82.66000 10.700
82.68000 17.781
82.70000 17.171
82.72000 15.151
82.74000 20.205
82.76000 21.895
82.78000 24.574
82.80000 15.660
82.82000 14.888
82.84000 19.475
82.86000 25.749
82.88000 26.371
82.90000 24.475
82.92000 21.609
82.94000 20.527
82.96000 22.229
82.98000 26.835
83.00000 24.245
83.02000 20.521
83.04000 21.700
83.06000 22.822
83.08000 22.608
83.10000 24.269
83.12000 29.098
83.14000 28.951
83.16000 29.437
83.18000 27.495
83.20000 28.630
83.22000 31.061
83.24000 31.396
83.26000 30.848
83.28000 28.606
83.30000 31.756
83.32000 32.677
83.34000 25.641
83.36000 32.561
83.38000 38.249
83.40000 32.864
83.42000 26.602
83.44000 27.067
83.46000 27.491
83.48000 32.546
83.50000 33.775
83.52000 31.267
83.54000 34.800
83.56000 31.620
83.58000 27.452
83.60000 27.251
83.62000 24.922
83.64000 27.333
83.66000 28.908
83.68000 23.633
83.70000 25.236
83.72000 25.229
83.74000 19.946
83.76000 15.668
83.78000 21.194
83.80000 22.295
83.82000 19.259
83.84000 20.464
83.86000 19.312
83.88000 18.053
83.90000 17.030
83.92000 18.583
83.94000 18.751
83.96000 18.879
83.98000 17.081
84.00000 11.402
84.02000 12.393
84.04000 14.183
84.06000 17.440
84.08000 16.559
84.10000 17.604
84.12000 18.559
84.14000 14.674
84.16000 12.571
84.18000 8.671
84.20000 11.302
84.22000 15.483
84.24000 13.102
84.26000 9.348
84.28000 12.889
84.30000 13.587
84.32000 13.485
84.34000 10.023
84.36000 11.194
84.38000 8.894
84.40000 7.632
84.42000 4.389
84.44000 4.101
84.46000 13.035
84.48000 9.165
84.50000 4.991
84.52000 4.733
84.54000 7.243
84.56000 3.878
84.58000 2.623
84.60000 5.614
84.62000 9.014
84.64000 11.316
84.66000 8.284
84.68000 8.479
84.70000 5.447
84.72000 1.472
84.74000 2.486
84.76000 5.150
84.78000 2.226
84.80000 2.110
84.82000 1.777
84.84000 4.981
84.86000 3.762
84.88000 3.715
84.90000 6.758
84.92000 5.850
84.94000 7.047
84.96000 5.735
84.98000 6.346
85.00000 1.152
85.02000 4.573
85.04000 2.503
85.06000 -2.248
85.08000 1.376
85.10000 4.266
85.12000 5.075
85.14000 4.201
85.16000 4.582
85.18000 1.250
85.20000 1.657
85.22000 -1.090
85.24000 2.913
85.26000 4.164
85.28000 1.725
85.30000 -0.759
85.32000 -0.462
85.34000 3.444
85.36000 1.162
85.38000 -2.198
85.40000 1.173
85.42000 2.624
85.44000 6.275
85.46000 5.593
85.48000 3.750
85.50000 1.318
85.52000 6.209
85.54000 4.714
85.56000 3.067
85.58000 2.495
85.60000 1.772
85.62000 6.502
85.64000 3.649
85.66000 2.316
85.68000 -0.355
85.70000 3.564
85.72000 5.527
85.74000 3.267
85.76000 2.119
85.78000 1.987
85.80000 0.452
85.82000 1.879
85.84000 7.474
85.86000 3.926
85.88000 2.937
85.90000 1.709
85.92000 2.710
85.94000 1.420
85.96000 -0.139
85.98000 -1.710
86.00000 1.426
86.02000 4.240
86.04000 6.202
86.06000 5.981
86.08000 4.015
86.10000 2.544
86.12000 2.094
86.14000 3.242
86.16000 -0.337
86.18000 3.293
86.20000 3.830
86.22000 0.964
86.24000 -2.210
86.26000 -0.334
86.28000 2.569
86.30000 3.687
86.32000 1.156
86.34000 0.614
86.36000 1.737
86.38000 4.272
86.40000 -2.218
86.42000 -1.384
86.44000 2.805
86.46000 2.406
86.48000 2.871
86.50000 0.589
86.52000 2.188
86.54000 2.995
86.56000 4.947
86.58000 4.334
86.60000 4.070
86.62000 7.943
86.64000 5.999
86.66000 6.318
86.68000 7.433
86.70000 4.364
86.72000 2.266
86.74000 4.926
86.76000 3.334
86.78000 2.731
86.80000 3.027
86.82000 -0.733
86.84000 -1.730
86.86000 3.400
86.88000 5.247
86.90000 8.890
86.92000 7.771
86.94000 4.158
86.96000 5.278
86.98000 9.967
87.00000 10.560
87.02000 8.830
87.04000 7.263
87.06000 7.707
87.08000 8.129
87.10000 11.802
87.12000 11.725
87.14000 11.793
87.16000 9.991
87.18000 12.700
87.20000 9.726
87.22000 6.663
87.24000 9.695
87.26000 9.475
87.28000 8.253
87.30000 10.086
87.32000 7.939
87.34000 12.442
87.36000 18.142
87.38000 11.581
87.40000 8.401
87.42000 10.074
87.44000 16.025
87.46000 17.390
87.48000 15.447
87.50000 14.974
87.52000 14.347
87.54000 11.838
87.56000 14.517
87.58000 17.614
87.60000 15.809
87.62000 14.104
87.64000 14.099
87.66000 16.098
87.68000 19.025
87.70000 19.746
87.72000 19.395
87.74000 20.667
87.76000 18.791
87.78000 16.960
87.80000 19.132
87.82000 20.177
87.84000 19.734
87.86000 22.304
87.88000 19.865
87.90000 18.186
87.92000 21.054
87.94000 20.513
87.96000 21.799
87.98000 18.821
88.00000 19.560
88.02000 19.802
88.04000 17.946
88.06000 17.740
88.08000 16.189
88.10000 12.395
88.12000 14.855
88.14000 16.036
88.16000 13.965
88.18000 17.121
88.20000 19.553
88.22000 17.942
88.24000 11.289
88.26000 13.936
88.28000 17.205
88.30000 17.733
88.32000 10.617
88.34000 9.133
88.36000 8.198
88.38000 16.160
88.40000 15.368
88.42000 13.368
88.44000 8.174
88.46000 9.611
88.48000 6.499
88.50000 7.050
88.52000 11.694
88.54000 6.231
88.56000 4.685
88.58000 6.146
88.60000 2.451
88.62000 6.273
88.64000 6.799
88.66000 6.458
88.68000 1.395
88.70000 5.105
88.72000 6.888
88.74000 6.888
88.76000 4.173
88.78000 3.473
88.80000 0.956
88.82000 0.076
88.84000 0.266
88.86000 3.394
88.88000 -1.488
88.90000 3.981
88.92000 5.415
88.94000 4.095
88.96000 3.996
88.98000 4.791
89.00000 4.018
89.02000 1.760
89.04000 2.238
89.06000 2.994
89.08000 -1.640
89.10000 -2.170
89.12000 -1.583
89.14000 1.883
89.16000 1.423
89.18000 0.328
89.20000 -0.005
89.22000 1.866
89.24000 2.681
89.26000 2.090
89.28000 0.773
89.30000 -0.240
89.32000 3.609
89.34000 6.240
89.36000 7.996
89.38000 0.483
89.40000 -2.138
89.42000 0.830
89.44000 4.652
89.46000 6.228
89.48000 5.185
89.50000 3.720
89.52000 1.134
89.54000 2.171
89.56000 2.408
89.58000 3.257
89.60000 1.681
89.62000 2.572
89.64000 -1.342
89.66000 1.963
89.68000 3.612
89.70000 1.219
89.72000 3.308
89.74000 0.888
89.76000 -0.445
89.78000 -2.107
89.80000 0.160
89.82000 1.725
89.84000 -1.391
89.86000 3.343
89.88000 2.572
89.90000 -0.246
89.92000 3.918
89.94000 5.057
89.96000 6.335
89.98000 3.286
90.00000 0.727
90.02000 2.324
90.04000 1.354
90.06000 -2.079
90.08000 1.355
90.10000 4.300
90.12000 3.022
90.14000 1.246
90.16000 4.821
90.18000 -0.092
90.20000 -1.797
90.22000 1.887
90.24000 3.812
90.26000 0.203
90.28000 1.514
90.30000 2.545
90.32000 0.707
90.34000 -0.634
90.36000 0.535
90.38000 2.327
90.40000 0.990
90.42000 0.953
90.44000 4.937
90.46000 2.797
90.48000 -2.051
90.50000 1.001
90.52000 3.144
90.54000 1.760
90.56000 1.504
90.58000 2.855
90.60000 4.071
90.62000 2.210
90.64000 2.837
90.66000 2.533
90.68000 5.181
90.70000 3.921
90.72000 0.870
90.74000 -0.896
90.76000 -0.309
90.78000 0.956
90.80000 0.939
90.82000 2.457
90.84000 5.539
90.86000 6.441
90.88000 4.635
90.90000 0.784
90.92000 1.872
90.94000 3.640
90.96000 5.942
90.98000 5.979
91.00000 3.537
91.02000 4.270
91.04000 5.383
91.06000 -2.045
91.08000 -1.857
91.10000 0.221
91.12000 1.772
91.14000 0.362
91.16000 1.984
91.18000 4.894
91.20000 1.759
91.22000 4.786
91.24000 4.667
91.26000 -0.213
91.28000 -1.563
91.30000 6.990
91.32000 3.648
91.34000 1.249
91.36000 -0.176
91.38000 -2.046
91.40000 -0.490
91.42000 1.260
91.44000 4.584
91.46000 6.838
91.48000 3.468
91.50000 3.555
91.52000 5.783
91.54000 0.908
91.56000 2.902
91.58000 3.343
91.60000 0.397
91.62000 3.339
91.64000 2.065
91.66000 3.107
91.68000 5.319
91.70000 4.920
91.72000 6.502
91.74000 0.895
91.76000 -1.426
91.78000 -0.737
91.80000 1.125
91.82000 5.820
91.84000 1.664
91.86000 3.766
91.88000 6.010
91.90000 1.572
91.92000 -0.786
91.94000 6.296
91.96000 6.522
91.98000 3.645
92.00000 1.443
92.02000 4.360
92.04000 5.166
92.06000 4.367
92.08000 4.951
92.10000 6.898
92.12000 1.944
92.14000 -0.478
92.16000 7.782
92.18000 2.324
92.20000 2.328
92.22000 2.345
92.24000 6.822
92.26000 7.167
92.28000 6.700
92.30000 4.150
92.32000 4.232
92.34000 4.608
92.36000 7.226
92.38000 6.438
92.40000 4.836
92.42000 9.835
92.44000 9.555
92.46000 5.622
92.48000 2.928
92.50000 4.718
92.52000 5.885
92.54000 5.572
92.56000 4.762
92.58000 -0.497
92.60000 -1.993
92.62000 1.389
92.64000 6.074
92.66000 4.975
92.68000 5.878
92.70000 3.383
92.72000 3.967
92.74000 2.280
92.76000 5.356
92.78000 5.603
92.80000 3.531
92.82000 0.512
92.84000 4.385
92.86000 5.074
92.88000 5.328
92.90000 4.694
92.92000 6.291
92.94000 6.302
92.96000 6.148
92.98000 3.768
93.00000 5.205
93.02000 2.827
93.04000 3.723
93.06000 3.457
93.08000 6.750
93.10000 6.253
93.12000 4.389
93.14000 8.700
93.16000 6.900
93.18000 4.699
93.20000 2.709
93.22000 2.623
93.24000 -1.999
93.26000 -1.907
93.28000 6.011
93.30000 3.363
93.32000 6.539
93.34000 4.339
93.36000 2.725
93.38000 2.091
93.40000 5.541
93.42000 3.712
93.44000 5.322
93.46000 4.719
93.48000 4.557
93.50000 4.449
93.52000 1.877
93.54000 0.467
93.56000 -0.274
93.58000 4.555
93.60000 6.119
93.62000 5.874
93.64000 5.556
93.66000 7.027
93.68000 4.156
93.70000 2.675
93.72000 1.797
93.74000 2.070
93.76000 3.110
93.78000 3.773
93.80000 2.920
93.82000 1.604
93.84000 1.329
93.86000 6.630
93.88000 2.958
93.90000 7.819
93.92000 7.239
93.94000 4.769
93.96000 2.390
93.98000 0.436
94.00000 3.138
94.02000 3.577
94.04000 5.561
94.06000 4.090
94.08000 4.516
94.10000 0.838
94.12000 1.684
94.14000 4.344
94.16000 4.423
94.18000 3.977
94.20000 2.639
94.22000 3.767
94.24000 2.822
94.26000 2.614
94.28000 3.018
94.30000 0.670
94.32000 1.004
94.34000 -0.215
94.36000 -2.064
94.38000 3.487
94.40000 4.434
94.42000 6.824
94.44000 6.807
94.46000 6.023
94.48000 2.531
94.50000 3.366
94.52000 2.469
94.54000 3.259
94.56000 5.504
94.58000 -0.101
94.60000 2.499
94.62000 4.711
94.64000 8.073
94.66000 8.453
94.68000 4.243
94.70000 3.991
94.72000 1.797
94.74000 1.992
94.76000 1.510
94.78000 2.753
94.80000 3.266
94.82000 2.020
94.84000 3.295
94.86000 1.655
94.88000 1.223
94.90000 5.645
94.92000 8.234
94.94000 4.769
94.96000 4.715
94.98000 3.789
95.00000 1.179
95.02000 3.544
95.04000 4.153
95.06000 3.990
95.08000 4.398
95.10000 3.417
95.12000 4.194
95.14000 4.924
95.16000 6.343
95.18000 1.917
95.20000 6.359
95.22000 7.077
95.24000 6.701
95.26000 2.922
95.28000 4.306
95.30000 6.382
95.32000 4.281
95.34000 5.178
95.36000 2.836
95.38000 -2.036
95.40000 3.837
95.42000 2.136
95.44000 0.706
95.46000 7.657
95.48000 6.763
95.50000 5.733
95.52000 5.974
95.54000 7.091
95.56000 8.246
95.58000 7.887
95.60000 6.268
95.62000 6.295
95.64000 4.967
95.66000 2.158
95.68000 2.026
95.70000 -1.655
95.72000 -0.348
95.74000 1.566
95.76000 5.433
95.78000 7.455
95.80000 8.977
95.82000 3.029
95.84000 -0.982
95.86000 -1.057
95.88000 2.123
95.90000 6.354
95.92000 7.589
95.94000 6.198
95.96000 2.085
95.98000 -0.116
96.00000 0.344
96.02000 8.017
96.04000 6.233
96.06000 0.967
96.08000 0.673
96.10000 2.801
96.12000 1.199
96.14000 2.572
96.16000 5.613
96.18000 3.515
96.20000 2.178
96.22000 3.524
96.24000 3.726
96.26000 1.966
96.28000 -2.043
96.30000 5.334
96.32000 7.391
96.34000 2.652
96.36000 0.680
96.38000 4.934
96.40000 2.471
96.42000 5.178
96.44000 5.764
96.46000 4.443
96.48000 4.436
96.50000 4.730
96.52000 5.338
96.54000 3.014
96.56000 4.824
96.58000 8.624
96.60000 9.532
96.62000 10.900
96.64000 11.556
96.66000 6.293
96.68000 4.851
96.70000 1.121
96.72000 0.818
96.74000 2.158
96.76000 3.079
96.78000 5.118
96.80000 2.650
96.82000 1.866
96.84000 3.354
96.86000 5.039
96.88000 5.984
96.90000 6.985
96.92000 5.704
96.94000 6.167
96.96000 4.624
96.98000 4.996
97.00000 4.062
97.02000 4.604
97.04000 10.442
97.06000 6.127
97.08000 3.491
97.10000 5.320
97.12000 6.930
97.14000 7.346
97.16000 5.780
97.18000 12.987
97.20000 11.094
97.22000 5.951
97.24000 8.269
97.26000 12.690
97.28000 11.290
97.30000 6.617
97.32000 6.715
97.34000 10.726
97.36000 11.586
97.38000 2.920
97.40000 -2.001
97.42000 3.091
97.44000 10.713
97.46000 9.229
97.48000 2.614
97.50000 4.198
97.52000 8.179
97.54000 12.093
97.56000 8.890
97.58000 7.862
97.60000 5.048
97.62000 3.067
97.64000 5.221
97.66000 5.623
97.68000 9.288
97.70000 6.441
97.72000 3.389
97.74000 5.112
97.76000 -0.999
97.78000 1.995
97.80000 2.695
97.82000 4.699
97.84000 2.966
97.86000 3.031
97.88000 0.590
97.90000 4.105
97.92000 10.875
97.94000 12.219
97.96000 4.120
97.98000 2.414
98.00000 7.617
98.02000 10.372
98.04000 7.118
98.06000 6.753
98.08000 12.518
98.10000 4.185
98.12000 -0.818
98.14000 2.079
98.16000 2.380
98.18000 6.833
98.20000 7.872
98.22000 5.723
98.24000 1.202
98.26000 6.713
98.28000 4.710
98.30000 10.636
98.32000 15.233
98.34000 12.414
98.36000 9.293
98.38000 8.654
98.40000 6.975
98.42000 7.584
98.44000 10.576
98.46000 11.568
98.48000 5.863
98.50000 10.470
98.52000 8.505
98.54000 5.529
98.56000 5.113
98.58000 2.089
98.60000 7.786
98.62000 6.718
98.64000 6.101
98.66000 10.705
98.68000 6.982
98.70000 5.066
98.72000 -1.912
98.74000 2.986
98.76000 7.511
98.78000 7.106
98.80000 8.912
98.82000 10.250
98.84000 10.418
98.86000 14.473
98.88000 14.112
98.90000 8.977
98.92000 12.563
98.94000 10.281
98.96000 9.113
98.98000 12.432
99.00000 13.210
99.02000 14.724
99.04000 10.415
99.06000 9.976
99.08000 3.737
99.10000 2.154
99.12000 7.067
99.14000 8.343
99.16000 10.302
99.18000 4.903
99.20000 5.774
99.22000 9.693
99.24000 10.983
99.26000 6.492
99.28000 1.146
99.30000 6.053
99.32000 12.613
99.34000 12.435
99.36000 10.455
99.38000 -0.216
99.40000 3.208
99.42000 6.335
99.44000 8.208
99.46000 7.997
99.48000 10.274
99.50000 15.543
99.52000 9.860
99.54000 6.924
99.56000 12.189
99.58000 0.532
99.60000 9.401
99.62000 3.368
99.64000 8.104
99.66000 7.943
99.68000 -1.222
99.70000 -2.002
99.72000 -1.288
99.74000 0.140
99.76000 0.718
99.78000 0.522
99.80000 1.790
99.82000 -2.044
99.84000 3.891
99.86000 3.493
99.88000 -4.532
99.90000 11.456
99.92000 12.611
99.94000 -5.210
99.96000 -2.181
99.98000 0.000
