'Id: "0011388" Comment: "Integrate frame 0011388_Au-Ir-Rh_Rh-rich_XRD-Mapping-267-0000.gfrmwith cursor Wedge Cursor #5" Operator: "B?rgel" Anode: "Cu" Wavelength: "1.5406" Scantype: "2Theta (TwoTheta)" TimePerStep: "1" X: "-9" Y: "22.5" Z: "5.95" 
10.00000 0.000
10.02000 -0.625
10.04000 6.811
10.06000 4.507
10.08000 -4.345
10.10000 4.252
10.12000 15.260
10.14000 23.156
10.16000 14.004
10.18000 18.663
10.20000 12.912
10.22000 15.465
10.24000 1.002
10.26000 11.768
10.28000 6.066
10.30000 16.528
10.32000 10.075
10.34000 4.121
10.36000 8.999
10.38000 3.066
10.40000 1.150
10.42000 6.414
10.44000 5.163
10.46000 11.527
10.48000 16.320
10.50000 26.030
10.52000 12.704
10.54000 9.589
10.56000 7.171
10.58000 15.431
10.60000 -0.428
10.62000 3.820
10.64000 9.450
10.66000 14.904
10.68000 10.069
10.70000 5.676
10.72000 13.848
10.74000 12.461
10.76000 4.862
10.78000 12.491
10.80000 14.574
10.82000 17.497
10.84000 18.595
10.86000 14.240
10.88000 3.582
10.90000 13.037
10.92000 19.180
10.94000 16.957
10.96000 21.021
10.98000 18.668
11.00000 10.458
11.02000 13.478
11.04000 15.265
11.06000 6.322
11.08000 9.189
11.10000 23.178
11.12000 26.035
11.14000 13.297
11.16000 10.352
11.18000 12.959
11.20000 4.725
11.22000 15.068
11.24000 16.912
11.26000 20.426
11.28000 19.480
11.30000 9.542
11.32000 6.142
11.34000 6.764
11.36000 14.380
11.38000 11.697
11.40000 12.049
11.42000 17.396
11.44000 16.567
11.46000 11.592
11.48000 8.749
11.50000 13.790
11.52000 13.973
11.54000 18.324
11.56000 30.537
11.58000 26.916
11.60000 21.602
11.62000 7.066
11.64000 4.764
11.66000 12.331
11.68000 20.556
11.70000 0.778
11.72000 -4.388
11.74000 9.009
11.76000 13.971
11.78000 9.938
11.80000 15.178
11.82000 11.595
11.84000 15.936
11.86000 4.547
11.88000 9.242
11.90000 2.818
11.92000 3.013
11.94000 12.236
11.96000 -4.390
11.98000 6.716
12.00000 12.153
12.02000 18.139
12.04000 6.555
12.06000 2.770
12.08000 1.489
12.10000 8.545
12.12000 10.268
12.14000 9.606
12.16000 12.490
12.18000 14.040
12.20000 16.661
12.22000 24.994
12.24000 12.014
12.26000 6.516
12.28000 -2.339
12.30000 5.442
12.32000 4.546
12.34000 1.712
12.36000 11.557
12.38000 21.397
12.40000 19.225
12.42000 11.357
12.44000 22.037
12.46000 16.394
12.48000 8.912
12.50000 12.357
12.52000 12.213
12.54000 12.638
12.56000 22.089
12.58000 26.595
12.60000 29.418
12.62000 16.149
12.64000 12.593
12.66000 18.773
12.68000 12.524
12.70000 16.530
12.72000 13.308
12.74000 15.303
12.76000 18.917
12.78000 13.849
12.80000 8.103
12.82000 1.507
12.84000 3.788
12.86000 12.532
12.88000 7.975
12.90000 13.759
12.92000 18.749
12.94000 16.531
12.96000 12.683
12.98000 11.144
13.00000 11.403
13.02000 8.851
13.04000 14.990
13.06000 12.243
13.08000 9.818
13.10000 5.322
13.12000 6.479
13.14000 9.330
13.16000 4.200
13.18000 4.271
13.20000 9.764
13.22000 4.977
13.24000 12.167
13.26000 15.947
13.28000 15.742
13.30000 22.575
13.32000 19.510
13.34000 10.322
13.36000 19.864
13.38000 24.675
13.40000 9.349
13.42000 8.583
13.44000 13.140
13.46000 8.763
13.48000 10.562
13.50000 9.009
13.52000 10.347
13.54000 14.813
13.56000 17.197
13.58000 18.232
13.60000 13.517
13.62000 12.788
13.64000 7.002
13.66000 0.845
13.68000 1.510
13.70000 6.244
13.72000 -0.478
13.74000 9.864
13.76000 20.679
13.78000 28.738
13.80000 16.020
13.82000 9.710
13.84000 12.137
13.86000 26.856
13.88000 13.041
13.90000 4.545
13.92000 3.394
13.94000 9.646
13.96000 6.802
13.98000 4.846
14.00000 3.436
14.02000 6.978
14.04000 7.163
14.06000 0.834
14.08000 8.267
14.10000 5.529
14.12000 6.736
14.14000 9.928
14.16000 2.758
14.18000 -2.061
14.20000 2.747
14.22000 -1.732
14.24000 3.204
14.26000 9.655
14.28000 7.481
14.30000 7.641
14.32000 6.641
14.34000 2.197
14.36000 1.710
14.38000 9.031
14.40000 1.065
14.42000 9.787
14.44000 16.462
14.46000 11.792
14.48000 3.692
14.50000 0.514
14.52000 4.121
14.54000 9.459
14.56000 -2.049
14.58000 -4.494
14.60000 -1.770
14.62000 6.702
14.64000 18.122
14.66000 9.203
14.68000 6.103
14.70000 9.536
14.72000 1.914
14.74000 -1.765
14.76000 6.607
14.78000 4.776
14.80000 10.518
14.82000 14.484
14.84000 12.003
14.86000 3.745
14.88000 1.382
14.90000 8.120
14.92000 11.979
14.94000 11.229
14.96000 9.298
14.98000 3.735
15.00000 12.643
15.02000 7.350
15.04000 0.284
15.06000 3.564
15.08000 7.632
15.10000 13.674
15.12000 6.429
15.14000 6.439
15.16000 1.501
15.18000 5.078
15.20000 16.672
15.22000 7.920
15.24000 12.852
15.26000 14.415
15.28000 10.958
15.30000 5.415
15.32000 6.278
15.34000 13.876
15.36000 14.375
15.38000 14.730
15.40000 9.404
15.42000 9.767
15.44000 14.777
15.46000 2.533
15.48000 -3.842
15.50000 6.568
15.52000 2.905
15.54000 -1.295
15.56000 -3.108
15.58000 4.842
15.60000 7.613
15.62000 4.999
15.64000 -1.362
15.66000 2.009
15.68000 0.216
15.70000 3.145
15.72000 9.674
15.74000 13.415
15.76000 9.124
15.78000 0.435
15.80000 4.337
15.82000 0.703
15.84000 -1.345
15.86000 1.330
15.88000 2.677
15.90000 -1.692
15.92000 8.140
15.94000 15.125
15.96000 12.091
15.98000 18.042
16.00000 13.385
16.02000 2.044
16.04000 7.282
16.06000 9.459
16.08000 10.689
16.10000 10.048
16.12000 15.506
16.14000 18.594
16.16000 18.923
16.18000 8.804
16.20000 10.180
16.22000 7.399
16.24000 9.949
16.26000 1.162
16.28000 2.516
16.30000 5.273
16.32000 11.376
16.34000 13.465
16.36000 4.779
16.38000 5.982
16.40000 5.859
16.42000 -4.407
16.44000 1.841
16.46000 5.036
16.48000 10.761
16.50000 17.114
16.52000 14.298
16.54000 6.658
16.56000 -2.851
16.58000 8.534
16.60000 11.669
16.62000 9.862
16.64000 6.385
16.66000 -2.076
16.68000 0.230
16.70000 7.756
16.72000 8.656
16.74000 4.988
16.76000 1.235
16.78000 -0.748
16.80000 5.678
16.82000 3.000
16.84000 2.754
16.86000 6.885
16.88000 13.999
16.90000 11.812
16.92000 9.012
16.94000 11.328
16.96000 14.550
16.98000 9.241
17.00000 -1.019
17.02000 -1.645
17.04000 -1.944
17.06000 0.596
17.08000 3.012
17.10000 -0.320
17.12000 2.227
17.14000 7.234
17.16000 6.519
17.18000 -3.310
17.20000 2.360
17.22000 8.637
17.24000 5.688
17.26000 12.616
17.28000 16.049
17.30000 9.370
17.32000 6.306
17.34000 3.727
17.36000 11.702
17.38000 11.988
17.40000 5.894
17.42000 1.856
17.44000 6.070
17.46000 1.525
17.48000 0.553
17.50000 -0.535
17.52000 9.512
17.54000 7.271
17.56000 4.402
17.58000 0.265
17.60000 2.031
17.62000 5.043
17.64000 4.663
17.66000 1.040
17.68000 5.965
17.70000 3.446
17.72000 -1.008
17.74000 -2.814
17.76000 7.828
17.78000 11.742
17.80000 10.257
17.82000 1.506
17.84000 -1.454
17.86000 0.184
17.88000 1.206
17.90000 5.747
17.92000 1.349
17.94000 10.093
17.96000 2.903
17.98000 2.353
18.00000 3.770
18.02000 -2.321
18.04000 1.417
18.06000 3.669
18.08000 10.730
18.10000 3.021
18.12000 0.841
18.14000 1.796
18.16000 -2.459
18.18000 2.883
18.20000 5.845
18.22000 -2.460
18.24000 -0.046
18.26000 10.980
18.28000 7.807
18.30000 1.973
18.32000 2.655
18.34000 4.418
18.36000 0.652
18.38000 1.260
18.40000 4.759
18.42000 9.488
18.44000 2.361
18.46000 5.813
18.48000 5.400
18.50000 9.032
18.52000 1.964
18.54000 2.907
18.56000 9.446
18.58000 3.597
18.60000 1.250
18.62000 -3.532
18.64000 0.965
18.66000 10.809
18.68000 10.021
18.70000 3.638
18.72000 1.568
18.74000 4.406
18.76000 4.266
18.78000 3.512
18.80000 5.004
18.82000 3.372
18.84000 -0.938
18.86000 3.651
18.88000 5.905
18.90000 -0.038
18.92000 1.095
18.94000 8.392
18.96000 0.038
18.98000 -4.323
19.00000 -0.466
19.02000 3.517
19.04000 4.220
19.06000 1.909
19.08000 -1.376
19.10000 -0.751
19.12000 3.108
19.14000 1.179
19.16000 5.467
19.18000 -1.904
19.20000 -1.148
19.22000 -0.068
19.24000 -1.568
19.26000 -3.544
19.28000 -3.640
19.30000 0.007
19.32000 -1.088
19.34000 3.826
19.36000 8.494
19.38000 4.072
19.40000 0.303
19.42000 -4.295
19.44000 4.866
19.46000 11.214
19.48000 0.337
19.50000 1.126
19.52000 6.153
19.54000 1.434
19.56000 11.202
19.58000 6.633
19.60000 0.619
19.62000 4.331
19.64000 11.828
19.66000 5.778
19.68000 -0.406
19.70000 0.043
19.72000 2.699
19.74000 -2.988
19.76000 0.753
19.78000 -1.661
19.80000 0.736
19.82000 9.540
19.84000 3.206
19.86000 -3.352
19.88000 -0.453
19.90000 6.896
19.92000 8.305
19.94000 10.108
19.96000 8.614
19.98000 3.163
20.00000 0.987
20.02000 -4.251
20.04000 -0.760
20.06000 2.537
20.08000 5.692
20.10000 6.824
20.12000 3.414
20.14000 5.161
20.16000 9.497
20.18000 6.799
20.20000 4.166
20.22000 14.168
20.24000 11.681
20.26000 6.773
20.28000 6.563
20.30000 7.790
20.32000 4.889
20.34000 2.641
20.36000 7.450
20.38000 -2.207
20.40000 0.938
20.42000 7.610
20.44000 6.159
20.46000 4.051
20.48000 -2.063
20.50000 -0.375
20.52000 5.402
20.54000 1.436
20.56000 2.547
20.58000 1.662
20.60000 3.678
20.62000 2.299
20.64000 3.431
20.66000 1.584
20.68000 1.153
20.70000 8.251
20.72000 7.622
20.74000 10.365
20.76000 17.957
20.78000 2.915
20.80000 -4.190
20.82000 2.465
20.84000 2.016
20.86000 7.574
20.88000 10.099
20.90000 6.091
20.92000 6.236
20.94000 5.436
20.96000 6.941
20.98000 1.106
21.00000 2.842
21.02000 -0.935
21.04000 4.417
21.06000 7.570
21.08000 1.570
21.10000 2.743
21.12000 7.253
21.14000 1.928
21.16000 1.132
21.18000 1.229
21.20000 4.934
21.22000 5.324
21.24000 -1.708
21.26000 3.866
21.28000 7.469
21.30000 4.231
21.32000 0.680
21.34000 5.111
21.36000 7.037
21.38000 2.330
21.40000 4.520
21.42000 4.368
21.44000 10.956
21.46000 13.945
21.48000 5.818
21.50000 9.836
21.52000 3.072
21.54000 4.606
21.56000 5.505
21.58000 -1.231
21.60000 3.596
21.62000 9.212
21.64000 -0.738
21.66000 -3.607
21.68000 1.008
21.70000 7.186
21.72000 5.405
21.74000 5.798
21.76000 3.766
21.78000 3.141
21.80000 2.299
21.82000 1.948
21.84000 0.722
21.86000 -0.870
21.88000 0.605
21.90000 -0.888
21.92000 -0.345
21.94000 6.742
21.96000 5.851
21.98000 4.619
22.00000 9.511
22.02000 14.032
22.04000 10.029
22.06000 4.901
22.08000 8.705
22.10000 9.344
22.12000 12.594
22.14000 6.190
22.16000 -4.123
22.18000 -1.806
22.20000 -0.629
22.22000 6.822
22.24000 10.428
22.26000 5.650
22.28000 4.000
22.30000 3.388
22.32000 0.593
22.34000 3.471
22.36000 11.261
22.38000 9.785
22.40000 6.979
22.42000 8.187
22.44000 7.599
22.46000 6.845
22.48000 7.253
22.50000 1.009
22.52000 5.136
22.54000 2.912
22.56000 5.090
22.58000 2.549
22.60000 0.299
22.62000 4.265
22.64000 2.955
22.66000 -0.875
22.68000 -2.026
22.70000 1.078
22.72000 1.052
22.74000 -1.228
22.76000 1.701
22.78000 9.323
22.80000 6.553
22.82000 2.925
22.84000 1.712
22.86000 -4.101
22.88000 2.558
22.90000 4.232
22.92000 -0.178
22.94000 0.823
22.96000 5.837
22.98000 0.781
23.00000 3.559
23.02000 0.894
23.04000 1.057
23.06000 1.767
23.08000 1.820
23.10000 -1.560
23.12000 -1.990
23.14000 3.125
23.16000 7.110
23.18000 6.190
23.20000 4.052
23.22000 3.576
23.24000 9.550
23.26000 6.518
23.28000 1.118
23.30000 -4.082
23.32000 0.464
23.34000 2.733
23.36000 -1.560
23.38000 0.688
23.40000 -0.033
23.42000 1.795
23.44000 3.872
23.46000 -0.029
23.48000 -0.233
23.50000 0.325
23.52000 2.093
23.54000 -1.536
23.56000 1.409
23.58000 4.513
23.60000 6.076
23.62000 1.522
23.64000 1.166
23.66000 0.033
23.68000 2.088
23.70000 7.358
23.72000 6.613
23.74000 2.014
23.76000 6.671
23.78000 10.806
23.80000 7.107
23.82000 6.536
23.84000 0.246
23.86000 -4.050
23.88000 -0.128
23.90000 2.553
23.92000 5.731
23.94000 12.531
23.96000 10.190
23.98000 8.201
24.00000 12.556
24.02000 2.960
24.04000 1.317
24.06000 6.565
24.08000 5.997
24.10000 0.593
24.12000 -0.925
24.14000 -1.546
24.16000 4.383
24.18000 7.485
24.20000 10.146
24.22000 4.342
24.24000 4.385
24.26000 1.946
24.28000 4.852
24.30000 8.843
24.32000 4.817
24.34000 1.474
24.36000 -0.065
24.38000 -2.179
24.40000 0.614
24.42000 3.477
24.44000 3.903
24.46000 6.492
24.48000 4.983
24.50000 3.771
24.52000 2.502
24.54000 2.549
24.56000 -1.412
24.58000 -3.863
24.60000 -0.996
24.62000 -3.888
24.64000 0.266
24.66000 -3.988
24.68000 -2.110
24.70000 5.416
24.72000 7.971
24.74000 3.814
24.76000 -1.015
24.78000 0.094
24.80000 0.368
24.82000 1.802
24.84000 0.989
24.86000 7.262
24.88000 8.168
24.90000 10.406
24.92000 5.436
24.94000 4.037
24.96000 -2.523
24.98000 0.532
25.00000 2.084
25.02000 0.565
25.04000 1.202
25.06000 -1.060
25.08000 2.058
25.10000 -1.659
25.12000 -2.611
25.14000 -2.175
25.16000 -2.516
25.18000 -3.074
25.20000 2.717
25.22000 -1.426
25.24000 -2.275
25.26000 4.213
25.28000 3.315
25.30000 6.432
25.32000 1.146
25.34000 0.915
25.36000 3.379
25.38000 2.778
25.40000 6.055
25.42000 2.218
25.44000 1.768
25.46000 4.563
25.48000 7.778
25.50000 4.798
25.52000 7.781
25.54000 10.821
25.56000 8.115
25.58000 1.980
25.60000 4.307
25.62000 3.490
25.64000 5.396
25.66000 4.374
25.68000 2.607
25.70000 -0.448
25.72000 1.478
25.74000 3.857
25.76000 7.024
25.78000 5.530
25.80000 7.545
25.82000 4.296
25.84000 7.749
25.86000 4.901
25.88000 2.916
25.90000 3.700
25.92000 5.981
25.94000 5.294
25.96000 -3.913
25.98000 -0.295
26.00000 5.362
26.02000 5.621
26.04000 6.340
26.06000 3.251
26.08000 -0.169
26.10000 3.119
26.12000 1.036
26.14000 3.071
26.16000 0.288
26.18000 0.022
26.20000 4.996
26.22000 5.455
26.24000 6.399
26.26000 5.067
26.28000 -0.897
26.30000 3.920
26.32000 8.477
26.34000 4.968
26.36000 3.335
26.38000 5.339
26.40000 3.054
26.42000 3.423
26.44000 2.069
26.46000 3.161
26.48000 2.014
26.50000 5.657
26.52000 5.720
26.54000 4.585
26.56000 4.813
26.58000 1.246
26.60000 6.025
26.62000 1.076
26.64000 2.705
26.66000 6.398
26.68000 4.228
26.70000 0.076
26.72000 -3.887
26.74000 1.608
26.76000 3.647
26.78000 -0.163
26.80000 1.007
26.82000 2.440
26.84000 4.775
26.86000 7.273
26.88000 3.331
26.90000 5.707
26.92000 9.867
26.94000 6.773
26.96000 9.750
26.98000 8.394
27.00000 9.743
27.02000 6.182
27.04000 3.346
27.06000 5.255
27.08000 8.604
27.10000 9.865
27.12000 6.678
27.14000 3.145
27.16000 4.820
27.18000 2.884
27.20000 2.627
27.22000 1.702
27.24000 0.899
27.26000 0.383
27.28000 -0.139
27.30000 2.082
27.32000 2.639
27.34000 -0.605
27.36000 5.863
27.38000 10.343
27.40000 3.893
27.42000 2.242
27.44000 -0.834
27.46000 5.994
27.48000 8.132
27.50000 4.692
27.52000 1.989
27.54000 -3.832
27.56000 0.428
27.58000 5.923
27.60000 6.385
27.62000 5.484
27.64000 3.917
27.66000 6.869
27.68000 7.846
27.70000 2.175
27.72000 -0.176
27.74000 2.557
27.76000 -1.165
27.78000 3.198
27.80000 1.045
27.82000 2.307
27.84000 2.908
27.86000 0.076
27.88000 2.245
27.90000 -1.340
27.92000 1.649
27.94000 3.871
27.96000 1.082
27.98000 1.313
28.00000 1.810
28.02000 2.318
28.04000 2.512
28.06000 1.373
28.08000 3.594
28.10000 7.778
28.12000 5.438
28.14000 -0.240
28.16000 4.731
28.18000 0.361
28.20000 2.260
28.22000 -3.819
28.24000 -3.217
28.26000 1.492
28.28000 6.069
28.30000 8.096
28.32000 5.214
28.34000 -0.382
28.36000 -0.355
28.38000 -1.250
28.40000 -1.685
28.42000 -0.084
28.44000 2.086
28.46000 3.210
28.48000 5.384
28.50000 6.527
28.52000 1.168
28.54000 0.030
28.56000 -0.319
28.58000 5.300
28.60000 7.075
28.62000 6.993
28.64000 4.765
28.66000 1.555
28.68000 2.208
28.70000 2.384
28.72000 2.712
28.74000 5.209
28.76000 2.003
28.78000 4.502
28.80000 -0.720
28.82000 -0.971
28.84000 -0.728
28.86000 0.576
28.88000 1.859
28.90000 2.307
28.92000 2.572
28.94000 5.861
28.96000 3.678
28.98000 4.434
29.00000 5.644
29.02000 3.488
29.04000 1.605
29.06000 3.080
29.08000 4.758
29.10000 -0.750
29.12000 -0.725
29.14000 0.586
29.16000 3.335
29.18000 6.836
29.20000 4.007
29.22000 5.957
29.24000 5.591
29.26000 7.956
29.28000 10.508
29.30000 5.518
29.32000 4.967
29.34000 2.838
29.36000 4.288
29.38000 3.030
29.40000 7.177
29.42000 9.855
29.44000 3.764
29.46000 2.941
29.48000 0.450
29.50000 3.677
29.52000 8.718
29.54000 5.773
29.56000 4.024
29.58000 2.501
29.60000 -2.158
29.62000 -0.648
29.64000 5.851
29.66000 2.464
29.68000 3.888
29.70000 2.257
29.72000 2.777
29.74000 4.117
29.76000 -3.709
29.78000 -2.812
29.80000 5.737
29.82000 9.839
29.84000 5.552
29.86000 5.067
29.88000 5.387
29.90000 4.471
29.92000 6.707
29.94000 2.627
29.96000 3.199
29.98000 3.279
30.00000 7.378
30.02000 8.534
30.04000 5.379
30.06000 10.686
30.08000 7.897
30.10000 4.347
30.12000 5.573
30.14000 5.095
30.16000 4.114
30.18000 1.950
30.20000 3.538
30.22000 2.458
30.24000 4.998
30.26000 4.696
30.28000 3.848
30.30000 2.662
30.32000 -2.247
30.34000 2.493
30.36000 9.133
30.38000 5.862
30.40000 5.228
30.42000 3.763
30.44000 5.445
30.46000 8.354
30.48000 10.289
30.50000 8.428
30.52000 2.713
30.54000 -0.877
30.56000 -0.386
30.58000 1.210
30.60000 0.290
30.62000 0.570
30.64000 -0.888
30.66000 1.392
30.68000 -0.370
30.70000 4.453
30.72000 1.759
30.74000 -0.515
30.76000 2.464
30.78000 -0.344
30.80000 4.102
30.82000 3.593
30.84000 6.653
30.86000 6.454
30.88000 4.684
30.90000 2.830
30.92000 0.546
30.94000 2.457
30.96000 6.392
30.98000 6.955
31.00000 4.067
31.02000 6.826
31.04000 4.240
31.06000 1.565
31.08000 -0.791
31.10000 0.928
31.12000 3.965
31.14000 0.125
31.16000 0.994
31.18000 4.443
31.20000 0.776
31.22000 1.688
31.24000 4.406
31.26000 6.666
31.28000 3.573
31.30000 2.599
31.32000 3.192
31.34000 4.212
31.36000 4.013
31.38000 1.096
31.40000 -3.665
31.42000 1.356
31.44000 5.646
31.46000 1.948
31.48000 0.580
31.50000 3.331
31.52000 0.602
31.54000 -3.464
31.56000 0.310
31.58000 1.876
31.60000 1.613
31.62000 -1.014
31.64000 7.227
31.66000 8.958
31.68000 4.698
31.70000 5.991
31.72000 4.283
31.74000 2.526
31.76000 1.962
31.78000 1.465
31.80000 2.524
31.82000 -1.540
31.84000 1.531
31.86000 0.967
31.88000 0.788
31.90000 4.428
31.92000 1.485
31.94000 2.129
31.96000 -0.430
31.98000 -1.863
32.00000 -0.812
32.02000 -0.692
32.04000 2.313
32.06000 4.196
32.08000 6.832
32.10000 9.542
32.12000 3.760
32.14000 3.355
32.16000 0.775
32.18000 -0.926
32.20000 5.664
32.22000 3.090
32.24000 5.273
32.26000 6.468
32.28000 -0.726
32.30000 -0.337
32.32000 3.686
32.34000 3.244
32.36000 1.282
32.38000 0.036
32.40000 -0.400
32.42000 0.399
32.44000 -3.621
32.46000 1.746
32.48000 1.498
32.50000 3.083
32.52000 3.789
32.54000 5.809
32.56000 7.294
32.58000 2.994
32.60000 0.416
32.62000 1.762
32.64000 0.521
32.66000 -1.580
32.68000 -2.713
32.70000 2.808
32.72000 3.055
32.74000 7.505
32.76000 3.346
32.78000 -2.859
32.80000 -0.070
32.82000 0.282
32.84000 3.037
32.86000 5.485
32.88000 1.464
32.90000 0.270
32.92000 7.540
32.94000 5.652
32.96000 2.703
32.98000 -2.216
33.00000 2.011
33.02000 -0.294
33.04000 -2.951
33.06000 2.887
33.08000 1.115
33.10000 1.205
33.12000 4.047
33.14000 2.548
33.16000 -0.939
33.18000 -3.461
33.20000 2.005
33.22000 1.100
33.24000 0.004
33.26000 -0.364
33.28000 -1.036
33.30000 1.341
33.32000 3.606
33.34000 -1.161
33.36000 -2.279
33.38000 2.719
33.40000 2.765
33.42000 4.367
33.44000 4.688
33.46000 2.843
33.48000 1.169
33.50000 4.122
33.52000 9.016
33.54000 3.990
33.56000 -0.507
33.58000 3.480
33.60000 4.752
33.62000 4.308
33.64000 0.611
33.66000 -1.614
33.68000 -1.503
33.70000 1.753
33.72000 -3.614
33.74000 0.221
33.76000 5.669
33.78000 2.063
33.80000 1.485
33.82000 0.486
33.84000 2.328
33.86000 0.910
33.88000 2.031
33.90000 3.015
33.92000 4.342
33.94000 4.489
33.96000 -1.613
33.98000 2.201
34.00000 3.263
34.02000 -0.599
34.04000 -1.190
34.06000 2.319
34.08000 4.222
34.10000 -0.144
34.12000 -3.595
34.14000 0.912
34.16000 1.405
34.18000 5.739
34.20000 6.624
34.22000 3.182
34.24000 0.784
34.26000 4.949
34.28000 8.354
34.30000 5.784
34.32000 3.042
34.34000 3.405
34.36000 7.853
34.38000 9.523
34.40000 -0.925
34.42000 4.694
34.44000 9.863
34.46000 4.387
34.48000 4.482
34.50000 0.135
34.52000 4.138
34.54000 2.791
34.56000 1.745
34.58000 1.059
34.60000 1.918
34.62000 -0.934
34.64000 -0.899
34.66000 -1.182
34.68000 1.007
34.70000 3.496
34.72000 4.156
34.74000 -0.147
34.76000 4.179
34.78000 6.493
34.80000 3.956
34.82000 3.556
34.84000 -0.442
34.86000 4.729
34.88000 2.721
34.90000 3.609
34.92000 0.453
34.94000 1.468
34.96000 -0.094
34.98000 -3.556
35.00000 -2.620
35.02000 1.305
35.04000 3.288
35.06000 2.260
35.08000 1.873
35.10000 -1.659
35.12000 0.671
35.14000 1.706
35.16000 -3.553
35.18000 -3.256
35.20000 0.613
35.22000 4.209
35.24000 7.942
35.26000 4.306
35.28000 -0.298
35.30000 4.252
35.32000 3.330
35.34000 1.834
35.36000 -2.430
35.38000 -2.542
35.40000 1.350
35.42000 5.815
35.44000 1.313
35.46000 4.719
35.48000 1.999
35.50000 1.084
35.52000 2.386
35.54000 1.199
35.56000 3.716
35.58000 4.527
35.60000 3.771
35.62000 2.082
35.64000 2.118
35.66000 -0.069
35.68000 -1.511
35.70000 -0.641
35.72000 0.724
35.74000 5.773
35.76000 2.319
35.78000 1.996
35.80000 0.889
35.82000 3.277
35.84000 4.619
35.86000 2.351
35.88000 1.658
35.90000 1.973
35.92000 3.193
35.94000 2.122
35.96000 -2.411
35.98000 -3.579
36.00000 0.970
36.02000 3.896
36.04000 1.898
36.06000 0.189
36.08000 -1.585
36.10000 6.004
36.12000 6.923
36.14000 1.522
36.16000 0.444
36.18000 0.529
36.20000 3.643
36.22000 4.200
36.24000 2.502
36.26000 1.921
36.28000 0.579
36.30000 -0.328
36.32000 -1.398
36.34000 -1.730
36.36000 -2.550
36.38000 -1.951
36.40000 -3.462
36.42000 1.095
36.44000 3.479
36.46000 -2.481
36.48000 0.322
36.50000 2.921
36.52000 0.041
36.54000 -0.136
36.56000 1.839
36.58000 -1.684
36.60000 -1.657
36.62000 -2.717
36.64000 0.316
36.66000 4.254
36.68000 4.770
36.70000 3.297
36.72000 4.565
36.74000 -3.249
36.76000 0.506
36.78000 2.990
36.80000 2.362
36.82000 -2.506
36.84000 -3.652
36.86000 -1.360
36.88000 6.657
36.90000 3.963
36.92000 2.037
36.94000 3.601
36.96000 -0.750
36.98000 2.749
37.00000 -2.037
37.02000 -1.168
37.04000 0.690
37.06000 -0.980
37.08000 -3.426
37.10000 -1.067
37.12000 -0.565
37.14000 -3.627
37.16000 -3.687
37.18000 -2.192
37.20000 -3.600
37.22000 -2.342
37.24000 2.686
37.26000 1.370
37.28000 -0.831
37.30000 0.755
37.32000 -0.407
37.34000 -1.978
37.36000 2.266
37.38000 2.201
37.40000 4.008
37.42000 2.865
37.44000 3.451
37.46000 2.130
37.48000 -3.428
37.50000 -3.721
37.52000 -2.375
37.54000 1.338
37.56000 -0.216
37.58000 -2.268
37.60000 1.293
37.62000 2.252
37.64000 2.755
37.66000 4.444
37.68000 7.297
37.70000 6.142
37.72000 5.818
37.74000 5.045
37.76000 5.631
37.78000 3.654
37.80000 1.994
37.82000 6.917
37.84000 7.523
37.86000 8.860
37.88000 10.440
37.90000 6.942
37.92000 4.468
37.94000 5.521
37.96000 9.021
37.98000 11.679
38.00000 10.526
38.02000 7.247
38.04000 9.280
38.06000 10.900
38.08000 11.020
38.10000 11.989
38.12000 14.608
38.14000 10.045
38.16000 11.393
38.18000 12.236
38.20000 12.899
38.22000 15.144
38.24000 11.581
38.26000 13.187
38.28000 18.321
38.30000 18.641
38.32000 18.157
38.34000 18.053
38.36000 18.637
38.38000 14.585
38.40000 16.761
38.42000 24.461
38.44000 23.680
38.46000 31.824
38.48000 25.371
38.50000 20.318
38.52000 22.668
38.54000 27.492
38.56000 26.051
38.58000 29.174
38.60000 28.986
38.62000 30.121
38.64000 32.595
38.66000 33.965
38.68000 35.384
38.70000 38.703
38.72000 42.850
38.74000 43.589
38.76000 42.339
38.78000 44.058
38.80000 46.178
38.82000 44.705
38.84000 41.310
38.86000 44.823
38.88000 51.760
38.90000 52.413
38.92000 57.703
38.94000 59.366
38.96000 61.981
38.98000 63.939
39.00000 64.940
39.02000 68.884
39.04000 65.889
39.06000 72.047
39.08000 80.376
39.10000 83.998
39.12000 84.485
39.14000 88.534
39.16000 88.716
39.18000 80.168
39.20000 87.767
39.22000 96.645
39.24000 106.201
39.26000 111.655
39.28000 112.511
39.30000 117.261
39.32000 128.630
39.34000 134.087
39.36000 141.113
39.38000 147.098
39.40000 152.967
39.42000 161.320
39.44000 171.637
39.46000 176.634
39.48000 183.833
39.50000 196.690
39.52000 204.227
39.54000 217.677
39.56000 228.341
39.58000 235.233
39.60000 246.767
39.62000 256.442
39.64000 267.101
39.66000 280.484
39.68000 298.324
39.70000 318.834
39.72000 335.534
39.74000 349.977
39.76000 346.621
39.78000 352.888
39.80000 374.994
39.82000 398.293
39.84000 420.512
39.86000 437.623
39.88000 458.416
39.90000 464.848
39.92000 478.693
39.94000 493.263
39.96000 509.815
39.98000 531.035
40.00000 555.669
40.02000 563.983
40.04000 575.113
40.06000 593.274
40.08000 600.301
40.10000 598.134
40.12000 616.554
40.14000 634.637
40.16000 627.465
40.18000 633.392
40.20000 637.151
40.22000 641.625
40.24000 649.897
40.26000 652.436
40.28000 643.725
40.30000 638.827
40.32000 636.751
40.34000 628.725
40.36000 608.201
40.38000 594.121
40.40000 582.932
40.42000 562.293
40.44000 555.797
40.46000 542.366
40.48000 522.576
40.50000 502.480
40.52000 483.911
40.54000 479.225
40.56000 454.422
40.58000 439.382
40.60000 423.762
40.62000 414.943
40.64000 383.397
40.66000 364.971
40.68000 350.118
40.70000 339.306
40.72000 325.976
40.74000 311.807
40.76000 292.259
40.78000 281.091
40.80000 266.062
40.82000 241.720
40.84000 232.531
40.86000 221.886
40.88000 206.097
40.90000 197.054
40.92000 184.875
40.94000 172.122
40.96000 167.312
40.98000 154.634
41.00000 155.912
41.02000 142.919
41.04000 128.243
41.06000 124.115
41.08000 124.492
41.10000 118.108
41.12000 106.389
41.14000 104.864
41.16000 101.298
41.18000 99.564
41.20000 92.892
41.22000 82.555
41.24000 71.786
41.26000 70.881
41.28000 69.403
41.30000 68.363
41.32000 65.111
41.34000 59.516
41.36000 51.858
41.38000 49.347
41.40000 47.610
41.42000 52.047
41.44000 50.387
41.46000 41.783
41.48000 39.413
41.50000 40.605
41.52000 33.198
41.54000 25.045
41.56000 26.689
41.58000 27.662
41.60000 25.686
41.62000 31.337
41.64000 26.108
41.66000 22.199
41.68000 28.332
41.70000 23.473
41.72000 26.184
41.74000 26.035
41.76000 18.608
41.78000 12.190
41.80000 13.044
41.82000 14.601
41.84000 11.799
41.86000 14.705
41.88000 12.009
41.90000 12.041
41.92000 13.824
41.94000 13.321
41.96000 8.173
41.98000 7.061
42.00000 13.125
42.02000 10.874
42.04000 8.854
42.06000 7.540
42.08000 6.185
42.10000 4.945
42.12000 6.015
42.14000 8.888
42.16000 9.288
42.18000 9.133
42.20000 3.578
42.22000 6.517
42.24000 9.435
42.26000 6.936
42.28000 3.166
42.30000 4.006
42.32000 3.393
42.34000 2.375
42.36000 2.293
42.38000 5.924
42.40000 5.912
42.42000 5.226
42.44000 -1.997
42.46000 -1.347
42.48000 -3.651
42.50000 1.587
42.52000 2.160
42.54000 -1.393
42.56000 -2.905
42.58000 3.170
42.60000 0.252
42.62000 0.605
42.64000 3.531
42.66000 3.404
42.68000 1.221
42.70000 2.302
42.72000 1.379
42.74000 5.945
42.76000 -1.804
42.78000 -0.003
42.80000 1.026
42.82000 -0.535
42.84000 2.188
42.86000 0.356
42.88000 3.739
42.90000 2.809
42.92000 -1.691
42.94000 -1.134
42.96000 1.301
42.98000 3.125
43.00000 3.730
43.02000 -0.544
43.04000 -0.827
43.06000 1.805
43.08000 2.191
43.10000 4.974
43.12000 3.643
43.14000 -0.243
43.16000 -1.863
43.18000 -1.033
43.20000 -0.904
43.22000 4.580
43.24000 5.497
43.26000 0.170
43.28000 -2.430
43.30000 2.319
43.32000 3.032
43.34000 0.735
43.36000 -0.621
43.38000 -0.140
43.40000 -3.540
43.42000 -1.232
43.44000 -0.821
43.46000 2.372
43.48000 1.821
43.50000 -0.511
43.52000 2.886
43.54000 3.870
43.56000 5.622
43.58000 1.704
43.60000 1.090
43.62000 -2.227
43.64000 1.063
43.66000 1.801
43.68000 2.602
43.70000 1.890
43.72000 0.823
43.74000 -1.737
43.76000 0.119
43.78000 -0.359
43.80000 3.053
43.82000 7.738
43.84000 5.756
43.86000 4.607
43.88000 8.086
43.90000 5.690
43.92000 0.949
43.94000 -3.492
43.96000 -2.311
43.98000 1.165
44.00000 0.764
44.02000 1.226
44.04000 0.171
44.06000 1.430
44.08000 3.812
44.10000 1.265
44.12000 0.307
44.14000 -0.503
44.16000 2.036
44.18000 3.886
44.20000 2.652
44.22000 1.156
44.24000 3.085
44.26000 1.818
44.28000 -1.455
44.30000 7.502
44.32000 4.809
44.34000 3.817
44.36000 4.075
44.38000 5.544
44.40000 2.432
44.42000 -0.670
44.44000 0.819
44.46000 1.259
44.48000 2.295
44.50000 -1.022
44.52000 5.063
44.54000 9.168
44.56000 7.299
44.58000 3.663
44.60000 3.876
44.62000 -1.096
44.64000 4.688
44.66000 6.862
44.68000 3.726
44.70000 0.595
44.72000 -0.209
44.74000 1.448
44.76000 6.522
44.78000 5.343
44.80000 7.490
44.82000 10.276
44.84000 6.701
44.86000 5.654
44.88000 7.344
44.90000 10.259
44.92000 6.925
44.94000 4.789
44.96000 5.416
44.98000 2.645
45.00000 3.797
45.02000 2.176
45.04000 4.286
45.06000 10.769
45.08000 9.152
45.10000 10.694
45.12000 12.579
45.14000 12.999
45.16000 9.566
45.18000 13.992
45.20000 13.415
45.22000 15.980
45.24000 18.376
45.26000 12.389
45.28000 9.664
45.30000 12.123
45.32000 11.683
45.34000 15.907
45.36000 13.747
45.38000 15.303
45.40000 20.758
45.42000 16.681
45.44000 14.970
45.46000 13.944
45.48000 13.939
45.50000 14.358
45.52000 17.527
45.54000 17.812
45.56000 20.661
45.58000 23.355
45.60000 27.543
45.62000 25.924
45.64000 24.906
45.66000 22.757
45.68000 26.004
45.70000 29.594
45.72000 31.349
45.74000 28.432
45.76000 29.560
45.78000 31.885
45.80000 38.776
45.82000 36.644
45.84000 34.016
45.86000 37.374
45.88000 37.870
45.90000 40.879
45.92000 36.362
45.94000 41.421
45.96000 38.602
45.98000 37.295
46.00000 43.989
46.02000 50.759
46.04000 54.720
46.06000 54.417
46.08000 50.153
46.10000 50.687
46.12000 48.001
46.14000 50.581
46.16000 50.182
46.18000 48.675
46.20000 52.071
46.22000 56.153
46.24000 60.290
46.26000 59.131
46.28000 56.871
46.30000 64.411
46.32000 61.344
46.34000 65.117
46.36000 70.517
46.38000 72.488
46.40000 72.497
46.42000 66.085
46.44000 72.447
46.46000 71.222
46.48000 69.601
46.50000 71.933
46.52000 67.884
46.54000 71.197
46.56000 74.656
46.58000 80.430
46.60000 86.275
46.62000 83.663
46.64000 83.370
46.66000 79.794
46.68000 73.070
46.70000 76.293
46.72000 75.387
46.74000 87.375
46.76000 90.833
46.78000 89.279
46.80000 87.706
46.82000 80.646
46.84000 76.163
46.86000 84.510
46.88000 79.015
46.90000 80.754
46.92000 85.614
46.94000 76.720
46.96000 78.765
46.98000 76.607
47.00000 83.474
47.02000 84.142
47.04000 80.625
47.06000 73.813
47.08000 71.757
47.10000 73.310
47.12000 65.477
47.14000 68.894
47.16000 66.577
47.18000 69.740
47.20000 66.791
47.22000 60.665
47.24000 62.581
47.26000 58.489
47.28000 57.957
47.30000 56.504
47.32000 60.987
47.34000 53.870
47.36000 56.219
47.38000 57.805
47.40000 51.540
47.42000 49.597
47.44000 54.540
47.46000 49.258
47.48000 50.894
47.50000 44.255
47.52000 43.092
47.54000 36.424
47.56000 38.656
47.58000 40.692
47.60000 40.735
47.62000 35.102
47.64000 31.719
47.66000 29.569
47.68000 30.174
47.70000 29.413
47.72000 28.667
47.74000 33.846
47.76000 26.364
47.78000 22.210
47.80000 20.821
47.82000 22.241
47.84000 17.385
47.86000 19.864
47.88000 17.618
47.90000 18.591
47.92000 16.961
47.94000 14.284
47.96000 13.174
47.98000 9.351
48.00000 9.647
48.02000 13.895
48.04000 12.845
48.06000 8.036
48.08000 12.334
48.10000 12.160
48.12000 8.393
48.14000 7.817
48.16000 8.834
48.18000 6.236
48.20000 8.040
48.22000 9.550
48.24000 5.823
48.26000 11.659
48.28000 9.475
48.30000 6.023
48.32000 3.750
48.34000 4.558
48.36000 4.470
48.38000 2.035
48.40000 3.018
48.42000 9.094
48.44000 11.308
48.46000 3.733
48.48000 9.189
48.50000 8.626
48.52000 6.194
48.54000 6.785
48.56000 11.133
48.58000 10.637
48.60000 6.589
48.62000 3.825
48.64000 -1.043
48.66000 -0.815
48.68000 0.898
48.70000 4.092
48.72000 4.627
48.74000 1.200
48.76000 -3.220
48.78000 0.581
48.80000 0.375
48.82000 -1.915
48.84000 -2.492
48.86000 7.284
48.88000 1.579
48.90000 4.152
48.92000 6.710
48.94000 5.543
48.96000 5.338
48.98000 5.632
49.00000 1.320
49.02000 1.941
49.04000 0.767
49.06000 0.962
49.08000 3.002
49.10000 0.994
49.12000 3.890
49.14000 8.750
49.16000 5.280
49.18000 2.515
49.20000 5.147
49.22000 9.205
49.24000 4.996
49.26000 6.945
49.28000 5.585
49.30000 0.929
49.32000 -2.694
49.34000 2.282
49.36000 -0.795
49.38000 -0.084
49.40000 1.966
49.42000 1.534
49.44000 0.480
49.46000 -0.604
49.48000 1.166
49.50000 4.512
49.52000 7.861
49.54000 10.426
49.56000 10.382
49.58000 2.550
49.60000 -3.106
49.62000 0.992
49.64000 5.832
49.66000 -2.595
49.68000 -0.068
49.70000 2.243
49.72000 3.104
49.74000 4.528
49.76000 5.522
49.78000 4.994
49.80000 -0.512
49.82000 0.278
49.84000 -1.370
49.86000 -0.769
49.88000 0.040
49.90000 0.628
49.92000 2.115
49.94000 8.053
49.96000 4.821
49.98000 -3.064
50.00000 -1.597
50.02000 -2.280
50.04000 -1.429
50.06000 4.832
50.08000 4.058
50.10000 3.172
50.12000 1.437
50.14000 5.308
50.16000 0.295
50.18000 -3.052
50.20000 -0.197
50.22000 0.176
50.24000 3.311
50.26000 0.262
50.28000 1.880
50.30000 2.161
50.32000 4.873
50.34000 1.885
50.36000 4.724
50.38000 1.031
50.40000 2.874
50.42000 1.245
50.44000 -2.354
50.46000 -1.324
50.48000 0.124
50.50000 -0.162
50.52000 4.282
50.54000 4.050
50.56000 2.344
50.58000 1.388
50.60000 1.488
50.62000 2.729
50.64000 -1.601
50.66000 2.725
50.68000 0.911
50.70000 2.426
50.72000 2.953
50.74000 3.707
50.76000 4.692
50.78000 1.005
50.80000 2.160
50.82000 -0.967
50.84000 -2.011
50.86000 -1.713
50.88000 1.084
50.90000 -0.099
50.92000 2.422
50.94000 1.515
50.96000 2.680
50.98000 2.699
51.00000 -0.322
51.02000 1.622
51.04000 2.578
51.06000 6.511
51.08000 -0.263
51.10000 6.067
51.12000 4.549
51.14000 1.180
51.16000 3.542
51.18000 -1.131
51.20000 3.425
51.22000 5.540
51.24000 1.614
51.26000 0.011
51.28000 7.730
51.30000 6.566
51.32000 0.416
51.34000 6.331
51.36000 8.850
51.38000 8.328
51.40000 4.084
51.42000 1.262
51.44000 3.700
51.46000 4.018
51.48000 9.694
51.50000 7.333
51.52000 4.368
51.54000 -0.077
51.56000 3.585
51.58000 3.076
51.60000 2.804
51.62000 3.153
51.64000 4.375
51.66000 6.155
51.68000 0.366
51.70000 3.731
51.72000 -2.957
51.74000 -1.431
51.76000 3.128
51.78000 5.288
51.80000 5.352
51.82000 7.030
51.84000 4.616
51.86000 8.524
51.88000 9.246
51.90000 4.214
51.92000 4.234
51.94000 5.143
51.96000 10.008
51.98000 12.915
52.00000 10.801
52.02000 5.530
52.04000 7.387
52.06000 1.147
52.08000 2.406
52.10000 5.829
52.12000 6.692
52.14000 5.641
52.16000 7.165
52.18000 6.833
52.20000 3.742
52.22000 3.004
52.24000 -0.020
52.26000 -0.200
52.28000 1.041
52.30000 1.590
52.32000 5.915
52.34000 4.869
52.36000 5.568
52.38000 5.330
52.40000 8.214
52.42000 14.580
52.44000 10.032
52.46000 5.959
52.48000 9.413
52.50000 7.346
52.52000 4.548
52.54000 2.230
52.56000 -0.585
52.58000 2.737
52.60000 2.451
52.62000 5.179
52.64000 1.080
52.66000 1.389
52.68000 5.269
52.70000 3.215
52.72000 -2.903
52.74000 -2.437
52.76000 5.409
52.78000 7.767
52.80000 8.076
52.82000 11.662
52.84000 4.113
52.86000 0.735
52.88000 5.658
52.90000 6.603
52.92000 1.107
52.94000 3.787
52.96000 8.417
52.98000 6.815
53.00000 3.117
53.02000 5.917
53.04000 2.498
53.06000 3.709
53.08000 7.241
53.10000 3.683
53.12000 3.049
53.14000 5.556
53.16000 6.556
53.18000 3.826
53.20000 0.485
53.22000 0.618
53.24000 5.499
53.26000 3.068
53.28000 2.590
53.30000 9.007
53.32000 8.778
53.34000 7.024
53.36000 4.148
53.38000 3.162
53.40000 4.454
53.42000 3.270
53.44000 3.283
53.46000 -0.160
53.48000 2.934
53.50000 4.385
53.52000 5.113
53.54000 5.065
53.56000 -0.525
53.58000 3.001
53.60000 2.841
53.62000 4.865
53.64000 4.783
53.66000 2.913
53.68000 2.456
53.70000 5.891
53.72000 5.099
53.74000 5.767
53.76000 5.030
53.78000 1.548
53.80000 2.533
53.82000 5.731
53.84000 4.661
53.86000 -1.511
53.88000 2.984
53.90000 3.578
53.92000 1.301
53.94000 6.509
53.96000 2.010
53.98000 -0.674
54.00000 1.821
54.02000 0.563
54.04000 1.708
54.06000 2.853
54.08000 5.354
54.10000 0.450
54.12000 0.483
54.14000 4.871
54.16000 4.836
54.18000 2.506
54.20000 2.223
54.22000 3.986
54.24000 0.902
54.26000 3.577
54.28000 4.745
54.30000 1.737
54.32000 3.783
54.34000 6.553
54.36000 4.995
54.38000 6.708
54.40000 0.108
54.42000 -0.135
54.44000 8.441
54.46000 8.233
54.48000 4.539
54.50000 4.716
54.52000 5.499
54.54000 9.585
54.56000 -1.413
54.58000 5.130
54.60000 7.543
54.62000 5.044
54.64000 2.856
54.66000 0.251
54.68000 -1.402
54.70000 4.441
54.72000 7.764
54.74000 7.016
54.76000 6.432
54.78000 2.496
54.80000 1.205
54.82000 -1.338
54.84000 -2.863
54.86000 1.337
54.88000 1.457
54.90000 -0.947
54.92000 2.201
54.94000 4.875
54.96000 5.002
54.98000 5.311
55.00000 5.008
55.02000 2.935
55.04000 -2.851
55.06000 -0.201
55.08000 3.722
55.10000 1.042
55.12000 2.416
55.14000 5.525
55.16000 6.099
55.18000 8.417
55.20000 6.229
55.22000 8.912
55.24000 4.441
55.26000 1.892
55.28000 1.328
55.30000 7.810
55.32000 11.734
55.34000 10.817
55.36000 4.921
55.38000 9.364
55.40000 6.848
55.42000 1.915
55.44000 0.999
55.46000 5.895
55.48000 9.965
55.50000 10.092
55.52000 5.687
55.54000 6.536
55.56000 3.216
55.58000 1.892
55.60000 5.542
55.62000 4.798
55.64000 2.400
55.66000 2.651
55.68000 3.744
55.70000 6.034
55.72000 1.690
55.74000 1.629
55.76000 4.344
55.78000 7.376
55.80000 3.707
55.82000 9.939
55.84000 8.837
55.86000 6.495
55.88000 8.300
55.90000 3.098
55.92000 -2.036
55.94000 2.197
55.96000 11.234
55.98000 6.290
56.00000 8.248
56.02000 2.910
56.04000 0.630
56.06000 6.175
56.08000 7.297
56.10000 7.049
56.12000 7.533
56.14000 5.742
56.16000 6.395
56.18000 6.126
56.20000 8.970
56.22000 7.362
56.24000 9.342
56.26000 5.622
56.28000 3.587
56.30000 5.288
56.32000 2.933
56.34000 1.093
56.36000 3.874
56.38000 11.437
56.40000 6.461
56.42000 4.131
56.44000 8.574
56.46000 11.888
56.48000 12.211
56.50000 10.762
56.52000 6.116
56.54000 9.272
56.56000 7.670
56.58000 9.626
56.60000 7.253
56.62000 8.853
56.64000 9.813
56.66000 11.440
56.68000 10.028
56.70000 6.081
56.72000 8.453
56.74000 8.796
56.76000 9.433
56.78000 9.491
56.80000 3.030
56.82000 -2.721
56.84000 6.412
56.86000 16.276
56.88000 11.278
56.90000 14.981
56.92000 13.826
56.94000 11.251
56.96000 4.215
56.98000 2.936
57.00000 7.810
57.02000 8.889
57.04000 12.506
57.06000 10.687
57.08000 4.485
57.10000 5.484
57.12000 3.154
57.14000 6.037
57.16000 6.879
57.18000 0.760
57.20000 4.002
57.22000 8.338
57.24000 8.557
57.26000 5.266
57.28000 4.220
57.30000 5.688
57.32000 7.694
57.34000 6.392
57.36000 6.716
57.38000 9.691
57.40000 6.708
57.42000 7.097
57.44000 12.838
57.46000 5.215
57.48000 5.890
57.50000 8.479
57.52000 7.891
57.54000 9.490
57.56000 8.440
57.58000 7.699
57.60000 6.049
57.62000 2.086
57.64000 4.413
57.66000 6.841
57.68000 8.200
57.70000 10.099
57.72000 11.649
57.74000 7.534
57.76000 7.444
57.78000 9.938
57.80000 8.321
57.82000 7.714
57.84000 5.701
57.86000 3.191
57.88000 4.317
57.90000 8.384
57.92000 9.217
57.94000 7.492
57.96000 10.601
57.98000 5.786
58.00000 5.744
58.02000 7.861
58.04000 9.873
58.06000 3.862
58.08000 6.371
58.10000 1.414
58.12000 4.158
58.14000 3.166
58.16000 7.956
58.18000 6.080
58.20000 2.888
58.22000 2.798
58.24000 4.256
58.26000 5.673
58.28000 4.507
58.30000 2.993
58.32000 1.646
58.34000 -0.163
58.36000 1.051
58.38000 3.539
58.40000 1.238
58.42000 4.487
58.44000 4.250
58.46000 8.711
58.48000 8.918
58.50000 7.417
58.52000 6.137
58.54000 4.818
58.56000 7.571
58.58000 6.474
58.60000 9.291
58.62000 4.712
58.64000 6.879
58.66000 11.098
58.68000 5.112
58.70000 3.162
58.72000 7.536
58.74000 5.845
58.76000 4.861
58.78000 8.268
58.80000 8.863
58.82000 10.983
58.84000 13.684
58.86000 10.691
58.88000 6.446
58.90000 13.040
58.92000 6.616
58.94000 8.050
58.96000 9.433
58.98000 9.633
59.00000 10.796
59.02000 6.494
59.04000 4.743
59.06000 8.098
59.08000 3.650
59.10000 0.852
59.12000 -2.659
59.14000 -0.287
59.16000 4.158
59.18000 6.825
59.20000 6.017
59.22000 6.234
59.24000 5.016
59.26000 2.535
59.28000 5.186
59.30000 5.208
59.32000 6.673
59.34000 4.371
59.36000 6.377
59.38000 8.125
59.40000 10.433
59.42000 7.471
59.44000 5.373
59.46000 3.134
59.48000 2.102
59.50000 1.025
59.52000 6.204
59.54000 7.054
59.56000 9.614
59.58000 6.474
59.60000 7.967
59.62000 9.752
59.64000 5.296
59.66000 5.689
59.68000 -0.131
59.70000 1.653
59.72000 4.289
59.74000 1.740
59.76000 2.809
59.78000 6.566
59.80000 5.251
59.82000 3.299
59.84000 4.413
59.86000 3.593
59.88000 4.729
59.90000 4.006
59.92000 5.893
59.94000 5.786
59.96000 3.924
59.98000 0.956
60.00000 7.921
60.02000 2.258
60.04000 2.925
60.06000 4.913
60.08000 3.320
60.10000 3.459
60.12000 1.543
60.14000 6.087
60.16000 3.671
60.18000 2.052
60.20000 1.949
60.22000 0.645
60.24000 0.654
60.26000 5.957
60.28000 3.333
60.30000 -1.063
60.32000 0.160
60.34000 -1.365
60.36000 -2.707
60.38000 -2.438
60.40000 -1.357
60.42000 1.324
60.44000 2.189
60.46000 2.115
60.48000 0.644
60.50000 3.147
60.52000 1.842
60.54000 2.080
60.56000 -1.302
60.58000 -1.513
60.60000 2.959
60.62000 3.093
60.64000 2.794
60.66000 0.853
60.68000 1.117
60.70000 0.389
60.72000 0.455
60.74000 3.224
60.76000 3.550
60.78000 6.345
60.80000 4.796
60.82000 2.248
60.84000 -0.887
60.86000 0.536
60.88000 5.857
60.90000 7.023
60.92000 10.870
60.94000 7.194
60.96000 2.605
60.98000 1.456
61.00000 2.536
61.02000 2.244
61.04000 0.091
61.06000 0.589
61.08000 2.198
61.10000 0.996
61.12000 -1.164
61.14000 -0.463
61.16000 1.121
61.18000 2.047
61.20000 2.239
61.22000 2.210
61.24000 1.140
61.26000 2.521
61.28000 -2.045
61.30000 -1.005
61.32000 -0.611
61.34000 0.366
61.36000 -2.672
61.38000 -1.285
61.40000 0.182
61.42000 2.079
61.44000 2.023
61.46000 1.608
61.48000 3.472
61.50000 6.661
61.52000 1.288
61.54000 2.240
61.56000 2.282
61.58000 0.191
61.60000 1.488
61.62000 0.087
61.64000 4.114
61.66000 4.045
61.68000 2.510
61.70000 4.836
61.72000 3.889
61.74000 3.753
61.76000 -0.755
61.78000 -1.323
61.80000 3.005
61.82000 5.979
61.84000 1.888
61.86000 0.580
61.88000 1.388
61.90000 5.681
61.92000 3.454
61.94000 0.427
61.96000 -0.866
61.98000 1.207
62.00000 4.344
62.02000 0.147
62.04000 -0.735
62.06000 0.612
62.08000 -0.787
62.10000 3.396
62.12000 4.188
62.14000 5.715
62.16000 1.240
62.18000 3.198
62.20000 6.467
62.22000 6.745
62.24000 2.246
62.26000 -1.843
62.28000 -2.514
62.30000 -2.645
62.32000 -1.085
62.34000 2.149
62.36000 -0.491
62.38000 -0.041
62.40000 1.765
62.42000 1.815
62.44000 3.974
62.46000 3.373
62.48000 0.316
62.50000 -2.046
62.52000 3.112
62.54000 1.700
62.56000 1.888
62.58000 4.855
62.60000 2.811
62.62000 -0.594
62.64000 -2.626
62.66000 2.384
62.68000 3.734
62.70000 2.446
62.72000 0.741
62.74000 3.820
62.76000 6.061
62.78000 3.730
62.80000 2.855
62.82000 4.761
62.84000 5.224
62.86000 0.337
62.88000 3.144
62.90000 4.616
62.92000 3.295
62.94000 1.864
62.96000 5.010
62.98000 5.352
63.00000 1.123
63.02000 3.952
63.04000 4.035
63.06000 4.533
63.08000 2.144
63.10000 0.966
63.12000 6.477
63.14000 4.297
63.16000 4.652
63.18000 3.785
63.20000 5.000
63.22000 1.662
63.24000 2.503
63.26000 6.984
63.28000 4.715
63.30000 6.747
63.32000 3.533
63.34000 0.911
63.36000 1.909
63.38000 3.876
63.40000 4.624
63.42000 3.262
63.44000 1.927
63.46000 4.571
63.48000 4.939
63.50000 2.879
63.52000 3.732
63.54000 4.123
63.56000 0.797
63.58000 1.041
63.60000 3.198
63.62000 0.336
63.64000 -2.626
63.66000 0.142
63.68000 1.655
63.70000 0.206
63.72000 0.848
63.74000 6.867
63.76000 8.854
63.78000 5.618
63.80000 3.804
63.82000 2.661
63.84000 4.513
63.86000 5.821
63.88000 3.095
63.90000 0.820
63.92000 -0.305
63.94000 2.234
63.96000 1.939
63.98000 3.415
64.00000 1.984
64.02000 3.719
64.04000 2.359
64.06000 2.562
64.08000 -2.641
64.10000 -2.316
64.12000 3.267
64.14000 6.279
64.16000 4.518
64.18000 5.317
64.20000 6.013
64.22000 7.233
64.24000 3.894
64.26000 -0.244
64.28000 5.625
64.30000 3.936
64.32000 2.971
64.34000 4.501
64.36000 -1.587
64.38000 -2.340
64.40000 0.745
64.42000 0.788
64.44000 2.507
64.46000 1.279
64.48000 3.649
64.50000 2.984
64.52000 4.637
64.54000 1.354
64.56000 3.689
64.58000 4.401
64.60000 0.684
64.62000 1.205
64.64000 2.732
64.66000 2.492
64.68000 0.118
64.70000 2.615
64.72000 0.774
64.74000 2.475
64.76000 1.467
64.78000 3.591
64.80000 2.089
64.82000 2.210
64.84000 3.351
64.86000 1.370
64.88000 1.371
64.90000 -0.224
64.92000 -2.664
64.94000 1.100
64.96000 5.116
64.98000 2.222
65.00000 -0.002
65.02000 2.548
65.04000 6.335
65.06000 3.759
65.08000 6.688
65.10000 4.942
65.12000 1.758
65.14000 -1.040
65.16000 -2.672
65.18000 1.440
65.20000 0.164
65.22000 3.403
65.24000 4.002
65.26000 3.327
65.28000 3.785
65.30000 -0.964
65.32000 0.187
65.34000 -2.685
65.36000 -1.629
65.38000 0.897
65.40000 0.620
65.42000 3.085
65.44000 6.064
65.46000 3.799
65.48000 -0.176
65.50000 -0.208
65.52000 -0.478
65.54000 -2.126
65.56000 0.261
65.58000 1.819
65.60000 2.399
65.62000 0.466
65.64000 -0.356
65.66000 1.025
65.68000 0.909
65.70000 1.846
65.72000 2.802
65.74000 4.529
65.76000 -1.522
65.78000 -2.709
65.80000 -1.947
65.82000 6.025
65.84000 4.544
65.86000 0.359
65.88000 1.276
65.90000 -0.937
65.92000 -0.351
65.94000 -0.095
65.96000 0.328
65.98000 1.762
66.00000 3.215
66.02000 3.219
66.04000 0.699
66.06000 -0.565
66.08000 -0.854
66.10000 2.612
66.12000 0.005
66.14000 -2.731
66.16000 0.745
66.18000 0.457
66.20000 1.306
66.22000 -2.109
66.24000 -0.585
66.26000 1.781
66.28000 -0.731
66.30000 0.374
66.32000 3.566
66.34000 3.514
66.36000 1.351
66.38000 -2.444
66.40000 1.918
66.42000 4.283
66.44000 2.204
66.46000 3.296
66.48000 0.164
66.50000 4.858
66.52000 7.525
66.54000 7.070
66.56000 1.841
66.58000 -2.758
66.60000 -1.421
66.62000 -1.080
66.64000 0.535
66.66000 0.406
66.68000 0.674
66.70000 4.024
66.72000 4.809
66.74000 3.650
66.76000 -0.226
66.78000 0.819
66.80000 2.301
66.82000 3.775
66.84000 2.390
66.86000 0.752
66.88000 1.782
66.90000 4.610
66.92000 3.495
66.94000 4.204
66.96000 0.915
66.98000 4.369
67.00000 3.839
67.02000 4.193
67.04000 0.409
67.06000 2.677
67.08000 6.451
67.10000 9.623
67.12000 8.723
67.14000 6.434
67.16000 6.002
67.18000 8.693
67.20000 11.664
67.22000 7.786
67.24000 4.114
67.26000 3.240
67.28000 7.248
67.30000 6.182
67.32000 7.276
67.34000 12.930
67.36000 8.868
67.38000 10.037
67.40000 9.649
67.42000 4.053
67.44000 3.079
67.46000 4.506
67.48000 10.486
67.50000 12.435
67.52000 14.501
67.54000 13.376
67.56000 11.546
67.58000 11.654
67.60000 13.838
67.62000 13.217
67.64000 13.425
67.66000 16.131
67.68000 22.782
67.70000 20.923
67.72000 15.043
67.74000 14.020
67.76000 13.534
67.78000 18.661
67.80000 18.259
67.82000 16.424
67.84000 18.895
67.86000 19.152
67.88000 23.881
67.90000 19.258
67.92000 17.278
67.94000 17.016
67.96000 17.235
67.98000 18.742
68.00000 16.974
68.02000 15.900
68.04000 17.851
68.06000 19.786
68.08000 18.367
68.10000 19.670
68.12000 22.108
68.14000 24.720
68.16000 21.433
68.18000 26.038
68.20000 22.550
68.22000 24.335
68.24000 23.976
68.26000 22.860
68.28000 23.010
68.30000 23.604
68.32000 26.450
68.34000 21.922
68.36000 24.825
68.38000 24.705
68.40000 20.057
68.42000 21.235
68.44000 21.344
68.46000 24.166
68.48000 24.226
68.50000 21.030
68.52000 17.103
68.54000 18.924
68.56000 22.423
68.58000 16.309
68.60000 17.208
68.62000 20.715
68.64000 18.140
68.66000 22.498
68.68000 21.444
68.70000 18.392
68.72000 15.291
68.74000 15.147
68.76000 14.306
68.78000 14.131
68.80000 14.144
68.82000 16.894
68.84000 19.133
68.86000 20.028
68.88000 17.575
68.90000 20.214
68.92000 13.984
68.94000 9.115
68.96000 11.416
68.98000 14.070
69.00000 14.208
69.02000 12.364
69.04000 13.814
69.06000 14.549
69.08000 14.485
69.10000 12.111
69.12000 9.314
69.14000 7.636
69.16000 9.589
69.18000 7.693
69.20000 6.097
69.22000 6.784
69.24000 10.309
69.26000 7.287
69.28000 8.192
69.30000 11.591
69.32000 7.134
69.34000 4.770
69.36000 9.519
69.38000 5.970
69.40000 3.826
69.42000 0.662
69.44000 0.803
69.46000 5.617
69.48000 8.524
69.50000 10.736
69.52000 4.641
69.54000 1.609
69.56000 2.470
69.58000 3.946
69.60000 3.574
69.62000 3.254
69.64000 4.597
69.66000 2.092
69.68000 4.635
69.70000 4.668
69.72000 7.323
69.74000 3.978
69.76000 1.454
69.78000 1.673
69.80000 1.482
69.82000 3.227
69.84000 5.410
69.86000 7.764
69.88000 7.413
69.90000 4.861
69.92000 2.589
69.94000 2.201
69.96000 1.368
69.98000 -2.641
70.00000 -0.044
70.02000 1.636
70.04000 -0.063
70.06000 4.278
70.08000 4.113
70.10000 4.345
70.12000 2.673
70.14000 3.241
70.16000 1.496
70.18000 0.253
70.20000 3.486
70.22000 -0.289
70.24000 -1.519
70.26000 -0.319
70.28000 1.156
70.30000 2.955
70.32000 -0.709
70.34000 -0.195
70.36000 -1.640
70.38000 -0.921
70.40000 3.613
70.42000 0.024
70.44000 -0.213
70.46000 2.024
70.48000 3.293
70.50000 4.700
70.52000 -1.370
70.54000 3.435
70.56000 3.255
70.58000 3.332
70.60000 -1.397
70.62000 -2.559
70.64000 1.159
70.66000 3.904
70.68000 4.745
70.70000 2.828
70.72000 2.888
70.74000 0.923
70.76000 1.502
70.78000 2.701
70.80000 4.345
70.82000 6.796
70.84000 5.913
70.86000 6.556
70.88000 7.972
70.90000 1.665
70.92000 -1.706
70.94000 -0.687
70.96000 0.766
70.98000 3.474
71.00000 5.752
71.02000 5.614
71.04000 2.021
71.06000 1.352
71.08000 1.427
71.10000 2.807
71.12000 5.861
71.14000 2.858
71.16000 -1.010
71.18000 -2.194
71.20000 -0.879
71.22000 -0.015
71.24000 5.151
71.26000 -0.194
71.28000 -2.336
71.30000 -1.024
71.32000 0.102
71.34000 5.416
71.36000 1.711
71.38000 4.376
71.40000 6.419
71.42000 5.156
71.44000 1.262
71.46000 -2.546
71.48000 -1.013
71.50000 5.032
71.52000 5.874
71.54000 3.626
71.56000 4.550
71.58000 3.996
71.60000 3.932
71.62000 0.581
71.64000 3.041
71.66000 1.930
71.68000 4.983
71.70000 2.615
71.72000 -0.540
71.74000 0.519
71.76000 -0.133
71.78000 0.306
71.80000 0.827
71.82000 -0.633
71.84000 -1.330
71.86000 0.463
71.88000 0.672
71.90000 -1.827
71.92000 -1.120
71.94000 0.385
71.96000 0.045
71.98000 -0.985
72.00000 0.012
72.02000 1.047
72.04000 0.873
72.06000 -1.031
72.08000 0.090
72.10000 3.301
72.12000 4.588
72.14000 1.831
72.16000 -0.972
72.18000 -1.318
72.20000 -0.545
72.22000 0.107
72.24000 -0.756
72.26000 -0.713
72.28000 5.517
72.30000 7.731
72.32000 4.541
72.34000 1.429
72.36000 0.289
72.38000 0.722
72.40000 1.828
72.42000 -2.488
72.44000 -1.853
72.46000 3.996
72.48000 4.858
72.50000 0.679
72.52000 -0.439
72.54000 -0.425
72.56000 2.011
72.58000 2.363
72.60000 -1.920
72.62000 -2.485
72.64000 4.535
72.66000 5.666
72.68000 3.801
72.70000 2.273
72.72000 1.461
72.74000 2.613
72.76000 0.377
72.78000 1.879
72.80000 1.439
72.82000 -0.877
72.84000 0.558
72.86000 -2.481
72.88000 -0.468
72.90000 -2.102
72.92000 1.892
72.94000 6.380
72.96000 -1.425
72.98000 -2.383
73.00000 0.916
73.02000 0.874
73.04000 2.954
73.06000 1.012
73.08000 1.736
73.10000 0.508
73.12000 -0.877
73.14000 1.497
73.16000 2.475
73.18000 0.290
73.20000 -1.585
73.22000 -1.392
73.24000 -2.469
73.26000 -0.625
73.28000 0.882
73.30000 3.338
73.32000 -0.070
73.34000 -1.557
73.36000 0.781
73.38000 5.100
73.40000 7.328
73.42000 5.645
73.44000 2.838
73.46000 -1.075
73.48000 4.600
73.50000 1.811
73.52000 0.406
73.54000 0.731
73.56000 3.551
73.58000 1.012
73.60000 -0.049
73.62000 0.073
73.64000 0.167
73.66000 -1.241
73.68000 4.585
73.70000 4.628
73.72000 -2.226
73.74000 -1.111
73.76000 1.266
73.78000 3.645
73.80000 5.481
73.82000 2.948
73.84000 1.693
73.86000 -1.004
73.88000 -1.603
73.90000 -1.187
73.92000 -2.030
73.94000 2.046
73.96000 4.187
73.98000 2.451
74.00000 1.580
74.02000 -2.470
74.04000 3.432
74.06000 2.740
74.08000 -0.048
74.10000 1.310
74.12000 -1.882
74.14000 -1.990
74.16000 1.520
74.18000 -0.312
74.20000 0.608
74.22000 1.369
74.24000 1.644
74.26000 1.556
74.28000 4.179
74.30000 0.678
74.32000 -1.141
74.34000 -2.469
74.36000 -1.735
74.38000 -1.541
74.40000 -1.798
74.42000 -0.424
74.44000 -2.119
74.46000 2.681
74.48000 3.138
74.50000 2.726
74.52000 0.288
74.54000 -0.055
74.56000 2.787
74.58000 3.348
74.60000 -2.097
74.62000 1.114
74.64000 -2.133
74.66000 2.524
74.68000 3.332
74.70000 0.078
74.72000 1.276
74.74000 3.170
74.76000 7.659
74.78000 3.145
74.80000 -1.105
74.82000 1.207
74.84000 5.046
74.86000 7.968
74.88000 2.890
74.90000 1.267
74.92000 -1.584
74.94000 -2.465
74.96000 -1.024
74.98000 3.892
75.00000 4.063
75.02000 1.147
75.04000 -0.035
75.06000 -0.400
75.08000 3.235
75.10000 0.282
75.12000 2.248
75.14000 4.913
75.16000 5.117
75.18000 3.715
75.20000 0.707
75.22000 3.445
75.24000 -0.073
75.26000 -0.655
75.28000 0.495
75.30000 4.522
75.32000 7.771
75.34000 6.767
75.36000 3.731
75.38000 5.673
75.40000 9.120
75.42000 6.507
75.44000 0.715
75.46000 -1.504
75.48000 1.838
75.50000 2.889
75.52000 2.333
75.54000 1.820
75.56000 5.473
75.58000 3.216
75.60000 4.308
75.62000 4.806
75.64000 0.620
75.66000 1.064
75.68000 6.665
75.70000 6.702
75.72000 3.291
75.74000 8.437
75.76000 6.976
75.78000 11.065
75.80000 10.533
75.82000 5.153
75.84000 4.500
75.86000 4.381
75.88000 8.422
75.90000 12.512
75.92000 8.486
75.94000 7.648
75.96000 2.848
75.98000 1.422
76.00000 4.549
76.02000 3.515
76.04000 3.545
76.06000 6.425
76.08000 6.714
76.10000 6.083
76.12000 4.038
76.14000 -2.393
76.16000 3.238
76.18000 10.084
76.20000 9.756
76.22000 5.837
76.24000 7.119
76.26000 5.497
76.28000 4.790
76.30000 5.572
76.32000 2.677
76.34000 8.766
76.36000 11.411
76.38000 6.928
76.40000 7.222
76.42000 8.056
76.44000 5.856
76.46000 4.777
76.48000 8.465
76.50000 9.502
76.52000 5.184
76.54000 4.849
76.56000 9.547
76.58000 10.604
76.60000 5.429
76.62000 5.532
76.64000 10.135
76.66000 12.772
76.68000 10.696
76.70000 6.105
76.72000 4.944
76.74000 3.875
76.76000 3.963
76.78000 7.654
76.80000 3.339
76.82000 -2.441
76.84000 -1.486
76.86000 0.892
76.88000 -1.710
76.90000 1.505
76.92000 4.057
76.94000 3.361
76.96000 2.322
76.98000 2.263
77.00000 0.588
77.02000 3.543
77.04000 0.627
77.06000 1.405
77.08000 1.540
77.10000 4.507
77.12000 6.416
77.14000 9.294
77.16000 11.204
77.18000 10.109
77.20000 6.496
77.22000 6.282
77.24000 3.255
77.26000 5.633
77.28000 5.076
77.30000 3.452
77.32000 4.509
77.34000 0.807
77.36000 1.074
77.38000 2.557
77.40000 4.698
77.42000 9.263
77.44000 5.645
77.46000 2.508
77.48000 9.089
77.50000 7.960
77.52000 0.807
77.54000 2.616
77.56000 4.381
77.58000 4.342
77.60000 5.116
77.62000 4.357
77.64000 0.379
77.66000 4.933
77.68000 9.132
77.70000 6.418
77.72000 4.554
77.74000 0.712
77.76000 -0.513
77.78000 -0.876
77.80000 3.813
77.82000 2.786
77.84000 6.827
77.86000 8.255
77.88000 4.709
77.90000 1.874
77.92000 1.990
77.94000 2.559
77.96000 5.647
77.98000 7.493
78.00000 8.049
78.02000 10.088
78.04000 5.187
78.06000 2.550
78.08000 -2.487
78.10000 1.648
78.12000 7.835
78.14000 8.371
78.16000 7.791
78.18000 4.251
78.20000 3.506
78.22000 3.280
78.24000 5.171
78.26000 3.863
78.28000 6.656
78.30000 5.065
78.32000 1.932
78.34000 2.448
78.36000 0.113
78.38000 2.712
78.40000 3.952
78.42000 5.654
78.44000 5.922
78.46000 9.580
78.48000 5.815
78.50000 2.849
78.52000 5.232
78.54000 4.024
78.56000 1.541
78.58000 10.751
78.60000 11.651
78.62000 5.875
78.64000 2.126
78.66000 2.207
78.68000 3.438
78.70000 6.471
78.72000 3.390
78.74000 2.978
78.76000 1.126
78.78000 0.218
78.80000 3.163
78.82000 5.833
78.84000 5.472
78.86000 3.418
78.88000 2.626
78.90000 2.835
78.92000 5.025
78.94000 2.972
78.96000 3.800
78.98000 3.814
79.00000 -0.871
79.02000 -0.128
79.04000 -2.545
79.06000 2.420
79.08000 4.098
79.10000 2.452
79.12000 0.230
79.14000 3.005
79.16000 -1.547
79.18000 1.513
79.20000 6.136
79.22000 8.445
79.24000 6.275
79.26000 2.893
79.28000 3.225
79.30000 5.427
79.32000 -1.380
79.34000 -2.314
79.36000 2.440
79.38000 7.877
79.40000 8.879
79.42000 2.262
79.44000 5.146
79.46000 3.839
79.48000 3.503
79.50000 6.674
79.52000 9.129
79.54000 -2.564
79.56000 -0.892
79.58000 -0.271
79.60000 4.431
79.62000 4.957
79.64000 10.255
79.66000 9.668
79.68000 8.459
79.70000 4.572
79.72000 -1.839
79.74000 2.453
79.76000 3.349
79.78000 4.474
79.80000 3.647
79.82000 1.653
79.84000 2.126
79.86000 -1.982
79.88000 -1.851
79.90000 3.862
79.92000 2.954
79.94000 2.176
79.96000 4.350
79.98000 5.529
80.00000 6.436
80.02000 3.762
80.04000 6.391
80.06000 0.890
80.08000 1.041
80.10000 6.744
80.12000 3.691
80.14000 -2.583
80.16000 3.206
80.18000 -0.692
80.20000 0.704
80.22000 5.240
80.24000 9.455
80.26000 8.721
80.28000 4.778
80.30000 2.030
80.32000 7.123
80.34000 2.208
80.36000 5.310
80.38000 5.677
80.40000 8.911
80.42000 0.616
80.44000 1.552
80.46000 3.093
80.48000 4.012
80.50000 6.385
80.52000 6.986
80.54000 10.060
80.56000 8.354
80.58000 8.942
80.60000 9.713
80.62000 8.849
80.64000 6.461
80.66000 7.143
80.68000 8.134
80.70000 7.727
80.72000 10.159
80.74000 7.376
80.76000 0.765
80.78000 -0.622
80.80000 7.674
80.82000 6.854
80.84000 8.452
80.86000 5.169
80.88000 1.577
80.90000 3.676
80.92000 2.552
80.94000 2.985
80.96000 6.432
80.98000 5.513
81.00000 3.667
81.02000 9.111
81.04000 9.194
81.06000 10.177
81.08000 6.874
81.10000 5.578
81.12000 10.700
81.14000 12.494
81.16000 9.076
81.18000 8.811
81.20000 10.495
81.22000 9.719
81.24000 8.409
81.26000 10.668
81.28000 8.194
81.30000 10.211
81.32000 10.733
81.34000 12.385
81.36000 11.456
81.38000 5.989
81.40000 6.408
81.42000 10.735
81.44000 11.243
81.46000 11.244
81.48000 14.726
81.50000 14.303
81.52000 15.539
81.54000 16.119
81.56000 14.229
81.58000 15.040
81.60000 11.201
81.62000 8.938
81.64000 13.854
81.66000 21.001
81.68000 18.482
81.70000 14.373
81.72000 17.004
81.74000 17.548
81.76000 13.267
81.78000 16.135
81.80000 17.928
81.82000 14.925
81.84000 14.965
81.86000 11.778
81.88000 15.409
81.90000 19.200
81.92000 19.180
81.94000 18.195
81.96000 20.284
81.98000 22.431
82.00000 21.529
82.02000 18.392
82.04000 16.908
82.06000 15.880
82.08000 19.796
82.10000 26.172
82.12000 31.506
82.14000 26.477
82.16000 20.536
82.18000 16.254
82.20000 19.988
82.22000 19.396
82.24000 22.333
82.26000 24.498
82.28000 22.733
82.30000 22.015
82.32000 26.104
82.34000 27.914
82.36000 24.462
82.38000 23.936
82.40000 22.991
82.42000 18.957
82.44000 20.462
82.46000 27.626
82.48000 31.201
82.50000 26.194
82.52000 23.427
82.54000 24.270
82.56000 25.673
82.58000 23.738
82.60000 20.815
82.62000 26.461
82.64000 19.122
82.66000 11.995
82.68000 16.887
82.70000 20.130
82.72000 23.650
82.74000 25.474
82.76000 23.639
82.78000 22.410
82.80000 23.905
82.82000 21.129
82.84000 20.024
82.86000 16.505
82.88000 18.901
82.90000 16.195
82.92000 16.741
82.94000 22.939
82.96000 26.913
82.98000 18.773
83.00000 20.159
83.02000 18.194
83.04000 19.529
83.06000 16.059
83.08000 20.429
83.10000 15.688
83.12000 13.875
83.14000 11.890
83.16000 14.964
83.18000 13.242
83.20000 16.546
83.22000 17.349
83.24000 15.125
83.26000 15.043
83.28000 16.735
83.30000 16.702
83.32000 16.317
83.34000 12.839
83.36000 16.915
83.38000 18.328
83.40000 12.322
83.42000 10.750
83.44000 13.160
83.46000 14.066
83.48000 13.531
83.50000 14.755
83.52000 12.629
83.54000 11.324
83.56000 7.396
83.58000 8.455
83.60000 7.506
83.62000 14.793
83.64000 7.270
83.66000 10.750
83.68000 14.439
83.70000 9.900
83.72000 10.936
83.74000 13.941
83.76000 7.050
83.78000 2.017
83.80000 4.198
83.82000 4.728
83.84000 6.062
83.86000 4.072
83.88000 5.558
83.90000 7.186
83.92000 4.019
83.94000 4.066
83.96000 3.029
83.98000 4.232
84.00000 8.887
84.02000 11.796
84.04000 7.197
84.06000 0.995
84.08000 1.528
84.10000 0.105
84.12000 2.482
84.14000 4.803
84.16000 8.133
84.18000 7.382
84.20000 5.048
84.22000 3.741
84.24000 6.209
84.26000 -2.441
84.28000 1.692
84.30000 1.779
84.32000 2.096
84.34000 6.128
84.36000 0.689
84.38000 -2.606
84.40000 1.181
84.42000 5.472
84.44000 5.235
84.46000 4.792
84.48000 7.249
84.50000 4.343
84.52000 3.227
84.54000 1.462
84.56000 4.245
84.58000 0.394
84.60000 1.037
84.62000 3.972
84.64000 0.995
84.66000 -1.558
84.68000 3.959
84.70000 2.357
84.72000 1.492
84.74000 0.314
84.76000 0.317
84.78000 -2.589
84.80000 2.125
84.82000 4.601
84.84000 2.895
84.86000 2.412
84.88000 1.646
84.90000 1.641
84.92000 3.107
84.94000 3.310
84.96000 2.387
84.98000 4.152
85.00000 5.742
85.02000 -0.280
85.04000 -1.228
85.06000 -0.193
85.08000 0.920
85.10000 2.478
85.12000 -2.411
85.14000 1.977
85.16000 4.642
85.18000 -1.731
85.20000 0.783
85.22000 1.721
85.24000 3.492
85.26000 8.426
85.28000 5.456
85.30000 7.330
85.32000 5.071
85.34000 0.140
85.36000 -2.555
85.38000 1.052
85.40000 2.731
85.42000 1.504
85.44000 4.275
85.46000 4.855
85.48000 5.780
85.50000 6.313
85.52000 3.637
85.54000 4.056
85.56000 2.997
85.58000 5.436
85.60000 7.367
85.62000 9.434
85.64000 8.351
85.66000 4.473
85.68000 4.706
85.70000 8.412
85.72000 9.639
85.74000 7.487
85.76000 1.684
85.78000 6.492
85.80000 9.453
85.82000 7.014
85.84000 3.637
85.86000 5.978
85.88000 10.086
85.90000 9.223
85.92000 9.361
85.94000 13.315
85.96000 13.704
85.98000 17.671
86.00000 15.525
86.02000 17.315
86.04000 10.777
86.06000 8.742
86.08000 8.317
86.10000 8.770
86.12000 7.625
86.14000 10.262
86.16000 13.980
86.18000 16.503
86.20000 18.561
86.22000 19.198
86.24000 15.071
86.26000 13.971
86.28000 12.656
86.30000 9.330
86.32000 11.499
86.34000 13.596
86.36000 11.827
86.38000 11.323
86.40000 18.360
86.42000 25.262
86.44000 24.283
86.46000 23.324
86.48000 23.658
86.50000 20.923
86.52000 21.293
86.54000 27.724
86.56000 24.232
86.58000 22.386
86.60000 23.179
86.62000 26.856
86.64000 25.900
86.66000 25.283
86.68000 27.051
86.70000 24.816
86.72000 22.591
86.74000 22.090
86.76000 16.126
86.78000 20.755
86.80000 24.047
86.82000 22.976
86.84000 25.012
86.86000 28.196
86.88000 30.898
86.90000 24.328
86.92000 24.917
86.94000 27.295
86.96000 25.822
86.98000 26.797
87.00000 27.865
87.02000 34.341
87.04000 24.861
87.06000 26.059
87.08000 27.530
87.10000 28.975
87.12000 24.691
87.14000 23.229
87.16000 21.531
87.18000 20.095
87.20000 29.122
87.22000 27.498
87.24000 23.554
87.26000 23.400
87.28000 24.819
87.30000 26.554
87.32000 24.834
87.34000 22.093
87.36000 24.853
87.38000 20.959
87.40000 19.416
87.42000 17.783
87.44000 20.038
87.46000 17.399
87.48000 17.181
87.50000 22.100
87.52000 18.961
87.54000 18.636
87.56000 16.056
87.58000 16.955
87.60000 11.948
87.62000 11.494
87.64000 10.999
87.66000 11.302
87.68000 11.372
87.70000 15.089
87.72000 15.655
87.74000 12.579
87.76000 12.735
87.78000 11.104
87.80000 14.124
87.82000 13.684
87.84000 10.840
87.86000 13.084
87.88000 12.011
87.90000 8.667
87.92000 10.008
87.94000 7.278
87.96000 5.698
87.98000 7.231
88.00000 11.456
88.02000 13.789
88.04000 11.930
88.06000 6.646
88.08000 4.832
88.10000 5.001
88.12000 2.172
88.14000 8.942
88.16000 6.122
88.18000 6.225
88.20000 5.827
88.22000 4.701
88.24000 7.386
88.26000 9.510
88.28000 5.661
88.30000 3.748
88.32000 5.022
88.34000 2.745
88.36000 4.718
88.38000 4.278
88.40000 -0.114
88.42000 -2.443
88.44000 -0.616
88.46000 1.696
88.48000 6.449
88.50000 5.244
88.52000 3.824
88.54000 4.572
88.56000 0.847
88.58000 1.970
88.60000 -0.090
88.62000 1.529
88.64000 -0.140
88.66000 2.574
88.68000 1.792
88.70000 2.019
88.72000 -1.768
88.74000 -2.414
88.76000 2.240
88.78000 3.747
88.80000 1.392
88.82000 -1.343
88.84000 4.224
88.86000 3.587
88.88000 4.084
88.90000 1.239
88.92000 2.064
88.94000 5.285
88.96000 6.263
88.98000 4.482
89.00000 4.890
89.02000 2.239
89.04000 1.932
89.06000 0.360
89.08000 2.210
89.10000 4.095
89.12000 1.221
89.14000 3.309
89.16000 4.025
89.18000 0.914
89.20000 2.208
89.22000 2.292
89.24000 1.152
89.26000 4.214
89.28000 7.293
89.30000 3.712
89.32000 0.414
89.34000 -1.949
89.36000 -2.347
89.38000 1.310
89.40000 1.865
89.42000 1.945
89.44000 2.553
89.46000 2.071
89.48000 2.838
89.50000 3.902
89.52000 0.897
89.54000 -0.591
89.56000 -0.035
89.58000 0.153
89.60000 3.879
89.62000 -0.283
89.64000 -2.316
89.66000 1.647
89.68000 3.529
89.70000 6.428
89.72000 6.296
89.74000 2.426
89.76000 3.657
89.78000 2.131
89.80000 -0.408
89.82000 4.113
89.84000 -0.071
89.86000 1.598
89.88000 3.285
89.90000 5.390
89.92000 4.644
89.94000 0.731
89.96000 0.864
89.98000 2.448
90.00000 5.148
90.02000 6.562
90.04000 3.656
90.06000 1.455
90.08000 1.517
90.10000 2.487
90.12000 0.996
90.14000 6.281
90.16000 2.230
90.18000 4.449
90.20000 5.230
90.22000 5.680
90.24000 7.835
90.26000 5.906
90.28000 5.971
90.30000 6.783
90.32000 8.466
90.34000 5.734
90.36000 7.203
90.38000 7.042
90.40000 3.224
90.42000 7.843
90.44000 11.775
90.46000 9.111
90.48000 6.767
90.50000 7.476
90.52000 7.271
90.54000 4.562
90.56000 5.013
90.58000 6.144
90.60000 8.001
90.62000 5.722
90.64000 9.592
90.66000 6.744
90.68000 4.576
90.70000 2.845
90.72000 0.735
90.74000 4.279
90.76000 10.528
90.78000 6.188
90.80000 3.843
90.82000 4.951
90.84000 7.069
90.86000 5.987
90.88000 7.865
90.90000 5.603
90.92000 1.961
90.94000 4.867
90.96000 3.484
90.98000 3.907
91.00000 1.895
91.02000 1.852
91.04000 4.409
91.06000 5.971
91.08000 6.874
91.10000 5.044
91.12000 2.212
91.14000 -1.210
91.16000 -2.234
91.18000 3.376
91.20000 4.914
91.22000 8.243
91.24000 8.578
91.26000 8.114
91.28000 7.403
91.30000 7.598
91.32000 8.342
91.34000 10.794
91.36000 3.568
91.38000 9.250
91.40000 5.342
91.42000 4.793
91.44000 8.215
91.46000 3.258
91.48000 5.626
91.50000 7.783
91.52000 10.151
91.54000 8.076
91.56000 13.712
91.58000 10.355
91.60000 6.459
91.62000 7.061
91.64000 6.368
91.66000 2.540
91.68000 3.100
91.70000 2.245
91.72000 7.081
91.74000 6.605
91.76000 4.790
91.78000 -2.231
91.80000 2.665
91.82000 5.793
91.84000 4.607
91.86000 7.681
91.88000 7.939
91.90000 6.972
91.92000 1.729
91.94000 4.525
91.96000 6.222
91.98000 10.578
92.00000 11.320
92.02000 8.704
92.04000 3.118
92.06000 4.943
92.08000 4.937
92.10000 7.000
92.12000 5.432
92.14000 10.210
92.16000 9.973
92.18000 13.737
92.20000 8.796
92.22000 7.126
92.24000 3.651
92.26000 5.399
92.28000 6.372
92.30000 6.125
92.32000 7.707
92.34000 3.425
92.36000 3.012
92.38000 5.258
92.40000 6.363
92.42000 7.502
92.44000 4.877
92.46000 3.417
92.48000 11.899
92.50000 11.870
92.52000 10.604
92.54000 10.792
92.56000 8.002
92.58000 11.328
92.60000 5.230
92.62000 -0.310
92.64000 -1.794
92.66000 -0.001
92.68000 6.711
92.70000 4.783
92.72000 3.010
92.74000 3.360
92.76000 6.607
92.78000 8.379
92.80000 10.426
92.82000 3.206
92.84000 2.162
92.86000 8.728
92.88000 11.568
92.90000 8.615
92.92000 5.415
92.94000 2.705
92.96000 3.402
92.98000 5.804
93.00000 7.629
93.02000 7.897
93.04000 2.739
93.06000 4.006
93.08000 0.796
93.10000 3.371
93.12000 9.667
93.14000 5.462
93.16000 2.534
93.18000 0.026
93.20000 -2.290
93.22000 -1.101
93.24000 4.486
93.26000 8.861
93.28000 8.628
93.30000 0.432
93.32000 0.388
93.34000 4.493
93.36000 8.300
93.38000 7.715
93.40000 5.186
93.42000 6.063
93.44000 6.075
93.46000 4.554
93.48000 1.264
93.50000 4.930
93.52000 4.623
93.54000 5.450
93.56000 4.691
93.58000 5.613
93.60000 2.812
93.62000 -2.087
93.64000 1.484
93.66000 4.467
93.68000 1.087
93.70000 3.355
93.72000 6.255
93.74000 1.330
93.76000 -1.676
93.78000 3.350
93.80000 9.786
93.82000 5.214
93.84000 4.337
93.86000 1.210
93.88000 0.013
93.90000 6.402
93.92000 6.543
93.94000 0.299
93.96000 1.186
93.98000 4.467
94.00000 4.544
94.02000 3.710
94.04000 5.428
94.06000 6.020
94.08000 2.781
94.10000 2.214
94.12000 6.066
94.14000 7.720
94.16000 3.763
94.18000 2.461
94.20000 -1.086
94.22000 2.682
94.24000 1.782
94.26000 0.570
94.28000 -2.353
94.30000 0.877
94.32000 3.442
94.34000 0.320
94.36000 4.385
94.38000 11.219
94.40000 5.622
94.42000 9.082
94.44000 12.762
94.46000 6.751
94.48000 8.800
94.50000 8.501
94.52000 6.238
94.54000 -0.615
94.56000 1.959
94.58000 4.762
94.60000 6.047
94.62000 3.590
94.64000 3.124
94.66000 4.123
94.68000 1.061
94.70000 8.033
94.72000 4.897
94.74000 -1.524
94.76000 2.720
94.78000 5.249
94.80000 5.374
94.82000 10.570
94.84000 8.082
94.86000 5.964
94.88000 4.360
94.90000 2.588
94.92000 -0.047
94.94000 3.121
94.96000 2.971
94.98000 3.847
95.00000 6.504
95.02000 6.146
95.04000 7.509
95.06000 8.339
95.08000 4.876
95.10000 4.031
95.12000 1.373
95.14000 1.649
95.16000 1.828
95.18000 0.630
95.20000 3.163
95.22000 4.117
95.24000 6.146
95.26000 -0.648
95.28000 -2.336
95.30000 2.260
95.32000 6.432
95.34000 6.749
95.36000 8.021
95.38000 8.569
95.40000 3.456
95.42000 0.606
95.44000 5.290
95.46000 2.907
95.48000 -1.762
95.50000 0.976
95.52000 1.724
95.54000 4.063
95.56000 6.088
95.58000 8.600
95.60000 1.662
95.62000 0.914
95.64000 4.159
95.66000 7.348
95.68000 6.156
95.70000 5.318
95.72000 2.632
95.74000 2.835
95.76000 3.079
95.78000 0.867
95.80000 6.630
95.82000 5.634
95.84000 9.994
95.86000 5.498
95.88000 1.917
95.90000 1.358
95.92000 -2.050
95.94000 0.889
95.96000 0.924
95.98000 5.369
96.00000 -1.068
96.02000 5.415
96.04000 5.596
96.06000 4.263
96.08000 5.819
96.10000 4.047
96.12000 -0.475
96.14000 -0.143
96.16000 2.930
96.18000 4.571
96.20000 6.596
96.22000 3.577
96.24000 2.942
96.26000 0.039
96.28000 3.092
96.30000 8.179
96.32000 3.100
96.34000 5.109
96.36000 9.196
96.38000 14.037
96.40000 11.364
96.42000 5.427
96.44000 7.661
96.46000 9.962
96.48000 11.202
96.50000 10.853
96.52000 6.144
96.54000 3.158
96.56000 2.071
96.58000 6.015
96.60000 7.679
96.62000 11.867
96.64000 4.945
96.66000 4.443
96.68000 5.790
96.70000 3.935
96.72000 6.258
96.74000 7.093
96.76000 7.443
96.78000 2.574
96.80000 3.201
96.82000 1.738
96.84000 7.390
96.86000 5.200
96.88000 2.498
96.90000 3.783
96.92000 8.511
96.94000 6.553
96.96000 6.658
96.98000 8.371
97.00000 6.043
97.02000 3.634
97.04000 6.423
97.06000 3.310
97.08000 0.234
97.10000 -1.505
97.12000 -1.915
97.14000 0.329
97.16000 2.727
97.18000 6.017
97.20000 13.274
97.22000 8.584
97.24000 3.834
97.26000 1.437
97.28000 4.278
97.30000 8.312
97.32000 6.088
97.34000 1.767
97.36000 8.076
97.38000 8.674
97.40000 6.409
97.42000 -0.867
97.44000 -2.186
97.46000 1.535
97.48000 -1.418
97.50000 2.082
97.52000 10.322
97.54000 16.992
97.56000 7.766
97.58000 0.370
97.60000 -1.665
97.62000 4.132
97.64000 -2.302
97.66000 0.081
97.68000 7.746
97.70000 5.122
97.72000 -0.182
97.74000 0.174
97.76000 1.505
97.78000 1.787
97.80000 3.197
97.82000 1.570
97.84000 2.867
97.86000 6.216
97.88000 3.986
97.90000 -0.430
97.92000 -1.467
97.94000 -1.830
97.96000 6.462
97.98000 8.522
98.00000 13.311
98.02000 11.491
98.04000 11.351
98.06000 0.185
98.08000 7.934
98.10000 3.325
98.12000 3.815
98.14000 3.129
98.16000 4.754
98.18000 12.179
98.20000 2.500
98.22000 10.749
98.24000 5.872
98.26000 8.328
98.28000 9.056
98.30000 5.922
98.32000 1.874
98.34000 5.690
98.36000 5.113
98.38000 6.418
98.40000 -1.774
98.42000 2.457
98.44000 -0.090
98.46000 5.318
98.48000 7.145
98.50000 15.424
98.52000 10.308
98.54000 7.362
98.56000 6.014
98.58000 10.400
98.60000 6.200
98.62000 12.420
98.64000 18.302
98.66000 4.220
98.68000 1.858
98.70000 -0.566
98.72000 -0.578
98.74000 -2.243
98.76000 9.291
98.78000 17.702
98.80000 12.416
98.82000 3.442
98.84000 3.822
98.86000 5.361
98.88000 6.052
98.90000 -0.558
98.92000 6.424
98.94000 1.250
98.96000 8.268
98.98000 8.185
99.00000 16.039
99.02000 17.505
99.04000 11.340
99.06000 3.368
99.08000 9.095
99.10000 14.691
99.12000 6.213
99.14000 8.785
99.16000 9.284
99.18000 6.766
99.20000 6.545
99.22000 7.088
99.24000 0.929
99.26000 3.720
99.28000 5.123
99.30000 7.783
99.32000 12.530
99.34000 15.035
99.36000 2.518
99.38000 13.475
99.40000 6.775
99.42000 5.450
99.44000 0.446
99.46000 11.040
99.48000 7.470
99.50000 7.111
99.52000 10.547
99.54000 4.229
99.56000 6.883
99.58000 9.318
99.60000 7.970
99.62000 -1.207
99.64000 6.048
99.66000 8.726
99.68000 5.823
99.70000 5.844
99.72000 9.278
99.74000 11.513
99.76000 4.589
99.78000 3.180
99.80000 20.739
99.82000 16.251
99.84000 4.768
99.86000 12.663
99.88000 18.579
99.90000 9.613
99.92000 4.755
99.94000 -2.986
99.96000 -2.420
99.98000 0.000
