'Id: "0011387" Comment: "Integrate frame 0011387_Au-Ir-Rh_Rh-rich_XRD-Mapping-028-0000.gfrmwith cursor Wedge Cursor #5" Operator: "B?rgel" Anode: "Cu" Wavelength: "1.5406" Scantype: "2Theta (TwoTheta)" TimePerStep: "1" X: "-13.5" Y: "-31.5" Z: "5.95" 
10.00000 0.000
10.02000 -4.533
10.04000 6.734
10.06000 7.023
10.08000 13.922
10.10000 10.604
10.12000 9.785
10.14000 15.925
10.16000 6.177
10.18000 -4.531
10.20000 -0.562
10.22000 6.318
10.24000 4.778
10.26000 7.369
10.28000 11.507
10.30000 4.152
10.32000 11.653
10.34000 10.065
10.36000 23.902
10.38000 26.802
10.40000 14.729
10.42000 5.256
10.44000 11.372
10.46000 18.402
10.48000 15.312
10.50000 6.288
10.52000 5.134
10.54000 10.371
10.56000 16.366
10.58000 16.784
10.60000 19.264
10.62000 10.224
10.64000 13.067
10.66000 10.489
10.68000 3.224
10.70000 4.987
10.72000 9.993
10.74000 4.205
10.76000 10.771
10.78000 24.126
10.80000 22.228
10.82000 7.353
10.84000 7.860
10.86000 12.798
10.88000 3.441
10.90000 14.513
10.92000 24.667
10.94000 7.525
10.96000 1.858
10.98000 22.306
11.00000 28.702
11.02000 8.591
11.04000 9.754
11.06000 16.394
11.08000 10.372
11.10000 4.631
11.12000 8.213
11.14000 9.466
11.16000 17.345
11.18000 24.250
11.20000 25.061
11.22000 14.349
11.24000 10.672
11.26000 1.139
11.28000 -0.707
11.30000 -0.561
11.32000 3.752
11.34000 -0.728
11.36000 1.445
11.38000 23.762
11.40000 27.846
11.42000 21.371
11.44000 16.307
11.46000 3.924
11.48000 -2.824
11.50000 -1.362
11.52000 0.830
11.54000 16.384
11.56000 35.217
11.58000 24.586
11.60000 21.342
11.62000 19.273
11.64000 9.725
11.66000 6.914
11.68000 15.400
11.70000 10.267
11.72000 4.063
11.74000 11.603
11.76000 22.962
11.78000 9.807
11.80000 12.649
11.82000 11.919
11.84000 13.586
11.86000 9.863
11.88000 5.078
11.90000 8.469
11.92000 22.464
11.94000 8.081
11.96000 10.876
11.98000 17.234
12.00000 15.471
12.02000 15.588
12.04000 11.567
12.06000 22.837
12.08000 16.920
12.10000 13.594
12.12000 8.229
12.14000 1.852
12.16000 13.665
12.18000 19.789
12.20000 21.446
12.22000 4.170
12.24000 10.041
12.26000 10.721
12.28000 12.138
12.30000 6.760
12.32000 8.696
12.34000 3.258
12.36000 -1.845
12.38000 10.867
12.40000 12.316
12.42000 7.892
12.44000 11.135
12.46000 13.453
12.48000 11.285
12.50000 24.923
12.52000 17.868
12.54000 8.330
12.56000 12.774
12.58000 15.559
12.60000 12.961
12.62000 5.381
12.64000 -4.581
12.66000 4.982
12.68000 25.084
12.70000 17.072
12.72000 1.958
12.74000 13.664
12.76000 18.555
12.78000 23.744
12.80000 18.764
12.82000 9.820
12.84000 9.921
12.86000 18.128
12.88000 25.855
12.90000 22.929
12.92000 25.267
12.94000 17.026
12.96000 19.479
12.98000 14.708
13.00000 9.494
13.02000 4.477
13.04000 5.198
13.06000 16.590
13.08000 19.759
13.10000 14.936
13.12000 9.922
13.14000 8.611
13.16000 12.732
13.18000 25.064
13.20000 28.007
13.22000 18.845
13.24000 14.857
13.26000 6.301
13.28000 12.344
13.30000 6.668
13.32000 10.265
13.34000 7.285
13.36000 9.815
13.38000 9.657
13.40000 7.986
13.42000 8.793
13.44000 5.257
13.46000 9.050
13.48000 13.232
13.50000 12.213
13.52000 8.692
13.54000 8.399
13.56000 7.089
13.58000 1.428
13.60000 -2.493
13.62000 5.982
13.64000 12.099
13.66000 13.528
13.68000 7.394
13.70000 1.554
13.72000 8.189
13.74000 13.290
13.76000 9.170
13.78000 5.469
13.80000 6.196
13.82000 7.710
13.84000 11.844
13.86000 11.650
13.88000 16.464
13.90000 9.907
13.92000 2.332
13.94000 7.089
13.96000 7.618
13.98000 5.194
14.00000 2.959
14.02000 6.194
14.04000 7.049
14.06000 7.361
14.08000 -4.277
14.10000 3.258
14.12000 8.241
14.14000 10.659
14.16000 6.404
14.18000 13.454
14.20000 10.857
14.22000 2.243
14.24000 9.753
14.26000 13.155
14.28000 1.195
14.30000 -1.861
14.32000 -4.605
14.34000 -0.423
14.36000 -4.331
14.38000 -0.033
14.40000 8.909
14.42000 12.049
14.44000 15.775
14.46000 6.232
14.48000 -0.661
14.50000 0.006
14.52000 10.560
14.54000 -3.253
14.56000 -3.204
14.58000 13.180
14.60000 13.308
14.62000 9.875
14.64000 10.132
14.66000 10.098
14.68000 9.722
14.70000 4.645
14.72000 3.011
14.74000 4.478
14.76000 7.454
14.78000 1.571
14.80000 3.948
14.82000 4.058
14.84000 7.306
14.86000 4.395
14.88000 2.734
14.90000 2.889
14.92000 10.748
14.94000 10.066
14.96000 5.401
14.98000 3.996
15.00000 8.215
15.02000 12.156
15.04000 7.281
15.06000 2.133
15.08000 11.044
15.10000 15.280
15.12000 13.181
15.14000 13.095
15.16000 15.271
15.18000 4.003
15.20000 -3.374
15.22000 4.380
15.24000 3.633
15.26000 4.755
15.28000 2.120
15.30000 4.111
15.32000 7.820
15.34000 5.838
15.36000 17.576
15.38000 17.069
15.40000 9.874
15.42000 8.749
15.44000 9.273
15.46000 3.064
15.48000 9.357
15.50000 11.129
15.52000 10.053
15.54000 7.838
15.56000 10.180
15.58000 4.688
15.60000 5.855
15.62000 13.938
15.64000 14.176
15.66000 13.010
15.68000 0.330
15.70000 5.546
15.72000 4.911
15.74000 7.555
15.76000 10.012
15.78000 10.552
15.80000 5.781
15.82000 6.431
15.84000 13.845
15.86000 14.014
15.88000 16.906
15.90000 22.490
15.92000 19.001
15.94000 13.655
15.96000 8.171
15.98000 -2.333
16.00000 -4.487
16.02000 8.396
16.04000 20.788
16.06000 12.996
16.08000 1.863
16.10000 5.588
16.12000 17.475
16.14000 16.317
16.16000 16.904
16.18000 9.077
16.20000 12.938
16.22000 19.047
16.24000 16.562
16.26000 6.479
16.28000 9.640
16.30000 8.328
16.32000 9.229
16.34000 11.022
16.36000 13.309
16.38000 8.170
16.40000 4.817
16.42000 8.340
16.44000 6.875
16.46000 8.002
16.48000 7.678
16.50000 13.666
16.52000 13.963
16.54000 14.923
16.56000 19.242
16.58000 7.050
16.60000 -0.274
16.62000 3.803
16.64000 7.620
16.66000 12.821
16.68000 7.852
16.70000 13.220
16.72000 4.823
16.74000 11.626
16.76000 7.714
16.78000 4.398
16.80000 7.746
16.82000 6.110
16.84000 -2.820
16.86000 0.739
16.88000 8.945
16.90000 17.853
16.92000 13.081
16.94000 13.441
16.96000 7.796
16.98000 6.951
17.00000 7.544
17.02000 7.492
17.04000 8.696
17.06000 16.979
17.08000 11.079
17.10000 4.698
17.12000 9.501
17.14000 13.872
17.16000 8.974
17.18000 10.787
17.20000 8.800
17.22000 7.560
17.24000 8.263
17.26000 9.106
17.28000 13.177
17.30000 10.743
17.32000 9.764
17.34000 6.879
17.36000 5.766
17.38000 0.884
17.40000 7.441
17.42000 16.284
17.44000 14.104
17.46000 4.869
17.48000 11.196
17.50000 9.029
17.52000 3.965
17.54000 12.180
17.56000 14.664
17.58000 11.821
17.60000 4.049
17.62000 8.254
17.64000 6.946
17.66000 3.741
17.68000 1.291
17.70000 5.696
17.72000 2.426
17.74000 -1.170
17.76000 3.762
17.78000 11.281
17.80000 9.310
17.82000 10.949
17.84000 7.014
17.86000 7.143
17.88000 10.354
17.90000 4.976
17.92000 -2.150
17.94000 -4.425
17.96000 2.714
17.98000 0.909
18.00000 4.118
18.02000 5.352
18.04000 4.150
18.06000 6.856
18.08000 3.332
18.10000 1.727
18.12000 3.386
18.14000 6.578
18.16000 9.939
18.18000 5.496
18.20000 4.193
18.22000 7.358
18.24000 10.608
18.26000 13.398
18.28000 9.674
18.30000 -0.363
18.32000 1.201
18.34000 0.813
18.36000 4.198
18.38000 5.781
18.40000 4.986
18.42000 7.819
18.44000 10.847
18.46000 7.876
18.48000 -2.850
18.50000 5.240
18.52000 8.187
18.54000 2.759
18.56000 -2.606
18.58000 4.489
18.60000 9.960
18.62000 7.583
18.64000 0.277
18.66000 6.196
18.68000 10.822
18.70000 7.481
18.72000 0.903
18.74000 1.829
18.76000 13.847
18.78000 9.703
18.80000 2.544
18.82000 1.136
18.84000 0.405
18.86000 6.481
18.88000 1.785
18.90000 2.683
18.92000 2.487
18.94000 -4.375
18.96000 -2.958
18.98000 6.845
19.00000 10.144
19.02000 12.080
19.04000 9.721
19.06000 7.718
19.08000 5.830
19.10000 -2.589
19.12000 -2.978
19.14000 2.549
19.16000 2.718
19.18000 7.672
19.20000 12.311
19.22000 10.414
19.24000 6.913
19.26000 7.969
19.28000 8.470
19.30000 3.365
19.32000 2.404
19.34000 1.253
19.36000 8.147
19.38000 4.730
19.40000 1.912
19.42000 3.825
19.44000 7.232
19.46000 8.661
19.48000 7.782
19.50000 2.683
19.52000 4.618
19.54000 -1.821
19.56000 5.260
19.58000 6.825
19.60000 0.979
19.62000 3.847
19.64000 5.928
19.66000 4.692
19.68000 11.690
19.70000 15.071
19.72000 2.748
19.74000 1.757
19.76000 -0.638
19.78000 -0.691
19.80000 -1.777
19.82000 3.937
19.84000 6.184
19.86000 7.508
19.88000 8.276
19.90000 7.628
19.92000 0.109
19.94000 -1.042
19.96000 7.309
19.98000 6.585
20.00000 12.712
20.02000 6.602
20.04000 -2.139
20.06000 1.211
20.08000 4.256
20.10000 13.636
20.12000 5.974
20.14000 4.116
20.16000 6.620
20.18000 10.187
20.20000 10.923
20.22000 14.943
20.24000 14.142
20.26000 16.050
20.28000 11.055
20.30000 3.837
20.32000 5.204
20.34000 -4.261
20.36000 -2.801
20.38000 10.700
20.40000 11.002
20.42000 8.944
20.44000 10.296
20.46000 5.215
20.48000 6.097
20.50000 3.364
20.52000 4.046
20.54000 4.117
20.56000 0.384
20.58000 12.226
20.60000 11.007
20.62000 4.791
20.64000 4.577
20.66000 8.017
20.68000 6.381
20.70000 9.484
20.72000 8.823
20.74000 11.203
20.76000 15.753
20.78000 11.332
20.80000 7.788
20.82000 2.734
20.84000 9.959
20.86000 7.843
20.88000 4.614
20.90000 9.199
20.92000 8.070
20.94000 2.453
20.96000 3.798
20.98000 6.106
21.00000 3.832
21.02000 2.216
21.04000 -1.648
21.06000 4.553
21.08000 7.952
21.10000 3.230
21.12000 3.222
21.14000 5.517
21.16000 6.749
21.18000 8.798
21.20000 4.389
21.22000 8.935
21.24000 8.154
21.26000 2.824
21.28000 2.726
21.30000 4.830
21.32000 7.731
21.34000 4.971
21.36000 7.075
21.38000 17.942
21.40000 12.504
21.42000 8.717
21.44000 10.534
21.46000 8.434
21.48000 3.384
21.50000 -0.198
21.52000 4.117
21.54000 6.153
21.56000 9.525
21.58000 4.599
21.60000 3.149
21.62000 2.376
21.64000 10.823
21.66000 10.974
21.68000 13.172
21.70000 15.931
21.72000 13.788
21.74000 0.324
21.76000 2.728
21.78000 9.391
21.80000 7.941
21.82000 9.152
21.84000 5.800
21.86000 3.224
21.88000 7.306
21.90000 13.919
21.92000 6.407
21.94000 -4.180
21.96000 -0.067
21.98000 6.560
22.00000 6.219
22.02000 1.171
22.04000 -1.723
22.06000 -1.038
22.08000 2.085
22.10000 3.304
22.12000 2.219
22.14000 2.637
22.16000 2.528
22.18000 7.321
22.20000 9.147
22.22000 6.717
22.24000 8.326
22.26000 6.520
22.28000 7.480
22.30000 3.908
22.32000 4.947
22.34000 12.083
22.36000 14.478
22.38000 13.083
22.40000 11.434
22.42000 9.897
22.44000 7.430
22.46000 6.055
22.48000 6.663
22.50000 8.859
22.52000 2.107
22.54000 7.645
22.56000 6.981
22.58000 1.643
22.60000 7.662
22.62000 1.276
22.64000 0.674
22.66000 5.639
22.68000 7.968
22.70000 11.824
22.72000 9.947
22.74000 4.710
22.76000 10.511
22.78000 9.182
22.80000 4.507
22.82000 4.316
22.84000 3.291
22.86000 -4.139
22.88000 -1.484
22.90000 -0.535
22.92000 2.869
22.94000 7.128
22.96000 7.854
22.98000 6.283
23.00000 2.946
23.02000 1.301
23.04000 2.158
23.06000 -1.904
23.08000 -1.589
23.10000 0.352
23.12000 -1.084
23.14000 2.041
23.16000 11.471
23.18000 5.155
23.20000 2.728
23.22000 2.434
23.24000 3.688
23.26000 3.271
23.28000 0.327
23.30000 -0.903
23.32000 5.163
23.34000 7.897
23.36000 12.926
23.38000 7.100
23.40000 8.234
23.42000 10.873
23.44000 6.155
23.46000 8.320
23.48000 13.326
23.50000 -2.516
23.52000 -4.093
23.54000 -2.756
23.56000 5.022
23.58000 5.466
23.60000 7.295
23.62000 11.200
23.64000 7.230
23.66000 7.363
23.68000 4.413
23.70000 3.497
23.72000 6.552
23.74000 6.370
23.76000 6.389
23.78000 8.514
23.80000 7.499
23.82000 4.981
23.84000 6.421
23.86000 6.050
23.88000 3.684
23.90000 -1.483
23.92000 -1.045
23.94000 -0.360
23.96000 6.718
23.98000 5.635
24.00000 1.433
24.02000 0.312
24.04000 3.600
24.06000 8.120
24.08000 9.479
24.10000 1.659
24.12000 -0.223
24.14000 3.781
24.16000 -1.124
24.18000 -0.142
24.20000 2.250
24.22000 0.491
24.24000 -0.067
24.26000 7.957
24.28000 5.810
24.30000 3.551
24.32000 4.259
24.34000 1.588
24.36000 4.881
24.38000 1.355
24.40000 0.339
24.42000 6.316
24.44000 6.814
24.46000 8.357
24.48000 7.362
24.50000 -1.599
24.52000 -0.713
24.54000 3.321
24.56000 6.140
24.58000 5.745
24.60000 5.085
24.62000 -2.973
24.64000 -1.282
24.66000 9.408
24.68000 4.698
24.70000 8.381
24.72000 5.321
24.74000 5.144
24.76000 5.538
24.78000 4.175
24.80000 0.207
24.82000 4.560
24.84000 7.488
24.86000 3.763
24.88000 -3.013
24.90000 -4.016
24.92000 2.907
24.94000 9.136
24.96000 10.002
24.98000 0.118
25.00000 -0.147
25.02000 2.127
25.04000 5.381
25.06000 10.653
25.08000 5.488
25.10000 3.733
25.12000 4.815
25.14000 1.928
25.16000 7.958
25.18000 7.822
25.20000 6.872
25.22000 0.898
25.24000 3.931
25.26000 8.553
25.28000 6.314
25.30000 3.295
25.32000 -3.998
25.34000 -1.126
25.36000 1.211
25.38000 2.816
25.40000 0.425
25.42000 -0.588
25.44000 3.183
25.46000 3.260
25.48000 3.940
25.50000 -0.508
25.52000 4.986
25.54000 -3.442
25.56000 -2.123
25.58000 -0.943
25.60000 0.764
25.62000 0.882
25.64000 0.127
25.66000 0.910
25.68000 1.631
25.70000 3.125
25.72000 7.412
25.74000 8.112
25.76000 4.632
25.78000 1.024
25.80000 5.222
25.82000 4.012
25.84000 3.538
25.86000 5.486
25.88000 4.218
25.90000 2.391
25.92000 0.995
25.94000 5.688
25.96000 3.158
25.98000 -0.974
26.00000 4.601
26.02000 13.366
26.04000 1.658
26.06000 -3.948
26.08000 -2.250
26.10000 8.030
26.12000 12.891
26.14000 8.305
26.16000 3.896
26.18000 0.749
26.20000 8.219
26.22000 9.560
26.24000 3.543
26.26000 3.189
26.28000 4.150
26.30000 0.954
26.32000 -2.045
26.34000 2.867
26.36000 6.385
26.38000 7.154
26.40000 4.648
26.42000 4.445
26.44000 0.200
26.46000 1.387
26.48000 7.258
26.50000 8.440
26.52000 9.938
26.54000 10.398
26.56000 5.611
26.58000 1.597
26.60000 -0.264
26.62000 1.940
26.64000 1.473
26.66000 3.063
26.68000 3.788
26.70000 -0.546
26.72000 2.573
26.74000 4.259
26.76000 6.272
26.78000 1.202
26.80000 4.572
26.82000 3.050
26.84000 5.238
26.86000 8.505
26.88000 1.517
26.90000 7.197
26.92000 5.493
26.94000 5.242
26.96000 5.166
26.98000 1.002
27.00000 -0.272
27.02000 -0.296
27.04000 -0.575
27.06000 -3.938
27.08000 0.176
27.10000 -3.742
27.12000 -0.875
27.14000 -0.133
27.16000 2.278
27.18000 5.042
27.20000 9.755
27.22000 6.836
27.24000 8.413
27.26000 6.545
27.28000 -3.928
27.30000 -3.502
27.32000 0.008
27.34000 1.605
27.36000 -1.547
27.38000 0.299
27.40000 3.080
27.42000 3.094
27.44000 1.416
27.46000 3.431
27.48000 3.649
27.50000 4.851
27.52000 2.201
27.54000 4.239
27.56000 0.799
27.58000 2.511
27.60000 -1.793
27.62000 -0.653
27.64000 3.109
27.66000 2.443
27.68000 3.337
27.70000 3.392
27.72000 0.851
27.74000 -0.951
27.76000 1.179
27.78000 -3.201
27.80000 -3.789
27.82000 4.953
27.84000 6.924
27.86000 3.588
27.88000 6.040
27.90000 4.989
27.92000 2.754
27.94000 -3.889
27.96000 -0.611
27.98000 2.147
28.00000 5.302
28.02000 7.594
28.04000 2.887
28.06000 -1.018
28.08000 -1.218
28.10000 2.433
28.12000 -1.949
28.14000 -2.553
28.16000 4.648
28.18000 2.473
28.20000 0.722
28.22000 3.580
28.24000 0.856
28.26000 -0.543
28.28000 -2.298
28.30000 2.114
28.32000 -0.850
28.34000 -1.208
28.36000 -1.098
28.38000 1.304
28.40000 0.386
28.42000 1.881
28.44000 1.671
28.46000 1.815
28.48000 4.161
28.50000 3.730
28.52000 2.207
28.54000 2.511
28.56000 2.403
28.58000 0.382
28.60000 -3.285
28.62000 -2.702
28.64000 3.841
28.66000 3.935
28.68000 0.827
28.70000 4.912
28.72000 1.396
28.74000 0.550
28.76000 0.367
28.78000 -2.696
28.80000 -2.223
28.82000 1.248
28.84000 4.902
28.86000 -0.005
28.88000 -3.822
28.90000 6.546
28.92000 1.292
28.94000 0.072
28.96000 3.793
28.98000 5.896
29.00000 2.400
29.02000 1.030
29.04000 2.207
29.06000 8.918
29.08000 10.987
29.10000 4.976
29.12000 1.491
29.14000 3.574
29.16000 3.073
29.18000 5.087
29.20000 5.336
29.22000 6.864
29.24000 6.398
29.26000 5.320
29.28000 4.601
29.30000 6.429
29.32000 6.986
29.34000 2.424
29.36000 2.042
29.38000 3.699
29.40000 2.987
29.42000 1.719
29.44000 4.563
29.46000 5.052
29.48000 -3.770
29.50000 4.304
29.52000 7.264
29.54000 3.681
29.56000 0.781
29.58000 2.307
29.60000 0.065
29.62000 6.813
29.64000 8.836
29.66000 5.944
29.68000 0.755
29.70000 1.732
29.72000 3.096
29.74000 4.072
29.76000 0.078
29.78000 -1.756
29.80000 -2.028
29.82000 4.051
29.84000 4.213
29.86000 3.033
29.88000 1.654
29.90000 1.484
29.92000 6.370
29.94000 11.570
29.96000 3.652
29.98000 -0.102
30.00000 -1.662
30.02000 -0.263
30.04000 1.507
30.06000 1.166
30.08000 1.915
30.10000 0.493
30.12000 -3.744
30.14000 0.075
30.16000 4.730
30.18000 4.885
30.20000 2.918
30.22000 7.368
30.24000 4.462
30.26000 4.355
30.28000 5.660
30.30000 2.214
30.32000 -1.134
30.34000 -1.474
30.36000 0.171
30.38000 -0.692
30.40000 -0.180
30.42000 2.686
30.44000 2.225
30.46000 -0.801
30.48000 -3.696
30.50000 -2.163
30.52000 1.482
30.54000 1.669
30.56000 6.093
30.58000 3.401
30.60000 -1.662
30.62000 -1.592
30.64000 7.055
30.66000 5.978
30.68000 3.330
30.70000 2.918
30.72000 5.019
30.74000 3.207
30.76000 0.482
30.78000 4.975
30.80000 8.541
30.82000 12.218
30.84000 12.089
30.86000 6.890
30.88000 3.772
30.90000 5.777
30.92000 3.104
30.94000 -1.004
30.96000 3.554
30.98000 7.326
31.00000 9.661
31.02000 9.366
31.04000 4.506
31.06000 6.061
31.08000 7.170
31.10000 4.749
31.12000 8.973
31.14000 5.300
31.16000 4.171
31.18000 1.392
31.20000 -3.682
31.22000 2.869
31.24000 6.372
31.26000 5.038
31.28000 2.995
31.30000 4.427
31.32000 2.031
31.34000 3.747
31.36000 -0.308
31.38000 -1.033
31.40000 1.883
31.42000 1.867
31.44000 2.692
31.46000 4.524
31.48000 3.938
31.50000 3.934
31.52000 -2.917
31.54000 -1.245
31.56000 1.792
31.58000 3.601
31.60000 3.789
31.62000 3.797
31.64000 3.206
31.66000 1.223
31.68000 -3.663
31.70000 0.353
31.72000 3.325
31.74000 2.729
31.76000 3.696
31.78000 4.721
31.80000 5.072
31.82000 1.394
31.84000 2.206
31.86000 3.082
31.88000 8.206
31.90000 4.770
31.92000 1.930
31.94000 4.134
31.96000 3.119
31.98000 5.275
32.00000 3.263
32.02000 2.925
32.04000 5.720
32.06000 0.970
32.08000 0.333
32.10000 2.298
32.12000 2.542
32.14000 5.563
32.16000 4.389
32.18000 -1.707
32.20000 -1.773
32.22000 1.799
32.24000 4.121
32.26000 6.606
32.28000 2.249
32.30000 2.960
32.32000 1.505
32.34000 0.863
32.36000 7.130
32.38000 4.567
32.40000 -1.990
32.42000 2.483
32.44000 6.076
32.46000 5.435
32.48000 3.595
32.50000 7.829
32.52000 2.187
32.54000 2.372
32.56000 0.532
32.58000 0.431
32.60000 5.193
32.62000 1.749
32.64000 2.725
32.66000 3.158
32.68000 3.518
32.70000 -0.031
32.72000 6.017
32.74000 9.587
32.76000 5.747
32.78000 9.271
32.80000 6.359
32.82000 -0.085
32.84000 1.360
32.86000 -2.686
32.88000 0.575
32.90000 -0.891
32.92000 -0.935
32.94000 0.673
32.96000 3.828
32.98000 -0.633
33.00000 0.327
33.02000 4.656
33.04000 1.308
33.06000 1.423
33.08000 3.649
33.10000 3.579
33.12000 -0.237
33.14000 1.028
33.16000 3.433
33.18000 6.368
33.20000 0.822
33.22000 -3.610
33.24000 0.087
33.26000 3.912
33.28000 5.906
33.30000 2.323
33.32000 7.176
33.34000 9.599
33.36000 8.348
33.38000 8.536
33.40000 8.360
33.42000 9.214
33.44000 11.251
33.46000 8.065
33.48000 4.560
33.50000 1.873
33.52000 2.761
33.54000 4.577
33.56000 4.091
33.58000 2.746
33.60000 1.703
33.62000 6.104
33.64000 9.419
33.66000 6.404
33.68000 3.822
33.70000 8.470
33.72000 5.930
33.74000 -0.290
33.76000 1.046
33.78000 4.918
33.80000 0.838
33.82000 1.393
33.84000 -0.113
33.86000 2.253
33.88000 0.327
33.90000 -0.202
33.92000 2.846
33.94000 7.211
33.96000 11.457
33.98000 2.514
34.00000 4.426
34.02000 4.496
34.04000 5.480
34.06000 7.894
34.08000 6.702
34.10000 1.166
34.12000 1.561
34.14000 3.923
34.16000 2.614
34.18000 0.639
34.20000 3.946
34.22000 4.966
34.24000 2.798
34.26000 0.740
34.28000 3.165
34.30000 4.990
34.32000 6.381
34.34000 3.768
34.36000 -1.451
34.38000 -3.568
34.40000 -2.092
34.42000 6.231
34.44000 9.295
34.46000 10.066
34.48000 2.715
34.50000 3.368
34.52000 0.377
34.54000 1.438
34.56000 -2.199
34.58000 3.198
34.60000 1.812
34.62000 4.552
34.64000 5.798
34.66000 5.105
34.68000 7.731
34.70000 7.291
34.72000 -1.557
34.74000 3.430
34.76000 4.521
34.78000 2.960
34.80000 0.672
34.82000 3.997
34.84000 2.290
34.86000 1.042
34.88000 -0.893
34.90000 0.580
34.92000 -0.316
34.94000 3.443
34.96000 3.201
34.98000 3.186
35.00000 -1.092
35.02000 -0.991
35.04000 -3.263
35.06000 0.161
35.08000 3.396
35.10000 2.822
35.12000 0.884
35.14000 -1.297
35.16000 -1.781
35.18000 -3.569
35.20000 -0.989
35.22000 4.467
35.24000 4.948
35.26000 1.897
35.28000 -3.284
35.30000 -2.090
35.32000 0.290
35.34000 4.189
35.36000 2.508
35.38000 -1.496
35.40000 -0.640
35.42000 -2.822
35.44000 -2.688
35.46000 -1.438
35.48000 2.426
35.50000 2.778
35.52000 -0.651
35.54000 -0.246
35.56000 7.333
35.58000 0.715
35.60000 3.196
35.62000 -1.198
35.64000 -0.929
35.66000 1.271
35.68000 -1.013
35.70000 0.130
35.72000 3.791
35.74000 7.015
35.76000 6.552
35.78000 5.492
35.80000 0.795
35.82000 2.703
35.84000 2.282
35.86000 1.342
35.88000 7.157
35.90000 5.453
35.92000 6.231
35.94000 5.171
35.96000 -0.633
35.98000 2.601
36.00000 5.479
36.02000 -0.314
36.04000 2.010
36.06000 5.351
36.08000 2.423
36.10000 2.932
36.12000 5.458
36.14000 9.021
36.16000 3.880
36.18000 -3.531
36.20000 -0.418
36.22000 4.464
36.24000 5.654
36.26000 2.509
36.28000 4.124
36.30000 5.582
36.32000 5.087
36.34000 2.232
36.36000 6.041
36.38000 6.254
36.40000 0.809
36.42000 3.304
36.44000 0.018
36.46000 1.923
36.48000 3.014
36.50000 5.311
36.52000 3.120
36.54000 -0.068
36.56000 -1.606
36.58000 -0.314
36.60000 4.670
36.62000 4.916
36.64000 2.572
36.66000 2.108
36.68000 2.568
36.70000 2.268
36.72000 -3.537
36.74000 -2.159
36.76000 0.367
36.78000 0.925
36.80000 -2.611
36.82000 0.220
36.84000 1.765
36.86000 2.384
36.88000 2.583
36.90000 2.086
36.92000 4.433
36.94000 0.256
36.96000 6.256
36.98000 2.917
37.00000 1.571
37.02000 4.422
37.04000 5.944
37.06000 4.192
37.08000 4.232
37.10000 1.975
37.12000 3.299
37.14000 9.490
37.16000 7.869
37.18000 6.314
37.20000 3.831
37.22000 -2.333
37.24000 0.867
37.26000 1.545
37.28000 3.070
37.30000 6.167
37.32000 5.540
37.34000 4.521
37.36000 7.376
37.38000 6.519
37.40000 6.495
37.42000 7.713
37.44000 0.865
37.46000 -0.149
37.48000 4.590
37.50000 4.823
37.52000 0.809
37.54000 -3.580
37.56000 1.949
37.58000 0.688
37.60000 -0.424
37.62000 2.996
37.64000 4.559
37.66000 4.376
37.68000 6.379
37.70000 9.129
37.72000 3.401
37.74000 0.068
37.76000 4.108
37.78000 2.482
37.80000 2.346
37.82000 -2.258
37.84000 2.234
37.86000 3.968
37.88000 7.619
37.90000 7.140
37.92000 5.445
37.94000 5.613
37.96000 5.294
37.98000 3.962
38.00000 4.688
38.02000 3.892
38.04000 4.740
38.06000 3.838
38.08000 6.489
38.10000 5.527
38.12000 7.080
38.14000 6.307
38.16000 6.298
38.18000 7.702
38.20000 7.133
38.22000 7.943
38.24000 9.495
38.26000 14.928
38.28000 14.273
38.30000 14.790
38.32000 11.499
38.34000 10.185
38.36000 15.977
38.38000 15.110
38.40000 15.404
38.42000 13.426
38.44000 12.978
38.46000 13.326
38.48000 19.671
38.50000 20.949
38.52000 20.612
38.54000 13.908
38.56000 14.089
38.58000 20.480
38.60000 23.253
38.62000 21.871
38.64000 17.913
38.66000 18.189
38.68000 19.974
38.70000 20.685
38.72000 25.041
38.74000 24.835
38.76000 20.063
38.78000 25.492
38.80000 22.139
38.82000 20.292
38.84000 20.964
38.86000 23.828
38.88000 22.343
38.90000 25.811
38.92000 30.191
38.94000 28.357
38.96000 27.950
38.98000 28.823
39.00000 30.370
39.02000 26.978
39.04000 29.714
39.06000 32.629
39.08000 27.466
39.10000 35.614
39.12000 42.182
39.14000 40.267
39.16000 43.299
39.18000 43.976
39.20000 42.333
39.22000 47.688
39.24000 44.384
39.26000 48.350
39.28000 55.025
39.30000 54.461
39.32000 59.688
39.34000 59.016
39.36000 54.714
39.38000 59.147
39.40000 61.663
39.42000 68.144
39.44000 68.606
39.46000 73.644
39.48000 77.522
39.50000 82.843
39.52000 84.742
39.54000 94.427
39.56000 98.851
39.58000 102.078
39.60000 109.341
39.62000 117.432
39.64000 119.069
39.66000 129.999
39.68000 139.575
39.70000 141.427
39.72000 158.729
39.74000 175.162
39.76000 181.331
39.78000 185.324
39.80000 198.238
39.82000 216.302
39.84000 229.411
39.86000 243.332
39.88000 265.982
39.90000 295.182
39.92000 317.265
39.94000 339.791
39.96000 360.380
39.98000 391.846
40.00000 416.892
40.02000 445.507
40.04000 481.234
40.06000 510.443
40.08000 538.722
40.10000 591.617
40.12000 637.802
40.14000 670.349
40.16000 716.760
40.18000 774.901
40.20000 834.099
40.22000 867.775
40.24000 934.084
40.26000 988.195
40.28000 1033.802
40.30000 1069.380
40.32000 1089.437
40.34000 1142.407
40.36000 1184.167
40.38000 1217.176
40.40000 1241.463
40.42000 1261.937
40.44000 1285.517
40.46000 1287.375
40.48000 1298.993
40.50000 1291.208
40.52000 1283.179
40.54000 1271.037
40.56000 1261.452
40.58000 1233.024
40.60000 1201.165
40.62000 1180.639
40.64000 1159.221
40.66000 1131.684
40.68000 1084.311
40.70000 1044.327
40.72000 1013.615
40.74000 984.775
40.76000 960.269
40.78000 916.619
40.80000 884.166
40.82000 841.946
40.84000 808.713
40.86000 769.742
40.88000 731.438
40.90000 696.074
40.92000 660.194
40.94000 625.096
40.96000 599.842
40.98000 572.226
41.00000 545.477
41.02000 506.366
41.04000 476.918
41.06000 452.150
41.08000 424.812
41.10000 396.243
41.12000 376.377
41.14000 359.041
41.16000 341.948
41.18000 329.080
41.20000 312.893
41.22000 290.049
41.24000 267.054
41.26000 257.590
41.28000 246.582
41.30000 233.167
41.32000 221.754
41.34000 209.774
41.36000 200.767
41.38000 196.730
41.40000 182.052
41.42000 169.547
41.44000 166.905
41.46000 162.216
41.48000 159.863
41.50000 145.876
41.52000 129.983
41.54000 129.340
41.56000 125.167
41.58000 118.768
41.60000 112.313
41.62000 106.077
41.64000 105.203
41.66000 102.501
41.68000 98.682
41.70000 87.142
41.72000 79.441
41.74000 83.779
41.76000 79.331
41.78000 69.219
41.80000 68.052
41.82000 70.531
41.84000 69.587
41.86000 66.552
41.88000 62.729
41.90000 59.741
41.92000 56.891
41.94000 55.143
41.96000 50.344
41.98000 49.158
42.00000 43.625
42.02000 44.718
42.04000 42.678
42.06000 43.068
42.08000 40.233
42.10000 37.651
42.12000 35.481
42.14000 36.775
42.16000 37.575
42.18000 30.552
42.20000 27.258
42.22000 26.410
42.24000 34.295
42.26000 32.052
42.28000 29.761
42.30000 29.207
42.32000 25.039
42.34000 20.453
42.36000 22.851
42.38000 23.414
42.40000 19.277
42.42000 16.836
42.44000 17.156
42.46000 17.949
42.48000 15.909
42.50000 16.642
42.52000 20.468
42.54000 19.386
42.56000 17.175
42.58000 14.681
42.60000 15.203
42.62000 11.734
42.64000 9.626
42.66000 14.623
42.68000 9.377
42.70000 9.209
42.72000 7.180
42.74000 9.934
42.76000 11.259
42.78000 11.638
42.80000 6.766
42.82000 4.413
42.84000 4.218
42.86000 6.487
42.88000 6.369
42.90000 4.279
42.92000 2.741
42.94000 4.351
42.96000 7.795
42.98000 7.898
43.00000 1.564
43.02000 5.229
43.04000 6.753
43.06000 8.914
43.08000 6.524
43.10000 6.421
43.12000 4.955
43.14000 4.036
43.16000 5.734
43.18000 4.877
43.20000 4.190
43.22000 7.056
43.24000 7.078
43.26000 6.590
43.28000 3.067
43.30000 2.584
43.32000 -0.751
43.34000 5.222
43.36000 5.002
43.38000 0.343
43.40000 0.056
43.42000 2.019
43.44000 0.670
43.46000 -1.524
43.48000 0.492
43.50000 2.650
43.52000 1.783
43.54000 2.200
43.56000 2.596
43.58000 4.157
43.60000 3.014
43.62000 1.495
43.64000 -0.719
43.66000 -2.054
43.68000 1.989
43.70000 1.304
43.72000 -1.584
43.74000 2.009
43.76000 6.004
43.78000 1.189
43.80000 -2.855
43.82000 2.357
43.84000 0.672
43.86000 0.180
43.88000 3.113
43.90000 0.596
43.92000 -3.364
43.94000 -1.796
43.96000 -0.326
43.98000 0.362
44.00000 5.515
44.02000 3.682
44.04000 2.502
44.06000 0.816
44.08000 -0.068
44.10000 0.557
44.12000 3.580
44.14000 4.870
44.16000 2.529
44.18000 1.939
44.20000 0.878
44.22000 -2.322
44.24000 -0.972
44.26000 4.240
44.28000 0.229
44.30000 0.264
44.32000 -1.937
44.34000 -2.215
44.36000 2.362
44.38000 2.227
44.40000 1.255
44.42000 1.471
44.44000 2.301
44.46000 0.710
44.48000 -0.525
44.50000 2.315
44.52000 1.647
44.54000 0.690
44.56000 1.842
44.58000 3.252
44.60000 1.122
44.62000 -0.903
44.64000 -2.691
44.66000 -1.317
44.68000 1.919
44.70000 6.384
44.72000 2.058
44.74000 -1.935
44.76000 2.628
44.78000 1.647
44.80000 0.663
44.82000 -3.254
44.84000 -0.022
44.86000 6.140
44.88000 7.014
44.90000 4.144
44.92000 2.461
44.94000 4.822
44.96000 2.680
44.98000 0.957
45.00000 2.566
45.02000 5.529
45.04000 2.964
45.06000 0.378
45.08000 0.562
45.10000 1.660
45.12000 3.267
45.14000 -1.433
45.16000 -0.741
45.18000 2.478
45.20000 2.137
45.22000 -3.246
45.24000 -0.153
45.26000 2.451
45.28000 0.880
45.30000 2.975
45.32000 0.107
45.34000 0.198
45.36000 -1.267
45.38000 -1.469
45.40000 1.285
45.42000 -0.283
45.44000 2.545
45.46000 0.870
45.48000 0.955
45.50000 3.120
45.52000 2.792
45.54000 4.549
45.56000 5.798
45.58000 5.835
45.60000 7.326
45.62000 7.476
45.64000 5.413
45.66000 6.198
45.68000 7.166
45.70000 4.323
45.72000 7.154
45.74000 9.008
45.76000 9.564
45.78000 7.787
45.80000 7.402
45.82000 9.927
45.84000 8.283
45.86000 8.347
45.88000 7.974
45.90000 11.009
45.92000 6.781
45.94000 10.810
45.96000 13.732
45.98000 11.390
46.00000 14.701
46.02000 17.469
46.04000 19.237
46.06000 16.763
46.08000 15.444
46.10000 13.748
46.12000 17.614
46.14000 21.345
46.16000 23.088
46.18000 25.451
46.20000 24.631
46.22000 27.791
46.24000 26.703
46.26000 28.424
46.28000 29.908
46.30000 28.664
46.32000 28.622
46.34000 23.818
46.36000 26.214
46.38000 37.095
46.40000 38.668
46.42000 42.313
46.44000 39.618
46.46000 38.966
46.48000 43.421
46.50000 44.543
46.52000 46.876
46.54000 50.844
46.56000 53.979
46.58000 54.926
46.60000 56.738
46.62000 62.657
46.64000 63.405
46.66000 61.628
46.68000 65.639
46.70000 72.822
46.72000 80.877
46.74000 80.166
46.76000 79.800
46.78000 81.548
46.80000 92.567
46.82000 93.812
46.84000 102.263
46.86000 103.238
46.88000 108.796
46.90000 110.016
46.92000 115.359
46.94000 115.474
46.96000 120.098
46.98000 123.435
47.00000 129.636
47.02000 133.847
47.04000 133.062
47.06000 132.585
47.08000 139.811
47.10000 143.107
47.12000 137.304
47.14000 139.869
47.16000 135.552
47.18000 141.772
47.20000 137.565
47.22000 139.344
47.24000 135.993
47.26000 129.399
47.28000 127.312
47.30000 124.796
47.32000 125.254
47.34000 124.725
47.36000 125.296
47.38000 118.552
47.40000 108.142
47.42000 107.588
47.44000 107.565
47.46000 107.206
47.48000 100.813
47.50000 94.269
47.52000 93.181
47.54000 87.849
47.56000 83.084
47.58000 77.554
47.60000 75.234
47.62000 72.248
47.64000 66.334
47.66000 67.238
47.68000 64.844
47.70000 59.978
47.72000 61.164
47.74000 52.660
47.76000 49.951
47.78000 48.940
47.80000 48.729
47.82000 44.854
47.84000 42.376
47.86000 37.690
47.88000 38.660
47.90000 38.951
47.92000 33.672
47.94000 31.780
47.96000 30.358
47.98000 27.482
48.00000 25.324
48.02000 26.427
48.04000 20.345
48.06000 17.152
48.08000 25.461
48.10000 24.397
48.12000 17.250
48.14000 15.063
48.16000 15.928
48.18000 16.616
48.20000 15.082
48.22000 11.827
48.24000 9.462
48.26000 9.477
48.28000 9.782
48.30000 6.825
48.32000 8.083
48.34000 8.023
48.36000 9.561
48.38000 5.153
48.40000 5.476
48.42000 5.037
48.44000 4.596
48.46000 1.175
48.48000 4.003
48.50000 7.531
48.52000 5.067
48.54000 2.358
48.56000 3.890
48.58000 4.321
48.60000 3.834
48.62000 4.860
48.64000 6.290
48.66000 4.011
48.68000 4.379
48.70000 3.800
48.72000 3.297
48.74000 5.312
48.76000 2.737
48.78000 3.297
48.80000 5.941
48.82000 2.433
48.84000 0.104
48.86000 -1.748
48.88000 5.736
48.90000 4.740
48.92000 2.361
48.94000 0.504
48.96000 4.256
48.98000 2.879
49.00000 0.225
49.02000 0.824
49.04000 1.557
49.06000 4.454
49.08000 7.817
49.10000 3.001
49.12000 -2.626
49.14000 0.284
49.16000 5.607
49.18000 4.935
49.20000 2.418
49.22000 2.288
49.24000 2.048
49.26000 1.211
49.28000 0.868
49.30000 2.866
49.32000 1.905
49.34000 5.183
49.36000 6.253
49.38000 7.118
49.40000 4.775
49.42000 2.466
49.44000 3.942
49.46000 3.094
49.48000 3.056
49.50000 -1.784
49.52000 -2.601
49.54000 -0.414
49.56000 3.177
49.58000 6.828
49.60000 3.186
49.62000 1.565
49.64000 2.073
49.66000 2.377
49.68000 1.119
49.70000 1.625
49.72000 1.152
49.74000 -0.807
49.76000 0.262
49.78000 1.625
49.80000 0.051
49.82000 0.128
49.84000 1.667
49.86000 1.813
49.88000 3.164
49.90000 0.806
49.92000 2.674
49.94000 0.414
49.96000 1.322
49.98000 -0.302
50.00000 3.083
50.02000 2.195
50.04000 5.438
50.06000 5.089
50.08000 3.494
50.10000 -1.052
50.12000 -1.256
50.14000 -1.494
50.16000 3.795
50.18000 4.320
50.20000 2.740
50.22000 -1.523
50.24000 1.162
50.26000 5.090
50.28000 1.220
50.30000 1.462
50.32000 -0.451
50.34000 2.868
50.36000 5.234
50.38000 -0.051
50.40000 -2.527
50.42000 -1.124
50.44000 1.973
50.46000 1.004
50.48000 -2.350
50.50000 0.476
50.52000 -0.258
50.54000 1.516
50.56000 3.732
50.58000 2.408
50.60000 0.820
50.62000 2.100
50.64000 1.020
50.66000 2.035
50.68000 0.761
50.70000 0.467
50.72000 0.211
50.74000 1.561
50.76000 2.774
50.78000 -0.336
50.80000 1.799
50.82000 3.662
50.84000 1.061
50.86000 2.608
50.88000 4.048
50.90000 3.983
50.92000 -1.535
50.94000 3.605
50.96000 5.473
50.98000 2.243
51.00000 0.555
51.02000 -2.465
51.04000 0.247
51.06000 7.096
51.08000 6.829
51.10000 3.426
51.12000 0.913
51.14000 5.068
51.16000 2.782
51.18000 5.010
51.20000 3.382
51.22000 1.239
51.24000 1.099
51.26000 -1.809
51.28000 -0.762
51.30000 3.446
51.32000 2.731
51.34000 4.217
51.36000 5.009
51.38000 4.123
51.40000 2.000
51.42000 4.685
51.44000 5.495
51.46000 4.061
51.48000 3.478
51.50000 3.270
51.52000 4.570
51.54000 0.137
51.56000 2.522
51.58000 1.854
51.60000 0.245
51.62000 3.661
51.64000 1.247
51.66000 1.443
51.68000 1.212
51.70000 -0.076
51.72000 1.501
51.74000 -0.730
51.76000 3.305
51.78000 3.050
51.80000 4.617
51.82000 3.999
51.84000 1.169
51.86000 1.277
51.88000 4.884
51.90000 1.028
51.92000 0.487
51.94000 1.038
51.96000 2.839
51.98000 1.042
52.00000 -2.434
52.02000 -0.652
52.04000 3.001
52.06000 8.055
52.08000 5.939
52.10000 3.963
52.12000 3.006
52.14000 3.174
52.16000 1.850
52.18000 2.130
52.20000 3.191
52.22000 2.528
52.24000 1.530
52.26000 0.094
52.28000 -2.414
52.30000 5.077
52.32000 3.154
52.34000 1.801
52.36000 0.212
52.38000 5.701
52.40000 5.882
52.42000 0.244
52.44000 1.732
52.46000 4.113
52.48000 2.944
52.50000 4.333
52.52000 4.957
52.54000 -0.238
52.56000 -2.405
52.58000 -2.406
52.60000 0.408
52.62000 -1.490
52.64000 -0.139
52.66000 -1.934
52.68000 -1.374
52.70000 0.594
52.72000 2.133
52.74000 1.006
52.76000 -1.196
52.78000 1.806
52.80000 0.086
52.82000 3.789
52.84000 6.584
52.86000 4.064
52.88000 3.156
52.90000 2.184
52.92000 3.349
52.94000 3.183
52.96000 0.332
52.98000 2.040
53.00000 5.316
53.02000 3.444
53.04000 2.097
53.06000 1.581
53.08000 1.852
53.10000 1.345
53.12000 -2.225
53.14000 -2.405
53.16000 -0.387
53.18000 -1.224
53.20000 -1.667
53.22000 -1.796
53.24000 1.351
53.26000 1.166
53.28000 1.510
53.30000 1.190
53.32000 2.410
53.34000 2.503
53.36000 2.563
53.38000 3.587
53.40000 1.538
53.42000 2.312
53.44000 2.388
53.46000 -1.343
53.48000 -2.262
53.50000 1.561
53.52000 2.782
53.54000 1.043
53.56000 -0.694
53.58000 1.553
53.60000 -1.027
53.62000 0.636
53.64000 0.076
53.66000 -2.387
53.68000 0.633
53.70000 2.879
53.72000 2.459
53.74000 2.966
53.76000 4.140
53.78000 1.447
53.80000 4.413
53.82000 1.769
53.84000 -0.068
53.86000 1.463
53.88000 0.705
53.90000 -0.900
53.92000 -0.367
53.94000 -0.838
53.96000 1.743
53.98000 1.544
54.00000 -1.593
54.02000 -0.158
54.04000 -1.103
54.06000 -1.509
54.08000 0.032
54.10000 1.276
54.12000 3.043
54.14000 3.817
54.16000 4.718
54.18000 3.402
54.20000 0.067
54.22000 -0.252
54.24000 -1.009
54.26000 -0.637
54.28000 0.311
54.30000 1.842
54.32000 0.256
54.34000 0.313
54.36000 -2.283
54.38000 0.128
54.40000 -0.477
54.42000 -1.204
54.44000 5.205
54.46000 3.273
54.48000 2.197
54.50000 3.729
54.52000 1.824
54.54000 1.705
54.56000 2.137
54.58000 3.062
54.60000 2.870
54.62000 0.366
54.64000 0.257
54.66000 1.343
54.68000 0.940
54.70000 0.483
54.72000 -1.153
54.74000 -1.888
54.76000 -2.351
54.78000 4.184
54.80000 3.759
54.82000 -1.444
54.84000 -0.385
54.86000 2.613
54.88000 2.144
54.90000 3.462
54.92000 4.888
54.94000 2.509
54.96000 0.976
54.98000 0.703
55.00000 2.263
55.02000 -1.061
55.04000 -0.204
55.06000 -0.190
55.08000 1.133
55.10000 -0.205
55.12000 -0.922
55.14000 2.524
55.16000 5.223
55.18000 3.753
55.20000 -0.299
55.22000 -2.329
55.24000 4.274
55.26000 0.727
55.28000 1.696
55.30000 -0.157
55.32000 0.498
55.34000 5.010
55.36000 6.338
55.38000 6.269
55.40000 3.042
55.42000 1.070
55.44000 1.083
55.46000 2.740
55.48000 0.934
55.50000 -1.159
55.52000 -0.825
55.54000 2.178
55.56000 4.266
55.58000 2.684
55.60000 1.620
55.62000 1.074
55.64000 -0.619
55.66000 2.414
55.68000 0.508
55.70000 -0.704
55.72000 -2.268
55.74000 -0.011
55.76000 3.293
55.78000 2.485
55.80000 2.573
55.82000 1.047
55.84000 1.468
55.86000 0.264
55.88000 1.248
55.90000 3.237
55.92000 2.530
55.94000 1.866
55.96000 -0.507
55.98000 -2.327
56.00000 0.080
56.02000 1.873
56.04000 3.336
56.06000 0.813
56.08000 -1.097
56.10000 -0.737
56.12000 -1.304
56.14000 1.341
56.16000 4.183
56.18000 3.821
56.20000 2.678
56.22000 0.082
56.24000 1.079
56.26000 2.115
56.28000 2.115
56.30000 2.927
56.32000 -0.010
56.34000 -0.073
56.36000 -2.315
56.38000 -1.168
56.40000 0.683
56.42000 1.923
56.44000 -1.245
56.46000 0.668
56.48000 4.232
56.50000 2.583
56.52000 0.694
56.54000 3.752
56.56000 3.305
56.58000 1.184
56.60000 2.927
56.62000 1.233
56.64000 1.491
56.66000 -0.482
56.68000 0.741
56.70000 0.421
56.72000 0.760
56.74000 -0.972
56.76000 4.139
56.78000 3.749
56.80000 2.815
56.82000 0.169
56.84000 -1.833
56.86000 2.097
56.88000 3.777
56.90000 3.378
56.92000 0.792
56.94000 2.563
56.96000 2.590
56.98000 3.096
57.00000 2.941
57.02000 2.376
57.04000 4.016
57.06000 2.225
57.08000 0.126
57.10000 -0.642
57.12000 0.378
57.14000 -0.722
57.16000 -1.775
57.18000 -1.019
57.20000 1.226
57.22000 -1.514
57.24000 -0.610
57.26000 2.996
57.28000 4.207
57.30000 2.949
57.32000 0.986
57.34000 3.389
57.36000 -2.274
57.38000 -1.967
57.40000 0.739
57.42000 0.762
57.44000 4.078
57.46000 2.268
57.48000 4.215
57.50000 1.233
57.52000 4.843
57.54000 3.741
57.56000 1.635
57.58000 4.131
57.60000 1.381
57.62000 0.662
57.64000 2.034
57.66000 3.326
57.68000 2.357
57.70000 1.057
57.72000 4.082
57.74000 2.129
57.76000 -1.926
57.78000 0.252
57.80000 0.367
57.82000 -0.293
57.84000 1.488
57.86000 0.844
57.88000 1.136
57.90000 -1.873
57.92000 2.044
57.94000 0.300
57.96000 -0.769
57.98000 -2.267
58.00000 1.264
58.02000 -1.233
58.04000 0.910
58.06000 2.849
58.08000 0.308
58.10000 -1.437
58.12000 -0.912
58.14000 -0.937
58.16000 -0.662
58.18000 -1.070
58.20000 -0.917
58.22000 0.428
58.24000 2.948
58.26000 2.251
58.28000 -0.436
58.30000 -1.201
58.32000 -1.230
58.34000 0.434
58.36000 -1.863
58.38000 -2.251
58.40000 0.354
58.42000 3.498
58.44000 4.045
58.46000 2.401
58.48000 1.708
58.50000 4.827
58.52000 2.606
58.54000 -1.234
58.56000 -0.477
58.58000 1.334
58.60000 3.083
58.62000 3.785
58.64000 0.938
58.66000 2.635
58.68000 3.049
58.70000 1.363
58.72000 2.476
58.74000 -1.598
58.76000 -1.606
58.78000 -1.336
58.80000 -1.245
58.82000 0.750
58.84000 1.322
58.86000 1.512
58.88000 -0.503
58.90000 3.359
58.92000 0.456
58.94000 -0.861
58.96000 -1.853
58.98000 0.809
59.00000 4.513
59.02000 4.527
59.04000 3.203
59.06000 1.970
59.08000 0.936
59.10000 0.171
59.12000 -1.248
59.14000 -2.252
59.16000 0.626
59.18000 1.435
59.20000 1.217
59.22000 -1.958
59.24000 -0.931
59.26000 1.200
59.28000 2.226
59.30000 2.659
59.32000 -1.120
59.34000 0.359
59.36000 0.803
59.38000 2.424
59.40000 -0.681
59.42000 1.052
59.44000 1.126
59.46000 -1.763
59.48000 -2.112
59.50000 -1.846
59.52000 -0.386
59.54000 -0.200
59.56000 -0.729
59.58000 1.900
59.60000 -2.214
59.62000 -0.333
59.64000 -0.998
59.66000 -0.426
59.68000 -1.201
59.70000 -1.872
59.72000 -1.067
59.74000 -0.751
59.76000 -2.244
59.78000 -1.375
59.80000 1.706
59.82000 5.376
59.84000 2.811
59.86000 1.522
59.88000 1.340
59.90000 1.036
59.92000 -0.600
59.94000 -1.134
59.96000 2.676
59.98000 6.007
60.00000 1.923
60.02000 1.330
60.04000 0.631
60.06000 1.507
60.08000 2.579
60.10000 -1.938
60.12000 1.137
60.14000 2.599
60.16000 0.518
60.18000 -0.913
60.20000 0.867
60.22000 0.614
60.24000 0.731
60.26000 1.125
60.28000 1.403
60.30000 1.426
60.32000 -1.419
60.34000 -0.075
60.36000 -1.032
60.38000 0.154
60.40000 0.916
60.42000 -1.507
60.44000 -2.190
60.46000 -0.368
60.48000 -1.387
60.50000 0.932
60.52000 3.544
60.54000 4.835
60.56000 3.108
60.58000 6.580
60.60000 3.795
60.62000 0.003
60.64000 0.235
60.66000 2.778
60.68000 3.882
60.70000 2.740
60.72000 1.250
60.74000 3.272
60.76000 4.136
60.78000 0.636
60.80000 3.672
60.82000 4.901
60.84000 3.840
60.86000 4.697
60.88000 2.317
60.90000 -0.915
60.92000 4.157
60.94000 5.220
60.96000 0.167
60.98000 0.789
61.00000 2.535
61.02000 2.625
61.04000 0.390
61.06000 -2.150
61.08000 0.993
61.10000 0.811
61.12000 -1.617
61.14000 0.453
61.16000 1.436
61.18000 2.882
61.20000 2.685
61.22000 2.086
61.24000 3.235
61.26000 3.564
61.28000 4.612
61.30000 1.172
61.32000 1.009
61.34000 1.952
61.36000 4.382
61.38000 1.378
61.40000 2.519
61.42000 3.151
61.44000 0.224
61.46000 0.503
61.48000 -0.523
61.50000 0.358
61.52000 -0.286
61.54000 1.263
61.56000 3.582
61.58000 -0.962
61.60000 -1.361
61.62000 0.222
61.64000 -1.107
61.66000 -0.696
61.68000 1.156
61.70000 2.135
61.72000 0.343
61.74000 0.893
61.76000 -0.698
61.78000 -2.163
61.80000 -0.280
61.82000 -1.334
61.84000 1.440
61.86000 1.996
61.88000 3.810
61.90000 0.306
61.92000 0.358
61.94000 0.974
61.96000 2.154
61.98000 4.381
62.00000 -0.063
62.02000 1.901
62.04000 2.450
62.06000 2.414
62.08000 1.604
62.10000 -0.733
62.12000 1.046
62.14000 1.477
62.16000 -0.145
62.18000 -1.529
62.20000 -1.357
62.22000 -1.387
62.24000 0.947
62.26000 1.995
62.28000 1.346
62.30000 0.515
62.32000 -1.856
62.34000 -0.903
62.36000 1.787
62.38000 1.067
62.40000 3.294
62.42000 1.423
62.44000 0.698
62.46000 0.320
62.48000 -1.756
62.50000 -2.144
62.52000 -0.520
62.54000 -0.406
62.56000 0.496
62.58000 3.515
62.60000 4.914
62.62000 2.877
62.64000 1.781
62.66000 0.827
62.68000 -1.195
62.70000 0.960
62.72000 3.431
62.74000 1.868
62.76000 -0.201
62.78000 0.119
62.80000 2.626
62.82000 1.482
62.84000 2.084
62.86000 -0.541
62.88000 -0.216
62.90000 2.730
62.92000 1.445
62.94000 2.031
62.96000 -1.319
62.98000 -2.136
63.00000 -1.512
63.02000 1.347
63.04000 1.335
63.06000 0.270
63.08000 0.573
63.10000 1.191
63.12000 -0.012
63.14000 0.904
63.16000 0.466
63.18000 -1.804
63.20000 2.342
63.22000 2.549
63.24000 0.156
63.26000 1.283
63.28000 2.144
63.30000 0.328
63.32000 1.245
63.34000 0.075
63.36000 -0.358
63.38000 -0.715
63.40000 -1.346
63.42000 1.155
63.44000 1.835
63.46000 1.326
63.48000 2.759
63.50000 1.785
63.52000 2.504
63.54000 0.640
63.56000 1.598
63.58000 -0.520
63.60000 0.042
63.62000 1.217
63.64000 1.292
63.66000 0.659
63.68000 4.065
63.70000 0.741
63.72000 1.447
63.74000 -0.301
63.76000 -2.019
63.78000 -1.668
63.80000 0.094
63.82000 -0.282
63.84000 0.110
63.86000 0.665
63.88000 0.727
63.90000 1.506
63.92000 -0.260
63.94000 0.813
63.96000 1.576
63.98000 1.218
64.00000 -0.998
64.02000 -2.097
64.04000 -1.042
64.06000 1.482
64.08000 0.007
64.10000 0.075
64.12000 -2.093
64.14000 -2.050
64.16000 -0.573
64.18000 -0.397
64.20000 -0.377
64.22000 0.971
64.24000 0.629
64.26000 3.130
64.28000 3.674
64.30000 0.906
64.32000 -0.643
64.34000 0.795
64.36000 1.936
64.38000 4.922
64.40000 5.179
64.42000 4.043
64.44000 1.631
64.46000 0.403
64.48000 0.851
64.50000 0.249
64.52000 -0.082
64.54000 -0.332
64.56000 1.525
64.58000 2.119
64.60000 1.116
64.62000 -0.290
64.64000 1.936
64.66000 2.832
64.68000 2.878
64.70000 -0.240
64.72000 0.947
64.74000 2.808
64.76000 2.587
64.78000 3.751
64.80000 3.555
64.82000 1.626
64.84000 1.461
64.86000 0.300
64.88000 2.963
64.90000 2.953
64.92000 1.508
64.94000 -0.123
64.96000 1.866
64.98000 0.768
65.00000 0.847
65.02000 -1.976
65.04000 -2.086
65.06000 0.777
65.08000 0.500
65.10000 2.615
65.12000 3.677
65.14000 0.298
65.16000 -1.651
65.18000 -0.783
65.20000 0.657
65.22000 1.835
65.24000 5.049
65.26000 2.558
65.28000 2.763
65.30000 2.724
65.32000 4.551
65.34000 1.000
65.36000 1.846
65.38000 1.569
65.40000 1.338
65.42000 2.002
65.44000 2.564
65.46000 1.763
65.48000 2.049
65.50000 1.462
65.52000 0.122
65.54000 -0.195
65.56000 1.625
65.58000 2.509
65.60000 -0.418
65.62000 0.650
65.64000 3.605
65.66000 1.175
65.68000 1.180
65.70000 2.298
65.72000 2.830
65.74000 2.672
65.76000 1.988
65.78000 2.890
65.80000 -0.068
65.82000 1.669
65.84000 1.629
65.86000 0.682
65.88000 0.300
65.90000 -1.041
65.92000 -1.450
65.94000 -2.054
65.96000 -0.735
65.98000 2.701
66.00000 2.126
66.02000 2.599
66.04000 2.982
66.06000 4.612
66.08000 2.948
66.10000 3.123
66.12000 3.070
66.14000 2.095
66.16000 -0.047
66.18000 3.005
66.20000 -0.067
66.22000 0.791
66.24000 1.873
66.26000 2.404
66.28000 3.022
66.30000 0.864
66.32000 -0.061
66.34000 -2.043
66.36000 -1.133
66.38000 -1.682
66.40000 2.362
66.42000 2.970
66.44000 2.213
66.46000 2.912
66.48000 3.232
66.50000 4.476
66.52000 2.459
66.54000 2.341
66.56000 0.987
66.58000 -0.725
66.60000 3.293
66.62000 0.529
66.64000 1.124
66.66000 0.690
66.68000 0.141
66.70000 -1.021
66.72000 1.188
66.74000 2.671
66.76000 1.415
66.78000 -1.002
66.80000 -2.074
66.82000 -1.619
66.84000 -1.468
66.86000 -1.751
66.88000 -0.141
66.90000 1.741
66.92000 3.519
66.94000 1.334
66.96000 1.266
66.98000 -0.730
67.00000 -1.648
67.02000 -1.523
67.04000 0.381
67.06000 -0.945
67.08000 -0.166
67.10000 -0.650
67.12000 -0.959
67.14000 1.057
67.16000 1.587
67.18000 1.213
67.20000 0.687
67.22000 -1.192
67.24000 -2.098
67.26000 -1.406
67.28000 0.779
67.30000 0.763
67.32000 -0.056
67.34000 -0.848
67.36000 -0.670
67.38000 -0.059
67.40000 0.006
67.42000 -0.973
67.44000 0.300
67.46000 -1.781
67.48000 -2.103
67.50000 0.943
67.52000 1.082
67.54000 0.850
67.56000 0.411
67.58000 0.836
67.60000 0.249
67.62000 -0.566
67.64000 -2.035
67.66000 -2.115
67.68000 -1.524
67.70000 -0.801
67.72000 0.019
67.74000 -0.076
67.76000 -0.225
67.78000 -1.158
67.80000 -1.568
67.82000 -0.624
67.84000 -1.769
67.86000 -1.430
67.88000 -1.293
67.90000 -0.299
67.92000 -1.313
67.94000 -0.383
67.96000 -0.423
67.98000 0.821
68.00000 0.718
68.02000 1.384
68.04000 0.717
68.06000 3.095
68.08000 0.842
68.10000 -0.198
68.12000 -0.211
68.14000 0.272
68.16000 -0.618
68.18000 2.248
68.20000 5.144
68.22000 5.482
68.24000 2.641
68.26000 2.291
68.28000 3.043
68.30000 2.677
68.32000 2.937
68.34000 3.534
68.36000 3.964
68.38000 4.997
68.40000 5.473
68.42000 2.800
68.44000 6.357
68.46000 8.572
68.48000 8.791
68.50000 8.671
68.52000 6.547
68.54000 8.133
68.56000 8.045
68.58000 6.575
68.60000 11.837
68.62000 15.837
68.64000 13.107
68.66000 15.255
68.68000 15.303
68.70000 17.565
68.72000 16.307
68.74000 18.459
68.76000 18.696
68.78000 18.544
68.80000 19.590
68.82000 18.073
68.84000 19.767
68.86000 20.878
68.88000 19.787
68.90000 17.871
68.92000 17.245
68.94000 16.248
68.96000 16.564
68.98000 19.903
69.00000 20.956
69.02000 19.811
69.04000 17.812
69.06000 19.386
69.08000 19.653
69.10000 20.002
69.12000 16.626
69.14000 13.812
69.16000 13.004
69.18000 13.430
69.20000 11.507
69.22000 15.417
69.24000 13.683
69.26000 12.814
69.28000 12.540
69.30000 12.837
69.32000 13.588
69.34000 14.083
69.36000 10.802
69.38000 9.825
69.40000 7.200
69.42000 7.916
69.44000 6.657
69.46000 9.514
69.48000 8.847
69.50000 7.827
69.52000 5.905
69.54000 5.464
69.56000 6.527
69.58000 8.545
69.60000 7.532
69.62000 4.671
69.64000 1.808
69.66000 2.932
69.68000 5.998
69.70000 7.166
69.72000 1.833
69.74000 0.296
69.76000 0.588
69.78000 2.237
69.80000 3.031
69.82000 0.938
69.84000 1.365
69.86000 3.371
69.88000 0.871
69.90000 2.328
69.92000 0.643
69.94000 1.247
69.96000 0.433
69.98000 1.295
70.00000 2.781
70.02000 1.186
70.04000 0.582
70.06000 -0.078
70.08000 -0.229
70.10000 1.613
70.12000 2.529
70.14000 1.854
70.16000 0.902
70.18000 1.663
70.20000 -1.902
70.22000 -1.545
70.24000 0.330
70.26000 2.698
70.28000 4.679
70.30000 2.149
70.32000 0.612
70.34000 -0.930
70.36000 0.353
70.38000 -0.145
70.40000 0.798
70.42000 1.509
70.44000 1.258
70.46000 -1.949
70.48000 -1.156
70.50000 -0.857
70.52000 1.231
70.54000 -1.572
70.56000 -0.771
70.58000 0.862
70.60000 1.840
70.62000 0.938
70.64000 0.628
70.66000 -1.689
70.68000 1.008
70.70000 -0.148
70.72000 -0.725
70.74000 1.395
70.76000 3.614
70.78000 2.971
70.80000 1.022
70.82000 0.898
70.84000 -1.921
70.86000 -1.771
70.88000 1.334
70.90000 0.178
70.92000 2.579
70.94000 3.602
70.96000 3.245
70.98000 3.374
71.00000 1.052
71.02000 0.607
71.04000 2.308
71.06000 2.115
71.08000 2.515
71.10000 3.202
71.12000 3.277
71.14000 3.370
71.16000 0.636
71.18000 -0.573
71.20000 1.350
71.22000 0.225
71.24000 2.037
71.26000 1.468
71.28000 1.185
71.30000 1.650
71.32000 -0.018
71.34000 0.152
71.36000 1.577
71.38000 2.006
71.40000 2.441
71.42000 0.039
71.44000 -0.205
71.46000 -0.568
71.48000 0.682
71.50000 -0.115
71.52000 0.816
71.54000 0.160
71.56000 0.292
71.58000 1.885
71.60000 1.589
71.62000 0.991
71.64000 1.277
71.66000 4.013
71.68000 0.689
71.70000 0.180
71.72000 -0.720
71.74000 -0.351
71.76000 -1.878
71.78000 -0.459
71.80000 -0.635
71.82000 -0.805
71.84000 0.295
71.86000 1.562
71.88000 2.246
71.90000 1.634
71.92000 1.129
71.94000 1.586
71.96000 1.951
71.98000 2.581
72.00000 2.392
72.02000 1.087
72.04000 -1.746
72.06000 -0.655
72.08000 3.282
72.10000 0.854
72.12000 0.391
72.14000 -1.839
72.16000 1.141
72.18000 1.846
72.20000 2.614
72.22000 3.448
72.24000 2.913
72.26000 -0.729
72.28000 0.823
72.30000 2.880
72.32000 2.443
72.34000 0.896
72.36000 1.399
72.38000 2.222
72.40000 1.766
72.42000 0.913
72.44000 1.986
72.46000 3.181
72.48000 4.584
72.50000 3.495
72.52000 1.261
72.54000 3.055
72.56000 5.098
72.58000 5.210
72.60000 2.488
72.62000 -0.548
72.64000 2.906
72.66000 2.162
72.68000 -1.817
72.70000 0.253
72.72000 4.281
72.74000 4.148
72.76000 3.146
72.78000 0.268
72.80000 -0.429
72.82000 -0.868
72.84000 0.124
72.86000 3.907
72.88000 1.010
72.90000 0.455
72.92000 1.501
72.94000 1.575
72.96000 2.903
72.98000 2.569
73.00000 2.466
73.02000 -0.587
73.04000 1.183
73.06000 1.214
73.08000 3.828
73.10000 4.104
73.12000 1.413
73.14000 -0.557
73.16000 -0.746
73.18000 -1.157
73.20000 -0.748
73.22000 -0.366
73.24000 0.483
73.26000 0.695
73.28000 1.601
73.30000 0.458
73.32000 -0.934
73.34000 1.077
73.36000 2.056
73.38000 -0.054
73.40000 -1.081
73.42000 1.317
73.44000 2.366
73.46000 3.215
73.48000 1.732
73.50000 1.042
73.52000 -0.798
73.54000 0.116
73.56000 2.808
73.58000 1.387
73.60000 -0.228
73.62000 0.042
73.64000 0.482
73.66000 -1.816
73.68000 -0.849
73.70000 1.176
73.72000 1.859
73.74000 -0.399
73.76000 1.497
73.78000 2.393
73.80000 1.479
73.82000 2.456
73.84000 0.818
73.86000 0.135
73.88000 -0.693
73.90000 3.067
73.92000 0.711
73.94000 0.108
73.96000 0.192
73.98000 1.693
74.00000 2.822
74.02000 2.405
74.04000 1.203
74.06000 -1.818
74.08000 -0.920
74.10000 2.631
74.12000 1.700
74.14000 0.980
74.16000 3.011
74.18000 -0.848
74.20000 -1.432
74.22000 -0.334
74.24000 0.906
74.26000 0.216
74.28000 -0.288
74.30000 1.754
74.32000 0.473
74.34000 -1.176
74.36000 1.133
74.38000 -0.570
74.40000 1.748
74.42000 -0.850
74.44000 0.162
74.46000 2.090
74.48000 0.043
74.50000 0.026
74.52000 0.403
74.54000 0.592
74.56000 1.080
74.58000 0.888
74.60000 0.113
74.62000 0.439
74.64000 -1.409
74.66000 -0.236
74.68000 -1.352
74.70000 0.846
74.72000 1.748
74.74000 -0.931
74.76000 -1.831
74.78000 -1.770
74.80000 -1.805
74.82000 -1.139
74.84000 -0.463
74.86000 0.270
74.88000 -0.099
74.90000 1.096
74.92000 3.141
74.94000 0.680
74.96000 0.976
74.98000 0.889
75.00000 0.671
75.02000 -1.532
75.04000 -1.050
75.06000 1.762
75.08000 -0.815
75.10000 0.651
75.12000 2.270
75.14000 0.935
75.16000 1.966
75.18000 1.306
75.20000 -0.040
75.22000 0.721
75.24000 2.885
75.26000 0.342
75.28000 -0.277
75.30000 1.568
75.32000 2.542
75.34000 -0.782
75.36000 -0.345
75.38000 3.731
75.40000 3.260
75.42000 0.620
75.44000 -1.513
75.46000 -0.755
75.48000 -0.341
75.50000 1.108
75.52000 0.051
75.54000 -1.813
75.56000 -0.418
75.58000 -1.547
75.60000 -0.905
75.62000 -0.075
75.64000 -1.739
75.66000 -1.513
75.68000 -0.245
75.70000 2.766
75.72000 3.656
75.74000 1.459
75.76000 -1.826
75.78000 -0.429
75.80000 1.508
75.82000 2.330
75.84000 -0.807
75.86000 -0.019
75.88000 -0.112
75.90000 0.385
75.92000 -0.045
75.94000 0.472
75.96000 1.988
75.98000 2.957
76.00000 2.451
76.02000 0.320
76.04000 -1.216
76.06000 0.671
76.08000 -0.290
76.10000 1.226
76.12000 2.642
76.14000 0.118
76.16000 -1.838
76.18000 -0.023
76.20000 2.564
76.22000 -1.037
76.24000 -0.647
76.26000 1.051
76.28000 2.541
76.30000 1.320
76.32000 1.527
76.34000 1.174
76.36000 -1.600
76.38000 -1.096
76.40000 0.551
76.42000 -0.439
76.44000 0.365
76.46000 2.674
76.48000 3.102
76.50000 0.742
76.52000 0.074
76.54000 2.389
76.56000 1.450
76.58000 0.695
76.60000 1.201
76.62000 0.313
76.64000 0.005
76.66000 0.187
76.68000 0.615
76.70000 0.903
76.72000 0.944
76.74000 -0.297
76.76000 0.160
76.78000 2.649
76.80000 2.351
76.82000 -0.040
76.84000 0.164
76.86000 1.459
76.88000 4.149
76.90000 3.173
76.92000 -0.302
76.94000 -1.826
76.96000 2.140
76.98000 3.703
77.00000 2.771
77.02000 2.361
77.04000 3.806
77.06000 0.219
77.08000 -1.036
77.10000 1.706
77.12000 2.628
77.14000 2.073
77.16000 4.500
77.18000 3.592
77.20000 4.251
77.22000 0.524
77.24000 -1.806
77.26000 1.864
77.28000 4.117
77.30000 2.372
77.32000 5.569
77.34000 3.524
77.36000 1.436
77.38000 0.944
77.40000 -0.408
77.42000 0.475
77.44000 1.972
77.46000 1.713
77.48000 0.635
77.50000 0.977
77.52000 2.759
77.54000 2.755
77.56000 1.697
77.58000 -0.084
77.60000 0.483
77.62000 -0.718
77.64000 0.062
77.66000 1.406
77.68000 4.653
77.70000 6.053
77.72000 3.039
77.74000 2.597
77.76000 2.772
77.78000 3.395
77.80000 1.072
77.82000 0.487
77.84000 0.947
77.86000 1.503
77.88000 0.716
77.90000 -0.462
77.92000 1.839
77.94000 1.275
77.96000 1.376
77.98000 2.595
78.00000 2.108
78.02000 0.881
78.04000 5.250
78.06000 3.620
78.08000 -1.823
78.10000 -0.473
78.12000 0.753
78.14000 1.645
78.16000 2.724
78.18000 -0.581
78.20000 0.353
78.22000 4.249
78.24000 2.331
78.26000 2.000
78.28000 2.672
78.30000 2.228
78.32000 2.653
78.34000 1.803
78.36000 -0.039
78.38000 0.149
78.40000 1.415
78.42000 0.808
78.44000 -0.525
78.46000 1.644
78.48000 2.962
78.50000 2.017
78.52000 0.359
78.54000 -1.113
78.56000 -0.184
78.58000 1.880
78.60000 -0.874
78.62000 -1.847
78.64000 1.150
78.66000 3.879
78.68000 2.663
78.70000 2.594
78.72000 1.578
78.74000 1.209
78.76000 3.872
78.78000 1.739
78.80000 0.479
78.82000 1.873
78.84000 1.249
78.86000 1.887
78.88000 1.756
78.90000 2.136
78.92000 2.900
78.94000 -1.776
78.96000 1.283
78.98000 2.521
79.00000 1.616
79.02000 3.168
79.04000 3.493
79.06000 2.448
79.08000 0.989
79.10000 -0.186
79.12000 3.383
79.14000 1.482
79.16000 1.995
79.18000 2.296
79.20000 1.047
79.22000 4.953
79.24000 3.262
79.26000 1.940
79.28000 3.019
79.30000 0.316
79.32000 4.075
79.34000 3.417
79.36000 7.331
79.38000 5.686
79.40000 5.231
79.42000 3.713
79.44000 2.816
79.46000 4.562
79.48000 5.312
79.50000 2.513
79.52000 3.947
79.54000 3.077
79.56000 4.007
79.58000 5.289
79.60000 1.886
79.62000 -1.147
79.64000 -1.825
79.66000 -0.013
79.68000 1.947
79.70000 3.245
79.72000 4.182
79.74000 2.166
79.76000 3.065
79.78000 2.328
79.80000 3.789
79.82000 3.075
79.84000 0.508
79.86000 3.752
79.88000 2.691
79.90000 4.870
79.92000 2.127
79.94000 2.393
79.96000 1.795
79.98000 4.359
80.00000 2.651
80.02000 -0.153
80.04000 0.994
80.06000 2.080
80.08000 4.294
80.10000 6.862
80.12000 3.280
80.14000 -0.653
80.16000 0.356
80.18000 0.295
80.20000 1.586
80.22000 3.402
80.24000 3.756
80.26000 3.694
80.28000 0.991
80.30000 -0.012
80.32000 -1.875
80.34000 -0.343
80.36000 -0.294
80.38000 1.272
80.40000 4.633
80.42000 2.078
80.44000 0.570
80.46000 1.233
80.48000 1.219
80.50000 2.094
80.52000 3.977
80.54000 3.445
80.56000 2.814
80.58000 3.123
80.60000 3.171
80.62000 3.675
80.64000 3.531
80.66000 4.046
80.68000 1.070
80.70000 1.199
80.72000 2.727
80.74000 0.238
80.76000 2.731
80.78000 2.216
80.80000 0.656
80.82000 0.434
80.84000 -1.080
80.86000 0.368
80.88000 2.747
80.90000 1.552
80.92000 -1.566
80.94000 -1.912
80.96000 -0.232
80.98000 -0.682
81.00000 0.300
81.02000 2.278
81.04000 1.133
81.06000 4.005
81.08000 1.032
81.10000 -0.382
81.12000 -0.506
81.14000 -1.526
81.16000 1.837
81.18000 3.385
81.20000 3.543
81.22000 0.187
81.24000 -1.295
81.26000 -1.004
81.28000 -1.600
81.30000 -1.541
81.32000 -0.228
81.34000 2.176
81.36000 3.226
81.38000 3.728
81.40000 0.598
81.42000 1.225
81.44000 0.004
81.46000 1.215
81.48000 -0.636
81.50000 1.813
81.52000 1.729
81.54000 1.218
81.56000 1.955
81.58000 4.289
81.60000 4.680
81.62000 2.006
81.64000 1.613
81.66000 -0.389
81.68000 -1.992
81.70000 -0.865
81.72000 2.066
81.74000 0.929
81.76000 1.004
81.78000 3.312
81.80000 4.779
81.82000 5.172
81.84000 -1.028
81.86000 0.372
81.88000 3.183
81.90000 -0.238
81.92000 2.937
81.94000 4.927
81.96000 4.853
81.98000 4.152
82.00000 3.100
82.02000 5.278
82.04000 4.674
82.06000 6.811
82.08000 5.948
82.10000 5.836
82.12000 3.862
82.14000 3.807
82.16000 4.667
82.18000 5.813
82.20000 5.128
82.22000 8.174
82.24000 5.854
82.26000 6.462
82.28000 9.395
82.30000 11.562
82.32000 6.982
82.34000 7.556
82.36000 10.502
82.38000 10.723
82.40000 14.702
82.42000 13.696
82.44000 16.458
82.46000 16.144
82.48000 15.614
82.50000 17.352
82.52000 18.196
82.54000 20.901
82.56000 24.344
82.58000 21.386
82.60000 22.558
82.62000 22.506
82.64000 23.792
82.66000 27.131
82.68000 27.375
82.70000 27.316
82.72000 26.001
82.74000 29.041
82.76000 29.620
82.78000 30.157
82.80000 35.494
82.82000 35.867
82.84000 38.977
82.86000 39.177
82.88000 43.747
82.90000 44.110
82.92000 42.438
82.94000 41.536
82.96000 49.178
82.98000 52.578
83.00000 48.854
83.02000 49.195
83.04000 46.618
83.06000 51.425
83.08000 46.643
83.10000 53.106
83.12000 51.809
83.14000 46.350
83.16000 50.411
83.18000 49.839
83.20000 47.227
83.22000 52.194
83.24000 52.850
83.26000 50.088
83.28000 47.311
83.30000 46.492
83.32000 45.848
83.34000 47.430
83.36000 46.955
83.38000 43.966
83.40000 42.733
83.42000 36.265
83.44000 33.015
83.46000 38.766
83.48000 38.579
83.50000 38.024
83.52000 35.137
83.54000 37.369
83.56000 32.951
83.58000 29.766
83.60000 26.865
83.62000 25.769
83.64000 28.741
83.66000 26.916
83.68000 23.676
83.70000 23.385
83.72000 27.252
83.74000 27.212
83.76000 24.710
83.78000 22.605
83.80000 19.037
83.82000 17.149
83.84000 18.068
83.86000 19.893
83.88000 20.911
83.90000 17.466
83.92000 16.500
83.94000 16.563
83.96000 16.960
83.98000 16.808
84.00000 12.116
84.02000 10.871
84.04000 9.706
84.06000 8.331
84.08000 7.697
84.10000 6.841
84.12000 7.477
84.14000 4.103
84.16000 7.271
84.18000 7.488
84.20000 8.443
84.22000 5.870
84.24000 6.914
84.26000 4.832
84.28000 4.599
84.30000 5.918
84.32000 5.097
84.34000 4.234
84.36000 6.807
84.38000 4.145
84.40000 4.033
84.42000 2.587
84.44000 3.161
84.46000 2.473
84.48000 0.909
84.50000 0.620
84.52000 1.441
84.54000 0.973
84.56000 2.726
84.58000 1.663
84.60000 3.248
84.62000 2.828
84.64000 0.133
84.66000 -1.426
84.68000 -0.737
84.70000 0.403
84.72000 1.275
84.74000 -0.140
84.76000 -1.638
84.78000 -1.620
84.80000 0.949
84.82000 5.026
84.84000 1.875
84.86000 1.329
84.88000 2.266
84.90000 2.369
84.92000 0.818
84.94000 0.808
84.96000 -1.989
84.98000 1.196
85.00000 3.004
85.02000 2.935
85.04000 2.565
85.06000 -0.031
85.08000 0.403
85.10000 1.230
85.12000 0.859
85.14000 -0.416
85.16000 1.759
85.18000 2.710
85.20000 3.734
85.22000 2.597
85.24000 0.050
85.26000 -0.612
85.28000 1.353
85.30000 1.082
85.32000 2.976
85.34000 3.214
85.36000 0.388
85.38000 -1.749
85.40000 -1.445
85.42000 0.771
85.44000 1.234
85.46000 -1.184
85.48000 -1.933
85.50000 3.203
85.52000 5.801
85.54000 4.057
85.56000 3.997
85.58000 4.050
85.60000 1.203
85.62000 -1.100
85.64000 -1.919
85.66000 1.187
85.68000 1.108
85.70000 -0.623
85.72000 0.269
85.74000 -0.011
85.76000 1.868
85.78000 1.462
85.80000 1.271
85.82000 -0.115
85.84000 1.908
85.86000 3.052
85.88000 1.426
85.90000 0.840
85.92000 -0.067
85.94000 -0.385
85.96000 3.677
85.98000 1.926
86.00000 -1.479
86.02000 1.284
86.04000 0.914
86.06000 -1.519
86.08000 -0.811
86.10000 -1.350
86.12000 0.261
86.14000 3.340
86.16000 2.811
86.18000 2.567
86.20000 1.717
86.22000 1.423
86.24000 0.352
86.26000 0.998
86.28000 0.509
86.30000 2.864
86.32000 2.919
86.34000 2.391
86.36000 -0.221
86.38000 -1.925
86.40000 0.747
86.42000 3.521
86.44000 4.166
86.46000 5.714
86.48000 4.610
86.50000 2.805
86.52000 1.827
86.54000 3.169
86.56000 4.529
86.58000 3.610
86.60000 3.172
86.62000 7.460
86.64000 8.516
86.66000 8.004
86.68000 7.053
86.70000 6.062
86.72000 4.973
86.74000 3.542
86.76000 6.078
86.78000 7.813
86.80000 6.876
86.82000 6.348
86.84000 7.204
86.86000 7.590
86.88000 10.321
86.90000 10.967
86.92000 11.799
86.94000 11.132
86.96000 12.337
86.98000 10.394
87.00000 10.272
87.02000 12.080
87.04000 13.069
87.06000 13.218
87.08000 14.219
87.10000 15.782
87.12000 14.620
87.14000 17.623
87.16000 18.644
87.18000 19.247
87.20000 19.240
87.22000 18.373
87.24000 20.500
87.26000 24.718
87.28000 24.977
87.30000 19.630
87.32000 20.793
87.34000 23.550
87.36000 20.042
87.38000 23.325
87.40000 26.687
87.42000 28.256
87.44000 27.449
87.46000 28.496
87.48000 28.821
87.50000 33.162
87.52000 31.601
87.54000 28.910
87.56000 29.302
87.58000 28.357
87.60000 28.439
87.62000 28.938
87.64000 28.596
87.66000 30.665
87.68000 33.121
87.70000 30.011
87.72000 27.466
87.74000 27.670
87.76000 26.670
87.78000 27.096
87.80000 26.892
87.82000 29.279
87.84000 29.363
87.86000 26.323
87.88000 27.743
87.90000 24.423
87.92000 20.810
87.94000 21.102
87.96000 19.545
87.98000 23.048
88.00000 21.650
88.02000 18.157
88.04000 19.968
88.06000 20.670
88.08000 16.927
88.10000 14.243
88.12000 16.181
88.14000 18.002
88.16000 19.333
88.18000 18.249
88.20000 16.827
88.22000 14.865
88.24000 13.280
88.26000 12.659
88.28000 13.231
88.30000 13.438
88.32000 11.139
88.34000 8.027
88.36000 8.794
88.38000 6.720
88.40000 8.066
88.42000 6.423
88.44000 6.955
88.46000 5.534
88.48000 5.637
88.50000 5.133
88.52000 5.754
88.54000 4.686
88.56000 4.989
88.58000 3.456
88.60000 2.514
88.62000 4.022
88.64000 3.835
88.66000 4.454
88.68000 4.766
88.70000 3.919
88.72000 5.869
88.74000 4.306
88.76000 1.350
88.78000 1.462
88.80000 1.190
88.82000 2.767
88.84000 0.254
88.86000 0.927
88.88000 1.817
88.90000 1.844
88.92000 1.177
88.94000 1.368
88.96000 0.642
88.98000 1.069
89.00000 2.607
89.02000 2.224
89.04000 1.526
89.06000 1.633
89.08000 2.332
89.10000 0.399
89.12000 0.991
89.14000 2.774
89.16000 1.242
89.18000 -1.234
89.20000 -1.415
89.22000 -1.314
89.24000 1.791
89.26000 2.048
89.28000 1.445
89.30000 -1.829
89.32000 -0.400
89.34000 0.081
89.36000 2.043
89.38000 -0.567
89.40000 0.702
89.42000 -0.376
89.44000 1.403
89.46000 2.892
89.48000 3.610
89.50000 4.325
89.52000 2.141
89.54000 0.902
89.56000 1.673
89.58000 3.229
89.60000 0.880
89.62000 -1.790
89.64000 -0.703
89.66000 2.739
89.68000 1.540
89.70000 0.848
89.72000 2.214
89.74000 0.125
89.76000 -1.729
89.78000 0.728
89.80000 1.613
89.82000 -0.457
89.84000 -0.018
89.86000 1.612
89.88000 1.403
89.90000 1.924
89.92000 1.323
89.94000 1.507
89.96000 3.351
89.98000 2.628
90.00000 1.440
90.02000 2.705
90.04000 3.365
90.06000 1.591
90.08000 -0.760
90.10000 0.531
90.12000 2.250
90.14000 0.727
90.16000 -0.519
90.18000 0.117
90.20000 0.358
90.22000 2.691
90.24000 2.784
90.26000 0.708
90.28000 0.230
90.30000 -1.378
90.32000 -0.131
90.34000 0.616
90.36000 1.693
90.38000 0.167
90.40000 -0.333
90.42000 -0.253
90.44000 -0.513
90.46000 -1.109
90.48000 -1.482
90.50000 -0.886
90.52000 -1.739
90.54000 -0.218
90.56000 2.670
90.58000 3.841
90.60000 5.754
90.62000 5.480
90.64000 4.689
90.66000 -0.320
90.68000 -0.224
90.70000 -1.222
90.72000 0.367
90.74000 1.075
90.76000 1.257
90.78000 0.921
90.80000 0.870
90.82000 2.224
90.84000 -0.142
90.86000 -1.725
90.88000 -0.209
90.90000 0.677
90.92000 2.563
90.94000 -0.498
90.96000 -1.494
90.98000 2.826
91.00000 3.530
91.02000 1.932
91.04000 1.435
91.06000 3.757
91.08000 3.245
91.10000 0.043
91.12000 -1.711
91.14000 -0.781
91.16000 1.581
91.18000 2.676
91.20000 2.946
91.22000 4.383
91.24000 2.800
91.26000 0.558
91.28000 -0.944
91.30000 2.275
91.32000 3.522
91.34000 1.417
91.36000 1.550
91.38000 0.734
91.40000 -0.220
91.42000 0.226
91.44000 3.020
91.46000 3.752
91.48000 5.337
91.50000 4.847
91.52000 4.363
91.54000 2.489
91.56000 2.801
91.58000 1.516
91.60000 3.049
91.62000 4.048
91.64000 3.644
91.66000 5.058
91.68000 4.462
91.70000 3.800
91.72000 2.185
91.74000 2.526
91.76000 3.619
91.78000 3.711
91.80000 -0.714
91.82000 1.925
91.84000 0.516
91.86000 1.608
91.88000 -1.697
91.90000 0.940
91.92000 1.689
91.94000 4.073
91.96000 4.431
91.98000 0.663
92.00000 3.962
92.02000 4.179
92.04000 2.452
92.06000 3.751
92.08000 0.908
92.10000 3.790
92.12000 4.848
92.14000 5.494
92.16000 6.500
92.18000 9.016
92.20000 6.084
92.22000 2.886
92.24000 2.665
92.26000 2.407
92.28000 0.312
92.30000 -1.560
92.32000 -1.098
92.34000 2.988
92.36000 0.622
92.38000 -0.555
92.40000 -0.308
92.42000 0.594
92.44000 0.037
92.46000 0.647
92.48000 0.723
92.50000 2.324
92.52000 0.763
92.54000 -0.729
92.56000 0.180
92.58000 1.552
92.60000 2.731
92.62000 3.675
92.64000 4.017
92.66000 5.332
92.68000 4.969
92.70000 3.483
92.72000 4.173
92.74000 4.984
92.76000 6.101
92.78000 1.500
92.80000 -1.686
92.82000 1.577
92.84000 2.486
92.86000 1.682
92.88000 1.148
92.90000 1.759
92.92000 2.755
92.94000 3.562
92.96000 2.417
92.98000 3.084
93.00000 4.843
93.02000 5.880
93.04000 3.776
93.06000 4.479
93.08000 3.945
93.10000 0.878
93.12000 5.704
93.14000 5.202
93.16000 1.456
93.18000 3.967
93.20000 8.098
93.22000 6.261
93.24000 4.618
93.26000 4.533
93.28000 5.550
93.30000 4.783
93.32000 2.244
93.34000 7.570
93.36000 9.123
93.38000 2.980
93.40000 3.074
93.42000 5.235
93.44000 4.917
93.46000 0.946
93.48000 1.773
93.50000 3.059
93.52000 3.377
93.54000 2.502
93.56000 2.719
93.58000 2.526
93.60000 0.410
93.62000 1.654
93.64000 4.137
93.66000 6.099
93.68000 3.614
93.70000 3.752
93.72000 5.659
93.74000 -0.715
93.76000 -1.712
93.78000 0.541
93.80000 2.860
93.82000 2.378
93.84000 4.121
93.86000 4.853
93.88000 7.624
93.90000 4.454
93.92000 2.654
93.94000 1.852
93.96000 2.045
93.98000 4.556
94.00000 2.017
94.02000 3.011
94.04000 3.367
94.06000 4.141
94.08000 1.378
94.10000 1.309
94.12000 4.323
94.14000 4.027
94.16000 -0.235
94.18000 -1.740
94.20000 0.704
94.22000 0.104
94.24000 -1.557
94.26000 -0.201
94.28000 0.467
94.30000 1.397
94.32000 1.835
94.34000 -0.290
94.36000 1.264
94.38000 3.532
94.40000 3.565
94.42000 2.545
94.44000 5.685
94.46000 3.064
94.48000 2.556
94.50000 0.384
94.52000 -0.553
94.54000 2.925
94.56000 3.842
94.58000 3.899
94.60000 0.491
94.62000 3.405
94.64000 4.747
94.66000 1.049
94.68000 0.591
94.70000 -1.185
94.72000 2.113
94.74000 -0.294
94.76000 -0.220
94.78000 0.069
94.80000 -0.628
94.82000 1.300
94.84000 3.074
94.86000 0.507
94.88000 3.173
94.90000 4.017
94.92000 2.862
94.94000 2.330
94.96000 -1.763
94.98000 0.622
95.00000 3.589
95.02000 4.143
95.04000 3.898
95.06000 4.398
95.08000 3.777
95.10000 1.885
95.12000 2.598
95.14000 0.486
95.16000 -0.370
95.18000 2.297
95.20000 2.800
95.22000 5.573
95.24000 2.986
95.26000 1.633
95.28000 -1.177
95.30000 1.976
95.32000 4.886
95.34000 0.721
95.36000 -1.744
95.38000 2.655
95.40000 6.297
95.42000 3.000
95.44000 1.594
95.46000 2.736
95.48000 1.088
95.50000 4.575
95.52000 6.373
95.54000 4.215
95.56000 4.270
95.58000 1.210
95.60000 3.286
95.62000 4.491
95.64000 1.426
95.66000 1.878
95.68000 5.066
95.70000 3.974
95.72000 -0.007
95.74000 -1.748
95.76000 -0.278
95.78000 1.159
95.80000 -0.480
95.82000 -0.320
95.84000 -0.305
95.86000 -1.230
95.88000 -0.965
95.90000 -0.229
95.92000 1.438
95.94000 2.641
95.96000 3.038
95.98000 -0.701
96.00000 0.318
96.02000 1.174
96.04000 1.071
96.06000 0.578
96.08000 3.821
96.10000 0.911
96.12000 -0.708
96.14000 3.155
96.16000 4.965
96.18000 3.756
96.20000 3.056
96.22000 3.716
96.24000 2.021
96.26000 -0.422
96.28000 2.803
96.30000 2.736
96.32000 1.286
96.34000 2.062
96.36000 3.929
96.38000 3.426
96.40000 5.819
96.42000 6.235
96.44000 6.430
96.46000 6.447
96.48000 5.303
96.50000 2.965
96.52000 3.051
96.54000 6.594
96.56000 3.889
96.58000 3.198
96.60000 2.568
96.62000 -1.715
96.64000 -0.941
96.66000 2.170
96.68000 5.768
96.70000 3.522
96.72000 3.340
96.74000 1.141
96.76000 4.502
96.78000 2.206
96.80000 2.063
96.82000 3.901
96.84000 1.300
96.86000 0.344
96.88000 3.061
96.90000 5.360
96.92000 2.859
96.94000 3.442
96.96000 4.698
96.98000 2.827
97.00000 -1.495
97.02000 0.614
97.04000 1.684
97.06000 1.339
97.08000 3.805
97.10000 3.951
97.12000 2.312
97.14000 1.945
97.16000 1.393
97.18000 -0.291
97.20000 4.220
97.22000 2.390
97.24000 3.011
97.26000 2.538
97.28000 0.059
97.30000 6.590
97.32000 2.591
97.34000 0.981
97.36000 4.719
97.38000 3.430
97.40000 5.096
97.42000 4.785
97.44000 0.346
97.46000 -1.740
97.48000 1.220
97.50000 1.761
97.52000 4.273
97.54000 7.243
97.56000 3.491
97.58000 -1.536
97.60000 0.294
97.62000 1.746
97.64000 -0.735
97.66000 3.879
97.68000 3.462
97.70000 3.101
97.72000 3.554
97.74000 2.207
97.76000 2.883
97.78000 4.092
97.80000 2.741
97.82000 0.996
97.84000 -1.424
97.86000 5.092
97.88000 4.683
97.90000 7.846
97.92000 3.093
97.94000 0.984
97.96000 2.087
97.98000 -0.735
98.00000 5.958
98.02000 5.197
98.04000 1.101
98.06000 1.265
98.08000 -0.681
98.10000 1.089
98.12000 3.663
98.14000 4.232
98.16000 1.915
98.18000 3.899
98.20000 2.474
98.22000 3.111
98.24000 -1.701
98.26000 1.671
98.28000 4.509
98.30000 5.168
98.32000 9.528
98.34000 6.663
98.36000 4.181
98.38000 2.237
98.40000 1.600
98.42000 -1.373
98.44000 0.126
98.46000 -0.309
98.48000 2.636
98.50000 4.226
98.52000 2.808
98.54000 3.901
98.56000 4.967
98.58000 3.376
98.60000 1.248
98.62000 0.480
98.64000 5.951
98.66000 7.799
98.68000 7.147
98.70000 4.545
98.72000 0.651
98.74000 0.315
98.76000 -0.259
98.78000 1.424
98.80000 -1.456
98.82000 3.998
98.84000 4.057
98.86000 6.287
98.88000 5.201
98.90000 3.662
98.92000 7.261
98.94000 4.218
98.96000 8.168
98.98000 6.051
99.00000 6.581
99.02000 7.797
99.04000 5.813
99.06000 2.711
99.08000 5.726
99.10000 1.842
99.12000 -1.677
99.14000 3.928
99.16000 4.150
99.18000 4.680
99.20000 4.338
99.22000 0.713
99.24000 1.580
99.26000 2.575
99.28000 1.177
99.30000 3.628
99.32000 2.531
99.34000 3.906
99.36000 1.894
99.38000 3.985
99.40000 2.128
99.42000 6.743
99.44000 5.960
99.46000 1.753
99.48000 5.487
99.50000 10.485
99.52000 6.359
99.54000 4.089
99.56000 3.874
99.58000 5.173
99.60000 5.228
99.62000 8.173
99.64000 4.653
99.66000 2.164
99.68000 -1.094
99.70000 -1.375
99.72000 3.074
99.74000 1.439
99.76000 10.273
99.78000 5.847
99.80000 5.097
99.82000 1.075
99.84000 5.327
99.86000 -0.409
99.88000 -0.197
99.90000 1.295
99.92000 5.247
99.94000 5.699
99.96000 -1.747
99.98000 0.000
