'Id: "0011389" Comment: "Integrate frame 0011389_Au-Ir-Rh_Au-Rich_XRD_Mapping-021-0000.gfrmwith cursor Wedge Cursor #5" Operator: "B?rgel" Anode: "Cu" Wavelength: "1.5406" Scantype: "2Theta (TwoTheta)" TimePerStep: "1" X: "18" Y: "-36" Z: "5.95" 
10.00000 0.000
10.02000 -1.227
10.04000 -4.008
10.06000 4.823
10.08000 0.953
10.10000 9.176
10.12000 8.055
10.14000 2.038
10.16000 21.082
10.18000 22.937
10.20000 17.621
10.22000 20.433
10.24000 1.038
10.26000 -2.269
10.28000 13.868
10.30000 16.773
10.32000 4.469
10.34000 1.126
10.36000 4.292
10.38000 9.922
10.40000 20.736
10.42000 26.950
10.44000 10.348
10.46000 4.757
10.48000 13.257
10.50000 4.729
10.52000 3.191
10.54000 18.409
10.56000 10.211
10.58000 14.177
10.60000 18.294
10.62000 20.387
10.64000 29.554
10.66000 23.272
10.68000 11.581
10.70000 8.590
10.72000 6.095
10.74000 18.625
10.76000 21.224
10.78000 19.815
10.80000 19.307
10.82000 9.675
10.84000 -4.112
10.86000 1.432
10.88000 9.792
10.90000 13.187
10.92000 11.693
10.94000 18.259
10.96000 19.930
10.98000 13.509
11.00000 10.161
11.02000 14.513
11.04000 25.068
11.06000 11.608
11.08000 11.349
11.10000 22.113
11.12000 30.621
11.14000 17.143
11.16000 8.873
11.18000 2.706
11.20000 12.652
11.22000 14.319
11.24000 8.213
11.26000 10.846
11.28000 13.262
11.30000 16.870
11.32000 15.799
11.34000 20.083
11.36000 23.178
11.38000 26.086
11.40000 36.470
11.42000 17.268
11.44000 12.423
11.46000 17.725
11.48000 15.984
11.50000 15.713
11.52000 14.760
11.54000 29.787
11.56000 27.962
11.58000 25.704
11.60000 17.662
11.62000 20.312
11.64000 15.809
11.66000 6.033
11.68000 7.131
11.70000 20.779
11.72000 9.744
11.74000 5.130
11.76000 13.286
11.78000 10.246
11.80000 7.873
11.82000 9.107
11.84000 2.658
11.86000 14.363
11.88000 14.585
11.90000 26.540
11.92000 28.203
11.94000 32.284
11.96000 27.902
11.98000 36.654
12.00000 11.322
12.02000 6.176
12.04000 16.461
12.06000 21.348
12.08000 17.261
12.10000 13.843
12.12000 7.496
12.14000 -1.261
12.16000 -0.442
12.18000 4.220
12.20000 10.124
12.22000 14.255
12.24000 13.230
12.26000 19.331
12.28000 27.359
12.30000 19.327
12.32000 13.991
12.34000 18.550
12.36000 14.537
12.38000 14.245
12.40000 14.858
12.42000 10.646
12.44000 12.301
12.46000 13.323
12.48000 14.821
12.50000 16.833
12.52000 14.343
12.54000 18.091
12.56000 25.308
12.58000 29.427
12.60000 33.619
12.62000 24.777
12.64000 12.675
12.66000 17.265
12.68000 13.788
12.70000 18.583
12.72000 14.201
12.74000 12.379
12.76000 16.903
12.78000 15.940
12.80000 22.247
12.82000 26.495
12.84000 28.977
12.86000 19.513
12.88000 1.231
12.90000 3.818
12.92000 13.863
12.94000 22.989
12.96000 9.716
12.98000 12.457
13.00000 17.713
13.02000 11.121
13.04000 9.770
13.06000 1.397
13.08000 6.129
13.10000 12.254
13.12000 4.198
13.14000 11.067
13.16000 20.602
13.18000 16.192
13.20000 11.905
13.22000 23.612
13.24000 30.535
13.26000 17.005
13.28000 17.608
13.30000 16.540
13.32000 10.623
13.34000 12.232
13.36000 14.459
13.38000 16.662
13.40000 13.257
13.42000 15.077
13.44000 12.454
13.46000 14.270
13.48000 6.708
13.50000 9.000
13.52000 8.267
13.54000 14.260
13.56000 13.790
13.58000 12.382
13.60000 17.541
13.62000 17.518
13.64000 16.740
13.66000 14.360
13.68000 13.995
13.70000 13.386
13.72000 16.257
13.74000 16.652
13.76000 12.854
13.78000 5.551
13.80000 4.642
13.82000 14.128
13.84000 14.880
13.86000 16.522
13.88000 18.954
13.90000 10.170
13.92000 9.869
13.94000 0.601
13.96000 5.874
13.98000 1.244
14.00000 -4.434
14.02000 8.338
14.04000 10.746
14.06000 5.717
14.08000 9.720
14.10000 7.463
14.12000 8.604
14.14000 9.680
14.16000 0.381
14.18000 8.570
14.20000 19.114
14.22000 12.878
14.24000 7.138
14.26000 7.259
14.28000 4.667
14.30000 4.197
14.32000 15.165
14.34000 18.683
14.36000 10.868
14.38000 5.130
14.40000 2.232
14.42000 6.402
14.44000 3.102
14.46000 2.933
14.48000 9.910
14.50000 14.284
14.52000 12.127
14.54000 6.379
14.56000 4.778
14.58000 8.200
14.60000 7.405
14.62000 5.007
14.64000 10.215
14.66000 14.200
14.68000 11.701
14.70000 11.301
14.72000 10.213
14.74000 12.742
14.76000 8.300
14.78000 6.711
14.80000 2.158
14.82000 4.242
14.84000 4.072
14.86000 12.009
14.88000 14.222
14.90000 8.971
14.92000 6.659
14.94000 9.452
14.96000 1.766
14.98000 1.824
15.00000 5.509
15.02000 5.113
15.04000 13.143
15.06000 28.451
15.08000 12.026
15.10000 -2.220
15.12000 0.182
15.14000 15.652
15.16000 20.384
15.18000 15.733
15.20000 9.203
15.22000 9.808
15.24000 8.598
15.26000 10.772
15.28000 9.718
15.30000 0.175
15.32000 -4.264
15.34000 4.062
15.36000 9.712
15.38000 8.855
15.40000 4.888
15.42000 0.232
15.44000 3.648
15.46000 6.211
15.48000 9.123
15.50000 14.977
15.52000 11.540
15.54000 2.299
15.56000 0.600
15.58000 1.366
15.60000 3.905
15.62000 11.322
15.64000 4.283
15.66000 9.772
15.68000 7.435
15.70000 2.557
15.72000 1.728
15.74000 4.293
15.76000 5.466
15.78000 2.677
15.80000 2.810
15.82000 6.547
15.84000 12.631
15.86000 13.420
15.88000 7.057
15.90000 -1.866
15.92000 -0.644
15.94000 5.830
15.96000 3.605
15.98000 10.564
16.00000 3.911
16.02000 0.411
16.04000 5.899
16.06000 6.092
16.08000 2.025
16.10000 -0.970
16.12000 4.822
16.14000 2.500
16.16000 -2.696
16.18000 0.772
16.20000 2.094
16.22000 3.146
16.24000 8.829
16.26000 12.040
16.28000 2.351
16.30000 -0.069
16.32000 -3.030
16.34000 0.756
16.36000 9.332
16.38000 2.164
16.40000 -0.822
16.42000 0.285
16.44000 0.501
16.46000 3.998
16.48000 2.848
16.50000 2.053
16.52000 3.432
16.54000 3.622
16.56000 4.232
16.58000 5.329
16.60000 16.101
16.62000 8.523
16.64000 0.996
16.66000 -4.390
16.68000 -0.578
16.70000 5.140
16.72000 3.392
16.74000 6.261
16.76000 10.861
16.78000 11.847
16.80000 15.189
16.82000 8.459
16.84000 2.251
16.86000 -0.464
16.88000 11.504
16.90000 6.903
16.92000 7.694
16.94000 11.693
16.96000 3.331
16.98000 11.858
17.00000 11.033
17.02000 6.985
17.04000 5.506
17.06000 1.258
17.08000 -2.409
17.10000 1.422
17.12000 -2.979
17.14000 -0.636
17.16000 -4.214
17.18000 4.775
17.20000 6.656
17.22000 7.772
17.24000 10.454
17.26000 6.776
17.28000 2.231
17.30000 -1.345
17.32000 3.585
17.34000 7.126
17.36000 4.071
17.38000 1.754
17.40000 1.896
17.42000 9.109
17.44000 13.160
17.46000 7.089
17.48000 5.627
17.50000 3.866
17.52000 2.370
17.54000 3.148
17.56000 6.739
17.58000 5.913
17.60000 3.657
17.62000 -4.314
17.64000 2.508
17.66000 8.813
17.68000 4.941
17.70000 4.487
17.72000 5.552
17.74000 0.030
17.76000 5.445
17.78000 9.104
17.80000 2.585
17.82000 -0.181
17.84000 0.731
17.86000 4.544
17.88000 8.938
17.90000 3.359
17.92000 -2.825
17.94000 -0.165
17.96000 -2.024
17.98000 -1.186
18.00000 5.632
18.02000 3.075
18.04000 3.506
18.06000 1.128
18.08000 3.942
18.10000 1.287
18.12000 0.990
18.14000 -0.157
18.16000 3.955
18.18000 -1.372
18.20000 4.205
18.22000 3.697
18.24000 5.086
18.26000 7.894
18.28000 9.023
18.30000 4.293
18.32000 10.683
18.34000 9.850
18.36000 10.127
18.38000 8.030
18.40000 1.039
18.42000 0.175
18.44000 -1.383
18.46000 2.795
18.48000 6.629
18.50000 4.906
18.52000 8.188
18.54000 7.537
18.56000 7.718
18.58000 -0.463
18.60000 -2.097
18.62000 7.088
18.64000 3.328
18.66000 2.424
18.68000 -2.454
18.70000 -1.933
18.72000 5.853
18.74000 6.449
18.76000 4.546
18.78000 -0.264
18.80000 -0.448
18.82000 4.449
18.84000 2.491
18.86000 3.466
18.88000 2.139
18.90000 -0.468
18.92000 3.804
18.94000 1.404
18.96000 -4.234
18.98000 -0.083
19.00000 2.277
19.02000 3.143
19.04000 8.578
19.06000 5.663
19.08000 -0.919
19.10000 3.276
19.12000 1.229
19.14000 3.757
19.16000 6.849
19.18000 13.973
19.20000 13.889
19.22000 16.126
19.24000 10.492
19.26000 3.677
19.28000 2.448
19.30000 5.515
19.32000 2.585
19.34000 1.576
19.36000 3.012
19.38000 10.483
19.40000 8.857
19.42000 5.290
19.44000 0.562
19.46000 2.593
19.48000 7.674
19.50000 -0.667
19.52000 -4.198
19.54000 -0.944
19.56000 0.260
19.58000 -0.781
19.60000 0.036
19.62000 7.350
19.64000 7.752
19.66000 7.260
19.68000 7.159
19.70000 8.289
19.72000 5.542
19.74000 5.169
19.76000 0.766
19.78000 1.704
19.80000 6.271
19.82000 7.015
19.84000 5.914
19.86000 9.209
19.88000 8.779
19.90000 -1.679
19.92000 2.817
19.94000 6.484
19.96000 5.610
19.98000 1.674
20.00000 3.621
20.02000 2.924
20.04000 1.141
20.06000 -1.623
20.08000 7.915
20.10000 10.053
20.12000 4.348
20.14000 7.331
20.16000 3.030
20.18000 -4.170
20.20000 -2.089
20.22000 1.543
20.24000 0.084
20.26000 2.740
20.28000 5.594
20.30000 7.020
20.32000 5.033
20.34000 1.002
20.36000 -0.089
20.38000 5.311
20.40000 4.300
20.42000 4.096
20.44000 7.449
20.46000 10.519
20.48000 3.626
20.50000 0.322
20.52000 0.363
20.54000 8.911
20.56000 16.409
20.58000 14.253
20.60000 9.694
20.62000 4.206
20.64000 -1.280
20.66000 -0.005
20.68000 3.274
20.70000 3.777
20.72000 0.402
20.74000 5.597
20.76000 5.474
20.78000 1.814
20.80000 -0.586
20.82000 4.029
20.84000 -1.386
20.86000 -0.200
20.88000 2.800
20.90000 -0.148
20.92000 0.393
20.94000 0.288
20.96000 -0.636
20.98000 2.845
21.00000 1.488
21.02000 4.968
21.04000 1.998
21.06000 -1.742
21.08000 1.276
21.10000 5.726
21.12000 2.387
21.14000 1.005
21.16000 -3.111
21.18000 3.019
21.20000 5.656
21.22000 -0.178
21.24000 2.644
21.26000 1.796
21.28000 4.441
21.30000 5.367
21.32000 8.074
21.34000 7.562
21.36000 5.469
21.38000 8.342
21.40000 9.852
21.42000 5.732
21.44000 -3.617
21.46000 8.792
21.48000 6.499
21.50000 6.456
21.52000 3.378
21.54000 8.927
21.56000 11.227
21.58000 10.740
21.60000 7.860
21.62000 7.592
21.64000 3.310
21.66000 4.799
21.68000 9.076
21.70000 4.146
21.72000 5.355
21.74000 5.226
21.76000 10.234
21.78000 7.974
21.80000 3.266
21.82000 2.149
21.84000 7.547
21.86000 3.760
21.88000 7.089
21.90000 8.497
21.92000 8.117
21.94000 7.617
21.96000 -4.041
21.98000 -2.147
22.00000 2.571
22.02000 12.348
22.04000 10.032
22.06000 7.662
22.08000 5.507
22.10000 2.485
22.12000 2.113
22.14000 1.385
22.16000 6.848
22.18000 5.010
22.20000 3.610
22.22000 5.782
22.24000 8.137
22.26000 5.782
22.28000 6.541
22.30000 13.106
22.32000 9.005
22.34000 6.468
22.36000 4.172
22.38000 0.758
22.40000 4.133
22.42000 4.690
22.44000 6.956
22.46000 8.431
22.48000 9.926
22.50000 7.169
22.52000 3.830
22.54000 4.398
22.56000 5.271
22.58000 5.690
22.60000 7.601
22.62000 6.925
22.64000 4.026
22.66000 3.135
22.68000 5.198
22.70000 2.154
22.72000 6.335
22.74000 5.746
22.76000 7.778
22.78000 2.312
22.80000 -0.058
22.82000 -1.910
22.84000 -3.988
22.86000 -0.006
22.88000 4.395
22.90000 10.499
22.92000 7.828
22.94000 9.103
22.96000 11.227
22.98000 5.618
23.00000 3.501
23.02000 4.183
23.04000 3.383
23.06000 8.137
23.08000 7.049
23.10000 7.478
23.12000 8.221
23.14000 8.673
23.16000 -0.352
23.18000 0.566
23.20000 7.452
23.22000 6.099
23.24000 3.410
23.26000 5.092
23.28000 3.529
23.30000 4.463
23.32000 4.645
23.34000 10.901
23.36000 5.614
23.38000 1.289
23.40000 4.610
23.42000 12.135
23.44000 10.530
23.46000 11.264
23.48000 5.683
23.50000 5.481
23.52000 7.082
23.54000 7.306
23.56000 4.942
23.58000 1.855
23.60000 4.562
23.62000 8.345
23.64000 7.137
23.66000 6.268
23.68000 5.600
23.70000 6.967
23.72000 4.249
23.74000 4.081
23.76000 6.685
23.78000 8.244
23.80000 4.350
23.82000 3.210
23.84000 -1.394
23.86000 -1.733
23.88000 -2.144
23.90000 -3.948
23.92000 0.050
23.94000 8.353
23.96000 6.055
23.98000 -1.705
24.00000 -0.483
24.02000 3.189
24.04000 3.015
24.06000 2.997
24.08000 1.927
24.10000 3.508
24.12000 2.443
24.14000 1.732
24.16000 2.311
24.18000 5.134
24.20000 4.133
24.22000 2.255
24.24000 -1.692
24.26000 -3.732
24.28000 -1.423
24.30000 0.241
24.32000 6.106
24.34000 4.678
24.36000 -2.660
24.38000 2.522
24.40000 7.893
24.42000 8.443
24.44000 -0.222
24.46000 -2.769
24.48000 -0.413
24.50000 2.335
24.52000 2.440
24.54000 2.834
24.56000 8.203
24.58000 8.220
24.60000 6.070
24.62000 5.678
24.64000 0.541
24.66000 -1.123
24.68000 0.539
24.70000 6.515
24.72000 6.712
24.74000 0.469
24.76000 -0.661
24.78000 0.446
24.80000 -1.913
24.82000 2.611
24.84000 7.831
24.86000 6.837
24.88000 8.717
24.90000 9.664
24.92000 11.409
24.94000 11.445
24.96000 5.264
24.98000 7.061
25.00000 0.244
25.02000 -0.342
25.04000 1.354
25.06000 3.248
25.08000 8.119
25.10000 7.381
25.12000 5.097
25.14000 6.353
25.16000 1.833
25.18000 2.357
25.20000 4.167
25.22000 2.385
25.24000 6.798
25.26000 -0.128
25.28000 1.711
25.30000 1.070
25.32000 0.252
25.34000 3.744
25.36000 7.200
25.38000 3.362
25.40000 0.266
25.42000 -3.886
25.44000 -0.174
25.46000 2.039
25.48000 2.242
25.50000 -3.829
25.52000 0.029
25.54000 -2.677
25.56000 2.580
25.58000 1.603
25.60000 -2.950
25.62000 -2.814
25.64000 2.077
25.66000 -3.870
25.68000 2.187
25.70000 -0.228
25.72000 -3.727
25.74000 2.628
25.76000 9.462
25.78000 4.326
25.80000 -1.175
25.82000 -1.285
25.84000 4.620
25.86000 4.056
25.88000 2.130
25.90000 -0.709
25.92000 1.626
25.94000 2.358
25.96000 -0.233
25.98000 -0.334
26.00000 5.708
26.02000 1.648
26.04000 -0.806
26.06000 6.210
26.08000 4.889
26.10000 1.561
26.12000 -0.974
26.14000 -3.635
26.16000 0.017
26.18000 2.532
26.20000 4.107
26.22000 3.626
26.24000 6.289
26.26000 5.585
26.28000 2.892
26.30000 1.206
26.32000 -2.238
26.34000 -0.230
26.36000 -3.141
26.38000 -1.588
26.40000 -1.966
26.42000 1.981
26.44000 2.052
26.46000 -2.044
26.48000 2.644
26.50000 3.735
26.52000 0.292
26.54000 -1.784
26.56000 0.506
26.58000 0.743
26.60000 0.226
26.62000 0.301
26.64000 5.136
26.66000 6.593
26.68000 5.428
26.70000 2.979
26.72000 3.185
26.74000 1.406
26.76000 2.114
26.78000 2.290
26.80000 0.884
26.82000 2.258
26.84000 -0.210
26.86000 2.386
26.88000 3.516
26.90000 7.894
26.92000 3.450
26.94000 2.807
26.96000 3.205
26.98000 -0.111
27.00000 1.040
27.02000 1.483
27.04000 4.604
27.06000 7.067
27.08000 3.756
27.10000 6.472
27.12000 2.795
27.14000 0.622
27.16000 5.395
27.18000 5.784
27.20000 8.366
27.22000 -0.602
27.24000 -3.786
27.26000 4.645
27.28000 4.374
27.30000 -0.641
27.32000 3.935
27.34000 2.068
27.36000 -1.483
27.38000 2.551
27.40000 5.791
27.42000 5.061
27.44000 8.838
27.46000 12.631
27.48000 12.814
27.50000 7.429
27.52000 6.959
27.54000 2.934
27.56000 0.412
27.58000 2.822
27.60000 -0.767
27.62000 3.810
27.64000 0.692
27.66000 -1.050
27.68000 -3.269
27.70000 3.084
27.72000 2.594
27.74000 3.679
27.76000 0.650
27.78000 1.711
27.80000 0.841
27.82000 -2.224
27.84000 2.713
27.86000 8.369
27.88000 2.256
27.90000 3.282
27.92000 1.146
27.94000 4.337
27.96000 0.141
27.98000 7.159
28.00000 7.057
28.02000 1.728
28.04000 1.363
28.06000 2.274
28.08000 -2.905
28.10000 2.447
28.12000 0.402
28.14000 0.923
28.16000 2.444
28.18000 5.901
28.20000 5.523
28.22000 4.198
28.24000 3.513
28.26000 1.903
28.28000 2.860
28.30000 1.156
28.32000 0.794
28.34000 2.354
28.36000 1.375
28.38000 0.679
28.40000 0.484
28.42000 3.054
28.44000 2.249
28.46000 5.684
28.48000 8.706
28.50000 7.731
28.52000 7.697
28.54000 2.778
28.56000 1.449
28.58000 -1.079
28.60000 -3.702
28.62000 3.597
28.64000 8.543
28.66000 13.686
28.68000 10.985
28.70000 9.620
28.72000 4.494
28.74000 2.656
28.76000 0.755
28.78000 0.674
28.80000 1.667
28.82000 4.259
28.84000 4.397
28.86000 0.747
28.88000 3.027
28.90000 2.694
28.92000 1.788
28.94000 5.135
28.96000 6.508
28.98000 8.285
29.00000 8.463
29.02000 5.479
29.04000 5.038
29.06000 3.248
29.08000 6.138
29.10000 5.610
29.12000 3.949
29.14000 0.850
29.16000 2.203
29.18000 -2.489
29.20000 3.602
29.22000 3.283
29.24000 3.312
29.26000 5.295
29.28000 2.989
29.30000 -2.376
29.32000 2.760
29.34000 5.381
29.36000 5.112
29.38000 4.908
29.40000 1.591
29.42000 -0.292
29.44000 0.325
29.46000 2.889
29.48000 2.424
29.50000 3.200
29.52000 2.620
29.54000 0.318
29.56000 2.775
29.58000 1.561
29.60000 -1.884
29.62000 3.762
29.64000 4.572
29.66000 4.743
29.68000 2.278
29.70000 1.838
29.72000 -1.480
29.74000 3.772
29.76000 6.103
29.78000 5.190
29.80000 -1.815
29.82000 0.255
29.84000 2.681
29.86000 2.721
29.88000 8.107
29.90000 9.589
29.92000 4.831
29.94000 -0.334
29.96000 1.582
29.98000 0.618
30.00000 -2.390
30.02000 3.130
30.04000 3.172
30.06000 -1.910
30.08000 -0.089
30.10000 0.534
30.12000 0.394
30.14000 -0.842
30.16000 -3.651
30.18000 1.605
30.20000 3.088
30.22000 4.863
30.24000 4.152
30.26000 4.227
30.28000 6.313
30.30000 -2.669
30.32000 0.286
30.34000 1.359
30.36000 1.977
30.38000 3.382
30.40000 -1.754
30.42000 -0.671
30.44000 0.419
30.46000 3.478
30.48000 6.173
30.50000 3.899
30.52000 6.717
30.54000 0.801
30.56000 1.737
30.58000 3.025
30.60000 6.926
30.62000 6.606
30.64000 3.594
30.66000 8.601
30.68000 6.329
30.70000 9.610
30.72000 5.075
30.74000 2.415
30.76000 1.616
30.78000 4.616
30.80000 4.668
30.82000 1.532
30.84000 0.356
30.86000 2.203
30.88000 5.385
30.90000 6.136
30.92000 9.812
30.94000 12.785
30.96000 11.762
30.98000 9.066
31.00000 7.441
31.02000 3.307
31.04000 5.133
31.06000 7.993
31.08000 6.123
31.10000 -1.961
31.12000 -0.811
31.14000 3.331
31.16000 1.732
31.18000 -3.574
31.20000 6.968
31.22000 10.570
31.24000 5.880
31.26000 4.185
31.28000 4.449
31.30000 6.140
31.32000 4.119
31.34000 6.456
31.36000 5.854
31.38000 0.936
31.40000 0.620
31.42000 1.980
31.44000 -1.393
31.46000 -0.466
31.48000 0.142
31.50000 -0.138
31.52000 5.178
31.54000 0.627
31.56000 1.966
31.58000 3.232
31.60000 3.221
31.62000 7.688
31.64000 2.386
31.66000 3.575
31.68000 3.835
31.70000 0.237
31.72000 2.362
31.74000 5.415
31.76000 5.060
31.78000 5.610
31.80000 2.500
31.82000 2.058
31.84000 10.110
31.86000 7.160
31.88000 4.278
31.90000 5.038
31.92000 2.424
31.94000 5.165
31.96000 3.940
31.98000 6.909
32.00000 4.668
32.02000 -1.063
32.04000 0.835
32.06000 4.676
32.08000 4.402
32.10000 1.792
32.12000 1.687
32.14000 1.544
32.16000 7.354
32.18000 2.233
32.20000 3.515
32.22000 6.824
32.24000 3.031
32.26000 -1.361
32.28000 1.872
32.30000 3.468
32.32000 3.440
32.34000 2.797
32.36000 1.258
32.38000 3.281
32.40000 0.482
32.42000 -1.878
32.44000 2.779
32.46000 4.378
32.48000 4.645
32.50000 0.185
32.52000 5.055
32.54000 1.163
32.56000 2.429
32.58000 3.842
32.60000 -3.539
32.62000 1.807
32.64000 5.873
32.66000 4.414
32.68000 2.264
32.70000 4.446
32.72000 7.211
32.74000 4.667
32.76000 2.232
32.78000 5.093
32.80000 -1.192
32.82000 3.905
32.84000 4.523
32.86000 4.448
32.88000 2.052
32.90000 2.358
32.92000 0.933
32.94000 4.452
32.96000 1.292
32.98000 3.275
33.00000 8.497
33.02000 4.142
33.04000 0.981
33.06000 -3.552
33.08000 0.617
33.10000 10.889
33.12000 9.956
33.14000 7.478
33.16000 10.286
33.18000 4.512
33.20000 1.823
33.22000 2.980
33.24000 8.554
33.26000 5.067
33.28000 5.377
33.30000 2.793
33.32000 5.037
33.34000 -0.084
33.36000 -2.964
33.38000 0.979
33.40000 3.567
33.42000 6.994
33.44000 2.034
33.46000 -0.872
33.48000 -0.988
33.50000 -1.873
33.52000 4.159
33.54000 5.045
33.56000 6.189
33.58000 3.604
33.60000 3.544
33.62000 3.002
33.64000 1.934
33.66000 -1.447
33.68000 1.922
33.70000 2.546
33.72000 2.985
33.74000 2.211
33.76000 0.384
33.78000 -0.644
33.80000 -1.139
33.82000 -3.109
33.84000 -2.486
33.86000 1.571
33.88000 0.886
33.90000 0.801
33.92000 3.807
33.94000 5.891
33.96000 2.518
33.98000 -0.194
34.00000 -1.887
34.02000 3.764
34.04000 0.698
34.06000 -0.587
34.08000 0.661
34.10000 1.760
34.12000 3.080
34.14000 -0.686
34.16000 -2.659
34.18000 3.564
34.20000 5.019
34.22000 -0.241
34.24000 -0.746
34.26000 1.113
34.28000 4.324
34.30000 4.682
34.32000 -2.543
34.34000 -3.018
34.36000 0.290
34.38000 0.446
34.40000 1.329
34.42000 1.177
34.44000 2.068
34.46000 2.516
34.48000 3.538
34.50000 0.614
34.52000 2.694
34.54000 5.425
34.56000 2.002
34.58000 0.288
34.60000 0.550
34.62000 -0.401
34.64000 -1.808
34.66000 -3.150
34.68000 -1.523
34.70000 0.025
34.72000 2.307
34.74000 0.098
34.76000 -3.534
34.78000 0.386
34.80000 -0.362
34.82000 -1.229
34.84000 -1.353
34.86000 -2.279
34.88000 -2.575
34.90000 1.529
34.92000 -0.753
34.94000 -1.724
34.96000 -3.528
34.98000 2.196
35.00000 3.968
35.02000 4.020
35.04000 0.723
35.06000 0.707
35.08000 4.004
35.10000 3.542
35.12000 1.128
35.14000 0.185
35.16000 5.202
35.18000 2.472
35.20000 1.099
35.22000 1.420
35.24000 1.834
35.26000 3.718
35.28000 0.507
35.30000 1.707
35.32000 0.711
35.34000 0.565
35.36000 3.475
35.38000 3.875
35.40000 -2.645
35.42000 -0.514
35.44000 0.724
35.46000 5.285
35.48000 2.163
35.50000 -1.509
35.52000 4.764
35.54000 -0.323
35.56000 0.537
35.58000 -2.553
35.60000 -0.298
35.62000 1.501
35.64000 4.323
35.66000 3.383
35.68000 4.222
35.70000 -0.158
35.72000 -3.498
35.74000 2.597
35.76000 0.232
35.78000 -1.108
35.80000 5.855
35.82000 2.292
35.84000 2.445
35.86000 3.008
35.88000 7.303
35.90000 9.400
35.92000 3.411
35.94000 1.645
35.96000 0.470
35.98000 -1.724
36.00000 -2.623
36.02000 -2.345
36.04000 -3.508
36.06000 0.971
36.08000 2.458
36.10000 4.126
36.12000 1.690
36.14000 -0.540
36.16000 4.601
36.18000 2.923
36.20000 5.945
36.22000 5.336
36.24000 -2.353
36.26000 -1.385
36.28000 0.241
36.30000 0.498
36.32000 -2.705
36.34000 -1.614
36.36000 3.215
36.38000 1.162
36.40000 0.809
36.42000 3.619
36.44000 7.450
36.46000 5.716
36.48000 4.187
36.50000 -1.162
36.52000 2.178
36.54000 4.867
36.56000 3.447
36.58000 -3.515
36.60000 -3.516
36.62000 -1.368
36.64000 4.513
36.66000 3.272
36.68000 2.503
36.70000 -0.171
36.72000 2.056
36.74000 4.786
36.76000 2.573
36.78000 1.609
36.80000 3.739
36.82000 4.300
36.84000 1.779
36.86000 -3.542
36.88000 -0.127
36.90000 0.441
36.92000 0.841
36.94000 0.598
36.96000 4.406
36.98000 3.039
37.00000 -2.525
37.02000 -1.352
37.04000 3.871
37.06000 5.679
37.08000 6.234
37.10000 1.203
37.12000 -1.138
37.14000 0.388
37.16000 2.591
37.18000 3.913
37.20000 2.688
37.22000 3.330
37.24000 2.315
37.26000 2.961
37.28000 0.098
37.30000 -1.322
37.32000 1.603
37.34000 4.613
37.36000 1.552
37.38000 3.466
37.40000 1.492
37.42000 0.305
37.44000 2.560
37.46000 3.737
37.48000 1.794
37.50000 2.275
37.52000 2.821
37.54000 -3.604
37.56000 -3.328
37.58000 0.504
37.60000 4.927
37.62000 4.622
37.64000 2.849
37.66000 1.805
37.68000 2.875
37.70000 4.398
37.72000 6.493
37.74000 7.312
37.76000 5.847
37.78000 7.118
37.80000 11.173
37.82000 10.473
37.84000 13.299
37.86000 17.888
37.88000 12.819
37.90000 8.503
37.92000 7.148
37.94000 9.340
37.96000 7.798
37.98000 11.872
38.00000 13.957
38.02000 14.577
38.04000 15.038
38.06000 17.609
38.08000 15.915
38.10000 19.495
38.12000 19.708
38.14000 16.133
38.16000 13.557
38.18000 14.952
38.20000 14.488
38.22000 18.939
38.24000 21.335
38.26000 24.538
38.28000 23.194
38.30000 23.668
38.32000 21.490
38.34000 17.320
38.36000 16.131
38.38000 17.250
38.40000 25.098
38.42000 22.528
38.44000 27.875
38.46000 29.132
38.48000 27.596
38.50000 30.185
38.52000 30.347
38.54000 30.376
38.56000 28.795
38.58000 37.572
38.60000 37.270
38.62000 33.259
38.64000 39.822
38.66000 45.546
38.68000 44.110
38.70000 40.479
38.72000 43.424
38.74000 46.275
38.76000 47.797
38.78000 47.724
38.80000 50.322
38.82000 54.048
38.84000 56.555
38.86000 56.002
38.88000 53.957
38.90000 55.816
38.92000 58.963
38.94000 61.539
38.96000 68.295
38.98000 70.544
39.00000 75.112
39.02000 80.930
39.04000 82.746
39.06000 83.257
39.08000 87.983
39.10000 85.706
39.12000 90.973
39.14000 102.790
39.16000 112.074
39.18000 108.846
39.20000 116.847
39.22000 122.159
39.24000 129.323
39.26000 134.509
39.28000 144.768
39.30000 151.831
39.32000 165.805
39.34000 173.736
39.36000 175.309
39.38000 185.056
39.40000 198.895
39.42000 215.408
39.44000 224.707
39.46000 236.954
39.48000 243.724
39.50000 254.591
39.52000 275.330
39.54000 287.754
39.56000 308.008
39.58000 325.301
39.60000 350.358
39.62000 366.872
39.64000 386.383
39.66000 396.273
39.68000 416.229
39.70000 443.620
39.72000 463.529
39.74000 480.405
39.76000 497.492
39.78000 513.314
39.80000 529.053
39.82000 541.033
39.84000 562.302
39.86000 578.462
39.88000 590.222
39.90000 597.858
39.92000 602.569
39.94000 609.765
39.96000 613.143
39.98000 618.457
40.00000 612.699
40.02000 614.881
40.04000 623.379
40.06000 611.878
40.08000 614.783
40.10000 603.929
40.12000 596.900
40.14000 576.638
40.16000 560.556
40.18000 542.686
40.20000 518.804
40.22000 506.017
40.24000 496.724
40.26000 478.654
40.28000 462.511
40.30000 445.000
40.32000 416.591
40.34000 395.508
40.36000 378.689
40.38000 362.310
40.40000 343.714
40.42000 326.108
40.44000 306.666
40.46000 291.402
40.48000 278.193
40.50000 263.269
40.52000 243.171
40.54000 216.325
40.56000 205.162
40.58000 196.505
40.60000 183.644
40.62000 177.726
40.64000 171.740
40.66000 159.960
40.68000 147.216
40.70000 134.391
40.72000 126.878
40.74000 122.980
40.76000 117.174
40.78000 109.976
40.80000 102.445
40.82000 98.809
40.84000 94.003
40.86000 87.781
40.88000 82.338
40.90000 78.386
40.92000 74.927
40.94000 69.825
40.96000 66.763
40.98000 61.212
41.00000 56.650
41.02000 54.990
41.04000 49.883
41.06000 42.506
41.08000 39.802
41.10000 38.365
41.12000 39.418
41.14000 36.621
41.16000 34.485
41.18000 35.188
41.20000 34.129
41.22000 34.632
41.24000 30.278
41.26000 26.725
41.28000 25.717
41.30000 25.506
41.32000 19.885
41.34000 19.694
41.36000 21.268
41.38000 23.066
41.40000 22.543
41.42000 20.468
41.44000 20.725
41.46000 19.978
41.48000 20.214
41.50000 12.320
41.52000 10.995
41.54000 9.528
41.56000 17.341
41.58000 11.601
41.60000 9.642
41.62000 12.136
41.64000 13.010
41.66000 13.275
41.68000 7.091
41.70000 4.071
41.72000 7.764
41.74000 9.367
41.76000 7.800
41.78000 4.878
41.80000 7.649
41.82000 10.432
41.84000 9.090
41.86000 7.017
41.88000 7.093
41.90000 3.004
41.92000 2.165
41.94000 2.884
41.96000 6.546
41.98000 4.953
42.00000 3.225
42.02000 -0.156
42.04000 2.075
42.06000 0.632
42.08000 1.817
42.10000 0.109
42.12000 -0.796
42.14000 3.408
42.16000 3.625
42.18000 3.318
42.20000 0.893
42.22000 1.717
42.24000 2.123
42.26000 2.492
42.28000 2.275
42.30000 1.807
42.32000 0.540
42.34000 2.497
42.36000 3.856
42.38000 -1.893
42.40000 0.388
42.42000 4.051
42.44000 1.651
42.46000 1.526
42.48000 -0.697
42.50000 -0.014
42.52000 1.586
42.54000 0.091
42.56000 -1.215
42.58000 -1.947
42.60000 0.722
42.62000 -0.074
42.64000 -1.015
42.66000 -2.676
42.68000 0.034
42.70000 -3.333
42.72000 -1.224
42.74000 1.214
42.76000 0.180
42.78000 2.964
42.80000 4.093
42.82000 0.131
42.84000 -2.030
42.86000 0.899
42.88000 0.271
42.90000 4.690
42.92000 4.428
42.94000 -0.650
42.96000 1.458
42.98000 1.192
43.00000 -0.857
43.02000 0.997
43.04000 -0.643
43.06000 2.495
43.08000 1.969
43.10000 -0.883
43.12000 2.468
43.14000 -0.159
43.16000 1.339
43.18000 2.058
43.20000 0.445
43.22000 -3.249
43.24000 0.363
43.26000 -0.102
43.28000 -0.558
43.30000 0.478
43.32000 -0.024
43.34000 2.184
43.36000 1.149
43.38000 0.912
43.40000 -3.235
43.42000 -1.750
43.44000 -1.819
43.46000 -0.346
43.48000 -0.105
43.50000 3.540
43.52000 4.633
43.54000 0.578
43.56000 -1.078
43.58000 -3.014
43.60000 -2.078
43.62000 0.205
43.64000 -0.413
43.66000 -3.045
43.68000 -0.769
43.70000 2.117
43.72000 1.201
43.74000 -0.633
43.76000 0.037
43.78000 3.585
43.80000 4.109
43.82000 1.557
43.84000 2.162
43.86000 3.572
43.88000 4.770
43.90000 -3.201
43.92000 -0.914
43.94000 0.228
43.96000 -2.731
43.98000 -3.196
44.00000 -0.922
44.02000 2.639
44.04000 2.467
44.06000 -2.014
44.08000 0.565
44.10000 1.511
44.12000 3.538
44.14000 1.860
44.16000 -0.155
44.18000 0.199
44.20000 1.399
44.22000 0.213
44.24000 -2.900
44.26000 -3.196
44.28000 -2.484
44.30000 -2.769
44.32000 -1.874
44.34000 3.994
44.36000 2.164
44.38000 -0.916
44.40000 -2.981
44.42000 0.122
44.44000 3.386
44.46000 -0.557
44.48000 0.203
44.50000 -0.868
44.52000 -0.445
44.54000 -2.214
44.56000 -0.051
44.58000 0.377
44.60000 1.121
44.62000 0.451
44.64000 2.445
44.66000 5.995
44.68000 2.808
44.70000 1.024
44.72000 2.638
44.74000 3.503
44.76000 1.066
44.78000 -2.590
44.80000 -2.433
44.82000 -3.191
44.84000 -2.207
44.86000 0.595
44.88000 2.611
44.90000 3.325
44.92000 0.396
44.94000 0.866
44.96000 0.831
44.98000 1.895
45.00000 0.577
45.02000 4.170
45.04000 6.062
45.06000 4.059
45.08000 2.474
45.10000 2.550
45.12000 5.863
45.14000 7.301
45.16000 2.840
45.18000 0.228
45.20000 -2.740
45.22000 0.353
45.24000 0.156
45.26000 3.737
45.28000 3.447
45.30000 2.484
45.32000 3.171
45.34000 8.032
45.36000 5.070
45.38000 4.473
45.40000 6.805
45.42000 8.767
45.44000 12.134
45.46000 8.518
45.48000 6.100
45.50000 6.293
45.52000 3.510
45.54000 6.083
45.56000 6.462
45.58000 7.937
45.60000 9.646
45.62000 8.166
45.64000 9.468
45.66000 17.642
45.68000 16.293
45.70000 19.495
45.72000 14.710
45.74000 14.698
45.76000 23.066
45.78000 22.855
45.80000 20.306
45.82000 17.554
45.84000 19.980
45.86000 22.723
45.88000 22.320
45.90000 25.761
45.92000 26.608
45.94000 21.746
45.96000 26.728
45.98000 31.113
46.00000 35.054
46.02000 29.921
46.04000 30.389
46.06000 30.513
46.08000 35.274
46.10000 36.002
46.12000 33.295
46.14000 35.948
46.16000 40.099
46.18000 42.040
46.20000 47.086
46.22000 48.496
46.24000 45.118
46.26000 50.097
46.28000 53.780
46.30000 57.086
46.32000 61.203
46.34000 56.706
46.36000 53.670
46.38000 57.410
46.40000 58.852
46.42000 60.276
46.44000 57.170
46.46000 62.037
46.48000 67.496
46.50000 69.365
46.52000 66.925
46.54000 66.804
46.56000 72.366
46.58000 65.729
46.60000 65.141
46.62000 68.778
46.64000 72.696
46.66000 65.473
46.68000 65.143
46.70000 63.569
46.72000 65.377
46.74000 71.420
46.76000 75.397
46.78000 66.192
46.80000 65.282
46.82000 66.208
46.84000 68.853
46.86000 72.052
46.88000 70.056
46.90000 65.070
46.92000 60.633
46.94000 60.797
46.96000 54.509
46.98000 51.149
47.00000 59.568
47.02000 57.061
47.04000 54.339
47.06000 47.082
47.08000 45.151
47.10000 41.940
47.12000 40.883
47.14000 42.295
47.16000 43.570
47.18000 36.128
47.20000 34.485
47.22000 34.701
47.24000 32.007
47.26000 32.883
47.28000 28.851
47.30000 26.887
47.32000 25.920
47.34000 26.767
47.36000 27.023
47.38000 23.012
47.40000 23.885
47.42000 23.298
47.44000 23.872
47.46000 23.063
47.48000 19.855
47.50000 21.450
47.52000 20.309
47.54000 20.529
47.56000 15.675
47.58000 14.037
47.60000 12.124
47.62000 9.107
47.64000 11.243
47.66000 13.468
47.68000 6.597
47.70000 5.810
47.72000 4.533
47.74000 5.527
47.76000 7.163
47.78000 6.063
47.80000 4.083
47.82000 4.899
47.84000 10.115
47.86000 7.444
47.88000 8.422
47.90000 8.085
47.92000 2.334
47.94000 -0.090
47.96000 6.188
47.98000 5.449
48.00000 4.000
48.02000 3.281
48.04000 -0.712
48.06000 0.198
48.08000 4.250
48.10000 4.671
48.12000 -0.261
48.14000 4.983
48.16000 3.365
48.18000 0.257
48.20000 3.371
48.22000 1.385
48.24000 -0.423
48.26000 1.100
48.28000 1.846
48.30000 1.346
48.32000 5.823
48.34000 2.504
48.36000 3.851
48.38000 2.617
48.40000 1.985
48.42000 -0.502
48.44000 -2.778
48.46000 -0.607
48.48000 -2.041
48.50000 3.664
48.52000 7.251
48.54000 4.374
48.56000 4.209
48.58000 2.447
48.60000 4.804
48.62000 1.023
48.64000 1.314
48.66000 6.965
48.68000 5.864
48.70000 3.479
48.72000 4.131
48.74000 1.887
48.76000 -1.084
48.78000 -0.269
48.80000 -0.096
48.82000 2.349
48.84000 4.215
48.86000 5.169
48.88000 4.010
48.90000 -1.106
48.92000 6.964
48.94000 7.678
48.96000 4.764
48.98000 4.116
49.00000 -1.452
49.02000 -1.961
49.04000 2.478
49.06000 1.151
49.08000 1.291
49.10000 6.960
49.12000 2.745
49.14000 -2.110
49.16000 0.428
49.18000 1.798
49.20000 -2.708
49.22000 0.785
49.24000 1.612
49.26000 4.535
49.28000 3.208
49.30000 3.068
49.32000 6.473
49.34000 9.672
49.36000 6.575
49.38000 1.052
49.40000 0.559
49.42000 5.647
49.44000 2.846
49.46000 1.533
49.48000 0.498
49.50000 -1.481
49.52000 -0.643
49.54000 1.324
49.56000 4.721
49.58000 -2.608
49.60000 -2.455
49.62000 1.421
49.64000 3.162
49.66000 1.163
49.68000 4.725
49.70000 3.418
49.72000 2.268
49.74000 -0.464
49.76000 3.524
49.78000 4.707
49.80000 4.977
49.82000 5.098
49.84000 4.941
49.86000 1.109
49.88000 0.026
49.90000 -1.051
49.92000 5.096
49.94000 6.617
49.96000 6.074
49.98000 3.698
50.00000 1.366
50.02000 0.626
50.04000 4.385
50.06000 7.277
50.08000 2.038
50.10000 3.681
50.12000 5.826
50.14000 2.423
50.16000 2.776
50.18000 -0.027
50.20000 2.334
50.22000 4.648
50.24000 5.627
50.26000 3.475
50.28000 5.759
50.30000 7.369
50.32000 3.958
50.34000 4.338
50.36000 -2.599
50.38000 1.998
50.40000 5.029
50.42000 3.311
50.44000 5.466
50.46000 4.645
50.48000 8.561
50.50000 7.360
50.52000 4.603
50.54000 4.169
50.56000 3.305
50.58000 -2.577
50.60000 2.232
50.62000 1.207
50.64000 2.038
50.66000 6.478
50.68000 5.879
50.70000 3.418
50.72000 2.983
50.74000 6.033
50.76000 1.197
50.78000 -0.760
50.80000 0.750
50.82000 4.485
50.84000 4.049
50.86000 2.914
50.88000 -0.784
50.90000 6.184
50.92000 10.334
50.94000 7.053
50.96000 1.616
50.98000 3.355
51.00000 8.023
51.02000 5.958
51.04000 5.566
51.06000 4.159
51.08000 7.136
51.10000 6.400
51.12000 0.616
51.14000 0.367
51.16000 0.092
51.18000 2.000
51.20000 -0.435
51.22000 2.373
51.24000 10.036
51.26000 9.126
51.28000 5.505
51.30000 2.196
51.32000 0.698
51.34000 0.550
51.36000 3.009
51.38000 -0.351
51.40000 0.545
51.42000 -1.615
51.44000 2.035
51.46000 3.093
51.48000 2.222
51.50000 3.163
51.52000 2.605
51.54000 -1.037
51.56000 -1.129
51.58000 2.585
51.60000 2.009
51.62000 1.738
51.64000 5.278
51.66000 9.518
51.68000 5.300
51.70000 4.364
51.72000 2.833
51.74000 -1.504
51.76000 3.287
51.78000 4.668
51.80000 2.025
51.82000 0.837
51.84000 5.483
51.86000 3.094
51.88000 2.295
51.90000 3.141
51.92000 3.026
51.94000 -2.595
51.96000 0.029
51.98000 3.989
52.00000 4.153
52.02000 2.465
52.04000 -0.920
52.06000 -0.293
52.08000 -0.307
52.10000 0.915
52.12000 1.711
52.14000 -1.330
52.16000 -0.667
52.18000 5.047
52.20000 4.834
52.22000 1.765
52.24000 -0.043
52.26000 1.522
52.28000 1.121
52.30000 0.312
52.32000 -0.367
52.34000 0.225
52.36000 3.383
52.38000 6.072
52.40000 1.110
52.42000 0.170
52.44000 -0.190
52.46000 0.361
52.48000 3.587
52.50000 4.889
52.52000 -0.855
52.54000 1.014
52.56000 0.519
52.58000 3.635
52.60000 4.152
52.62000 3.061
52.64000 0.102
52.66000 3.278
52.68000 1.955
52.70000 2.311
52.72000 -0.219
52.74000 0.141
52.76000 2.870
52.78000 0.410
52.80000 -0.894
52.82000 0.420
52.84000 -2.572
52.86000 -0.900
52.88000 -0.504
52.90000 -1.594
52.92000 -0.727
52.94000 -0.058
52.96000 -1.931
52.98000 0.533
53.00000 2.283
53.02000 0.914
53.04000 2.238
53.06000 2.253
53.08000 1.337
53.10000 0.190
53.12000 0.395
53.14000 1.792
53.16000 -0.571
53.18000 0.338
53.20000 5.502
53.22000 1.953
53.24000 0.385
53.26000 -0.710
53.28000 2.092
53.30000 -0.311
53.32000 1.219
53.34000 1.246
53.36000 4.596
53.38000 1.179
53.40000 3.702
53.42000 -0.887
53.44000 -2.547
53.46000 -0.654
53.48000 0.564
53.50000 4.193
53.52000 0.613
53.54000 -0.563
53.56000 3.261
53.58000 1.774
53.60000 2.203
53.62000 4.588
53.64000 1.626
53.66000 0.859
53.68000 0.702
53.70000 -0.283
53.72000 0.242
53.74000 -0.139
53.76000 -0.357
53.78000 1.833
53.80000 2.610
53.82000 4.179
53.84000 4.257
53.86000 0.324
53.88000 -1.058
53.90000 -0.480
53.92000 -0.359
53.94000 -2.130
53.96000 -2.528
53.98000 -0.030
54.00000 -0.251
54.02000 0.782
54.04000 1.577
54.06000 0.067
54.08000 2.373
54.10000 5.254
54.12000 1.697
54.14000 -0.565
54.16000 2.086
54.18000 2.807
54.20000 1.853
54.22000 1.952
54.24000 3.659
54.26000 6.872
54.28000 3.686
54.30000 1.636
54.32000 2.977
54.34000 1.325
54.36000 -0.110
54.38000 2.465
54.40000 3.045
54.42000 3.652
54.44000 5.573
54.46000 4.616
54.48000 0.463
54.50000 -0.241
54.52000 2.883
54.54000 3.512
54.56000 2.540
54.58000 -2.485
54.60000 -0.175
54.62000 1.021
54.64000 3.730
54.66000 2.606
54.68000 2.235
54.70000 3.942
54.72000 3.410
54.74000 3.719
54.76000 5.129
54.78000 4.461
54.80000 2.055
54.82000 6.061
54.84000 5.026
54.86000 2.256
54.88000 6.479
54.90000 8.189
54.92000 4.182
54.94000 3.967
54.96000 5.030
54.98000 7.837
55.00000 5.856
55.02000 6.082
55.04000 3.210
55.06000 4.804
55.08000 4.585
55.10000 3.991
55.12000 7.243
55.14000 7.726
55.16000 8.595
55.18000 11.039
55.20000 12.114
55.22000 7.819
55.24000 -0.900
55.26000 -2.448
55.28000 2.423
55.30000 3.772
55.32000 1.505
55.34000 1.355
55.36000 2.924
55.38000 5.008
55.40000 6.312
55.42000 6.637
55.44000 4.692
55.46000 5.124
55.48000 2.558
55.50000 3.704
55.52000 2.680
55.54000 4.733
55.56000 5.890
55.58000 5.953
55.60000 2.926
55.62000 5.602
55.64000 2.254
55.66000 1.904
55.68000 3.261
55.70000 1.246
55.72000 1.302
55.74000 3.223
55.76000 6.276
55.78000 3.439
55.80000 0.284
55.82000 3.090
55.84000 5.009
55.86000 6.768
55.88000 3.362
55.90000 2.900
55.92000 -1.025
55.94000 1.397
55.96000 1.387
55.98000 2.113
56.00000 3.692
56.02000 3.503
56.04000 3.874
56.06000 7.692
56.08000 9.084
56.10000 2.049
56.12000 2.445
56.14000 0.115
56.16000 0.884
56.18000 1.126
56.20000 0.940
56.22000 1.798
56.24000 2.385
56.26000 2.650
56.28000 1.572
56.30000 2.511
56.32000 0.024
56.34000 3.558
56.36000 -0.981
56.38000 1.372
56.40000 -0.493
56.42000 -2.476
56.44000 -0.538
56.46000 1.297
56.48000 2.010
56.50000 2.763
56.52000 -2.114
56.54000 -0.953
56.56000 0.374
56.58000 2.920
56.60000 -1.067
56.62000 1.635
56.64000 5.152
56.66000 3.915
56.68000 0.207
56.70000 3.675
56.72000 3.524
56.74000 2.528
56.76000 0.816
56.78000 -0.493
56.80000 -1.331
56.82000 1.813
56.84000 0.824
56.86000 0.198
56.88000 0.036
56.90000 1.804
56.92000 2.774
56.94000 0.217
56.96000 2.321
56.98000 0.599
57.00000 -0.858
57.02000 0.824
57.04000 -1.303
57.06000 -1.746
57.08000 2.523
57.10000 4.307
57.12000 1.439
57.14000 4.223
57.16000 -0.896
57.18000 -1.500
57.20000 1.225
57.22000 -0.327
57.24000 -0.495
57.26000 0.187
57.28000 -2.061
57.30000 -0.220
57.32000 3.990
57.34000 2.333
57.36000 2.902
57.38000 2.899
57.40000 -0.548
57.42000 -2.189
57.44000 -0.016
57.46000 1.408
57.48000 2.658
57.50000 5.556
57.52000 3.057
57.54000 0.161
57.56000 0.409
57.58000 -2.428
57.60000 1.610
57.62000 0.669
57.64000 -0.671
57.66000 2.611
57.68000 4.477
57.70000 4.433
57.72000 1.851
57.74000 2.463
57.76000 2.677
57.78000 1.487
57.80000 2.655
57.82000 2.505
57.84000 2.183
57.86000 2.783
57.88000 1.724
57.90000 2.753
57.92000 1.314
57.94000 1.626
57.96000 5.016
57.98000 -1.051
58.00000 -0.311
58.02000 8.288
58.04000 5.078
58.06000 2.905
58.08000 2.513
58.10000 1.749
58.12000 1.635
58.14000 -2.384
58.16000 -1.353
58.18000 0.867
58.20000 2.588
58.22000 2.195
58.24000 3.752
58.26000 7.137
58.28000 5.203
58.30000 5.669
58.32000 1.262
58.34000 2.878
58.36000 2.487
58.38000 5.222
58.40000 7.548
58.42000 7.667
58.44000 3.304
58.46000 4.257
58.48000 5.199
58.50000 3.839
58.52000 5.007
58.54000 1.704
58.56000 0.799
58.58000 0.468
58.60000 2.421
58.62000 1.820
58.64000 3.692
58.66000 4.913
58.68000 0.260
58.70000 4.183
58.72000 6.021
58.74000 5.738
58.76000 2.150
58.78000 -0.768
58.80000 1.122
58.82000 4.387
58.84000 2.603
58.86000 2.236
58.88000 0.103
58.90000 3.611
58.92000 2.771
58.94000 3.641
58.96000 2.828
58.98000 5.428
59.00000 5.623
59.02000 6.002
59.04000 1.442
59.06000 1.889
59.08000 5.582
59.10000 5.003
59.12000 4.605
59.14000 4.268
59.16000 3.427
59.18000 -0.420
59.20000 2.151
59.22000 4.508
59.24000 3.440
59.26000 0.526
59.28000 2.642
59.30000 0.562
59.32000 3.462
59.34000 4.203
59.36000 4.627
59.38000 8.248
59.40000 9.680
59.42000 3.366
59.44000 0.471
59.46000 3.275
59.48000 4.683
59.50000 1.041
59.52000 -2.348
59.54000 1.654
59.56000 0.788
59.58000 0.578
59.60000 1.153
59.62000 -1.308
59.64000 0.242
59.66000 5.242
59.68000 6.813
59.70000 5.323
59.72000 5.234
59.74000 1.863
59.76000 3.312
59.78000 4.396
59.80000 2.863
59.82000 3.293
59.84000 3.019
59.86000 6.696
59.88000 2.411
59.90000 0.855
59.92000 -1.093
59.94000 2.015
59.96000 2.759
59.98000 4.350
60.00000 0.483
60.02000 2.964
60.04000 -1.246
60.06000 2.274
60.08000 5.409
60.10000 5.120
60.12000 2.279
60.14000 2.608
60.16000 2.957
60.18000 2.612
60.20000 0.550
60.22000 -1.365
60.24000 2.600
60.26000 3.906
60.28000 3.074
60.30000 2.544
60.32000 2.907
60.34000 1.442
60.36000 1.729
60.38000 3.986
60.40000 3.073
60.42000 2.470
60.44000 4.799
60.46000 6.195
60.48000 4.408
60.50000 5.076
60.52000 3.040
60.54000 2.628
60.56000 1.815
60.58000 -0.300
60.60000 1.577
60.62000 4.196
60.64000 1.559
60.66000 -2.314
60.68000 0.471
60.70000 4.696
60.72000 -0.435
60.74000 -0.878
60.76000 1.546
60.78000 6.956
60.80000 6.752
60.82000 -0.156
60.84000 0.855
60.86000 2.558
60.88000 3.621
60.90000 2.286
60.92000 -0.924
60.94000 -0.831
60.96000 0.669
60.98000 0.851
61.00000 0.841
61.02000 0.698
61.04000 -0.192
61.06000 -2.318
61.08000 -0.271
61.10000 3.006
61.12000 3.288
61.14000 1.638
61.16000 -0.472
61.18000 1.201
61.20000 0.449
61.22000 0.786
61.24000 2.469
61.26000 4.923
61.28000 4.512
61.30000 3.473
61.32000 0.429
61.34000 0.057
61.36000 -0.413
61.38000 0.053
61.40000 3.962
61.42000 3.054
61.44000 0.227
61.46000 1.783
61.48000 0.743
61.50000 1.023
61.52000 1.573
61.54000 0.597
61.56000 -0.653
61.58000 0.867
61.60000 -1.522
61.62000 -0.311
61.64000 1.172
61.66000 -1.851
61.68000 0.087
61.70000 0.754
61.72000 2.262
61.74000 4.730
61.76000 8.030
61.78000 7.271
61.80000 7.479
61.82000 3.891
61.84000 5.260
61.86000 2.770
61.88000 2.040
61.90000 1.386
61.92000 1.518
61.94000 1.734
61.96000 0.657
61.98000 -2.292
62.00000 3.675
62.02000 5.973
62.04000 4.231
62.06000 2.561
62.08000 -1.491
62.10000 2.412
62.12000 5.503
62.14000 4.349
62.16000 5.031
62.18000 5.052
62.20000 6.907
62.22000 3.014
62.24000 0.551
62.26000 0.490
62.28000 1.936
62.30000 6.300
62.32000 5.115
62.34000 1.421
62.36000 1.923
62.38000 6.432
62.40000 3.423
62.42000 3.045
62.44000 4.550
62.46000 7.606
62.48000 1.638
62.50000 -2.284
62.52000 2.542
62.54000 3.635
62.56000 1.156
62.58000 4.493
62.60000 4.560
62.62000 0.304
62.64000 1.489
62.66000 4.454
62.68000 4.164
62.70000 1.111
62.72000 2.180
62.74000 4.132
62.76000 0.726
62.78000 -1.083
62.80000 2.202
62.82000 2.972
62.84000 6.128
62.86000 7.490
62.88000 2.335
62.90000 0.260
62.92000 1.175
62.94000 2.887
62.96000 3.246
62.98000 3.141
63.00000 -0.862
63.02000 0.113
63.04000 -1.536
63.06000 -0.804
63.08000 0.562
63.10000 5.274
63.12000 6.719
63.14000 2.634
63.16000 4.677
63.18000 0.600
63.20000 3.822
63.22000 2.299
63.24000 4.799
63.26000 3.292
63.28000 0.409
63.30000 -0.369
63.32000 -0.246
63.34000 0.920
63.36000 0.713
63.38000 2.554
63.40000 4.059
63.42000 2.862
63.44000 0.854
63.46000 0.151
63.48000 1.020
63.50000 3.383
63.52000 2.063
63.54000 1.923
63.56000 1.928
63.58000 1.923
63.60000 -0.161
63.62000 -0.384
63.64000 2.808
63.66000 2.340
63.68000 -1.814
63.70000 1.095
63.72000 3.507
63.74000 2.210
63.76000 0.729
63.78000 -1.026
63.80000 2.309
63.82000 1.653
63.84000 3.008
63.86000 0.429
63.88000 1.355
63.90000 2.546
63.92000 1.835
63.94000 -1.417
63.96000 -1.691
63.98000 0.923
64.00000 -0.765
64.02000 -2.295
64.04000 0.276
64.06000 3.644
64.08000 0.434
64.10000 1.293
64.12000 0.947
64.14000 0.952
64.16000 0.070
64.18000 1.109
64.20000 3.795
64.22000 5.774
64.24000 3.438
64.26000 2.368
64.28000 -0.164
64.30000 0.715
64.32000 0.875
64.34000 3.036
64.36000 0.271
64.38000 -0.453
64.40000 0.127
64.42000 1.591
64.44000 -1.198
64.46000 0.335
64.48000 -1.948
64.50000 -0.897
64.52000 2.120
64.54000 2.543
64.56000 2.646
64.58000 2.916
64.60000 3.781
64.62000 0.651
64.64000 -1.198
64.66000 -2.316
64.68000 -1.333
64.70000 1.369
64.72000 1.279
64.74000 0.892
64.76000 0.624
64.78000 -0.424
64.80000 0.796
64.82000 3.689
64.84000 2.397
64.86000 -1.989
64.88000 -1.213
64.90000 -1.458
64.92000 1.371
64.94000 3.866
64.96000 2.285
64.98000 2.110
65.00000 3.735
65.02000 4.522
65.04000 1.143
65.06000 -1.006
65.08000 1.118
65.10000 -0.546
65.12000 -0.409
65.14000 2.884
65.16000 4.771
65.18000 1.257
65.20000 2.679
65.22000 0.865
65.24000 1.820
65.26000 -0.833
65.28000 -0.631
65.30000 0.294
65.32000 -2.328
65.34000 -0.589
65.36000 -0.255
65.38000 0.635
65.40000 0.819
65.42000 1.453
65.44000 1.732
65.46000 2.628
65.48000 2.913
65.50000 4.557
65.52000 2.813
65.54000 0.119
65.56000 0.453
65.58000 0.270
65.60000 -0.706
65.62000 1.012
65.64000 1.102
65.66000 -0.848
65.68000 2.122
65.70000 -0.075
65.72000 1.237
65.74000 0.304
65.76000 3.654
65.78000 1.853
65.80000 -1.094
65.82000 -1.076
65.84000 3.192
65.86000 2.752
65.88000 2.348
65.90000 0.883
65.92000 -2.308
65.94000 -0.794
65.96000 3.089
65.98000 2.946
66.00000 1.469
66.02000 -0.229
66.04000 1.595
66.06000 0.889
66.08000 -1.005
66.10000 0.960
66.12000 2.341
66.14000 1.678
66.16000 2.846
66.18000 1.583
66.20000 3.233
66.22000 2.006
66.24000 1.523
66.26000 0.993
66.28000 1.982
66.30000 5.176
66.32000 5.454
66.34000 0.100
66.36000 -0.436
66.38000 -2.321
66.40000 1.258
66.42000 3.547
66.44000 1.726
66.46000 2.885
66.48000 1.840
66.50000 5.208
66.52000 5.452
66.54000 3.821
66.56000 4.422
66.58000 1.626
66.60000 1.071
66.62000 1.913
66.64000 -0.963
66.66000 1.221
66.68000 3.277
66.70000 2.843
66.72000 1.046
66.74000 2.105
66.76000 3.176
66.78000 2.070
66.80000 0.176
66.82000 3.052
66.84000 5.336
66.86000 4.426
66.88000 5.113
66.90000 5.706
66.92000 5.882
66.94000 6.896
66.96000 3.773
66.98000 3.864
67.00000 4.975
67.02000 6.286
67.04000 3.475
67.06000 4.293
67.08000 6.178
67.10000 7.803
67.12000 5.022
67.14000 3.612
67.16000 6.351
67.18000 8.686
67.20000 8.018
67.22000 4.993
67.24000 5.212
67.26000 4.871
67.28000 5.262
67.30000 8.144
67.32000 9.917
67.34000 10.570
67.36000 10.928
67.38000 10.845
67.40000 8.425
67.42000 9.149
67.44000 9.906
67.46000 13.076
67.48000 12.064
67.50000 10.760
67.52000 9.694
67.54000 11.362
67.56000 11.511
67.58000 13.681
67.60000 14.762
67.62000 12.600
67.64000 14.009
67.66000 12.942
67.68000 15.448
67.70000 15.277
67.72000 15.940
67.74000 14.204
67.76000 17.373
67.78000 17.660
67.80000 16.299
67.82000 17.894
67.84000 16.847
67.86000 18.281
67.88000 21.016
67.90000 20.933
67.92000 21.781
67.94000 19.900
67.96000 20.318
67.98000 24.047
68.00000 22.202
68.02000 16.930
68.04000 20.898
68.06000 19.996
68.08000 19.382
68.10000 16.911
68.12000 19.662
68.14000 18.375
68.16000 16.709
68.18000 16.993
68.20000 18.795
68.22000 17.537
68.24000 16.677
68.26000 19.990
68.28000 15.629
68.30000 12.911
68.32000 14.510
68.34000 12.696
68.36000 11.613
68.38000 14.331
68.40000 13.669
68.42000 11.023
68.44000 12.566
68.46000 14.649
68.48000 11.587
68.50000 12.545
68.52000 11.915
68.54000 9.927
68.56000 7.906
68.58000 7.573
68.60000 9.463
68.62000 9.153
68.64000 9.193
68.66000 10.943
68.68000 10.550
68.70000 6.479
68.72000 3.590
68.74000 5.602
68.76000 7.075
68.78000 7.133
68.80000 6.265
68.82000 5.955
68.84000 4.705
68.86000 5.736
68.88000 2.154
68.90000 1.612
68.92000 3.348
68.94000 3.649
68.96000 2.730
68.98000 0.970
69.00000 1.075
69.02000 4.192
69.04000 5.702
69.06000 0.167
69.08000 -1.865
69.10000 -1.269
69.12000 1.329
69.14000 1.122
69.16000 3.373
69.18000 -0.872
69.20000 -2.097
69.22000 0.082
69.24000 0.591
69.26000 2.871
69.28000 3.466
69.30000 1.404
69.32000 -2.281
69.34000 -1.472
69.36000 1.793
69.38000 1.024
69.40000 3.110
69.42000 1.739
69.44000 2.802
69.46000 1.819
69.48000 1.525
69.50000 0.189
69.52000 2.280
69.54000 1.206
69.56000 1.608
69.58000 4.704
69.60000 1.572
69.62000 -2.242
69.64000 1.017
69.66000 2.890
69.68000 3.012
69.70000 4.021
69.72000 2.089
69.74000 2.142
69.76000 5.134
69.78000 3.109
69.80000 3.382
69.82000 1.489
69.84000 -0.150
69.86000 -1.097
69.88000 0.881
69.90000 1.418
69.92000 2.401
69.94000 2.743
69.96000 2.609
69.98000 0.339
70.00000 2.484
70.02000 2.983
70.04000 5.515
70.06000 5.785
70.08000 3.003
70.10000 1.378
70.12000 -0.410
70.14000 -1.738
70.16000 0.374
70.18000 1.691
70.20000 1.253
70.22000 3.121
70.24000 3.209
70.26000 1.012
70.28000 2.463
70.30000 2.078
70.32000 -0.398
70.34000 -0.367
70.36000 0.060
70.38000 2.360
70.40000 1.773
70.42000 -1.948
70.44000 -2.219
70.46000 1.000
70.48000 3.369
70.50000 -1.524
70.52000 1.792
70.54000 2.342
70.56000 1.481
70.58000 -0.766
70.60000 0.473
70.62000 2.691
70.64000 3.381
70.66000 1.545
70.68000 0.272
70.70000 4.085
70.72000 2.976
70.74000 -0.518
70.76000 2.600
70.78000 5.131
70.80000 4.422
70.82000 -0.116
70.84000 1.827
70.86000 3.644
70.88000 0.631
70.90000 0.701
70.92000 2.148
70.94000 3.005
70.96000 2.082
70.98000 3.872
71.00000 2.503
71.02000 1.533
71.04000 2.009
71.06000 2.481
71.08000 3.769
71.10000 3.490
71.12000 -0.054
71.14000 -2.172
71.16000 0.360
71.18000 3.450
71.20000 4.036
71.22000 3.505
71.24000 2.914
71.26000 3.578
71.28000 1.974
71.30000 0.880
71.32000 -1.726
71.34000 3.589
71.36000 3.742
71.38000 3.185
71.40000 6.860
71.42000 5.979
71.44000 5.760
71.46000 2.761
71.48000 3.133
71.50000 0.552
71.52000 1.738
71.54000 -0.627
71.56000 1.356
71.58000 1.819
71.60000 6.482
71.62000 5.072
71.64000 -0.364
71.66000 -1.561
71.68000 0.690
71.70000 2.819
71.72000 2.757
71.74000 5.602
71.76000 2.188
71.78000 1.396
71.80000 1.763
71.82000 4.146
71.84000 4.511
71.86000 1.059
71.88000 2.395
71.90000 2.496
71.92000 4.761
71.94000 2.675
71.96000 0.236
71.98000 4.090
72.00000 2.001
72.02000 3.537
72.04000 2.913
72.06000 2.314
72.08000 1.623
72.10000 2.765
72.12000 1.588
72.14000 3.776
72.16000 6.132
72.18000 4.908
72.20000 1.403
72.22000 2.431
72.24000 2.764
72.26000 0.738
72.28000 0.905
72.30000 -0.176
72.32000 2.715
72.34000 4.670
72.36000 1.979
72.38000 -1.562
72.40000 -0.362
72.42000 0.637
72.44000 -1.094
72.46000 -1.434
72.48000 -0.661
72.50000 -0.466
72.52000 -0.619
72.54000 1.531
72.56000 1.826
72.58000 3.668
72.60000 -0.881
72.62000 -0.832
72.64000 4.893
72.66000 6.834
72.68000 6.508
72.70000 4.735
72.72000 0.062
72.74000 0.753
72.76000 1.118
72.78000 1.390
72.80000 2.068
72.82000 -1.112
72.84000 -1.482
72.86000 1.381
72.88000 2.829
72.90000 1.314
72.92000 -2.091
72.94000 -0.085
72.96000 2.552
72.98000 -0.090
73.00000 0.841
73.02000 0.507
73.04000 3.780
73.06000 3.785
73.08000 1.855
73.10000 0.876
73.12000 2.107
73.14000 1.127
73.16000 0.773
73.18000 2.137
73.20000 1.642
73.22000 3.640
73.24000 6.815
73.26000 5.334
73.28000 5.256
73.30000 0.428
73.32000 -1.843
73.34000 -1.137
73.36000 1.953
73.38000 0.690
73.40000 3.224
73.42000 1.983
73.44000 2.233
73.46000 0.991
73.48000 0.234
73.50000 0.437
73.52000 2.084
73.54000 1.289
73.56000 0.428
73.58000 1.560
73.60000 4.481
73.62000 1.875
73.64000 0.762
73.66000 1.669
73.68000 2.833
73.70000 2.068
73.72000 3.501
73.74000 2.028
73.76000 1.102
73.78000 0.405
73.80000 -1.274
73.82000 4.852
73.84000 4.287
73.86000 0.307
73.88000 1.891
73.90000 0.713
73.92000 -2.113
73.94000 -1.783
73.96000 0.185
73.98000 5.984
74.00000 2.461
74.02000 1.065
74.04000 4.302
74.06000 2.805
74.08000 0.564
74.10000 1.106
74.12000 1.666
74.14000 1.192
74.16000 0.428
74.18000 -0.239
74.20000 1.893
74.22000 -1.060
74.24000 0.018
74.26000 1.406
74.28000 4.857
74.30000 2.715
74.32000 -0.010
74.34000 1.072
74.36000 1.315
74.38000 0.485
74.40000 2.287
74.42000 1.094
74.44000 1.418
74.46000 2.687
74.48000 4.273
74.50000 1.687
74.52000 -1.010
74.54000 1.559
74.56000 4.115
74.58000 0.269
74.60000 -1.950
74.62000 0.020
74.64000 5.425
74.66000 2.502
74.68000 -0.724
74.70000 1.584
74.72000 0.186
74.74000 -2.036
74.76000 0.914
74.78000 2.067
74.80000 2.347
74.82000 4.109
74.84000 4.954
74.86000 0.593
74.88000 -1.094
74.90000 0.429
74.92000 2.678
74.94000 4.369
74.96000 2.650
74.98000 0.324
75.00000 1.188
75.02000 0.438
75.04000 2.673
75.06000 1.752
75.08000 -1.113
75.10000 -2.132
75.12000 0.348
75.14000 5.465
75.16000 4.020
75.18000 3.926
75.20000 7.608
75.22000 3.773
75.24000 2.229
75.26000 4.287
75.28000 2.808
75.30000 3.343
75.32000 4.204
75.34000 3.342
75.36000 1.652
75.38000 2.054
75.40000 1.901
75.42000 -0.124
75.44000 1.266
75.46000 2.847
75.48000 3.472
75.50000 4.371
75.52000 7.654
75.54000 3.326
75.56000 3.255
75.58000 4.868
75.60000 1.731
75.62000 -0.460
75.64000 0.284
75.66000 3.350
75.68000 3.616
75.70000 5.511
75.72000 8.671
75.74000 2.287
75.76000 2.906
75.78000 3.896
75.80000 1.886
75.82000 2.145
75.84000 3.089
75.86000 6.373
75.88000 6.834
75.90000 6.408
75.92000 4.838
75.94000 4.545
75.96000 4.428
75.98000 0.345
76.00000 -1.593
76.02000 3.509
76.04000 4.988
76.06000 4.372
76.08000 7.225
76.10000 7.496
76.12000 3.442
76.14000 -2.078
76.16000 0.493
76.18000 4.522
76.20000 1.066
76.22000 1.283
76.24000 0.071
76.26000 0.319
76.28000 0.347
76.30000 2.858
76.32000 2.761
76.34000 5.430
76.36000 5.851
76.38000 2.508
76.40000 2.392
76.42000 1.517
76.44000 2.242
76.46000 -0.905
76.48000 0.090
76.50000 0.308
76.52000 1.435
76.54000 1.789
76.56000 0.671
76.58000 3.455
76.60000 5.131
76.62000 5.876
76.64000 3.629
76.66000 3.113
76.68000 -0.166
76.70000 2.799
76.72000 5.409
76.74000 3.948
76.76000 2.033
76.78000 -0.126
76.80000 3.816
76.82000 2.221
76.84000 0.832
76.86000 0.005
76.88000 1.108
76.90000 1.240
76.92000 4.070
76.94000 2.003
76.96000 3.138
76.98000 4.546
77.00000 3.618
77.02000 7.187
77.04000 4.948
77.06000 2.206
77.08000 1.869
77.10000 1.799
77.12000 1.729
77.14000 0.705
77.16000 0.575
77.18000 0.670
77.20000 -1.997
77.22000 2.540
77.24000 4.488
77.26000 0.016
77.28000 1.348
77.30000 3.879
77.32000 2.445
77.34000 4.448
77.36000 2.303
77.38000 0.445
77.40000 -0.748
77.42000 -1.034
77.44000 3.433
77.46000 5.107
77.48000 3.870
77.50000 2.907
77.52000 2.178
77.54000 2.087
77.56000 4.025
77.58000 3.506
77.60000 3.622
77.62000 2.389
77.64000 2.189
77.66000 4.288
77.68000 1.176
77.70000 -2.149
77.72000 0.486
77.74000 1.049
77.76000 1.369
77.78000 2.397
77.80000 2.870
77.82000 4.651
77.84000 4.257
77.86000 3.267
77.88000 1.954
77.90000 3.868
77.92000 7.490
77.94000 2.796
77.96000 -0.282
77.98000 1.124
78.00000 6.626
78.02000 4.165
78.04000 5.285
78.06000 4.762
78.08000 7.848
78.10000 2.421
78.12000 -2.134
78.14000 -0.407
78.16000 0.585
78.18000 3.231
78.20000 3.414
78.22000 6.328
78.24000 3.512
78.26000 3.482
78.28000 1.827
78.30000 0.935
78.32000 0.922
78.34000 0.026
78.36000 0.957
78.38000 6.446
78.40000 4.482
78.42000 4.623
78.44000 1.948
78.46000 1.457
78.48000 1.234
78.50000 3.602
78.52000 3.577
78.54000 4.423
78.56000 7.143
78.58000 5.397
78.60000 4.757
78.62000 3.077
78.64000 4.441
78.66000 5.244
78.68000 5.531
78.70000 6.763
78.72000 8.049
78.74000 6.964
78.76000 7.955
78.78000 4.696
78.80000 1.456
78.82000 -0.829
78.84000 -1.024
78.86000 -0.246
78.88000 -2.154
78.90000 3.310
78.92000 7.206
78.94000 2.922
78.96000 1.095
78.98000 2.290
79.00000 2.147
79.02000 1.904
79.04000 0.167
79.06000 3.667
79.08000 4.539
79.10000 3.198
79.12000 4.174
79.14000 3.199
79.16000 3.202
79.18000 3.252
79.20000 3.434
79.22000 5.341
79.24000 3.822
79.26000 3.140
79.28000 1.107
79.30000 0.894
79.32000 4.130
79.34000 5.763
79.36000 5.174
79.38000 0.693
79.40000 4.179
79.42000 3.641
79.44000 1.979
79.46000 -0.105
79.48000 0.870
79.50000 3.238
79.52000 7.910
79.54000 5.719
79.56000 2.855
79.58000 0.690
79.60000 3.811
79.62000 5.690
79.64000 8.109
79.66000 4.430
79.68000 2.189
79.70000 -0.508
79.72000 5.046
79.74000 4.290
79.76000 1.508
79.78000 1.989
79.80000 2.459
79.82000 0.855
79.84000 2.137
79.86000 1.965
79.88000 2.090
79.90000 0.981
79.92000 0.702
79.94000 2.167
79.96000 3.550
79.98000 1.781
80.00000 0.919
80.02000 0.838
80.04000 0.395
80.06000 4.193
80.08000 6.068
80.10000 8.121
80.12000 7.770
80.14000 5.809
80.16000 0.270
80.18000 -2.230
80.20000 2.108
80.22000 4.131
80.24000 5.494
80.26000 4.766
80.28000 2.207
80.30000 5.686
80.32000 6.717
80.34000 6.779
80.36000 3.333
80.38000 2.134
80.40000 6.661
80.42000 2.202
80.44000 3.997
80.46000 5.653
80.48000 2.103
80.50000 4.415
80.52000 6.410
80.54000 8.005
80.56000 5.769
80.58000 7.401
80.60000 3.973
80.62000 4.293
80.64000 4.545
80.66000 4.857
80.68000 5.426
80.70000 0.142
80.72000 2.231
80.74000 5.718
80.76000 4.925
80.78000 1.848
80.80000 7.021
80.82000 6.522
80.84000 3.358
80.86000 5.815
80.88000 3.885
80.90000 10.495
80.92000 10.136
80.94000 7.028
80.96000 2.902
80.98000 5.470
81.00000 7.854
81.02000 9.688
81.04000 13.806
81.06000 13.257
81.08000 8.867
81.10000 7.719
81.12000 8.785
81.14000 7.229
81.16000 11.045
81.18000 9.391
81.20000 9.430
81.22000 14.021
81.24000 16.695
81.26000 14.141
81.28000 12.959
81.30000 12.543
81.32000 12.185
81.34000 14.325
81.36000 12.553
81.38000 16.460
81.40000 17.474
81.42000 18.479
81.44000 16.552
81.46000 14.088
81.48000 16.007
81.50000 16.906
81.52000 18.354
81.54000 19.583
81.56000 17.241
81.58000 13.948
81.60000 13.653
81.62000 18.004
81.64000 14.222
81.66000 17.865
81.68000 21.601
81.70000 23.828
81.72000 23.897
81.74000 23.453
81.76000 21.115
81.78000 21.709
81.80000 26.627
81.82000 24.675
81.84000 23.167
81.86000 21.485
81.88000 24.647
81.90000 29.265
81.92000 27.460
81.94000 26.330
81.96000 29.084
81.98000 29.848
82.00000 24.398
82.02000 21.212
82.04000 24.166
82.06000 28.983
82.08000 30.316
82.10000 28.059
82.12000 26.580
82.14000 27.039
82.16000 28.304
82.18000 27.885
82.20000 24.851
82.22000 22.566
82.24000 21.235
82.26000 25.489
82.28000 23.642
82.30000 19.708
82.32000 23.138
82.34000 23.408
82.36000 25.828
82.38000 20.093
82.40000 18.758
82.42000 24.163
82.44000 22.286
82.46000 22.238
82.48000 23.118
82.50000 19.871
82.52000 20.559
82.54000 20.253
82.56000 22.098
82.58000 16.851
82.60000 19.379
82.62000 19.237
82.64000 15.201
82.66000 17.502
82.68000 16.281
82.70000 19.850
82.72000 17.424
82.74000 16.499
82.76000 15.051
82.78000 10.241
82.80000 13.421
82.82000 9.298
82.84000 10.839
82.86000 12.481
82.88000 12.386
82.90000 10.201
82.92000 7.363
82.94000 6.377
82.96000 8.561
82.98000 9.646
83.00000 5.513
83.02000 8.624
83.04000 9.521
83.06000 9.500
83.08000 6.556
83.10000 7.906
83.12000 10.220
83.14000 8.683
83.16000 5.933
83.18000 3.727
83.20000 4.588
83.22000 1.694
83.24000 1.510
83.26000 2.506
83.28000 5.942
83.30000 3.415
83.32000 4.483
83.34000 4.674
83.36000 2.198
83.38000 0.372
83.40000 0.848
83.42000 2.645
83.44000 3.150
83.46000 -1.501
83.48000 0.150
83.50000 2.184
83.52000 3.676
83.54000 2.811
83.56000 -0.021
83.58000 0.371
83.60000 0.549
83.62000 3.903
83.64000 1.481
83.66000 -1.025
83.68000 -0.713
83.70000 -0.773
83.72000 -0.621
83.74000 -2.290
83.76000 1.404
83.78000 0.503
83.80000 3.074
83.82000 4.951
83.84000 1.469
83.86000 1.991
83.88000 -2.174
83.90000 2.322
83.92000 4.742
83.94000 2.745
83.96000 0.141
83.98000 6.140
84.00000 7.505
84.02000 -2.134
84.04000 -2.260
84.06000 -0.927
84.08000 -0.195
84.10000 1.893
84.12000 4.484
84.14000 3.922
84.16000 2.262
84.18000 -0.621
84.20000 -2.244
84.22000 -0.034
84.24000 3.535
84.26000 0.970
84.28000 3.936
84.30000 0.819
84.32000 -1.465
84.34000 -0.078
84.36000 1.943
84.38000 2.172
84.40000 4.128
84.42000 0.687
84.44000 -0.164
84.46000 0.054
84.48000 0.404
84.50000 3.091
84.52000 3.169
84.54000 1.518
84.56000 0.566
84.58000 1.576
84.60000 4.937
84.62000 0.776
84.64000 0.809
84.66000 3.183
84.68000 2.739
84.70000 -0.012
84.72000 -1.085
84.74000 2.610
84.76000 7.317
84.78000 3.015
84.80000 3.411
84.82000 4.890
84.84000 0.743
84.86000 3.346
84.88000 3.734
84.90000 4.079
84.92000 3.282
84.94000 0.823
84.96000 -2.251
84.98000 3.713
85.00000 4.405
85.02000 2.449
85.04000 1.044
85.06000 -1.343
85.08000 -1.556
85.10000 0.994
85.12000 4.973
85.14000 6.168
85.16000 4.066
85.18000 3.485
85.20000 2.830
85.22000 2.110
85.24000 5.050
85.26000 3.690
85.28000 1.743
85.30000 0.716
85.32000 5.948
85.34000 8.000
85.36000 8.698
85.38000 6.518
85.40000 4.534
85.42000 4.670
85.44000 4.883
85.46000 4.406
85.48000 6.140
85.50000 8.208
85.52000 7.074
85.54000 3.300
85.56000 8.601
85.58000 5.541
85.60000 9.481
85.62000 6.917
85.64000 9.032
85.66000 12.137
85.68000 11.169
85.70000 10.123
85.72000 12.611
85.74000 14.750
85.76000 17.296
85.78000 13.295
85.80000 15.624
85.82000 18.711
85.84000 17.715
85.86000 18.695
85.88000 19.230
85.90000 12.053
85.92000 15.142
85.94000 18.085
85.96000 14.773
85.98000 14.551
86.00000 19.774
86.02000 19.930
86.04000 22.739
86.06000 23.283
86.08000 18.088
86.10000 18.116
86.12000 16.785
86.14000 14.383
86.16000 18.143
86.18000 21.702
86.20000 23.240
86.22000 22.807
86.24000 22.010
86.26000 22.806
86.28000 19.855
86.30000 20.569
86.32000 17.835
86.34000 17.577
86.36000 18.332
86.38000 20.359
86.40000 18.459
86.42000 15.214
86.44000 16.506
86.46000 18.979
86.48000 19.287
86.50000 17.005
86.52000 16.041
86.54000 19.683
86.56000 17.451
86.58000 17.330
86.60000 23.204
86.62000 20.973
86.64000 13.145
86.66000 11.153
86.68000 10.937
86.70000 14.128
86.72000 19.946
86.74000 18.427
86.76000 19.003
86.78000 14.716
86.80000 14.307
86.82000 14.947
86.84000 12.872
86.86000 5.695
86.88000 6.905
86.90000 11.970
86.92000 10.211
86.94000 8.448
86.96000 8.802
86.98000 8.245
87.00000 5.724
87.02000 9.115
87.04000 10.313
87.06000 8.828
87.08000 6.974
87.10000 8.575
87.12000 9.657
87.14000 4.174
87.16000 1.739
87.18000 7.311
87.20000 4.023
87.22000 3.550
87.24000 4.251
87.26000 9.093
87.28000 9.941
87.30000 7.186
87.32000 1.844
87.34000 0.356
87.36000 1.543
87.38000 0.685
87.40000 3.647
87.42000 5.752
87.44000 1.336
87.46000 1.112
87.48000 3.585
87.50000 5.272
87.52000 7.595
87.54000 3.609
87.56000 2.766
87.58000 3.727
87.60000 1.059
87.62000 -2.095
87.64000 0.095
87.66000 2.747
87.68000 6.070
87.70000 5.430
87.72000 0.587
87.74000 -0.582
87.76000 -2.078
87.78000 1.434
87.80000 0.740
87.82000 3.706
87.84000 5.268
87.86000 1.580
87.88000 -1.405
87.90000 -0.692
87.92000 2.251
87.94000 1.355
87.96000 0.418
87.98000 -1.059
88.00000 -2.011
88.02000 2.967
88.04000 4.121
88.06000 1.941
88.08000 -0.364
88.10000 0.864
88.12000 0.677
88.14000 2.038
88.16000 3.091
88.18000 4.404
88.20000 4.415
88.22000 2.858
88.24000 -1.259
88.26000 -0.392
88.28000 -0.062
88.30000 3.368
88.32000 2.285
88.34000 3.014
88.36000 1.231
88.38000 1.631
88.40000 1.941
88.42000 5.301
88.44000 3.357
88.46000 3.417
88.48000 5.397
88.50000 2.983
88.52000 3.582
88.54000 4.734
88.56000 5.484
88.58000 0.186
88.60000 -1.997
88.62000 2.117
88.64000 2.235
88.66000 3.926
88.68000 2.304
88.70000 4.166
88.72000 3.296
88.74000 -0.856
88.76000 0.788
88.78000 -1.172
88.80000 0.336
88.82000 3.126
88.84000 5.340
88.86000 4.520
88.88000 5.041
88.90000 0.422
88.92000 -0.251
88.94000 2.766
88.96000 2.187
88.98000 2.853
89.00000 0.319
89.02000 3.394
89.04000 4.157
89.06000 -1.332
89.08000 0.696
89.10000 3.001
89.12000 6.268
89.14000 3.105
89.16000 1.537
89.18000 -0.363
89.20000 3.889
89.22000 5.442
89.24000 3.964
89.26000 3.700
89.28000 2.670
89.30000 -1.982
89.32000 2.538
89.34000 3.697
89.36000 4.673
89.38000 3.926
89.40000 6.144
89.42000 2.785
89.44000 1.751
89.46000 0.631
89.48000 4.449
89.50000 6.066
89.52000 7.410
89.54000 1.060
89.56000 5.252
89.58000 1.865
89.60000 -1.973
89.62000 2.577
89.64000 1.144
89.66000 1.721
89.68000 0.287
89.70000 2.819
89.72000 7.478
89.74000 6.139
89.76000 1.074
89.78000 0.627
89.80000 1.739
89.82000 6.652
89.84000 4.280
89.86000 2.740
89.88000 -1.973
89.90000 -0.780
89.92000 1.472
89.94000 1.111
89.96000 1.442
89.98000 3.520
90.00000 3.881
90.02000 1.428
90.04000 3.318
90.06000 8.178
90.08000 4.322
90.10000 2.857
90.12000 0.086
90.14000 0.059
90.16000 -0.809
90.18000 3.755
90.20000 -1.713
90.22000 4.962
90.24000 7.921
90.26000 1.780
90.28000 0.219
90.30000 2.597
90.32000 3.282
90.34000 2.594
90.36000 5.429
90.38000 7.439
90.40000 5.772
90.42000 5.712
90.44000 4.586
90.46000 8.798
90.48000 6.433
90.50000 2.994
90.52000 2.410
90.54000 5.231
90.56000 5.610
90.58000 1.801
90.60000 4.110
90.62000 4.704
90.64000 4.136
90.66000 5.184
90.68000 0.977
90.70000 5.157
90.72000 3.779
90.74000 3.229
90.76000 3.314
90.78000 4.255
90.80000 0.721
90.82000 -1.963
90.84000 1.612
90.86000 2.615
90.88000 -0.257
90.90000 -0.185
90.92000 0.790
90.94000 7.230
90.96000 5.884
90.98000 2.370
91.00000 3.469
91.02000 1.960
91.04000 2.537
91.06000 1.107
91.08000 2.084
91.10000 7.301
91.12000 4.099
91.14000 2.478
91.16000 3.068
91.18000 8.970
91.20000 4.842
91.22000 4.053
91.24000 -1.204
91.26000 -1.778
91.28000 1.438
91.30000 5.852
91.32000 6.094
91.34000 3.525
91.36000 4.641
91.38000 3.020
91.40000 -0.047
91.42000 -0.668
91.44000 0.443
91.46000 -0.447
91.48000 2.755
91.50000 0.379
91.52000 6.445
91.54000 6.413
91.56000 10.170
91.58000 2.142
91.60000 0.131
91.62000 -0.656
91.64000 1.204
91.66000 0.393
91.68000 1.637
91.70000 4.613
91.72000 3.364
91.74000 2.229
91.76000 1.198
91.78000 4.375
91.80000 -0.776
91.82000 -0.034
91.84000 0.139
91.86000 6.505
91.88000 9.110
91.90000 7.136
91.92000 3.887
91.94000 3.271
91.96000 2.445
91.98000 2.768
92.00000 5.996
92.02000 4.795
92.04000 5.070
92.06000 2.296
92.08000 1.673
92.10000 2.402
92.12000 4.037
92.14000 3.331
92.16000 1.582
92.18000 4.848
92.20000 6.685
92.22000 7.313
92.24000 3.421
92.26000 -1.347
92.28000 -1.956
92.30000 1.821
92.32000 1.387
92.34000 -0.264
92.36000 0.824
92.38000 7.641
92.40000 5.499
92.42000 5.303
92.44000 2.734
92.46000 3.998
92.48000 -1.955
92.50000 3.649
92.52000 4.648
92.54000 9.679
92.56000 5.333
92.58000 5.633
92.60000 3.986
92.62000 3.104
92.64000 3.099
92.66000 5.960
92.68000 1.297
92.70000 1.152
92.72000 4.825
92.74000 5.897
92.76000 6.334
92.78000 2.531
92.80000 0.955
92.82000 3.520
92.84000 -1.985
92.86000 -1.278
92.88000 1.703
92.90000 1.173
92.92000 3.516
92.94000 6.304
92.96000 2.888
92.98000 -0.844
93.00000 -0.090
93.02000 3.973
93.04000 3.939
93.06000 4.271
93.08000 2.147
93.10000 5.199
93.12000 3.856
93.14000 1.815
93.16000 0.401
93.18000 1.823
93.20000 0.623
93.22000 1.822
93.24000 2.546
93.26000 3.701
93.28000 2.465
93.30000 -1.414
93.32000 2.284
93.34000 -0.999
93.36000 0.674
93.38000 3.386
93.40000 9.496
93.42000 7.332
93.44000 2.834
93.46000 2.463
93.48000 1.962
93.50000 4.703
93.52000 5.874
93.54000 5.626
93.56000 1.893
93.58000 5.461
93.60000 3.896
93.62000 0.816
93.64000 0.967
93.66000 2.006
93.68000 1.374
93.70000 2.891
93.72000 0.253
93.74000 2.162
93.76000 3.273
93.78000 3.724
93.80000 -2.038
93.82000 0.028
93.84000 5.198
93.86000 2.718
93.88000 -1.208
93.90000 0.284
93.92000 0.447
93.94000 -0.867
93.96000 2.045
93.98000 1.775
94.00000 0.138
94.02000 -0.622
94.04000 3.307
94.06000 2.832
94.08000 4.698
94.10000 4.646
94.12000 2.626
94.14000 2.639
94.16000 2.388
94.18000 3.633
94.20000 2.333
94.22000 1.768
94.24000 1.864
94.26000 1.121
94.28000 3.450
94.30000 3.301
94.32000 1.842
94.34000 0.555
94.36000 -0.732
94.38000 0.015
94.40000 -1.190
94.42000 -1.998
94.44000 0.673
94.46000 4.221
94.48000 2.034
94.50000 -0.563
94.52000 -0.884
94.54000 1.198
94.56000 3.996
94.58000 2.350
94.60000 4.485
94.62000 4.188
94.64000 4.264
94.66000 4.351
94.68000 6.162
94.70000 3.130
94.72000 4.530
94.74000 2.410
94.76000 1.124
94.78000 0.988
94.80000 4.773
94.82000 2.680
94.84000 2.824
94.86000 3.354
94.88000 1.683
94.90000 -2.057
94.92000 -1.600
94.94000 2.110
94.96000 3.135
94.98000 2.416
95.00000 -0.259
95.02000 4.547
95.04000 5.024
95.06000 2.059
95.08000 -0.465
95.10000 1.586
95.12000 7.677
95.14000 4.994
95.16000 5.469
95.18000 5.319
95.20000 5.720
95.22000 6.922
95.24000 3.240
95.26000 0.600
95.28000 4.821
95.30000 7.470
95.32000 7.541
95.34000 3.598
95.36000 3.366
95.38000 1.281
95.40000 0.948
95.42000 1.214
95.44000 -0.434
95.46000 -2.044
95.48000 2.941
95.50000 5.220
95.52000 2.224
95.54000 -0.266
95.56000 3.160
95.58000 5.833
95.60000 4.130
95.62000 3.087
95.64000 2.505
95.66000 1.490
95.68000 2.625
95.70000 5.987
95.72000 8.799
95.74000 6.744
95.76000 4.106
95.78000 3.814
95.80000 2.311
95.82000 1.960
95.84000 3.061
95.86000 2.289
95.88000 5.942
95.90000 6.026
95.92000 6.044
95.94000 4.096
95.96000 1.854
95.98000 1.249
96.00000 2.621
96.02000 6.864
96.04000 4.105
96.06000 4.432
96.08000 5.184
96.10000 3.477
96.12000 3.239
96.14000 7.966
96.16000 4.326
96.18000 2.101
96.20000 5.840
96.22000 -1.621
96.24000 1.628
96.26000 0.893
96.28000 -1.308
96.30000 3.826
96.32000 5.269
96.34000 4.127
96.36000 4.537
96.38000 4.252
96.40000 4.218
96.42000 10.247
96.44000 5.870
96.46000 1.533
96.48000 2.929
96.50000 4.080
96.52000 2.294
96.54000 -0.973
96.56000 3.579
96.58000 6.044
96.60000 1.231
96.62000 -2.004
96.64000 -1.737
96.66000 2.236
96.68000 1.781
96.70000 1.722
96.72000 -0.092
96.74000 4.415
96.76000 3.705
96.78000 6.691
96.80000 1.348
96.82000 1.616
96.84000 6.397
96.86000 6.017
96.88000 4.484
96.90000 6.107
96.92000 13.050
96.94000 8.359
96.96000 2.828
96.98000 2.429
97.00000 5.504
97.02000 8.190
97.04000 6.865
97.06000 5.895
97.08000 2.506
97.10000 6.024
97.12000 4.453
97.14000 1.360
97.16000 0.232
97.18000 1.993
97.20000 1.798
97.22000 3.060
97.24000 4.616
97.26000 3.196
97.28000 4.378
97.30000 6.387
97.32000 4.702
97.34000 5.600
97.36000 5.527
97.38000 2.006
97.40000 1.177
97.42000 -0.419
97.44000 1.813
97.46000 0.766
97.48000 5.392
97.50000 3.437
97.52000 1.345
97.54000 7.087
97.56000 5.696
97.58000 3.298
97.60000 1.482
97.62000 -1.581
97.64000 -0.885
97.66000 1.434
97.68000 6.315
97.70000 8.166
97.72000 8.513
97.74000 2.780
97.76000 7.892
97.78000 3.543
97.80000 3.063
97.82000 0.433
97.84000 7.534
97.86000 5.773
97.88000 -0.125
97.90000 8.040
97.92000 7.979
97.94000 8.406
97.96000 0.961
97.98000 4.258
98.00000 4.806
98.02000 2.488
98.04000 2.822
98.06000 5.853
98.08000 1.223
98.10000 0.676
98.12000 2.395
98.14000 1.913
98.16000 0.890
98.18000 0.350
98.20000 9.136
98.22000 9.238
98.24000 0.416
98.26000 5.490
98.28000 6.135
98.30000 2.399
98.32000 0.787
98.34000 5.279
98.36000 8.613
98.38000 6.473
98.40000 1.500
98.42000 -0.358
98.44000 6.148
98.46000 5.718
98.48000 4.763
98.50000 11.170
98.52000 3.451
98.54000 0.597
98.56000 -1.973
98.58000 2.734
98.60000 7.305
98.62000 11.694
98.64000 9.989
98.66000 8.379
98.68000 3.527
98.70000 3.938
98.72000 2.945
98.74000 9.477
98.76000 7.349
98.78000 7.421
98.80000 6.749
98.82000 10.297
98.84000 9.026
98.86000 6.211
98.88000 15.365
98.90000 12.950
98.92000 8.778
98.94000 8.462
98.96000 8.265
98.98000 4.514
99.00000 7.665
99.02000 10.354
99.04000 8.453
99.06000 5.835
99.08000 7.727
99.10000 -3.108
99.12000 4.038
99.14000 8.449
99.16000 7.338
99.18000 16.299
99.20000 12.008
99.22000 7.157
99.24000 3.193
99.26000 6.638
99.28000 7.938
99.30000 10.944
99.32000 9.194
99.34000 8.685
99.36000 7.561
99.38000 5.450
99.40000 6.231
99.42000 7.455
99.44000 3.339
99.46000 11.164
99.48000 4.714
99.50000 -1.996
99.52000 5.121
99.54000 9.121
99.56000 8.631
99.58000 10.676
99.60000 14.156
99.62000 8.197
99.64000 7.630
99.66000 4.723
99.68000 5.841
99.70000 15.742
99.72000 10.090
99.74000 2.665
99.76000 5.022
99.78000 8.469
99.80000 2.561
99.82000 -1.979
99.84000 1.725
99.86000 -1.986
99.88000 0.796
99.90000 2.262
99.92000 10.916
99.94000 -0.227
99.96000 -2.074
99.98000 0.000
