'Id: "0011389" Comment: "Integrate frame 0011389_Au-Ir-Rh_Au-Rich_XRD_Mapping-081-0000.gfrmwith cursor Wedge Cursor #5" Operator: "B?rgel" Anode: "Cu" Wavelength: "1.5406" Scantype: "2Theta (TwoTheta)" TimePerStep: "1" X: "-13.5" Y: "-18" Z: "5.95" 
10.00000 0.000
10.02000 2.719
10.04000 -4.283
10.06000 4.882
10.08000 11.663
10.10000 4.046
10.12000 9.769
10.14000 -3.496
10.16000 3.132
10.18000 14.103
10.20000 -3.204
10.22000 4.556
10.24000 12.616
10.26000 35.573
10.28000 20.146
10.30000 14.589
10.32000 15.761
10.34000 9.446
10.36000 2.451
10.38000 15.617
10.40000 20.811
10.42000 27.137
10.44000 13.193
10.46000 18.247
10.48000 15.460
10.50000 6.390
10.52000 12.051
10.54000 6.876
10.56000 14.820
10.58000 20.545
10.60000 13.551
10.62000 15.750
10.64000 5.193
10.66000 4.385
10.68000 -2.582
10.70000 1.444
10.72000 12.934
10.74000 10.581
10.76000 7.258
10.78000 10.278
10.80000 14.242
10.82000 3.733
10.84000 2.262
10.86000 7.100
10.88000 6.259
10.90000 10.982
10.92000 12.866
10.94000 5.135
10.96000 9.270
10.98000 13.017
11.00000 17.050
11.02000 12.122
11.04000 12.205
11.06000 17.157
11.08000 9.227
11.10000 18.910
11.12000 4.419
11.14000 -1.221
11.16000 2.534
11.18000 1.389
11.20000 2.848
11.22000 17.825
11.24000 16.730
11.26000 19.541
11.28000 7.683
11.30000 7.865
11.32000 11.729
11.34000 17.605
11.36000 22.620
11.38000 11.806
11.40000 4.650
11.42000 13.123
11.44000 7.366
11.46000 2.935
11.48000 0.132
11.50000 6.146
11.52000 6.695
11.54000 9.841
11.56000 10.589
11.58000 5.608
11.60000 1.309
11.62000 1.971
11.64000 16.315
11.66000 18.986
11.68000 21.031
11.70000 7.843
11.72000 8.369
11.74000 9.445
11.76000 4.554
11.78000 20.273
11.80000 21.427
11.82000 23.638
11.84000 5.873
11.86000 0.726
11.88000 10.838
11.90000 9.142
11.92000 18.359
11.94000 25.366
11.96000 13.168
11.98000 10.193
12.00000 18.305
12.02000 4.364
12.04000 0.086
12.06000 3.118
12.08000 -1.407
12.10000 9.940
12.12000 8.516
12.14000 3.441
12.16000 1.554
12.18000 2.494
12.20000 1.039
12.22000 9.336
12.24000 9.419
12.26000 6.198
12.28000 14.283
12.30000 10.382
12.32000 13.028
12.34000 4.181
12.36000 4.011
12.38000 10.917
12.40000 10.923
12.42000 11.057
12.44000 21.455
12.46000 19.699
12.48000 10.656
12.50000 15.965
12.52000 15.050
12.54000 2.964
12.56000 10.959
12.58000 13.932
12.60000 14.582
12.62000 6.123
12.64000 4.265
12.66000 -0.594
12.68000 10.089
12.70000 20.411
12.72000 20.440
12.74000 12.527
12.76000 18.543
12.78000 29.559
12.80000 21.982
12.82000 19.178
12.84000 9.487
12.86000 8.367
12.88000 10.158
12.90000 10.778
12.92000 12.316
12.94000 3.367
12.96000 11.160
12.98000 10.787
13.00000 22.991
13.02000 16.323
13.04000 -5.159
13.06000 5.391
13.08000 7.448
13.10000 14.145
13.12000 21.787
13.14000 22.977
13.16000 18.920
13.18000 6.953
13.20000 9.976
13.22000 10.838
13.24000 14.128
13.26000 15.561
13.28000 16.419
13.30000 12.217
13.32000 8.278
13.34000 -1.626
13.36000 5.151
13.38000 13.901
13.40000 16.778
13.42000 14.873
13.44000 3.616
13.46000 8.882
13.48000 15.004
13.50000 17.082
13.52000 15.903
13.54000 13.346
13.56000 11.087
13.58000 17.540
13.60000 18.591
13.62000 10.792
13.64000 13.007
13.66000 5.304
13.68000 9.333
13.70000 18.655
13.72000 20.279
13.74000 17.557
13.76000 18.128
13.78000 21.548
13.80000 23.280
13.82000 12.675
13.84000 11.603
13.86000 6.146
13.88000 10.587
13.90000 11.682
13.92000 11.887
13.94000 13.850
13.96000 8.820
13.98000 2.566
14.00000 0.508
14.02000 -4.448
14.04000 14.549
14.06000 23.728
14.08000 14.664
14.10000 9.025
14.12000 4.147
14.14000 7.799
14.16000 4.507
14.18000 4.725
14.20000 11.326
14.22000 17.869
14.24000 27.574
14.26000 22.120
14.28000 1.364
14.30000 3.423
14.32000 8.581
14.34000 -2.257
14.36000 3.408
14.38000 17.317
14.40000 21.549
14.42000 10.333
14.44000 11.273
14.46000 8.648
14.48000 5.989
14.50000 16.778
14.52000 21.539
14.54000 1.540
14.56000 -4.249
14.58000 13.398
14.60000 10.783
14.62000 14.613
14.64000 21.516
14.66000 21.553
14.68000 9.811
14.70000 5.082
14.72000 17.417
14.74000 5.748
14.76000 6.916
14.78000 12.423
14.80000 1.380
14.82000 4.926
14.84000 7.771
14.86000 4.773
14.88000 5.040
14.90000 6.224
14.92000 13.067
14.94000 7.680
14.96000 13.803
14.98000 13.377
15.00000 6.067
15.02000 10.995
15.04000 7.735
15.06000 8.097
15.08000 6.960
15.10000 1.764
15.12000 4.540
15.14000 5.245
15.16000 6.802
15.18000 7.143
15.20000 8.467
15.22000 6.302
15.24000 2.516
15.26000 1.998
15.28000 11.795
15.30000 13.182
15.32000 19.312
15.34000 18.402
15.36000 22.566
15.38000 20.767
15.40000 10.256
15.42000 -0.388
15.44000 10.041
15.46000 6.690
15.48000 8.006
15.50000 12.661
15.52000 14.515
15.54000 7.466
15.56000 4.993
15.58000 0.162
15.60000 7.474
15.62000 6.516
15.64000 10.084
15.66000 12.384
15.68000 6.407
15.70000 10.987
15.72000 8.783
15.74000 4.029
15.76000 5.134
15.78000 5.906
15.80000 8.508
15.82000 10.460
15.84000 15.623
15.86000 5.089
15.88000 5.663
15.90000 14.281
15.92000 8.570
15.94000 13.552
15.96000 13.711
15.98000 -3.621
16.00000 -4.398
16.02000 3.071
16.04000 9.501
16.06000 8.028
16.08000 5.021
16.10000 6.167
16.12000 9.058
16.14000 13.245
16.16000 10.789
16.18000 9.831
16.20000 6.914
16.22000 6.058
16.24000 9.239
16.26000 1.378
16.28000 4.609
16.30000 6.798
16.32000 13.310
16.34000 12.440
16.36000 8.394
16.38000 2.672
16.40000 0.942
16.42000 6.463
16.44000 4.164
16.46000 9.409
16.48000 8.645
16.50000 8.518
16.52000 3.229
16.54000 5.073
16.56000 9.716
16.58000 7.572
16.60000 8.309
16.62000 6.360
16.64000 8.358
16.66000 9.491
16.68000 7.509
16.70000 5.909
16.72000 2.591
16.74000 12.524
16.76000 13.344
16.78000 11.111
16.80000 11.207
16.82000 10.235
16.84000 11.898
16.86000 14.669
16.88000 11.826
16.90000 4.325
16.92000 4.908
16.94000 6.895
16.96000 3.284
16.98000 5.405
17.00000 13.844
17.02000 13.968
17.04000 12.045
17.06000 8.175
17.08000 12.035
17.10000 7.832
17.12000 9.836
17.14000 10.074
17.16000 4.071
17.18000 10.806
17.20000 12.398
17.22000 10.910
17.24000 6.024
17.26000 11.160
17.28000 7.768
17.30000 5.897
17.32000 5.863
17.34000 -0.860
17.36000 5.940
17.38000 9.893
17.40000 16.281
17.42000 17.153
17.44000 12.438
17.46000 11.222
17.48000 12.173
17.50000 4.944
17.52000 4.230
17.54000 4.449
17.56000 8.386
17.58000 8.732
17.60000 6.804
17.62000 9.538
17.64000 11.644
17.66000 12.942
17.68000 7.372
17.70000 13.249
17.72000 11.070
17.74000 4.477
17.76000 4.691
17.78000 6.519
17.80000 9.579
17.82000 11.637
17.84000 10.381
17.86000 -4.300
17.88000 -4.299
17.90000 6.966
17.92000 7.650
17.94000 17.524
17.96000 20.610
17.98000 14.343
18.00000 5.745
18.02000 12.636
18.04000 12.546
18.06000 6.604
18.08000 6.259
18.10000 4.910
18.12000 5.996
18.14000 11.972
18.16000 6.228
18.18000 11.228
18.20000 9.169
18.22000 12.567
18.24000 9.759
18.26000 9.684
18.28000 1.935
18.30000 3.708
18.32000 7.022
18.34000 4.281
18.36000 6.227
18.38000 7.424
18.40000 14.694
18.42000 12.743
18.44000 12.113
18.46000 15.546
18.48000 9.567
18.50000 5.401
18.52000 5.189
18.54000 10.877
18.56000 8.028
18.58000 1.248
18.60000 3.280
18.62000 7.996
18.64000 5.792
18.66000 2.267
18.68000 10.245
18.70000 15.838
18.72000 15.282
18.74000 12.362
18.76000 11.645
18.78000 9.555
18.80000 7.207
18.82000 3.442
18.84000 9.371
18.86000 11.749
18.88000 9.811
18.90000 5.781
18.92000 5.312
18.94000 3.486
18.96000 5.736
18.98000 -4.225
19.00000 -0.062
19.02000 9.348
19.04000 11.803
19.06000 2.614
19.08000 2.493
19.10000 2.548
19.12000 6.975
19.14000 6.082
19.16000 3.418
19.18000 2.993
19.20000 0.558
19.22000 7.406
19.24000 7.859
19.26000 11.136
19.28000 6.779
19.30000 5.508
19.32000 9.476
19.34000 6.534
19.36000 6.613
19.38000 14.398
19.40000 2.577
19.42000 1.985
19.44000 12.309
19.46000 6.436
19.48000 5.387
19.50000 -0.216
19.52000 0.384
19.54000 2.643
19.56000 2.967
19.58000 5.645
19.60000 4.903
19.62000 5.301
19.64000 6.325
19.66000 6.464
19.68000 1.040
19.70000 5.326
19.72000 9.813
19.74000 12.491
19.76000 12.203
19.78000 9.311
19.80000 7.131
19.82000 6.969
19.84000 8.862
19.86000 5.709
19.88000 5.375
19.90000 1.798
19.92000 4.187
19.94000 4.799
19.96000 1.760
19.98000 2.410
20.00000 8.673
20.02000 11.462
20.04000 15.741
20.06000 11.976
20.08000 5.482
20.10000 4.585
20.12000 4.295
20.14000 2.767
20.16000 2.725
20.18000 0.699
20.20000 5.217
20.22000 10.390
20.24000 8.635
20.26000 10.225
20.28000 6.979
20.30000 6.550
20.32000 8.593
20.34000 10.751
20.36000 6.279
20.38000 3.021
20.40000 3.069
20.42000 7.342
20.44000 6.242
20.46000 2.371
20.48000 12.044
20.50000 2.833
20.52000 -4.146
20.54000 3.000
20.56000 7.494
20.58000 8.003
20.60000 10.489
20.62000 8.386
20.64000 5.333
20.66000 7.607
20.68000 9.963
20.70000 8.423
20.72000 11.643
20.74000 12.613
20.76000 6.800
20.78000 0.097
20.80000 0.908
20.82000 3.913
20.84000 6.915
20.86000 1.449
20.88000 3.533
20.90000 1.752
20.92000 -0.732
20.94000 6.907
20.96000 5.791
20.98000 5.475
21.00000 12.575
21.02000 5.902
21.04000 0.728
21.06000 0.284
21.08000 4.418
21.10000 8.286
21.12000 12.323
21.14000 4.769
21.16000 0.584
21.18000 6.203
21.20000 8.897
21.22000 10.137
21.24000 12.584
21.26000 3.611
21.28000 1.960
21.30000 0.712
21.32000 8.496
21.34000 4.766
21.36000 4.941
21.38000 10.238
21.40000 6.034
21.42000 3.564
21.44000 3.695
21.46000 3.552
21.48000 9.182
21.50000 8.324
21.52000 6.221
21.54000 6.943
21.56000 4.161
21.58000 6.277
21.60000 2.901
21.62000 -0.635
21.64000 -3.534
21.66000 -4.089
21.68000 -0.256
21.70000 4.544
21.72000 8.008
21.74000 5.088
21.76000 7.288
21.78000 3.251
21.80000 8.625
21.82000 8.370
21.84000 7.454
21.86000 8.834
21.88000 7.161
21.90000 8.123
21.92000 8.513
21.94000 8.037
21.96000 6.815
21.98000 6.084
22.00000 4.748
22.02000 5.584
22.04000 7.792
22.06000 9.623
22.08000 5.088
22.10000 6.038
22.12000 2.433
22.14000 3.955
22.16000 9.272
22.18000 3.397
22.20000 3.235
22.22000 0.113
22.24000 0.343
22.26000 5.512
22.28000 5.245
22.30000 5.793
22.32000 2.576
22.34000 4.191
22.36000 12.736
22.38000 2.452
22.40000 4.424
22.42000 12.354
22.44000 9.359
22.46000 8.363
22.48000 6.620
22.50000 5.318
22.52000 6.656
22.54000 9.482
22.56000 3.605
22.58000 7.545
22.60000 9.805
22.62000 9.427
22.64000 5.675
22.66000 4.943
22.68000 12.527
22.70000 7.672
22.72000 6.048
22.74000 6.754
22.76000 8.172
22.78000 5.461
22.80000 1.656
22.82000 4.321
22.84000 9.643
22.86000 3.382
22.88000 11.417
22.90000 7.568
22.92000 2.543
22.94000 1.904
22.96000 -2.268
22.98000 -4.015
23.00000 4.526
23.02000 9.537
23.04000 5.074
23.06000 -1.146
23.08000 3.301
23.10000 0.212
23.12000 0.382
23.14000 1.677
23.16000 1.364
23.18000 6.180
23.20000 1.592
23.22000 4.851
23.24000 13.569
23.26000 15.760
23.28000 10.058
23.30000 6.563
23.32000 2.610
23.34000 2.165
23.36000 5.691
23.38000 11.428
23.40000 11.229
23.42000 9.121
23.44000 9.275
23.46000 9.165
23.48000 3.562
23.50000 8.054
23.52000 8.672
23.54000 1.651
23.56000 0.730
23.58000 1.749
23.60000 8.133
23.62000 4.643
23.64000 5.725
23.66000 8.744
23.68000 5.316
23.70000 9.891
23.72000 8.339
23.74000 -0.375
23.76000 1.729
23.78000 1.963
23.80000 6.821
23.82000 4.613
23.84000 8.029
23.86000 6.517
23.88000 5.813
23.90000 1.901
23.92000 8.712
23.94000 8.979
23.96000 8.891
23.98000 12.927
24.00000 13.353
24.02000 6.292
24.04000 4.534
24.06000 6.355
24.08000 1.664
24.10000 0.020
24.12000 2.548
24.14000 8.084
24.16000 6.652
24.18000 8.897
24.20000 7.206
24.22000 2.661
24.24000 3.636
24.26000 6.098
24.28000 6.042
24.30000 7.785
24.32000 3.694
24.34000 3.419
24.36000 -2.423
24.38000 2.697
24.40000 5.516
24.42000 -3.941
24.44000 -1.219
24.46000 4.222
24.48000 6.418
24.50000 4.623
24.52000 8.642
24.54000 8.427
24.56000 10.973
24.58000 6.585
24.60000 4.238
24.62000 2.871
24.64000 6.653
24.66000 6.815
24.68000 6.939
24.70000 11.837
24.72000 3.509
24.74000 -3.537
24.76000 4.927
24.78000 9.561
24.80000 0.116
24.82000 -0.662
24.84000 4.765
24.86000 7.292
24.88000 4.323
24.90000 -1.432
24.92000 2.299
24.94000 2.112
24.96000 0.493
24.98000 1.440
25.00000 1.135
25.02000 1.257
25.04000 1.159
25.06000 3.731
25.08000 2.499
25.10000 3.390
25.12000 5.260
25.14000 6.830
25.16000 1.845
25.18000 -3.904
25.20000 -1.539
25.22000 4.808
25.24000 6.422
25.26000 9.665
25.28000 8.737
25.30000 6.734
25.32000 0.892
25.34000 4.059
25.36000 3.547
25.38000 7.104
25.40000 5.035
25.42000 4.636
25.44000 6.184
25.46000 8.062
25.48000 5.626
25.50000 2.105
25.52000 -3.705
25.54000 -0.525
25.56000 -2.357
25.58000 -0.018
25.60000 7.405
25.62000 2.620
25.64000 -1.368
25.66000 6.355
25.68000 6.076
25.70000 -0.286
25.72000 5.241
25.74000 1.743
25.76000 -1.359
25.78000 2.264
25.80000 2.110
25.82000 1.152
25.84000 0.759
25.86000 -1.721
25.88000 3.154
25.90000 5.449
25.92000 1.990
25.94000 1.072
25.96000 -0.608
25.98000 -2.691
26.00000 2.670
26.02000 9.352
26.04000 5.427
26.06000 2.350
26.08000 -3.892
26.10000 -0.389
26.12000 1.989
26.14000 0.584
26.16000 2.839
26.18000 2.944
26.20000 0.093
26.22000 0.713
26.24000 4.480
26.26000 -1.819
26.28000 0.203
26.30000 2.241
26.32000 4.160
26.34000 5.400
26.36000 6.364
26.38000 2.008
26.40000 -3.881
26.42000 -0.526
26.44000 0.946
26.46000 2.436
26.48000 0.012
26.50000 0.413
26.52000 2.124
26.54000 5.379
26.56000 7.139
26.58000 0.089
26.60000 -3.830
26.62000 -0.234
26.64000 4.442
26.66000 3.091
26.68000 -1.109
26.70000 3.303
26.72000 -0.347
26.74000 -0.333
26.76000 -0.408
26.78000 -1.768
26.80000 5.082
26.82000 5.296
26.84000 -1.888
26.86000 -3.862
26.88000 -1.504
26.90000 3.893
26.92000 -0.649
26.94000 -0.082
26.96000 2.085
26.98000 4.360
27.00000 -0.729
27.02000 -1.037
27.04000 -2.012
27.06000 0.374
27.08000 4.467
27.10000 6.585
27.12000 -1.339
27.14000 -0.255
27.16000 4.276
27.18000 -0.437
27.20000 -2.097
27.22000 -1.144
27.24000 2.088
27.26000 7.449
27.28000 5.266
27.30000 3.137
27.32000 1.719
27.34000 1.622
27.36000 3.137
27.38000 0.798
27.40000 -2.366
27.42000 -1.154
27.44000 0.220
27.46000 1.392
27.48000 1.516
27.50000 2.929
27.52000 1.846
27.54000 0.872
27.56000 -3.821
27.58000 -1.230
27.60000 5.353
27.62000 2.873
27.64000 3.215
27.66000 3.134
27.68000 4.128
27.70000 -1.913
27.72000 -1.068
27.74000 5.034
27.76000 3.075
27.78000 4.125
27.80000 5.104
27.82000 0.495
27.84000 0.025
27.86000 3.880
27.88000 6.229
27.90000 6.372
27.92000 5.581
27.94000 2.966
27.96000 0.339
27.98000 5.177
28.00000 1.706
28.02000 -2.961
28.04000 7.614
28.06000 6.105
28.08000 -1.356
28.10000 2.216
28.12000 4.199
28.14000 1.444
28.16000 -1.078
28.18000 2.158
28.20000 -0.703
28.22000 2.336
28.24000 3.340
28.26000 -1.892
28.28000 -3.760
28.30000 -0.593
28.32000 -0.137
28.34000 0.657
28.36000 2.871
28.38000 3.380
28.40000 4.035
28.42000 5.944
28.44000 5.920
28.46000 9.295
28.48000 4.793
28.50000 11.766
28.52000 5.062
28.54000 -0.150
28.56000 9.852
28.58000 6.590
28.60000 6.570
28.62000 5.543
28.64000 1.038
28.66000 6.153
28.68000 2.839
28.70000 5.573
28.72000 3.792
28.74000 0.861
28.76000 6.284
28.78000 5.840
28.80000 6.085
28.82000 2.058
28.84000 3.562
28.86000 4.085
28.88000 1.510
28.90000 7.270
28.92000 8.364
28.94000 0.346
28.96000 -1.654
28.98000 4.090
29.00000 6.000
29.02000 7.849
29.04000 6.521
29.06000 1.278
29.08000 -3.674
29.10000 -0.430
29.12000 6.108
29.14000 11.499
29.16000 6.407
29.18000 2.646
29.20000 2.048
29.22000 2.844
29.24000 7.108
29.26000 7.627
29.28000 5.435
29.30000 5.433
29.32000 2.977
29.34000 4.820
29.36000 7.711
29.38000 8.175
29.40000 4.948
29.42000 4.930
29.44000 3.629
29.46000 6.533
29.48000 8.650
29.50000 5.461
29.52000 5.943
29.54000 1.366
29.56000 2.755
29.58000 -1.391
29.60000 1.886
29.62000 6.500
29.64000 4.902
29.66000 4.744
29.68000 -0.154
29.70000 2.742
29.72000 6.743
29.74000 5.861
29.76000 2.589
29.78000 4.768
29.80000 9.475
29.82000 1.980
29.84000 1.242
29.86000 3.898
29.88000 4.722
29.90000 4.985
29.92000 2.940
29.94000 -1.850
29.96000 -1.419
29.98000 0.259
30.00000 0.012
30.02000 -0.185
30.04000 2.731
30.06000 1.129
30.08000 4.359
30.10000 8.638
30.12000 5.165
30.14000 -1.360
30.16000 -1.962
30.18000 1.583
30.20000 3.568
30.22000 5.898
30.24000 5.993
30.26000 4.752
30.28000 7.509
30.30000 8.458
30.32000 0.786
30.34000 1.171
30.36000 6.520
30.38000 9.631
30.40000 6.842
30.42000 4.466
30.44000 4.835
30.46000 6.694
30.48000 5.560
30.50000 -1.810
30.52000 -0.427
30.54000 4.789
30.56000 4.534
30.58000 3.675
30.60000 6.580
30.62000 9.297
30.64000 1.571
30.66000 -3.651
30.68000 -2.446
30.70000 2.986
30.72000 4.099
30.74000 5.860
30.76000 5.147
30.78000 -3.605
30.80000 -2.617
30.82000 0.875
30.84000 -0.072
30.86000 7.214
30.88000 1.181
30.90000 -3.645
30.92000 -0.507
30.94000 -0.153
30.96000 -0.401
30.98000 -0.266
31.00000 -2.483
31.02000 -2.734
31.04000 -2.030
31.06000 0.111
31.08000 2.615
31.10000 3.992
31.12000 1.767
31.14000 -0.757
31.16000 -1.715
31.18000 -0.522
31.20000 1.858
31.22000 8.954
31.24000 10.799
31.26000 3.635
31.28000 2.621
31.30000 6.198
31.32000 6.945
31.34000 5.435
31.36000 -0.322
31.38000 0.704
31.40000 2.417
31.42000 2.302
31.44000 0.206
31.46000 -0.890
31.48000 1.058
31.50000 -0.828
31.52000 -1.767
31.54000 0.974
31.56000 0.558
31.58000 -1.162
31.60000 0.107
31.62000 2.276
31.64000 -0.481
31.66000 -0.165
31.68000 2.658
31.70000 0.336
31.72000 -1.951
31.74000 2.413
31.76000 4.860
31.78000 8.366
31.80000 0.922
31.82000 -1.174
31.84000 3.372
31.86000 -0.767
31.88000 0.282
31.90000 5.458
31.92000 2.362
31.94000 -1.949
31.96000 0.563
31.98000 3.674
32.00000 3.548
32.02000 0.591
32.04000 -3.179
32.06000 1.112
32.08000 0.707
32.10000 -3.596
32.12000 2.171
32.14000 -0.390
32.16000 2.032
32.18000 7.200
32.20000 5.043
32.22000 1.641
32.24000 -1.741
32.26000 -0.690
32.28000 4.122
32.30000 1.391
32.32000 -1.297
32.34000 3.293
32.36000 3.762
32.38000 5.148
32.40000 2.359
32.42000 8.543
32.44000 5.810
32.46000 -3.573
32.48000 2.139
32.50000 3.716
32.52000 4.598
32.54000 7.480
32.56000 6.938
32.58000 3.733
32.60000 2.946
32.62000 2.382
32.64000 3.736
32.66000 2.429
32.68000 2.691
32.70000 3.155
32.72000 7.030
32.74000 6.246
32.76000 5.184
32.78000 1.223
32.80000 3.071
32.82000 9.763
32.84000 2.617
32.86000 -3.577
32.88000 -0.133
32.90000 1.805
32.92000 4.746
32.94000 6.286
32.96000 4.819
32.98000 1.854
33.00000 1.055
33.02000 0.809
33.04000 6.034
33.06000 4.191
33.08000 0.525
33.10000 -2.930
33.12000 1.578
33.14000 0.721
33.16000 -2.051
33.18000 -0.415
33.20000 5.413
33.22000 7.294
33.24000 6.850
33.26000 2.155
33.28000 -0.594
33.30000 0.212
33.32000 2.969
33.34000 1.565
33.36000 4.082
33.38000 4.288
33.40000 4.589
33.42000 3.192
33.44000 0.267
33.46000 0.627
33.48000 6.415
33.50000 2.421
33.52000 4.861
33.54000 4.304
33.56000 -1.783
33.58000 1.019
33.60000 5.869
33.62000 4.138
33.64000 1.226
33.66000 0.903
33.68000 2.179
33.70000 -0.152
33.72000 2.290
33.74000 2.313
33.76000 3.984
33.78000 3.081
33.80000 1.256
33.82000 1.267
33.84000 4.660
33.86000 3.132
33.88000 4.493
33.90000 5.292
33.92000 3.599
33.94000 4.804
33.96000 5.495
33.98000 0.649
34.00000 2.656
34.02000 3.696
34.04000 6.874
34.06000 8.619
34.08000 3.413
34.10000 4.081
34.12000 8.582
34.14000 3.013
34.16000 3.256
34.18000 1.169
34.20000 3.028
34.22000 6.164
34.24000 6.358
34.26000 7.307
34.28000 6.789
34.30000 7.050
34.32000 5.455
34.34000 6.146
34.36000 3.514
34.38000 8.737
34.40000 5.112
34.42000 6.412
34.44000 6.049
34.46000 9.657
34.48000 5.956
34.50000 -1.130
34.52000 1.172
34.54000 -1.830
34.56000 1.723
34.58000 4.719
34.60000 4.373
34.62000 5.279
34.64000 0.630
34.66000 -3.533
34.68000 0.346
34.70000 1.558
34.72000 5.726
34.74000 3.708
34.76000 6.380
34.78000 2.105
34.80000 -2.952
34.82000 -1.743
34.84000 3.343
34.86000 2.946
34.88000 2.855
34.90000 -0.601
34.92000 2.668
34.94000 3.985
34.96000 4.914
34.98000 6.365
35.00000 5.607
35.02000 2.790
35.04000 1.516
35.06000 -2.890
35.08000 -1.813
35.10000 1.361
35.12000 0.628
35.14000 -0.214
35.16000 -2.812
35.18000 -3.075
35.20000 0.491
35.22000 -1.044
35.24000 -1.357
35.26000 -1.513
35.28000 2.639
35.30000 8.978
35.32000 3.677
35.34000 -0.810
35.36000 2.257
35.38000 2.319
35.40000 3.190
35.42000 1.633
35.44000 7.727
35.46000 3.325
35.48000 -0.117
35.50000 -1.867
35.52000 -0.610
35.54000 1.272
35.56000 -3.553
35.58000 -2.593
35.60000 1.949
35.62000 -1.424
35.64000 -1.299
35.66000 1.331
35.68000 -2.750
35.70000 -3.503
35.72000 -0.028
35.74000 -0.033
35.76000 2.290
35.78000 3.842
35.80000 2.268
35.82000 5.515
35.84000 3.198
35.86000 3.416
35.88000 3.363
35.90000 8.756
35.92000 2.444
35.94000 -2.834
35.96000 -1.747
35.98000 -3.528
36.00000 -3.566
36.02000 -1.915
36.04000 0.260
36.06000 5.009
36.08000 1.196
36.10000 -0.943
36.12000 -0.540
36.14000 3.805
36.16000 -1.005
36.18000 3.626
36.20000 6.785
36.22000 5.804
36.24000 3.625
36.26000 1.106
36.28000 2.449
36.30000 1.127
36.32000 2.275
36.34000 -0.310
36.36000 1.548
36.38000 3.245
36.40000 3.032
36.42000 2.234
36.44000 1.940
36.46000 4.676
36.48000 5.700
36.50000 3.849
36.52000 1.205
36.54000 4.549
36.56000 3.736
36.58000 2.474
36.60000 2.181
36.62000 1.514
36.64000 4.015
36.66000 2.723
36.68000 4.496
36.70000 1.772
36.72000 1.415
36.74000 1.206
36.76000 0.321
36.78000 4.055
36.80000 5.550
36.82000 2.453
36.84000 1.945
36.86000 0.612
36.88000 5.285
36.90000 3.643
36.92000 5.145
36.94000 7.248
36.96000 5.980
36.98000 3.466
37.00000 6.012
37.02000 10.426
37.04000 4.969
37.06000 0.713
37.08000 -1.111
37.10000 -3.595
37.12000 2.577
37.14000 8.265
37.16000 12.606
37.18000 13.288
37.20000 15.020
37.22000 10.100
37.24000 4.822
37.26000 6.523
37.28000 13.103
37.30000 14.411
37.32000 14.174
37.34000 11.885
37.36000 13.168
37.38000 7.537
37.40000 12.081
37.42000 14.580
37.44000 11.519
37.46000 11.485
37.48000 8.299
37.50000 8.588
37.52000 15.813
37.54000 18.318
37.56000 18.118
37.58000 17.593
37.60000 16.007
37.62000 16.010
37.64000 18.609
37.66000 18.304
37.68000 13.815
37.70000 10.264
37.72000 16.635
37.74000 15.837
37.76000 18.243
37.78000 19.170
37.80000 16.021
37.82000 17.945
37.84000 16.846
37.86000 19.894
37.88000 20.232
37.90000 21.377
37.92000 27.694
37.94000 26.371
37.96000 26.724
37.98000 25.250
38.00000 26.540
38.02000 29.794
38.04000 26.732
38.06000 27.485
38.08000 30.861
38.10000 31.550
38.12000 31.617
38.14000 33.352
38.16000 33.072
38.18000 38.467
38.20000 37.419
38.22000 32.255
38.24000 30.658
38.26000 34.933
38.28000 40.266
38.30000 43.588
38.32000 46.581
38.34000 42.573
38.36000 44.411
38.38000 50.809
38.40000 53.885
38.42000 54.376
38.44000 55.656
38.46000 56.285
38.48000 54.386
38.50000 61.052
38.52000 61.189
38.54000 59.837
38.56000 59.833
38.58000 64.893
38.60000 67.444
38.62000 74.179
38.64000 76.711
38.66000 88.035
38.68000 90.800
38.70000 87.954
38.72000 92.767
38.74000 99.360
38.76000 101.293
38.78000 109.640
38.80000 115.620
38.82000 121.430
38.84000 127.468
38.86000 130.434
38.88000 135.238
38.90000 144.066
38.92000 146.415
38.94000 161.382
38.96000 170.248
38.98000 179.133
39.00000 195.368
39.02000 200.943
39.04000 208.438
39.06000 227.917
39.08000 238.980
39.10000 253.888
39.12000 266.675
39.14000 284.121
39.16000 302.368
39.18000 318.542
39.20000 336.608
39.22000 359.355
39.24000 381.087
39.26000 397.929
39.28000 416.206
39.30000 445.955
39.32000 472.452
39.34000 492.172
39.36000 508.649
39.38000 534.543
39.40000 555.770
39.42000 564.032
39.44000 576.750
39.46000 603.720
39.48000 631.610
39.50000 641.419
39.52000 644.843
39.54000 641.200
39.56000 645.648
39.58000 646.061
39.60000 646.692
39.62000 644.859
39.64000 640.543
39.66000 643.497
39.68000 631.563
39.70000 613.205
39.72000 611.992
39.74000 597.768
39.76000 568.349
39.78000 547.290
39.80000 538.312
39.82000 518.997
39.84000 503.729
39.86000 483.057
39.88000 463.450
39.90000 436.704
39.92000 417.030
39.94000 392.816
39.96000 370.169
39.98000 350.456
40.00000 330.692
40.02000 311.062
40.04000 293.524
40.06000 267.566
40.08000 257.665
40.10000 249.845
40.12000 225.852
40.14000 216.572
40.16000 204.088
40.18000 183.286
40.20000 169.607
40.22000 158.955
40.24000 147.859
40.26000 135.970
40.28000 137.510
40.30000 126.674
40.32000 111.768
40.34000 102.947
40.36000 99.836
40.38000 96.716
40.40000 92.931
40.42000 86.841
40.44000 80.826
40.46000 80.064
40.48000 75.727
40.50000 71.572
40.52000 64.232
40.54000 58.232
40.56000 56.045
40.58000 57.090
40.60000 54.324
40.62000 48.184
40.64000 48.539
40.66000 50.633
40.68000 43.095
40.70000 38.224
40.72000 37.606
40.74000 38.556
40.76000 32.916
40.78000 33.266
40.80000 31.411
40.82000 29.085
40.84000 29.880
40.86000 28.629
40.88000 22.003
40.90000 23.338
40.92000 23.328
40.94000 24.515
40.96000 27.269
40.98000 25.645
41.00000 29.027
41.02000 27.121
41.04000 17.318
41.06000 14.980
41.08000 18.056
41.10000 17.785
41.12000 16.177
41.14000 14.917
41.16000 14.884
41.18000 11.793
41.20000 8.794
41.22000 11.668
41.24000 11.361
41.26000 9.790
41.28000 11.456
41.30000 12.523
41.32000 10.251
41.34000 7.210
41.36000 7.104
41.38000 7.508
41.40000 7.985
41.42000 7.967
41.44000 5.575
41.46000 8.861
41.48000 11.478
41.50000 5.202
41.52000 4.550
41.54000 8.212
41.56000 8.015
41.58000 5.554
41.60000 3.402
41.62000 2.645
41.64000 4.019
41.66000 7.755
41.68000 6.988
41.70000 5.775
41.72000 3.501
41.74000 6.922
41.76000 5.832
41.78000 8.694
41.80000 8.118
41.82000 9.726
41.84000 5.501
41.86000 5.112
41.88000 4.484
41.90000 0.918
41.92000 1.590
41.94000 0.026
41.96000 -0.955
41.98000 -1.504
42.00000 3.184
42.02000 7.671
42.04000 4.280
42.06000 2.509
42.08000 1.594
42.10000 1.964
42.12000 0.002
42.14000 -3.343
42.16000 0.070
42.18000 2.399
42.20000 -0.114
42.22000 1.854
42.24000 2.342
42.26000 1.529
42.28000 2.683
42.30000 2.545
42.32000 3.760
42.34000 -1.367
42.36000 0.591
42.38000 3.105
42.40000 0.727
42.42000 -0.745
42.44000 1.760
42.46000 1.576
42.48000 -0.647
42.50000 0.939
42.52000 0.592
42.54000 0.310
42.56000 0.324
42.58000 5.056
42.60000 1.058
42.62000 -2.919
42.64000 1.767
42.66000 0.552
42.68000 -0.719
42.70000 2.167
42.72000 2.024
42.74000 0.401
42.76000 1.412
42.78000 -0.589
42.80000 -0.036
42.82000 4.180
42.84000 -1.446
42.86000 -2.871
42.88000 -1.483
42.90000 -0.804
42.92000 -1.053
42.94000 2.971
42.96000 2.288
42.98000 -0.061
43.00000 -2.788
43.02000 -2.257
43.04000 0.217
43.06000 0.656
43.08000 0.436
43.10000 0.434
43.12000 -0.655
43.14000 -1.360
43.16000 -0.052
43.18000 -0.637
43.20000 0.911
43.22000 -2.028
43.24000 -3.004
43.26000 -1.800
43.28000 2.387
43.30000 0.996
43.32000 -0.930
43.34000 1.042
43.36000 1.331
43.38000 3.356
43.40000 0.823
43.42000 2.656
43.44000 5.810
43.46000 2.679
43.48000 1.479
43.50000 4.050
43.52000 1.223
43.54000 -2.166
43.56000 0.970
43.58000 0.417
43.60000 3.192
43.62000 3.890
43.64000 4.343
43.66000 2.565
43.68000 6.672
43.70000 8.030
43.72000 4.483
43.74000 3.442
43.76000 -0.121
43.78000 -3.164
43.80000 -2.687
43.82000 2.396
43.84000 4.378
43.86000 1.631
43.88000 4.095
43.90000 6.300
43.92000 4.187
43.94000 2.247
43.96000 0.960
43.98000 1.114
44.00000 1.011
44.02000 1.588
44.04000 3.655
44.06000 4.089
44.08000 3.744
44.10000 -2.516
44.12000 -2.249
44.14000 2.566
44.16000 5.490
44.18000 0.759
44.20000 -0.196
44.22000 -1.029
44.24000 0.654
44.26000 3.278
44.28000 1.079
44.30000 0.262
44.32000 4.800
44.34000 5.956
44.36000 6.264
44.38000 4.122
44.40000 3.049
44.42000 1.701
44.44000 1.286
44.46000 -2.742
44.48000 -3.153
44.50000 -1.858
44.52000 -0.585
44.54000 2.471
44.56000 4.481
44.58000 3.052
44.60000 3.590
44.62000 4.024
44.64000 -0.417
44.66000 2.945
44.68000 1.706
44.70000 -1.972
44.72000 0.615
44.74000 2.621
44.76000 0.611
44.78000 1.526
44.80000 1.315
44.82000 5.667
44.84000 6.487
44.86000 5.115
44.88000 2.101
44.90000 2.744
44.92000 3.289
44.94000 3.497
44.96000 0.439
44.98000 3.322
45.00000 5.486
45.02000 8.514
45.04000 3.489
45.06000 4.864
45.08000 4.713
45.10000 5.918
45.12000 7.654
45.14000 8.595
45.16000 9.123
45.18000 10.175
45.20000 9.854
45.22000 14.819
45.24000 13.610
45.26000 13.885
45.28000 11.935
45.30000 13.558
45.32000 8.274
45.34000 9.312
45.36000 14.150
45.38000 16.209
45.40000 21.413
45.42000 15.176
45.44000 13.731
45.46000 20.626
45.48000 19.027
45.50000 19.210
45.52000 23.053
45.54000 23.739
45.56000 31.541
45.58000 32.701
45.60000 29.292
45.62000 30.631
45.64000 32.250
45.66000 33.874
45.68000 38.175
45.70000 35.834
45.72000 33.345
45.74000 37.312
45.76000 35.710
45.78000 37.257
45.80000 37.906
45.82000 42.998
45.84000 42.056
45.86000 40.619
45.88000 44.666
45.90000 48.407
45.92000 49.507
45.94000 51.111
45.96000 55.857
45.98000 55.758
46.00000 54.699
46.02000 53.982
46.04000 54.674
46.06000 57.879
46.08000 61.850
46.10000 63.380
46.12000 63.978
46.14000 68.330
46.16000 67.098
46.18000 65.725
46.20000 65.857
46.22000 65.118
46.24000 67.992
46.26000 68.164
46.28000 65.076
46.30000 66.296
46.32000 66.712
46.34000 64.959
46.36000 64.143
46.38000 64.738
46.40000 63.963
46.42000 64.328
46.44000 61.770
46.46000 59.310
46.48000 61.320
46.50000 59.096
46.52000 60.288
46.54000 58.268
46.56000 53.296
46.58000 52.307
46.60000 53.750
46.62000 51.782
46.64000 44.978
46.66000 43.998
46.68000 45.364
46.70000 41.653
46.72000 38.661
46.74000 34.442
46.76000 31.169
46.78000 31.662
46.80000 35.178
46.82000 33.511
46.84000 28.068
46.86000 27.036
46.88000 23.478
46.90000 28.212
46.92000 23.794
46.94000 26.448
46.96000 23.502
46.98000 16.605
47.00000 16.895
47.02000 18.365
47.04000 19.099
47.06000 13.068
47.08000 10.168
47.10000 9.397
47.12000 9.377
47.14000 9.393
47.16000 15.057
47.18000 10.358
47.20000 4.427
47.22000 6.174
47.24000 8.816
47.26000 7.316
47.28000 5.758
47.30000 6.670
47.32000 6.594
47.34000 7.453
47.36000 7.766
47.38000 6.658
47.40000 7.788
47.42000 7.729
47.44000 4.137
47.46000 3.619
47.48000 3.969
47.50000 2.200
47.52000 2.918
47.54000 1.527
47.56000 -0.785
47.58000 2.367
47.60000 3.019
47.62000 3.061
47.64000 4.592
47.66000 3.062
47.68000 1.184
47.70000 -0.393
47.72000 -2.801
47.74000 1.788
47.76000 1.238
47.78000 0.917
47.80000 2.570
47.82000 1.223
47.84000 -0.287
47.86000 2.912
47.88000 1.392
47.90000 2.312
47.92000 4.709
47.94000 4.863
47.96000 4.020
47.98000 1.952
48.00000 2.706
48.02000 2.131
48.04000 2.498
48.06000 0.359
48.08000 0.854
48.10000 -0.094
48.12000 0.179
48.14000 -2.717
48.16000 3.658
48.18000 6.522
48.20000 1.815
48.22000 -0.753
48.24000 3.224
48.26000 5.979
48.28000 3.109
48.30000 2.315
48.32000 0.436
48.34000 2.031
48.36000 2.960
48.38000 1.006
48.40000 -1.563
48.42000 -2.686
48.44000 0.993
48.46000 5.132
48.48000 7.612
48.50000 3.590
48.52000 4.882
48.54000 4.782
48.56000 2.254
48.58000 3.805
48.60000 1.529
48.62000 -0.499
48.64000 -0.420
48.66000 1.044
48.68000 1.374
48.70000 0.236
48.72000 1.452
48.74000 3.425
48.76000 -1.047
48.78000 -2.286
48.80000 -0.110
48.82000 2.864
48.84000 6.122
48.86000 1.510
48.88000 1.162
48.90000 1.953
48.92000 1.390
48.94000 2.673
48.96000 0.552
48.98000 -0.446
49.00000 2.190
49.02000 -0.739
49.04000 -0.509
49.06000 -1.766
49.08000 0.131
49.10000 2.144
49.12000 5.278
49.14000 3.075
49.16000 1.035
49.18000 5.148
49.20000 3.203
49.22000 5.565
49.24000 6.176
49.26000 0.721
49.28000 2.820
49.30000 0.451
49.32000 -2.596
49.34000 2.858
49.36000 -0.243
49.38000 2.846
49.40000 4.659
49.42000 3.517
49.44000 3.885
49.46000 3.531
49.48000 2.368
49.50000 2.691
49.52000 6.058
49.54000 4.557
49.56000 2.217
49.58000 4.239
49.60000 3.744
49.62000 3.083
49.64000 4.008
49.66000 0.875
49.68000 2.270
49.70000 3.077
49.72000 2.193
49.74000 -0.389
49.76000 1.512
49.78000 5.876
49.80000 5.877
49.82000 4.646
49.84000 0.354
49.86000 0.327
49.88000 0.829
49.90000 1.300
49.92000 0.285
49.94000 -1.655
49.96000 0.073
49.98000 1.895
50.00000 2.969
50.02000 -0.079
50.04000 1.691
50.06000 1.765
50.08000 0.147
50.10000 0.609
50.12000 -0.376
50.14000 3.037
50.16000 3.707
50.18000 1.151
50.20000 0.450
50.22000 -1.539
50.24000 -0.072
50.26000 1.003
50.28000 -1.353
50.30000 3.804
50.32000 1.496
50.34000 2.232
50.36000 5.093
50.38000 6.360
50.40000 6.353
50.42000 3.614
50.44000 1.289
50.46000 -0.293
50.48000 0.294
50.50000 2.295
50.52000 4.054
50.54000 -1.523
50.56000 -0.670
50.58000 0.852
50.60000 2.943
50.62000 3.405
50.64000 1.210
50.66000 1.501
50.68000 -0.595
50.70000 -2.564
50.72000 0.532
50.74000 0.148
50.76000 0.390
50.78000 -1.053
50.80000 1.809
50.82000 5.718
50.84000 3.479
50.86000 3.375
50.88000 3.215
50.90000 -0.032
50.92000 0.191
50.94000 0.013
50.96000 1.965
50.98000 0.512
51.00000 1.719
51.02000 4.276
51.04000 5.078
51.06000 3.560
51.08000 1.969
51.10000 1.560
51.12000 1.804
51.14000 1.058
51.16000 -0.801
51.18000 0.370
51.20000 0.748
51.22000 1.014
51.24000 2.015
51.26000 1.815
51.28000 4.190
51.30000 5.794
51.32000 4.159
51.34000 -2.540
51.36000 -0.003
51.38000 -1.256
51.40000 -0.636
51.42000 2.408
51.44000 4.047
51.46000 0.353
51.48000 3.227
51.50000 7.056
51.52000 2.784
51.54000 1.375
51.56000 3.322
51.58000 5.028
51.60000 2.995
51.62000 2.931
51.64000 3.912
51.66000 6.951
51.68000 1.977
51.70000 1.973
51.72000 5.329
51.74000 3.097
51.76000 -1.323
51.78000 5.481
51.80000 5.091
51.82000 0.158
51.84000 2.456
51.86000 5.437
51.88000 0.817
51.90000 -1.580
51.92000 -0.364
51.94000 2.005
51.96000 -0.065
51.98000 0.198
52.00000 -2.508
52.02000 1.372
52.04000 3.842
52.06000 2.594
52.08000 0.780
52.10000 -0.774
52.12000 -0.986
52.14000 0.112
52.16000 1.615
52.18000 0.584
52.20000 3.728
52.22000 3.403
52.24000 1.554
52.26000 2.639
52.28000 0.206
52.30000 0.536
52.32000 2.877
52.34000 5.326
52.36000 3.699
52.38000 3.611
52.40000 3.897
52.42000 0.218
52.44000 1.154
52.46000 2.251
52.48000 1.551
52.50000 0.559
52.52000 2.296
52.54000 3.937
52.56000 3.169
52.58000 -1.539
52.60000 -1.496
52.62000 3.616
52.64000 4.558
52.66000 5.382
52.68000 0.146
52.70000 -2.496
52.72000 -0.972
52.74000 3.309
52.76000 3.330
52.78000 3.530
52.80000 -2.495
52.82000 0.177
52.84000 2.053
52.86000 0.209
52.88000 1.494
52.90000 2.420
52.92000 1.942
52.94000 3.260
52.96000 1.768
52.98000 -1.170
53.00000 -0.625
53.02000 1.770
53.04000 -0.620
53.06000 3.948
53.08000 3.769
53.10000 0.594
53.12000 -2.033
53.14000 -2.490
53.16000 -2.082
53.18000 -0.919
53.20000 1.726
53.22000 1.411
53.24000 -0.053
53.26000 -0.539
53.28000 0.597
53.30000 2.300
53.32000 2.313
53.34000 0.935
53.36000 1.928
53.38000 2.884
53.40000 1.963
53.42000 -0.992
53.44000 -0.610
53.46000 -0.608
53.48000 4.628
53.50000 1.978
53.52000 -1.666
53.54000 -1.602
53.56000 -0.728
53.58000 -1.574
53.60000 -1.709
53.62000 -0.631
53.64000 -1.862
53.66000 -1.271
53.68000 0.902
53.70000 1.683
53.72000 2.376
53.74000 3.554
53.76000 2.924
53.78000 -0.323
53.80000 1.317
53.82000 4.813
53.84000 7.517
53.86000 5.921
53.88000 3.184
53.90000 0.505
53.92000 2.056
53.94000 2.177
53.96000 3.672
53.98000 -0.031
54.00000 2.578
54.02000 6.462
54.04000 3.332
54.06000 1.890
54.08000 -1.029
54.10000 -1.628
54.12000 2.502
54.14000 3.328
54.16000 -0.597
54.18000 -0.279
54.20000 -2.460
54.22000 1.155
54.24000 3.787
54.26000 2.325
54.28000 1.325
54.30000 1.383
54.32000 0.976
54.34000 3.232
54.36000 3.937
54.38000 5.897
54.40000 5.710
54.42000 -1.461
54.44000 -1.531
54.46000 0.119
54.48000 0.293
54.50000 0.183
54.52000 1.525
54.54000 0.073
54.56000 1.249
54.58000 2.982
54.60000 0.825
54.62000 2.504
54.64000 4.006
54.66000 4.454
54.68000 0.824
54.70000 1.301
54.72000 4.159
54.74000 6.419
54.76000 4.440
54.78000 -0.834
54.80000 2.612
54.82000 3.734
54.84000 1.922
54.86000 0.766
54.88000 -2.432
54.90000 -0.525
54.92000 -0.013
54.94000 0.059
54.96000 1.764
54.98000 2.436
55.00000 2.973
55.02000 4.908
55.04000 4.179
55.06000 4.130
55.08000 4.619
55.10000 0.505
55.12000 4.539
55.14000 0.252
55.16000 4.792
55.18000 2.592
55.20000 1.631
55.22000 4.727
55.24000 3.230
55.26000 0.433
55.28000 1.406
55.30000 -0.416
55.32000 -2.412
55.34000 -0.586
55.36000 1.052
55.38000 2.728
55.40000 1.997
55.42000 1.847
55.44000 -1.065
55.46000 -0.302
55.48000 1.288
55.50000 2.542
55.52000 2.974
55.54000 1.346
55.56000 6.358
55.58000 4.935
55.60000 6.398
55.62000 6.107
55.64000 1.195
55.66000 -0.380
55.68000 0.767
55.70000 -2.272
55.72000 0.934
55.74000 1.389
55.76000 5.188
55.78000 6.152
55.80000 1.207
55.82000 -2.395
55.84000 -0.534
55.86000 2.411
55.88000 3.099
55.90000 2.262
55.92000 2.410
55.94000 2.621
55.96000 0.223
55.98000 3.259
56.00000 2.283
56.02000 -0.055
56.04000 5.124
56.06000 -0.285
56.08000 2.145
56.10000 3.667
56.12000 2.789
56.14000 1.149
56.16000 2.106
56.18000 2.839
56.20000 2.361
56.22000 1.642
56.24000 2.828
56.26000 5.655
56.28000 6.130
56.30000 -0.207
56.32000 -0.814
56.34000 1.544
56.36000 1.030
56.38000 4.502
56.40000 3.247
56.42000 3.808
56.44000 1.524
56.46000 1.746
56.48000 3.666
56.50000 4.085
56.52000 2.800
56.54000 5.505
56.56000 6.473
56.58000 3.559
56.60000 0.893
56.62000 -0.458
56.64000 0.076
56.66000 0.667
56.68000 -2.397
56.70000 0.059
56.72000 1.846
56.74000 2.819
56.76000 2.021
56.78000 0.805
56.80000 -1.236
56.82000 4.041
56.84000 2.640
56.86000 3.070
56.88000 5.223
56.90000 4.080
56.92000 1.988
56.94000 2.544
56.96000 5.108
56.98000 0.171
57.00000 0.347
57.02000 -0.618
57.04000 -0.147
57.06000 6.234
57.08000 4.985
57.10000 -2.381
57.12000 -0.448
57.14000 4.320
57.16000 2.384
57.18000 0.159
57.20000 2.512
57.22000 1.955
57.24000 1.196
57.26000 1.750
57.28000 3.046
57.30000 2.326
57.32000 -0.679
57.34000 -1.584
57.36000 0.630
57.38000 2.295
57.40000 2.812
57.42000 1.793
57.44000 2.151
57.46000 1.002
57.48000 2.685
57.50000 2.346
57.52000 2.661
57.54000 5.171
57.56000 -0.772
57.58000 0.944
57.60000 2.196
57.62000 0.291
57.64000 0.055
57.66000 -0.066
57.68000 3.949
57.70000 1.717
57.72000 2.089
57.74000 -1.942
57.76000 -2.355
57.78000 1.161
57.80000 1.896
57.82000 0.410
57.84000 0.566
57.86000 5.064
57.88000 3.353
57.90000 3.124
57.92000 1.171
57.94000 3.293
57.96000 3.064
57.98000 3.503
58.00000 3.026
58.02000 -0.519
58.04000 1.868
58.06000 0.963
58.08000 2.090
58.10000 4.626
58.12000 2.267
58.14000 0.788
58.16000 -0.032
58.18000 0.413
58.20000 -0.957
58.22000 1.071
58.24000 1.867
58.26000 1.098
58.28000 -0.962
58.30000 0.075
58.32000 3.301
58.34000 1.892
58.36000 1.789
58.38000 0.902
58.40000 1.991
58.42000 5.556
58.44000 4.564
58.46000 2.023
58.48000 2.242
58.50000 2.469
58.52000 3.932
58.54000 0.017
58.56000 4.003
58.58000 2.080
58.60000 0.913
58.62000 -0.088
58.64000 -1.086
58.66000 1.442
58.68000 2.393
58.70000 1.733
58.72000 3.623
58.74000 4.477
58.76000 0.705
58.78000 -1.857
58.80000 -2.324
58.82000 -1.178
58.84000 0.417
58.86000 1.923
58.88000 4.847
58.90000 2.213
58.92000 1.368
58.94000 3.158
58.96000 3.813
58.98000 3.050
59.00000 1.265
59.02000 4.536
59.04000 5.751
59.06000 1.882
59.08000 -0.225
59.10000 2.395
59.12000 1.693
59.14000 1.027
59.16000 3.911
59.18000 7.525
59.20000 2.948
59.22000 -1.076
59.24000 -1.124
59.26000 -0.436
59.28000 -1.403
59.30000 1.412
59.32000 1.962
59.34000 2.319
59.36000 1.695
59.38000 -0.001
59.40000 -0.381
59.42000 2.372
59.44000 3.467
59.46000 3.151
59.48000 2.076
59.50000 2.824
59.52000 5.844
59.54000 5.902
59.56000 5.968
59.58000 1.863
59.60000 2.787
59.62000 5.779
59.64000 0.702
59.66000 -1.821
59.68000 1.708
59.70000 3.042
59.72000 0.850
59.74000 0.915
59.76000 -0.139
59.78000 -2.295
59.80000 0.811
59.82000 5.169
59.84000 0.908
59.86000 -1.512
59.88000 3.184
59.90000 2.297
59.92000 0.799
59.94000 3.349
59.96000 0.787
59.98000 -1.499
60.00000 -1.272
60.02000 -1.457
60.04000 1.800
60.06000 2.086
60.08000 -0.053
60.10000 4.567
60.12000 1.691
60.14000 -0.399
60.16000 2.376
60.18000 3.442
60.20000 1.927
60.22000 4.387
60.24000 1.958
60.26000 1.158
60.28000 -0.621
60.30000 0.306
60.32000 -0.412
60.34000 -1.396
60.36000 -2.288
60.38000 -0.616
60.40000 1.492
60.42000 1.042
60.44000 1.719
60.46000 1.277
60.48000 -0.539
60.50000 -0.772
60.52000 3.920
60.54000 3.317
60.56000 2.368
60.58000 0.281
60.60000 -2.202
60.62000 2.994
60.64000 2.121
60.66000 0.994
60.68000 -1.994
60.70000 0.185
60.72000 0.945
60.74000 2.333
60.76000 1.592
60.78000 0.929
60.80000 -1.374
60.82000 -1.430
60.84000 -0.796
60.86000 -1.877
60.88000 1.699
60.90000 2.956
60.92000 0.632
60.94000 -2.262
60.96000 -1.248
60.98000 5.433
61.00000 6.190
61.02000 1.740
61.04000 0.441
61.06000 1.995
61.08000 2.642
61.10000 2.600
61.12000 -0.492
61.14000 0.967
61.16000 2.071
61.18000 4.897
61.20000 6.758
61.22000 0.954
61.24000 -0.111
61.26000 2.169
61.28000 0.055
61.30000 0.674
61.32000 0.092
61.34000 1.485
61.36000 5.148
61.38000 2.254
61.40000 -0.304
61.42000 -0.893
61.44000 -0.581
61.46000 -1.327
61.48000 2.192
61.50000 4.209
61.52000 1.782
61.54000 2.651
61.56000 -0.102
61.58000 -1.196
61.60000 -0.426
61.62000 1.112
61.64000 3.276
61.66000 5.082
61.68000 4.674
61.70000 4.863
61.72000 3.472
61.74000 1.135
61.76000 1.290
61.78000 1.239
61.80000 -1.884
61.82000 0.250
61.84000 1.390
61.86000 3.731
61.88000 2.662
61.90000 3.012
61.92000 2.494
61.94000 0.770
61.96000 -0.600
61.98000 3.580
62.00000 3.576
62.02000 1.597
62.04000 0.761
62.06000 2.630
62.08000 1.733
62.10000 4.037
62.12000 2.878
62.14000 2.205
62.16000 -2.211
62.18000 -1.884
62.20000 3.041
62.22000 5.652
62.24000 2.138
62.26000 1.823
62.28000 2.628
62.30000 3.311
62.32000 2.340
62.34000 2.466
62.36000 3.687
62.38000 0.083
62.40000 -1.943
62.42000 1.606
62.44000 2.708
62.46000 1.615
62.48000 -1.423
62.50000 -0.879
62.52000 1.114
62.54000 1.999
62.56000 3.253
62.58000 4.019
62.60000 -0.176
62.62000 0.158
62.64000 1.805
62.66000 0.705
62.68000 2.123
62.70000 1.417
62.72000 0.978
62.74000 0.894
62.76000 3.033
62.78000 2.338
62.80000 -0.589
62.82000 -1.611
62.84000 1.086
62.86000 3.550
62.88000 1.718
62.90000 0.966
62.92000 -0.494
62.94000 1.914
62.96000 1.674
62.98000 0.665
63.00000 0.708
63.02000 0.844
63.04000 2.130
63.06000 0.824
63.08000 0.244
63.10000 2.898
63.12000 4.404
63.14000 -0.131
63.16000 0.686
63.18000 1.111
63.20000 1.788
63.22000 1.279
63.24000 2.437
63.26000 1.924
63.28000 -1.341
63.30000 -0.581
63.32000 0.143
63.34000 0.198
63.36000 0.967
63.38000 -2.221
63.40000 -2.204
63.42000 -0.184
63.44000 0.861
63.46000 2.506
63.48000 2.223
63.50000 1.646
63.52000 1.329
63.54000 -0.261
63.56000 -1.646
63.58000 -0.709
63.60000 -2.217
63.62000 7.464
63.64000 5.311
63.66000 3.127
63.68000 -1.876
63.70000 -1.344
63.72000 0.231
63.74000 -1.135
63.76000 -0.114
63.78000 3.377
63.80000 1.212
63.82000 4.259
63.84000 2.212
63.86000 3.255
63.88000 3.730
63.90000 2.537
63.92000 2.934
63.94000 -0.962
63.96000 0.941
63.98000 3.634
64.00000 2.817
64.02000 1.507
64.04000 -1.197
64.06000 1.933
64.08000 3.313
64.10000 3.061
64.12000 0.739
64.14000 0.491
64.16000 0.877
64.18000 -1.529
64.20000 -1.835
64.22000 1.859
64.24000 3.182
64.26000 2.754
64.28000 2.170
64.30000 1.270
64.32000 -1.040
64.34000 0.500
64.36000 0.122
64.38000 3.303
64.40000 3.851
64.42000 4.447
64.44000 3.473
64.46000 2.548
64.48000 0.122
64.50000 -1.008
64.52000 -1.355
64.54000 -2.211
64.56000 -1.840
64.58000 0.645
64.60000 0.916
64.62000 2.407
64.64000 1.735
64.66000 2.141
64.68000 0.912
64.70000 -0.079
64.72000 0.647
64.74000 2.195
64.76000 1.737
64.78000 1.164
64.80000 -0.154
64.82000 0.208
64.84000 -0.341
64.86000 0.860
64.88000 0.219
64.90000 2.164
64.92000 1.128
64.94000 0.725
64.96000 0.028
64.98000 1.706
65.00000 1.642
65.02000 0.109
65.04000 1.785
65.06000 1.254
65.08000 2.924
65.10000 1.789
65.12000 3.203
65.14000 5.125
65.16000 2.413
65.18000 3.095
65.20000 0.553
65.22000 0.441
65.24000 3.696
65.26000 3.027
65.28000 2.528
65.30000 0.635
65.32000 -0.294
65.34000 0.487
65.36000 0.789
65.38000 -0.556
65.40000 -0.889
65.42000 0.863
65.44000 -0.666
65.46000 -2.192
65.48000 -1.795
65.50000 2.354
65.52000 -1.423
65.54000 0.100
65.56000 4.993
65.58000 1.388
65.60000 3.821
65.62000 5.110
65.64000 2.894
65.66000 2.424
65.68000 1.782
65.70000 0.151
65.72000 0.207
65.74000 -0.800
65.76000 -2.066
65.78000 -0.459
65.80000 -0.841
65.82000 1.159
65.84000 -0.877
65.86000 -1.147
65.88000 -0.330
65.90000 -1.128
65.92000 -0.516
65.94000 2.159
65.96000 3.900
65.98000 -0.070
66.00000 -2.214
66.02000 -1.606
66.04000 -1.033
66.06000 -0.346
66.08000 -1.408
66.10000 0.675
66.12000 0.604
66.14000 1.951
66.16000 1.800
66.18000 1.117
66.20000 0.184
66.22000 1.166
66.24000 -2.154
66.26000 -2.185
66.28000 -0.404
66.30000 -1.696
66.32000 -1.225
66.34000 -1.493
66.36000 1.386
66.38000 4.354
66.40000 1.071
66.42000 -0.709
66.44000 0.774
66.46000 0.539
66.48000 1.049
66.50000 3.977
66.52000 2.307
66.54000 1.554
66.56000 3.543
66.58000 2.680
66.60000 2.266
66.62000 1.619
66.64000 2.561
66.66000 3.518
66.68000 5.965
66.70000 2.599
66.72000 2.174
66.74000 4.635
66.76000 4.013
66.78000 3.997
66.80000 3.932
66.82000 2.506
66.84000 1.913
66.86000 4.948
66.88000 5.472
66.90000 4.579
66.92000 4.244
66.94000 6.245
66.96000 5.483
66.98000 7.109
67.00000 6.746
67.02000 6.185
67.04000 5.954
67.06000 7.918
67.08000 8.948
67.10000 6.549
67.12000 5.001
67.14000 6.575
67.16000 5.316
67.18000 5.347
67.20000 8.212
67.22000 10.896
67.24000 6.507
67.26000 4.896
67.28000 6.469
67.30000 7.728
67.32000 7.631
67.34000 9.042
67.36000 9.623
67.38000 9.142
67.40000 9.182
67.42000 9.592
67.44000 11.416
67.46000 11.047
67.48000 11.237
67.50000 9.354
67.52000 7.869
67.54000 9.370
67.56000 10.303
67.58000 8.426
67.60000 8.194
67.62000 8.291
67.64000 7.433
67.66000 7.505
67.68000 9.324
67.70000 8.560
67.72000 8.392
67.74000 8.030
67.76000 8.785
67.78000 6.658
67.80000 4.946
67.82000 3.682
67.84000 2.991
67.86000 2.846
67.88000 2.331
67.90000 6.139
67.92000 8.465
67.94000 5.414
67.96000 1.973
67.98000 4.872
68.00000 5.466
68.02000 2.767
68.04000 2.649
68.06000 3.702
68.08000 1.412
68.10000 3.962
68.12000 6.331
68.14000 4.428
68.16000 4.935
68.18000 3.030
68.20000 0.846
68.22000 1.496
68.24000 1.661
68.26000 0.433
68.28000 0.362
68.30000 1.586
68.32000 1.561
68.34000 0.327
68.36000 2.344
68.38000 -0.829
68.40000 -0.162
68.42000 1.271
68.44000 1.591
68.46000 1.794
68.48000 4.241
68.50000 5.831
68.52000 1.307
68.54000 2.426
68.56000 1.644
68.58000 0.507
68.60000 0.879
68.62000 0.744
68.64000 -2.095
68.66000 0.921
68.68000 1.062
68.70000 3.096
68.72000 1.627
68.74000 1.219
68.76000 0.147
68.78000 -0.017
68.80000 -2.082
68.82000 0.892
68.84000 2.939
68.86000 2.870
68.88000 0.638
68.90000 1.639
68.92000 4.678
68.94000 3.509
68.96000 3.814
68.98000 2.067
69.00000 0.378
69.02000 0.022
69.04000 0.088
69.06000 1.712
69.08000 0.218
69.10000 -1.900
69.12000 -0.746
69.14000 1.030
69.16000 0.961
69.18000 1.959
69.20000 2.839
69.22000 1.548
69.24000 1.146
69.26000 1.996
69.28000 0.996
69.30000 -0.960
69.32000 0.161
69.34000 0.726
69.36000 0.081
69.38000 -1.896
69.40000 -1.041
69.42000 3.151
69.44000 3.807
69.46000 1.410
69.48000 3.299
69.50000 2.726
69.52000 -0.801
69.54000 -0.552
69.56000 -0.702
69.58000 -2.026
69.60000 0.636
69.62000 1.145
69.64000 1.340
69.66000 -0.246
69.68000 -1.887
69.70000 -1.161
69.72000 -2.063
69.74000 0.717
69.76000 1.764
69.78000 2.691
69.80000 1.948
69.82000 -0.875
69.84000 -0.674
69.86000 0.703
69.88000 -1.133
69.90000 -1.376
69.92000 0.570
69.94000 -0.916
69.96000 -1.713
69.98000 -0.530
70.00000 2.450
70.02000 2.949
70.04000 1.056
70.06000 0.580
70.08000 1.091
70.10000 -0.842
70.12000 -1.158
70.14000 1.285
70.16000 1.526
70.18000 1.450
70.20000 1.834
70.22000 0.196
70.24000 -0.501
70.26000 1.184
70.28000 -0.054
70.30000 2.351
70.32000 3.567
70.34000 3.372
70.36000 2.573
70.38000 2.153
70.40000 1.850
70.42000 -0.940
70.44000 -2.010
70.46000 -0.575
70.48000 1.323
70.50000 -1.627
70.52000 1.514
70.54000 2.557
70.56000 -0.095
70.58000 -1.440
70.60000 -1.269
70.62000 1.168
70.64000 3.139
70.66000 0.410
70.68000 1.874
70.70000 1.373
70.72000 0.078
70.74000 1.217
70.76000 4.843
70.78000 3.627
70.80000 -0.390
70.82000 2.709
70.84000 2.319
70.86000 1.471
70.88000 0.789
70.90000 3.887
70.92000 1.656
70.94000 2.253
70.96000 1.169
70.98000 -0.281
71.00000 -0.749
71.02000 -1.677
71.04000 -0.228
71.06000 0.554
71.08000 -1.157
71.10000 -1.686
71.12000 0.933
71.14000 2.280
71.16000 0.879
71.18000 1.608
71.20000 3.398
71.22000 2.966
71.24000 2.765
71.26000 1.742
71.28000 -0.840
71.30000 0.411
71.32000 0.801
71.34000 1.341
71.36000 0.131
71.38000 -0.681
71.40000 -0.509
71.42000 -1.084
71.44000 -0.261
71.46000 2.427
71.48000 0.479
71.50000 2.740
71.52000 2.552
71.54000 4.999
71.56000 3.282
71.58000 -1.402
71.60000 1.074
71.62000 3.271
71.64000 -0.123
71.66000 0.748
71.68000 0.547
71.70000 -0.871
71.72000 1.349
71.74000 0.293
71.76000 0.697
71.78000 1.414
71.80000 0.561
71.82000 1.208
71.84000 2.909
71.86000 2.015
71.88000 1.523
71.90000 1.259
71.92000 1.289
71.94000 -0.406
71.96000 -1.945
71.98000 -0.100
72.00000 1.966
72.02000 2.425
72.04000 0.812
72.06000 -0.215
72.08000 -0.185
72.10000 -0.127
72.12000 -0.100
72.14000 0.559
72.16000 0.696
72.18000 0.188
72.20000 1.136
72.22000 2.583
72.24000 1.054
72.26000 0.689
72.28000 1.948
72.30000 3.050
72.32000 0.846
72.34000 -0.501
72.36000 1.789
72.38000 -0.094
72.40000 -0.325
72.42000 1.335
72.44000 0.833
72.46000 -0.455
72.48000 -0.184
72.50000 0.840
72.52000 2.107
72.54000 1.673
72.56000 0.119
72.58000 -1.023
72.60000 -1.938
72.62000 0.587
72.64000 0.679
72.66000 0.504
72.68000 0.584
72.70000 -1.447
72.72000 -0.737
72.74000 0.919
72.76000 1.528
72.78000 1.726
72.80000 0.679
72.82000 -0.965
72.84000 0.558
72.86000 1.699
72.88000 4.462
72.90000 2.246
72.92000 1.509
72.94000 1.877
72.96000 3.147
72.98000 1.375
73.00000 1.283
73.02000 0.703
73.04000 1.579
73.06000 0.890
73.08000 -0.261
73.10000 -1.912
73.12000 -1.043
73.14000 0.312
73.16000 3.612
73.18000 2.602
73.20000 1.991
73.22000 3.911
73.24000 2.607
73.26000 1.136
73.28000 1.151
73.30000 3.424
73.32000 4.082
73.34000 -0.020
73.36000 -0.349
73.38000 1.809
73.40000 2.579
73.42000 2.222
73.44000 2.732
73.46000 1.715
73.48000 4.922
73.50000 0.283
73.52000 -0.751
73.54000 0.799
73.56000 2.196
73.58000 3.157
73.60000 0.226
73.62000 0.557
73.64000 -1.916
73.66000 0.299
73.68000 0.669
73.70000 1.292
73.72000 0.902
73.74000 2.160
73.76000 3.637
73.78000 4.498
73.80000 3.261
73.82000 1.819
73.84000 1.129
73.86000 -0.464
73.88000 1.185
73.90000 2.850
73.92000 3.192
73.94000 2.702
73.96000 0.783
73.98000 0.604
74.00000 0.591
74.02000 3.294
74.04000 3.071
74.06000 2.068
74.08000 1.718
74.10000 1.910
74.12000 1.054
74.14000 1.168
74.16000 1.136
74.18000 -1.924
74.20000 0.423
74.22000 0.168
74.24000 2.468
74.26000 1.532
74.28000 -0.080
74.30000 1.526
74.32000 0.594
74.34000 1.060
74.36000 0.708
74.38000 0.415
74.40000 0.229
74.42000 -0.323
74.44000 0.360
74.46000 -0.905
74.48000 1.776
74.50000 3.544
74.52000 3.081
74.54000 4.780
74.56000 2.108
74.58000 0.203
74.60000 -0.249
74.62000 3.191
74.64000 3.094
74.66000 0.154
74.68000 -1.692
74.70000 3.161
74.72000 0.764
74.74000 -1.904
74.76000 0.346
74.78000 0.096
74.80000 0.786
74.82000 1.906
74.84000 -0.465
74.86000 0.463
74.88000 1.059
74.90000 3.951
74.92000 1.100
74.94000 -1.909
74.96000 -1.909
74.98000 1.937
75.00000 0.141
75.02000 0.612
75.04000 1.378
75.06000 0.419
75.08000 -0.866
75.10000 1.093
75.12000 1.175
75.14000 -0.135
75.16000 -0.924
75.18000 -0.938
75.20000 3.626
75.22000 2.086
75.24000 2.074
75.26000 2.018
75.28000 -1.040
75.30000 0.898
75.32000 -0.586
75.34000 0.642
75.36000 0.375
75.38000 0.237
75.40000 4.777
75.42000 3.481
75.44000 1.406
75.46000 2.543
75.48000 1.858
75.50000 2.649
75.52000 4.572
75.54000 1.992
75.56000 2.278
75.58000 4.878
75.60000 2.181
75.62000 -0.460
75.64000 -0.594
75.66000 1.999
75.68000 0.867
75.70000 -1.913
75.72000 -0.313
75.74000 0.497
75.76000 3.919
75.78000 2.630
75.80000 2.147
75.82000 2.342
75.84000 2.571
75.86000 1.018
75.88000 1.719
75.90000 3.092
75.92000 3.444
75.94000 2.858
75.96000 3.094
75.98000 3.396
76.00000 1.155
76.02000 0.955
76.04000 3.515
76.06000 4.501
76.08000 3.083
76.10000 4.652
76.12000 4.484
76.14000 2.042
76.16000 -0.215
76.18000 -1.127
76.20000 1.432
76.22000 2.293
76.24000 3.574
76.26000 2.426
76.28000 1.763
76.30000 2.249
76.32000 3.284
76.34000 3.281
76.36000 2.825
76.38000 3.059
76.40000 1.036
76.42000 -0.976
76.44000 -0.232
76.46000 3.948
76.48000 5.391
76.50000 1.156
76.52000 3.088
76.54000 3.282
76.56000 4.017
76.58000 1.631
76.60000 3.353
76.62000 0.863
76.64000 1.654
76.66000 2.499
76.68000 0.564
76.70000 1.577
76.72000 1.952
76.74000 -1.365
76.76000 -1.880
76.78000 2.279
76.80000 3.423
76.82000 3.732
76.84000 0.552
76.86000 4.245
76.88000 6.117
76.90000 4.232
76.92000 2.227
76.94000 4.521
76.96000 2.266
76.98000 1.802
77.00000 0.098
77.02000 1.545
77.04000 2.215
77.06000 2.024
77.08000 3.814
77.10000 3.808
77.12000 0.979
77.14000 1.731
77.16000 3.020
77.18000 1.890
77.20000 0.906
77.22000 1.050
77.24000 2.906
77.26000 2.285
77.28000 2.169
77.30000 3.627
77.32000 2.082
77.34000 2.195
77.36000 0.523
77.38000 0.157
77.40000 -0.427
77.42000 2.449
77.44000 0.206
77.46000 1.881
77.48000 1.391
77.50000 -1.391
77.52000 3.822
77.54000 5.688
77.56000 1.184
77.58000 1.899
77.60000 0.722
77.62000 0.561
77.64000 1.345
77.66000 2.954
77.68000 2.482
77.70000 3.643
77.72000 2.146
77.74000 3.091
77.76000 1.290
77.78000 1.616
77.80000 0.001
77.82000 1.610
77.84000 3.424
77.86000 4.213
77.88000 2.201
77.90000 0.769
77.92000 1.801
77.94000 -0.026
77.96000 -1.694
77.98000 2.907
78.00000 3.399
78.02000 2.192
78.04000 3.111
78.06000 0.613
78.08000 -1.495
78.10000 -0.486
78.12000 0.678
78.14000 -1.146
78.16000 0.212
78.18000 1.965
78.20000 1.532
78.22000 1.237
78.24000 0.265
78.26000 -0.409
78.28000 0.668
78.30000 0.906
78.32000 1.591
78.34000 4.947
78.36000 3.136
78.38000 1.590
78.40000 0.166
78.42000 1.041
78.44000 1.212
78.46000 -1.977
78.48000 -1.074
78.50000 1.694
78.52000 4.825
78.54000 0.982
78.56000 -0.092
78.58000 2.246
78.60000 0.103
78.62000 0.834
78.64000 3.126
78.66000 2.111
78.68000 2.155
78.70000 0.162
78.72000 -1.999
78.74000 0.352
78.76000 3.370
78.78000 3.121
78.80000 3.357
78.82000 1.778
78.84000 1.181
78.86000 1.296
78.88000 2.639
78.90000 2.846
78.92000 4.052
78.94000 2.987
78.96000 2.601
78.98000 1.908
79.00000 0.858
79.02000 0.490
79.04000 4.161
79.06000 6.174
79.08000 2.981
79.10000 3.009
79.12000 0.855
79.14000 -2.030
79.16000 1.091
79.18000 5.008
79.20000 3.358
79.22000 0.455
79.24000 -0.658
79.26000 -1.998
79.28000 -1.174
79.30000 -1.149
79.32000 1.638
79.34000 2.960
79.36000 2.932
79.38000 3.538
79.40000 0.212
79.42000 -0.844
79.44000 -0.006
79.46000 -1.204
79.48000 1.499
79.50000 0.865
79.52000 0.936
79.54000 2.276
79.56000 1.607
79.58000 0.796
79.60000 2.109
79.62000 0.081
79.64000 -2.092
79.66000 1.352
79.68000 0.717
79.70000 1.063
79.72000 -2.101
79.74000 0.025
79.76000 2.518
79.78000 3.439
79.80000 3.479
79.82000 1.179
79.84000 1.339
79.86000 0.251
79.88000 1.304
79.90000 5.257
79.92000 5.969
79.94000 2.252
79.96000 4.273
79.98000 5.518
80.00000 4.255
80.02000 3.587
80.04000 4.342
80.06000 -0.129
80.08000 1.690
80.10000 5.666
80.12000 1.757
80.14000 3.572
80.16000 8.441
80.18000 4.475
80.20000 3.062
80.22000 4.609
80.24000 2.073
80.26000 3.376
80.28000 1.980
80.30000 5.005
80.32000 5.370
80.34000 8.295
80.36000 6.308
80.38000 7.234
80.40000 7.383
80.42000 6.515
80.44000 7.100
80.46000 10.406
80.48000 8.604
80.50000 6.997
80.52000 9.938
80.54000 11.282
80.56000 12.648
80.58000 12.486
80.60000 6.287
80.62000 6.554
80.64000 9.099
80.66000 10.747
80.68000 11.047
80.70000 15.071
80.72000 12.689
80.74000 10.392
80.76000 9.745
80.78000 13.592
80.80000 14.174
80.82000 12.100
80.84000 14.417
80.86000 18.459
80.88000 24.870
80.90000 20.559
80.92000 18.244
80.94000 17.383
80.96000 19.143
80.98000 16.488
81.00000 18.180
81.02000 19.656
81.04000 20.393
81.06000 20.123
81.08000 17.498
81.10000 17.348
81.12000 18.084
81.14000 18.655
81.16000 19.902
81.18000 19.713
81.20000 19.848
81.22000 24.764
81.24000 24.031
81.26000 20.728
81.28000 21.163
81.30000 19.283
81.32000 21.868
81.34000 21.480
81.36000 23.385
81.38000 22.710
81.40000 21.842
81.42000 15.218
81.44000 14.197
81.46000 15.104
81.48000 17.906
81.50000 17.286
81.52000 17.009
81.54000 20.737
81.56000 16.932
81.58000 16.778
81.60000 15.816
81.62000 16.175
81.64000 14.125
81.66000 17.018
81.68000 17.157
81.70000 20.793
81.72000 18.806
81.74000 13.668
81.76000 9.023
81.78000 11.950
81.80000 12.695
81.82000 11.328
81.84000 12.631
81.86000 12.825
81.88000 11.899
81.90000 7.547
81.92000 7.789
81.94000 10.804
81.96000 12.089
81.98000 11.814
82.00000 7.662
82.02000 6.603
82.04000 7.953
82.06000 7.253
82.08000 6.906
82.10000 6.894
82.12000 6.501
82.14000 7.985
82.16000 4.160
82.18000 1.814
82.20000 3.154
82.22000 4.738
82.24000 5.260
82.26000 4.573
82.28000 0.956
82.30000 5.165
82.32000 4.550
82.34000 5.804
82.36000 3.922
82.38000 0.907
82.40000 0.238
82.42000 2.200
82.44000 1.778
82.46000 0.293
82.48000 2.383
82.50000 4.730
82.52000 2.313
82.54000 1.684
82.56000 0.649
82.58000 1.331
82.60000 2.227
82.62000 1.542
82.64000 0.855
82.66000 0.035
82.68000 -0.621
82.70000 -2.107
82.72000 -0.845
82.74000 1.540
82.76000 1.827
82.78000 1.448
82.80000 1.588
82.82000 0.857
82.84000 2.601
82.86000 2.546
82.88000 1.616
82.90000 0.110
82.92000 -0.090
82.94000 -2.099
82.96000 -1.607
82.98000 0.884
83.00000 -1.494
83.02000 -0.827
83.04000 2.900
83.06000 1.537
83.08000 1.241
83.10000 3.282
83.12000 4.868
83.14000 1.766
83.16000 -0.749
83.18000 -0.925
83.20000 2.278
83.22000 4.690
83.24000 4.815
83.26000 4.519
83.28000 3.250
83.30000 4.201
83.32000 4.082
83.34000 1.369
83.36000 0.688
83.38000 2.391
83.40000 1.372
83.42000 3.022
83.44000 2.137
83.46000 4.671
83.48000 7.094
83.50000 4.826
83.52000 0.416
83.54000 2.862
83.56000 5.478
83.58000 6.928
83.60000 1.825
83.62000 -2.059
83.64000 2.868
83.66000 5.446
83.68000 3.643
83.70000 2.177
83.72000 1.911
83.74000 1.932
83.76000 4.326
83.78000 5.675
83.80000 3.611
83.82000 5.565
83.84000 8.246
83.86000 11.151
83.88000 12.421
83.90000 8.389
83.92000 4.765
83.94000 4.170
83.96000 6.010
83.98000 5.311
84.00000 5.372
84.02000 4.951
84.04000 5.706
84.06000 5.636
84.08000 6.838
84.10000 11.124
84.12000 10.241
84.14000 7.259
84.16000 6.993
84.18000 8.733
84.20000 11.151
84.22000 12.390
84.24000 8.663
84.26000 8.288
84.28000 8.414
84.30000 14.425
84.32000 9.996
84.34000 11.122
84.36000 12.535
84.38000 11.189
84.40000 14.259
84.42000 9.775
84.44000 12.051
84.46000 10.969
84.48000 7.987
84.50000 12.131
84.52000 15.562
84.54000 14.971
84.56000 14.241
84.58000 15.430
84.60000 17.992
84.62000 18.857
84.64000 17.212
84.66000 17.652
84.68000 19.552
84.70000 18.642
84.72000 23.944
84.74000 22.630
84.76000 20.223
84.78000 22.223
84.80000 20.641
84.82000 21.589
84.84000 20.029
84.86000 22.246
84.88000 23.572
84.90000 26.336
84.92000 27.786
84.94000 25.015
84.96000 26.821
84.98000 26.207
85.00000 24.494
85.02000 23.575
85.04000 25.683
85.06000 28.214
85.08000 28.510
85.10000 24.483
85.12000 26.415
85.14000 24.018
85.16000 22.775
85.18000 22.122
85.20000 24.927
85.22000 24.569
85.24000 25.005
85.26000 28.835
85.28000 29.598
85.30000 23.391
85.32000 23.104
85.34000 26.946
85.36000 23.208
85.38000 24.225
85.40000 26.026
85.42000 25.061
85.44000 21.113
85.46000 20.183
85.48000 22.081
85.50000 21.866
85.52000 21.740
85.54000 22.073
85.56000 21.091
85.58000 21.350
85.60000 20.107
85.62000 19.706
85.64000 19.473
85.66000 18.844
85.68000 19.300
85.70000 19.342
85.72000 15.196
85.74000 11.429
85.76000 9.896
85.78000 8.530
85.80000 11.240
85.82000 11.418
85.84000 11.691
85.86000 11.038
85.88000 9.470
85.90000 8.738
85.92000 8.820
85.94000 11.484
85.96000 9.872
85.98000 7.357
86.00000 6.537
86.02000 4.178
86.04000 4.481
86.06000 4.923
86.08000 5.687
86.10000 5.955
86.12000 5.353
86.14000 5.554
86.16000 5.508
86.18000 7.352
86.20000 4.674
86.22000 1.577
86.24000 2.184
86.26000 4.403
86.28000 4.320
86.30000 1.823
86.32000 1.804
86.34000 0.764
86.36000 2.161
86.38000 3.217
86.40000 4.567
86.42000 4.970
86.44000 3.917
86.46000 5.356
86.48000 1.963
86.50000 1.544
86.52000 4.795
86.54000 4.153
86.56000 2.972
86.58000 4.902
86.60000 3.042
86.62000 2.941
86.64000 6.174
86.66000 5.239
86.68000 2.980
86.70000 2.140
86.72000 2.493
86.74000 -0.004
86.76000 0.705
86.78000 1.352
86.80000 -1.886
86.82000 1.074
86.84000 3.443
86.86000 -1.157
86.88000 0.383
86.90000 3.051
86.92000 3.632
86.94000 4.033
86.96000 1.959
86.98000 0.805
87.00000 -0.999
87.02000 0.379
87.04000 1.836
87.06000 0.008
87.08000 3.428
87.10000 1.517
87.12000 1.111
87.14000 -0.822
87.16000 0.768
87.18000 0.238
87.20000 0.389
87.22000 2.407
87.24000 3.654
87.26000 4.952
87.28000 1.912
87.30000 1.739
87.32000 3.401
87.34000 0.380
87.36000 0.967
87.38000 3.672
87.40000 3.036
87.42000 1.517
87.44000 1.187
87.46000 2.317
87.48000 2.938
87.50000 2.330
87.52000 0.838
87.54000 1.779
87.56000 1.080
87.58000 0.689
87.60000 1.892
87.62000 3.103
87.64000 2.632
87.66000 5.027
87.68000 4.667
87.70000 -1.123
87.72000 -1.832
87.74000 0.328
87.76000 0.913
87.78000 2.830
87.80000 0.434
87.82000 0.717
87.84000 3.409
87.86000 2.507
87.88000 -0.102
87.90000 1.475
87.92000 -0.089
87.94000 2.654
87.96000 4.598
87.98000 -1.829
88.00000 0.132
88.02000 0.758
88.04000 0.134
88.06000 0.917
88.08000 1.786
88.10000 0.181
88.12000 0.785
88.14000 -0.287
88.16000 -0.214
88.18000 0.350
88.20000 0.698
88.22000 2.250
88.24000 1.868
88.26000 3.867
88.28000 2.329
88.30000 -0.338
88.32000 -0.941
88.34000 0.935
88.36000 2.512
88.38000 3.384
88.40000 3.707
88.42000 1.766
88.44000 1.084
88.46000 0.612
88.48000 0.241
88.50000 0.904
88.52000 1.679
88.54000 4.042
88.56000 5.049
88.58000 4.985
88.60000 5.034
88.62000 -1.185
88.64000 -0.022
88.66000 0.820
88.68000 1.234
88.70000 -0.245
88.72000 -1.786
88.74000 0.327
88.76000 1.987
88.78000 0.604
88.80000 2.023
88.82000 3.198
88.84000 5.629
88.86000 3.998
88.88000 4.351
88.90000 2.493
88.92000 0.240
88.94000 1.658
88.96000 4.256
88.98000 4.581
89.00000 2.506
89.02000 2.888
89.04000 3.767
89.06000 3.397
89.08000 2.534
89.10000 3.198
89.12000 2.488
89.14000 2.144
89.16000 -0.656
89.18000 -0.275
89.20000 -0.667
89.22000 2.451
89.24000 1.124
89.26000 -0.801
89.28000 -0.458
89.30000 2.196
89.32000 2.342
89.34000 4.518
89.36000 5.600
89.38000 1.688
89.40000 1.156
89.42000 1.430
89.44000 1.779
89.46000 1.788
89.48000 -0.425
89.50000 -0.181
89.52000 2.015
89.54000 2.285
89.56000 1.605
89.58000 0.166
89.60000 0.438
89.62000 -0.624
89.64000 -1.765
89.66000 1.435
89.68000 3.501
89.70000 4.701
89.72000 2.119
89.74000 2.011
89.76000 2.373
89.78000 2.354
89.80000 0.816
89.82000 2.764
89.84000 2.407
89.86000 3.730
89.88000 5.966
89.90000 2.639
89.92000 4.788
89.94000 3.982
89.96000 3.225
89.98000 1.761
90.00000 0.654
90.02000 -0.099
90.04000 -0.574
90.06000 2.565
90.08000 0.771
90.10000 -0.570
90.12000 3.193
90.14000 2.164
90.16000 3.138
90.18000 3.407
90.20000 4.178
90.22000 3.782
90.24000 5.349
90.26000 2.429
90.28000 1.304
90.30000 3.245
90.32000 4.001
90.34000 -0.126
90.36000 1.311
90.38000 4.242
90.40000 1.874
90.42000 4.199
90.44000 1.879
90.46000 -0.835
90.48000 0.264
90.50000 2.050
90.52000 2.738
90.54000 1.654
90.56000 4.996
90.58000 5.059
90.60000 1.702
90.62000 2.920
90.64000 0.341
90.66000 2.679
90.68000 0.214
90.70000 -1.788
90.72000 -0.359
90.74000 3.259
90.76000 4.234
90.78000 1.990
90.80000 -0.748
90.82000 0.859
90.84000 1.299
90.86000 3.431
90.88000 1.166
90.90000 0.933
90.92000 2.797
90.94000 1.647
90.96000 2.121
90.98000 4.246
91.00000 4.524
91.02000 2.944
91.04000 2.600
91.06000 -1.779
91.08000 -0.316
91.10000 3.177
91.12000 0.584
91.14000 0.410
91.16000 2.204
91.18000 1.733
91.20000 2.113
91.22000 0.462
91.24000 0.572
91.26000 -0.073
91.28000 0.977
91.30000 0.748
91.32000 -0.357
91.34000 0.965
91.36000 1.625
91.38000 0.977
91.40000 0.505
91.42000 2.122
91.44000 -0.017
91.46000 3.269
91.48000 6.573
91.50000 3.226
91.52000 4.586
91.54000 2.800
91.56000 3.269
91.58000 -0.170
91.60000 -0.651
91.62000 -0.262
91.64000 2.472
91.66000 3.446
91.68000 0.945
91.70000 0.074
91.72000 1.156
91.74000 0.298
91.76000 -0.718
91.78000 -0.316
91.80000 3.174
91.82000 -0.033
91.84000 2.293
91.86000 2.356
91.88000 -0.410
91.90000 -1.108
91.92000 -0.058
91.94000 0.555
91.96000 -0.551
91.98000 2.529
92.00000 2.091
92.02000 -1.380
92.04000 0.426
92.06000 1.645
92.08000 -1.037
92.10000 0.369
92.12000 2.584
92.14000 0.723
92.16000 -0.702
92.18000 0.798
92.20000 0.335
92.22000 3.202
92.24000 1.854
92.26000 2.153
92.28000 1.859
92.30000 3.684
92.32000 0.095
92.34000 -1.832
92.36000 2.234
92.38000 1.611
92.40000 1.686
92.42000 1.681
92.44000 -0.802
92.46000 -1.460
92.48000 -0.121
92.50000 1.092
92.52000 2.741
92.54000 3.539
92.56000 5.608
92.58000 3.755
92.60000 1.863
92.62000 4.098
92.64000 2.163
92.66000 0.601
92.68000 0.357
92.70000 1.824
92.72000 3.021
92.74000 3.116
92.76000 2.758
92.78000 1.710
92.80000 -0.035
92.82000 -0.242
92.84000 -1.701
92.86000 0.688
92.88000 -0.248
92.90000 1.517
92.92000 0.588
92.94000 -0.928
92.96000 2.474
92.98000 1.066
93.00000 -1.753
93.02000 1.985
93.04000 2.043
93.06000 5.211
93.08000 2.272
93.10000 1.960
93.12000 2.704
93.14000 0.391
93.16000 -0.232
93.18000 3.101
93.20000 4.474
93.22000 2.528
93.24000 2.518
93.26000 6.362
93.28000 4.109
93.30000 0.971
93.32000 1.146
93.34000 -1.800
93.36000 -0.377
93.38000 2.905
93.40000 5.854
93.42000 6.012
93.44000 3.424
93.46000 2.187
93.48000 2.337
93.50000 -1.269
93.52000 1.677
93.54000 1.143
93.56000 5.282
93.58000 8.434
93.60000 5.509
93.62000 3.728
93.64000 2.166
93.66000 4.230
93.68000 3.636
93.70000 0.678
93.72000 1.169
93.74000 2.322
93.76000 1.673
93.78000 4.359
93.80000 3.239
93.82000 1.579
93.84000 0.777
93.86000 1.073
93.88000 -1.394
93.90000 6.066
93.92000 2.258
93.94000 -1.413
93.96000 0.379
93.98000 1.350
94.00000 1.026
94.02000 4.260
94.04000 2.322
94.06000 1.607
94.08000 1.656
94.10000 0.832
94.12000 1.363
94.14000 0.708
94.16000 1.093
94.18000 -1.830
94.20000 0.660
94.22000 3.373
94.24000 0.671
94.26000 -0.387
94.28000 0.965
94.30000 5.177
94.32000 4.228
94.34000 3.451
94.36000 4.023
94.38000 2.629
94.40000 1.461
94.42000 1.913
94.44000 1.333
94.46000 2.284
94.48000 0.126
94.50000 0.438
94.52000 1.947
94.54000 1.132
94.56000 2.152
94.58000 1.404
94.60000 -0.156
94.62000 0.129
94.64000 1.800
94.66000 0.753
94.68000 1.461
94.70000 2.158
94.72000 3.991
94.74000 2.097
94.76000 4.462
94.78000 2.519
94.80000 1.070
94.82000 1.078
94.84000 -1.816
94.86000 1.139
94.88000 3.446
94.90000 4.599
94.92000 5.309
94.94000 2.308
94.96000 2.039
94.98000 3.518
95.00000 1.640
95.02000 -1.053
95.04000 2.237
95.06000 5.483
95.08000 4.784
95.10000 4.507
95.12000 0.399
95.14000 -1.813
95.16000 2.063
95.18000 1.912
95.20000 4.274
95.22000 0.943
95.24000 1.539
95.26000 1.117
95.28000 1.295
95.30000 4.185
95.32000 2.112
95.34000 0.289
95.36000 3.003
95.38000 4.167
95.40000 3.720
95.42000 1.199
95.44000 1.090
95.46000 2.887
95.48000 2.811
95.50000 4.007
95.52000 5.804
95.54000 2.899
95.56000 -0.202
95.58000 -0.602
95.60000 0.599
95.62000 1.394
95.64000 1.117
95.66000 0.703
95.68000 0.532
95.70000 0.911
95.72000 -0.088
95.74000 0.653
95.76000 -0.081
95.78000 -0.755
95.80000 1.325
95.82000 3.620
95.84000 3.006
95.86000 -0.542
95.88000 0.994
95.90000 1.263
95.92000 0.369
95.94000 -1.843
95.96000 0.888
95.98000 3.852
96.00000 3.356
96.02000 -0.721
96.04000 1.473
96.06000 5.306
96.08000 3.502
96.10000 2.137
96.12000 0.604
96.14000 0.638
96.16000 3.573
96.18000 4.512
96.20000 4.815
96.22000 0.950
96.24000 -0.442
96.26000 3.139
96.28000 1.441
96.30000 0.769
96.32000 -0.901
96.34000 5.259
96.36000 6.417
96.38000 5.920
96.40000 1.578
96.42000 1.190
96.44000 2.496
96.46000 2.759
96.48000 4.518
96.50000 3.903
96.52000 1.005
96.54000 -1.149
96.56000 -1.827
96.58000 3.323
96.60000 5.041
96.62000 5.514
96.64000 3.013
96.66000 2.921
96.68000 1.715
96.70000 1.007
96.72000 0.791
96.74000 3.147
96.76000 0.990
96.78000 -1.728
96.80000 0.039
96.82000 2.587
96.84000 3.058
96.86000 3.225
96.88000 3.094
96.90000 4.540
96.92000 3.716
96.94000 0.943
96.96000 -0.492
96.98000 4.255
97.00000 2.768
97.02000 0.469
97.04000 -0.479
97.06000 0.762
97.08000 1.427
97.10000 4.541
97.12000 2.590
97.14000 1.176
97.16000 5.064
97.18000 4.430
97.20000 8.218
97.22000 9.596
97.24000 4.750
97.26000 1.688
97.28000 4.604
97.30000 3.335
97.32000 -1.800
97.34000 -0.445
97.36000 2.001
97.38000 1.968
97.40000 -0.070
97.42000 4.524
97.44000 6.413
97.46000 4.666
97.48000 3.389
97.50000 2.007
97.52000 2.453
97.54000 3.812
97.56000 3.061
97.58000 1.006
97.60000 1.207
97.62000 6.033
97.64000 4.632
97.66000 7.027
97.68000 11.327
97.70000 5.463
97.72000 4.684
97.74000 3.735
97.76000 3.491
97.78000 2.777
97.80000 -0.610
97.82000 1.290
97.84000 5.337
97.86000 8.479
97.88000 12.351
97.90000 5.458
97.92000 3.572
97.94000 2.618
97.96000 5.042
97.98000 7.371
98.00000 13.617
98.02000 9.753
98.04000 6.528
98.06000 8.288
98.08000 3.740
98.10000 1.154
98.12000 5.334
98.14000 3.956
98.16000 4.667
98.18000 9.072
98.20000 3.564
98.22000 4.960
98.24000 8.256
98.26000 7.788
98.28000 11.892
98.30000 7.899
98.32000 5.886
98.34000 4.411
98.36000 1.677
98.38000 5.691
98.40000 6.256
98.42000 1.463
98.44000 -1.679
98.46000 4.668
98.48000 8.412
98.50000 10.355
98.52000 8.839
98.54000 7.424
98.56000 2.316
98.58000 -0.055
98.60000 3.078
98.62000 8.674
98.64000 10.324
98.66000 6.245
98.68000 7.675
98.70000 8.915
98.72000 2.589
98.74000 1.672
98.76000 5.030
98.78000 5.333
98.80000 8.227
98.82000 5.751
98.84000 4.142
98.86000 4.370
98.88000 7.407
98.90000 3.996
98.92000 11.162
98.94000 10.195
98.96000 5.473
98.98000 2.082
99.00000 5.495
99.02000 1.759
99.04000 7.134
99.06000 7.504
99.08000 3.980
99.10000 0.015
99.12000 4.585
99.14000 2.142
99.16000 -0.627
99.18000 0.822
99.20000 2.530
99.22000 4.695
99.24000 -1.627
99.26000 -1.457
99.28000 2.078
99.30000 10.742
99.32000 8.347
99.34000 6.788
99.36000 6.705
99.38000 2.272
99.40000 4.300
99.42000 1.945
99.44000 0.900
99.46000 4.880
99.48000 11.201
99.50000 3.604
99.52000 4.871
99.54000 0.208
99.56000 -0.008
99.58000 5.963
99.60000 1.897
99.62000 4.253
99.64000 10.732
99.66000 4.531
99.68000 0.550
99.70000 5.378
99.72000 5.400
99.74000 -0.805
99.76000 4.034
99.78000 4.640
99.80000 0.514
99.82000 1.859
99.84000 -1.767
99.86000 -1.423
99.88000 -0.735
99.90000 7.746
99.92000 5.760
99.94000 0.034
99.96000 3.255
99.98000 0.000
