'Id: "0011389" Comment: "Integrate frame 0011389_Au-Ir-Rh_Au-Rich_XRD_Mapping-127-0000.gfrmwith cursor Wedge Cursor #5" Operator: "B?rgel" Anode: "Cu" Wavelength: "1.5406" Scantype: "2Theta (TwoTheta)" TimePerStep: "1" X: "9" Y: "-9" Z: "5.95" 
10.00000 0.000
10.02000 2.096
10.04000 -4.526
10.06000 13.732
10.08000 19.800
10.10000 25.039
10.12000 19.593
10.14000 14.048
10.16000 9.342
10.18000 -1.090
10.20000 -3.975
10.22000 16.988
10.24000 15.365
10.26000 21.352
10.28000 24.692
10.30000 20.540
10.32000 -2.623
10.34000 4.546
10.36000 16.523
10.38000 14.829
10.40000 18.257
10.42000 26.991
10.44000 15.678
10.46000 8.386
10.48000 13.471
10.50000 24.216
10.52000 24.167
10.54000 17.693
10.56000 27.670
10.58000 12.995
10.60000 8.272
10.62000 9.776
10.64000 11.206
10.66000 28.580
10.68000 14.303
10.70000 8.022
10.72000 8.558
10.74000 8.373
10.76000 16.083
10.78000 7.150
10.80000 18.222
10.82000 12.907
10.84000 2.932
10.86000 14.842
10.88000 12.382
10.90000 17.526
10.92000 10.155
10.94000 12.193
10.96000 -2.047
10.98000 6.289
11.00000 14.506
11.02000 13.475
11.04000 6.610
11.06000 9.010
11.08000 3.487
11.10000 -2.681
11.12000 5.061
11.14000 14.960
11.16000 15.996
11.18000 11.455
11.20000 4.174
11.22000 7.613
11.24000 8.308
11.26000 15.124
11.28000 19.426
11.30000 15.870
11.32000 16.713
11.34000 18.758
11.36000 26.305
11.38000 13.137
11.40000 17.824
11.42000 17.371
11.44000 7.746
11.46000 10.084
11.48000 7.125
11.50000 18.953
11.52000 14.546
11.54000 9.642
11.56000 2.757
11.58000 12.304
11.60000 21.802
11.62000 18.254
11.64000 15.205
11.66000 12.666
11.68000 16.592
11.70000 18.718
11.72000 18.427
11.74000 21.677
11.76000 16.645
11.78000 18.252
11.80000 5.960
11.82000 20.011
11.84000 14.627
11.86000 7.917
11.88000 6.225
11.90000 11.938
11.92000 15.454
11.94000 19.470
11.96000 20.561
11.98000 13.959
12.00000 8.317
12.02000 12.557
12.04000 8.449
12.06000 6.588
12.08000 15.057
12.10000 5.495
12.12000 6.943
12.14000 9.507
12.16000 14.276
12.18000 25.679
12.20000 21.728
12.22000 4.657
12.24000 12.563
12.26000 15.932
12.28000 18.972
12.30000 22.714
12.32000 13.654
12.34000 16.323
12.36000 15.385
12.38000 33.533
12.40000 14.264
12.42000 10.612
12.44000 4.681
12.46000 12.546
12.48000 13.249
12.50000 12.221
12.52000 14.010
12.54000 14.207
12.56000 11.330
12.58000 18.085
12.60000 16.872
12.62000 23.513
12.64000 18.552
12.66000 14.990
12.68000 13.596
12.70000 19.388
12.72000 22.460
12.74000 12.125
12.76000 7.583
12.78000 11.497
12.80000 5.392
12.82000 24.403
12.84000 22.408
12.86000 20.808
12.88000 25.754
12.90000 8.218
12.92000 8.202
12.94000 8.621
12.96000 14.045
12.98000 14.464
13.00000 15.477
13.02000 14.810
13.04000 26.303
13.06000 26.604
13.08000 23.875
13.10000 15.776
13.12000 13.604
13.14000 17.949
13.16000 21.736
13.18000 18.246
13.20000 19.606
13.22000 31.209
13.24000 22.216
13.26000 12.558
13.28000 9.304
13.30000 5.434
13.32000 2.667
13.34000 10.512
13.36000 12.434
13.38000 17.368
13.40000 15.293
13.42000 20.599
13.44000 16.182
13.46000 16.846
13.48000 13.473
13.50000 17.916
13.52000 17.138
13.54000 19.541
13.56000 22.898
13.58000 15.706
13.60000 13.790
13.62000 13.024
13.64000 12.965
13.66000 15.717
13.68000 16.222
13.70000 12.444
13.72000 9.698
13.74000 3.373
13.76000 2.815
13.78000 10.529
13.80000 6.923
13.82000 10.396
13.84000 1.797
13.86000 0.842
13.88000 0.390
13.90000 5.633
13.92000 12.851
13.94000 4.424
13.96000 6.966
13.98000 6.779
14.00000 7.490
14.02000 8.899
14.04000 11.514
14.06000 14.847
14.08000 7.679
14.10000 7.850
14.12000 8.422
14.14000 12.820
14.16000 12.737
14.18000 4.233
14.20000 1.654
14.22000 6.614
14.24000 5.718
14.26000 8.195
14.28000 6.699
14.30000 10.279
14.32000 0.619
14.34000 3.266
14.36000 8.734
14.38000 3.394
14.40000 6.533
14.42000 9.328
14.44000 6.788
14.46000 4.595
14.48000 12.855
14.50000 17.143
14.52000 17.890
14.54000 13.336
14.56000 13.936
14.58000 18.097
14.60000 12.734
14.62000 4.026
14.64000 4.110
14.66000 5.529
14.68000 10.589
14.70000 10.988
14.72000 6.165
14.74000 3.637
14.76000 0.921
14.78000 3.449
14.80000 5.286
14.82000 16.299
14.84000 10.401
14.86000 8.116
14.88000 8.993
14.90000 6.772
14.92000 10.429
14.94000 8.092
14.96000 2.151
14.98000 1.818
15.00000 1.762
15.02000 2.344
15.04000 6.529
15.06000 11.952
15.08000 5.512
15.10000 6.825
15.12000 13.921
15.14000 6.875
15.16000 0.597
15.18000 8.773
15.20000 8.578
15.22000 0.945
15.24000 6.854
15.26000 9.152
15.28000 4.087
15.30000 1.050
15.32000 2.924
15.34000 6.192
15.36000 9.574
15.38000 5.366
15.40000 8.972
15.42000 4.431
15.44000 -0.759
15.46000 2.852
15.48000 10.593
15.50000 15.192
15.52000 7.039
15.54000 -2.072
15.56000 3.818
15.58000 10.244
15.60000 5.905
15.62000 6.911
15.64000 5.269
15.66000 10.895
15.68000 4.490
15.70000 2.873
15.72000 1.716
15.74000 -0.073
15.76000 -0.396
15.78000 -0.166
15.80000 4.113
15.82000 6.122
15.84000 -0.676
15.86000 2.834
15.88000 4.349
15.90000 2.603
15.92000 6.203
15.94000 7.412
15.96000 5.999
15.98000 -3.754
16.00000 -4.464
16.02000 1.264
16.04000 -2.206
16.06000 3.805
16.08000 0.748
16.10000 1.532
16.12000 6.826
16.14000 5.138
16.16000 7.829
16.18000 5.002
16.20000 -1.752
16.22000 3.869
16.24000 -1.719
16.26000 4.370
16.28000 5.153
16.30000 6.898
16.32000 6.106
16.34000 5.866
16.36000 4.253
16.38000 2.671
16.40000 -2.093
16.42000 4.297
16.44000 1.657
16.46000 2.537
16.48000 6.697
16.50000 11.549
16.52000 6.373
16.54000 2.598
16.56000 7.092
16.58000 2.501
16.60000 -2.061
16.62000 6.528
16.64000 8.264
16.66000 10.999
16.68000 11.761
16.70000 3.126
16.72000 7.165
16.74000 10.852
16.76000 6.435
16.78000 2.080
16.80000 -0.106
16.82000 8.048
16.84000 10.447
16.86000 3.971
16.88000 7.500
16.90000 7.587
16.92000 1.048
16.94000 0.328
16.96000 11.038
16.98000 8.740
17.00000 2.037
17.02000 2.724
17.04000 3.608
17.06000 9.586
17.08000 13.392
17.10000 9.038
17.12000 6.309
17.14000 4.254
17.16000 3.965
17.18000 15.187
17.20000 6.018
17.22000 8.721
17.24000 4.797
17.26000 5.509
17.28000 11.159
17.30000 4.763
17.32000 -4.388
17.34000 2.899
17.36000 10.622
17.38000 7.921
17.40000 8.660
17.42000 8.650
17.44000 7.637
17.46000 7.301
17.48000 9.971
17.50000 11.652
17.52000 7.299
17.54000 3.131
17.56000 3.355
17.58000 2.938
17.60000 6.356
17.62000 5.279
17.64000 -4.369
17.66000 2.355
17.68000 1.438
17.70000 3.716
17.72000 4.965
17.74000 3.312
17.76000 -2.733
17.78000 6.903
17.80000 7.453
17.82000 7.824
17.84000 -0.627
17.86000 -1.841
17.88000 1.974
17.90000 1.257
17.92000 6.474
17.94000 6.764
17.96000 2.160
17.98000 0.942
18.00000 0.792
18.02000 -1.358
18.04000 4.882
18.06000 6.169
18.08000 12.941
18.10000 10.603
18.12000 8.968
18.14000 8.621
18.16000 12.419
18.18000 3.958
18.20000 10.234
18.22000 11.596
18.24000 3.299
18.26000 -0.669
18.28000 1.397
18.30000 2.225
18.32000 -4.328
18.34000 -3.595
18.36000 -2.508
18.38000 0.882
18.40000 -0.422
18.42000 6.061
18.44000 3.727
18.46000 7.303
18.48000 0.064
18.50000 2.268
18.52000 7.715
18.54000 2.374
18.56000 2.121
18.58000 4.076
18.60000 13.103
18.62000 4.507
18.64000 3.542
18.66000 6.640
18.68000 -0.025
18.70000 -1.565
18.72000 0.917
18.74000 6.024
18.76000 1.517
18.78000 -3.998
18.80000 -0.714
18.82000 2.759
18.84000 2.417
18.86000 7.994
18.88000 13.313
18.90000 5.758
18.92000 1.757
18.94000 4.672
18.96000 -1.741
18.98000 3.065
19.00000 6.968
19.02000 -1.524
19.04000 -4.302
19.06000 -2.535
19.08000 -1.484
19.10000 -3.583
19.12000 -0.521
19.14000 -0.983
19.16000 0.745
19.18000 0.911
19.20000 3.199
19.22000 0.469
19.24000 -1.850
19.26000 -1.208
19.28000 4.635
19.30000 8.871
19.32000 6.868
19.34000 10.206
19.36000 7.505
19.38000 0.175
19.40000 4.251
19.42000 2.353
19.44000 -2.047
19.46000 3.333
19.48000 4.237
19.50000 5.680
19.52000 -1.950
19.54000 -0.830
19.56000 1.034
19.58000 4.421
19.60000 4.498
19.62000 -0.515
19.64000 2.895
19.66000 6.246
19.68000 -0.217
19.70000 5.672
19.72000 12.464
19.74000 0.750
19.76000 -4.253
19.78000 -2.944
19.80000 -3.182
19.82000 -0.114
19.84000 1.586
19.86000 5.407
19.88000 5.319
19.90000 1.510
19.92000 0.315
19.94000 -2.951
19.96000 -0.997
19.98000 -1.193
20.00000 4.045
20.02000 3.046
20.04000 -2.092
20.06000 -2.142
20.08000 -0.833
20.10000 -0.657
20.12000 -0.460
20.14000 2.366
20.16000 1.014
20.18000 0.761
20.20000 -1.300
20.22000 0.111
20.24000 9.128
20.26000 10.628
20.28000 8.549
20.30000 2.767
20.32000 -0.448
20.34000 -3.219
20.36000 -3.195
20.38000 -1.181
20.40000 4.138
20.42000 5.938
20.44000 0.546
20.46000 0.789
20.48000 6.386
20.50000 8.189
20.52000 11.888
20.54000 1.250
20.56000 -3.366
20.58000 3.544
20.60000 2.499
20.62000 1.708
20.64000 8.613
20.66000 1.697
20.68000 4.939
20.70000 4.508
20.72000 -1.145
20.74000 1.469
20.76000 3.537
20.78000 0.571
20.80000 -3.142
20.82000 -4.183
20.84000 3.018
20.86000 4.259
20.88000 6.999
20.90000 4.626
20.92000 1.511
20.94000 2.458
20.96000 6.732
20.98000 5.456
21.00000 3.190
21.02000 5.810
21.04000 0.084
21.06000 -1.633
21.08000 2.972
21.10000 4.915
21.12000 1.753
21.14000 -1.674
21.16000 5.594
21.18000 6.035
21.20000 4.483
21.22000 5.175
21.24000 3.810
21.26000 3.428
21.28000 3.275
21.30000 6.011
21.32000 4.893
21.34000 -0.623
21.36000 0.905
21.38000 6.261
21.40000 1.092
21.42000 1.833
21.44000 -3.774
21.46000 5.806
21.48000 6.543
21.50000 5.348
21.52000 3.964
21.54000 -0.306
21.56000 -3.845
21.58000 0.915
21.60000 3.058
21.62000 3.909
21.64000 3.940
21.66000 -0.195
21.68000 0.072
21.70000 0.951
21.72000 8.626
21.74000 9.321
21.76000 4.226
21.78000 2.597
21.80000 6.328
21.82000 7.938
21.84000 1.673
21.86000 6.291
21.88000 10.920
21.90000 7.966
21.92000 7.037
21.94000 1.276
21.96000 -0.636
21.98000 7.942
22.00000 7.390
22.02000 8.527
22.04000 9.064
22.06000 1.758
22.08000 -1.027
22.10000 3.917
22.12000 4.006
22.14000 0.437
22.16000 0.842
22.18000 8.400
22.20000 8.765
22.22000 7.786
22.24000 7.349
22.26000 8.625
22.28000 8.469
22.30000 4.079
22.32000 6.259
22.34000 7.529
22.36000 4.973
22.38000 5.184
22.40000 7.735
22.42000 7.809
22.44000 3.988
22.46000 -0.626
22.48000 5.305
22.50000 7.951
22.52000 7.874
22.54000 11.651
22.56000 7.585
22.58000 4.834
22.60000 0.097
22.62000 2.013
22.64000 -3.789
22.66000 -4.045
22.68000 2.183
22.70000 9.577
22.72000 12.555
22.74000 5.754
22.76000 5.787
22.78000 4.846
22.80000 3.066
22.82000 8.592
22.84000 9.404
22.86000 8.330
22.88000 4.092
22.90000 0.209
22.92000 7.532
22.94000 9.881
22.96000 2.674
22.98000 -1.356
23.00000 5.775
23.02000 5.999
23.04000 2.570
23.06000 -0.784
23.08000 -2.942
23.10000 4.346
23.12000 5.061
23.14000 3.785
23.16000 0.208
23.18000 -1.383
23.20000 -0.872
23.22000 6.397
23.24000 4.623
23.26000 8.652
23.28000 1.590
23.30000 4.839
23.32000 5.946
23.34000 -2.505
23.36000 1.853
23.38000 0.588
23.40000 3.365
23.42000 6.789
23.44000 8.308
23.46000 7.239
23.48000 3.440
23.50000 4.793
23.52000 7.177
23.54000 10.362
23.56000 6.694
23.58000 5.672
23.60000 3.059
23.62000 0.437
23.64000 2.505
23.66000 6.164
23.68000 9.417
23.70000 10.677
23.72000 3.180
23.74000 4.619
23.76000 4.726
23.78000 3.533
23.80000 10.269
23.82000 9.028
23.84000 6.795
23.86000 3.701
23.88000 11.802
23.90000 12.311
23.92000 9.757
23.94000 3.727
23.96000 -3.073
23.98000 2.633
24.00000 9.025
24.02000 8.306
24.04000 7.260
24.06000 5.613
24.08000 8.023
24.10000 10.018
24.12000 16.921
24.14000 12.389
24.16000 8.032
24.18000 5.482
24.20000 2.313
24.22000 2.025
24.24000 4.361
24.26000 2.983
24.28000 9.564
24.30000 4.608
24.32000 -0.429
24.34000 1.059
24.36000 2.138
24.38000 0.481
24.40000 -2.183
24.42000 0.146
24.44000 6.605
24.46000 2.983
24.48000 -3.956
24.50000 -3.955
24.52000 3.593
24.54000 3.664
24.56000 2.025
24.58000 2.585
24.60000 4.802
24.62000 3.863
24.64000 5.923
24.66000 2.434
24.68000 7.302
24.70000 9.060
24.72000 3.265
24.74000 4.804
24.76000 7.104
24.78000 9.175
24.80000 7.874
24.82000 3.048
24.84000 4.566
24.86000 7.322
24.88000 -1.431
24.90000 1.457
24.92000 3.327
24.94000 -1.897
24.96000 8.384
24.98000 11.429
25.00000 13.832
25.02000 12.089
25.04000 4.284
25.06000 5.088
25.08000 3.455
25.10000 9.367
25.12000 9.018
25.14000 3.595
25.16000 6.071
25.18000 -1.230
25.20000 -1.385
25.22000 7.307
25.24000 9.969
25.26000 2.706
25.28000 1.800
25.30000 0.383
25.32000 2.248
25.34000 2.235
25.36000 7.131
25.38000 7.011
25.40000 -3.924
25.42000 -0.455
25.44000 1.730
25.46000 6.688
25.48000 11.283
25.50000 3.187
25.52000 8.200
25.54000 3.197
25.56000 1.253
25.58000 -1.821
25.60000 5.830
25.62000 4.238
25.64000 4.048
25.66000 6.385
25.68000 6.464
25.70000 4.462
25.72000 6.951
25.74000 4.139
25.76000 1.131
25.78000 0.308
25.80000 -0.836
25.82000 -1.646
25.84000 -1.409
25.86000 1.855
25.88000 -1.124
25.90000 3.120
25.92000 2.130
25.94000 4.085
25.96000 1.436
25.98000 4.304
26.00000 5.376
26.02000 2.487
26.04000 0.151
26.06000 0.655
26.08000 1.303
26.10000 -1.271
26.12000 1.490
26.14000 2.170
26.16000 2.081
26.18000 4.798
26.20000 1.417
26.22000 -2.569
26.24000 -1.064
26.26000 6.346
26.28000 2.198
26.30000 -1.046
26.32000 0.940
26.34000 -2.900
26.36000 -3.735
26.38000 6.766
26.40000 4.648
26.42000 2.035
26.44000 1.089
26.46000 2.429
26.48000 5.603
26.50000 6.207
26.52000 0.471
26.54000 -0.679
26.56000 -3.712
26.58000 -1.127
26.60000 1.085
26.62000 -0.009
26.64000 1.034
26.66000 3.033
26.68000 5.370
26.70000 3.907
26.72000 4.999
26.74000 4.737
26.76000 5.260
26.78000 1.751
26.80000 0.879
26.82000 4.394
26.84000 -0.956
26.86000 0.813
26.88000 5.285
26.90000 2.359
26.92000 1.010
26.94000 5.764
26.96000 5.667
26.98000 5.782
27.00000 7.617
27.02000 3.385
27.04000 1.447
27.06000 6.879
27.08000 15.808
27.10000 10.793
27.12000 2.129
27.14000 0.191
27.16000 0.391
27.18000 4.974
27.20000 8.041
27.22000 8.195
27.24000 8.958
27.26000 1.069
27.28000 -3.816
27.30000 0.793
27.32000 5.357
27.34000 3.531
27.36000 1.684
27.38000 3.939
27.40000 4.677
27.42000 6.627
27.44000 4.376
27.46000 7.683
27.48000 5.928
27.50000 4.042
27.52000 4.326
27.54000 3.720
27.56000 8.132
27.58000 8.910
27.60000 4.467
27.62000 1.285
27.64000 1.414
27.66000 -0.759
27.68000 5.210
27.70000 6.535
27.72000 3.035
27.74000 5.754
27.76000 2.896
27.78000 1.210
27.80000 1.048
27.82000 1.289
27.84000 2.072
27.86000 2.477
27.88000 1.623
27.90000 1.400
27.92000 2.995
27.94000 0.814
27.96000 -1.619
27.98000 2.287
28.00000 2.972
28.02000 0.848
28.04000 -1.102
28.06000 -0.965
28.08000 5.922
28.10000 7.143
28.12000 1.681
28.14000 2.376
28.16000 2.667
28.18000 3.856
28.20000 2.798
28.22000 1.778
28.24000 1.975
28.26000 1.670
28.28000 4.842
28.30000 10.934
28.32000 8.486
28.34000 5.084
28.36000 6.320
28.38000 6.713
28.40000 6.061
28.42000 -0.092
28.44000 6.025
28.46000 6.428
28.48000 1.123
28.50000 4.196
28.52000 5.922
28.54000 5.135
28.56000 1.341
28.58000 4.429
28.60000 6.348
28.62000 10.437
28.64000 1.457
28.66000 3.836
28.68000 6.237
28.70000 3.165
28.72000 3.680
28.74000 3.795
28.76000 3.681
28.78000 2.522
28.80000 5.263
28.82000 10.890
28.84000 7.573
28.86000 3.891
28.88000 -0.544
28.90000 -3.706
28.92000 1.796
28.94000 3.653
28.96000 3.645
28.98000 3.565
29.00000 3.320
29.02000 -0.650
29.04000 1.804
29.06000 4.790
29.08000 8.439
29.10000 9.852
29.12000 4.943
29.14000 1.404
29.16000 7.195
29.18000 2.614
29.20000 4.739
29.22000 6.837
29.24000 7.281
29.26000 9.871
29.28000 4.593
29.30000 5.657
29.32000 5.976
29.34000 5.802
29.36000 -0.862
29.38000 3.725
29.40000 2.595
29.42000 9.462
29.44000 4.829
29.46000 6.092
29.48000 9.495
29.50000 3.488
29.52000 -0.061
29.54000 7.074
29.56000 4.714
29.58000 7.405
29.60000 6.261
29.62000 5.313
29.64000 6.576
29.66000 3.222
29.68000 0.612
29.70000 2.266
29.72000 2.815
29.74000 2.213
29.76000 0.163
29.78000 -1.105
29.80000 -0.400
29.82000 1.901
29.84000 3.744
29.86000 2.399
29.88000 -1.179
29.90000 0.741
29.92000 0.263
29.94000 4.074
29.96000 1.724
29.98000 1.489
30.00000 5.374
30.02000 2.367
30.04000 2.603
30.06000 5.998
30.08000 7.660
30.10000 -1.015
30.12000 -1.482
30.14000 0.301
30.16000 3.609
30.18000 -0.877
30.20000 3.920
30.22000 7.370
30.24000 3.964
30.26000 1.351
30.28000 -0.298
30.30000 -3.694
30.32000 -1.220
30.34000 4.260
30.36000 1.144
30.38000 -0.920
30.40000 7.185
30.42000 4.400
30.44000 3.976
30.46000 -0.224
30.48000 2.349
30.50000 5.148
30.52000 1.773
30.54000 5.120
30.56000 3.083
30.58000 0.884
30.60000 -1.230
30.62000 0.916
30.64000 2.714
30.66000 6.745
30.68000 3.206
30.70000 3.666
30.72000 3.698
30.74000 2.762
30.76000 -1.404
30.78000 -1.846
30.80000 2.047
30.82000 -0.951
30.84000 -3.681
30.86000 2.638
30.88000 2.960
30.90000 4.458
30.92000 -0.164
30.94000 0.253
30.96000 -1.663
30.98000 0.267
31.00000 -1.072
31.02000 0.256
31.04000 4.637
31.06000 4.365
31.08000 1.609
31.10000 5.083
31.12000 2.241
31.14000 0.164
31.16000 0.501
31.18000 1.353
31.20000 3.135
31.22000 -0.719
31.24000 3.557
31.26000 6.228
31.28000 -0.532
31.30000 2.126
31.32000 -0.492
31.34000 0.666
31.36000 0.836
31.38000 1.971
31.40000 1.641
31.42000 -1.314
31.44000 -0.119
31.46000 -0.354
31.48000 0.711
31.50000 -2.736
31.52000 -0.300
31.54000 4.539
31.56000 1.946
31.58000 4.352
31.60000 6.882
31.62000 9.381
31.64000 8.530
31.66000 6.305
31.68000 -0.364
31.70000 -1.442
31.72000 -0.013
31.74000 3.677
31.76000 1.185
31.78000 -0.118
31.80000 1.511
31.82000 3.328
31.84000 4.184
31.86000 4.852
31.88000 5.332
31.90000 2.549
31.92000 6.734
31.94000 5.569
31.96000 1.804
31.98000 -3.621
32.00000 1.135
32.02000 -0.225
32.04000 4.831
32.06000 3.242
32.08000 2.773
32.10000 5.441
32.12000 9.609
32.14000 7.668
32.16000 4.816
32.18000 -1.743
32.20000 0.080
32.22000 -0.821
32.24000 1.441
32.26000 3.803
32.28000 7.811
32.30000 5.090
32.32000 3.751
32.34000 7.255
32.36000 4.861
32.38000 4.780
32.40000 4.108
32.42000 1.731
32.44000 1.768
32.46000 3.910
32.48000 3.787
32.50000 0.673
32.52000 2.586
32.54000 5.073
32.56000 3.489
32.58000 2.829
32.60000 1.699
32.62000 2.420
32.64000 2.580
32.66000 0.979
32.68000 -2.994
32.70000 0.159
32.72000 4.857
32.74000 0.670
32.76000 -3.601
32.78000 2.398
32.80000 4.803
32.82000 2.246
32.84000 5.632
32.86000 7.883
32.88000 5.408
32.90000 -0.723
32.92000 -2.609
32.94000 3.089
32.96000 1.270
32.98000 5.233
33.00000 5.050
33.02000 4.428
33.04000 2.900
33.06000 1.409
33.08000 -3.590
33.10000 -2.517
33.12000 0.139
33.14000 -2.292
33.16000 -0.391
33.18000 4.622
33.20000 6.697
33.22000 6.192
33.24000 3.262
33.26000 4.874
33.28000 5.044
33.30000 5.836
33.32000 2.127
33.34000 1.376
33.36000 -1.242
33.38000 0.793
33.40000 4.251
33.42000 2.858
33.44000 5.596
33.46000 3.082
33.48000 2.036
33.50000 1.392
33.52000 1.606
33.54000 1.738
33.56000 3.582
33.58000 5.473
33.60000 6.306
33.62000 3.649
33.64000 2.221
33.66000 2.158
33.68000 1.669
33.70000 -1.171
33.72000 0.124
33.74000 -0.268
33.76000 2.740
33.78000 5.137
33.80000 4.167
33.82000 6.029
33.84000 1.579
33.86000 -3.324
33.88000 -0.186
33.90000 3.453
33.92000 7.284
33.94000 3.929
33.96000 5.683
33.98000 4.296
34.00000 4.288
34.02000 4.475
34.04000 4.137
34.06000 3.980
34.08000 6.357
34.10000 5.560
34.12000 4.891
34.14000 -0.234
34.16000 0.836
34.18000 2.972
34.20000 6.928
34.22000 3.093
34.24000 -0.145
34.26000 1.977
34.28000 2.670
34.30000 -1.697
34.32000 1.189
34.34000 6.623
34.36000 5.389
34.38000 3.694
34.40000 1.061
34.42000 -1.536
34.44000 3.158
34.46000 6.368
34.48000 6.692
34.50000 5.333
34.52000 0.546
34.54000 5.210
34.56000 8.505
34.58000 5.993
34.60000 1.813
34.62000 4.113
34.64000 4.039
34.66000 5.057
34.68000 2.723
34.70000 1.670
34.72000 -2.031
34.74000 -0.478
34.76000 -0.155
34.78000 3.740
34.80000 2.941
34.82000 1.855
34.84000 4.478
34.86000 0.412
34.88000 -1.832
34.90000 0.989
34.92000 8.225
34.94000 9.929
34.96000 7.077
34.98000 3.971
35.00000 2.126
35.02000 1.139
35.04000 -3.557
35.06000 -1.046
35.08000 6.300
35.10000 5.580
35.12000 4.179
35.14000 0.454
35.16000 4.386
35.18000 1.781
35.20000 2.834
35.22000 1.104
35.24000 0.726
35.26000 -1.984
35.28000 0.703
35.30000 1.250
35.32000 2.137
35.34000 0.726
35.36000 -1.465
35.38000 3.134
35.40000 -0.193
35.42000 1.680
35.44000 2.095
35.46000 3.960
35.48000 1.599
35.50000 4.294
35.52000 3.842
35.54000 2.879
35.56000 4.229
35.58000 0.285
35.60000 2.410
35.62000 3.454
35.64000 0.089
35.66000 4.498
35.68000 5.398
35.70000 5.294
35.72000 2.061
35.74000 -0.037
35.76000 4.877
35.78000 1.414
35.80000 0.349
35.82000 -0.144
35.84000 -3.594
35.86000 -0.938
35.88000 4.230
35.90000 7.882
35.92000 2.389
35.94000 3.947
35.96000 1.432
35.98000 2.418
36.00000 2.092
36.02000 1.406
36.04000 0.890
36.06000 0.008
36.08000 3.114
36.10000 6.782
36.12000 3.132
36.14000 0.769
36.16000 -0.823
36.18000 1.096
36.20000 -1.965
36.22000 -1.702
36.24000 -2.934
36.26000 2.903
36.28000 4.411
36.30000 6.385
36.32000 2.557
36.34000 0.204
36.36000 2.699
36.38000 3.843
36.40000 1.336
36.42000 1.561
36.44000 0.177
36.46000 -0.976
36.48000 0.383
36.50000 2.566
36.52000 -0.843
36.54000 0.034
36.56000 2.822
36.58000 4.455
36.60000 -0.560
36.62000 -3.605
36.64000 -0.272
36.66000 7.067
36.68000 4.316
36.70000 6.520
36.72000 2.886
36.74000 5.088
36.76000 4.715
36.78000 0.638
36.80000 4.653
36.82000 4.690
36.84000 6.767
36.86000 2.960
36.88000 2.174
36.90000 6.232
36.92000 3.369
36.94000 3.176
36.96000 3.784
36.98000 -0.401
37.00000 0.016
37.02000 4.951
37.04000 5.366
37.06000 5.278
37.08000 1.754
37.10000 0.395
37.12000 4.304
37.14000 5.779
37.16000 5.452
37.18000 5.351
37.20000 5.098
37.22000 9.211
37.24000 15.580
37.26000 12.326
37.28000 10.022
37.30000 9.896
37.32000 10.020
37.34000 8.915
37.36000 10.615
37.38000 11.084
37.40000 8.107
37.42000 6.262
37.44000 10.200
37.46000 9.421
37.48000 6.410
37.50000 6.716
37.52000 9.430
37.54000 12.633
37.56000 9.181
37.58000 9.504
37.60000 13.292
37.62000 10.475
37.64000 8.280
37.66000 9.464
37.68000 9.576
37.70000 12.113
37.72000 18.021
37.74000 22.798
37.76000 17.228
37.78000 18.342
37.80000 24.055
37.82000 20.233
37.84000 17.383
37.86000 21.949
37.88000 15.954
37.90000 14.287
37.92000 17.696
37.94000 24.101
37.96000 24.363
37.98000 22.462
38.00000 21.851
38.02000 17.637
38.04000 21.997
38.06000 24.150
38.08000 19.559
38.10000 24.784
38.12000 34.640
38.14000 30.305
38.16000 32.072
38.18000 36.386
38.20000 31.491
38.22000 32.680
38.24000 37.171
38.26000 35.036
38.28000 39.215
38.30000 38.628
38.32000 35.863
38.34000 39.118
38.36000 41.565
38.38000 44.384
38.40000 54.545
38.42000 57.413
38.44000 55.304
38.46000 49.811
38.48000 51.943
38.50000 59.791
38.52000 62.232
38.54000 62.514
38.56000 65.956
38.58000 64.039
38.60000 68.744
38.62000 72.451
38.64000 79.891
38.66000 80.648
38.68000 85.096
38.70000 87.069
38.72000 92.378
38.74000 97.031
38.76000 106.479
38.78000 109.689
38.80000 115.029
38.82000 120.216
38.84000 130.756
38.86000 132.134
38.88000 132.046
38.90000 140.650
38.92000 153.429
38.94000 163.912
38.96000 174.109
38.98000 187.906
39.00000 193.374
39.02000 203.706
39.04000 218.392
39.06000 234.710
39.08000 235.127
39.10000 253.033
39.12000 269.200
39.14000 291.271
39.16000 312.487
39.18000 325.511
39.20000 348.329
39.22000 358.247
39.24000 380.756
39.26000 407.044
39.28000 427.880
39.30000 447.258
39.32000 467.956
39.34000 494.454
39.36000 498.705
39.38000 510.595
39.40000 547.075
39.42000 559.363
39.44000 572.423
39.46000 580.239
39.48000 609.026
39.50000 614.878
39.52000 627.187
39.54000 636.591
39.56000 634.006
39.58000 646.415
39.60000 643.011
39.62000 633.417
39.64000 630.528
39.66000 618.612
39.68000 606.429
39.70000 599.617
39.72000 593.231
39.74000 575.218
39.76000 547.756
39.78000 534.036
39.80000 512.108
39.82000 492.728
39.84000 469.588
39.86000 457.077
39.88000 439.437
39.90000 412.623
39.92000 385.431
39.94000 371.424
39.96000 352.527
39.98000 328.661
40.00000 312.719
40.02000 294.991
40.04000 275.431
40.06000 255.030
40.08000 238.762
40.10000 228.088
40.12000 216.749
40.14000 197.770
40.16000 186.262
40.18000 179.210
40.20000 167.684
40.22000 151.465
40.24000 143.663
40.26000 138.752
40.28000 132.149
40.30000 121.776
40.32000 109.982
40.34000 105.853
40.36000 96.125
40.38000 92.838
40.40000 88.657
40.42000 82.344
40.44000 75.136
40.46000 72.372
40.48000 68.904
40.50000 64.044
40.52000 58.503
40.54000 56.390
40.56000 52.175
40.58000 48.766
40.60000 48.815
40.62000 47.666
40.64000 47.753
40.66000 44.771
40.68000 36.671
40.70000 33.220
40.72000 27.638
40.74000 30.955
40.76000 35.361
40.78000 35.509
40.80000 32.039
40.82000 29.870
40.84000 25.208
40.86000 24.946
40.88000 26.229
40.90000 25.167
40.92000 22.632
40.94000 17.984
40.96000 20.242
40.98000 20.773
41.00000 20.635
41.02000 20.296
41.04000 14.443
41.06000 12.559
41.08000 12.207
41.10000 13.788
41.12000 10.070
41.14000 13.534
41.16000 14.090
41.18000 9.048
41.20000 9.329
41.22000 7.706
41.24000 8.903
41.26000 11.276
41.28000 12.483
41.30000 11.198
41.32000 7.899
41.34000 6.898
41.36000 3.938
41.38000 6.933
41.40000 5.377
41.42000 7.962
41.44000 11.600
41.46000 8.016
41.48000 4.901
41.50000 4.930
41.52000 6.057
41.54000 3.871
41.56000 1.091
41.58000 0.526
41.60000 -1.134
41.62000 -0.404
41.64000 3.027
41.66000 -0.513
41.68000 -3.420
41.70000 1.137
41.72000 5.433
41.74000 7.100
41.76000 1.541
41.78000 -1.729
41.80000 -2.246
41.82000 -1.330
41.84000 2.272
41.86000 1.352
41.88000 0.908
41.90000 3.532
41.92000 1.560
41.94000 0.916
41.96000 -0.466
41.98000 -1.994
42.00000 1.298
42.02000 3.599
42.04000 4.179
42.06000 1.470
42.08000 0.841
42.10000 -0.848
42.12000 1.511
42.14000 1.413
42.16000 0.211
42.18000 -1.012
42.20000 -2.033
42.22000 0.199
42.24000 1.624
42.26000 2.796
42.28000 2.099
42.30000 1.274
42.32000 1.989
42.34000 0.309
42.36000 -1.066
42.38000 -2.316
42.40000 -0.766
42.42000 1.355
42.44000 0.963
42.46000 2.650
42.48000 2.593
42.50000 1.063
42.52000 -1.104
42.54000 -3.269
42.56000 -2.922
42.58000 0.856
42.60000 0.475
42.62000 1.512
42.64000 2.369
42.66000 2.874
42.68000 1.953
42.70000 -0.486
42.72000 0.279
42.74000 1.457
42.76000 0.165
42.78000 1.619
42.80000 -1.768
42.82000 2.824
42.84000 5.492
42.86000 0.726
42.88000 -1.335
42.90000 3.872
42.92000 0.484
42.94000 -2.329
42.96000 -0.760
42.98000 3.324
43.00000 3.445
43.02000 1.894
43.04000 2.366
43.06000 1.586
43.08000 0.567
43.10000 -1.277
43.12000 1.675
43.14000 2.261
43.16000 -0.363
43.18000 -0.737
43.20000 -1.142
43.22000 -3.204
43.24000 -1.303
43.26000 -0.611
43.28000 1.968
43.30000 1.245
43.32000 -2.077
43.34000 0.018
43.36000 -0.095
43.38000 1.302
43.40000 1.858
43.42000 1.972
43.44000 1.047
43.46000 2.197
43.48000 1.058
43.50000 -2.284
43.52000 -3.171
43.54000 0.400
43.56000 2.860
43.58000 0.638
43.60000 -0.544
43.62000 -0.075
43.64000 1.190
43.66000 -1.178
43.68000 -0.885
43.70000 1.349
43.72000 1.000
43.74000 0.823
43.76000 2.315
43.78000 -1.535
43.80000 -1.579
43.82000 -1.571
43.84000 0.000
43.86000 4.402
43.88000 2.615
43.90000 0.085
43.92000 -1.460
43.94000 -1.485
43.96000 -1.327
43.98000 -0.979
44.00000 -1.105
44.02000 -2.819
44.04000 -3.124
44.06000 -2.301
44.08000 -0.365
44.10000 0.536
44.12000 5.124
44.14000 2.612
44.16000 -1.457
44.18000 1.966
44.20000 -2.030
44.22000 -0.808
44.24000 0.417
44.26000 1.873
44.28000 1.765
44.30000 2.376
44.32000 1.399
44.34000 0.445
44.36000 1.157
44.38000 -0.827
44.40000 0.655
44.42000 2.544
44.44000 1.210
44.46000 0.244
44.48000 3.201
44.50000 2.000
44.52000 3.399
44.54000 3.409
44.56000 3.875
44.58000 3.074
44.60000 0.725
44.62000 -0.253
44.64000 1.865
44.66000 0.504
44.68000 1.260
44.70000 3.510
44.72000 6.502
44.74000 8.538
44.76000 2.507
44.78000 0.480
44.80000 2.287
44.82000 -0.015
44.84000 1.000
44.86000 0.788
44.88000 1.357
44.90000 5.755
44.92000 8.200
44.94000 5.732
44.96000 4.963
44.98000 4.042
45.00000 6.372
45.02000 5.626
45.04000 6.424
45.06000 7.799
45.08000 9.828
45.10000 10.664
45.12000 9.841
45.14000 8.738
45.16000 8.441
45.18000 9.656
45.20000 13.002
45.22000 12.089
45.24000 10.625
45.26000 9.697
45.28000 9.242
45.30000 13.809
45.32000 15.893
45.34000 15.989
45.36000 15.577
45.38000 20.319
45.40000 20.753
45.42000 23.576
45.44000 22.538
45.46000 19.707
45.48000 19.807
45.50000 21.793
45.52000 22.040
45.54000 22.697
45.56000 24.671
45.58000 29.146
45.60000 27.997
45.62000 28.745
45.64000 30.109
45.66000 32.471
45.68000 31.197
45.70000 33.329
45.72000 36.958
45.74000 38.743
45.76000 35.594
45.78000 34.721
45.80000 41.217
45.82000 44.946
45.84000 43.252
45.86000 42.902
45.88000 47.114
45.90000 47.966
45.92000 46.904
45.94000 48.821
45.96000 46.818
45.98000 48.938
46.00000 52.455
46.02000 58.620
46.04000 57.633
46.06000 54.793
46.08000 54.514
46.10000 57.609
46.12000 61.042
46.14000 60.209
46.16000 63.155
46.18000 66.153
46.20000 65.245
46.22000 64.346
46.24000 59.746
46.26000 64.248
46.28000 67.943
46.30000 65.084
46.32000 62.953
46.34000 66.220
46.36000 63.309
46.38000 61.646
46.40000 63.804
46.42000 67.068
46.44000 65.810
46.46000 57.700
46.48000 57.350
46.50000 57.603
46.52000 56.181
46.54000 55.909
46.56000 53.456
46.58000 50.941
46.60000 52.071
46.62000 53.092
46.64000 51.220
46.66000 45.303
46.68000 45.149
46.70000 46.809
46.72000 42.597
46.74000 42.130
46.76000 37.884
46.78000 37.239
46.80000 38.133
46.82000 36.668
46.84000 34.355
46.86000 32.701
46.88000 32.657
46.90000 28.090
46.92000 27.337
46.94000 23.937
46.96000 23.934
46.98000 22.830
47.00000 21.317
47.02000 17.331
47.04000 14.835
47.06000 16.777
47.08000 15.247
47.10000 14.190
47.12000 13.449
47.14000 10.465
47.16000 12.649
47.18000 13.113
47.20000 10.415
47.22000 16.000
47.24000 13.687
47.26000 11.329
47.28000 7.209
47.30000 4.163
47.32000 3.778
47.34000 5.903
47.36000 8.287
47.38000 7.132
47.40000 7.777
47.42000 7.816
47.44000 4.451
47.46000 7.071
47.48000 6.843
47.50000 4.216
47.52000 3.144
47.54000 8.894
47.56000 8.531
47.58000 6.012
47.60000 4.342
47.62000 4.642
47.64000 9.749
47.66000 4.943
47.68000 6.204
47.70000 4.309
47.72000 2.915
47.74000 1.732
47.76000 3.682
47.78000 1.945
47.80000 -2.672
47.82000 -0.408
47.84000 4.938
47.86000 5.337
47.88000 3.915
47.90000 4.660
47.92000 5.178
47.94000 4.366
47.96000 4.455
47.98000 4.613
48.00000 2.850
48.02000 2.006
48.04000 3.315
48.06000 1.236
48.08000 0.031
48.10000 2.098
48.12000 4.777
48.14000 3.831
48.16000 1.429
48.18000 2.785
48.20000 3.480
48.22000 2.432
48.24000 3.109
48.26000 3.102
48.28000 2.149
48.30000 0.299
48.32000 3.032
48.34000 5.370
48.36000 6.252
48.38000 0.845
48.40000 1.064
48.42000 2.299
48.44000 0.570
48.46000 2.511
48.48000 2.650
48.50000 2.101
48.52000 1.427
48.54000 1.326
48.56000 0.493
48.58000 3.528
48.60000 0.848
48.62000 -0.488
48.64000 1.536
48.66000 -1.367
48.68000 -2.601
48.70000 2.309
48.72000 2.731
48.74000 1.813
48.76000 2.262
48.78000 3.052
48.80000 5.989
48.82000 6.780
48.84000 5.558
48.86000 2.557
48.88000 3.720
48.90000 -0.504
48.92000 1.541
48.94000 2.351
48.96000 -1.380
48.98000 -0.259
49.00000 1.157
49.02000 3.332
49.04000 4.058
49.06000 3.044
49.08000 3.793
49.10000 1.165
49.12000 3.976
49.14000 4.447
49.16000 3.933
49.18000 7.737
49.20000 8.727
49.22000 4.752
49.24000 4.412
49.26000 2.653
49.28000 6.211
49.30000 7.312
49.32000 5.682
49.34000 4.936
49.36000 5.690
49.38000 2.759
49.40000 1.458
49.42000 2.608
49.44000 4.074
49.46000 6.553
49.48000 -1.694
49.50000 -2.529
49.52000 3.480
49.54000 4.374
49.56000 -0.140
49.58000 4.747
49.60000 4.869
49.62000 3.928
49.64000 4.448
49.66000 0.518
49.68000 -0.082
49.70000 2.777
49.72000 4.732
49.74000 4.486
49.76000 2.886
49.78000 3.661
49.80000 8.061
49.82000 1.320
49.84000 0.330
49.86000 2.794
49.88000 2.085
49.90000 1.481
49.92000 4.963
49.94000 4.088
49.96000 -0.663
49.98000 -1.338
50.00000 6.254
50.02000 6.493
50.04000 3.493
50.06000 3.649
50.08000 3.263
50.10000 1.457
50.12000 0.579
50.14000 -0.412
50.16000 0.909
50.18000 2.354
50.20000 6.307
50.22000 4.415
50.24000 3.291
50.26000 2.318
50.28000 0.786
50.30000 0.279
50.32000 1.891
50.34000 4.610
50.36000 4.040
50.38000 1.728
50.40000 1.283
50.42000 2.072
50.44000 2.158
50.46000 3.847
50.48000 1.707
50.50000 2.777
50.52000 -0.227
50.54000 2.598
50.56000 5.007
50.58000 6.023
50.60000 3.762
50.62000 2.824
50.64000 -0.204
50.66000 -2.513
50.68000 -0.634
50.70000 2.171
50.72000 3.093
50.74000 0.671
50.76000 2.456
50.78000 1.932
50.80000 3.873
50.82000 7.009
50.84000 9.229
50.86000 5.940
50.88000 1.874
50.90000 0.770
50.92000 2.128
50.94000 3.234
50.96000 4.072
50.98000 4.816
51.00000 4.716
51.02000 3.383
51.04000 2.215
51.06000 0.024
51.08000 2.989
51.10000 3.274
51.12000 3.157
51.14000 4.114
51.16000 4.386
51.18000 7.231
51.20000 -0.126
51.22000 -2.497
51.24000 -0.315
51.26000 2.163
51.28000 4.234
51.30000 7.535
51.32000 3.126
51.34000 5.375
51.36000 3.814
51.38000 5.575
51.40000 3.504
51.42000 -1.025
51.44000 1.268
51.46000 -1.247
51.48000 -2.330
51.50000 2.147
51.52000 0.346
51.54000 -2.489
51.56000 -0.944
51.58000 1.464
51.60000 2.942
51.62000 1.314
51.64000 3.350
51.66000 6.808
51.68000 3.007
51.70000 -1.481
51.72000 1.110
51.74000 2.703
51.76000 3.544
51.78000 3.766
51.80000 1.892
51.82000 5.214
51.84000 1.608
51.86000 -0.714
51.88000 -1.063
51.90000 0.814
51.92000 0.542
51.94000 -0.338
51.96000 -2.283
51.98000 -1.516
52.00000 1.477
52.02000 1.824
52.04000 2.938
52.06000 2.667
52.08000 0.630
52.10000 -0.363
52.12000 -1.166
52.14000 2.496
52.16000 1.415
52.18000 1.868
52.20000 -1.518
52.22000 -0.755
52.24000 -1.884
52.26000 -0.677
52.28000 -0.683
52.30000 -0.814
52.32000 1.841
52.34000 0.412
52.36000 -1.228
52.38000 4.179
52.40000 3.099
52.42000 -2.484
52.44000 -0.428
52.46000 1.787
52.48000 -0.165
52.50000 -0.213
52.52000 -0.325
52.54000 1.371
52.56000 1.764
52.58000 2.139
52.60000 0.465
52.62000 3.966
52.64000 2.298
52.66000 0.808
52.68000 -0.996
52.70000 1.015
52.72000 1.603
52.74000 2.051
52.76000 1.051
52.78000 2.048
52.80000 0.027
52.82000 -0.492
52.84000 -1.931
52.86000 -0.035
52.88000 0.173
52.90000 0.861
52.92000 2.432
52.94000 2.497
52.96000 2.069
52.98000 0.872
53.00000 -1.399
53.02000 1.629
53.04000 3.277
53.06000 1.975
53.08000 2.818
53.10000 3.428
53.12000 3.232
53.14000 6.188
53.16000 4.017
53.18000 2.528
53.20000 1.257
53.22000 2.517
53.24000 2.294
53.26000 3.154
53.28000 2.807
53.30000 2.684
53.32000 2.998
53.34000 0.584
53.36000 2.249
53.38000 3.555
53.40000 4.002
53.42000 3.863
53.44000 3.120
53.46000 3.572
53.48000 3.808
53.50000 3.397
53.52000 2.890
53.54000 1.226
53.56000 -0.206
53.58000 -0.896
53.60000 -1.128
53.62000 0.373
53.64000 -2.422
53.66000 -1.069
53.68000 2.970
53.70000 4.474
53.72000 6.012
53.74000 2.131
53.76000 2.470
53.78000 0.963
53.80000 3.330
53.82000 4.618
53.84000 3.888
53.86000 2.689
53.88000 -0.489
53.90000 2.399
53.92000 1.153
53.94000 1.370
53.96000 0.847
53.98000 -0.364
54.00000 -0.624
54.02000 -0.544
54.04000 3.208
54.06000 1.157
54.08000 -1.367
54.10000 1.006
54.12000 3.641
54.14000 3.207
54.16000 4.888
54.18000 2.404
54.20000 -0.965
54.22000 1.282
54.24000 2.642
54.26000 3.686
54.28000 1.943
54.30000 2.444
54.32000 3.897
54.34000 5.408
54.36000 3.616
54.38000 3.351
54.40000 1.526
54.42000 0.838
54.44000 1.769
54.46000 4.733
54.48000 2.260
54.50000 2.067
54.52000 -0.242
54.54000 2.626
54.56000 2.851
54.58000 1.164
54.60000 -2.406
54.62000 -0.148
54.64000 2.150
54.66000 0.812
54.68000 2.343
54.70000 2.953
54.72000 3.106
54.74000 1.450
54.76000 -0.982
54.78000 2.706
54.80000 2.975
54.82000 4.467
54.84000 2.563
54.86000 3.611
54.88000 -0.569
54.90000 -0.735
54.92000 -2.331
54.94000 -1.460
54.96000 -1.117
54.98000 -0.395
55.00000 4.563
55.02000 -0.220
55.04000 -1.428
55.06000 -0.409
55.08000 1.573
55.10000 -0.813
55.12000 -1.654
55.14000 1.268
55.16000 1.736
55.18000 -0.004
55.20000 2.029
55.22000 4.116
55.24000 0.907
55.26000 -2.414
55.28000 0.938
55.30000 4.758
55.32000 3.400
55.34000 3.938
55.36000 2.977
55.38000 4.415
55.40000 5.180
55.42000 2.958
55.44000 0.370
55.46000 1.944
55.48000 3.989
55.50000 2.624
55.52000 -1.379
55.54000 0.726
55.56000 0.703
55.58000 1.748
55.60000 2.586
55.62000 3.822
55.64000 3.441
55.66000 -0.570
55.68000 -2.191
55.70000 -0.901
55.72000 0.425
55.74000 0.783
55.76000 0.990
55.78000 5.186
55.80000 5.711
55.82000 1.155
55.84000 4.578
55.86000 2.144
55.88000 0.667
55.90000 0.282
55.92000 1.158
55.94000 2.662
55.96000 0.960
55.98000 3.121
56.00000 2.521
56.02000 0.808
56.04000 3.647
56.06000 3.166
56.08000 -0.484
56.10000 -0.055
56.12000 2.266
56.14000 3.823
56.16000 4.345
56.18000 2.705
56.20000 1.743
56.22000 3.783
56.24000 7.335
56.26000 4.288
56.28000 1.546
56.30000 -1.625
56.32000 -0.874
56.34000 0.286
56.36000 -2.364
56.38000 0.347
56.40000 1.373
56.42000 1.278
56.44000 2.611
56.46000 7.062
56.48000 3.490
56.50000 0.849
56.52000 3.241
56.54000 4.905
56.56000 3.463
56.58000 3.723
56.60000 0.964
56.62000 2.177
56.64000 6.177
56.66000 1.094
56.68000 -0.198
56.70000 0.764
56.72000 -0.951
56.74000 -1.534
56.76000 0.312
56.78000 0.931
56.80000 1.315
56.82000 -0.017
56.84000 -1.770
56.86000 0.175
56.88000 0.683
56.90000 2.324
56.92000 0.724
56.94000 -1.150
56.96000 -0.877
56.98000 -1.587
57.00000 -0.594
57.02000 -0.640
57.04000 0.199
57.06000 1.273
57.08000 2.067
57.10000 -0.227
57.12000 -0.445
57.14000 -1.298
57.16000 -1.645
57.18000 -1.579
57.20000 2.044
57.22000 1.856
57.24000 3.047
57.26000 -0.313
57.28000 0.268
57.30000 1.247
57.32000 -1.118
57.34000 1.116
57.36000 0.097
57.38000 3.392
57.40000 1.070
57.42000 1.975
57.44000 3.301
57.46000 2.251
57.48000 -0.577
57.50000 0.368
57.52000 2.465
57.54000 0.874
57.56000 1.124
57.58000 2.658
57.60000 -1.248
57.62000 -0.786
57.64000 4.244
57.66000 1.167
57.68000 -2.358
57.70000 -1.510
57.72000 0.096
57.74000 0.420
57.76000 0.608
57.78000 0.771
57.80000 -1.245
57.82000 -2.344
57.84000 1.117
57.86000 2.065
57.88000 3.975
57.90000 0.801
57.92000 -0.518
57.94000 0.190
57.96000 -0.423
57.98000 0.153
58.00000 -2.244
58.02000 0.161
58.04000 1.038
58.06000 1.064
58.08000 1.756
58.10000 -0.171
58.12000 -1.525
58.14000 -0.900
58.16000 -0.166
58.18000 -1.081
58.20000 -0.200
58.22000 2.741
58.24000 3.225
58.26000 -0.029
58.28000 1.531
58.30000 1.277
58.32000 1.509
58.34000 4.638
58.36000 2.560
58.38000 0.346
58.40000 -1.156
58.42000 -1.757
58.44000 -1.534
58.46000 -2.326
58.48000 0.884
58.50000 2.746
58.52000 0.510
58.54000 -0.154
58.56000 -1.761
58.58000 -0.293
58.60000 3.719
58.62000 5.148
58.64000 4.516
58.66000 2.470
58.68000 2.522
58.70000 -1.048
58.72000 -0.470
58.74000 0.931
58.76000 0.994
58.78000 0.509
58.80000 -0.992
58.82000 2.042
58.84000 2.585
58.86000 1.164
58.88000 3.425
58.90000 1.619
58.92000 1.772
58.94000 2.834
58.96000 2.458
58.98000 1.284
59.00000 3.924
59.02000 2.597
59.04000 2.350
59.06000 0.354
59.08000 -0.440
59.10000 -1.345
59.12000 -1.786
59.14000 1.566
59.16000 -0.175
59.18000 -0.947
59.20000 0.989
59.22000 2.182
59.24000 4.066
59.26000 4.471
59.28000 -2.289
59.30000 -0.172
59.32000 1.268
59.34000 -0.928
59.36000 2.563
59.38000 3.367
59.40000 1.841
59.42000 4.694
59.44000 4.139
59.46000 1.939
59.48000 0.227
59.50000 0.370
59.52000 1.013
59.54000 1.621
59.56000 3.228
59.58000 1.740
59.60000 0.557
59.62000 0.010
59.64000 -0.647
59.66000 -0.109
59.68000 -0.073
59.70000 -0.388
59.72000 1.361
59.74000 0.374
59.76000 0.370
59.78000 2.715
59.80000 -0.526
59.82000 -0.492
59.84000 0.039
59.86000 0.786
59.88000 1.833
59.90000 0.440
59.92000 1.732
59.94000 -1.045
59.96000 -0.328
59.98000 1.162
60.00000 2.498
60.02000 0.041
60.04000 -1.685
60.06000 -2.278
60.08000 0.978
60.10000 -0.530
60.12000 -1.885
60.14000 2.848
60.16000 2.898
60.18000 2.185
60.20000 3.086
60.22000 2.782
60.24000 2.881
60.26000 3.234
60.28000 0.814
60.30000 2.674
60.32000 2.701
60.34000 1.282
60.36000 1.845
60.38000 1.851
60.40000 2.984
60.42000 2.938
60.44000 1.106
60.46000 3.314
60.48000 1.979
60.50000 1.819
60.52000 5.235
60.54000 2.486
60.56000 3.491
60.58000 3.748
60.60000 4.590
60.62000 5.043
60.64000 2.703
60.66000 0.117
60.68000 0.833
60.70000 0.397
60.72000 -1.127
60.74000 -1.252
60.76000 -1.475
60.78000 -0.298
60.80000 -0.257
60.82000 3.007
60.84000 2.692
60.86000 4.581
60.88000 3.820
60.90000 2.125
60.92000 4.888
60.94000 2.325
60.96000 2.380
60.98000 6.599
61.00000 4.403
61.02000 6.317
61.04000 2.417
61.06000 1.365
61.08000 2.623
61.10000 -0.242
61.12000 0.182
61.14000 2.860
61.16000 3.306
61.18000 1.420
61.20000 -2.207
61.22000 2.025
61.24000 5.108
61.26000 4.321
61.28000 0.594
61.30000 0.489
61.32000 2.220
61.34000 2.260
61.36000 2.182
61.38000 1.961
61.40000 1.254
61.42000 6.585
61.44000 8.224
61.46000 5.127
61.48000 2.738
61.50000 0.806
61.52000 3.156
61.54000 3.678
61.56000 3.423
61.58000 2.738
61.60000 2.478
61.62000 2.163
61.64000 2.552
61.66000 -1.366
61.68000 -1.593
61.70000 1.191
61.72000 0.408
61.74000 -0.838
61.76000 -0.776
61.78000 0.151
61.80000 -2.208
61.82000 -1.953
61.84000 3.187
61.86000 2.924
61.88000 3.419
61.90000 1.766
61.92000 2.061
61.94000 4.080
61.96000 3.460
61.98000 3.502
62.00000 1.726
62.02000 1.554
62.04000 1.706
62.06000 6.027
62.08000 4.735
62.10000 3.353
62.12000 2.967
62.14000 2.928
62.16000 0.779
62.18000 0.208
62.20000 -1.018
62.22000 1.296
62.24000 2.489
62.26000 1.604
62.28000 0.956
62.30000 0.720
62.32000 2.455
62.34000 2.597
62.36000 3.873
62.38000 1.288
62.40000 0.449
62.42000 -0.133
62.44000 -1.958
62.46000 1.855
62.48000 4.555
62.50000 7.294
62.52000 2.767
62.54000 3.700
62.56000 4.232
62.58000 2.837
62.60000 1.760
62.62000 -0.377
62.64000 -0.070
62.66000 -1.736
62.68000 2.224
62.70000 4.299
62.72000 0.418
62.74000 -0.015
62.76000 -2.194
62.78000 -1.648
62.80000 -0.211
62.82000 1.888
62.84000 3.892
62.86000 2.550
62.88000 3.533
62.90000 3.088
62.92000 3.541
62.94000 1.782
62.96000 -1.514
62.98000 -1.963
63.00000 1.669
63.02000 1.719
63.04000 -1.299
63.06000 2.372
63.08000 2.404
63.10000 2.124
63.12000 3.088
63.14000 1.440
63.16000 1.686
63.18000 0.495
63.20000 2.577
63.22000 1.860
63.24000 -0.540
63.26000 -1.144
63.28000 -1.942
63.30000 0.040
63.32000 0.004
63.34000 0.784
63.36000 -0.802
63.38000 -0.192
63.40000 3.397
63.42000 2.029
63.44000 0.662
63.46000 3.686
63.48000 3.253
63.50000 2.950
63.52000 -1.081
63.54000 0.323
63.56000 0.308
63.58000 0.735
63.60000 1.580
63.62000 1.043
63.64000 1.314
63.66000 2.264
63.68000 1.034
63.70000 1.458
63.72000 5.358
63.74000 4.700
63.76000 0.931
63.78000 -1.179
63.80000 0.871
63.82000 1.918
63.84000 0.349
63.86000 1.910
63.88000 3.249
63.90000 2.055
63.92000 5.296
63.94000 6.015
63.96000 1.430
63.98000 0.460
64.00000 2.850
64.02000 -2.175
64.04000 -1.546
64.06000 2.897
64.08000 4.563
64.10000 1.391
64.12000 0.296
64.14000 0.385
64.16000 3.379
64.18000 4.049
64.20000 4.258
64.22000 2.187
64.24000 3.287
64.26000 3.712
64.28000 0.810
64.30000 0.776
64.32000 3.852
64.34000 2.475
64.36000 1.427
64.38000 2.085
64.40000 -1.598
64.42000 -0.975
64.44000 -0.952
64.46000 -0.348
64.48000 -0.580
64.50000 0.519
64.52000 3.357
64.54000 0.813
64.56000 1.556
64.58000 1.841
64.60000 1.097
64.62000 -1.693
64.64000 0.246
64.66000 1.423
64.68000 -1.066
64.70000 1.356
64.72000 3.266
64.74000 0.987
64.76000 1.435
64.78000 2.080
64.80000 0.147
64.82000 -0.883
64.84000 -0.586
64.86000 0.427
64.88000 1.823
64.90000 0.160
64.92000 -1.561
64.94000 -1.494
64.96000 -1.771
64.98000 0.990
65.00000 0.957
65.02000 0.027
65.04000 -1.639
65.06000 1.062
65.08000 0.778
65.10000 -0.086
65.12000 1.342
65.14000 2.376
65.16000 1.099
65.18000 -0.974
65.20000 1.133
65.22000 0.428
65.24000 0.497
65.26000 1.483
65.28000 -0.485
65.30000 -2.193
65.32000 0.705
65.34000 -1.819
65.36000 1.186
65.38000 1.565
65.40000 -1.754
65.42000 0.273
65.44000 1.605
65.46000 0.462
65.48000 1.246
65.50000 -1.009
65.52000 -0.050
65.54000 -1.961
65.56000 -0.494
65.58000 0.429
65.60000 -0.929
65.62000 -1.076
65.64000 2.631
65.66000 3.353
65.68000 0.941
65.70000 -1.851
65.72000 -0.922
65.74000 1.126
65.76000 1.072
65.78000 -1.448
65.80000 -0.321
65.82000 1.810
65.84000 0.238
65.86000 -2.200
65.88000 -2.151
65.90000 -1.562
65.92000 -2.084
65.94000 0.060
65.96000 1.457
65.98000 1.900
66.00000 -0.435
66.02000 1.766
66.04000 -0.858
66.06000 -0.366
66.08000 0.607
66.10000 2.589
66.12000 0.948
66.14000 2.350
66.16000 -0.190
66.18000 1.160
66.20000 1.671
66.22000 1.960
66.24000 2.868
66.26000 0.721
66.28000 -1.232
66.30000 1.620
66.32000 1.525
66.34000 0.541
66.36000 2.129
66.38000 2.572
66.40000 2.556
66.42000 0.442
66.44000 2.399
66.46000 4.832
66.48000 4.131
66.50000 0.755
66.52000 -0.676
66.54000 2.334
66.56000 1.568
66.58000 3.004
66.60000 3.633
66.62000 3.916
66.64000 4.421
66.66000 3.675
66.68000 3.789
66.70000 1.223
66.72000 2.725
66.74000 2.908
66.76000 5.855
66.78000 7.218
66.80000 7.711
66.82000 8.549
66.84000 5.550
66.86000 2.635
66.88000 3.184
66.90000 5.657
66.92000 8.156
66.94000 10.156
66.96000 7.930
66.98000 6.971
67.00000 7.114
67.02000 3.322
67.04000 7.598
67.06000 8.189
67.08000 7.221
67.10000 9.387
67.12000 10.440
67.14000 13.483
67.16000 10.931
67.18000 9.776
67.20000 9.723
67.22000 9.926
67.24000 13.447
67.26000 12.130
67.28000 11.766
67.30000 13.199
67.32000 14.186
67.34000 9.231
67.36000 10.373
67.38000 12.878
67.40000 9.948
67.42000 10.692
67.44000 12.421
67.46000 11.205
67.48000 9.747
67.50000 8.840
67.52000 7.673
67.54000 9.169
67.56000 9.316
67.58000 10.677
67.60000 12.608
67.62000 12.079
67.64000 9.554
67.66000 7.599
67.68000 7.253
67.70000 6.748
67.72000 7.125
67.74000 7.636
67.76000 7.836
67.78000 6.513
67.80000 7.639
67.82000 8.447
67.84000 4.796
67.86000 6.448
67.88000 7.412
67.90000 5.313
67.92000 2.685
67.94000 5.944
67.96000 7.355
67.98000 5.886
68.00000 4.884
68.02000 3.664
68.04000 1.475
68.06000 2.628
68.08000 2.726
68.10000 3.575
68.12000 2.445
68.14000 1.646
68.16000 1.313
68.18000 1.513
68.20000 1.285
68.22000 1.336
68.24000 1.015
68.26000 1.112
68.28000 2.742
68.30000 3.049
68.32000 3.603
68.34000 3.045
68.36000 -1.063
68.38000 -0.163
68.40000 1.891
68.42000 2.101
68.44000 4.160
68.46000 2.019
68.48000 -1.755
68.50000 -2.101
68.52000 -1.086
68.54000 0.534
68.56000 1.223
68.58000 -1.263
68.60000 -1.746
68.62000 0.395
68.64000 0.382
68.66000 0.261
68.68000 0.315
68.70000 -1.278
68.72000 -1.139
68.74000 1.845
68.76000 1.117
68.78000 0.323
68.80000 2.039
68.82000 0.183
68.84000 2.052
68.86000 3.828
68.88000 1.859
68.90000 0.972
68.92000 0.232
68.94000 1.400
68.96000 0.924
68.98000 2.148
69.00000 4.076
69.02000 2.945
69.04000 0.843
69.06000 2.705
69.08000 4.271
69.10000 2.177
69.12000 -0.368
69.14000 -0.568
69.16000 2.915
69.18000 0.743
69.20000 2.033
69.22000 3.252
69.24000 2.740
69.26000 2.620
69.28000 5.844
69.30000 2.824
69.32000 0.535
69.34000 1.472
69.36000 3.166
69.38000 0.683
69.40000 -2.014
69.42000 -0.723
69.44000 1.573
69.46000 3.897
69.48000 2.417
69.50000 2.117
69.52000 2.487
69.54000 0.904
69.56000 -0.489
69.58000 1.322
69.60000 1.965
69.62000 4.772
69.64000 4.355
69.66000 3.366
69.68000 3.534
69.70000 2.172
69.72000 1.733
69.74000 1.627
69.76000 3.608
69.78000 3.501
69.80000 3.940
69.82000 1.738
69.84000 0.744
69.86000 1.534
69.88000 1.501
69.90000 1.408
69.92000 2.038
69.94000 1.198
69.96000 3.058
69.98000 -2.005
70.00000 -0.651
70.02000 -0.080
70.04000 0.875
70.06000 -0.445
70.08000 -0.330
70.10000 -0.123
70.12000 1.176
70.14000 -1.517
70.16000 -1.601
70.18000 -0.366
70.20000 1.882
70.22000 3.675
70.24000 -1.833
70.26000 -0.429
70.28000 0.865
70.30000 1.515
70.32000 2.907
70.34000 1.049
70.36000 3.888
70.38000 2.231
70.40000 1.432
70.42000 0.463
70.44000 2.782
70.46000 1.097
70.48000 1.169
70.50000 0.959
70.52000 0.535
70.54000 -0.449
70.56000 2.624
70.58000 2.403
70.60000 2.457
70.62000 1.058
70.64000 2.181
70.66000 1.629
70.68000 -1.448
70.70000 -1.506
70.72000 -0.072
70.74000 0.750
70.76000 1.277
70.78000 -1.402
70.80000 -0.771
70.82000 0.719
70.84000 0.165
70.86000 0.033
70.88000 1.165
70.90000 0.769
70.92000 -0.044
70.94000 3.008
70.96000 1.772
70.98000 -1.967
71.00000 2.399
71.02000 4.319
71.04000 0.610
71.06000 1.445
71.08000 2.294
71.10000 0.558
71.12000 1.047
71.14000 1.069
71.16000 1.523
71.18000 1.799
71.20000 0.673
71.22000 0.418
71.24000 1.785
71.26000 4.390
71.28000 2.145
71.30000 0.200
71.32000 0.201
71.34000 0.044
71.36000 0.035
71.38000 2.450
71.40000 1.931
71.42000 0.950
71.44000 0.316
71.46000 1.367
71.48000 0.872
71.50000 -0.713
71.52000 -0.838
71.54000 0.533
71.56000 0.624
71.58000 0.295
71.60000 1.250
71.62000 2.543
71.64000 2.986
71.66000 1.279
71.68000 -1.650
71.70000 -1.085
71.72000 -0.851
71.74000 -0.968
71.76000 0.125
71.78000 3.512
71.80000 1.593
71.82000 2.041
71.84000 1.581
71.86000 1.008
71.88000 0.236
71.90000 3.184
71.92000 0.172
71.94000 -0.520
71.96000 0.363
71.98000 0.083
72.00000 -0.394
72.02000 1.216
72.04000 3.020
72.06000 1.655
72.08000 1.032
72.10000 2.893
72.12000 0.295
72.14000 -0.115
72.16000 0.218
72.18000 2.346
72.20000 1.084
72.22000 0.064
72.24000 -0.299
72.26000 -0.998
72.28000 -1.918
72.30000 -1.530
72.32000 0.900
72.34000 2.982
72.36000 1.598
72.38000 -0.170
72.40000 0.769
72.42000 3.986
72.44000 0.155
72.46000 1.115
72.48000 -0.126
72.50000 0.922
72.52000 0.765
72.54000 -0.506
72.56000 1.277
72.58000 -0.313
72.60000 -0.339
72.62000 1.150
72.64000 -1.010
72.66000 0.117
72.68000 1.297
72.70000 2.055
72.72000 0.245
72.74000 0.553
72.76000 -1.278
72.78000 -0.624
72.80000 -0.965
72.82000 -0.996
72.84000 -0.958
72.86000 0.027
72.88000 1.016
72.90000 3.015
72.92000 0.565
72.94000 2.884
72.96000 3.034
72.98000 -0.376
73.00000 -0.110
73.02000 -0.092
73.04000 3.164
73.06000 5.821
73.08000 7.945
73.10000 4.933
73.12000 1.843
73.14000 1.166
73.16000 0.301
73.18000 0.205
73.20000 0.056
73.22000 -0.608
73.24000 1.442
73.26000 2.960
73.28000 -0.595
73.30000 -0.882
73.32000 -0.870
73.34000 0.679
73.36000 0.125
73.38000 1.476
73.40000 0.062
73.42000 -1.290
73.44000 0.399
73.46000 1.605
73.48000 0.231
73.50000 0.450
73.52000 -0.336
73.54000 -1.903
73.56000 -1.077
73.58000 1.742
73.60000 -0.520
73.62000 -0.230
73.64000 0.844
73.66000 2.868
73.68000 2.984
73.70000 0.225
73.72000 1.320
73.74000 3.355
73.76000 2.365
73.78000 2.896
73.80000 1.841
73.82000 1.225
73.84000 -0.293
73.86000 -1.874
73.88000 -1.874
73.90000 1.420
73.92000 3.271
73.94000 0.615
73.96000 3.172
73.98000 1.815
74.00000 0.045
74.02000 2.022
74.04000 1.944
74.06000 -0.713
74.08000 -1.756
74.10000 0.322
74.12000 2.845
74.14000 1.570
74.16000 1.133
74.18000 1.794
74.20000 1.313
74.22000 -1.406
74.24000 -1.425
74.26000 -0.111
74.28000 1.004
74.30000 1.970
74.32000 1.184
74.34000 -1.050
74.36000 -1.895
74.38000 -1.799
74.40000 -0.313
74.42000 3.300
74.44000 3.486
74.46000 1.299
74.48000 2.036
74.50000 3.100
74.52000 1.727
74.54000 1.315
74.56000 2.525
74.58000 0.230
74.60000 0.857
74.62000 0.930
74.64000 0.709
74.66000 3.067
74.68000 4.359
74.70000 0.854
74.72000 -0.073
74.74000 -0.276
74.76000 0.120
74.78000 -0.616
74.80000 -0.925
74.82000 0.014
74.84000 1.930
74.86000 -0.444
74.88000 -1.905
74.90000 0.573
74.92000 2.475
74.94000 1.528
74.96000 0.855
74.98000 0.608
75.00000 2.623
75.02000 0.909
75.04000 -0.118
75.06000 -1.642
75.08000 -0.563
75.10000 -0.270
75.12000 0.454
75.14000 0.259
75.16000 2.354
75.18000 2.214
75.20000 1.619
75.22000 1.256
75.24000 -0.056
75.26000 -0.457
75.28000 -0.563
75.30000 -1.371
75.32000 -1.808
75.34000 0.362
75.36000 1.381
75.38000 1.553
75.40000 0.640
75.42000 -1.237
75.44000 0.598
75.46000 3.367
75.48000 1.979
75.50000 2.977
75.52000 4.314
75.54000 1.374
75.56000 0.313
75.58000 -1.623
75.60000 -1.888
75.62000 1.425
75.64000 2.813
75.66000 1.605
75.68000 2.018
75.70000 -0.262
75.72000 -0.685
75.74000 2.848
75.76000 1.029
75.78000 1.334
75.80000 1.048
75.82000 1.996
75.84000 0.423
75.86000 0.642
75.88000 2.861
75.90000 7.588
75.92000 3.700
75.94000 2.894
75.96000 3.277
75.98000 5.006
76.00000 2.842
76.02000 1.761
76.04000 3.636
76.06000 1.666
76.08000 -0.498
76.10000 -0.065
76.12000 2.501
76.14000 4.007
76.16000 3.635
76.18000 2.115
76.20000 0.529
76.22000 0.747
76.24000 0.227
76.26000 -1.010
76.28000 1.393
76.30000 1.674
76.32000 0.001
76.34000 -1.762
76.36000 -1.339
76.38000 -1.693
76.40000 -1.910
76.42000 0.402
76.44000 0.355
76.46000 1.429
76.48000 0.642
76.50000 2.804
76.52000 4.710
76.54000 1.643
76.56000 0.594
76.58000 0.996
76.60000 3.067
76.62000 2.232
76.64000 0.507
76.66000 1.937
76.68000 2.799
76.70000 1.833
76.72000 2.655
76.74000 0.337
76.76000 0.013
76.78000 0.065
76.80000 0.899
76.82000 -1.142
76.84000 -1.912
76.86000 -0.283
76.88000 1.406
76.90000 -1.370
76.92000 2.615
76.94000 2.210
76.96000 3.749
76.98000 3.745
77.00000 0.773
77.02000 -0.008
77.04000 0.709
77.06000 1.233
77.08000 2.019
77.10000 2.533
77.12000 1.086
77.14000 -1.268
77.16000 -1.641
77.18000 -0.517
77.20000 -1.392
77.22000 -0.204
77.24000 -1.065
77.26000 0.399
77.28000 -1.937
77.30000 -0.658
77.32000 -1.221
77.34000 -0.829
77.36000 -1.829
77.38000 2.072
77.40000 0.528
77.42000 -0.679
77.44000 1.028
77.46000 3.970
77.48000 3.598
77.50000 2.131
77.52000 -0.952
77.54000 -1.826
77.56000 0.312
77.58000 1.027
77.60000 0.651
77.62000 2.309
77.64000 4.610
77.66000 2.308
77.68000 2.372
77.70000 2.094
77.72000 2.184
77.74000 2.054
77.76000 0.643
77.78000 1.265
77.80000 -0.154
77.82000 1.062
77.84000 0.092
77.86000 -0.442
77.88000 2.200
77.90000 2.637
77.92000 0.153
77.94000 1.410
77.96000 -0.868
77.98000 -1.686
78.00000 1.483
78.02000 3.422
78.04000 2.118
78.06000 -0.374
78.08000 1.048
78.10000 -1.954
78.12000 1.344
78.14000 0.511
78.16000 0.759
78.18000 2.327
78.20000 1.059
78.22000 1.670
78.24000 3.408
78.26000 0.999
78.28000 1.181
78.30000 1.460
78.32000 1.318
78.34000 -0.499
78.36000 0.925
78.38000 2.901
78.40000 3.230
78.42000 0.027
78.44000 1.083
78.46000 -0.561
78.48000 -0.088
78.50000 -0.176
78.52000 0.149
78.54000 -0.321
78.56000 0.257
78.58000 0.613
78.60000 -0.409
78.62000 0.944
78.64000 1.454
78.66000 0.704
78.68000 -1.980
78.70000 -1.997
78.72000 0.435
78.74000 2.805
78.76000 1.455
78.78000 -1.894
78.80000 -0.245
78.82000 -1.218
78.84000 1.714
78.86000 -0.748
78.88000 1.463
78.90000 -0.933
78.92000 -2.012
78.94000 -0.206
78.96000 1.806
78.98000 0.814
79.00000 3.221
79.02000 2.018
79.04000 1.381
79.06000 -0.860
79.08000 0.304
79.10000 0.892
79.12000 -0.315
79.14000 -1.198
79.16000 0.788
79.18000 -0.120
79.20000 4.654
79.22000 4.214
79.24000 0.159
79.26000 -0.270
79.28000 3.328
79.30000 1.216
79.32000 1.290
79.34000 2.571
79.36000 -0.153
79.38000 1.845
79.40000 0.201
79.42000 2.668
79.44000 1.526
79.46000 2.046
79.48000 0.332
79.50000 -0.307
79.52000 0.527
79.54000 0.317
79.56000 0.349
79.58000 0.377
79.60000 0.991
79.62000 1.737
79.64000 0.884
79.66000 -2.041
79.68000 -0.569
79.70000 1.458
79.72000 3.878
79.74000 2.981
79.76000 1.422
79.78000 1.542
79.80000 0.402
79.82000 -0.097
79.84000 3.223
79.86000 5.758
79.88000 4.688
79.90000 3.270
79.92000 3.065
79.94000 2.736
79.96000 4.914
79.98000 7.030
80.00000 4.065
80.02000 6.298
80.04000 4.635
80.06000 2.576
80.08000 0.397
80.10000 1.776
80.12000 0.051
80.14000 4.795
80.16000 4.361
80.18000 2.519
80.20000 4.513
80.22000 2.630
80.24000 4.984
80.26000 3.662
80.28000 3.964
80.30000 5.094
80.32000 4.757
80.34000 6.030
80.36000 9.481
80.38000 6.882
80.40000 4.072
80.42000 6.028
80.44000 6.653
80.46000 6.460
80.48000 6.653
80.50000 7.199
80.52000 8.462
80.54000 8.717
80.56000 6.542
80.58000 9.645
80.60000 8.835
80.62000 9.501
80.64000 5.978
80.66000 5.915
80.68000 9.616
80.70000 9.650
80.72000 11.857
80.74000 10.755
80.76000 11.304
80.78000 11.831
80.80000 9.877
80.82000 10.704
80.84000 14.962
80.86000 12.614
80.88000 11.914
80.90000 14.250
80.92000 20.028
80.94000 18.901
80.96000 21.697
80.98000 16.430
81.00000 10.736
81.02000 13.049
81.04000 18.813
81.06000 21.912
81.08000 17.168
81.10000 14.750
81.12000 18.577
81.14000 19.310
81.16000 14.807
81.18000 16.675
81.20000 19.073
81.22000 20.239
81.24000 16.808
81.26000 14.051
81.28000 16.466
81.30000 18.898
81.32000 17.797
81.34000 19.631
81.36000 23.658
81.38000 19.200
81.40000 17.883
81.42000 19.842
81.44000 15.865
81.46000 12.848
81.48000 15.458
81.50000 14.217
81.52000 17.246
81.54000 16.932
81.56000 16.550
81.58000 16.006
81.60000 14.788
81.62000 15.182
81.64000 12.015
81.66000 12.745
81.68000 13.374
81.70000 10.761
81.72000 9.523
81.74000 13.164
81.76000 12.183
81.78000 13.612
81.80000 11.168
81.82000 8.889
81.84000 11.479
81.86000 11.945
81.88000 12.806
81.90000 9.816
81.92000 9.241
81.94000 8.784
81.96000 5.552
81.98000 5.237
82.00000 6.636
82.02000 6.706
82.04000 5.363
82.06000 7.905
82.08000 5.790
82.10000 7.248
82.12000 8.256
82.14000 7.628
82.16000 5.688
82.18000 5.170
82.20000 6.077
82.22000 5.266
82.24000 3.804
82.26000 2.189
82.28000 2.997
82.30000 4.249
82.32000 1.185
82.34000 2.828
82.36000 7.810
82.38000 2.938
82.40000 3.322
82.42000 5.118
82.44000 4.491
82.46000 2.803
82.48000 1.880
82.50000 3.324
82.52000 2.278
82.54000 2.643
82.56000 2.988
82.58000 0.687
82.60000 -2.089
82.62000 -0.307
82.64000 -1.624
82.66000 0.432
82.68000 0.891
82.70000 0.343
82.72000 0.995
82.74000 -1.121
82.76000 -1.346
82.78000 0.873
82.80000 0.987
82.82000 0.697
82.84000 4.214
82.86000 0.517
82.88000 -1.451
82.90000 0.241
82.92000 0.307
82.94000 1.130
82.96000 -1.689
82.98000 -0.969
83.00000 -1.246
83.02000 0.434
83.04000 0.578
83.06000 -0.579
83.08000 -0.316
83.10000 1.588
83.12000 2.541
83.14000 -2.078
83.16000 -0.919
83.18000 -0.043
83.20000 -0.494
83.22000 1.234
83.24000 0.998
83.26000 0.864
83.28000 1.126
83.30000 1.943
83.32000 2.088
83.34000 3.621
83.36000 4.733
83.38000 2.560
83.40000 -1.547
83.42000 0.715
83.44000 0.796
83.46000 -2.056
83.48000 2.064
83.50000 2.476
83.52000 0.208
83.54000 -2.075
83.56000 -0.588
83.58000 1.881
83.60000 1.875
83.62000 2.426
83.64000 3.257
83.66000 5.003
83.68000 2.721
83.70000 -0.765
83.72000 -1.462
83.74000 -0.295
83.76000 1.806
83.78000 2.265
83.80000 2.464
83.82000 2.044
83.84000 -0.188
83.86000 -1.434
83.88000 -0.527
83.90000 -0.713
83.92000 2.460
83.94000 3.279
83.96000 -0.260
83.98000 1.892
84.00000 1.722
84.02000 -0.770
84.04000 -0.871
84.06000 0.988
84.08000 4.103
84.10000 2.019
84.12000 -0.601
84.14000 1.432
84.16000 1.006
84.18000 2.150
84.20000 7.119
84.22000 7.824
84.24000 6.066
84.26000 5.419
84.28000 3.684
84.30000 7.614
84.32000 7.203
84.34000 3.492
84.36000 4.501
84.38000 5.853
84.40000 6.803
84.42000 3.821
84.44000 6.862
84.46000 7.280
84.48000 8.136
84.50000 9.252
84.52000 7.110
84.54000 9.005
84.56000 9.982
84.58000 9.182
84.60000 8.997
84.62000 11.568
84.64000 12.757
84.66000 10.288
84.68000 12.143
84.70000 13.460
84.72000 12.934
84.74000 13.407
84.76000 15.483
84.78000 14.285
84.80000 13.760
84.82000 16.402
84.84000 14.218
84.86000 12.993
84.88000 15.600
84.90000 19.226
84.92000 15.970
84.94000 16.508
84.96000 16.580
84.98000 16.341
85.00000 15.445
85.02000 19.264
85.04000 17.554
85.06000 12.255
85.08000 14.472
85.10000 17.567
85.12000 16.948
85.14000 18.248
85.16000 16.847
85.18000 15.633
85.20000 16.218
85.22000 17.461
85.24000 14.469
85.26000 19.008
85.28000 21.859
85.30000 18.761
85.32000 19.788
85.34000 18.784
85.36000 17.119
85.38000 17.383
85.40000 17.820
85.42000 18.843
85.44000 15.931
85.46000 16.393
85.48000 16.597
85.50000 16.606
85.52000 16.658
85.54000 12.198
85.56000 12.737
85.58000 12.729
85.60000 12.640
85.62000 13.005
85.64000 11.508
85.66000 9.944
85.68000 10.726
85.70000 12.241
85.72000 6.640
85.74000 5.910
85.76000 9.360
85.78000 10.419
85.80000 8.980
85.82000 6.366
85.84000 7.352
85.86000 6.715
85.88000 4.760
85.90000 6.271
85.92000 5.672
85.94000 4.241
85.96000 6.425
85.98000 10.270
86.00000 6.491
86.02000 2.601
86.04000 2.830
86.06000 3.710
86.08000 4.196
86.10000 2.739
86.12000 2.439
86.14000 3.631
86.16000 2.374
86.18000 3.640
86.20000 1.972
86.22000 -0.135
86.24000 -1.050
86.26000 2.912
86.28000 2.061
86.30000 3.702
86.32000 3.728
86.34000 1.739
86.36000 2.135
86.38000 1.420
86.40000 0.273
86.42000 0.464
86.44000 -1.060
86.46000 0.123
86.48000 -0.151
86.50000 1.013
86.52000 0.640
86.54000 0.982
86.56000 -0.058
86.58000 0.932
86.60000 2.894
86.62000 3.705
86.64000 1.713
86.66000 -0.779
86.68000 0.372
86.70000 3.564
86.72000 3.643
86.74000 3.709
86.76000 2.768
86.78000 1.424
86.80000 1.248
86.82000 4.582
86.84000 1.597
86.86000 -1.874
86.88000 0.703
86.90000 -0.227
86.92000 0.728
86.94000 2.907
86.96000 1.553
86.98000 -0.365
87.00000 3.350
87.02000 0.750
87.04000 -0.010
87.06000 -0.218
87.08000 -1.418
87.10000 -0.780
87.12000 0.251
87.14000 2.021
87.16000 0.228
87.18000 1.166
87.20000 -0.281
87.22000 1.335
87.24000 2.549
87.26000 0.514
87.28000 -0.552
87.30000 -0.026
87.32000 -1.709
87.34000 -0.863
87.36000 -0.990
87.38000 -1.019
87.40000 2.455
87.42000 2.092
87.44000 -1.217
87.46000 2.153
87.48000 0.205
87.50000 -1.829
87.52000 0.823
87.54000 3.810
87.56000 -0.135
87.58000 2.185
87.60000 2.659
87.62000 1.241
87.64000 3.006
87.66000 2.859
87.68000 -0.981
87.70000 -0.122
87.72000 0.607
87.74000 1.475
87.76000 0.597
87.78000 0.204
87.80000 0.423
87.82000 0.001
87.84000 0.413
87.86000 1.208
87.88000 -0.241
87.90000 -1.250
87.92000 3.363
87.94000 3.598
87.96000 0.175
87.98000 1.835
88.00000 3.948
88.02000 4.353
88.04000 4.625
88.06000 4.064
88.08000 0.754
88.10000 1.072
88.12000 3.054
88.14000 2.928
88.16000 4.236
88.18000 2.566
88.20000 2.700
88.22000 2.271
88.24000 4.138
88.26000 4.923
88.28000 6.855
88.30000 5.163
88.32000 2.208
88.34000 3.121
88.36000 2.449
88.38000 3.939
88.40000 1.943
88.42000 -1.720
88.44000 -0.330
88.46000 3.495
88.48000 3.793
88.50000 2.623
88.52000 4.193
88.54000 5.945
88.56000 4.007
88.58000 4.025
88.60000 0.560
88.62000 1.470
88.64000 0.474
88.66000 2.306
88.68000 0.827
88.70000 0.836
88.72000 -0.170
88.74000 0.206
88.76000 5.016
88.78000 4.251
88.80000 4.072
88.82000 1.196
88.84000 4.281
88.86000 3.789
88.88000 0.286
88.90000 2.862
88.92000 3.832
88.94000 2.347
88.96000 1.132
88.98000 0.577
89.00000 2.440
89.02000 3.961
89.04000 -1.758
89.06000 0.538
89.08000 -0.012
89.10000 2.632
89.12000 5.129
89.14000 2.965
89.16000 3.248
89.18000 2.644
89.20000 3.655
89.22000 2.823
89.24000 0.161
89.26000 2.078
89.28000 -0.152
89.30000 3.268
89.32000 0.141
89.34000 0.926
89.36000 2.200
89.38000 2.245
89.40000 -0.724
89.42000 -0.072
89.44000 1.005
89.46000 1.979
89.48000 -1.176
89.50000 -1.696
89.52000 1.285
89.54000 -0.412
89.56000 1.541
89.58000 0.618
89.60000 1.183
89.62000 1.278
89.64000 -0.164
89.66000 -0.348
89.68000 -0.776
89.70000 0.735
89.72000 -0.028
89.74000 1.656
89.76000 2.590
89.78000 0.874
89.80000 1.093
89.82000 2.100
89.84000 0.699
89.86000 -0.753
89.88000 -1.014
89.90000 -0.049
89.92000 2.145
89.94000 1.167
89.96000 0.536
89.98000 2.214
90.00000 4.898
90.02000 5.727
90.04000 4.656
90.06000 2.168
90.08000 -0.050
90.10000 3.976
90.12000 2.007
90.14000 -1.767
90.16000 -0.366
90.18000 4.889
90.20000 3.713
90.22000 2.816
90.24000 2.390
90.26000 1.052
90.28000 3.134
90.30000 3.594
90.32000 1.539
90.34000 4.025
90.36000 6.486
90.38000 4.560
90.40000 6.973
90.42000 8.245
90.44000 1.359
90.46000 1.857
90.48000 6.987
90.50000 4.808
90.52000 2.148
90.54000 2.493
90.56000 3.673
90.58000 2.584
90.60000 4.793
90.62000 2.114
90.64000 0.279
90.66000 4.774
90.68000 -1.746
90.70000 0.192
90.72000 4.261
90.74000 0.409
90.76000 5.614
90.78000 3.889
90.80000 1.827
90.82000 4.233
90.84000 3.786
90.86000 1.498
90.88000 0.126
90.90000 4.693
90.92000 2.701
90.94000 3.410
90.96000 2.432
90.98000 -0.560
91.00000 0.041
91.02000 2.222
91.04000 2.468
91.06000 2.131
91.08000 1.305
91.10000 0.786
91.12000 0.729
91.14000 2.545
91.16000 2.658
91.18000 3.208
91.20000 0.697
91.22000 -0.928
91.24000 -1.426
91.26000 -0.514
91.28000 0.067
91.30000 -0.277
91.32000 0.915
91.34000 0.901
91.36000 2.538
91.38000 2.084
91.40000 1.859
91.42000 2.568
91.44000 -1.687
91.46000 0.474
91.48000 0.047
91.50000 1.206
91.52000 -0.126
91.54000 -1.482
91.56000 1.593
91.58000 1.644
91.60000 -0.457
91.62000 -1.534
91.64000 -1.190
91.66000 -0.204
91.68000 0.471
91.70000 3.688
91.72000 4.531
91.74000 5.612
91.76000 -0.333
91.78000 0.622
91.80000 -1.233
91.82000 -1.795
91.84000 1.045
91.86000 -1.643
91.88000 -1.115
91.90000 -0.368
91.92000 0.160
91.94000 1.160
91.96000 0.674
91.98000 2.687
92.00000 1.896
92.02000 4.035
92.04000 1.501
92.06000 0.839
92.08000 1.145
92.10000 0.975
92.12000 0.721
92.14000 0.901
92.16000 2.437
92.18000 4.046
92.20000 0.873
92.22000 2.006
92.24000 1.504
92.26000 0.576
92.28000 1.570
92.30000 1.204
92.32000 2.290
92.34000 3.680
92.36000 2.726
92.38000 3.052
92.40000 1.394
92.42000 1.949
92.44000 1.683
92.46000 1.353
92.48000 0.361
92.50000 -0.884
92.52000 -1.150
92.54000 4.481
92.56000 6.254
92.58000 3.725
92.60000 3.196
92.62000 2.726
92.64000 4.055
92.66000 5.912
92.68000 2.744
92.70000 -0.577
92.72000 0.632
92.74000 0.814
92.76000 -1.773
92.78000 -0.813
92.80000 1.848
92.82000 2.399
92.84000 1.378
92.86000 2.988
92.88000 1.432
92.90000 -0.742
92.92000 -0.284
92.94000 -1.625
92.96000 2.269
92.98000 3.944
93.00000 1.165
93.02000 0.662
93.04000 0.976
93.06000 0.164
93.08000 -0.855
93.10000 2.386
93.12000 6.675
93.14000 0.545
93.16000 0.016
93.18000 0.625
93.20000 5.550
93.22000 4.417
93.24000 1.573
93.26000 0.392
93.28000 1.920
93.30000 4.014
93.32000 2.809
93.34000 1.492
93.36000 -1.540
93.38000 3.769
93.40000 3.231
93.42000 5.069
93.44000 2.962
93.46000 4.573
93.48000 4.303
93.50000 1.381
93.52000 3.910
93.54000 4.330
93.56000 3.198
93.58000 3.616
93.60000 1.927
93.62000 1.236
93.64000 -0.110
93.66000 -0.785
93.68000 -0.930
93.70000 -1.811
93.72000 -1.231
93.74000 -1.359
93.76000 0.349
93.78000 2.118
93.80000 1.955
93.82000 0.095
93.84000 2.611
93.86000 -1.239
93.88000 1.277
93.90000 2.333
93.92000 2.389
93.94000 -0.338
93.96000 1.733
93.98000 0.422
94.00000 1.163
94.02000 4.400
94.04000 4.372
94.06000 -0.343
94.08000 4.270
94.10000 4.205
94.12000 1.572
94.14000 3.613
94.16000 1.081
94.18000 -0.104
94.20000 1.233
94.22000 1.544
94.24000 4.992
94.26000 2.062
94.28000 0.259
94.30000 0.449
94.32000 2.403
94.34000 2.456
94.36000 1.072
94.38000 0.909
94.40000 0.623
94.42000 0.091
94.44000 0.156
94.46000 0.654
94.48000 0.670
94.50000 -0.161
94.52000 -0.695
94.54000 -0.857
94.56000 0.761
94.58000 0.962
94.60000 1.965
94.62000 0.266
94.64000 -0.984
94.66000 -0.231
94.68000 0.245
94.70000 0.999
94.72000 4.129
94.74000 -0.538
94.76000 0.221
94.78000 0.581
94.80000 2.879
94.82000 0.644
94.84000 4.514
94.86000 3.274
94.88000 3.284
94.90000 2.612
94.92000 -1.464
94.94000 -0.003
94.96000 0.080
94.98000 -0.079
95.00000 1.757
95.02000 1.027
95.04000 -0.144
95.06000 4.144
95.08000 5.148
95.10000 1.291
95.12000 0.420
95.14000 -0.087
95.16000 2.944
95.18000 1.056
95.20000 1.608
95.22000 1.248
95.24000 1.819
95.26000 2.685
95.28000 3.275
95.30000 6.485
95.32000 4.916
95.34000 3.991
95.36000 1.546
95.38000 6.239
95.40000 8.212
95.42000 7.861
95.44000 5.486
95.46000 2.550
95.48000 2.416
95.50000 5.783
95.52000 6.863
95.54000 5.615
95.56000 3.795
95.58000 5.760
95.60000 3.754
95.62000 0.874
95.64000 -1.759
95.66000 0.071
95.68000 5.763
95.70000 5.885
95.72000 3.631
95.74000 2.953
95.76000 2.511
95.78000 4.144
95.80000 6.770
95.82000 7.035
95.84000 4.525
95.86000 5.185
95.88000 3.080
95.90000 5.013
95.92000 7.001
95.94000 8.919
95.96000 7.556
95.98000 7.134
96.00000 3.900
96.02000 2.035
96.04000 4.883
96.06000 4.854
96.08000 6.416
96.10000 4.771
96.12000 2.674
96.14000 0.375
96.16000 2.507
96.18000 3.676
96.20000 6.292
96.22000 4.103
96.24000 6.610
96.26000 3.604
96.28000 2.973
96.30000 1.499
96.32000 -1.758
96.34000 4.484
96.36000 5.677
96.38000 3.196
96.40000 3.125
96.42000 6.685
96.44000 4.612
96.46000 5.934
96.48000 6.787
96.50000 5.161
96.52000 3.052
96.54000 -1.639
96.56000 1.182
96.58000 4.187
96.60000 4.872
96.62000 2.238
96.64000 1.448
96.66000 3.319
96.68000 2.219
96.70000 2.844
96.72000 4.817
96.74000 6.244
96.76000 5.654
96.78000 4.176
96.80000 1.768
96.82000 1.947
96.84000 1.534
96.86000 2.896
96.88000 3.890
96.90000 4.332
96.92000 6.367
96.94000 4.698
96.96000 3.306
96.98000 4.593
97.00000 6.281
97.02000 4.177
97.04000 3.097
97.06000 3.919
97.08000 1.129
97.10000 3.112
97.12000 2.452
97.14000 3.970
97.16000 4.887
97.18000 6.966
97.20000 4.260
97.22000 2.865
97.24000 5.705
97.26000 8.848
97.28000 4.414
97.30000 -1.754
97.32000 1.482
97.34000 4.433
97.36000 3.832
97.38000 5.365
97.40000 8.599
97.42000 6.245
97.44000 5.059
97.46000 2.865
97.48000 1.891
97.50000 2.644
97.52000 1.821
97.54000 1.550
97.56000 0.002
97.58000 2.656
97.60000 5.688
97.62000 0.304
97.64000 -0.422
97.66000 -1.751
97.68000 3.316
97.70000 7.268
97.72000 4.951
97.74000 3.637
97.76000 2.370
97.78000 4.152
97.80000 0.484
97.82000 1.569
97.84000 2.703
97.86000 4.659
97.88000 7.056
97.90000 6.910
97.92000 3.604
97.94000 4.815
97.96000 -1.600
97.98000 1.519
98.00000 6.645
98.02000 6.358
98.04000 4.663
98.06000 3.507
98.08000 6.279
98.10000 3.973
98.12000 -0.236
98.14000 3.468
98.16000 7.828
98.18000 2.378
98.20000 3.596
98.22000 4.962
98.24000 4.262
98.26000 2.725
98.28000 2.403
98.30000 4.349
98.32000 2.970
98.34000 4.492
98.36000 5.146
98.38000 2.041
98.40000 3.749
98.42000 3.441
98.44000 -0.534
98.46000 0.277
98.48000 3.571
98.50000 2.989
98.52000 2.853
98.54000 1.479
98.56000 3.819
98.58000 2.240
98.60000 5.901
98.62000 2.631
98.64000 4.179
98.66000 6.654
98.68000 5.503
98.70000 5.578
98.72000 6.005
98.74000 3.172
98.76000 7.241
98.78000 7.252
98.80000 3.474
98.82000 1.170
98.84000 2.622
98.86000 4.302
98.88000 3.647
98.90000 8.701
98.92000 10.849
98.94000 2.431
98.96000 -1.712
98.98000 1.688
99.00000 9.336
99.02000 7.132
99.04000 4.493
99.06000 6.505
99.08000 8.393
99.10000 -0.589
99.12000 -0.105
99.14000 3.269
99.16000 -1.442
99.18000 2.998
99.20000 4.333
99.22000 -1.191
99.24000 4.102
99.26000 10.065
99.28000 8.835
99.30000 12.329
99.32000 8.077
99.34000 -0.194
99.36000 -1.043
99.38000 6.630
99.40000 5.839
99.42000 6.425
99.44000 7.032
99.46000 9.471
99.48000 7.327
99.50000 2.547
99.52000 7.142
99.54000 6.163
99.56000 2.833
99.58000 2.097
99.60000 2.424
99.62000 6.053
99.64000 1.685
99.66000 4.103
99.68000 11.964
99.70000 6.183
99.72000 2.236
99.74000 0.981
99.76000 -1.721
99.78000 -1.728
99.80000 6.764
99.82000 6.580
99.84000 5.742
99.86000 2.068
99.88000 8.695
99.90000 10.311
99.92000 9.494
99.94000 4.552
99.96000 10.307
99.98000 0.000
