'Id: "0011387" Comment: "Integrate frame 0011387_Au-Ir-Rh_Rh-rich_XRD-Mapping-109-0000.gfrmwith cursor Wedge Cursor #5" Operator: "B?rgel" Anode: "Cu" Wavelength: "1.5406" Scantype: "2Theta (TwoTheta)" TimePerStep: "1" X: "22.5" Y: "-13.5" Z: "5.95" 
10.00000 0.000
10.02000 6.190
10.04000 -3.642
10.06000 2.984
10.08000 26.547
10.10000 14.147
10.12000 15.751
10.14000 27.771
10.16000 22.747
10.18000 7.308
10.20000 -3.687
10.22000 7.879
10.24000 17.530
10.26000 13.921
10.28000 11.231
10.30000 5.260
10.32000 5.891
10.34000 11.498
10.36000 7.611
10.38000 19.277
10.40000 11.886
10.42000 13.959
10.44000 11.225
10.46000 11.016
10.48000 17.247
10.50000 16.294
10.52000 21.911
10.54000 21.206
10.56000 16.556
10.58000 21.031
10.60000 9.891
10.62000 -0.167
10.64000 7.263
10.66000 14.085
10.68000 8.547
10.70000 16.047
10.72000 16.789
10.74000 17.894
10.76000 14.973
10.78000 20.364
10.80000 23.752
10.82000 16.605
10.84000 19.481
10.86000 16.761
10.88000 21.955
10.90000 15.707
10.92000 19.793
10.94000 29.201
10.96000 17.526
10.98000 9.714
11.00000 17.150
11.02000 16.965
11.04000 20.752
11.06000 12.585
11.08000 15.399
11.10000 13.891
11.12000 27.450
11.14000 23.360
11.16000 20.109
11.18000 16.450
11.20000 13.511
11.22000 13.001
11.24000 29.140
11.26000 18.364
11.28000 23.449
11.30000 16.112
11.32000 18.152
11.34000 32.580
11.36000 22.117
11.38000 27.555
11.40000 18.474
11.42000 26.840
11.44000 23.120
11.46000 10.513
11.48000 12.448
11.50000 21.164
11.52000 26.573
11.54000 29.276
11.56000 30.641
11.58000 13.463
11.60000 14.170
11.62000 23.430
11.64000 17.070
11.66000 19.628
11.68000 20.697
11.70000 24.130
11.72000 25.576
11.74000 15.285
11.76000 27.255
11.78000 31.956
11.80000 23.250
11.82000 14.616
11.84000 11.522
11.86000 19.862
11.88000 20.907
11.90000 25.039
11.92000 23.515
11.94000 25.636
11.96000 18.753
11.98000 14.537
12.00000 10.807
12.02000 23.292
12.04000 23.204
12.06000 20.415
12.08000 15.966
12.10000 22.598
12.12000 25.907
12.14000 30.739
12.16000 32.689
12.18000 22.123
12.20000 14.750
12.22000 8.086
12.24000 20.968
12.26000 24.645
12.28000 26.616
12.30000 24.901
12.32000 23.961
12.34000 22.910
12.36000 17.417
12.38000 22.663
12.40000 29.244
12.42000 35.721
12.44000 25.082
12.46000 23.568
12.48000 21.626
12.50000 17.522
12.52000 18.968
12.54000 17.675
12.56000 23.223
12.58000 20.751
12.60000 21.860
12.62000 25.717
12.64000 29.779
12.66000 34.107
12.68000 33.361
12.70000 27.381
12.72000 21.394
12.74000 22.319
12.76000 30.404
12.78000 30.617
12.80000 16.448
12.82000 21.431
12.84000 29.874
12.86000 38.230
12.88000 24.512
12.90000 28.505
12.92000 24.123
12.94000 19.243
12.96000 28.320
12.98000 16.145
13.00000 20.253
13.02000 16.399
13.04000 10.322
13.06000 20.637
13.08000 24.604
13.10000 31.514
13.12000 21.195
13.14000 17.588
13.16000 30.932
13.18000 18.745
13.20000 13.115
13.22000 18.236
13.24000 15.085
13.26000 15.541
13.28000 19.762
13.30000 18.256
13.32000 17.562
13.34000 24.007
13.36000 24.082
13.38000 21.866
13.40000 17.987
13.42000 14.285
13.44000 13.341
13.46000 13.141
13.48000 17.252
13.50000 17.205
13.52000 18.964
13.54000 25.544
13.56000 17.174
13.58000 24.648
13.60000 23.137
13.62000 17.737
13.64000 21.582
13.66000 20.212
13.68000 24.488
13.70000 20.929
13.72000 19.728
13.74000 27.843
13.76000 23.482
13.78000 21.246
13.80000 9.673
13.82000 9.081
13.84000 6.807
13.86000 10.162
13.88000 10.420
13.90000 13.518
13.92000 21.658
13.94000 21.511
13.96000 22.773
13.98000 20.412
14.00000 13.596
14.02000 9.044
14.04000 13.945
14.06000 29.592
14.08000 18.282
14.10000 9.789
14.12000 21.815
14.14000 26.972
14.16000 28.565
14.18000 22.305
14.20000 18.792
14.22000 19.473
14.24000 19.957
14.26000 17.536
14.28000 16.833
14.30000 21.089
14.32000 12.938
14.34000 13.001
14.36000 18.358
14.38000 22.930
14.40000 23.797
14.42000 13.198
14.44000 6.600
14.46000 7.257
14.48000 2.843
14.50000 9.133
14.52000 9.549
14.54000 11.469
14.56000 6.787
14.58000 5.959
14.60000 19.483
14.62000 14.113
14.64000 18.977
14.66000 32.492
14.68000 23.425
14.70000 9.960
14.72000 15.724
14.74000 20.187
14.76000 18.119
14.78000 9.172
14.80000 3.363
14.82000 -0.970
14.84000 4.670
14.86000 1.401
14.88000 11.536
14.90000 22.582
14.92000 11.687
14.94000 5.617
14.96000 4.357
14.98000 9.431
15.00000 19.095
15.02000 14.170
15.04000 13.122
15.06000 18.678
15.08000 16.331
15.10000 3.787
15.12000 7.814
15.14000 5.964
15.16000 14.309
15.18000 12.986
15.20000 8.044
15.22000 8.017
15.24000 6.504
15.26000 10.581
15.28000 16.291
15.30000 7.463
15.32000 6.306
15.34000 6.357
15.36000 3.545
15.38000 -0.340
15.40000 3.667
15.42000 7.170
15.44000 4.428
15.46000 3.138
15.48000 5.595
15.50000 11.995
15.52000 19.177
15.54000 14.156
15.56000 1.903
15.58000 11.035
15.60000 16.554
15.62000 9.863
15.64000 4.042
15.66000 14.725
15.68000 15.401
15.70000 13.495
15.72000 11.833
15.74000 11.434
15.76000 9.960
15.78000 7.231
15.80000 6.875
15.82000 9.035
15.84000 14.609
15.86000 13.156
15.88000 0.163
15.90000 5.243
15.92000 14.640
15.94000 10.373
15.96000 -0.272
15.98000 -0.601
16.00000 0.798
16.02000 8.913
16.04000 15.921
16.06000 5.038
16.08000 -0.069
16.10000 -2.929
16.12000 9.016
16.14000 8.903
16.16000 13.287
16.18000 11.158
16.20000 3.180
16.22000 -1.890
16.24000 11.876
16.26000 11.201
16.28000 10.860
16.30000 9.081
16.32000 9.861
16.34000 19.371
16.36000 14.004
16.38000 15.964
16.40000 7.341
16.42000 8.387
16.44000 8.695
16.46000 7.276
16.48000 6.775
16.50000 16.195
16.52000 17.716
16.54000 15.476
16.56000 6.965
16.58000 2.751
16.60000 1.132
16.62000 6.065
16.64000 -0.737
16.66000 -4.370
16.68000 -3.238
16.70000 4.886
16.72000 -0.197
16.74000 -2.679
16.76000 7.314
16.78000 14.917
16.80000 6.323
16.82000 9.079
16.84000 12.989
16.86000 4.362
16.88000 0.544
16.90000 12.401
16.92000 8.155
16.94000 5.427
16.96000 -0.526
16.98000 6.405
17.00000 12.451
17.02000 12.606
17.04000 7.761
17.06000 4.012
17.08000 2.594
17.10000 5.841
17.12000 2.388
17.14000 0.766
17.16000 6.148
17.18000 5.490
17.20000 5.996
17.22000 -0.279
17.24000 3.046
17.26000 6.931
17.28000 7.149
17.30000 4.652
17.32000 4.252
17.34000 10.185
17.36000 3.357
17.38000 7.710
17.40000 13.678
17.42000 10.973
17.44000 7.920
17.46000 1.953
17.48000 4.932
17.50000 3.815
17.52000 10.048
17.54000 17.904
17.56000 13.904
17.58000 12.489
17.60000 10.609
17.62000 6.454
17.64000 2.152
17.66000 -0.640
17.68000 5.029
17.70000 11.257
17.72000 7.510
17.74000 11.061
17.76000 10.415
17.78000 11.737
17.80000 10.223
17.82000 -0.305
17.84000 -1.829
17.86000 2.400
17.88000 8.098
17.90000 6.493
17.92000 2.937
17.94000 -4.081
17.96000 -2.587
17.98000 7.992
18.00000 10.817
18.02000 10.213
18.04000 10.026
18.06000 8.052
18.08000 7.643
18.10000 8.659
18.12000 8.468
18.14000 1.627
18.16000 -4.280
18.18000 1.853
18.20000 4.149
18.22000 5.384
18.24000 5.213
18.26000 10.849
18.28000 12.500
18.30000 4.671
18.32000 5.578
18.34000 1.937
18.36000 -1.781
18.38000 6.770
18.40000 13.015
18.42000 18.437
18.44000 10.485
18.46000 -0.518
18.48000 -0.564
18.50000 -2.855
18.52000 -1.044
18.54000 3.476
18.56000 8.526
18.58000 14.089
18.60000 9.013
18.62000 1.107
18.64000 4.666
18.66000 -0.477
18.68000 -0.996
18.70000 8.087
18.72000 7.103
18.74000 7.177
18.76000 3.746
18.78000 4.454
18.80000 6.921
18.82000 8.375
18.84000 12.757
18.86000 10.646
18.88000 7.891
18.90000 6.377
18.92000 3.123
18.94000 6.493
18.96000 9.663
18.98000 11.481
19.00000 8.714
19.02000 3.172
19.04000 3.890
19.06000 0.917
19.08000 3.672
19.10000 4.565
19.12000 1.801
19.14000 8.114
19.16000 4.869
19.18000 5.782
19.20000 6.346
19.22000 -0.737
19.24000 -1.378
19.26000 4.262
19.28000 7.848
19.30000 1.499
19.32000 -3.074
19.34000 0.312
19.36000 8.186
19.38000 8.396
19.40000 5.614
19.42000 11.525
19.44000 9.087
19.46000 6.501
19.48000 4.475
19.50000 5.358
19.52000 9.844
19.54000 6.423
19.56000 -1.368
19.58000 2.685
19.60000 5.067
19.62000 4.710
19.64000 7.556
19.66000 9.321
19.68000 5.481
19.70000 1.250
19.72000 5.807
19.74000 10.781
19.76000 8.474
19.78000 5.227
19.80000 3.080
19.82000 2.891
19.84000 4.226
19.86000 2.526
19.88000 9.609
19.90000 8.775
19.92000 4.658
19.94000 2.260
19.96000 -0.919
19.98000 4.123
20.00000 10.739
20.02000 2.271
20.04000 -0.414
20.06000 3.005
20.08000 11.617
20.10000 5.146
20.12000 -1.257
20.14000 3.083
20.16000 4.773
20.18000 2.109
20.20000 1.608
20.22000 6.023
20.24000 11.392
20.26000 7.909
20.28000 7.424
20.30000 2.694
20.32000 -4.167
20.34000 4.675
20.36000 4.281
20.38000 3.731
20.40000 6.521
20.42000 8.354
20.44000 6.659
20.46000 10.505
20.48000 8.391
20.50000 6.639
20.52000 -2.245
20.54000 1.932
20.56000 0.705
20.58000 2.303
20.60000 2.779
20.62000 2.746
20.64000 5.498
20.66000 -0.766
20.68000 3.448
20.70000 10.319
20.72000 6.724
20.74000 6.020
20.76000 4.798
20.78000 7.546
20.80000 0.376
20.82000 2.013
20.84000 0.689
20.86000 2.842
20.88000 5.529
20.90000 5.172
20.92000 0.370
20.94000 3.572
20.96000 10.274
20.98000 9.552
21.00000 8.039
21.02000 5.521
21.04000 5.610
21.06000 4.971
21.08000 5.801
21.10000 4.023
21.12000 2.353
21.14000 5.976
21.16000 5.717
21.18000 8.464
21.20000 6.372
21.22000 7.422
21.24000 5.590
21.26000 3.164
21.28000 1.745
21.30000 4.368
21.32000 8.049
21.34000 2.023
21.36000 -2.166
21.38000 3.551
21.40000 4.195
21.42000 5.189
21.44000 3.722
21.46000 10.732
21.48000 13.081
21.50000 7.271
21.52000 7.142
21.54000 6.674
21.56000 4.166
21.58000 4.480
21.60000 3.034
21.62000 0.961
21.64000 0.517
21.66000 -0.361
21.68000 3.660
21.70000 5.299
21.72000 4.221
21.74000 -0.113
21.76000 2.202
21.78000 3.919
21.80000 4.346
21.82000 -1.017
21.84000 -4.115
21.86000 -1.119
21.88000 -0.583
21.90000 3.305
21.92000 11.025
21.94000 6.754
21.96000 5.262
21.98000 6.537
22.00000 5.411
22.02000 3.281
22.04000 -1.622
22.06000 -1.190
22.08000 5.256
22.10000 -0.647
22.12000 -1.830
22.14000 2.166
22.16000 3.744
22.18000 1.731
22.20000 1.123
22.22000 2.396
22.24000 4.759
22.26000 5.282
22.28000 4.588
22.30000 0.014
22.32000 3.897
22.34000 -3.257
22.36000 -3.473
22.38000 0.408
22.40000 2.631
22.42000 5.652
22.44000 1.212
22.46000 -2.295
22.48000 4.497
22.50000 7.576
22.52000 5.334
22.54000 5.505
22.56000 3.009
22.58000 1.908
22.60000 4.203
22.62000 2.101
22.64000 0.775
22.66000 3.494
22.68000 1.856
22.70000 1.920
22.72000 4.392
22.74000 8.544
22.76000 0.880
22.78000 -2.986
22.80000 -3.914
22.82000 -1.796
22.84000 2.271
22.86000 2.432
22.88000 5.857
22.90000 2.895
22.92000 -2.424
22.94000 -1.235
22.96000 3.166
22.98000 4.684
23.00000 3.363
23.02000 -0.371
23.04000 0.097
23.06000 0.519
23.08000 3.081
23.10000 -1.255
23.12000 -1.586
23.14000 5.202
23.16000 9.760
23.18000 5.063
23.20000 0.667
23.22000 0.089
23.24000 3.246
23.26000 4.412
23.28000 3.838
23.30000 11.819
23.32000 7.550
23.34000 2.145
23.36000 8.200
23.38000 8.478
23.40000 10.918
23.42000 4.369
23.44000 4.507
23.46000 4.602
23.48000 5.137
23.50000 0.431
23.52000 4.455
23.54000 4.476
23.56000 7.066
23.58000 8.416
23.60000 -1.324
23.62000 -3.995
23.64000 -0.938
23.66000 0.827
23.68000 -1.008
23.70000 4.019
23.72000 2.572
23.74000 3.078
23.76000 10.048
23.78000 2.193
23.80000 0.345
23.82000 1.647
23.84000 4.686
23.86000 4.602
23.88000 5.780
23.90000 0.775
23.92000 -3.489
23.94000 0.256
23.96000 2.055
23.98000 6.787
24.00000 11.832
24.02000 11.013
24.04000 5.507
24.06000 -3.971
24.08000 -2.261
24.10000 0.724
24.12000 9.907
24.14000 7.768
24.16000 5.425
24.18000 3.618
24.20000 0.925
24.22000 1.217
24.24000 1.241
24.26000 7.341
24.28000 4.392
24.30000 -0.711
24.32000 3.236
24.34000 10.031
24.36000 9.095
24.38000 5.016
24.40000 4.900
24.42000 3.551
24.44000 -1.577
24.46000 0.691
24.48000 1.301
24.50000 -1.991
24.52000 -0.092
24.54000 0.111
24.56000 -1.065
24.58000 5.138
24.60000 6.852
24.62000 -0.263
24.64000 3.975
24.66000 1.628
24.68000 3.796
24.70000 2.706
24.72000 2.757
24.74000 -0.733
24.76000 -3.063
24.78000 -1.168
24.80000 -1.923
24.82000 1.144
24.84000 2.437
24.86000 -0.868
24.88000 2.392
24.90000 3.530
24.92000 -0.160
24.94000 4.669
24.96000 2.525
24.98000 2.026
25.00000 3.955
25.02000 0.633
25.04000 2.739
25.06000 6.674
25.08000 5.950
25.10000 2.561
25.12000 5.225
25.14000 5.120
25.16000 5.652
25.18000 1.125
25.20000 0.684
25.22000 -3.907
25.24000 -0.566
25.26000 1.845
25.28000 3.807
25.30000 3.566
25.32000 0.956
25.34000 2.850
25.36000 4.999
25.38000 5.250
25.40000 7.629
25.42000 7.065
25.44000 -0.148
25.46000 -2.251
25.48000 -2.967
25.50000 -2.047
25.52000 3.120
25.54000 4.837
25.56000 7.823
25.58000 3.059
25.60000 1.837
25.62000 3.633
25.64000 2.775
25.66000 4.520
25.68000 6.398
25.70000 5.601
25.72000 6.157
25.74000 4.763
25.76000 -0.338
25.78000 -2.999
25.80000 1.792
25.82000 5.018
25.84000 3.217
25.86000 -3.740
25.88000 -1.982
25.90000 -1.560
25.92000 1.305
25.94000 1.397
25.96000 2.993
25.98000 1.480
26.00000 8.388
26.02000 5.794
26.04000 0.394
26.06000 -0.836
26.08000 2.593
26.10000 3.747
26.12000 2.125
26.14000 -3.001
26.16000 1.157
26.18000 1.299
26.20000 -3.879
26.22000 -3.668
26.24000 -1.023
26.26000 3.278
26.28000 0.388
26.30000 2.573
26.32000 4.060
26.34000 2.471
26.36000 1.050
26.38000 -1.309
26.40000 6.146
26.42000 6.317
26.44000 2.633
26.46000 0.191
26.48000 5.201
26.50000 9.092
26.52000 5.488
26.54000 3.316
26.56000 2.231
26.58000 3.240
26.60000 3.713
26.62000 3.781
26.64000 3.348
26.66000 -3.856
26.68000 -0.428
26.70000 5.254
26.72000 6.352
26.74000 6.395
26.76000 6.270
26.78000 3.869
26.80000 0.515
26.82000 2.244
26.84000 0.426
26.86000 -3.494
26.88000 -2.243
26.90000 -0.297
26.92000 2.468
26.94000 4.260
26.96000 3.114
26.98000 5.381
27.00000 5.258
27.02000 1.940
27.04000 0.444
27.06000 3.986
27.08000 3.796
27.10000 2.750
27.12000 0.063
27.14000 -1.151
27.16000 3.459
27.18000 0.035
27.20000 -3.560
27.22000 0.510
27.24000 0.676
27.26000 -2.484
27.28000 -3.396
27.30000 0.800
27.32000 7.709
27.34000 9.563
27.36000 5.453
27.38000 2.173
27.40000 2.297
27.42000 -1.929
27.44000 -3.809
27.46000 0.309
27.48000 5.608
27.50000 4.365
27.52000 -2.729
27.54000 2.315
27.56000 4.467
27.58000 4.029
27.60000 5.906
27.62000 5.395
27.64000 1.675
27.66000 3.329
27.68000 4.259
27.70000 3.240
27.72000 4.289
27.74000 -0.627
27.76000 0.849
27.78000 1.307
27.80000 2.692
27.82000 -0.892
27.84000 -0.950
27.86000 0.603
27.88000 -1.360
27.90000 -2.055
27.92000 0.832
27.94000 -1.740
27.96000 0.554
27.98000 0.754
28.00000 -0.052
28.02000 0.073
28.04000 0.059
28.06000 0.943
28.08000 -0.670
28.10000 -0.968
28.12000 -0.799
28.14000 3.050
28.16000 3.620
28.18000 6.246
28.20000 2.650
28.22000 2.285
28.24000 1.418
28.26000 -3.445
28.28000 -1.848
28.30000 2.146
28.32000 0.071
28.34000 -1.599
28.36000 0.120
28.38000 6.795
28.40000 1.358
28.42000 2.734
28.44000 2.831
28.46000 -2.380
28.48000 -0.161
28.50000 0.994
28.52000 1.711
28.54000 -1.958
28.56000 -0.502
28.58000 2.320
28.60000 0.131
28.62000 -0.691
28.64000 2.070
28.66000 2.233
28.68000 3.199
28.70000 4.111
28.72000 -0.467
28.74000 -1.055
28.76000 4.564
28.78000 8.039
28.80000 8.877
28.82000 6.067
28.84000 6.905
28.86000 9.215
28.88000 3.585
28.90000 1.273
28.92000 0.025
28.94000 4.239
28.96000 4.791
28.98000 8.493
29.00000 4.816
29.02000 2.317
29.04000 2.471
29.06000 5.747
29.08000 6.548
29.10000 1.580
29.12000 -3.701
29.14000 -3.575
29.16000 -2.128
29.18000 0.269
29.20000 1.041
29.22000 1.470
29.24000 -2.775
29.26000 -0.209
29.28000 3.430
29.30000 3.364
29.32000 5.482
29.34000 3.021
29.36000 -1.854
29.38000 -0.673
29.40000 6.825
29.42000 2.914
29.44000 0.457
29.46000 0.693
29.48000 -3.678
29.50000 5.003
29.52000 7.351
29.54000 3.256
29.56000 5.026
29.58000 4.693
29.60000 0.192
29.62000 -2.476
29.64000 2.167
29.66000 6.948
29.68000 3.450
29.70000 1.386
29.72000 3.163
29.74000 2.167
29.76000 3.677
29.78000 1.583
29.80000 2.959
29.82000 2.313
29.84000 5.300
29.86000 7.908
29.88000 0.702
29.90000 3.809
29.92000 2.424
29.94000 2.041
29.96000 3.898
29.98000 3.371
30.00000 8.113
30.02000 9.057
30.04000 6.458
30.06000 6.335
30.08000 4.133
30.10000 7.163
30.12000 5.670
30.14000 -1.645
30.16000 -1.079
30.18000 2.018
30.20000 7.684
30.22000 6.989
30.24000 -3.643
30.26000 -1.134
30.28000 0.865
30.30000 1.932
30.32000 1.803
30.34000 0.361
30.36000 7.158
30.38000 6.495
30.40000 4.415
30.42000 4.151
30.44000 3.579
30.46000 1.758
30.48000 2.448
30.50000 5.490
30.52000 7.613
30.54000 6.058
30.56000 4.468
30.58000 9.199
30.60000 5.740
30.62000 1.993
30.64000 5.372
30.66000 3.186
30.68000 -0.913
30.70000 -1.325
30.72000 3.509
30.74000 4.032
30.76000 3.440
30.78000 6.533
30.80000 -2.572
30.82000 -0.628
30.84000 -0.117
30.86000 0.918
30.88000 4.926
30.90000 5.746
30.92000 -1.462
30.94000 1.006
30.96000 4.042
30.98000 0.844
31.00000 3.030
31.02000 -0.409
31.04000 2.772
31.06000 6.299
31.08000 8.429
31.10000 3.544
31.12000 0.767
31.14000 5.500
31.16000 2.957
31.18000 2.514
31.20000 0.724
31.22000 1.823
31.24000 5.866
31.26000 5.963
31.28000 4.717
31.30000 3.703
31.32000 2.287
31.34000 0.474
31.36000 1.331
31.38000 5.563
31.40000 1.572
31.42000 -2.438
31.44000 3.941
31.46000 0.268
31.48000 0.354
31.50000 4.102
31.52000 5.838
31.54000 2.885
31.56000 0.689
31.58000 5.179
31.60000 1.320
31.62000 5.239
31.64000 -0.554
31.66000 0.554
31.68000 3.372
31.70000 2.099
31.72000 3.020
31.74000 9.637
31.76000 4.255
31.78000 -1.122
31.80000 0.981
31.82000 -0.376
31.84000 -3.573
31.86000 1.694
31.88000 2.402
31.90000 4.986
31.92000 9.055
31.94000 4.075
31.96000 5.192
31.98000 4.476
32.00000 2.843
32.02000 3.617
32.04000 1.258
32.06000 1.049
32.08000 4.180
32.10000 1.111
32.12000 5.598
32.14000 4.168
32.16000 1.693
32.18000 5.287
32.20000 4.876
32.22000 3.534
32.24000 8.175
32.26000 10.736
32.28000 7.014
32.30000 4.907
32.32000 5.206
32.34000 2.107
32.36000 4.143
32.38000 2.188
32.40000 1.442
32.42000 1.038
32.44000 2.148
32.46000 0.535
32.48000 1.582
32.50000 1.212
32.52000 -1.103
32.54000 2.250
32.56000 -1.277
32.58000 -3.497
32.60000 -1.073
32.62000 2.134
32.64000 2.203
32.66000 6.221
32.68000 9.234
32.70000 4.849
32.72000 6.635
32.74000 2.516
32.76000 -3.534
32.78000 4.216
32.80000 5.329
32.82000 7.758
32.84000 6.584
32.86000 2.449
32.88000 5.206
32.90000 1.901
32.92000 1.699
32.94000 0.548
32.96000 2.987
32.98000 4.546
33.00000 5.943
33.02000 6.415
33.04000 8.234
33.06000 1.323
33.08000 -3.517
33.10000 -2.918
33.12000 4.213
33.14000 7.528
33.16000 0.207
33.18000 1.634
33.20000 6.272
33.22000 3.575
33.24000 0.384
33.26000 4.589
33.28000 8.485
33.30000 4.142
33.32000 5.485
33.34000 1.027
33.36000 -0.477
33.38000 3.546
33.40000 2.408
33.42000 0.195
33.44000 3.849
33.46000 1.519
33.48000 6.405
33.50000 4.443
33.52000 5.633
33.54000 4.374
33.56000 6.588
33.58000 4.035
33.60000 6.374
33.62000 3.581
33.64000 2.385
33.66000 2.244
33.68000 2.961
33.70000 4.828
33.72000 2.496
33.74000 2.570
33.76000 8.422
33.78000 8.910
33.80000 7.279
33.82000 6.985
33.84000 3.593
33.86000 4.034
33.88000 2.034
33.90000 -1.112
33.92000 3.809
33.94000 -1.136
33.96000 -0.237
33.98000 -0.316
34.00000 3.978
34.02000 2.668
34.04000 1.761
34.06000 0.657
34.08000 0.707
34.10000 3.680
34.12000 6.024
34.14000 6.176
34.16000 2.287
34.18000 0.750
34.20000 -0.050
34.22000 -0.989
34.24000 2.641
34.26000 0.771
34.28000 -0.084
34.30000 3.678
34.32000 1.074
34.34000 0.971
34.36000 -0.344
34.38000 2.648
34.40000 1.185
34.42000 -0.170
34.44000 0.254
34.46000 1.586
34.48000 1.112
34.50000 3.230
34.52000 4.747
34.54000 1.644
34.56000 4.981
34.58000 1.483
34.60000 1.022
34.62000 -2.191
34.64000 -1.018
34.66000 6.237
34.68000 -0.235
34.70000 -2.198
34.72000 4.025
34.74000 3.626
34.76000 3.181
34.78000 2.724
34.80000 3.368
34.82000 6.314
34.84000 -0.473
34.86000 -1.741
34.88000 -0.259
34.90000 -0.800
34.92000 5.932
34.94000 6.621
34.96000 0.526
34.98000 -2.938
35.00000 0.179
35.02000 -0.209
35.04000 4.239
35.06000 3.505
35.08000 3.384
35.10000 4.830
35.12000 4.764
35.14000 2.094
35.16000 3.022
35.18000 0.135
35.20000 2.577
35.22000 5.208
35.24000 0.938
35.26000 -3.463
35.28000 0.223
35.30000 6.990
35.32000 5.422
35.34000 1.291
35.36000 1.023
35.38000 6.890
35.40000 -1.072
35.42000 -2.039
35.44000 -0.143
35.46000 -0.182
35.48000 1.539
35.50000 2.794
35.52000 3.307
35.54000 3.941
35.56000 2.123
35.58000 3.532
35.60000 4.086
35.62000 1.817
35.64000 2.352
35.66000 0.734
35.68000 1.641
35.70000 9.091
35.72000 10.375
35.74000 6.685
35.76000 2.878
35.78000 -0.390
35.80000 -0.892
35.82000 5.637
35.84000 7.334
35.86000 3.126
35.88000 0.786
35.90000 4.079
35.92000 1.892
35.94000 5.100
35.96000 -3.464
35.98000 -2.112
36.00000 -2.637
36.02000 -3.420
36.04000 1.251
36.06000 2.641
36.08000 -0.353
36.10000 0.304
36.12000 1.095
36.14000 2.133
36.16000 2.360
36.18000 0.501
36.20000 8.153
36.22000 6.691
36.24000 3.951
36.26000 -1.296
36.28000 0.175
36.30000 3.442
36.32000 6.864
36.34000 7.245
36.36000 8.625
36.38000 4.541
36.40000 2.694
36.42000 3.997
36.44000 5.198
36.46000 5.427
36.48000 2.319
36.50000 2.190
36.52000 4.605
36.54000 0.646
36.56000 2.505
36.58000 1.341
36.60000 0.106
36.62000 0.892
36.64000 0.164
36.66000 1.249
36.68000 4.709
36.70000 0.983
36.72000 0.685
36.74000 0.687
36.76000 -3.486
36.78000 0.375
36.80000 0.089
36.82000 -1.745
36.84000 2.354
36.86000 0.357
36.88000 0.121
36.90000 -2.586
36.92000 -3.447
36.94000 3.072
36.96000 6.186
36.98000 0.567
37.00000 1.450
37.02000 -1.670
37.04000 1.091
37.06000 1.928
37.08000 1.317
37.10000 2.331
37.12000 3.771
37.14000 4.866
37.16000 -1.320
37.18000 1.551
37.20000 4.878
37.22000 5.523
37.24000 3.627
37.26000 5.309
37.28000 4.190
37.30000 1.399
37.32000 -3.482
37.34000 -0.028
37.36000 1.859
37.38000 5.675
37.40000 3.786
37.42000 2.520
37.44000 0.698
37.46000 -0.185
37.48000 -1.366
37.50000 -0.388
37.52000 0.598
37.54000 0.868
37.56000 3.296
37.58000 0.465
37.60000 4.033
37.62000 7.724
37.64000 4.671
37.66000 2.025
37.68000 -0.106
37.70000 3.322
37.72000 4.778
37.74000 3.168
37.76000 -0.882
37.78000 1.009
37.80000 -0.961
37.82000 -2.564
37.84000 4.341
37.86000 4.930
37.88000 3.998
37.90000 1.797
37.92000 8.552
37.94000 7.931
37.96000 4.919
37.98000 2.838
38.00000 4.566
38.02000 3.763
38.04000 8.531
38.06000 6.620
38.08000 5.526
38.10000 10.591
38.12000 11.384
38.14000 11.336
38.16000 10.939
38.18000 11.195
38.20000 9.380
38.22000 12.609
38.24000 12.063
38.26000 11.548
38.28000 15.384
38.30000 9.600
38.32000 11.944
38.34000 16.466
38.36000 14.596
38.38000 13.293
38.40000 17.483
38.42000 13.138
38.44000 12.622
38.46000 15.130
38.48000 14.053
38.50000 19.430
38.52000 19.184
38.54000 17.628
38.56000 20.069
38.58000 18.492
38.60000 18.839
38.62000 23.063
38.64000 28.317
38.66000 21.069
38.68000 14.476
38.70000 15.538
38.72000 18.006
38.74000 17.812
38.76000 21.524
38.78000 18.295
38.80000 24.168
38.82000 28.134
38.84000 28.067
38.86000 22.418
38.88000 23.159
38.90000 21.847
38.92000 24.165
38.94000 29.074
38.96000 22.983
38.98000 21.866
39.00000 24.258
39.02000 30.721
39.04000 33.320
39.06000 33.439
39.08000 32.999
39.10000 30.391
39.12000 28.708
39.14000 35.674
39.16000 42.706
39.18000 41.608
39.20000 40.492
39.22000 38.433
39.24000 39.642
39.26000 41.310
39.28000 46.028
39.30000 47.806
39.32000 48.503
39.34000 47.353
39.36000 50.695
39.38000 52.095
39.40000 60.018
39.42000 64.275
39.44000 66.700
39.46000 65.749
39.48000 69.795
39.50000 72.179
39.52000 73.398
39.54000 80.457
39.56000 85.405
39.58000 87.694
39.60000 91.542
39.62000 93.831
39.64000 97.137
39.66000 105.507
39.68000 114.806
39.70000 116.225
39.72000 121.771
39.74000 130.694
39.76000 135.855
39.78000 140.102
39.80000 143.217
39.82000 160.213
39.84000 169.943
39.86000 181.722
39.88000 192.353
39.90000 199.497
39.92000 215.471
39.94000 226.826
39.96000 241.859
39.98000 257.841
40.00000 266.789
40.02000 274.946
40.04000 298.811
40.06000 319.205
40.08000 342.779
40.10000 359.550
40.12000 382.450
40.14000 411.389
40.16000 422.247
40.18000 441.584
40.20000 470.728
40.22000 504.472
40.24000 536.309
40.26000 549.188
40.28000 570.647
40.30000 592.229
40.32000 616.951
40.34000 649.755
40.36000 659.656
40.38000 666.927
40.40000 685.978
40.42000 703.421
40.44000 723.397
40.46000 734.014
40.48000 733.946
40.50000 743.850
40.52000 738.692
40.54000 734.721
40.56000 723.240
40.58000 725.631
40.60000 719.290
40.62000 699.349
40.64000 694.981
40.66000 691.172
40.68000 674.411
40.70000 651.337
40.72000 629.261
40.74000 607.711
40.76000 579.708
40.78000 558.920
40.80000 552.016
40.82000 528.300
40.84000 508.038
40.86000 489.641
40.88000 469.204
40.90000 438.949
40.92000 412.068
40.94000 393.884
40.96000 380.947
40.98000 365.695
41.00000 343.239
41.02000 330.514
41.04000 310.501
41.06000 294.047
41.08000 280.467
41.10000 263.798
41.12000 250.186
41.14000 240.075
41.16000 231.731
41.18000 221.500
41.20000 207.589
41.22000 192.406
41.24000 186.403
41.26000 175.474
41.28000 159.425
41.30000 149.886
41.32000 143.292
41.34000 132.047
41.36000 125.695
41.38000 121.561
41.40000 113.838
41.42000 106.845
41.44000 109.489
41.46000 101.685
41.48000 94.144
41.50000 89.077
41.52000 85.218
41.54000 86.395
41.56000 83.807
41.58000 76.768
41.60000 74.806
41.62000 72.181
41.64000 65.538
41.66000 63.788
41.68000 60.283
41.70000 55.548
41.72000 52.057
41.74000 48.837
41.76000 51.455
41.78000 53.543
41.80000 51.618
41.82000 49.431
41.84000 46.157
41.86000 41.308
41.88000 40.631
41.90000 36.046
41.92000 38.537
41.94000 38.940
41.96000 33.706
41.98000 28.112
42.00000 32.312
42.02000 31.200
42.04000 29.888
42.06000 25.622
42.08000 24.168
42.10000 19.969
42.12000 22.622
42.14000 24.630
42.16000 24.600
42.18000 20.924
42.20000 19.665
42.22000 13.110
42.24000 11.739
42.26000 13.850
42.28000 11.293
42.30000 12.254
42.32000 13.945
42.34000 13.779
42.36000 12.862
42.38000 11.475
42.40000 11.196
42.42000 10.689
42.44000 11.417
42.46000 12.730
42.48000 10.230
42.50000 5.542
42.52000 5.368
42.54000 7.744
42.56000 5.159
42.58000 5.554
42.60000 4.085
42.62000 6.863
42.64000 3.610
42.66000 6.011
42.68000 7.216
42.70000 8.970
42.72000 6.303
42.74000 6.409
42.76000 7.202
42.78000 4.496
42.80000 10.135
42.82000 11.417
42.84000 8.501
42.86000 11.851
42.88000 2.598
42.90000 -0.197
42.92000 3.535
42.94000 6.718
42.96000 4.691
42.98000 4.233
43.00000 4.258
43.02000 3.943
43.04000 4.165
43.06000 1.032
43.08000 -2.524
43.10000 -0.463
43.12000 -2.306
43.14000 -0.302
43.16000 1.390
43.18000 0.173
43.20000 -3.441
43.22000 -1.118
43.24000 2.465
43.26000 3.693
43.28000 6.933
43.30000 6.388
43.32000 5.851
43.34000 7.550
43.36000 6.051
43.38000 -0.158
43.40000 1.310
43.42000 1.888
43.44000 3.095
43.46000 0.893
43.48000 -0.713
43.50000 0.828
43.52000 3.611
43.54000 0.883
43.56000 3.113
43.58000 2.917
43.60000 1.537
43.62000 1.308
43.64000 -1.655
43.66000 -2.009
43.68000 -2.236
43.70000 0.085
43.72000 -0.050
43.74000 -0.449
43.76000 4.458
43.78000 2.100
43.80000 0.091
43.82000 -0.704
43.84000 1.648
43.86000 1.074
43.88000 -0.442
43.90000 -3.344
43.92000 0.847
43.94000 -1.506
43.96000 0.042
43.98000 2.082
44.00000 0.025
44.02000 0.055
44.04000 0.478
44.06000 -2.090
44.08000 -0.505
44.10000 -0.447
44.12000 1.575
44.14000 0.406
44.16000 1.605
44.18000 0.250
44.20000 0.608
44.22000 0.453
44.24000 3.005
44.26000 1.057
44.28000 5.628
44.30000 4.251
44.32000 2.385
44.34000 1.290
44.36000 1.007
44.38000 2.517
44.40000 -0.839
44.42000 -0.316
44.44000 3.505
44.46000 3.000
44.48000 -0.567
44.50000 -1.911
44.52000 -2.696
44.54000 0.844
44.56000 4.742
44.58000 1.143
44.60000 1.178
44.62000 1.010
44.64000 -3.298
44.66000 -2.117
44.68000 -1.214
44.70000 -0.631
44.72000 -0.663
44.74000 -1.793
44.76000 0.391
44.78000 0.938
44.80000 0.456
44.82000 -3.094
44.84000 -3.290
44.86000 -2.073
44.88000 -2.363
44.90000 -1.434
44.92000 0.435
44.94000 3.199
44.96000 4.723
44.98000 1.864
45.00000 0.720
45.02000 -0.135
45.04000 0.724
45.06000 -2.394
45.08000 -1.316
45.10000 -0.265
45.12000 -0.158
45.14000 -1.721
45.16000 2.545
45.18000 3.644
45.20000 0.668
45.22000 -2.373
45.24000 -0.718
45.26000 -2.405
45.28000 -0.227
45.30000 3.279
45.32000 3.009
45.34000 1.691
45.36000 5.011
45.38000 2.127
45.40000 3.357
45.42000 9.983
45.44000 7.416
45.46000 5.244
45.48000 4.620
45.50000 5.257
45.52000 6.776
45.54000 5.100
45.56000 2.647
45.58000 6.982
45.60000 7.470
45.62000 3.724
45.64000 2.507
45.66000 5.221
45.68000 7.587
45.70000 9.445
45.72000 9.081
45.74000 10.166
45.76000 13.656
45.78000 13.056
45.80000 14.263
45.82000 6.255
45.84000 8.343
45.86000 14.333
45.88000 9.773
45.90000 8.522
45.92000 11.020
45.94000 14.358
45.96000 12.162
45.98000 17.210
46.00000 22.529
46.02000 19.551
46.04000 18.147
46.06000 16.328
46.08000 17.813
46.10000 19.127
46.12000 17.737
46.14000 26.129
46.16000 26.476
46.18000 22.985
46.20000 23.307
46.22000 29.024
46.24000 23.914
46.26000 23.878
46.28000 29.015
46.30000 34.950
46.32000 34.525
46.34000 34.259
46.36000 33.965
46.38000 35.995
46.40000 41.439
46.42000 40.172
46.44000 39.497
46.46000 45.527
46.48000 48.337
46.50000 45.379
46.52000 49.760
46.54000 53.346
46.56000 55.535
46.58000 57.986
46.60000 63.965
46.62000 60.509
46.64000 56.833
46.66000 60.328
46.68000 71.862
46.70000 71.297
46.72000 75.397
46.74000 80.875
46.76000 83.260
46.78000 81.637
46.80000 80.758
46.82000 79.565
46.84000 87.702
46.86000 85.783
46.88000 89.500
46.90000 87.063
46.92000 99.465
46.94000 99.477
46.96000 98.814
46.98000 105.123
47.00000 107.116
47.02000 100.837
47.04000 106.516
47.06000 109.679
47.08000 102.278
47.10000 111.521
47.12000 113.446
47.14000 110.522
47.16000 107.776
47.18000 108.019
47.20000 116.830
47.22000 112.737
47.24000 101.518
47.26000 101.379
47.28000 100.788
47.30000 96.644
47.32000 95.047
47.34000 102.440
47.36000 98.195
47.38000 89.452
47.40000 92.279
47.42000 91.618
47.44000 93.123
47.46000 85.398
47.48000 82.466
47.50000 79.867
47.52000 77.909
47.54000 76.803
47.56000 73.868
47.58000 69.051
47.60000 69.599
47.62000 66.268
47.64000 65.162
47.66000 60.813
47.68000 55.466
47.70000 55.995
47.72000 54.321
47.74000 50.311
47.76000 43.321
47.78000 40.325
47.80000 38.431
47.82000 41.754
47.84000 36.140
47.86000 38.633
47.88000 41.950
47.90000 38.710
47.92000 35.414
47.94000 29.226
47.96000 31.950
47.98000 26.619
48.00000 26.927
48.02000 23.326
48.04000 18.264
48.06000 24.070
48.08000 20.512
48.10000 22.523
48.12000 26.444
48.14000 23.526
48.16000 18.517
48.18000 18.833
48.20000 18.701
48.22000 17.837
48.24000 20.698
48.26000 16.389
48.28000 9.484
48.30000 6.950
48.32000 9.588
48.34000 5.494
48.36000 7.978
48.38000 6.997
48.40000 7.477
48.42000 10.054
48.44000 9.901
48.46000 8.990
48.48000 8.404
48.50000 2.777
48.52000 2.858
48.54000 1.344
48.56000 7.348
48.58000 8.840
48.60000 6.426
48.62000 6.528
48.64000 5.010
48.66000 3.641
48.68000 6.339
48.70000 4.918
48.72000 3.083
48.74000 6.990
48.76000 10.853
48.78000 4.566
48.80000 -0.994
48.82000 -1.331
48.84000 -0.580
48.86000 7.107
48.88000 8.590
48.90000 1.201
48.92000 -2.062
48.94000 3.797
48.96000 8.983
48.98000 3.889
49.00000 0.613
49.02000 -2.577
49.04000 -2.835
49.06000 4.363
49.08000 8.062
49.10000 3.690
49.12000 -0.234
49.14000 -0.182
49.16000 3.523
49.18000 8.138
49.20000 7.970
49.22000 7.437
49.24000 2.078
49.26000 6.009
49.28000 3.277
49.30000 0.764
49.32000 2.575
49.34000 3.125
49.36000 -0.277
49.38000 -2.802
49.40000 -1.982
49.42000 4.244
49.44000 6.075
49.46000 3.611
49.48000 1.684
49.50000 1.628
49.52000 3.334
49.54000 2.957
49.56000 5.828
49.58000 0.770
49.60000 2.005
49.62000 0.674
49.64000 1.276
49.66000 -0.717
49.68000 4.116
49.70000 3.538
49.72000 1.659
49.74000 -0.427
49.76000 0.718
49.78000 4.601
49.80000 -2.286
49.82000 -1.455
49.84000 -1.915
49.86000 1.078
49.88000 -0.190
49.90000 3.520
49.92000 2.471
49.94000 3.134
49.96000 1.534
49.98000 3.922
50.00000 2.709
50.02000 4.380
50.04000 1.671
50.06000 4.014
50.08000 4.449
50.10000 4.999
50.12000 2.042
50.14000 0.579
50.16000 -2.219
50.18000 -2.721
50.20000 -0.110
50.22000 2.173
50.24000 -1.008
50.26000 0.386
50.28000 1.206
50.30000 3.622
50.32000 4.820
50.34000 5.512
50.36000 2.494
50.38000 1.416
50.40000 1.563
50.42000 4.263
50.44000 5.386
50.46000 0.187
50.48000 1.400
50.50000 -0.569
50.52000 2.082
50.54000 3.148
50.56000 1.889
50.58000 -2.691
50.60000 -0.972
50.62000 3.185
50.64000 2.151
50.66000 0.581
50.68000 -1.781
50.70000 -1.083
50.72000 3.017
50.74000 3.469
50.76000 4.377
50.78000 0.064
50.80000 2.188
50.82000 3.402
50.84000 2.425
50.86000 1.341
50.88000 5.596
50.90000 3.977
50.92000 3.810
50.94000 3.781
50.96000 1.979
50.98000 0.344
51.00000 2.234
51.02000 1.832
51.04000 0.212
51.06000 0.302
51.08000 1.642
51.10000 1.744
51.12000 2.356
51.14000 1.399
51.16000 -0.869
51.18000 -2.656
51.20000 -0.073
51.22000 0.201
51.24000 3.324
51.26000 -0.355
51.28000 -1.998
51.30000 -1.240
51.32000 1.153
51.34000 -1.093
51.36000 2.562
51.38000 0.744
51.40000 -0.237
51.42000 -0.752
51.44000 -2.637
51.46000 0.745
51.48000 0.621
51.50000 -0.392
51.52000 3.146
51.54000 3.777
51.56000 -0.289
51.58000 -0.047
51.60000 -1.682
51.62000 2.484
51.64000 2.362
51.66000 -1.341
51.68000 0.349
51.70000 0.368
51.72000 3.281
51.74000 3.035
51.76000 0.490
51.78000 2.429
51.80000 4.347
51.82000 2.569
51.84000 -2.579
51.86000 -2.621
51.88000 2.102
51.90000 4.033
51.92000 3.372
51.94000 0.535
51.96000 -0.310
51.98000 0.281
52.00000 6.668
52.02000 2.380
52.04000 -1.747
52.06000 2.072
52.08000 2.348
52.10000 2.420
52.12000 -1.326
52.14000 -2.614
52.16000 0.443
52.18000 3.451
52.20000 2.070
52.22000 2.834
52.24000 3.441
52.26000 1.463
52.28000 1.321
52.30000 -1.112
52.32000 -0.105
52.34000 1.358
52.36000 5.210
52.38000 0.541
52.40000 0.394
52.42000 2.403
52.44000 3.328
52.46000 2.787
52.48000 -1.548
52.50000 0.177
52.52000 0.559
52.54000 -0.266
52.56000 -0.784
52.58000 1.339
52.60000 1.762
52.62000 3.602
52.64000 3.460
52.66000 4.559
52.68000 2.354
52.70000 -1.128
52.72000 -0.041
52.74000 -1.384
52.76000 -1.218
52.78000 1.478
52.80000 0.418
52.82000 1.999
52.84000 1.935
52.86000 0.891
52.88000 5.224
52.90000 5.077
52.92000 4.258
52.94000 2.214
52.96000 1.374
52.98000 4.182
53.00000 5.207
53.02000 7.191
53.04000 4.434
53.06000 0.808
53.08000 -1.128
53.10000 -0.116
53.12000 0.040
53.14000 0.009
53.16000 4.921
53.18000 1.737
53.20000 -2.571
53.22000 0.893
53.24000 4.067
53.26000 5.006
53.28000 4.660
53.30000 3.890
53.32000 0.276
53.34000 2.370
53.36000 4.501
53.38000 7.581
53.40000 8.564
53.42000 4.200
53.44000 1.844
53.46000 3.216
53.48000 1.959
53.50000 -0.234
53.52000 -2.543
53.54000 -1.268
53.56000 3.264
53.58000 2.553
53.60000 2.067
53.62000 5.860
53.64000 4.949
53.66000 5.599
53.68000 2.297
53.70000 4.020
53.72000 4.070
53.74000 1.001
53.76000 1.080
53.78000 3.388
53.80000 6.523
53.82000 4.043
53.84000 5.099
53.86000 5.183
53.88000 0.221
53.90000 4.343
53.92000 6.189
53.94000 2.570
53.96000 3.269
53.98000 4.037
54.00000 3.051
54.02000 1.911
54.04000 5.008
54.06000 -0.748
54.08000 2.883
54.10000 5.634
54.12000 5.279
54.14000 4.634
54.16000 -0.971
54.18000 -2.529
54.20000 1.408
54.22000 3.620
54.24000 4.611
54.26000 4.677
54.28000 4.301
54.30000 3.432
54.32000 0.064
54.34000 0.953
54.36000 2.797
54.38000 2.845
54.40000 3.452
54.42000 4.864
54.44000 2.772
54.46000 0.771
54.48000 2.672
54.50000 -2.513
54.52000 1.108
54.54000 1.151
54.56000 -1.295
54.58000 2.679
54.60000 3.106
54.62000 1.563
54.64000 2.533
54.66000 7.983
54.68000 5.840
54.70000 4.188
54.72000 4.083
54.74000 2.788
54.76000 2.899
54.78000 6.632
54.80000 1.171
54.82000 -2.502
54.84000 0.505
54.86000 1.407
54.88000 -1.281
54.90000 1.645
54.92000 6.066
54.94000 1.453
54.96000 -1.599
54.98000 1.525
55.00000 0.450
55.02000 1.585
55.04000 5.935
55.06000 6.610
55.08000 2.670
55.10000 1.957
55.12000 0.636
55.14000 0.905
55.16000 1.041
55.18000 2.504
55.20000 4.131
55.22000 2.836
55.24000 3.189
55.26000 4.858
55.28000 5.062
55.30000 5.635
55.32000 5.289
55.34000 1.897
55.36000 0.916
55.38000 1.657
55.40000 0.991
55.42000 1.598
55.44000 2.009
55.46000 -0.615
55.48000 1.216
55.50000 2.846
55.52000 1.204
55.54000 2.535
55.56000 3.521
55.58000 -0.590
55.60000 0.440
55.62000 3.138
55.64000 2.587
55.66000 -2.018
55.68000 0.362
55.70000 3.044
55.72000 0.255
55.74000 -0.377
55.76000 0.720
55.78000 2.435
55.80000 -0.908
55.82000 0.368
55.84000 1.118
55.86000 5.549
55.88000 4.921
55.90000 0.537
55.92000 2.308
55.94000 8.781
55.96000 3.527
55.98000 0.920
56.00000 1.525
56.02000 3.031
56.04000 4.975
56.06000 -0.233
56.08000 2.101
56.10000 0.209
56.12000 6.352
56.14000 6.405
56.16000 4.231
56.18000 4.871
56.20000 5.142
56.22000 -0.256
56.24000 0.554
56.26000 -1.159
56.28000 0.619
56.30000 -0.737
56.32000 4.203
56.34000 6.081
56.36000 2.777
56.38000 6.191
56.40000 5.797
56.42000 -2.443
56.44000 1.633
56.46000 5.578
56.48000 6.153
56.50000 4.209
56.52000 8.049
56.54000 2.794
56.56000 2.839
56.58000 3.263
56.60000 -0.061
56.62000 -2.427
56.64000 -0.980
56.66000 3.976
56.68000 3.766
56.70000 3.950
56.72000 5.233
56.74000 3.902
56.76000 4.423
56.78000 2.288
56.80000 -0.278
56.82000 0.794
56.84000 -0.043
56.86000 4.116
56.88000 6.023
56.90000 3.582
56.92000 4.445
56.94000 0.956
56.96000 4.470
56.98000 4.740
57.00000 0.520
57.02000 2.269
57.04000 3.824
57.06000 2.915
57.08000 3.676
57.10000 -0.458
57.12000 2.566
57.14000 3.955
57.16000 3.560
57.18000 4.549
57.20000 6.055
57.22000 5.208
57.24000 2.431
57.26000 0.209
57.28000 3.050
57.30000 3.100
57.32000 1.714
57.34000 5.095
57.36000 6.996
57.38000 4.567
57.40000 1.363
57.42000 0.410
57.44000 2.207
57.46000 3.120
57.48000 1.662
57.50000 1.108
57.52000 1.788
57.54000 -0.474
57.56000 0.965
57.58000 1.601
57.60000 0.154
57.62000 -0.397
57.64000 -0.651
57.66000 0.931
57.68000 -1.358
57.70000 -0.100
57.72000 2.378
57.74000 4.654
57.76000 5.112
57.78000 4.712
57.80000 2.742
57.82000 4.792
57.84000 5.646
57.86000 3.846
57.88000 2.439
57.90000 2.318
57.92000 3.366
57.94000 1.718
57.96000 4.159
57.98000 3.506
58.00000 6.228
58.02000 0.569
58.04000 -1.368
58.06000 -2.359
58.08000 -0.464
58.10000 0.942
58.12000 -1.722
58.14000 -2.418
58.16000 2.556
58.18000 1.060
58.20000 -0.257
58.22000 -1.454
58.24000 -1.848
58.26000 0.760
58.28000 1.490
58.30000 -0.615
58.32000 1.113
58.34000 2.724
58.36000 5.138
58.38000 2.195
58.40000 2.619
58.42000 2.321
58.44000 4.512
58.46000 3.412
58.48000 3.494
58.50000 2.253
58.52000 2.300
58.54000 -1.160
58.56000 -0.023
58.58000 2.363
58.60000 2.974
58.62000 1.423
58.64000 2.464
58.66000 2.524
58.68000 0.510
58.70000 1.268
58.72000 4.039
58.74000 3.238
58.76000 0.883
58.78000 2.112
58.80000 2.480
58.82000 2.520
58.84000 -0.794
58.86000 -1.301
58.88000 1.362
58.90000 2.394
58.92000 2.582
58.94000 1.358
58.96000 -0.783
58.98000 2.054
59.00000 -0.564
59.02000 -1.432
59.04000 -0.884
59.06000 2.173
59.08000 1.207
59.10000 -0.851
59.12000 3.117
59.14000 1.636
59.16000 -2.401
59.18000 2.700
59.20000 3.004
59.22000 2.653
59.24000 3.219
59.26000 3.710
59.28000 0.283
59.30000 1.234
59.32000 3.976
59.34000 1.254
59.36000 1.417
59.38000 2.947
59.40000 2.122
59.42000 4.377
59.44000 3.481
59.46000 3.137
59.48000 7.431
59.50000 5.228
59.52000 0.498
59.54000 -0.879
59.56000 1.548
59.58000 1.419
59.60000 1.504
59.62000 1.522
59.64000 3.310
59.66000 3.348
59.68000 4.359
59.70000 4.524
59.72000 3.271
59.74000 0.805
59.76000 -1.702
59.78000 -0.705
59.80000 3.749
59.82000 4.949
59.84000 0.916
59.86000 3.911
59.88000 3.315
59.90000 3.213
59.92000 1.033
59.94000 3.165
59.96000 3.640
59.98000 3.680
60.00000 1.905
60.02000 -0.071
60.04000 -2.343
60.06000 -0.770
60.08000 1.444
60.10000 4.265
60.12000 1.154
60.14000 4.222
60.16000 4.132
60.18000 2.325
60.20000 2.246
60.22000 5.208
60.24000 6.826
60.26000 5.179
60.28000 2.186
60.30000 1.747
60.32000 2.226
60.34000 1.828
60.36000 2.782
60.38000 4.162
60.40000 2.970
60.42000 4.861
60.44000 8.974
60.46000 7.933
60.48000 4.248
60.50000 -0.437
60.52000 -1.180
60.54000 1.033
60.56000 5.849
60.58000 1.553
60.60000 1.253
60.62000 1.760
60.64000 -1.842
60.66000 -0.219
60.68000 2.453
60.70000 4.262
60.72000 6.102
60.74000 3.452
60.76000 0.369
60.78000 0.014
60.80000 -2.348
60.82000 -0.637
60.84000 1.364
60.86000 3.859
60.88000 5.618
60.90000 0.202
60.92000 1.393
60.94000 3.007
60.96000 3.617
60.98000 3.915
61.00000 0.495
61.02000 0.861
61.04000 1.039
61.06000 4.099
61.08000 0.654
61.10000 -0.478
61.12000 -1.565
61.14000 -0.799
61.16000 1.264
61.18000 -0.529
61.20000 0.442
61.22000 -0.839
61.24000 -1.809
61.26000 -1.579
61.28000 1.683
61.30000 2.901
61.32000 4.432
61.34000 4.264
61.36000 2.899
61.38000 -0.342
61.40000 2.572
61.42000 5.360
61.44000 1.831
61.46000 3.271
61.48000 4.734
61.50000 1.311
61.52000 -0.741
61.54000 -0.842
61.56000 0.418
61.58000 -2.338
61.60000 2.355
61.62000 1.893
61.64000 0.888
61.66000 1.304
61.68000 1.100
61.70000 -0.527
61.72000 0.042
61.74000 4.851
61.76000 4.530
61.78000 2.223
61.80000 -1.221
61.82000 1.036
61.84000 0.285
61.86000 -1.643
61.88000 0.317
61.90000 0.781
61.92000 2.363
61.94000 1.783
61.96000 2.343
61.98000 1.498
62.00000 -1.285
62.02000 -1.705
62.04000 1.805
62.06000 0.243
62.08000 3.726
62.10000 3.457
62.12000 0.127
62.14000 1.269
62.16000 -1.269
62.18000 -2.303
62.20000 -1.132
62.22000 2.857
62.24000 7.664
62.26000 4.109
62.28000 4.270
62.30000 3.681
62.32000 3.293
62.34000 4.209
62.36000 0.481
62.38000 1.520
62.40000 -2.283
62.42000 1.007
62.44000 7.784
62.46000 4.467
62.48000 3.221
62.50000 -0.146
62.52000 1.047
62.54000 5.633
62.56000 5.141
62.58000 5.364
62.60000 0.820
62.62000 1.422
62.64000 -0.066
62.66000 2.030
62.68000 4.968
62.70000 4.723
62.72000 2.593
62.74000 3.224
62.76000 1.525
62.78000 -0.236
62.80000 0.467
62.82000 5.416
62.84000 6.941
62.86000 4.255
62.88000 2.813
62.90000 6.225
62.92000 2.228
62.94000 0.919
62.96000 4.826
62.98000 6.145
63.00000 1.064
63.02000 -0.917
63.04000 4.334
63.06000 5.304
63.08000 5.865
63.10000 4.892
63.12000 5.228
63.14000 4.252
63.16000 3.525
63.18000 3.497
63.20000 5.404
63.22000 4.507
63.24000 3.237
63.26000 0.842
63.28000 -0.163
63.30000 -1.942
63.32000 0.955
63.34000 3.111
63.36000 4.465
63.38000 2.835
63.40000 3.996
63.42000 1.859
63.44000 3.898
63.46000 4.076
63.48000 2.971
63.50000 0.247
63.52000 -2.281
63.54000 1.507
63.56000 3.210
63.58000 4.118
63.60000 2.340
63.62000 1.412
63.64000 2.797
63.66000 2.307
63.68000 1.544
63.70000 3.210
63.72000 1.650
63.74000 0.713
63.76000 2.308
63.78000 3.370
63.80000 2.124
63.82000 1.701
63.84000 2.968
63.86000 3.367
63.88000 3.477
63.90000 -0.780
63.92000 0.367
63.94000 2.942
63.96000 6.122
63.98000 4.771
64.00000 5.240
64.02000 2.615
64.04000 1.877
64.06000 2.401
64.08000 1.976
64.10000 2.279
64.12000 0.022
64.14000 2.762
64.16000 3.141
64.18000 4.807
64.20000 4.651
64.22000 1.322
64.24000 0.169
64.26000 0.181
64.28000 1.043
64.30000 1.109
64.32000 1.895
64.34000 1.613
64.36000 2.069
64.38000 2.269
64.40000 1.637
64.42000 -0.408
64.44000 1.285
64.46000 0.140
64.48000 -0.269
64.50000 -0.465
64.52000 1.516
64.54000 1.103
64.56000 1.456
64.58000 4.588
64.60000 5.053
64.62000 2.804
64.64000 1.443
64.66000 2.783
64.68000 4.968
64.70000 3.736
64.72000 6.008
64.74000 4.728
64.76000 4.456
64.78000 0.019
64.80000 -2.311
64.82000 2.582
64.84000 2.455
64.86000 4.347
64.88000 1.507
64.90000 -0.500
64.92000 -0.025
64.94000 2.527
64.96000 -1.155
64.98000 -0.476
65.00000 -0.367
65.02000 1.102
65.04000 1.372
65.06000 -0.633
65.08000 3.509
65.10000 3.567
65.12000 3.630
65.14000 2.966
65.16000 0.902
65.18000 -2.026
65.20000 0.705
65.22000 5.846
65.24000 4.085
65.26000 -0.346
65.28000 1.886
65.30000 2.048
65.32000 3.999
65.34000 0.625
65.36000 -0.102
65.38000 1.450
65.40000 1.287
65.42000 1.229
65.44000 -1.081
65.46000 0.343
65.48000 -1.956
65.50000 -2.208
65.52000 -1.884
65.54000 -1.297
65.56000 0.021
65.58000 -0.159
65.60000 -0.544
65.62000 0.893
65.64000 2.792
65.66000 4.475
65.68000 3.513
65.70000 0.191
65.72000 0.437
65.74000 2.847
65.76000 0.693
65.78000 0.272
65.80000 -0.895
65.82000 1.283
65.84000 0.418
65.86000 1.349
65.88000 2.422
65.90000 -1.258
65.92000 -0.663
65.94000 -0.104
65.96000 1.166
65.98000 1.108
66.00000 1.859
66.02000 4.878
66.04000 1.922
66.06000 1.813
66.08000 2.721
66.10000 2.561
66.12000 2.209
66.14000 1.449
66.16000 3.643
66.18000 3.168
66.20000 2.043
66.22000 1.634
66.24000 0.272
66.26000 0.759
66.28000 1.436
66.30000 1.408
66.32000 1.612
66.34000 0.600
66.36000 -2.316
66.38000 -0.662
66.40000 1.434
66.42000 2.768
66.44000 2.913
66.46000 2.274
66.48000 -1.923
66.50000 0.536
66.52000 2.795
66.54000 2.311
66.56000 -0.389
66.58000 -0.455
66.60000 0.933
66.62000 -0.702
66.64000 -0.359
66.66000 -0.383
66.68000 -0.285
66.70000 1.126
66.72000 -0.550
66.74000 2.448
66.76000 1.058
66.78000 -2.334
66.80000 0.537
66.82000 1.661
66.84000 0.917
66.86000 -0.173
66.88000 2.244
66.90000 0.904
66.92000 3.735
66.94000 2.580
66.96000 1.659
66.98000 0.693
67.00000 -2.339
67.02000 1.931
67.04000 1.269
67.06000 3.008
67.08000 3.058
67.10000 1.834
67.12000 0.112
67.14000 1.194
67.16000 4.382
67.18000 1.529
67.20000 2.026
67.22000 3.287
67.24000 1.930
67.26000 1.188
67.28000 1.830
67.30000 0.722
67.32000 -2.366
67.34000 1.458
67.36000 1.990
67.38000 1.363
67.40000 -1.368
67.42000 0.488
67.44000 3.457
67.46000 2.490
67.48000 0.978
67.50000 2.949
67.52000 1.467
67.54000 1.274
67.56000 -1.567
67.58000 -2.152
67.60000 0.036
67.62000 2.034
67.64000 0.888
67.66000 2.999
67.68000 2.364
67.70000 0.781
67.72000 2.512
67.74000 0.789
67.76000 2.509
67.78000 3.150
67.80000 3.139
67.82000 8.282
67.84000 4.539
67.86000 1.984
67.88000 3.008
67.90000 1.995
67.92000 4.823
67.94000 4.884
67.96000 2.097
67.98000 4.302
68.00000 6.531
68.02000 6.274
68.04000 5.445
68.06000 7.732
68.08000 6.610
68.10000 4.539
68.12000 2.807
68.14000 5.601
68.16000 3.016
68.18000 5.939
68.20000 9.928
68.22000 9.902
68.24000 7.591
68.26000 8.475
68.28000 9.059
68.30000 8.787
68.32000 13.416
68.34000 9.573
68.36000 11.250
68.38000 13.055
68.40000 16.070
68.42000 16.379
68.44000 16.250
68.46000 18.747
68.48000 16.298
68.50000 14.875
68.52000 17.215
68.54000 18.794
68.56000 20.288
68.58000 20.229
68.60000 22.019
68.62000 21.698
68.64000 22.302
68.66000 26.737
68.68000 25.145
68.70000 24.974
68.72000 22.847
68.74000 23.786
68.76000 23.498
68.78000 25.437
68.80000 27.153
68.82000 27.546
68.84000 27.336
68.86000 25.129
68.88000 28.100
68.90000 29.805
68.92000 30.494
68.94000 28.486
68.96000 24.857
68.98000 28.751
69.00000 29.883
69.02000 30.412
69.04000 33.624
69.06000 30.788
69.08000 26.690
69.10000 25.611
69.12000 23.810
69.14000 26.091
69.16000 25.190
69.18000 22.444
69.20000 21.662
69.22000 21.658
69.24000 22.355
69.26000 23.970
69.28000 22.951
69.30000 22.407
69.32000 18.522
69.34000 18.505
69.36000 14.779
69.38000 15.325
69.40000 13.735
69.42000 14.832
69.44000 14.789
69.46000 14.988
69.48000 12.105
69.50000 8.756
69.52000 11.769
69.54000 8.432
69.56000 7.911
69.58000 12.460
69.60000 10.960
69.62000 6.332
69.64000 9.611
69.66000 8.946
69.68000 2.691
69.70000 4.293
69.72000 5.969
69.74000 6.672
69.76000 4.048
69.78000 4.392
69.80000 3.411
69.82000 6.632
69.84000 6.822
69.86000 4.254
69.88000 2.393
69.90000 1.854
69.92000 3.171
69.94000 2.820
69.96000 1.057
69.98000 1.421
70.00000 0.309
70.02000 1.372
70.04000 0.524
70.06000 2.263
70.08000 3.450
70.10000 2.691
70.12000 1.627
70.14000 1.828
70.16000 1.553
70.18000 1.555
70.20000 0.826
70.22000 -0.168
70.24000 -2.328
70.26000 -0.180
70.28000 -0.874
70.30000 0.644
70.32000 0.229
70.34000 -0.192
70.36000 -0.460
70.38000 0.135
70.40000 -0.006
70.42000 1.801
70.44000 0.391
70.46000 3.926
70.48000 3.713
70.50000 -0.040
70.52000 2.333
70.54000 0.582
70.56000 -0.794
70.58000 3.240
70.60000 2.006
70.62000 2.230
70.64000 2.446
70.66000 4.929
70.68000 0.967
70.70000 -1.473
70.72000 -0.672
70.74000 -0.901
70.76000 -1.444
70.78000 3.232
70.80000 4.387
70.82000 3.006
70.84000 2.733
70.86000 0.371
70.88000 0.050
70.90000 -0.568
70.92000 1.826
70.94000 5.227
70.96000 4.107
70.98000 -0.300
71.00000 1.777
71.02000 3.339
71.04000 2.035
71.06000 2.210
71.08000 2.688
71.10000 1.786
71.12000 0.627
71.14000 1.752
71.16000 -0.689
71.18000 0.606
71.20000 -1.919
71.22000 -1.138
71.24000 -2.223
71.26000 0.903
71.28000 4.489
71.30000 1.176
71.32000 -0.663
71.34000 2.080
71.36000 1.734
71.38000 2.284
71.40000 1.295
71.42000 1.399
71.44000 3.552
71.46000 5.048
71.48000 1.328
71.50000 1.511
71.52000 -0.034
71.54000 1.517
71.56000 3.761
71.58000 1.436
71.60000 1.555
71.62000 2.837
71.64000 4.615
71.66000 4.637
71.68000 3.355
71.70000 2.927
71.72000 -0.965
71.74000 -0.223
71.76000 4.388
71.78000 2.599
71.80000 -1.126
71.82000 0.330
71.84000 2.461
71.86000 1.158
71.88000 1.657
71.90000 0.396
71.92000 -1.708
71.94000 0.604
71.96000 -0.661
71.98000 0.333
72.00000 1.578
72.02000 1.712
72.04000 1.637
72.06000 2.799
72.08000 6.165
72.10000 5.123
72.12000 1.594
72.14000 1.507
72.16000 3.252
72.18000 0.810
72.20000 0.219
72.22000 0.783
72.24000 -2.148
72.26000 2.893
72.28000 4.370
72.30000 3.183
72.32000 4.148
72.34000 6.900
72.36000 3.942
72.38000 1.994
72.40000 6.027
72.42000 7.651
72.44000 4.045
72.46000 4.701
72.48000 7.645
72.50000 6.398
72.52000 3.069
72.54000 3.931
72.56000 2.251
72.58000 0.180
72.60000 2.230
72.62000 1.192
72.64000 3.211
72.66000 1.015
72.68000 -1.402
72.70000 4.576
72.72000 2.860
72.74000 0.867
72.76000 2.754
72.78000 2.429
72.80000 -1.374
72.82000 1.547
72.84000 1.860
72.86000 -1.350
72.88000 0.472
72.90000 -1.135
72.92000 3.204
72.94000 5.490
72.96000 2.007
72.98000 4.569
73.00000 3.555
73.02000 2.652
73.04000 3.939
73.06000 5.245
73.08000 4.876
73.10000 -1.171
73.12000 -0.887
73.14000 -1.428
73.16000 2.332
73.18000 3.985
73.20000 1.152
73.22000 2.349
73.24000 -0.841
73.26000 -1.336
73.28000 0.632
73.30000 3.660
73.32000 1.785
73.34000 -2.136
73.36000 -1.068
73.38000 4.106
73.40000 6.429
73.42000 3.757
73.44000 2.491
73.46000 0.296
73.48000 2.348
73.50000 -0.999
73.52000 -0.066
73.54000 1.165
73.56000 1.352
73.58000 2.776
73.60000 2.972
73.62000 3.022
73.64000 1.384
73.66000 6.096
73.68000 6.782
73.70000 2.952
73.72000 3.382
73.74000 4.478
73.76000 1.555
73.78000 1.559
73.80000 3.545
73.82000 3.528
73.84000 2.103
73.86000 2.831
73.88000 4.668
73.90000 4.888
73.92000 2.380
73.94000 3.957
73.96000 6.697
73.98000 8.171
74.00000 9.014
74.02000 8.347
74.04000 4.104
74.06000 2.562
74.08000 6.123
74.10000 6.114
74.12000 8.135
74.14000 6.802
74.16000 3.983
74.18000 4.717
74.20000 2.781
74.22000 0.374
74.24000 -2.077
74.26000 -0.935
74.28000 0.316
74.30000 4.774
74.32000 3.962
74.34000 5.902
74.36000 6.652
74.38000 5.710
74.40000 9.216
74.42000 7.153
74.44000 4.288
74.46000 4.755
74.48000 3.396
74.50000 2.070
74.52000 5.699
74.54000 0.997
74.56000 0.738
74.58000 3.760
74.60000 3.852
74.62000 3.431
74.64000 2.902
74.66000 4.745
74.68000 3.646
74.70000 2.377
74.72000 4.001
74.74000 6.871
74.76000 7.388
74.78000 4.718
74.80000 2.440
74.82000 3.693
74.84000 6.595
74.86000 3.486
74.88000 7.277
74.90000 7.013
74.92000 1.853
74.94000 0.762
74.96000 2.843
74.98000 5.269
75.00000 7.178
75.02000 4.824
75.04000 1.785
75.06000 5.279
75.08000 5.683
75.10000 4.882
75.12000 5.576
75.14000 9.291
75.16000 8.618
75.18000 3.837
75.20000 3.238
75.22000 5.598
75.24000 5.759
75.26000 2.263
75.28000 2.089
75.30000 1.826
75.32000 2.558
75.34000 4.214
75.36000 -2.068
75.38000 -0.706
75.40000 1.327
75.42000 1.040
75.44000 0.929
75.46000 2.599
75.48000 2.470
75.50000 2.399
75.52000 6.523
75.54000 4.793
75.56000 2.590
75.58000 2.309
75.60000 4.723
75.62000 2.087
75.64000 3.185
75.66000 3.067
75.68000 3.829
75.70000 7.425
75.72000 7.979
75.74000 7.065
75.76000 6.513
75.78000 1.608
75.80000 2.478
75.82000 3.252
75.84000 5.736
75.86000 3.948
75.88000 5.019
75.90000 0.687
75.92000 -2.095
75.94000 2.553
75.96000 5.289
75.98000 5.973
76.00000 3.747
76.02000 3.259
76.04000 4.498
76.06000 3.787
76.08000 1.424
76.10000 1.997
76.12000 2.550
76.14000 6.355
76.16000 5.196
76.18000 1.649
76.20000 2.747
76.22000 7.520
76.24000 6.440
76.26000 5.537
76.28000 4.169
76.30000 5.993
76.32000 4.934
76.34000 3.641
76.36000 5.680
76.38000 4.238
76.40000 2.443
76.42000 3.782
76.44000 6.536
76.46000 4.757
76.48000 5.202
76.50000 2.518
76.52000 2.701
76.54000 -0.946
76.56000 2.222
76.58000 5.943
76.60000 4.517
76.62000 3.425
76.64000 0.690
76.66000 4.780
76.68000 4.068
76.70000 2.251
76.72000 1.592
76.74000 4.894
76.76000 3.439
76.78000 5.542
76.80000 5.563
76.82000 4.094
76.84000 3.121
76.86000 3.867
76.88000 3.477
76.90000 2.784
76.92000 0.760
76.94000 1.297
76.96000 3.039
76.98000 2.468
77.00000 2.801
77.02000 2.835
77.04000 4.837
77.06000 2.463
77.08000 6.309
77.10000 4.165
77.12000 -1.878
77.14000 -1.906
77.16000 3.775
77.18000 4.925
77.20000 3.548
77.22000 -0.250
77.24000 3.189
77.26000 3.240
77.28000 1.314
77.30000 1.428
77.32000 5.199
77.34000 5.400
77.36000 4.870
77.38000 5.054
77.40000 2.030
77.42000 0.317
77.44000 3.408
77.46000 5.496
77.48000 3.088
77.50000 3.420
77.52000 4.857
77.54000 1.925
77.56000 -1.494
77.58000 -2.124
77.60000 2.134
77.62000 4.025
77.64000 3.156
77.66000 5.219
77.68000 1.303
77.70000 2.698
77.72000 3.329
77.74000 3.189
77.76000 5.297
77.78000 4.658
77.80000 5.049
77.82000 4.987
77.84000 3.211
77.86000 5.116
77.88000 9.935
77.90000 4.615
77.92000 -0.098
77.94000 -0.151
77.96000 1.937
77.98000 2.557
78.00000 3.424
78.02000 5.686
78.04000 6.009
78.06000 4.041
78.08000 3.370
78.10000 7.225
78.12000 4.209
78.14000 3.541
78.16000 2.043
78.18000 1.365
78.20000 0.440
78.22000 3.093
78.24000 1.991
78.26000 -0.643
78.28000 1.883
78.30000 3.779
78.32000 4.535
78.34000 3.479
78.36000 2.448
78.38000 3.189
78.40000 7.207
78.42000 8.122
78.44000 4.472
78.46000 0.558
78.48000 5.024
78.50000 6.191
78.52000 4.242
78.54000 5.001
78.56000 2.991
78.58000 3.415
78.60000 -0.928
78.62000 -0.929
78.64000 2.877
78.66000 1.713
78.68000 3.146
78.70000 2.648
78.72000 3.407
78.74000 3.036
78.76000 3.671
78.78000 1.809
78.80000 0.425
78.82000 1.339
78.84000 4.581
78.86000 4.473
78.88000 2.845
78.90000 4.451
78.92000 7.481
78.94000 3.933
78.96000 0.402
78.98000 -2.159
79.00000 4.321
79.02000 7.287
79.04000 2.775
79.06000 -1.407
79.08000 4.093
79.10000 4.258
79.12000 1.373
79.14000 -1.747
79.16000 0.271
79.18000 0.743
79.20000 2.915
79.22000 4.088
79.24000 3.718
79.26000 1.359
79.28000 1.642
79.30000 0.481
79.32000 0.868
79.34000 -0.514
79.36000 3.855
79.38000 3.883
79.40000 1.370
79.42000 1.427
79.44000 2.329
79.46000 1.998
79.48000 1.833
79.50000 4.274
79.52000 1.248
79.54000 1.474
79.56000 7.777
79.58000 4.796
79.60000 6.108
79.62000 7.274
79.64000 2.864
79.66000 3.622
79.68000 2.879
79.70000 0.537
79.72000 1.171
79.74000 4.499
79.76000 2.303
79.78000 5.014
79.80000 1.365
79.82000 -0.534
79.84000 -2.185
79.86000 3.490
79.88000 4.984
79.90000 2.551
79.92000 3.906
79.94000 4.442
79.96000 2.657
79.98000 3.886
80.00000 1.862
80.02000 -0.793
80.04000 2.228
80.06000 8.001
80.08000 7.288
80.10000 7.238
80.12000 4.719
80.14000 -0.457
80.16000 -1.764
80.18000 -1.239
80.20000 3.290
80.22000 3.276
80.24000 1.236
80.26000 3.612
80.28000 6.403
80.30000 3.821
80.32000 -0.158
80.34000 1.844
80.36000 5.377
80.38000 3.265
80.40000 2.986
80.42000 2.901
80.44000 -0.219
80.46000 -1.165
80.48000 2.321
80.50000 2.677
80.52000 3.193
80.54000 2.831
80.56000 3.140
80.58000 -0.871
80.60000 0.312
80.62000 -0.051
80.64000 1.433
80.66000 0.575
80.68000 3.983
80.70000 2.585
80.72000 0.854
80.74000 -2.210
80.76000 0.138
80.78000 1.092
80.80000 5.268
80.82000 3.086
80.84000 3.214
80.86000 4.101
80.88000 2.876
80.90000 5.069
80.92000 6.631
80.94000 6.501
80.96000 3.747
80.98000 2.544
81.00000 4.106
81.02000 4.384
81.04000 8.370
81.06000 3.084
81.08000 -2.206
81.10000 4.258
81.12000 3.146
81.14000 3.415
81.16000 4.668
81.18000 0.237
81.20000 1.235
81.22000 4.202
81.24000 2.722
81.26000 3.185
81.28000 5.072
81.30000 1.542
81.32000 3.141
81.34000 4.704
81.36000 8.401
81.38000 5.543
81.40000 2.702
81.42000 1.496
81.44000 4.740
81.46000 2.955
81.48000 0.098
81.50000 0.731
81.52000 3.074
81.54000 3.290
81.56000 4.443
81.58000 3.398
81.60000 3.197
81.62000 8.197
81.64000 6.575
81.66000 4.993
81.68000 4.467
81.70000 3.089
81.72000 4.401
81.74000 6.096
81.76000 4.976
81.78000 3.752
81.80000 5.118
81.82000 3.190
81.84000 7.950
81.86000 7.279
81.88000 5.893
81.90000 7.236
81.92000 5.358
81.94000 6.134
81.96000 11.907
81.98000 12.969
82.00000 10.208
82.02000 11.531
82.04000 9.316
82.06000 7.498
82.08000 9.602
82.10000 4.675
82.12000 9.145
82.14000 11.259
82.16000 9.908
82.18000 10.822
82.20000 8.411
82.22000 8.178
82.24000 9.959
82.26000 11.674
82.28000 17.971
82.30000 14.524
82.32000 15.176
82.34000 15.267
82.36000 19.530
82.38000 20.457
82.40000 17.048
82.42000 16.449
82.44000 15.558
82.46000 23.221
82.48000 19.581
82.50000 21.568
82.52000 20.947
82.54000 23.053
82.56000 21.520
82.58000 23.884
82.60000 23.968
82.62000 27.815
82.64000 28.314
82.66000 28.872
82.68000 28.674
82.70000 28.363
82.72000 27.303
82.74000 29.694
82.76000 27.824
82.78000 29.954
82.80000 37.269
82.82000 38.052
82.84000 34.750
82.86000 33.587
82.88000 36.564
82.90000 34.826
82.92000 35.631
82.94000 42.050
82.96000 44.521
82.98000 40.305
83.00000 44.997
83.02000 41.775
83.04000 46.676
83.06000 43.521
83.08000 44.017
83.10000 46.358
83.12000 44.138
83.14000 42.111
83.16000 49.843
83.18000 48.152
83.20000 45.068
83.22000 38.606
83.24000 42.751
83.26000 45.693
83.28000 40.311
83.30000 37.737
83.32000 38.456
83.34000 38.146
83.36000 41.136
83.38000 48.722
83.40000 45.785
83.42000 40.679
83.44000 37.615
83.46000 36.326
83.48000 39.354
83.50000 39.299
83.52000 36.674
83.54000 40.522
83.56000 34.762
83.58000 31.008
83.60000 31.255
83.62000 30.871
83.64000 32.659
83.66000 33.193
83.68000 34.312
83.70000 27.645
83.72000 29.700
83.74000 25.164
83.76000 22.381
83.78000 27.491
83.80000 28.171
83.82000 25.408
83.84000 22.723
83.86000 23.277
83.88000 22.312
83.90000 22.601
83.92000 16.515
83.94000 15.568
83.96000 17.050
83.98000 19.449
84.00000 21.678
84.02000 19.322
84.04000 18.400
84.06000 15.954
84.08000 11.594
84.10000 12.068
84.12000 13.634
84.14000 8.219
84.16000 7.049
84.18000 7.617
84.20000 9.478
84.22000 7.627
84.24000 9.099
84.26000 10.376
84.28000 7.067
84.30000 8.898
84.32000 8.904
84.34000 10.131
84.36000 8.733
84.38000 9.748
84.40000 15.717
84.42000 13.885
84.44000 5.118
84.46000 -0.062
84.48000 4.454
84.50000 6.217
84.52000 7.445
84.54000 9.236
84.56000 9.536
84.58000 7.557
84.60000 3.763
84.62000 1.436
84.64000 2.094
84.66000 5.634
84.68000 3.695
84.70000 6.622
84.72000 6.801
84.74000 4.322
84.76000 3.587
84.78000 -1.477
84.80000 2.564
84.82000 2.459
84.84000 -0.288
84.86000 0.177
84.88000 1.969
84.90000 9.516
84.92000 8.341
84.94000 7.148
84.96000 6.429
84.98000 1.423
85.00000 4.219
85.02000 3.077
85.04000 0.717
85.06000 0.799
85.08000 -2.228
85.10000 2.075
85.12000 1.887
85.14000 4.704
85.16000 2.363
85.18000 -0.960
85.20000 3.239
85.22000 2.088
85.24000 1.262
85.26000 8.027
85.28000 4.814
85.30000 2.464
85.32000 3.896
85.34000 4.483
85.36000 5.234
85.38000 4.467
85.40000 4.849
85.42000 0.612
85.44000 1.290
85.46000 -0.534
85.48000 0.854
85.50000 3.084
85.52000 4.947
85.54000 3.446
85.56000 6.200
85.58000 5.809
85.60000 4.702
85.62000 0.888
85.64000 1.036
85.66000 2.029
85.68000 2.814
85.70000 2.698
85.72000 2.897
85.74000 2.976
85.76000 3.303
85.78000 -1.907
85.80000 -2.220
85.82000 1.294
85.84000 2.287
85.86000 2.383
85.88000 5.118
85.90000 2.699
85.92000 -2.159
85.94000 -0.544
85.96000 0.444
85.98000 2.771
86.00000 3.200
86.02000 -0.416
86.04000 -1.660
86.06000 -1.307
86.08000 -1.976
86.10000 0.769
86.12000 3.415
86.14000 2.761
86.16000 2.194
86.18000 3.238
86.20000 2.625
86.22000 0.099
86.24000 1.078
86.26000 2.459
86.28000 1.500
86.30000 4.465
86.32000 4.812
86.34000 4.052
86.36000 3.594
86.38000 0.970
86.40000 1.433
86.42000 -0.609
86.44000 2.889
86.46000 4.710
86.48000 -0.062
86.50000 -2.269
86.52000 -0.750
86.54000 -0.465
86.56000 4.094
86.58000 4.838
86.60000 4.897
86.62000 0.138
86.64000 1.712
86.66000 3.242
86.68000 4.318
86.70000 2.390
86.72000 0.250
86.74000 2.215
86.76000 2.949
86.78000 -0.778
86.80000 1.791
86.82000 6.023
86.84000 7.721
86.86000 6.393
86.88000 5.948
86.90000 3.687
86.92000 -0.205
86.94000 -0.743
86.96000 5.229
86.98000 10.456
87.00000 8.236
87.02000 8.831
87.04000 12.932
87.06000 17.282
87.08000 14.006
87.10000 7.397
87.12000 7.133
87.14000 9.405
87.16000 8.999
87.18000 11.757
87.20000 11.274
87.22000 12.272
87.24000 17.084
87.26000 14.442
87.28000 16.560
87.30000 13.886
87.32000 17.002
87.34000 14.822
87.36000 17.423
87.38000 17.563
87.40000 22.787
87.42000 22.227
87.44000 19.413
87.46000 18.255
87.48000 15.789
87.50000 18.823
87.52000 19.602
87.54000 22.610
87.56000 19.541
87.58000 21.982
87.60000 23.587
87.62000 22.567
87.64000 23.470
87.66000 23.562
87.68000 25.163
87.70000 26.464
87.72000 23.058
87.74000 19.053
87.76000 19.402
87.78000 19.023
87.80000 20.649
87.82000 22.963
87.84000 23.773
87.86000 22.302
87.88000 21.604
87.90000 25.325
87.92000 22.720
87.94000 17.701
87.96000 23.051
87.98000 17.715
88.00000 13.020
88.02000 16.644
88.04000 17.901
88.06000 16.523
88.08000 16.440
88.10000 17.174
88.12000 15.800
88.14000 10.699
88.16000 8.522
88.18000 10.298
88.20000 10.203
88.22000 13.326
88.24000 9.380
88.26000 15.297
88.28000 11.510
88.30000 10.140
88.32000 6.123
88.34000 5.205
88.36000 6.140
88.38000 8.495
88.40000 8.138
88.42000 7.942
88.44000 3.648
88.46000 -0.079
88.48000 2.991
88.50000 7.470
88.52000 5.543
88.54000 5.002
88.56000 3.993
88.58000 3.583
88.60000 4.396
88.62000 5.997
88.64000 7.248
88.66000 1.514
88.68000 0.036
88.70000 6.513
88.72000 6.546
88.74000 3.561
88.76000 1.516
88.78000 1.176
88.80000 2.504
88.82000 -0.037
88.84000 2.699
88.86000 1.985
88.88000 1.846
88.90000 2.134
88.92000 0.446
88.94000 2.691
88.96000 0.152
88.98000 1.997
89.00000 0.762
89.02000 1.891
89.04000 2.918
89.06000 3.505
89.08000 4.959
89.10000 -0.035
89.12000 -0.449
89.14000 3.635
89.16000 6.148
89.18000 2.667
89.20000 -0.091
89.22000 1.059
89.24000 1.675
89.26000 4.443
89.28000 1.775
89.30000 -2.114
89.32000 -0.238
89.34000 1.883
89.36000 4.334
89.38000 7.709
89.40000 4.260
89.42000 1.529
89.44000 1.674
89.46000 2.812
89.48000 1.995
89.50000 0.628
89.52000 1.706
89.54000 -1.239
89.56000 0.235
89.58000 0.188
89.60000 1.441
89.62000 0.633
89.64000 4.207
89.66000 4.388
89.68000 4.799
89.70000 3.797
89.72000 -0.042
89.74000 3.762
89.76000 1.473
89.78000 -2.071
89.80000 -0.579
89.82000 0.638
89.84000 1.735
89.86000 1.820
89.88000 -2.072
89.90000 -1.556
89.92000 0.178
89.94000 2.700
89.96000 4.982
89.98000 6.056
90.00000 3.819
90.02000 2.473
90.04000 3.444
90.06000 2.434
90.08000 0.360
90.10000 0.660
90.12000 1.997
90.14000 2.148
90.16000 1.030
90.18000 1.119
90.20000 4.804
90.22000 -0.645
90.24000 -1.670
90.26000 -1.647
90.28000 0.235
90.30000 1.171
90.32000 -0.548
90.34000 -1.292
90.36000 1.182
90.38000 0.353
90.40000 4.302
90.42000 0.825
90.44000 -0.684
90.46000 -1.246
90.48000 1.119
90.50000 -0.901
90.52000 1.718
90.54000 0.638
90.56000 0.429
90.58000 -0.178
90.60000 -1.247
90.62000 0.581
90.64000 0.270
90.66000 -1.543
90.68000 -2.066
90.70000 0.784
90.72000 2.372
90.74000 1.468
90.76000 2.642
90.78000 3.456
90.80000 0.470
90.82000 1.817
90.84000 -0.186
90.86000 2.093
90.88000 3.036
90.90000 2.450
90.92000 3.463
90.94000 2.212
90.96000 2.627
90.98000 1.247
91.00000 2.030
91.02000 0.753
91.04000 -0.987
91.06000 3.808
91.08000 2.089
91.10000 -0.301
91.12000 -0.393
91.14000 0.920
91.16000 0.537
91.18000 1.439
91.20000 1.431
91.22000 2.584
91.24000 6.489
91.26000 6.109
91.28000 3.717
91.30000 1.683
91.32000 0.822
91.34000 3.192
91.36000 0.809
91.38000 2.318
91.40000 -0.196
91.42000 -0.399
91.44000 2.845
91.46000 3.290
91.48000 2.390
91.50000 4.546
91.52000 1.740
91.54000 -1.373
91.56000 2.625
91.58000 0.883
91.60000 0.109
91.62000 -2.035
91.64000 -0.182
91.66000 0.318
91.68000 2.928
91.70000 4.151
91.72000 1.659
91.74000 -0.983
91.76000 2.730
91.78000 1.357
91.80000 0.584
91.82000 6.097
91.84000 4.842
91.86000 5.530
91.88000 6.791
91.90000 7.520
91.92000 6.255
91.94000 1.148
91.96000 -0.722
91.98000 2.191
92.00000 0.898
92.02000 2.969
92.04000 0.046
92.06000 1.650
92.08000 3.578
92.10000 4.503
92.12000 4.528
92.14000 5.323
92.16000 2.388
92.18000 3.302
92.20000 1.847
92.22000 1.359
92.24000 6.253
92.26000 4.590
92.28000 2.875
92.30000 5.391
92.32000 5.137
92.34000 6.941
92.36000 7.050
92.38000 1.842
92.40000 2.488
92.42000 0.537
92.44000 1.720
92.46000 1.378
92.48000 2.383
92.50000 6.089
92.52000 2.590
92.54000 2.124
92.56000 5.514
92.58000 6.298
92.60000 3.253
92.62000 2.146
92.64000 2.942
92.66000 3.502
92.68000 3.934
92.70000 5.446
92.72000 5.404
92.74000 6.038
92.76000 4.987
92.78000 6.520
92.80000 3.638
92.82000 6.019
92.84000 7.343
92.86000 3.413
92.88000 3.089
92.90000 4.292
92.92000 4.046
92.94000 5.995
92.96000 6.128
92.98000 5.547
93.00000 3.959
93.02000 5.243
93.04000 7.549
93.06000 5.763
93.08000 2.381
93.10000 8.065
93.12000 7.348
93.14000 4.285
93.16000 5.141
93.18000 3.287
93.20000 4.113
93.22000 7.823
93.24000 7.525
93.26000 6.216
93.28000 6.089
93.30000 4.749
93.32000 4.355
93.34000 -1.501
93.36000 -1.935
93.38000 3.123
93.40000 7.253
93.42000 8.947
93.44000 6.956
93.46000 6.489
93.48000 8.154
93.50000 7.698
93.52000 9.823
93.54000 11.257
93.56000 8.320
93.58000 6.199
93.60000 6.253
93.62000 6.640
93.64000 9.044
93.66000 8.571
93.68000 7.033
93.70000 9.168
93.72000 12.364
93.74000 7.084
93.76000 3.232
93.78000 6.848
93.80000 5.617
93.82000 5.688
93.84000 5.830
93.86000 4.999
93.88000 7.165
93.90000 5.589
93.92000 5.121
93.94000 5.696
93.96000 6.063
93.98000 4.264
94.00000 3.642
94.02000 10.092
94.04000 6.322
94.06000 4.892
94.08000 6.106
94.10000 5.575
94.12000 5.216
94.14000 2.253
94.16000 4.440
94.18000 2.364
94.20000 1.230
94.22000 6.253
94.24000 5.318
94.26000 5.407
94.28000 3.713
94.30000 0.354
94.32000 2.913
94.34000 8.964
94.36000 6.316
94.38000 3.920
94.40000 3.340
94.42000 6.306
94.44000 1.268
94.46000 2.239
94.48000 3.715
94.50000 3.779
94.52000 1.916
94.54000 5.103
94.56000 2.609
94.58000 5.799
94.60000 4.574
94.62000 2.047
94.64000 2.216
94.66000 2.889
94.68000 3.050
94.70000 5.135
94.72000 2.385
94.74000 4.418
94.76000 3.628
94.78000 2.165
94.80000 3.246
94.82000 0.449
94.84000 2.871
94.86000 5.739
94.88000 2.996
94.90000 2.783
94.92000 5.682
94.94000 6.054
94.96000 3.983
94.98000 2.343
95.00000 2.119
95.02000 1.941
95.04000 0.246
95.06000 6.002
95.08000 5.065
95.10000 3.966
95.12000 6.216
95.14000 6.645
95.16000 3.206
95.18000 2.473
95.20000 2.938
95.22000 5.640
95.24000 3.813
95.26000 0.508
95.28000 0.787
95.30000 4.243
95.32000 2.711
95.34000 -2.044
95.36000 1.120
95.38000 4.475
95.40000 5.548
95.42000 9.524
95.44000 6.046
95.46000 1.157
95.48000 1.126
95.50000 1.488
95.52000 3.648
95.54000 5.515
95.56000 9.090
95.58000 4.800
95.60000 2.628
95.62000 6.007
95.64000 5.844
95.66000 2.420
95.68000 -1.361
95.70000 -2.048
95.72000 -0.818
95.74000 -0.748
95.76000 -0.782
95.78000 1.309
95.80000 3.899
95.82000 0.081
95.84000 4.733
95.86000 6.131
95.88000 5.180
95.90000 4.852
95.92000 -1.176
95.94000 -0.605
95.96000 -0.432
95.98000 3.044
96.00000 6.737
96.02000 5.546
96.04000 8.934
96.06000 3.174
96.08000 0.090
96.10000 2.400
96.12000 5.338
96.14000 4.756
96.16000 4.559
96.18000 1.607
96.20000 1.147
96.22000 -1.820
96.24000 1.747
96.26000 3.111
96.28000 0.935
96.30000 -0.492
96.32000 1.323
96.34000 8.495
96.36000 4.747
96.38000 1.983
96.40000 2.919
96.42000 4.726
96.44000 1.475
96.46000 -1.740
96.48000 0.533
96.50000 0.850
96.52000 3.143
96.54000 4.933
96.56000 5.312
96.58000 6.114
96.60000 5.020
96.62000 3.334
96.64000 5.715
96.66000 7.682
96.68000 1.085
96.70000 4.869
96.72000 9.303
96.74000 6.148
96.76000 -2.036
96.78000 3.245
96.80000 6.877
96.82000 9.823
96.84000 3.528
96.86000 1.827
96.88000 5.596
96.90000 0.861
96.92000 2.614
96.94000 3.527
96.96000 0.560
96.98000 4.162
97.00000 3.119
97.02000 5.493
97.04000 9.782
97.06000 4.916
97.08000 3.822
97.10000 1.481
97.12000 3.274
97.14000 5.210
97.16000 0.782
97.18000 2.659
97.20000 3.468
97.22000 3.914
97.24000 5.776
97.26000 2.477
97.28000 3.976
97.30000 7.532
97.32000 8.633
97.34000 4.393
97.36000 12.781
97.38000 9.180
97.40000 4.566
97.42000 1.503
97.44000 1.759
97.46000 0.091
97.48000 -2.021
97.50000 -1.875
97.52000 5.016
97.54000 9.387
97.56000 6.619
97.58000 6.252
97.60000 7.309
97.62000 5.016
97.64000 3.396
97.66000 -0.784
97.68000 3.503
97.70000 8.231
97.72000 7.103
97.74000 3.338
97.76000 1.675
97.78000 3.502
97.80000 1.762
97.82000 0.659
97.84000 4.207
97.86000 0.514
97.88000 1.499
97.90000 3.535
97.92000 5.221
97.94000 4.068
97.96000 1.436
97.98000 8.293
98.00000 3.991
98.02000 1.218
98.04000 10.543
98.06000 2.429
98.08000 9.878
98.10000 7.169
98.12000 2.028
98.14000 7.345
98.16000 1.824
98.18000 3.492
98.20000 4.154
98.22000 4.966
98.24000 -0.058
98.26000 8.229
98.28000 4.779
98.30000 0.110
98.32000 -0.256
98.34000 -0.322
98.36000 4.931
98.38000 -0.976
98.40000 -1.992
98.42000 1.511
98.44000 7.800
98.46000 10.108
98.48000 7.188
98.50000 8.162
98.52000 5.879
98.54000 1.969
98.56000 6.890
98.58000 3.406
98.60000 7.093
98.62000 9.086
98.64000 7.222
98.66000 12.634
98.68000 11.024
98.70000 3.290
98.72000 6.992
98.74000 4.575
98.76000 8.831
98.78000 2.895
98.80000 4.780
98.82000 11.748
98.84000 7.954
98.86000 6.282
98.88000 5.317
98.90000 2.698
98.92000 11.004
98.94000 11.506
98.96000 3.352
98.98000 6.505
99.00000 10.510
99.02000 6.208
99.04000 4.803
99.06000 1.303
99.08000 2.847
99.10000 4.992
99.12000 5.859
99.14000 3.248
99.16000 4.582
99.18000 8.403
99.20000 3.900
99.22000 5.270
99.24000 7.835
99.26000 10.793
99.28000 5.912
99.30000 7.332
99.32000 2.040
99.34000 -1.949
99.36000 3.969
99.38000 3.682
99.40000 8.070
99.42000 9.676
99.44000 8.822
99.46000 0.982
99.48000 -1.313
99.50000 7.486
99.52000 3.542
99.54000 7.075
99.56000 3.870
99.58000 7.434
99.60000 3.248
99.62000 7.736
99.64000 2.419
99.66000 0.581
99.68000 0.096
99.70000 6.794
99.72000 5.138
99.74000 3.110
99.76000 6.381
99.78000 8.722
99.80000 2.843
99.82000 11.784
99.84000 5.929
99.86000 0.938
99.88000 -2.054
99.90000 8.540
99.92000 -0.148
99.94000 -2.074
99.96000 -2.200
99.98000 0.000
