'Id: "0011388" Comment: "Integrate frame 0011388_Au-Ir-Rh_Rh-rich_XRD-Mapping-176-0000.gfrmwith cursor Wedge Cursor #5" Operator: "B?rgel" Anode: "Cu" Wavelength: "1.5406" Scantype: "2Theta (TwoTheta)" TimePerStep: "1" X: "40.5" Y: "0" Z: "5.95" 
10.00000 0.000
10.02000 0.593
10.04000 4.384
10.06000 -2.902
10.08000 3.088
10.10000 16.130
10.12000 18.188
10.14000 14.999
10.16000 13.657
10.18000 12.219
10.20000 5.155
10.22000 10.708
10.24000 15.532
10.26000 14.400
10.28000 3.163
10.30000 8.348
10.32000 30.987
10.34000 22.432
10.36000 8.843
10.38000 12.029
10.40000 16.644
10.42000 11.850
10.44000 15.162
10.46000 15.063
10.48000 19.749
10.50000 14.027
10.52000 15.344
10.54000 20.802
10.56000 21.117
10.58000 16.465
10.60000 25.276
10.62000 30.176
10.64000 27.282
10.66000 21.548
10.68000 21.374
10.70000 24.576
10.72000 26.521
10.74000 24.552
10.76000 21.453
10.78000 18.887
10.80000 24.785
10.82000 34.637
10.84000 33.997
10.86000 19.177
10.88000 23.701
10.90000 41.231
10.92000 40.655
10.94000 25.207
10.96000 28.000
10.98000 29.647
11.00000 25.544
11.02000 23.666
11.04000 30.817
11.06000 33.445
11.08000 20.471
11.10000 23.831
11.12000 31.698
11.14000 40.009
11.16000 39.155
11.18000 28.018
11.20000 28.073
11.22000 36.354
11.24000 43.773
11.26000 35.936
11.28000 35.318
11.30000 41.774
11.32000 44.289
11.34000 37.286
11.36000 42.340
11.38000 42.734
11.40000 35.751
11.42000 49.535
11.44000 47.496
11.46000 35.832
11.48000 29.759
11.50000 31.059
11.52000 37.587
11.54000 40.447
11.56000 55.285
11.58000 47.625
11.60000 39.246
11.62000 35.270
11.64000 31.398
11.66000 28.650
11.68000 39.527
11.70000 41.756
11.72000 42.661
11.74000 40.819
11.76000 45.485
11.78000 43.104
11.80000 44.805
11.82000 47.941
11.84000 41.972
11.86000 43.066
11.88000 35.354
11.90000 46.164
11.92000 57.136
11.94000 53.428
11.96000 60.990
11.98000 54.437
12.00000 46.612
12.02000 49.488
12.04000 50.473
12.06000 56.079
12.08000 52.921
12.10000 54.120
12.12000 44.156
12.14000 46.112
12.16000 49.926
12.18000 45.259
12.20000 40.966
12.22000 45.853
12.24000 51.390
12.26000 55.929
12.28000 55.789
12.30000 45.615
12.32000 51.362
12.34000 57.001
12.36000 50.010
12.38000 51.348
12.40000 56.145
12.42000 48.652
12.44000 41.520
12.46000 48.989
12.48000 58.166
12.50000 58.052
12.52000 54.673
12.54000 44.498
12.56000 48.578
12.58000 59.888
12.60000 59.910
12.62000 57.899
12.64000 55.160
12.66000 52.376
12.68000 51.218
12.70000 58.208
12.72000 59.049
12.74000 49.753
12.76000 50.690
12.78000 53.768
12.80000 56.203
12.82000 51.520
12.84000 56.706
12.86000 58.104
12.88000 64.274
12.90000 60.834
12.92000 50.595
12.94000 55.027
12.96000 54.234
12.98000 51.691
13.00000 42.983
13.02000 48.145
13.04000 53.387
13.06000 52.448
13.08000 46.552
13.10000 49.542
13.12000 49.131
13.14000 52.330
13.16000 52.315
13.18000 60.645
13.20000 49.250
13.22000 45.900
13.24000 58.538
13.26000 60.613
13.28000 50.549
13.30000 47.918
13.32000 57.908
13.34000 60.932
13.36000 54.143
13.38000 53.830
13.40000 50.107
13.42000 53.735
13.44000 59.934
13.46000 48.525
13.48000 42.781
13.50000 50.533
13.52000 54.393
13.54000 50.062
13.56000 46.278
13.58000 45.115
13.60000 49.080
13.62000 49.181
13.64000 47.398
13.66000 52.130
13.68000 50.698
13.70000 46.113
13.72000 47.455
13.74000 54.244
13.76000 46.451
13.78000 43.124
13.80000 58.778
13.82000 50.758
13.84000 49.694
13.86000 46.731
13.88000 47.425
13.90000 46.976
13.92000 44.109
13.94000 38.631
13.96000 43.677
13.98000 46.691
14.00000 45.447
14.02000 44.026
14.04000 41.560
14.06000 43.518
14.08000 45.534
14.10000 46.267
14.12000 48.467
14.14000 37.481
14.16000 39.275
14.18000 44.086
14.20000 49.503
14.22000 45.754
14.24000 48.611
14.26000 41.399
14.28000 34.328
14.30000 27.396
14.32000 35.356
14.34000 31.454
14.36000 37.118
14.38000 33.687
14.40000 42.218
14.42000 43.241
14.44000 40.174
14.46000 42.943
14.48000 43.526
14.50000 40.872
14.52000 38.403
14.54000 39.986
14.56000 44.522
14.58000 44.354
14.60000 43.495
14.62000 36.031
14.64000 29.589
14.66000 20.959
14.68000 30.611
14.70000 34.644
14.72000 29.880
14.74000 36.086
14.76000 39.286
14.78000 35.857
14.80000 28.315
14.82000 31.357
14.84000 37.253
14.86000 33.236
14.88000 27.076
14.90000 27.798
14.92000 25.439
14.94000 25.098
14.96000 35.860
14.98000 36.531
15.00000 33.486
15.02000 29.199
15.04000 31.480
15.06000 25.741
15.08000 30.707
15.10000 35.951
15.12000 38.173
15.14000 30.979
15.16000 30.538
15.18000 36.525
15.20000 39.780
15.22000 24.425
15.24000 21.677
15.26000 24.295
15.28000 19.936
15.30000 28.525
15.32000 22.676
15.34000 20.590
15.36000 28.432
15.38000 21.981
15.40000 23.072
15.42000 27.071
15.44000 30.048
15.46000 32.085
15.48000 24.413
15.50000 22.270
15.52000 28.767
15.54000 27.364
15.56000 20.569
15.58000 24.899
15.60000 30.361
15.62000 28.080
15.64000 31.863
15.66000 31.849
15.68000 27.825
15.70000 22.268
15.72000 29.792
15.74000 31.279
15.76000 26.814
15.78000 24.265
15.80000 28.494
15.82000 30.904
15.84000 36.628
15.86000 31.697
15.88000 20.683
15.90000 17.083
15.92000 20.237
15.94000 22.694
15.96000 22.718
15.98000 27.170
16.00000 21.185
16.02000 17.048
16.04000 20.817
16.06000 15.731
16.08000 16.069
16.10000 19.011
16.12000 23.350
16.14000 19.009
16.16000 20.697
16.18000 21.702
16.20000 16.886
16.22000 19.957
16.24000 16.607
16.26000 6.938
16.28000 15.131
16.30000 21.604
16.32000 15.464
16.34000 9.931
16.36000 15.449
16.38000 17.310
16.40000 23.527
16.42000 20.083
16.44000 22.861
16.46000 17.429
16.48000 20.385
16.50000 27.722
16.52000 23.688
16.54000 19.163
16.56000 16.755
16.58000 13.330
16.60000 17.618
16.62000 16.655
16.64000 15.666
16.66000 4.883
16.68000 8.708
16.70000 15.348
16.72000 14.648
16.74000 22.599
16.76000 18.064
16.78000 10.611
16.80000 13.938
16.82000 13.542
16.84000 12.473
16.86000 16.662
16.88000 19.481
16.90000 15.577
16.92000 19.611
16.94000 20.729
16.96000 20.360
16.98000 15.478
17.00000 19.291
17.02000 14.530
17.04000 16.926
17.06000 17.764
17.08000 18.707
17.10000 23.918
17.12000 13.112
17.14000 6.447
17.16000 5.921
17.18000 14.814
17.20000 18.632
17.22000 20.552
17.24000 18.631
17.26000 17.789
17.28000 15.506
17.30000 17.970
17.32000 23.293
17.34000 15.741
17.36000 13.197
17.38000 17.847
17.40000 11.978
17.42000 11.266
17.44000 21.185
17.46000 16.958
17.48000 10.180
17.50000 10.106
17.52000 5.963
17.54000 11.877
17.56000 16.248
17.58000 11.483
17.60000 13.393
17.62000 9.388
17.64000 13.869
17.66000 11.468
17.68000 14.009
17.70000 15.443
17.72000 20.104
17.74000 14.176
17.76000 12.162
17.78000 12.546
17.80000 10.192
17.82000 8.115
17.84000 7.272
17.86000 2.516
17.88000 9.719
17.90000 10.883
17.92000 12.359
17.94000 12.234
17.96000 17.526
17.98000 13.224
18.00000 9.010
18.02000 8.942
18.04000 13.258
18.06000 -0.368
18.08000 -2.283
18.10000 8.565
18.12000 6.090
18.14000 14.936
18.16000 12.956
18.18000 5.352
18.20000 4.842
18.22000 2.545
18.24000 16.645
18.26000 16.936
18.28000 10.909
18.30000 3.764
18.32000 6.776
18.34000 7.450
18.36000 1.650
18.38000 3.897
18.40000 -3.088
18.42000 3.580
18.44000 8.189
18.46000 7.952
18.48000 0.599
18.50000 -0.653
18.52000 7.752
18.54000 11.493
18.56000 8.230
18.58000 5.866
18.60000 9.175
18.62000 11.183
18.64000 5.776
18.66000 3.012
18.68000 9.064
18.70000 7.377
18.72000 6.264
18.74000 7.893
18.76000 10.670
18.78000 8.953
18.80000 12.808
18.82000 4.342
18.84000 6.007
18.86000 11.739
18.88000 7.050
18.90000 1.663
18.92000 -0.387
18.94000 2.857
18.96000 -4.271
18.98000 -2.787
19.00000 -3.293
19.02000 1.331
19.04000 2.879
19.06000 6.771
19.08000 6.165
19.10000 3.672
19.12000 2.189
19.14000 10.527
19.16000 7.709
19.18000 5.601
19.20000 4.868
19.22000 7.541
19.24000 7.115
19.26000 3.530
19.28000 6.753
19.30000 -0.620
19.32000 -0.534
19.34000 7.027
19.36000 2.004
19.38000 8.175
19.40000 7.701
19.42000 6.618
19.44000 9.209
19.46000 8.819
19.48000 3.741
19.50000 6.762
19.52000 6.052
19.54000 7.896
19.56000 8.728
19.58000 4.780
19.60000 6.321
19.62000 6.677
19.64000 3.587
19.66000 6.376
19.68000 8.775
19.70000 12.228
19.72000 11.621
19.74000 7.821
19.76000 3.036
19.78000 0.042
19.80000 -3.797
19.82000 4.914
19.84000 1.779
19.86000 2.914
19.88000 11.134
19.90000 6.839
19.92000 0.936
19.94000 0.943
19.96000 -0.537
19.98000 -3.744
20.00000 -2.605
20.02000 4.709
20.04000 6.996
20.06000 6.562
20.08000 -2.820
20.10000 0.841
20.12000 1.824
20.14000 5.988
20.16000 4.926
20.18000 6.762
20.20000 5.812
20.22000 6.599
20.24000 6.138
20.26000 8.210
20.28000 5.294
20.30000 9.657
20.32000 -0.375
20.34000 -0.501
20.36000 3.809
20.38000 4.198
20.40000 3.569
20.42000 0.897
20.44000 3.623
20.46000 5.861
20.48000 3.228
20.50000 7.009
20.52000 7.169
20.54000 7.907
20.56000 8.278
20.58000 5.937
20.60000 4.692
20.62000 4.265
20.64000 -4.182
20.66000 -2.786
20.68000 -3.609
20.70000 -1.505
20.72000 4.300
20.74000 4.874
20.76000 2.378
20.78000 11.777
20.80000 8.376
20.82000 1.678
20.84000 -2.464
20.86000 5.573
20.88000 11.073
20.90000 0.872
20.92000 2.070
20.94000 8.108
20.96000 10.383
20.98000 -1.332
21.00000 -2.527
21.02000 -2.136
21.04000 4.816
21.06000 0.271
21.08000 7.821
21.10000 7.811
21.12000 7.035
21.14000 5.465
21.16000 5.825
21.18000 8.219
21.20000 7.106
21.22000 10.497
21.24000 5.426
21.26000 0.509
21.28000 5.314
21.30000 4.603
21.32000 4.934
21.34000 -0.170
21.36000 4.033
21.38000 2.043
21.40000 4.286
21.42000 8.185
21.44000 8.775
21.46000 2.351
21.48000 1.902
21.50000 0.787
21.52000 2.033
21.54000 3.133
21.56000 5.393
21.58000 4.786
21.60000 5.909
21.62000 2.873
21.64000 3.780
21.66000 7.747
21.68000 9.466
21.70000 10.545
21.72000 8.251
21.74000 6.901
21.76000 0.340
21.78000 -2.930
21.80000 -4.153
21.82000 3.911
21.84000 6.575
21.86000 5.703
21.88000 1.209
21.90000 2.444
21.92000 7.472
21.94000 5.419
21.96000 9.951
21.98000 11.122
22.00000 4.343
22.02000 3.207
22.04000 1.884
22.06000 3.096
22.08000 3.511
22.10000 0.829
22.12000 1.749
22.14000 0.596
22.16000 2.840
22.18000 2.145
22.20000 -2.360
22.22000 -2.443
22.24000 -2.422
22.26000 1.283
22.28000 3.433
22.30000 4.308
22.32000 6.866
22.34000 7.047
22.36000 6.566
22.38000 3.483
22.40000 10.997
22.42000 3.983
22.44000 0.127
22.46000 3.378
22.48000 2.494
22.50000 0.165
22.52000 4.283
22.54000 0.423
22.56000 -0.102
22.58000 5.025
22.60000 6.824
22.62000 6.691
22.64000 8.448
22.66000 1.936
22.68000 2.346
22.70000 4.130
22.72000 2.663
22.74000 5.965
22.76000 0.107
22.78000 8.242
22.80000 4.859
22.82000 1.334
22.84000 -1.472
22.86000 -2.930
22.88000 0.140
22.90000 1.169
22.92000 3.172
22.94000 3.189
22.96000 4.748
22.98000 -0.251
23.00000 -0.115
23.02000 0.380
23.04000 5.006
23.06000 6.053
23.08000 3.581
23.10000 0.903
23.12000 3.538
23.14000 7.106
23.16000 6.813
23.18000 4.599
23.20000 9.650
23.22000 6.587
23.24000 1.110
23.26000 5.613
23.28000 6.048
23.30000 5.498
23.32000 1.161
23.34000 -4.050
23.36000 -3.559
23.38000 0.113
23.40000 2.221
23.42000 6.723
23.44000 12.306
23.46000 3.576
23.48000 1.605
23.50000 4.613
23.52000 2.318
23.54000 0.937
23.56000 1.543
23.58000 -1.543
23.60000 -0.306
23.62000 -0.182
23.64000 3.296
23.66000 3.351
23.68000 4.565
23.70000 4.699
23.72000 3.377
23.74000 -0.561
23.76000 2.562
23.78000 3.197
23.80000 0.316
23.82000 0.792
23.84000 -0.307
23.86000 0.131
23.88000 4.535
23.90000 2.270
23.92000 2.388
23.94000 4.066
23.96000 -1.287
23.98000 0.727
24.00000 5.429
24.02000 3.305
24.04000 2.860
24.06000 0.209
24.08000 2.739
24.10000 2.316
24.12000 -0.369
24.14000 0.503
24.16000 7.332
24.18000 0.494
24.20000 1.890
24.22000 0.751
24.24000 3.314
24.26000 6.396
24.28000 8.227
24.30000 1.708
24.32000 4.030
24.34000 5.247
24.36000 0.912
24.38000 4.045
24.40000 0.031
24.42000 2.253
24.44000 3.992
24.46000 1.695
24.48000 2.856
24.50000 1.727
24.52000 0.152
24.54000 2.879
24.56000 1.291
24.58000 0.305
24.60000 -3.508
24.62000 -3.998
24.64000 -0.088
24.66000 0.410
24.68000 -0.776
24.70000 0.607
24.72000 3.641
24.74000 -0.038
24.76000 3.389
24.78000 3.281
24.80000 -1.097
24.82000 -3.111
24.84000 2.001
24.86000 8.863
24.88000 4.325
24.90000 2.800
24.92000 7.140
24.94000 -0.312
24.96000 -0.234
24.98000 1.167
25.00000 -2.323
25.02000 -0.255
25.04000 4.584
25.06000 0.592
25.08000 -1.622
25.10000 1.939
25.12000 3.384
25.14000 0.107
25.16000 3.346
25.18000 -0.989
25.20000 -2.408
25.22000 -2.521
25.24000 -0.226
25.26000 -2.404
25.28000 2.691
25.30000 6.391
25.32000 1.618
25.34000 -3.720
25.36000 1.269
25.38000 3.583
25.40000 4.663
25.42000 1.042
25.44000 -0.379
25.46000 -2.592
25.48000 0.433
25.50000 1.632
25.52000 3.524
25.54000 1.706
25.56000 4.705
25.58000 1.916
25.60000 2.575
25.62000 5.269
25.64000 3.942
25.66000 -0.331
25.68000 4.073
25.70000 1.673
25.72000 -1.274
25.74000 1.827
25.76000 -0.089
25.78000 1.093
25.80000 2.978
25.82000 4.868
25.84000 -2.924
25.86000 -0.088
25.88000 0.763
25.90000 -1.088
25.92000 -2.682
25.94000 1.782
25.96000 2.124
25.98000 0.161
26.00000 3.844
26.02000 5.870
26.04000 4.748
26.06000 2.701
26.08000 0.691
26.10000 3.338
26.12000 5.787
26.14000 2.919
26.16000 -3.892
26.18000 2.790
26.20000 7.632
26.22000 4.721
26.24000 0.043
26.26000 9.145
26.28000 9.615
26.30000 3.379
26.32000 2.029
26.34000 3.091
26.36000 0.881
26.38000 0.141
26.40000 1.341
26.42000 8.372
26.44000 4.524
26.46000 -0.979
26.48000 0.299
26.50000 0.959
26.52000 -3.883
26.54000 3.619
26.56000 4.989
26.58000 1.366
26.60000 2.256
26.62000 1.230
26.64000 5.477
26.66000 1.778
26.68000 0.422
26.70000 2.002
26.72000 5.317
26.74000 2.381
26.76000 4.921
26.78000 2.997
26.80000 2.501
26.82000 4.207
26.84000 0.760
26.86000 3.008
26.88000 4.606
26.90000 0.775
26.92000 -3.059
26.94000 0.332
26.96000 1.973
26.98000 1.972
27.00000 1.035
27.02000 7.574
27.04000 4.706
27.06000 2.204
27.08000 0.982
27.10000 0.809
27.12000 -1.895
27.14000 -2.106
27.16000 2.587
27.18000 6.676
27.20000 0.985
27.22000 2.799
27.24000 4.514
27.26000 2.184
27.28000 4.131
27.30000 3.802
27.32000 -0.252
27.34000 -2.931
27.36000 -3.302
27.38000 3.780
27.40000 7.413
27.42000 4.022
27.44000 -0.159
27.46000 3.088
27.48000 0.540
27.50000 5.137
27.52000 8.352
27.54000 3.402
27.56000 1.223
27.58000 -3.291
27.60000 -0.475
27.62000 0.825
27.64000 1.719
27.66000 7.365
27.68000 5.364
27.70000 -0.254
27.72000 1.343
27.74000 3.705
27.76000 2.054
27.78000 -2.257
27.80000 -2.158
27.82000 -0.306
27.84000 -2.552
27.86000 2.809
27.88000 6.771
27.90000 4.015
27.92000 -1.121
27.94000 -2.330
27.96000 1.537
27.98000 4.471
28.00000 3.126
28.02000 5.258
28.04000 -0.317
28.06000 3.190
28.08000 1.933
28.10000 -1.075
28.12000 1.571
28.14000 -0.912
28.16000 -2.573
28.18000 1.369
28.20000 10.048
28.22000 5.973
28.24000 0.666
28.26000 2.661
28.28000 2.166
28.30000 -1.997
28.32000 1.549
28.34000 -2.656
28.36000 0.295
28.38000 -0.878
28.40000 5.317
28.42000 8.283
28.44000 9.220
28.46000 3.371
28.48000 -2.593
28.50000 3.215
28.52000 2.949
28.54000 4.977
28.56000 4.682
28.58000 4.309
28.60000 4.264
28.62000 9.873
28.64000 6.700
28.66000 8.725
28.68000 11.399
28.70000 4.829
28.72000 3.420
28.74000 3.143
28.76000 3.511
28.78000 3.894
28.80000 7.638
28.82000 8.407
28.84000 4.741
28.86000 3.546
28.88000 2.744
28.90000 4.844
28.92000 -0.669
28.94000 -3.719
28.96000 6.755
28.98000 9.948
29.00000 2.975
29.02000 -1.983
29.04000 1.641
29.06000 4.412
29.08000 3.755
29.10000 9.073
29.12000 4.938
29.14000 -2.209
29.16000 1.890
29.18000 2.331
29.20000 3.616
29.22000 6.415
29.24000 8.506
29.26000 6.500
29.28000 2.336
29.30000 5.865
29.32000 6.178
29.34000 4.438
29.36000 0.706
29.38000 5.864
29.40000 8.382
29.42000 8.089
29.44000 8.474
29.46000 2.571
29.48000 -1.018
29.50000 1.316
29.52000 6.876
29.54000 5.601
29.56000 2.691
29.58000 1.398
29.60000 2.299
29.62000 1.775
29.64000 3.296
29.66000 2.958
29.68000 2.876
29.70000 6.355
29.72000 1.961
29.74000 1.280
29.76000 2.769
29.78000 6.393
29.80000 2.800
29.82000 -0.678
29.84000 0.171
29.86000 2.870
29.88000 0.051
29.90000 -1.902
29.92000 0.590
29.94000 2.286
29.96000 2.609
29.98000 2.387
30.00000 4.289
30.02000 1.677
30.04000 1.355
30.06000 -0.506
30.08000 3.282
30.10000 2.392
30.12000 3.395
30.14000 5.091
30.16000 9.179
30.18000 12.143
30.20000 3.578
30.22000 -0.066
30.24000 2.411
30.26000 -1.881
30.28000 0.728
30.30000 1.436
30.32000 6.589
30.34000 1.506
30.36000 -1.147
30.38000 -0.331
30.40000 3.147
30.42000 0.989
30.44000 -1.364
30.46000 2.171
30.48000 3.295
30.50000 -0.055
30.52000 -3.688
30.54000 -2.627
30.56000 -2.189
30.58000 4.261
30.60000 3.132
30.62000 2.487
30.64000 2.203
30.66000 1.445
30.68000 0.616
30.70000 1.928
30.72000 2.721
30.74000 2.178
30.76000 3.239
30.78000 0.086
30.80000 -0.927
30.82000 -0.368
30.84000 3.809
30.86000 4.854
30.88000 9.881
30.90000 3.804
30.92000 -0.735
30.94000 0.859
30.96000 -1.087
30.98000 -0.240
31.00000 0.699
31.02000 3.572
31.04000 4.193
31.06000 6.622
31.08000 0.904
31.10000 -3.664
31.12000 2.409
31.14000 1.487
31.16000 -3.116
31.18000 -2.221
31.20000 3.807
31.22000 5.044
31.24000 -0.878
31.26000 -0.380
31.28000 2.109
31.30000 -2.845
31.32000 -0.647
31.34000 2.908
31.36000 4.681
31.38000 1.252
31.40000 3.936
31.42000 3.205
31.44000 3.651
31.46000 1.041
31.48000 -1.656
31.50000 0.285
31.52000 0.511
31.54000 4.247
31.56000 5.684
31.58000 -1.636
31.60000 -0.893
31.62000 1.004
31.64000 2.775
31.66000 2.258
31.68000 0.813
31.70000 3.688
31.72000 0.933
31.74000 -3.630
31.76000 3.125
31.78000 3.313
31.80000 -0.090
31.82000 4.032
31.84000 0.997
31.86000 -1.405
31.88000 -1.319
31.90000 1.034
31.92000 2.706
31.94000 2.541
31.96000 5.722
31.98000 5.781
32.00000 -0.850
32.02000 -2.583
32.04000 -0.266
32.06000 3.721
32.08000 8.030
32.10000 5.746
32.12000 -0.337
32.14000 1.371
32.16000 0.849
32.18000 1.199
32.20000 5.406
32.22000 4.565
32.24000 0.677
32.26000 -2.223
32.28000 2.230
32.30000 -3.605
32.32000 1.901
32.34000 4.841
32.36000 4.211
32.38000 3.300
32.40000 4.284
32.42000 1.893
32.44000 2.923
32.46000 0.952
32.48000 -2.515
32.50000 2.215
32.52000 0.053
32.54000 -0.353
32.56000 7.741
32.58000 2.901
32.60000 4.694
32.62000 4.130
32.64000 1.131
32.66000 -0.673
32.68000 0.784
32.70000 1.451
32.72000 1.461
32.74000 0.089
32.76000 -3.591
32.78000 4.067
32.80000 0.322
32.82000 3.251
32.84000 3.636
32.86000 5.044
32.88000 2.672
32.90000 7.010
32.92000 5.021
32.94000 -0.330
32.96000 0.942
32.98000 -0.959
33.00000 1.969
33.02000 4.798
33.04000 2.041
33.06000 1.665
33.08000 2.376
33.10000 -0.805
33.12000 -0.020
33.14000 4.982
33.16000 5.673
33.18000 -0.079
33.20000 1.708
33.22000 4.300
33.24000 8.289
33.26000 5.918
33.28000 4.583
33.30000 1.064
33.32000 -1.195
33.34000 3.284
33.36000 3.475
33.38000 2.283
33.40000 1.565
33.42000 3.975
33.44000 5.225
33.46000 1.637
33.48000 1.496
33.50000 4.038
33.52000 2.935
33.54000 1.757
33.56000 2.683
33.58000 1.955
33.60000 5.681
33.62000 5.507
33.64000 8.632
33.66000 7.448
33.68000 3.338
33.70000 0.376
33.72000 1.966
33.74000 1.014
33.76000 5.753
33.78000 4.664
33.80000 1.055
33.82000 3.095
33.84000 8.360
33.86000 9.448
33.88000 7.922
33.90000 6.176
33.92000 3.212
33.94000 2.287
33.96000 5.880
33.98000 3.769
34.00000 4.914
34.02000 1.813
34.04000 3.643
34.06000 5.900
34.08000 3.873
34.10000 1.709
34.12000 0.279
34.14000 5.379
34.16000 8.055
34.18000 12.704
34.20000 8.146
34.22000 5.600
34.24000 3.015
34.26000 2.182
34.28000 4.362
34.30000 5.586
34.32000 6.643
34.34000 7.940
34.36000 3.998
34.38000 5.750
34.40000 3.143
34.42000 5.380
34.44000 7.067
34.46000 6.082
34.48000 4.714
34.50000 0.090
34.52000 -2.108
34.54000 -3.506
34.56000 6.600
34.58000 9.050
34.60000 6.090
34.62000 0.202
34.64000 0.289
34.66000 5.638
34.68000 4.909
34.70000 6.091
34.72000 5.046
34.74000 2.535
34.76000 1.711
34.78000 4.365
34.80000 5.387
34.82000 3.861
34.84000 6.429
34.86000 6.459
34.88000 11.111
34.90000 5.874
34.92000 2.591
34.94000 1.467
34.96000 3.028
34.98000 0.815
35.00000 6.352
35.02000 3.158
35.04000 5.070
35.06000 2.754
35.08000 2.990
35.10000 7.446
35.12000 7.162
35.14000 2.528
35.16000 3.267
35.18000 3.179
35.20000 2.518
35.22000 4.476
35.24000 3.155
35.26000 3.156
35.28000 7.036
35.30000 0.622
35.32000 5.858
35.34000 4.664
35.36000 2.655
35.38000 1.666
35.40000 3.233
35.42000 10.567
35.44000 9.779
35.46000 2.025
35.48000 -0.214
35.50000 6.728
35.52000 8.283
35.54000 4.726
35.56000 -1.007
35.58000 -3.495
35.60000 0.672
35.62000 6.483
35.64000 6.816
35.66000 7.479
35.68000 4.020
35.70000 0.542
35.72000 0.571
35.74000 -0.776
35.76000 1.236
35.78000 3.729
35.80000 2.037
35.82000 6.712
35.84000 8.774
35.86000 7.456
35.88000 1.026
35.90000 0.177
35.92000 -1.604
35.94000 0.679
35.96000 -1.644
35.98000 -2.847
36.00000 0.666
36.02000 0.975
36.04000 2.068
36.06000 1.758
36.08000 -0.753
36.10000 0.638
36.12000 3.487
36.14000 3.955
36.16000 -0.742
36.18000 2.540
36.20000 3.026
36.22000 0.907
36.24000 1.372
36.26000 5.737
36.28000 3.525
36.30000 0.066
36.32000 0.381
36.34000 1.994
36.36000 2.942
36.38000 2.349
36.40000 -1.050
36.42000 0.274
36.44000 0.309
36.46000 0.377
36.48000 1.953
36.50000 0.415
36.52000 -0.353
36.54000 2.672
36.56000 2.806
36.58000 1.979
36.60000 -3.185
36.62000 0.013
36.64000 3.796
36.66000 5.602
36.68000 2.540
36.70000 0.642
36.72000 5.445
36.74000 3.493
36.76000 3.040
36.78000 3.603
36.80000 4.082
36.82000 -0.116
36.84000 0.276
36.86000 2.326
36.88000 5.034
36.90000 6.815
36.92000 5.040
36.94000 3.480
36.96000 0.802
36.98000 1.932
37.00000 4.005
37.02000 1.146
37.04000 -1.414
37.06000 2.878
37.08000 1.122
37.10000 -3.540
37.12000 -1.309
37.14000 4.394
37.16000 5.893
37.18000 6.196
37.20000 6.822
37.22000 4.998
37.24000 0.093
37.26000 -2.666
37.28000 -3.565
37.30000 -1.210
37.32000 -1.267
37.34000 -0.666
37.36000 -0.100
37.38000 -1.209
37.40000 6.016
37.42000 5.466
37.44000 2.045
37.46000 2.129
37.48000 -0.144
37.50000 -3.096
37.52000 -0.830
37.54000 0.186
37.56000 0.669
37.58000 0.017
37.60000 -1.789
37.62000 0.755
37.64000 -0.032
37.66000 -3.091
37.68000 0.634
37.70000 0.933
37.72000 -3.621
37.74000 3.616
37.76000 2.724
37.78000 4.191
37.80000 4.959
37.82000 0.798
37.84000 7.721
37.86000 7.117
37.88000 4.760
37.90000 1.478
37.92000 2.696
37.94000 6.597
37.96000 4.841
37.98000 2.640
38.00000 1.644
38.02000 0.506
38.04000 5.598
38.06000 6.188
38.08000 0.950
38.10000 5.009
38.12000 5.837
38.14000 4.758
38.16000 5.452
38.18000 9.288
38.20000 10.468
38.22000 11.442
38.24000 13.126
38.26000 12.487
38.28000 7.689
38.30000 10.812
38.32000 7.487
38.34000 8.418
38.36000 9.537
38.38000 15.875
38.40000 13.603
38.42000 11.586
38.44000 9.239
38.46000 10.674
38.48000 18.554
38.50000 19.066
38.52000 17.986
38.54000 14.440
38.56000 19.993
38.58000 16.373
38.60000 12.034
38.62000 15.870
38.64000 16.055
38.66000 17.206
38.68000 21.015
38.70000 16.791
38.72000 20.823
38.74000 21.035
38.76000 20.804
38.78000 15.644
38.80000 19.994
38.82000 18.928
38.84000 18.374
38.86000 23.804
38.88000 24.990
38.90000 25.279
38.92000 26.562
38.94000 22.883
38.96000 26.913
38.98000 28.538
39.00000 26.324
39.02000 24.801
39.04000 31.104
39.06000 27.740
39.08000 27.554
39.10000 29.432
39.12000 32.091
39.14000 28.363
39.16000 33.312
39.18000 32.638
39.20000 37.449
39.22000 38.297
39.24000 37.143
39.26000 35.648
39.28000 36.148
39.30000 36.879
39.32000 43.469
39.34000 45.849
39.36000 42.227
39.38000 44.131
39.40000 46.382
39.42000 54.267
39.44000 60.690
39.46000 63.340
39.48000 59.305
39.50000 60.033
39.52000 65.150
39.54000 62.457
39.56000 61.061
39.58000 57.754
39.60000 69.838
39.62000 73.986
39.64000 73.610
39.66000 76.601
39.68000 86.612
39.70000 91.329
39.72000 98.538
39.74000 103.192
39.76000 103.082
39.78000 103.929
39.80000 108.686
39.82000 121.713
39.84000 123.140
39.86000 125.887
39.88000 135.505
39.90000 146.585
39.92000 153.261
39.94000 157.511
39.96000 162.384
39.98000 164.286
40.00000 172.825
40.02000 186.046
40.04000 195.983
40.06000 205.360
40.08000 215.205
40.10000 225.945
40.12000 236.764
40.14000 246.135
40.16000 264.571
40.18000 270.934
40.20000 287.505
40.22000 307.191
40.24000 315.711
40.26000 330.199
40.28000 346.898
40.30000 362.111
40.32000 374.287
40.34000 385.141
40.36000 408.023
40.38000 427.892
40.40000 446.890
40.42000 469.483
40.44000 482.807
40.46000 496.203
40.48000 516.263
40.50000 532.604
40.52000 556.409
40.54000 575.948
40.56000 590.569
40.58000 601.756
40.60000 618.707
40.62000 637.112
40.64000 651.343
40.66000 660.841
40.68000 660.141
40.70000 667.956
40.72000 675.895
40.74000 693.944
40.76000 694.869
40.78000 689.600
40.80000 687.744
40.82000 687.920
40.84000 683.456
40.86000 678.718
40.88000 669.255
40.90000 659.252
40.92000 646.078
40.94000 637.861
40.96000 628.098
40.98000 614.105
41.00000 599.869
41.02000 584.058
41.04000 566.092
41.06000 550.399
41.08000 532.366
41.10000 513.859
41.12000 484.759
41.14000 471.408
41.16000 455.956
41.18000 438.721
41.20000 419.699
41.22000 391.169
41.24000 369.173
41.26000 351.868
41.28000 331.902
41.30000 321.194
41.32000 303.471
41.34000 290.008
41.36000 279.455
41.38000 267.752
41.40000 256.333
41.42000 239.385
41.44000 221.477
41.46000 208.548
41.48000 201.299
41.50000 190.381
41.52000 179.783
41.54000 167.269
41.56000 159.034
41.58000 158.451
41.60000 147.987
41.62000 137.759
41.64000 130.665
41.66000 126.244
41.68000 117.133
41.70000 111.979
41.72000 112.100
41.74000 107.761
41.76000 97.472
41.78000 88.601
41.80000 87.019
41.82000 89.881
41.84000 81.266
41.86000 73.477
41.88000 73.810
41.90000 65.682
41.92000 59.748
41.94000 64.221
41.96000 65.424
41.98000 51.190
42.00000 48.015
42.02000 44.254
42.04000 44.169
42.06000 44.280
42.08000 47.770
42.10000 48.972
42.12000 46.310
42.14000 35.655
42.16000 31.921
42.18000 34.615
42.20000 37.817
42.22000 34.961
42.24000 31.814
42.26000 31.838
42.28000 27.283
42.30000 23.555
42.32000 19.174
42.34000 23.894
42.36000 20.570
42.38000 21.664
42.40000 20.549
42.42000 19.312
42.44000 16.491
42.46000 21.811
42.48000 23.530
42.50000 17.058
42.52000 10.194
42.54000 13.872
42.56000 12.572
42.58000 12.651
42.60000 13.943
42.62000 12.377
42.64000 7.551
42.66000 11.759
42.68000 12.819
42.70000 11.177
42.72000 7.556
42.74000 10.639
42.76000 13.784
42.78000 13.428
42.80000 8.365
42.82000 5.740
42.84000 10.207
42.86000 4.502
42.88000 9.418
42.90000 10.831
42.92000 3.727
42.94000 5.423
42.96000 6.917
42.98000 4.817
43.00000 3.652
43.02000 10.136
43.04000 3.240
43.06000 2.952
43.08000 4.144
43.10000 8.636
43.12000 5.808
43.14000 -3.643
43.16000 4.482
43.18000 1.531
43.20000 2.312
43.22000 3.561
43.24000 4.512
43.26000 2.582
43.28000 -0.174
43.30000 2.345
43.32000 7.007
43.34000 2.587
43.36000 3.217
43.38000 0.779
43.40000 5.255
43.42000 4.484
43.44000 0.071
43.46000 -1.450
43.48000 4.070
43.50000 3.475
43.52000 0.991
43.54000 1.577
43.56000 2.368
43.58000 4.255
43.60000 4.376
43.62000 2.055
43.64000 0.822
43.66000 4.869
43.68000 2.417
43.70000 0.053
43.72000 2.301
43.74000 4.622
43.76000 3.379
43.78000 4.225
43.80000 7.000
43.82000 5.134
43.84000 6.458
43.86000 5.652
43.88000 -1.014
43.90000 -1.481
43.92000 3.598
43.94000 5.954
43.96000 1.982
43.98000 1.252
44.00000 3.476
44.02000 1.658
44.04000 2.243
44.06000 4.590
44.08000 3.664
44.10000 7.396
44.12000 8.264
44.14000 8.254
44.16000 2.027
44.18000 -3.520
44.20000 -2.524
44.22000 3.576
44.24000 5.458
44.26000 3.249
44.28000 7.575
44.30000 5.057
44.32000 4.492
44.34000 0.251
44.36000 3.109
44.38000 3.751
44.40000 5.211
44.42000 2.644
44.44000 2.126
44.46000 0.685
44.48000 8.332
44.50000 7.013
44.52000 4.358
44.54000 4.178
44.56000 2.728
44.58000 -2.318
44.60000 1.950
44.62000 1.943
44.64000 -1.632
44.66000 1.285
44.68000 -0.438
44.70000 0.556
44.72000 -3.523
44.74000 3.491
44.76000 6.665
44.78000 3.868
44.80000 5.583
44.82000 6.240
44.84000 3.607
44.86000 6.345
44.88000 4.647
44.90000 3.028
44.92000 8.067
44.94000 3.354
44.96000 5.199
44.98000 2.218
45.00000 7.487
45.02000 5.946
45.04000 4.103
45.06000 3.787
45.08000 7.557
45.10000 3.152
45.12000 4.753
45.14000 4.308
45.16000 -0.666
45.18000 6.271
45.20000 5.124
45.22000 7.423
45.24000 8.537
45.26000 4.337
45.28000 -3.511
45.30000 1.065
45.32000 6.819
45.34000 6.519
45.36000 10.484
45.38000 13.362
45.40000 8.514
45.42000 -1.821
45.44000 2.332
45.46000 5.079
45.48000 8.359
45.50000 12.595
45.52000 7.931
45.54000 7.138
45.56000 10.975
45.58000 11.098
45.60000 11.234
45.62000 15.830
45.64000 7.383
45.66000 8.930
45.68000 11.828
45.70000 10.640
45.72000 10.852
45.74000 9.176
45.76000 12.745
45.78000 11.524
45.80000 12.973
45.82000 13.630
45.84000 11.673
45.86000 10.373
45.88000 10.921
45.90000 13.484
45.92000 19.250
45.94000 13.396
45.96000 11.280
45.98000 14.611
46.00000 20.865
46.02000 16.030
46.04000 12.981
46.06000 14.071
46.08000 12.868
46.10000 20.317
46.12000 28.018
46.14000 23.504
46.16000 22.333
46.18000 17.757
46.20000 18.956
46.22000 30.560
46.24000 25.768
46.26000 27.933
46.28000 30.611
46.30000 29.391
46.32000 25.909
46.34000 25.124
46.36000 33.859
46.38000 30.145
46.40000 29.085
46.42000 35.077
46.44000 34.600
46.46000 30.323
46.48000 28.447
46.50000 34.598
46.52000 40.575
46.54000 39.905
46.56000 39.817
46.58000 39.949
46.60000 32.473
46.62000 37.269
46.64000 45.155
46.66000 47.025
46.68000 49.311
46.70000 49.464
46.72000 50.095
46.74000 50.236
46.76000 55.757
46.78000 55.850
46.80000 54.448
46.82000 53.075
46.84000 53.332
46.86000 60.885
46.88000 64.453
46.90000 62.107
46.92000 67.963
46.94000 69.470
46.96000 73.149
46.98000 63.083
47.00000 57.437
47.02000 56.065
47.04000 61.990
47.06000 68.584
47.08000 67.511
47.10000 68.099
47.12000 65.835
47.14000 73.164
47.16000 72.011
47.18000 69.152
47.20000 77.453
47.22000 73.566
47.24000 69.389
47.26000 73.376
47.28000 78.260
47.30000 76.344
47.32000 70.628
47.34000 73.521
47.36000 81.778
47.38000 85.720
47.40000 82.882
47.42000 76.644
47.44000 68.216
47.46000 67.635
47.48000 75.589
47.50000 78.459
47.52000 72.687
47.54000 74.949
47.56000 77.330
47.58000 77.062
47.60000 73.069
47.62000 73.144
47.64000 61.472
47.66000 62.862
47.68000 68.924
47.70000 67.783
47.72000 66.885
47.74000 53.719
47.76000 57.892
47.78000 62.211
47.80000 61.276
47.82000 55.725
47.84000 57.079
47.86000 50.165
47.88000 43.959
47.90000 47.047
47.92000 51.906
47.94000 40.928
47.96000 39.005
47.98000 43.835
48.00000 40.031
48.02000 39.697
48.04000 39.078
48.06000 35.973
48.08000 35.734
48.10000 34.042
48.12000 37.071
48.14000 36.326
48.16000 30.229
48.18000 29.389
48.20000 27.592
48.22000 21.920
48.24000 22.115
48.26000 26.697
48.28000 26.495
48.30000 29.915
48.32000 24.738
48.34000 27.325
48.36000 21.938
48.38000 19.002
48.40000 13.918
48.42000 16.192
48.44000 20.167
48.46000 23.952
48.48000 26.844
48.50000 18.362
48.52000 13.905
48.54000 12.818
48.56000 13.734
48.58000 16.148
48.60000 13.676
48.62000 8.270
48.64000 7.484
48.66000 6.864
48.68000 12.158
48.70000 10.234
48.72000 10.153
48.74000 6.445
48.76000 9.217
48.78000 11.342
48.80000 10.840
48.82000 10.463
48.84000 6.391
48.86000 6.683
48.88000 8.411
48.90000 6.565
48.92000 6.751
48.94000 -3.245
48.96000 1.871
48.98000 8.031
49.00000 6.266
49.02000 3.596
49.04000 8.023
49.06000 8.385
49.08000 11.320
49.10000 5.852
49.12000 5.769
49.14000 4.261
49.16000 3.518
49.18000 8.323
49.20000 11.320
49.22000 11.230
49.24000 9.363
49.26000 3.742
49.28000 3.614
49.30000 1.086
49.32000 -3.174
49.34000 1.100
49.36000 1.122
49.38000 -3.163
49.40000 7.028
49.42000 9.602
49.44000 1.508
49.46000 3.937
49.48000 4.016
49.50000 2.015
49.52000 1.555
49.54000 3.533
49.56000 7.326
49.58000 3.776
49.60000 6.365
49.62000 11.730
49.64000 7.583
49.66000 3.548
49.68000 3.008
49.70000 4.093
49.72000 3.927
49.74000 6.577
49.76000 4.527
49.78000 2.180
49.80000 4.448
49.82000 5.947
49.84000 1.531
49.86000 -0.933
49.88000 3.050
49.90000 5.012
49.92000 7.626
49.94000 0.574
49.96000 0.782
49.98000 0.448
50.00000 3.879
50.02000 11.804
50.04000 5.045
50.06000 0.384
50.08000 4.669
50.10000 5.931
50.12000 5.923
50.14000 6.512
50.16000 7.283
50.18000 4.808
50.20000 7.019
50.22000 0.912
50.24000 0.512
50.26000 4.712
50.28000 4.982
50.30000 5.777
50.32000 4.843
50.34000 1.828
50.36000 1.694
50.38000 4.458
50.40000 4.178
50.42000 5.114
50.44000 0.253
50.46000 1.153
50.48000 4.402
50.50000 6.070
50.52000 3.186
50.54000 4.522
50.56000 -0.767
50.58000 -0.300
50.60000 3.317
50.62000 2.985
50.64000 -3.039
50.66000 7.861
50.68000 5.215
50.70000 8.089
50.72000 10.176
50.74000 7.391
50.76000 3.399
50.78000 3.601
50.80000 3.715
50.82000 2.995
50.84000 -1.193
50.86000 -2.892
50.88000 7.149
50.90000 10.412
50.92000 4.650
50.94000 -1.653
50.96000 2.146
50.98000 -0.313
51.00000 1.010
51.02000 1.187
51.04000 7.082
51.06000 1.406
51.08000 2.323
51.10000 8.515
51.12000 9.824
51.14000 8.592
51.16000 4.757
51.18000 7.151
51.20000 7.667
51.22000 6.869
51.24000 7.825
51.26000 4.877
51.28000 4.220
51.30000 2.199
51.32000 -0.039
51.34000 -3.016
51.36000 1.197
51.38000 3.105
51.40000 7.386
51.42000 11.749
51.44000 11.811
51.46000 7.893
51.48000 7.592
51.50000 -1.481
51.52000 0.440
51.54000 6.598
51.56000 3.796
51.58000 3.599
51.60000 4.869
51.62000 -2.234
51.64000 4.601
51.66000 8.850
51.68000 5.196
51.70000 5.017
51.72000 3.613
51.74000 2.949
51.76000 -1.674
51.78000 -0.126
51.80000 4.355
51.82000 6.129
51.84000 3.294
51.86000 0.768
51.88000 2.142
51.90000 5.134
51.92000 4.721
51.94000 4.194
51.96000 -2.987
51.98000 5.575
52.00000 9.450
52.02000 8.496
52.04000 6.456
52.06000 7.447
52.08000 6.174
52.10000 8.250
52.12000 6.397
52.14000 3.745
52.16000 2.239
52.18000 1.409
52.20000 6.065
52.22000 10.506
52.24000 4.914
52.26000 4.882
52.28000 9.903
52.30000 12.568
52.32000 10.518
52.34000 10.741
52.36000 7.051
52.38000 5.566
52.40000 -0.372
52.42000 -2.959
52.44000 -2.537
52.46000 -0.076
52.48000 -0.712
52.50000 1.578
52.52000 4.310
52.54000 6.148
52.56000 5.682
52.58000 6.332
52.60000 4.358
52.62000 -1.591
52.64000 0.049
52.66000 3.480
52.68000 10.187
52.70000 8.995
52.72000 4.401
52.74000 -0.378
52.76000 1.775
52.78000 1.051
52.80000 3.139
52.82000 -0.400
52.84000 -2.309
52.86000 -1.805
52.88000 0.673
52.90000 1.974
52.92000 0.275
52.94000 3.634
52.96000 4.457
52.98000 2.795
53.00000 1.884
53.02000 -0.776
53.04000 2.327
53.06000 0.597
53.08000 -0.781
53.10000 3.057
53.12000 2.280
53.14000 3.524
53.16000 4.879
53.18000 1.637
53.20000 2.754
53.22000 0.924
53.24000 1.285
53.26000 6.495
53.28000 7.786
53.30000 4.320
53.32000 -1.719
53.34000 -0.707
53.36000 1.648
53.38000 3.670
53.40000 2.447
53.42000 4.178
53.44000 4.625
53.46000 5.114
53.48000 2.931
53.50000 -2.947
53.52000 2.561
53.54000 2.978
53.56000 3.653
53.58000 6.401
53.60000 1.440
53.62000 1.771
53.64000 5.683
53.66000 9.525
53.68000 2.842
53.70000 5.932
53.72000 9.294
53.74000 2.469
53.76000 5.052
53.78000 3.767
53.80000 4.790
53.82000 2.867
53.84000 5.382
53.86000 3.414
53.88000 2.401
53.90000 1.528
53.92000 5.121
53.94000 0.963
53.96000 1.624
53.98000 3.785
54.00000 2.570
54.02000 1.594
54.04000 2.619
54.06000 2.267
54.08000 1.935
54.10000 1.950
54.12000 1.779
54.14000 5.969
54.16000 6.394
54.18000 7.557
54.20000 4.176
54.22000 0.840
54.24000 0.449
54.26000 -1.887
54.28000 -2.935
54.30000 0.999
54.32000 6.561
54.34000 2.440
54.36000 -2.637
54.38000 -0.417
54.40000 0.980
54.42000 -0.836
54.44000 5.971
54.46000 5.919
54.48000 5.043
54.50000 3.171
54.52000 -2.705
54.54000 1.308
54.56000 1.476
54.58000 4.348
54.60000 3.256
54.62000 -2.077
54.64000 0.894
54.66000 -2.918
54.68000 -0.542
54.70000 -0.524
54.72000 -2.703
54.74000 -1.189
54.76000 3.600
54.78000 5.900
54.80000 7.352
54.82000 3.121
54.84000 5.830
54.86000 5.597
54.88000 5.115
54.90000 3.400
54.92000 0.554
54.94000 5.366
54.96000 2.271
54.98000 -0.972
55.00000 -2.868
55.02000 4.564
55.04000 5.686
55.06000 6.828
55.08000 6.283
55.10000 4.498
55.12000 1.261
55.14000 6.078
55.16000 4.278
55.18000 9.505
55.20000 6.379
55.22000 0.701
55.24000 -0.014
55.26000 0.742
55.28000 2.921
55.30000 1.969
55.32000 1.787
55.34000 4.135
55.36000 6.702
55.38000 3.252
55.40000 2.486
55.42000 4.911
55.44000 2.977
55.46000 1.324
55.48000 3.933
55.50000 0.776
55.52000 4.610
55.54000 3.670
55.56000 5.794
55.58000 6.635
55.60000 3.005
55.62000 -0.031
55.64000 3.318
55.66000 4.899
55.68000 0.178
55.70000 -0.616
55.72000 -2.050
55.74000 2.071
55.76000 7.451
55.78000 4.421
55.80000 -0.627
55.82000 -1.741
55.84000 -2.872
55.86000 0.183
55.88000 4.041
55.90000 5.954
55.92000 2.374
55.94000 5.403
55.96000 6.541
55.98000 4.970
56.00000 5.552
56.02000 2.378
56.04000 2.958
56.06000 2.601
56.08000 4.862
56.10000 4.054
56.12000 5.409
56.14000 8.948
56.16000 12.046
56.18000 10.830
56.20000 3.958
56.22000 3.536
56.24000 1.420
56.26000 3.948
56.28000 6.489
56.30000 7.007
56.32000 5.574
56.34000 7.035
56.36000 5.001
56.38000 7.962
56.40000 4.188
56.42000 4.962
56.44000 3.898
56.46000 5.875
56.48000 3.588
56.50000 4.228
56.52000 2.900
56.54000 -0.107
56.56000 1.605
56.58000 4.496
56.60000 1.715
56.62000 1.219
56.64000 -2.845
56.66000 0.182
56.68000 -2.843
56.70000 2.253
56.72000 5.663
56.74000 1.642
56.76000 5.397
56.78000 4.044
56.80000 0.942
56.82000 3.535
56.84000 5.428
56.86000 5.562
56.88000 4.106
56.90000 2.739
56.92000 2.070
56.94000 -2.841
56.96000 0.293
56.98000 1.412
57.00000 2.003
57.02000 0.823
57.04000 2.730
57.06000 4.581
57.08000 5.433
57.10000 3.557
57.12000 1.942
57.14000 4.789
57.16000 3.369
57.18000 2.247
57.20000 0.989
57.22000 4.238
57.24000 6.165
57.26000 2.207
57.28000 1.929
57.30000 3.466
57.32000 4.693
57.34000 7.097
57.36000 4.074
57.38000 2.952
57.40000 -1.921
57.42000 1.841
57.44000 2.356
57.46000 3.934
57.48000 4.231
57.50000 1.255
57.52000 3.402
57.54000 -0.057
57.56000 2.334
57.58000 3.416
57.60000 1.771
57.62000 2.261
57.64000 1.960
57.66000 -0.754
57.68000 -1.890
57.70000 1.394
57.72000 4.066
57.74000 5.311
57.76000 5.723
57.78000 3.204
57.80000 2.057
57.82000 4.654
57.84000 3.680
57.86000 3.334
57.88000 5.121
57.90000 2.424
57.92000 1.611
57.94000 -2.795
57.96000 4.546
57.98000 4.660
58.00000 2.524
58.02000 6.605
58.04000 7.859
58.06000 8.099
58.08000 5.801
58.10000 2.057
58.12000 0.931
58.14000 4.053
58.16000 6.619
58.18000 8.182
58.20000 10.519
58.22000 2.207
58.24000 3.044
58.26000 1.414
58.28000 2.376
58.30000 4.394
58.32000 4.979
58.34000 2.714
58.36000 1.260
58.38000 -1.704
58.40000 1.230
58.42000 -2.776
58.44000 2.201
58.46000 6.184
58.48000 0.673
58.50000 -2.518
58.52000 2.422
58.54000 5.612
58.56000 1.163
58.58000 0.808
58.60000 4.901
58.62000 3.052
58.64000 3.477
58.66000 0.033
58.68000 -0.252
58.70000 2.307
58.72000 5.818
58.74000 0.831
58.76000 2.979
58.78000 6.550
58.80000 11.536
58.82000 6.461
58.84000 -0.388
58.86000 -2.759
58.88000 2.347
58.90000 5.124
58.92000 8.643
58.94000 6.545
58.96000 1.602
58.98000 3.698
59.00000 4.669
59.02000 7.391
59.04000 4.735
59.06000 -0.051
59.08000 -1.356
59.10000 2.216
59.12000 3.939
59.14000 -0.202
59.16000 0.303
59.18000 1.802
59.20000 5.326
59.22000 5.931
59.24000 7.863
59.26000 6.436
59.28000 4.412
59.30000 0.503
59.32000 0.901
59.34000 3.097
59.36000 5.044
59.38000 7.057
59.40000 1.124
59.42000 -0.638
59.44000 4.345
59.46000 7.217
59.48000 3.690
59.50000 4.560
59.52000 2.577
59.54000 4.887
59.56000 8.009
59.58000 1.700
59.60000 -0.832
59.62000 -2.751
59.64000 -0.480
59.66000 -0.755
59.68000 4.431
59.70000 8.223
59.72000 2.579
59.74000 1.624
59.76000 0.841
59.78000 5.233
59.80000 5.721
59.82000 2.345
59.84000 0.353
59.86000 3.175
59.88000 5.070
59.90000 4.533
59.92000 2.176
59.94000 5.237
59.96000 6.079
59.98000 -0.233
60.00000 2.713
60.02000 3.616
60.04000 4.259
60.06000 3.367
60.08000 0.185
60.10000 4.258
60.12000 1.758
60.14000 -0.899
60.16000 4.851
60.18000 6.347
60.20000 7.732
60.22000 6.824
60.24000 4.505
60.26000 7.962
60.28000 7.951
60.30000 6.519
60.32000 5.858
60.34000 3.131
60.36000 -0.642
60.38000 -0.605
60.40000 2.110
60.42000 5.171
60.44000 6.389
60.46000 5.953
60.48000 -2.724
60.50000 0.200
60.52000 2.811
60.54000 0.693
60.56000 2.711
60.58000 1.295
60.60000 1.799
60.62000 0.282
60.64000 3.851
60.66000 4.106
60.68000 0.194
60.70000 5.779
60.72000 4.433
60.74000 4.236
60.76000 7.640
60.78000 0.721
60.80000 0.440
60.82000 0.064
60.84000 -2.537
60.86000 -1.915
60.88000 2.634
60.90000 2.327
60.92000 1.822
60.94000 5.132
60.96000 1.859
60.98000 1.848
61.00000 1.070
61.02000 1.573
61.04000 4.535
61.06000 7.123
61.08000 7.162
61.10000 3.400
61.12000 -0.365
61.14000 2.859
61.16000 -2.698
61.18000 0.651
61.20000 4.449
61.22000 2.854
61.24000 2.662
61.26000 3.389
61.28000 -0.371
61.30000 -1.001
61.32000 0.541
61.34000 4.243
61.36000 10.431
61.38000 4.578
61.40000 -0.602
61.42000 4.793
61.44000 5.870
61.46000 4.445
61.48000 3.836
61.50000 2.422
61.52000 0.746
61.54000 2.109
61.56000 -0.665
61.58000 -2.672
61.60000 -0.399
61.62000 -1.995
61.64000 4.672
61.66000 2.917
61.68000 2.218
61.70000 2.373
61.72000 3.697
61.74000 3.592
61.76000 4.732
61.78000 0.207
61.80000 -1.017
61.82000 1.852
61.84000 5.933
61.86000 5.982
61.88000 2.909
61.90000 2.067
61.92000 -0.075
61.94000 2.165
61.96000 4.068
61.98000 5.058
62.00000 4.838
62.02000 1.849
62.04000 -0.907
62.06000 -2.651
62.08000 5.943
62.10000 8.374
62.12000 3.596
62.14000 5.872
62.16000 3.065
62.18000 -0.200
62.20000 -0.572
62.22000 1.550
62.24000 3.021
62.26000 0.088
62.28000 -0.652
62.30000 -0.803
62.32000 2.723
62.34000 0.915
62.36000 -0.880
62.38000 0.329
62.40000 0.535
62.42000 2.120
62.44000 2.833
62.46000 1.367
62.48000 1.518
62.50000 3.583
62.52000 1.132
62.54000 -2.641
62.56000 -0.151
62.58000 1.627
62.60000 4.690
62.62000 3.403
62.64000 1.250
62.66000 2.995
62.68000 2.348
62.70000 4.165
62.72000 2.100
62.74000 -2.569
62.76000 -2.649
62.78000 -0.280
62.80000 6.349
62.82000 3.410
62.84000 2.748
62.86000 0.209
62.88000 4.156
62.90000 1.657
62.92000 -0.056
62.94000 3.199
62.96000 5.236
62.98000 4.738
63.00000 2.694
63.02000 -0.366
63.04000 3.762
63.06000 4.013
63.08000 0.603
63.10000 4.099
63.12000 2.306
63.14000 -0.064
63.16000 0.312
63.18000 1.429
63.20000 0.109
63.22000 -1.236
63.24000 -2.404
63.26000 0.899
63.28000 0.932
63.30000 0.089
63.32000 -2.655
63.34000 1.238
63.36000 1.029
63.38000 -0.446
63.40000 2.386
63.42000 6.193
63.44000 0.909
63.46000 1.052
63.48000 -0.754
63.50000 1.223
63.52000 3.854
63.54000 5.431
63.56000 2.945
63.58000 0.211
63.60000 0.490
63.62000 3.233
63.64000 0.565
63.66000 5.799
63.68000 5.364
63.70000 3.647
63.72000 1.925
63.74000 1.751
63.76000 -1.016
63.78000 -2.124
63.80000 1.287
63.82000 2.109
63.84000 2.013
63.86000 -2.644
63.88000 0.427
63.90000 0.563
63.92000 -0.673
63.94000 0.943
63.96000 0.978
63.98000 1.546
64.00000 0.271
64.02000 -1.196
64.04000 0.901
64.06000 1.355
64.08000 0.404
64.10000 1.824
64.12000 5.302
64.14000 3.279
64.16000 -0.679
64.18000 -0.721
64.20000 -1.203
64.22000 6.555
64.24000 2.492
64.26000 1.526
64.28000 0.242
64.30000 -0.114
64.32000 3.517
64.34000 2.239
64.36000 -0.106
64.38000 -1.282
64.40000 2.673
64.42000 3.490
64.44000 -1.042
64.46000 0.670
64.48000 0.446
64.50000 4.745
64.52000 3.842
64.54000 4.845
64.56000 8.129
64.58000 7.611
64.60000 0.487
64.62000 -0.101
64.64000 -0.321
64.66000 1.229
64.68000 2.573
64.70000 0.405
64.72000 1.766
64.74000 5.862
64.76000 5.139
64.78000 -0.264
64.80000 0.338
64.82000 2.087
64.84000 -0.751
64.86000 5.919
64.88000 4.694
64.90000 4.080
64.92000 1.577
64.94000 2.948
64.96000 2.861
64.98000 -0.513
65.00000 -0.468
65.02000 2.769
65.04000 4.071
65.06000 5.053
65.08000 1.581
65.10000 0.661
65.12000 0.593
65.14000 3.650
65.16000 6.040
65.18000 4.014
65.20000 0.095
65.22000 2.586
65.24000 4.684
65.26000 1.159
65.28000 -0.629
65.30000 0.359
65.32000 1.365
65.34000 -2.597
65.36000 -0.222
65.38000 -2.026
65.40000 -0.888
65.42000 3.037
65.44000 2.507
65.46000 0.446
65.48000 0.836
65.50000 3.529
65.52000 3.066
65.54000 3.077
65.56000 1.926
65.58000 2.173
65.60000 6.384
65.62000 0.250
65.64000 4.928
65.66000 3.955
65.68000 2.381
65.70000 -2.598
65.72000 1.071
65.74000 0.344
65.76000 0.186
65.78000 3.943
65.80000 5.760
65.82000 1.260
65.84000 0.750
65.86000 0.972
65.88000 2.490
65.90000 1.975
65.92000 -1.177
65.94000 -0.117
65.96000 0.154
65.98000 1.342
66.00000 2.900
66.02000 0.995
66.04000 -1.602
66.06000 0.082
66.08000 1.392
66.10000 0.713
66.12000 3.275
66.14000 5.922
66.16000 1.280
66.18000 -1.230
66.20000 -2.082
66.22000 -1.822
66.24000 -1.441
66.26000 0.329
66.28000 -2.600
66.30000 -0.463
66.32000 0.951
66.34000 0.305
66.36000 -1.713
66.38000 -2.601
66.40000 -0.838
66.42000 0.832
66.44000 -1.175
66.46000 1.123
66.48000 4.592
66.50000 4.944
66.52000 3.021
66.54000 5.397
66.56000 3.873
66.58000 2.454
66.60000 -0.417
66.62000 2.333
66.64000 3.188
66.66000 0.678
66.68000 1.910
66.70000 2.345
66.72000 2.281
66.74000 4.681
66.76000 1.018
66.78000 -1.352
66.80000 1.328
66.82000 1.347
66.84000 -2.168
66.86000 -2.593
66.88000 4.009
66.90000 5.293
66.92000 3.730
66.94000 2.251
66.96000 4.041
66.98000 1.942
67.00000 1.206
67.02000 1.530
67.04000 0.291
67.06000 -2.601
67.08000 1.474
67.10000 0.657
67.12000 -2.359
67.14000 0.459
67.16000 2.099
67.18000 1.241
67.20000 1.973
67.22000 3.508
67.24000 0.265
67.26000 -2.618
67.28000 -0.684
67.30000 0.498
67.32000 6.724
67.34000 2.758
67.36000 -0.928
67.38000 -1.729
67.40000 -2.028
67.42000 1.577
67.44000 0.549
67.46000 -0.097
67.48000 0.506
67.50000 -1.763
67.52000 2.237
67.54000 3.420
67.56000 1.385
67.58000 0.522
67.60000 0.854
67.62000 -0.010
67.64000 1.009
67.66000 0.260
67.68000 -0.146
67.70000 -1.462
67.72000 -1.204
67.74000 -0.143
67.76000 0.437
67.78000 -0.770
67.80000 -0.867
67.82000 -0.627
67.84000 -0.907
67.86000 0.060
67.88000 -2.416
67.90000 -0.073
67.92000 3.719
67.94000 3.163
67.96000 1.770
67.98000 -0.102
68.00000 2.918
68.02000 -0.669
68.04000 -1.011
68.06000 -1.365
68.08000 0.347
68.10000 3.819
68.12000 0.226
68.14000 0.545
68.16000 4.893
68.18000 1.722
68.20000 -0.381
68.22000 1.207
68.24000 0.239
68.26000 3.520
68.28000 4.995
68.30000 3.046
68.32000 5.986
68.34000 4.397
68.36000 3.208
68.38000 8.954
68.40000 8.441
68.42000 5.343
68.44000 9.005
68.46000 7.979
68.48000 5.692
68.50000 8.327
68.52000 8.524
68.54000 8.298
68.56000 8.349
68.58000 9.204
68.60000 10.792
68.62000 12.689
68.64000 13.478
68.66000 14.529
68.68000 11.709
68.70000 13.369
68.72000 13.360
68.74000 14.643
68.76000 18.491
68.78000 16.070
68.80000 18.668
68.82000 20.039
68.84000 20.097
68.86000 14.304
68.88000 14.621
68.90000 21.815
68.92000 16.996
68.94000 19.387
68.96000 19.973
68.98000 20.116
69.00000 19.756
69.02000 18.979
69.04000 19.938
69.06000 21.976
69.08000 26.125
69.10000 27.985
69.12000 24.799
69.14000 25.660
69.16000 22.143
69.18000 20.895
69.20000 24.544
69.22000 24.727
69.24000 25.408
69.26000 24.685
69.28000 25.972
69.30000 26.414
69.32000 27.701
69.34000 27.292
69.36000 26.446
69.38000 32.357
69.40000 28.127
69.42000 25.695
69.44000 21.140
69.46000 24.272
69.48000 31.426
69.50000 24.890
69.52000 18.901
69.54000 25.149
69.56000 25.769
69.58000 24.637
69.60000 25.052
69.62000 18.111
69.64000 17.576
69.66000 22.693
69.68000 17.347
69.70000 14.750
69.72000 15.450
69.74000 16.590
69.76000 16.428
69.78000 18.157
69.80000 18.717
69.82000 17.592
69.84000 15.279
69.86000 16.219
69.88000 18.265
69.90000 13.539
69.92000 9.837
69.94000 9.961
69.96000 10.254
69.98000 9.506
70.00000 12.716
70.02000 7.235
70.04000 8.440
70.06000 12.441
70.08000 10.849
70.10000 7.622
70.12000 6.452
70.14000 11.932
70.16000 6.744
70.18000 1.812
70.20000 7.377
70.22000 6.644
70.24000 2.457
70.26000 -0.129
70.28000 3.900
70.30000 5.271
70.32000 4.910
70.34000 5.819
70.36000 3.475
70.38000 -0.407
70.40000 2.167
70.42000 3.479
70.44000 3.152
70.46000 0.639
70.48000 2.387
70.50000 4.304
70.52000 2.854
70.54000 5.487
70.56000 -1.081
70.58000 -0.550
70.60000 4.410
70.62000 2.776
70.64000 3.839
70.66000 5.458
70.68000 6.212
70.70000 3.237
70.72000 -2.481
70.74000 -1.337
70.76000 0.303
70.78000 3.456
70.80000 4.103
70.82000 3.175
70.84000 1.385
70.86000 -0.903
70.88000 -0.229
70.90000 -2.279
70.92000 1.276
70.94000 -0.594
70.96000 1.919
70.98000 1.632
71.00000 2.201
71.02000 -0.749
71.04000 1.855
71.06000 0.485
71.08000 4.473
71.10000 5.807
71.12000 4.032
71.14000 0.582
71.16000 -1.212
71.18000 2.225
71.20000 6.143
71.22000 1.835
71.24000 -0.547
71.26000 -0.858
71.28000 4.730
71.30000 1.778
71.32000 1.100
71.34000 -0.493
71.36000 0.300
71.38000 -0.747
71.40000 0.203
71.42000 -2.418
71.44000 -0.023
71.46000 2.499
71.48000 1.845
71.50000 -0.857
71.52000 0.770
71.54000 1.838
71.56000 0.941
71.58000 -0.280
71.60000 2.362
71.62000 4.610
71.64000 2.526
71.66000 0.407
71.68000 -0.945
71.70000 2.315
71.72000 5.469
71.74000 0.244
71.76000 0.170
71.78000 -0.251
71.80000 1.356
71.82000 -1.927
71.84000 -2.373
71.86000 -1.976
71.88000 0.341
71.90000 2.563
71.92000 2.571
71.94000 0.836
71.96000 0.273
71.98000 2.057
72.00000 0.762
72.02000 2.438
72.04000 2.120
72.06000 2.214
72.08000 0.353
72.10000 -2.165
72.12000 -2.136
72.14000 0.015
72.16000 1.462
72.18000 4.009
72.20000 2.540
72.22000 -2.336
72.24000 -0.433
72.26000 0.044
72.28000 1.663
72.30000 2.627
72.32000 -2.174
72.34000 -2.261
72.36000 -0.765
72.38000 -1.912
72.40000 -0.484
72.42000 4.233
72.44000 1.503
72.46000 3.623
72.48000 2.198
72.50000 1.843
72.52000 2.224
72.54000 2.644
72.56000 3.991
72.58000 2.054
72.60000 2.848
72.62000 6.130
72.64000 2.002
72.66000 -2.284
72.68000 0.045
72.70000 1.830
72.72000 3.272
72.74000 3.762
72.76000 2.300
72.78000 1.054
72.80000 3.979
72.82000 4.143
72.84000 5.101
72.86000 4.639
72.88000 0.935
72.90000 -0.964
72.92000 1.347
72.94000 5.734
72.96000 8.177
72.98000 7.323
73.00000 1.667
73.02000 1.689
73.04000 1.751
73.06000 4.296
73.08000 6.492
73.10000 6.560
73.12000 1.686
73.14000 4.611
73.16000 1.930
73.18000 -0.812
73.20000 -0.289
73.22000 -0.243
73.24000 0.406
73.26000 6.793
73.28000 6.857
73.30000 4.672
73.32000 3.474
73.34000 1.560
73.36000 6.135
73.38000 7.802
73.40000 2.117
73.42000 -2.253
73.44000 -0.111
73.46000 5.885
73.48000 8.791
73.50000 7.203
73.52000 -0.144
73.54000 -0.782
73.56000 1.087
73.58000 4.255
73.60000 3.100
73.62000 2.883
73.64000 2.917
73.66000 0.314
73.68000 2.573
73.70000 2.521
73.72000 2.593
73.74000 1.858
73.76000 -1.601
73.78000 0.697
73.80000 1.471
73.82000 0.285
73.84000 3.463
73.86000 0.341
73.88000 -2.243
73.90000 -0.358
73.92000 0.354
73.94000 0.857
73.96000 5.673
73.98000 7.221
74.00000 8.412
74.02000 3.620
74.04000 2.624
74.06000 2.355
74.08000 0.206
74.10000 -1.529
74.12000 1.799
74.14000 4.956
74.16000 1.779
74.18000 2.587
74.20000 2.796
74.22000 2.457
74.24000 5.719
74.26000 6.822
74.28000 3.129
74.30000 2.442
74.32000 2.199
74.34000 2.153
74.36000 1.636
74.38000 0.737
74.40000 -1.590
74.42000 -1.511
74.44000 -0.417
74.46000 -1.058
74.48000 -1.632
74.50000 3.083
74.52000 6.280
74.54000 8.335
74.56000 5.298
74.58000 0.494
74.60000 -0.281
74.62000 -2.240
74.64000 -0.205
74.66000 -0.074
74.68000 -1.206
74.70000 -1.855
74.72000 2.516
74.74000 -0.652
74.76000 1.357
74.78000 1.939
74.80000 -0.408
74.82000 -1.312
74.84000 1.118
74.86000 0.747
74.88000 3.280
74.90000 1.323
74.92000 3.350
74.94000 2.840
74.96000 5.071
74.98000 3.626
75.00000 3.227
75.02000 3.917
75.04000 3.416
75.06000 3.300
75.08000 2.776
75.10000 4.550
75.12000 8.626
75.14000 4.853
75.16000 3.778
75.18000 4.432
75.20000 2.465
75.22000 3.969
75.24000 2.452
75.26000 0.974
75.28000 1.064
75.30000 -2.236
75.32000 2.766
75.34000 6.170
75.36000 4.483
75.38000 1.461
75.40000 2.933
75.42000 5.656
75.44000 4.476
75.46000 2.164
75.48000 1.733
75.50000 0.879
75.52000 5.399
75.54000 5.481
75.56000 2.994
75.58000 1.244
75.60000 3.025
75.62000 5.530
75.64000 1.813
75.66000 -2.145
75.68000 0.043
75.70000 0.139
75.72000 1.754
75.74000 2.607
75.76000 -0.580
75.78000 3.234
75.80000 7.014
75.82000 5.789
75.84000 4.149
75.86000 3.886
75.88000 0.755
75.90000 5.596
75.92000 7.210
75.94000 9.114
75.96000 8.609
75.98000 6.856
76.00000 6.340
76.02000 3.906
76.04000 0.537
76.06000 1.701
76.08000 -0.607
76.10000 -2.260
76.12000 -1.266
76.14000 2.567
76.16000 3.300
76.18000 2.271
76.20000 2.421
76.22000 3.986
76.24000 4.213
76.26000 4.770
76.28000 4.936
76.30000 3.926
76.32000 2.834
76.34000 1.819
76.36000 4.249
76.38000 3.440
76.40000 3.658
76.42000 0.471
76.44000 1.902
76.46000 4.570
76.48000 2.941
76.50000 4.679
76.52000 1.391
76.54000 0.963
76.56000 3.609
76.58000 3.523
76.60000 3.129
76.62000 4.760
76.64000 3.868
76.66000 1.982
76.68000 -2.253
76.70000 0.131
76.72000 6.237
76.74000 5.949
76.76000 7.449
76.78000 6.807
76.80000 4.892
76.82000 0.125
76.84000 -0.512
76.86000 4.092
76.88000 3.745
76.90000 3.235
76.92000 0.593
76.94000 1.169
76.96000 -2.268
76.98000 0.949
77.00000 4.492
77.02000 3.537
77.04000 2.657
77.06000 3.125
77.08000 2.500
77.10000 -0.776
77.12000 2.306
77.14000 1.588
77.16000 1.717
77.18000 1.122
77.20000 0.194
77.22000 0.635
77.24000 0.961
77.26000 2.006
77.28000 -0.038
77.30000 -1.729
77.32000 -1.462
77.34000 4.022
77.36000 5.083
77.38000 4.788
77.40000 6.251
77.42000 2.148
77.44000 -0.016
77.46000 -2.285
77.48000 -1.250
77.50000 -0.194
77.52000 0.939
77.54000 -1.238
77.56000 -0.433
77.58000 2.614
77.60000 2.767
77.62000 -0.827
77.64000 -0.652
77.66000 -0.272
77.68000 4.257
77.70000 3.796
77.72000 3.072
77.74000 -1.433
77.76000 -1.345
77.78000 -0.941
77.80000 2.175
77.82000 0.507
77.84000 2.075
77.86000 2.416
77.88000 1.414
77.90000 2.815
77.92000 2.097
77.94000 0.010
77.96000 -0.040
77.98000 1.717
78.00000 1.783
78.02000 2.583
78.04000 1.816
78.06000 -2.290
78.08000 1.182
78.10000 -2.207
78.12000 -0.909
78.14000 0.526
78.16000 2.449
78.18000 5.829
78.20000 3.255
78.22000 1.456
78.24000 0.665
78.26000 1.481
78.28000 1.630
78.30000 0.851
78.32000 1.056
78.34000 3.331
78.36000 0.529
78.38000 2.903
78.40000 3.942
78.42000 1.104
78.44000 -1.537
78.46000 0.842
78.48000 -0.918
78.50000 -2.301
78.52000 0.144
78.54000 -1.622
78.56000 -1.731
78.58000 1.844
78.60000 0.944
78.62000 2.592
78.64000 4.054
78.66000 5.937
78.68000 2.687
78.70000 2.779
78.72000 4.958
78.74000 2.225
78.76000 4.542
78.78000 6.911
78.80000 2.127
78.82000 -0.917
78.84000 3.202
78.86000 4.118
78.88000 6.322
78.90000 3.742
78.92000 -0.542
78.94000 -1.415
78.96000 -0.438
78.98000 4.863
79.00000 4.154
79.02000 1.087
79.04000 2.349
79.06000 2.844
79.08000 6.183
79.10000 3.104
79.12000 0.491
79.14000 -1.194
79.16000 1.490
79.18000 2.278
79.20000 0.887
79.22000 3.176
79.24000 4.309
79.26000 0.683
79.28000 2.223
79.30000 0.858
79.32000 0.850
79.34000 1.762
79.36000 -0.543
79.38000 2.876
79.40000 2.904
79.42000 -1.241
79.44000 5.005
79.46000 3.500
79.48000 0.748
79.50000 3.042
79.52000 -2.282
79.54000 7.215
79.56000 7.674
79.58000 1.868
79.60000 0.517
79.62000 4.732
79.64000 8.703
79.66000 7.399
79.68000 3.066
79.70000 2.474
79.72000 3.965
79.74000 5.306
79.76000 3.011
79.78000 4.065
79.80000 1.487
79.82000 -2.223
79.84000 -1.079
79.86000 0.256
79.88000 2.410
79.90000 1.089
79.92000 1.264
79.94000 0.158
79.96000 -0.930
79.98000 2.490
80.00000 1.745
80.02000 0.506
80.04000 2.603
80.06000 7.549
80.08000 8.481
80.10000 6.026
80.12000 2.262
80.14000 5.334
80.16000 5.581
80.18000 -0.499
80.20000 0.546
80.22000 -1.617
80.24000 2.865
80.26000 7.288
80.28000 6.121
80.30000 3.058
80.32000 1.563
80.34000 1.312
80.36000 3.504
80.38000 -0.277
80.40000 -0.721
80.42000 -1.060
80.44000 -1.903
80.46000 -2.294
80.48000 1.188
80.50000 -0.317
80.52000 -0.063
80.54000 3.655
80.56000 4.152
80.58000 4.443
80.60000 2.858
80.62000 5.127
80.64000 3.439
80.66000 3.110
80.68000 3.121
80.70000 5.353
80.72000 8.794
80.74000 6.228
80.76000 2.676
80.78000 2.055
80.80000 2.933
80.82000 1.752
80.84000 3.943
80.86000 2.199
80.88000 0.597
80.90000 7.086
80.92000 5.456
80.94000 2.784
80.96000 -1.212
80.98000 -2.175
81.00000 3.141
81.02000 8.331
81.04000 0.944
81.06000 -0.331
81.08000 -2.327
81.10000 0.037
81.12000 0.432
81.14000 1.361
81.16000 2.835
81.18000 -0.035
81.20000 2.760
81.22000 5.456
81.24000 2.562
81.26000 4.894
81.28000 2.247
81.30000 5.041
81.32000 7.138
81.34000 3.267
81.36000 0.488
81.38000 -0.787
81.40000 3.986
81.42000 6.845
81.44000 7.023
81.46000 1.543
81.48000 2.470
81.50000 2.135
81.52000 2.189
81.54000 5.111
81.56000 4.790
81.58000 4.946
81.60000 2.933
81.62000 1.691
81.64000 4.086
81.66000 5.275
81.68000 6.052
81.70000 7.336
81.72000 5.848
81.74000 5.842
81.76000 4.792
81.78000 7.449
81.80000 9.580
81.82000 0.910
81.84000 0.020
81.86000 2.438
81.88000 4.436
81.90000 2.391
81.92000 1.837
81.94000 7.380
81.96000 10.422
81.98000 9.215
82.00000 5.716
82.02000 7.722
82.04000 3.478
82.06000 4.732
82.08000 8.810
82.10000 3.521
82.12000 4.915
82.14000 7.165
82.16000 9.204
82.18000 10.196
82.20000 2.706
82.22000 -2.380
82.24000 6.982
82.26000 5.493
82.28000 9.444
82.30000 8.092
82.32000 7.881
82.34000 11.230
82.36000 8.375
82.38000 6.250
82.40000 4.958
82.42000 6.564
82.44000 8.276
82.46000 7.540
82.48000 6.543
82.50000 8.115
82.52000 7.514
82.54000 5.987
82.56000 6.546
82.58000 9.527
82.60000 7.067
82.62000 8.789
82.64000 11.088
82.66000 7.841
82.68000 8.249
82.70000 10.162
82.72000 9.264
82.74000 11.577
82.76000 13.158
82.78000 9.802
82.80000 14.441
82.82000 16.875
82.84000 14.621
82.86000 8.941
82.88000 11.132
82.90000 11.001
82.92000 12.365
82.94000 12.382
82.96000 17.317
82.98000 17.192
83.00000 12.541
83.02000 16.156
83.04000 14.768
83.06000 20.478
83.08000 22.717
83.10000 21.842
83.12000 20.320
83.14000 21.676
83.16000 20.325
83.18000 22.276
83.20000 23.407
83.22000 25.877
83.24000 22.883
83.26000 23.431
83.28000 23.497
83.30000 17.471
83.32000 21.543
83.34000 23.741
83.36000 25.141
83.38000 24.449
83.40000 25.365
83.42000 27.848
83.44000 27.382
83.46000 26.218
83.48000 19.731
83.50000 14.866
83.52000 19.272
83.54000 25.002
83.56000 23.860
83.58000 21.846
83.60000 21.345
83.62000 23.929
83.64000 22.747
83.66000 25.087
83.68000 27.400
83.70000 27.095
83.72000 29.386
83.74000 28.821
83.76000 27.540
83.78000 27.178
83.80000 25.902
83.82000 26.685
83.84000 24.960
83.86000 23.848
83.88000 27.874
83.90000 25.375
83.92000 25.282
83.94000 24.499
83.96000 28.220
83.98000 25.694
84.00000 27.153
84.02000 22.023
84.04000 19.383
84.06000 19.177
84.08000 23.541
84.10000 21.895
84.12000 22.738
84.14000 21.695
84.16000 22.144
84.18000 24.648
84.20000 22.180
84.22000 17.690
84.24000 19.541
84.26000 21.704
84.28000 24.373
84.30000 20.891
84.32000 15.502
84.34000 14.120
84.36000 15.157
84.38000 22.206
84.40000 19.662
84.42000 18.297
84.44000 19.292
84.46000 17.291
84.48000 12.453
84.50000 11.040
84.52000 7.069
84.54000 11.590
84.56000 15.651
84.58000 16.028
84.60000 17.242
84.62000 11.074
84.64000 10.637
84.66000 8.998
84.68000 11.389
84.70000 9.925
84.72000 6.213
84.74000 11.913
84.76000 12.926
84.78000 11.033
84.80000 7.924
84.82000 4.164
84.84000 3.428
84.86000 2.615
84.88000 2.755
84.90000 5.356
84.92000 1.807
84.94000 2.215
84.96000 1.321
84.98000 0.601
85.00000 4.689
85.02000 7.102
85.04000 6.145
85.06000 6.790
85.08000 -1.336
85.10000 1.804
85.12000 4.324
85.14000 7.777
85.16000 6.133
85.18000 4.048
85.20000 3.953
85.22000 -0.770
85.24000 2.571
85.26000 10.225
85.28000 3.656
85.30000 0.921
85.32000 0.435
85.34000 1.240
85.36000 4.483
85.38000 4.175
85.40000 -1.641
85.42000 0.273
85.44000 2.987
85.46000 3.080
85.48000 4.563
85.50000 2.268
85.52000 3.452
85.54000 5.288
85.56000 1.172
85.58000 -1.750
85.60000 3.860
85.62000 2.156
85.64000 0.845
85.66000 3.773
85.68000 4.776
85.70000 5.374
85.72000 1.112
85.74000 2.034
85.76000 4.141
85.78000 2.515
85.80000 -0.498
85.82000 6.062
85.84000 0.956
85.86000 4.303
85.88000 5.835
85.90000 5.427
85.92000 5.439
85.94000 2.670
85.96000 -0.404
85.98000 0.211
86.00000 3.061
86.02000 2.364
86.04000 7.003
86.06000 8.284
86.08000 6.981
86.10000 4.636
86.12000 1.968
86.14000 6.862
86.16000 11.421
86.18000 5.617
86.20000 4.822
86.22000 4.657
86.24000 2.251
86.26000 0.675
86.28000 -2.283
86.30000 1.156
86.32000 4.579
86.34000 9.377
86.36000 8.951
86.38000 10.859
86.40000 6.645
86.42000 3.931
86.44000 0.306
86.46000 1.278
86.48000 2.912
86.50000 6.406
86.52000 5.725
86.54000 4.844
86.56000 2.125
86.58000 4.800
86.60000 4.527
86.62000 0.808
86.64000 7.257
86.66000 6.529
86.68000 6.525
86.70000 7.209
86.72000 5.220
86.74000 7.688
86.76000 1.364
86.78000 -0.875
86.80000 0.216
86.82000 0.689
86.84000 3.914
86.86000 5.550
86.88000 4.868
86.90000 6.833
86.92000 7.925
86.94000 2.357
86.96000 2.366
86.98000 11.606
87.00000 6.469
87.02000 6.648
87.04000 4.748
87.06000 5.311
87.08000 6.803
87.10000 7.097
87.12000 2.966
87.14000 5.281
87.16000 7.760
87.18000 5.898
87.20000 5.856
87.22000 7.921
87.24000 8.714
87.26000 7.795
87.28000 9.364
87.30000 9.353
87.32000 9.198
87.34000 6.772
87.36000 7.057
87.38000 9.527
87.40000 12.809
87.42000 7.251
87.44000 1.246
87.46000 5.706
87.48000 13.849
87.50000 12.113
87.52000 13.136
87.54000 14.179
87.56000 15.299
87.58000 17.509
87.60000 14.339
87.62000 12.349
87.64000 15.594
87.66000 14.666
87.68000 12.556
87.70000 14.956
87.72000 14.860
87.74000 17.158
87.76000 19.992
87.78000 19.183
87.80000 22.261
87.82000 13.436
87.84000 13.797
87.86000 18.659
87.88000 17.695
87.90000 19.841
87.92000 18.677
87.94000 18.706
87.96000 17.097
87.98000 18.901
88.00000 15.732
88.02000 18.928
88.04000 24.127
88.06000 27.054
88.08000 26.929
88.10000 25.946
88.12000 24.750
88.14000 25.508
88.16000 27.269
88.18000 26.759
88.20000 24.531
88.22000 22.598
88.24000 23.044
88.26000 25.039
88.28000 27.267
88.30000 26.550
88.32000 30.107
88.34000 25.619
88.36000 20.424
88.38000 25.464
88.40000 28.252
88.42000 23.468
88.44000 26.253
88.46000 24.749
88.48000 31.285
88.50000 27.388
88.52000 24.506
88.54000 19.957
88.56000 28.663
88.58000 25.279
88.60000 25.073
88.62000 24.391
88.64000 26.696
88.66000 27.077
88.68000 29.655
88.70000 22.104
88.72000 15.377
88.74000 17.267
88.76000 17.238
88.78000 19.795
88.80000 20.890
88.82000 21.015
88.84000 20.915
88.86000 20.255
88.88000 18.177
88.90000 16.982
88.92000 15.385
88.94000 19.782
88.96000 19.273
88.98000 18.821
89.00000 19.607
89.02000 11.047
89.04000 14.658
89.06000 20.557
89.08000 12.906
89.10000 9.414
89.12000 9.590
89.14000 7.917
89.16000 10.826
89.18000 9.826
89.20000 13.257
89.22000 10.884
89.24000 9.566
89.26000 12.025
89.28000 11.438
89.30000 11.412
89.32000 11.962
89.34000 9.097
89.36000 3.555
89.38000 8.152
89.40000 10.917
89.42000 9.048
89.44000 8.028
89.46000 7.557
89.48000 7.517
89.50000 8.668
89.52000 6.322
89.54000 7.025
89.56000 8.803
89.58000 11.376
89.60000 3.619
89.62000 3.511
89.64000 7.078
89.66000 7.055
89.68000 8.624
89.70000 5.017
89.72000 0.846
89.74000 2.197
89.76000 1.291
89.78000 -2.279
89.80000 3.466
89.82000 0.219
89.84000 3.143
89.86000 5.181
89.88000 0.326
89.90000 7.137
89.92000 2.841
89.94000 3.278
89.96000 2.279
89.98000 1.122
90.00000 3.371
90.02000 3.639
90.04000 1.102
90.06000 1.809
90.08000 1.016
90.10000 2.955
90.12000 4.422
90.14000 4.461
90.16000 -1.287
90.18000 -1.847
90.20000 4.151
90.22000 7.437
90.24000 4.596
90.26000 3.289
90.28000 4.832
90.30000 0.932
90.32000 0.215
90.34000 0.914
90.36000 4.153
90.38000 6.894
90.40000 -1.513
90.42000 -2.233
90.44000 1.481
90.46000 2.542
90.48000 2.266
90.50000 4.701
90.52000 2.174
90.54000 2.298
90.56000 2.275
90.58000 0.572
90.60000 0.464
90.62000 4.295
90.64000 5.831
90.66000 2.522
90.68000 2.119
90.70000 2.039
90.72000 -0.508
90.74000 -0.781
90.76000 0.034
90.78000 2.916
90.80000 2.632
90.82000 3.258
90.84000 2.785
90.86000 -1.996
90.88000 -2.187
90.90000 0.767
90.92000 0.382
90.94000 4.298
90.96000 1.382
90.98000 3.356
91.00000 1.944
91.02000 5.520
91.04000 3.205
91.06000 2.862
91.08000 2.331
91.10000 2.518
91.12000 1.829
91.14000 0.078
91.16000 -0.288
91.18000 3.770
91.20000 -2.177
91.22000 0.943
91.24000 6.935
91.26000 7.289
91.28000 4.370
91.30000 0.697
91.32000 1.668
91.34000 1.592
91.36000 4.918
91.38000 6.971
91.40000 6.262
91.42000 1.663
91.44000 1.802
91.46000 2.788
91.48000 4.600
91.50000 7.126
91.52000 2.481
91.54000 0.949
91.56000 5.216
91.58000 2.597
91.60000 -0.701
91.62000 -0.786
91.64000 1.505
91.66000 3.474
91.68000 6.685
91.70000 4.270
91.72000 4.853
91.74000 5.109
91.76000 -0.952
91.78000 -1.731
91.80000 -0.420
91.82000 -2.139
91.84000 3.570
91.86000 6.851
91.88000 -0.053
91.90000 1.293
91.92000 1.008
91.94000 4.295
91.96000 5.341
91.98000 4.503
92.00000 3.469
92.02000 4.089
92.04000 3.173
92.06000 8.302
92.08000 10.808
92.10000 10.677
92.12000 5.348
92.14000 4.675
92.16000 3.048
92.18000 1.765
92.20000 3.109
92.22000 2.431
92.24000 3.328
92.26000 1.876
92.28000 0.735
92.30000 5.907
92.32000 7.018
92.34000 5.307
92.36000 1.107
92.38000 -0.944
92.40000 -2.138
92.42000 2.878
92.44000 3.494
92.46000 4.120
92.48000 4.716
92.50000 5.394
92.52000 4.501
92.54000 5.416
92.56000 11.263
92.58000 5.761
92.60000 0.743
92.62000 3.321
92.64000 -1.276
92.66000 3.301
92.68000 3.081
92.70000 6.120
92.72000 12.146
92.74000 7.196
92.76000 4.881
92.78000 7.277
92.80000 5.891
92.82000 7.356
92.84000 3.686
92.86000 -2.135
92.88000 1.026
92.90000 1.544
92.92000 2.881
92.94000 6.653
92.96000 2.124
92.98000 -1.874
93.00000 1.566
93.02000 9.151
93.04000 2.910
93.06000 0.178
93.08000 2.395
93.10000 5.941
93.12000 7.049
93.14000 4.337
93.16000 2.867
93.18000 1.523
93.20000 1.958
93.22000 0.280
93.24000 6.461
93.26000 8.430
93.28000 9.414
93.30000 6.252
93.32000 6.523
93.34000 1.274
93.36000 1.153
93.38000 0.881
93.40000 4.347
93.42000 10.224
93.44000 7.260
93.46000 0.347
93.48000 1.656
93.50000 5.194
93.52000 6.069
93.54000 6.617
93.56000 4.795
93.58000 3.528
93.60000 4.050
93.62000 0.596
93.64000 -1.152
93.66000 1.713
93.68000 1.740
93.70000 2.991
93.72000 1.346
93.74000 -0.855
93.76000 -0.588
93.78000 8.130
93.80000 5.783
93.82000 0.632
93.84000 5.183
93.86000 6.832
93.88000 3.113
93.90000 2.998
93.92000 4.789
93.94000 9.841
93.96000 4.713
93.98000 8.634
94.00000 5.760
94.02000 -2.140
94.04000 1.798
94.06000 2.564
94.08000 7.219
94.10000 9.100
94.12000 10.847
94.14000 7.721
94.16000 5.360
94.18000 1.406
94.20000 1.986
94.22000 1.429
94.24000 0.119
94.26000 0.093
94.28000 2.791
94.30000 3.974
94.32000 1.678
94.34000 3.288
94.36000 3.681
94.38000 5.987
94.40000 3.763
94.42000 4.785
94.44000 3.837
94.46000 6.470
94.48000 6.985
94.50000 7.187
94.52000 5.497
94.54000 4.891
94.56000 3.254
94.58000 3.259
94.60000 6.705
94.62000 6.691
94.64000 2.823
94.66000 4.037
94.68000 2.476
94.70000 -2.139
94.72000 3.266
94.74000 2.367
94.76000 0.982
94.78000 -0.106
94.80000 1.307
94.82000 3.556
94.84000 4.229
94.86000 4.668
94.88000 2.003
94.90000 3.819
94.92000 8.473
94.94000 9.078
94.96000 7.453
94.98000 8.130
95.00000 1.502
95.02000 0.705
95.04000 3.492
95.06000 7.584
95.08000 7.295
95.10000 3.976
95.12000 3.456
95.14000 6.363
95.16000 6.945
95.18000 4.499
95.20000 2.348
95.22000 3.643
95.24000 6.018
95.26000 6.577
95.28000 7.617
95.30000 6.358
95.32000 5.345
95.34000 7.328
95.36000 0.119
95.38000 -2.161
95.40000 7.498
95.42000 4.137
95.44000 -2.122
95.46000 -1.859
95.48000 2.343
95.50000 3.612
95.52000 1.776
95.54000 8.521
95.56000 9.766
95.58000 5.264
95.60000 4.859
95.62000 4.919
95.64000 5.136
95.66000 1.706
95.68000 3.170
95.70000 4.347
95.72000 1.062
95.74000 1.004
95.76000 0.976
95.78000 3.567
95.80000 7.513
95.82000 7.944
95.84000 5.633
95.86000 6.825
95.88000 11.027
95.90000 1.653
95.92000 3.245
95.94000 11.323
95.96000 6.211
95.98000 9.114
96.00000 8.764
96.02000 8.972
96.04000 10.399
96.06000 7.371
96.08000 8.241
96.10000 7.533
96.12000 1.470
96.14000 -0.504
96.16000 2.947
96.18000 4.871
96.20000 2.979
96.22000 1.516
96.24000 4.241
96.26000 4.281
96.28000 3.185
96.30000 -0.354
96.32000 5.228
96.34000 4.961
96.36000 0.832
96.38000 0.031
96.40000 2.487
96.42000 5.732
96.44000 3.914
96.46000 5.551
96.48000 9.311
96.50000 2.580
96.52000 2.152
96.54000 4.814
96.56000 3.216
96.58000 5.478
96.60000 4.610
96.62000 4.326
96.64000 5.283
96.66000 6.573
96.68000 5.800
96.70000 4.802
96.72000 5.806
96.74000 6.127
96.76000 7.515
96.78000 7.511
96.80000 10.758
96.82000 3.512
96.84000 8.096
96.86000 6.336
96.88000 2.783
96.90000 1.846
96.92000 -2.107
96.94000 0.011
96.96000 9.556
96.98000 9.309
97.00000 3.546
97.02000 2.163
97.04000 6.310
97.06000 8.808
97.08000 10.723
97.10000 6.968
97.12000 5.603
97.14000 2.636
97.16000 0.801
97.18000 -0.432
97.20000 3.675
97.22000 3.866
97.24000 4.718
97.26000 4.301
97.28000 3.366
97.30000 6.225
97.32000 4.927
97.34000 1.328
97.36000 3.298
97.38000 4.250
97.40000 9.504
97.42000 7.170
97.44000 4.236
97.46000 1.420
97.48000 4.752
97.50000 4.922
97.52000 2.033
97.54000 4.603
97.56000 4.534
97.58000 2.953
97.60000 -0.472
97.62000 3.308
97.64000 2.345
97.66000 0.919
97.68000 6.562
97.70000 6.741
97.72000 7.732
97.74000 4.008
97.76000 6.573
97.78000 6.023
97.80000 2.908
97.82000 3.956
97.84000 8.616
97.86000 6.904
97.88000 6.204
97.90000 0.341
97.92000 6.998
97.94000 5.020
97.96000 1.468
97.98000 3.582
98.00000 -0.036
98.02000 -2.086
98.04000 0.932
98.06000 4.800
98.08000 -0.355
98.10000 4.856
98.12000 3.333
98.14000 3.731
98.16000 2.008
98.18000 3.822
98.20000 5.701
98.22000 3.847
98.24000 2.100
98.26000 -0.365
98.28000 -0.039
98.30000 0.875
98.32000 7.347
98.34000 14.848
98.36000 6.897
98.38000 -0.142
98.40000 8.056
98.42000 5.670
98.44000 6.256
98.46000 0.153
98.48000 0.881
98.50000 -0.325
98.52000 -1.399
98.54000 9.584
98.56000 4.283
98.58000 7.606
98.60000 4.223
98.62000 3.994
98.64000 1.158
98.66000 1.986
98.68000 6.421
98.70000 9.043
98.72000 1.067
98.74000 -0.079
98.76000 4.155
98.78000 6.820
98.80000 3.215
98.82000 2.326
98.84000 2.874
98.86000 4.371
98.88000 9.919
98.90000 5.589
98.92000 14.512
98.94000 9.896
98.96000 10.721
98.98000 10.323
99.00000 7.252
99.02000 4.300
99.04000 0.034
99.06000 -1.986
99.08000 0.742
99.10000 4.367
99.12000 10.408
99.14000 12.339
99.16000 8.129
99.18000 9.036
99.20000 10.460
99.22000 7.017
99.24000 7.673
99.26000 4.566
99.28000 -2.027
99.30000 0.197
99.32000 9.470
99.34000 5.144
99.36000 4.789
99.38000 3.048
99.40000 5.281
99.42000 8.777
99.44000 10.712
99.46000 5.192
99.48000 4.196
99.50000 10.806
99.52000 5.946
99.54000 1.127
99.56000 5.734
99.58000 14.555
99.60000 13.332
99.62000 13.573
99.64000 2.266
99.66000 8.283
99.68000 2.658
99.70000 -2.090
99.72000 5.107
99.74000 7.619
99.76000 13.301
99.78000 8.510
99.80000 10.079
99.82000 1.382
99.84000 5.646
99.86000 -2.110
99.88000 0.214
99.90000 2.826
99.92000 5.081
99.94000 8.108
99.96000 14.293
99.98000 0.000
