'Id: "0011389" Comment: "Integrate frame 0011389_Au-Ir-Rh_Au-Rich_XRD_Mapping-249-0000.gfrmwith cursor Wedge Cursor #5" Operator: "B?rgel" Anode: "Cu" Wavelength: "1.5406" Scantype: "2Theta (TwoTheta)" TimePerStep: "1" X: "-4.5" Y: "18" Z: "5.95" 
10.00000 0.000
10.02000 13.195
10.04000 21.839
10.06000 9.247
10.08000 5.906
10.10000 8.778
10.12000 -4.263
10.14000 10.926
10.16000 6.027
10.18000 9.664
10.20000 12.755
10.22000 11.093
10.24000 13.751
10.26000 18.922
10.28000 13.925
10.30000 7.136
10.32000 8.728
10.34000 2.373
10.36000 13.408
10.38000 5.984
10.40000 0.386
10.42000 21.082
10.44000 18.907
10.46000 13.774
10.48000 25.888
10.50000 23.244
10.52000 8.639
10.54000 -4.244
10.56000 -3.030
10.58000 9.313
10.60000 18.257
10.62000 22.992
10.64000 21.563
10.66000 13.977
10.68000 17.888
10.70000 19.181
10.72000 12.586
10.74000 21.891
10.76000 20.228
10.78000 27.147
10.80000 41.068
10.82000 25.038
10.84000 10.269
10.86000 12.490
10.88000 11.396
10.90000 3.165
10.92000 13.199
10.94000 17.983
10.96000 8.601
10.98000 25.229
11.00000 25.635
11.02000 16.947
11.04000 14.125
11.06000 15.341
11.08000 15.460
11.10000 14.354
11.12000 21.700
11.14000 15.724
11.16000 3.826
11.18000 2.177
11.20000 9.804
11.22000 18.384
11.24000 29.456
11.26000 18.476
11.28000 24.924
11.30000 25.626
11.32000 15.797
11.34000 17.679
11.36000 13.757
11.38000 9.098
11.40000 15.944
11.42000 9.676
11.44000 15.453
11.46000 19.345
11.48000 22.282
11.50000 6.240
11.52000 1.683
11.54000 5.917
11.56000 2.254
11.58000 5.743
11.60000 11.029
11.62000 6.539
11.64000 7.147
11.66000 6.002
11.68000 7.894
11.70000 7.677
11.72000 9.851
11.74000 28.182
11.76000 29.705
11.78000 11.975
11.80000 14.620
11.82000 18.830
11.84000 8.834
11.86000 8.799
11.88000 19.770
11.90000 15.511
11.92000 16.861
11.94000 14.425
11.96000 23.414
11.98000 20.458
12.00000 17.508
12.02000 15.043
12.04000 18.889
12.06000 21.910
12.08000 20.991
12.10000 21.407
12.12000 21.792
12.14000 10.871
12.16000 10.993
12.18000 16.363
12.20000 9.866
12.22000 6.564
12.24000 15.432
12.26000 22.422
12.28000 15.604
12.30000 22.722
12.32000 20.555
12.34000 17.467
12.36000 16.588
12.38000 13.863
12.40000 25.717
12.42000 29.656
12.44000 16.925
12.46000 12.794
12.48000 13.125
12.50000 17.047
12.52000 16.829
12.54000 18.677
12.56000 23.304
12.58000 21.783
12.60000 26.719
12.62000 26.357
12.64000 26.043
12.66000 27.546
12.68000 12.121
12.70000 15.351
12.72000 19.331
12.74000 14.176
12.76000 22.595
12.78000 30.673
12.80000 32.558
12.82000 23.602
12.84000 26.317
12.86000 13.632
12.88000 15.763
12.90000 14.642
12.92000 24.285
12.94000 25.123
12.96000 23.165
12.98000 18.229
13.00000 23.702
13.02000 26.786
13.04000 22.201
13.06000 23.655
13.08000 28.056
13.10000 19.097
13.12000 18.779
13.14000 20.192
13.16000 16.510
13.18000 15.792
13.20000 16.778
13.22000 18.942
13.24000 10.345
13.26000 10.806
13.28000 21.199
13.30000 21.606
13.32000 9.039
13.34000 15.515
13.36000 24.409
13.38000 24.343
13.40000 13.831
13.42000 7.824
13.44000 4.523
13.46000 12.733
13.48000 21.598
13.50000 20.082
13.52000 4.655
13.54000 19.365
13.56000 19.755
13.58000 16.505
13.60000 18.360
13.62000 2.994
13.64000 3.200
13.66000 7.986
13.68000 10.006
13.70000 10.965
13.72000 7.536
13.74000 15.424
13.76000 18.928
13.78000 18.893
13.80000 17.111
13.82000 12.030
13.84000 14.371
13.86000 21.688
13.88000 13.168
13.90000 9.340
13.92000 19.859
13.94000 21.570
13.96000 22.402
13.98000 11.845
14.00000 5.504
14.02000 5.085
14.04000 4.160
14.06000 11.964
14.08000 9.304
14.10000 9.841
14.12000 11.731
14.14000 6.642
14.16000 14.947
14.18000 12.787
14.20000 3.826
14.22000 1.556
14.24000 8.106
14.26000 25.685
14.28000 25.100
14.30000 18.906
14.32000 13.791
14.34000 10.067
14.36000 8.488
14.38000 2.385
14.40000 9.154
14.42000 11.055
14.44000 5.304
14.46000 8.187
14.48000 15.907
14.50000 17.813
14.52000 12.934
14.54000 2.619
14.56000 3.769
14.58000 3.211
14.60000 7.171
14.62000 3.850
14.64000 6.187
14.66000 16.908
14.68000 9.904
14.70000 9.518
14.72000 7.656
14.74000 7.791
14.76000 5.783
14.78000 9.638
14.80000 13.739
14.82000 5.207
14.84000 7.843
14.86000 7.673
14.88000 7.485
14.90000 9.199
14.92000 0.645
14.94000 3.241
14.96000 7.380
14.98000 11.489
15.00000 23.798
15.02000 13.180
15.04000 6.163
15.06000 6.037
15.08000 7.396
15.10000 10.029
15.12000 15.216
15.14000 17.766
15.16000 16.159
15.18000 10.785
15.20000 1.463
15.22000 0.459
15.24000 14.420
15.26000 14.327
15.28000 15.740
15.30000 14.597
15.32000 10.864
15.34000 17.860
15.36000 11.060
15.38000 4.143
15.40000 0.990
15.42000 3.832
15.44000 3.965
15.46000 2.820
15.48000 2.254
15.50000 3.878
15.52000 3.348
15.54000 11.093
15.56000 11.990
15.58000 5.737
15.60000 6.931
15.62000 7.112
15.64000 8.169
15.66000 15.640
15.68000 14.162
15.70000 14.040
15.72000 10.311
15.74000 10.111
15.76000 16.732
15.78000 7.992
15.80000 13.370
15.82000 11.922
15.84000 5.212
15.86000 2.858
15.88000 8.099
15.90000 14.972
15.92000 12.334
15.94000 10.023
15.96000 4.322
15.98000 3.887
16.00000 2.495
16.02000 12.623
16.04000 14.782
16.06000 6.029
16.08000 12.537
16.10000 8.835
16.12000 11.006
16.14000 10.722
16.16000 6.827
16.18000 5.491
16.20000 6.843
16.22000 5.291
16.24000 10.462
16.26000 6.730
16.28000 13.232
16.30000 17.040
16.32000 12.760
16.34000 14.190
16.36000 6.937
16.38000 8.349
16.40000 10.124
16.42000 12.683
16.44000 22.134
16.46000 12.858
16.48000 3.404
16.50000 10.038
16.52000 12.417
16.54000 5.110
16.56000 2.474
16.58000 -4.089
16.60000 3.751
16.62000 21.264
16.64000 17.170
16.66000 -4.907
16.68000 4.339
16.70000 9.008
16.72000 8.872
16.74000 8.230
16.76000 12.480
16.78000 16.588
16.80000 12.149
16.82000 10.228
16.84000 4.030
16.86000 11.475
16.88000 13.869
16.90000 8.531
16.92000 5.922
16.94000 13.846
16.96000 6.885
16.98000 8.910
17.00000 11.375
17.02000 -3.319
17.04000 4.546
17.06000 11.592
17.08000 8.476
17.10000 11.407
17.12000 7.951
17.14000 9.798
17.16000 10.739
17.18000 8.310
17.20000 13.857
17.22000 14.765
17.24000 19.131
17.26000 11.556
17.28000 3.348
17.30000 11.802
17.32000 16.596
17.34000 16.796
17.36000 11.092
17.38000 17.243
17.40000 8.540
17.42000 -0.854
17.44000 8.242
17.46000 2.647
17.48000 0.231
17.50000 4.125
17.52000 7.237
17.54000 4.127
17.56000 5.911
17.58000 4.111
17.60000 6.508
17.62000 7.551
17.64000 3.778
17.66000 -1.854
17.68000 2.560
17.70000 1.660
17.72000 14.111
17.74000 12.349
17.76000 9.257
17.78000 13.270
17.80000 3.148
17.82000 2.231
17.84000 0.646
17.86000 5.257
17.88000 3.838
17.90000 9.683
17.92000 6.297
17.94000 6.012
17.96000 13.197
17.98000 7.695
18.00000 4.319
18.02000 10.653
18.04000 8.479
18.06000 1.615
18.08000 -1.419
18.10000 4.563
18.12000 11.134
18.14000 9.763
18.16000 5.823
18.18000 1.392
18.20000 5.605
18.22000 4.920
18.24000 6.238
18.26000 5.316
18.28000 6.609
18.30000 6.017
18.32000 1.138
18.34000 -4.127
18.36000 0.762
18.38000 9.247
18.40000 8.590
18.42000 9.250
18.44000 9.266
18.46000 10.088
18.48000 5.850
18.50000 5.715
18.52000 7.837
18.54000 9.784
18.56000 2.839
18.58000 -2.815
18.60000 0.746
18.62000 9.007
18.64000 -0.228
18.66000 3.437
18.68000 8.315
18.70000 7.967
18.72000 10.699
18.74000 13.117
18.76000 2.811
18.78000 1.343
18.80000 3.616
18.82000 1.703
18.84000 6.245
18.86000 2.911
18.88000 0.402
18.90000 1.594
18.92000 1.873
18.94000 -3.454
18.96000 -4.303
18.98000 0.288
19.00000 2.996
19.02000 9.493
19.04000 10.989
19.06000 8.153
19.08000 3.127
19.10000 1.662
19.12000 2.308
19.14000 6.894
19.16000 11.068
19.18000 6.721
19.20000 4.133
19.22000 0.153
19.24000 5.317
19.26000 10.510
19.28000 8.786
19.30000 1.340
19.32000 4.920
19.34000 0.868
19.36000 0.655
19.38000 6.331
19.40000 4.597
19.42000 1.119
19.44000 -2.375
19.46000 5.461
19.48000 10.629
19.50000 16.786
19.52000 11.446
19.54000 14.364
19.56000 7.781
19.58000 1.957
19.60000 3.774
19.62000 4.833
19.64000 10.205
19.66000 6.126
19.68000 6.470
19.70000 3.557
19.72000 5.127
19.74000 8.203
19.76000 3.717
19.78000 5.050
19.80000 8.530
19.82000 6.747
19.84000 6.649
19.86000 7.664
19.88000 5.059
19.90000 1.987
19.92000 1.220
19.94000 2.361
19.96000 4.238
19.98000 5.311
20.00000 7.533
20.02000 5.805
20.04000 9.950
20.06000 10.039
20.08000 6.090
20.10000 9.401
20.12000 10.251
20.14000 6.323
20.16000 5.193
20.18000 3.041
20.20000 6.224
20.22000 5.328
20.24000 4.964
20.26000 4.520
20.28000 4.754
20.30000 2.045
20.32000 0.058
20.34000 0.789
20.36000 3.197
20.38000 10.168
20.40000 9.327
20.42000 5.947
20.44000 3.541
20.46000 8.212
20.48000 7.800
20.50000 4.804
20.52000 11.641
20.54000 5.750
20.56000 2.802
20.58000 7.354
20.60000 2.922
20.62000 3.640
20.64000 9.174
20.66000 9.242
20.68000 6.675
20.70000 13.405
20.72000 7.284
20.74000 5.843
20.76000 5.621
20.78000 0.951
20.80000 2.363
20.82000 6.528
20.84000 6.037
20.86000 7.079
20.88000 6.674
20.90000 8.348
20.92000 9.544
20.94000 5.725
20.96000 3.868
20.98000 2.803
21.00000 7.025
21.02000 6.575
21.04000 6.331
21.06000 11.460
21.08000 12.193
21.10000 12.961
21.12000 8.197
21.14000 5.773
21.16000 9.061
21.18000 8.845
21.20000 8.820
21.22000 8.495
21.24000 14.473
21.26000 8.070
21.28000 8.217
21.30000 13.547
21.32000 16.321
21.34000 15.821
21.36000 10.138
21.38000 9.318
21.40000 13.822
21.42000 9.768
21.44000 8.529
21.46000 7.086
21.48000 9.868
21.50000 13.073
21.52000 7.806
21.54000 8.065
21.56000 5.067
21.58000 -0.181
21.60000 -4.114
21.62000 0.070
21.64000 7.290
21.66000 13.432
21.68000 10.150
21.70000 7.706
21.72000 4.120
21.74000 9.304
21.76000 6.575
21.78000 11.485
21.80000 4.483
21.82000 3.086
21.84000 0.235
21.86000 2.447
21.88000 9.691
21.90000 15.205
21.92000 14.487
21.94000 7.007
21.96000 9.006
21.98000 7.273
22.00000 6.714
22.02000 2.026
22.04000 -0.663
22.06000 7.850
22.08000 13.991
22.10000 9.778
22.12000 5.981
22.14000 7.460
22.16000 6.373
22.18000 5.465
22.20000 3.716
22.22000 4.324
22.24000 -0.583
22.26000 1.477
22.28000 -0.307
22.30000 5.811
22.32000 4.977
22.34000 5.092
22.36000 4.183
22.38000 3.481
22.40000 2.556
22.42000 -2.261
22.44000 1.062
22.46000 5.340
22.48000 5.814
22.50000 5.602
22.52000 5.415
22.54000 9.013
22.56000 16.219
22.58000 19.944
22.60000 9.916
22.62000 8.142
22.64000 5.460
22.66000 -2.779
22.68000 4.198
22.70000 10.136
22.72000 10.056
22.74000 5.713
22.76000 5.161
22.78000 0.850
22.80000 3.781
22.82000 2.901
22.84000 3.341
22.86000 9.696
22.88000 10.800
22.90000 9.145
22.92000 8.252
22.94000 4.874
22.96000 1.109
22.98000 6.719
23.00000 3.116
23.02000 0.114
23.04000 -4.064
23.06000 3.235
23.08000 2.300
23.10000 4.650
23.12000 8.238
23.14000 9.937
23.16000 6.936
23.18000 4.946
23.20000 0.433
23.22000 -1.496
23.24000 -0.869
23.26000 3.973
23.28000 2.841
23.30000 4.058
23.32000 2.432
23.34000 9.006
23.36000 9.186
23.38000 12.079
23.40000 8.353
23.42000 2.071
23.44000 1.120
23.46000 2.365
23.48000 10.431
23.50000 9.922
23.52000 2.405
23.54000 6.714
23.56000 7.806
23.58000 3.063
23.60000 4.117
23.62000 6.913
23.64000 8.664
23.66000 5.269
23.68000 -1.363
23.70000 -1.864
23.72000 -1.102
23.74000 3.552
23.76000 6.503
23.78000 9.287
23.80000 3.868
23.82000 0.967
23.84000 -1.581
23.86000 3.067
23.88000 4.458
23.90000 3.499
23.92000 -3.794
23.94000 2.500
23.96000 5.659
23.98000 5.701
24.00000 3.752
24.02000 7.116
24.04000 3.201
24.06000 4.479
24.08000 1.816
24.10000 4.334
24.12000 1.229
24.14000 8.792
24.16000 4.559
24.18000 -1.625
24.20000 4.870
24.22000 2.574
24.24000 -2.016
24.26000 -4.038
24.28000 0.318
24.30000 4.173
24.32000 3.282
24.34000 1.322
24.36000 3.499
24.38000 5.622
24.40000 2.231
24.42000 2.232
24.44000 -3.064
24.46000 1.040
24.48000 3.555
24.50000 4.180
24.52000 3.552
24.54000 -1.655
24.56000 3.669
24.58000 3.974
24.60000 4.828
24.62000 -2.173
24.64000 -2.233
24.66000 1.783
24.68000 7.517
24.70000 0.758
24.72000 3.528
24.74000 0.341
24.76000 0.240
24.78000 2.093
24.80000 6.557
24.82000 4.028
24.84000 7.219
24.86000 3.511
24.88000 1.793
24.90000 7.188
24.92000 0.929
24.94000 -4.001
24.96000 -2.125
24.98000 2.565
25.00000 9.798
25.02000 3.686
25.04000 1.087
25.06000 2.265
25.08000 0.835
25.10000 -1.829
25.12000 1.421
25.14000 7.848
25.16000 2.532
25.18000 3.177
25.20000 -3.201
25.22000 -3.814
25.24000 1.199
25.26000 7.215
25.28000 6.999
25.30000 6.178
25.32000 4.127
25.34000 3.062
25.36000 6.810
25.38000 5.555
25.40000 -3.971
25.42000 0.722
25.44000 3.658
25.46000 0.902
25.48000 2.376
25.50000 6.541
25.52000 5.390
25.54000 1.440
25.56000 2.083
25.58000 1.406
25.60000 1.645
25.62000 5.132
25.64000 4.668
25.66000 6.436
25.68000 2.162
25.70000 1.151
25.72000 -3.934
25.74000 -0.383
25.76000 0.974
25.78000 -0.147
25.80000 -1.310
25.82000 2.242
25.84000 2.582
25.86000 -2.255
25.88000 -2.686
25.90000 3.801
25.92000 2.118
25.94000 2.540
25.96000 -2.607
25.98000 0.125
26.00000 -1.797
26.02000 5.632
26.04000 1.598
26.06000 3.611
26.08000 3.187
26.10000 -3.783
26.12000 1.689
26.14000 0.845
26.16000 5.571
26.18000 4.129
26.20000 -0.929
26.22000 -0.789
26.24000 -2.128
26.26000 1.359
26.28000 2.414
26.30000 4.071
26.32000 4.510
26.34000 1.523
26.36000 -2.658
26.38000 3.958
26.40000 2.002
26.42000 2.430
26.44000 2.727
26.46000 3.923
26.48000 6.310
26.50000 7.035
26.52000 8.534
26.54000 2.493
26.56000 -1.437
26.58000 1.492
26.60000 0.938
26.62000 6.567
26.64000 8.807
26.66000 2.508
26.68000 -3.898
26.70000 6.220
26.72000 8.644
26.74000 5.905
26.76000 6.835
26.78000 4.799
26.80000 7.347
26.82000 6.280
26.84000 4.082
26.86000 0.648
26.88000 1.544
26.90000 5.974
26.92000 -1.761
26.94000 2.118
26.96000 2.837
26.98000 5.648
27.00000 7.559
27.02000 7.332
27.04000 6.494
27.06000 7.043
27.08000 3.817
27.10000 1.761
27.12000 1.069
27.14000 -3.877
27.16000 1.050
27.18000 -0.670
27.20000 3.027
27.22000 4.176
27.24000 3.508
27.26000 2.058
27.28000 3.004
27.30000 -0.207
27.32000 1.235
27.34000 -0.569
27.36000 5.483
27.38000 2.130
27.40000 1.070
27.42000 1.383
27.44000 2.756
27.46000 3.539
27.48000 0.637
27.50000 -3.130
27.52000 6.193
27.54000 2.592
27.56000 2.916
27.58000 -0.822
27.60000 -2.503
27.62000 3.245
27.64000 2.905
27.66000 2.478
27.68000 -2.313
27.70000 -1.427
27.72000 -2.550
27.74000 5.713
27.76000 3.446
27.78000 4.156
27.80000 6.107
27.82000 5.610
27.84000 1.394
27.86000 4.879
27.88000 10.052
27.90000 3.117
27.92000 2.013
27.94000 2.319
27.96000 4.062
27.98000 7.193
28.00000 0.146
28.02000 0.171
28.04000 -3.314
28.06000 2.044
28.08000 -3.381
28.10000 -3.832
28.12000 -1.018
28.14000 2.393
28.16000 5.898
28.18000 8.458
28.20000 3.571
28.22000 1.622
28.24000 0.900
28.26000 5.776
28.28000 7.247
28.30000 3.038
28.32000 3.020
28.34000 5.500
28.36000 -0.790
28.38000 2.892
28.40000 0.129
28.42000 -3.034
28.44000 -0.397
28.46000 4.292
28.48000 4.664
28.50000 1.377
28.52000 8.788
28.54000 7.692
28.56000 5.572
28.58000 4.093
28.60000 0.002
28.62000 -0.400
28.64000 4.550
28.66000 7.574
28.68000 5.779
28.70000 2.783
28.72000 2.525
28.74000 2.116
28.76000 -1.412
28.78000 -0.910
28.80000 -1.668
28.82000 2.055
28.84000 2.424
28.86000 -0.210
28.88000 -2.053
28.90000 -1.251
28.92000 4.081
28.94000 1.650
28.96000 -1.240
28.98000 0.697
29.00000 -0.213
29.02000 2.028
29.04000 -2.056
29.06000 -0.822
29.08000 2.474
29.10000 3.628
29.12000 3.936
29.14000 4.656
29.16000 1.781
29.18000 1.588
29.20000 0.745
29.22000 0.032
29.24000 -0.183
29.26000 -0.173
29.28000 -3.169
29.30000 0.679
29.32000 3.893
29.34000 1.643
29.36000 3.026
29.38000 0.405
29.40000 0.082
29.42000 0.303
29.44000 1.120
29.46000 1.042
29.48000 3.960
29.50000 6.465
29.52000 1.307
29.54000 2.767
29.56000 6.084
29.58000 2.630
29.60000 -0.991
29.62000 3.065
29.64000 6.969
29.66000 4.131
29.68000 0.313
29.70000 6.855
29.72000 5.375
29.74000 8.078
29.76000 1.034
29.78000 -1.609
29.80000 -1.829
29.82000 1.384
29.84000 0.368
29.86000 1.364
29.88000 2.598
29.90000 0.916
29.92000 4.763
29.94000 4.859
29.96000 5.647
29.98000 2.694
30.00000 3.708
30.02000 4.892
30.04000 4.446
30.06000 4.223
30.08000 3.259
30.10000 8.984
30.12000 7.418
30.14000 6.647
30.16000 1.870
30.18000 -3.714
30.20000 -1.452
30.22000 7.069
30.24000 -1.481
30.26000 -0.505
30.28000 7.202
30.30000 7.660
30.32000 4.853
30.34000 4.044
30.36000 4.907
30.38000 7.330
30.40000 5.730
30.42000 3.838
30.44000 4.380
30.46000 4.088
30.48000 11.815
30.50000 11.669
30.52000 5.921
30.54000 9.747
30.56000 9.449
30.58000 5.102
30.60000 -2.357
30.62000 2.083
30.64000 0.749
30.66000 -1.976
30.68000 0.577
30.70000 5.216
30.72000 4.901
30.74000 5.607
30.76000 4.213
30.78000 0.464
30.80000 1.897
30.82000 6.517
30.84000 4.511
30.86000 4.744
30.88000 8.283
30.90000 3.639
30.92000 1.770
30.94000 5.163
30.96000 6.479
30.98000 4.768
31.00000 7.596
31.02000 12.161
31.04000 10.453
31.06000 5.850
31.08000 7.481
31.10000 12.068
31.12000 4.784
31.14000 2.295
31.16000 4.417
31.18000 4.835
31.20000 3.698
31.22000 2.971
31.24000 5.739
31.26000 6.550
31.28000 5.735
31.30000 1.725
31.32000 0.930
31.34000 3.288
31.36000 7.314
31.38000 5.938
31.40000 3.667
31.42000 1.843
31.44000 6.868
31.46000 3.748
31.48000 4.291
31.50000 5.720
31.52000 5.714
31.54000 6.452
31.56000 6.335
31.58000 7.681
31.60000 9.782
31.62000 7.649
31.64000 6.142
31.66000 5.635
31.68000 2.356
31.70000 7.706
31.72000 9.724
31.74000 5.085
31.76000 -3.625
31.78000 3.224
31.80000 2.280
31.82000 3.497
31.84000 3.022
31.86000 5.968
31.88000 1.601
31.90000 3.286
31.92000 4.170
31.94000 1.017
31.96000 5.679
31.98000 9.253
32.00000 7.919
32.02000 6.186
32.04000 8.558
32.06000 3.073
32.08000 5.069
32.10000 6.956
32.12000 3.772
32.14000 5.484
32.16000 5.929
32.18000 11.193
32.20000 8.542
32.22000 1.876
32.24000 -0.933
32.26000 1.811
32.28000 2.464
32.30000 7.403
32.32000 6.950
32.34000 2.991
32.36000 1.310
32.38000 1.088
32.40000 2.423
32.42000 7.021
32.44000 8.281
32.46000 3.512
32.48000 3.084
32.50000 6.964
32.52000 5.575
32.54000 5.949
32.56000 0.974
32.58000 3.323
32.60000 2.613
32.62000 2.233
32.64000 -0.907
32.66000 -1.835
32.68000 1.268
32.70000 3.618
32.72000 4.294
32.74000 6.974
32.76000 2.140
32.78000 0.529
32.80000 3.257
32.82000 1.377
32.84000 2.862
32.86000 1.694
32.88000 -2.156
32.90000 -3.619
32.92000 -0.414
32.94000 -2.773
32.96000 0.918
32.98000 2.663
33.00000 2.483
33.02000 0.675
33.04000 2.160
33.06000 4.748
33.08000 4.361
33.10000 -0.006
33.12000 3.768
33.14000 2.026
33.16000 2.089
33.18000 -0.505
33.20000 2.070
33.22000 4.290
33.24000 4.697
33.26000 3.266
33.28000 2.023
33.30000 5.690
33.32000 9.962
33.34000 9.865
33.36000 3.481
33.38000 5.967
33.40000 8.488
33.42000 2.706
33.44000 1.054
33.46000 7.418
33.48000 3.020
33.50000 1.221
33.52000 8.531
33.54000 5.337
33.56000 1.704
33.58000 2.259
33.60000 3.539
33.62000 -3.290
33.64000 1.816
33.66000 5.733
33.68000 12.988
33.70000 8.634
33.72000 -0.057
33.74000 2.532
33.76000 7.480
33.78000 3.106
33.80000 3.277
33.82000 5.501
33.84000 3.685
33.86000 2.724
33.88000 6.967
33.90000 4.099
33.92000 4.451
33.94000 6.175
33.96000 8.759
33.98000 6.870
34.00000 7.486
34.02000 4.531
34.04000 4.744
34.06000 2.064
34.08000 0.235
34.10000 0.880
34.12000 2.016
34.14000 7.280
34.16000 5.430
34.18000 7.702
34.20000 4.681
34.22000 2.569
34.24000 3.983
34.26000 2.657
34.28000 4.902
34.30000 0.756
34.32000 -0.040
34.34000 2.454
34.36000 3.051
34.38000 7.599
34.40000 8.051
34.42000 1.198
34.44000 2.338
34.46000 2.284
34.48000 1.545
34.50000 -0.855
34.52000 5.100
34.54000 6.337
34.56000 0.945
34.58000 1.616
34.60000 5.792
34.62000 6.565
34.64000 6.250
34.66000 3.779
34.68000 0.907
34.70000 2.607
34.72000 5.349
34.74000 2.944
34.76000 -3.611
34.78000 2.063
34.80000 3.972
34.82000 2.507
34.84000 -0.912
34.86000 0.884
34.88000 1.071
34.90000 -0.359
34.92000 -1.607
34.94000 -0.180
34.96000 3.406
34.98000 2.971
35.00000 3.307
35.02000 2.905
35.04000 4.434
35.06000 2.375
35.08000 -3.624
35.10000 -3.085
35.12000 5.158
35.14000 8.649
35.16000 3.910
35.18000 6.447
35.20000 1.172
35.22000 -1.560
35.24000 -1.967
35.26000 4.322
35.28000 6.378
35.30000 4.111
35.32000 0.439
35.34000 -2.673
35.36000 -1.182
35.38000 -0.127
35.40000 -1.764
35.42000 2.914
35.44000 5.880
35.46000 6.363
35.48000 -1.377
35.50000 -2.458
35.52000 -2.054
35.54000 0.391
35.56000 -2.711
35.58000 -3.647
35.60000 -1.714
35.62000 -0.227
35.64000 1.864
35.66000 1.768
35.68000 0.413
35.70000 -1.590
35.72000 -0.754
35.74000 0.195
35.76000 0.232
35.78000 0.112
35.80000 -1.519
35.82000 1.144
35.84000 -2.240
35.86000 -1.484
35.88000 2.579
35.90000 -0.880
35.92000 -2.968
35.94000 -1.361
35.96000 -2.737
35.98000 0.380
36.00000 -1.110
36.02000 -1.479
36.04000 -0.881
36.06000 -0.927
36.08000 -0.258
36.10000 -0.304
36.12000 0.973
36.14000 1.427
36.16000 1.041
36.18000 -1.445
36.20000 2.706
36.22000 5.957
36.24000 -1.577
36.26000 -0.888
36.28000 0.523
36.30000 -0.712
36.32000 -1.761
36.34000 -0.751
36.36000 0.882
36.38000 3.724
36.40000 2.920
36.42000 -2.634
36.44000 -2.410
36.46000 1.548
36.48000 4.515
36.50000 0.202
36.52000 -1.990
36.54000 0.814
36.56000 2.326
36.58000 4.727
36.60000 -0.214
36.62000 -0.582
36.64000 4.389
36.66000 5.918
36.68000 4.808
36.70000 6.644
36.72000 5.303
36.74000 -0.167
36.76000 3.920
36.78000 5.726
36.80000 0.943
36.82000 3.259
36.84000 2.188
36.86000 5.394
36.88000 6.422
36.90000 3.927
36.92000 1.019
36.94000 3.579
36.96000 5.379
36.98000 6.124
37.00000 3.850
37.02000 5.411
37.04000 5.979
37.06000 5.109
37.08000 5.091
37.10000 8.674
37.12000 11.008
37.14000 13.357
37.16000 9.749
37.18000 6.850
37.20000 7.551
37.22000 6.551
37.24000 7.280
37.26000 10.919
37.28000 12.043
37.30000 14.096
37.32000 13.895
37.34000 13.527
37.36000 8.658
37.38000 9.339
37.40000 8.121
37.42000 8.131
37.44000 13.780
37.46000 16.606
37.48000 10.535
37.50000 11.370
37.52000 10.340
37.54000 14.679
37.56000 14.440
37.58000 12.215
37.60000 14.262
37.62000 18.503
37.64000 20.885
37.66000 18.381
37.68000 18.779
37.70000 21.593
37.72000 20.063
37.74000 19.501
37.76000 23.548
37.78000 27.737
37.80000 25.549
37.82000 24.393
37.84000 25.533
37.86000 23.907
37.88000 23.275
37.90000 27.976
37.92000 25.091
37.94000 26.747
37.96000 29.136
37.98000 30.074
38.00000 32.866
38.02000 35.509
38.04000 38.087
38.06000 42.654
38.08000 42.782
38.10000 42.367
38.12000 48.218
38.14000 47.841
38.16000 47.528
38.18000 49.350
38.20000 53.724
38.22000 52.677
38.24000 57.471
38.26000 59.647
38.28000 57.173
38.30000 59.429
38.32000 63.544
38.34000 69.575
38.36000 70.234
38.38000 76.389
38.40000 81.367
38.42000 81.737
38.44000 81.274
38.46000 87.153
38.48000 98.741
38.50000 105.497
38.52000 108.428
38.54000 116.188
38.56000 122.700
38.58000 128.245
38.60000 136.086
38.62000 143.833
38.64000 145.978
38.66000 155.133
38.68000 168.692
38.70000 178.991
38.72000 191.651
38.74000 202.995
38.76000 216.115
38.78000 223.540
38.80000 229.679
38.82000 244.840
38.84000 254.792
38.86000 271.943
38.88000 294.556
38.90000 308.576
38.92000 306.969
38.94000 315.930
38.96000 324.755
38.98000 333.667
39.00000 346.906
39.02000 356.365
39.04000 360.733
39.06000 365.916
39.08000 365.841
39.10000 369.280
39.12000 373.788
39.14000 370.029
39.16000 370.200
39.18000 360.872
39.20000 352.795
39.22000 350.294
39.24000 342.484
39.26000 328.506
39.28000 314.284
39.30000 304.797
39.32000 289.561
39.34000 272.368
39.36000 262.996
39.38000 253.966
39.40000 243.877
39.42000 236.923
39.44000 226.158
39.46000 209.289
39.48000 192.601
39.50000 179.404
39.52000 172.362
39.54000 164.721
39.56000 149.682
39.58000 141.074
39.60000 135.346
39.62000 123.168
39.64000 111.119
39.66000 109.302
39.68000 102.797
39.70000 93.104
39.72000 82.926
39.74000 80.678
39.76000 81.116
39.78000 79.416
39.80000 76.033
39.82000 70.107
39.84000 65.085
39.86000 60.811
39.88000 53.514
39.90000 50.785
39.92000 50.274
39.94000 48.594
39.96000 46.020
39.98000 46.188
40.00000 44.147
40.02000 41.763
40.04000 38.168
40.06000 39.958
40.08000 37.830
40.10000 33.891
40.12000 33.312
40.14000 26.624
40.16000 25.121
40.18000 26.412
40.20000 17.534
40.22000 21.115
40.24000 22.537
40.26000 18.612
40.28000 19.949
40.30000 19.646
40.32000 15.894
40.34000 16.995
40.36000 16.523
40.38000 21.587
40.40000 19.923
40.42000 16.337
40.44000 16.586
40.46000 16.887
40.48000 17.210
40.50000 17.771
40.52000 15.638
40.54000 13.784
40.56000 11.215
40.58000 10.463
40.60000 12.778
40.62000 12.645
40.64000 15.372
40.66000 12.695
40.68000 8.325
40.70000 10.143
40.72000 8.401
40.74000 10.670
40.76000 10.834
40.78000 8.956
40.80000 7.420
40.82000 9.331
40.84000 10.293
40.86000 4.131
40.88000 4.638
40.90000 5.305
40.92000 1.335
40.94000 2.143
40.96000 2.913
40.98000 2.938
41.00000 7.237
41.02000 5.900
41.04000 4.093
41.06000 5.743
41.08000 4.040
41.10000 6.511
41.12000 4.853
41.14000 3.355
41.16000 2.283
41.18000 4.354
41.20000 4.242
41.22000 3.797
41.24000 0.139
41.26000 -1.232
41.28000 -0.808
41.30000 3.084
41.32000 5.525
41.34000 9.666
41.36000 4.921
41.38000 1.673
41.40000 4.166
41.42000 1.691
41.44000 1.247
41.46000 0.980
41.48000 3.777
41.50000 3.052
41.52000 5.196
41.54000 4.256
41.56000 0.536
41.58000 2.998
41.60000 3.491
41.62000 2.705
41.64000 2.371
41.66000 1.078
41.68000 1.942
41.70000 0.578
41.72000 0.624
41.74000 2.203
41.76000 1.750
41.78000 0.549
41.80000 -0.518
41.82000 1.774
41.84000 2.356
41.86000 0.168
41.88000 3.468
41.90000 -0.463
41.92000 0.493
41.94000 1.283
41.96000 -1.555
41.98000 -2.515
42.00000 -1.012
42.02000 -3.392
42.04000 -0.386
42.06000 -1.097
42.08000 -2.102
42.10000 -0.860
42.12000 -2.251
42.14000 -1.881
42.16000 -3.367
42.18000 -0.298
42.20000 -0.040
42.22000 -0.242
42.24000 5.754
42.26000 4.801
42.28000 3.188
42.30000 3.560
42.32000 1.286
42.34000 4.411
42.36000 3.506
42.38000 -2.130
42.40000 -1.604
42.42000 1.785
42.44000 4.320
42.46000 3.677
42.48000 2.516
42.50000 2.200
42.52000 2.196
42.54000 2.523
42.56000 -0.464
42.58000 -0.159
42.60000 3.122
42.62000 2.838
42.64000 -0.558
42.66000 2.075
42.68000 2.518
42.70000 -3.299
42.72000 2.140
42.74000 2.952
42.76000 1.258
42.78000 3.773
42.80000 4.554
42.82000 0.354
42.84000 2.848
42.86000 1.841
42.88000 1.529
42.90000 5.099
42.92000 2.505
42.94000 -0.137
42.96000 0.140
42.98000 -1.485
43.00000 0.957
43.02000 -0.114
43.04000 -1.386
43.06000 3.614
43.08000 3.311
43.10000 0.575
43.12000 3.439
43.14000 3.151
43.16000 6.645
43.18000 3.543
43.20000 3.536
43.22000 1.876
43.24000 0.969
43.26000 1.922
43.28000 0.221
43.30000 -1.364
43.32000 -0.861
43.34000 -0.959
43.36000 -0.962
43.38000 0.490
43.40000 1.049
43.42000 0.300
43.44000 0.158
43.46000 -3.261
43.48000 -2.032
43.50000 -0.013
43.52000 1.048
43.54000 0.203
43.56000 -3.085
43.58000 -0.358
43.60000 0.050
43.62000 1.134
43.64000 -1.084
43.66000 -0.925
43.68000 -2.966
43.70000 -2.907
43.72000 -3.246
43.74000 -0.987
43.76000 -2.663
43.78000 -2.945
43.80000 -0.722
43.82000 -0.424
43.84000 1.074
43.86000 -1.162
43.88000 -2.706
43.90000 -3.235
43.92000 -1.391
43.94000 -2.848
43.96000 -3.232
43.98000 -0.058
44.00000 3.043
44.02000 2.001
44.04000 -0.555
44.06000 1.118
44.08000 4.487
44.10000 5.871
44.12000 2.407
44.14000 3.397
44.16000 3.248
44.18000 2.416
44.20000 4.943
44.22000 3.526
44.24000 0.256
44.26000 6.287
44.28000 7.796
44.30000 7.312
44.32000 1.525
44.34000 0.270
44.36000 1.745
44.38000 5.087
44.40000 6.145
44.42000 6.545
44.44000 7.094
44.46000 7.191
44.48000 6.464
44.50000 5.982
44.52000 9.639
44.54000 11.067
44.56000 14.722
44.58000 9.379
44.60000 10.845
44.62000 13.022
44.64000 7.812
44.66000 9.828
44.68000 10.792
44.70000 16.551
44.72000 17.629
44.74000 15.390
44.76000 19.796
44.78000 19.904
44.80000 19.044
44.82000 20.945
44.84000 21.128
44.86000 20.186
44.88000 21.490
44.90000 24.766
44.92000 27.838
44.94000 30.629
44.96000 29.459
44.98000 30.227
45.00000 26.809
45.02000 30.846
45.04000 35.692
45.06000 37.213
45.08000 34.676
45.10000 38.894
45.12000 43.676
45.14000 47.170
45.16000 46.128
45.18000 49.696
45.20000 50.425
45.22000 48.901
45.24000 55.781
45.26000 58.854
45.28000 57.264
45.30000 61.860
45.32000 66.253
45.34000 65.396
45.36000 69.120
45.38000 72.769
45.40000 73.227
45.42000 72.767
45.44000 74.718
45.46000 76.845
45.48000 81.831
45.50000 83.066
45.52000 82.748
45.54000 87.994
45.56000 88.334
45.58000 87.086
45.60000 91.198
45.62000 92.386
45.64000 86.178
45.66000 87.372
45.68000 91.312
45.70000 90.661
45.72000 94.099
45.74000 91.247
45.76000 82.439
45.78000 85.506
45.80000 89.510
45.82000 80.159
45.84000 78.432
45.86000 72.739
45.88000 73.386
45.90000 73.121
45.92000 68.089
45.94000 69.015
45.96000 68.973
45.98000 65.786
46.00000 65.565
46.02000 61.563
46.04000 55.595
46.06000 50.468
46.08000 53.723
46.10000 48.415
46.12000 43.704
46.14000 40.219
46.16000 41.503
46.18000 38.249
46.20000 35.410
46.22000 36.150
46.24000 31.083
46.26000 30.659
46.28000 32.552
46.30000 25.129
46.32000 26.243
46.34000 24.217
46.36000 23.501
46.38000 21.204
46.40000 18.765
46.42000 16.755
46.44000 17.461
46.46000 20.272
46.48000 17.570
46.50000 13.802
46.52000 14.666
46.54000 10.063
46.56000 8.366
46.58000 7.930
46.60000 9.569
46.62000 13.647
46.64000 10.497
46.66000 9.616
46.68000 6.133
46.70000 6.062
46.72000 5.008
46.74000 1.616
46.76000 2.043
46.78000 5.423
46.80000 2.353
46.82000 6.029
46.84000 5.220
46.86000 6.593
46.88000 5.648
46.90000 3.399
46.92000 2.910
46.94000 1.534
46.96000 4.505
46.98000 3.179
47.00000 -0.655
47.02000 -1.305
47.04000 -1.462
47.06000 -2.860
47.08000 -2.879
47.10000 -1.359
47.12000 1.852
47.14000 2.812
47.16000 -1.397
47.18000 1.898
47.20000 2.954
47.22000 1.540
47.24000 2.204
47.26000 -2.775
47.28000 -0.679
47.30000 1.285
47.32000 -0.027
47.34000 -0.030
47.36000 4.633
47.38000 4.892
47.40000 2.391
47.42000 3.182
47.44000 4.127
47.46000 4.132
47.48000 2.812
47.50000 0.194
47.52000 -0.365
47.54000 1.529
47.56000 4.811
47.58000 1.021
47.60000 -1.024
47.62000 1.603
47.64000 -0.010
47.66000 0.785
47.68000 -0.247
47.70000 2.394
47.72000 5.701
47.74000 1.799
47.76000 0.688
47.78000 -2.043
47.80000 -2.756
47.82000 4.000
47.84000 5.319
47.86000 1.189
47.88000 0.350
47.90000 -1.197
47.92000 -2.747
47.94000 -1.153
47.96000 0.393
47.98000 0.330
48.00000 2.028
48.02000 4.155
48.04000 2.663
48.06000 4.260
48.08000 5.308
48.10000 2.337
48.12000 2.105
48.14000 2.509
48.16000 4.715
48.18000 2.574
48.20000 1.415
48.22000 2.871
48.24000 0.748
48.26000 -0.896
48.28000 1.036
48.30000 -0.367
48.32000 2.213
48.34000 2.527
48.36000 2.878
48.38000 1.670
48.40000 2.295
48.42000 0.533
48.44000 2.351
48.46000 0.949
48.48000 -1.166
48.50000 -2.423
48.52000 0.190
48.54000 2.316
48.56000 1.809
48.58000 -0.860
48.60000 0.092
48.62000 3.156
48.64000 3.551
48.66000 3.670
48.68000 3.577
48.70000 0.686
48.72000 -2.692
48.74000 -1.126
48.76000 0.130
48.78000 0.238
48.80000 0.761
48.82000 0.582
48.84000 -2.418
48.86000 -0.246
48.88000 4.660
48.90000 -2.444
48.92000 -0.963
48.94000 2.019
48.96000 1.118
48.98000 1.649
49.00000 4.612
49.02000 -0.585
49.04000 -0.856
49.06000 0.999
49.08000 3.901
49.10000 2.962
49.12000 2.280
49.14000 0.181
49.16000 1.090
49.18000 -1.505
49.20000 2.931
49.22000 5.079
49.24000 4.190
49.26000 3.408
49.28000 0.458
49.30000 -1.777
49.32000 -1.259
49.34000 0.636
49.36000 2.034
49.38000 4.633
49.40000 2.685
49.42000 -2.346
49.44000 -1.543
49.46000 2.027
49.48000 4.719
49.50000 2.137
49.52000 1.507
49.54000 3.242
49.56000 3.937
49.58000 2.656
49.60000 2.279
49.62000 0.698
49.64000 -2.672
49.66000 -0.992
49.68000 -1.326
49.70000 0.113
49.72000 0.155
49.74000 3.452
49.76000 1.893
49.78000 1.661
49.80000 -0.661
49.82000 4.088
49.84000 7.317
49.86000 4.198
49.88000 0.567
49.90000 -0.844
49.92000 -1.870
49.94000 -1.932
49.96000 -1.577
49.98000 0.227
50.00000 5.650
50.02000 1.436
50.04000 0.001
50.06000 -0.179
50.08000 2.562
50.10000 1.298
50.12000 -2.649
50.14000 -1.054
50.16000 1.898
50.18000 0.243
50.20000 3.645
50.22000 2.912
50.24000 1.790
50.26000 2.283
50.28000 -0.443
50.30000 -0.701
50.32000 0.094
50.34000 0.336
50.36000 0.380
50.38000 2.129
50.40000 1.905
50.42000 3.075
50.44000 4.985
50.46000 3.663
50.48000 2.517
50.50000 3.229
50.52000 3.070
50.54000 3.465
50.56000 0.052
50.58000 -0.160
50.60000 1.856
50.62000 -1.471
50.64000 -2.163
50.66000 3.027
50.68000 4.395
50.70000 -0.772
50.72000 4.336
50.74000 3.864
50.76000 -2.103
50.78000 3.160
50.80000 5.153
50.82000 3.500
50.84000 0.502
50.86000 1.940
50.88000 0.271
50.90000 1.192
50.92000 0.078
50.94000 3.831
50.96000 1.022
50.98000 1.357
51.00000 1.055
51.02000 1.919
51.04000 4.048
51.06000 2.743
51.08000 1.533
51.10000 2.062
51.12000 2.379
51.14000 -1.244
51.16000 -0.142
51.18000 -0.704
51.20000 -1.100
51.22000 -1.988
51.24000 -1.044
51.26000 1.989
51.28000 2.654
51.30000 3.900
51.32000 3.250
51.34000 -2.572
51.36000 -0.033
51.38000 -1.720
51.40000 -0.734
51.42000 4.152
51.44000 6.747
51.46000 2.779
51.48000 5.893
51.50000 4.318
51.52000 3.158
51.54000 4.418
51.56000 1.950
51.58000 -2.165
51.60000 -0.803
51.62000 -2.550
51.64000 -1.439
51.66000 -0.498
51.68000 -0.244
51.70000 1.287
51.72000 0.347
51.74000 6.898
51.76000 3.386
51.78000 2.347
51.80000 5.778
51.82000 5.392
51.84000 8.517
51.86000 6.116
51.88000 3.312
51.90000 3.284
51.92000 4.424
51.94000 8.554
51.96000 7.089
51.98000 6.970
52.00000 7.786
52.02000 3.587
52.04000 1.440
52.06000 -0.292
52.08000 -2.019
52.10000 -2.551
52.12000 -1.504
52.14000 1.661
52.16000 1.968
52.18000 4.075
52.20000 1.000
52.22000 2.474
52.24000 4.320
52.26000 5.292
52.28000 2.455
52.30000 -1.200
52.32000 -1.160
52.34000 2.586
52.36000 7.390
52.38000 7.482
52.40000 5.982
52.42000 3.769
52.44000 5.011
52.46000 1.578
52.48000 4.424
52.50000 4.115
52.52000 -0.181
52.54000 0.800
52.56000 3.433
52.58000 5.263
52.60000 5.986
52.62000 4.458
52.64000 -0.061
52.66000 -0.974
52.68000 1.977
52.70000 6.778
52.72000 3.442
52.74000 0.726
52.76000 1.564
52.78000 3.731
52.80000 4.952
52.82000 1.699
52.84000 4.100
52.86000 -0.467
52.88000 2.605
52.90000 3.357
52.92000 0.984
52.94000 3.235
52.96000 3.083
52.98000 1.400
53.00000 -2.525
53.02000 4.843
53.04000 2.460
53.06000 3.219
53.08000 5.105
53.10000 4.363
53.12000 3.135
53.14000 1.194
53.16000 -0.504
53.18000 2.792
53.20000 -0.146
53.22000 3.531
53.24000 3.060
53.26000 0.387
53.28000 4.588
53.30000 5.109
53.32000 0.569
53.34000 0.166
53.36000 0.051
53.38000 -1.868
53.40000 -0.509
53.42000 0.801
53.44000 2.451
53.46000 2.576
53.48000 0.787
53.50000 1.916
53.52000 0.363
53.54000 3.110
53.56000 4.295
53.58000 3.532
53.60000 2.796
53.62000 2.411
53.64000 1.084
53.66000 1.586
53.68000 3.141
53.70000 2.138
53.72000 0.886
53.74000 1.974
53.76000 0.345
53.78000 1.886
53.80000 0.001
53.82000 2.373
53.84000 4.127
53.86000 0.344
53.88000 -0.128
53.90000 -0.259
53.92000 -2.517
53.94000 1.468
53.96000 5.941
53.98000 3.757
54.00000 1.358
54.02000 4.573
54.04000 3.940
54.06000 -2.281
54.08000 -0.036
54.10000 -0.949
54.12000 1.777
54.14000 1.612
54.16000 1.836
54.18000 -0.502
54.20000 -1.753
54.22000 1.866
54.24000 1.863
54.26000 0.233
54.28000 0.203
54.30000 3.309
54.32000 1.659
54.34000 3.367
54.36000 4.742
54.38000 3.755
54.40000 1.319
54.42000 0.406
54.44000 0.934
54.46000 4.480
54.48000 5.877
54.50000 0.538
54.52000 1.459
54.54000 3.243
54.56000 -0.645
54.58000 -1.322
54.60000 -0.145
54.62000 1.890
54.64000 4.863
54.66000 0.972
54.68000 -0.834
54.70000 -0.685
54.72000 -0.244
54.74000 2.866
54.76000 3.315
54.78000 2.886
54.80000 2.214
54.82000 5.543
54.84000 4.898
54.86000 3.862
54.88000 4.277
54.90000 2.637
54.92000 -0.367
54.94000 1.539
54.96000 0.041
54.98000 0.682
55.00000 2.819
55.02000 0.653
55.04000 0.797
55.06000 3.385
55.08000 6.574
55.10000 5.789
55.12000 2.374
55.14000 1.282
55.16000 4.300
55.18000 6.228
55.20000 6.199
55.22000 1.405
55.24000 5.078
55.26000 4.367
55.28000 2.569
55.30000 2.671
55.32000 3.440
55.34000 1.991
55.36000 3.386
55.38000 0.894
55.40000 3.949
55.42000 5.114
55.44000 2.996
55.46000 2.588
55.48000 5.429
55.50000 5.863
55.52000 6.230
55.54000 6.314
55.56000 7.727
55.58000 6.058
55.60000 2.923
55.62000 1.501
55.64000 2.640
55.66000 0.968
55.68000 -2.435
55.70000 -0.199
55.72000 2.048
55.74000 3.431
55.76000 5.336
55.78000 9.717
55.80000 6.471
55.82000 2.716
55.84000 4.512
55.86000 6.084
55.88000 6.201
55.90000 2.468
55.92000 4.072
55.94000 4.460
55.96000 4.842
55.98000 6.929
56.00000 3.943
56.02000 1.421
56.04000 4.818
56.06000 1.804
56.08000 6.766
56.10000 7.023
56.12000 4.469
56.14000 3.515
56.16000 2.701
56.18000 2.265
56.20000 1.947
56.22000 0.738
56.24000 1.971
56.26000 3.610
56.28000 5.833
56.30000 2.855
56.32000 3.157
56.34000 2.543
56.36000 0.600
56.38000 3.081
56.40000 2.216
56.42000 0.574
56.44000 2.963
56.46000 -1.484
56.48000 4.207
56.50000 1.102
56.52000 1.766
56.54000 2.061
56.56000 4.727
56.58000 2.485
56.60000 -1.440
56.62000 -1.500
56.64000 -0.212
56.66000 -0.093
56.68000 -0.917
56.70000 -0.189
56.72000 3.099
56.74000 7.108
56.76000 4.778
56.78000 1.868
56.80000 -1.135
56.82000 4.012
56.84000 5.385
56.86000 2.416
56.88000 -0.828
56.90000 4.195
56.92000 3.073
56.94000 3.000
56.96000 1.328
56.98000 0.178
57.00000 2.083
57.02000 1.833
57.04000 2.401
57.06000 5.618
57.08000 3.347
57.10000 7.684
57.12000 3.910
57.14000 2.451
57.16000 -2.434
57.18000 2.506
57.20000 2.499
57.22000 2.133
57.24000 4.147
57.26000 6.780
57.28000 4.176
57.30000 -1.006
57.32000 -1.799
57.34000 1.081
57.36000 3.425
57.38000 3.388
57.40000 3.002
57.42000 3.166
57.44000 1.120
57.46000 3.249
57.48000 4.043
57.50000 -0.268
57.52000 3.246
57.54000 2.634
57.56000 3.657
57.58000 5.579
57.60000 2.425
57.62000 1.950
57.64000 3.451
57.66000 4.340
57.68000 6.997
57.70000 2.796
57.72000 1.745
57.74000 2.295
57.76000 0.412
57.78000 -0.618
57.80000 -1.377
57.82000 0.742
57.84000 2.465
57.86000 2.003
57.88000 3.452
57.90000 2.352
57.92000 2.248
57.94000 0.710
57.96000 0.700
57.98000 1.959
58.00000 1.330
58.02000 1.732
58.04000 2.276
58.06000 2.962
58.08000 1.174
58.10000 -1.204
58.12000 -0.912
58.14000 3.348
58.16000 1.502
58.18000 0.458
58.20000 2.506
58.22000 1.964
58.24000 3.931
58.26000 1.927
58.28000 2.739
58.30000 1.995
58.32000 3.171
58.34000 -0.455
58.36000 0.800
58.38000 2.735
58.40000 3.560
58.42000 -0.816
58.44000 -1.547
58.46000 2.084
58.48000 2.926
58.50000 5.640
58.52000 5.760
58.54000 1.598
58.56000 3.649
58.58000 1.069
58.60000 2.275
58.62000 0.121
58.64000 -0.233
58.66000 1.226
58.68000 4.554
58.70000 6.624
58.72000 2.762
58.74000 -0.533
58.76000 -0.312
58.78000 1.634
58.80000 4.236
58.82000 4.598
58.84000 3.180
58.86000 0.035
58.88000 2.699
58.90000 -1.130
58.92000 -2.378
58.94000 -0.337
58.96000 0.366
58.98000 3.281
59.00000 4.383
59.02000 6.554
59.04000 3.746
59.06000 4.099
59.08000 4.908
59.10000 0.911
59.12000 3.367
59.14000 1.002
59.16000 1.340
59.18000 2.114
59.20000 -0.037
59.22000 -2.370
59.24000 -1.333
59.26000 3.916
59.28000 3.825
59.30000 4.742
59.32000 5.637
59.34000 3.148
59.36000 -0.732
59.38000 2.125
59.40000 0.408
59.42000 4.020
59.44000 4.876
59.46000 7.875
59.48000 4.107
59.50000 -2.007
59.52000 1.035
59.54000 1.629
59.56000 2.836
59.58000 3.020
59.60000 -1.637
59.62000 -0.437
59.64000 1.532
59.66000 5.891
59.68000 3.656
59.70000 -0.357
59.72000 0.656
59.74000 1.583
59.76000 -1.545
59.78000 2.917
59.80000 7.335
59.82000 5.161
59.84000 1.056
59.86000 -2.248
59.88000 1.155
59.90000 3.965
59.92000 3.790
59.94000 2.401
59.96000 2.018
59.98000 0.748
60.00000 -0.078
60.02000 2.213
60.04000 4.974
60.06000 0.263
60.08000 -1.616
60.10000 2.964
60.12000 1.688
60.14000 2.022
60.16000 2.185
60.18000 4.800
60.20000 3.674
60.22000 3.332
60.24000 3.599
60.26000 3.994
60.28000 3.533
60.30000 3.140
60.32000 4.348
60.34000 2.015
60.36000 3.304
60.38000 6.188
60.40000 0.544
60.42000 -2.302
60.44000 1.015
60.46000 2.486
60.48000 4.712
60.50000 6.012
60.52000 1.444
60.54000 3.178
60.56000 4.560
60.58000 3.365
60.60000 2.628
60.62000 3.523
60.64000 5.597
60.66000 2.868
60.68000 -0.630
60.70000 -0.874
60.72000 3.485
60.74000 5.075
60.76000 3.074
60.78000 1.461
60.80000 3.317
60.82000 5.496
60.84000 -0.089
60.86000 0.785
60.88000 2.197
60.90000 2.401
60.92000 5.252
60.94000 8.006
60.96000 0.622
60.98000 -2.274
61.00000 -0.439
61.02000 0.192
61.04000 4.195
61.06000 2.801
61.08000 3.693
61.10000 3.957
61.12000 3.828
61.14000 4.049
61.16000 2.447
61.18000 3.611
61.20000 1.819
61.22000 5.616
61.24000 2.018
61.26000 0.870
61.28000 4.232
61.30000 2.039
61.32000 1.974
61.34000 2.569
61.36000 4.398
61.38000 3.275
61.40000 2.637
61.42000 2.708
61.44000 0.123
61.46000 1.543
61.48000 2.985
61.50000 4.165
61.52000 6.371
61.54000 0.570
61.56000 -1.378
61.58000 1.903
61.60000 2.005
61.62000 3.548
61.64000 0.561
61.66000 0.604
61.68000 -0.366
61.70000 0.691
61.72000 0.480
61.74000 1.466
61.76000 1.981
61.78000 -1.301
61.80000 -2.284
61.82000 -1.908
61.84000 0.873
61.86000 -0.152
61.88000 2.555
61.90000 1.560
61.92000 -1.402
61.94000 -1.811
61.96000 1.507
61.98000 1.704
62.00000 -0.242
62.02000 1.366
62.04000 0.737
62.06000 0.267
62.08000 3.777
62.10000 3.812
62.12000 4.122
62.14000 -0.382
62.16000 1.345
62.18000 3.156
62.20000 -0.492
62.22000 4.096
62.24000 4.587
62.26000 1.493
62.28000 2.490
62.30000 2.306
62.32000 0.189
62.34000 -0.710
62.36000 -0.459
62.38000 -2.273
62.40000 1.697
62.42000 5.036
62.44000 3.020
62.46000 3.577
62.48000 2.895
62.50000 2.327
62.52000 1.732
62.54000 1.085
62.56000 -0.213
62.58000 -0.664
62.60000 4.062
62.62000 5.053
62.64000 2.505
62.66000 0.944
62.68000 6.705
62.70000 4.556
62.72000 4.154
62.74000 2.349
62.76000 3.212
62.78000 2.658
62.80000 -2.235
62.82000 0.291
62.84000 1.465
62.86000 0.035
62.88000 0.340
62.90000 -1.333
62.92000 0.289
62.94000 1.777
62.96000 0.779
62.98000 -2.267
63.00000 -1.114
63.02000 -0.311
63.04000 1.087
63.06000 1.117
63.08000 -0.056
63.10000 2.011
63.12000 1.976
63.14000 -0.863
63.16000 -1.065
63.18000 2.361
63.20000 1.826
63.22000 1.468
63.24000 -0.280
63.26000 3.379
63.28000 3.256
63.30000 -2.173
63.32000 -0.321
63.34000 0.221
63.36000 1.460
63.38000 -0.474
63.40000 -0.226
63.42000 0.248
63.44000 5.051
63.46000 4.069
63.48000 -0.492
63.50000 -0.832
63.52000 -0.662
63.54000 3.336
63.56000 3.398
63.58000 1.484
63.60000 0.621
63.62000 0.390
63.64000 -0.485
63.66000 0.324
63.68000 6.153
63.70000 2.465
63.72000 2.464
63.74000 3.373
63.76000 -1.171
63.78000 0.104
63.80000 0.852
63.82000 2.286
63.84000 1.022
63.86000 4.539
63.88000 1.932
63.90000 -0.504
63.92000 -2.262
63.94000 3.766
63.96000 3.763
63.98000 0.497
64.00000 1.668
64.02000 1.999
64.04000 0.967
64.06000 0.003
64.08000 0.969
64.10000 2.443
64.12000 1.713
64.14000 0.291
64.16000 2.082
64.18000 2.512
64.20000 2.042
64.22000 3.443
64.24000 1.642
64.26000 2.452
64.28000 0.087
64.30000 -0.323
64.32000 3.656
64.34000 1.206
64.36000 -1.009
64.38000 3.595
64.40000 4.050
64.42000 2.989
64.44000 -0.181
64.46000 0.476
64.48000 2.591
64.50000 1.018
64.52000 0.381
64.54000 0.267
64.56000 1.479
64.58000 1.036
64.60000 2.434
64.62000 2.102
64.64000 0.383
64.66000 -2.244
64.68000 2.367
64.70000 4.302
64.72000 2.608
64.74000 5.181
64.76000 3.566
64.78000 4.674
64.80000 2.703
64.82000 3.789
64.84000 5.101
64.86000 2.584
64.88000 3.011
64.90000 4.434
64.92000 5.231
64.94000 -0.283
64.96000 1.662
64.98000 3.899
65.00000 2.600
65.02000 0.294
65.04000 -2.235
65.06000 0.445
65.08000 3.047
65.10000 0.711
65.12000 1.299
65.14000 5.740
65.16000 6.310
65.18000 3.510
65.20000 2.257
65.22000 1.705
65.24000 6.011
65.26000 4.270
65.28000 2.906
65.30000 5.535
65.32000 0.505
65.34000 2.541
65.36000 3.296
65.38000 1.354
65.40000 2.511
65.42000 3.277
65.44000 2.283
65.46000 1.823
65.48000 3.019
65.50000 4.055
65.52000 3.350
65.54000 -0.972
65.56000 0.533
65.58000 2.279
65.60000 4.133
65.62000 3.500
65.64000 3.767
65.66000 2.723
65.68000 3.175
65.70000 2.123
65.72000 1.488
65.74000 1.237
65.76000 1.456
65.78000 2.924
65.80000 4.334
65.82000 2.446
65.84000 3.885
65.86000 4.568
65.88000 3.066
65.90000 2.184
65.92000 1.170
65.94000 1.274
65.96000 1.593
65.98000 3.550
66.00000 3.774
66.02000 4.798
66.04000 5.706
66.06000 6.895
66.08000 6.385
66.10000 5.501
66.12000 5.288
66.14000 4.610
66.16000 4.748
66.18000 6.341
66.20000 6.314
66.22000 7.349
66.24000 6.157
66.26000 6.347
66.28000 8.382
66.30000 9.612
66.32000 8.283
66.34000 8.300
66.36000 6.984
66.38000 5.864
66.40000 7.157
66.42000 6.859
66.44000 5.666
66.46000 7.859
66.48000 6.970
66.50000 9.105
66.52000 8.499
66.54000 7.371
66.56000 8.223
66.58000 5.707
66.60000 5.503
66.62000 7.258
66.64000 6.697
66.66000 5.767
66.68000 4.673
66.70000 4.409
66.72000 5.026
66.74000 8.390
66.76000 2.940
66.78000 1.024
66.80000 2.956
66.82000 7.385
66.84000 8.125
66.86000 5.477
66.88000 3.151
66.90000 1.185
66.92000 2.972
66.94000 1.769
66.96000 4.945
66.98000 5.806
67.00000 6.290
67.02000 4.223
67.04000 2.638
67.06000 3.110
67.08000 3.600
67.10000 2.276
67.12000 3.110
67.14000 3.558
67.16000 3.811
67.18000 2.053
67.20000 -0.418
67.22000 0.701
67.24000 -1.460
67.26000 1.387
67.28000 2.253
67.30000 1.498
67.32000 1.506
67.34000 1.128
67.36000 1.035
67.38000 2.855
67.40000 3.537
67.42000 -0.330
67.44000 -2.221
67.46000 1.116
67.48000 2.468
67.50000 -0.592
67.52000 -2.216
67.54000 0.471
67.56000 2.515
67.58000 0.532
67.60000 -0.817
67.62000 1.008
67.64000 1.833
67.66000 2.242
67.68000 -1.183
67.70000 0.046
67.72000 0.313
67.74000 -0.349
67.76000 -2.125
67.78000 0.163
67.80000 1.324
67.82000 0.724
67.84000 -0.243
67.86000 2.795
67.88000 0.712
67.90000 -0.801
67.92000 -0.430
67.94000 1.229
67.96000 0.484
67.98000 2.964
68.00000 1.812
68.02000 0.115
68.04000 0.671
68.06000 0.777
68.08000 2.936
68.10000 0.168
68.12000 -1.007
68.14000 0.119
68.16000 0.483
68.18000 0.882
68.20000 -0.045
68.22000 -2.160
68.24000 -1.468
68.26000 1.492
68.28000 -0.260
68.30000 -0.855
68.32000 2.559
68.34000 2.919
68.36000 1.871
68.38000 2.034
68.40000 1.876
68.42000 2.445
68.44000 1.703
68.46000 1.111
68.48000 0.149
68.50000 2.101
68.52000 1.354
68.54000 0.172
68.56000 1.484
68.58000 -0.398
68.60000 3.062
68.62000 1.689
68.64000 0.216
68.66000 1.873
68.68000 1.042
68.70000 1.752
68.72000 0.962
68.74000 3.153
68.76000 1.708
68.78000 -0.528
68.80000 -1.219
68.82000 -2.117
68.84000 -1.341
68.86000 -1.844
68.88000 -0.255
68.90000 -0.993
68.92000 -1.290
68.94000 -2.124
68.96000 -2.012
68.98000 1.522
69.00000 1.120
69.02000 -0.212
69.04000 -1.219
69.06000 2.392
69.08000 3.077
69.10000 1.972
69.12000 0.510
69.14000 1.506
69.16000 -2.116
69.18000 0.412
69.20000 2.101
69.22000 2.356
69.24000 3.379
69.26000 2.376
69.28000 1.616
69.30000 0.443
69.32000 1.625
69.34000 3.322
69.36000 1.178
69.38000 1.808
69.40000 1.623
69.42000 2.646
69.44000 0.318
69.46000 -0.603
69.48000 -0.531
69.50000 1.705
69.52000 2.168
69.54000 1.775
69.56000 1.840
69.58000 0.369
69.60000 0.467
69.62000 -0.166
69.64000 -0.435
69.66000 0.051
69.68000 1.988
69.70000 0.772
69.72000 -1.230
69.74000 -0.111
69.76000 -1.875
69.78000 0.976
69.80000 1.411
69.82000 2.832
69.84000 3.062
69.86000 2.244
69.88000 0.523
69.90000 -0.905
69.92000 -0.260
69.94000 -0.761
69.96000 -1.432
69.98000 1.617
70.00000 1.335
70.02000 -0.207
70.04000 0.887
70.06000 -0.332
70.08000 -1.076
70.10000 0.667
70.12000 0.798
70.14000 2.499
70.16000 1.080
70.18000 1.789
70.20000 1.804
70.22000 0.942
70.24000 0.989
70.26000 -1.274
70.28000 -0.162
70.30000 -0.212
70.32000 1.199
70.34000 3.122
70.36000 2.956
70.38000 1.744
70.40000 2.154
70.42000 0.708
70.44000 0.707
70.46000 0.829
70.48000 0.843
70.50000 1.731
70.52000 3.533
70.54000 4.061
70.56000 0.854
70.58000 1.490
70.60000 -2.046
70.62000 -0.619
70.64000 4.000
70.66000 4.438
70.68000 6.375
70.70000 1.303
70.72000 2.186
70.74000 3.554
70.76000 1.689
70.78000 3.291
70.80000 2.139
70.82000 2.936
70.84000 3.828
70.86000 1.976
70.88000 2.210
70.90000 4.174
70.92000 3.975
70.94000 3.524
70.96000 2.091
70.98000 1.954
71.00000 -0.792
71.02000 -0.940
71.04000 -2.030
71.06000 2.992
71.08000 4.054
71.10000 2.216
71.12000 3.159
71.14000 1.320
71.16000 -0.616
71.18000 1.383
71.20000 6.495
71.22000 5.307
71.24000 1.921
71.26000 2.555
71.28000 4.584
71.30000 3.945
71.32000 1.604
71.34000 2.270
71.36000 1.168
71.38000 -0.873
71.40000 0.960
71.42000 1.278
71.44000 2.469
71.46000 0.204
71.48000 4.172
71.50000 2.252
71.52000 0.970
71.54000 0.714
71.56000 0.277
71.58000 -1.227
71.60000 -2.026
71.62000 0.410
71.64000 2.741
71.66000 0.912
71.68000 -0.049
71.70000 1.957
71.72000 4.049
71.74000 3.262
71.76000 -0.397
71.78000 -1.928
71.80000 0.577
71.82000 0.022
71.84000 2.503
71.86000 4.472
71.88000 2.911
71.90000 2.856
71.92000 0.835
71.94000 0.326
71.96000 2.445
71.98000 5.056
72.00000 3.333
72.02000 2.254
72.04000 2.911
72.06000 -0.009
72.08000 0.619
72.10000 0.544
72.12000 -1.175
72.14000 -0.699
72.16000 0.164
72.18000 -0.694
72.20000 0.079
72.22000 -1.919
72.24000 -2.001
72.26000 2.770
72.28000 3.239
72.30000 2.641
72.32000 -1.218
72.34000 0.430
72.36000 2.998
72.38000 1.054
72.40000 -0.375
72.42000 0.501
72.44000 0.748
72.46000 -0.239
72.48000 2.106
72.50000 2.739
72.52000 -0.513
72.54000 0.711
72.56000 1.670
72.58000 -0.097
72.60000 1.694
72.62000 1.260
72.64000 1.010
72.66000 -0.648
72.68000 0.054
72.70000 3.334
72.72000 2.996
72.74000 1.656
72.76000 -1.694
72.78000 0.859
72.80000 -0.005
72.82000 1.290
72.84000 1.764
72.86000 1.968
72.88000 2.154
72.90000 2.377
72.92000 -1.992
72.94000 -1.646
72.96000 1.571
72.98000 1.487
73.00000 0.492
73.02000 -0.001
73.04000 0.957
73.06000 2.686
73.08000 2.737
73.10000 2.008
73.12000 5.272
73.14000 2.975
73.16000 0.448
73.18000 0.206
73.20000 0.522
73.22000 2.789
73.24000 1.126
73.26000 3.115
73.28000 3.157
73.30000 0.501
73.32000 2.776
73.34000 1.949
73.36000 3.604
73.38000 2.200
73.40000 2.199
73.42000 2.793
73.44000 1.046
73.46000 0.045
73.48000 1.164
73.50000 -0.026
73.52000 -1.004
73.54000 2.386
73.56000 3.966
73.58000 0.953
73.60000 -1.955
73.62000 2.280
73.64000 4.257
73.66000 3.103
73.68000 1.065
73.70000 -1.763
73.72000 -1.957
73.74000 -0.131
73.76000 1.801
73.78000 3.381
73.80000 2.935
73.82000 4.120
73.84000 1.700
73.86000 -1.877
73.88000 1.302
73.90000 2.549
73.92000 0.129
73.94000 1.245
73.96000 1.699
73.98000 2.037
74.00000 0.235
74.02000 0.072
74.04000 0.726
74.06000 1.175
74.08000 2.430
74.10000 4.650
74.12000 3.230
74.14000 2.817
74.16000 0.710
74.18000 2.174
74.20000 0.382
74.22000 1.275
74.24000 2.222
74.26000 1.172
74.28000 3.117
74.30000 2.102
74.32000 1.397
74.34000 5.124
74.36000 4.909
74.38000 2.470
74.40000 4.475
74.42000 2.046
74.44000 1.324
74.46000 1.097
74.48000 1.574
74.50000 2.997
74.52000 0.152
74.54000 4.044
74.56000 3.868
74.58000 5.187
74.60000 6.086
74.62000 3.818
74.64000 1.739
74.66000 1.644
74.68000 3.216
74.70000 2.852
74.72000 2.557
74.74000 0.385
74.76000 2.488
74.78000 3.747
74.80000 4.485
74.82000 1.783
74.84000 1.712
74.86000 2.672
74.88000 2.889
74.90000 4.176
74.92000 3.791
74.94000 3.254
74.96000 3.692
74.98000 1.714
75.00000 3.073
75.02000 2.062
75.04000 0.564
75.06000 -1.957
75.08000 -0.642
75.10000 2.803
75.12000 1.520
75.14000 -1.465
75.16000 2.495
75.18000 6.206
75.20000 2.982
75.22000 2.118
75.24000 1.075
75.26000 2.258
75.28000 2.619
75.30000 -0.656
75.32000 3.055
75.34000 2.364
75.36000 1.032
75.38000 3.113
75.40000 4.275
75.42000 0.430
75.44000 -1.189
75.46000 2.348
75.48000 1.420
75.50000 1.440
75.52000 3.066
75.54000 2.362
75.56000 0.380
75.58000 0.431
75.60000 1.682
75.62000 0.261
75.64000 -0.926
75.66000 1.141
75.68000 0.836
75.70000 4.948
75.72000 3.482
75.74000 0.394
75.76000 1.167
75.78000 2.798
75.80000 -0.052
75.82000 -0.754
75.84000 0.617
75.86000 0.612
75.88000 2.238
75.90000 3.502
75.92000 5.197
75.94000 0.933
75.96000 1.823
75.98000 0.780
76.00000 -0.848
76.02000 -0.707
76.04000 -0.424
76.06000 1.639
76.08000 -0.504
76.10000 1.138
76.12000 2.220
76.14000 1.765
76.16000 1.274
76.18000 1.632
76.20000 0.828
76.22000 0.094
76.24000 0.172
76.26000 -0.322
76.28000 -1.887
76.30000 1.264
76.32000 -0.179
76.34000 -0.242
76.36000 0.906
76.38000 0.963
76.40000 1.488
76.42000 4.331
76.44000 2.891
76.46000 1.563
76.48000 1.088
76.50000 -0.896
76.52000 -0.979
76.54000 -1.574
76.56000 0.713
76.58000 4.704
76.60000 1.515
76.62000 -1.858
76.64000 -0.177
76.66000 2.063
76.68000 2.461
76.70000 3.331
76.72000 1.802
76.74000 -1.822
76.76000 -2.039
76.78000 -0.002
76.80000 -1.226
76.82000 -0.393
76.84000 3.235
76.86000 2.339
76.88000 -0.438
76.90000 1.651
76.92000 0.850
76.94000 -0.571
76.96000 -1.020
76.98000 -2.036
77.00000 -1.535
77.02000 1.091
77.04000 0.385
77.06000 0.324
77.08000 1.505
77.10000 1.752
77.12000 0.163
77.14000 2.276
77.16000 1.124
77.18000 0.798
77.20000 1.736
77.22000 1.419
77.24000 2.639
77.26000 3.197
77.28000 3.405
77.30000 3.574
77.32000 0.077
77.34000 -0.954
77.36000 4.396
77.38000 4.666
77.40000 0.694
77.42000 0.408
77.44000 -1.660
77.46000 1.879
77.48000 3.398
77.50000 0.904
77.52000 0.824
77.54000 0.586
77.56000 -1.984
77.58000 -2.009
77.60000 -0.803
77.62000 -1.859
77.64000 0.214
77.66000 0.940
77.68000 1.606
77.70000 -1.300
77.72000 2.017
77.74000 3.799
77.76000 0.066
77.78000 0.647
77.80000 3.363
77.82000 1.350
77.84000 1.144
77.86000 2.293
77.88000 -2.032
77.90000 0.715
77.92000 0.901
77.94000 1.474
77.96000 0.925
77.98000 3.811
78.00000 1.970
78.02000 4.847
78.04000 3.636
78.06000 5.313
78.08000 3.101
78.10000 0.545
78.12000 -0.136
78.14000 -2.097
78.16000 -0.628
78.18000 0.146
78.20000 3.224
78.22000 4.292
78.24000 3.334
78.26000 1.494
78.28000 1.599
78.30000 1.124
78.32000 3.083
78.34000 1.158
78.36000 -0.934
78.38000 -0.796
78.40000 -0.857
78.42000 3.460
78.44000 5.935
78.46000 2.211
78.48000 1.094
78.50000 1.697
78.52000 2.631
78.54000 2.924
78.56000 0.617
78.58000 -0.674
78.60000 -1.701
78.62000 -2.165
78.64000 -0.415
78.66000 2.722
78.68000 3.990
78.70000 1.806
78.72000 3.154
78.74000 3.621
78.76000 3.045
78.78000 3.873
78.80000 2.988
78.82000 0.945
78.84000 2.973
78.86000 4.323
78.88000 5.757
78.90000 7.162
78.92000 5.290
78.94000 5.255
78.96000 4.657
78.98000 5.432
79.00000 3.249
79.02000 5.536
79.04000 3.575
79.06000 2.540
79.08000 2.385
79.10000 2.227
79.12000 5.021
79.14000 4.497
79.16000 4.138
79.18000 6.015
79.20000 5.576
79.22000 9.564
79.24000 9.330
79.26000 8.229
79.28000 8.065
79.30000 10.792
79.32000 10.786
79.34000 11.784
79.36000 10.155
79.38000 10.546
79.40000 9.595
79.42000 12.436
79.44000 10.205
79.46000 9.700
79.48000 11.736
79.50000 11.378
79.52000 14.002
79.54000 12.203
79.56000 15.993
79.58000 15.682
79.60000 14.933
79.62000 15.208
79.64000 16.041
79.66000 16.332
79.68000 14.857
79.70000 17.560
79.72000 22.947
79.74000 20.116
79.76000 21.095
79.78000 19.918
79.80000 19.251
79.82000 16.747
79.84000 14.800
79.86000 20.726
79.88000 21.877
79.90000 21.651
79.92000 21.178
79.94000 24.499
79.96000 20.606
79.98000 18.642
80.00000 21.733
80.02000 21.364
80.04000 21.092
80.06000 22.456
80.08000 23.079
80.10000 19.949
80.12000 19.097
80.14000 22.141
80.16000 20.932
80.18000 22.949
80.20000 19.657
80.22000 18.878
80.24000 17.118
80.26000 18.386
80.28000 23.577
80.30000 24.965
80.32000 21.772
80.34000 17.612
80.36000 13.196
80.38000 12.461
80.40000 13.880
80.42000 14.406
80.44000 12.990
80.46000 10.691
80.48000 11.006
80.50000 8.411
80.52000 12.068
80.54000 9.982
80.56000 10.911
80.58000 13.144
80.60000 11.009
80.62000 8.972
80.64000 8.474
80.66000 9.338
80.68000 6.825
80.70000 7.125
80.72000 6.547
80.74000 3.888
80.76000 6.768
80.78000 4.780
80.80000 2.468
80.82000 5.894
80.84000 6.230
80.86000 7.896
80.88000 3.114
80.90000 -0.447
80.92000 1.988
80.94000 3.916
80.96000 3.363
80.98000 4.542
81.00000 0.982
81.02000 2.411
81.04000 0.966
81.06000 -0.731
81.08000 1.676
81.10000 0.045
81.12000 -2.090
81.14000 -1.125
81.16000 -1.750
81.18000 1.420
81.20000 0.576
81.22000 0.318
81.24000 0.163
81.26000 -0.294
81.28000 1.856
81.30000 -0.347
81.32000 0.233
81.34000 -0.935
81.36000 0.054
81.38000 2.123
81.40000 -1.086
81.42000 0.121
81.44000 -2.246
81.46000 4.978
81.48000 1.238
81.50000 0.696
81.52000 -1.843
81.54000 -1.360
81.56000 -0.759
81.58000 0.048
81.60000 -2.001
81.62000 -1.626
81.64000 0.693
81.66000 1.635
81.68000 0.597
81.70000 -0.177
81.72000 4.048
81.74000 2.446
81.76000 1.675
81.78000 -1.149
81.80000 -1.633
81.82000 -2.259
81.84000 -1.549
81.86000 0.052
81.88000 -1.356
81.90000 -2.257
81.92000 3.680
81.94000 2.301
81.96000 2.565
81.98000 2.897
82.00000 3.233
82.02000 3.494
82.04000 2.850
82.06000 -0.790
82.08000 1.354
82.10000 0.541
82.12000 -1.158
82.14000 -1.361
82.16000 -1.048
82.18000 3.301
82.20000 8.693
82.22000 3.845
82.24000 2.678
82.26000 3.453
82.28000 1.493
82.30000 2.596
82.32000 1.558
82.34000 0.857
82.36000 2.185
82.38000 1.980
82.40000 1.067
82.42000 1.722
82.44000 3.725
82.46000 0.186
82.48000 3.038
82.50000 2.195
82.52000 1.572
82.54000 4.805
82.56000 1.785
82.58000 1.188
82.60000 3.085
82.62000 2.608
82.64000 4.608
82.66000 4.954
82.68000 2.260
82.70000 3.574
82.72000 3.759
82.74000 7.180
82.76000 7.968
82.78000 8.309
82.80000 1.625
82.82000 2.650
82.84000 5.378
82.86000 4.454
82.88000 6.084
82.90000 3.175
82.92000 6.317
82.94000 4.838
82.96000 5.662
82.98000 3.690
83.00000 6.887
83.02000 9.634
83.04000 11.166
83.06000 7.833
83.08000 7.616
83.10000 13.092
83.12000 14.177
83.14000 9.694
83.16000 14.096
83.18000 15.831
83.20000 12.423
83.22000 15.850
83.24000 12.876
83.26000 15.791
83.28000 20.116
83.30000 19.358
83.32000 18.483
83.34000 17.962
83.36000 17.734
83.38000 18.318
83.40000 22.320
83.42000 24.372
83.44000 27.620
83.46000 30.467
83.48000 30.916
83.50000 28.353
83.52000 26.703
83.54000 29.905
83.56000 34.262
83.58000 35.530
83.60000 34.563
83.62000 35.018
83.64000 34.973
83.66000 33.679
83.68000 33.211
83.70000 35.181
83.72000 38.309
83.74000 35.479
83.76000 33.083
83.78000 35.312
83.80000 39.988
83.82000 41.059
83.84000 42.603
83.86000 42.586
83.88000 41.669
83.90000 45.023
83.92000 46.242
83.94000 39.454
83.96000 36.533
83.98000 39.357
84.00000 40.470
84.02000 41.307
84.04000 42.146
84.06000 40.660
84.08000 42.726
84.10000 40.665
84.12000 36.754
84.14000 39.465
84.16000 37.527
84.18000 37.934
84.20000 35.060
84.22000 31.823
84.24000 29.386
84.26000 26.628
84.28000 27.789
84.30000 27.014
84.32000 26.936
84.34000 30.586
84.36000 26.950
84.38000 24.845
84.40000 23.482
84.42000 20.898
84.44000 21.671
84.46000 21.422
84.48000 17.223
84.50000 16.861
84.52000 16.459
84.54000 18.093
84.56000 17.415
84.58000 15.885
84.60000 15.191
84.62000 12.701
84.64000 11.952
84.66000 11.838
84.68000 14.382
84.70000 15.858
84.72000 13.301
84.74000 6.416
84.76000 8.325
84.78000 6.392
84.80000 3.413
84.82000 2.366
84.84000 6.302
84.86000 6.469
84.88000 6.582
84.90000 6.214
84.92000 3.729
84.94000 3.867
84.96000 2.521
84.98000 1.710
85.00000 3.429
85.02000 4.020
85.04000 2.788
85.06000 3.252
85.08000 -0.456
85.10000 -0.785
85.12000 -1.940
85.14000 3.203
85.16000 0.730
85.18000 0.929
85.20000 2.274
85.22000 2.605
85.24000 0.506
85.26000 0.059
85.28000 2.447
85.30000 3.876
85.32000 1.033
85.34000 -2.077
85.36000 -0.599
85.38000 -1.172
85.40000 -0.196
85.42000 0.601
85.44000 -0.744
85.46000 -0.868
85.48000 1.035
85.50000 -0.214
85.52000 -1.378
85.54000 3.161
85.56000 0.075
85.58000 1.487
85.60000 0.513
85.62000 2.717
85.64000 2.392
85.66000 -0.067
85.68000 -1.544
85.70000 -1.408
85.72000 1.242
85.74000 0.090
85.76000 -2.022
85.78000 0.657
85.80000 1.813
85.82000 1.584
85.84000 0.698
85.86000 -0.784
85.88000 -2.004
85.90000 -0.657
85.92000 -0.201
85.94000 -0.752
85.96000 -0.096
85.98000 1.273
86.00000 -0.804
86.02000 1.266
86.04000 0.397
86.06000 0.640
86.08000 1.923
86.10000 4.277
86.12000 3.253
86.14000 0.402
86.16000 1.007
86.18000 0.779
86.20000 0.190
86.22000 1.352
86.24000 1.578
86.26000 -0.137
86.28000 -0.120
86.30000 0.093
86.32000 0.159
86.34000 0.163
86.36000 -0.184
86.38000 2.443
86.40000 0.304
86.42000 0.393
86.44000 1.185
86.46000 -0.066
86.48000 1.761
86.50000 3.383
86.52000 1.934
86.54000 1.472
86.56000 3.362
86.58000 3.511
86.60000 5.142
86.62000 3.718
86.64000 2.615
86.66000 1.959
86.68000 2.754
86.70000 1.844
86.72000 -1.904
86.74000 -1.229
86.76000 -0.354
86.78000 1.587
86.80000 3.189
86.82000 3.816
86.84000 4.529
86.86000 0.798
86.88000 2.416
86.90000 2.921
86.92000 3.387
86.94000 4.428
86.96000 4.050
86.98000 1.586
87.00000 0.860
87.02000 1.610
87.04000 2.041
87.06000 -0.220
87.08000 2.548
87.10000 1.871
87.12000 4.650
87.14000 5.373
87.16000 4.280
87.18000 2.726
87.20000 3.721
87.22000 3.774
87.24000 3.347
87.26000 0.433
87.28000 -1.845
87.30000 1.936
87.32000 1.950
87.34000 0.015
87.36000 2.227
87.38000 5.117
87.40000 3.970
87.42000 5.517
87.44000 2.445
87.46000 -0.040
87.48000 0.390
87.50000 2.010
87.52000 6.060
87.54000 6.334
87.56000 3.099
87.58000 2.330
87.60000 0.262
87.62000 1.949
87.64000 3.283
87.66000 4.095
87.68000 3.651
87.70000 3.347
87.72000 4.992
87.74000 4.452
87.76000 1.654
87.78000 0.749
87.80000 1.852
87.82000 3.621
87.84000 1.457
87.86000 4.103
87.88000 3.643
87.90000 3.125
87.92000 1.404
87.94000 -1.208
87.96000 1.107
87.98000 1.372
88.00000 1.854
88.02000 1.123
88.04000 1.175
88.06000 1.531
88.08000 2.618
88.10000 3.522
88.12000 3.555
88.14000 1.922
88.16000 0.388
88.18000 -0.298
88.20000 2.551
88.22000 0.679
88.24000 0.680
88.26000 -0.137
88.28000 -1.441
88.30000 -0.891
88.32000 1.826
88.34000 4.210
88.36000 3.881
88.38000 2.726
88.40000 4.016
88.42000 3.095
88.44000 3.616
88.46000 2.604
88.48000 0.922
88.50000 1.186
88.52000 1.164
88.54000 2.729
88.56000 2.004
88.58000 2.757
88.60000 3.911
88.62000 3.558
88.64000 0.322
88.66000 0.819
88.68000 -1.852
88.70000 0.887
88.72000 5.033
88.74000 5.665
88.76000 3.343
88.78000 2.737
88.80000 1.003
88.82000 0.257
88.84000 2.948
88.86000 -1.737
88.88000 1.628
88.90000 2.511
88.92000 -0.896
88.94000 -0.556
88.96000 1.638
88.98000 0.521
89.00000 0.085
89.02000 1.255
89.04000 2.897
89.06000 -0.030
89.08000 1.408
89.10000 4.503
89.12000 3.116
89.14000 2.476
89.16000 2.160
89.18000 2.559
89.20000 2.785
89.22000 3.411
89.24000 1.699
89.26000 -0.110
89.28000 -0.686
89.30000 2.441
89.32000 1.046
89.34000 0.011
89.36000 1.919
89.38000 2.302
89.40000 1.871
89.42000 -0.315
89.44000 -1.834
89.46000 -0.712
89.48000 0.189
89.50000 -0.078
89.52000 3.511
89.54000 4.770
89.56000 3.408
89.58000 1.797
89.60000 3.005
89.62000 -0.965
89.64000 0.610
89.66000 5.283
89.68000 4.171
89.70000 1.758
89.72000 1.145
89.74000 1.530
89.76000 2.270
89.78000 -1.268
89.80000 1.970
89.82000 1.262
89.84000 0.166
89.86000 0.710
89.88000 2.396
89.90000 2.697
89.92000 2.129
89.94000 1.295
89.96000 2.746
89.98000 3.398
90.00000 3.461
90.02000 3.014
90.04000 0.891
90.06000 1.876
90.08000 4.233
90.10000 1.244
90.12000 1.905
90.14000 3.559
90.16000 3.745
90.18000 2.784
90.20000 1.874
90.22000 5.592
90.24000 2.537
90.26000 1.625
90.28000 5.260
90.30000 3.102
90.32000 -0.256
90.34000 1.072
90.36000 0.435
90.38000 1.622
90.40000 4.238
90.42000 1.371
90.44000 0.424
90.46000 6.132
90.48000 6.911
90.50000 4.789
90.52000 0.120
90.54000 -0.452
90.56000 2.550
90.58000 6.253
90.60000 2.174
90.62000 0.757
90.64000 1.788
90.66000 2.979
90.68000 1.018
90.70000 3.617
90.72000 3.494
90.74000 3.299
90.76000 2.432
90.78000 2.969
90.80000 2.511
90.82000 2.393
90.84000 1.457
90.86000 5.598
90.88000 3.659
90.90000 2.581
90.92000 -1.807
90.94000 2.558
90.96000 4.524
90.98000 4.458
91.00000 2.397
91.02000 1.542
91.04000 1.163
91.06000 3.391
91.08000 3.076
91.10000 4.213
91.12000 3.784
91.14000 0.329
91.16000 0.348
91.18000 0.645
91.20000 1.481
91.22000 3.055
91.24000 1.784
91.26000 1.469
91.28000 2.542
91.30000 2.603
91.32000 0.166
91.34000 2.413
91.36000 2.074
91.38000 3.494
91.40000 4.813
91.42000 3.564
91.44000 4.825
91.46000 0.533
91.48000 1.053
91.50000 2.696
91.52000 3.753
91.54000 2.945
91.56000 3.381
91.58000 4.224
91.60000 5.272
91.62000 4.297
91.64000 3.555
91.66000 2.340
91.68000 0.621
91.70000 -0.527
91.72000 0.167
91.74000 1.442
91.76000 6.542
91.78000 3.660
91.80000 -0.271
91.82000 2.112
91.84000 3.541
91.86000 2.707
91.88000 -0.221
91.90000 0.699
91.92000 1.088
91.94000 2.228
91.96000 -0.204
91.98000 0.647
92.00000 1.225
92.02000 4.039
92.04000 3.119
92.06000 3.030
92.08000 2.668
92.10000 2.107
92.12000 3.239
92.14000 -1.826
92.16000 -0.025
92.18000 1.091
92.20000 2.666
92.22000 1.372
92.24000 -1.577
92.26000 -1.519
92.28000 -0.343
92.30000 2.138
92.32000 1.187
92.34000 2.018
92.36000 2.595
92.38000 3.644
92.40000 1.404
92.42000 -1.517
92.44000 0.354
92.46000 -1.328
92.48000 2.719
92.50000 2.341
92.52000 0.984
92.54000 2.999
92.56000 2.465
92.58000 2.124
92.60000 0.899
92.62000 -0.029
92.64000 2.155
92.66000 2.075
92.68000 2.535
92.70000 1.602
92.72000 4.374
92.74000 4.803
92.76000 1.097
92.78000 1.470
92.80000 0.653
92.82000 3.679
92.84000 6.756
92.86000 5.417
92.88000 6.576
92.90000 5.233
92.92000 1.128
92.94000 0.886
92.96000 4.914
92.98000 6.123
93.00000 3.609
93.02000 3.528
93.04000 2.668
93.06000 2.365
93.08000 -0.519
93.10000 0.201
93.12000 3.720
93.14000 7.008
93.16000 4.881
93.18000 3.636
93.20000 4.681
93.22000 4.584
93.24000 2.955
93.26000 0.758
93.28000 0.183
93.30000 0.898
93.32000 1.779
93.34000 1.101
93.36000 -0.524
93.38000 0.557
93.40000 4.608
93.42000 1.330
93.44000 3.947
93.46000 3.449
93.48000 0.099
93.50000 -0.017
93.52000 1.954
93.54000 2.862
93.56000 3.279
93.58000 4.527
93.60000 5.688
93.62000 5.754
93.64000 2.018
93.66000 -0.955
93.68000 0.843
93.70000 3.189
93.72000 4.496
93.74000 3.379
93.76000 3.780
93.78000 4.119
93.80000 5.396
93.82000 7.282
93.84000 6.165
93.86000 -1.817
93.88000 1.151
93.90000 2.783
93.92000 0.458
93.94000 2.937
93.96000 6.078
93.98000 4.749
94.00000 6.623
94.02000 3.573
94.04000 1.988
94.06000 3.289
94.08000 6.676
94.10000 4.737
94.12000 4.513
94.14000 5.688
94.16000 5.596
94.18000 3.606
94.20000 3.777
94.22000 2.310
94.24000 2.035
94.26000 0.247
94.28000 1.494
94.30000 0.642
94.32000 2.735
94.34000 2.880
94.36000 3.176
94.38000 0.758
94.40000 0.493
94.42000 1.105
94.44000 4.770
94.46000 6.801
94.48000 3.649
94.50000 1.813
94.52000 3.901
94.54000 4.137
94.56000 1.254
94.58000 2.593
94.60000 5.395
94.62000 3.496
94.64000 3.602
94.66000 2.639
94.68000 1.508
94.70000 5.044
94.72000 6.512
94.74000 1.190
94.76000 -1.845
94.78000 1.573
94.80000 0.513
94.82000 0.547
94.84000 3.507
94.86000 2.349
94.88000 -0.560
94.90000 0.721
94.92000 0.299
94.94000 1.110
94.96000 2.978
94.98000 4.622
95.00000 3.555
95.02000 5.950
95.04000 6.026
95.06000 0.413
95.08000 -1.866
95.10000 -1.125
95.12000 3.125
95.14000 6.507
95.16000 2.340
95.18000 1.606
95.20000 0.428
95.22000 -0.636
95.24000 0.409
95.26000 4.661
95.28000 7.124
95.30000 4.368
95.32000 0.312
95.34000 0.653
95.36000 0.348
95.38000 -1.780
95.40000 0.533
95.42000 5.907
95.44000 3.539
95.46000 -0.789
95.48000 1.937
95.50000 -0.722
95.52000 -0.027
95.54000 1.451
95.56000 3.559
95.58000 4.442
95.60000 3.801
95.62000 0.889
95.64000 5.666
95.66000 1.845
95.68000 2.452
95.70000 -1.021
95.72000 0.017
95.74000 2.028
95.76000 2.277
95.78000 3.169
95.80000 0.857
95.82000 3.179
95.84000 6.229
95.86000 5.125
95.88000 5.502
95.90000 2.840
95.92000 -1.391
95.94000 -0.148
95.96000 0.201
95.98000 3.062
96.00000 1.554
96.02000 1.368
96.04000 -1.023
96.06000 -1.899
96.08000 0.523
96.10000 3.912
96.12000 4.027
96.14000 2.439
96.16000 -1.757
96.18000 0.282
96.20000 0.325
96.22000 3.340
96.24000 2.566
96.26000 2.077
96.28000 0.648
96.30000 -0.829
96.32000 -1.177
96.34000 2.487
96.36000 2.656
96.38000 1.248
96.40000 4.751
96.42000 2.733
96.44000 2.575
96.46000 1.375
96.48000 1.248
96.50000 -0.105
96.52000 1.057
96.54000 0.705
96.56000 4.186
96.58000 5.190
96.60000 -0.364
96.62000 0.590
96.64000 2.131
96.66000 4.142
96.68000 2.677
96.70000 1.439
96.72000 1.305
96.74000 1.189
96.76000 2.262
96.78000 -0.077
96.80000 -1.883
96.82000 1.094
96.84000 -1.881
96.86000 -0.237
96.88000 1.224
96.90000 1.329
96.92000 4.103
96.94000 6.218
96.96000 6.875
96.98000 4.333
97.00000 0.942
97.02000 0.738
97.04000 -1.186
97.06000 0.660
97.08000 1.479
97.10000 2.444
97.12000 -0.314
97.14000 2.212
97.16000 2.855
97.18000 -0.049
97.20000 0.790
97.22000 2.216
97.24000 2.314
97.26000 2.588
97.28000 3.345
97.30000 4.211
97.32000 0.643
97.34000 2.884
97.36000 6.331
97.38000 5.104
97.40000 1.737
97.42000 -0.083
97.44000 0.657
97.46000 3.881
97.48000 5.527
97.50000 6.507
97.52000 7.271
97.54000 7.779
97.56000 2.110
97.58000 1.097
97.60000 -0.092
97.62000 1.660
97.64000 6.928
97.66000 7.652
97.68000 3.287
97.70000 4.651
97.72000 6.870
97.74000 6.130
97.76000 5.139
97.78000 6.351
97.80000 4.505
97.82000 -0.072
97.84000 3.515
97.86000 8.142
97.88000 6.900
97.90000 4.488
97.92000 2.762
97.94000 4.024
97.96000 8.764
97.98000 8.280
98.00000 6.998
98.02000 5.365
98.04000 3.528
98.06000 6.189
98.08000 4.825
98.10000 -1.511
98.12000 -1.783
98.14000 6.300
98.16000 10.124
98.18000 7.183
98.20000 3.921
98.22000 5.404
98.24000 1.224
98.26000 4.650
98.28000 3.957
98.30000 2.142
98.32000 6.806
98.34000 3.468
98.36000 1.039
98.38000 1.935
98.40000 1.847
98.42000 0.225
98.44000 4.682
98.46000 9.553
98.48000 13.418
98.50000 5.436
98.52000 6.494
98.54000 4.495
98.56000 7.514
98.58000 4.896
98.60000 4.737
98.62000 -0.060
98.64000 2.064
98.66000 2.763
98.68000 6.912
98.70000 2.057
98.72000 5.455
98.74000 8.289
98.76000 4.410
98.78000 5.416
98.80000 5.177
98.82000 8.886
98.84000 2.036
98.86000 0.309
98.88000 -1.811
98.90000 -1.054
98.92000 2.794
98.94000 2.991
98.96000 6.890
98.98000 4.402
99.00000 3.745
99.02000 3.534
99.04000 0.524
99.06000 2.227
99.08000 2.444
99.10000 2.659
99.12000 5.292
99.14000 5.407
99.16000 4.766
99.18000 7.876
99.20000 9.335
99.22000 7.545
99.24000 3.005
99.26000 3.149
99.28000 3.960
99.30000 6.896
99.32000 3.589
99.34000 2.500
99.36000 2.016
99.38000 3.203
99.40000 -0.033
99.42000 -1.848
99.44000 4.330
99.46000 7.312
99.48000 3.271
99.50000 -1.532
99.52000 1.697
99.54000 5.901
99.56000 6.181
99.58000 5.973
99.60000 0.670
99.62000 3.002
99.64000 8.009
99.66000 6.216
99.68000 9.432
99.70000 1.889
99.72000 3.553
99.74000 7.550
99.76000 9.529
99.78000 1.903
99.80000 -1.879
99.82000 2.740
99.84000 0.098
99.86000 3.184
99.88000 7.235
99.90000 1.493
99.92000 5.167
99.94000 5.638
99.96000 8.154
99.98000 0.000
