'Id: "0011388" Comment: "Integrate frame 0011388_Au-Ir-Rh_Rh-rich_XRD-Mapping-264-0000.gfrmwith cursor Wedge Cursor #5" Operator: "B?rgel" Anode: "Cu" Wavelength: "1.5406" Scantype: "2Theta (TwoTheta)" TimePerStep: "1" X: "-22.5" Y: "22.5" Z: "5.95" 
10.00000 0.000
10.02000 -4.545
10.04000 5.349
10.06000 1.259
10.08000 16.679
10.10000 6.712
10.12000 24.889
10.14000 31.290
10.16000 25.395
10.18000 2.125
10.20000 -4.327
10.22000 -2.405
10.24000 2.992
10.26000 14.209
10.28000 27.456
10.30000 19.870
10.32000 3.332
10.34000 2.489
10.36000 17.828
10.38000 28.188
10.40000 34.185
10.42000 25.363
10.44000 13.192
10.46000 17.901
10.48000 9.810
10.50000 6.979
10.52000 16.831
10.54000 1.361
10.56000 15.123
10.58000 29.553
10.60000 25.940
10.62000 28.335
10.64000 25.867
10.66000 17.936
10.68000 20.030
10.70000 22.446
10.72000 11.733
10.74000 9.192
10.76000 24.522
10.78000 32.357
10.80000 23.558
10.82000 38.649
10.84000 27.766
10.86000 27.039
10.88000 1.063
10.90000 21.393
10.92000 19.871
10.94000 9.523
10.96000 22.004
10.98000 30.256
11.00000 24.109
11.02000 22.561
11.04000 14.738
11.06000 14.515
11.08000 15.417
11.10000 31.502
11.12000 22.754
11.14000 5.474
11.16000 3.193
11.18000 13.549
11.20000 13.589
11.22000 34.186
11.24000 36.373
11.26000 33.661
11.28000 29.088
11.30000 16.122
11.32000 12.607
11.34000 20.588
11.36000 4.069
11.38000 3.140
11.40000 8.278
11.42000 13.219
11.44000 12.556
11.46000 10.921
11.48000 23.278
11.50000 20.576
11.52000 30.530
11.54000 26.234
11.56000 13.641
11.58000 15.707
11.60000 13.790
11.62000 10.754
11.64000 22.769
11.66000 27.089
11.68000 13.784
11.70000 9.741
11.72000 10.751
11.74000 1.692
11.76000 4.306
11.78000 3.831
11.80000 4.814
11.82000 11.866
11.84000 14.872
11.86000 15.316
11.88000 15.019
11.90000 7.289
11.92000 15.531
11.94000 24.484
11.96000 28.115
11.98000 17.452
12.00000 6.211
12.02000 0.720
12.04000 7.602
12.06000 15.696
12.08000 16.308
12.10000 14.856
12.12000 9.286
12.14000 10.251
12.16000 -0.218
12.18000 -4.471
12.20000 7.632
12.22000 6.038
12.24000 12.126
12.26000 21.071
12.28000 8.166
12.30000 10.676
12.32000 16.966
12.34000 21.622
12.36000 7.705
12.38000 13.788
12.40000 10.150
12.42000 4.342
12.44000 19.003
12.46000 21.211
12.48000 21.450
12.50000 20.025
12.52000 14.933
12.54000 10.487
12.56000 15.358
12.58000 16.591
12.60000 17.901
12.62000 14.513
12.64000 13.743
12.66000 23.347
12.68000 13.915
12.70000 2.096
12.72000 7.892
12.74000 10.997
12.76000 8.309
12.78000 16.382
12.80000 25.282
12.82000 14.762
12.84000 10.381
12.86000 2.237
12.88000 5.398
12.90000 10.415
12.92000 10.933
12.94000 2.590
12.96000 7.265
12.98000 23.281
13.00000 19.616
13.02000 15.033
13.04000 9.884
13.06000 14.987
13.08000 9.548
13.10000 6.577
13.12000 -4.491
13.14000 5.167
13.16000 11.265
13.18000 18.553
13.20000 19.741
13.22000 22.755
13.24000 7.560
13.26000 8.361
13.28000 10.801
13.30000 17.288
13.32000 11.968
13.34000 5.097
13.36000 11.742
13.38000 6.269
13.40000 14.606
13.42000 19.359
13.44000 16.929
13.46000 14.630
13.48000 11.790
13.50000 7.509
13.52000 12.442
13.54000 18.199
13.56000 10.060
13.58000 2.043
13.60000 6.015
13.62000 11.586
13.64000 7.993
13.66000 6.989
13.68000 9.270
13.70000 12.682
13.72000 12.399
13.74000 21.447
13.76000 15.365
13.78000 10.371
13.80000 8.222
13.82000 11.697
13.84000 5.430
13.86000 7.610
13.88000 19.660
13.90000 22.323
13.92000 16.239
13.94000 15.111
13.96000 8.798
13.98000 4.476
14.00000 13.090
14.02000 -1.662
14.04000 -4.495
14.06000 -2.531
14.08000 14.110
14.10000 16.488
14.12000 12.219
14.14000 13.035
14.16000 3.224
14.18000 6.744
14.20000 11.481
14.22000 17.440
14.24000 12.928
14.26000 9.140
14.28000 14.804
14.30000 13.304
14.32000 10.835
14.34000 10.688
14.36000 11.635
14.38000 1.270
14.40000 -0.907
14.42000 7.170
14.44000 14.468
14.46000 16.129
14.48000 10.288
14.50000 5.558
14.52000 2.421
14.54000 6.532
14.56000 12.458
14.58000 14.869
14.60000 14.452
14.62000 9.986
14.64000 16.070
14.66000 22.507
14.68000 16.481
14.70000 17.926
14.72000 18.675
14.74000 9.929
14.76000 11.775
14.78000 3.539
14.80000 3.936
14.82000 8.953
14.84000 17.238
14.86000 14.881
14.88000 6.413
14.90000 6.629
14.92000 2.670
14.94000 9.840
14.96000 13.475
14.98000 8.742
15.00000 10.219
15.02000 14.815
15.04000 12.927
15.06000 13.608
15.08000 16.149
15.10000 6.888
15.12000 6.665
15.14000 7.762
15.16000 1.884
15.18000 2.731
15.20000 8.007
15.22000 3.833
15.24000 0.751
15.26000 8.351
15.28000 13.504
15.30000 8.009
15.32000 7.138
15.34000 4.281
15.36000 5.031
15.38000 5.531
15.40000 3.089
15.42000 5.991
15.44000 -4.444
15.46000 0.783
15.48000 8.479
15.50000 6.946
15.52000 0.380
15.54000 2.643
15.56000 16.052
15.58000 14.079
15.60000 8.791
15.62000 5.389
15.64000 5.548
15.66000 7.705
15.68000 17.254
15.70000 16.057
15.72000 8.412
15.74000 10.057
15.76000 9.145
15.78000 12.526
15.80000 7.522
15.82000 4.473
15.84000 0.818
15.86000 2.291
15.88000 2.389
15.90000 3.198
15.92000 9.895
15.94000 9.511
15.96000 3.409
15.98000 5.910
16.00000 11.655
16.02000 5.149
16.04000 2.416
16.06000 4.416
16.08000 9.141
16.10000 3.894
16.12000 3.614
16.14000 8.711
16.16000 9.349
16.18000 5.828
16.20000 4.852
16.22000 13.097
16.24000 13.249
16.26000 10.250
16.28000 14.143
16.30000 -0.131
16.32000 4.771
16.34000 8.136
16.36000 8.976
16.38000 7.645
16.40000 1.908
16.42000 6.599
16.44000 0.618
16.46000 3.220
16.48000 11.495
16.50000 10.642
16.52000 4.171
16.54000 3.100
16.56000 -0.687
16.58000 11.308
16.60000 6.928
16.62000 3.316
16.64000 4.546
16.66000 8.269
16.68000 10.705
16.70000 7.972
16.72000 2.862
16.74000 12.780
16.76000 14.663
16.78000 10.183
16.80000 9.696
16.82000 3.931
16.84000 3.405
16.86000 6.314
16.88000 8.614
16.90000 7.358
16.92000 4.546
16.94000 -3.121
16.96000 -1.527
16.98000 9.217
17.00000 4.418
17.02000 2.730
17.04000 2.402
17.06000 10.262
17.08000 8.829
17.10000 0.962
17.12000 4.309
17.14000 7.937
17.16000 13.987
17.18000 9.329
17.20000 7.914
17.22000 10.694
17.24000 10.289
17.26000 14.319
17.28000 9.926
17.30000 3.903
17.32000 -2.246
17.34000 7.001
17.36000 5.674
17.38000 8.065
17.40000 8.146
17.42000 8.232
17.44000 4.545
17.46000 -2.005
17.48000 6.454
17.50000 7.072
17.52000 3.192
17.54000 7.288
17.56000 7.365
17.58000 8.483
17.60000 7.122
17.62000 7.753
17.64000 11.822
17.66000 2.870
17.68000 8.034
17.70000 -0.385
17.72000 -1.236
17.74000 3.270
17.76000 -0.417
17.78000 8.616
17.80000 4.325
17.82000 4.362
17.84000 12.391
17.86000 8.587
17.88000 6.211
17.90000 6.411
17.92000 4.613
17.94000 0.015
17.96000 3.225
17.98000 10.661
18.00000 5.751
18.02000 0.867
18.04000 3.100
18.06000 6.246
18.08000 -4.332
18.10000 5.641
18.12000 9.835
18.14000 8.257
18.16000 1.335
18.18000 3.487
18.20000 2.646
18.22000 6.536
18.24000 7.755
18.26000 3.173
18.28000 4.059
18.30000 3.157
18.32000 9.136
18.34000 7.998
18.36000 9.617
18.38000 2.748
18.40000 -1.457
18.42000 10.065
18.44000 15.031
18.46000 2.298
18.48000 -4.318
18.50000 -1.107
18.52000 0.862
18.54000 11.489
18.56000 1.995
18.58000 -1.725
18.60000 -2.677
18.62000 -2.090
18.64000 3.249
18.66000 1.659
18.68000 10.900
18.70000 12.337
18.72000 8.238
18.74000 6.560
18.76000 6.034
18.78000 5.832
18.80000 7.531
18.82000 11.741
18.84000 12.442
18.86000 3.017
18.88000 -0.244
18.90000 2.537
18.92000 4.020
18.94000 4.139
18.96000 4.597
18.98000 4.863
19.00000 7.279
19.02000 0.837
19.04000 -0.234
19.06000 6.606
19.08000 11.240
19.10000 7.643
19.12000 -4.284
19.14000 2.480
19.16000 7.666
19.18000 4.262
19.20000 11.637
19.22000 8.909
19.24000 8.760
19.26000 3.749
19.28000 1.559
19.30000 -1.455
19.32000 -1.586
19.34000 4.681
19.36000 6.096
19.38000 -0.234
19.40000 -2.805
19.42000 -3.833
19.44000 0.496
19.46000 1.223
19.48000 4.238
19.50000 6.588
19.52000 10.551
19.54000 9.989
19.56000 10.002
19.58000 3.328
19.60000 4.852
19.62000 4.916
19.64000 9.652
19.66000 3.902
19.68000 8.550
19.70000 3.246
19.72000 5.820
19.74000 4.450
19.76000 2.598
19.78000 1.518
19.80000 2.794
19.82000 2.676
19.84000 2.907
19.86000 4.184
19.88000 3.448
19.90000 3.567
19.92000 1.737
19.94000 3.633
19.96000 5.233
19.98000 7.929
20.00000 9.122
20.02000 8.016
20.04000 5.096
20.06000 7.003
20.08000 6.121
20.10000 9.154
20.12000 5.843
20.14000 -0.093
20.16000 -2.553
20.18000 5.809
20.20000 2.247
20.22000 -2.272
20.24000 2.323
20.26000 4.218
20.28000 0.757
20.30000 4.259
20.32000 3.814
20.34000 4.555
20.36000 1.551
20.38000 -1.429
20.40000 6.901
20.42000 9.229
20.44000 1.841
20.46000 5.314
20.48000 5.723
20.50000 4.660
20.52000 -0.283
20.54000 1.420
20.56000 2.498
20.58000 6.863
20.60000 2.109
20.62000 0.740
20.64000 7.244
20.66000 8.639
20.68000 6.998
20.70000 9.204
20.72000 0.775
20.74000 -4.191
20.76000 4.854
20.78000 7.435
20.80000 5.223
20.82000 5.504
20.84000 3.643
20.86000 4.931
20.88000 -1.107
20.90000 2.614
20.92000 1.551
20.94000 4.739
20.96000 6.883
20.98000 4.409
21.00000 1.926
21.02000 3.591
21.04000 2.162
21.06000 -4.182
21.08000 5.931
21.10000 15.704
21.12000 10.434
21.14000 2.098
21.16000 4.374
21.18000 6.553
21.20000 1.428
21.22000 2.233
21.24000 5.757
21.26000 11.517
21.28000 9.492
21.30000 3.480
21.32000 -0.079
21.34000 0.570
21.36000 6.455
21.38000 1.416
21.40000 1.843
21.42000 2.520
21.44000 -1.396
21.46000 3.951
21.48000 7.673
21.50000 4.273
21.52000 4.304
21.54000 8.760
21.56000 6.879
21.58000 7.020
21.60000 -2.539
21.62000 -4.164
21.64000 0.659
21.66000 8.111
21.68000 10.067
21.70000 9.735
21.72000 7.919
21.74000 5.818
21.76000 0.085
21.78000 5.096
21.80000 2.915
21.82000 8.762
21.84000 9.296
21.86000 3.198
21.88000 0.561
21.90000 0.833
21.92000 0.107
21.94000 1.949
21.96000 2.044
21.98000 1.459
22.00000 -1.061
22.02000 9.387
22.04000 6.072
22.06000 -0.390
22.08000 0.942
22.10000 1.997
22.12000 3.950
22.14000 5.267
22.16000 9.426
22.18000 6.481
22.20000 0.497
22.22000 -0.052
22.24000 2.906
22.26000 3.266
22.28000 1.580
22.30000 7.953
22.32000 5.142
22.34000 5.236
22.36000 3.746
22.38000 6.275
22.40000 7.177
22.42000 7.587
22.44000 7.168
22.46000 5.165
22.48000 3.658
22.50000 -4.108
22.52000 -1.302
22.54000 6.034
22.56000 8.818
22.58000 6.714
22.60000 6.697
22.62000 5.285
22.64000 6.549
22.66000 4.907
22.68000 2.881
22.70000 -0.226
22.72000 0.670
22.74000 3.335
22.76000 1.497
22.78000 3.476
22.80000 5.193
22.82000 3.427
22.84000 -0.164
22.86000 4.691
22.88000 2.316
22.90000 -0.042
22.92000 6.370
22.94000 7.490
22.96000 4.240
22.98000 8.083
23.00000 10.369
23.02000 0.781
23.04000 3.595
23.06000 4.205
23.08000 4.452
23.10000 1.542
23.12000 -1.094
23.14000 1.719
23.16000 2.546
23.18000 4.606
23.20000 2.320
23.22000 -0.624
23.24000 -4.077
23.26000 0.198
23.28000 -0.837
23.30000 -2.027
23.32000 -0.969
23.34000 0.028
23.36000 6.033
23.38000 4.138
23.40000 0.305
23.42000 -1.796
23.44000 3.122
23.46000 3.268
23.48000 3.693
23.50000 3.761
23.52000 2.037
23.54000 -0.680
23.56000 0.667
23.58000 8.140
23.60000 2.893
23.62000 -0.259
23.64000 3.275
23.66000 2.804
23.68000 -3.218
23.70000 -2.729
23.72000 1.702
23.74000 -1.726
23.76000 -2.252
23.78000 -2.207
23.80000 -3.038
23.82000 -2.153
23.84000 0.361
23.86000 7.932
23.88000 1.678
23.90000 -0.233
23.92000 -0.917
23.94000 1.674
23.96000 7.950
23.98000 6.822
24.00000 9.584
24.02000 6.244
24.04000 6.011
24.06000 6.667
24.08000 7.193
24.10000 4.720
24.12000 1.299
24.14000 2.235
24.16000 3.491
24.18000 0.485
24.20000 -4.003
24.22000 -3.132
24.24000 -0.661
24.26000 1.824
24.28000 2.117
24.30000 9.339
24.32000 5.829
24.34000 7.522
24.36000 2.911
24.38000 6.152
24.40000 7.419
24.42000 0.331
24.44000 -1.556
24.46000 4.531
24.48000 4.222
24.50000 3.647
24.52000 8.574
24.54000 7.751
24.56000 4.247
24.58000 -3.345
24.60000 -1.858
24.62000 -0.681
24.64000 1.136
24.66000 2.244
24.68000 1.197
24.70000 3.146
24.72000 4.691
24.74000 -1.340
24.76000 3.261
24.78000 5.428
24.80000 6.217
24.82000 6.972
24.84000 -1.914
24.86000 -2.112
24.88000 5.470
24.90000 4.949
24.92000 7.133
24.94000 6.746
24.96000 1.762
24.98000 9.397
25.00000 5.418
25.02000 -3.948
25.04000 1.610
25.06000 5.849
25.08000 4.811
25.10000 0.553
25.12000 0.564
25.14000 4.679
25.16000 6.417
25.18000 2.933
25.20000 6.736
25.22000 4.781
25.24000 2.299
25.26000 -0.169
25.28000 9.171
25.30000 6.352
25.32000 3.821
25.34000 1.500
25.36000 1.322
25.38000 6.516
25.40000 9.391
25.42000 9.581
25.44000 10.544
25.46000 7.201
25.48000 7.892
25.50000 8.858
25.52000 2.312
25.54000 3.763
25.56000 8.954
25.58000 6.856
25.60000 7.055
25.62000 7.181
25.64000 9.780
25.66000 6.371
25.68000 9.936
25.70000 9.023
25.72000 4.992
25.74000 7.495
25.76000 12.243
25.78000 5.367
25.80000 1.638
25.82000 4.854
25.84000 5.860
25.86000 5.964
25.88000 3.873
25.90000 7.688
25.92000 5.170
25.94000 5.084
25.96000 5.324
25.98000 -0.891
26.00000 -3.874
26.02000 0.860
26.04000 7.572
26.06000 4.581
26.08000 6.699
26.10000 5.789
26.12000 2.970
26.14000 7.073
26.16000 1.992
26.18000 -0.001
26.20000 3.561
26.22000 7.357
26.24000 8.942
26.26000 10.121
26.28000 1.881
26.30000 8.188
26.32000 10.993
26.34000 9.025
26.36000 7.397
26.38000 8.399
26.40000 5.197
26.42000 8.299
26.44000 8.872
26.46000 7.609
26.48000 4.794
26.50000 6.009
26.52000 6.425
26.54000 10.649
26.56000 7.016
26.58000 8.036
26.60000 13.410
26.62000 9.577
26.64000 8.403
26.66000 7.264
26.68000 7.499
26.70000 6.592
26.72000 8.851
26.74000 17.207
26.76000 13.146
26.78000 0.730
26.80000 7.747
26.82000 6.069
26.84000 6.666
26.86000 2.444
26.88000 5.458
26.90000 8.220
26.92000 6.747
26.94000 7.663
26.96000 11.167
26.98000 8.087
27.00000 9.509
27.02000 4.244
27.04000 3.461
27.06000 5.711
27.08000 4.852
27.10000 4.614
27.12000 4.496
27.14000 3.343
27.16000 -0.459
27.18000 8.418
27.20000 8.242
27.22000 4.948
27.24000 -0.139
27.26000 -3.823
27.28000 0.777
27.30000 3.301
27.32000 7.315
27.34000 5.964
27.36000 2.460
27.38000 1.390
27.40000 6.489
27.42000 9.414
27.44000 7.699
27.46000 6.895
27.48000 5.991
27.50000 7.796
27.52000 9.159
27.54000 5.624
27.56000 8.427
27.58000 3.935
27.60000 4.777
27.62000 7.669
27.64000 1.752
27.66000 5.131
27.68000 3.711
27.70000 4.939
27.72000 4.621
27.74000 6.002
27.76000 3.538
27.78000 6.494
27.80000 5.918
27.82000 2.074
27.84000 3.460
27.86000 1.052
27.88000 0.120
27.90000 0.016
27.92000 0.382
27.94000 -0.844
27.96000 0.540
27.98000 4.735
28.00000 1.049
28.02000 1.903
28.04000 2.552
28.06000 4.075
28.08000 -0.585
28.10000 -2.870
28.12000 -3.081
28.14000 0.170
28.16000 -0.706
28.18000 4.553
28.20000 1.406
28.22000 -3.814
28.24000 -2.191
28.26000 -2.865
28.28000 4.554
28.30000 3.548
28.32000 0.533
28.34000 -1.367
28.36000 0.988
28.38000 1.483
28.40000 0.243
28.42000 2.004
28.44000 2.583
28.46000 2.266
28.48000 2.580
28.50000 1.733
28.52000 -1.688
28.54000 5.999
28.56000 2.689
28.58000 -0.918
28.60000 2.895
28.62000 3.046
28.64000 2.699
28.66000 2.815
28.68000 3.416
28.70000 0.970
28.72000 -0.643
28.74000 0.721
28.76000 4.768
28.78000 -1.362
28.80000 -1.513
28.82000 3.084
28.84000 6.830
28.86000 2.885
28.88000 4.504
28.90000 -1.780
28.92000 -2.082
28.94000 -2.320
28.96000 -2.225
28.98000 1.318
29.00000 0.768
29.02000 -1.968
29.04000 -2.407
29.06000 1.509
29.08000 2.732
29.10000 2.987
29.12000 -2.458
29.14000 -3.080
29.16000 0.605
29.18000 3.180
29.20000 4.204
29.22000 3.873
29.24000 -1.719
29.26000 -2.207
29.28000 -3.765
29.30000 -1.085
29.32000 4.184
29.34000 1.514
29.36000 -3.148
29.38000 -0.544
29.40000 2.766
29.42000 -2.588
29.44000 1.806
29.46000 5.501
29.48000 1.563
29.50000 -2.054
29.52000 -2.159
29.54000 -1.193
29.56000 0.256
29.58000 0.453
29.60000 -1.292
29.62000 -3.527
29.64000 -1.005
29.66000 1.219
29.68000 2.113
29.70000 0.140
29.72000 -3.461
29.74000 3.561
29.76000 5.826
29.78000 0.475
29.80000 -1.408
29.82000 0.305
29.84000 -2.104
29.86000 2.274
29.88000 3.658
29.90000 2.029
29.92000 0.670
29.94000 6.844
29.96000 1.280
29.98000 0.270
30.00000 5.417
30.02000 1.835
30.04000 -3.628
30.06000 2.013
30.08000 5.301
30.10000 4.233
30.12000 -2.961
30.14000 -1.936
30.16000 -1.577
30.18000 -1.803
30.20000 -3.236
30.22000 -3.359
30.24000 -0.834
30.26000 -0.503
30.28000 -2.298
30.30000 -1.593
30.32000 -2.217
30.34000 -3.711
30.36000 0.501
30.38000 0.263
30.40000 2.066
30.42000 5.100
30.44000 2.038
30.46000 0.923
30.48000 -0.709
30.50000 -2.186
30.52000 4.456
30.54000 2.168
30.56000 2.274
30.58000 -0.545
30.60000 1.111
30.62000 1.357
30.64000 -1.668
30.66000 0.000
30.68000 3.588
30.70000 1.115
30.72000 2.940
30.74000 3.175
30.76000 4.817
30.78000 2.923
30.80000 3.227
30.82000 10.611
30.84000 -1.035
30.86000 -2.595
30.88000 -1.454
30.90000 1.408
30.92000 -1.439
30.94000 2.522
30.96000 2.254
30.98000 1.956
31.00000 1.184
31.02000 2.142
31.04000 3.398
31.06000 3.385
31.08000 0.548
31.10000 -1.988
31.12000 2.137
31.14000 1.069
31.16000 1.550
31.18000 1.892
31.20000 -0.914
31.22000 3.008
31.24000 2.464
31.26000 -0.444
31.28000 2.230
31.30000 0.264
31.32000 3.364
31.34000 6.767
31.36000 7.863
31.38000 7.000
31.40000 6.896
31.42000 7.345
31.44000 6.563
31.46000 8.319
31.48000 1.559
31.50000 -1.587
31.52000 -1.787
31.54000 -3.633
31.56000 0.880
31.58000 5.648
31.60000 8.218
31.62000 9.892
31.64000 6.835
31.66000 6.605
31.68000 1.597
31.70000 3.460
31.72000 4.704
31.74000 9.190
31.76000 0.350
31.78000 -1.311
31.80000 3.222
31.82000 7.898
31.84000 8.442
31.86000 8.722
31.88000 5.748
31.90000 1.279
31.92000 -1.756
31.94000 -0.241
31.96000 3.939
31.98000 3.258
32.00000 6.569
32.02000 5.336
32.04000 2.585
32.06000 1.099
32.08000 3.163
32.10000 2.310
32.12000 1.949
32.14000 -1.964
32.16000 4.711
32.18000 6.846
32.20000 6.019
32.22000 3.545
32.24000 3.718
32.26000 2.113
32.28000 2.302
32.30000 2.788
32.32000 6.789
32.34000 6.292
32.36000 5.572
32.38000 5.402
32.40000 3.387
32.42000 6.134
32.44000 2.391
32.46000 -3.596
32.48000 1.210
32.50000 3.100
32.52000 3.484
32.54000 3.510
32.56000 6.966
32.58000 7.104
32.60000 4.190
32.62000 2.939
32.64000 3.124
32.66000 0.371
32.68000 1.546
32.70000 3.397
32.72000 5.297
32.74000 7.692
32.76000 4.776
32.78000 5.135
32.80000 5.157
32.82000 -0.610
32.84000 -1.332
32.86000 1.176
32.88000 5.033
32.90000 4.683
32.92000 0.723
32.94000 3.324
32.96000 1.905
32.98000 -3.607
33.00000 -3.338
33.02000 3.032
33.04000 2.148
33.06000 2.845
33.08000 4.248
33.10000 4.374
33.12000 4.209
33.14000 5.396
33.16000 3.912
33.18000 -0.370
33.20000 1.984
33.22000 5.854
33.24000 0.350
33.26000 0.250
33.28000 0.525
33.30000 -0.238
33.32000 2.408
33.34000 4.391
33.36000 1.872
33.38000 -2.027
33.40000 -1.858
33.42000 -3.609
33.44000 -0.757
33.46000 -0.850
33.48000 1.059
33.50000 3.952
33.52000 9.128
33.54000 3.925
33.56000 2.128
33.58000 1.079
33.60000 2.799
33.62000 5.493
33.64000 2.091
33.66000 0.938
33.68000 2.655
33.70000 6.060
33.72000 0.445
33.74000 0.688
33.76000 4.872
33.78000 -0.538
33.80000 2.896
33.82000 7.231
33.84000 5.180
33.86000 6.693
33.88000 10.712
33.90000 4.691
33.92000 0.584
33.94000 0.892
33.96000 0.595
33.98000 2.307
34.00000 -0.432
34.02000 2.594
34.04000 1.217
34.06000 -1.250
34.08000 -1.182
34.10000 -2.337
34.12000 1.299
34.14000 1.188
34.16000 3.501
34.18000 2.208
34.20000 -0.312
34.22000 3.024
34.24000 2.684
34.26000 4.651
34.28000 5.851
34.30000 2.451
34.32000 0.796
34.34000 2.722
34.36000 3.367
34.38000 0.807
34.40000 2.457
34.42000 5.275
34.44000 0.669
34.46000 1.506
34.48000 3.949
34.50000 2.063
34.52000 5.256
34.54000 -1.429
34.56000 -3.031
34.58000 -0.336
34.60000 -1.687
34.62000 -0.846
34.64000 1.773
34.66000 6.918
34.68000 4.676
34.70000 0.985
34.72000 2.281
34.74000 5.039
34.76000 4.718
34.78000 4.388
34.80000 2.244
34.82000 0.879
34.84000 5.462
34.86000 0.055
34.88000 -1.637
34.90000 -1.671
34.92000 4.371
34.94000 8.888
34.96000 0.619
34.98000 -3.569
35.00000 4.959
35.02000 6.125
35.04000 5.530
35.06000 1.324
35.08000 1.579
35.10000 -2.189
35.12000 -1.608
35.14000 -1.122
35.16000 2.006
35.18000 2.484
35.20000 -2.423
35.22000 -0.637
35.24000 0.622
35.26000 -0.161
35.28000 4.198
35.30000 6.814
35.32000 2.691
35.34000 -1.705
35.36000 3.152
35.38000 1.718
35.40000 0.978
35.42000 1.029
35.44000 0.831
35.46000 5.426
35.48000 2.068
35.50000 0.057
35.52000 2.519
35.54000 -1.181
35.56000 -1.240
35.58000 5.559
35.60000 2.079
35.62000 4.309
35.64000 3.235
35.66000 8.927
35.68000 6.776
35.70000 1.159
35.72000 -1.940
35.74000 3.423
35.76000 4.051
35.78000 0.100
35.80000 -0.244
35.82000 3.906
35.84000 2.919
35.86000 1.257
35.88000 -1.295
35.90000 1.234
35.92000 2.535
35.94000 6.022
35.96000 6.215
35.98000 1.727
36.00000 -1.314
36.02000 1.114
36.04000 1.277
36.06000 1.857
36.08000 7.649
36.10000 8.650
36.12000 1.040
36.14000 4.135
36.16000 3.849
36.18000 3.405
36.20000 4.251
36.22000 6.654
36.24000 -1.450
36.26000 -3.582
36.28000 -0.305
36.30000 3.898
36.32000 2.019
36.34000 3.708
36.36000 -0.248
36.38000 1.140
36.40000 1.549
36.42000 0.810
36.44000 3.925
36.46000 8.216
36.48000 3.358
36.50000 4.777
36.52000 1.123
36.54000 5.051
36.56000 7.262
36.58000 0.542
36.60000 0.505
36.62000 -0.009
36.64000 2.549
36.66000 3.070
36.68000 1.892
36.70000 3.301
36.72000 2.296
36.74000 -2.665
36.76000 -1.441
36.78000 -1.618
36.80000 -3.381
36.82000 -0.755
36.84000 -0.375
36.86000 -2.613
36.88000 -0.117
36.90000 3.497
36.92000 2.550
36.94000 -1.792
36.96000 6.645
36.98000 3.279
37.00000 -3.667
37.02000 1.552
37.04000 1.241
37.06000 2.775
37.08000 2.391
37.10000 1.595
37.12000 1.470
37.14000 0.075
37.16000 1.094
37.18000 4.382
37.20000 5.537
37.22000 2.919
37.24000 3.079
37.26000 -1.476
37.28000 -3.692
37.30000 6.575
37.32000 4.971
37.34000 4.043
37.36000 1.919
37.38000 -0.213
37.40000 -2.343
37.42000 1.875
37.44000 5.454
37.46000 4.570
37.48000 1.786
37.50000 7.861
37.52000 4.118
37.54000 1.549
37.56000 3.375
37.58000 3.813
37.60000 9.379
37.62000 5.805
37.64000 0.615
37.66000 -1.030
37.68000 -1.833
37.70000 3.505
37.72000 6.712
37.74000 5.306
37.76000 6.894
37.78000 11.693
37.80000 7.117
37.82000 8.935
37.84000 5.374
37.86000 10.622
37.88000 13.163
37.90000 17.902
37.92000 17.119
37.94000 9.545
37.96000 8.862
37.98000 9.255
38.00000 9.890
38.02000 18.647
38.04000 15.394
38.06000 12.863
38.08000 13.539
38.10000 18.819
38.12000 17.170
38.14000 20.861
38.16000 25.391
38.18000 20.601
38.20000 20.504
38.22000 16.325
38.24000 21.314
38.26000 18.070
38.28000 20.783
38.30000 24.604
38.32000 19.405
38.34000 18.886
38.36000 22.194
38.38000 28.204
38.40000 28.153
38.42000 30.064
38.44000 31.611
38.46000 35.050
38.48000 34.634
38.50000 31.493
38.52000 33.982
38.54000 39.307
38.56000 42.059
38.58000 41.983
38.60000 47.841
38.62000 44.393
38.64000 44.583
38.66000 40.354
38.68000 44.759
38.70000 42.771
38.72000 51.371
38.74000 55.258
38.76000 55.026
38.78000 55.123
38.80000 57.631
38.82000 62.230
38.84000 63.779
38.86000 62.911
38.88000 67.924
38.90000 67.751
38.92000 65.721
38.94000 69.882
38.96000 77.445
38.98000 83.566
39.00000 87.822
39.02000 87.576
39.04000 87.910
39.06000 93.036
39.08000 104.849
39.10000 108.327
39.12000 109.382
39.14000 116.353
39.16000 122.657
39.18000 125.924
39.20000 136.392
39.22000 137.961
39.24000 149.951
39.26000 160.390
39.28000 165.044
39.30000 164.271
39.32000 176.239
39.34000 183.029
39.36000 193.805
39.38000 207.941
39.40000 209.925
39.42000 219.919
39.44000 234.427
39.46000 244.556
39.48000 253.686
39.50000 260.857
39.52000 282.055
39.54000 298.647
39.56000 313.630
39.58000 327.527
39.60000 341.142
39.62000 356.254
39.64000 372.124
39.66000 385.836
39.68000 404.708
39.70000 420.203
39.72000 430.249
39.74000 453.845
39.76000 475.292
39.78000 495.121
39.80000 506.916
39.82000 528.364
39.84000 548.688
39.86000 566.380
39.88000 589.947
39.90000 614.571
39.92000 623.955
39.94000 623.535
39.96000 634.320
39.98000 662.444
40.00000 662.187
40.02000 670.777
40.04000 684.681
40.06000 681.371
40.08000 699.518
40.10000 708.962
40.12000 714.494
40.14000 713.044
40.16000 704.633
40.18000 686.487
40.20000 680.534
40.22000 684.070
40.24000 675.200
40.26000 657.389
40.28000 638.622
40.30000 623.889
40.32000 605.324
40.34000 582.622
40.36000 563.267
40.38000 550.970
40.40000 542.088
40.42000 524.491
40.44000 507.723
40.46000 494.597
40.48000 475.753
40.50000 442.161
40.52000 413.624
40.54000 395.917
40.56000 375.376
40.58000 362.752
40.60000 352.321
40.62000 339.597
40.64000 316.747
40.66000 300.540
40.68000 284.001
40.70000 269.648
40.72000 249.505
40.74000 233.465
40.76000 217.717
40.78000 213.450
40.80000 198.747
40.82000 185.965
40.84000 177.892
40.86000 167.394
40.88000 161.422
40.90000 148.438
40.92000 142.841
40.94000 137.063
40.96000 129.744
40.98000 115.861
41.00000 109.429
41.02000 109.241
41.04000 106.029
41.06000 96.200
41.08000 92.257
41.10000 87.226
41.12000 82.008
41.14000 80.189
41.16000 70.862
41.18000 64.747
41.20000 60.944
41.22000 58.285
41.24000 54.220
41.26000 52.510
41.28000 52.125
41.30000 47.571
41.32000 48.736
41.34000 49.140
41.36000 37.765
41.38000 31.729
41.40000 38.904
41.42000 39.539
41.44000 37.167
41.46000 34.751
41.48000 33.496
41.50000 25.103
41.52000 22.084
41.54000 20.253
41.56000 20.115
41.58000 25.517
41.60000 23.302
41.62000 18.590
41.64000 19.958
41.66000 17.930
41.68000 10.956
41.70000 13.365
41.72000 19.066
41.74000 17.843
41.76000 14.902
41.78000 9.552
41.80000 7.789
41.82000 9.232
41.84000 7.185
41.86000 7.041
41.88000 8.864
41.90000 8.636
41.92000 10.761
41.94000 7.524
41.96000 6.648
41.98000 4.127
42.00000 5.868
42.02000 7.248
42.04000 6.972
42.06000 6.440
42.08000 3.093
42.10000 3.871
42.12000 4.351
42.14000 1.262
42.16000 0.339
42.18000 1.580
42.20000 3.721
42.22000 2.113
42.24000 -3.675
42.26000 3.172
42.28000 4.223
42.30000 9.230
42.32000 7.004
42.34000 2.332
42.36000 3.633
42.38000 -0.998
42.40000 -1.397
42.42000 4.004
42.44000 1.635
42.46000 0.303
42.48000 -1.314
42.50000 2.351
42.52000 1.735
42.54000 -0.630
42.56000 -0.060
42.58000 0.774
42.60000 2.729
42.62000 3.982
42.64000 0.003
42.66000 0.640
42.68000 -1.402
42.70000 1.973
42.72000 3.364
42.74000 -2.275
42.76000 -3.183
42.78000 1.397
42.80000 4.579
42.82000 0.161
42.84000 -1.811
42.86000 5.463
42.88000 3.750
42.90000 1.293
42.92000 -2.905
42.94000 -3.572
42.96000 -1.206
42.98000 0.049
43.00000 -1.016
43.02000 1.363
43.04000 3.983
43.06000 4.320
43.08000 0.826
43.10000 2.351
43.12000 1.119
43.14000 -1.931
43.16000 -2.407
43.18000 -1.120
43.20000 -1.861
43.22000 2.534
43.24000 3.126
43.26000 2.072
43.28000 3.584
43.30000 -2.214
43.32000 2.491
43.34000 3.772
43.36000 3.047
43.38000 -0.706
43.40000 4.372
43.42000 4.652
43.44000 0.662
43.46000 -3.242
43.48000 -3.529
43.50000 -1.358
43.52000 2.849
43.54000 3.243
43.56000 1.005
43.58000 -1.042
43.60000 3.690
43.62000 5.142
43.64000 -0.135
43.66000 0.472
43.68000 -2.243
43.70000 0.263
43.72000 0.979
43.74000 -2.203
43.76000 -3.515
43.78000 2.277
43.80000 5.335
43.82000 4.186
43.84000 2.529
43.86000 3.475
43.88000 -0.562
43.90000 0.773
43.92000 -1.529
43.94000 2.082
43.96000 0.061
43.98000 1.607
44.00000 -0.964
44.02000 -1.108
44.04000 0.844
44.06000 -0.531
44.08000 -1.919
44.10000 0.056
44.12000 6.297
44.14000 2.988
44.16000 3.342
44.18000 -0.910
44.20000 -2.320
44.22000 2.466
44.24000 3.172
44.26000 4.317
44.28000 4.656
44.30000 5.299
44.32000 4.847
44.34000 -0.865
44.36000 0.860
44.38000 3.687
44.40000 3.459
44.42000 1.590
44.44000 0.494
44.46000 2.619
44.48000 4.324
44.50000 2.939
44.52000 0.639
44.54000 3.110
44.56000 1.353
44.58000 2.614
44.60000 5.407
44.62000 5.010
44.64000 5.486
44.66000 4.100
44.68000 3.529
44.70000 2.284
44.72000 2.128
44.74000 -2.419
44.76000 -1.176
44.78000 -0.487
44.80000 3.370
44.82000 -3.560
44.84000 3.356
44.86000 3.172
44.88000 1.349
44.90000 6.532
44.92000 5.408
44.94000 5.599
44.96000 6.529
44.98000 5.073
45.00000 11.608
45.02000 9.326
45.04000 9.269
45.06000 10.805
45.08000 10.837
45.10000 3.194
45.12000 5.324
45.14000 8.325
45.16000 12.284
45.18000 15.274
45.20000 11.096
45.22000 12.869
45.24000 14.840
45.26000 10.517
45.28000 11.227
45.30000 18.427
45.32000 16.372
45.34000 20.049
45.36000 19.075
45.38000 18.582
45.40000 16.836
45.42000 13.097
45.44000 17.201
45.46000 14.110
45.48000 16.546
45.50000 18.349
45.52000 25.059
45.54000 22.875
45.56000 20.256
45.58000 25.532
45.60000 25.119
45.62000 26.266
45.64000 22.790
45.66000 21.783
45.68000 28.662
45.70000 30.793
45.72000 36.321
45.74000 33.062
45.76000 27.419
45.78000 34.541
45.80000 31.259
45.82000 33.550
45.84000 41.270
45.86000 32.840
45.88000 37.733
45.90000 37.890
45.92000 37.147
45.94000 36.090
45.96000 38.455
45.98000 45.802
46.00000 47.419
46.02000 51.484
46.04000 53.550
46.06000 55.781
46.08000 51.117
46.10000 54.405
46.12000 53.200
46.14000 54.316
46.16000 56.663
46.18000 58.786
46.20000 63.405
46.22000 69.145
46.24000 65.486
46.26000 58.871
46.28000 69.622
46.30000 72.553
46.32000 68.276
46.34000 62.732
46.36000 73.408
46.38000 78.716
46.40000 73.205
46.42000 72.544
46.44000 78.332
46.46000 79.497
46.48000 83.037
46.50000 84.828
46.52000 80.660
46.54000 82.240
46.56000 74.866
46.58000 82.835
46.60000 79.861
46.62000 79.519
46.64000 72.764
46.66000 76.227
46.68000 79.312
46.70000 81.680
46.72000 83.446
46.74000 84.749
46.76000 79.997
46.78000 84.369
46.80000 88.990
46.82000 86.758
46.84000 84.378
46.86000 81.573
46.88000 84.352
46.90000 79.452
46.92000 75.607
46.94000 73.822
46.96000 76.076
46.98000 78.946
47.00000 70.145
47.02000 60.935
47.04000 61.880
47.06000 63.731
47.08000 62.035
47.10000 63.150
47.12000 58.841
47.14000 62.099
47.16000 64.654
47.18000 58.030
47.20000 54.981
47.22000 47.795
47.24000 53.236
47.26000 52.674
47.28000 49.755
47.30000 42.687
47.32000 42.776
47.34000 44.332
47.36000 43.740
47.38000 43.768
47.40000 41.245
47.42000 36.937
47.44000 41.607
47.46000 37.767
47.48000 41.085
47.50000 34.134
47.52000 35.272
47.54000 38.111
47.56000 28.230
47.58000 24.809
47.60000 27.052
47.62000 29.279
47.64000 25.685
47.66000 23.466
47.68000 22.630
47.70000 14.935
47.72000 16.813
47.74000 20.872
47.76000 25.084
47.78000 23.592
47.80000 21.104
47.82000 17.099
47.84000 11.726
47.86000 8.533
47.88000 13.276
47.90000 17.769
47.92000 15.781
47.94000 18.253
47.96000 19.098
47.98000 12.188
48.00000 10.972
48.02000 7.706
48.04000 2.478
48.06000 5.974
48.08000 8.077
48.10000 3.429
48.12000 6.727
48.14000 12.404
48.16000 12.488
48.18000 6.091
48.20000 5.083
48.22000 6.943
48.24000 10.282
48.26000 4.729
48.28000 -0.536
48.30000 3.961
48.32000 4.925
48.34000 5.143
48.36000 1.660
48.38000 1.308
48.40000 -0.995
48.42000 2.148
48.44000 9.958
48.46000 9.911
48.48000 3.949
48.50000 5.414
48.52000 7.141
48.54000 -0.886
48.56000 -1.902
48.58000 -0.445
48.60000 0.386
48.62000 -3.223
48.64000 -0.691
48.66000 2.962
48.68000 0.736
48.70000 -1.865
48.72000 0.518
48.74000 1.952
48.76000 0.327
48.78000 -0.920
48.80000 2.344
48.82000 5.542
48.84000 -0.113
48.86000 -1.212
48.88000 1.921
48.90000 2.625
48.92000 3.707
48.94000 1.552
48.96000 2.135
48.98000 7.531
49.00000 3.518
49.02000 2.556
49.04000 5.262
49.06000 5.767
49.08000 6.541
49.10000 6.314
49.12000 5.135
49.14000 3.882
49.16000 4.261
49.18000 1.251
49.20000 -3.114
49.22000 -0.926
49.24000 6.203
49.26000 3.280
49.28000 4.039
49.30000 4.433
49.32000 -2.311
49.34000 -2.492
49.36000 -0.618
49.38000 4.371
49.40000 6.325
49.42000 7.403
49.44000 6.073
49.46000 7.716
49.48000 1.486
49.50000 1.489
49.52000 0.858
49.54000 4.016
49.56000 9.260
49.58000 10.374
49.60000 7.049
49.62000 -2.470
49.64000 5.036
49.66000 4.267
49.68000 2.317
49.70000 0.683
49.72000 3.785
49.74000 2.198
49.76000 4.040
49.78000 4.174
49.80000 2.617
49.82000 2.184
49.84000 4.632
49.86000 1.403
49.88000 1.534
49.90000 1.581
49.92000 2.454
49.94000 4.176
49.96000 5.136
49.98000 1.034
50.00000 3.017
50.02000 4.199
50.04000 2.892
50.06000 -3.071
50.08000 -2.733
50.10000 3.145
50.12000 2.385
50.14000 5.460
50.16000 7.274
50.18000 3.843
50.20000 1.393
50.22000 5.389
50.24000 8.050
50.26000 6.738
50.28000 5.578
50.30000 10.072
50.32000 7.000
50.34000 3.610
50.36000 6.355
50.38000 6.303
50.40000 4.535
50.42000 1.518
50.44000 4.264
50.46000 7.248
50.48000 9.271
50.50000 5.395
50.52000 -1.021
50.54000 2.327
50.56000 -1.929
50.58000 2.114
50.60000 7.156
50.62000 5.408
50.64000 2.776
50.66000 -3.020
50.68000 -0.641
50.70000 1.228
50.72000 1.240
50.74000 1.581
50.76000 9.178
50.78000 9.189
50.80000 8.492
50.82000 2.664
50.84000 0.197
50.86000 3.364
50.88000 1.922
50.90000 4.948
50.92000 1.345
50.94000 1.523
50.96000 3.824
50.98000 6.087
51.00000 1.751
51.02000 -0.198
51.04000 2.574
51.06000 0.497
51.08000 -1.932
51.10000 -2.622
51.12000 2.923
51.14000 1.192
51.16000 2.128
51.18000 0.577
51.20000 3.099
51.22000 1.556
51.24000 5.015
51.26000 1.293
51.28000 2.303
51.30000 1.334
51.32000 2.731
51.34000 2.184
51.36000 -0.818
51.38000 5.346
51.40000 7.287
51.42000 5.353
51.44000 7.274
51.46000 6.757
51.48000 5.124
51.50000 4.175
51.52000 -1.861
51.54000 2.739
51.56000 3.594
51.58000 3.589
51.60000 4.632
51.62000 0.895
51.64000 4.509
51.66000 2.730
51.68000 5.735
51.70000 2.720
51.72000 7.919
51.74000 6.702
51.76000 5.464
51.78000 4.158
51.80000 5.054
51.82000 7.162
51.84000 7.530
51.86000 6.707
51.88000 1.660
51.90000 6.096
51.92000 4.102
51.94000 0.189
51.96000 -2.596
51.98000 4.618
52.00000 5.851
52.02000 7.756
52.04000 2.811
52.06000 3.801
52.08000 3.138
52.10000 -0.446
52.12000 -0.243
52.14000 3.948
52.16000 5.661
52.18000 7.139
52.20000 5.097
52.22000 4.218
52.24000 6.257
52.26000 5.474
52.28000 7.804
52.30000 8.000
52.32000 3.467
52.34000 3.559
52.36000 4.478
52.38000 5.001
52.40000 0.813
52.42000 -0.015
52.44000 4.024
52.46000 2.615
52.48000 3.073
52.50000 1.762
52.52000 8.476
52.54000 5.388
52.56000 8.013
52.58000 4.306
52.60000 5.532
52.62000 5.977
52.64000 9.892
52.66000 3.818
52.68000 4.684
52.70000 4.548
52.72000 -0.033
52.74000 1.215
52.76000 5.748
52.78000 9.368
52.80000 14.996
52.82000 12.648
52.84000 3.190
52.86000 0.241
52.88000 3.625
52.90000 5.529
52.92000 4.034
52.94000 3.278
52.96000 8.776
52.98000 3.024
53.00000 -2.914
53.02000 -0.346
53.04000 5.618
53.06000 5.166
53.08000 1.228
53.10000 5.099
53.12000 4.959
53.14000 7.050
53.16000 3.055
53.18000 1.336
53.20000 4.388
53.22000 8.312
53.24000 5.917
53.26000 11.074
53.28000 9.742
53.30000 4.982
53.32000 9.659
53.34000 5.336
53.36000 -1.218
53.38000 2.175
53.40000 4.248
53.42000 4.312
53.44000 3.657
53.46000 3.902
53.48000 4.857
53.50000 3.236
53.52000 4.733
53.54000 11.232
53.56000 7.388
53.58000 -0.933
53.60000 -0.887
53.62000 2.846
53.64000 2.314
53.66000 5.757
53.68000 1.550
53.70000 -2.911
53.72000 1.833
53.74000 0.489
53.76000 0.542
53.78000 4.751
53.80000 4.650
53.82000 6.200
53.84000 1.860
53.86000 -1.114
53.88000 6.817
53.90000 4.633
53.92000 5.314
53.94000 5.598
53.96000 5.018
53.98000 4.092
54.00000 1.954
54.02000 2.602
54.04000 -1.966
54.06000 -1.739
54.08000 4.536
54.10000 4.144
54.12000 5.366
54.14000 5.417
54.16000 8.319
54.18000 5.539
54.20000 1.144
54.22000 3.101
54.24000 4.251
54.26000 5.032
54.28000 -0.234
54.30000 0.517
54.32000 -1.444
54.34000 2.237
54.36000 1.424
54.38000 0.617
54.40000 -2.697
54.42000 -1.558
54.44000 0.026
54.46000 2.517
54.48000 2.040
54.50000 -1.239
54.52000 -2.722
54.54000 -0.336
54.56000 1.354
54.58000 3.585
54.60000 4.125
54.62000 5.820
54.64000 -1.537
54.66000 1.066
54.68000 0.394
54.70000 -2.399
54.72000 4.703
54.74000 2.242
54.76000 -1.525
54.78000 -1.882
54.80000 -1.720
54.82000 2.703
54.84000 2.821
54.86000 4.407
54.88000 2.998
54.90000 -2.483
54.92000 -1.446
54.94000 3.605
54.96000 2.739
54.98000 -2.905
55.00000 -0.481
55.02000 0.036
55.04000 0.971
55.06000 1.876
55.08000 8.660
55.10000 10.404
55.12000 4.887
55.14000 -0.879
55.16000 -0.716
55.18000 3.003
55.20000 -2.078
55.22000 -1.533
55.24000 0.480
55.26000 -1.809
55.28000 -1.514
55.30000 0.140
55.32000 4.227
55.34000 3.742
55.36000 0.370
55.38000 2.695
55.40000 4.034
55.42000 2.059
55.44000 2.023
55.46000 4.471
55.48000 8.016
55.50000 6.466
55.52000 6.041
55.54000 8.172
55.56000 3.311
55.58000 -2.373
55.60000 1.309
55.62000 2.887
55.64000 -0.109
55.66000 -0.970
55.68000 -2.606
55.70000 2.832
55.72000 5.142
55.74000 2.173
55.76000 2.136
55.78000 -0.188
55.80000 6.917
55.82000 1.159
55.84000 -2.865
55.86000 3.329
55.88000 0.246
55.90000 3.228
55.92000 0.443
55.94000 0.973
55.96000 3.852
55.98000 4.047
56.00000 -0.714
56.02000 1.792
56.04000 5.418
56.06000 5.559
56.08000 2.722
56.10000 0.116
56.12000 -0.502
56.14000 -2.862
56.16000 2.158
56.18000 3.735
56.20000 4.593
56.22000 1.014
56.24000 -2.861
56.26000 -2.275
56.28000 -0.752
56.30000 2.022
56.32000 3.435
56.34000 1.398
56.36000 3.146
56.38000 7.571
56.40000 3.049
56.42000 0.087
56.44000 4.301
56.46000 6.233
56.48000 4.269
56.50000 5.866
56.52000 0.647
56.54000 -0.099
56.56000 4.373
56.58000 6.117
56.60000 0.057
56.62000 -2.453
56.64000 2.175
56.66000 6.682
56.68000 6.729
56.70000 3.859
56.72000 3.565
56.74000 3.459
56.76000 0.852
56.78000 4.795
56.80000 4.347
56.82000 -1.386
56.84000 0.744
56.86000 1.201
56.88000 6.362
56.90000 4.912
56.92000 7.074
56.94000 5.877
56.96000 3.588
56.98000 1.696
57.00000 -0.248
57.02000 1.368
57.04000 0.729
57.06000 2.688
57.08000 5.750
57.10000 4.698
57.12000 3.725
57.14000 2.882
57.16000 2.845
57.18000 1.251
57.20000 -2.825
57.22000 2.075
57.24000 1.703
57.26000 4.195
57.28000 6.792
57.30000 9.364
57.32000 5.320
57.34000 0.977
57.36000 1.838
57.38000 2.007
57.40000 2.691
57.42000 5.360
57.44000 2.973
57.46000 6.838
57.48000 1.518
57.50000 5.144
57.52000 5.507
57.54000 5.231
57.56000 4.870
57.58000 3.152
57.60000 -0.328
57.62000 1.910
57.64000 -0.145
57.66000 0.625
57.68000 -1.774
57.70000 0.162
57.72000 3.022
57.74000 -1.514
57.76000 -2.782
57.78000 -0.990
57.80000 -1.984
57.82000 -0.711
57.84000 2.344
57.86000 3.522
57.88000 2.250
57.90000 3.711
57.92000 0.552
57.94000 1.304
57.96000 4.856
57.98000 4.122
58.00000 10.689
58.02000 5.644
58.04000 -0.262
58.06000 -2.765
58.08000 9.154
58.10000 11.885
58.12000 10.453
58.14000 9.452
58.16000 7.387
58.18000 4.253
58.20000 7.001
58.22000 6.689
58.24000 10.233
58.26000 5.865
58.28000 0.457
58.30000 3.048
58.32000 4.676
58.34000 2.445
58.36000 4.686
58.38000 8.145
58.40000 8.494
58.42000 1.347
58.44000 -2.475
58.46000 -2.761
58.48000 0.372
58.50000 2.233
58.52000 5.066
58.54000 4.836
58.56000 2.561
58.58000 4.274
58.60000 2.135
58.62000 5.544
58.64000 5.923
58.66000 6.671
58.68000 6.311
58.70000 0.424
58.72000 -2.090
58.74000 -2.008
58.76000 6.416
58.78000 7.489
58.80000 1.969
58.82000 3.934
58.84000 2.089
58.86000 0.817
58.88000 4.038
58.90000 0.751
58.92000 2.909
58.94000 5.024
58.96000 2.753
58.98000 3.211
59.00000 4.562
59.02000 5.825
59.04000 2.840
59.06000 2.610
59.08000 3.693
59.10000 0.774
59.12000 -1.960
59.14000 -0.447
59.16000 1.016
59.18000 2.943
59.20000 3.993
59.22000 4.677
59.24000 5.851
59.26000 4.729
59.28000 3.840
59.30000 2.621
59.32000 -1.303
59.34000 -2.751
59.36000 0.424
59.38000 2.708
59.40000 2.464
59.42000 3.205
59.44000 5.055
59.46000 2.988
59.48000 2.441
59.50000 7.824
59.52000 4.883
59.54000 6.179
59.56000 5.677
59.58000 1.051
59.60000 -0.246
59.62000 -0.390
59.64000 2.891
59.66000 3.560
59.68000 7.158
59.70000 6.874
59.72000 3.711
59.74000 0.744
59.76000 1.765
59.78000 8.297
59.80000 5.044
59.82000 2.909
59.84000 3.979
59.86000 3.824
59.88000 5.749
59.90000 5.722
59.92000 -0.859
59.94000 1.625
59.96000 4.470
59.98000 -1.502
60.00000 3.180
60.02000 3.327
60.04000 -0.890
60.06000 0.925
60.08000 3.882
60.10000 0.569
60.12000 1.243
60.14000 4.835
60.16000 0.890
60.18000 0.632
60.20000 -1.097
60.22000 2.902
60.24000 9.082
60.26000 9.296
60.28000 5.639
60.30000 2.392
60.32000 -2.719
60.34000 1.345
60.36000 1.248
60.38000 2.525
60.40000 0.816
60.42000 1.186
60.44000 4.651
60.46000 5.443
60.48000 2.062
60.50000 1.565
60.52000 4.847
60.54000 5.771
60.56000 1.660
60.58000 3.187
60.60000 -0.315
60.62000 -1.327
60.64000 3.490
60.66000 2.837
60.68000 2.807
60.70000 1.503
60.72000 1.422
60.74000 1.152
60.76000 6.094
60.78000 9.713
60.80000 8.050
60.82000 1.523
60.84000 2.139
60.86000 1.900
60.88000 2.576
60.90000 8.351
60.92000 4.421
60.94000 2.811
60.96000 1.114
60.98000 2.302
61.00000 -1.053
61.02000 0.697
61.04000 0.277
61.06000 -0.444
61.08000 0.979
61.10000 1.487
61.12000 2.118
61.14000 0.648
61.16000 -1.486
61.18000 -0.441
61.20000 0.098
61.22000 -1.436
61.24000 0.479
61.26000 -2.116
61.28000 2.350
61.30000 1.729
61.32000 -0.721
61.34000 1.264
61.36000 1.757
61.38000 3.952
61.40000 6.845
61.42000 -1.198
61.44000 0.745
61.46000 -0.193
61.48000 -0.205
61.50000 9.564
61.52000 10.430
61.54000 6.345
61.56000 4.974
61.58000 4.874
61.60000 1.035
61.62000 1.017
61.64000 1.999
61.66000 4.849
61.68000 5.914
61.70000 2.482
61.72000 5.150
61.74000 9.127
61.76000 7.173
61.78000 3.998
61.80000 3.490
61.82000 2.440
61.84000 1.736
61.86000 0.695
61.88000 -1.713
61.90000 0.720
61.92000 6.586
61.94000 9.107
61.96000 8.819
61.98000 8.854
62.00000 3.519
62.02000 1.745
62.04000 4.379
62.06000 1.082
62.08000 -2.651
62.10000 -1.024
62.12000 3.734
62.14000 7.344
62.16000 6.175
62.18000 7.958
62.20000 6.110
62.22000 5.958
62.24000 6.509
62.26000 5.719
62.28000 0.955
62.30000 -1.263
62.32000 0.588
62.34000 1.797
62.36000 -0.395
62.38000 -1.395
62.40000 2.264
62.42000 0.369
62.44000 6.187
62.46000 6.049
62.48000 4.753
62.50000 2.212
62.52000 0.525
62.54000 0.848
62.56000 0.198
62.58000 4.702
62.60000 4.858
62.62000 4.502
62.64000 0.727
62.66000 1.606
62.68000 4.163
62.70000 6.466
62.72000 4.919
62.74000 3.516
62.76000 -0.268
62.78000 1.641
62.80000 1.072
62.82000 -0.781
62.84000 1.724
62.86000 0.860
62.88000 0.237
62.90000 -2.672
62.92000 0.021
62.94000 1.514
62.96000 5.678
62.98000 3.713
63.00000 4.191
63.02000 0.152
63.04000 -0.520
63.06000 0.196
63.08000 1.448
63.10000 4.757
63.12000 6.573
63.14000 6.198
63.16000 2.140
63.18000 1.390
63.20000 -0.063
63.22000 1.446
63.24000 3.694
63.26000 1.890
63.28000 1.043
63.30000 1.613
63.32000 0.624
63.34000 1.364
63.36000 0.350
63.38000 0.429
63.40000 1.824
63.42000 -0.851
63.44000 -0.323
63.46000 2.293
63.48000 2.002
63.50000 3.324
63.52000 4.973
63.54000 0.353
63.56000 0.861
63.58000 0.848
63.60000 -0.478
63.62000 3.359
63.64000 2.757
63.66000 1.610
63.68000 3.201
63.70000 4.597
63.72000 1.298
63.74000 -2.659
63.76000 1.655
63.78000 -2.339
63.80000 1.936
63.82000 5.715
63.84000 4.990
63.86000 6.581
63.88000 1.784
63.90000 3.400
63.92000 4.689
63.94000 6.487
63.96000 4.622
63.98000 4.373
64.00000 0.622
64.02000 2.158
64.04000 0.204
64.06000 3.007
64.08000 4.000
64.10000 6.057
64.12000 4.023
64.14000 1.474
64.16000 2.389
64.18000 0.278
64.20000 3.131
64.22000 2.987
64.24000 -1.943
64.26000 0.809
64.28000 0.027
64.30000 -1.381
64.32000 -2.659
64.34000 1.662
64.36000 4.715
64.38000 7.104
64.40000 5.787
64.42000 6.365
64.44000 2.671
64.46000 -0.785
64.48000 1.024
64.50000 -0.044
64.52000 1.477
64.54000 4.230
64.56000 1.415
64.58000 1.434
64.60000 5.504
64.62000 1.527
64.64000 -0.182
64.66000 -1.615
64.68000 0.742
64.70000 0.612
64.72000 1.747
64.74000 2.171
64.76000 3.046
64.78000 0.759
64.80000 0.037
64.82000 3.343
64.84000 -0.385
64.86000 -2.667
64.88000 0.635
64.90000 3.272
64.92000 4.831
64.94000 0.768
64.96000 -0.708
64.98000 2.026
65.00000 2.680
65.02000 5.270
65.04000 2.177
65.06000 2.383
65.08000 5.045
65.10000 3.778
65.12000 2.049
65.14000 2.609
65.16000 -0.565
65.18000 0.689
65.20000 2.904
65.22000 2.980
65.24000 1.758
65.26000 2.106
65.28000 2.195
65.30000 -0.649
65.32000 -2.709
65.34000 1.193
65.36000 3.433
65.38000 -0.902
65.40000 2.264
65.42000 3.012
65.44000 2.666
65.46000 2.038
65.48000 3.310
65.50000 3.069
65.52000 6.115
65.54000 3.424
65.56000 -0.628
65.58000 2.062
65.60000 -0.681
65.62000 1.036
65.64000 1.926
65.66000 2.015
65.68000 6.129
65.70000 6.034
65.72000 0.307
65.74000 1.821
65.76000 3.617
65.78000 1.842
65.80000 -0.135
65.82000 0.833
65.84000 -1.439
65.86000 -1.050
65.88000 -1.270
65.90000 -1.056
65.92000 -0.432
65.94000 1.009
65.96000 1.844
65.98000 -0.022
66.00000 1.487
66.02000 -2.761
66.04000 0.000
66.06000 -0.691
66.08000 0.231
66.10000 3.329
66.12000 1.365
66.14000 2.916
66.16000 0.872
66.18000 -0.678
66.20000 -0.707
66.22000 4.543
66.24000 4.607
66.26000 1.866
66.28000 1.674
66.30000 6.198
66.32000 5.234
66.34000 0.235
66.36000 0.093
66.38000 0.130
66.40000 0.251
66.42000 2.111
66.44000 0.905
66.46000 1.759
66.48000 3.556
66.50000 0.601
66.52000 1.713
66.54000 1.795
66.56000 2.343
66.58000 5.674
66.60000 4.228
66.62000 1.864
66.64000 0.816
66.66000 1.992
66.68000 0.758
66.70000 -0.478
66.72000 3.608
66.74000 4.655
66.76000 4.720
66.78000 1.445
66.80000 1.212
66.82000 3.674
66.84000 4.677
66.86000 5.520
66.88000 6.010
66.90000 1.840
66.92000 4.903
66.94000 6.556
66.96000 6.721
66.98000 5.301
67.00000 7.317
67.02000 5.793
67.04000 6.789
67.06000 6.352
67.08000 3.419
67.10000 6.965
67.12000 11.851
67.14000 12.058
67.16000 9.992
67.18000 13.447
67.20000 11.239
67.22000 11.726
67.24000 11.101
67.26000 8.228
67.28000 15.464
67.30000 14.236
67.32000 9.587
67.34000 9.614
67.36000 10.061
67.38000 13.589
67.40000 17.150
67.42000 15.365
67.44000 7.759
67.46000 13.702
67.48000 16.408
67.50000 13.806
67.52000 12.544
67.54000 11.116
67.56000 15.458
67.58000 16.391
67.60000 19.709
67.62000 20.094
67.64000 15.480
67.66000 15.421
67.68000 15.581
67.70000 16.966
67.72000 17.775
67.74000 19.928
67.76000 20.610
67.78000 19.392
67.80000 20.400
67.82000 15.741
67.84000 15.864
67.86000 19.497
67.88000 18.282
67.90000 17.914
67.92000 21.648
67.94000 19.683
67.96000 18.151
67.98000 21.401
68.00000 23.877
68.02000 22.772
68.04000 20.963
68.06000 21.795
68.08000 22.836
68.10000 21.757
68.12000 21.873
68.14000 27.534
68.16000 22.882
68.18000 19.667
68.20000 20.432
68.22000 24.009
68.24000 26.750
68.26000 21.835
68.28000 22.242
68.30000 25.193
68.32000 25.750
68.34000 22.217
68.36000 19.854
68.38000 21.922
68.40000 22.524
68.42000 19.435
68.44000 23.872
68.46000 22.499
68.48000 21.475
68.50000 21.052
68.52000 17.891
68.54000 16.059
68.56000 17.022
68.58000 17.025
68.60000 16.271
68.62000 13.979
68.64000 14.206
68.66000 14.363
68.68000 19.223
68.70000 14.606
68.72000 10.255
68.74000 7.844
68.76000 12.336
68.78000 13.073
68.80000 12.469
68.82000 13.741
68.84000 10.417
68.86000 12.310
68.88000 15.206
68.90000 17.090
68.92000 8.669
68.94000 5.706
68.96000 7.762
68.98000 8.085
69.00000 7.547
69.02000 7.863
69.04000 7.080
69.06000 7.420
69.08000 6.228
69.10000 4.958
69.12000 2.496
69.14000 7.311
69.16000 6.792
69.18000 4.079
69.20000 3.761
69.22000 5.217
69.24000 3.603
69.26000 2.159
69.28000 5.419
69.30000 5.470
69.32000 10.108
69.34000 6.325
69.36000 0.935
69.38000 1.566
69.40000 5.471
69.42000 6.303
69.44000 4.764
69.46000 6.260
69.48000 4.609
69.50000 3.258
69.52000 2.039
69.54000 0.960
69.56000 1.701
69.58000 0.376
69.60000 0.315
69.62000 4.063
69.64000 7.909
69.66000 -0.318
69.68000 -2.655
69.70000 0.088
69.72000 1.126
69.74000 0.035
69.76000 1.493
69.78000 1.991
69.80000 7.863
69.82000 1.049
69.84000 0.678
69.86000 0.683
69.88000 -2.640
69.90000 1.984
69.92000 0.410
69.94000 1.007
69.96000 2.094
69.98000 0.579
70.00000 3.101
70.02000 3.314
70.04000 2.316
70.06000 1.958
70.08000 2.987
70.10000 3.546
70.12000 4.719
70.14000 1.990
70.16000 1.100
70.18000 -0.036
70.20000 -0.544
70.22000 1.648
70.24000 4.093
70.26000 4.081
70.28000 -2.608
70.30000 -1.303
70.32000 1.895
70.34000 7.504
70.36000 1.654
70.38000 0.421
70.40000 -1.053
70.42000 2.087
70.44000 5.407
70.46000 5.524
70.48000 4.174
70.50000 3.803
70.52000 -0.828
70.54000 2.090
70.56000 6.754
70.58000 3.538
70.60000 1.126
70.62000 1.701
70.64000 1.886
70.66000 3.258
70.68000 0.129
70.70000 3.486
70.72000 4.242
70.74000 3.278
70.76000 -2.577
70.78000 -1.133
70.80000 1.781
70.82000 4.811
70.84000 4.651
70.86000 3.912
70.88000 0.718
70.90000 4.438
70.92000 4.855
70.94000 1.420
70.96000 -0.164
70.98000 2.365
71.00000 2.881
71.02000 -0.952
71.04000 -2.196
71.06000 -2.328
71.08000 2.527
71.10000 3.682
71.12000 -2.554
71.14000 4.441
71.16000 3.858
71.18000 -1.732
71.20000 6.105
71.22000 5.230
71.24000 1.044
71.26000 -0.351
71.28000 -1.350
71.30000 3.221
71.32000 5.140
71.34000 3.409
71.36000 0.530
71.38000 2.111
71.40000 2.422
71.42000 1.707
71.44000 0.760
71.46000 2.333
71.48000 5.036
71.50000 -0.255
71.52000 1.616
71.54000 3.405
71.56000 2.160
71.58000 6.738
71.60000 4.060
71.62000 0.130
71.64000 2.615
71.66000 6.217
71.68000 2.644
71.70000 5.738
71.72000 5.618
71.74000 1.700
71.76000 1.548
71.78000 1.010
71.80000 3.974
71.82000 5.079
71.84000 2.658
71.86000 -0.004
71.88000 -1.892
71.90000 2.636
71.92000 4.953
71.94000 -0.347
71.96000 0.382
71.98000 4.964
72.00000 3.765
72.02000 2.692
72.04000 1.659
72.06000 3.463
72.08000 1.910
72.10000 -1.021
72.12000 -2.350
72.14000 2.601
72.16000 3.621
72.18000 5.251
72.20000 5.029
72.22000 7.367
72.24000 1.866
72.26000 1.877
72.28000 -1.560
72.30000 1.645
72.32000 2.027
72.34000 2.478
72.36000 5.525
72.38000 4.861
72.40000 1.324
72.42000 -0.152
72.44000 -2.517
72.46000 2.579
72.48000 2.291
72.50000 2.342
72.52000 2.262
72.54000 4.495
72.56000 2.808
72.58000 4.010
72.60000 -2.025
72.62000 -0.395
72.64000 1.224
72.66000 3.377
72.68000 2.686
72.70000 4.978
72.72000 1.648
72.74000 1.803
72.76000 -0.642
72.78000 -0.053
72.80000 2.894
72.82000 0.578
72.84000 3.040
72.86000 2.419
72.88000 0.600
72.90000 1.830
72.92000 7.473
72.94000 4.911
72.96000 2.410
72.98000 0.943
73.00000 0.520
73.02000 -0.510
73.04000 1.475
73.06000 2.192
73.08000 3.445
73.10000 3.774
73.12000 4.138
73.14000 -0.518
73.16000 -0.282
73.18000 1.669
73.20000 5.488
73.22000 2.685
73.24000 5.068
73.26000 9.437
73.28000 0.875
73.30000 2.945
73.32000 8.815
73.34000 9.114
73.36000 5.192
73.38000 1.758
73.40000 1.185
73.42000 2.483
73.44000 3.352
73.46000 8.071
73.48000 8.219
73.50000 3.678
73.52000 4.585
73.54000 7.848
73.56000 -0.314
73.58000 -2.449
73.60000 1.365
73.62000 7.955
73.64000 9.290
73.66000 3.907
73.68000 3.967
73.70000 3.903
73.72000 9.642
73.74000 9.104
73.76000 1.566
73.78000 -2.095
73.80000 0.225
73.82000 0.873
73.84000 2.027
73.86000 1.933
73.88000 3.038
73.90000 4.999
73.92000 2.883
73.94000 -2.395
73.96000 0.221
73.98000 3.923
74.00000 6.202
74.02000 6.972
74.04000 2.035
74.06000 5.461
74.08000 8.133
74.10000 1.520
74.12000 4.299
74.14000 6.288
74.16000 7.832
74.18000 4.598
74.20000 -0.699
74.22000 2.043
74.24000 3.904
74.26000 3.170
74.28000 6.564
74.30000 3.997
74.32000 1.357
74.34000 3.256
74.36000 8.516
74.38000 4.854
74.40000 3.492
74.42000 8.642
74.44000 6.453
74.46000 1.003
74.48000 1.909
74.50000 7.797
74.52000 5.938
74.54000 3.264
74.56000 -0.120
74.58000 2.757
74.60000 7.462
74.62000 9.203
74.64000 5.580
74.66000 -0.288
74.68000 -2.355
74.70000 -0.327
74.72000 3.801
74.74000 5.924
74.76000 6.647
74.78000 8.990
74.80000 3.803
74.82000 3.950
74.84000 9.715
74.86000 6.205
74.88000 1.438
74.90000 5.230
74.92000 4.305
74.94000 3.292
74.96000 7.930
74.98000 2.627
75.00000 -2.425
75.02000 3.237
75.04000 3.617
75.06000 3.139
75.08000 3.204
75.10000 3.313
75.12000 6.512
75.14000 2.006
75.16000 1.488
75.18000 9.099
75.20000 13.063
75.22000 6.093
75.24000 5.456
75.26000 5.399
75.28000 8.690
75.30000 7.902
75.32000 6.492
75.34000 7.614
75.36000 5.372
75.38000 7.487
75.40000 5.972
75.42000 2.944
75.44000 5.844
75.46000 7.499
75.48000 1.433
75.50000 4.358
75.52000 9.564
75.54000 5.578
75.56000 1.113
75.58000 2.903
75.60000 3.845
75.62000 7.795
75.64000 3.920
75.66000 0.673
75.68000 3.465
75.70000 3.890
75.72000 6.941
75.74000 7.376
75.76000 9.201
75.78000 7.756
75.80000 3.246
75.82000 2.772
75.84000 6.899
75.86000 12.201
75.88000 10.094
75.90000 8.670
75.92000 5.051
75.94000 1.906
75.96000 3.470
75.98000 6.836
76.00000 1.217
76.02000 4.171
76.04000 1.831
76.06000 -0.512
76.08000 0.040
76.10000 3.966
76.12000 11.387
76.14000 5.504
76.16000 -2.458
76.18000 0.821
76.20000 3.592
76.22000 -0.370
76.24000 0.033
76.26000 6.966
76.28000 6.310
76.30000 9.270
76.32000 11.912
76.34000 3.716
76.36000 3.620
76.38000 3.383
76.40000 5.913
76.42000 4.700
76.44000 -2.324
76.46000 0.161
76.48000 0.822
76.50000 7.252
76.52000 3.380
76.54000 3.770
76.56000 5.045
76.58000 1.246
76.60000 5.506
76.62000 2.691
76.64000 5.343
76.66000 5.103
76.68000 8.494
76.70000 6.799
76.72000 5.016
76.74000 0.563
76.76000 3.062
76.78000 7.340
76.80000 6.698
76.82000 7.826
76.84000 7.219
76.86000 2.584
76.88000 2.331
76.90000 7.052
76.92000 7.852
76.94000 4.247
76.96000 0.557
76.98000 5.672
77.00000 4.874
77.02000 8.085
77.04000 3.328
77.06000 2.323
77.08000 4.528
77.10000 6.211
77.12000 5.723
77.14000 9.834
77.16000 6.905
77.18000 3.009
77.20000 -0.941
77.22000 1.462
77.24000 6.081
77.26000 8.922
77.28000 6.267
77.30000 1.984
77.32000 8.863
77.34000 6.575
77.36000 7.520
77.38000 12.076
77.40000 10.224
77.42000 1.778
77.44000 -2.461
77.46000 -2.110
77.48000 1.827
77.50000 3.952
77.52000 9.202
77.54000 5.922
77.56000 4.097
77.58000 2.731
77.60000 2.048
77.62000 3.469
77.64000 7.843
77.66000 6.422
77.68000 6.164
77.70000 2.843
77.72000 -0.512
77.74000 1.175
77.76000 3.004
77.78000 3.252
77.80000 7.880
77.82000 6.861
77.84000 13.765
77.86000 11.530
77.88000 3.059
77.90000 6.617
77.92000 7.890
77.94000 6.648
77.96000 2.591
77.98000 4.620
78.00000 -0.431
78.02000 4.260
78.04000 6.350
78.06000 7.152
78.08000 7.175
78.10000 3.576
78.12000 11.372
78.14000 10.662
78.16000 10.101
78.18000 6.332
78.20000 -0.384
78.22000 4.141
78.24000 4.651
78.26000 6.566
78.28000 5.757
78.30000 4.302
78.32000 6.925
78.34000 5.672
78.36000 3.822
78.38000 4.134
78.40000 4.794
78.42000 4.366
78.44000 9.604
78.46000 8.861
78.48000 7.382
78.50000 0.637
78.52000 0.122
78.54000 1.863
78.56000 5.533
78.58000 9.145
78.60000 7.843
78.62000 8.299
78.64000 4.937
78.66000 2.237
78.68000 2.160
78.70000 6.274
78.72000 10.848
78.74000 7.277
78.76000 4.186
78.78000 5.566
78.80000 5.610
78.82000 -0.265
78.84000 -2.549
78.86000 2.014
78.88000 7.853
78.90000 4.921
78.92000 2.300
78.94000 2.198
78.96000 -0.084
78.98000 2.437
79.00000 3.654
79.02000 1.086
79.04000 3.662
79.06000 5.420
79.08000 3.408
79.10000 5.772
79.12000 5.873
79.14000 0.136
79.16000 1.946
79.18000 -0.058
79.20000 0.648
79.22000 0.962
79.24000 2.807
79.26000 2.958
79.28000 1.461
79.30000 5.584
79.32000 8.584
79.34000 7.976
79.36000 3.901
79.38000 2.183
79.40000 -0.440
79.42000 5.045
79.44000 3.024
79.46000 2.035
79.48000 3.881
79.50000 7.874
79.52000 6.549
79.54000 1.515
79.56000 2.652
79.58000 3.515
79.60000 0.634
79.62000 10.027
79.64000 7.534
79.66000 3.521
79.68000 2.515
79.70000 1.898
79.72000 0.359
79.74000 1.745
79.76000 2.607
79.78000 1.232
79.80000 2.692
79.82000 4.590
79.84000 1.501
79.86000 1.156
79.88000 4.272
79.90000 0.509
79.92000 3.899
79.94000 3.283
79.96000 2.921
79.98000 3.258
80.00000 1.266
80.02000 3.757
80.04000 -2.618
80.06000 1.390
80.08000 7.447
80.10000 7.031
80.12000 7.056
80.14000 4.900
80.16000 -0.348
80.18000 2.618
80.20000 9.825
80.22000 11.148
80.24000 8.854
80.26000 8.932
80.28000 6.382
80.30000 7.199
80.32000 10.016
80.34000 6.214
80.36000 1.435
80.38000 0.824
80.40000 6.166
80.42000 4.467
80.44000 10.654
80.46000 8.600
80.48000 7.591
80.50000 11.124
80.52000 9.595
80.54000 9.915
80.56000 11.029
80.58000 9.197
80.60000 8.741
80.62000 7.375
80.64000 6.851
80.66000 2.312
80.68000 4.437
80.70000 7.411
80.72000 5.813
80.74000 8.460
80.76000 9.211
80.78000 7.075
80.80000 -0.542
80.82000 1.829
80.84000 2.793
80.86000 4.826
80.88000 5.744
80.90000 7.476
80.92000 6.697
80.94000 9.128
80.96000 9.133
80.98000 10.409
81.00000 6.352
81.02000 5.195
81.04000 11.129
81.06000 10.597
81.08000 12.273
81.10000 10.389
81.12000 11.621
81.14000 9.730
81.16000 12.602
81.18000 14.009
81.20000 16.893
81.22000 16.233
81.24000 13.559
81.26000 13.396
81.28000 16.870
81.30000 11.217
81.32000 10.587
81.34000 17.614
81.36000 15.203
81.38000 14.823
81.40000 16.107
81.42000 19.273
81.44000 22.740
81.46000 17.240
81.48000 16.120
81.50000 13.015
81.52000 18.643
81.54000 18.070
81.56000 18.499
81.58000 28.095
81.60000 23.718
81.62000 14.279
81.64000 9.035
81.66000 18.418
81.68000 22.830
81.70000 19.029
81.72000 18.364
81.74000 19.404
81.76000 17.523
81.78000 16.021
81.80000 18.320
81.82000 14.165
81.84000 19.602
81.86000 17.643
81.88000 15.953
81.90000 16.379
81.92000 22.498
81.94000 22.464
81.96000 26.985
81.98000 28.415
82.00000 25.210
82.02000 22.074
82.04000 25.569
82.06000 23.559
82.08000 22.143
82.10000 23.938
82.12000 20.499
82.14000 20.612
82.16000 20.386
82.18000 26.513
82.20000 26.277
82.22000 22.316
82.24000 25.623
82.26000 25.197
82.28000 23.011
82.30000 21.810
82.32000 22.484
82.34000 27.152
82.36000 22.803
82.38000 23.442
82.40000 26.692
82.42000 22.794
82.44000 18.630
82.46000 19.804
82.48000 22.062
82.50000 26.397
82.52000 26.354
82.54000 28.577
82.56000 20.322
82.58000 18.239
82.60000 20.292
82.62000 21.885
82.64000 24.904
82.66000 30.384
82.68000 23.633
82.70000 17.287
82.72000 18.023
82.74000 15.188
82.76000 17.190
82.78000 22.717
82.80000 17.922
82.82000 18.245
82.84000 20.283
82.86000 25.444
82.88000 24.233
82.90000 14.255
82.92000 13.311
82.94000 16.072
82.96000 15.883
82.98000 12.971
83.00000 14.571
83.02000 14.677
83.04000 11.713
83.06000 11.541
83.08000 9.804
83.10000 10.947
83.12000 12.433
83.14000 7.111
83.16000 8.948
83.18000 6.979
83.20000 10.776
83.22000 10.888
83.24000 11.161
83.26000 8.044
83.28000 4.728
83.30000 8.024
83.32000 9.701
83.34000 11.947
83.36000 12.801
83.38000 7.376
83.40000 2.435
83.42000 5.301
83.44000 7.673
83.46000 4.890
83.48000 5.943
83.50000 6.825
83.52000 5.093
83.54000 2.804
83.56000 0.315
83.58000 0.458
83.60000 4.366
83.62000 9.137
83.64000 4.922
83.66000 2.247
83.68000 7.006
83.70000 8.350
83.72000 12.003
83.74000 7.365
83.76000 11.339
83.78000 4.110
83.80000 6.550
83.82000 2.035
83.84000 3.520
83.86000 7.259
83.88000 5.518
83.90000 5.216
83.92000 5.540
83.94000 3.978
83.96000 5.746
83.98000 6.132
84.00000 6.289
84.02000 8.927
84.04000 8.637
84.06000 5.297
84.08000 1.669
84.10000 -0.494
84.12000 -1.972
84.14000 -2.654
84.16000 -0.244
84.18000 5.352
84.20000 8.958
84.22000 1.636
84.24000 -0.001
84.26000 0.649
84.28000 -1.481
84.30000 4.705
84.32000 2.302
84.34000 8.011
84.36000 7.564
84.38000 2.910
84.40000 2.732
84.42000 2.797
84.44000 0.316
84.46000 -2.625
84.48000 -0.385
84.50000 -1.732
84.52000 -2.619
84.54000 3.156
84.56000 7.791
84.58000 3.403
84.60000 0.478
84.62000 4.599
84.64000 5.591
84.66000 4.291
84.68000 1.658
84.70000 5.462
84.72000 3.740
84.74000 2.578
84.76000 2.900
84.78000 4.012
84.80000 5.601
84.82000 1.184
84.84000 0.166
84.86000 5.248
84.88000 5.492
84.90000 2.396
84.92000 1.923
84.94000 -2.557
84.96000 -0.261
84.98000 2.962
85.00000 8.684
85.02000 3.036
85.04000 1.695
85.06000 6.641
85.08000 4.256
85.10000 4.184
85.12000 5.352
85.14000 7.029
85.16000 4.470
85.18000 4.099
85.20000 2.916
85.22000 1.909
85.24000 3.953
85.26000 5.852
85.28000 4.689
85.30000 3.993
85.32000 5.460
85.34000 8.051
85.36000 8.237
85.38000 2.423
85.40000 1.254
85.42000 0.039
85.44000 3.090
85.46000 2.648
85.48000 7.894
85.50000 9.497
85.52000 6.246
85.54000 4.900
85.56000 7.702
85.58000 5.312
85.60000 8.377
85.62000 11.114
85.64000 12.285
85.66000 8.683
85.68000 6.340
85.70000 6.331
85.72000 9.004
85.74000 7.777
85.76000 10.400
85.78000 14.405
85.80000 8.765
85.82000 9.961
85.84000 15.365
85.86000 21.678
85.88000 16.933
85.90000 19.006
85.92000 17.573
85.94000 22.112
85.96000 22.454
85.98000 22.018
86.00000 18.765
86.02000 19.155
86.04000 21.077
86.06000 20.286
86.08000 27.227
86.10000 27.808
86.12000 21.964
86.14000 22.517
86.16000 25.423
86.18000 29.975
86.20000 27.082
86.22000 26.161
86.24000 28.750
86.26000 31.565
86.28000 29.802
86.30000 24.673
86.32000 26.558
86.34000 27.334
86.36000 28.210
86.38000 28.799
86.40000 33.069
86.42000 33.042
86.44000 24.653
86.46000 28.745
86.48000 26.147
86.50000 24.022
86.52000 25.177
86.54000 29.887
86.56000 30.525
86.58000 30.098
86.60000 29.249
86.62000 25.777
86.64000 31.633
86.66000 33.069
86.68000 31.428
86.70000 25.126
86.72000 28.849
86.74000 27.661
86.76000 22.652
86.78000 20.315
86.80000 26.964
86.82000 29.543
86.84000 28.100
86.86000 30.209
86.88000 24.973
86.90000 27.328
86.92000 27.237
86.94000 23.057
86.96000 29.807
86.98000 27.320
87.00000 28.801
87.02000 21.501
87.04000 26.538
87.06000 15.247
87.08000 14.344
87.10000 19.898
87.12000 18.076
87.14000 16.413
87.16000 20.746
87.18000 26.168
87.20000 22.516
87.22000 21.249
87.24000 17.495
87.26000 12.239
87.28000 15.879
87.30000 14.120
87.32000 13.733
87.34000 15.641
87.36000 14.012
87.38000 13.348
87.40000 13.525
87.42000 12.337
87.44000 13.768
87.46000 14.738
87.48000 15.184
87.50000 11.746
87.52000 11.631
87.54000 6.492
87.56000 7.959
87.58000 9.353
87.60000 12.228
87.62000 10.557
87.64000 11.153
87.66000 8.069
87.68000 8.348
87.70000 1.906
87.72000 3.599
87.74000 3.864
87.76000 4.055
87.78000 4.652
87.80000 9.316
87.82000 8.271
87.84000 10.896
87.86000 12.249
87.88000 6.567
87.90000 4.417
87.92000 3.482
87.94000 2.471
87.96000 2.536
87.98000 4.313
88.00000 5.846
88.02000 10.474
88.04000 9.710
88.06000 5.606
88.08000 10.269
88.10000 9.417
88.12000 2.127
88.14000 -0.185
88.16000 -0.746
88.18000 1.539
88.20000 3.271
88.22000 4.557
88.24000 1.991
88.26000 -0.723
88.28000 2.421
88.30000 2.863
88.32000 6.682
88.34000 5.735
88.36000 3.958
88.38000 3.186
88.40000 0.074
88.42000 -2.459
88.44000 0.011
88.46000 0.037
88.48000 3.664
88.50000 -0.412
88.52000 2.925
88.54000 3.233
88.56000 1.676
88.58000 8.883
88.60000 7.931
88.62000 3.131
88.64000 1.551
88.66000 -0.216
88.68000 2.434
88.70000 2.202
88.72000 -2.261
88.74000 3.833
88.76000 5.289
88.78000 0.756
88.80000 -0.163
88.82000 1.954
88.84000 1.175
88.86000 7.768
88.88000 7.921
88.90000 5.670
88.92000 3.528
88.94000 2.107
88.96000 -0.722
88.98000 -0.305
89.00000 4.133
89.02000 5.159
89.04000 1.780
89.06000 3.806
89.08000 8.685
89.10000 3.696
89.12000 -0.161
89.14000 -2.346
89.16000 1.760
89.18000 2.749
89.20000 4.089
89.22000 1.984
89.24000 2.050
89.26000 3.961
89.28000 5.109
89.30000 -1.526
89.32000 1.930
89.34000 11.756
89.36000 8.062
89.38000 1.523
89.40000 -1.587
89.42000 4.834
89.44000 6.749
89.46000 5.279
89.48000 5.187
89.50000 6.882
89.52000 5.221
89.54000 2.451
89.56000 4.738
89.58000 5.699
89.60000 8.828
89.62000 5.275
89.64000 1.732
89.66000 1.386
89.68000 2.802
89.70000 10.257
89.72000 6.558
89.74000 4.424
89.76000 8.269
89.78000 1.136
89.80000 2.903
89.82000 2.913
89.84000 -1.910
89.86000 -1.102
89.88000 2.117
89.90000 0.087
89.92000 3.971
89.94000 5.898
89.96000 4.322
89.98000 4.259
90.00000 2.626
90.02000 0.980
90.04000 4.199
90.06000 4.888
90.08000 3.954
90.10000 8.539
90.12000 3.882
90.14000 6.304
90.16000 2.227
90.18000 -2.314
90.20000 4.432
90.22000 6.578
90.24000 7.430
90.26000 4.851
90.28000 0.899
90.30000 2.133
90.32000 1.908
90.34000 1.566
90.36000 1.273
90.38000 6.924
90.40000 9.243
90.42000 4.258
90.44000 8.554
90.46000 6.086
90.48000 2.181
90.50000 3.110
90.52000 1.895
90.54000 5.228
90.56000 5.810
90.58000 3.575
90.60000 5.163
90.62000 4.744
90.64000 5.184
90.66000 8.228
90.68000 11.755
90.70000 6.978
90.72000 1.402
90.74000 2.221
90.76000 7.869
90.78000 4.021
90.80000 5.658
90.82000 3.822
90.84000 8.219
90.86000 9.763
90.88000 9.348
90.90000 3.239
90.92000 3.252
90.94000 6.863
90.96000 5.374
90.98000 5.460
91.00000 3.373
91.02000 2.916
91.04000 2.496
91.06000 -0.713
91.08000 0.458
91.10000 2.518
91.12000 4.410
91.14000 2.885
91.16000 8.834
91.18000 11.274
91.20000 8.018
91.22000 6.017
91.24000 9.605
91.26000 11.713
91.28000 6.985
91.30000 3.442
91.32000 -2.281
91.34000 3.941
91.36000 7.181
91.38000 9.421
91.40000 9.904
91.42000 7.471
91.44000 3.407
91.46000 1.380
91.48000 4.602
91.50000 5.585
91.52000 11.413
91.54000 5.945
91.56000 5.249
91.58000 5.332
91.60000 3.234
91.62000 7.299
91.64000 8.129
91.66000 7.992
91.68000 5.613
91.70000 3.881
91.72000 6.192
91.74000 6.091
91.76000 2.561
91.78000 3.814
91.80000 4.033
91.82000 6.844
91.84000 9.403
91.86000 6.142
91.88000 2.583
91.90000 4.271
91.92000 3.743
91.94000 6.984
91.96000 6.875
91.98000 3.923
92.00000 5.172
92.02000 3.586
92.04000 1.405
92.06000 3.977
92.08000 9.241
92.10000 2.774
92.12000 3.474
92.14000 2.004
92.16000 3.200
92.18000 2.661
92.20000 2.894
92.22000 3.016
92.24000 3.348
92.26000 2.573
92.28000 2.176
92.30000 2.384
92.32000 0.654
92.34000 -2.320
92.36000 3.772
92.38000 8.576
92.40000 6.525
92.42000 8.091
92.44000 3.786
92.46000 1.847
92.48000 3.480
92.50000 5.766
92.52000 2.422
92.54000 7.900
92.56000 8.677
92.58000 3.956
92.60000 -1.462
92.62000 0.716
92.64000 5.195
92.66000 7.859
92.68000 4.638
92.70000 0.284
92.72000 6.580
92.74000 2.034
92.76000 0.922
92.78000 6.232
92.80000 13.033
92.82000 8.690
92.84000 3.659
92.86000 5.986
92.88000 6.895
92.90000 3.919
92.92000 6.733
92.94000 5.792
92.96000 7.358
92.98000 5.951
93.00000 3.376
93.02000 1.314
93.04000 3.250
93.06000 -0.072
93.08000 3.495
93.10000 5.661
93.12000 1.482
93.14000 -0.854
93.16000 1.266
93.18000 5.875
93.20000 5.337
93.22000 8.075
93.24000 6.202
93.26000 4.476
93.28000 0.978
93.30000 4.588
93.32000 4.232
93.34000 4.389
93.36000 1.186
93.38000 3.767
93.40000 2.631
93.42000 7.204
93.44000 6.438
93.46000 2.036
93.48000 3.040
93.50000 5.434
93.52000 7.849
93.54000 6.339
93.56000 1.901
93.58000 2.472
93.60000 4.051
93.62000 2.887
93.64000 4.410
93.66000 6.756
93.68000 6.072
93.70000 2.270
93.72000 -0.464
93.74000 6.016
93.76000 6.625
93.78000 8.737
93.80000 5.767
93.82000 7.135
93.84000 9.995
93.86000 7.866
93.88000 5.148
93.90000 3.195
93.92000 1.352
93.94000 -1.791
93.96000 4.044
93.98000 6.362
94.00000 4.582
94.02000 11.248
94.04000 14.237
94.06000 4.115
94.08000 9.652
94.10000 -1.700
94.12000 -2.304
94.14000 0.834
94.16000 -0.884
94.18000 2.727
94.20000 4.780
94.22000 6.537
94.24000 9.871
94.26000 12.157
94.28000 4.985
94.30000 1.972
94.32000 1.977
94.34000 6.695
94.36000 3.581
94.38000 2.037
94.40000 3.859
94.42000 9.729
94.44000 11.753
94.46000 11.169
94.48000 9.476
94.50000 1.979
94.52000 3.679
94.54000 2.717
94.56000 2.157
94.58000 4.589
94.60000 4.313
94.62000 3.892
94.64000 2.837
94.66000 3.427
94.68000 7.059
94.70000 6.905
94.72000 6.608
94.74000 4.785
94.76000 2.234
94.78000 6.845
94.80000 6.974
94.82000 4.402
94.84000 3.948
94.86000 6.460
94.88000 9.310
94.90000 4.355
94.92000 -1.879
94.94000 1.032
94.96000 1.410
94.98000 0.425
95.00000 3.665
95.02000 1.245
95.04000 0.271
95.06000 1.582
95.08000 3.304
95.10000 2.151
95.12000 8.212
95.14000 1.773
95.16000 0.579
95.18000 0.659
95.20000 1.940
95.22000 5.739
95.24000 6.314
95.26000 1.319
95.28000 1.841
95.30000 5.303
95.32000 8.884
95.34000 10.104
95.36000 8.995
95.38000 9.095
95.40000 11.069
95.42000 5.302
95.44000 2.465
95.46000 1.391
95.48000 1.893
95.50000 2.193
95.52000 4.323
95.54000 8.617
95.56000 6.678
95.58000 -1.507
95.60000 -1.226
95.62000 5.293
95.64000 4.677
95.66000 9.787
95.68000 0.881
95.70000 1.855
95.72000 3.260
95.74000 2.497
95.76000 3.767
95.78000 5.511
95.80000 0.033
95.82000 -0.705
95.84000 5.889
95.86000 6.912
95.88000 11.039
95.90000 11.998
95.92000 9.490
95.94000 -1.101
95.96000 2.738
95.98000 8.373
96.00000 9.282
96.02000 4.715
96.04000 9.432
96.06000 4.865
96.08000 2.137
96.10000 7.257
96.12000 10.870
96.14000 -0.570
96.16000 0.504
96.18000 6.763
96.20000 7.867
96.22000 7.023
96.24000 10.416
96.26000 8.495
96.28000 -1.401
96.30000 4.585
96.32000 0.601
96.34000 6.727
96.36000 8.548
96.38000 10.362
96.40000 5.309
96.42000 5.115
96.44000 2.351
96.46000 8.429
96.48000 14.309
96.50000 4.652
96.52000 7.973
96.54000 11.001
96.56000 6.216
96.58000 -2.273
96.60000 4.240
96.62000 4.956
96.64000 8.472
96.66000 4.196
96.68000 5.980
96.70000 11.557
96.72000 15.468
96.74000 10.685
96.76000 8.235
96.78000 4.961
96.80000 7.568
96.82000 8.137
96.84000 9.040
96.86000 7.739
96.88000 13.585
96.90000 12.460
96.92000 10.671
96.94000 3.401
96.96000 5.484
96.98000 11.836
97.00000 11.187
97.02000 10.658
97.04000 13.965
97.06000 10.722
97.08000 9.284
97.10000 8.262
97.12000 2.412
97.14000 3.024
97.16000 6.996
97.18000 8.284
97.20000 7.109
97.22000 9.710
97.24000 4.587
97.26000 11.248
97.28000 11.799
97.30000 11.622
97.32000 7.708
97.34000 7.279
97.36000 4.132
97.38000 4.600
97.40000 5.709
97.42000 12.884
97.44000 9.007
97.46000 5.951
97.48000 4.627
97.50000 12.469
97.52000 12.666
97.54000 8.188
97.56000 8.830
97.58000 4.576
97.60000 0.912
97.62000 2.842
97.64000 7.538
97.66000 6.393
97.68000 2.407
97.70000 12.739
97.72000 13.207
97.74000 13.191
97.76000 5.922
97.78000 5.729
97.80000 10.189
97.82000 8.836
97.84000 6.395
97.86000 10.953
97.88000 6.996
97.90000 3.868
97.92000 1.715
97.94000 5.375
97.96000 10.015
97.98000 4.374
98.00000 11.008
98.02000 9.069
98.04000 13.345
98.06000 8.018
98.08000 7.945
98.10000 4.876
98.12000 7.779
98.14000 17.947
98.16000 6.247
98.18000 -1.002
98.20000 -0.345
98.22000 -2.295
98.24000 4.977
98.26000 2.413
98.28000 4.850
98.30000 9.782
98.32000 13.040
98.34000 4.650
98.36000 5.891
98.38000 5.264
98.40000 2.275
98.42000 1.082
98.44000 4.117
98.46000 -0.908
98.48000 -2.289
98.50000 6.285
98.52000 9.743
98.54000 7.096
98.56000 6.593
98.58000 3.263
98.60000 5.832
98.62000 10.460
98.64000 10.229
98.66000 15.172
98.68000 11.225
98.70000 6.102
98.72000 1.349
98.74000 5.262
98.76000 5.795
98.78000 10.266
98.80000 5.183
98.82000 3.285
98.84000 6.217
98.86000 11.344
98.88000 9.889
98.90000 5.244
98.92000 6.455
98.94000 6.049
98.96000 9.304
98.98000 14.235
99.00000 6.718
99.02000 3.619
99.04000 3.230
99.06000 10.097
99.08000 13.535
99.10000 14.164
99.12000 17.236
99.14000 16.062
99.16000 5.086
99.18000 7.901
99.20000 7.775
99.22000 18.543
99.24000 15.870
99.26000 16.230
99.28000 11.755
99.30000 10.737
99.32000 18.211
99.34000 17.018
99.36000 16.391
99.38000 17.490
99.40000 8.342
99.42000 -5.850
99.44000 2.835
99.46000 9.941
99.48000 11.163
99.50000 13.493
99.52000 9.853
99.54000 13.590
99.56000 10.664
99.58000 14.350
99.60000 11.750
99.62000 5.797
99.64000 6.233
99.66000 10.245
99.68000 12.530
99.70000 4.624
99.72000 -2.283
99.74000 -1.167
99.76000 -2.550
99.78000 13.952
99.80000 8.839
99.82000 6.532
99.84000 13.609
99.86000 6.017
99.88000 -6.006
99.90000 4.067
99.92000 7.845
99.94000 -2.503
99.96000 -2.618
99.98000 0.000
