'Id: "0011388" Comment: "Integrate frame 0011388_Au-Ir-Rh_Rh-rich_XRD-Mapping-234-0000.gfrmwith cursor Wedge Cursor #5" Operator: "B?rgel" Anode: "Cu" Wavelength: "1.5406" Scantype: "2Theta (TwoTheta)" TimePerStep: "1" X: "18" Y: "13.5" Z: "5.95" 
10.00000 0.000
10.02000 5.864
10.04000 -3.886
10.06000 -2.123
10.08000 2.745
10.10000 -1.330
10.12000 12.363
10.14000 9.950
10.16000 13.151
10.18000 -3.877
10.20000 2.889
10.22000 10.294
10.24000 18.435
10.26000 22.543
10.28000 23.655
10.30000 10.163
10.32000 16.814
10.34000 -3.910
10.36000 1.930
10.38000 1.611
10.40000 5.175
10.42000 7.839
10.44000 8.745
10.46000 15.182
10.48000 24.006
10.50000 24.964
10.52000 8.686
10.54000 9.525
10.56000 16.295
10.58000 14.747
10.60000 9.391
10.62000 3.141
10.64000 0.730
10.66000 4.766
10.68000 12.760
10.70000 17.087
10.72000 23.378
10.74000 21.291
10.76000 19.052
10.78000 16.522
10.80000 4.883
10.82000 17.166
10.84000 23.695
10.86000 5.003
10.88000 14.139
10.90000 27.955
10.92000 20.701
10.94000 0.272
10.96000 1.334
10.98000 -3.749
11.00000 9.285
11.02000 17.398
11.04000 0.965
11.06000 14.639
11.08000 17.737
11.10000 20.332
11.12000 21.984
11.14000 1.068
11.16000 3.275
11.18000 1.730
11.20000 13.081
11.22000 15.187
11.24000 23.236
11.26000 12.822
11.28000 7.507
11.30000 22.454
11.32000 15.326
11.34000 0.210
11.36000 5.385
11.38000 21.672
11.40000 16.418
11.42000 13.243
11.44000 3.170
11.46000 1.410
11.48000 2.111
11.50000 7.107
11.52000 17.131
11.54000 10.510
11.56000 15.273
11.58000 21.395
11.60000 17.427
11.62000 4.038
11.64000 8.425
11.66000 23.661
11.68000 27.449
11.70000 12.311
11.72000 15.153
11.74000 18.864
11.76000 5.638
11.78000 5.225
11.80000 12.176
11.82000 6.715
11.84000 3.389
11.86000 14.972
11.88000 18.915
11.90000 25.055
11.92000 24.028
11.94000 13.847
11.96000 9.664
11.98000 16.399
12.00000 18.319
12.02000 19.045
12.04000 19.158
12.06000 23.350
12.08000 18.299
12.10000 19.649
12.12000 14.927
12.14000 11.919
12.16000 14.868
12.18000 21.469
12.20000 23.809
12.22000 11.431
12.24000 9.775
12.26000 21.490
12.28000 19.400
12.30000 19.654
12.32000 28.304
12.34000 28.346
12.36000 22.038
12.38000 17.147
12.40000 15.534
12.42000 19.931
12.44000 16.888
12.46000 20.164
12.48000 6.933
12.50000 13.700
12.52000 19.786
12.54000 14.343
12.56000 22.913
12.58000 25.459
12.60000 24.067
12.62000 18.868
12.64000 20.650
12.66000 24.033
12.68000 20.173
12.70000 6.001
12.72000 7.146
12.74000 17.385
12.76000 15.932
12.78000 10.310
12.80000 25.892
12.82000 21.064
12.84000 25.164
12.86000 19.119
12.88000 16.256
12.90000 24.996
12.92000 16.215
12.94000 7.502
12.96000 31.203
12.98000 29.492
13.00000 31.749
13.02000 24.275
13.04000 16.521
13.06000 16.669
13.08000 10.502
13.10000 17.866
13.12000 28.299
13.14000 28.624
13.16000 26.658
13.18000 22.027
13.20000 17.835
13.22000 23.457
13.24000 18.830
13.26000 8.131
13.28000 10.731
13.30000 16.725
13.32000 14.973
13.34000 14.486
13.36000 18.239
13.38000 13.789
13.40000 5.187
13.42000 9.519
13.44000 5.358
13.46000 12.146
13.48000 13.487
13.50000 15.012
13.52000 13.669
13.54000 14.333
13.56000 15.574
13.58000 16.019
13.60000 15.156
13.62000 15.151
13.64000 8.424
13.66000 13.888
13.68000 2.465
13.70000 -2.519
13.72000 6.938
13.74000 20.522
13.76000 27.574
13.78000 14.645
13.80000 5.653
13.82000 7.912
13.84000 6.204
13.86000 2.714
13.88000 9.295
13.90000 11.330
13.92000 20.036
13.94000 21.545
13.96000 7.728
13.98000 11.178
14.00000 15.451
14.02000 7.105
14.04000 6.455
14.06000 14.324
14.08000 22.773
14.10000 21.314
14.12000 11.638
14.14000 14.617
14.16000 9.703
14.18000 9.060
14.20000 10.107
14.22000 9.028
14.24000 16.862
14.26000 11.249
14.28000 9.498
14.30000 15.834
14.32000 16.625
14.34000 8.905
14.36000 8.253
14.38000 10.418
14.40000 15.788
14.42000 13.832
14.44000 14.177
14.46000 12.756
14.48000 8.887
14.50000 9.874
14.52000 9.336
14.54000 12.041
14.56000 12.122
14.58000 11.885
14.60000 10.454
14.62000 21.144
14.64000 15.111
14.66000 11.250
14.68000 11.017
14.70000 2.691
14.72000 -1.930
14.74000 2.138
14.76000 4.298
14.78000 8.618
14.80000 14.729
14.82000 14.648
14.84000 13.710
14.86000 17.609
14.88000 23.534
14.90000 20.086
14.92000 14.845
14.94000 6.242
14.96000 17.335
14.98000 14.596
15.00000 20.364
15.02000 19.924
15.04000 15.196
15.06000 14.376
15.08000 10.968
15.10000 9.132
15.12000 7.268
15.14000 2.848
15.16000 7.412
15.18000 5.146
15.20000 18.874
15.22000 10.916
15.24000 -1.021
15.26000 0.948
15.28000 15.101
15.30000 12.320
15.32000 8.087
15.34000 -0.556
15.36000 -0.970
15.38000 4.876
15.40000 -0.470
15.42000 -0.094
15.44000 19.253
15.46000 18.553
15.48000 7.738
15.50000 12.966
15.52000 11.875
15.54000 7.896
15.56000 1.947
15.58000 3.146
15.60000 13.028
15.62000 17.674
15.64000 22.778
15.66000 12.558
15.68000 8.757
15.70000 20.056
15.72000 16.360
15.74000 13.893
15.76000 3.731
15.78000 8.572
15.80000 9.309
15.82000 8.955
15.84000 10.147
15.86000 4.513
15.88000 6.678
15.90000 5.535
15.92000 8.337
15.94000 4.755
15.96000 6.087
15.98000 -0.544
16.00000 7.886
16.02000 8.160
16.04000 0.187
16.06000 2.145
16.08000 4.990
16.10000 0.423
16.12000 11.460
16.14000 7.062
16.16000 -0.484
16.18000 5.799
16.20000 6.779
16.22000 3.651
16.24000 5.691
16.26000 9.183
16.28000 11.155
16.30000 14.740
16.32000 9.052
16.34000 -2.578
16.36000 1.283
16.38000 2.439
16.40000 0.806
16.42000 2.173
16.44000 5.547
16.46000 1.208
16.48000 -0.437
16.50000 4.033
16.52000 3.724
16.54000 0.772
16.56000 -2.641
16.58000 1.338
16.60000 12.337
16.62000 10.544
16.64000 8.578
16.66000 -0.346
16.68000 -2.143
16.70000 1.258
16.72000 -2.585
16.74000 3.160
16.76000 10.135
16.78000 3.625
16.80000 5.688
16.82000 1.552
16.84000 8.582
16.86000 9.379
16.88000 10.650
16.90000 10.887
16.92000 8.268
16.94000 6.551
16.96000 4.172
16.98000 7.752
17.00000 3.608
17.02000 -1.401
17.04000 -1.984
17.06000 3.082
17.08000 5.738
17.10000 -0.464
17.12000 1.612
17.14000 4.208
17.16000 13.011
17.18000 10.488
17.20000 -0.112
17.22000 2.716
17.24000 3.648
17.26000 8.547
17.28000 8.135
17.30000 4.874
17.32000 -0.847
17.34000 1.232
17.36000 5.133
17.38000 10.687
17.40000 8.035
17.42000 5.711
17.44000 4.976
17.46000 -4.387
17.48000 -2.685
17.50000 5.816
17.52000 11.055
17.54000 14.721
17.56000 8.556
17.58000 4.490
17.60000 3.692
17.62000 0.310
17.64000 -2.298
17.66000 8.555
17.68000 12.015
17.70000 2.626
17.72000 -2.680
17.74000 5.658
17.76000 0.912
17.78000 -4.361
17.80000 0.563
17.82000 7.284
17.84000 6.781
17.86000 1.856
17.88000 2.439
17.90000 6.802
17.92000 3.237
17.94000 -1.715
17.96000 1.013
17.98000 1.049
18.00000 2.274
18.02000 -0.316
18.04000 -1.294
18.06000 -1.532
18.08000 -3.155
18.10000 7.958
18.12000 10.459
18.14000 8.630
18.16000 7.902
18.18000 11.236
18.20000 -1.963
18.22000 2.252
18.24000 10.606
18.26000 11.209
18.28000 7.374
18.30000 7.791
18.32000 11.078
18.34000 11.892
18.36000 7.357
18.38000 5.134
18.40000 -1.878
18.42000 -0.483
18.44000 6.597
18.46000 7.863
18.48000 6.972
18.50000 9.530
18.52000 8.009
18.54000 9.569
18.56000 0.075
18.58000 0.524
18.60000 -2.990
18.62000 2.266
18.64000 5.339
18.66000 4.350
18.68000 2.485
18.70000 8.659
18.72000 2.548
18.74000 -3.877
18.76000 -1.055
18.78000 1.532
18.80000 5.203
18.82000 5.410
18.84000 0.284
18.86000 4.936
18.88000 8.440
18.90000 11.538
18.92000 16.474
18.94000 11.338
18.96000 5.463
18.98000 -0.148
19.00000 -2.085
19.02000 6.603
19.04000 12.498
19.06000 3.486
19.08000 2.275
19.10000 5.239
19.12000 -0.620
19.14000 -2.945
19.16000 2.841
19.18000 9.603
19.20000 6.127
19.22000 6.154
19.24000 8.191
19.26000 6.848
19.28000 3.594
19.30000 6.014
19.32000 4.530
19.34000 7.824
19.36000 11.211
19.38000 6.389
19.40000 3.823
19.42000 7.697
19.44000 1.334
19.46000 -4.254
19.48000 -3.904
19.50000 1.715
19.52000 10.354
19.54000 18.364
19.56000 8.977
19.58000 6.321
19.60000 6.739
19.62000 9.509
19.64000 7.662
19.66000 -2.070
19.68000 5.189
19.70000 10.089
19.72000 2.057
19.74000 2.052
19.76000 8.833
19.78000 2.191
19.80000 -3.944
19.82000 1.883
19.84000 4.895
19.86000 12.338
19.88000 8.956
19.90000 2.477
19.92000 0.558
19.94000 4.577
19.96000 -1.762
19.98000 -0.600
20.00000 2.816
20.02000 -4.240
20.04000 -2.454
20.06000 1.192
20.08000 2.184
20.10000 1.817
20.12000 5.624
20.14000 4.346
20.16000 3.659
20.18000 0.590
20.20000 4.121
20.22000 4.561
20.24000 5.598
20.26000 6.568
20.28000 6.869
20.30000 8.691
20.32000 3.691
20.34000 6.740
20.36000 5.471
20.38000 6.169
20.40000 4.573
20.42000 5.963
20.44000 5.785
20.46000 -0.346
20.48000 2.864
20.50000 4.545
20.52000 4.529
20.54000 1.103
20.56000 -2.188
20.58000 -0.674
20.60000 4.434
20.62000 9.481
20.64000 9.267
20.66000 5.705
20.68000 3.016
20.70000 3.675
20.72000 3.443
20.74000 9.059
20.76000 7.671
20.78000 8.844
20.80000 -2.402
20.82000 -3.916
20.84000 -1.562
20.86000 1.758
20.88000 9.147
20.90000 7.098
20.92000 5.073
20.94000 8.172
20.96000 8.588
20.98000 2.926
21.00000 4.902
21.02000 7.757
21.04000 6.723
21.06000 4.350
21.08000 5.332
21.10000 2.919
21.12000 5.412
21.14000 2.392
21.16000 5.190
21.18000 0.555
21.20000 -2.511
21.22000 -4.187
21.24000 2.427
21.26000 1.210
21.28000 6.446
21.30000 6.378
21.32000 1.407
21.34000 -3.224
21.36000 5.234
21.38000 8.983
21.40000 4.632
21.42000 2.457
21.44000 7.103
21.46000 0.524
21.48000 4.916
21.50000 9.357
21.52000 2.512
21.54000 4.398
21.56000 8.285
21.58000 3.680
21.60000 -3.247
21.62000 -3.030
21.64000 -0.010
21.66000 4.425
21.68000 -1.180
21.70000 0.645
21.72000 5.098
21.74000 13.091
21.76000 8.938
21.78000 7.790
21.80000 4.778
21.82000 4.244
21.84000 7.221
21.86000 4.390
21.88000 5.368
21.90000 6.124
21.92000 7.603
21.94000 5.569
21.96000 4.093
21.98000 1.790
22.00000 -2.150
22.02000 3.175
22.04000 6.301
22.06000 5.509
22.08000 8.328
22.10000 8.022
22.12000 4.828
22.14000 8.972
22.16000 8.787
22.18000 14.840
22.20000 8.798
22.22000 5.918
22.24000 6.173
22.26000 5.527
22.28000 0.241
22.30000 3.675
22.32000 8.301
22.34000 10.538
22.36000 8.771
22.38000 6.373
22.40000 5.318
22.42000 6.805
22.44000 8.982
22.46000 5.135
22.48000 6.955
22.50000 1.019
22.52000 -3.941
22.54000 2.563
22.56000 9.288
22.58000 11.215
22.60000 12.880
22.62000 17.167
22.64000 14.731
22.66000 7.491
22.68000 10.134
22.70000 5.909
22.72000 8.116
22.74000 10.628
22.76000 6.941
22.78000 9.436
22.80000 8.501
22.82000 6.065
22.84000 10.124
22.86000 16.633
22.88000 11.008
22.90000 17.337
22.92000 19.414
22.94000 21.475
22.96000 9.188
22.98000 0.632
23.00000 8.315
23.02000 17.183
23.04000 14.274
23.06000 12.640
23.08000 12.988
23.10000 5.791
23.12000 -3.988
23.14000 2.661
23.16000 11.399
23.18000 14.116
23.20000 14.292
23.22000 18.218
23.24000 14.626
23.26000 11.681
23.28000 12.836
23.30000 13.560
23.32000 16.511
23.34000 10.288
23.36000 10.165
23.38000 11.046
23.40000 14.121
23.42000 13.189
23.44000 8.252
23.46000 5.228
23.48000 0.533
23.50000 4.695
23.52000 12.532
23.54000 12.156
23.56000 9.863
23.58000 7.325
23.60000 12.760
23.62000 9.528
23.64000 11.472
23.66000 10.019
23.68000 4.560
23.70000 4.272
23.72000 6.941
23.74000 9.911
23.76000 8.264
23.78000 6.910
23.80000 10.112
23.82000 13.258
23.84000 9.539
23.86000 9.706
23.88000 8.677
23.90000 11.219
23.92000 11.817
23.94000 5.315
23.96000 3.965
23.98000 10.117
24.00000 6.151
24.02000 -0.563
24.04000 2.085
24.06000 4.845
24.08000 2.963
24.10000 3.553
24.12000 11.136
24.14000 3.144
24.16000 3.818
24.18000 11.843
24.20000 14.332
24.22000 9.217
24.24000 11.942
24.26000 8.699
24.28000 10.380
24.30000 12.555
24.32000 7.360
24.34000 3.911
24.36000 5.597
24.38000 9.839
24.40000 5.308
24.42000 5.101
24.44000 5.440
24.46000 9.918
24.48000 7.568
24.50000 5.727
24.52000 4.306
24.54000 3.393
24.56000 5.022
24.58000 3.306
24.60000 -0.081
24.62000 3.686
24.64000 10.238
24.66000 -0.161
24.68000 4.259
24.70000 8.715
24.72000 7.201
24.74000 6.468
24.76000 8.091
24.78000 11.589
24.80000 9.321
24.82000 14.207
24.84000 12.806
24.86000 8.965
24.88000 8.820
24.90000 8.477
24.92000 6.297
24.94000 8.206
24.96000 4.230
24.98000 3.158
25.00000 1.655
25.02000 0.097
25.04000 0.252
25.06000 2.207
25.08000 5.245
25.10000 7.364
25.12000 6.304
25.14000 1.635
25.16000 2.024
25.18000 6.820
25.20000 6.828
25.22000 5.449
25.24000 7.069
25.26000 3.495
25.28000 4.361
25.30000 5.158
25.32000 1.332
25.34000 8.517
25.36000 6.322
25.38000 -3.928
25.40000 2.356
25.42000 7.619
25.44000 4.314
25.46000 5.519
25.48000 8.311
25.50000 7.621
25.52000 7.120
25.54000 4.881
25.56000 4.863
25.58000 5.194
25.60000 6.720
25.62000 2.755
25.64000 5.640
25.66000 8.978
25.68000 7.562
25.70000 0.047
25.72000 2.055
25.74000 5.166
25.76000 7.050
25.78000 4.605
25.80000 11.281
25.82000 8.296
25.84000 7.595
25.86000 4.751
25.88000 4.374
25.90000 7.230
25.92000 2.710
25.94000 1.423
25.96000 6.164
25.98000 5.501
26.00000 0.583
26.02000 7.208
26.04000 7.043
26.06000 4.803
26.08000 4.512
26.10000 6.035
26.12000 10.223
26.14000 9.079
26.16000 7.572
26.18000 7.844
26.20000 6.585
26.22000 -1.317
26.24000 -3.883
26.26000 5.988
26.28000 6.737
26.30000 7.654
26.32000 1.589
26.34000 5.021
26.36000 1.476
26.38000 4.090
26.40000 9.473
26.42000 8.545
26.44000 3.965
26.46000 -3.881
26.48000 1.868
26.50000 5.781
26.52000 5.646
26.54000 7.633
26.56000 7.048
26.58000 3.134
26.60000 2.361
26.62000 6.638
26.64000 6.416
26.66000 7.773
26.68000 5.810
26.70000 4.142
26.72000 -0.453
26.74000 5.205
26.76000 2.789
26.78000 0.721
26.80000 1.339
26.82000 3.851
26.84000 4.865
26.86000 8.853
26.88000 3.875
26.90000 1.349
26.92000 0.471
26.94000 0.735
26.96000 1.248
26.98000 3.017
27.00000 5.653
27.02000 7.620
27.04000 0.900
27.06000 -0.339
27.08000 1.989
27.10000 3.840
27.12000 5.509
27.14000 7.455
27.16000 9.455
27.18000 7.327
27.20000 4.909
27.22000 3.643
27.24000 2.906
27.26000 0.290
27.28000 3.547
27.30000 6.637
27.32000 4.380
27.34000 3.684
27.36000 6.951
27.38000 4.074
27.40000 -1.095
27.42000 2.166
27.44000 1.353
27.46000 3.199
27.48000 3.359
27.50000 5.059
27.52000 9.998
27.54000 11.696
27.56000 4.009
27.58000 -3.670
27.60000 2.283
27.62000 1.720
27.64000 7.855
27.66000 5.043
27.68000 1.999
27.70000 0.651
27.72000 3.739
27.74000 3.119
27.76000 2.152
27.78000 0.672
27.80000 3.171
27.82000 1.314
27.84000 0.288
27.86000 -1.875
27.88000 -1.422
27.90000 -0.470
27.92000 1.540
27.94000 2.620
27.96000 7.122
27.98000 9.424
28.00000 2.148
28.02000 2.832
28.04000 4.667
28.06000 3.017
28.08000 3.309
28.10000 -0.218
28.12000 0.033
28.14000 3.679
28.16000 2.578
28.18000 -1.522
28.20000 1.811
28.22000 1.414
28.24000 -0.076
28.26000 3.127
28.28000 7.706
28.30000 5.602
28.32000 1.057
28.34000 0.435
28.36000 -3.787
28.38000 -2.665
28.40000 -0.761
28.42000 6.144
28.44000 8.960
28.46000 3.988
28.48000 -2.260
28.50000 0.704
28.52000 1.237
28.54000 7.778
28.56000 5.075
28.58000 3.948
28.60000 4.544
28.62000 2.971
28.64000 2.023
28.66000 3.813
28.68000 1.816
28.70000 4.387
28.72000 5.730
28.74000 2.130
28.76000 6.579
28.78000 6.572
28.80000 6.727
28.82000 5.136
28.84000 -0.108
28.86000 -1.906
28.88000 4.210
28.90000 7.283
28.92000 6.911
28.94000 12.401
28.96000 9.390
28.98000 5.498
29.00000 7.859
29.02000 5.705
29.04000 3.660
29.06000 8.057
29.08000 11.843
29.10000 12.232
29.12000 5.617
29.14000 4.184
29.16000 1.709
29.18000 -0.465
29.20000 0.564
29.22000 -3.731
29.24000 1.183
29.26000 9.164
29.28000 6.299
29.30000 -2.225
29.32000 -1.425
29.34000 4.580
29.36000 6.847
29.38000 14.103
29.40000 9.454
29.42000 0.186
29.44000 1.199
29.46000 6.040
29.48000 1.105
29.50000 0.922
29.52000 1.892
29.54000 5.337
29.56000 5.763
29.58000 2.959
29.60000 5.272
29.62000 7.298
29.64000 0.778
29.66000 -2.275
29.68000 -3.070
29.70000 -0.658
29.72000 -1.945
29.74000 0.690
29.76000 -1.655
29.78000 -1.990
29.80000 -2.802
29.82000 2.089
29.84000 6.149
29.86000 1.422
29.88000 4.138
29.90000 7.718
29.92000 2.837
29.94000 2.076
29.96000 2.775
29.98000 1.080
30.00000 3.396
30.02000 -1.355
30.04000 3.222
30.06000 2.716
30.08000 2.598
30.10000 1.800
30.12000 -0.969
30.14000 2.799
30.16000 8.324
30.18000 5.469
30.20000 3.978
30.22000 5.257
30.24000 3.524
30.26000 -2.991
30.28000 -3.379
30.30000 0.515
30.32000 3.021
30.34000 -0.736
30.36000 -3.030
30.38000 4.180
30.40000 2.649
30.42000 -2.542
30.44000 -1.369
30.46000 -2.799
30.48000 -0.116
30.50000 2.828
30.52000 1.026
30.54000 0.073
30.56000 -3.438
30.58000 1.624
30.60000 2.313
30.62000 -0.336
30.64000 6.217
30.66000 7.012
30.68000 5.157
30.70000 8.053
30.72000 6.712
30.74000 0.414
30.76000 -0.491
30.78000 0.428
30.80000 -2.177
30.82000 -0.930
30.84000 2.141
30.86000 5.994
30.88000 3.952
30.90000 3.768
30.92000 -0.705
30.94000 6.285
30.96000 3.741
30.98000 6.538
31.00000 1.336
31.02000 -0.737
31.04000 4.800
31.06000 10.021
31.08000 10.197
31.10000 6.726
31.12000 9.783
31.14000 1.748
31.16000 8.579
31.18000 5.365
31.20000 3.060
31.22000 2.233
31.24000 -0.725
31.26000 2.804
31.28000 4.134
31.30000 3.490
31.32000 1.900
31.34000 2.319
31.36000 8.113
31.38000 4.703
31.40000 0.963
31.42000 -3.650
31.44000 0.676
31.46000 3.367
31.48000 0.321
31.50000 -2.393
31.52000 2.673
31.54000 2.745
31.56000 6.729
31.58000 6.235
31.60000 5.283
31.62000 1.904
31.64000 4.531
31.66000 4.738
31.68000 2.268
31.70000 0.883
31.72000 -0.386
31.74000 4.558
31.76000 5.109
31.78000 2.217
31.80000 1.723
31.82000 4.654
31.84000 1.761
31.86000 0.609
31.88000 1.684
31.90000 2.347
31.92000 2.969
31.94000 6.350
31.96000 2.207
31.98000 0.791
32.00000 3.282
32.02000 -1.105
32.04000 -3.378
32.06000 -2.455
32.08000 -0.101
32.10000 -0.234
32.12000 1.824
32.14000 -0.563
32.16000 3.017
32.18000 2.524
32.20000 5.675
32.22000 4.889
32.24000 3.310
32.26000 1.728
32.28000 1.758
32.30000 0.118
32.32000 0.695
32.34000 1.041
32.36000 -3.629
32.38000 0.648
32.40000 -1.538
32.42000 -0.142
32.44000 -0.987
32.46000 0.166
32.48000 0.732
32.50000 4.037
32.52000 9.348
32.54000 9.108
32.56000 4.324
32.58000 4.798
32.60000 2.500
32.62000 1.111
32.64000 6.807
32.66000 2.590
32.68000 3.076
32.70000 3.435
32.72000 1.874
32.74000 2.500
32.76000 1.611
32.78000 1.628
32.80000 0.894
32.82000 -3.225
32.84000 -3.603
32.86000 1.667
32.88000 4.455
32.90000 6.325
32.92000 1.132
32.94000 3.777
32.96000 4.140
32.98000 4.587
33.00000 0.646
33.02000 1.007
33.04000 6.154
33.06000 5.609
33.08000 4.376
33.10000 4.210
33.12000 3.363
33.14000 1.147
33.16000 0.262
33.18000 0.354
33.20000 3.392
33.22000 6.017
33.24000 3.956
33.26000 3.528
33.28000 2.548
33.30000 1.125
33.32000 3.618
33.34000 1.055
33.36000 -2.045
33.38000 0.731
33.40000 -1.708
33.42000 1.177
33.44000 4.983
33.46000 6.100
33.48000 7.817
33.50000 3.661
33.52000 -0.653
33.54000 0.673
33.56000 3.951
33.58000 2.934
33.60000 5.124
33.62000 4.266
33.64000 0.549
33.66000 5.364
33.68000 4.290
33.70000 6.732
33.72000 1.196
33.74000 3.007
33.76000 2.471
33.78000 -0.154
33.80000 4.313
33.82000 2.907
33.84000 3.319
33.86000 3.786
33.88000 4.159
33.90000 5.063
33.92000 0.558
33.94000 3.925
33.96000 3.182
33.98000 0.774
34.00000 -0.272
34.02000 -0.029
34.04000 -2.244
34.06000 1.572
34.08000 6.237
34.10000 1.785
34.12000 3.148
34.14000 0.680
34.16000 0.324
34.18000 3.152
34.20000 2.193
34.22000 2.267
34.24000 4.090
34.26000 2.501
34.28000 1.484
34.30000 3.711
34.32000 4.182
34.34000 0.135
34.36000 4.726
34.38000 4.360
34.40000 3.001
34.42000 0.179
34.44000 -0.617
34.46000 1.609
34.48000 1.634
34.50000 2.879
34.52000 2.956
34.54000 -1.604
34.56000 8.077
34.58000 9.208
34.60000 2.143
34.62000 -3.567
34.64000 -3.497
34.66000 -0.373
34.68000 1.602
34.70000 4.701
34.72000 8.195
34.74000 3.052
34.76000 3.575
34.78000 2.912
34.80000 3.036
34.82000 0.160
34.84000 -2.807
34.86000 -2.075
34.88000 1.075
34.90000 -2.574
34.92000 -3.049
34.94000 4.283
34.96000 2.756
34.98000 3.446
35.00000 6.718
35.02000 8.071
35.04000 5.724
35.06000 0.992
35.08000 -2.817
35.10000 -0.723
35.12000 2.770
35.14000 3.067
35.16000 6.507
35.18000 6.034
35.20000 0.133
35.22000 2.641
35.24000 3.837
35.26000 6.247
35.28000 8.656
35.30000 3.899
35.32000 -0.094
35.34000 2.961
35.36000 5.534
35.38000 3.621
35.40000 5.124
35.42000 9.316
35.44000 5.437
35.46000 0.528
35.48000 -0.148
35.50000 -1.599
35.52000 -3.514
35.54000 1.483
35.56000 2.777
35.58000 1.478
35.60000 4.429
35.62000 3.214
35.64000 2.861
35.66000 3.224
35.68000 2.485
35.70000 1.563
35.72000 -0.137
35.74000 -3.376
35.76000 0.946
35.78000 1.864
35.80000 -1.034
35.82000 3.156
35.84000 2.796
35.86000 3.170
35.88000 2.443
35.90000 -0.682
35.92000 -1.160
35.94000 1.054
35.96000 -0.230
35.98000 -0.179
36.00000 3.124
36.02000 -0.054
36.04000 5.721
36.06000 6.869
36.08000 1.809
36.10000 -2.662
36.12000 0.715
36.14000 2.125
36.16000 0.682
36.18000 0.237
36.20000 -1.812
36.22000 1.134
36.24000 2.020
36.26000 0.648
36.28000 -2.208
36.30000 -1.332
36.32000 -2.980
36.34000 -0.030
36.36000 1.292
36.38000 5.385
36.40000 6.162
36.42000 1.778
36.44000 -0.122
36.46000 0.045
36.48000 3.138
36.50000 1.623
36.52000 3.286
36.54000 3.585
36.56000 1.776
36.58000 -1.740
36.60000 4.554
36.62000 6.303
36.64000 5.890
36.66000 5.250
36.68000 7.155
36.70000 5.499
36.72000 -0.727
36.74000 4.237
36.76000 5.694
36.78000 -0.267
36.80000 -0.964
36.82000 -0.034
36.84000 4.832
36.86000 5.880
36.88000 2.899
36.90000 2.692
36.92000 0.198
36.94000 1.592
36.96000 2.819
36.98000 0.349
37.00000 -0.166
37.02000 -3.578
37.04000 3.540
37.06000 4.126
37.08000 0.978
37.10000 2.055
37.12000 1.819
37.14000 -0.952
37.16000 1.782
37.18000 2.438
37.20000 7.745
37.22000 5.827
37.24000 7.690
37.26000 13.408
37.28000 5.635
37.30000 -1.082
37.32000 -1.108
37.34000 -1.016
37.36000 -3.598
37.38000 -0.901
37.40000 -1.254
37.42000 2.320
37.44000 3.093
37.46000 0.530
37.48000 0.734
37.50000 2.943
37.52000 1.238
37.54000 2.005
37.56000 1.252
37.58000 2.107
37.60000 1.817
37.62000 0.314
37.64000 -1.306
37.66000 -1.027
37.68000 2.182
37.70000 1.501
37.72000 1.141
37.74000 1.171
37.76000 0.953
37.78000 8.316
37.80000 10.309
37.82000 3.438
37.84000 3.195
37.86000 8.004
37.88000 7.747
37.90000 7.356
37.92000 2.054
37.94000 2.079
37.96000 6.608
37.98000 7.369
38.00000 -0.151
38.02000 3.313
38.04000 5.915
38.06000 13.725
38.08000 11.951
38.10000 11.321
38.12000 10.953
38.14000 12.171
38.16000 10.582
38.18000 11.336
38.20000 15.137
38.22000 18.839
38.24000 18.849
38.26000 15.781
38.28000 9.771
38.30000 10.782
38.32000 11.078
38.34000 12.440
38.36000 11.495
38.38000 13.432
38.40000 18.629
38.42000 15.282
38.44000 13.763
38.46000 14.795
38.48000 18.271
38.50000 20.874
38.52000 19.999
38.54000 19.905
38.56000 18.408
38.58000 20.320
38.60000 22.678
38.62000 21.108
38.64000 20.381
38.66000 20.418
38.68000 20.473
38.70000 23.099
38.72000 22.326
38.74000 22.187
38.76000 20.916
38.78000 25.095
38.80000 29.959
38.82000 24.008
38.84000 27.830
38.86000 29.440
38.88000 32.294
38.90000 31.122
38.92000 32.589
38.94000 34.111
38.96000 36.968
38.98000 32.903
39.00000 35.161
39.02000 36.076
39.04000 39.865
39.06000 43.836
39.08000 35.317
39.10000 33.572
39.12000 43.251
39.14000 46.396
39.16000 48.629
39.18000 52.266
39.20000 53.785
39.22000 53.645
39.24000 53.035
39.26000 55.093
39.28000 57.157
39.30000 61.963
39.32000 65.032
39.34000 67.058
39.36000 70.438
39.38000 67.213
39.40000 70.802
39.42000 74.867
39.44000 82.747
39.46000 87.509
39.48000 93.807
39.50000 95.937
39.52000 99.336
39.54000 101.227
39.56000 102.590
39.58000 107.802
39.60000 120.132
39.62000 127.211
39.64000 129.766
39.66000 132.603
39.68000 137.379
39.70000 143.655
39.72000 159.929
39.74000 167.793
39.76000 162.745
39.78000 174.811
39.80000 189.773
39.82000 192.035
39.84000 207.072
39.86000 217.240
39.88000 212.673
39.90000 221.857
39.92000 241.177
39.94000 250.793
39.96000 254.165
39.98000 269.247
40.00000 282.424
40.02000 294.091
40.04000 307.051
40.06000 328.351
40.08000 343.383
40.10000 355.514
40.12000 370.316
40.14000 386.670
40.16000 394.426
40.18000 411.030
40.20000 430.558
40.22000 456.221
40.24000 482.513
40.26000 492.194
40.28000 505.127
40.30000 516.913
40.32000 534.579
40.34000 535.233
40.36000 541.375
40.38000 559.600
40.40000 576.618
40.42000 587.146
40.44000 590.216
40.46000 600.350
40.48000 607.295
40.50000 605.057
40.52000 611.856
40.54000 610.364
40.56000 618.746
40.58000 618.116
40.60000 616.986
40.62000 606.246
40.64000 608.619
40.66000 603.421
40.68000 581.762
40.70000 572.248
40.72000 557.814
40.74000 539.620
40.76000 531.957
40.78000 519.003
40.80000 504.604
40.82000 484.310
40.84000 466.946
40.86000 441.133
40.88000 436.969
40.90000 423.061
40.92000 408.295
40.94000 389.786
40.96000 373.164
40.98000 365.252
41.00000 346.806
41.02000 328.585
41.04000 307.061
41.06000 295.942
41.08000 290.642
41.10000 274.527
41.12000 261.631
41.14000 248.860
41.16000 230.711
41.18000 225.069
41.20000 213.017
41.22000 198.804
41.24000 186.737
41.26000 179.745
41.28000 173.057
41.30000 163.674
41.32000 158.709
41.34000 154.513
41.36000 144.259
41.38000 133.545
41.40000 124.712
41.42000 122.255
41.44000 113.934
41.46000 106.185
41.48000 103.558
41.50000 97.863
41.52000 91.512
41.54000 82.669
41.56000 85.416
41.58000 80.455
41.60000 71.587
41.62000 73.677
41.64000 75.491
41.66000 67.560
41.68000 64.245
41.70000 61.428
41.72000 55.282
41.74000 57.225
41.76000 53.589
41.78000 43.933
41.80000 45.083
41.82000 44.843
41.84000 45.482
41.86000 41.882
41.88000 33.935
41.90000 34.408
41.92000 32.356
41.94000 36.305
41.96000 31.661
41.98000 26.500
42.00000 27.735
42.02000 30.938
42.04000 25.586
42.06000 29.754
42.08000 21.668
42.10000 21.993
42.12000 25.464
42.14000 22.398
42.16000 22.624
42.18000 20.342
42.20000 18.460
42.22000 18.156
42.24000 16.525
42.26000 13.539
42.28000 12.516
42.30000 16.614
42.32000 16.513
42.34000 14.668
42.36000 12.734
42.38000 5.978
42.40000 7.901
42.42000 16.200
42.44000 17.872
42.46000 16.256
42.48000 12.176
42.50000 8.352
42.52000 7.604
42.54000 8.273
42.56000 12.303
42.58000 18.794
42.60000 10.768
42.62000 10.469
42.64000 8.104
42.66000 6.788
42.68000 7.846
42.70000 8.737
42.72000 6.484
42.74000 9.725
42.76000 8.046
42.78000 5.730
42.80000 5.839
42.82000 6.305
42.84000 6.090
42.86000 11.389
42.88000 4.409
42.90000 -3.607
42.92000 3.477
42.94000 1.830
42.96000 2.523
42.98000 2.233
43.00000 1.340
43.02000 2.289
43.04000 1.678
43.06000 -1.422
43.08000 0.053
43.10000 1.931
43.12000 3.904
43.14000 5.289
43.16000 6.348
43.18000 -1.420
43.20000 -0.262
43.22000 -3.164
43.24000 -0.998
43.26000 0.804
43.28000 2.788
43.30000 -3.267
43.32000 1.460
43.34000 -0.728
43.36000 -0.747
43.38000 -1.228
43.40000 -0.600
43.42000 -0.502
43.44000 -2.261
43.46000 -1.796
43.48000 0.096
43.50000 -3.569
43.52000 -2.591
43.54000 1.795
43.56000 1.066
43.58000 -1.399
43.60000 -1.508
43.62000 -1.451
43.64000 0.070
43.66000 3.596
43.68000 0.590
43.70000 0.420
43.72000 -1.846
43.74000 -0.449
43.76000 4.952
43.78000 5.740
43.80000 1.813
43.82000 -3.273
43.84000 0.100
43.86000 0.994
43.88000 0.680
43.90000 1.751
43.92000 5.580
43.94000 4.951
43.96000 1.259
43.98000 -1.037
44.00000 3.619
44.02000 7.114
44.04000 2.247
44.06000 -0.719
44.08000 2.466
44.10000 2.357
44.12000 0.171
44.14000 -1.076
44.16000 2.616
44.18000 2.846
44.20000 5.913
44.22000 0.458
44.24000 5.141
44.26000 2.316
44.28000 1.421
44.30000 5.185
44.32000 1.075
44.34000 3.163
44.36000 0.647
44.38000 4.836
44.40000 -0.392
44.42000 -2.699
44.44000 -3.489
44.46000 0.325
44.48000 5.613
44.50000 4.198
44.52000 2.553
44.54000 6.437
44.56000 7.783
44.58000 0.146
44.60000 2.340
44.62000 1.422
44.64000 4.577
44.66000 9.122
44.68000 6.355
44.70000 -0.718
44.72000 -3.500
44.74000 2.496
44.76000 3.884
44.78000 4.279
44.80000 3.182
44.82000 2.749
44.84000 6.060
44.86000 -0.526
44.88000 -1.005
44.90000 7.309
44.92000 7.819
44.94000 1.404
44.96000 1.929
44.98000 4.360
45.00000 3.387
45.02000 2.929
45.04000 2.934
45.06000 7.523
45.08000 9.096
45.10000 5.771
45.12000 5.984
45.14000 4.052
45.16000 -1.036
45.18000 -3.156
45.20000 0.843
45.22000 6.095
45.24000 0.936
45.26000 0.241
45.28000 -0.070
45.30000 8.728
45.32000 9.445
45.34000 7.620
45.36000 6.354
45.38000 7.312
45.40000 6.651
45.42000 11.590
45.44000 8.890
45.46000 10.705
45.48000 12.298
45.50000 12.027
45.52000 16.499
45.54000 10.811
45.56000 10.032
45.58000 7.433
45.60000 10.995
45.62000 18.741
45.64000 16.765
45.66000 12.609
45.68000 15.270
45.70000 15.467
45.72000 15.296
45.74000 16.661
45.76000 20.257
45.78000 14.776
45.80000 12.213
45.82000 17.017
45.84000 11.235
45.86000 13.166
45.88000 14.550
45.90000 24.196
45.92000 26.123
45.94000 22.415
45.96000 22.971
45.98000 28.303
46.00000 29.070
46.02000 28.732
46.04000 26.377
46.06000 24.431
46.08000 32.582
46.10000 33.284
46.12000 29.168
46.14000 28.976
46.16000 31.560
46.18000 37.446
46.20000 35.565
46.22000 38.452
46.24000 32.781
46.26000 35.582
46.28000 39.299
46.30000 43.153
46.32000 40.572
46.34000 40.370
46.36000 36.718
46.38000 49.267
46.40000 52.668
46.42000 53.180
46.44000 48.691
46.46000 49.382
46.48000 55.055
46.50000 57.861
46.52000 55.653
46.54000 56.139
46.56000 58.135
46.58000 58.185
46.60000 60.405
46.62000 71.965
46.64000 63.727
46.66000 64.072
46.68000 72.674
46.70000 71.037
46.72000 62.801
46.74000 67.363
46.76000 68.461
46.78000 76.447
46.80000 76.208
46.82000 73.109
46.84000 69.535
46.86000 76.377
46.88000 79.026
46.90000 74.121
46.92000 73.813
46.94000 78.164
46.96000 77.214
46.98000 77.640
47.00000 78.133
47.02000 87.612
47.04000 86.488
47.06000 84.693
47.08000 82.378
47.10000 83.293
47.12000 80.943
47.14000 76.722
47.16000 79.279
47.18000 83.688
47.20000 83.742
47.22000 80.189
47.24000 81.257
47.26000 74.851
47.28000 76.951
47.30000 69.722
47.32000 63.576
47.34000 68.853
47.36000 79.080
47.38000 79.023
47.40000 83.105
47.42000 76.861
47.44000 72.918
47.46000 69.262
47.48000 69.347
47.50000 66.758
47.52000 71.253
47.54000 73.681
47.56000 69.137
47.58000 62.822
47.60000 55.169
47.62000 52.650
47.64000 54.151
47.66000 54.809
47.68000 59.036
47.70000 52.696
47.72000 45.189
47.74000 47.967
47.76000 49.112
47.78000 51.327
47.80000 56.900
47.82000 44.240
47.84000 37.598
47.86000 35.596
47.88000 30.001
47.90000 27.955
47.92000 31.469
47.94000 37.083
47.96000 34.473
47.98000 30.470
48.00000 26.683
48.02000 26.201
48.04000 26.968
48.06000 23.430
48.08000 29.130
48.10000 25.937
48.12000 23.337
48.14000 21.095
48.16000 25.734
48.18000 22.158
48.20000 18.285
48.22000 16.424
48.24000 18.067
48.26000 17.421
48.28000 18.424
48.30000 22.141
48.32000 17.236
48.34000 8.545
48.36000 7.013
48.38000 8.018
48.40000 10.731
48.42000 14.316
48.44000 14.761
48.46000 13.660
48.48000 8.095
48.50000 11.008
48.52000 14.667
48.54000 5.611
48.56000 5.387
48.58000 7.592
48.60000 8.594
48.62000 4.876
48.64000 6.312
48.66000 10.821
48.68000 12.515
48.70000 15.466
48.72000 8.444
48.74000 9.431
48.76000 7.095
48.78000 4.847
48.80000 4.200
48.82000 3.286
48.84000 1.711
48.86000 4.615
48.88000 6.509
48.90000 7.715
48.92000 5.430
48.94000 9.784
48.96000 11.027
48.98000 9.342
49.00000 4.883
49.02000 1.834
49.04000 1.017
49.06000 -3.167
49.08000 1.810
49.10000 0.325
49.12000 1.223
49.14000 4.962
49.16000 8.812
49.18000 5.869
49.20000 0.263
49.22000 1.520
49.24000 5.437
49.26000 -0.985
49.28000 4.010
49.30000 5.348
49.32000 0.723
49.34000 -0.576
49.36000 -0.206
49.38000 -0.208
49.40000 5.187
49.42000 2.919
49.44000 4.517
49.46000 5.033
49.48000 -1.799
49.50000 -0.705
49.52000 0.309
49.54000 -0.756
49.56000 7.558
49.58000 5.852
49.60000 5.491
49.62000 6.106
49.64000 4.752
49.66000 -0.219
49.68000 -3.058
49.70000 -0.946
49.72000 2.079
49.74000 5.827
49.76000 2.417
49.78000 4.947
49.80000 8.572
49.82000 5.414
49.84000 0.065
49.86000 -0.329
49.88000 8.172
49.90000 10.178
49.92000 7.084
49.94000 3.715
49.96000 4.060
49.98000 4.733
50.00000 10.738
50.02000 6.490
50.04000 6.532
50.06000 6.595
50.08000 7.175
50.10000 6.152
50.12000 5.255
50.14000 6.896
50.16000 4.340
50.18000 7.280
50.20000 7.023
50.22000 3.283
50.24000 7.156
50.26000 6.822
50.28000 5.944
50.30000 10.860
50.32000 8.309
50.34000 10.549
50.36000 10.551
50.38000 3.965
50.40000 -2.992
50.42000 0.681
50.44000 5.315
50.46000 6.500
50.48000 7.156
50.50000 8.788
50.52000 9.841
50.54000 5.199
50.56000 5.358
50.58000 4.394
50.60000 5.750
50.62000 6.579
50.64000 5.331
50.66000 5.435
50.68000 1.434
50.70000 -1.471
50.72000 5.409
50.74000 8.808
50.76000 5.824
50.78000 6.169
50.80000 10.407
50.82000 6.494
50.84000 2.745
50.86000 9.855
50.88000 11.233
50.90000 9.315
50.92000 12.850
50.94000 10.459
50.96000 4.515
50.98000 11.381
51.00000 12.316
51.02000 11.628
51.04000 9.683
51.06000 5.537
51.08000 6.928
51.10000 2.584
51.12000 0.657
51.14000 8.590
51.16000 6.248
51.18000 2.150
51.20000 3.460
51.22000 8.047
51.24000 9.525
51.26000 10.508
51.28000 7.511
51.30000 3.107
51.32000 -2.153
51.34000 1.152
51.36000 2.665
51.38000 3.266
51.40000 0.330
51.42000 5.117
51.44000 0.709
51.46000 4.399
51.48000 9.016
51.50000 4.138
51.52000 3.725
51.54000 1.652
51.56000 -2.940
51.58000 1.971
51.60000 1.241
51.62000 -1.254
51.64000 0.151
51.66000 4.178
51.68000 3.561
51.70000 8.266
51.72000 10.006
51.74000 5.940
51.76000 8.552
51.78000 7.551
51.80000 2.637
51.82000 7.527
51.84000 6.771
51.86000 6.241
51.88000 5.280
51.90000 2.708
51.92000 3.885
51.94000 3.304
51.96000 2.743
51.98000 6.458
52.00000 9.259
52.02000 12.519
52.04000 10.033
52.06000 5.259
52.08000 5.893
52.10000 5.217
52.12000 3.054
52.14000 5.800
52.16000 7.272
52.18000 9.152
52.20000 10.305
52.22000 4.151
52.24000 4.255
52.26000 8.742
52.28000 10.565
52.30000 9.739
52.32000 5.464
52.34000 3.935
52.36000 5.920
52.38000 5.125
52.40000 1.746
52.42000 -2.906
52.44000 3.075
52.46000 7.672
52.48000 7.612
52.50000 9.146
52.52000 7.488
52.54000 2.128
52.56000 4.016
52.58000 6.316
52.60000 6.218
52.62000 5.380
52.64000 7.929
52.66000 8.340
52.68000 6.827
52.70000 5.179
52.72000 4.597
52.74000 6.679
52.76000 5.309
52.78000 8.201
52.80000 5.645
52.82000 1.451
52.84000 0.421
52.86000 3.334
52.88000 3.106
52.90000 4.906
52.92000 10.462
52.94000 9.185
52.96000 5.839
52.98000 5.667
53.00000 6.565
53.02000 8.849
53.04000 5.768
53.06000 0.012
53.08000 4.932
53.10000 5.272
53.12000 2.693
53.14000 2.137
53.16000 8.339
53.18000 7.618
53.20000 3.219
53.22000 3.853
53.24000 -0.405
53.26000 4.121
53.28000 5.572
53.30000 4.189
53.32000 1.722
53.34000 2.931
53.36000 11.234
53.38000 11.243
53.40000 12.237
53.42000 5.371
53.44000 4.606
53.46000 6.528
53.48000 8.135
53.50000 5.257
53.52000 2.364
53.54000 6.337
53.56000 5.237
53.58000 3.587
53.60000 8.478
53.62000 9.417
53.64000 4.863
53.66000 7.409
53.68000 6.297
53.70000 5.565
53.72000 3.362
53.74000 3.806
53.76000 6.961
53.78000 -0.358
53.80000 1.173
53.82000 4.264
53.84000 3.074
53.86000 -2.875
53.88000 -1.468
53.90000 1.534
53.92000 8.358
53.94000 10.194
53.96000 8.113
53.98000 5.484
54.00000 5.060
54.02000 6.242
54.04000 2.933
54.06000 2.358
54.08000 6.138
54.10000 9.640
54.12000 7.320
54.14000 1.997
54.16000 1.519
54.18000 9.825
54.20000 8.249
54.22000 2.774
54.24000 3.977
54.26000 1.709
54.28000 2.886
54.30000 2.713
54.32000 3.623
54.34000 3.152
54.36000 4.001
54.38000 -0.733
54.40000 1.755
54.42000 3.064
54.44000 3.370
54.46000 -1.864
54.48000 -2.873
54.50000 2.158
54.52000 6.805
54.54000 4.846
54.56000 5.165
54.58000 4.765
54.60000 4.671
54.62000 5.835
54.64000 1.537
54.66000 0.862
54.68000 5.016
54.70000 9.784
54.72000 8.038
54.74000 6.441
54.76000 3.231
54.78000 -1.977
54.80000 0.386
54.82000 2.505
54.84000 1.489
54.86000 0.381
54.88000 3.278
54.90000 2.808
54.92000 5.981
54.94000 1.076
54.96000 2.622
54.98000 2.939
55.00000 2.319
55.02000 2.052
55.04000 2.156
55.06000 0.388
55.08000 2.969
55.10000 8.730
55.12000 5.626
55.14000 3.904
55.16000 -1.407
55.18000 0.584
55.20000 1.281
55.22000 2.072
55.24000 3.294
55.26000 4.870
55.28000 4.946
55.30000 0.640
55.32000 -2.681
55.34000 -2.766
55.36000 5.100
55.38000 4.375
55.40000 3.291
55.42000 2.694
55.44000 3.054
55.46000 -2.869
55.48000 -0.659
55.50000 3.832
55.52000 1.313
55.54000 5.273
55.56000 2.799
55.58000 5.332
55.60000 7.148
55.62000 -0.678
55.64000 0.130
55.66000 -1.529
55.68000 4.042
55.70000 4.998
55.72000 4.306
55.74000 3.111
55.76000 3.986
55.78000 3.518
55.80000 6.193
55.82000 3.636
55.84000 4.455
55.86000 1.057
55.88000 2.519
55.90000 3.248
55.92000 5.140
55.94000 1.544
55.96000 -0.584
55.98000 -0.423
56.00000 7.181
56.02000 7.693
56.04000 3.705
56.06000 5.587
56.08000 4.891
56.10000 3.868
56.12000 -0.174
56.14000 -0.712
56.16000 -1.204
56.18000 -0.041
56.20000 5.175
56.22000 1.933
56.24000 -1.478
56.26000 -1.341
56.28000 -1.926
56.30000 3.612
56.32000 -1.777
56.34000 2.875
56.36000 0.908
56.38000 1.651
56.40000 1.585
56.42000 2.510
56.44000 2.907
56.46000 1.507
56.48000 -0.407
56.50000 0.250
56.52000 -0.439
56.54000 6.397
56.56000 2.044
56.58000 -0.782
56.60000 1.834
56.62000 1.517
56.64000 -1.213
56.66000 -0.458
56.68000 0.332
56.70000 2.194
56.72000 3.738
56.74000 1.259
56.76000 0.735
56.78000 1.973
56.80000 -1.401
56.82000 -2.840
56.84000 -0.414
56.86000 0.302
56.88000 2.544
56.90000 3.785
56.92000 -1.374
56.94000 -2.822
56.96000 -1.609
56.98000 -2.536
57.00000 -1.097
57.02000 1.011
57.04000 3.074
57.06000 1.616
57.08000 -0.246
57.10000 -1.414
57.12000 -2.819
57.14000 0.037
57.16000 1.628
57.18000 4.129
57.20000 6.479
57.22000 2.710
57.24000 6.840
57.26000 -1.357
57.28000 -0.862
57.30000 2.571
57.32000 2.103
57.34000 0.491
57.36000 0.135
57.38000 -0.231
57.40000 4.399
57.42000 5.665
57.44000 8.036
57.46000 7.155
57.48000 3.712
57.50000 5.034
57.52000 1.243
57.54000 4.088
57.56000 6.268
57.58000 3.463
57.60000 -1.428
57.62000 0.075
57.64000 4.214
57.66000 2.887
57.68000 -1.221
57.70000 -1.671
57.72000 -2.799
57.74000 1.428
57.76000 2.566
57.78000 0.438
57.80000 -0.693
57.82000 1.311
57.84000 3.047
57.86000 2.508
57.88000 1.661
57.90000 -2.028
57.92000 -1.404
57.94000 -0.759
57.96000 1.005
57.98000 -2.273
58.00000 -1.228
58.02000 -0.369
58.04000 -0.023
58.06000 0.691
58.08000 2.224
58.10000 0.688
58.12000 3.186
58.14000 0.953
58.16000 1.127
58.18000 4.012
58.20000 9.891
58.22000 8.761
58.24000 3.411
58.26000 3.245
58.28000 1.492
58.30000 1.859
58.32000 1.546
58.34000 0.361
58.36000 1.894
58.38000 3.412
58.40000 3.583
58.42000 3.732
58.44000 4.802
58.46000 0.074
58.48000 -0.020
58.50000 5.014
58.52000 1.099
58.54000 5.339
58.56000 2.874
58.58000 1.775
58.60000 1.207
58.62000 2.547
58.64000 -1.400
58.66000 -0.933
58.68000 3.163
58.70000 0.181
58.72000 -1.076
58.74000 1.456
58.76000 6.335
58.78000 7.444
58.80000 4.238
58.82000 3.422
58.84000 5.613
58.86000 0.354
58.88000 -0.454
58.90000 -0.404
58.92000 1.193
58.94000 -0.305
58.96000 0.593
58.98000 1.794
59.00000 2.049
59.02000 0.696
59.04000 -0.461
59.06000 -0.030
59.08000 4.529
59.10000 2.775
59.12000 -0.529
59.14000 -1.697
59.16000 2.000
59.18000 -1.101
59.20000 1.543
59.22000 1.544
59.24000 -2.586
59.26000 -1.920
59.28000 5.225
59.30000 6.785
59.32000 1.489
59.34000 -2.726
59.36000 -1.765
59.38000 1.673
59.40000 6.465
59.42000 4.096
59.44000 1.841
59.46000 3.271
59.48000 7.321
59.50000 3.434
59.52000 -2.535
59.54000 2.479
59.56000 1.371
59.58000 1.234
59.60000 -0.008
59.62000 1.709
59.64000 4.079
59.66000 1.662
59.68000 5.069
59.70000 5.764
59.72000 2.518
59.74000 -0.928
59.76000 -0.128
59.78000 -0.221
59.80000 -2.719
59.82000 4.443
59.84000 1.915
59.86000 3.438
59.88000 5.732
59.90000 4.859
59.92000 1.294
59.94000 5.521
59.96000 3.833
59.98000 0.572
60.00000 2.232
60.02000 0.549
60.04000 -0.675
60.06000 -0.615
60.08000 -0.532
60.10000 2.717
60.12000 2.467
60.14000 -0.819
60.16000 0.552
60.18000 1.629
60.20000 0.932
60.22000 0.738
60.24000 1.146
60.26000 2.599
60.28000 5.350
60.30000 4.403
60.32000 6.706
60.34000 5.056
60.36000 2.631
60.38000 2.315
60.40000 1.740
60.42000 0.533
60.44000 0.535
60.46000 8.166
60.48000 7.904
60.50000 8.410
60.52000 5.427
60.54000 0.853
60.56000 0.528
60.58000 3.320
60.60000 2.152
60.62000 -2.675
60.64000 3.434
60.66000 5.723
60.68000 3.707
60.70000 1.207
60.72000 0.657
60.74000 -2.673
60.76000 -1.332
60.78000 0.401
60.80000 3.426
60.82000 5.325
60.84000 7.403
60.86000 0.964
60.88000 0.173
60.90000 1.038
60.92000 -1.536
60.94000 2.039
60.96000 4.872
60.98000 7.703
61.00000 3.509
61.02000 3.674
61.04000 5.878
61.06000 4.106
61.08000 1.353
61.10000 -0.694
61.12000 2.389
61.14000 2.408
61.16000 0.816
61.18000 0.123
61.20000 -0.472
61.22000 -0.228
61.24000 2.250
61.26000 3.947
61.28000 5.250
61.30000 5.415
61.32000 4.683
61.34000 4.247
61.36000 5.086
61.38000 7.529
61.40000 3.451
61.42000 1.090
61.44000 -0.666
61.46000 2.031
61.48000 0.884
61.50000 1.008
61.52000 1.806
61.54000 1.449
61.56000 -2.524
61.58000 4.817
61.60000 1.820
61.62000 -2.652
61.64000 -2.400
61.66000 1.089
61.68000 3.716
61.70000 4.719
61.72000 4.032
61.74000 1.790
61.76000 1.710
61.78000 2.379
61.80000 6.137
61.82000 3.501
61.84000 -2.647
61.86000 -2.153
61.88000 -0.601
61.90000 0.447
61.92000 0.161
61.94000 -1.508
61.96000 2.469
61.98000 3.967
62.00000 3.312
62.02000 2.893
62.04000 0.846
62.06000 2.334
62.08000 3.084
62.10000 5.845
62.12000 2.579
62.14000 2.229
62.16000 3.270
62.18000 1.801
62.20000 1.885
62.22000 1.208
62.24000 4.703
62.26000 2.122
62.28000 7.502
62.30000 7.527
62.32000 4.454
62.34000 3.541
62.36000 5.617
62.38000 1.774
62.40000 0.605
62.42000 1.622
62.44000 1.234
62.46000 0.589
62.48000 0.573
62.50000 -0.028
62.52000 -1.721
62.54000 -1.038
62.56000 -0.483
62.58000 5.250
62.60000 1.945
62.62000 2.770
62.64000 3.713
62.66000 -0.734
62.68000 -1.533
62.70000 -2.641
62.72000 -2.437
62.74000 0.001
62.76000 2.958
62.78000 7.110
62.80000 4.436
62.82000 6.663
62.84000 -0.731
62.86000 0.992
62.88000 -0.697
62.90000 2.570
62.92000 3.710
62.94000 4.840
62.96000 1.211
62.98000 1.717
63.00000 3.750
63.02000 1.020
63.04000 1.762
63.06000 4.562
63.08000 -0.435
63.10000 -1.456
63.12000 -0.025
63.14000 -0.910
63.16000 2.879
63.18000 4.088
63.20000 6.641
63.22000 7.537
63.24000 2.711
63.26000 -1.371
63.28000 -0.213
63.30000 3.181
63.32000 -0.941
63.34000 -2.139
63.36000 -2.631
63.38000 2.197
63.40000 2.530
63.42000 2.372
63.44000 1.290
63.46000 3.235
63.48000 0.570
63.50000 3.134
63.52000 7.057
63.54000 3.211
63.56000 -0.067
63.58000 -1.326
63.60000 0.456
63.62000 3.678
63.64000 4.364
63.66000 1.884
63.68000 2.967
63.70000 2.545
63.72000 0.783
63.74000 0.757
63.76000 4.786
63.78000 3.644
63.80000 5.703
63.82000 6.866
63.84000 3.892
63.86000 -1.750
63.88000 -0.813
63.90000 -2.647
63.92000 2.423
63.94000 1.586
63.96000 1.507
63.98000 5.974
64.00000 3.053
64.02000 1.583
64.04000 3.956
64.06000 2.782
64.08000 -0.088
64.10000 0.154
64.12000 -0.267
64.14000 -0.548
64.16000 0.633
64.18000 -0.459
64.20000 0.949
64.22000 -1.400
64.24000 -1.124
64.26000 -1.060
64.28000 4.305
64.30000 0.316
64.32000 0.529
64.34000 2.241
64.36000 2.961
64.38000 1.274
64.40000 -2.656
64.42000 -2.323
64.44000 0.775
64.46000 4.656
64.48000 7.082
64.50000 4.292
64.52000 -0.405
64.54000 -0.157
64.56000 1.665
64.58000 2.600
64.60000 2.039
64.62000 0.193
64.64000 1.183
64.66000 0.877
64.68000 3.635
64.70000 0.896
64.72000 0.620
64.74000 -0.055
64.76000 1.615
64.78000 -0.533
64.80000 2.156
64.82000 0.930
64.84000 2.781
64.86000 4.418
64.88000 3.851
64.90000 1.675
64.92000 -0.750
64.94000 3.114
64.96000 4.912
64.98000 2.507
65.00000 0.208
65.02000 -2.005
65.04000 -2.195
65.06000 3.919
65.08000 3.124
65.10000 0.341
65.12000 -0.230
65.14000 0.465
65.16000 -1.598
65.18000 3.217
65.20000 1.304
65.22000 3.381
65.24000 0.467
65.26000 0.363
65.28000 2.649
65.30000 2.339
65.32000 -1.010
65.34000 0.056
65.36000 -0.423
65.38000 0.028
65.40000 -0.634
65.42000 -1.499
65.44000 -2.649
65.46000 1.262
65.48000 2.595
65.50000 2.164
65.52000 -1.833
65.54000 0.790
65.56000 0.246
65.58000 2.412
65.60000 3.266
65.62000 4.686
65.64000 2.873
65.66000 1.929
65.68000 0.216
65.70000 -2.243
65.72000 -0.752
65.74000 1.877
65.76000 0.225
65.78000 3.669
65.80000 3.725
65.82000 3.233
65.84000 0.485
65.86000 -0.359
65.88000 0.124
65.90000 0.969
65.92000 2.467
65.94000 2.852
65.96000 -0.525
65.98000 -2.483
66.00000 -1.584
66.02000 0.181
66.04000 -0.413
66.06000 1.957
66.08000 1.151
66.10000 4.870
66.12000 8.659
66.14000 5.916
66.16000 3.849
66.18000 3.525
66.20000 2.464
66.22000 1.811
66.24000 0.172
66.26000 1.269
66.28000 2.211
66.30000 0.310
66.32000 -2.661
66.34000 -2.663
66.36000 2.840
66.38000 1.699
66.40000 0.853
66.42000 4.106
66.44000 4.748
66.46000 6.568
66.48000 7.163
66.50000 2.640
66.52000 -0.634
66.54000 1.449
66.56000 1.230
66.58000 -2.478
66.60000 0.606
66.62000 2.205
66.64000 0.784
66.66000 -0.627
66.68000 3.329
66.70000 2.895
66.72000 3.556
66.74000 -1.369
66.76000 -2.491
66.78000 -0.780
66.80000 0.385
66.82000 0.415
66.84000 1.515
66.86000 0.104
66.88000 3.837
66.90000 4.053
66.92000 -0.145
66.94000 -1.305
66.96000 0.705
66.98000 2.654
67.00000 -0.821
67.02000 1.114
67.04000 3.707
67.06000 4.441
67.08000 3.553
67.10000 1.832
67.12000 1.905
67.14000 1.507
67.16000 3.737
67.18000 4.935
67.20000 -1.095
67.22000 -0.447
67.24000 1.616
67.26000 5.398
67.28000 6.553
67.30000 5.646
67.32000 0.962
67.34000 1.638
67.36000 2.841
67.38000 4.338
67.40000 -0.309
67.42000 0.486
67.44000 1.758
67.46000 0.986
67.48000 3.344
67.50000 -0.572
67.52000 -1.234
67.54000 4.324
67.56000 4.795
67.58000 5.967
67.60000 7.565
67.62000 5.859
67.64000 7.161
67.66000 5.493
67.68000 3.088
67.70000 4.501
67.72000 9.322
67.74000 3.269
67.76000 5.136
67.78000 7.120
67.80000 7.913
67.82000 5.609
67.84000 5.829
67.86000 5.851
67.88000 6.264
67.90000 11.225
67.92000 9.064
67.94000 9.192
67.96000 10.244
67.98000 10.331
68.00000 7.188
68.02000 5.087
68.04000 7.574
68.06000 8.808
68.08000 4.130
68.10000 9.734
68.12000 8.917
68.14000 8.407
68.16000 12.032
68.18000 11.796
68.20000 11.470
68.22000 15.915
68.24000 16.792
68.26000 13.384
68.28000 16.956
68.30000 15.531
68.32000 14.521
68.34000 16.323
68.36000 16.499
68.38000 21.374
68.40000 20.949
68.42000 17.771
68.44000 17.261
68.46000 19.775
68.48000 20.169
68.50000 16.492
68.52000 18.067
68.54000 19.626
68.56000 18.641
68.58000 17.804
68.60000 16.345
68.62000 20.207
68.64000 23.923
68.66000 22.060
68.68000 22.541
68.70000 22.388
68.72000 27.540
68.74000 24.769
68.76000 25.530
68.78000 22.130
68.80000 25.066
68.82000 27.103
68.84000 29.792
68.86000 31.933
68.88000 25.740
68.90000 25.982
68.92000 25.290
68.94000 27.237
68.96000 25.865
68.98000 25.224
69.00000 25.366
69.02000 22.236
69.04000 25.406
69.06000 26.144
69.08000 24.174
69.10000 21.360
69.12000 28.737
69.14000 27.753
69.16000 29.820
69.18000 22.828
69.20000 20.725
69.22000 18.647
69.24000 20.534
69.26000 23.057
69.28000 23.246
69.30000 21.518
69.32000 19.974
69.34000 19.698
69.36000 22.641
69.38000 18.964
69.40000 12.875
69.42000 14.347
69.44000 14.715
69.46000 13.131
69.48000 16.184
69.50000 20.238
69.52000 18.344
69.54000 13.358
69.56000 13.887
69.58000 10.751
69.60000 10.970
69.62000 12.063
69.64000 17.487
69.66000 13.568
69.68000 11.940
69.70000 8.971
69.72000 9.734
69.74000 6.277
69.76000 12.575
69.78000 6.920
69.80000 6.252
69.82000 7.426
69.84000 5.999
69.86000 7.332
69.88000 2.990
69.90000 4.361
69.92000 4.911
69.94000 6.054
69.96000 5.786
69.98000 5.648
70.00000 7.402
70.02000 5.058
70.04000 1.722
70.06000 4.564
70.08000 6.838
70.10000 5.180
70.12000 7.013
70.14000 5.835
70.16000 7.023
70.18000 7.085
70.20000 1.884
70.22000 2.240
70.24000 -0.676
70.26000 -2.664
70.28000 -0.837
70.30000 1.356
70.32000 0.329
70.34000 1.001
70.36000 0.804
70.38000 2.809
70.40000 3.666
70.42000 4.660
70.44000 5.164
70.46000 4.575
70.48000 1.185
70.50000 0.694
70.52000 -0.273
70.54000 2.529
70.56000 4.552
70.58000 7.983
70.60000 0.098
70.62000 0.784
70.64000 3.505
70.66000 2.095
70.68000 2.245
70.70000 1.158
70.72000 -2.604
70.74000 3.135
70.76000 4.869
70.78000 -2.011
70.80000 -2.534
70.82000 2.333
70.84000 1.093
70.86000 3.901
70.88000 2.287
70.90000 -1.333
70.92000 0.355
70.94000 0.937
70.96000 0.016
70.98000 1.880
71.00000 3.026
71.02000 1.204
71.04000 -0.784
71.06000 -2.562
71.08000 0.437
71.10000 0.900
71.12000 2.071
71.14000 3.875
71.16000 6.979
71.18000 8.960
71.20000 2.441
71.22000 -1.766
71.24000 2.701
71.26000 1.543
71.28000 -1.868
71.30000 0.745
71.32000 1.944
71.34000 2.639
71.36000 1.436
71.38000 3.091
71.40000 2.684
71.42000 -0.573
71.44000 0.478
71.46000 3.427
71.48000 3.473
71.50000 2.452
71.52000 2.233
71.54000 -0.199
71.56000 0.398
71.58000 5.219
71.60000 0.866
71.62000 -0.704
71.64000 0.354
71.66000 4.251
71.68000 4.381
71.70000 6.787
71.72000 2.253
71.74000 1.122
71.76000 3.994
71.78000 1.477
71.80000 0.652
71.82000 1.629
71.84000 -0.290
71.86000 -0.423
71.88000 2.395
71.90000 6.934
71.92000 -2.509
71.94000 0.938
71.96000 3.905
71.98000 6.906
72.00000 6.369
72.02000 5.754
72.04000 2.888
72.06000 1.882
72.08000 1.157
72.10000 2.309
72.12000 2.235
72.14000 4.143
72.16000 2.266
72.18000 1.522
72.20000 5.406
72.22000 2.861
72.24000 -1.538
72.26000 1.861
72.28000 -0.911
72.30000 0.931
72.32000 6.026
72.34000 4.498
72.36000 -2.470
72.38000 3.610
72.40000 5.524
72.42000 3.088
72.44000 2.007
72.46000 4.580
72.48000 2.685
72.50000 0.624
72.52000 2.076
72.54000 3.325
72.56000 5.689
72.58000 4.261
72.60000 3.291
72.62000 1.881
72.64000 5.348
72.66000 4.172
72.68000 3.208
72.70000 6.888
72.72000 4.156
72.74000 1.097
72.76000 3.206
72.78000 1.283
72.80000 1.149
72.82000 -0.916
72.84000 5.286
72.86000 0.967
72.88000 0.930
72.90000 0.819
72.92000 1.610
72.94000 3.162
72.96000 4.961
72.98000 3.760
73.00000 1.243
73.02000 0.639
73.04000 4.611
73.06000 0.368
73.08000 5.904
73.10000 9.891
73.12000 7.856
73.14000 5.123
73.16000 6.468
73.18000 4.782
73.20000 1.309
73.22000 -2.181
73.24000 -1.698
73.26000 -2.438
73.28000 5.598
73.30000 6.949
73.32000 6.418
73.34000 7.165
73.36000 4.895
73.38000 1.499
73.40000 5.374
73.42000 6.145
73.44000 -1.825
73.46000 2.781
73.48000 3.697
73.50000 3.698
73.52000 7.804
73.54000 10.086
73.56000 4.278
73.58000 -0.921
73.60000 -2.442
73.62000 0.003
73.64000 3.349
73.66000 3.148
73.68000 2.342
73.70000 1.018
73.72000 -2.365
73.74000 0.505
73.76000 1.977
73.78000 2.593
73.80000 4.727
73.82000 8.965
73.84000 6.057
73.86000 6.394
73.88000 3.990
73.90000 5.199
73.92000 1.833
73.94000 1.375
73.96000 1.254
73.98000 2.232
74.00000 2.132
74.02000 1.072
74.04000 -2.449
74.06000 -0.364
74.08000 -0.688
74.10000 -0.055
74.12000 2.136
74.14000 2.009
74.16000 4.703
74.18000 0.980
74.20000 3.476
74.22000 2.549
74.24000 4.134
74.26000 6.690
74.28000 6.655
74.30000 3.539
74.32000 6.841
74.34000 6.994
74.36000 3.178
74.38000 4.083
74.40000 2.588
74.42000 3.306
74.44000 7.519
74.46000 6.669
74.48000 3.727
74.50000 -2.316
74.52000 1.306
74.54000 0.622
74.56000 0.062
74.58000 1.224
74.60000 2.594
74.62000 0.926
74.64000 2.188
74.66000 3.550
74.68000 3.588
74.70000 0.795
74.72000 0.530
74.74000 0.012
74.76000 2.792
74.78000 0.783
74.80000 2.260
74.82000 1.505
74.84000 3.314
74.86000 5.333
74.88000 3.414
74.90000 0.006
74.92000 3.531
74.94000 2.251
74.96000 3.197
74.98000 4.133
75.00000 4.659
75.02000 4.987
75.04000 4.452
75.06000 4.958
75.08000 3.564
75.10000 2.670
75.12000 8.455
75.14000 6.122
75.16000 5.455
75.18000 7.462
75.20000 8.479
75.22000 6.971
75.24000 7.593
75.26000 7.573
75.28000 10.514
75.30000 7.010
75.32000 4.340
75.34000 7.725
75.36000 2.524
75.38000 -2.395
75.40000 2.452
75.42000 7.493
75.44000 5.790
75.46000 4.628
75.48000 3.610
75.50000 1.476
75.52000 6.365
75.54000 8.613
75.56000 7.080
75.58000 4.258
75.60000 6.255
75.62000 7.575
75.64000 7.266
75.66000 9.148
75.68000 8.746
75.70000 3.600
75.72000 1.215
75.74000 -0.023
75.76000 0.394
75.78000 6.755
75.80000 13.701
75.82000 8.453
75.84000 5.368
75.86000 10.044
75.88000 11.957
75.90000 7.321
75.92000 1.129
75.94000 1.469
75.96000 3.783
75.98000 6.211
76.00000 0.004
76.02000 -2.422
76.04000 1.346
76.06000 5.541
76.08000 5.740
76.10000 8.565
76.12000 6.407
76.14000 5.543
76.16000 4.618
76.18000 4.306
76.20000 5.028
76.22000 6.576
76.24000 8.205
76.26000 3.954
76.28000 5.915
76.30000 4.936
76.32000 1.934
76.34000 0.404
76.36000 0.051
76.38000 -0.981
76.40000 3.218
76.42000 1.980
76.44000 6.317
76.46000 6.194
76.48000 6.535
76.50000 0.988
76.52000 1.057
76.54000 -0.991
76.56000 -0.473
76.58000 2.421
76.60000 2.126
76.62000 1.808
76.64000 2.492
76.66000 1.493
76.68000 4.828
76.70000 1.491
76.72000 5.297
76.74000 3.406
76.76000 -1.149
76.78000 2.865
76.80000 4.641
76.82000 4.125
76.84000 5.169
76.86000 3.314
76.88000 3.620
76.90000 4.019
76.92000 6.878
76.94000 2.226
76.96000 5.289
76.98000 1.250
77.00000 2.219
77.02000 2.244
77.04000 -2.463
77.06000 -0.775
77.08000 1.055
77.10000 2.572
77.12000 2.384
77.14000 1.537
77.16000 3.834
77.18000 3.907
77.20000 1.219
77.22000 1.772
77.24000 4.333
77.26000 4.751
77.28000 0.027
77.30000 1.720
77.32000 3.854
77.34000 7.973
77.36000 8.715
77.38000 7.811
77.40000 5.863
77.42000 4.916
77.44000 -1.008
77.46000 1.947
77.48000 5.899
77.50000 3.229
77.52000 1.261
77.54000 -0.331
77.56000 5.459
77.58000 3.257
77.60000 0.090
77.62000 -1.331
77.64000 -1.750
77.66000 1.199
77.68000 -0.588
77.70000 1.296
77.72000 4.760
77.74000 5.850
77.76000 5.061
77.78000 3.865
77.80000 2.819
77.82000 1.821
77.84000 4.580
77.86000 6.363
77.88000 8.661
77.90000 2.913
77.92000 0.668
77.94000 4.211
77.96000 2.243
77.98000 1.087
78.00000 2.762
78.02000 0.139
78.04000 2.896
78.06000 5.682
78.08000 6.010
78.10000 -2.435
78.12000 -0.122
78.14000 -0.741
78.16000 2.529
78.18000 4.813
78.20000 1.662
78.22000 2.798
78.24000 8.405
78.26000 12.283
78.28000 2.192
78.30000 -1.014
78.32000 5.168
78.34000 4.835
78.36000 4.283
78.38000 5.202
78.40000 5.720
78.42000 5.909
78.44000 -1.252
78.46000 2.276
78.48000 6.122
78.50000 6.431
78.52000 5.620
78.54000 5.517
78.56000 6.088
78.58000 3.730
78.60000 5.523
78.62000 11.540
78.64000 8.088
78.66000 1.074
78.68000 1.498
78.70000 8.828
78.72000 4.288
78.74000 10.383
78.76000 6.675
78.78000 4.506
78.80000 4.227
78.82000 1.802
78.84000 5.486
78.86000 3.016
78.88000 0.637
78.90000 -2.460
78.92000 3.140
78.94000 3.519
78.96000 6.026
78.98000 4.302
79.00000 5.846
79.02000 10.146
79.04000 7.277
79.06000 3.045
79.08000 4.579
79.10000 4.282
79.12000 1.237
79.14000 3.114
79.16000 7.227
79.18000 3.930
79.20000 8.206
79.22000 9.126
79.24000 6.592
79.26000 5.655
79.28000 6.555
79.30000 8.460
79.32000 8.591
79.34000 4.779
79.36000 2.686
79.38000 -0.296
79.40000 2.521
79.42000 1.871
79.44000 3.371
79.46000 7.319
79.48000 2.721
79.50000 2.633
79.52000 5.720
79.54000 9.157
79.56000 2.522
79.58000 2.230
79.60000 2.379
79.62000 0.440
79.64000 3.201
79.66000 4.050
79.68000 3.787
79.70000 6.669
79.72000 11.805
79.74000 12.328
79.76000 10.675
79.78000 2.196
79.80000 1.702
79.82000 8.448
79.84000 6.187
79.86000 2.581
79.88000 4.747
79.90000 7.352
79.92000 7.233
79.94000 7.385
79.96000 1.401
79.98000 -2.473
80.00000 -1.201
80.02000 4.506
80.04000 2.686
80.06000 5.077
80.08000 4.382
80.10000 6.957
80.12000 7.238
80.14000 5.948
80.16000 6.167
80.18000 6.743
80.20000 7.159
80.22000 5.683
80.24000 8.539
80.26000 7.568
80.28000 10.703
80.30000 8.926
80.32000 5.179
80.34000 5.244
80.36000 8.203
80.38000 6.814
80.40000 9.175
80.42000 4.425
80.44000 1.612
80.46000 5.173
80.48000 7.224
80.50000 5.358
80.52000 4.368
80.54000 5.627
80.56000 6.618
80.58000 0.834
80.60000 2.449
80.62000 3.126
80.64000 4.175
80.66000 5.935
80.68000 6.732
80.70000 7.034
80.72000 5.186
80.74000 5.677
80.76000 7.392
80.78000 2.511
80.80000 1.724
80.82000 6.975
80.84000 15.527
80.86000 9.194
80.88000 7.791
80.90000 8.060
80.92000 5.199
80.94000 1.713
80.96000 5.077
80.98000 2.518
81.00000 -2.583
81.02000 6.258
81.04000 5.541
81.06000 3.988
81.08000 7.473
81.10000 8.170
81.12000 -0.281
81.14000 0.184
81.16000 0.380
81.18000 5.631
81.20000 6.005
81.22000 5.525
81.24000 2.212
81.26000 0.326
81.28000 1.069
81.30000 -0.318
81.32000 3.710
81.34000 0.042
81.36000 3.807
81.38000 9.275
81.40000 5.713
81.42000 1.586
81.44000 7.266
81.46000 10.575
81.48000 5.282
81.50000 9.694
81.52000 8.434
81.54000 4.882
81.56000 1.222
81.58000 0.426
81.60000 0.660
81.62000 9.699
81.64000 13.329
81.66000 12.801
81.68000 10.639
81.70000 8.308
81.72000 9.055
81.74000 11.789
81.76000 9.689
81.78000 10.211
81.80000 6.592
81.82000 3.819
81.84000 6.023
81.86000 9.539
81.88000 9.380
81.90000 10.410
81.92000 11.242
81.94000 11.334
81.96000 13.221
81.98000 13.600
82.00000 12.272
82.02000 10.644
82.04000 16.339
82.06000 14.654
82.08000 11.457
82.10000 14.469
82.12000 14.649
82.14000 15.475
82.16000 11.519
82.18000 18.473
82.20000 18.849
82.22000 13.943
82.24000 16.439
82.26000 19.223
82.28000 20.739
82.30000 20.171
82.32000 16.021
82.34000 11.991
82.36000 16.843
82.38000 20.625
82.40000 15.889
82.42000 14.110
82.44000 15.702
82.46000 13.652
82.48000 15.601
82.50000 19.332
82.52000 18.872
82.54000 22.065
82.56000 29.251
82.58000 23.781
82.60000 18.237
82.62000 19.983
82.64000 22.617
82.66000 22.799
82.68000 19.256
82.70000 17.565
82.72000 14.014
82.74000 13.773
82.76000 18.493
82.78000 21.503
82.80000 21.589
82.82000 24.221
82.84000 27.651
82.86000 30.655
82.88000 21.892
82.90000 21.140
82.92000 23.060
82.94000 23.854
82.96000 30.592
82.98000 29.253
83.00000 23.960
83.02000 21.883
83.04000 28.397
83.06000 28.338
83.08000 22.862
83.10000 25.020
83.12000 26.045
83.14000 23.640
83.16000 22.098
83.18000 27.914
83.20000 25.190
83.22000 31.681
83.24000 33.095
83.26000 30.711
83.28000 27.636
83.30000 28.816
83.32000 31.544
83.34000 28.473
83.36000 28.199
83.38000 27.154
83.40000 31.224
83.42000 25.544
83.44000 23.921
83.46000 22.357
83.48000 25.584
83.50000 35.538
83.52000 35.207
83.54000 24.674
83.56000 26.131
83.58000 23.570
83.60000 18.967
83.62000 21.117
83.64000 23.704
83.66000 29.118
83.68000 27.568
83.70000 26.807
83.72000 24.074
83.74000 20.734
83.76000 17.717
83.78000 22.668
83.80000 23.596
83.82000 18.523
83.84000 19.955
83.86000 16.948
83.88000 17.996
83.90000 19.902
83.92000 22.522
83.94000 18.266
83.96000 18.226
83.98000 14.392
84.00000 13.371
84.02000 15.158
84.04000 16.152
84.06000 14.140
84.08000 10.929
84.10000 12.304
84.12000 10.115
84.14000 6.254
84.16000 12.948
84.18000 8.750
84.20000 17.647
84.22000 18.830
84.24000 22.912
84.26000 13.803
84.28000 12.850
84.30000 10.825
84.32000 11.865
84.34000 7.552
84.36000 8.252
84.38000 9.702
84.40000 12.154
84.42000 16.355
84.44000 10.203
84.46000 5.241
84.48000 7.577
84.50000 9.131
84.52000 7.949
84.54000 8.537
84.56000 3.308
84.58000 4.678
84.60000 8.428
84.62000 4.045
84.64000 4.565
84.66000 5.612
84.68000 5.688
84.70000 11.328
84.72000 13.757
84.74000 7.759
84.76000 4.368
84.78000 9.389
84.80000 8.790
84.82000 11.897
84.84000 7.474
84.86000 5.542
84.88000 5.816
84.90000 5.173
84.92000 -1.626
84.94000 -0.638
84.96000 0.157
84.98000 5.909
85.00000 3.896
85.02000 -0.499
85.04000 3.670
85.06000 3.848
85.08000 1.874
85.10000 -1.111
85.12000 3.669
85.14000 7.522
85.16000 14.416
85.18000 15.460
85.20000 9.230
85.22000 7.995
85.24000 9.843
85.26000 8.445
85.28000 2.872
85.30000 6.172
85.32000 8.625
85.34000 7.506
85.36000 9.263
85.38000 9.249
85.40000 4.953
85.42000 4.101
85.44000 4.239
85.46000 5.612
85.48000 7.176
85.50000 9.874
85.52000 3.882
85.54000 -2.459
85.56000 1.566
85.58000 4.532
85.60000 5.376
85.62000 7.751
85.64000 8.352
85.66000 6.860
85.68000 4.030
85.70000 7.658
85.72000 6.688
85.74000 6.866
85.76000 6.036
85.78000 0.991
85.80000 5.115
85.82000 7.589
85.84000 7.370
85.86000 7.422
85.88000 2.624
85.90000 1.416
85.92000 4.841
85.94000 8.320
85.96000 2.772
85.98000 0.863
86.00000 2.365
86.02000 2.846
86.04000 6.530
86.06000 4.392
86.08000 6.465
86.10000 8.724
86.12000 8.971
86.14000 7.455
86.16000 6.762
86.18000 7.585
86.20000 7.938
86.22000 3.209
86.24000 3.390
86.26000 7.865
86.28000 7.967
86.30000 1.338
86.32000 3.317
86.34000 0.221
86.36000 0.449
86.38000 5.738
86.40000 6.415
86.42000 8.986
86.44000 4.614
86.46000 4.062
86.48000 8.353
86.50000 7.369
86.52000 6.516
86.54000 4.639
86.56000 9.747
86.58000 1.845
86.60000 4.708
86.62000 9.465
86.64000 7.959
86.66000 6.337
86.68000 5.878
86.70000 5.903
86.72000 5.497
86.74000 6.090
86.76000 9.536
86.78000 12.426
86.80000 11.994
86.82000 9.691
86.84000 13.794
86.86000 12.447
86.88000 7.578
86.90000 7.948
86.92000 6.476
86.94000 14.418
86.96000 15.333
86.98000 15.601
87.00000 10.966
87.02000 16.463
87.04000 19.738
87.06000 12.618
87.08000 11.653
87.10000 13.896
87.12000 16.633
87.14000 18.477
87.16000 17.791
87.18000 20.857
87.20000 14.690
87.22000 11.346
87.24000 12.512
87.26000 15.277
87.28000 13.266
87.30000 15.123
87.32000 19.022
87.34000 16.545
87.36000 10.291
87.38000 17.537
87.40000 18.088
87.42000 18.096
87.44000 20.871
87.46000 25.848
87.48000 25.494
87.50000 27.844
87.52000 28.295
87.54000 24.942
87.56000 22.234
87.58000 21.245
87.60000 26.364
87.62000 24.823
87.64000 23.189
87.66000 29.224
87.68000 20.403
87.70000 23.163
87.72000 25.900
87.74000 24.097
87.76000 17.510
87.78000 17.832
87.80000 24.227
87.82000 28.384
87.84000 23.968
87.86000 22.500
87.88000 22.422
87.90000 27.046
87.92000 25.580
87.94000 23.707
87.96000 25.074
87.98000 20.888
88.00000 23.466
88.02000 26.902
88.04000 26.898
88.06000 26.686
88.08000 20.676
88.10000 22.144
88.12000 19.451
88.14000 12.594
88.16000 19.946
88.18000 22.282
88.20000 16.212
88.22000 21.385
88.24000 16.354
88.26000 9.975
88.28000 14.569
88.30000 17.727
88.32000 15.033
88.34000 15.214
88.36000 17.548
88.38000 17.737
88.40000 17.980
88.42000 19.088
88.44000 17.719
88.46000 17.110
88.48000 9.511
88.50000 12.626
88.52000 14.829
88.54000 12.560
88.56000 9.038
88.58000 8.608
88.60000 7.242
88.62000 2.798
88.64000 12.167
88.66000 11.118
88.68000 11.257
88.70000 14.463
88.72000 8.294
88.74000 0.007
88.76000 2.300
88.78000 4.920
88.80000 6.479
88.82000 2.725
88.84000 5.500
88.86000 6.014
88.88000 3.730
88.90000 2.727
88.92000 7.447
88.94000 7.170
88.96000 6.667
88.98000 6.503
89.00000 5.320
89.02000 6.160
89.04000 0.945
89.06000 0.441
89.08000 6.453
89.10000 11.364
89.12000 6.322
89.14000 8.356
89.16000 7.181
89.18000 7.964
89.20000 5.854
89.22000 6.105
89.24000 5.056
89.26000 7.340
89.28000 6.237
89.30000 4.673
89.32000 8.971
89.34000 7.280
89.36000 6.925
89.38000 8.320
89.40000 8.549
89.42000 12.727
89.44000 6.104
89.46000 0.370
89.48000 0.002
89.50000 -2.393
89.52000 4.542
89.54000 5.915
89.56000 3.344
89.58000 11.652
89.60000 9.014
89.62000 4.580
89.64000 3.704
89.66000 4.642
89.68000 5.501
89.70000 6.578
89.72000 4.012
89.74000 -1.470
89.76000 3.990
89.78000 4.249
89.80000 4.821
89.82000 8.953
89.84000 8.895
89.86000 6.072
89.88000 7.160
89.90000 1.311
89.92000 -0.579
89.94000 -2.334
89.96000 -1.321
89.98000 2.042
90.00000 5.010
90.02000 4.009
90.04000 1.298
90.06000 4.448
90.08000 5.110
90.10000 2.069
90.12000 -1.625
90.14000 -0.778
90.16000 6.640
90.18000 9.226
90.20000 8.678
90.22000 3.735
90.24000 3.142
90.26000 0.174
90.28000 1.481
90.30000 4.771
90.32000 1.599
90.34000 2.416
90.36000 5.513
90.38000 5.926
90.40000 3.763
90.42000 3.929
90.44000 0.050
90.46000 -0.709
90.48000 2.869
90.50000 3.578
90.52000 1.755
90.54000 1.766
90.56000 5.549
90.58000 7.044
90.60000 9.371
90.62000 4.121
90.64000 6.089
90.66000 8.079
90.68000 7.699
90.70000 4.762
90.72000 4.538
90.74000 4.524
90.76000 6.835
90.78000 7.054
90.80000 -1.104
90.82000 5.379
90.84000 4.629
90.86000 2.241
90.88000 3.728
90.90000 4.977
90.92000 2.730
90.94000 -2.037
90.96000 -2.296
90.98000 0.013
91.00000 -0.938
91.02000 1.516
91.04000 4.492
91.06000 5.892
91.08000 9.385
91.10000 2.894
91.12000 1.603
91.14000 4.366
91.16000 6.933
91.18000 4.607
91.20000 6.926
91.22000 4.592
91.24000 5.646
91.26000 4.897
91.28000 -2.287
91.30000 0.061
91.32000 5.704
91.34000 8.778
91.36000 8.273
91.38000 4.576
91.40000 3.964
91.42000 1.892
91.44000 3.690
91.46000 2.797
91.48000 1.841
91.50000 1.635
91.52000 4.915
91.54000 3.255
91.56000 2.079
91.58000 2.281
91.60000 4.920
91.62000 7.203
91.64000 4.437
91.66000 5.267
91.68000 0.952
91.70000 5.194
91.72000 4.238
91.74000 0.895
91.76000 5.238
91.78000 2.176
91.80000 -1.670
91.82000 -2.305
91.84000 10.075
91.86000 9.634
91.88000 5.157
91.90000 2.137
91.92000 6.183
91.94000 3.605
91.96000 5.082
91.98000 8.385
92.00000 3.012
92.02000 3.102
92.04000 4.949
92.06000 3.606
92.08000 4.790
92.10000 8.834
92.12000 2.555
92.14000 4.654
92.16000 1.546
92.18000 2.792
92.20000 5.575
92.22000 6.351
92.24000 8.475
92.26000 5.180
92.28000 2.670
92.30000 0.889
92.32000 4.583
92.34000 3.526
92.36000 5.461
92.38000 6.254
92.40000 0.113
92.42000 2.412
92.44000 0.132
92.46000 2.912
92.48000 1.299
92.50000 6.525
92.52000 3.034
92.54000 5.529
92.56000 5.690
92.58000 8.975
92.60000 9.117
92.62000 8.516
92.64000 5.073
92.66000 4.206
92.68000 7.859
92.70000 2.026
92.72000 0.312
92.74000 1.915
92.76000 1.584
92.78000 1.411
92.80000 1.710
92.82000 -0.476
92.84000 3.931
92.86000 -0.097
92.88000 -2.266
92.90000 4.149
92.92000 6.907
92.94000 6.630
92.96000 6.844
92.98000 -0.236
93.00000 -1.311
93.02000 0.944
93.04000 3.673
93.06000 3.405
93.08000 3.602
93.10000 -0.312
93.12000 -2.027
93.14000 4.776
93.16000 4.500
93.18000 5.092
93.20000 8.173
93.22000 6.203
93.24000 4.971
93.26000 -0.510
93.28000 3.405
93.30000 4.462
93.32000 0.893
93.34000 2.474
93.36000 2.113
93.38000 7.693
93.40000 3.877
93.42000 1.975
93.44000 4.854
93.46000 3.902
93.48000 7.049
93.50000 4.764
93.52000 0.112
93.54000 -2.309
93.56000 0.413
93.58000 -0.918
93.60000 2.181
93.62000 4.177
93.64000 2.068
93.66000 2.932
93.68000 1.248
93.70000 4.847
93.72000 6.303
93.74000 3.315
93.76000 3.209
93.78000 0.541
93.80000 3.021
93.82000 7.872
93.84000 4.329
93.86000 4.006
93.88000 -0.281
93.90000 -0.347
93.92000 0.798
93.94000 2.184
93.96000 3.524
93.98000 8.305
94.00000 10.552
94.02000 3.710
94.04000 3.344
94.06000 5.420
94.08000 6.867
94.10000 3.547
94.12000 6.244
94.14000 8.147
94.16000 5.848
94.18000 2.677
94.20000 0.125
94.22000 3.427
94.24000 6.944
94.26000 8.689
94.28000 1.732
94.30000 -2.333
94.32000 1.489
94.34000 9.183
94.36000 9.327
94.38000 6.771
94.40000 1.906
94.42000 2.598
94.44000 1.655
94.46000 0.939
94.48000 1.749
94.50000 3.449
94.52000 4.449
94.54000 3.011
94.56000 -0.238
94.58000 4.413
94.60000 5.688
94.62000 3.215
94.64000 3.946
94.66000 0.373
94.68000 -0.232
94.70000 3.097
94.72000 -0.901
94.74000 4.265
94.76000 9.004
94.78000 7.714
94.80000 10.880
94.82000 3.600
94.84000 1.559
94.86000 2.749
94.88000 7.357
94.90000 4.993
94.92000 0.733
94.94000 6.691
94.96000 5.772
94.98000 4.197
95.00000 3.869
95.02000 4.831
95.04000 6.915
95.06000 3.377
95.08000 7.631
95.10000 4.188
95.12000 6.042
95.14000 4.691
95.16000 3.754
95.18000 7.418
95.20000 2.785
95.22000 -0.132
95.24000 0.211
95.26000 0.368
95.28000 -0.913
95.30000 -2.315
95.32000 3.315
95.34000 7.180
95.36000 6.068
95.38000 7.363
95.40000 7.802
95.42000 4.813
95.44000 4.878
95.46000 10.575
95.48000 6.753
95.50000 6.704
95.52000 4.315
95.54000 3.509
95.56000 5.806
95.58000 6.018
95.60000 5.660
95.62000 0.932
95.64000 0.334
95.66000 10.638
95.68000 9.074
95.70000 11.197
95.72000 5.727
95.74000 6.454
95.76000 4.202
95.78000 1.879
95.80000 1.819
95.82000 7.158
95.84000 6.052
95.86000 10.484
95.88000 11.823
95.90000 7.972
95.92000 5.492
95.94000 5.105
95.96000 0.003
95.98000 0.461
96.00000 -2.296
96.02000 8.937
96.04000 13.358
96.06000 10.512
96.08000 12.857
96.10000 8.949
96.12000 6.894
96.14000 5.215
96.16000 3.034
96.18000 -0.957
96.20000 5.228
96.22000 3.209
96.24000 6.177
96.26000 -1.184
96.28000 1.244
96.30000 0.670
96.32000 3.333
96.34000 4.546
96.36000 -1.057
96.38000 4.363
96.40000 10.329
96.42000 6.713
96.44000 3.364
96.46000 7.896
96.48000 2.369
96.50000 4.262
96.52000 3.861
96.54000 8.017
96.56000 8.656
96.58000 8.588
96.60000 6.127
96.62000 3.476
96.64000 3.851
96.66000 7.614
96.68000 6.129
96.70000 10.150
96.72000 10.854
96.74000 5.947
96.76000 9.415
96.78000 12.426
96.80000 6.121
96.82000 3.658
96.84000 4.688
96.86000 2.193
96.88000 8.546
96.90000 8.891
96.92000 2.882
96.94000 1.608
96.96000 3.406
96.98000 4.045
97.00000 2.269
97.02000 1.951
97.04000 9.592
97.06000 10.950
97.08000 1.956
97.10000 3.870
97.12000 3.287
97.14000 -1.798
97.16000 9.227
97.18000 7.990
97.20000 6.830
97.22000 9.027
97.24000 4.670
97.26000 9.311
97.28000 3.600
97.30000 5.758
97.32000 12.871
97.34000 10.140
97.36000 9.952
97.38000 1.682
97.40000 10.068
97.42000 15.937
97.44000 8.403
97.46000 3.411
97.48000 1.809
97.50000 3.501
97.52000 4.335
97.54000 8.523
97.56000 9.358
97.58000 4.370
97.60000 5.448
97.62000 7.935
97.64000 2.374
97.66000 5.011
97.68000 7.901
97.70000 8.417
97.72000 9.431
97.74000 5.673
97.76000 0.144
97.78000 2.232
97.80000 2.447
97.82000 4.526
97.84000 4.319
97.86000 5.095
97.88000 9.015
97.90000 7.935
97.92000 8.303
97.94000 0.928
97.96000 7.753
97.98000 0.148
98.00000 0.836
98.02000 2.545
98.04000 8.437
98.06000 6.858
98.08000 7.463
98.10000 7.623
98.12000 6.542
98.14000 10.436
98.16000 7.916
98.18000 6.798
98.20000 7.709
98.22000 13.831
98.24000 7.200
98.26000 3.554
98.28000 8.637
98.30000 6.363
98.32000 10.483
98.34000 9.632
98.36000 8.961
98.38000 5.751
98.40000 13.347
98.42000 9.159
98.44000 3.912
98.46000 9.547
98.48000 8.983
98.50000 6.419
98.52000 16.600
98.54000 16.168
98.56000 15.233
98.58000 5.205
98.60000 -2.189
98.62000 5.282
98.64000 12.652
98.66000 18.721
98.68000 19.612
98.70000 14.061
98.72000 9.834
98.74000 7.187
98.76000 10.996
98.78000 7.884
98.80000 7.331
98.82000 9.660
98.84000 9.247
98.86000 7.340
98.88000 3.882
98.90000 2.642
98.92000 -1.438
98.94000 0.094
98.96000 5.128
98.98000 10.052
99.00000 14.990
99.02000 22.995
99.04000 9.980
99.06000 8.232
99.08000 5.944
99.10000 15.958
99.12000 16.661
99.14000 7.052
99.16000 12.431
99.18000 14.902
99.20000 6.113
99.22000 10.555
99.24000 14.051
99.26000 6.215
99.28000 3.795
99.30000 17.166
99.32000 12.158
99.34000 3.353
99.36000 -2.179
99.38000 9.666
99.40000 5.914
99.42000 -3.511
99.44000 5.079
99.46000 11.288
99.48000 9.546
99.50000 5.549
99.52000 7.559
99.54000 1.765
99.56000 13.996
99.58000 12.888
99.60000 10.300
99.62000 11.835
99.64000 14.705
99.66000 3.940
99.68000 3.998
99.70000 15.781
99.72000 7.606
99.74000 23.069
99.76000 19.609
99.78000 16.761
99.80000 14.702
99.82000 12.310
99.84000 9.518
99.86000 11.909
99.88000 2.746
99.90000 5.645
99.92000 3.768
99.94000 5.188
99.96000 8.482
99.98000 0.000
