'Id: "0011389" Comment: "Integrate frame 0011389_Au-Ir-Rh_Au-Rich_XRD_Mapping-168-0000.gfrmwith cursor Wedge Cursor #5" Operator: "B?rgel" Anode: "Cu" Wavelength: "1.5406" Scantype: "2Theta (TwoTheta)" TimePerStep: "1" X: "4.5" Y: "0" Z: "5.95" 
10.00000 0.000
10.02000 -4.233
10.04000 -2.300
10.06000 -3.983
10.08000 0.211
10.10000 2.476
10.12000 11.676
10.14000 11.374
10.16000 2.725
10.18000 4.604
10.20000 8.661
10.22000 19.527
10.24000 11.359
10.26000 9.155
10.28000 17.728
10.30000 15.625
10.32000 16.104
10.34000 29.539
10.36000 24.688
10.38000 16.058
10.40000 14.378
10.42000 19.366
10.44000 9.016
10.46000 5.558
10.48000 10.130
10.50000 22.692
10.52000 13.907
10.54000 16.236
10.56000 24.296
10.58000 21.317
10.60000 20.164
10.62000 16.675
10.64000 26.874
10.66000 13.396
10.68000 2.323
10.70000 13.960
10.72000 17.255
10.74000 17.518
10.76000 14.618
10.78000 11.749
10.80000 26.259
10.82000 23.315
10.84000 16.271
10.86000 17.765
10.88000 20.342
10.90000 23.819
10.92000 23.178
10.94000 8.888
10.96000 19.164
10.98000 11.239
11.00000 16.255
11.02000 12.797
11.04000 3.061
11.06000 13.192
11.08000 11.617
11.10000 19.248
11.12000 21.655
11.14000 20.504
11.16000 18.883
11.18000 33.474
11.20000 44.255
11.22000 35.889
11.24000 23.969
11.26000 15.479
11.28000 15.243
11.30000 10.046
11.32000 16.426
11.34000 15.767
11.36000 20.816
11.38000 13.917
11.40000 26.649
11.42000 32.641
11.44000 16.174
11.46000 0.754
11.48000 0.712
11.50000 3.239
11.52000 8.962
11.54000 22.578
11.56000 32.873
11.58000 35.520
11.60000 29.791
11.62000 23.415
11.64000 22.250
11.66000 16.739
11.68000 17.513
11.70000 18.501
11.72000 10.194
11.74000 12.367
11.76000 15.576
11.78000 21.782
11.80000 16.576
11.82000 16.777
11.84000 17.994
11.86000 25.884
11.88000 16.014
11.90000 11.676
11.92000 14.828
11.94000 24.704
11.96000 25.060
11.98000 13.381
12.00000 26.852
12.02000 24.075
12.04000 19.923
12.06000 12.928
12.08000 10.481
12.10000 15.108
12.12000 19.779
12.14000 20.200
12.16000 19.208
12.18000 11.573
12.20000 6.625
12.22000 13.854
12.24000 14.029
12.26000 21.733
12.28000 25.280
12.30000 17.759
12.32000 7.611
12.34000 19.170
12.36000 23.829
12.38000 23.484
12.40000 26.872
12.42000 21.838
12.44000 15.270
12.46000 22.886
12.48000 26.341
12.50000 36.788
12.52000 22.598
12.54000 21.251
12.56000 20.051
12.58000 29.204
12.60000 19.274
12.62000 25.073
12.64000 30.120
12.66000 28.165
12.68000 22.439
12.70000 15.035
12.72000 12.612
12.74000 17.003
12.76000 22.266
12.78000 13.537
12.80000 25.468
12.82000 25.023
12.84000 22.068
12.86000 23.135
12.88000 20.489
12.90000 19.429
12.92000 22.147
12.94000 20.488
12.96000 22.934
12.98000 17.366
13.00000 18.571
13.02000 17.152
13.04000 20.693
13.06000 22.042
13.08000 24.192
13.10000 25.533
13.12000 16.608
13.14000 23.208
13.16000 18.140
13.18000 12.371
13.20000 15.552
13.22000 24.087
13.24000 11.642
13.26000 5.829
13.28000 18.662
13.30000 19.662
13.32000 21.247
13.34000 17.821
13.36000 19.281
13.38000 28.157
13.40000 22.550
13.42000 24.136
13.44000 26.443
13.46000 22.132
13.48000 15.147
13.50000 24.367
13.52000 26.753
13.54000 17.857
13.56000 9.202
13.58000 11.347
13.60000 3.770
13.62000 -4.387
13.64000 6.639
13.66000 21.740
13.68000 23.000
13.70000 23.138
13.72000 20.918
13.74000 25.659
13.76000 27.660
13.78000 17.006
13.80000 14.395
13.82000 14.689
13.84000 17.429
13.86000 16.361
13.88000 21.574
13.90000 20.662
13.92000 22.578
13.94000 21.627
13.96000 16.524
13.98000 18.185
14.00000 16.790
14.02000 12.018
14.04000 16.271
14.06000 11.330
14.08000 17.803
14.10000 26.935
14.12000 18.709
14.14000 15.000
14.16000 10.060
14.18000 11.533
14.20000 15.274
14.22000 14.951
14.24000 12.370
14.26000 17.149
14.28000 22.157
14.30000 16.342
14.32000 4.901
14.34000 4.486
14.36000 4.336
14.38000 9.724
14.40000 13.632
14.42000 3.219
14.44000 4.899
14.46000 14.088
14.48000 12.359
14.50000 9.271
14.52000 10.956
14.54000 6.481
14.56000 8.536
14.58000 8.049
14.60000 4.931
14.62000 5.620
14.64000 14.685
14.66000 15.005
14.68000 20.903
14.70000 13.635
14.72000 12.906
14.74000 16.667
14.76000 13.447
14.78000 10.902
14.80000 15.360
14.82000 11.503
14.84000 10.124
14.86000 9.267
14.88000 15.150
14.90000 15.320
14.92000 9.287
14.94000 7.812
14.96000 13.291
14.98000 15.690
15.00000 4.144
15.02000 11.549
15.04000 11.474
15.06000 14.250
15.08000 14.677
15.10000 14.170
15.12000 12.538
15.14000 15.516
15.16000 10.949
15.18000 9.715
15.20000 12.851
15.22000 18.709
15.24000 17.938
15.26000 17.536
15.28000 8.466
15.30000 1.045
15.32000 11.262
15.34000 15.817
15.36000 18.643
15.38000 19.571
15.40000 13.881
15.42000 13.915
15.44000 15.505
15.46000 11.439
15.48000 20.282
15.50000 16.112
15.52000 6.182
15.54000 10.794
15.56000 4.143
15.58000 6.888
15.60000 8.045
15.62000 11.651
15.64000 8.654
15.66000 3.109
15.68000 6.777
15.70000 17.883
15.72000 11.071
15.74000 5.816
15.76000 4.565
15.78000 4.278
15.80000 5.488
15.82000 6.544
15.84000 14.377
15.86000 15.436
15.88000 7.667
15.90000 3.456
15.92000 4.875
15.94000 3.429
15.96000 6.695
15.98000 18.842
16.00000 15.406
16.02000 5.399
16.04000 2.642
16.06000 1.924
16.08000 6.639
16.10000 10.140
16.12000 6.715
16.14000 10.481
16.16000 16.577
16.18000 16.344
16.20000 8.227
16.22000 2.565
16.24000 8.819
16.26000 9.367
16.28000 10.084
16.30000 12.300
16.32000 11.672
16.34000 6.837
16.36000 10.546
16.38000 6.288
16.40000 2.728
16.42000 0.432
16.44000 4.849
16.46000 7.715
16.48000 2.223
16.50000 -3.767
16.52000 2.626
16.54000 10.881
16.56000 12.924
16.58000 10.677
16.60000 4.639
16.62000 -4.411
16.64000 -2.044
16.66000 5.644
16.68000 12.786
16.70000 10.487
16.72000 18.986
16.74000 14.126
16.76000 11.148
16.78000 7.752
16.80000 -0.263
16.82000 2.842
16.84000 4.597
16.86000 14.878
16.88000 20.093
16.90000 9.167
16.92000 7.333
16.94000 15.801
16.96000 3.481
16.98000 -2.067
17.00000 2.431
17.02000 7.103
17.04000 4.958
17.06000 2.394
17.08000 10.952
17.10000 9.559
17.12000 9.111
17.14000 11.670
17.16000 8.462
17.18000 10.259
17.20000 10.090
17.22000 10.754
17.24000 16.199
17.26000 15.252
17.28000 10.677
17.30000 9.545
17.32000 9.119
17.34000 15.500
17.36000 8.705
17.38000 3.972
17.40000 7.437
17.42000 4.359
17.44000 5.482
17.46000 1.618
17.48000 5.880
17.50000 8.886
17.52000 10.562
17.54000 10.364
17.56000 -0.147
17.58000 1.935
17.60000 1.515
17.62000 6.374
17.64000 5.781
17.66000 -0.562
17.68000 4.299
17.70000 2.914
17.72000 7.311
17.74000 0.134
17.76000 -1.595
17.78000 6.176
17.80000 7.705
17.82000 12.110
17.84000 5.900
17.86000 9.094
17.88000 7.107
17.90000 -0.424
17.92000 -0.348
17.94000 5.599
17.96000 0.456
17.98000 -4.322
18.00000 3.861
18.02000 10.146
18.04000 14.948
18.06000 12.751
18.08000 9.282
18.10000 10.876
18.12000 11.097
18.14000 11.225
18.16000 2.399
18.18000 2.430
18.20000 10.347
18.22000 5.724
18.24000 6.474
18.26000 15.211
18.28000 13.201
18.30000 1.742
18.32000 3.668
18.34000 8.440
18.36000 6.685
18.38000 1.605
18.40000 2.674
18.42000 8.971
18.44000 3.844
18.46000 6.921
18.48000 9.175
18.50000 3.054
18.52000 5.542
18.54000 9.915
18.56000 13.080
18.58000 6.919
18.60000 6.821
18.62000 7.870
18.64000 3.059
18.66000 -4.309
18.68000 1.985
18.70000 6.309
18.72000 0.308
18.74000 2.259
18.76000 -0.854
18.78000 -0.746
18.80000 1.728
18.82000 5.128
18.84000 5.095
18.86000 0.908
18.88000 -0.655
18.90000 -2.937
18.92000 -0.192
18.94000 3.350
18.96000 8.277
18.98000 8.556
19.00000 4.813
19.02000 10.620
19.04000 8.341
19.06000 8.084
19.08000 6.335
19.10000 3.959
19.12000 6.189
19.14000 10.821
19.16000 16.861
19.18000 10.063
19.20000 6.452
19.22000 9.563
19.24000 8.030
19.26000 8.535
19.28000 6.676
19.30000 -0.286
19.32000 -1.293
19.34000 1.016
19.36000 0.240
19.38000 4.473
19.40000 4.288
19.42000 10.712
19.44000 6.120
19.46000 0.874
19.48000 8.438
19.50000 2.643
19.52000 -0.262
19.54000 4.608
19.56000 6.584
19.58000 4.062
19.60000 2.878
19.62000 3.590
19.64000 1.981
19.66000 5.341
19.68000 7.347
19.70000 -0.751
19.72000 -4.261
19.74000 -0.345
19.76000 5.739
19.78000 5.322
19.80000 5.306
19.82000 11.338
19.84000 8.272
19.86000 4.579
19.88000 -1.779
19.90000 -3.972
19.92000 0.161
19.94000 4.265
19.96000 3.882
19.98000 6.147
20.00000 0.555
20.02000 -0.387
20.04000 0.498
20.06000 0.591
20.08000 1.481
20.10000 3.154
20.12000 5.450
20.14000 1.454
20.16000 3.431
20.18000 5.534
20.20000 4.992
20.22000 -0.324
20.24000 -3.684
20.26000 -4.226
20.28000 1.815
20.30000 8.537
20.32000 5.767
20.34000 5.773
20.36000 6.556
20.38000 3.360
20.40000 7.269
20.42000 0.698
20.44000 1.257
20.46000 3.542
20.48000 5.745
20.50000 10.400
20.52000 3.677
20.54000 -1.832
20.56000 -4.215
20.58000 -0.396
20.60000 3.676
20.62000 -0.833
20.64000 -0.695
20.66000 1.686
20.68000 4.442
20.70000 5.096
20.72000 7.613
20.74000 2.878
20.76000 3.714
20.78000 0.892
20.80000 -4.205
20.82000 -2.001
20.84000 0.257
20.86000 1.194
20.88000 3.941
20.90000 3.915
20.92000 1.958
20.94000 -1.008
20.96000 0.563
20.98000 0.940
21.00000 0.641
21.02000 3.075
21.04000 10.079
21.06000 5.044
21.08000 2.532
21.10000 0.317
21.12000 5.355
21.14000 4.818
21.16000 1.381
21.18000 0.382
21.20000 1.669
21.22000 5.162
21.24000 0.110
21.26000 2.538
21.28000 6.221
21.30000 3.940
21.32000 1.854
21.34000 5.909
21.36000 6.554
21.38000 -0.919
21.40000 4.413
21.42000 11.072
21.44000 6.393
21.46000 -3.852
21.48000 -1.115
21.50000 2.321
21.52000 2.492
21.54000 5.792
21.56000 2.338
21.58000 0.547
21.60000 4.872
21.62000 6.793
21.64000 0.837
21.66000 0.208
21.68000 0.129
21.70000 2.047
21.72000 2.647
21.74000 1.528
21.76000 4.243
21.78000 2.434
21.80000 5.850
21.82000 4.437
21.84000 8.576
21.86000 9.628
21.88000 -0.973
21.90000 4.193
21.92000 5.835
21.94000 4.952
21.96000 5.571
21.98000 3.785
22.00000 -3.119
22.02000 0.539
22.04000 5.384
22.06000 3.307
22.08000 1.333
22.10000 -2.090
22.12000 -4.139
22.14000 2.165
22.16000 9.992
22.18000 9.643
22.20000 1.667
22.22000 -2.854
22.24000 -0.241
22.26000 1.460
22.28000 -2.932
22.30000 0.933
22.32000 3.130
22.34000 0.468
22.36000 0.487
22.38000 0.944
22.40000 4.273
22.42000 5.884
22.44000 2.384
22.46000 0.272
22.48000 -3.585
22.50000 1.537
22.52000 3.197
22.54000 5.516
22.56000 4.378
22.58000 0.056
22.60000 -0.031
22.62000 3.804
22.64000 -0.842
22.66000 -2.663
22.68000 0.315
22.70000 3.381
22.72000 6.044
22.74000 -1.443
22.76000 2.856
22.78000 5.476
22.80000 -0.861
22.82000 1.579
22.84000 0.121
22.86000 2.616
22.88000 2.750
22.90000 -1.705
22.92000 2.939
22.94000 3.034
22.96000 1.413
22.98000 -0.191
23.00000 2.416
23.02000 1.260
23.04000 1.333
23.06000 6.374
23.08000 0.887
23.10000 4.327
23.12000 4.662
23.14000 -4.070
23.16000 2.179
23.18000 3.470
23.20000 5.537
23.22000 0.373
23.24000 0.017
23.26000 8.791
23.28000 5.969
23.30000 5.586
23.32000 9.400
23.34000 5.043
23.36000 0.350
23.38000 1.349
23.40000 3.701
23.42000 3.689
23.44000 6.566
23.46000 0.305
23.48000 1.523
23.50000 -0.534
23.52000 0.352
23.54000 3.093
23.56000 3.713
23.58000 1.940
23.60000 -1.463
23.62000 -1.189
23.64000 -1.161
23.66000 3.427
23.68000 1.231
23.70000 -0.304
23.72000 5.697
23.74000 8.145
23.76000 4.010
23.78000 4.745
23.80000 0.730
23.82000 7.180
23.84000 5.215
23.86000 1.801
23.88000 0.322
23.90000 2.431
23.92000 2.313
23.94000 2.390
23.96000 2.676
23.98000 4.330
24.00000 6.001
24.02000 7.267
24.04000 9.585
24.06000 6.595
24.08000 2.121
24.10000 -3.994
24.12000 -1.289
24.14000 4.252
24.16000 8.061
24.18000 7.271
24.20000 5.364
24.22000 4.070
24.24000 6.268
24.26000 5.075
24.28000 7.350
24.30000 2.453
24.32000 1.789
24.34000 4.504
24.36000 1.227
24.38000 4.912
24.40000 10.764
24.42000 12.458
24.44000 1.588
24.46000 0.953
24.48000 10.515
24.50000 11.335
24.52000 12.796
24.54000 5.416
24.56000 7.945
24.58000 4.113
24.60000 -3.958
24.62000 5.583
24.64000 4.188
24.66000 4.652
24.68000 5.559
24.70000 9.890
24.72000 16.541
24.74000 10.406
24.76000 7.498
24.78000 0.953
24.80000 1.682
24.82000 4.554
24.84000 6.371
24.86000 1.163
24.88000 -3.955
24.90000 -1.750
24.92000 9.434
24.94000 8.617
24.96000 3.475
24.98000 3.823
25.00000 3.791
25.02000 0.263
25.04000 1.924
25.06000 4.788
25.08000 4.012
25.10000 2.007
25.12000 0.520
25.14000 2.443
25.16000 1.336
25.18000 6.492
25.20000 4.529
25.22000 6.239
25.24000 9.103
25.26000 5.388
25.28000 -1.704
25.30000 1.355
25.32000 2.112
25.34000 0.969
25.36000 4.117
25.38000 2.196
25.40000 3.951
25.42000 6.206
25.44000 1.445
25.46000 -0.918
25.48000 1.327
25.50000 -2.147
25.52000 1.903
25.54000 12.159
25.56000 5.138
25.58000 1.371
25.60000 -1.134
25.62000 2.481
25.64000 2.478
25.66000 1.088
25.68000 3.595
25.70000 3.472
25.72000 8.708
25.74000 8.498
25.76000 10.933
25.78000 8.484
25.80000 8.490
25.82000 0.285
25.84000 -3.040
25.86000 -2.519
25.88000 -2.428
25.90000 4.030
25.92000 7.295
25.94000 1.017
25.96000 2.347
25.98000 3.827
26.00000 -1.671
26.02000 -2.166
26.04000 1.029
26.06000 1.807
26.08000 1.523
26.10000 4.618
26.12000 3.903
26.14000 2.157
26.16000 0.906
26.18000 1.598
26.20000 -1.240
26.22000 -0.229
26.24000 -0.309
26.26000 0.880
26.28000 1.773
26.30000 2.118
26.32000 2.314
26.34000 0.526
26.36000 1.526
26.38000 6.770
26.40000 7.235
26.42000 7.199
26.44000 3.542
26.46000 -1.241
26.48000 -3.888
26.50000 2.880
26.52000 5.317
26.54000 6.583
26.56000 9.002
26.58000 8.812
26.60000 2.387
26.62000 3.944
26.64000 6.873
26.66000 4.707
26.68000 3.249
26.70000 2.777
26.72000 4.146
26.74000 1.283
26.76000 4.041
26.78000 3.320
26.80000 4.198
26.82000 7.116
26.84000 2.694
26.86000 6.345
26.88000 3.216
26.90000 2.823
26.92000 4.593
26.94000 6.192
26.96000 2.444
26.98000 4.004
27.00000 8.864
27.02000 3.351
27.04000 5.768
27.06000 5.345
27.08000 2.716
27.10000 3.768
27.12000 -0.813
27.14000 -1.263
27.16000 -1.449
27.18000 -3.403
27.20000 1.247
27.22000 -2.254
27.24000 3.076
27.26000 3.186
27.28000 -0.645
27.30000 -0.237
27.32000 -1.427
27.34000 2.920
27.36000 4.080
27.38000 0.933
27.40000 1.814
27.42000 0.934
27.44000 5.091
27.46000 4.638
27.48000 2.185
27.50000 4.382
27.52000 2.103
27.54000 3.124
27.56000 7.985
27.58000 -1.469
27.60000 -3.848
27.62000 0.911
27.64000 1.925
27.66000 -0.448
27.68000 0.274
27.70000 -2.420
27.72000 -0.407
27.74000 2.413
27.76000 3.111
27.78000 4.410
27.80000 0.689
27.82000 5.762
27.84000 4.010
27.86000 2.419
27.88000 -0.234
27.90000 0.867
27.92000 0.568
27.94000 -1.195
27.96000 -2.576
27.98000 1.840
28.00000 1.550
28.02000 1.774
28.04000 8.693
28.06000 3.367
28.08000 1.713
28.10000 1.946
28.12000 -2.010
28.14000 -3.129
28.16000 4.998
28.18000 4.423
28.20000 5.397
28.22000 4.150
28.24000 -1.606
28.26000 5.103
28.28000 5.598
28.30000 1.528
28.32000 3.194
28.34000 -1.694
28.36000 -2.434
28.38000 1.915
28.40000 2.285
28.42000 4.160
28.44000 1.907
28.46000 -1.679
28.48000 -3.037
28.50000 0.561
28.52000 2.214
28.54000 6.116
28.56000 5.340
28.58000 0.154
28.60000 -3.457
28.62000 -2.521
28.64000 6.079
28.66000 2.365
28.68000 -0.592
28.70000 -1.074
28.72000 -1.994
28.74000 1.514
28.76000 3.556
28.78000 4.731
28.80000 2.114
28.82000 -0.297
28.84000 -3.774
28.86000 -1.707
28.88000 3.209
28.90000 7.921
28.92000 8.866
28.94000 2.815
28.96000 -0.447
28.98000 0.688
29.00000 3.472
29.02000 4.634
29.04000 2.504
29.06000 6.613
29.08000 5.373
29.10000 0.830
29.12000 -1.109
29.14000 2.394
29.16000 2.405
29.18000 4.766
29.20000 -0.122
29.22000 -3.285
29.24000 -0.697
29.26000 -2.557
29.28000 -0.262
29.30000 2.137
29.32000 -0.847
29.34000 0.502
29.36000 4.394
29.38000 2.364
29.40000 2.805
29.42000 5.406
29.44000 5.015
29.46000 3.617
29.48000 1.537
29.50000 3.034
29.52000 3.510
29.54000 7.286
29.56000 5.192
29.58000 6.175
29.60000 6.760
29.62000 8.818
29.64000 4.719
29.66000 4.747
29.68000 8.228
29.70000 3.042
29.72000 4.220
29.74000 3.279
29.76000 4.509
29.78000 1.160
29.80000 -0.499
29.82000 -3.407
29.84000 1.032
29.86000 5.988
29.88000 6.864
29.90000 5.956
29.92000 4.980
29.94000 2.998
29.96000 2.453
29.98000 3.104
30.00000 6.249
30.02000 1.623
30.04000 0.740
30.06000 -3.697
30.08000 2.332
30.10000 5.567
30.12000 6.163
30.14000 2.125
30.16000 -2.596
30.18000 0.842
30.20000 2.778
30.22000 0.743
30.24000 2.307
30.26000 2.619
30.28000 4.842
30.30000 2.709
30.32000 6.003
30.34000 4.547
30.36000 8.220
30.38000 4.012
30.40000 3.758
30.42000 8.271
30.44000 5.908
30.46000 4.702
30.48000 3.614
30.50000 0.880
30.52000 5.944
30.54000 0.184
30.56000 -3.681
30.58000 2.304
30.60000 3.253
30.62000 3.468
30.64000 5.988
30.66000 2.266
30.68000 5.797
30.70000 8.272
30.72000 8.132
30.74000 10.209
30.76000 3.483
30.78000 0.748
30.80000 3.961
30.82000 8.333
30.84000 7.462
30.86000 4.754
30.88000 1.230
30.90000 -1.474
30.92000 -1.488
30.94000 0.888
30.96000 0.088
30.98000 -1.415
31.00000 3.238
31.02000 2.920
31.04000 9.301
31.06000 8.737
31.08000 5.466
31.10000 3.845
31.12000 8.361
31.14000 0.576
31.16000 -1.649
31.18000 -3.669
31.20000 3.344
31.22000 6.641
31.24000 7.326
31.26000 6.507
31.28000 1.700
31.30000 4.047
31.32000 4.156
31.34000 1.024
31.36000 0.362
31.38000 -1.770
31.40000 -1.632
31.42000 0.859
31.44000 -0.573
31.46000 -0.617
31.48000 4.215
31.50000 2.009
31.52000 -3.667
31.54000 -2.923
31.56000 0.955
31.58000 -2.506
31.60000 0.620
31.62000 6.729
31.64000 5.998
31.66000 4.720
31.68000 6.279
31.70000 1.765
31.72000 0.769
31.74000 3.377
31.76000 -1.795
31.78000 0.277
31.80000 5.113
31.82000 7.133
31.84000 4.768
31.86000 3.424
31.88000 0.334
31.90000 3.514
31.92000 2.728
31.94000 -2.233
31.96000 -0.172
31.98000 -0.875
32.00000 5.363
32.02000 5.299
32.04000 4.425
32.06000 4.377
32.08000 2.971
32.10000 1.112
32.12000 2.831
32.14000 4.927
32.16000 4.092
32.18000 1.844
32.20000 3.219
32.22000 5.938
32.24000 5.042
32.26000 1.300
32.28000 -0.933
32.30000 4.321
32.32000 2.997
32.34000 0.820
32.36000 2.817
32.38000 1.766
32.40000 -2.984
32.42000 2.177
32.44000 4.201
32.46000 -0.338
32.48000 0.496
32.50000 -0.384
32.52000 -1.750
32.54000 1.993
32.56000 -2.338
32.58000 -2.827
32.60000 -1.681
32.62000 -1.955
32.64000 -3.637
32.66000 -2.687
32.68000 2.040
32.70000 1.915
32.72000 -0.576
32.74000 -1.493
32.76000 -0.077
32.78000 1.403
32.80000 4.013
32.82000 4.825
32.84000 1.943
32.86000 7.254
32.88000 8.328
32.90000 4.789
32.92000 5.512
32.94000 4.921
32.96000 6.301
32.98000 7.030
33.00000 5.622
33.02000 2.766
33.04000 4.345
33.06000 6.096
33.08000 4.952
33.10000 -0.569
33.12000 4.327
33.14000 1.344
33.16000 3.028
33.18000 6.398
33.20000 5.173
33.22000 8.043
33.24000 6.833
33.26000 5.222
33.28000 5.184
33.30000 5.885
33.32000 3.535
33.34000 1.538
33.36000 -0.657
33.38000 -3.602
33.40000 4.329
33.42000 7.347
33.44000 9.805
33.46000 11.095
33.48000 3.815
33.50000 0.430
33.52000 0.350
33.54000 1.320
33.56000 2.399
33.58000 -0.256
33.60000 3.743
33.62000 6.961
33.64000 5.726
33.66000 1.904
33.68000 2.951
33.70000 5.442
33.72000 6.042
33.74000 3.630
33.76000 5.964
33.78000 7.178
33.80000 4.899
33.82000 1.195
33.84000 5.555
33.86000 5.929
33.88000 8.722
33.90000 8.309
33.92000 3.561
33.94000 1.652
33.96000 5.379
33.98000 3.774
34.00000 5.176
34.02000 -0.819
34.04000 -1.002
34.06000 1.103
34.08000 0.049
34.10000 1.540
34.12000 5.282
34.14000 6.878
34.16000 8.738
34.18000 3.260
34.20000 3.684
34.22000 4.179
34.24000 2.555
34.26000 2.662
34.28000 2.489
34.30000 0.056
34.32000 1.812
34.34000 1.796
34.36000 -1.489
34.38000 7.698
34.40000 2.152
34.42000 2.825
34.44000 1.365
34.46000 -2.951
34.48000 0.653
34.50000 0.414
34.52000 3.765
34.54000 4.220
34.56000 1.601
34.58000 -3.070
34.60000 1.821
34.62000 -0.281
34.64000 -3.526
34.66000 -2.190
34.68000 1.034
34.70000 3.230
34.72000 1.987
34.74000 0.674
34.76000 -2.684
34.78000 -2.285
34.80000 -0.559
34.82000 0.380
34.84000 1.680
34.86000 -2.421
34.88000 -3.420
34.90000 -2.765
34.92000 0.714
34.94000 -2.559
34.96000 -2.000
34.98000 2.293
35.00000 5.420
35.02000 2.170
35.04000 -0.627
35.06000 1.562
35.08000 -1.256
35.10000 -0.959
35.12000 -2.499
35.14000 0.815
35.16000 2.497
35.18000 0.977
35.20000 0.126
35.22000 5.890
35.24000 0.053
35.26000 4.083
35.28000 6.511
35.30000 -0.717
35.32000 -0.139
35.34000 1.451
35.36000 1.573
35.38000 -0.398
35.40000 1.650
35.42000 3.194
35.44000 2.682
35.46000 2.404
35.48000 3.946
35.50000 2.946
35.52000 0.745
35.54000 -2.828
35.56000 -0.855
35.58000 -3.593
35.60000 4.384
35.62000 4.021
35.64000 5.759
35.66000 -0.118
35.68000 1.263
35.70000 1.899
35.72000 -3.597
35.74000 3.460
35.76000 6.374
35.78000 6.331
35.80000 6.011
35.82000 -0.540
35.84000 5.689
35.86000 8.886
35.88000 4.671
35.90000 4.278
35.92000 -2.912
35.94000 -0.547
35.96000 -1.076
35.98000 2.374
36.00000 -1.744
36.02000 1.968
36.04000 2.161
36.06000 1.295
36.08000 5.334
36.10000 6.135
36.12000 1.198
36.14000 0.502
36.16000 -3.296
36.18000 -3.194
36.20000 -2.014
36.22000 4.828
36.24000 4.062
36.26000 1.585
36.28000 2.405
36.30000 3.726
36.32000 -1.892
36.34000 -0.070
36.36000 -0.930
36.38000 -0.879
36.40000 -0.595
36.42000 0.987
36.44000 0.589
36.46000 3.337
36.48000 4.373
36.50000 3.569
36.52000 4.488
36.54000 5.860
36.56000 3.561
36.58000 3.978
36.60000 -2.464
36.62000 3.675
36.64000 0.272
36.66000 -3.646
36.68000 -2.443
36.70000 -1.958
36.72000 0.819
36.74000 4.679
36.76000 10.105
36.78000 2.888
36.80000 2.826
36.82000 6.357
36.84000 6.244
36.86000 3.680
36.88000 5.792
36.90000 3.944
36.92000 4.016
36.94000 0.176
36.96000 0.667
36.98000 -3.656
37.00000 -2.740
37.02000 5.868
37.04000 7.900
37.06000 6.965
37.08000 6.347
37.10000 5.591
37.12000 -1.371
37.14000 -3.453
37.16000 2.481
37.18000 2.050
37.20000 -0.063
37.22000 2.405
37.24000 6.692
37.26000 10.441
37.28000 13.539
37.30000 17.328
37.32000 14.550
37.34000 9.971
37.36000 8.253
37.38000 6.470
37.40000 10.310
37.42000 8.347
37.44000 6.623
37.46000 11.144
37.48000 13.704
37.50000 13.303
37.52000 9.705
37.54000 11.230
37.56000 12.671
37.58000 7.604
37.60000 11.680
37.62000 12.694
37.64000 16.242
37.66000 15.800
37.68000 13.566
37.70000 13.965
37.72000 20.683
37.74000 20.073
37.76000 12.659
37.78000 12.797
37.80000 23.866
37.82000 22.843
37.84000 19.500
37.86000 22.737
37.88000 26.284
37.90000 21.281
37.92000 22.461
37.94000 30.974
37.96000 31.047
37.98000 26.373
38.00000 23.784
38.02000 23.012
38.04000 30.339
38.06000 30.331
38.08000 28.832
38.10000 34.756
38.12000 34.879
38.14000 39.013
38.16000 40.364
38.18000 42.812
38.20000 42.856
38.22000 43.166
38.24000 41.944
38.26000 42.195
38.28000 45.191
38.30000 51.600
38.32000 48.030
38.34000 47.556
38.36000 51.223
38.38000 48.584
38.40000 50.619
38.42000 56.071
38.44000 55.815
38.46000 57.446
38.48000 64.346
38.50000 73.534
38.52000 74.699
38.54000 73.463
38.56000 75.925
38.58000 77.651
38.60000 83.043
38.62000 95.278
38.64000 97.647
38.66000 102.475
38.68000 104.696
38.70000 105.746
38.72000 105.228
38.74000 114.215
38.76000 122.479
38.78000 134.062
38.80000 144.632
38.82000 150.075
38.84000 153.802
38.86000 159.116
38.88000 176.975
38.90000 194.036
38.92000 199.482
38.94000 205.858
38.96000 219.030
38.98000 232.833
39.00000 253.480
39.02000 272.662
39.04000 279.345
39.06000 289.734
39.08000 307.210
39.10000 327.097
39.12000 349.097
39.14000 373.458
39.16000 390.138
39.18000 398.281
39.20000 419.211
39.22000 438.422
39.24000 458.784
39.26000 470.503
39.28000 479.880
39.30000 493.304
39.32000 508.433
39.34000 522.058
39.36000 518.214
39.38000 532.342
39.40000 533.897
39.42000 536.452
39.44000 536.222
39.46000 529.384
39.48000 532.072
39.50000 513.864
39.52000 504.259
39.54000 493.735
39.56000 483.073
39.58000 466.966
39.60000 458.479
39.62000 443.468
39.64000 428.600
39.66000 410.142
39.68000 390.402
39.70000 370.015
39.72000 351.557
39.74000 330.078
39.76000 319.001
39.78000 299.371
39.80000 276.449
39.82000 258.998
39.84000 247.405
39.86000 233.590
39.88000 217.735
39.90000 204.090
39.92000 190.134
39.94000 175.535
39.96000 168.140
39.98000 160.284
40.00000 141.804
40.02000 135.966
40.04000 131.828
40.06000 118.985
40.08000 115.738
40.10000 104.565
40.12000 97.836
40.14000 91.279
40.16000 88.781
40.18000 82.872
40.20000 77.388
40.22000 73.780
40.24000 76.743
40.26000 72.321
40.28000 65.926
40.30000 60.442
40.32000 55.912
40.34000 49.623
40.36000 49.364
40.38000 47.191
40.40000 44.327
40.42000 39.489
40.44000 38.287
40.46000 38.507
40.48000 39.953
40.50000 40.583
40.52000 37.169
40.54000 33.522
40.56000 31.667
40.58000 28.976
40.60000 29.521
40.62000 25.753
40.64000 30.351
40.66000 29.549
40.68000 23.232
40.70000 20.389
40.72000 18.690
40.74000 17.218
40.76000 16.780
40.78000 15.795
40.80000 15.769
40.82000 13.208
40.84000 11.333
40.86000 11.365
40.88000 12.993
40.90000 11.299
40.92000 7.938
40.94000 9.522
40.96000 14.340
40.98000 15.511
41.00000 12.204
41.02000 13.356
41.04000 13.969
41.06000 11.734
41.08000 6.453
41.10000 7.212
41.12000 9.149
41.14000 7.058
41.16000 10.236
41.18000 11.454
41.20000 12.520
41.22000 9.929
41.24000 8.660
41.26000 4.048
41.28000 3.210
41.30000 3.303
41.32000 4.931
41.34000 8.504
41.36000 5.655
41.38000 1.072
41.40000 4.314
41.42000 8.057
41.44000 3.659
41.46000 3.965
41.48000 5.153
41.50000 8.719
41.52000 5.606
41.54000 5.198
41.56000 2.925
41.58000 1.842
41.60000 2.843
41.62000 0.724
41.64000 1.249
41.66000 2.983
41.68000 0.127
41.70000 -0.633
41.72000 0.933
41.74000 -1.577
41.76000 -3.398
41.78000 -2.916
41.80000 -1.721
41.82000 -1.291
41.84000 -0.250
41.86000 1.046
41.88000 1.692
41.90000 3.154
41.92000 3.353
41.94000 -0.040
41.96000 -0.801
41.98000 2.098
42.00000 2.321
42.02000 -1.486
42.04000 -1.674
42.06000 4.478
42.08000 0.844
42.10000 -1.858
42.12000 3.102
42.14000 2.057
42.16000 0.961
42.18000 0.212
42.20000 -0.504
42.22000 0.641
42.24000 2.182
42.26000 -1.241
42.28000 -0.926
42.30000 -0.235
42.32000 1.307
42.34000 2.120
42.36000 -0.874
42.38000 -3.080
42.40000 0.697
42.42000 2.443
42.44000 2.626
42.46000 0.898
42.48000 1.980
42.50000 1.302
42.52000 2.461
42.54000 3.990
42.56000 2.207
42.58000 2.191
42.60000 2.683
42.62000 3.834
42.64000 3.009
42.66000 2.590
42.68000 1.308
42.70000 1.138
42.72000 1.503
42.74000 3.039
42.76000 2.356
42.78000 1.056
42.80000 0.350
42.82000 -3.221
42.84000 -2.587
42.86000 -1.244
42.88000 0.089
42.90000 -2.468
42.92000 -1.913
42.94000 -1.338
42.96000 -1.098
42.98000 2.640
43.00000 1.647
43.02000 -2.651
43.04000 0.653
43.06000 4.134
43.08000 1.305
43.10000 3.023
43.12000 3.166
43.14000 5.880
43.16000 3.971
43.18000 2.892
43.20000 -0.051
43.22000 -0.109
43.24000 3.010
43.26000 1.223
43.28000 0.185
43.30000 -2.171
43.32000 -3.134
43.34000 -1.484
43.36000 0.153
43.38000 1.737
43.40000 4.412
43.42000 3.721
43.44000 -0.416
43.46000 -1.408
43.48000 -1.461
43.50000 1.259
43.52000 1.424
43.54000 -1.126
43.56000 1.067
43.58000 -0.271
43.60000 -3.152
43.62000 -0.399
43.64000 1.156
43.66000 -0.503
43.68000 2.171
43.70000 3.178
43.72000 1.214
43.74000 1.184
43.76000 3.645
43.78000 3.186
43.80000 1.138
43.82000 0.851
43.84000 -2.494
43.86000 -3.137
43.88000 -1.730
43.90000 -1.918
43.92000 2.532
43.94000 1.212
43.96000 -0.993
43.98000 -1.840
44.00000 -0.944
44.02000 0.823
44.04000 2.405
44.06000 3.197
44.08000 2.961
44.10000 1.582
44.12000 2.847
44.14000 5.027
44.16000 2.165
44.18000 1.560
44.20000 1.822
44.22000 4.708
44.24000 2.707
44.26000 3.669
44.28000 2.276
44.30000 0.797
44.32000 1.290
44.34000 3.117
44.36000 4.555
44.38000 4.006
44.40000 4.714
44.42000 3.182
44.44000 4.083
44.46000 3.098
44.48000 2.827
44.50000 2.043
44.52000 0.695
44.54000 2.565
44.56000 4.910
44.58000 6.174
44.60000 0.715
44.62000 1.315
44.64000 2.610
44.66000 2.594
44.68000 3.413
44.70000 4.628
44.72000 1.491
44.74000 8.449
44.76000 9.936
44.78000 5.625
44.80000 2.081
44.82000 4.930
44.84000 6.323
44.86000 3.394
44.88000 5.802
44.90000 5.172
44.92000 5.394
44.94000 5.011
44.96000 7.430
44.98000 6.445
45.00000 8.778
45.02000 9.073
45.04000 7.821
45.06000 11.466
45.08000 10.850
45.10000 10.462
45.12000 10.583
45.14000 13.612
45.16000 15.858
45.18000 15.000
45.20000 17.355
45.22000 19.164
45.24000 20.763
45.26000 18.111
45.28000 19.894
45.30000 18.276
45.32000 14.546
45.34000 16.433
45.36000 21.568
45.38000 24.383
45.40000 25.801
45.42000 24.743
45.44000 21.091
45.46000 25.840
45.48000 28.757
45.50000 33.677
45.52000 36.872
45.54000 35.420
45.56000 37.609
45.58000 37.651
45.60000 39.835
45.62000 36.741
45.64000 41.903
45.66000 43.141
45.68000 45.044
45.70000 42.358
45.72000 41.572
45.74000 43.655
45.76000 48.451
45.78000 54.341
45.80000 52.044
45.82000 52.435
45.84000 52.822
45.86000 57.751
45.88000 56.601
45.90000 57.030
45.92000 57.986
45.94000 63.691
45.96000 64.570
45.98000 60.569
46.00000 58.952
46.02000 60.510
46.04000 64.310
46.06000 61.799
46.08000 62.398
46.10000 66.007
46.12000 68.421
46.14000 65.742
46.16000 63.474
46.18000 59.590
46.20000 56.674
46.22000 54.957
46.24000 56.845
46.26000 57.490
46.28000 55.213
46.30000 53.528
46.32000 54.876
46.34000 53.558
46.36000 49.384
46.38000 49.723
46.40000 50.874
46.42000 50.091
46.44000 47.355
46.46000 45.456
46.48000 43.074
46.50000 42.195
46.52000 38.884
46.54000 38.420
46.56000 37.236
46.58000 35.102
46.60000 34.150
46.62000 34.333
46.64000 29.576
46.66000 27.883
46.68000 23.295
46.70000 24.518
46.72000 24.604
46.74000 20.967
46.76000 20.480
46.78000 21.775
46.80000 17.646
46.82000 15.145
46.84000 16.122
46.86000 13.536
46.88000 11.540
46.90000 9.067
46.92000 11.839
46.94000 12.167
46.96000 5.209
46.98000 4.808
47.00000 8.715
47.02000 12.022
47.04000 8.333
47.06000 8.050
47.08000 5.410
47.10000 4.087
47.12000 5.731
47.14000 5.084
47.16000 3.875
47.18000 2.009
47.20000 5.301
47.22000 4.564
47.24000 5.182
47.26000 4.701
47.28000 1.832
47.30000 2.091
47.32000 2.154
47.34000 2.535
47.36000 6.672
47.38000 3.501
47.40000 1.715
47.42000 0.326
47.44000 0.840
47.46000 1.852
47.48000 -0.632
47.50000 1.317
47.52000 -1.224
47.54000 0.474
47.56000 2.908
47.58000 2.640
47.60000 0.140
47.62000 0.449
47.64000 -0.146
47.66000 -0.486
47.68000 -2.726
47.70000 1.152
47.72000 1.354
47.74000 2.672
47.76000 4.386
47.78000 5.156
47.80000 1.670
47.82000 -0.419
47.84000 2.761
47.86000 0.593
47.88000 -1.292
47.90000 3.946
47.92000 1.608
47.94000 1.032
47.96000 -0.581
47.98000 -0.305
48.00000 1.624
48.02000 1.588
48.04000 0.795
48.06000 0.784
48.08000 4.016
48.10000 4.680
48.12000 7.325
48.14000 5.308
48.16000 3.248
48.18000 5.871
48.20000 6.342
48.22000 2.079
48.24000 -1.634
48.26000 1.977
48.28000 6.851
48.30000 7.599
48.32000 4.967
48.34000 0.950
48.36000 1.472
48.38000 -1.407
48.40000 -2.616
48.42000 1.777
48.44000 1.954
48.46000 -1.606
48.48000 -0.276
48.50000 -1.767
48.52000 1.098
48.54000 -0.250
48.56000 0.680
48.58000 5.176
48.60000 5.188
48.62000 2.989
48.64000 4.079
48.66000 2.052
48.68000 -2.108
48.70000 0.179
48.72000 0.367
48.74000 0.323
48.76000 2.733
48.78000 3.210
48.80000 4.327
48.82000 4.635
48.84000 -0.052
48.86000 -0.832
48.88000 -0.615
48.90000 1.813
48.92000 4.214
48.94000 -0.097
48.96000 -0.750
48.98000 2.184
49.00000 1.670
49.02000 0.635
49.04000 2.785
49.06000 1.427
49.08000 1.204
49.10000 0.309
49.12000 1.892
49.14000 1.177
49.16000 -0.171
49.18000 -0.475
49.20000 0.508
49.22000 0.972
49.24000 2.497
49.26000 2.700
49.28000 1.974
49.30000 2.375
49.32000 4.756
49.34000 4.830
49.36000 5.161
49.38000 2.793
49.40000 1.975
49.42000 3.557
49.44000 3.367
49.46000 0.061
49.48000 -2.578
49.50000 -1.531
49.52000 -0.580
49.54000 -0.022
49.56000 -0.807
49.58000 1.885
49.60000 2.748
49.62000 3.190
49.64000 0.421
49.66000 -1.281
49.68000 2.797
49.70000 0.228
49.72000 0.574
49.74000 1.298
49.76000 0.907
49.78000 0.056
49.80000 0.356
49.82000 2.484
49.84000 1.362
49.86000 2.202
49.88000 3.537
49.90000 -0.442
49.92000 -0.685
49.94000 2.867
49.96000 2.808
49.98000 0.451
50.00000 -0.553
50.02000 1.295
50.04000 3.738
50.06000 3.434
50.08000 -0.007
50.10000 1.603
50.12000 3.824
50.14000 -2.553
50.16000 -2.323
50.18000 1.141
50.20000 4.573
50.22000 3.751
50.24000 0.872
50.26000 -0.549
50.28000 3.996
50.30000 1.316
50.32000 1.455
50.34000 -0.861
50.36000 -1.163
50.38000 0.480
50.40000 -0.508
50.42000 1.171
50.44000 1.399
50.46000 1.682
50.48000 2.474
50.50000 0.214
50.52000 -2.550
50.54000 -2.012
50.56000 -1.199
50.58000 -1.056
50.60000 -1.264
50.62000 -1.209
50.64000 0.518
50.66000 -1.431
50.68000 -1.893
50.70000 -0.633
50.72000 2.804
50.74000 1.427
50.76000 0.573
50.78000 0.217
50.80000 -0.145
50.82000 3.565
50.84000 3.766
50.86000 3.032
50.88000 1.705
50.90000 1.309
50.92000 2.323
50.94000 0.707
50.96000 0.369
50.98000 -0.362
51.00000 0.440
51.02000 2.081
51.04000 2.516
51.06000 2.530
51.08000 -0.944
51.10000 -0.252
51.12000 1.294
51.14000 2.868
51.16000 1.140
51.18000 0.491
51.20000 -1.312
51.22000 -0.810
51.24000 1.247
51.26000 0.504
51.28000 0.653
51.30000 0.747
51.32000 5.016
51.34000 3.096
51.36000 3.752
51.38000 0.503
51.40000 -0.849
51.42000 1.715
51.44000 3.873
51.46000 2.949
51.48000 1.619
51.50000 -0.667
51.52000 -1.390
51.54000 2.151
51.56000 2.801
51.58000 -0.426
51.60000 -0.322
51.62000 0.646
51.64000 0.275
51.66000 0.624
51.68000 -2.517
51.70000 -0.147
51.72000 1.635
51.74000 4.922
51.76000 3.169
51.78000 1.937
51.80000 0.204
51.82000 -0.211
51.84000 -0.977
51.86000 2.215
51.88000 2.927
51.90000 1.094
51.92000 -0.200
51.94000 2.209
51.96000 1.135
51.98000 1.113
52.00000 -0.041
52.02000 -0.612
52.04000 -1.037
52.06000 -0.739
52.08000 -0.142
52.10000 -0.946
52.12000 0.340
52.14000 3.443
52.16000 0.988
52.18000 2.671
52.20000 5.470
52.22000 1.515
52.24000 -1.612
52.26000 -2.472
52.28000 -0.464
52.30000 0.440
52.32000 0.601
52.34000 1.122
52.36000 2.626
52.38000 4.389
52.40000 -1.512
52.42000 0.364
52.44000 3.030
52.46000 1.770
52.48000 6.370
52.50000 6.011
52.52000 -0.671
52.54000 2.768
52.56000 3.542
52.58000 2.943
52.60000 -1.423
52.62000 -0.194
52.64000 3.276
52.66000 0.985
52.68000 -0.259
52.70000 -0.852
52.72000 1.977
52.74000 4.376
52.76000 -0.380
52.78000 -1.654
52.80000 1.254
52.82000 4.538
52.84000 3.965
52.86000 6.316
52.88000 2.391
52.90000 1.536
52.92000 0.693
52.94000 4.957
52.96000 4.055
52.98000 4.958
53.00000 3.273
53.02000 2.758
53.04000 4.332
53.06000 2.210
53.08000 2.394
53.10000 0.948
53.12000 0.488
53.14000 0.526
53.16000 0.822
53.18000 2.170
53.20000 5.226
53.22000 3.727
53.24000 3.068
53.26000 0.029
53.28000 -1.213
53.30000 -0.480
53.32000 0.311
53.34000 0.697
53.36000 0.184
53.38000 2.598
53.40000 0.330
53.42000 -2.204
53.44000 3.222
53.46000 2.046
53.48000 -0.289
53.50000 4.518
53.52000 1.870
53.54000 -0.811
53.56000 -0.106
53.58000 1.810
53.60000 -1.875
53.62000 -0.440
53.64000 -0.318
53.66000 -2.450
53.68000 -1.021
53.70000 -1.021
53.72000 -2.143
53.74000 -2.163
53.76000 -1.662
53.78000 2.243
53.80000 1.417
53.82000 1.801
53.84000 1.690
53.86000 1.928
53.88000 1.262
53.90000 -0.375
53.92000 1.056
53.94000 6.644
53.96000 5.052
53.98000 5.832
54.00000 2.768
54.02000 -2.428
54.04000 4.084
54.06000 4.107
54.08000 2.100
54.10000 3.148
54.12000 1.795
54.14000 4.368
54.16000 3.547
54.18000 -0.420
54.20000 1.689
54.22000 4.356
54.24000 2.417
54.26000 2.955
54.28000 8.379
54.30000 6.595
54.32000 6.536
54.34000 4.264
54.36000 0.666
54.38000 -2.404
54.40000 -0.885
54.42000 3.531
54.44000 4.158
54.46000 3.990
54.48000 2.162
54.50000 0.574
54.52000 -2.403
54.54000 -1.171
54.56000 2.396
54.58000 6.453
54.60000 6.314
54.62000 1.417
54.64000 -0.495
54.66000 -1.249
54.68000 3.357
54.70000 -2.397
54.72000 -0.111
54.74000 4.955
54.76000 6.381
54.78000 2.264
54.80000 4.858
54.82000 1.776
54.84000 0.710
54.86000 4.126
54.88000 2.474
54.90000 2.981
54.92000 -0.255
54.94000 2.522
54.96000 1.145
54.98000 -0.100
55.00000 -0.847
55.02000 -1.652
55.04000 -2.220
55.06000 -0.799
55.08000 0.669
55.10000 3.024
55.12000 1.120
55.14000 0.914
55.16000 -0.314
55.18000 0.792
55.20000 0.373
55.22000 0.818
55.24000 2.062
55.26000 3.257
55.28000 -0.947
55.30000 0.333
55.32000 2.560
55.34000 1.306
55.36000 0.558
55.38000 3.864
55.40000 3.619
55.42000 1.080
55.44000 -0.917
55.46000 1.393
55.48000 5.029
55.50000 7.319
55.52000 6.369
55.54000 2.264
55.56000 0.227
55.58000 -0.907
55.60000 0.783
55.62000 -0.505
55.64000 -0.491
55.66000 1.673
55.68000 3.094
55.70000 1.622
55.72000 -0.489
55.74000 0.324
55.76000 -0.343
55.78000 1.632
55.80000 2.099
55.82000 1.808
55.84000 -0.726
55.86000 3.080
55.88000 -1.071
55.90000 -2.384
55.92000 0.683
55.94000 3.242
55.96000 1.065
55.98000 1.806
56.00000 -1.889
56.02000 0.919
56.04000 0.631
56.06000 2.640
56.08000 3.142
56.10000 1.845
56.12000 1.206
56.14000 -0.261
56.16000 -0.537
56.18000 3.683
56.20000 0.827
56.22000 -0.787
56.24000 2.982
56.26000 5.425
56.28000 1.858
56.30000 1.214
56.32000 2.309
56.34000 2.845
56.36000 3.592
56.38000 2.627
56.40000 4.554
56.42000 4.182
56.44000 -1.500
56.46000 -2.375
56.48000 0.732
56.50000 2.313
56.52000 2.188
56.54000 -0.035
56.56000 -1.343
56.58000 -2.056
56.60000 -1.437
56.62000 -1.528
56.64000 1.780
56.66000 2.705
56.68000 3.176
56.70000 5.898
56.72000 7.171
56.74000 5.923
56.76000 1.961
56.78000 1.343
56.80000 5.143
56.82000 2.145
56.84000 -0.213
56.86000 1.726
56.88000 0.670
56.90000 2.066
56.92000 2.167
56.94000 3.834
56.96000 -0.231
56.98000 -0.716
57.00000 2.062
57.02000 3.142
57.04000 3.786
57.06000 4.270
57.08000 1.065
57.10000 -0.280
57.12000 1.815
57.14000 2.420
57.16000 0.632
57.18000 -0.571
57.20000 -2.344
57.22000 -0.707
57.24000 -0.522
57.26000 1.129
57.28000 2.485
57.30000 3.309
57.32000 3.842
57.34000 2.506
57.36000 3.376
57.38000 3.931
57.40000 3.926
57.42000 2.764
57.44000 2.550
57.46000 1.984
57.48000 1.532
57.50000 -0.184
57.52000 -0.338
57.54000 2.167
57.56000 2.087
57.58000 2.364
57.60000 2.565
57.62000 -1.051
57.64000 0.124
57.66000 -0.356
57.68000 1.973
57.70000 0.197
57.72000 0.182
57.74000 2.471
57.76000 5.005
57.78000 2.599
57.80000 3.199
57.82000 1.679
57.84000 -1.603
57.86000 1.155
57.88000 2.810
57.90000 3.154
57.92000 -0.377
57.94000 -1.452
57.96000 3.505
57.98000 3.664
58.00000 1.253
58.02000 -0.757
58.04000 1.446
58.06000 1.204
58.08000 0.722
58.10000 0.567
58.12000 3.083
58.14000 5.430
58.16000 2.350
58.18000 0.820
58.20000 0.927
58.22000 -2.263
58.24000 2.984
58.26000 3.145
58.28000 3.603
58.30000 0.863
58.32000 -0.367
58.34000 -0.316
58.36000 1.373
58.38000 1.682
58.40000 3.683
58.42000 1.125
58.44000 0.273
58.46000 1.692
58.48000 -1.977
58.50000 -0.881
58.52000 -1.278
58.54000 -1.342
58.56000 -0.087
58.58000 -0.757
58.60000 0.157
58.62000 3.703
58.64000 1.790
58.66000 2.553
58.68000 -1.311
58.70000 -1.027
58.72000 -2.308
58.74000 0.075
58.76000 2.848
58.78000 1.985
58.80000 4.350
58.82000 1.959
58.84000 4.908
58.86000 5.670
58.88000 3.462
58.90000 4.156
58.92000 4.080
58.94000 0.886
58.96000 1.394
58.98000 2.612
59.00000 2.346
59.02000 2.225
59.04000 -0.513
59.06000 2.230
59.08000 1.603
59.10000 2.240
59.12000 1.460
59.14000 0.159
59.16000 -2.268
59.18000 3.237
59.20000 4.435
59.22000 1.428
59.24000 3.652
59.26000 3.952
59.28000 2.436
59.30000 3.168
59.32000 4.061
59.34000 2.594
59.36000 0.130
59.38000 1.161
59.40000 2.202
59.42000 3.752
59.44000 2.004
59.46000 -2.238
59.48000 2.182
59.50000 2.739
59.52000 -0.366
59.54000 1.451
59.56000 3.911
59.58000 2.273
59.60000 2.092
59.62000 0.159
59.64000 2.466
59.66000 1.555
59.68000 0.934
59.70000 5.803
59.72000 7.790
59.74000 4.354
59.76000 6.904
59.78000 6.901
59.80000 3.584
59.82000 1.562
59.84000 0.922
59.86000 4.510
59.88000 4.941
59.90000 4.400
59.92000 4.759
59.94000 4.808
59.96000 4.687
59.98000 0.064
60.00000 2.917
60.02000 3.312
60.04000 3.739
60.06000 3.027
60.08000 0.505
60.10000 -0.820
60.12000 3.495
60.14000 7.173
60.16000 2.526
60.18000 -2.229
60.20000 0.459
60.22000 2.009
60.24000 6.033
60.26000 6.100
60.28000 5.557
60.30000 4.738
60.32000 2.874
60.34000 1.616
60.36000 -1.281
60.38000 -0.985
60.40000 2.642
60.42000 3.529
60.44000 2.539
60.46000 0.318
60.48000 1.602
60.50000 2.197
60.52000 -2.097
60.54000 2.201
60.56000 0.888
60.58000 0.990
60.60000 1.789
60.62000 0.253
60.64000 -0.348
60.66000 1.762
60.68000 0.476
60.70000 1.310
60.72000 0.755
60.74000 -1.199
60.76000 -0.496
60.78000 2.549
60.80000 3.151
60.82000 0.571
60.84000 1.016
60.86000 3.111
60.88000 0.339
60.90000 0.071
60.92000 1.189
60.94000 -1.887
60.96000 1.790
60.98000 -1.058
61.00000 -1.364
61.02000 -1.406
61.04000 -1.337
61.06000 2.719
61.08000 2.932
61.10000 0.034
61.12000 0.842
61.14000 0.854
61.16000 1.055
61.18000 3.009
61.20000 1.497
61.22000 -2.012
61.24000 2.373
61.26000 1.367
61.28000 -1.269
61.30000 0.431
61.32000 3.994
61.34000 2.235
61.36000 4.107
61.38000 1.358
61.40000 2.402
61.42000 0.600
61.44000 0.496
61.46000 1.891
61.48000 0.773
61.50000 0.148
61.52000 2.245
61.54000 3.408
61.56000 4.013
61.58000 3.014
61.60000 4.147
61.62000 1.385
61.64000 2.995
61.66000 4.544
61.68000 4.282
61.70000 0.819
61.72000 1.600
61.74000 1.048
61.76000 0.085
61.78000 0.706
61.80000 1.825
61.82000 2.240
61.84000 3.727
61.86000 3.212
61.88000 3.690
61.90000 4.143
61.92000 2.939
61.94000 1.240
61.96000 2.322
61.98000 -0.493
62.00000 -0.384
62.02000 0.563
62.04000 1.882
62.06000 5.230
62.08000 3.738
62.10000 2.494
62.12000 1.647
62.14000 2.265
62.16000 1.760
62.18000 2.815
62.20000 2.881
62.22000 2.092
62.24000 3.247
62.26000 1.297
62.28000 1.820
62.30000 1.459
62.32000 3.320
62.34000 0.286
62.36000 0.881
62.38000 -0.647
62.40000 -2.174
62.42000 0.135
62.44000 3.875
62.46000 2.042
62.48000 2.222
62.50000 2.529
62.52000 3.084
62.54000 -1.420
62.56000 -1.942
62.58000 2.921
62.60000 2.950
62.62000 2.561
62.64000 2.165
62.66000 2.891
62.68000 2.201
62.70000 2.565
62.72000 0.967
62.74000 2.556
62.76000 2.587
62.78000 0.739
62.80000 -1.434
62.82000 -0.736
62.84000 2.601
62.86000 4.031
62.88000 4.997
62.90000 3.272
62.92000 5.214
62.94000 2.973
62.96000 3.291
62.98000 1.941
63.00000 -0.367
63.02000 -0.277
63.04000 2.011
63.06000 0.307
63.08000 0.513
63.10000 3.422
63.12000 1.443
63.14000 4.185
63.16000 2.415
63.18000 6.200
63.20000 4.184
63.22000 1.917
63.24000 -1.474
63.26000 -1.289
63.28000 -2.178
63.30000 0.335
63.32000 2.315
63.34000 3.796
63.36000 1.469
63.38000 3.484
63.40000 1.816
63.42000 2.357
63.44000 2.499
63.46000 2.511
63.48000 0.883
63.50000 1.923
63.52000 5.529
63.54000 3.858
63.56000 1.447
63.58000 1.159
63.60000 -0.275
63.62000 2.438
63.64000 1.143
63.66000 1.202
63.68000 1.766
63.70000 1.810
63.72000 1.340
63.74000 -0.362
63.76000 -2.168
63.78000 -1.114
63.80000 0.823
63.82000 1.637
63.84000 1.994
63.86000 1.149
63.88000 2.568
63.90000 1.131
63.92000 1.959
63.94000 1.524
63.96000 1.780
63.98000 1.255
64.00000 0.268
64.02000 0.618
64.04000 1.845
64.06000 4.156
64.08000 2.772
64.10000 1.347
64.12000 0.626
64.14000 1.503
64.16000 3.522
64.18000 3.997
64.20000 4.259
64.22000 2.998
64.24000 1.204
64.26000 0.934
64.28000 3.611
64.30000 3.693
64.32000 4.312
64.34000 3.171
64.36000 2.992
64.38000 3.280
64.40000 3.080
64.42000 1.697
64.44000 3.620
64.46000 2.186
64.48000 3.238
64.50000 6.543
64.52000 4.794
64.54000 4.943
64.56000 3.133
64.58000 2.276
64.60000 2.033
64.62000 3.515
64.64000 2.967
64.66000 2.679
64.68000 4.191
64.70000 1.276
64.72000 5.983
64.74000 4.680
64.76000 4.349
64.78000 2.889
64.80000 2.835
64.82000 2.465
64.84000 4.098
64.86000 1.754
64.88000 4.479
64.90000 3.670
64.92000 4.177
64.94000 3.905
64.96000 1.622
64.98000 1.642
65.00000 3.166
65.02000 2.045
65.04000 -2.136
65.06000 -0.093
65.08000 -0.131
65.10000 2.988
65.12000 3.848
65.14000 0.534
65.16000 3.012
65.18000 3.478
65.20000 1.686
65.22000 3.327
65.24000 4.711
65.26000 3.728
65.28000 3.571
65.30000 4.106
65.32000 2.773
65.34000 1.455
65.36000 -0.576
65.38000 3.297
65.40000 2.394
65.42000 2.359
65.44000 1.512
65.46000 1.652
65.48000 0.993
65.50000 0.658
65.52000 0.753
65.54000 -0.785
65.56000 0.146
65.58000 0.137
65.60000 0.930
65.62000 0.687
65.64000 1.156
65.66000 3.104
65.68000 1.760
65.70000 -1.313
65.72000 -1.999
65.74000 -0.566
65.76000 1.137
65.78000 1.182
65.80000 2.403
65.82000 1.330
65.84000 0.871
65.86000 0.389
65.88000 -1.240
65.90000 -1.922
65.92000 0.978
65.94000 2.073
65.96000 1.380
65.98000 0.823
66.00000 0.222
66.02000 0.068
66.04000 0.748
66.06000 -1.246
66.08000 0.556
66.10000 1.249
66.12000 0.455
66.14000 0.075
66.16000 1.528
66.18000 1.657
66.20000 4.040
66.22000 3.345
66.24000 2.405
66.26000 -0.139
66.28000 1.974
66.30000 3.259
66.32000 4.609
66.34000 5.079
66.36000 2.848
66.38000 1.633
66.40000 -0.369
66.42000 2.261
66.44000 3.705
66.46000 4.225
66.48000 3.228
66.50000 4.151
66.52000 4.606
66.54000 2.981
66.56000 1.895
66.58000 1.946
66.60000 4.541
66.62000 5.197
66.64000 5.741
66.66000 3.234
66.68000 3.300
66.70000 3.851
66.72000 5.708
66.74000 5.146
66.76000 5.070
66.78000 5.889
66.80000 6.453
66.82000 6.403
66.84000 7.128
66.86000 8.829
66.88000 8.391
66.90000 8.613
66.92000 7.687
66.94000 5.365
66.96000 7.974
66.98000 12.381
67.00000 9.939
67.02000 8.967
67.04000 8.689
67.06000 7.358
67.08000 6.862
67.10000 5.579
67.12000 10.141
67.14000 10.871
67.16000 9.391
67.18000 7.023
67.20000 6.120
67.22000 5.639
67.24000 7.617
67.26000 9.093
67.28000 6.974
67.30000 9.263
67.32000 10.239
67.34000 5.958
67.36000 6.315
67.38000 5.812
67.40000 5.699
67.42000 5.161
67.44000 4.217
67.46000 5.027
67.48000 3.563
67.50000 3.345
67.52000 4.013
67.54000 5.088
67.56000 6.622
67.58000 4.694
67.60000 3.456
67.62000 1.662
67.64000 2.810
67.66000 3.830
67.68000 2.617
67.70000 4.024
67.72000 0.844
67.74000 2.889
67.76000 4.608
67.78000 3.309
67.80000 2.360
67.82000 3.110
67.84000 2.290
67.86000 1.512
67.88000 0.270
67.90000 2.074
67.92000 2.942
67.94000 3.940
67.96000 2.278
67.98000 4.008
68.00000 1.814
68.02000 1.806
68.04000 1.798
68.06000 2.657
68.08000 0.815
68.10000 1.456
68.12000 2.012
68.14000 -0.667
68.16000 1.125
68.18000 1.790
68.20000 3.005
68.22000 2.055
68.24000 1.551
68.26000 1.061
68.28000 0.447
68.30000 1.252
68.32000 0.339
68.34000 0.614
68.36000 1.815
68.38000 -1.911
68.40000 -2.082
68.42000 1.022
68.44000 3.894
68.46000 3.495
68.48000 2.135
68.50000 1.894
68.52000 1.951
68.54000 -0.553
68.56000 0.973
68.58000 2.057
68.60000 0.558
68.62000 0.587
68.64000 -1.034
68.66000 -1.011
68.68000 1.760
68.70000 3.415
68.72000 3.221
68.74000 2.237
68.76000 1.629
68.78000 0.759
68.80000 -2.046
68.82000 -0.183
68.84000 -0.290
68.86000 0.697
68.88000 3.172
68.90000 3.637
68.92000 2.952
68.94000 1.354
68.96000 2.191
68.98000 1.753
69.00000 0.770
69.02000 -0.588
69.04000 0.305
69.06000 2.385
69.08000 3.317
69.10000 3.775
69.12000 3.098
69.14000 1.314
69.16000 1.152
69.18000 1.141
69.20000 1.329
69.22000 -0.161
69.24000 -0.727
69.26000 0.279
69.28000 1.465
69.30000 -0.865
69.32000 -1.383
69.34000 -0.659
69.36000 1.022
69.38000 -0.225
69.40000 0.929
69.42000 0.962
69.44000 0.965
69.46000 1.208
69.48000 0.239
69.50000 -1.061
69.52000 -2.034
69.54000 -0.245
69.56000 -0.349
69.58000 -0.062
69.60000 0.160
69.62000 0.106
69.64000 0.108
69.66000 -0.192
69.68000 0.943
69.70000 0.723
69.72000 1.922
69.74000 2.351
69.76000 3.081
69.78000 -0.016
69.80000 0.185
69.82000 -1.646
69.84000 -1.574
69.86000 0.142
69.88000 0.861
69.90000 -1.953
69.92000 -1.150
69.94000 0.958
69.96000 0.473
69.98000 -0.246
70.00000 -0.341
70.02000 -0.891
70.04000 -1.264
70.06000 0.898
70.08000 2.507
70.10000 1.329
70.12000 0.679
70.14000 -2.015
70.16000 -1.671
70.18000 -0.681
70.20000 -1.128
70.22000 0.098
70.24000 -1.140
70.26000 -0.875
70.28000 0.035
70.30000 1.131
70.32000 1.557
70.34000 0.572
70.36000 -0.971
70.38000 0.653
70.40000 0.606
70.42000 0.805
70.44000 -0.243
70.46000 -0.263
70.48000 -1.468
70.50000 2.917
70.52000 2.271
70.54000 0.671
70.56000 0.041
70.58000 0.096
70.60000 -0.054
70.62000 0.484
70.64000 0.287
70.66000 -1.011
70.68000 0.655
70.70000 -0.107
70.72000 -1.813
70.74000 -0.473
70.76000 0.155
70.78000 1.352
70.80000 -0.810
70.82000 0.324
70.84000 2.421
70.86000 1.583
70.88000 0.757
70.90000 -0.804
70.92000 -1.320
70.94000 -0.850
70.96000 -0.101
70.98000 -1.393
71.00000 -1.979
71.02000 -1.581
71.04000 1.615
71.06000 2.392
71.08000 -0.256
71.10000 -0.618
71.12000 -0.797
71.14000 -0.813
71.16000 -0.068
71.18000 3.024
71.20000 2.766
71.22000 1.680
71.24000 -0.309
71.26000 2.510
71.28000 1.976
71.30000 0.020
71.32000 0.881
71.34000 -1.490
71.36000 -1.364
71.38000 0.604
71.40000 1.280
71.42000 1.102
71.44000 5.205
71.46000 2.150
71.48000 1.118
71.50000 1.836
71.52000 2.965
71.54000 0.631
71.56000 2.150
71.58000 1.832
71.60000 2.951
71.62000 3.512
71.64000 4.103
71.66000 1.119
71.68000 1.839
71.70000 3.794
71.72000 0.913
71.74000 -1.930
71.76000 0.989
71.78000 2.180
71.80000 1.984
71.82000 0.018
71.84000 0.127
71.86000 2.211
71.88000 0.859
71.90000 1.492
71.92000 0.870
71.94000 2.655
71.96000 2.179
71.98000 3.631
72.00000 0.171
72.02000 -1.123
72.04000 2.319
72.06000 2.208
72.08000 1.253
72.10000 0.783
72.12000 1.505
72.14000 1.054
72.16000 0.108
72.18000 2.162
72.20000 1.842
72.22000 2.184
72.24000 2.184
72.26000 1.432
72.28000 -0.567
72.30000 -1.272
72.32000 -1.918
72.34000 0.415
72.36000 1.611
72.38000 1.869
72.40000 3.595
72.42000 1.136
72.44000 2.578
72.46000 4.729
72.48000 2.790
72.50000 -0.263
72.52000 -0.600
72.54000 0.445
72.56000 2.188
72.58000 0.673
72.60000 -0.363
72.62000 -1.281
72.64000 -0.706
72.66000 -0.033
72.68000 0.140
72.70000 0.507
72.72000 -0.009
72.74000 2.760
72.76000 0.717
72.78000 -0.090
72.80000 -1.046
72.82000 -0.461
72.84000 0.892
72.86000 2.229
72.88000 3.951
72.90000 4.228
72.92000 5.044
72.94000 1.425
72.96000 4.276
72.98000 3.820
73.00000 3.433
73.02000 0.153
73.04000 1.340
73.06000 1.241
73.08000 2.955
73.10000 0.225
73.12000 -0.231
73.14000 0.137
73.16000 0.237
73.18000 0.833
73.20000 0.399
73.22000 0.706
73.24000 2.249
73.26000 0.538
73.28000 1.883
73.30000 2.542
73.32000 1.156
73.34000 0.661
73.36000 3.265
73.38000 0.192
73.40000 2.628
73.42000 2.609
73.44000 2.045
73.46000 0.627
73.48000 -1.909
73.50000 -1.410
73.52000 -0.795
73.54000 -1.422
73.56000 -0.940
73.58000 -0.335
73.60000 0.767
73.62000 1.195
73.64000 1.456
73.66000 -1.906
73.68000 1.098
73.70000 0.435
73.72000 0.791
73.74000 -0.431
73.76000 -1.548
73.78000 -0.712
73.80000 2.497
73.82000 3.604
73.84000 2.951
73.86000 2.346
73.88000 1.553
73.90000 1.820
73.92000 2.229
73.94000 3.720
73.96000 -1.422
73.98000 -0.971
74.00000 0.180
74.02000 4.109
74.04000 1.578
74.06000 0.166
74.08000 0.828
74.10000 -0.627
74.12000 -1.904
74.14000 0.203
74.16000 2.082
74.18000 0.924
74.20000 1.404
74.22000 0.519
74.24000 1.656
74.26000 2.230
74.28000 2.017
74.30000 1.139
74.32000 -0.548
74.34000 2.546
74.36000 3.227
74.38000 -0.373
74.40000 -1.095
74.42000 0.992
74.44000 -0.105
74.46000 0.209
74.48000 3.701
74.50000 2.571
74.52000 2.528
74.54000 3.363
74.56000 1.383
74.58000 1.360
74.60000 0.660
74.62000 0.067
74.64000 0.814
74.66000 1.817
74.68000 0.221
74.70000 0.708
74.72000 2.704
74.74000 1.993
74.76000 3.607
74.78000 2.005
74.80000 2.444
74.82000 1.512
74.84000 0.979
74.86000 0.658
74.88000 1.902
74.90000 2.708
74.92000 3.328
74.94000 4.741
74.96000 6.659
74.98000 4.112
75.00000 1.286
75.02000 1.293
75.04000 1.450
75.06000 2.952
75.08000 6.035
75.10000 4.152
75.12000 1.116
75.14000 2.860
75.16000 -1.864
75.18000 1.670
75.20000 2.021
75.22000 1.717
75.24000 2.105
75.26000 2.459
75.28000 3.686
75.30000 0.714
75.32000 -0.683
75.34000 -1.871
75.36000 0.881
75.38000 2.815
75.40000 5.483
75.42000 4.125
75.44000 3.264
75.46000 0.973
75.48000 2.451
75.50000 3.005
75.52000 2.489
75.54000 1.784
75.56000 2.098
75.58000 2.940
75.60000 3.962
75.62000 3.321
75.64000 1.147
75.66000 3.264
75.68000 2.968
75.70000 1.020
75.72000 4.196
75.74000 4.384
75.76000 2.235
75.78000 2.571
75.80000 1.491
75.82000 2.434
75.84000 2.796
75.86000 2.163
75.88000 -0.065
75.90000 0.437
75.92000 3.317
75.94000 5.458
75.96000 2.784
75.98000 1.024
76.00000 2.603
76.02000 2.338
76.04000 2.527
76.06000 1.579
76.08000 1.615
76.10000 0.999
76.12000 1.809
76.14000 1.975
76.16000 1.733
76.18000 2.669
76.20000 1.099
76.22000 0.926
76.24000 0.805
76.26000 4.319
76.28000 3.816
76.30000 3.159
76.32000 1.966
76.34000 2.479
76.36000 0.272
76.38000 0.762
76.40000 1.156
76.42000 3.364
76.44000 3.373
76.46000 -1.063
76.48000 -1.104
76.50000 0.856
76.52000 0.033
76.54000 -1.914
76.56000 -0.228
76.58000 0.898
76.60000 0.426
76.62000 0.504
76.64000 1.465
76.66000 1.966
76.68000 2.043
76.70000 1.903
76.72000 2.528
76.74000 2.738
76.76000 1.002
76.78000 1.425
76.80000 2.556
76.82000 2.217
76.84000 -0.400
76.86000 -0.125
76.88000 0.397
76.90000 -1.926
76.92000 2.494
76.94000 1.586
76.96000 -0.329
76.98000 2.016
77.00000 2.343
77.02000 -0.138
77.04000 -0.590
77.06000 0.143
77.08000 1.044
77.10000 -0.282
77.12000 2.111
77.14000 2.490
77.16000 2.384
77.18000 5.370
77.20000 3.836
77.22000 0.040
77.24000 -0.722
77.26000 0.942
77.28000 1.629
77.30000 3.430
77.32000 4.073
77.34000 3.455
77.36000 3.942
77.38000 1.164
77.40000 2.744
77.42000 2.252
77.44000 1.277
77.46000 0.128
77.48000 -0.972
77.50000 -1.923
77.52000 -0.395
77.54000 2.126
77.56000 5.272
77.58000 5.060
77.60000 2.884
77.62000 1.564
77.64000 1.348
77.66000 0.275
77.68000 2.036
77.70000 -0.573
77.72000 1.674
77.74000 1.798
77.76000 1.904
77.78000 3.143
77.80000 3.530
77.82000 2.384
77.84000 -1.126
77.86000 0.928
77.88000 0.612
77.90000 3.282
77.92000 0.511
77.94000 0.228
77.96000 3.098
77.98000 2.344
78.00000 3.580
78.02000 1.637
78.04000 1.666
78.06000 2.434
78.08000 1.848
78.10000 3.170
78.12000 1.104
78.14000 0.384
78.16000 2.615
78.18000 4.057
78.20000 2.047
78.22000 2.097
78.24000 1.950
78.26000 3.293
78.28000 -0.272
78.30000 0.087
78.32000 2.492
78.34000 0.537
78.36000 1.555
78.38000 3.251
78.40000 5.319
78.42000 3.553
78.44000 -0.701
78.46000 -0.627
78.48000 -0.603
78.50000 1.239
78.52000 1.951
78.54000 1.333
78.56000 3.850
78.58000 4.539
78.60000 3.778
78.62000 2.433
78.64000 2.684
78.66000 0.867
78.68000 2.818
78.70000 2.049
78.72000 1.816
78.74000 1.253
78.76000 3.405
78.78000 6.039
78.80000 1.050
78.82000 -1.223
78.84000 -1.981
78.86000 0.440
78.88000 3.195
78.90000 3.698
78.92000 2.582
78.94000 2.451
78.96000 1.456
78.98000 2.754
79.00000 1.139
79.02000 -0.708
79.04000 -2.000
79.06000 0.634
79.08000 1.700
79.10000 3.379
79.12000 1.914
79.14000 2.789
79.16000 3.933
79.18000 1.088
79.20000 0.694
79.22000 3.846
79.24000 3.569
79.26000 1.049
79.28000 0.641
79.30000 1.304
79.32000 4.661
79.34000 3.057
79.36000 1.558
79.38000 -0.251
79.40000 3.330
79.42000 2.117
79.44000 3.755
79.46000 4.878
79.48000 0.768
79.50000 3.766
79.52000 1.437
79.54000 2.807
79.56000 1.698
79.58000 1.672
79.60000 1.373
79.62000 1.562
79.64000 1.997
79.66000 4.392
79.68000 2.064
79.70000 2.167
79.72000 1.753
79.74000 4.238
79.76000 1.357
79.78000 3.060
79.80000 5.381
79.82000 2.006
79.84000 6.723
79.86000 8.276
79.88000 4.919
79.90000 4.995
79.92000 6.690
79.94000 7.204
79.96000 6.681
79.98000 5.841
80.00000 3.746
80.02000 5.567
80.04000 4.303
80.06000 5.789
80.08000 8.840
80.10000 9.002
80.12000 8.320
80.14000 6.112
80.16000 7.232
80.18000 7.728
80.20000 9.100
80.22000 8.748
80.24000 8.666
80.26000 8.207
80.28000 7.902
80.30000 9.304
80.32000 11.018
80.34000 9.612
80.36000 10.948
80.38000 12.561
80.40000 13.452
80.42000 13.704
80.44000 14.968
80.46000 12.512
80.48000 11.451
80.50000 8.879
80.52000 14.909
80.54000 15.313
80.56000 16.216
80.58000 13.638
80.60000 14.994
80.62000 18.411
80.64000 19.161
80.66000 19.293
80.68000 21.719
80.70000 19.426
80.72000 20.387
80.74000 18.501
80.76000 18.156
80.78000 15.209
80.80000 15.298
80.82000 17.201
80.84000 18.907
80.86000 18.911
80.88000 16.789
80.90000 15.838
80.92000 18.298
80.94000 17.873
80.96000 19.192
80.98000 21.121
81.00000 18.910
81.02000 19.320
81.04000 14.303
81.06000 13.939
81.08000 10.392
81.10000 14.840
81.12000 17.196
81.14000 14.024
81.16000 13.707
81.18000 12.293
81.20000 14.575
81.22000 15.000
81.24000 14.700
81.26000 12.150
81.28000 14.791
81.30000 15.085
81.32000 14.235
81.34000 11.078
81.36000 10.091
81.38000 13.205
81.40000 11.386
81.42000 7.963
81.44000 6.433
81.46000 9.029
81.48000 9.809
81.50000 9.766
81.52000 6.802
81.54000 5.305
81.56000 4.320
81.58000 4.455
81.60000 6.195
81.62000 4.362
81.64000 3.619
81.66000 7.525
81.68000 8.566
81.70000 6.317
81.72000 4.454
81.74000 3.974
81.76000 4.488
81.78000 3.198
81.80000 3.590
81.82000 4.239
81.84000 2.325
81.86000 5.280
81.88000 5.521
81.90000 3.029
81.92000 1.706
81.94000 4.070
81.96000 2.866
81.98000 1.886
82.00000 1.705
82.02000 0.180
82.04000 2.262
82.06000 2.380
82.08000 1.414
82.10000 1.059
82.12000 0.745
82.14000 1.287
82.16000 0.314
82.18000 1.295
82.20000 -0.778
82.22000 0.324
82.24000 2.082
82.26000 0.275
82.28000 0.117
82.30000 1.399
82.32000 2.922
82.34000 4.111
82.36000 3.180
82.38000 -1.047
82.40000 1.138
82.42000 1.992
82.44000 -0.124
82.46000 0.042
82.48000 3.520
82.50000 2.172
82.52000 -1.430
82.54000 1.053
82.56000 0.774
82.58000 1.864
82.60000 4.248
82.62000 2.255
82.64000 2.377
82.66000 1.514
82.68000 -1.936
82.70000 -2.083
82.72000 1.985
82.74000 3.576
82.76000 2.718
82.78000 3.598
82.80000 2.294
82.82000 3.271
82.84000 6.462
82.86000 6.495
82.88000 1.672
82.90000 -0.778
82.92000 2.470
82.94000 3.449
82.96000 4.091
82.98000 1.918
83.00000 4.305
83.02000 4.004
83.04000 1.363
83.06000 -1.940
83.08000 1.155
83.10000 1.403
83.12000 -0.263
83.14000 -0.509
83.16000 1.950
83.18000 -0.753
83.20000 0.189
83.22000 -0.210
83.24000 -0.083
83.26000 1.755
83.28000 4.030
83.30000 3.064
83.32000 1.268
83.34000 -1.579
83.36000 2.805
83.38000 1.888
83.40000 0.021
83.42000 -0.475
83.44000 4.058
83.46000 3.926
83.48000 2.830
83.50000 -2.078
83.52000 -0.821
83.54000 1.776
83.56000 5.053
83.58000 5.392
83.60000 7.942
83.62000 6.819
83.64000 8.017
83.66000 5.891
83.68000 4.899
83.70000 4.849
83.72000 5.151
83.74000 3.460
83.76000 5.707
83.78000 6.816
83.80000 8.714
83.82000 9.964
83.84000 7.670
83.86000 8.708
83.88000 4.863
83.90000 6.697
83.92000 8.532
83.94000 7.392
83.96000 5.602
83.98000 6.659
84.00000 6.279
84.02000 9.829
84.04000 13.046
84.06000 10.706
84.08000 12.440
84.10000 13.786
84.12000 12.661
84.14000 10.845
84.16000 12.761
84.18000 12.196
84.20000 13.240
84.22000 13.215
84.24000 13.335
84.26000 13.183
84.28000 14.137
84.30000 14.626
84.32000 15.964
84.34000 19.290
84.36000 19.136
84.38000 18.898
84.40000 23.125
84.42000 15.678
84.44000 12.709
84.46000 16.617
84.48000 15.513
84.50000 15.897
84.52000 20.822
84.54000 28.585
84.56000 23.687
84.58000 25.577
84.60000 21.646
84.62000 20.468
84.64000 19.887
84.66000 19.782
84.68000 23.565
84.70000 24.460
84.72000 24.835
84.74000 23.549
84.76000 24.550
84.78000 27.605
84.80000 24.463
84.82000 20.700
84.84000 19.617
84.86000 16.277
84.88000 17.272
84.90000 16.264
84.92000 19.028
84.94000 19.365
84.96000 21.709
84.98000 22.739
85.00000 22.382
85.02000 21.307
85.04000 21.452
85.06000 21.560
85.08000 17.859
85.10000 18.405
85.12000 17.104
85.14000 18.513
85.16000 19.564
85.18000 17.222
85.20000 13.692
85.22000 15.312
85.24000 16.470
85.26000 14.279
85.28000 13.327
85.30000 10.735
85.32000 15.340
85.34000 12.333
85.36000 10.241
85.38000 11.091
85.40000 10.539
85.42000 9.160
85.44000 9.129
85.46000 5.780
85.48000 4.263
85.50000 6.912
85.52000 11.247
85.54000 10.195
85.56000 7.342
85.58000 6.740
85.60000 4.680
85.62000 1.258
85.64000 2.781
85.66000 8.029
85.68000 5.473
85.70000 2.011
85.72000 2.323
85.74000 1.831
85.76000 1.227
85.78000 0.748
85.80000 1.332
85.82000 1.553
85.84000 1.666
85.86000 2.013
85.88000 2.508
85.90000 2.729
85.92000 2.502
85.94000 2.106
85.96000 2.081
85.98000 1.418
86.00000 0.698
86.02000 1.623
86.04000 -1.948
86.06000 2.440
86.08000 4.674
86.10000 4.389
86.12000 1.249
86.14000 1.894
86.16000 5.028
86.18000 0.888
86.20000 -0.477
86.22000 0.080
86.24000 0.218
86.26000 -0.678
86.28000 -0.481
86.30000 -1.255
86.32000 -1.689
86.34000 -0.922
86.36000 -1.142
86.38000 -0.826
86.40000 0.537
86.42000 1.728
86.44000 4.006
86.46000 3.810
86.48000 1.765
86.50000 2.372
86.52000 2.219
86.54000 1.434
86.56000 0.980
86.58000 1.180
86.60000 -1.507
86.62000 -1.878
86.64000 0.560
86.66000 3.048
86.68000 2.109
86.70000 1.686
86.72000 2.419
86.74000 0.967
86.76000 -1.750
86.78000 -1.072
86.80000 2.543
86.82000 1.317
86.84000 1.116
86.86000 0.126
86.88000 3.075
86.90000 0.974
86.92000 -0.126
86.94000 0.478
86.96000 0.080
86.98000 2.981
87.00000 0.404
87.02000 0.652
87.04000 3.702
87.06000 3.436
87.08000 1.739
87.10000 1.251
87.12000 -0.134
87.14000 1.310
87.16000 1.434
87.18000 -0.255
87.20000 -1.806
87.22000 0.644
87.24000 1.674
87.26000 1.986
87.28000 -1.152
87.30000 -0.971
87.32000 2.140
87.34000 5.056
87.36000 1.960
87.38000 2.201
87.40000 3.390
87.42000 3.164
87.44000 1.664
87.46000 0.993
87.48000 -0.373
87.50000 1.620
87.52000 2.830
87.54000 0.816
87.56000 0.562
87.58000 2.005
87.60000 3.128
87.62000 0.242
87.64000 0.833
87.66000 -0.781
87.68000 -0.331
87.70000 2.043
87.72000 2.128
87.74000 4.293
87.76000 3.345
87.78000 -0.005
87.80000 1.569
87.82000 2.315
87.84000 3.327
87.86000 3.254
87.88000 -1.275
87.90000 -0.640
87.92000 1.056
87.94000 0.329
87.96000 -1.811
87.98000 -0.924
88.00000 0.843
88.02000 2.141
88.04000 0.737
88.06000 1.382
88.08000 3.478
88.10000 1.154
88.12000 3.367
88.14000 2.550
88.16000 1.684
88.18000 -0.473
88.20000 0.651
88.22000 3.680
88.24000 1.313
88.26000 -0.396
88.28000 0.158
88.30000 1.539
88.32000 3.265
88.34000 2.444
88.36000 2.345
88.38000 3.101
88.40000 -0.681
88.42000 -0.698
88.44000 0.525
88.46000 1.381
88.48000 2.081
88.50000 -0.999
88.52000 -1.775
88.54000 -0.424
88.56000 0.556
88.58000 0.178
88.60000 -1.461
88.62000 -1.710
88.64000 1.935
88.66000 3.215
88.68000 3.257
88.70000 3.958
88.72000 2.218
88.74000 1.853
88.76000 0.357
88.78000 -1.804
88.80000 -0.398
88.82000 -0.013
88.84000 -1.489
88.86000 -1.552
88.88000 -0.793
88.90000 -0.379
88.92000 2.008
88.94000 1.362
88.96000 2.357
88.98000 0.912
89.00000 0.904
89.02000 -0.236
89.04000 0.331
89.06000 3.245
89.08000 6.557
89.10000 5.524
89.12000 1.189
89.14000 -1.785
89.16000 -0.691
89.18000 4.878
89.20000 5.642
89.22000 3.640
89.24000 3.075
89.26000 2.948
89.28000 1.072
89.30000 0.551
89.32000 -1.779
89.34000 -0.550
89.36000 3.720
89.38000 3.960
89.40000 -0.469
89.42000 0.439
89.44000 1.763
89.46000 1.412
89.48000 3.731
89.50000 6.610
89.52000 2.792
89.54000 0.846
89.56000 1.395
89.58000 3.905
89.60000 2.298
89.62000 -1.731
89.64000 1.284
89.66000 2.612
89.68000 1.154
89.70000 2.441
89.72000 2.761
89.74000 3.778
89.76000 3.800
89.78000 2.801
89.80000 2.813
89.82000 2.757
89.84000 1.152
89.86000 3.775
89.88000 1.961
89.90000 1.537
89.92000 1.584
89.94000 1.438
89.96000 1.648
89.98000 2.719
90.00000 3.998
90.02000 3.154
90.04000 1.956
90.06000 2.844
90.08000 4.181
90.10000 3.949
90.12000 4.586
90.14000 1.591
90.16000 2.905
90.18000 2.766
90.20000 5.833
90.22000 2.392
90.24000 1.621
90.26000 0.958
90.28000 1.833
90.30000 3.637
90.32000 2.950
90.34000 5.579
90.36000 3.383
90.38000 1.793
90.40000 1.317
90.42000 -1.715
90.44000 2.237
90.46000 6.630
90.48000 7.776
90.50000 4.163
90.52000 0.683
90.54000 -0.331
90.56000 3.192
90.58000 5.958
90.60000 1.353
90.62000 1.206
90.64000 3.206
90.66000 3.121
90.68000 2.528
90.70000 5.394
90.72000 4.088
90.74000 4.451
90.76000 3.980
90.78000 2.677
90.80000 4.040
90.82000 2.841
90.84000 1.838
90.86000 4.229
90.88000 4.108
90.90000 3.637
90.92000 3.532
90.94000 2.606
90.96000 0.948
90.98000 1.643
91.00000 1.301
91.02000 2.601
91.04000 2.811
91.06000 2.073
91.08000 1.473
91.10000 3.845
91.12000 7.180
91.14000 4.382
91.16000 3.428
91.18000 0.175
91.20000 -1.504
91.22000 -0.652
91.24000 0.087
91.26000 0.319
91.28000 1.741
91.30000 4.732
91.32000 2.999
91.34000 2.482
91.36000 1.815
91.38000 2.161
91.40000 1.494
91.42000 2.819
91.44000 2.525
91.46000 2.661
91.48000 0.605
91.50000 0.461
91.52000 1.951
91.54000 3.785
91.56000 2.993
91.58000 3.905
91.60000 1.836
91.62000 2.953
91.64000 6.269
91.66000 6.142
91.68000 3.726
91.70000 2.486
91.72000 3.570
91.74000 2.118
91.76000 1.621
91.78000 2.006
91.80000 2.933
91.82000 1.327
91.84000 3.999
91.86000 3.634
91.88000 1.873
91.90000 0.914
91.92000 -1.764
91.94000 -0.057
91.96000 2.340
91.98000 1.067
92.00000 0.455
92.02000 2.575
92.04000 0.007
92.06000 0.742
92.08000 0.947
92.10000 0.431
92.12000 1.639
92.14000 1.624
92.16000 0.950
92.18000 1.838
92.20000 -1.779
92.22000 2.487
92.24000 5.336
92.26000 7.462
92.28000 3.511
92.30000 4.689
92.32000 2.685
92.34000 1.071
92.36000 1.664
92.38000 -0.552
92.40000 -0.207
92.42000 3.068
92.44000 0.255
92.46000 3.539
92.48000 0.662
92.50000 0.941
92.52000 4.554
92.54000 5.208
92.56000 2.193
92.58000 1.179
92.60000 2.481
92.62000 2.312
92.64000 -0.660
92.66000 0.806
92.68000 2.699
92.70000 0.912
92.72000 1.695
92.74000 0.227
92.76000 1.764
92.78000 -0.017
92.80000 0.790
92.82000 3.389
92.84000 4.780
92.86000 2.733
92.88000 1.127
92.90000 -0.850
92.92000 1.389
92.94000 -1.786
92.96000 1.433
92.98000 5.369
93.00000 6.498
93.02000 1.274
93.04000 2.710
93.06000 7.288
93.08000 3.089
93.10000 0.718
93.12000 0.420
93.14000 -0.397
93.16000 1.625
93.18000 2.653
93.20000 2.939
93.22000 0.425
93.24000 0.540
93.26000 1.261
93.28000 1.640
93.30000 0.353
93.32000 0.323
93.34000 0.145
93.36000 2.036
93.38000 -1.105
93.40000 0.101
93.42000 2.535
93.44000 4.179
93.46000 2.466
93.48000 0.870
93.50000 0.624
93.52000 1.765
93.54000 3.347
93.56000 2.284
93.58000 4.259
93.60000 1.975
93.62000 0.490
93.64000 0.759
93.66000 3.671
93.68000 5.159
93.70000 4.035
93.72000 2.419
93.74000 -1.806
93.76000 -0.435
93.78000 2.286
93.80000 2.124
93.82000 1.787
93.84000 -0.381
93.86000 4.574
93.88000 4.500
93.90000 -0.816
93.92000 0.418
93.94000 3.458
93.96000 1.511
93.98000 1.963
94.00000 -0.499
94.02000 0.848
94.04000 0.765
94.06000 0.131
94.08000 1.261
94.10000 2.003
94.12000 1.288
94.14000 1.277
94.16000 3.772
94.18000 2.898
94.20000 2.353
94.22000 0.323
94.24000 2.773
94.26000 0.270
94.28000 3.506
94.30000 4.356
94.32000 2.245
94.34000 1.457
94.36000 1.407
94.38000 1.312
94.40000 1.525
94.42000 2.036
94.44000 7.014
94.46000 6.836
94.48000 3.583
94.50000 1.206
94.52000 3.616
94.54000 5.757
94.56000 3.036
94.58000 2.742
94.60000 4.220
94.62000 3.126
94.64000 4.055
94.66000 3.722
94.68000 3.769
94.70000 4.350
94.72000 1.778
94.74000 0.598
94.76000 2.547
94.78000 5.854
94.80000 3.178
94.82000 0.933
94.84000 1.845
94.86000 5.355
94.88000 4.967
94.90000 1.743
94.92000 3.577
94.94000 5.331
94.96000 2.727
94.98000 4.430
95.00000 3.854
95.02000 3.508
95.04000 4.454
95.06000 6.093
95.08000 2.676
95.10000 -1.243
95.12000 0.784
95.14000 4.443
95.16000 1.981
95.18000 2.507
95.20000 3.218
95.22000 4.840
95.24000 4.604
95.26000 3.136
95.28000 -1.739
95.30000 1.681
95.32000 2.901
95.34000 3.085
95.36000 3.751
95.38000 4.156
95.40000 2.886
95.42000 2.579
95.44000 3.929
95.46000 5.686
95.48000 4.621
95.50000 4.231
95.52000 3.682
95.54000 5.955
95.56000 5.289
95.58000 3.173
95.60000 3.674
95.62000 3.642
95.64000 3.905
95.66000 1.856
95.68000 3.088
95.70000 3.334
95.72000 2.911
95.74000 0.663
95.76000 2.634
95.78000 5.733
95.80000 6.569
95.82000 6.221
95.84000 4.086
95.86000 -0.320
95.88000 4.027
95.90000 3.421
95.92000 2.556
95.94000 2.633
95.96000 1.446
95.98000 3.506
96.00000 4.316
96.02000 2.916
96.04000 1.910
96.06000 3.046
96.08000 6.443
96.10000 3.672
96.12000 2.033
96.14000 3.217
96.16000 0.686
96.18000 3.401
96.20000 3.203
96.22000 1.411
96.24000 -0.093
96.26000 1.166
96.28000 1.079
96.30000 0.700
96.32000 -0.779
96.34000 -0.464
96.36000 2.928
96.38000 3.805
96.40000 5.713
96.42000 2.959
96.44000 0.364
96.46000 0.551
96.48000 1.594
96.50000 4.292
96.52000 4.866
96.54000 3.657
96.56000 4.424
96.58000 1.630
96.60000 0.263
96.62000 2.132
96.64000 5.119
96.66000 5.712
96.68000 4.001
96.70000 2.389
96.72000 4.289
96.74000 2.610
96.76000 1.370
96.78000 4.474
96.80000 5.164
96.82000 0.652
96.84000 0.428
96.86000 1.466
96.88000 1.379
96.90000 3.991
96.92000 0.578
96.94000 2.747
96.96000 -0.074
96.98000 -1.115
97.00000 -1.181
97.02000 1.283
97.04000 3.902
97.06000 3.647
97.08000 2.081
97.10000 2.794
97.12000 0.674
97.14000 -1.272
97.16000 1.784
97.18000 -1.397
97.20000 -1.801
97.22000 1.348
97.24000 -1.423
97.26000 -1.024
97.28000 1.982
97.30000 1.363
97.32000 2.393
97.34000 -1.794
97.36000 4.330
97.38000 6.229
97.40000 1.645
97.42000 1.725
97.44000 1.507
97.46000 3.762
97.48000 4.628
97.50000 3.331
97.52000 0.665
97.54000 1.402
97.56000 0.524
97.58000 1.125
97.60000 -1.785
97.62000 -0.840
97.64000 2.611
97.66000 5.811
97.68000 5.905
97.70000 3.374
97.72000 4.479
97.74000 4.433
97.76000 2.234
97.78000 3.550
97.80000 2.779
97.82000 2.084
97.84000 3.633
97.86000 6.731
97.88000 1.629
97.90000 4.037
97.92000 8.309
97.94000 5.882
97.96000 2.684
97.98000 2.196
98.00000 0.214
98.02000 -0.185
98.04000 1.478
98.06000 1.119
98.08000 -0.023
98.10000 1.028
98.12000 3.338
98.14000 3.066
98.16000 1.210
98.18000 1.880
98.20000 1.507
98.22000 2.881
98.24000 2.980
98.26000 0.875
98.28000 0.876
98.30000 3.492
98.32000 3.633
98.34000 3.218
98.36000 3.900
98.38000 4.859
98.40000 2.350
98.42000 -1.764
98.44000 -0.547
98.46000 0.960
98.48000 5.965
98.50000 5.808
98.52000 0.001
98.54000 1.967
98.56000 2.429
98.58000 2.365
98.60000 -1.712
98.62000 2.813
98.64000 1.507
98.66000 3.995
98.68000 5.314
98.70000 3.083
98.72000 -1.554
98.74000 -0.923
98.76000 4.256
98.78000 4.657
98.80000 5.239
98.82000 8.296
98.84000 5.618
98.86000 1.885
98.88000 1.945
98.90000 4.304
98.92000 2.309
98.94000 8.026
98.96000 6.595
98.98000 4.300
99.00000 2.859
99.02000 1.070
99.04000 5.734
99.06000 1.981
99.08000 0.660
99.10000 3.908
99.12000 2.463
99.14000 3.795
99.16000 6.639
99.18000 3.342
99.20000 0.140
99.22000 2.348
99.24000 1.609
99.26000 -0.385
99.28000 3.136
99.30000 7.256
99.32000 8.225
99.34000 6.308
99.36000 5.490
99.38000 3.008
99.40000 2.417
99.42000 7.806
99.44000 7.904
99.46000 2.442
99.48000 7.459
99.50000 8.971
99.52000 6.366
99.54000 3.480
99.56000 -1.770
99.58000 5.300
99.60000 6.458
99.62000 0.836
99.64000 0.949
99.66000 0.491
99.68000 4.736
99.70000 5.260
99.72000 -1.714
99.74000 -1.550
99.76000 4.897
99.78000 0.636
99.80000 0.818
99.82000 5.152
99.84000 4.762
99.86000 -1.839
99.88000 -1.002
99.90000 -1.588
99.92000 1.011
99.94000 1.260
99.96000 -2.029
99.98000 0.000
