'Id: "0011387" Comment: "Integrate frame 0011387_Au-Ir-Rh_Rh-rich_XRD-Mapping-134-0000.gfrmwith cursor Wedge Cursor #5" Operator: "B?rgel" Anode: "Cu" Wavelength: "1.5406" Scantype: "2Theta (TwoTheta)" TimePerStep: "1" X: "40.5" Y: "-9" Z: "5.95" 
10.00000 0.000
10.02000 -2.864
10.04000 -2.862
10.06000 7.086
10.08000 4.277
10.10000 21.052
10.12000 25.470
10.14000 13.260
10.16000 14.490
10.18000 12.301
10.20000 4.945
10.22000 13.146
10.24000 10.212
10.26000 5.496
10.28000 17.652
10.30000 13.393
10.32000 8.714
10.34000 7.821
10.36000 9.753
10.38000 18.076
10.40000 14.615
10.42000 10.360
10.44000 15.877
10.46000 25.814
10.48000 15.039
10.50000 7.590
10.52000 21.552
10.54000 28.556
10.56000 25.811
10.58000 25.020
10.60000 22.281
10.62000 27.828
10.64000 32.527
10.66000 25.063
10.68000 30.671
10.70000 28.692
10.72000 25.162
10.74000 28.665
10.76000 31.135
10.78000 30.836
10.80000 23.222
10.82000 36.025
10.84000 31.070
10.86000 24.889
10.88000 30.968
10.90000 29.308
10.92000 30.876
10.94000 20.830
10.96000 18.216
10.98000 37.076
11.00000 39.078
11.02000 34.167
11.04000 31.834
11.06000 24.742
11.08000 20.525
11.10000 31.095
11.12000 39.403
11.14000 32.463
11.16000 40.726
11.18000 35.637
11.20000 38.255
11.22000 41.271
11.24000 32.149
11.26000 31.564
11.28000 24.332
11.30000 30.944
11.32000 30.697
11.34000 28.854
11.36000 30.067
11.38000 40.489
11.40000 38.183
11.42000 35.508
11.44000 39.067
11.46000 40.188
11.48000 38.992
11.50000 36.412
11.52000 40.551
11.54000 36.650
11.56000 50.498
11.58000 46.268
11.60000 33.417
11.62000 31.351
11.64000 43.047
11.66000 41.564
11.68000 45.548
11.70000 42.715
11.72000 45.412
11.74000 57.468
11.76000 51.780
11.78000 38.500
11.80000 50.797
11.82000 53.623
11.84000 51.785
11.86000 42.145
11.88000 52.231
11.90000 61.714
11.92000 57.012
11.94000 49.396
11.96000 50.203
11.98000 46.755
12.00000 44.096
12.02000 57.850
12.04000 55.206
12.06000 47.539
12.08000 46.394
12.10000 60.937
12.12000 60.360
12.14000 57.322
12.16000 53.861
12.18000 53.693
12.20000 51.167
12.22000 48.012
12.24000 49.188
12.26000 59.243
12.28000 62.464
12.30000 58.631
12.32000 62.836
12.34000 56.090
12.36000 46.712
12.38000 48.026
12.40000 53.556
12.42000 45.490
12.44000 56.431
12.46000 60.577
12.48000 55.153
12.50000 48.430
12.52000 55.939
12.54000 54.098
12.56000 59.225
12.58000 61.485
12.60000 62.450
12.62000 65.743
12.64000 59.493
12.66000 58.671
12.68000 57.943
12.70000 59.852
12.72000 54.553
12.74000 52.284
12.76000 61.522
12.78000 64.251
12.80000 61.013
12.82000 65.819
12.84000 62.101
12.86000 58.031
12.88000 64.952
12.90000 54.455
12.92000 58.072
12.94000 61.983
12.96000 61.956
12.98000 52.878
13.00000 54.877
13.02000 55.151
13.04000 51.810
13.06000 48.590
13.08000 46.163
13.10000 64.927
13.12000 60.565
13.14000 57.089
13.16000 57.520
13.18000 55.337
13.20000 43.048
13.22000 34.168
13.24000 47.202
13.26000 58.130
13.28000 49.712
13.30000 46.853
13.32000 45.391
13.34000 48.766
13.36000 45.216
13.38000 46.656
13.40000 50.795
13.42000 45.232
13.44000 49.797
13.46000 46.240
13.48000 38.755
13.50000 46.387
13.52000 60.226
13.54000 50.372
13.56000 49.806
13.58000 49.078
13.60000 46.758
13.62000 40.554
13.64000 41.852
13.66000 47.038
13.68000 48.112
13.70000 49.329
13.72000 45.542
13.74000 50.025
13.76000 44.825
13.78000 46.440
13.80000 51.012
13.82000 49.289
13.84000 42.323
13.86000 48.228
13.88000 53.340
13.90000 47.824
13.92000 49.145
13.94000 56.945
13.96000 53.009
13.98000 46.749
14.00000 52.588
14.02000 42.652
14.04000 44.335
14.06000 49.281
14.08000 48.078
14.10000 49.698
14.12000 49.671
14.14000 47.216
14.16000 50.519
14.18000 51.440
14.20000 46.647
14.22000 38.822
14.24000 41.492
14.26000 44.712
14.28000 45.025
14.30000 43.091
14.32000 52.014
14.34000 45.611
14.36000 46.678
14.38000 42.917
14.40000 47.287
14.42000 47.264
14.44000 45.251
14.46000 44.311
14.48000 40.321
14.50000 37.984
14.52000 42.539
14.54000 41.443
14.56000 43.241
14.58000 43.947
14.60000 41.324
14.62000 34.201
14.64000 38.236
14.66000 39.979
14.68000 35.716
14.70000 43.377
14.72000 48.249
14.74000 29.394
14.76000 32.726
14.78000 34.957
14.80000 41.665
14.82000 45.851
14.84000 37.214
14.86000 35.543
14.88000 45.631
14.90000 39.409
14.92000 45.963
14.94000 45.206
14.96000 36.846
14.98000 32.670
15.00000 30.289
15.02000 38.224
15.04000 28.798
15.06000 25.445
15.08000 34.638
15.10000 40.090
15.12000 36.969
15.14000 38.013
15.16000 37.085
15.18000 32.485
15.20000 37.342
15.22000 40.818
15.24000 34.934
15.26000 37.038
15.28000 31.905
15.30000 31.992
15.32000 35.070
15.34000 33.958
15.36000 34.225
15.38000 29.024
15.40000 26.049
15.42000 32.389
15.44000 39.352
15.46000 28.185
15.48000 15.880
15.50000 23.618
15.52000 33.248
15.54000 31.716
15.56000 37.297
15.58000 30.053
15.60000 33.313
15.62000 28.683
15.64000 28.154
15.66000 26.883
15.68000 29.342
15.70000 31.750
15.72000 28.607
15.74000 26.802
15.76000 21.194
15.78000 23.327
15.80000 30.866
15.82000 29.484
15.84000 29.735
15.86000 31.311
15.88000 21.094
15.90000 26.950
15.92000 30.090
15.94000 23.158
15.96000 30.957
15.98000 30.386
16.00000 25.268
16.02000 22.714
16.04000 26.460
16.06000 20.522
16.08000 14.047
16.10000 22.224
16.12000 16.024
16.14000 16.691
16.16000 19.841
16.18000 25.820
16.20000 23.668
16.22000 17.673
16.24000 12.673
16.26000 17.094
16.28000 14.480
16.30000 19.532
16.32000 18.922
16.34000 21.991
16.36000 21.969
16.38000 21.906
16.40000 10.539
16.42000 16.750
16.44000 16.386
16.46000 18.315
16.48000 23.063
16.50000 20.349
16.52000 13.768
16.54000 11.451
16.56000 9.549
16.58000 15.884
16.60000 18.985
16.62000 20.683
16.64000 22.183
16.66000 24.650
16.68000 23.465
16.70000 21.502
16.72000 21.285
16.74000 23.276
16.76000 15.798
16.78000 18.159
16.80000 14.320
16.82000 21.277
16.84000 22.513
16.86000 15.601
16.88000 17.553
16.90000 18.813
16.92000 12.553
16.94000 18.088
16.96000 26.897
16.98000 21.938
17.00000 17.556
17.02000 23.215
17.04000 17.173
17.06000 14.692
17.08000 20.613
17.10000 24.355
17.12000 16.900
17.14000 16.542
17.16000 17.705
17.18000 14.003
17.20000 8.363
17.22000 9.301
17.24000 9.958
17.26000 14.724
17.28000 9.318
17.30000 15.812
17.32000 21.304
17.34000 17.571
17.36000 14.882
17.38000 15.386
17.40000 14.732
17.42000 14.770
17.44000 12.492
17.46000 -2.718
17.48000 5.928
17.50000 8.839
17.52000 17.688
17.54000 19.997
17.56000 12.048
17.58000 19.159
17.60000 12.327
17.62000 12.947
17.64000 16.262
17.66000 10.971
17.68000 14.446
17.70000 15.224
17.72000 7.099
17.74000 3.967
17.76000 1.128
17.78000 10.078
17.80000 10.310
17.82000 15.550
17.84000 17.146
17.86000 11.963
17.88000 8.149
17.90000 9.855
17.92000 6.392
17.94000 14.025
17.96000 13.809
17.98000 8.495
18.00000 11.070
18.02000 6.905
18.04000 3.904
18.06000 6.439
18.08000 9.490
18.10000 11.256
18.12000 10.619
18.14000 8.642
18.16000 1.724
18.18000 5.287
18.20000 5.365
18.22000 5.605
18.24000 8.668
18.26000 10.394
18.28000 7.704
18.30000 13.769
18.32000 16.491
18.34000 17.871
18.36000 8.211
18.38000 8.388
18.40000 3.439
18.42000 3.518
18.44000 4.192
18.46000 4.623
18.48000 1.645
18.50000 11.522
18.52000 6.091
18.54000 2.503
18.56000 4.314
18.58000 5.143
18.60000 7.066
18.62000 12.031
18.64000 4.898
18.66000 5.585
18.68000 5.639
18.70000 1.710
18.72000 -0.220
18.74000 -0.623
18.76000 0.796
18.78000 -0.042
18.80000 0.047
18.82000 3.243
18.84000 8.719
18.86000 10.462
18.88000 2.633
18.90000 2.904
18.92000 1.794
18.94000 -1.243
18.96000 -1.614
18.98000 -2.033
19.00000 2.930
19.02000 0.537
19.04000 5.935
19.06000 9.283
19.08000 -0.249
19.10000 -4.265
19.12000 5.426
19.14000 4.951
19.16000 -3.819
19.18000 -2.367
19.20000 -0.071
19.22000 4.038
19.24000 1.400
19.26000 1.828
19.28000 5.485
19.30000 5.122
19.32000 10.139
19.34000 10.735
19.36000 2.010
19.38000 -2.934
19.40000 2.757
19.42000 5.226
19.44000 2.365
19.46000 -1.410
19.48000 4.626
19.50000 11.482
19.52000 5.919
19.54000 4.467
19.56000 6.129
19.58000 5.338
19.60000 4.343
19.62000 7.082
19.64000 9.387
19.66000 8.938
19.68000 11.267
19.70000 10.998
19.72000 2.238
19.74000 4.658
19.76000 3.533
19.78000 7.827
19.80000 6.524
19.82000 2.569
19.84000 -3.098
19.86000 0.675
19.88000 11.062
19.90000 5.859
19.92000 9.165
19.94000 5.552
19.96000 3.195
19.98000 0.538
20.00000 5.207
20.02000 2.422
20.04000 -0.233
20.06000 4.973
20.08000 -1.123
20.10000 0.466
20.12000 5.799
20.14000 3.109
20.16000 2.227
20.18000 5.025
20.20000 1.080
20.22000 2.978
20.24000 2.390
20.26000 1.240
20.28000 2.147
20.30000 5.073
20.32000 3.962
20.34000 7.449
20.36000 4.850
20.38000 -0.989
20.40000 -3.223
20.42000 -4.194
20.44000 6.465
20.46000 5.973
20.48000 -1.169
20.50000 3.609
20.52000 8.808
20.54000 5.116
20.56000 6.253
20.58000 5.434
20.60000 1.058
20.62000 5.245
20.64000 4.822
20.66000 7.653
20.68000 4.041
20.70000 8.463
20.72000 9.858
20.74000 6.937
20.76000 2.700
20.78000 3.361
20.80000 0.788
20.82000 5.774
20.84000 0.838
20.86000 2.100
20.88000 3.466
20.90000 5.481
20.92000 3.035
20.94000 6.826
20.96000 9.293
20.98000 8.834
21.00000 4.500
21.02000 7.985
21.04000 6.739
21.06000 8.485
21.08000 2.265
21.10000 2.015
21.12000 1.009
21.14000 1.566
21.16000 -1.035
21.18000 1.016
21.20000 1.512
21.22000 1.400
21.24000 5.425
21.26000 2.561
21.28000 -3.645
21.30000 -4.147
21.32000 -1.503
21.34000 -0.521
21.36000 6.380
21.38000 11.337
21.40000 10.680
21.42000 7.689
21.44000 10.961
21.46000 4.120
21.48000 5.283
21.50000 1.156
21.52000 4.389
21.54000 -0.204
21.56000 -0.585
21.58000 -2.775
21.60000 2.085
21.62000 5.013
21.64000 7.094
21.66000 9.291
21.68000 1.090
21.70000 -0.791
21.72000 1.295
21.74000 -1.427
21.76000 -3.638
21.78000 -3.747
21.80000 3.846
21.82000 6.581
21.84000 6.542
21.86000 6.663
21.88000 -3.384
21.90000 1.625
21.92000 -1.332
21.94000 -3.519
21.96000 2.338
21.98000 -0.181
22.00000 -0.792
22.02000 2.535
22.04000 -1.006
22.06000 2.039
22.08000 1.057
22.10000 -3.143
22.12000 -0.792
22.14000 2.422
22.16000 2.322
22.18000 -1.482
22.20000 -3.539
22.22000 -1.062
22.24000 4.244
22.26000 1.934
22.28000 7.837
22.30000 11.428
22.32000 2.491
22.34000 -4.088
22.36000 0.156
22.38000 4.301
22.40000 5.565
22.42000 4.289
22.44000 -2.182
22.46000 4.144
22.48000 7.688
22.50000 8.662
22.52000 5.223
22.54000 7.180
22.56000 4.426
22.58000 2.493
22.60000 3.610
22.62000 1.761
22.64000 6.288
22.66000 4.145
22.68000 3.143
22.70000 4.323
22.72000 12.006
22.74000 4.203
22.76000 7.613
22.78000 9.909
22.80000 7.008
22.82000 4.821
22.84000 4.851
22.86000 3.520
22.88000 6.386
22.90000 9.118
22.92000 7.083
22.94000 -1.922
22.96000 1.769
22.98000 3.928
23.00000 4.222
23.02000 -1.540
23.04000 -2.902
23.06000 -1.334
23.08000 -0.381
23.10000 3.494
23.12000 3.245
23.14000 5.429
23.16000 3.036
23.18000 2.191
23.20000 1.054
23.22000 -2.352
23.24000 -4.019
23.26000 4.222
23.28000 2.518
23.30000 3.451
23.32000 5.413
23.34000 3.120
23.36000 1.448
23.38000 8.536
23.40000 8.022
23.42000 9.896
23.44000 3.247
23.46000 3.451
23.48000 11.135
23.50000 15.427
23.52000 7.066
23.54000 4.779
23.56000 -0.014
23.58000 2.282
23.60000 3.972
23.62000 4.581
23.64000 8.803
23.66000 10.872
23.68000 7.077
23.70000 9.794
23.72000 7.849
23.74000 6.793
23.76000 11.130
23.78000 11.916
23.80000 4.996
23.82000 0.854
23.84000 3.347
23.86000 0.936
23.88000 0.146
23.90000 0.069
23.92000 -1.777
23.94000 3.317
23.96000 6.334
23.98000 4.845
24.00000 0.841
24.02000 -3.986
24.04000 -3.559
24.06000 1.393
24.08000 5.191
24.10000 1.596
24.12000 6.195
24.14000 5.328
24.16000 1.689
24.18000 0.596
24.20000 4.921
24.22000 3.625
24.24000 3.033
24.26000 -1.794
24.28000 0.719
24.30000 7.985
24.32000 3.791
24.34000 -3.966
24.36000 -1.144
24.38000 0.377
24.40000 1.398
24.42000 1.435
24.44000 0.620
24.46000 2.957
24.48000 5.746
24.50000 0.367
24.52000 0.997
24.54000 2.825
24.56000 4.308
24.58000 7.233
24.60000 3.874
24.62000 10.804
24.64000 5.384
24.66000 6.677
24.68000 6.562
24.70000 10.940
24.72000 8.552
24.74000 8.555
24.76000 5.618
24.78000 4.369
24.80000 2.983
24.82000 0.814
24.84000 4.517
24.86000 5.325
24.88000 4.922
24.90000 4.395
24.92000 4.066
24.94000 0.180
24.96000 1.111
24.98000 6.986
25.00000 1.919
25.02000 4.457
25.04000 3.063
25.06000 1.462
25.08000 1.008
25.10000 3.004
25.12000 6.035
25.14000 6.042
25.16000 10.500
25.18000 9.865
25.20000 8.094
25.22000 2.617
25.24000 0.376
25.26000 2.356
25.28000 -0.348
25.30000 2.129
25.32000 2.602
25.34000 -0.921
25.36000 0.672
25.38000 3.098
25.40000 0.976
25.42000 0.942
25.44000 5.885
25.46000 5.270
25.48000 3.653
25.50000 -0.977
25.52000 3.368
25.54000 3.725
25.56000 -2.592
25.58000 -0.051
25.60000 1.041
25.62000 0.884
25.64000 7.371
25.66000 9.340
25.68000 1.411
25.70000 1.291
25.72000 4.587
25.74000 6.363
25.76000 7.536
25.78000 2.557
25.80000 5.053
25.82000 3.367
25.84000 2.263
25.86000 4.057
25.88000 3.615
25.90000 4.779
25.92000 3.067
25.94000 3.350
25.96000 -3.877
25.98000 -1.274
26.00000 1.394
26.02000 -0.651
26.04000 -1.703
26.06000 0.778
26.08000 1.573
26.10000 0.523
26.12000 3.676
26.14000 0.625
26.16000 1.942
26.18000 3.339
26.20000 6.077
26.22000 4.965
26.24000 8.631
26.26000 5.577
26.28000 0.618
26.30000 1.218
26.32000 1.559
26.34000 6.852
26.36000 2.133
26.38000 -2.613
26.40000 -2.409
26.42000 1.252
26.44000 3.082
26.46000 1.408
26.48000 0.442
26.50000 -0.126
26.52000 1.704
26.54000 7.078
26.56000 4.108
26.58000 7.634
26.60000 5.847
26.62000 3.764
26.64000 4.785
26.66000 4.971
26.68000 2.818
26.70000 5.361
26.72000 4.804
26.74000 3.192
26.76000 3.584
26.78000 3.470
26.80000 2.133
26.82000 -0.127
26.84000 -1.332
26.86000 0.164
26.88000 0.584
26.90000 3.087
26.92000 6.623
26.94000 5.832
26.96000 0.547
26.98000 -1.015
27.00000 3.273
27.02000 6.888
27.04000 7.142
27.06000 8.257
27.08000 8.179
27.10000 1.893
27.12000 0.031
27.14000 0.179
27.16000 0.523
27.18000 0.247
27.20000 -0.418
27.22000 2.715
27.24000 2.487
27.26000 2.453
27.28000 4.615
27.30000 2.336
27.32000 2.795
27.34000 4.068
27.36000 3.997
27.38000 10.313
27.40000 7.048
27.42000 7.626
27.44000 6.588
27.46000 0.091
27.48000 2.605
27.50000 7.265
27.52000 3.559
27.54000 5.523
27.56000 5.601
27.58000 9.301
27.60000 7.882
27.62000 6.512
27.64000 3.928
27.66000 3.075
27.68000 3.313
27.70000 6.066
27.72000 0.200
27.74000 -3.767
27.76000 -2.476
27.78000 -0.880
27.80000 3.824
27.82000 7.099
27.84000 5.584
27.86000 7.983
27.88000 8.160
27.90000 5.058
27.92000 1.312
27.94000 -2.245
27.96000 2.381
27.98000 6.183
28.00000 6.208
28.02000 8.706
28.04000 8.130
28.06000 3.125
28.08000 3.517
28.10000 2.791
28.12000 2.761
28.14000 2.161
28.16000 7.705
28.18000 5.950
28.20000 2.474
28.22000 4.917
28.24000 4.977
28.26000 0.969
28.28000 2.410
28.30000 1.935
28.32000 3.109
28.34000 0.927
28.36000 1.805
28.38000 2.319
28.40000 1.643
28.42000 0.693
28.44000 1.764
28.46000 3.951
28.48000 1.422
28.50000 0.804
28.52000 -0.097
28.54000 -1.670
28.56000 -0.167
28.58000 2.849
28.60000 3.774
28.62000 2.467
28.64000 7.213
28.66000 4.682
28.68000 4.672
28.70000 4.946
28.72000 5.582
28.74000 3.762
28.76000 5.999
28.78000 5.382
28.80000 5.066
28.82000 7.737
28.84000 -0.495
28.86000 1.417
28.88000 4.770
28.90000 2.083
28.92000 2.062
28.94000 1.936
28.96000 -3.735
28.98000 -1.635
29.00000 0.788
29.02000 3.365
29.04000 -0.257
29.06000 2.334
29.08000 2.409
29.10000 3.871
29.12000 5.736
29.14000 6.451
29.16000 -2.218
29.18000 -1.975
29.20000 3.571
29.22000 8.865
29.24000 1.065
29.26000 -0.970
29.28000 0.763
29.30000 3.076
29.32000 5.725
29.34000 7.288
29.36000 5.392
29.38000 5.192
29.40000 7.218
29.42000 4.728
29.44000 0.252
29.46000 2.022
29.48000 1.205
29.50000 0.178
29.52000 -2.486
29.54000 -2.525
29.56000 -0.148
29.58000 -2.147
29.60000 1.821
29.62000 2.127
29.64000 -2.424
29.66000 1.343
29.68000 3.893
29.70000 0.080
29.72000 -1.892
29.74000 -2.953
29.76000 -0.192
29.78000 -2.422
29.80000 -3.689
29.82000 4.262
29.84000 6.304
29.86000 6.522
29.88000 9.089
29.90000 9.535
29.92000 4.597
29.94000 -1.127
29.96000 -0.149
29.98000 2.674
30.00000 1.381
30.02000 1.358
30.04000 1.458
30.06000 -0.310
30.08000 3.079
30.10000 3.506
30.12000 2.551
30.14000 2.700
30.16000 -0.179
30.18000 -0.150
30.20000 -0.780
30.22000 0.941
30.24000 5.043
30.26000 4.173
30.28000 -0.739
30.30000 3.780
30.32000 2.592
30.34000 3.110
30.36000 -0.020
30.38000 4.682
30.40000 5.615
30.42000 1.577
30.44000 2.152
30.46000 -2.197
30.48000 -1.139
30.50000 5.677
30.52000 6.211
30.54000 6.038
30.56000 5.855
30.58000 4.914
30.60000 4.759
30.62000 5.533
30.64000 6.265
30.66000 2.062
30.68000 -0.116
30.70000 -3.639
30.72000 -2.050
30.74000 4.446
30.76000 7.427
30.78000 1.709
30.80000 -0.557
30.82000 2.399
30.84000 2.345
30.86000 4.381
30.88000 5.263
30.90000 2.809
30.92000 3.296
30.94000 5.086
30.96000 0.816
30.98000 2.414
31.00000 3.978
31.02000 8.440
31.04000 3.840
31.06000 0.662
31.08000 3.556
31.10000 3.361
31.12000 0.714
31.14000 2.726
31.16000 9.153
31.18000 2.325
31.20000 6.311
31.22000 4.058
31.24000 4.130
31.26000 5.884
31.28000 2.234
31.30000 -0.306
31.32000 -1.597
31.34000 -0.146
31.36000 -1.133
31.38000 -0.353
31.40000 1.149
31.42000 5.639
31.44000 -1.473
31.46000 -3.604
31.48000 -2.169
31.50000 1.967
31.52000 5.981
31.54000 5.590
31.56000 2.963
31.58000 4.004
31.60000 5.305
31.62000 5.100
31.64000 5.218
31.66000 7.499
31.68000 -0.716
31.70000 -2.961
31.72000 1.074
31.74000 0.213
31.76000 0.607
31.78000 5.597
31.80000 -0.107
31.82000 2.773
31.84000 2.287
31.86000 2.624
31.88000 7.688
31.90000 6.202
31.92000 8.867
31.94000 3.383
31.96000 -0.497
31.98000 2.023
32.00000 -0.767
32.02000 0.996
32.04000 2.635
32.06000 1.266
32.08000 -0.242
32.10000 4.051
32.12000 0.052
32.14000 -2.593
32.16000 -1.559
32.18000 -3.593
32.20000 1.052
32.22000 2.009
32.24000 2.609
32.26000 4.689
32.28000 1.815
32.30000 -2.304
32.32000 -1.667
32.34000 -2.150
32.36000 2.970
32.38000 2.818
32.40000 2.405
32.42000 3.972
32.44000 0.648
32.46000 -1.709
32.48000 3.588
32.50000 5.906
32.52000 -1.168
32.54000 -3.587
32.56000 3.180
32.58000 5.379
32.60000 0.592
32.62000 1.946
32.64000 0.151
32.66000 2.015
32.68000 2.188
32.70000 2.666
32.72000 0.465
32.74000 2.180
32.76000 3.080
32.78000 -3.581
32.80000 -1.778
32.82000 -2.576
32.84000 0.408
32.86000 -1.671
32.88000 -2.202
32.90000 0.982
32.92000 3.395
32.94000 0.909
32.96000 -0.462
32.98000 -3.266
33.00000 3.661
33.02000 2.247
33.04000 -0.436
33.06000 -2.273
33.08000 -2.912
33.10000 1.796
33.12000 0.409
33.14000 1.818
33.16000 2.394
33.18000 3.695
33.20000 2.963
33.22000 5.055
33.24000 2.205
33.26000 8.825
33.28000 7.086
33.30000 4.978
33.32000 2.566
33.34000 1.485
33.36000 -0.542
33.38000 3.675
33.40000 11.142
33.42000 9.403
33.44000 3.190
33.46000 6.268
33.48000 10.225
33.50000 4.802
33.52000 4.664
33.54000 4.117
33.56000 2.298
33.58000 1.316
33.60000 1.109
33.62000 3.536
33.64000 1.271
33.66000 2.690
33.68000 3.830
33.70000 4.769
33.72000 4.745
33.74000 5.997
33.76000 5.377
33.78000 3.898
33.80000 3.024
33.82000 5.199
33.84000 8.574
33.86000 7.440
33.88000 6.422
33.90000 3.795
33.92000 4.973
33.94000 6.526
33.96000 10.464
33.98000 7.733
34.00000 5.035
34.02000 0.248
34.04000 2.498
34.06000 6.875
34.08000 10.698
34.10000 6.520
34.12000 9.518
34.14000 6.629
34.16000 0.192
34.18000 -3.493
34.20000 2.484
34.22000 6.946
34.24000 5.393
34.26000 6.251
34.28000 6.745
34.30000 4.615
34.32000 2.898
34.34000 2.140
34.36000 6.701
34.38000 5.944
34.40000 -1.173
34.42000 -3.485
34.44000 4.568
34.46000 7.934
34.48000 4.660
34.50000 3.426
34.52000 5.094
34.54000 4.775
34.56000 5.338
34.58000 4.132
34.60000 3.517
34.62000 1.848
34.64000 5.773
34.66000 5.010
34.68000 3.210
34.70000 0.997
34.72000 -1.625
34.74000 3.247
34.76000 1.877
34.78000 0.948
34.80000 5.062
34.82000 0.138
34.84000 -0.443
34.86000 0.262
34.88000 -1.985
34.90000 -1.063
34.92000 4.567
34.94000 2.550
34.96000 -0.154
34.98000 -1.295
35.00000 2.081
35.02000 1.458
35.04000 3.633
35.06000 1.491
35.08000 3.679
35.10000 6.147
35.12000 6.528
35.14000 7.504
35.16000 6.138
35.18000 -1.022
35.20000 -1.180
35.22000 2.389
35.24000 2.747
35.26000 -0.473
35.28000 0.099
35.30000 0.464
35.32000 5.466
35.34000 6.606
35.36000 -3.080
35.38000 -2.146
35.40000 -0.311
35.42000 0.801
35.44000 3.288
35.46000 7.374
35.48000 5.095
35.50000 4.776
35.52000 0.411
35.54000 2.039
35.56000 4.858
35.58000 -3.475
35.60000 1.686
35.62000 2.380
35.64000 0.832
35.66000 0.905
35.68000 1.422
35.70000 5.563
35.72000 6.504
35.74000 5.314
35.76000 3.737
35.78000 4.177
35.80000 2.418
35.82000 2.671
35.84000 1.009
35.86000 2.032
35.88000 0.125
35.90000 -0.337
35.92000 -1.012
35.94000 -0.647
35.96000 -3.472
35.98000 -1.098
36.00000 1.530
36.02000 -1.413
36.04000 -2.865
36.06000 0.568
36.08000 3.626
36.10000 2.644
36.12000 4.171
36.14000 5.933
36.16000 6.417
36.18000 -1.754
36.20000 -1.832
36.22000 -1.487
36.24000 2.098
36.26000 4.728
36.28000 4.827
36.30000 4.847
36.32000 1.651
36.34000 2.447
36.36000 3.446
36.38000 4.688
36.40000 0.938
36.42000 -0.881
36.44000 3.309
36.46000 3.464
36.48000 3.836
36.50000 0.475
36.52000 4.473
36.54000 4.394
36.56000 3.947
36.58000 1.955
36.60000 1.751
36.62000 0.645
36.64000 -3.489
36.66000 0.087
36.68000 5.083
36.70000 2.561
36.72000 4.288
36.74000 -1.546
36.76000 -2.106
36.78000 -0.434
36.80000 1.828
36.82000 5.573
36.84000 3.391
36.86000 1.436
36.88000 -1.957
36.90000 -1.105
36.92000 -3.262
36.94000 1.359
36.96000 4.782
36.98000 4.940
37.00000 1.618
37.02000 4.856
37.04000 4.737
37.06000 3.120
37.08000 -2.188
37.10000 3.562
37.12000 6.348
37.14000 -1.158
37.16000 -3.510
37.18000 -0.405
37.20000 0.040
37.22000 -2.856
37.24000 2.384
37.26000 1.897
37.28000 3.928
37.30000 4.579
37.32000 4.758
37.34000 2.723
37.36000 -3.517
37.38000 0.378
37.40000 -0.681
37.42000 0.236
37.44000 1.905
37.46000 2.178
37.48000 1.546
37.50000 3.820
37.52000 2.765
37.54000 1.860
37.56000 3.803
37.58000 -1.478
37.60000 -1.183
37.62000 1.169
37.64000 -2.485
37.66000 1.023
37.68000 9.679
37.70000 0.592
37.72000 1.245
37.74000 2.539
37.76000 -3.564
37.78000 1.908
37.80000 3.006
37.82000 1.465
37.84000 0.655
37.86000 4.158
37.88000 2.398
37.90000 4.613
37.92000 4.965
37.94000 4.623
37.96000 3.331
37.98000 6.264
38.00000 3.425
38.02000 4.316
38.04000 3.093
38.06000 3.831
38.08000 3.599
38.10000 3.627
38.12000 3.735
38.14000 3.758
38.16000 10.125
38.18000 8.384
38.20000 6.347
38.22000 7.536
38.24000 10.145
38.26000 12.396
38.28000 12.805
38.30000 13.145
38.32000 12.178
38.34000 10.635
38.36000 9.016
38.38000 12.190
38.40000 12.119
38.42000 15.729
38.44000 15.742
38.46000 15.869
38.48000 12.611
38.50000 3.878
38.52000 11.083
38.54000 13.253
38.56000 12.748
38.58000 15.508
38.60000 19.722
38.62000 18.513
38.64000 17.159
38.66000 12.042
38.68000 19.943
38.70000 18.388
38.72000 16.777
38.74000 19.977
38.76000 21.105
38.78000 21.452
38.80000 20.030
38.82000 21.335
38.84000 20.611
38.86000 18.871
38.88000 20.506
38.90000 22.862
38.92000 28.285
38.94000 24.563
38.96000 27.153
38.98000 29.978
39.00000 29.392
39.02000 26.759
39.04000 28.111
39.06000 29.676
39.08000 29.346
39.10000 30.152
39.12000 30.335
39.14000 34.876
39.16000 36.015
39.18000 32.516
39.20000 31.416
39.22000 30.382
39.24000 33.020
39.26000 36.759
39.28000 43.639
39.30000 40.327
39.32000 43.189
39.34000 44.606
39.36000 46.412
39.38000 53.486
39.40000 48.686
39.42000 49.661
39.44000 51.246
39.46000 50.854
39.48000 54.849
39.50000 56.753
39.52000 63.814
39.54000 70.175
39.56000 70.664
39.58000 72.533
39.60000 77.273
39.62000 84.608
39.64000 85.529
39.66000 93.337
39.68000 101.997
39.70000 100.685
39.72000 105.238
39.74000 106.875
39.76000 111.259
39.78000 114.367
39.80000 117.800
39.82000 132.500
39.84000 143.691
39.86000 151.611
39.88000 155.877
39.90000 165.809
39.92000 180.273
39.94000 184.992
39.96000 195.100
39.98000 214.398
40.00000 221.399
40.02000 232.548
40.04000 242.149
40.06000 253.250
40.08000 270.845
40.10000 290.032
40.12000 306.111
40.14000 317.837
40.16000 333.390
40.18000 359.672
40.20000 378.631
40.22000 392.464
40.24000 419.216
40.26000 435.510
40.28000 448.777
40.30000 461.988
40.32000 471.046
40.34000 496.529
40.36000 512.905
40.38000 525.779
40.40000 545.975
40.42000 563.387
40.44000 574.393
40.46000 593.796
40.48000 596.510
40.50000 587.953
40.52000 597.010
40.54000 602.243
40.56000 596.730
40.58000 588.681
40.60000 589.913
40.62000 592.563
40.64000 591.111
40.66000 573.780
40.68000 558.878
40.70000 547.904
40.72000 537.199
40.74000 524.552
40.76000 507.689
40.78000 495.324
40.80000 472.599
40.82000 465.281
40.84000 443.928
40.86000 425.303
40.88000 414.864
40.90000 396.766
40.92000 378.924
40.94000 366.277
40.96000 348.275
40.98000 323.457
41.00000 305.075
41.02000 286.669
41.04000 278.083
41.06000 264.040
41.08000 252.012
41.10000 242.669
41.12000 225.165
41.14000 216.432
41.16000 201.092
41.18000 192.606
41.20000 183.136
41.22000 176.402
41.24000 163.326
41.26000 156.860
41.28000 147.879
41.30000 140.950
41.32000 139.243
41.34000 136.374
41.36000 129.159
41.38000 124.212
41.40000 113.186
41.42000 101.747
41.44000 101.027
41.46000 94.117
41.48000 86.785
41.50000 83.093
41.52000 81.850
41.54000 78.814
41.56000 73.676
41.58000 67.304
41.60000 64.964
41.62000 62.648
41.64000 59.424
41.66000 54.814
41.68000 52.473
41.70000 49.073
41.72000 48.117
41.74000 52.712
41.76000 44.387
41.78000 46.019
41.80000 48.639
41.82000 42.191
41.84000 40.406
41.86000 39.325
41.88000 37.443
41.90000 30.757
41.92000 30.771
41.94000 28.763
41.96000 26.453
41.98000 25.110
42.00000 21.114
42.02000 22.305
42.04000 25.845
42.06000 20.419
42.08000 21.733
42.10000 20.533
42.12000 16.760
42.14000 23.526
42.16000 22.705
42.18000 19.828
42.20000 20.417
42.22000 21.569
42.24000 18.522
42.26000 18.675
42.28000 20.262
42.30000 14.069
42.32000 15.354
42.34000 14.850
42.36000 7.928
42.38000 8.655
42.40000 7.967
42.42000 7.976
42.44000 8.039
42.46000 11.894
42.48000 7.138
42.50000 7.513
42.52000 7.973
42.54000 8.010
42.56000 8.505
42.58000 6.749
42.60000 5.258
42.62000 3.874
42.64000 -0.375
42.66000 2.094
42.68000 2.741
42.70000 2.830
42.72000 5.941
42.74000 6.498
42.76000 7.308
42.78000 5.718
42.80000 3.978
42.82000 4.666
42.84000 3.690
42.86000 -1.613
42.88000 -1.804
42.90000 1.575
42.92000 0.944
42.94000 1.581
42.96000 1.801
42.98000 2.063
43.00000 0.808
43.02000 0.627
43.04000 -2.151
43.06000 0.018
43.08000 3.252
43.10000 1.830
43.12000 0.768
43.14000 3.117
43.16000 4.937
43.18000 4.358
43.20000 4.522
43.22000 2.281
43.24000 0.543
43.26000 3.348
43.28000 4.625
43.30000 1.653
43.32000 1.035
43.34000 -0.753
43.36000 0.916
43.38000 -1.105
43.40000 -0.935
43.42000 3.657
43.44000 4.917
43.46000 0.673
43.48000 -1.205
43.50000 -0.103
43.52000 2.611
43.54000 0.133
43.56000 -0.723
43.58000 -2.229
43.60000 2.198
43.62000 3.432
43.64000 3.448
43.66000 4.186
43.68000 3.556
43.70000 4.027
43.72000 2.157
43.74000 2.507
43.76000 1.404
43.78000 -1.628
43.80000 -3.335
43.82000 3.025
43.84000 8.228
43.86000 7.820
43.88000 3.973
43.90000 0.552
43.92000 -2.787
43.94000 -1.519
43.96000 4.430
43.98000 4.349
44.00000 0.930
44.02000 1.707
44.04000 -0.370
44.06000 0.175
44.08000 4.695
44.10000 2.709
44.12000 -0.493
44.14000 3.804
44.16000 4.263
44.18000 1.340
44.20000 -0.821
44.22000 -1.738
44.24000 -1.384
44.26000 0.348
44.28000 -0.224
44.30000 3.457
44.32000 1.250
44.34000 -1.339
44.36000 -1.935
44.38000 1.666
44.40000 3.191
44.42000 6.438
44.44000 2.755
44.46000 -0.254
44.48000 -2.223
44.50000 -0.139
44.52000 0.546
44.54000 0.408
44.56000 1.088
44.58000 -0.666
44.60000 4.120
44.62000 2.631
44.64000 6.346
44.66000 5.432
44.68000 0.925
44.70000 2.340
44.72000 0.008
44.74000 -0.055
44.76000 2.708
44.78000 3.914
44.80000 2.065
44.82000 0.460
44.84000 1.816
44.86000 4.013
44.88000 2.626
44.90000 0.065
44.92000 1.020
44.94000 6.078
44.96000 0.259
44.98000 2.217
45.00000 5.720
45.02000 -2.372
45.04000 -2.979
45.06000 0.949
45.08000 1.077
45.10000 3.284
45.12000 -3.261
45.14000 4.257
45.16000 8.065
45.18000 7.296
45.20000 4.145
45.22000 1.510
45.24000 2.327
45.26000 5.696
45.28000 2.071
45.30000 3.845
45.32000 10.763
45.34000 7.974
45.36000 3.204
45.38000 4.833
45.40000 6.020
45.42000 5.486
45.44000 7.626
45.46000 3.695
45.48000 5.342
45.50000 9.435
45.52000 5.538
45.54000 7.837
45.56000 7.877
45.58000 11.737
45.60000 10.782
45.62000 13.361
45.64000 13.783
45.66000 10.345
45.68000 11.793
45.70000 8.950
45.72000 8.958
45.74000 10.067
45.76000 12.202
45.78000 14.827
45.80000 12.269
45.82000 14.349
45.84000 15.009
45.86000 12.438
45.88000 15.679
45.90000 12.914
45.92000 15.319
45.94000 10.901
45.96000 11.241
45.98000 11.939
46.00000 21.006
46.02000 18.800
46.04000 14.278
46.06000 20.231
46.08000 22.714
46.10000 20.764
46.12000 16.187
46.14000 21.078
46.16000 21.433
46.18000 23.171
46.20000 25.628
46.22000 23.893
46.24000 26.507
46.26000 24.203
46.28000 27.674
46.30000 29.990
46.32000 35.997
46.34000 36.298
46.36000 37.755
46.38000 41.280
46.40000 41.982
46.42000 39.120
46.44000 39.447
46.46000 38.362
46.48000 37.133
46.50000 41.900
46.52000 45.122
46.54000 44.760
46.56000 45.460
46.58000 46.531
46.60000 50.599
46.62000 53.734
46.64000 57.231
46.66000 62.084
46.68000 62.978
46.70000 57.456
46.72000 60.146
46.74000 61.608
46.76000 62.792
46.78000 66.134
46.80000 74.949
46.82000 66.662
46.84000 64.713
46.86000 72.219
46.88000 71.434
46.90000 70.918
46.92000 72.750
46.94000 74.427
46.96000 78.882
46.98000 79.382
47.00000 79.144
47.02000 81.255
47.04000 80.871
47.06000 78.024
47.08000 79.609
47.10000 82.348
47.12000 85.846
47.14000 88.799
47.16000 87.783
47.18000 84.643
47.20000 77.631
47.22000 81.905
47.24000 79.586
47.26000 83.777
47.28000 87.791
47.30000 85.026
47.32000 80.251
47.34000 79.483
47.36000 80.756
47.38000 80.597
47.40000 73.731
47.42000 71.439
47.44000 72.593
47.46000 73.195
47.48000 75.566
47.50000 72.140
47.52000 71.073
47.54000 65.858
47.56000 63.682
47.58000 63.162
47.60000 61.620
47.62000 56.649
47.64000 52.839
47.66000 55.366
47.68000 53.073
47.70000 52.596
47.72000 49.228
47.74000 44.108
47.76000 46.519
47.78000 42.754
47.80000 35.682
47.82000 35.683
47.84000 39.795
47.86000 40.857
47.88000 43.979
47.90000 40.056
47.92000 36.979
47.94000 33.929
47.96000 30.296
47.98000 29.410
48.00000 29.519
48.02000 30.307
48.04000 24.846
48.06000 22.259
48.08000 25.185
48.10000 23.809
48.12000 22.264
48.14000 20.102
48.16000 17.600
48.18000 20.564
48.20000 20.166
48.22000 16.388
48.24000 13.611
48.26000 14.075
48.28000 15.177
48.30000 12.990
48.32000 11.939
48.34000 11.181
48.36000 11.740
48.38000 8.249
48.40000 10.434
48.42000 6.556
48.44000 7.329
48.46000 12.327
48.48000 12.529
48.50000 13.552
48.52000 8.735
48.54000 6.906
48.56000 8.895
48.58000 5.600
48.60000 4.467
48.62000 6.543
48.64000 5.482
48.66000 4.024
48.68000 13.491
48.70000 7.796
48.72000 3.233
48.74000 3.066
48.76000 3.513
48.78000 4.442
48.80000 0.425
48.82000 -2.919
48.84000 0.595
48.86000 1.879
48.88000 2.491
48.90000 1.607
48.92000 1.205
48.94000 2.308
48.96000 6.197
48.98000 3.979
49.00000 0.340
49.02000 2.325
49.04000 3.738
49.06000 4.499
49.08000 4.352
49.10000 2.964
49.12000 1.574
49.14000 -0.156
49.16000 5.563
49.18000 8.252
49.20000 3.788
49.22000 4.117
49.24000 0.516
49.26000 1.543
49.28000 -0.091
49.30000 2.219
49.32000 3.585
49.34000 4.511
49.36000 4.919
49.38000 3.712
49.40000 3.885
49.42000 4.035
49.44000 4.001
49.46000 5.370
49.48000 4.937
49.50000 1.026
49.52000 1.554
49.54000 2.825
49.56000 3.295
49.58000 1.652
49.60000 -0.292
49.62000 -1.404
49.64000 0.764
49.66000 4.102
49.68000 6.259
49.70000 2.032
49.72000 3.788
49.74000 1.162
49.76000 1.718
49.78000 7.156
49.80000 8.109
49.82000 5.771
49.84000 4.276
49.86000 2.988
49.88000 3.059
49.90000 2.502
49.92000 -2.746
49.94000 0.201
49.96000 3.088
49.98000 7.772
50.00000 2.642
50.02000 3.703
50.04000 4.214
50.06000 1.086
50.08000 6.625
50.10000 4.517
50.12000 2.135
50.14000 1.173
50.16000 -1.864
50.18000 -0.456
50.20000 -1.665
50.22000 -0.787
50.24000 2.584
50.26000 2.774
50.28000 3.171
50.30000 3.629
50.32000 0.613
50.34000 2.426
50.36000 3.118
50.38000 2.154
50.40000 -2.405
50.42000 2.870
50.44000 4.581
50.46000 1.757
50.48000 -0.460
50.50000 0.611
50.52000 -2.060
50.54000 1.960
50.56000 1.754
50.58000 2.219
50.60000 6.675
50.62000 9.316
50.64000 8.314
50.66000 1.442
50.68000 -1.200
50.70000 3.590
50.72000 5.195
50.74000 6.283
50.76000 6.073
50.78000 4.331
50.80000 -0.220
50.82000 1.733
50.84000 1.326
50.86000 1.119
50.88000 1.146
50.90000 4.307
50.92000 -1.220
50.94000 1.510
50.96000 2.069
50.98000 3.029
51.00000 1.530
51.02000 1.658
51.04000 -2.703
51.06000 0.259
51.08000 5.035
51.10000 4.062
51.12000 4.537
51.14000 5.023
51.16000 6.030
51.18000 5.454
51.20000 4.213
51.22000 3.137
51.24000 -0.122
51.26000 2.198
51.28000 1.099
51.30000 5.664
51.32000 1.247
51.34000 0.024
51.36000 2.560
51.38000 2.713
51.40000 4.589
51.42000 3.784
51.44000 4.317
51.46000 5.001
51.48000 4.667
51.50000 3.418
51.52000 -0.301
51.54000 -1.253
51.56000 1.921
51.58000 2.174
51.60000 4.224
51.62000 3.909
51.64000 1.482
51.66000 4.456
51.68000 6.565
51.70000 5.460
51.72000 -0.340
51.74000 -2.527
51.76000 -0.749
51.78000 8.082
51.80000 3.213
51.82000 2.650
51.84000 3.865
51.86000 4.167
51.88000 5.444
51.90000 4.856
51.92000 2.853
51.94000 3.261
51.96000 0.615
51.98000 3.171
52.00000 3.186
52.02000 4.032
52.04000 6.179
52.06000 4.961
52.08000 -1.109
52.10000 -2.196
52.12000 1.301
52.14000 2.203
52.16000 0.220
52.18000 1.203
52.20000 4.793
52.22000 4.807
52.24000 2.020
52.26000 4.059
52.28000 3.194
52.30000 2.742
52.32000 -2.668
52.34000 0.621
52.36000 0.577
52.38000 0.184
52.40000 -0.541
52.42000 1.728
52.44000 0.742
52.46000 1.912
52.48000 1.989
52.50000 1.545
52.52000 1.994
52.54000 5.160
52.56000 5.740
52.58000 0.449
52.60000 -1.959
52.62000 0.274
52.64000 -0.391
52.66000 1.003
52.68000 2.199
52.70000 2.121
52.72000 0.185
52.74000 0.184
52.76000 4.511
52.78000 4.524
52.80000 -0.473
52.82000 -1.098
52.84000 -1.098
52.86000 3.513
52.88000 1.649
52.90000 2.132
52.92000 3.548
52.94000 5.582
52.96000 2.937
52.98000 4.560
53.00000 7.874
53.02000 5.019
53.04000 3.146
53.06000 3.506
53.08000 3.375
53.10000 4.563
53.12000 5.993
53.14000 3.668
53.16000 2.534
53.18000 0.543
53.20000 -2.584
53.22000 -1.463
53.24000 -0.623
53.26000 4.647
53.28000 2.672
53.30000 -0.056
53.32000 3.285
53.34000 2.783
53.36000 3.843
53.38000 7.746
53.40000 5.836
53.42000 6.252
53.44000 4.703
53.46000 5.802
53.48000 3.812
53.50000 4.732
53.52000 5.182
53.54000 3.880
53.56000 2.123
53.58000 4.729
53.60000 3.452
53.62000 -0.533
53.64000 1.845
53.66000 2.160
53.68000 3.418
53.70000 2.177
53.72000 1.224
53.74000 0.599
53.76000 1.793
53.78000 3.229
53.80000 0.942
53.82000 1.928
53.84000 0.470
53.86000 3.567
53.88000 5.223
53.90000 5.821
53.92000 0.681
53.94000 3.681
53.96000 5.158
53.98000 5.385
54.00000 6.486
54.02000 3.933
54.04000 3.756
54.06000 6.653
54.08000 5.978
54.10000 1.142
54.12000 8.099
54.14000 6.861
54.16000 2.030
54.18000 6.883
54.20000 2.905
54.22000 5.219
54.24000 4.728
54.26000 3.932
54.28000 4.976
54.30000 6.780
54.32000 4.839
54.34000 5.049
54.36000 3.902
54.38000 4.431
54.40000 3.091
54.42000 6.554
54.44000 5.574
54.46000 6.683
54.48000 1.734
54.50000 2.046
54.52000 3.724
54.54000 5.337
54.56000 1.418
54.58000 6.263
54.60000 9.637
54.62000 8.278
54.64000 5.561
54.66000 4.174
54.68000 3.609
54.70000 5.160
54.72000 10.156
54.74000 6.186
54.76000 3.359
54.78000 4.279
54.80000 4.350
54.82000 4.455
54.84000 4.056
54.86000 8.128
54.88000 4.662
54.90000 3.242
54.92000 2.816
54.94000 3.558
54.96000 5.871
54.98000 2.467
55.00000 5.567
55.02000 8.221
55.04000 1.315
55.06000 -2.498
55.08000 1.331
55.10000 5.960
55.12000 4.286
55.14000 0.446
55.16000 6.004
55.18000 2.282
55.20000 3.937
55.22000 4.063
55.24000 3.355
55.26000 1.429
55.28000 1.788
55.30000 5.127
55.32000 7.148
55.34000 7.651
55.36000 7.345
55.38000 7.359
55.40000 6.758
55.42000 6.912
55.44000 5.031
55.46000 2.542
55.48000 0.799
55.50000 6.905
55.52000 8.430
55.54000 4.756
55.56000 5.723
55.58000 5.402
55.60000 6.021
55.62000 4.389
55.64000 4.243
55.66000 7.754
55.68000 5.433
55.70000 4.173
55.72000 3.994
55.74000 5.423
55.76000 4.521
55.78000 6.360
55.80000 5.295
55.82000 2.755
55.84000 1.111
55.86000 2.013
55.88000 1.676
55.90000 -0.202
55.92000 0.186
55.94000 1.626
55.96000 4.419
55.98000 3.232
56.00000 -0.036
56.02000 1.062
56.04000 1.448
56.06000 2.659
56.08000 2.726
56.10000 3.194
56.12000 4.413
56.14000 0.948
56.16000 2.156
56.18000 5.931
56.20000 3.724
56.22000 1.275
56.24000 5.190
56.26000 6.633
56.28000 2.516
56.30000 -0.896
56.32000 1.932
56.34000 4.387
56.36000 3.204
56.38000 2.074
56.40000 -0.172
56.42000 4.679
56.44000 7.308
56.46000 1.803
56.48000 3.739
56.50000 5.332
56.52000 -1.119
56.54000 -2.517
56.56000 3.399
56.58000 6.503
56.60000 7.648
56.62000 5.468
56.64000 4.782
56.66000 5.294
56.68000 4.059
56.70000 1.114
56.72000 -0.872
56.74000 2.357
56.76000 1.493
56.78000 0.102
56.80000 4.874
56.82000 5.982
56.84000 4.535
56.86000 -0.200
56.88000 -2.311
56.90000 2.811
56.92000 4.626
56.94000 1.048
56.96000 4.161
56.98000 -0.918
57.00000 -0.803
57.02000 1.492
57.04000 0.823
57.06000 0.172
57.08000 5.330
57.10000 6.215
57.12000 1.454
57.14000 3.312
57.16000 1.889
57.18000 3.025
57.20000 2.227
57.22000 3.596
57.24000 4.666
57.26000 3.719
57.28000 2.146
57.30000 1.362
57.32000 -1.145
57.34000 -0.757
57.36000 3.909
57.38000 0.732
57.40000 -2.510
57.42000 -1.643
57.44000 1.421
57.46000 -2.042
57.48000 -1.557
57.50000 1.543
57.52000 -0.324
57.54000 -1.024
57.56000 3.471
57.58000 4.787
57.60000 2.850
57.62000 1.131
57.64000 1.701
57.66000 4.063
57.68000 1.698
57.70000 0.296
57.72000 0.594
57.74000 1.321
57.76000 2.506
57.78000 2.010
57.80000 3.444
57.82000 6.732
57.84000 4.891
57.86000 2.475
57.88000 0.109
57.90000 0.078
57.92000 0.934
57.94000 0.682
57.96000 -0.323
57.98000 1.112
58.00000 1.817
58.02000 -0.499
58.04000 1.194
58.06000 0.441
58.08000 -0.895
58.10000 -2.497
58.12000 -0.184
58.14000 0.028
58.16000 0.415
58.18000 -0.726
58.20000 1.774
58.22000 0.230
58.24000 -2.440
58.26000 -0.218
58.28000 1.384
58.30000 2.839
58.32000 2.690
58.34000 3.414
58.36000 4.556
58.38000 6.382
58.40000 4.111
58.42000 -2.486
58.44000 -0.578
58.46000 -1.647
58.48000 -0.045
58.50000 1.730
58.52000 1.991
58.54000 0.084
58.56000 3.893
58.58000 1.846
58.60000 2.263
58.62000 2.198
58.64000 0.334
58.66000 -2.411
58.68000 1.773
58.70000 2.348
58.72000 -2.471
58.74000 0.339
58.76000 3.327
58.78000 1.625
58.80000 -0.669
58.82000 -0.347
58.84000 1.126
58.86000 2.035
58.88000 -0.589
58.90000 1.597
58.92000 -2.163
58.94000 -2.085
58.96000 -0.475
58.98000 3.194
59.00000 8.478
59.02000 7.573
59.04000 3.085
59.06000 3.031
59.08000 3.731
59.10000 1.458
59.12000 -0.615
59.14000 1.295
59.16000 4.313
59.18000 3.325
59.20000 4.274
59.22000 5.523
59.24000 2.539
59.26000 2.822
59.28000 3.637
59.30000 1.419
59.32000 5.685
59.34000 8.106
59.36000 3.705
59.38000 0.611
59.40000 4.928
59.42000 5.705
59.44000 1.880
59.46000 3.601
59.48000 -2.435
59.50000 -0.157
59.52000 3.810
59.54000 2.938
59.56000 0.213
59.58000 2.958
59.60000 3.554
59.62000 1.671
59.64000 2.401
59.66000 3.591
59.68000 4.455
59.70000 3.052
59.72000 5.140
59.74000 4.477
59.76000 2.677
59.78000 2.165
59.80000 1.929
59.82000 0.304
59.84000 4.504
59.86000 3.998
59.88000 4.761
59.90000 8.644
59.92000 5.289
59.94000 2.855
59.96000 1.345
59.98000 3.837
60.00000 2.717
60.02000 1.033
60.04000 -0.591
60.06000 -1.734
60.08000 2.611
60.10000 3.674
60.12000 0.927
60.14000 -2.222
60.16000 -0.317
60.18000 1.604
60.20000 3.083
60.22000 -0.937
60.24000 0.066
60.26000 1.921
60.28000 1.383
60.30000 2.688
60.32000 2.176
60.34000 0.474
60.36000 0.992
60.38000 -2.389
60.40000 -0.346
60.42000 1.387
60.44000 0.389
60.46000 3.975
60.48000 1.799
60.50000 0.257
60.52000 0.642
60.54000 0.890
60.56000 2.441
60.58000 3.050
60.60000 1.023
60.62000 2.141
60.64000 3.562
60.66000 7.515
60.68000 3.209
60.70000 1.317
60.72000 4.192
60.74000 0.906
60.76000 -0.954
60.78000 -0.922
60.80000 4.089
60.82000 -0.540
60.84000 5.286
60.86000 7.081
60.88000 8.466
60.90000 4.666
60.92000 3.488
60.94000 3.305
60.96000 -1.330
60.98000 -2.365
61.00000 0.699
61.02000 6.960
61.04000 3.811
61.06000 1.628
61.08000 1.281
61.10000 4.621
61.12000 2.930
61.14000 1.932
61.16000 1.033
61.18000 7.102
61.20000 7.434
61.22000 6.890
61.24000 1.727
61.26000 0.969
61.28000 1.097
61.30000 1.749
61.32000 3.642
61.34000 6.639
61.36000 5.877
61.38000 3.268
61.40000 0.822
61.42000 0.909
61.44000 1.957
61.46000 2.559
61.48000 4.269
61.50000 1.352
61.52000 3.340
61.54000 4.635
61.56000 5.125
61.58000 5.114
61.60000 1.496
61.62000 -2.342
61.64000 1.068
61.66000 1.161
61.68000 1.922
61.70000 5.968
61.72000 7.601
61.74000 6.492
61.76000 3.269
61.78000 2.812
61.80000 2.913
61.82000 3.870
61.84000 0.989
61.86000 2.301
61.88000 2.196
61.90000 5.774
61.92000 5.279
61.94000 5.572
61.96000 4.111
61.98000 5.261
62.00000 5.615
62.02000 5.194
62.04000 0.564
62.06000 1.099
62.08000 5.792
62.10000 3.181
62.12000 2.198
62.14000 2.977
62.16000 -0.456
62.18000 4.451
62.20000 3.148
62.22000 3.776
62.24000 5.872
62.26000 5.452
62.28000 6.295
62.30000 4.545
62.32000 4.313
62.34000 4.327
62.36000 1.795
62.38000 8.081
62.40000 5.592
62.42000 1.258
62.44000 0.948
62.46000 1.553
62.48000 2.044
62.50000 2.398
62.52000 0.076
62.54000 6.322
62.56000 7.199
62.58000 1.973
62.60000 3.928
62.62000 3.566
62.64000 1.637
62.66000 0.325
62.68000 6.591
62.70000 7.211
62.72000 5.302
62.74000 4.979
62.76000 -2.327
62.78000 2.083
62.80000 2.507
62.82000 5.702
62.84000 5.171
62.86000 2.458
62.88000 2.595
62.90000 2.166
62.92000 -0.044
62.94000 -1.480
62.96000 0.136
62.98000 1.561
63.00000 2.188
63.02000 5.041
63.04000 3.691
63.06000 5.127
63.08000 5.424
63.10000 3.736
63.12000 1.825
63.14000 0.279
63.16000 0.882
63.18000 1.118
63.20000 2.108
63.22000 1.932
63.24000 1.549
63.26000 0.333
63.28000 1.567
63.30000 0.885
63.32000 0.704
63.34000 3.621
63.36000 4.732
63.38000 3.747
63.40000 1.332
63.42000 -1.527
63.44000 1.496
63.46000 2.094
63.48000 0.658
63.50000 -0.895
63.52000 -1.975
63.54000 -0.950
63.56000 1.350
63.58000 -1.770
63.60000 1.423
63.62000 3.202
63.64000 4.898
63.66000 -0.158
63.68000 0.884
63.70000 3.644
63.72000 4.517
63.74000 2.034
63.76000 -2.359
63.78000 0.219
63.80000 2.654
63.82000 3.443
63.84000 4.940
63.86000 3.149
63.88000 -0.198
63.90000 3.498
63.92000 5.905
63.94000 1.837
63.96000 0.099
63.98000 1.897
64.00000 0.814
64.02000 -0.214
64.04000 1.219
64.06000 0.328
64.08000 -0.698
64.10000 -0.519
64.12000 3.414
64.14000 3.797
64.16000 3.218
64.18000 -1.330
64.20000 -2.354
64.22000 0.600
64.24000 1.001
64.26000 1.803
64.28000 1.941
64.30000 2.161
64.32000 1.380
64.34000 2.490
64.36000 2.838
64.38000 1.780
64.40000 0.903
64.42000 2.090
64.44000 3.290
64.46000 3.298
64.48000 0.558
64.50000 -0.520
64.52000 0.315
64.54000 1.035
64.56000 -0.307
64.58000 -1.131
64.60000 1.595
64.62000 3.563
64.64000 0.756
64.66000 0.253
64.68000 3.102
64.70000 1.836
64.72000 -0.095
64.74000 0.559
64.76000 -0.128
64.78000 0.324
64.80000 2.056
64.82000 5.022
64.84000 1.181
64.86000 -0.223
64.88000 -0.694
64.90000 -1.174
64.92000 1.545
64.94000 3.052
64.96000 0.996
64.98000 0.188
65.00000 -1.131
65.02000 -0.974
65.04000 0.975
65.06000 2.883
65.08000 1.308
65.10000 3.743
65.12000 3.176
65.14000 3.230
65.16000 1.798
65.18000 0.243
65.20000 4.446
65.22000 2.616
65.24000 1.339
65.26000 2.932
65.28000 1.795
65.30000 -1.287
65.32000 -1.880
65.34000 2.959
65.36000 0.490
65.38000 -2.361
65.40000 -1.422
65.42000 2.380
65.44000 4.321
65.46000 2.059
65.48000 0.593
65.50000 1.407
65.52000 2.863
65.54000 2.435
65.56000 2.507
65.58000 -1.381
65.60000 2.927
65.62000 4.971
65.64000 1.993
65.66000 -0.967
65.68000 -0.907
65.70000 3.346
65.72000 -0.166
65.74000 1.486
65.76000 1.391
65.78000 0.966
65.80000 0.788
65.82000 1.907
65.84000 3.691
65.86000 0.770
65.88000 -0.558
65.90000 -0.375
65.92000 -1.784
65.94000 2.245
65.96000 2.446
65.98000 -0.434
66.00000 -1.124
66.02000 -2.375
66.04000 -2.376
66.06000 1.730
66.08000 3.780
66.10000 2.745
66.12000 0.673
66.14000 0.405
66.16000 -0.945
66.18000 -2.098
66.20000 -2.240
66.22000 -0.784
66.24000 -0.974
66.26000 1.084
66.28000 1.599
66.30000 1.918
66.32000 1.338
66.34000 -2.036
66.36000 -0.310
66.38000 1.638
66.40000 4.245
66.42000 2.869
66.44000 -0.749
66.46000 0.208
66.48000 2.232
66.50000 1.869
66.52000 2.024
66.54000 0.503
66.56000 -1.736
66.58000 -2.097
66.60000 -0.901
66.62000 1.557
66.64000 -0.946
66.66000 -0.255
66.68000 -1.209
66.70000 -1.791
66.72000 -0.219
66.74000 4.023
66.76000 1.667
66.78000 -0.999
66.80000 1.253
66.82000 -0.409
66.84000 -1.102
66.86000 -0.556
66.88000 -2.381
66.90000 0.806
66.92000 4.252
66.94000 2.797
66.96000 0.421
66.98000 -2.360
67.00000 0.040
67.02000 1.161
67.04000 0.148
67.06000 -0.115
67.08000 0.544
67.10000 -0.592
67.12000 1.025
67.14000 0.720
67.16000 -1.609
67.18000 0.436
67.20000 -1.297
67.22000 3.012
67.24000 3.539
67.26000 2.336
67.28000 5.162
67.30000 2.797
67.32000 4.657
67.34000 3.849
67.36000 4.386
67.38000 2.722
67.40000 2.933
67.42000 -0.333
67.44000 -0.090
67.46000 0.090
67.48000 -0.130
67.50000 0.947
67.52000 1.422
67.54000 0.958
67.56000 0.236
67.58000 -0.366
67.60000 0.489
67.62000 2.003
67.64000 -1.076
67.66000 -0.455
67.68000 2.003
67.70000 -0.734
67.72000 1.920
67.74000 2.449
67.76000 0.542
67.78000 0.062
67.80000 0.596
67.82000 1.721
67.84000 -2.439
67.86000 0.846
67.88000 3.868
67.90000 4.178
67.92000 6.008
67.94000 4.887
67.96000 1.055
67.98000 1.025
68.00000 3.627
68.02000 6.514
68.04000 4.081
68.06000 4.425
68.08000 4.347
68.10000 7.400
68.12000 7.027
68.14000 7.869
68.16000 4.348
68.18000 3.497
68.20000 4.043
68.22000 6.669
68.24000 7.262
68.26000 9.150
68.28000 13.325
68.30000 6.391
68.32000 8.942
68.34000 12.448
68.36000 12.209
68.38000 9.981
68.40000 9.605
68.42000 9.409
68.44000 9.951
68.46000 12.216
68.48000 12.356
68.50000 11.032
68.52000 14.230
68.54000 15.981
68.56000 14.274
68.58000 15.820
68.60000 13.757
68.62000 15.491
68.64000 14.220
68.66000 16.984
68.68000 18.298
68.70000 17.133
68.72000 18.279
68.74000 18.214
68.76000 21.889
68.78000 22.037
68.80000 21.802
68.82000 24.005
68.84000 21.680
68.86000 22.880
68.88000 24.531
68.90000 27.627
68.92000 23.615
68.94000 21.321
68.96000 23.249
68.98000 23.777
69.00000 24.307
69.02000 18.723
69.04000 21.152
69.06000 21.756
69.08000 23.419
69.10000 22.323
69.12000 20.955
69.14000 22.566
69.16000 22.588
69.18000 16.371
69.20000 14.982
69.22000 14.500
69.24000 15.354
69.26000 22.916
69.28000 21.697
69.30000 16.260
69.32000 17.631
69.34000 16.850
69.36000 15.167
69.38000 14.279
69.40000 10.147
69.42000 11.546
69.44000 11.310
69.46000 11.180
69.48000 9.527
69.50000 11.809
69.52000 15.563
69.54000 10.560
69.56000 9.409
69.58000 9.036
69.60000 9.635
69.62000 9.341
69.64000 11.657
69.66000 8.112
69.68000 3.887
69.70000 4.057
69.72000 5.664
69.74000 9.597
69.76000 6.117
69.78000 6.944
69.80000 6.824
69.82000 2.473
69.84000 2.717
69.86000 3.431
69.88000 0.411
69.90000 3.709
69.92000 4.753
69.94000 5.728
69.96000 5.563
69.98000 5.845
70.00000 5.414
70.02000 4.355
70.04000 1.748
70.06000 2.512
70.08000 3.335
70.10000 3.465
70.12000 5.587
70.14000 2.672
70.16000 1.494
70.18000 1.095
70.20000 -2.363
70.22000 -0.966
70.24000 -0.141
70.26000 2.689
70.28000 0.120
70.30000 1.608
70.32000 5.798
70.34000 7.878
70.36000 4.671
70.38000 4.058
70.40000 1.423
70.42000 1.557
70.44000 2.507
70.46000 1.139
70.48000 3.949
70.50000 2.593
70.52000 0.974
70.54000 3.280
70.56000 4.100
70.58000 5.713
70.60000 6.170
70.62000 5.161
70.64000 0.652
70.66000 6.339
70.68000 5.015
70.70000 1.698
70.72000 2.901
70.74000 2.447
70.76000 3.694
70.78000 4.769
70.80000 3.399
70.82000 5.183
70.84000 -0.457
70.86000 -2.270
70.88000 -0.051
70.90000 2.294
70.92000 0.699
70.94000 1.358
70.96000 0.882
70.98000 1.865
71.00000 4.505
71.02000 4.584
71.04000 5.291
71.06000 2.894
71.08000 -0.598
71.10000 1.859
71.12000 6.279
71.14000 3.087
71.16000 2.270
71.18000 3.748
71.20000 0.403
71.22000 1.963
71.24000 -0.076
71.26000 -0.204
71.28000 1.548
71.30000 3.615
71.32000 0.376
71.34000 0.923
71.36000 2.100
71.38000 2.530
71.40000 1.386
71.42000 -2.249
71.44000 3.416
71.46000 6.657
71.48000 4.980
71.50000 2.086
71.52000 3.313
71.54000 2.339
71.56000 2.621
71.58000 1.508
71.60000 -2.244
71.62000 -1.678
71.64000 0.345
71.66000 2.263
71.68000 3.558
71.70000 5.959
71.72000 2.285
71.74000 -0.150
71.76000 3.414
71.78000 6.281
71.80000 -1.735
71.82000 -0.928
71.84000 0.700
71.86000 2.127
71.88000 2.800
71.90000 4.013
71.92000 -0.094
71.94000 -1.232
71.96000 -0.836
71.98000 1.637
72.00000 2.621
72.02000 1.908
72.04000 0.060
72.06000 -0.247
72.08000 1.328
72.10000 1.129
72.12000 3.496
72.14000 7.277
72.16000 8.474
72.18000 5.695
72.20000 3.357
72.22000 1.230
72.24000 2.289
72.26000 2.928
72.28000 3.119
72.30000 -0.691
72.32000 2.427
72.34000 0.604
72.36000 1.485
72.38000 3.865
72.40000 1.141
72.42000 -0.181
72.44000 -0.266
72.46000 2.239
72.48000 2.262
72.50000 2.019
72.52000 2.362
72.54000 0.324
72.56000 1.232
72.58000 5.821
72.60000 5.341
72.62000 4.441
72.64000 2.571
72.66000 3.735
72.68000 0.596
72.70000 1.653
72.72000 6.840
72.74000 9.635
72.76000 6.507
72.78000 1.866
72.80000 0.278
72.82000 -0.295
72.84000 3.169
72.86000 3.442
72.88000 4.172
72.90000 1.347
72.92000 2.135
72.94000 2.697
72.96000 -0.416
72.98000 1.116
73.00000 4.196
73.02000 4.164
73.04000 5.521
73.06000 4.170
73.08000 5.955
73.10000 3.742
73.12000 8.046
73.14000 11.478
73.16000 3.785
73.18000 0.920
73.20000 0.421
73.22000 3.545
73.24000 2.705
73.26000 3.704
73.28000 0.607
73.30000 -2.120
73.32000 4.141
73.34000 6.449
73.36000 8.381
73.38000 7.673
73.40000 9.105
73.42000 6.216
73.44000 5.580
73.46000 5.922
73.48000 4.136
73.50000 7.016
73.52000 8.267
73.54000 4.851
73.56000 7.114
73.58000 4.681
73.60000 6.286
73.62000 6.445
73.64000 4.553
73.66000 2.889
73.68000 1.924
73.70000 6.571
73.72000 2.694
73.74000 1.770
73.76000 4.484
73.78000 3.693
73.80000 -0.027
73.82000 -1.557
73.84000 -2.083
73.86000 2.489
73.88000 6.146
73.90000 4.087
73.92000 3.232
73.94000 3.508
73.96000 3.731
73.98000 5.410
74.00000 7.425
74.02000 0.110
74.04000 -2.138
74.06000 -0.960
74.08000 3.122
74.10000 3.459
74.12000 3.906
74.14000 5.381
74.16000 3.699
74.18000 2.355
74.20000 5.114
74.22000 5.833
74.24000 5.317
74.26000 6.486
74.28000 5.160
74.30000 4.212
74.32000 3.501
74.34000 6.377
74.36000 4.186
74.38000 1.345
74.40000 2.205
74.42000 4.271
74.44000 5.014
74.46000 0.874
74.48000 3.010
74.50000 7.432
74.52000 6.870
74.54000 1.846
74.56000 4.894
74.58000 3.098
74.60000 -1.181
74.62000 0.614
74.64000 5.730
74.66000 3.811
74.68000 2.109
74.70000 1.516
74.72000 3.521
74.74000 5.153
74.76000 3.925
74.78000 -0.061
74.80000 3.222
74.82000 2.549
74.84000 5.338
74.86000 4.856
74.88000 2.102
74.90000 1.657
74.92000 0.080
74.94000 -2.187
74.96000 1.062
74.98000 4.341
75.00000 4.232
75.02000 4.316
75.04000 -0.946
75.06000 -2.191
75.08000 -1.820
75.10000 4.989
75.12000 1.726
75.14000 1.039
75.16000 3.654
75.18000 1.085
75.20000 0.283
75.22000 2.547
75.24000 3.493
75.26000 -0.955
75.28000 4.281
75.30000 3.436
75.32000 -0.393
75.34000 3.004
75.36000 -0.048
75.38000 1.363
75.40000 7.414
75.42000 1.596
75.44000 0.211
75.46000 -0.031
75.48000 1.445
75.50000 1.379
75.52000 1.979
75.54000 0.798
75.56000 2.769
75.58000 2.834
75.60000 -0.686
75.62000 -0.751
75.64000 0.678
75.66000 -1.793
75.68000 -1.312
75.70000 -1.712
75.72000 1.698
75.74000 4.694
75.76000 1.605
75.78000 2.064
75.80000 2.921
75.82000 2.505
75.84000 0.546
75.86000 -0.501
75.88000 4.768
75.90000 6.503
75.92000 4.365
75.94000 4.851
75.96000 7.964
75.98000 3.271
76.00000 -0.396
76.02000 1.657
76.04000 1.041
76.06000 1.133
76.08000 2.185
76.10000 -1.040
76.12000 -2.187
76.14000 -0.519
76.16000 2.461
76.18000 0.922
76.20000 1.104
76.22000 2.626
76.24000 3.651
76.26000 4.668
76.28000 4.174
76.30000 1.366
76.32000 1.832
76.34000 2.270
76.36000 1.340
76.38000 -1.562
76.40000 2.473
76.42000 2.735
76.44000 1.586
76.46000 3.179
76.48000 1.063
76.50000 1.759
76.52000 0.523
76.54000 0.419
76.56000 0.440
76.58000 1.400
76.60000 6.430
76.62000 5.818
76.64000 0.675
76.66000 -1.005
76.68000 4.872
76.70000 3.100
76.72000 7.169
76.74000 2.227
76.76000 -0.445
76.78000 0.617
76.80000 2.430
76.82000 1.155
76.84000 -1.194
76.86000 3.778
76.88000 2.038
76.90000 1.222
76.92000 2.482
76.94000 -2.195
76.96000 -1.959
76.98000 4.751
77.00000 8.742
77.02000 3.826
77.04000 3.171
77.06000 3.990
77.08000 3.927
77.10000 1.435
77.12000 1.428
77.14000 0.141
77.16000 0.133
77.18000 4.730
77.20000 2.537
77.22000 2.200
77.24000 2.309
77.26000 2.944
77.28000 -2.186
77.30000 -1.214
77.32000 3.782
77.34000 2.935
77.36000 5.101
77.38000 2.983
77.40000 1.583
77.42000 -1.377
77.44000 2.142
77.46000 4.088
77.48000 0.447
77.50000 4.578
77.52000 7.623
77.54000 4.275
77.56000 4.223
77.58000 3.795
77.60000 4.072
77.62000 3.963
77.64000 0.635
77.66000 1.999
77.68000 0.404
77.70000 2.245
77.72000 4.662
77.74000 1.003
77.76000 -0.598
77.78000 -2.173
77.80000 0.813
77.82000 4.820
77.84000 3.406
77.86000 5.465
77.88000 5.096
77.90000 3.698
77.92000 3.429
77.94000 2.462
77.96000 1.208
77.98000 5.787
78.00000 3.803
78.02000 1.727
78.04000 3.902
78.06000 6.890
78.08000 4.020
78.10000 4.325
78.12000 0.931
78.14000 4.321
78.16000 5.379
78.18000 4.819
78.20000 2.954
78.22000 3.676
78.24000 2.466
78.26000 2.951
78.28000 0.103
78.30000 0.888
78.32000 1.671
78.34000 2.489
78.36000 1.668
78.38000 3.059
78.40000 1.292
78.42000 2.428
78.44000 2.886
78.46000 0.910
78.48000 1.548
78.50000 5.142
78.52000 6.772
78.54000 7.448
78.56000 2.588
78.58000 2.744
78.60000 -1.504
78.62000 -2.216
78.64000 -1.465
78.66000 0.541
78.68000 -0.373
78.70000 -0.391
78.72000 2.500
78.74000 2.301
78.76000 0.821
78.78000 1.756
78.80000 4.887
78.82000 2.946
78.84000 5.244
78.86000 5.630
78.88000 6.384
78.90000 4.146
78.92000 6.407
78.94000 4.914
78.96000 5.056
78.98000 2.458
79.00000 1.931
79.02000 2.927
79.04000 2.365
79.06000 0.661
79.08000 1.809
79.10000 5.770
79.12000 3.882
79.14000 6.756
79.16000 4.361
79.18000 2.535
79.20000 2.950
79.22000 6.756
79.24000 8.248
79.26000 4.617
79.28000 4.009
79.30000 3.918
79.32000 4.938
79.34000 6.939
79.36000 1.357
79.38000 -0.701
79.40000 4.598
79.42000 3.224
79.44000 -0.012
79.46000 -2.212
79.48000 3.123
79.50000 5.405
79.52000 1.918
79.54000 5.326
79.56000 3.292
79.58000 2.342
79.60000 3.198
79.62000 3.565
79.64000 2.126
79.66000 -1.602
79.68000 1.923
79.70000 0.830
79.72000 1.530
79.74000 1.104
79.76000 2.817
79.78000 2.613
79.80000 2.633
79.82000 0.790
79.84000 3.633
79.86000 0.762
79.88000 3.286
79.90000 1.997
79.92000 2.049
79.94000 2.930
79.96000 4.738
79.98000 5.717
80.00000 4.806
80.02000 3.586
80.04000 1.705
80.06000 0.744
80.08000 0.938
80.10000 1.800
80.12000 -0.104
80.14000 -1.265
80.16000 1.840
80.18000 3.752
80.20000 2.897
80.22000 0.866
80.24000 1.030
80.26000 -0.048
80.28000 3.579
80.30000 4.446
80.32000 -0.807
80.34000 -1.095
80.36000 -0.079
80.38000 0.309
80.40000 4.314
80.42000 6.393
80.44000 3.478
80.46000 -2.255
80.48000 -0.212
80.50000 -1.244
80.52000 -0.374
80.54000 5.644
80.56000 4.609
80.58000 2.955
80.60000 -0.597
80.62000 1.866
80.64000 2.246
80.66000 3.336
80.68000 2.427
80.70000 7.414
80.72000 0.822
80.74000 5.444
80.76000 1.368
80.78000 1.852
80.80000 5.108
80.82000 6.043
80.84000 3.636
80.86000 0.927
80.88000 2.399
80.90000 4.634
80.92000 -1.211
80.94000 0.167
80.96000 5.800
80.98000 4.033
81.00000 2.265
81.02000 2.050
81.04000 2.309
81.06000 1.940
81.08000 3.668
81.10000 0.861
81.12000 -0.203
81.14000 1.738
81.16000 3.397
81.18000 0.456
81.20000 -1.887
81.22000 -0.791
81.24000 3.403
81.26000 5.270
81.28000 7.042
81.30000 1.166
81.32000 -2.312
81.34000 -0.056
81.36000 1.105
81.38000 2.860
81.40000 3.253
81.42000 -0.018
81.44000 1.330
81.46000 -0.766
81.48000 -2.331
81.50000 0.448
81.52000 3.459
81.54000 8.454
81.56000 6.115
81.58000 5.806
81.60000 4.384
81.62000 2.727
81.64000 4.426
81.66000 5.466
81.68000 4.298
81.70000 6.408
81.72000 4.877
81.74000 3.629
81.76000 3.523
81.78000 4.269
81.80000 5.314
81.82000 3.822
81.84000 6.634
81.86000 0.777
81.88000 1.335
81.90000 3.799
81.92000 3.303
81.94000 3.318
81.96000 1.301
81.98000 1.187
82.00000 2.303
82.02000 9.608
82.04000 8.631
82.06000 5.292
82.08000 7.166
82.10000 7.311
82.12000 8.627
82.14000 7.400
82.16000 6.725
82.18000 9.265
82.20000 6.078
82.22000 9.871
82.24000 8.190
82.26000 7.054
82.28000 6.298
82.30000 10.633
82.32000 15.707
82.34000 14.791
82.36000 13.645
82.38000 11.224
82.40000 11.038
82.42000 15.914
82.44000 17.428
82.46000 16.346
82.48000 14.667
82.50000 9.964
82.52000 10.757
82.54000 11.597
82.56000 13.038
82.58000 18.897
82.60000 20.306
82.62000 20.250
82.64000 20.940
82.66000 22.672
82.68000 22.254
82.70000 22.076
82.72000 15.533
82.74000 16.987
82.76000 16.810
82.78000 20.635
82.80000 16.642
82.82000 18.375
82.84000 20.926
82.86000 24.059
82.88000 27.598
82.90000 25.832
82.92000 26.131
82.94000 25.674
82.96000 29.185
82.98000 29.511
83.00000 27.469
83.02000 27.510
83.04000 24.927
83.06000 25.245
83.08000 25.310
83.10000 25.840
83.12000 30.619
83.14000 34.507
83.16000 34.786
83.18000 35.463
83.20000 36.924
83.22000 39.697
83.24000 35.678
83.26000 35.064
83.28000 31.523
83.30000 31.882
83.32000 32.651
83.34000 32.638
83.36000 28.561
83.38000 25.579
83.40000 26.814
83.42000 29.460
83.44000 33.157
83.46000 29.225
83.48000 28.063
83.50000 25.929
83.52000 25.507
83.54000 26.751
83.56000 26.738
83.58000 27.736
83.60000 23.777
83.62000 26.356
83.64000 28.843
83.66000 29.110
83.68000 27.737
83.70000 23.045
83.72000 19.559
83.74000 21.923
83.76000 25.371
83.78000 21.380
83.80000 19.915
83.82000 20.210
83.84000 21.598
83.86000 21.446
83.88000 21.268
83.90000 18.533
83.92000 17.786
83.94000 16.757
83.96000 21.244
83.98000 17.861
84.00000 17.053
84.02000 17.719
84.04000 17.218
84.06000 18.334
84.08000 15.617
84.10000 12.219
84.12000 9.526
84.14000 9.887
84.16000 13.793
84.18000 10.768
84.20000 10.297
84.22000 13.857
84.24000 12.216
84.26000 7.927
84.28000 10.621
84.30000 9.158
84.32000 9.051
84.34000 6.759
84.36000 5.532
84.38000 8.096
84.40000 11.119
84.42000 10.153
84.44000 8.815
84.46000 6.149
84.48000 3.298
84.50000 0.965
84.52000 2.532
84.54000 4.900
84.56000 5.314
84.58000 5.255
84.60000 6.065
84.62000 4.641
84.64000 5.888
84.66000 8.019
84.68000 7.870
84.70000 2.838
84.72000 4.730
84.74000 3.326
84.76000 4.462
84.78000 4.193
84.80000 9.295
84.82000 5.258
84.84000 6.203
84.86000 3.320
84.88000 5.115
84.90000 5.095
84.92000 0.423
84.94000 2.256
84.96000 2.348
84.98000 4.531
85.00000 4.777
85.02000 5.347
85.04000 0.571
85.06000 -2.259
85.08000 1.145
85.10000 5.519
85.12000 3.800
85.14000 1.926
85.16000 2.381
85.18000 2.328
85.20000 3.619
85.22000 0.733
85.24000 -1.365
85.26000 -0.482
85.28000 2.630
85.30000 4.349
85.32000 1.554
85.34000 -2.068
85.36000 0.729
85.38000 1.329
85.40000 5.208
85.42000 3.469
85.44000 5.987
85.46000 5.136
85.48000 3.317
85.50000 1.807
85.52000 6.238
85.54000 3.690
85.56000 8.140
85.58000 7.890
85.60000 1.748
85.62000 -2.243
85.64000 -1.107
85.66000 1.823
85.68000 1.383
85.70000 2.262
85.72000 2.313
85.74000 3.632
85.76000 0.740
85.78000 3.168
85.80000 4.141
85.82000 0.341
85.84000 1.394
85.86000 4.532
85.88000 6.788
85.90000 2.826
85.92000 2.356
85.94000 3.740
85.96000 3.688
85.98000 1.883
86.00000 2.115
86.02000 1.074
86.04000 5.685
86.06000 3.438
86.08000 2.348
86.10000 1.960
86.12000 2.441
86.14000 4.162
86.16000 1.676
86.18000 2.256
86.20000 4.779
86.22000 1.323
86.24000 2.793
86.26000 4.366
86.28000 2.804
86.30000 2.406
86.32000 0.349
86.34000 2.941
86.36000 5.220
86.38000 1.010
86.40000 -2.241
86.42000 2.029
86.44000 4.450
86.46000 6.714
86.48000 6.500
86.50000 3.354
86.52000 3.494
86.54000 8.776
86.56000 9.185
86.58000 6.790
86.60000 1.706
86.62000 5.312
86.64000 6.301
86.66000 7.312
86.68000 6.859
86.70000 4.474
86.72000 7.273
86.74000 9.659
86.76000 8.326
86.78000 6.329
86.80000 5.793
86.82000 10.560
86.84000 9.556
86.86000 7.807
86.88000 5.628
86.90000 3.676
86.92000 3.157
86.94000 5.637
86.96000 9.138
86.98000 9.163
87.00000 6.508
87.02000 7.124
87.04000 7.533
87.06000 11.623
87.08000 13.177
87.10000 14.450
87.12000 14.848
87.14000 17.090
87.16000 15.828
87.18000 15.606
87.20000 13.969
87.22000 10.376
87.24000 9.419
87.26000 11.441
87.28000 16.372
87.30000 12.764
87.32000 9.966
87.34000 10.281
87.36000 12.202
87.38000 13.994
87.40000 13.667
87.42000 16.661
87.44000 20.098
87.46000 16.872
87.48000 19.584
87.50000 18.243
87.52000 19.253
87.54000 18.011
87.56000 16.833
87.58000 16.506
87.60000 18.418
87.62000 20.725
87.64000 21.941
87.66000 22.776
87.68000 19.401
87.70000 16.593
87.72000 17.685
87.74000 20.644
87.76000 21.987
87.78000 21.878
87.80000 19.856
87.82000 21.352
87.84000 18.003
87.86000 17.821
87.88000 19.708
87.90000 20.427
87.92000 18.984
87.94000 18.496
87.96000 18.936
87.98000 16.078
88.00000 18.246
88.02000 20.326
88.04000 20.918
88.06000 22.717
88.08000 22.203
88.10000 17.638
88.12000 15.438
88.14000 14.267
88.16000 10.692
88.18000 13.159
88.20000 12.924
88.22000 15.168
88.24000 11.804
88.26000 11.979
88.28000 12.988
88.30000 13.368
88.32000 14.155
88.34000 17.878
88.36000 18.162
88.38000 12.926
88.40000 15.623
88.42000 11.162
88.44000 11.326
88.46000 8.367
88.48000 8.588
88.50000 8.060
88.52000 11.843
88.54000 12.443
88.56000 6.742
88.58000 5.695
88.60000 3.057
88.62000 4.476
88.64000 6.365
88.66000 4.154
88.68000 4.033
88.70000 6.939
88.72000 3.448
88.74000 0.606
88.76000 0.369
88.78000 5.801
88.80000 5.954
88.82000 8.324
88.84000 7.970
88.86000 7.063
88.88000 6.457
88.90000 6.671
88.92000 7.424
88.94000 3.588
88.96000 3.873
88.98000 9.263
89.00000 6.679
89.02000 5.170
89.04000 2.597
89.06000 1.394
89.08000 3.089
89.10000 1.142
89.12000 1.062
89.14000 3.403
89.16000 7.514
89.18000 7.434
89.20000 1.626
89.22000 3.642
89.24000 10.215
89.26000 7.006
89.28000 3.831
89.30000 6.663
89.32000 4.096
89.34000 2.010
89.36000 1.006
89.38000 3.393
89.40000 9.200
89.42000 8.239
89.44000 4.453
89.46000 5.585
89.48000 2.541
89.50000 -0.256
89.52000 2.881
89.54000 1.808
89.56000 0.534
89.58000 -2.078
89.60000 4.751
89.62000 3.643
89.64000 1.954
89.66000 3.160
89.68000 1.245
89.70000 0.535
89.72000 0.966
89.74000 2.662
89.76000 6.574
89.78000 5.192
89.80000 2.291
89.82000 4.210
89.84000 5.260
89.86000 1.313
89.88000 5.139
89.90000 4.416
89.92000 4.430
89.94000 4.414
89.96000 6.832
89.98000 6.216
90.00000 2.387
90.02000 0.861
90.04000 2.209
90.06000 3.888
90.08000 3.907
90.10000 1.393
90.12000 -0.054
90.14000 -1.199
90.16000 1.263
90.18000 4.064
90.20000 3.581
90.22000 2.416
90.24000 0.720
90.26000 -1.727
90.28000 -0.579
90.30000 -0.110
90.32000 -0.358
90.34000 0.820
90.36000 1.706
90.38000 2.035
90.40000 -0.243
90.42000 2.927
90.44000 4.109
90.46000 1.006
90.48000 -1.719
90.50000 0.599
90.52000 2.415
90.54000 3.936
90.56000 3.123
90.58000 3.540
90.60000 1.465
90.62000 -1.877
90.64000 -0.437
90.66000 3.993
90.68000 1.713
90.70000 -0.091
90.72000 2.319
90.74000 3.524
90.76000 -2.107
90.78000 -0.871
90.80000 1.106
90.82000 2.760
90.84000 -0.516
90.86000 -1.326
90.88000 -0.073
90.90000 -0.812
90.92000 1.113
90.94000 3.267
90.96000 1.093
90.98000 1.549
91.00000 2.647
91.02000 1.058
91.04000 1.251
91.06000 1.145
91.08000 1.939
91.10000 1.449
91.12000 0.764
91.14000 1.661
91.16000 1.524
91.18000 0.652
91.20000 -1.417
91.22000 -2.095
91.24000 0.320
91.26000 2.148
91.28000 1.197
91.30000 6.381
91.32000 7.609
91.34000 2.978
91.36000 -1.637
91.38000 0.166
91.40000 -1.021
91.42000 -0.060
91.44000 1.075
91.46000 0.927
91.48000 6.143
91.50000 4.718
91.52000 2.972
91.54000 2.953
91.56000 5.561
91.58000 -0.210
91.60000 -2.086
91.62000 -0.851
91.64000 2.825
91.66000 2.803
91.68000 4.339
91.70000 3.166
91.72000 1.903
91.74000 -1.962
91.76000 -1.012
91.78000 -1.080
91.80000 -2.093
91.82000 -1.003
91.84000 3.357
91.86000 1.359
91.88000 1.801
91.90000 2.530
91.92000 2.935
91.94000 0.574
91.96000 -0.807
91.98000 0.873
92.00000 0.865
92.02000 2.500
92.04000 2.816
92.06000 3.458
92.08000 0.443
92.10000 3.815
92.12000 1.831
92.14000 0.905
92.16000 -1.364
92.18000 0.432
92.20000 1.139
92.22000 -0.375
92.24000 -1.547
92.26000 0.214
92.28000 5.501
92.30000 6.555
92.32000 1.838
92.34000 2.897
92.36000 5.591
92.38000 -1.412
92.40000 2.948
92.42000 1.106
92.44000 0.340
92.46000 -0.987
92.48000 2.329
92.50000 5.413
92.52000 3.522
92.54000 -0.010
92.56000 2.507
92.58000 1.544
92.60000 -1.388
92.62000 2.022
92.64000 3.457
92.66000 -0.826
92.68000 -1.996
92.70000 -1.448
92.72000 3.470
92.74000 2.974
92.76000 4.552
92.78000 2.395
92.80000 4.045
92.82000 0.823
92.84000 -0.941
92.86000 2.569
92.88000 2.952
92.90000 3.611
92.92000 3.363
92.94000 3.868
92.96000 4.164
92.98000 2.507
93.00000 3.618
93.02000 2.885
93.04000 2.190
93.06000 1.247
93.08000 0.647
93.10000 6.402
93.12000 6.000
93.14000 1.111
93.16000 3.370
93.18000 4.591
93.20000 3.719
93.22000 5.434
93.24000 8.539
93.26000 11.016
93.28000 4.849
93.30000 0.067
93.32000 -2.053
93.34000 -1.804
93.36000 -0.790
93.38000 3.521
93.40000 3.615
93.42000 -0.340
93.44000 -0.905
93.46000 5.555
93.48000 4.994
93.50000 5.505
93.52000 7.101
93.54000 4.790
93.56000 5.179
93.58000 4.291
93.60000 4.573
93.62000 4.293
93.64000 5.319
93.66000 2.640
93.68000 -2.052
93.70000 0.385
93.72000 0.190
93.74000 6.353
93.76000 13.119
93.78000 4.786
93.80000 0.241
93.82000 4.881
93.84000 5.813
93.86000 4.598
93.88000 -0.655
93.90000 -1.213
93.92000 1.666
93.94000 3.794
93.96000 0.792
93.98000 3.850
94.00000 7.618
94.02000 4.800
94.04000 4.531
94.06000 3.239
94.08000 2.404
94.10000 6.172
94.12000 7.658
94.14000 7.529
94.16000 4.452
94.18000 3.224
94.20000 4.610
94.22000 2.995
94.24000 2.374
94.26000 1.197
94.28000 1.328
94.30000 1.681
94.32000 2.455
94.34000 2.724
94.36000 4.592
94.38000 3.829
94.40000 1.953
94.42000 0.655
94.44000 1.429
94.46000 7.596
94.48000 4.805
94.50000 3.663
94.52000 2.536
94.54000 4.564
94.56000 3.343
94.58000 2.996
94.60000 1.636
94.62000 6.891
94.64000 -0.791
94.66000 0.128
94.68000 3.908
94.70000 3.083
94.72000 0.988
94.74000 3.756
94.76000 4.651
94.78000 1.337
94.80000 -0.175
94.82000 2.940
94.84000 4.515
94.86000 6.568
94.88000 5.785
94.90000 3.209
94.92000 5.476
94.94000 -1.318
94.96000 1.083
94.98000 7.507
95.00000 5.857
95.02000 1.047
95.04000 1.258
95.06000 5.064
95.08000 8.254
95.10000 4.273
95.12000 4.775
95.14000 7.515
95.16000 6.191
95.18000 4.299
95.20000 5.425
95.22000 1.701
95.24000 2.311
95.26000 6.770
95.28000 5.527
95.30000 2.464
95.32000 4.470
95.34000 6.550
95.36000 6.702
95.38000 3.121
95.40000 5.593
95.42000 1.394
95.44000 0.995
95.46000 6.509
95.48000 8.012
95.50000 7.416
95.52000 6.619
95.54000 4.052
95.56000 3.470
95.58000 5.823
95.60000 5.764
95.62000 -1.385
95.64000 -2.074
95.66000 -0.768
95.68000 2.242
95.70000 5.790
95.72000 5.627
95.74000 5.360
95.76000 1.003
95.78000 4.674
95.80000 2.975
95.82000 -2.076
95.84000 1.809
95.86000 4.033
95.88000 3.758
95.90000 7.052
95.92000 3.687
95.94000 1.500
95.96000 3.624
95.98000 4.181
96.00000 0.004
96.02000 4.037
96.04000 7.558
96.06000 9.700
96.08000 8.404
96.10000 9.255
96.12000 7.649
96.14000 -1.613
96.16000 2.839
96.18000 5.452
96.20000 5.355
96.22000 2.933
96.24000 1.860
96.26000 1.588
96.28000 7.188
96.30000 8.797
96.32000 6.773
96.34000 3.265
96.36000 5.094
96.38000 5.853
96.40000 3.204
96.42000 7.600
96.44000 3.700
96.46000 1.052
96.48000 3.014
96.50000 3.852
96.52000 6.458
96.54000 8.298
96.56000 8.336
96.58000 7.739
96.60000 4.818
96.62000 5.379
96.64000 3.370
96.66000 0.929
96.68000 1.441
96.70000 0.703
96.72000 6.165
96.74000 13.143
96.76000 14.128
96.78000 3.495
96.80000 2.983
96.82000 4.242
96.84000 0.205
96.86000 4.008
96.88000 2.234
96.90000 7.701
96.92000 4.808
96.94000 -0.647
96.96000 2.404
96.98000 3.744
97.00000 3.320
97.02000 5.604
97.04000 9.412
97.06000 10.596
97.08000 6.832
97.10000 5.509
97.12000 5.755
97.14000 4.561
97.16000 6.397
97.18000 5.457
97.20000 6.588
97.22000 7.632
97.24000 2.264
97.26000 1.921
97.28000 4.022
97.30000 6.952
97.32000 0.696
97.34000 0.405
97.36000 5.302
97.38000 -2.007
97.40000 -1.085
97.42000 7.332
97.44000 8.287
97.46000 10.785
97.48000 10.317
97.50000 6.667
97.52000 1.253
97.54000 5.634
97.56000 6.349
97.58000 6.824
97.60000 6.575
97.62000 6.987
97.64000 6.227
97.66000 7.404
97.68000 5.541
97.70000 3.629
97.72000 8.249
97.74000 8.342
97.76000 4.667
97.78000 0.570
97.80000 -0.151
97.82000 4.547
97.84000 6.516
97.86000 6.393
97.88000 9.991
97.90000 13.691
97.92000 14.788
97.94000 5.086
97.96000 4.947
97.98000 7.541
98.00000 14.392
98.02000 8.791
98.04000 7.526
98.06000 9.995
98.08000 14.593
98.10000 9.345
98.12000 2.725
98.14000 3.184
98.16000 6.305
98.18000 7.242
98.20000 8.535
98.22000 12.005
98.24000 4.229
98.26000 5.490
98.28000 0.752
98.30000 10.672
98.32000 8.812
98.34000 8.320
98.36000 12.068
98.38000 11.017
98.40000 8.168
98.42000 7.489
98.44000 12.863
98.46000 10.343
98.48000 4.375
98.50000 11.793
98.52000 13.030
98.54000 5.222
98.56000 -1.999
98.58000 1.933
98.60000 7.834
98.62000 7.707
98.64000 -0.497
98.66000 7.406
98.68000 7.889
98.70000 12.771
98.72000 3.818
98.74000 0.851
98.76000 9.740
98.78000 4.616
98.80000 0.307
98.82000 5.635
98.84000 6.037
98.86000 12.553
98.88000 16.199
98.90000 14.102
98.92000 14.280
98.94000 5.109
98.96000 4.854
98.98000 5.690
99.00000 8.824
99.02000 7.676
99.04000 4.627
99.06000 5.564
99.08000 15.672
99.10000 8.424
99.12000 4.325
99.14000 3.200
99.16000 4.308
99.18000 9.272
99.20000 10.967
99.22000 12.334
99.24000 7.714
99.26000 0.333
99.28000 5.612
99.30000 7.200
99.32000 3.329
99.34000 6.017
99.36000 5.537
99.38000 6.252
99.40000 4.391
99.42000 -0.880
99.44000 10.543
99.46000 12.470
99.48000 7.319
99.50000 5.588
99.52000 7.771
99.54000 -0.314
99.56000 -1.608
99.58000 0.479
99.60000 -0.729
99.62000 10.080
99.64000 5.894
99.66000 1.934
99.68000 7.387
99.70000 9.146
99.72000 6.136
99.74000 3.995
99.76000 5.061
99.78000 8.494
99.80000 9.356
99.82000 5.800
99.84000 3.278
99.86000 0.520
99.88000 4.179
99.90000 9.747
99.92000 6.709
99.94000 5.542
99.96000 -1.990
99.98000 0.000
