'Id: "0011388" Comment: "Integrate frame 0011388_Au-Ir-Rh_Rh-rich_XRD-Mapping-010-0000.gfrmwith cursor Wedge Cursor #5" Operator: "B?rgel" Anode: "Cu" Wavelength: "1.5406" Scantype: "2Theta (TwoTheta)" TimePerStep: "1" X: "22.5" Y: "-40.5" Z: "5.95" 
10.00000 0.000
10.02000 6.486
10.04000 1.740
10.06000 1.222
10.08000 7.061
10.10000 14.861
10.12000 12.021
10.14000 11.656
10.16000 11.201
10.18000 -4.308
10.20000 8.262
10.22000 19.489
10.24000 30.947
10.26000 20.028
10.28000 27.124
10.30000 21.060
10.32000 9.005
10.34000 9.232
10.36000 11.016
10.38000 8.790
10.40000 2.543
10.42000 6.313
10.44000 21.098
10.46000 10.077
10.48000 22.524
10.50000 12.148
10.52000 14.361
10.54000 15.078
10.56000 9.287
10.58000 15.612
10.60000 12.168
10.62000 8.983
10.64000 4.929
10.66000 7.001
10.68000 2.261
10.70000 11.938
10.72000 19.163
10.74000 26.393
10.76000 15.248
10.78000 17.626
10.80000 29.847
10.82000 8.443
10.84000 5.580
10.86000 11.505
10.88000 13.039
10.90000 26.957
10.92000 14.891
10.94000 15.011
10.96000 22.710
10.98000 9.758
11.00000 -4.147
11.02000 1.197
11.04000 11.290
11.06000 14.200
11.08000 9.600
11.10000 17.793
11.12000 11.084
11.14000 -1.801
11.16000 14.838
11.18000 8.598
11.20000 5.323
11.22000 10.862
11.24000 17.292
11.26000 23.492
11.28000 18.495
11.30000 23.498
11.32000 20.810
11.34000 8.286
11.36000 27.754
11.38000 21.870
11.40000 18.449
11.42000 19.227
11.44000 20.179
11.46000 29.147
11.48000 25.634
11.50000 15.103
11.52000 9.143
11.54000 26.979
11.56000 33.867
11.58000 19.904
11.60000 13.091
11.62000 16.081
11.64000 12.889
11.66000 14.708
11.68000 20.067
11.70000 23.153
11.72000 22.963
11.74000 23.424
11.76000 18.004
11.78000 17.165
11.80000 -0.198
11.82000 4.991
11.84000 16.318
11.86000 14.572
11.88000 18.780
11.90000 23.034
11.92000 19.874
11.94000 14.860
11.96000 12.823
11.98000 16.751
12.00000 22.192
12.02000 19.927
12.04000 7.871
12.06000 7.109
12.08000 12.212
12.10000 14.100
12.12000 7.049
12.14000 -0.106
12.16000 -4.292
12.18000 3.043
12.20000 19.396
12.22000 18.811
12.24000 7.481
12.26000 12.632
12.28000 26.000
12.30000 22.081
12.32000 15.355
12.34000 14.960
12.36000 16.476
12.38000 10.673
12.40000 13.231
12.42000 18.823
12.44000 19.097
12.46000 12.261
12.48000 16.908
12.50000 17.283
12.52000 15.317
12.54000 16.986
12.56000 13.926
12.58000 10.367
12.60000 21.477
12.62000 14.327
12.64000 12.808
12.66000 17.675
12.68000 22.648
12.70000 15.228
12.72000 8.595
12.74000 10.571
12.76000 16.130
12.78000 12.831
12.80000 20.599
12.82000 13.781
12.84000 11.194
12.86000 20.930
12.88000 28.188
12.90000 24.962
12.92000 19.157
12.94000 15.331
12.96000 18.689
12.98000 16.552
13.00000 9.539
13.02000 14.445
13.04000 14.678
13.06000 15.137
13.08000 5.337
13.10000 -3.132
13.12000 0.421
13.14000 9.825
13.16000 15.209
13.18000 22.354
13.20000 15.445
13.22000 10.691
13.24000 17.645
13.26000 21.506
13.28000 21.991
13.30000 12.674
13.32000 21.234
13.34000 24.802
13.36000 15.641
13.38000 14.619
13.40000 9.826
13.42000 0.525
13.44000 11.388
13.46000 18.219
13.48000 11.578
13.50000 14.464
13.52000 9.716
13.54000 7.429
13.56000 19.700
13.58000 8.662
13.60000 8.286
13.62000 14.195
13.64000 12.079
13.66000 8.617
13.68000 2.873
13.70000 -0.082
13.72000 4.181
13.74000 18.942
13.76000 14.955
13.78000 9.911
13.80000 16.743
13.82000 15.294
13.84000 16.978
13.86000 13.656
13.88000 14.178
13.90000 16.168
13.92000 10.824
13.94000 8.769
13.96000 12.847
13.98000 15.163
14.00000 16.751
14.02000 15.802
14.04000 17.605
14.06000 14.664
14.08000 14.354
14.10000 22.823
14.12000 21.774
14.14000 20.179
14.16000 13.628
14.18000 13.274
14.20000 18.410
14.22000 19.152
14.24000 15.372
14.26000 8.383
14.28000 14.088
14.30000 20.288
14.32000 14.049
14.34000 12.887
14.36000 9.036
14.38000 5.453
14.40000 -4.313
14.42000 1.192
14.44000 7.871
14.46000 17.986
14.48000 22.115
14.50000 14.641
14.52000 13.955
14.54000 12.159
14.56000 3.347
14.58000 8.022
14.60000 13.643
14.62000 17.731
14.64000 7.309
14.66000 11.328
14.68000 19.980
14.70000 13.252
14.72000 2.389
14.74000 9.460
14.76000 13.525
14.78000 6.392
14.80000 7.159
14.82000 8.818
14.84000 8.328
14.86000 10.199
14.88000 5.484
14.90000 1.108
14.92000 8.486
14.94000 11.503
14.96000 3.396
14.98000 4.962
15.00000 9.686
15.02000 5.940
15.04000 1.714
15.06000 6.166
15.08000 10.646
15.10000 8.461
15.12000 4.388
15.14000 5.261
15.16000 2.041
15.18000 9.288
15.20000 5.485
15.22000 6.251
15.24000 3.352
15.26000 3.491
15.28000 1.285
15.30000 1.552
15.32000 6.225
15.34000 3.443
15.36000 1.835
15.38000 16.428
15.40000 12.499
15.42000 3.298
15.44000 7.581
15.46000 7.762
15.48000 7.927
15.50000 -2.516
15.52000 0.882
15.54000 -1.742
15.56000 -4.425
15.58000 4.320
15.60000 4.091
15.62000 4.377
15.64000 2.258
15.66000 10.702
15.68000 9.438
15.70000 2.960
15.72000 3.084
15.74000 6.018
15.76000 0.822
15.78000 -3.018
15.80000 1.437
15.82000 3.544
15.84000 2.881
15.86000 3.057
15.88000 0.332
15.90000 -0.062
15.92000 -3.320
15.94000 3.523
15.96000 7.437
15.98000 5.716
16.00000 0.076
16.02000 4.971
16.04000 9.100
16.06000 9.853
16.08000 7.302
16.10000 0.205
16.12000 8.362
16.14000 7.879
16.16000 2.856
16.18000 1.851
16.20000 3.390
16.22000 1.423
16.24000 3.904
16.26000 -2.919
16.28000 -1.764
16.30000 -2.605
16.32000 -4.408
16.34000 1.744
16.36000 3.883
16.38000 6.561
16.40000 7.688
16.42000 11.920
16.44000 16.957
16.46000 6.754
16.48000 2.723
16.50000 10.491
16.52000 12.986
16.54000 10.323
16.56000 1.997
16.58000 0.656
16.60000 7.260
16.62000 4.181
16.64000 9.452
16.66000 3.147
16.68000 9.565
16.70000 5.436
16.72000 1.665
16.74000 2.165
16.76000 6.635
16.78000 9.412
16.80000 14.833
16.82000 4.694
16.84000 5.491
16.86000 3.639
16.88000 -0.857
16.90000 4.735
16.92000 5.841
16.94000 -0.404
16.96000 -2.225
16.98000 5.249
17.00000 8.956
17.02000 7.171
17.04000 3.592
17.06000 2.446
17.08000 3.527
17.10000 -0.688
17.12000 -4.052
17.14000 5.962
17.16000 5.323
17.18000 3.260
17.20000 1.835
17.22000 2.775
17.24000 2.258
17.26000 7.168
17.28000 7.311
17.30000 8.047
17.32000 0.948
17.34000 3.928
17.36000 2.837
17.38000 8.160
17.40000 12.232
17.42000 4.132
17.44000 1.108
17.46000 0.384
17.48000 1.703
17.50000 1.519
17.52000 -4.343
17.54000 5.403
17.56000 17.187
17.58000 5.994
17.60000 2.704
17.62000 2.272
17.64000 2.576
17.66000 -0.384
17.68000 1.373
17.70000 2.187
17.72000 2.256
17.74000 7.095
17.76000 15.430
17.78000 11.649
17.80000 3.131
17.82000 -3.532
17.84000 -0.091
17.86000 4.317
17.88000 6.822
17.90000 2.339
17.92000 5.304
17.94000 4.091
17.96000 0.398
17.98000 3.578
18.00000 9.921
18.02000 14.957
18.04000 6.471
18.06000 8.047
18.08000 3.926
18.10000 -0.849
18.12000 0.647
18.14000 4.141
18.16000 5.870
18.18000 8.914
18.20000 8.733
18.22000 7.355
18.24000 11.426
18.26000 0.784
18.28000 -3.548
18.30000 -2.024
18.32000 0.997
18.34000 -0.969
18.36000 6.379
18.38000 7.975
18.40000 10.672
18.42000 8.392
18.44000 1.105
18.46000 0.817
18.48000 4.693
18.50000 10.527
18.52000 5.079
18.54000 3.649
18.56000 4.046
18.58000 3.258
18.60000 0.190
18.62000 2.591
18.64000 3.346
18.66000 4.677
18.68000 3.959
18.70000 2.039
18.72000 0.300
18.74000 -4.255
18.76000 0.736
18.78000 0.837
18.80000 6.156
18.82000 3.410
18.84000 8.330
18.86000 11.589
18.88000 11.711
18.90000 2.661
18.92000 4.196
18.94000 1.999
18.96000 1.966
18.98000 4.795
19.00000 12.487
19.02000 9.417
19.04000 8.369
19.06000 5.067
19.08000 5.707
19.10000 7.568
19.12000 4.975
19.14000 -0.204
19.16000 8.244
19.18000 3.666
19.20000 1.987
19.22000 4.486
19.24000 12.229
19.26000 7.445
19.28000 11.257
19.30000 12.074
19.32000 3.587
19.34000 5.309
19.36000 9.045
19.38000 1.939
19.40000 0.196
19.42000 0.083
19.44000 5.528
19.46000 8.628
19.48000 7.758
19.50000 3.546
19.52000 8.419
19.54000 1.904
19.56000 4.317
19.58000 2.948
19.60000 5.780
19.62000 1.672
19.64000 4.146
19.66000 3.953
19.68000 -0.979
19.70000 0.455
19.72000 3.569
19.74000 1.752
19.76000 7.397
19.78000 6.578
19.80000 7.867
19.82000 1.599
19.84000 -2.530
19.86000 3.846
19.88000 2.722
19.90000 -0.909
19.92000 6.984
19.94000 6.781
19.96000 -1.166
19.98000 -4.141
20.00000 5.790
20.02000 2.766
20.04000 0.831
20.06000 3.750
20.08000 3.796
20.10000 0.067
20.12000 -1.625
20.14000 -0.012
20.16000 1.692
20.18000 5.242
20.20000 7.970
20.22000 0.502
20.24000 -4.154
20.26000 6.758
20.28000 6.863
20.30000 5.078
20.32000 -4.009
20.34000 -1.469
20.36000 -1.357
20.38000 1.425
20.40000 -1.571
20.42000 4.918
20.44000 5.840
20.46000 5.903
20.48000 7.566
20.50000 4.098
20.52000 1.532
20.54000 2.094
20.56000 5.583
20.58000 3.814
20.60000 5.502
20.62000 7.187
20.64000 5.731
20.66000 6.020
20.68000 5.445
20.70000 2.406
20.72000 0.385
20.74000 -0.276
20.76000 -0.096
20.78000 2.527
20.80000 6.393
20.82000 6.437
20.84000 7.933
20.86000 10.428
20.88000 8.367
20.90000 1.627
20.92000 3.844
20.94000 1.765
20.96000 3.818
20.98000 4.131
21.00000 3.432
21.02000 4.417
21.04000 4.418
21.06000 6.676
21.08000 7.299
21.10000 4.189
21.12000 4.826
21.14000 -0.560
21.16000 0.881
21.18000 8.883
21.20000 -3.427
21.22000 -3.789
21.24000 2.031
21.26000 9.288
21.28000 7.619
21.30000 7.684
21.32000 4.785
21.34000 1.062
21.36000 -1.287
21.38000 -4.089
21.40000 -0.036
21.42000 9.736
21.44000 9.071
21.46000 9.358
21.48000 14.588
21.50000 12.734
21.52000 11.729
21.54000 14.822
21.56000 16.363
21.58000 7.668
21.60000 3.764
21.62000 5.121
21.64000 7.240
21.66000 7.634
21.68000 0.473
21.70000 7.295
21.72000 16.149
21.74000 10.032
21.76000 8.914
21.78000 8.295
21.80000 8.014
21.82000 6.448
21.84000 2.873
21.86000 5.119
21.88000 5.562
21.90000 3.977
21.92000 6.674
21.94000 1.340
21.96000 2.431
21.98000 10.521
22.00000 7.783
22.02000 6.170
22.04000 4.315
22.06000 4.822
22.08000 0.864
22.10000 4.609
22.12000 4.811
22.14000 -4.032
22.16000 -0.075
22.18000 9.205
22.20000 3.945
22.22000 6.257
22.24000 7.670
22.26000 3.737
22.28000 12.390
22.30000 8.787
22.32000 4.053
22.34000 4.643
22.36000 4.627
22.38000 3.792
22.40000 6.732
22.42000 5.856
22.44000 2.747
22.46000 4.343
22.48000 2.615
22.50000 4.543
22.52000 7.278
22.54000 7.592
22.56000 8.010
22.58000 4.332
22.60000 3.206
22.62000 3.687
22.64000 -0.489
22.66000 0.691
22.68000 3.061
22.70000 3.566
22.72000 4.831
22.74000 4.582
22.76000 3.943
22.78000 7.809
22.80000 6.245
22.82000 1.614
22.84000 0.732
22.86000 0.723
22.88000 -1.507
22.90000 -0.562
22.92000 0.232
22.94000 0.147
22.96000 2.782
22.98000 2.527
23.00000 2.147
23.02000 2.085
23.04000 5.592
23.06000 8.529
23.08000 3.586
23.10000 7.840
23.12000 13.735
23.14000 7.111
23.16000 2.325
23.18000 3.806
23.20000 8.833
23.22000 5.550
23.24000 6.294
23.26000 5.459
23.28000 5.430
23.30000 8.044
23.32000 4.749
23.34000 3.373
23.36000 5.054
23.38000 9.397
23.40000 8.834
23.42000 2.957
23.44000 3.631
23.46000 12.642
23.48000 13.569
23.50000 6.881
23.52000 1.215
23.54000 0.020
23.56000 -3.961
23.58000 3.738
23.60000 5.077
23.62000 5.739
23.64000 1.119
23.66000 -1.599
23.68000 5.581
23.70000 10.330
23.72000 7.030
23.74000 4.754
23.76000 0.683
23.78000 -3.414
23.80000 -2.670
23.82000 3.758
23.84000 5.441
23.86000 3.381
23.88000 7.902
23.90000 2.345
23.92000 7.138
23.94000 8.054
23.96000 3.357
23.98000 8.768
24.00000 8.149
24.02000 10.419
24.04000 6.455
24.06000 6.102
24.08000 1.016
24.10000 -0.521
24.12000 2.671
24.14000 1.034
24.16000 4.984
24.18000 9.025
24.20000 3.606
24.22000 7.088
24.24000 8.897
24.26000 3.593
24.28000 -0.009
24.30000 -3.939
24.32000 3.876
24.34000 8.894
24.36000 8.085
24.38000 1.055
24.40000 -0.189
24.42000 0.170
24.44000 1.671
24.46000 5.597
24.48000 3.796
24.50000 1.749
24.52000 3.984
24.54000 1.602
24.56000 -1.518
24.58000 -2.588
24.60000 1.255
24.62000 2.470
24.64000 -0.317
24.66000 3.459
24.68000 6.479
24.70000 9.236
24.72000 1.900
24.74000 -2.449
24.76000 -1.455
24.78000 -3.715
24.80000 4.925
24.82000 8.718
24.84000 8.351
24.86000 8.729
24.88000 1.690
24.90000 2.450
24.92000 3.532
24.94000 -0.876
24.96000 -3.902
24.98000 3.110
25.00000 3.333
25.02000 4.606
25.04000 6.781
25.06000 2.730
25.08000 1.940
25.10000 2.200
25.12000 -1.197
25.14000 0.409
25.16000 -1.571
25.18000 -1.849
25.20000 4.967
25.22000 -0.985
25.24000 2.341
25.26000 -2.791
25.28000 0.501
25.30000 1.345
25.32000 1.304
25.34000 -1.670
25.36000 -3.771
25.38000 -2.405
25.40000 4.165
25.42000 6.302
25.44000 0.763
25.46000 0.498
25.48000 1.461
25.50000 1.079
25.52000 2.202
25.54000 4.299
25.56000 6.208
25.58000 6.255
25.60000 1.326
25.62000 0.854
25.64000 1.165
25.66000 -3.852
25.68000 -2.344
25.70000 0.562
25.72000 4.663
25.74000 2.298
25.76000 -0.053
25.78000 3.821
25.80000 6.153
25.82000 6.548
25.84000 4.656
25.86000 0.928
25.88000 -0.385
25.90000 3.322
25.92000 3.470
25.94000 5.251
25.96000 3.412
25.98000 2.137
26.00000 3.473
26.02000 3.080
26.04000 4.403
26.06000 6.490
26.08000 2.375
26.10000 2.195
26.12000 1.606
26.14000 -1.001
26.16000 4.350
26.18000 9.853
26.20000 9.000
26.22000 -0.972
26.24000 0.525
26.26000 5.012
26.28000 8.505
26.30000 7.250
26.32000 4.455
26.34000 1.417
26.36000 -0.888
26.38000 1.526
26.40000 3.313
26.42000 8.298
26.44000 9.938
26.46000 8.966
26.48000 4.672
26.50000 1.836
26.52000 7.855
26.54000 1.510
26.56000 -3.809
26.58000 1.099
26.60000 5.778
26.62000 6.934
26.64000 6.951
26.66000 5.700
26.68000 5.213
26.70000 5.899
26.72000 2.821
26.74000 2.670
26.76000 2.641
26.78000 8.015
26.80000 10.664
26.82000 7.763
26.84000 5.214
26.86000 7.056
26.88000 7.298
26.90000 5.499
26.92000 4.254
26.94000 3.759
26.96000 2.539
26.98000 4.629
27.00000 5.951
27.02000 8.432
27.04000 9.783
27.06000 4.265
27.08000 -2.509
27.10000 5.810
27.12000 7.182
27.14000 3.573
27.16000 -0.119
27.18000 4.639
27.20000 6.576
27.22000 10.330
27.24000 5.937
27.26000 4.336
27.28000 8.238
27.30000 8.199
27.32000 8.598
27.34000 5.480
27.36000 0.987
27.38000 0.037
27.40000 3.987
27.42000 4.487
27.44000 7.133
27.46000 9.324
27.48000 10.643
27.50000 11.548
27.52000 8.567
27.54000 5.831
27.56000 6.724
27.58000 8.404
27.60000 9.305
27.62000 4.819
27.64000 -3.731
27.66000 2.944
27.68000 4.467
27.70000 7.595
27.72000 4.151
27.74000 4.151
27.76000 5.904
27.78000 5.444
27.80000 3.088
27.82000 4.419
27.84000 5.958
27.86000 5.753
27.88000 6.598
27.90000 2.013
27.92000 2.088
27.94000 0.013
27.96000 0.016
27.98000 3.971
28.00000 7.319
28.02000 3.681
28.04000 12.138
28.06000 6.760
28.08000 -0.934
28.10000 3.077
28.12000 6.212
28.14000 5.903
28.16000 10.622
28.18000 11.622
28.20000 6.796
28.22000 3.078
28.24000 5.478
28.26000 6.816
28.28000 -0.247
28.30000 1.740
28.32000 2.861
28.34000 3.656
28.36000 5.131
28.38000 4.128
28.40000 0.307
28.42000 0.654
28.44000 -3.610
28.46000 1.342
28.48000 -0.151
28.50000 -0.268
28.52000 -1.947
28.54000 2.453
28.56000 4.817
28.58000 11.048
28.60000 9.221
28.62000 5.006
28.64000 2.025
28.66000 2.599
28.68000 0.386
28.70000 0.131
28.72000 4.142
28.74000 -0.227
28.76000 -0.362
28.78000 2.310
28.80000 2.839
28.82000 2.038
28.84000 7.236
28.86000 2.102
28.88000 1.992
28.90000 4.037
28.92000 9.545
28.94000 6.552
28.96000 3.640
28.98000 -0.643
29.00000 -1.747
29.02000 0.906
29.04000 -1.242
29.06000 -3.697
29.08000 -3.483
29.10000 -0.390
29.12000 0.809
29.14000 0.390
29.16000 0.253
29.18000 4.618
29.20000 2.260
29.22000 0.881
29.24000 2.294
29.26000 5.454
29.28000 2.643
29.30000 -2.503
29.32000 -1.457
29.34000 -2.436
29.36000 -2.564
29.38000 1.378
29.40000 5.091
29.42000 -0.877
29.44000 0.192
29.46000 -3.140
29.48000 -0.264
29.50000 -0.364
29.52000 -1.748
29.54000 0.311
29.56000 4.468
29.58000 3.451
29.60000 3.953
29.62000 5.169
29.64000 0.505
29.66000 0.798
29.68000 0.272
29.70000 1.827
29.72000 2.599
29.74000 3.932
29.76000 2.745
29.78000 1.051
29.80000 4.706
29.82000 6.177
29.84000 2.621
29.86000 3.116
29.88000 -0.060
29.90000 0.687
29.92000 4.521
29.94000 4.152
29.96000 -0.353
29.98000 -2.039
30.00000 -0.175
30.02000 1.824
30.04000 -2.252
30.06000 -2.076
30.08000 -1.075
30.10000 2.131
30.12000 0.555
30.14000 -2.494
30.16000 3.328
30.18000 5.785
30.20000 2.656
30.22000 -0.587
30.24000 1.433
30.26000 3.502
30.28000 -0.136
30.30000 0.990
30.32000 4.863
30.34000 1.120
30.36000 0.572
30.38000 -1.025
30.40000 0.730
30.42000 2.167
30.44000 -0.652
30.46000 0.587
30.48000 1.670
30.50000 -0.227
30.52000 0.856
30.54000 -0.623
30.56000 -2.249
30.58000 1.410
30.60000 0.631
30.62000 -1.113
30.64000 -2.529
30.66000 -0.675
30.68000 -3.041
30.70000 -3.646
30.72000 -3.645
30.74000 0.401
30.76000 -1.274
30.78000 -3.352
30.80000 -2.315
30.82000 1.241
30.84000 -0.207
30.86000 -1.531
30.88000 -3.639
30.90000 -0.431
30.92000 -0.154
30.94000 2.340
30.96000 1.733
30.98000 2.655
31.00000 -3.294
31.02000 -0.966
31.04000 1.310
31.06000 2.853
31.08000 5.427
31.10000 0.343
31.12000 0.622
31.14000 -0.168
31.16000 2.638
31.18000 6.295
31.20000 3.723
31.22000 4.016
31.24000 2.780
31.26000 2.205
31.28000 0.706
31.30000 0.008
31.32000 -0.446
31.34000 2.961
31.36000 0.162
31.38000 0.829
31.40000 1.738
31.42000 0.345
31.44000 1.018
31.46000 1.761
31.48000 5.051
31.50000 4.710
31.52000 -0.092
31.54000 -2.817
31.56000 -2.485
31.58000 -1.419
31.60000 1.158
31.62000 3.814
31.64000 -0.524
31.66000 1.054
31.68000 2.266
31.70000 3.113
31.72000 -0.369
31.74000 -2.949
31.76000 -1.428
31.78000 -1.342
31.80000 -0.245
31.82000 -0.236
31.84000 2.087
31.86000 1.528
31.88000 -2.476
31.90000 3.079
31.92000 3.654
31.94000 3.461
31.96000 -0.565
31.98000 -0.186
32.00000 5.150
32.02000 0.051
32.04000 1.865
32.06000 6.555
32.08000 4.509
32.10000 5.306
32.12000 0.094
32.14000 2.972
32.16000 1.836
32.18000 1.245
32.20000 3.469
32.22000 2.342
32.24000 -1.790
32.26000 2.500
32.28000 1.528
32.30000 -0.481
32.32000 3.258
32.34000 2.101
32.36000 3.837
32.38000 4.297
32.40000 5.253
32.42000 -1.602
32.44000 2.771
32.46000 5.297
32.48000 4.749
32.50000 -0.774
32.52000 -3.549
32.54000 1.332
32.56000 1.743
32.58000 -1.131
32.60000 3.149
32.62000 6.809
32.64000 6.988
32.66000 6.356
32.68000 8.126
32.70000 3.728
32.72000 4.094
32.74000 4.141
32.76000 2.268
32.78000 5.308
32.80000 4.622
32.82000 4.609
32.84000 7.083
32.86000 3.369
32.88000 0.438
32.90000 -1.890
32.92000 -1.336
32.94000 -0.348
32.96000 4.165
32.98000 2.409
33.00000 1.218
33.02000 2.723
33.04000 1.266
33.06000 -0.049
33.08000 -0.657
33.10000 2.555
33.12000 -2.784
33.14000 1.227
33.16000 2.757
33.18000 3.289
33.20000 1.482
33.22000 4.535
33.24000 2.215
33.26000 -0.558
33.28000 2.724
33.30000 1.743
33.32000 6.541
33.34000 4.350
33.36000 3.578
33.38000 1.027
33.40000 1.503
33.42000 0.863
33.44000 1.302
33.46000 4.638
33.48000 3.239
33.50000 1.702
33.52000 4.695
33.54000 4.636
33.56000 6.575
33.58000 3.931
33.60000 -0.205
33.62000 -3.529
33.64000 0.618
33.66000 3.088
33.68000 2.474
33.70000 3.712
33.72000 3.060
33.74000 2.199
33.76000 5.405
33.78000 4.054
33.80000 3.047
33.82000 8.498
33.84000 4.190
33.86000 2.625
33.88000 1.436
33.90000 1.806
33.92000 6.769
33.94000 2.387
33.96000 4.631
33.98000 6.093
34.00000 4.024
34.02000 3.877
34.04000 4.435
34.06000 3.013
34.08000 1.903
34.10000 -0.910
34.12000 0.299
34.14000 3.624
34.16000 2.917
34.18000 2.004
34.20000 3.522
34.22000 4.299
34.24000 4.972
34.26000 4.069
34.28000 0.904
34.30000 1.771
34.32000 4.078
34.34000 2.324
34.36000 -2.239
34.38000 -0.223
34.40000 2.643
34.42000 3.154
34.44000 3.171
34.46000 0.773
34.48000 -0.773
34.50000 0.162
34.52000 3.592
34.54000 0.815
34.56000 -2.789
34.58000 2.598
34.60000 4.808
34.62000 1.276
34.64000 -0.045
34.66000 1.346
34.68000 -1.021
34.70000 -0.398
34.72000 5.575
34.74000 0.283
34.76000 -2.258
34.78000 0.766
34.80000 8.707
34.82000 3.053
34.84000 -3.089
34.86000 1.981
34.88000 1.514
34.90000 -1.608
34.92000 1.788
34.94000 0.942
34.96000 -2.240
34.98000 0.129
35.00000 -0.968
35.02000 -1.284
35.04000 -1.808
35.06000 -2.815
35.08000 1.457
35.10000 -0.581
35.12000 -3.358
35.14000 -0.703
35.16000 0.240
35.18000 -0.904
35.20000 -3.472
35.22000 -0.149
35.24000 -0.592
35.26000 0.094
35.28000 3.821
35.30000 2.287
35.32000 0.379
35.34000 1.086
35.36000 1.413
35.38000 1.702
35.40000 -0.826
35.42000 -1.826
35.44000 0.371
35.46000 3.254
35.48000 2.629
35.50000 3.545
35.52000 4.885
35.54000 -2.593
35.56000 -2.677
35.58000 4.139
35.60000 7.663
35.62000 3.400
35.64000 4.666
35.66000 9.310
35.68000 6.176
35.70000 1.717
35.72000 2.740
35.74000 6.669
35.76000 6.653
35.78000 -1.537
35.80000 -2.936
35.82000 -0.530
35.84000 1.576
35.86000 1.429
35.88000 5.648
35.90000 2.676
35.92000 0.583
35.94000 1.608
35.96000 6.401
35.98000 4.794
36.00000 1.606
36.02000 -0.481
36.04000 2.240
36.06000 4.122
36.08000 8.169
36.10000 9.640
36.12000 1.319
36.14000 -3.443
36.16000 1.953
36.18000 9.392
36.20000 10.624
36.22000 9.248
36.24000 8.320
36.26000 4.613
36.28000 0.141
36.30000 1.270
36.32000 5.053
36.34000 4.433
36.36000 1.763
36.38000 3.792
36.40000 4.584
36.42000 4.252
36.44000 5.432
36.46000 3.877
36.48000 2.370
36.50000 8.478
36.52000 9.536
36.54000 4.541
36.56000 4.632
36.58000 6.230
36.60000 2.652
36.62000 2.934
36.64000 -0.528
36.66000 0.458
36.68000 3.706
36.70000 7.538
36.72000 10.365
36.74000 6.418
36.76000 5.432
36.78000 6.790
36.80000 6.401
36.82000 3.276
36.84000 -1.315
36.86000 0.959
36.88000 3.097
36.90000 0.666
36.92000 2.193
36.94000 1.190
36.96000 0.162
36.98000 -0.424
37.00000 -0.850
37.02000 -3.450
37.04000 0.311
37.06000 4.039
37.08000 6.510
37.10000 1.007
37.12000 -0.594
37.14000 0.153
37.16000 5.194
37.18000 0.429
37.20000 -0.198
37.22000 -2.016
37.24000 -0.615
37.26000 7.762
37.28000 6.251
37.30000 6.240
37.32000 -0.043
37.34000 -2.068
37.36000 -2.578
37.38000 2.901
37.40000 3.217
37.42000 -0.884
37.44000 0.375
37.46000 -0.179
37.48000 -1.047
37.50000 1.925
37.52000 0.012
37.54000 -1.412
37.56000 -0.728
37.58000 0.757
37.60000 1.125
37.62000 -0.358
37.64000 -1.802
37.66000 -2.574
37.68000 -0.732
37.70000 1.985
37.72000 1.496
37.74000 1.840
37.76000 -1.008
37.78000 2.586
37.80000 0.828
37.82000 -0.961
37.84000 1.430
37.86000 -0.708
37.88000 0.972
37.90000 6.676
37.92000 7.909
37.94000 5.872
37.96000 1.600
37.98000 2.058
38.00000 8.003
38.02000 10.391
38.04000 10.320
38.06000 8.691
38.08000 6.894
38.10000 7.547
38.12000 9.695
38.14000 4.272
38.16000 1.206
38.18000 9.186
38.20000 12.041
38.22000 9.245
38.24000 8.434
38.26000 6.332
38.28000 6.374
38.30000 5.024
38.32000 4.916
38.34000 4.277
38.36000 6.346
38.38000 6.366
38.40000 12.629
38.42000 13.738
38.44000 10.519
38.46000 8.733
38.48000 10.020
38.50000 11.123
38.52000 11.080
38.54000 13.476
38.56000 12.217
38.58000 12.171
38.60000 9.411
38.62000 12.427
38.64000 15.274
38.66000 14.031
38.68000 10.312
38.70000 14.432
38.72000 17.708
38.74000 21.697
38.76000 17.884
38.78000 17.857
38.80000 14.655
38.82000 14.072
38.84000 14.028
38.86000 21.148
38.88000 20.193
38.90000 19.081
38.92000 22.607
38.94000 19.101
38.96000 18.869
38.98000 22.238
39.00000 22.199
39.02000 22.942
39.04000 25.685
39.06000 24.408
39.08000 23.072
39.10000 22.747
39.12000 25.544
39.14000 24.071
39.16000 28.226
39.18000 29.654
39.20000 31.171
39.22000 32.590
39.24000 29.535
39.26000 29.331
39.28000 29.056
39.30000 32.413
39.32000 32.398
39.34000 32.467
39.36000 40.781
39.38000 39.704
39.40000 42.245
39.42000 42.530
39.44000 47.873
39.46000 50.715
39.48000 45.764
39.50000 45.662
39.52000 53.853
39.54000 56.443
39.56000 53.483
39.58000 55.527
39.60000 61.746
39.62000 59.995
39.64000 60.274
39.66000 69.992
39.68000 79.380
39.70000 82.969
39.72000 80.991
39.74000 87.232
39.76000 92.278
39.78000 91.333
39.80000 96.161
39.82000 94.256
39.84000 98.577
39.86000 107.830
39.88000 111.778
39.90000 114.101
39.92000 119.453
39.94000 128.282
39.96000 135.259
39.98000 136.830
40.00000 138.111
40.02000 150.133
40.04000 161.720
40.06000 169.788
40.08000 183.565
40.10000 185.760
40.12000 194.813
40.14000 202.187
40.16000 211.449
40.18000 217.788
40.20000 232.770
40.22000 242.762
40.24000 255.805
40.26000 268.430
40.28000 283.416
40.30000 295.342
40.32000 306.453
40.34000 320.486
40.36000 333.083
40.38000 349.679
40.40000 358.965
40.42000 374.344
40.44000 376.811
40.46000 402.675
40.48000 420.157
40.50000 429.525
40.52000 447.398
40.54000 450.150
40.56000 464.099
40.58000 482.295
40.60000 497.330
40.62000 507.704
40.64000 509.844
40.66000 521.443
40.68000 534.288
40.70000 536.834
40.72000 540.310
40.74000 564.544
40.76000 565.854
40.78000 547.320
40.80000 560.915
40.82000 549.286
40.84000 558.971
40.86000 548.903
40.88000 536.386
40.90000 524.979
40.92000 512.198
40.94000 513.789
40.96000 510.174
40.98000 506.004
41.00000 488.249
41.02000 473.867
41.04000 449.427
41.06000 439.242
41.08000 426.444
41.10000 406.603
41.12000 396.986
41.14000 382.815
41.16000 357.886
41.18000 349.876
41.20000 334.808
41.22000 318.921
41.24000 298.271
41.26000 281.444
41.28000 277.865
41.30000 265.979
41.32000 249.398
41.34000 244.433
41.36000 235.226
41.38000 223.003
41.40000 213.791
41.42000 199.337
41.44000 186.465
41.46000 175.364
41.48000 169.753
41.50000 161.433
41.52000 155.171
41.54000 147.414
41.56000 137.171
41.58000 128.661
41.60000 124.961
41.62000 120.053
41.64000 111.032
41.66000 109.446
41.68000 102.840
41.70000 99.934
41.72000 96.962
41.74000 84.054
41.76000 74.420
41.78000 75.180
41.80000 72.479
41.82000 75.662
41.84000 70.019
41.86000 65.304
41.88000 64.932
41.90000 62.350
41.92000 53.726
41.94000 50.687
41.96000 51.446
41.98000 50.652
42.00000 46.680
42.02000 47.602
42.04000 44.608
42.06000 39.258
42.08000 37.824
42.10000 33.417
42.12000 29.373
42.14000 35.872
42.16000 35.491
42.18000 32.452
42.20000 35.773
42.22000 32.917
42.24000 30.152
42.26000 29.307
42.28000 24.567
42.30000 23.488
42.32000 23.487
42.34000 20.248
42.36000 20.908
42.38000 22.977
42.40000 24.768
42.42000 24.782
42.44000 24.243
42.46000 22.143
42.48000 19.126
42.50000 19.799
42.52000 22.539
42.54000 17.774
42.56000 12.611
42.58000 13.198
42.60000 12.168
42.62000 11.057
42.64000 5.608
42.66000 4.077
42.68000 9.299
42.70000 14.973
42.72000 14.089
42.74000 13.523
42.76000 9.433
42.78000 9.293
42.80000 7.559
42.82000 11.097
42.84000 11.749
42.86000 10.257
42.88000 7.502
42.90000 3.745
42.92000 5.823
42.94000 5.427
42.96000 1.544
42.98000 5.048
43.00000 3.398
43.02000 5.209
43.04000 8.383
43.06000 6.474
43.08000 7.258
43.10000 3.564
43.12000 4.682
43.14000 8.079
43.16000 4.832
43.18000 4.286
43.20000 8.377
43.22000 5.802
43.24000 7.695
43.26000 7.263
43.28000 6.073
43.30000 5.634
43.32000 7.118
43.34000 5.403
43.36000 1.454
43.38000 6.091
43.40000 5.804
43.42000 0.943
43.44000 0.312
43.46000 -1.107
43.48000 -3.425
43.50000 1.435
43.52000 12.075
43.54000 11.957
43.56000 10.390
43.58000 6.941
43.60000 1.069
43.62000 -0.453
43.64000 2.704
43.66000 3.955
43.68000 0.192
43.70000 3.718
43.72000 5.517
43.74000 5.314
43.76000 7.103
43.78000 8.587
43.80000 5.444
43.82000 3.378
43.84000 2.825
43.86000 6.641
43.88000 4.844
43.90000 6.453
43.92000 9.084
43.94000 7.392
43.96000 9.237
43.98000 2.562
44.00000 3.439
44.02000 5.484
44.04000 6.169
44.06000 5.123
44.08000 4.175
44.10000 6.373
44.12000 6.952
44.14000 6.907
44.16000 5.304
44.18000 2.503
44.20000 5.488
44.22000 6.461
44.24000 6.992
44.26000 6.923
44.28000 3.039
44.30000 3.102
44.32000 5.026
44.34000 1.906
44.36000 0.481
44.38000 5.037
44.40000 4.103
44.42000 3.302
44.44000 2.620
44.46000 1.593
44.48000 -2.772
44.50000 -3.345
44.52000 -1.861
44.54000 2.771
44.56000 5.442
44.58000 1.821
44.60000 1.896
44.62000 0.715
44.64000 -0.744
44.66000 0.095
44.68000 2.977
44.70000 6.830
44.72000 7.965
44.74000 4.494
44.76000 2.357
44.78000 -1.614
44.80000 -0.006
44.82000 1.577
44.84000 7.649
44.86000 5.834
44.88000 -1.006
44.90000 1.238
44.92000 2.136
44.94000 3.682
44.96000 0.816
44.98000 -1.364
45.00000 -2.496
45.02000 0.306
45.04000 2.902
45.06000 2.910
45.08000 4.901
45.10000 -1.964
45.12000 0.778
45.14000 1.216
45.16000 0.795
45.18000 4.377
45.20000 1.275
45.22000 2.409
45.24000 3.314
45.26000 0.656
45.28000 3.524
45.30000 3.100
45.32000 -2.751
45.34000 -1.140
45.36000 0.849
45.38000 7.364
45.40000 2.525
45.42000 -1.500
45.44000 -0.833
45.46000 3.597
45.48000 -0.098
45.50000 1.893
45.52000 6.682
45.54000 6.138
45.56000 5.236
45.58000 4.096
45.60000 3.701
45.62000 1.323
45.64000 -1.104
45.66000 7.409
45.68000 2.937
45.70000 1.617
45.72000 -0.321
45.74000 0.885
45.76000 3.187
45.78000 5.067
45.80000 5.003
45.82000 9.908
45.84000 7.567
45.86000 6.905
45.88000 7.908
45.90000 12.733
45.92000 9.294
45.94000 4.743
45.96000 5.997
45.98000 7.795
46.00000 9.160
46.02000 7.085
46.04000 8.213
46.06000 9.235
46.08000 12.278
46.10000 15.498
46.12000 20.705
46.14000 16.472
46.16000 16.556
46.18000 15.270
46.20000 16.595
46.22000 19.693
46.24000 19.866
46.26000 13.134
46.28000 19.853
46.30000 23.976
46.32000 20.256
46.34000 13.830
46.36000 21.828
46.38000 21.599
46.40000 25.101
46.42000 24.628
46.44000 20.313
46.46000 18.328
46.48000 23.123
46.50000 20.690
46.52000 16.255
46.54000 22.640
46.56000 25.622
46.58000 29.504
46.60000 25.756
46.62000 24.576
46.64000 24.205
46.66000 28.904
46.68000 29.712
46.70000 29.671
46.72000 32.482
46.74000 33.658
46.76000 31.410
46.78000 29.806
46.80000 33.738
46.82000 35.443
46.84000 36.209
46.86000 34.151
46.88000 30.799
46.90000 34.466
46.92000 37.241
46.94000 36.411
46.96000 38.397
46.98000 42.773
47.00000 45.653
47.02000 48.984
47.04000 51.744
47.06000 50.404
47.08000 45.184
47.10000 43.857
47.12000 47.657
47.14000 47.952
47.16000 48.136
47.18000 45.465
47.20000 49.033
47.22000 48.655
47.24000 47.433
47.26000 49.487
47.28000 52.069
47.30000 49.939
47.32000 49.181
47.34000 47.721
47.36000 47.035
47.38000 40.767
47.40000 45.994
47.42000 49.924
47.44000 45.279
47.46000 45.203
47.48000 46.255
47.50000 50.535
47.52000 48.534
47.54000 51.192
47.56000 49.987
47.58000 52.297
47.60000 50.764
47.62000 48.742
47.64000 43.938
47.66000 43.766
47.68000 45.304
47.70000 42.802
47.72000 44.004
47.74000 37.178
47.76000 32.317
47.78000 32.535
47.80000 34.660
47.82000 34.059
47.84000 39.572
47.86000 34.502
47.88000 31.788
47.90000 31.877
47.92000 34.716
47.94000 35.574
47.96000 28.349
47.98000 24.623
48.00000 22.009
48.02000 26.720
48.04000 29.771
48.06000 29.486
48.08000 22.777
48.10000 18.870
48.12000 18.254
48.14000 19.264
48.16000 12.802
48.18000 15.548
48.20000 18.196
48.22000 17.219
48.24000 16.348
48.26000 20.865
48.28000 20.125
48.30000 18.275
48.32000 15.581
48.34000 9.035
48.36000 16.663
48.38000 15.950
48.40000 12.930
48.42000 6.247
48.44000 7.982
48.46000 9.568
48.48000 12.113
48.50000 8.584
48.52000 8.081
48.54000 8.171
48.56000 8.423
48.58000 9.384
48.60000 9.739
48.62000 8.993
48.64000 8.254
48.66000 7.085
48.68000 9.241
48.70000 8.919
48.72000 12.587
48.74000 10.665
48.76000 4.357
48.78000 1.126
48.80000 6.646
48.82000 8.506
48.84000 2.580
48.86000 2.529
48.88000 3.901
48.90000 -3.049
48.92000 3.502
48.94000 1.555
48.96000 5.363
48.98000 10.062
49.00000 7.403
49.02000 0.437
49.04000 0.836
49.06000 5.180
49.08000 7.092
49.10000 4.167
49.12000 5.327
49.14000 5.814
49.16000 1.403
49.18000 4.248
49.20000 1.702
49.22000 1.368
49.24000 0.489
49.26000 1.786
49.28000 -0.169
49.30000 2.773
49.32000 3.885
49.34000 3.557
49.36000 3.750
49.38000 4.265
49.40000 1.153
49.42000 -0.828
49.44000 -0.206
49.46000 6.587
49.48000 5.348
49.50000 5.663
49.52000 6.272
49.54000 2.747
49.56000 5.719
49.58000 2.117
49.60000 -0.802
49.62000 -2.890
49.64000 -0.899
49.66000 -0.400
49.68000 2.336
49.70000 3.468
49.72000 1.372
49.74000 0.626
49.76000 -1.014
49.78000 3.400
49.80000 3.849
49.82000 2.827
49.84000 -0.773
49.86000 2.522
49.88000 3.447
49.90000 0.479
49.92000 3.681
49.94000 -0.179
49.96000 -1.908
49.98000 1.194
50.00000 5.841
50.02000 4.757
50.04000 5.041
50.06000 -2.927
50.08000 -0.030
50.10000 3.791
50.12000 0.709
50.14000 4.410
50.16000 6.116
50.18000 -0.009
50.20000 1.924
50.22000 4.544
50.24000 1.416
50.26000 0.686
50.28000 2.076
50.30000 -0.443
50.32000 -1.961
50.34000 -1.678
50.36000 0.599
50.38000 -2.036
50.40000 -0.044
50.42000 1.809
50.44000 1.137
50.46000 -1.880
50.48000 1.596
50.50000 5.765
50.52000 2.197
50.54000 -2.279
50.56000 -0.467
50.58000 3.262
50.60000 2.116
50.62000 0.561
50.64000 0.875
50.66000 -1.491
50.68000 1.221
50.70000 4.126
50.72000 2.918
50.74000 -1.408
50.76000 -2.884
50.78000 1.225
50.80000 5.884
50.82000 6.088
50.84000 6.046
50.86000 3.690
50.88000 -0.324
50.90000 0.840
50.92000 2.496
50.94000 3.510
50.96000 3.487
50.98000 4.343
51.00000 4.041
51.02000 2.926
51.04000 5.497
51.06000 1.556
51.08000 8.476
51.10000 4.206
51.12000 2.254
51.14000 5.625
51.16000 7.710
51.18000 1.237
51.20000 -0.394
51.22000 -0.346
51.24000 3.439
51.26000 1.832
51.28000 3.850
51.30000 2.937
51.32000 -1.104
51.34000 1.189
51.36000 2.879
51.38000 1.507
51.40000 0.329
51.42000 1.139
51.44000 0.997
51.46000 4.056
51.48000 3.919
51.50000 5.106
51.52000 2.991
51.54000 2.106
51.56000 2.801
51.58000 -2.390
51.60000 -1.012
51.62000 2.710
51.64000 6.037
51.66000 0.931
51.68000 1.324
51.70000 -2.857
51.72000 1.482
51.74000 1.911
51.76000 3.173
51.78000 6.006
51.80000 8.262
51.82000 3.175
51.84000 1.583
51.86000 7.545
51.88000 4.685
51.90000 5.221
51.92000 4.131
51.94000 2.919
51.96000 5.784
51.98000 5.229
52.00000 1.745
52.02000 2.860
52.04000 4.623
52.06000 6.722
52.08000 6.520
52.10000 5.473
52.12000 -0.097
52.14000 -1.237
52.16000 1.156
52.18000 0.218
52.20000 0.779
52.22000 4.624
52.24000 4.459
52.26000 0.842
52.28000 -0.634
52.30000 2.065
52.32000 5.148
52.34000 4.454
52.36000 4.924
52.38000 5.292
52.40000 9.098
52.42000 11.030
52.44000 5.760
52.46000 -2.803
52.48000 -0.590
52.50000 2.735
52.52000 8.049
52.54000 5.493
52.56000 0.886
52.58000 1.875
52.60000 6.342
52.62000 7.540
52.64000 3.000
52.66000 0.881
52.68000 -1.405
52.70000 2.213
52.72000 3.136
52.74000 -0.350
52.76000 1.778
52.78000 0.732
52.80000 0.439
52.82000 0.767
52.84000 2.402
52.86000 -0.186
52.88000 -1.412
52.90000 1.196
52.92000 3.678
52.94000 0.812
52.96000 -0.142
52.98000 2.227
53.00000 0.829
53.02000 2.408
53.04000 3.566
53.06000 -0.052
53.08000 1.740
53.10000 4.277
53.12000 6.948
53.14000 1.075
53.16000 -2.792
53.18000 0.724
53.20000 5.336
53.22000 0.334
53.24000 -2.154
53.26000 0.416
53.28000 3.208
53.30000 6.141
53.32000 6.863
53.34000 8.977
53.36000 5.701
53.38000 -0.033
53.40000 -1.157
53.42000 3.807
53.44000 3.899
53.46000 0.624
53.48000 0.142
53.50000 6.842
53.52000 8.939
53.54000 6.340
53.56000 2.553
53.58000 -1.496
53.60000 -1.770
53.62000 0.024
53.64000 3.950
53.66000 4.173
53.68000 4.071
53.70000 6.219
53.72000 4.448
53.74000 -0.915
53.76000 0.265
53.78000 5.278
53.80000 2.402
53.82000 -1.954
53.84000 3.764
53.86000 7.562
53.88000 1.275
53.90000 1.216
53.92000 3.040
53.94000 -0.322
53.96000 -2.770
53.98000 4.327
54.00000 2.238
54.02000 0.234
54.04000 4.301
54.06000 3.290
54.08000 3.916
54.10000 8.377
54.12000 4.930
54.14000 2.992
54.16000 0.394
54.18000 0.668
54.20000 0.283
54.22000 0.486
54.24000 5.411
54.26000 7.900
54.28000 3.338
54.30000 0.304
54.32000 3.362
54.34000 -0.481
54.36000 -1.244
54.38000 3.227
54.40000 3.059
54.42000 4.076
54.44000 5.814
54.46000 2.272
54.48000 0.770
54.50000 -2.770
54.52000 2.098
54.54000 4.901
54.56000 1.115
54.58000 4.632
54.60000 5.361
54.62000 1.835
54.64000 2.915
54.66000 4.320
54.68000 5.060
54.70000 7.937
54.72000 2.258
54.74000 -0.370
54.76000 2.103
54.78000 5.185
54.80000 8.874
54.82000 5.979
54.84000 3.039
54.86000 1.551
54.88000 3.474
54.90000 6.656
54.92000 3.505
54.94000 1.515
54.96000 -0.485
54.98000 -1.615
55.00000 6.533
55.02000 7.786
55.04000 4.241
55.06000 1.421
55.08000 1.574
55.10000 -0.456
55.12000 -2.751
55.14000 4.688
55.16000 1.554
55.18000 6.153
55.20000 4.965
55.22000 1.492
55.24000 4.917
55.26000 3.252
55.28000 1.851
55.30000 2.045
55.32000 -1.026
55.34000 3.121
55.36000 8.285
55.38000 4.928
55.40000 2.448
55.42000 -1.028
55.44000 0.709
55.46000 2.842
55.48000 0.166
55.50000 1.571
55.52000 1.950
55.54000 4.608
55.56000 3.026
55.58000 -1.515
55.60000 -2.736
55.62000 3.260
55.64000 1.113
55.66000 6.206
55.68000 -0.796
55.70000 -0.514
55.72000 4.261
55.74000 1.501
55.76000 2.809
55.78000 0.895
55.80000 -0.693
55.82000 2.413
55.84000 1.456
55.86000 3.818
55.88000 3.543
55.90000 0.815
55.92000 5.046
55.94000 6.438
55.96000 4.727
55.98000 3.580
56.00000 2.684
56.02000 1.361
56.04000 1.699
56.06000 2.481
56.08000 2.424
56.10000 2.819
56.12000 2.326
56.14000 1.883
56.16000 5.695
56.18000 2.527
56.20000 4.270
56.22000 2.794
56.24000 8.869
56.26000 7.947
56.28000 3.602
56.30000 1.131
56.32000 -1.667
56.34000 0.230
56.36000 -0.241
56.38000 1.106
56.40000 7.615
56.42000 3.989
56.44000 3.374
56.46000 4.105
56.48000 5.273
56.50000 5.150
56.52000 3.183
56.54000 1.052
56.56000 2.505
56.58000 3.108
56.60000 3.406
56.62000 5.853
56.64000 5.098
56.66000 0.683
56.68000 0.264
56.70000 3.279
56.72000 5.249
56.74000 4.220
56.76000 5.477
56.78000 2.746
56.80000 5.016
56.82000 4.234
56.84000 1.028
56.86000 -2.682
56.88000 3.788
56.90000 6.614
56.92000 5.370
56.94000 5.550
56.96000 4.414
56.98000 5.328
57.00000 2.157
57.02000 3.478
57.04000 3.621
57.06000 2.035
57.08000 -2.683
57.10000 0.518
57.12000 2.237
57.14000 0.424
57.16000 4.236
57.18000 2.161
57.20000 0.359
57.22000 1.765
57.24000 7.241
57.26000 1.807
57.28000 3.574
57.30000 -0.953
57.32000 3.992
57.34000 2.826
57.36000 1.417
57.38000 2.525
57.40000 1.529
57.42000 -2.460
57.44000 0.033
57.46000 -0.871
57.48000 1.016
57.50000 0.576
57.52000 4.500
57.54000 5.870
57.56000 4.526
57.58000 2.081
57.60000 -0.072
57.62000 0.702
57.64000 2.115
57.66000 3.667
57.68000 6.311
57.70000 5.041
57.72000 6.667
57.74000 3.835
57.76000 1.973
57.78000 1.050
57.80000 5.869
57.82000 3.912
57.84000 4.871
57.86000 7.454
57.88000 4.224
57.90000 -0.231
57.92000 -2.164
57.94000 0.638
57.96000 4.275
57.98000 2.429
58.00000 2.634
58.02000 4.595
58.04000 6.822
58.06000 -0.101
58.08000 -0.983
58.10000 -0.995
58.12000 -1.031
58.14000 -2.672
58.16000 0.221
58.18000 3.047
58.20000 0.692
58.22000 -1.413
58.24000 2.528
58.26000 5.799
58.28000 5.731
58.30000 -1.623
58.32000 -0.557
58.34000 -2.146
58.36000 0.137
58.38000 5.070
58.40000 6.971
58.42000 3.056
58.44000 4.257
58.46000 3.619
58.48000 2.448
58.50000 1.229
58.52000 3.212
58.54000 0.765
58.56000 -0.094
58.58000 -1.626
58.60000 1.207
58.62000 3.054
58.64000 2.201
58.66000 3.365
58.68000 3.202
58.70000 2.626
58.72000 0.121
58.74000 1.361
58.76000 2.489
58.78000 1.152
58.80000 -1.762
58.82000 1.453
58.84000 1.263
58.86000 0.356
58.88000 -2.465
58.90000 -2.574
58.92000 -0.095
58.94000 3.511
58.96000 4.740
58.98000 1.414
59.00000 3.312
59.02000 1.892
59.04000 4.407
59.06000 -0.877
59.08000 -1.402
59.10000 1.177
59.12000 -2.636
59.14000 -0.982
59.16000 -2.136
59.18000 0.075
59.20000 1.555
59.22000 3.445
59.24000 3.597
59.26000 4.745
59.28000 3.000
59.30000 0.307
59.32000 3.594
59.34000 6.075
59.36000 5.969
59.38000 4.359
59.40000 3.241
59.42000 0.756
59.44000 -2.367
59.46000 0.548
59.48000 -2.621
59.50000 -2.022
59.52000 0.540
59.54000 2.246
59.56000 3.962
59.58000 2.512
59.60000 -0.772
59.62000 0.312
59.64000 -1.633
59.66000 3.596
59.68000 5.463
59.70000 4.765
59.72000 5.412
59.74000 4.673
59.76000 6.140
59.78000 2.603
59.80000 -2.011
59.82000 2.292
59.84000 2.289
59.86000 -0.030
59.88000 1.436
59.90000 -0.829
59.92000 -0.051
59.94000 -1.095
59.96000 3.316
59.98000 2.198
60.00000 1.271
60.02000 1.578
60.04000 1.219
60.06000 3.554
60.08000 3.962
60.10000 2.281
60.12000 0.535
60.14000 3.394
60.16000 2.571
60.18000 6.974
60.20000 1.389
60.22000 -2.015
60.24000 3.081
60.26000 7.900
60.28000 1.372
60.30000 -2.570
60.32000 1.059
60.34000 2.755
60.36000 0.522
60.38000 -1.489
60.40000 1.923
60.42000 3.443
60.44000 1.732
60.46000 2.984
60.48000 2.053
60.50000 1.323
60.52000 3.687
60.54000 -0.959
60.56000 2.359
60.58000 3.450
60.60000 5.437
60.62000 4.697
60.64000 2.705
60.66000 2.239
60.68000 0.643
60.70000 2.589
60.72000 2.671
60.74000 3.782
60.76000 4.452
60.78000 6.460
60.80000 2.885
60.82000 4.595
60.84000 4.580
60.86000 3.006
60.88000 4.216
60.90000 -0.121
60.92000 -2.537
60.94000 -0.405
60.96000 1.577
60.98000 3.077
61.00000 4.025
61.02000 5.846
61.04000 1.825
61.06000 1.990
61.08000 0.907
61.10000 -0.098
61.12000 -1.033
61.14000 -0.127
61.16000 -0.171
61.18000 -2.383
61.20000 1.131
61.22000 3.860
61.24000 4.793
61.26000 2.322
61.28000 -0.919
61.30000 -0.195
61.32000 -1.470
61.34000 0.252
61.36000 -1.117
61.38000 3.787
61.40000 6.298
61.42000 3.470
61.44000 -1.006
61.46000 -2.099
61.48000 -2.536
61.50000 -0.371
61.52000 1.485
61.54000 1.033
61.56000 2.868
61.58000 2.488
61.60000 0.577
61.62000 -0.678
61.64000 2.929
61.66000 1.983
61.68000 3.568
61.70000 1.309
61.72000 1.484
61.74000 2.440
61.76000 1.241
61.78000 3.739
61.80000 1.432
61.82000 3.217
61.84000 1.334
61.86000 2.504
61.88000 3.144
61.90000 3.008
61.92000 -1.528
61.94000 -0.622
61.96000 1.257
61.98000 0.048
62.00000 2.093
62.02000 -1.113
62.04000 -1.352
62.06000 1.895
62.08000 2.973
62.10000 1.805
62.12000 0.129
62.14000 1.725
62.16000 5.778
62.18000 6.592
62.20000 5.760
62.22000 5.617
62.24000 1.241
62.26000 1.848
62.28000 0.162
62.30000 -0.807
62.32000 0.134
62.34000 0.045
62.36000 -2.526
62.38000 -1.416
62.40000 -0.680
62.42000 -0.125
62.44000 4.355
62.46000 0.909
62.48000 -1.761
62.50000 1.221
62.52000 -1.819
62.54000 -1.102
62.56000 -2.205
62.58000 -2.392
62.60000 0.739
62.62000 1.044
62.64000 2.028
62.66000 3.334
62.68000 -0.523
62.70000 4.942
62.72000 5.783
62.74000 0.417
62.76000 3.599
62.78000 4.478
62.80000 1.468
62.82000 -0.686
62.84000 6.072
62.86000 5.275
62.88000 3.169
62.90000 3.952
62.92000 6.930
62.94000 5.850
62.96000 0.664
62.98000 -1.843
63.00000 0.064
63.02000 0.034
63.04000 1.951
63.06000 5.490
63.08000 1.855
63.10000 1.071
63.12000 2.575
63.14000 1.425
63.16000 -2.487
63.18000 1.965
63.20000 4.649
63.22000 3.469
63.24000 0.858
63.26000 0.378
63.28000 2.372
63.30000 2.623
63.32000 0.458
63.34000 -2.118
63.36000 0.884
63.38000 3.115
63.40000 3.662
63.42000 1.199
63.44000 1.706
63.46000 3.252
63.48000 3.909
63.50000 1.419
63.52000 1.826
63.54000 3.615
63.56000 6.087
63.58000 0.478
63.60000 -0.163
63.62000 1.678
63.64000 1.294
63.66000 5.168
63.68000 4.441
63.70000 2.126
63.72000 -2.511
63.74000 -1.610
63.76000 -1.118
63.78000 1.416
63.80000 1.031
63.82000 -1.633
63.84000 -1.988
63.86000 -0.046
63.88000 2.440
63.90000 -1.185
63.92000 1.348
63.94000 1.862
63.96000 -0.355
63.98000 0.346
64.00000 1.801
64.02000 -0.416
64.04000 -0.255
64.06000 -2.104
64.08000 1.023
64.10000 1.035
64.12000 2.530
64.14000 1.226
64.16000 2.281
64.18000 1.580
64.20000 -0.984
64.22000 2.471
64.24000 4.711
64.26000 2.260
64.28000 2.049
64.30000 2.794
64.32000 1.402
64.34000 1.548
64.36000 1.041
64.38000 -0.645
64.40000 1.205
64.42000 1.048
64.44000 -1.201
64.46000 -2.256
64.48000 1.808
64.50000 0.278
64.52000 -0.899
64.54000 0.001
64.56000 0.258
64.58000 -1.443
64.60000 1.787
64.62000 -0.374
64.64000 -0.672
64.66000 -1.079
64.68000 2.894
64.70000 0.602
64.72000 0.450
64.74000 -1.170
64.76000 4.751
64.78000 2.039
64.80000 0.497
64.82000 -0.117
64.84000 1.663
64.86000 2.309
64.88000 0.025
64.90000 -0.996
64.92000 1.841
64.94000 1.476
64.96000 0.084
64.98000 2.666
65.00000 5.664
65.02000 2.347
65.04000 1.736
65.06000 1.011
65.08000 3.020
65.10000 -1.351
65.12000 1.606
65.14000 0.799
65.16000 2.674
65.18000 3.388
65.20000 1.806
65.22000 -0.381
65.24000 1.593
65.26000 5.008
65.28000 2.757
65.30000 0.333
65.32000 0.053
65.34000 -0.932
65.36000 -2.498
65.38000 5.040
65.40000 11.253
65.42000 -0.250
65.44000 -0.860
65.46000 2.678
65.48000 5.860
65.50000 1.992
65.52000 0.338
65.54000 -0.282
65.56000 0.567
65.58000 3.103
65.60000 5.576
65.62000 2.347
65.64000 2.948
65.66000 8.459
65.68000 7.420
65.70000 1.133
65.72000 1.426
65.74000 3.794
65.76000 4.114
65.78000 5.340
65.80000 -1.310
65.82000 -1.279
65.84000 -1.864
65.86000 -0.791
65.88000 -0.436
65.90000 2.095
65.92000 3.712
65.94000 0.475
65.96000 1.036
65.98000 3.142
66.00000 -1.916
66.02000 0.386
66.04000 4.462
66.06000 1.445
66.08000 2.327
66.10000 2.027
66.12000 2.538
66.14000 3.230
66.16000 -0.643
66.18000 -0.382
66.20000 -0.995
66.22000 3.362
66.24000 3.250
66.26000 1.664
66.28000 1.035
66.30000 1.495
66.32000 -1.009
66.34000 0.418
66.36000 2.889
66.38000 -0.443
66.40000 -2.525
66.42000 0.391
66.44000 2.981
66.46000 1.052
66.48000 0.921
66.50000 -2.222
66.52000 -1.635
66.54000 -0.924
66.56000 0.884
66.58000 -1.840
66.60000 -0.167
66.62000 4.569
66.64000 6.809
66.66000 2.943
66.68000 0.319
66.70000 1.445
66.72000 -1.560
66.74000 3.773
66.76000 3.120
66.78000 0.147
66.80000 -0.667
66.82000 1.067
66.84000 -0.118
66.86000 -2.528
66.88000 0.356
66.90000 3.544
66.92000 0.369
66.94000 2.288
66.96000 3.671
66.98000 -1.824
67.00000 -1.275
67.02000 -1.560
67.04000 2.455
67.06000 0.938
67.08000 3.929
67.10000 0.614
67.12000 -1.151
67.14000 -0.859
67.16000 0.768
67.18000 0.893
67.20000 -1.481
67.22000 3.371
67.24000 -0.704
67.26000 1.049
67.28000 0.534
67.30000 1.955
67.32000 5.002
67.34000 1.411
67.36000 1.942
67.38000 3.769
67.40000 4.305
67.42000 0.181
67.44000 -2.560
67.46000 0.538
67.48000 4.154
67.50000 -1.392
67.52000 -0.020
67.54000 -1.394
67.56000 0.787
67.58000 0.918
67.60000 1.025
67.62000 -0.549
67.64000 -0.950
67.66000 -0.415
67.68000 1.876
67.70000 0.783
67.72000 -0.979
67.74000 1.055
67.76000 1.612
67.78000 0.784
67.80000 -0.752
67.82000 3.162
67.84000 2.117
67.86000 1.109
67.88000 0.960
67.90000 2.972
67.92000 -1.133
67.94000 -1.396
67.96000 -1.364
67.98000 0.143
68.00000 2.153
68.02000 -2.047
68.04000 -1.093
68.06000 2.467
68.08000 4.943
68.10000 7.178
68.12000 1.710
68.14000 2.450
68.16000 0.579
68.18000 0.625
68.20000 5.538
68.22000 3.926
68.24000 0.425
68.26000 2.134
68.28000 4.684
68.30000 5.577
68.32000 8.660
68.34000 7.838
68.36000 5.929
68.38000 6.535
68.40000 3.992
68.42000 -0.127
68.44000 0.863
68.46000 4.845
68.48000 11.240
68.50000 12.901
68.52000 8.990
68.54000 9.848
68.56000 10.052
68.58000 15.440
68.60000 10.054
68.62000 8.950
68.64000 11.585
68.66000 11.764
68.68000 11.692
68.70000 11.888
68.72000 12.394
68.74000 10.906
68.76000 12.412
68.78000 12.050
68.80000 14.558
68.82000 14.858
68.84000 16.994
68.86000 15.635
68.88000 13.489
68.90000 14.788
68.92000 15.170
68.94000 14.428
68.96000 11.420
68.98000 10.368
69.00000 13.535
69.02000 20.895
69.04000 20.869
69.06000 17.697
69.08000 18.300
69.10000 17.158
69.12000 16.885
69.14000 13.599
69.16000 15.569
69.18000 17.220
69.20000 19.371
69.22000 19.307
69.24000 19.830
69.26000 20.307
69.28000 21.780
69.30000 21.725
69.32000 20.621
69.34000 16.451
69.36000 16.003
69.38000 15.314
69.40000 19.110
69.42000 20.008
69.44000 19.147
69.46000 14.813
69.48000 15.258
69.50000 12.322
69.52000 15.625
69.54000 13.744
69.56000 12.594
69.58000 14.077
69.60000 11.714
69.62000 9.732
69.64000 13.583
69.66000 14.775
69.68000 14.013
69.70000 10.069
69.72000 18.677
69.74000 14.536
69.76000 12.776
69.78000 11.244
69.80000 9.980
69.82000 8.370
69.84000 9.822
69.86000 7.333
69.88000 8.059
69.90000 9.687
69.92000 8.451
69.94000 5.687
69.96000 4.479
69.98000 9.577
70.00000 7.151
70.02000 4.636
70.04000 7.573
70.06000 5.994
70.08000 3.201
70.10000 5.299
70.12000 7.096
70.14000 8.185
70.16000 6.406
70.18000 5.577
70.20000 4.574
70.22000 4.541
70.24000 1.040
70.26000 3.191
70.28000 2.053
70.30000 5.285
70.32000 5.386
70.34000 5.893
70.36000 3.411
70.38000 3.519
70.40000 3.466
70.42000 2.370
70.44000 4.876
70.46000 4.541
70.48000 3.633
70.50000 4.913
70.52000 4.101
70.54000 6.576
70.56000 5.217
70.58000 3.322
70.60000 3.811
70.62000 5.784
70.64000 4.762
70.66000 1.322
70.68000 5.612
70.70000 4.464
70.72000 -0.057
70.74000 -2.407
70.76000 2.724
70.78000 5.301
70.80000 5.387
70.82000 4.712
70.84000 1.996
70.86000 0.408
70.88000 -2.445
70.90000 -0.633
70.92000 -0.404
70.94000 5.454
70.96000 2.983
70.98000 0.025
71.00000 2.225
71.02000 2.754
71.04000 5.355
71.06000 6.885
71.08000 4.161
71.10000 4.549
71.12000 2.227
71.14000 2.411
71.16000 6.600
71.18000 3.495
71.20000 2.591
71.22000 1.463
71.24000 0.493
71.26000 0.851
71.28000 3.989
71.30000 5.368
71.32000 2.457
71.34000 2.943
71.36000 0.798
71.38000 2.672
71.40000 -2.400
71.42000 -0.819
71.44000 0.096
71.46000 2.614
71.48000 2.553
71.50000 5.082
71.52000 9.211
71.54000 7.033
71.56000 2.262
71.58000 2.966
71.60000 3.346
71.62000 5.189
71.64000 0.962
71.66000 2.707
71.68000 6.634
71.70000 5.551
71.72000 3.675
71.74000 2.574
71.76000 -1.878
71.78000 -1.701
71.80000 -1.327
71.82000 -1.074
71.84000 1.008
71.86000 2.182
71.88000 4.058
71.90000 4.865
71.92000 2.953
71.94000 1.581
71.96000 5.105
71.98000 6.505
72.00000 2.559
72.02000 3.233
72.04000 3.171
72.06000 2.781
72.08000 2.773
72.10000 0.335
72.12000 -1.735
72.14000 -1.994
72.16000 3.186
72.18000 4.585
72.20000 2.359
72.22000 1.579
72.24000 1.841
72.26000 -1.079
72.28000 0.351
72.30000 0.509
72.32000 3.860
72.34000 7.557
72.36000 6.665
72.38000 7.271
72.40000 9.481
72.42000 7.412
72.44000 7.071
72.46000 -2.298
72.48000 -0.312
72.50000 1.296
72.52000 1.586
72.54000 -0.761
72.56000 2.941
72.58000 -0.295
72.60000 2.123
72.62000 1.513
72.64000 5.009
72.66000 2.444
72.68000 6.169
72.70000 3.608
72.72000 4.925
72.74000 4.539
72.76000 4.137
72.78000 3.846
72.80000 -0.719
72.82000 -0.651
72.84000 -1.183
72.86000 0.004
72.88000 1.792
72.90000 0.790
72.92000 -1.391
72.94000 0.227
72.96000 2.830
72.98000 4.065
73.00000 3.820
73.02000 5.402
73.04000 5.831
73.06000 8.246
73.08000 3.676
73.10000 3.894
73.12000 3.895
73.14000 5.296
73.16000 4.759
73.18000 4.732
73.20000 2.293
73.22000 -1.707
73.24000 -2.306
73.26000 -1.535
73.28000 0.748
73.30000 3.820
73.32000 0.298
73.34000 0.486
73.36000 4.196
73.38000 4.266
73.40000 1.672
73.42000 -1.676
73.44000 -2.011
73.46000 2.699
73.48000 5.396
73.50000 1.707
73.52000 -0.536
73.54000 1.165
73.56000 3.763
73.58000 3.955
73.60000 4.282
73.62000 2.033
73.64000 3.423
73.66000 2.919
73.68000 1.552
73.70000 1.229
73.72000 -2.307
73.74000 -2.277
73.76000 3.013
73.78000 3.209
73.80000 0.372
73.82000 0.107
73.84000 1.563
73.86000 4.138
73.88000 4.742
73.90000 -1.278
73.92000 -2.282
73.94000 1.310
73.96000 0.870
73.98000 -0.999
74.00000 0.675
74.02000 5.400
74.04000 0.207
74.06000 1.505
74.08000 2.843
74.10000 -0.596
74.12000 -0.058
74.14000 2.458
74.16000 4.388
74.18000 3.740
74.20000 4.682
74.22000 1.830
74.24000 3.446
74.26000 2.891
74.28000 0.942
74.30000 0.132
74.32000 -2.309
74.34000 -0.651
74.36000 3.448
74.38000 4.693
74.40000 1.522
74.42000 0.158
74.44000 2.980
74.46000 3.086
74.48000 3.937
74.50000 3.410
74.52000 1.604
74.54000 2.306
74.56000 0.815
74.58000 -2.090
74.60000 0.541
74.62000 2.310
74.64000 0.380
74.66000 1.077
74.68000 6.656
74.70000 1.647
74.72000 1.924
74.74000 -2.304
74.76000 -1.746
74.78000 3.694
74.80000 2.370
74.82000 3.119
74.84000 3.117
74.86000 3.805
74.88000 -0.922
74.90000 -0.379
74.92000 1.262
74.94000 -0.732
74.96000 4.209
74.98000 6.365
75.00000 4.697
75.02000 2.533
75.04000 1.673
75.06000 3.674
75.08000 0.233
75.10000 -0.433
75.12000 -0.698
75.14000 0.731
75.16000 5.953
75.18000 3.300
75.20000 1.868
75.22000 3.485
75.24000 4.585
75.26000 4.062
75.28000 3.029
75.30000 2.365
75.32000 4.168
75.34000 3.995
75.36000 4.864
75.38000 5.875
75.40000 5.400
75.42000 8.130
75.44000 6.146
75.46000 1.993
75.48000 0.785
75.50000 3.816
75.52000 2.042
75.54000 -2.277
75.56000 -0.803
75.58000 1.559
75.60000 6.903
75.62000 7.543
75.64000 8.066
75.66000 4.368
75.68000 3.706
75.70000 3.346
75.72000 3.055
75.74000 2.864
75.76000 3.057
75.78000 0.815
75.80000 2.025
75.82000 0.509
75.84000 -1.599
75.86000 0.895
75.88000 1.563
75.90000 2.175
75.92000 2.722
75.94000 6.922
75.96000 6.732
75.98000 7.640
76.00000 4.497
76.02000 3.638
76.04000 -0.734
76.06000 0.918
76.08000 6.393
76.10000 1.116
76.12000 1.338
76.14000 6.003
76.16000 3.847
76.18000 8.027
76.20000 7.227
76.22000 5.547
76.24000 -0.309
76.26000 0.799
76.28000 6.241
76.30000 6.350
76.32000 6.422
76.34000 4.753
76.36000 0.888
76.38000 5.110
76.40000 5.168
76.42000 2.804
76.44000 4.888
76.46000 2.759
76.48000 4.473
76.50000 5.754
76.52000 -1.262
76.54000 2.835
76.56000 -0.211
76.58000 -0.596
76.60000 -0.993
76.62000 2.545
76.64000 6.919
76.66000 3.776
76.68000 0.405
76.70000 0.642
76.72000 1.930
76.74000 2.483
76.76000 4.043
76.78000 5.401
76.80000 7.306
76.82000 9.600
76.84000 4.748
76.86000 3.887
76.88000 4.007
76.90000 1.668
76.92000 4.648
76.94000 6.604
76.96000 4.487
76.98000 3.321
77.00000 2.674
77.02000 0.399
77.04000 5.699
77.06000 1.023
77.08000 2.686
77.10000 -2.294
77.12000 0.179
77.14000 8.152
77.16000 5.147
77.18000 8.669
77.20000 6.855
77.22000 6.924
77.24000 5.085
77.26000 6.302
77.28000 0.715
77.30000 0.666
77.32000 3.033
77.34000 0.873
77.36000 4.504
77.38000 2.575
77.40000 3.621
77.42000 6.016
77.44000 7.812
77.46000 6.448
77.48000 5.856
77.50000 5.415
77.52000 3.533
77.54000 -2.308
77.56000 3.131
77.58000 5.541
77.60000 4.774
77.62000 3.254
77.64000 3.081
77.66000 3.760
77.68000 2.954
77.70000 4.245
77.72000 2.788
77.74000 4.828
77.76000 5.596
77.78000 1.609
77.80000 1.525
77.82000 4.833
77.84000 7.324
77.86000 1.721
77.88000 3.125
77.90000 8.000
77.92000 7.141
77.94000 3.245
77.96000 3.402
77.98000 2.959
78.00000 2.103
78.02000 2.079
78.04000 5.427
78.06000 8.027
78.08000 6.252
78.10000 2.550
78.12000 0.833
78.14000 5.597
78.16000 4.018
78.18000 3.814
78.20000 4.718
78.22000 0.856
78.24000 3.505
78.26000 4.867
78.28000 4.686
78.30000 -2.326
78.32000 -0.825
78.34000 -0.752
78.36000 -0.619
78.38000 3.088
78.40000 4.883
78.42000 1.683
78.44000 0.934
78.46000 3.331
78.48000 1.298
78.50000 5.838
78.52000 3.130
78.54000 -0.881
78.56000 2.322
78.58000 5.682
78.60000 4.444
78.62000 3.179
78.64000 0.701
78.66000 2.728
78.68000 4.530
78.70000 1.205
78.72000 0.710
78.74000 3.828
78.76000 6.192
78.78000 5.675
78.80000 7.634
78.82000 9.410
78.84000 2.762
78.86000 9.698
78.88000 4.712
78.90000 1.593
78.92000 2.421
78.94000 0.986
78.96000 2.487
78.98000 1.991
79.00000 4.868
79.02000 4.929
79.04000 5.755
79.06000 3.394
79.08000 5.146
79.10000 0.669
79.12000 -2.342
79.14000 1.114
79.16000 3.622
79.18000 1.940
79.20000 0.876
79.22000 5.199
79.24000 6.625
79.26000 4.060
79.28000 0.722
79.30000 2.092
79.32000 1.313
79.34000 2.361
79.36000 2.524
79.38000 1.000
79.40000 3.345
79.42000 6.340
79.44000 3.764
79.46000 4.770
79.48000 2.961
79.50000 2.588
79.52000 -0.076
79.54000 3.804
79.56000 2.397
79.58000 3.055
79.60000 5.110
79.62000 5.589
79.64000 3.952
79.66000 2.378
79.68000 2.486
79.70000 3.620
79.72000 -1.443
79.74000 -2.345
79.76000 0.939
79.78000 3.903
79.80000 4.850
79.82000 5.169
79.84000 3.691
79.86000 2.344
79.88000 0.354
79.90000 0.141
79.92000 5.101
79.94000 8.813
79.96000 6.592
79.98000 3.796
80.00000 4.721
80.02000 6.014
80.04000 5.178
80.06000 6.686
80.08000 6.111
80.10000 3.928
80.12000 5.674
80.14000 7.399
80.16000 6.666
80.18000 5.005
80.20000 3.245
80.22000 3.129
80.24000 3.914
80.26000 3.572
80.28000 3.465
80.30000 2.027
80.32000 3.760
80.34000 4.000
80.36000 5.528
80.38000 3.382
80.40000 2.593
80.42000 2.693
80.44000 5.088
80.46000 0.235
80.48000 6.669
80.50000 5.774
80.52000 5.834
80.54000 5.702
80.56000 4.026
80.58000 -2.352
80.60000 3.392
80.62000 4.508
80.64000 7.303
80.66000 8.299
80.68000 6.287
80.70000 7.317
80.72000 3.823
80.74000 6.330
80.76000 8.097
80.78000 3.283
80.80000 1.703
80.82000 4.275
80.84000 4.354
80.86000 0.580
80.88000 3.697
80.90000 1.228
80.92000 3.081
80.94000 5.810
80.96000 2.839
80.98000 7.135
81.00000 7.196
81.02000 3.732
81.04000 2.594
81.06000 3.532
81.08000 4.616
81.10000 0.197
81.12000 -2.384
81.14000 2.239
81.16000 3.080
81.18000 3.665
81.20000 4.447
81.22000 5.723
81.24000 3.476
81.26000 0.111
81.28000 2.698
81.30000 2.214
81.32000 1.169
81.34000 6.208
81.36000 5.428
81.38000 1.658
81.40000 0.971
81.42000 -1.505
81.44000 -0.217
81.46000 0.342
81.48000 0.834
81.50000 4.665
81.52000 4.833
81.54000 2.943
81.56000 3.889
81.58000 2.942
81.60000 3.421
81.62000 2.647
81.64000 7.622
81.66000 8.922
81.68000 -0.521
81.70000 1.853
81.72000 2.380
81.74000 1.704
81.76000 0.037
81.78000 2.577
81.80000 2.959
81.82000 3.160
81.84000 3.112
81.86000 2.942
81.88000 1.549
81.90000 -0.364
81.92000 -1.175
81.94000 3.327
81.96000 0.157
81.98000 1.324
82.00000 2.933
82.02000 2.560
82.04000 1.327
82.06000 3.967
82.08000 2.680
82.10000 2.494
82.12000 2.956
82.14000 9.634
82.16000 3.615
82.18000 1.334
82.20000 2.178
82.22000 6.523
82.24000 6.085
82.26000 9.186
82.28000 5.360
82.30000 2.234
82.32000 4.571
82.34000 7.373
82.36000 7.995
82.38000 7.759
82.40000 7.145
82.42000 6.431
82.44000 6.709
82.46000 11.767
82.48000 9.773
82.50000 1.690
82.52000 0.276
82.54000 5.137
82.56000 6.666
82.58000 6.157
82.60000 5.114
82.62000 8.015
82.64000 7.423
82.66000 10.950
82.68000 10.609
82.70000 9.213
82.72000 9.081
82.74000 13.974
82.76000 13.463
82.78000 9.593
82.80000 9.874
82.82000 11.347
82.84000 11.711
82.86000 13.403
82.88000 13.372
82.90000 12.451
82.92000 14.831
82.94000 14.334
82.96000 11.712
82.98000 12.220
83.00000 13.255
83.02000 15.933
83.04000 14.143
83.06000 11.051
83.08000 14.127
83.10000 14.773
83.12000 17.317
83.14000 14.838
83.16000 17.333
83.18000 17.578
83.20000 14.794
83.22000 20.944
83.24000 17.038
83.26000 11.766
83.28000 16.086
83.30000 20.254
83.32000 22.445
83.34000 23.182
83.36000 18.057
83.38000 18.094
83.40000 20.917
83.42000 26.213
83.44000 24.730
83.46000 21.489
83.48000 17.585
83.50000 18.476
83.52000 25.628
83.54000 22.843
83.56000 18.789
83.58000 20.297
83.60000 19.150
83.62000 19.272
83.64000 22.357
83.66000 21.135
83.68000 25.032
83.70000 24.166
83.72000 23.684
83.74000 23.064
83.76000 22.377
83.78000 22.126
83.80000 18.529
83.82000 17.485
83.84000 18.717
83.86000 20.016
83.88000 17.287
83.90000 21.454
83.92000 20.067
83.94000 19.105
83.96000 20.975
83.98000 12.952
84.00000 14.694
84.02000 20.051
84.04000 24.582
84.06000 21.989
84.08000 18.880
84.10000 17.429
84.12000 15.051
84.14000 14.563
84.16000 12.709
84.18000 14.497
84.20000 15.191
84.22000 11.909
84.24000 12.574
84.26000 16.687
84.28000 13.030
84.30000 12.126
84.32000 12.890
84.34000 11.389
84.36000 10.159
84.38000 7.423
84.40000 11.790
84.42000 13.464
84.44000 9.745
84.46000 5.607
84.48000 4.268
84.50000 8.309
84.52000 10.609
84.54000 11.743
84.56000 8.701
84.58000 7.784
84.60000 5.087
84.62000 2.472
84.64000 3.901
84.66000 6.543
84.68000 6.545
84.70000 11.169
84.72000 9.410
84.74000 5.868
84.76000 8.330
84.78000 9.694
84.80000 6.402
84.82000 7.732
84.84000 9.951
84.86000 9.245
84.88000 8.381
84.90000 8.615
84.92000 10.145
84.94000 5.067
84.96000 6.168
84.98000 4.003
85.00000 3.232
85.02000 6.775
85.04000 4.389
85.06000 3.759
85.08000 4.104
85.10000 4.074
85.12000 4.353
85.14000 1.400
85.16000 4.140
85.18000 3.105
85.20000 3.822
85.22000 9.329
85.24000 4.735
85.26000 3.358
85.28000 4.085
85.30000 0.120
85.32000 -2.398
85.34000 2.652
85.36000 2.093
85.38000 5.312
85.40000 1.399
85.42000 4.490
85.44000 4.469
85.46000 3.521
85.48000 3.828
85.50000 1.154
85.52000 3.025
85.54000 1.935
85.56000 -1.349
85.58000 2.949
85.60000 6.922
85.62000 3.023
85.64000 0.508
85.66000 1.634
85.68000 0.989
85.70000 2.407
85.72000 -0.668
85.74000 1.528
85.76000 3.824
85.78000 3.095
85.80000 2.866
85.82000 3.251
85.84000 4.096
85.86000 0.850
85.88000 0.380
85.90000 1.451
85.92000 1.029
85.94000 1.456
85.96000 -0.285
85.98000 2.551
86.00000 1.643
86.02000 4.448
86.04000 2.208
86.06000 -1.065
86.08000 -0.029
86.10000 -0.945
86.12000 -1.414
86.14000 -2.322
86.16000 4.017
86.18000 1.160
86.20000 -0.906
86.22000 -0.591
86.24000 0.006
86.26000 3.161
86.28000 7.467
86.30000 1.830
86.32000 -0.014
86.34000 -0.773
86.36000 0.983
86.38000 1.486
86.40000 1.529
86.42000 0.217
86.44000 2.826
86.46000 1.733
86.48000 -1.349
86.50000 -0.054
86.52000 0.951
86.54000 1.758
86.56000 6.288
86.58000 2.484
86.60000 -0.265
86.62000 -2.375
86.64000 1.710
86.66000 7.581
86.68000 2.839
86.70000 0.326
86.72000 3.568
86.74000 -0.704
86.76000 -0.384
86.78000 -0.751
86.80000 4.935
86.82000 5.688
86.84000 1.819
86.86000 3.532
86.88000 5.226
86.90000 8.011
86.92000 8.348
86.94000 3.546
86.96000 2.829
86.98000 4.646
87.00000 4.084
87.02000 6.292
87.04000 11.096
87.06000 7.747
87.08000 3.232
87.10000 6.049
87.12000 3.143
87.14000 3.871
87.16000 6.841
87.18000 9.632
87.20000 12.245
87.22000 8.083
87.24000 4.098
87.26000 6.003
87.28000 7.186
87.30000 9.229
87.32000 6.206
87.34000 4.698
87.36000 10.352
87.38000 7.125
87.40000 8.911
87.42000 8.671
87.44000 7.020
87.46000 7.704
87.48000 9.962
87.50000 7.857
87.52000 13.197
87.54000 13.290
87.56000 16.025
87.58000 9.879
87.60000 8.856
87.62000 18.599
87.64000 13.458
87.66000 15.342
87.68000 17.312
87.70000 15.663
87.72000 15.784
87.74000 13.076
87.76000 10.943
87.78000 17.275
87.80000 17.588
87.82000 18.129
87.84000 16.733
87.86000 15.243
87.88000 17.405
87.90000 19.975
87.92000 21.507
87.94000 21.189
87.96000 20.201
87.98000 16.884
88.00000 18.870
88.02000 16.145
88.04000 13.960
88.06000 20.542
88.08000 25.231
88.10000 23.918
88.12000 16.436
88.14000 20.003
88.16000 22.643
88.18000 23.951
88.20000 22.409
88.22000 19.819
88.24000 20.617
88.26000 27.639
88.28000 32.090
88.30000 25.873
88.32000 20.824
88.34000 16.906
88.36000 22.332
88.38000 26.803
88.40000 21.213
88.42000 20.872
88.44000 19.229
88.46000 22.621
88.48000 22.275
88.50000 19.279
88.52000 19.091
88.54000 15.815
88.56000 15.992
88.58000 21.607
88.60000 23.504
88.62000 13.328
88.64000 12.421
88.66000 15.159
88.68000 11.770
88.70000 11.095
88.72000 12.364
88.74000 14.375
88.76000 19.682
88.78000 15.631
88.80000 15.342
88.82000 15.438
88.84000 15.427
88.86000 11.676
88.88000 8.317
88.90000 13.170
88.92000 14.152
88.94000 13.146
88.96000 12.845
88.98000 8.541
89.00000 4.901
89.02000 4.779
89.04000 7.107
89.06000 8.107
89.08000 8.705
89.10000 12.264
89.12000 9.650
89.14000 13.681
89.16000 6.134
89.18000 7.810
89.20000 5.113
89.22000 5.387
89.24000 3.727
89.26000 4.521
89.28000 8.009
89.30000 3.751
89.32000 4.366
89.34000 3.767
89.36000 2.310
89.38000 8.123
89.40000 2.983
89.42000 3.909
89.44000 6.081
89.46000 7.631
89.48000 7.881
89.50000 8.095
89.52000 7.604
89.54000 5.019
89.56000 3.290
89.58000 2.436
89.60000 2.267
89.62000 1.904
89.64000 1.896
89.66000 1.782
89.68000 1.896
89.70000 2.403
89.72000 6.324
89.74000 6.229
89.76000 6.372
89.78000 -1.160
89.80000 -1.156
89.82000 5.177
89.84000 4.500
89.86000 4.971
89.88000 3.560
89.90000 0.691
89.92000 2.411
89.94000 4.078
89.96000 0.218
89.98000 0.000
90.00000 4.105
90.02000 5.493
90.04000 3.521
90.06000 0.597
90.08000 1.370
90.10000 4.213
90.12000 5.129
90.14000 5.842
90.16000 4.062
90.18000 3.515
90.20000 1.511
90.22000 3.383
90.24000 -0.374
90.26000 3.112
90.28000 6.518
90.30000 4.305
90.32000 2.253
90.34000 -1.979
90.36000 -1.611
90.38000 -2.218
90.40000 -0.148
90.42000 5.863
90.44000 5.657
90.46000 4.804
90.48000 2.945
90.50000 3.525
90.52000 4.700
90.54000 3.908
90.56000 2.714
90.58000 2.389
90.60000 -2.210
90.62000 0.652
90.64000 5.581
90.66000 1.161
90.68000 1.422
90.70000 2.233
90.72000 1.825
90.74000 7.131
90.76000 3.745
90.78000 0.759
90.80000 1.346
90.82000 3.719
90.84000 6.069
90.86000 8.871
90.88000 3.427
90.90000 1.177
90.92000 4.021
90.94000 3.065
90.96000 0.369
90.98000 -1.316
91.00000 -2.133
91.02000 3.074
91.04000 1.566
91.06000 2.266
91.08000 0.511
91.10000 2.659
91.12000 0.381
91.14000 0.627
91.16000 -0.253
91.18000 0.351
91.20000 5.018
91.22000 7.021
91.24000 4.869
91.26000 4.217
91.28000 7.493
91.30000 2.758
91.32000 1.275
91.34000 2.002
91.36000 0.712
91.38000 -2.224
91.40000 3.549
91.42000 4.290
91.44000 0.966
91.46000 0.548
91.48000 1.550
91.50000 1.028
91.52000 1.843
91.54000 1.154
91.56000 2.741
91.58000 4.245
91.60000 3.348
91.62000 1.726
91.64000 3.941
91.66000 0.814
91.68000 3.397
91.70000 0.864
91.72000 3.185
91.74000 -0.699
91.76000 1.067
91.78000 3.559
91.80000 7.942
91.82000 2.824
91.84000 1.959
91.86000 -0.099
91.88000 0.846
91.90000 7.660
91.92000 7.824
91.94000 4.425
91.96000 1.641
91.98000 1.250
92.00000 0.397
92.02000 5.252
92.04000 3.520
92.06000 4.358
92.08000 9.580
92.10000 6.141
92.12000 0.590
92.14000 -0.442
92.16000 3.366
92.18000 9.788
92.20000 7.541
92.22000 6.813
92.24000 2.487
92.26000 3.045
92.28000 7.275
92.30000 6.653
92.32000 3.749
92.34000 2.063
92.36000 5.044
92.38000 5.458
92.40000 3.599
92.42000 2.247
92.44000 -2.177
92.46000 -0.803
92.48000 0.813
92.50000 0.413
92.52000 -1.840
92.54000 2.918
92.56000 0.640
92.58000 3.256
92.60000 6.612
92.62000 0.907
92.64000 2.121
92.66000 4.398
92.68000 7.604
92.70000 7.256
92.72000 6.171
92.74000 3.777
92.76000 3.837
92.78000 3.325
92.80000 4.424
92.82000 4.164
92.84000 1.126
92.86000 0.198
92.88000 1.693
92.90000 2.909
92.92000 6.688
92.94000 2.542
92.96000 3.962
92.98000 3.120
93.00000 2.786
93.02000 3.869
93.04000 2.033
93.06000 2.517
93.08000 1.893
93.10000 4.998
93.12000 3.754
93.14000 4.420
93.16000 1.765
93.18000 5.197
93.20000 3.256
93.22000 4.396
93.24000 0.572
93.26000 0.031
93.28000 2.550
93.30000 5.716
93.32000 5.297
93.34000 6.715
93.36000 5.723
93.38000 2.129
93.40000 0.830
93.42000 4.123
93.44000 3.476
93.46000 2.777
93.48000 5.397
93.50000 5.668
93.52000 -0.375
93.54000 3.509
93.56000 2.270
93.58000 3.719
93.60000 2.799
93.62000 -0.602
93.64000 0.318
93.66000 4.139
93.68000 5.786
93.70000 3.767
93.72000 6.241
93.74000 3.070
93.76000 8.401
93.78000 5.211
93.80000 6.489
93.82000 2.285
93.84000 4.141
93.86000 6.285
93.88000 2.401
93.90000 2.589
93.92000 0.835
93.94000 6.168
93.96000 1.597
93.98000 1.298
94.00000 -0.566
94.02000 1.706
94.04000 5.433
94.06000 8.142
94.08000 5.785
94.10000 6.059
94.12000 10.404
94.14000 7.551
94.16000 1.490
94.18000 6.026
94.20000 5.838
94.22000 5.485
94.24000 2.812
94.26000 3.639
94.28000 -2.189
94.30000 0.647
94.32000 -1.288
94.34000 0.387
94.36000 5.759
94.38000 7.904
94.40000 6.959
94.42000 11.696
94.44000 9.092
94.46000 11.650
94.48000 11.385
94.50000 10.911
94.52000 6.065
94.54000 6.216
94.56000 7.566
94.58000 6.145
94.60000 6.783
94.62000 8.717
94.64000 5.767
94.66000 3.825
94.68000 5.028
94.70000 3.034
94.72000 3.271
94.74000 8.255
94.76000 9.346
94.78000 6.474
94.80000 5.034
94.82000 3.674
94.84000 6.804
94.86000 4.792
94.88000 0.870
94.90000 1.511
94.92000 4.223
94.94000 6.278
94.96000 4.451
94.98000 3.882
95.00000 5.955
95.02000 2.918
95.04000 3.845
95.06000 7.911
95.08000 4.862
95.10000 2.405
95.12000 4.659
95.14000 9.795
95.16000 8.010
95.18000 8.276
95.20000 6.587
95.22000 10.233
95.24000 10.474
95.26000 7.813
95.28000 0.870
95.30000 1.036
95.32000 2.632
95.34000 7.459
95.36000 5.806
95.38000 4.307
95.40000 9.188
95.42000 6.628
95.44000 1.303
95.46000 0.470
95.48000 2.898
95.50000 3.409
95.52000 10.826
95.54000 10.568
95.56000 0.650
95.58000 -2.221
95.60000 9.271
95.62000 9.875
95.64000 12.958
95.66000 3.175
95.68000 5.013
95.70000 10.945
95.72000 8.771
95.74000 8.094
95.76000 2.185
95.78000 3.771
95.80000 4.352
95.82000 -0.005
95.84000 0.700
95.86000 6.700
95.88000 6.888
95.90000 7.980
95.92000 2.982
95.94000 -1.904
95.96000 -1.913
95.98000 2.531
96.00000 3.533
96.02000 5.723
96.04000 4.234
96.06000 8.803
96.08000 6.133
96.10000 5.120
96.12000 4.672
96.14000 6.170
96.16000 7.600
96.18000 10.797
96.20000 7.918
96.22000 4.800
96.24000 6.231
96.26000 7.289
96.28000 4.449
96.30000 6.072
96.32000 6.079
96.34000 11.932
96.36000 6.090
96.38000 0.416
96.40000 11.349
96.42000 12.269
96.44000 4.808
96.46000 -2.198
96.48000 3.462
96.50000 1.752
96.52000 2.410
96.54000 6.393
96.56000 6.677
96.58000 8.184
96.60000 5.746
96.62000 7.324
96.64000 9.594
96.66000 10.388
96.68000 8.144
96.70000 4.006
96.72000 1.272
96.74000 9.305
96.76000 8.276
96.78000 6.133
96.80000 7.769
96.82000 -0.401
96.84000 4.382
96.86000 7.147
96.88000 7.235
96.90000 8.147
96.92000 11.904
96.94000 9.295
96.96000 3.809
96.98000 4.612
97.00000 6.201
97.02000 8.052
97.04000 14.027
97.06000 10.408
97.08000 9.507
97.10000 3.837
97.12000 4.618
97.14000 2.304
97.16000 4.671
97.18000 4.583
97.20000 8.012
97.22000 7.139
97.24000 8.362
97.26000 7.494
97.28000 9.932
97.30000 7.245
97.32000 4.463
97.34000 -2.177
97.36000 0.207
97.38000 3.126
97.40000 9.981
97.42000 9.204
97.44000 3.256
97.46000 2.577
97.48000 3.582
97.50000 9.109
97.52000 5.081
97.54000 9.855
97.56000 11.169
97.58000 10.883
97.60000 4.228
97.62000 -0.679
97.64000 1.243
97.66000 4.794
97.68000 7.036
97.70000 1.401
97.72000 9.961
97.74000 8.764
97.76000 8.152
97.78000 3.768
97.80000 0.843
97.82000 2.015
97.84000 1.673
97.86000 4.454
97.88000 8.755
97.90000 10.683
97.92000 10.848
97.94000 4.201
97.96000 0.189
97.98000 4.501
98.00000 4.505
98.02000 3.994
98.04000 4.943
98.06000 10.959
98.08000 9.086
98.10000 10.872
98.12000 4.421
98.14000 2.338
98.16000 1.262
98.18000 3.703
98.20000 8.345
98.22000 -0.708
98.24000 -0.108
98.26000 1.016
98.28000 0.729
98.30000 0.309
98.32000 6.663
98.34000 11.730
98.36000 6.057
98.38000 3.378
98.40000 6.536
98.42000 9.637
98.44000 6.442
98.46000 3.513
98.48000 2.972
98.50000 11.272
98.52000 7.081
98.54000 1.087
98.56000 -2.149
98.58000 -0.816
98.60000 -0.311
98.62000 3.210
98.64000 8.019
98.66000 6.903
98.68000 3.409
98.70000 0.096
98.72000 2.090
98.74000 -1.238
98.76000 -0.150
98.78000 4.936
98.80000 5.981
98.82000 0.279
98.84000 -1.683
98.86000 6.230
98.88000 4.163
98.90000 8.385
98.92000 7.972
98.94000 7.739
98.96000 6.294
98.98000 -0.909
99.00000 -1.350
99.02000 2.937
99.04000 4.272
99.06000 4.286
99.08000 6.571
99.10000 11.787
99.12000 4.278
99.14000 -0.229
99.16000 12.263
99.18000 13.037
99.20000 6.641
99.22000 7.990
99.24000 7.804
99.26000 12.919
99.28000 8.272
99.30000 1.538
99.32000 1.004
99.34000 3.320
99.36000 9.516
99.38000 -4.366
99.40000 3.593
99.42000 6.108
99.44000 -1.172
99.46000 -1.171
99.48000 2.542
99.50000 -2.229
99.52000 5.794
99.54000 -0.770
99.56000 -0.812
99.58000 1.895
99.60000 10.086
99.62000 3.223
99.64000 7.770
99.66000 10.044
99.68000 -2.841
99.70000 1.272
99.72000 3.427
99.74000 2.954
99.76000 7.222
99.78000 6.286
99.80000 -2.263
99.82000 0.229
99.84000 0.420
99.86000 3.101
99.88000 2.343
99.90000 1.377
99.92000 0.290
99.94000 -2.294
99.96000 6.438
99.98000 0.000
