'Id: "0011387" Comment: "Integrate frame 0011387_Au-Ir-Rh_Rh-rich_XRD-Mapping-266-0000.gfrmwith cursor Wedge Cursor #5" Operator: "B?rgel" Anode: "Cu" Wavelength: "1.5406" Scantype: "2Theta (TwoTheta)" TimePerStep: "1" X: "-13.5" Y: "22.5" Z: "5.95" 
10.00000 0.000
10.02000 0.766
10.04000 -4.298
10.06000 4.158
10.08000 26.428
10.10000 31.139
10.12000 28.897
10.14000 28.184
10.16000 28.963
10.18000 18.495
10.20000 -0.559
10.22000 -4.252
10.24000 14.102
10.26000 10.569
10.28000 13.402
10.30000 33.652
10.32000 22.988
10.34000 29.038
10.36000 26.022
10.38000 24.209
10.40000 11.356
10.42000 17.199
10.44000 25.101
10.46000 7.183
10.48000 -2.146
10.50000 1.390
10.52000 12.101
10.54000 23.222
10.56000 4.557
10.58000 29.884
10.60000 34.755
10.62000 29.571
10.64000 27.524
10.66000 23.172
10.68000 23.139
10.70000 28.832
10.72000 10.089
10.74000 9.765
10.76000 14.578
10.78000 21.424
10.80000 16.580
10.82000 5.886
10.84000 8.761
10.86000 29.203
10.88000 33.245
10.90000 26.487
10.92000 10.120
10.94000 -0.663
10.96000 7.982
10.98000 18.827
11.00000 19.226
11.02000 26.176
11.04000 37.005
11.06000 29.081
11.08000 19.728
11.10000 16.378
11.12000 14.949
11.14000 12.467
11.16000 19.253
11.18000 11.807
11.20000 18.809
11.22000 21.764
11.24000 20.133
11.26000 11.698
11.28000 11.847
11.30000 10.181
11.32000 8.823
11.34000 15.051
11.36000 9.607
11.38000 7.134
11.40000 1.813
11.42000 14.802
11.44000 6.402
11.46000 9.380
11.48000 10.117
11.50000 7.243
11.52000 6.055
11.54000 13.494
11.56000 12.753
11.58000 25.683
11.60000 38.123
11.62000 26.229
11.64000 17.474
11.66000 12.816
11.68000 22.474
11.70000 17.748
11.72000 18.936
11.74000 13.467
11.76000 14.646
11.78000 14.253
11.80000 18.128
11.82000 18.372
11.84000 11.075
11.86000 10.389
11.88000 15.250
11.90000 21.623
11.92000 15.582
11.94000 14.115
11.96000 3.402
11.98000 -0.904
12.00000 0.764
12.02000 7.337
12.04000 22.407
12.06000 23.192
12.08000 10.903
12.10000 12.818
12.12000 16.110
12.14000 18.318
12.16000 27.413
12.18000 25.555
12.20000 27.610
12.22000 19.433
12.24000 15.307
12.26000 11.008
12.28000 12.942
12.30000 4.810
12.32000 -4.337
12.34000 -4.442
12.36000 6.047
12.38000 4.503
12.40000 4.186
12.42000 2.517
12.44000 9.834
12.46000 9.291
12.48000 18.712
12.50000 20.415
12.52000 19.912
12.54000 17.138
12.56000 16.767
12.58000 13.926
12.60000 9.099
12.62000 8.122
12.64000 9.358
12.66000 21.485
12.68000 15.340
12.70000 9.950
12.72000 16.697
12.74000 17.989
12.76000 21.983
12.78000 10.850
12.80000 15.475
12.82000 19.453
12.84000 15.259
12.86000 26.128
12.88000 18.302
12.90000 12.447
12.92000 7.726
12.94000 19.568
12.96000 15.137
12.98000 9.597
13.00000 5.719
13.02000 9.827
13.04000 7.989
13.06000 5.993
13.08000 10.779
13.10000 6.175
13.12000 12.063
13.14000 11.174
13.16000 7.576
13.18000 16.419
13.20000 13.904
13.22000 13.811
13.24000 13.176
13.26000 8.035
13.28000 2.042
13.30000 8.269
13.32000 16.260
13.34000 14.481
13.36000 8.420
13.38000 15.399
13.40000 4.556
13.42000 -0.363
13.44000 3.647
13.46000 12.224
13.48000 16.756
13.50000 11.812
13.52000 12.340
13.54000 20.029
13.56000 20.932
13.58000 16.006
13.60000 8.554
13.62000 14.397
13.64000 4.913
13.66000 9.577
13.68000 4.573
13.70000 3.851
13.72000 4.104
13.74000 19.861
13.76000 8.998
13.78000 -0.939
13.80000 -2.540
13.82000 -4.489
13.84000 -4.233
13.86000 2.688
13.88000 7.891
13.90000 11.049
13.92000 14.859
13.94000 11.989
13.96000 6.641
13.98000 9.698
14.00000 20.301
14.02000 19.070
14.04000 19.108
14.06000 24.173
14.08000 12.630
14.10000 1.862
14.12000 6.462
14.14000 13.791
14.16000 9.934
14.18000 13.615
14.20000 9.371
14.22000 5.240
14.24000 2.274
14.26000 5.397
14.28000 -0.223
14.30000 -2.601
14.32000 1.493
14.34000 11.517
14.36000 18.573
14.38000 18.096
14.40000 16.675
14.42000 8.915
14.44000 9.743
14.46000 12.774
14.48000 13.495
14.50000 12.244
14.52000 17.678
14.54000 18.614
14.56000 7.406
14.58000 12.637
14.60000 4.919
14.62000 -1.924
14.64000 1.522
14.66000 3.593
14.68000 -0.019
14.70000 -4.478
14.72000 2.012
14.74000 11.223
14.76000 12.563
14.78000 14.529
14.80000 4.197
14.82000 9.965
14.84000 13.119
14.86000 7.957
14.88000 1.676
14.90000 3.821
14.92000 8.766
14.94000 14.780
14.96000 13.568
14.98000 4.904
15.00000 5.069
15.02000 10.902
15.04000 9.241
15.06000 12.144
15.08000 11.304
15.10000 -0.738
15.12000 2.046
15.14000 9.715
15.16000 -0.413
15.18000 -0.845
15.20000 6.592
15.22000 8.256
15.24000 6.689
15.26000 10.621
15.28000 11.318
15.30000 12.239
15.32000 17.093
15.34000 12.264
15.36000 -1.068
15.38000 -2.689
15.40000 0.353
15.42000 -0.157
15.44000 9.553
15.46000 12.175
15.48000 21.005
15.50000 19.341
15.52000 9.110
15.54000 -0.618
15.56000 1.444
15.58000 -3.820
15.60000 4.434
15.62000 10.843
15.64000 14.485
15.66000 22.687
15.68000 13.897
15.70000 7.358
15.72000 3.063
15.74000 3.557
15.76000 12.096
15.78000 6.338
15.80000 6.810
15.82000 7.933
15.84000 14.603
15.86000 11.462
15.88000 8.431
15.90000 14.092
15.92000 6.886
15.94000 10.053
15.96000 8.545
15.98000 3.033
16.00000 0.800
16.02000 8.487
16.04000 7.566
16.06000 -1.254
16.08000 5.654
16.10000 9.110
16.12000 10.557
16.14000 8.662
16.16000 5.068
16.18000 -3.944
16.20000 3.471
16.22000 7.195
16.24000 9.808
16.26000 12.747
16.28000 7.264
16.30000 4.433
16.32000 -4.412
16.34000 2.242
16.36000 1.347
16.38000 6.286
16.40000 7.012
16.42000 13.352
16.44000 13.586
16.46000 2.829
16.48000 1.351
16.50000 7.085
16.52000 5.231
16.54000 -1.571
16.56000 7.644
16.58000 5.486
16.60000 -2.363
16.62000 -0.048
16.64000 6.264
16.66000 3.896
16.68000 5.272
16.70000 10.480
16.72000 12.365
16.74000 7.797
16.76000 0.151
16.78000 0.609
16.80000 -2.793
16.82000 3.037
16.84000 13.381
16.86000 12.221
16.88000 10.310
16.90000 6.392
16.92000 12.430
16.94000 6.135
16.96000 6.810
16.98000 7.414
17.00000 8.463
17.02000 6.326
17.04000 0.732
17.06000 -2.706
17.08000 4.800
17.10000 6.386
17.12000 5.054
17.14000 12.685
17.16000 14.212
17.18000 4.984
17.20000 0.907
17.22000 6.253
17.24000 8.906
17.26000 18.899
17.28000 14.956
17.30000 4.493
17.32000 -0.576
17.34000 0.237
17.36000 5.159
17.38000 0.169
17.40000 -0.795
17.42000 10.936
17.44000 10.834
17.46000 11.355
17.48000 11.765
17.50000 3.496
17.52000 3.363
17.54000 7.210
17.56000 8.365
17.58000 1.692
17.60000 4.405
17.62000 10.748
17.64000 4.066
17.66000 10.020
17.68000 9.700
17.70000 4.196
17.72000 8.181
17.74000 2.586
17.76000 4.321
17.78000 5.302
17.80000 11.126
17.82000 7.349
17.84000 2.006
17.86000 4.866
17.88000 7.979
17.90000 6.725
17.92000 -3.001
17.94000 -4.329
17.96000 -1.395
17.98000 11.145
18.00000 16.370
18.02000 9.728
18.04000 5.308
18.06000 3.712
18.08000 -0.766
18.10000 -1.208
18.12000 -2.642
18.14000 1.656
18.16000 8.933
18.18000 6.312
18.20000 0.087
18.22000 15.430
18.24000 17.100
18.26000 14.619
18.28000 5.968
18.30000 7.701
18.32000 9.687
18.34000 8.471
18.36000 6.551
18.38000 2.080
18.40000 3.521
18.42000 9.038
18.44000 -2.272
18.46000 4.267
18.48000 5.839
18.50000 5.118
18.52000 10.590
18.54000 12.834
18.56000 10.810
18.58000 8.022
18.60000 5.509
18.62000 7.334
18.64000 6.105
18.66000 0.414
18.68000 0.206
18.70000 6.247
18.72000 9.585
18.74000 7.158
18.76000 6.790
18.78000 4.747
18.80000 1.649
18.82000 3.641
18.84000 8.034
18.86000 7.281
18.88000 15.964
18.90000 9.709
18.92000 1.100
18.94000 -3.031
18.96000 5.872
18.98000 6.361
19.00000 7.632
19.02000 5.417
19.04000 0.803
19.06000 -1.730
19.08000 2.569
19.10000 4.848
19.12000 1.018
19.14000 -4.261
19.16000 -1.406
19.18000 1.113
19.20000 11.114
19.22000 15.167
19.24000 9.697
19.26000 6.045
19.28000 8.685
19.30000 -0.332
19.32000 0.412
19.34000 3.491
19.36000 1.990
19.38000 4.346
19.40000 7.575
19.42000 6.971
19.44000 -4.236
19.46000 0.212
19.48000 7.853
19.50000 7.771
19.52000 5.580
19.54000 -0.126
19.56000 10.727
19.58000 11.944
19.60000 9.567
19.62000 9.880
19.64000 6.103
19.66000 4.919
19.68000 4.074
19.70000 7.606
19.72000 7.476
19.74000 5.830
19.76000 7.827
19.78000 5.360
19.80000 3.125
19.82000 5.637
19.84000 5.166
19.86000 11.784
19.88000 6.624
19.90000 -1.796
19.92000 4.326
19.94000 6.409
19.96000 5.234
19.98000 5.225
20.00000 16.460
20.02000 18.943
20.04000 10.911
20.06000 4.087
20.08000 -2.848
20.10000 -4.233
20.12000 3.964
20.14000 2.358
20.16000 -0.405
20.18000 6.480
20.20000 8.092
20.22000 1.715
20.24000 0.983
20.26000 -0.049
20.28000 0.344
20.30000 1.276
20.32000 -4.231
20.34000 -1.445
20.36000 6.923
20.38000 8.207
20.40000 4.168
20.42000 1.992
20.44000 -3.319
20.46000 5.177
20.48000 6.088
20.50000 7.407
20.52000 6.593
20.54000 4.947
20.56000 -2.214
20.58000 2.247
20.60000 6.904
20.62000 8.470
20.64000 10.767
20.66000 7.371
20.68000 0.603
20.70000 -1.313
20.72000 0.979
20.74000 -3.572
20.76000 0.203
20.78000 -0.308
20.80000 3.117
20.82000 0.475
20.84000 1.677
20.86000 3.531
20.88000 6.603
20.90000 6.096
20.92000 7.336
20.94000 -1.148
20.96000 -3.395
20.98000 1.342
21.00000 3.387
21.02000 6.898
21.04000 0.851
21.06000 2.836
21.08000 2.122
21.10000 -1.519
21.12000 -4.204
21.14000 -0.357
21.16000 2.138
21.18000 -2.608
21.20000 -3.519
21.22000 10.362
21.24000 10.561
21.26000 5.241
21.28000 3.348
21.30000 2.683
21.32000 -1.939
21.34000 -2.789
21.36000 6.368
21.38000 7.104
21.40000 -0.271
21.42000 3.131
21.44000 -2.205
21.46000 -3.533
21.48000 -3.109
21.50000 1.803
21.52000 -0.896
21.54000 -2.166
21.56000 2.497
21.58000 0.807
21.60000 3.169
21.62000 -0.436
21.64000 -1.462
21.66000 2.093
21.68000 2.713
21.70000 0.539
21.72000 -3.170
21.74000 -2.208
21.76000 6.592
21.78000 2.245
21.80000 2.159
21.82000 -2.938
21.84000 0.892
21.86000 5.167
21.88000 -0.696
21.90000 -4.161
21.92000 -1.892
21.94000 3.794
21.96000 0.615
21.98000 -3.506
22.00000 2.855
22.02000 5.578
22.04000 5.570
22.06000 3.270
22.08000 2.578
22.10000 1.807
22.12000 -2.254
22.14000 -0.520
22.16000 4.045
22.18000 6.352
22.20000 4.289
22.22000 4.168
22.24000 5.215
22.26000 6.476
22.28000 11.220
22.30000 8.843
22.32000 -3.460
22.34000 -0.161
22.36000 2.691
22.38000 1.235
22.40000 2.624
22.42000 1.524
22.44000 0.747
22.46000 -3.448
22.48000 1.476
22.50000 0.904
22.52000 -1.597
22.54000 -0.627
22.56000 1.442
22.58000 -4.114
22.60000 -2.238
22.62000 1.892
22.64000 3.504
22.66000 8.519
22.68000 10.996
22.70000 5.869
22.72000 4.916
22.74000 1.446
22.76000 1.359
22.78000 -0.818
22.80000 0.408
22.82000 -0.403
22.84000 -1.484
22.86000 -4.100
22.88000 -0.904
22.90000 -2.131
22.92000 2.773
22.94000 2.425
22.96000 0.320
22.98000 2.536
23.00000 3.552
23.02000 5.805
23.04000 3.315
23.06000 2.691
23.08000 9.360
23.10000 5.504
23.12000 0.622
23.14000 1.041
23.16000 0.695
23.18000 6.460
23.20000 5.408
23.22000 6.587
23.24000 1.109
23.26000 3.311
23.28000 7.518
23.30000 4.510
23.32000 0.099
23.34000 0.429
23.36000 6.598
23.38000 2.792
23.40000 5.787
23.42000 -3.919
23.44000 -2.992
23.46000 -0.466
23.48000 -1.854
23.50000 -1.192
23.52000 -1.945
23.54000 0.658
23.56000 -3.286
23.58000 -1.612
23.60000 2.927
23.62000 -2.244
23.64000 -1.782
23.66000 3.679
23.68000 5.213
23.70000 7.820
23.72000 2.456
23.74000 -1.287
23.76000 -3.265
23.78000 1.062
23.80000 3.056
23.82000 1.563
23.84000 8.267
23.86000 3.574
23.88000 -1.909
23.90000 -1.134
23.92000 2.306
23.94000 0.266
23.96000 3.085
23.98000 -0.908
24.00000 -1.620
24.02000 0.408
24.04000 8.742
24.06000 1.991
24.08000 -0.514
24.10000 -3.608
24.12000 0.932
24.14000 3.864
24.16000 5.202
24.18000 0.469
24.20000 -4.012
24.22000 -1.095
24.24000 -0.023
24.26000 4.651
24.28000 2.734
24.30000 0.191
24.32000 1.579
24.34000 7.003
24.36000 4.076
24.38000 9.508
24.40000 8.540
24.42000 3.438
24.44000 3.361
24.46000 5.755
24.48000 6.247
24.50000 10.496
24.52000 7.122
24.54000 1.199
24.56000 2.919
24.58000 5.368
24.60000 7.413
24.62000 2.325
24.64000 -3.967
24.66000 -3.298
24.68000 5.599
24.70000 4.790
24.72000 2.692
24.74000 11.773
24.76000 7.990
24.78000 1.970
24.80000 1.705
24.82000 9.091
24.84000 7.623
24.86000 9.009
24.88000 2.029
24.90000 1.245
24.92000 3.931
24.94000 7.060
24.96000 3.808
24.98000 -1.605
25.00000 -1.207
25.02000 2.085
25.04000 4.645
25.06000 9.594
25.08000 4.994
25.10000 6.742
25.12000 4.127
25.14000 3.211
25.16000 1.628
25.18000 4.789
25.20000 -2.608
25.22000 0.858
25.24000 2.310
25.26000 3.398
25.28000 6.144
25.30000 6.163
25.32000 3.826
25.34000 -0.049
25.36000 2.588
25.38000 1.631
25.40000 -3.914
25.42000 -0.927
25.44000 3.188
25.46000 6.664
25.48000 6.060
25.50000 1.861
25.52000 5.272
25.54000 3.260
25.56000 3.761
25.58000 -1.012
25.60000 2.420
25.62000 4.344
25.64000 9.936
25.66000 5.997
25.68000 3.486
25.70000 0.605
25.72000 1.790
25.74000 2.339
25.76000 7.430
25.78000 2.521
25.80000 -1.269
25.82000 -2.469
25.84000 -2.080
25.86000 3.661
25.88000 3.350
25.90000 1.679
25.92000 1.693
25.94000 8.028
25.96000 4.275
25.98000 1.292
26.00000 5.840
26.02000 8.266
26.04000 4.322
26.06000 8.746
26.08000 7.656
26.10000 1.794
26.12000 3.080
26.14000 2.963
26.16000 -2.077
26.18000 2.337
26.20000 4.315
26.22000 5.100
26.24000 1.007
26.26000 4.823
26.28000 10.889
26.30000 12.138
26.32000 10.156
26.34000 3.877
26.36000 -0.254
26.38000 -3.537
26.40000 -3.867
26.42000 1.771
26.44000 2.874
26.46000 4.724
26.48000 7.551
26.50000 7.637
26.52000 9.879
26.54000 10.377
26.56000 4.107
26.58000 6.613
26.60000 4.131
26.62000 2.969
26.64000 3.503
26.66000 0.339
26.68000 2.190
26.70000 7.237
26.72000 9.429
26.74000 11.205
26.76000 11.396
26.78000 4.465
26.80000 -1.372
26.82000 5.411
26.84000 4.661
26.86000 3.216
26.88000 5.453
26.90000 2.207
26.92000 5.870
26.94000 7.796
26.96000 4.296
26.98000 6.606
27.00000 7.493
27.02000 4.121
27.04000 3.906
27.06000 1.709
27.08000 3.453
27.10000 0.729
27.12000 4.138
27.14000 6.068
27.16000 6.960
27.18000 2.971
27.20000 -2.054
27.22000 0.311
27.24000 4.169
27.26000 4.067
27.28000 3.191
27.30000 5.160
27.32000 4.287
27.34000 4.032
27.36000 5.046
27.38000 4.975
27.40000 0.457
27.42000 -0.817
27.44000 1.547
27.46000 4.445
27.48000 7.902
27.50000 10.982
27.52000 7.545
27.54000 2.331
27.56000 4.451
27.58000 4.223
27.60000 2.446
27.62000 5.560
27.64000 4.366
27.66000 0.062
27.68000 -2.421
27.70000 -3.790
27.72000 4.628
27.74000 11.516
27.76000 6.875
27.78000 7.301
27.80000 5.060
27.82000 3.637
27.84000 5.458
27.86000 2.756
27.88000 1.387
27.90000 3.531
27.92000 2.866
27.94000 0.006
27.96000 -1.928
27.98000 5.710
28.00000 2.119
28.02000 2.599
28.04000 7.228
28.06000 2.601
28.08000 5.652
28.10000 6.430
28.12000 2.443
28.14000 2.473
28.16000 1.540
28.18000 1.830
28.20000 3.279
28.22000 0.723
28.24000 3.337
28.26000 7.957
28.28000 6.544
28.30000 1.369
28.32000 2.899
28.34000 2.583
28.36000 -3.772
28.38000 1.891
28.40000 4.276
28.42000 -0.870
28.44000 3.411
28.46000 2.373
28.48000 0.953
28.50000 -1.450
28.52000 1.197
28.54000 2.790
28.56000 -0.027
28.58000 1.076
28.60000 3.815
28.62000 3.509
28.64000 5.669
28.66000 8.433
28.68000 3.044
28.70000 1.331
28.72000 4.396
28.74000 10.494
28.76000 7.241
28.78000 2.154
28.80000 -2.572
28.82000 0.754
28.84000 8.404
28.86000 7.397
28.88000 6.278
28.90000 2.781
28.92000 0.707
28.94000 1.803
28.96000 1.559
28.98000 2.327
29.00000 6.607
29.02000 4.349
29.04000 4.825
29.06000 1.841
29.08000 4.954
29.10000 -0.805
29.12000 0.148
29.14000 0.755
29.16000 -3.729
29.18000 1.236
29.20000 8.486
29.22000 8.457
29.24000 6.009
29.26000 5.862
29.28000 6.374
29.30000 3.079
29.32000 1.418
29.34000 -2.255
29.36000 2.320
29.38000 1.097
29.40000 2.581
29.42000 1.889
29.44000 3.636
29.46000 2.158
29.48000 2.148
29.50000 3.703
29.52000 3.440
29.54000 3.655
29.56000 4.497
29.58000 1.918
29.60000 4.373
29.62000 6.556
29.64000 6.383
29.66000 0.289
29.68000 -0.820
29.70000 0.022
29.72000 3.725
29.74000 8.538
29.76000 10.017
29.78000 8.934
29.80000 3.622
29.82000 3.118
29.84000 0.777
29.86000 -0.660
29.88000 1.646
29.90000 -3.692
29.92000 -1.730
29.94000 3.398
29.96000 0.538
29.98000 -0.450
30.00000 3.395
30.02000 -0.444
30.04000 0.680
30.06000 5.318
30.08000 5.915
30.10000 8.261
30.12000 2.430
30.14000 3.007
30.16000 5.448
30.18000 1.094
30.20000 -0.183
30.22000 2.921
30.24000 3.779
30.26000 2.656
30.28000 4.136
30.30000 -0.278
30.32000 -2.200
30.34000 -1.864
30.36000 1.493
30.38000 -1.804
30.40000 -0.873
30.42000 2.503
30.44000 8.705
30.46000 6.701
30.48000 2.222
30.50000 -1.526
30.52000 0.617
30.54000 3.557
30.56000 3.587
30.58000 4.614
30.60000 3.218
30.62000 2.760
30.64000 1.766
30.66000 3.262
30.68000 1.813
30.70000 1.985
30.72000 1.595
30.74000 5.048
30.76000 1.515
30.78000 -2.861
30.80000 4.736
30.82000 5.544
30.84000 -0.836
30.86000 0.755
30.88000 -0.125
30.90000 5.132
30.92000 1.383
30.94000 0.907
30.96000 4.380
30.98000 -0.186
31.00000 -3.643
31.02000 5.315
31.04000 7.159
31.06000 5.764
31.08000 4.316
31.10000 1.052
31.12000 4.547
31.14000 4.505
31.16000 7.786
31.18000 8.983
31.20000 6.992
31.22000 0.445
31.24000 -1.299
31.26000 -1.913
31.28000 3.650
31.30000 -0.107
31.32000 0.853
31.34000 6.269
31.36000 5.981
31.38000 5.070
31.40000 -1.363
31.42000 5.889
31.44000 4.113
31.46000 3.638
31.48000 1.675
31.50000 -2.572
31.52000 1.594
31.54000 3.102
31.56000 2.804
31.58000 1.691
31.60000 4.860
31.62000 2.970
31.64000 1.472
31.66000 -0.716
31.68000 3.305
31.70000 4.072
31.72000 6.224
31.74000 2.314
31.76000 -3.623
31.78000 -0.493
31.80000 2.137
31.82000 0.877
31.84000 4.168
31.86000 5.857
31.88000 8.003
31.90000 2.586
31.92000 -1.792
31.94000 0.384
31.96000 0.608
31.98000 -2.389
32.00000 0.262
32.02000 -1.834
32.04000 5.036
32.06000 5.087
32.08000 4.342
32.10000 -2.128
32.12000 -3.191
32.14000 0.376
32.16000 8.977
32.18000 2.569
32.20000 -1.529
32.22000 -1.256
32.24000 -0.648
32.26000 -1.452
32.28000 1.106
32.30000 4.788
32.32000 5.162
32.34000 -2.737
32.36000 -3.609
32.38000 -1.151
32.40000 4.463
32.42000 4.218
32.44000 4.273
32.46000 7.749
32.48000 4.580
32.50000 1.394
32.52000 -0.881
32.54000 4.189
32.56000 1.600
32.58000 3.925
32.60000 -2.745
32.62000 -2.349
32.64000 -3.610
32.66000 1.751
32.68000 2.936
32.70000 2.723
32.72000 3.679
32.74000 4.172
32.76000 -1.948
32.78000 -2.488
32.80000 -0.624
32.82000 -0.696
32.84000 -0.330
32.86000 -0.053
32.88000 -1.235
32.90000 -1.612
32.92000 3.894
32.94000 -2.094
32.96000 0.460
32.98000 5.236
33.00000 3.312
33.02000 3.242
33.04000 2.315
33.06000 -1.023
33.08000 -2.842
33.10000 -2.954
33.12000 -2.025
33.14000 -3.501
33.16000 -1.054
33.18000 2.922
33.20000 1.120
33.22000 -0.838
33.24000 0.947
33.26000 1.655
33.28000 6.354
33.30000 7.047
33.32000 1.544
33.34000 0.637
33.36000 -2.951
33.38000 -2.488
33.40000 -2.443
33.42000 -3.601
33.44000 -1.587
33.46000 -3.532
33.48000 -1.710
33.50000 5.845
33.52000 2.094
33.54000 1.295
33.56000 3.313
33.58000 2.354
33.60000 2.348
33.62000 0.000
33.64000 2.780
33.66000 4.405
33.68000 -1.852
33.70000 0.239
33.72000 3.255
33.74000 1.387
33.76000 2.389
33.78000 3.302
33.80000 3.767
33.82000 3.462
33.84000 1.452
33.86000 6.363
33.88000 7.049
33.90000 -0.565
33.92000 -0.292
33.94000 5.088
33.96000 3.738
33.98000 -0.248
34.00000 -3.582
34.02000 4.710
34.04000 3.565
34.06000 0.865
34.08000 4.295
34.10000 8.066
34.12000 5.110
34.14000 2.147
34.16000 6.553
34.18000 4.018
34.20000 2.717
34.22000 2.009
34.24000 -2.077
34.26000 -0.046
34.28000 3.715
34.30000 3.404
34.32000 2.640
34.34000 0.277
34.36000 -0.135
34.38000 0.248
34.40000 2.317
34.42000 2.181
34.44000 5.394
34.46000 8.424
34.48000 6.774
34.50000 0.545
34.52000 1.995
34.54000 -0.463
34.56000 3.640
34.58000 2.103
34.60000 2.887
34.62000 3.262
34.64000 0.435
34.66000 -1.138
34.68000 2.614
34.70000 2.149
34.72000 2.269
34.74000 -1.637
34.76000 -2.468
34.78000 2.942
34.80000 10.478
34.82000 5.846
34.84000 3.437
34.86000 -3.537
34.88000 -0.084
34.90000 1.399
34.92000 3.928
34.94000 1.121
34.96000 2.696
34.98000 4.697
35.00000 0.407
35.02000 5.669
35.04000 7.249
35.06000 6.150
35.08000 0.706
35.10000 5.000
35.12000 2.322
35.14000 3.873
35.16000 3.713
35.18000 4.486
35.20000 2.896
35.22000 0.587
35.24000 2.329
35.26000 1.919
35.28000 0.810
35.30000 1.076
35.32000 4.323
35.34000 2.063
35.36000 0.700
35.38000 0.423
35.40000 3.285
35.42000 1.533
35.44000 11.407
35.46000 7.488
35.48000 3.128
35.50000 -0.849
35.52000 6.160
35.54000 5.883
35.56000 10.053
35.58000 7.206
35.60000 0.832
35.62000 -3.516
35.64000 3.924
35.66000 3.723
35.68000 -2.779
35.70000 -1.030
35.72000 3.084
35.74000 3.419
35.76000 4.248
35.78000 7.074
35.80000 9.711
35.82000 5.948
35.84000 3.223
35.86000 5.637
35.88000 6.151
35.90000 2.992
35.92000 -1.205
35.94000 0.143
35.96000 -1.101
35.98000 3.081
36.00000 0.952
36.02000 -0.585
36.04000 0.651
36.06000 3.256
36.08000 4.001
36.10000 -0.420
36.12000 4.144
36.14000 5.267
36.16000 -0.285
36.18000 1.031
36.20000 2.087
36.22000 -0.020
36.24000 3.635
36.26000 3.965
36.28000 2.821
36.30000 0.593
36.32000 3.959
36.34000 -0.029
36.36000 -3.555
36.38000 -0.944
36.40000 2.530
36.42000 4.917
36.44000 4.499
36.46000 -0.864
36.48000 -0.078
36.50000 1.830
36.52000 2.564
36.54000 -0.366
36.56000 1.241
36.58000 1.351
36.60000 6.514
36.62000 8.497
36.64000 7.426
36.66000 3.880
36.68000 2.235
36.70000 2.767
36.72000 -0.187
36.74000 1.491
36.76000 5.451
36.78000 2.039
36.80000 -3.580
36.82000 0.207
36.84000 0.085
36.86000 -2.826
36.88000 2.491
36.90000 8.013
36.92000 3.553
36.94000 0.919
36.96000 1.909
36.98000 -1.621
37.00000 -1.204
37.02000 1.238
37.04000 1.248
37.06000 5.124
37.08000 3.830
37.10000 5.933
37.12000 5.658
37.14000 4.182
37.16000 2.575
37.18000 -1.106
37.20000 -1.051
37.22000 1.970
37.24000 1.071
37.26000 8.366
37.28000 6.767
37.30000 1.581
37.32000 -1.979
37.34000 0.592
37.36000 1.664
37.38000 6.793
37.40000 8.590
37.42000 7.561
37.44000 1.734
37.46000 -3.621
37.48000 1.428
37.50000 2.816
37.52000 5.802
37.54000 6.130
37.56000 4.624
37.58000 7.442
37.60000 5.517
37.62000 7.327
37.64000 6.974
37.66000 4.884
37.68000 6.611
37.70000 3.111
37.72000 3.679
37.74000 6.183
37.76000 6.537
37.78000 10.478
37.80000 12.590
37.82000 9.384
37.84000 14.663
37.86000 14.061
37.88000 8.376
37.90000 9.509
37.92000 7.994
37.94000 10.045
37.96000 13.806
37.98000 14.747
38.00000 15.194
38.02000 14.209
38.04000 18.588
38.06000 21.630
38.08000 22.621
38.10000 17.609
38.12000 12.807
38.14000 16.093
38.16000 15.598
38.18000 18.142
38.20000 24.615
38.22000 26.215
38.24000 23.311
38.26000 19.875
38.28000 24.163
38.30000 24.442
38.32000 22.437
38.34000 26.462
38.36000 29.226
38.38000 25.417
38.40000 31.116
38.42000 31.086
38.44000 33.103
38.46000 32.748
38.48000 31.630
38.50000 31.734
38.52000 33.728
38.54000 36.266
38.56000 36.659
38.58000 35.133
38.60000 40.253
38.62000 43.214
38.64000 40.305
38.66000 40.329
38.68000 37.005
38.70000 40.119
38.72000 44.360
38.74000 48.849
38.76000 45.890
38.78000 48.984
38.80000 52.126
38.82000 56.196
38.84000 58.080
38.86000 63.394
38.88000 65.895
38.90000 62.438
38.92000 63.982
38.94000 70.219
38.96000 79.470
38.98000 79.861
39.00000 83.148
39.02000 85.314
39.04000 97.885
39.06000 89.049
39.08000 90.985
39.10000 94.561
39.12000 105.470
39.14000 110.782
39.16000 114.350
39.18000 118.330
39.20000 122.668
39.22000 126.634
39.24000 131.634
39.26000 142.066
39.28000 145.948
39.30000 153.877
39.32000 161.498
39.34000 168.450
39.36000 178.646
39.38000 181.594
39.40000 189.588
39.42000 208.460
39.44000 218.290
39.46000 225.434
39.48000 237.137
39.50000 249.114
39.52000 258.836
39.54000 267.346
39.56000 282.187
39.58000 297.901
39.60000 318.301
39.62000 334.350
39.64000 350.117
39.66000 363.249
39.68000 376.077
39.70000 401.406
39.72000 424.367
39.74000 444.146
39.76000 453.069
39.78000 478.403
39.80000 504.814
39.82000 522.836
39.84000 540.547
39.86000 573.033
39.88000 593.742
39.90000 610.309
39.92000 635.037
39.94000 645.839
39.96000 664.446
39.98000 682.483
40.00000 686.838
40.02000 693.878
40.04000 703.575
40.06000 709.951
40.08000 731.496
40.10000 733.109
40.12000 728.341
40.14000 720.944
40.16000 721.382
40.18000 715.913
40.20000 705.352
40.22000 690.796
40.24000 679.411
40.26000 665.437
40.28000 656.314
40.30000 656.171
40.32000 633.836
40.34000 614.976
40.36000 595.664
40.38000 578.032
40.40000 570.344
40.42000 542.851
40.44000 523.108
40.46000 497.533
40.48000 474.534
40.50000 454.040
40.52000 433.833
40.54000 412.850
40.56000 385.738
40.58000 365.129
40.60000 360.067
40.62000 341.449
40.64000 324.632
40.66000 306.790
40.68000 283.391
40.70000 268.994
40.72000 260.462
40.74000 245.461
40.76000 235.392
40.78000 222.111
40.80000 200.895
40.82000 196.856
40.84000 188.447
40.86000 171.101
40.88000 153.579
40.90000 151.272
40.92000 148.197
40.94000 135.939
40.96000 132.570
40.98000 127.025
41.00000 118.867
41.02000 110.071
41.04000 97.621
41.06000 98.121
41.08000 100.568
41.10000 88.447
41.12000 83.333
41.14000 76.480
41.16000 74.328
41.18000 66.817
41.20000 65.423
41.22000 67.638
41.24000 59.377
41.26000 54.526
41.28000 53.320
41.30000 54.804
41.32000 46.699
41.34000 47.629
41.36000 46.627
41.38000 48.549
41.40000 36.973
41.42000 34.572
41.44000 30.515
41.46000 32.368
41.48000 34.357
41.50000 32.543
41.52000 26.648
41.54000 31.396
41.56000 28.707
41.58000 24.852
41.60000 26.384
41.62000 24.098
41.64000 20.339
41.66000 22.030
41.68000 19.108
41.70000 16.700
41.72000 24.329
41.74000 19.674
41.76000 17.146
41.78000 8.439
41.80000 11.237
41.82000 12.194
41.84000 16.472
41.86000 14.132
41.88000 12.227
41.90000 10.132
41.92000 8.262
41.94000 12.022
41.96000 11.227
41.98000 7.403
42.00000 9.029
42.02000 8.127
42.04000 -0.073
42.06000 1.403
42.08000 7.568
42.10000 8.650
42.12000 6.371
42.14000 7.272
42.16000 3.566
42.18000 2.523
42.20000 4.057
42.22000 4.865
42.24000 -0.511
42.26000 1.833
42.28000 0.399
42.30000 -0.555
42.32000 6.081
42.34000 5.172
42.36000 2.767
42.38000 3.500
42.40000 5.021
42.42000 5.575
42.44000 6.691
42.46000 2.362
42.48000 -1.937
42.50000 -1.382
42.52000 -0.424
42.54000 0.627
42.56000 1.515
42.58000 0.394
42.60000 -1.096
42.62000 -1.443
42.64000 -1.690
42.66000 -1.974
42.68000 -0.497
42.70000 -0.858
42.72000 -0.080
42.74000 1.444
42.76000 0.327
42.78000 -2.105
42.80000 -0.983
42.82000 -2.955
42.84000 -1.162
42.86000 0.388
42.88000 -1.777
42.90000 0.062
42.92000 1.045
42.94000 2.473
42.96000 3.097
42.98000 1.811
43.00000 -3.432
43.02000 -2.247
43.04000 -2.498
43.06000 -1.815
43.08000 -2.501
43.10000 -1.259
43.12000 -2.003
43.14000 -3.418
43.16000 3.322
43.18000 1.401
43.20000 -1.526
43.22000 -1.411
43.24000 -1.210
43.26000 -0.467
43.28000 3.694
43.30000 3.131
43.32000 0.706
43.34000 -0.122
43.36000 1.172
43.38000 1.064
43.40000 -0.069
43.42000 -1.098
43.44000 -0.426
43.46000 -0.380
43.48000 3.227
43.50000 1.508
43.52000 0.123
43.54000 -0.876
43.56000 -2.707
43.58000 1.077
43.60000 0.704
43.62000 0.646
43.64000 1.726
43.66000 1.329
43.68000 -0.450
43.70000 -3.232
43.72000 -0.087
43.74000 3.586
43.76000 4.117
43.78000 -3.347
43.80000 0.092
43.82000 0.825
43.84000 2.514
43.86000 0.525
43.88000 -3.338
43.90000 -2.082
43.92000 2.550
43.94000 3.045
43.96000 1.692
43.98000 1.743
44.00000 1.061
44.02000 4.826
44.04000 2.918
44.06000 1.975
44.08000 4.762
44.10000 3.302
44.12000 2.835
44.14000 -2.953
44.16000 -3.176
44.18000 2.091
44.20000 3.103
44.22000 1.191
44.24000 1.104
44.26000 2.495
44.28000 3.406
44.30000 1.190
44.32000 2.887
44.34000 1.953
44.36000 2.035
44.38000 1.343
44.40000 1.164
44.42000 7.928
44.44000 1.629
44.46000 -3.352
44.48000 1.580
44.50000 4.372
44.52000 -1.079
44.54000 -2.896
44.56000 3.340
44.58000 4.623
44.60000 3.208
44.62000 4.433
44.64000 0.072
44.66000 0.569
44.68000 3.783
44.70000 1.073
44.72000 0.153
44.74000 3.775
44.76000 5.277
44.78000 3.616
44.80000 1.156
44.82000 4.346
44.84000 2.574
44.86000 2.208
44.88000 0.541
44.90000 5.948
44.92000 10.362
44.94000 6.484
44.96000 11.655
44.98000 10.635
45.00000 7.435
45.02000 8.878
45.04000 8.083
45.06000 7.429
45.08000 3.981
45.10000 7.320
45.12000 8.660
45.14000 7.922
45.16000 7.835
45.18000 7.869
45.20000 7.956
45.22000 8.652
45.24000 8.943
45.26000 7.598
45.28000 10.841
45.30000 11.158
45.32000 13.912
45.34000 17.450
45.36000 17.068
45.38000 15.062
45.40000 13.119
45.42000 16.625
45.44000 12.480
45.46000 12.871
45.48000 19.011
45.50000 23.752
45.52000 18.664
45.54000 21.379
45.56000 26.571
45.58000 27.034
45.60000 24.641
45.62000 29.109
45.64000 28.226
45.66000 30.954
45.68000 28.825
45.70000 29.858
45.72000 32.175
45.74000 34.696
45.76000 38.057
45.78000 34.236
45.80000 36.309
45.82000 39.544
45.84000 47.270
45.86000 47.636
45.88000 47.936
45.90000 43.002
45.92000 53.321
45.94000 51.223
45.96000 49.963
45.98000 53.054
46.00000 55.427
46.02000 61.479
46.04000 60.009
46.06000 59.327
46.08000 59.276
46.10000 62.114
46.12000 64.935
46.14000 69.362
46.16000 69.431
46.18000 68.947
46.20000 76.597
46.22000 79.870
46.24000 76.957
46.26000 84.197
46.28000 86.361
46.30000 80.831
46.32000 82.029
46.34000 93.347
46.36000 97.669
46.38000 94.286
46.40000 95.693
46.42000 100.317
46.44000 109.827
46.46000 108.330
46.48000 109.055
46.50000 116.610
46.52000 114.387
46.54000 119.254
46.56000 120.419
46.58000 119.305
46.60000 123.440
46.62000 123.106
46.64000 124.104
46.66000 120.617
46.68000 124.123
46.70000 126.140
46.72000 134.909
46.74000 135.603
46.76000 133.172
46.78000 133.410
46.80000 133.432
46.82000 125.381
46.84000 132.265
46.86000 134.094
46.88000 134.480
46.90000 133.072
46.92000 124.377
46.94000 125.596
46.96000 133.609
46.98000 126.795
47.00000 124.004
47.02000 123.348
47.04000 113.503
47.06000 107.037
47.08000 104.698
47.10000 108.382
47.12000 106.870
47.14000 109.202
47.16000 102.415
47.18000 98.213
47.20000 90.654
47.22000 86.832
47.24000 86.726
47.26000 83.989
47.28000 82.688
47.30000 78.832
47.32000 80.131
47.34000 73.564
47.36000 63.360
47.38000 62.310
47.40000 68.957
47.42000 60.569
47.44000 53.237
47.46000 54.923
47.48000 48.336
47.50000 43.003
47.52000 42.967
47.54000 47.216
47.56000 42.542
47.58000 37.072
47.60000 36.805
47.62000 32.605
47.64000 33.386
47.66000 34.546
47.68000 32.403
47.70000 30.700
47.72000 27.512
47.74000 23.947
47.76000 25.023
47.78000 24.706
47.80000 17.538
47.82000 20.140
47.84000 21.093
47.86000 20.091
47.88000 19.128
47.90000 15.681
47.92000 14.736
47.94000 10.862
47.96000 12.420
47.98000 15.900
48.00000 12.876
48.02000 12.964
48.04000 13.159
48.06000 12.623
48.08000 6.636
48.10000 8.048
48.12000 6.605
48.14000 7.176
48.16000 9.328
48.18000 7.931
48.20000 4.816
48.22000 7.435
48.24000 7.209
48.26000 3.896
48.28000 0.428
48.30000 0.980
48.32000 2.648
48.34000 1.418
48.36000 6.008
48.38000 5.911
48.40000 1.049
48.42000 3.834
48.44000 7.735
48.46000 2.571
48.48000 -0.519
48.50000 2.280
48.52000 0.470
48.54000 0.459
48.56000 1.787
48.58000 1.613
48.60000 1.983
48.62000 2.926
48.64000 2.853
48.66000 1.428
48.68000 1.286
48.70000 -1.663
48.72000 -1.129
48.74000 3.502
48.76000 6.497
48.78000 3.502
48.80000 -0.680
48.82000 -2.907
48.84000 1.721
48.86000 2.232
48.88000 1.004
48.90000 3.961
48.92000 -0.796
48.94000 1.656
48.96000 0.700
48.98000 0.806
49.00000 0.932
49.02000 0.045
49.04000 0.149
49.06000 1.550
49.08000 -2.049
49.10000 -0.536
49.12000 -2.852
49.14000 1.316
49.16000 1.542
49.18000 0.174
49.20000 5.839
49.22000 3.313
49.24000 2.442
49.26000 0.238
49.28000 2.477
49.30000 3.654
49.32000 0.803
49.34000 0.289
49.36000 1.401
49.38000 2.023
49.40000 4.540
49.42000 -2.070
49.44000 -1.368
49.46000 4.788
49.48000 5.626
49.50000 6.806
49.52000 3.783
49.54000 4.406
49.56000 2.633
49.58000 2.163
49.60000 -0.186
49.62000 0.899
49.64000 2.752
49.66000 3.960
49.68000 5.600
49.70000 1.379
49.72000 -2.785
49.74000 -0.441
49.76000 0.237
49.78000 1.014
49.80000 1.880
49.82000 3.971
49.84000 5.050
49.86000 2.805
49.88000 5.703
49.90000 5.307
49.92000 3.846
49.94000 4.997
49.96000 0.999
49.98000 0.288
50.00000 1.065
50.02000 2.241
50.04000 2.096
50.06000 4.897
50.08000 4.956
50.10000 5.161
50.12000 5.028
50.14000 10.121
50.16000 8.176
50.18000 3.766
50.20000 5.067
50.22000 7.263
50.24000 5.730
50.26000 -2.725
50.28000 -1.745
50.30000 3.261
50.32000 1.402
50.34000 3.958
50.36000 8.735
50.38000 5.612
50.40000 6.893
50.42000 6.485
50.44000 7.040
50.46000 4.250
50.48000 4.107
50.50000 2.777
50.52000 1.278
50.54000 5.918
50.56000 8.896
50.58000 8.730
50.60000 9.651
50.62000 8.635
50.64000 4.499
50.66000 0.461
50.68000 -0.369
50.70000 1.816
50.72000 -1.424
50.74000 -2.684
50.76000 5.420
50.78000 5.925
50.80000 3.638
50.82000 -0.327
50.84000 5.352
50.86000 4.231
50.88000 3.088
50.90000 2.169
50.92000 3.845
50.94000 5.937
50.96000 0.839
50.98000 0.103
51.00000 2.554
51.02000 4.267
51.04000 5.805
51.06000 7.289
51.08000 9.528
51.10000 9.047
51.12000 3.693
51.14000 0.245
51.16000 -1.744
51.18000 1.038
51.20000 0.913
51.22000 2.790
51.24000 0.912
51.26000 0.464
51.28000 -1.483
51.30000 4.216
51.32000 3.290
51.34000 3.910
51.36000 3.394
51.38000 5.985
51.40000 6.890
51.42000 7.937
51.44000 8.301
51.46000 2.531
51.48000 2.935
51.50000 2.529
51.52000 2.054
51.54000 -0.883
51.56000 2.241
51.58000 -1.129
51.60000 -0.878
51.62000 1.502
51.64000 3.589
51.66000 7.262
51.68000 9.467
51.70000 6.764
51.72000 2.073
51.74000 -0.488
51.76000 2.582
51.78000 1.880
51.80000 2.399
51.82000 1.868
51.84000 2.942
51.86000 2.839
51.88000 7.345
51.90000 2.939
51.92000 1.756
51.94000 5.961
51.96000 4.079
51.98000 4.482
52.00000 7.038
52.02000 1.207
52.04000 5.156
52.06000 4.275
52.08000 -0.537
52.10000 -0.620
52.12000 -1.104
52.14000 2.867
52.16000 4.888
52.18000 5.025
52.20000 8.734
52.22000 5.541
52.24000 3.832
52.26000 3.199
52.28000 3.259
52.30000 1.388
52.32000 5.366
52.34000 7.741
52.36000 4.373
52.38000 5.208
52.40000 4.707
52.42000 2.548
52.44000 5.921
52.46000 10.164
52.48000 9.132
52.50000 0.587
52.52000 -2.600
52.54000 1.420
52.56000 3.525
52.58000 4.379
52.60000 6.585
52.62000 5.766
52.64000 3.193
52.66000 5.432
52.68000 6.092
52.70000 5.035
52.72000 3.649
52.74000 5.770
52.76000 4.955
52.78000 5.628
52.80000 4.402
52.82000 4.547
52.84000 3.959
52.86000 3.452
52.88000 3.992
52.90000 4.262
52.92000 3.293
52.94000 6.040
52.96000 2.879
52.98000 -0.007
53.00000 3.636
53.02000 4.680
53.04000 2.990
53.06000 1.720
53.08000 -0.287
53.10000 3.507
53.12000 3.935
53.14000 5.494
53.16000 5.640
53.18000 3.432
53.20000 1.791
53.22000 5.660
53.24000 0.332
53.26000 -0.569
53.28000 1.249
53.30000 4.790
53.32000 0.617
53.34000 1.121
53.36000 2.326
53.38000 4.600
53.40000 0.866
53.42000 0.222
53.44000 -0.334
53.46000 0.801
53.48000 -0.682
53.50000 1.552
53.52000 2.243
53.54000 5.635
53.56000 2.929
53.58000 3.908
53.60000 -0.006
53.62000 -2.624
53.64000 0.661
53.66000 -0.732
53.68000 1.353
53.70000 0.486
53.72000 0.545
53.74000 -0.321
53.76000 4.078
53.78000 -0.151
53.80000 -1.729
53.82000 2.148
53.84000 2.778
53.86000 2.033
53.88000 5.208
53.90000 0.821
53.92000 -1.786
53.94000 -2.626
53.96000 3.480
53.98000 6.325
54.00000 6.049
54.02000 4.447
54.04000 2.639
54.06000 2.255
54.08000 2.487
54.10000 -0.751
54.12000 0.197
54.14000 3.691
54.16000 2.395
54.18000 -1.026
54.20000 0.199
54.22000 -0.369
54.24000 0.308
54.26000 1.659
54.28000 1.396
54.30000 -0.790
54.32000 0.878
54.34000 1.667
54.36000 -0.504
54.38000 4.131
54.40000 2.542
54.42000 0.578
54.44000 -0.702
54.46000 -0.834
54.48000 0.090
54.50000 -1.281
54.52000 -1.487
54.54000 -0.161
54.56000 0.210
54.58000 -0.899
54.60000 -0.170
54.62000 3.675
54.64000 1.933
54.66000 -1.786
54.68000 -1.943
54.70000 -1.764
54.72000 0.763
54.74000 0.533
54.76000 -0.421
54.78000 -2.602
54.80000 1.055
54.82000 3.953
54.84000 0.457
54.86000 -1.168
54.88000 1.918
54.90000 4.688
54.92000 4.577
54.94000 0.231
54.96000 -1.889
54.98000 2.026
55.00000 0.197
55.02000 1.718
55.04000 1.352
55.06000 3.054
55.08000 3.090
55.10000 4.886
55.12000 5.653
55.14000 -0.092
55.16000 -2.292
55.18000 -1.416
55.20000 0.673
55.22000 1.569
55.24000 2.495
55.26000 5.297
55.28000 10.117
55.30000 6.845
55.32000 4.072
55.34000 6.385
55.36000 4.045
55.38000 0.330
55.40000 2.333
55.42000 5.366
55.44000 5.393
55.46000 1.314
55.48000 -0.602
55.50000 -2.571
55.52000 0.563
55.54000 2.989
55.56000 3.060
55.58000 3.278
55.60000 3.213
55.62000 1.386
55.64000 3.802
55.66000 4.027
55.68000 2.000
55.70000 -0.891
55.72000 0.136
55.74000 1.637
55.76000 1.306
55.78000 0.853
55.80000 5.808
55.82000 4.790
55.84000 3.807
55.86000 4.218
55.88000 2.617
55.90000 1.647
55.92000 3.855
55.94000 -0.687
55.96000 3.680
55.98000 3.054
56.00000 0.679
56.02000 2.168
56.04000 5.524
56.06000 5.249
56.08000 4.806
56.10000 -0.082
56.12000 2.264
56.14000 -0.230
56.16000 2.369
56.18000 1.027
56.20000 2.000
56.22000 4.255
56.24000 0.483
56.26000 -0.957
56.28000 2.229
56.30000 3.334
56.32000 5.814
56.34000 3.498
56.36000 2.000
56.38000 4.273
56.40000 4.819
56.42000 2.452
56.44000 1.702
56.46000 5.167
56.48000 7.270
56.50000 8.276
56.52000 7.373
56.54000 10.488
56.56000 4.075
56.58000 0.052
56.60000 -2.496
56.62000 4.089
56.64000 5.600
56.66000 3.386
56.68000 1.988
56.70000 6.666
56.72000 8.194
56.74000 0.510
56.76000 2.992
56.78000 6.003
56.80000 6.148
56.82000 3.513
56.84000 1.771
56.86000 2.855
56.88000 4.498
56.90000 2.174
56.92000 5.204
56.94000 5.828
56.96000 4.718
56.98000 1.502
57.00000 3.421
57.02000 3.912
57.04000 3.282
57.06000 7.287
57.08000 3.184
57.10000 2.686
57.12000 6.272
57.14000 4.717
57.16000 4.281
57.18000 4.316
57.20000 3.761
57.22000 2.755
57.24000 -0.106
57.26000 0.872
57.28000 3.572
57.30000 2.733
57.32000 1.493
57.34000 6.138
57.36000 3.529
57.38000 2.490
57.40000 2.435
57.42000 0.780
57.44000 4.384
57.46000 4.144
57.48000 0.602
57.50000 1.762
57.52000 0.615
57.54000 1.135
57.56000 0.360
57.58000 1.892
57.60000 2.002
57.62000 0.500
57.64000 5.527
57.66000 7.358
57.68000 1.448
57.70000 2.719
57.72000 5.515
57.74000 0.486
57.76000 -1.883
57.78000 -2.496
57.80000 -0.056
57.82000 -1.138
57.84000 1.031
57.86000 1.297
57.88000 -1.981
57.90000 0.187
57.92000 -1.188
57.94000 0.305
57.96000 -1.762
57.98000 -2.212
58.00000 -0.045
58.02000 1.778
58.04000 -0.395
58.06000 1.237
58.08000 -0.623
58.10000 -1.458
58.12000 -0.217
58.14000 1.037
58.16000 -0.258
58.18000 4.634
58.20000 6.437
58.22000 3.602
58.24000 3.639
58.26000 2.293
58.28000 5.095
58.30000 -0.687
58.32000 -1.174
58.34000 0.696
58.36000 0.217
58.38000 3.666
58.40000 2.736
58.42000 0.037
58.44000 0.519
58.46000 -0.904
58.48000 2.181
58.50000 4.059
58.52000 0.978
58.54000 3.773
58.56000 6.030
58.58000 4.386
58.60000 0.421
58.62000 -1.007
58.64000 -1.377
58.66000 4.651
58.68000 3.754
58.70000 1.475
58.72000 2.922
58.74000 2.984
58.76000 4.292
58.78000 3.933
58.80000 3.960
58.82000 2.585
58.84000 2.509
58.86000 2.154
58.88000 4.314
58.90000 5.831
58.92000 1.351
58.94000 3.859
58.96000 1.099
58.98000 -2.473
59.00000 -0.922
59.02000 0.963
59.04000 5.147
59.06000 5.789
59.08000 3.052
59.10000 0.535
59.12000 0.677
59.14000 0.724
59.16000 6.624
59.18000 1.854
59.20000 1.497
59.22000 0.273
59.24000 0.859
59.26000 3.853
59.28000 7.181
59.30000 3.906
59.32000 2.098
59.34000 3.002
59.36000 2.861
59.38000 4.558
59.40000 3.837
59.42000 0.546
59.44000 1.763
59.46000 -1.712
59.48000 -0.804
59.50000 -1.225
59.52000 1.273
59.54000 4.515
59.56000 2.044
59.58000 3.427
59.60000 3.299
59.62000 0.043
59.64000 -1.153
59.66000 -2.375
59.68000 -2.158
59.70000 -2.443
59.72000 6.146
59.74000 4.580
59.76000 3.870
59.78000 2.466
59.80000 1.526
59.82000 2.105
59.84000 2.756
59.86000 2.491
59.88000 2.584
59.90000 1.509
59.92000 1.809
59.94000 1.209
59.96000 1.878
59.98000 3.233
60.00000 6.102
60.02000 3.600
60.04000 1.961
60.06000 3.358
60.08000 3.829
60.10000 4.428
60.12000 5.953
60.14000 1.929
60.16000 -0.652
60.18000 -2.427
60.20000 0.519
60.22000 -1.626
60.24000 1.083
60.26000 4.750
60.28000 4.214
60.30000 4.740
60.32000 3.647
60.34000 -0.004
60.36000 2.812
60.38000 1.544
60.40000 1.905
60.42000 3.536
60.44000 2.171
60.46000 6.511
60.48000 3.027
60.50000 -0.714
60.52000 1.948
60.54000 4.921
60.56000 3.250
60.58000 2.180
60.60000 0.735
60.62000 3.043
60.64000 3.164
60.66000 3.181
60.68000 2.821
60.70000 1.410
60.72000 0.623
60.74000 0.554
60.76000 1.949
60.78000 -0.226
60.80000 2.804
60.82000 2.483
60.84000 1.444
60.86000 0.272
60.88000 3.139
60.90000 4.308
60.92000 1.357
60.94000 -1.787
60.96000 2.695
60.98000 -0.794
61.00000 -2.390
61.02000 3.554
61.04000 3.569
61.06000 1.038
61.08000 2.332
61.10000 1.091
61.12000 0.403
61.14000 3.885
61.16000 5.090
61.18000 4.135
61.20000 3.045
61.22000 2.325
61.24000 1.606
61.26000 1.313
61.28000 2.786
61.30000 3.643
61.32000 7.135
61.34000 3.703
61.36000 2.493
61.38000 4.473
61.40000 1.742
61.42000 0.725
61.44000 3.693
61.46000 0.934
61.48000 -1.040
61.50000 1.544
61.52000 3.166
61.54000 3.239
61.56000 4.302
61.58000 2.232
61.60000 1.843
61.62000 1.718
61.64000 1.267
61.66000 1.576
61.68000 1.984
61.70000 -2.307
61.72000 1.267
61.74000 -1.296
61.76000 4.218
61.78000 1.579
61.80000 -2.393
61.82000 -1.071
61.84000 0.337
61.86000 -0.674
61.88000 -2.073
61.90000 1.786
61.92000 2.162
61.94000 2.600
61.96000 1.383
61.98000 1.010
62.00000 0.821
62.02000 1.610
62.04000 -2.389
62.06000 1.645
62.08000 1.758
62.10000 1.504
62.12000 3.648
62.14000 3.187
62.16000 2.869
62.18000 -1.266
62.20000 -1.391
62.22000 0.182
62.24000 0.778
62.26000 0.713
62.28000 2.746
62.30000 0.248
62.32000 2.256
62.34000 5.983
62.36000 -0.673
62.38000 0.506
62.40000 4.730
62.42000 0.213
62.44000 -1.392
62.46000 0.597
62.48000 -1.235
62.50000 0.618
62.52000 5.171
62.54000 3.286
62.56000 1.331
62.58000 -0.686
62.60000 3.932
62.62000 3.343
62.64000 0.559
62.66000 -0.619
62.68000 1.040
62.70000 2.359
62.72000 1.216
62.74000 -1.737
62.76000 -2.358
62.78000 3.120
62.80000 2.304
62.82000 5.565
62.84000 7.114
62.86000 7.937
62.88000 7.582
62.90000 2.986
62.92000 3.519
62.94000 5.156
62.96000 5.116
62.98000 6.199
63.00000 4.896
63.02000 0.483
63.04000 -1.719
63.06000 -0.181
63.08000 1.700
63.10000 5.341
63.12000 3.893
63.14000 0.482
63.16000 3.040
63.18000 2.798
63.20000 1.776
63.22000 7.727
63.24000 5.503
63.26000 5.721
63.28000 5.484
63.30000 4.293
63.32000 1.935
63.34000 1.250
63.36000 -2.311
63.38000 0.150
63.40000 5.419
63.42000 5.394
63.44000 8.457
63.46000 3.508
63.48000 2.383
63.50000 2.985
63.52000 4.330
63.54000 3.465
63.56000 3.058
63.58000 2.577
63.60000 2.965
63.62000 2.938
63.64000 5.944
63.66000 1.882
63.68000 1.835
63.70000 4.278
63.72000 0.191
63.74000 2.561
63.76000 2.590
63.78000 0.383
63.80000 1.053
63.82000 1.066
63.84000 4.473
63.86000 5.048
63.88000 4.107
63.90000 3.343
63.92000 4.657
63.94000 1.388
63.96000 0.612
63.98000 2.531
64.00000 6.633
64.02000 8.448
64.04000 3.589
64.06000 2.935
64.08000 1.438
64.10000 1.394
64.12000 5.434
64.14000 4.684
64.16000 4.951
64.18000 5.683
64.20000 4.362
64.22000 1.836
64.24000 1.195
64.26000 4.748
64.28000 4.283
64.30000 1.616
64.32000 2.906
64.34000 -1.192
64.36000 0.164
64.38000 3.933
64.40000 2.451
64.42000 2.879
64.44000 3.002
64.46000 -0.668
64.48000 1.527
64.50000 -0.037
64.52000 0.861
64.54000 2.863
64.56000 3.656
64.58000 6.647
64.60000 5.297
64.62000 4.381
64.64000 1.033
64.66000 3.329
64.68000 4.204
64.70000 3.053
64.72000 2.223
64.74000 0.272
64.76000 1.810
64.78000 4.005
64.80000 6.915
64.82000 0.943
64.84000 -2.366
64.86000 -0.176
64.88000 0.818
64.90000 1.352
64.92000 0.747
64.94000 1.579
64.96000 4.379
64.98000 2.944
65.00000 7.222
65.02000 5.465
65.04000 7.151
65.06000 3.352
65.08000 -0.104
65.10000 1.089
65.12000 2.299
65.14000 0.720
65.16000 1.241
65.18000 1.540
65.20000 4.602
65.22000 3.813
65.24000 1.761
65.26000 1.390
65.28000 0.914
65.30000 0.454
65.32000 1.597
65.34000 0.417
65.36000 2.719
65.38000 5.424
65.40000 5.927
65.42000 0.978
65.44000 0.192
65.46000 -0.322
65.48000 1.021
65.50000 3.595
65.52000 -1.573
65.54000 0.435
65.56000 1.163
65.58000 3.102
65.60000 3.826
65.62000 1.456
65.64000 0.522
65.66000 3.081
65.68000 1.937
65.70000 -1.209
65.72000 -2.422
65.74000 2.268
65.76000 4.815
65.78000 2.056
65.80000 2.189
65.82000 -0.227
65.84000 1.617
65.86000 1.487
65.88000 0.826
65.90000 -0.009
65.92000 2.047
65.94000 2.922
65.96000 -0.322
65.98000 -2.387
66.00000 0.413
66.02000 1.029
66.04000 1.063
66.06000 0.347
66.08000 0.604
66.10000 0.911
66.12000 -0.411
66.14000 -0.569
66.16000 1.726
66.18000 0.586
66.20000 2.595
66.22000 1.458
66.24000 -0.736
66.26000 -0.471
66.28000 -0.550
66.30000 -1.619
66.32000 -1.589
66.34000 -2.484
66.36000 1.285
66.38000 -1.793
66.40000 -1.448
66.42000 -1.029
66.44000 -0.608
66.46000 1.269
66.48000 -0.195
66.50000 -1.025
66.52000 0.486
66.54000 1.097
66.56000 -2.171
66.58000 0.175
66.60000 0.946
66.62000 -0.911
66.64000 -0.791
66.66000 -0.779
66.68000 1.874
66.70000 2.024
66.72000 3.669
66.74000 2.435
66.76000 2.343
66.78000 3.404
66.80000 0.581
66.82000 0.421
66.84000 3.704
66.86000 6.907
66.88000 0.690
66.90000 -1.832
66.92000 0.318
66.94000 3.459
66.96000 2.618
66.98000 0.945
67.00000 4.633
67.02000 3.716
67.04000 4.449
67.06000 4.671
67.08000 2.522
67.10000 0.578
67.12000 4.240
67.14000 7.199
67.16000 4.684
67.18000 4.014
67.20000 4.401
67.22000 4.971
67.24000 7.469
67.26000 4.022
67.28000 7.336
67.30000 6.014
67.32000 4.560
67.34000 10.778
67.36000 8.416
67.38000 8.012
67.40000 7.994
67.42000 7.086
67.44000 10.035
67.46000 11.963
67.48000 11.374
67.50000 13.420
67.52000 11.390
67.54000 11.108
67.56000 11.027
67.58000 10.253
67.60000 14.503
67.62000 14.288
67.64000 14.001
67.66000 14.390
67.68000 14.364
67.70000 15.904
67.72000 15.212
67.74000 12.849
67.76000 16.709
67.78000 16.405
67.80000 16.207
67.82000 18.440
67.84000 16.429
67.86000 22.360
67.88000 17.480
67.90000 18.214
67.92000 20.811
67.94000 20.546
67.96000 19.060
67.98000 20.774
68.00000 23.934
68.02000 24.728
68.04000 23.882
68.06000 23.052
68.08000 25.819
68.10000 26.143
68.12000 22.057
68.14000 22.358
68.16000 24.679
68.18000 26.578
68.20000 28.154
68.22000 27.218
68.24000 24.703
68.26000 20.888
68.28000 24.884
68.30000 26.660
68.32000 24.480
68.34000 26.699
68.36000 26.533
68.38000 25.198
68.40000 20.060
68.42000 23.490
68.44000 24.177
68.46000 24.144
68.48000 22.939
68.50000 24.784
68.52000 28.351
68.54000 26.385
68.56000 27.467
68.58000 24.825
68.60000 23.985
68.62000 22.777
68.64000 22.848
68.66000 21.286
68.68000 16.760
68.70000 16.518
68.72000 21.236
68.74000 20.713
68.76000 19.706
68.78000 17.746
68.80000 18.452
68.82000 18.308
68.84000 14.918
68.86000 14.056
68.88000 16.764
68.90000 17.080
68.92000 12.491
68.94000 9.353
68.96000 10.051
68.98000 11.557
69.00000 12.274
69.02000 11.974
69.04000 8.770
69.06000 11.687
69.08000 9.560
69.10000 8.123
69.12000 6.898
69.14000 3.537
69.16000 7.756
69.18000 8.890
69.20000 6.564
69.22000 5.308
69.24000 1.781
69.26000 3.001
69.28000 5.166
69.30000 2.268
69.32000 2.794
69.34000 4.662
69.36000 2.841
69.38000 3.001
69.40000 3.954
69.42000 1.883
69.44000 1.326
69.46000 2.366
69.48000 5.915
69.50000 7.880
69.52000 1.585
69.54000 -0.525
69.56000 1.369
69.58000 4.691
69.60000 4.312
69.62000 0.560
69.64000 4.700
69.66000 3.888
69.68000 1.432
69.70000 0.393
69.72000 -0.205
69.74000 1.163
69.76000 -1.985
69.78000 0.144
69.80000 4.518
69.82000 2.119
69.84000 -2.394
69.86000 -0.856
69.88000 -0.664
69.90000 0.556
69.92000 2.562
69.94000 2.252
69.96000 3.572
69.98000 2.053
70.00000 0.081
70.02000 1.074
70.04000 0.985
70.06000 -1.533
70.08000 2.072
70.10000 7.946
70.12000 3.659
70.14000 0.571
70.16000 0.014
70.18000 -1.028
70.20000 2.599
70.22000 4.820
70.24000 2.500
70.26000 2.999
70.28000 -0.429
70.30000 0.817
70.32000 0.417
70.34000 -1.102
70.36000 -0.317
70.38000 1.611
70.40000 -1.404
70.42000 2.422
70.44000 5.733
70.46000 2.976
70.48000 -2.322
70.50000 0.683
70.52000 0.261
70.54000 3.407
70.56000 2.818
70.58000 4.352
70.60000 2.403
70.62000 -0.604
70.64000 2.640
70.66000 0.975
70.68000 -2.023
70.70000 1.801
70.72000 4.435
70.74000 3.354
70.76000 0.801
70.78000 -2.298
70.80000 -0.920
70.82000 0.499
70.84000 2.244
70.86000 2.661
70.88000 4.092
70.90000 2.800
70.92000 1.842
70.94000 2.971
70.96000 4.088
70.98000 3.437
71.00000 -0.015
71.02000 1.915
71.04000 7.377
71.06000 4.549
71.08000 2.623
71.10000 1.133
71.12000 0.968
71.14000 -1.870
71.16000 -1.215
71.18000 -0.667
71.20000 3.896
71.22000 3.458
71.24000 2.738
71.26000 0.550
71.28000 3.510
71.30000 1.542
71.32000 2.927
71.34000 2.151
71.36000 -2.256
71.38000 -0.811
71.40000 0.167
71.42000 3.728
71.44000 2.778
71.46000 1.886
71.48000 2.398
71.50000 -0.424
71.52000 -0.329
71.54000 0.684
71.56000 0.009
71.58000 2.280
71.60000 1.751
71.62000 5.027
71.64000 4.934
71.66000 5.329
71.68000 2.989
71.70000 4.232
71.72000 1.324
71.74000 4.463
71.76000 3.197
71.78000 2.871
71.80000 -1.863
71.82000 1.984
71.84000 5.081
71.86000 4.818
71.88000 3.902
71.90000 0.241
71.92000 0.056
71.94000 2.870
71.96000 2.653
71.98000 4.245
72.00000 2.762
72.02000 5.422
72.04000 3.799
72.06000 4.071
72.08000 5.531
72.10000 2.518
72.12000 4.366
72.14000 4.083
72.16000 2.659
72.18000 2.068
72.20000 1.710
72.22000 1.263
72.24000 4.107
72.26000 3.791
72.28000 0.937
72.30000 2.485
72.32000 5.980
72.34000 3.737
72.36000 3.498
72.38000 2.341
72.40000 4.891
72.42000 3.927
72.44000 2.448
72.46000 2.214
72.48000 -1.454
72.50000 -2.218
72.52000 -1.796
72.54000 0.253
72.56000 -2.220
72.58000 2.987
72.60000 2.146
72.62000 3.030
72.64000 1.977
72.66000 3.358
72.68000 -0.435
72.70000 -2.059
72.72000 -0.712
72.74000 1.831
72.76000 0.153
72.78000 -0.202
72.80000 1.386
72.82000 -1.881
72.84000 -2.107
72.86000 3.522
72.88000 4.581
72.90000 4.802
72.92000 2.609
72.94000 -0.210
72.96000 3.256
72.98000 1.584
73.00000 2.347
73.02000 5.780
73.04000 2.960
73.06000 -1.462
73.08000 1.688
73.10000 -0.647
73.12000 -1.033
73.14000 -0.979
73.16000 0.439
73.18000 3.319
73.20000 2.913
73.22000 2.061
73.24000 0.615
73.26000 0.961
73.28000 -1.239
73.30000 -0.553
73.32000 -1.360
73.34000 -0.398
73.36000 5.298
73.38000 3.132
73.40000 3.231
73.42000 3.246
73.44000 1.174
73.46000 1.075
73.48000 0.540
73.50000 2.733
73.52000 0.473
73.54000 1.092
73.56000 5.561
73.58000 4.794
73.60000 0.994
73.62000 1.662
73.64000 6.082
73.66000 6.774
73.68000 3.357
73.70000 0.941
73.72000 2.147
73.74000 2.368
73.76000 1.144
73.78000 1.089
73.80000 0.999
73.82000 -0.572
73.84000 -1.143
73.86000 2.204
73.88000 2.108
73.90000 -1.040
73.92000 2.468
73.94000 7.342
73.96000 4.183
73.98000 1.281
74.00000 1.957
74.02000 -0.221
74.04000 0.899
74.06000 2.089
74.08000 2.612
74.10000 0.101
74.12000 -2.210
74.14000 0.647
74.16000 4.037
74.18000 4.700
74.20000 3.182
74.22000 5.842
74.24000 4.381
74.26000 1.775
74.28000 0.129
74.30000 0.295
74.32000 0.523
74.34000 2.653
74.36000 3.089
74.38000 4.477
74.40000 0.839
74.42000 2.133
74.44000 2.502
74.46000 -0.766
74.48000 -1.719
74.50000 0.748
74.52000 0.895
74.54000 1.359
74.56000 2.882
74.58000 1.129
74.60000 6.515
74.62000 6.565
74.64000 0.205
74.66000 3.346
74.68000 4.298
74.70000 1.855
74.72000 2.417
74.74000 3.242
74.76000 0.740
74.78000 -1.108
74.80000 1.483
74.82000 1.950
74.84000 1.743
74.86000 -2.196
74.88000 2.387
74.90000 5.958
74.92000 1.521
74.94000 1.535
74.96000 2.775
74.98000 2.775
75.00000 5.191
75.02000 1.199
75.04000 -0.586
75.06000 2.457
75.08000 5.614
75.10000 3.914
75.12000 5.520
75.14000 1.819
75.16000 3.543
75.18000 -0.686
75.20000 -2.201
75.22000 2.855
75.24000 2.465
75.26000 1.844
75.28000 0.559
75.30000 2.203
75.32000 0.115
75.34000 1.887
75.36000 3.758
75.38000 5.354
75.40000 4.581
75.42000 4.495
75.44000 2.038
75.46000 2.150
75.48000 4.131
75.50000 1.832
75.52000 1.490
75.54000 0.513
75.56000 1.166
75.58000 1.767
75.60000 3.166
75.62000 2.365
75.64000 2.795
75.66000 2.229
75.68000 0.840
75.70000 7.870
75.72000 6.059
75.74000 7.068
75.76000 6.358
75.78000 4.162
75.80000 3.018
75.82000 3.690
75.84000 4.865
75.86000 6.259
75.88000 4.509
75.90000 5.925
75.92000 8.461
75.94000 4.004
75.96000 2.687
75.98000 5.011
76.00000 -1.252
76.02000 -2.189
76.04000 2.768
76.06000 4.800
76.08000 5.648
76.10000 4.043
76.12000 3.752
76.14000 5.914
76.16000 10.993
76.18000 8.389
76.20000 2.615
76.22000 -0.262
76.24000 2.216
76.26000 -0.245
76.28000 2.601
76.30000 6.715
76.32000 5.114
76.34000 2.784
76.36000 5.689
76.38000 3.366
76.40000 1.163
76.42000 2.707
76.44000 3.375
76.46000 5.602
76.48000 3.079
76.50000 1.473
76.52000 0.272
76.54000 -2.211
76.56000 3.815
76.58000 1.077
76.60000 1.824
76.62000 3.117
76.64000 0.381
76.66000 0.066
76.68000 1.771
76.70000 1.445
76.72000 -1.483
76.74000 2.068
76.76000 2.186
76.78000 3.374
76.80000 3.854
76.82000 2.577
76.84000 1.908
76.86000 1.876
76.88000 -0.087
76.90000 2.931
76.92000 1.985
76.94000 -0.646
76.96000 1.493
76.98000 3.991
77.00000 4.119
77.02000 0.210
77.04000 -0.827
77.06000 -0.412
77.08000 2.710
77.10000 2.033
77.12000 0.677
77.14000 -1.405
77.16000 -0.236
77.18000 4.143
77.20000 3.539
77.22000 -0.532
77.24000 2.292
77.26000 0.717
77.28000 0.601
77.30000 3.629
77.32000 3.352
77.34000 2.514
77.36000 0.956
77.38000 -0.007
77.40000 1.043
77.42000 2.149
77.44000 -0.351
77.46000 1.067
77.48000 -0.148
77.50000 2.706
77.52000 0.591
77.54000 0.745
77.56000 3.568
77.58000 3.946
77.60000 0.033
77.62000 0.061
77.64000 1.807
77.66000 4.804
77.68000 6.162
77.70000 2.663
77.72000 3.339
77.74000 4.153
77.76000 4.522
77.78000 1.585
77.80000 4.053
77.82000 1.392
77.84000 4.749
77.86000 3.360
77.88000 2.919
77.90000 1.604
77.92000 2.253
77.94000 3.436
77.96000 2.391
77.98000 4.891
78.00000 5.309
78.02000 4.209
78.04000 1.397
78.06000 3.779
78.08000 3.543
78.10000 0.614
78.12000 -1.300
78.14000 -0.104
78.16000 4.122
78.18000 3.815
78.20000 1.916
78.22000 3.426
78.24000 4.596
78.26000 -1.461
78.28000 -1.451
78.30000 -1.613
78.32000 2.275
78.34000 1.715
78.36000 -1.024
78.38000 -2.247
78.40000 -1.746
78.42000 -0.968
78.44000 -1.986
78.46000 1.014
78.48000 -0.207
78.50000 -1.044
78.52000 0.173
78.54000 1.439
78.56000 1.333
78.58000 2.262
78.60000 6.482
78.62000 5.711
78.64000 4.417
78.66000 3.082
78.68000 4.753
78.70000 7.408
78.72000 4.982
78.74000 3.875
78.76000 6.320
78.78000 0.472
78.80000 3.935
78.82000 2.045
78.84000 3.677
78.86000 3.120
78.88000 1.924
78.90000 2.828
78.92000 -0.938
78.94000 -0.278
78.96000 0.605
78.98000 1.677
79.00000 1.093
79.02000 4.359
79.04000 5.968
79.06000 7.984
79.08000 5.530
79.10000 4.559
79.12000 6.117
79.14000 4.408
79.16000 1.602
79.18000 3.143
79.20000 3.682
79.22000 1.058
79.24000 2.036
79.26000 2.084
79.28000 0.889
79.30000 -0.104
79.32000 3.819
79.34000 3.803
79.36000 8.174
79.38000 3.964
79.40000 5.186
79.42000 1.899
79.44000 1.193
79.46000 3.214
79.48000 3.322
79.50000 3.194
79.52000 2.892
79.54000 3.690
79.56000 0.904
79.58000 3.399
79.60000 2.799
79.62000 -2.292
79.64000 -0.981
79.66000 1.351
79.68000 4.243
79.70000 5.296
79.72000 5.467
79.74000 5.855
79.76000 2.429
79.78000 3.207
79.80000 1.708
79.82000 -0.062
79.84000 0.659
79.86000 -1.034
79.88000 6.427
79.90000 7.269
79.92000 2.250
79.94000 2.614
79.96000 6.058
79.98000 0.482
80.00000 -0.839
80.02000 3.733
80.04000 7.976
80.06000 12.193
80.08000 7.041
80.10000 2.840
80.12000 7.541
80.14000 8.479
80.16000 4.261
80.18000 3.666
80.20000 4.670
80.22000 6.272
80.24000 4.165
80.26000 -2.362
80.28000 -1.272
80.30000 0.638
80.32000 3.450
80.34000 5.312
80.36000 3.218
80.38000 6.931
80.40000 6.086
80.42000 7.667
80.44000 6.671
80.46000 0.679
80.48000 -2.382
80.50000 0.499
80.52000 -0.527
80.54000 4.872
80.56000 5.315
80.58000 9.282
80.60000 12.121
80.62000 9.464
80.64000 6.239
80.66000 6.878
80.68000 3.909
80.70000 3.412
80.72000 2.804
80.74000 2.453
80.76000 4.821
80.78000 4.236
80.80000 8.689
80.82000 5.887
80.84000 7.282
80.86000 6.659
80.88000 -0.494
80.90000 2.212
80.92000 8.318
80.94000 10.190
80.96000 8.429
80.98000 6.246
81.00000 8.328
81.02000 9.420
81.04000 9.771
81.06000 6.241
81.08000 3.093
81.10000 8.260
81.12000 11.707
81.14000 10.031
81.16000 8.593
81.18000 10.413
81.20000 12.329
81.22000 13.397
81.24000 11.109
81.26000 8.932
81.28000 9.595
81.30000 5.537
81.32000 8.437
81.34000 11.708
81.36000 12.681
81.38000 16.498
81.40000 16.162
81.42000 13.656
81.44000 13.161
81.46000 18.081
81.48000 13.726
81.50000 14.598
81.52000 17.317
81.54000 20.387
81.56000 21.149
81.58000 25.478
81.60000 28.348
81.62000 17.981
81.64000 17.138
81.66000 16.921
81.68000 17.839
81.70000 18.635
81.72000 22.129
81.74000 26.554
81.76000 22.773
81.78000 19.597
81.80000 22.724
81.82000 22.225
81.84000 23.616
81.86000 23.147
81.88000 23.711
81.90000 24.048
81.92000 23.648
81.94000 25.036
81.96000 27.393
81.98000 27.252
82.00000 29.103
82.02000 31.865
82.04000 28.637
82.06000 28.196
82.08000 26.216
82.10000 27.700
82.12000 29.232
82.14000 28.853
82.16000 27.396
82.18000 28.654
82.20000 33.184
82.22000 35.270
82.24000 30.143
82.26000 30.747
82.28000 31.949
82.30000 32.822
82.32000 30.337
82.34000 31.384
82.36000 35.069
82.38000 33.751
82.40000 38.175
82.42000 36.176
82.44000 33.424
82.46000 28.386
82.48000 33.241
82.50000 32.633
82.52000 31.158
82.54000 28.695
82.56000 28.358
82.58000 29.413
82.60000 33.504
82.62000 33.127
82.64000 32.124
82.66000 28.649
82.68000 28.359
82.70000 25.049
82.72000 24.629
82.74000 32.628
82.76000 34.544
82.78000 33.031
82.80000 32.336
82.82000 28.812
82.84000 28.921
82.86000 29.201
82.88000 28.072
82.90000 27.186
82.92000 25.790
82.94000 19.741
82.96000 20.407
82.98000 21.753
83.00000 23.969
83.02000 25.101
83.04000 26.298
83.06000 20.583
83.08000 15.181
83.10000 14.788
83.12000 16.161
83.14000 17.030
83.16000 19.462
83.18000 16.931
83.20000 13.300
83.22000 16.853
83.24000 17.678
83.26000 22.617
83.28000 20.110
83.30000 17.247
83.32000 12.340
83.34000 11.868
83.36000 15.111
83.38000 13.547
83.40000 8.449
83.42000 7.646
83.44000 9.726
83.46000 13.135
83.48000 8.995
83.50000 10.636
83.52000 12.023
83.54000 10.297
83.56000 3.373
83.58000 7.193
83.60000 7.901
83.62000 8.677
83.64000 6.355
83.66000 3.652
83.68000 3.912
83.70000 9.110
83.72000 10.327
83.74000 6.196
83.76000 3.549
83.78000 -0.700
83.80000 -1.005
83.82000 4.589
83.84000 6.680
83.86000 2.879
83.88000 5.272
83.90000 13.241
83.92000 8.757
83.94000 5.368
83.96000 1.835
83.98000 3.554
84.00000 0.501
84.02000 2.062
84.04000 1.788
84.06000 2.303
84.08000 1.468
84.10000 1.921
84.12000 4.901
84.14000 5.382
84.16000 1.069
84.18000 0.389
84.20000 -2.357
84.22000 1.742
84.24000 4.748
84.26000 2.185
84.28000 1.016
84.30000 3.603
84.32000 5.830
84.34000 3.381
84.36000 -0.112
84.38000 0.596
84.40000 1.162
84.42000 -1.219
84.44000 -1.258
84.46000 -0.090
84.48000 2.062
84.50000 0.614
84.52000 0.658
84.54000 -0.662
84.56000 3.107
84.58000 -2.338
84.60000 -1.561
84.62000 3.311
84.64000 0.581
84.66000 -0.717
84.68000 2.603
84.70000 3.896
84.72000 3.492
84.74000 -0.299
84.76000 2.870
84.78000 0.458
84.80000 -2.252
84.82000 -1.609
84.84000 -1.695
84.86000 3.111
84.88000 3.179
84.90000 6.594
84.92000 6.658
84.94000 -0.265
84.96000 -2.320
84.98000 0.242
85.00000 -1.781
85.02000 -1.791
85.04000 4.684
85.06000 7.348
85.08000 3.420
85.10000 4.858
85.12000 5.013
85.14000 1.734
85.16000 1.213
85.18000 3.240
85.20000 2.692
85.22000 0.191
85.24000 0.366
85.26000 2.881
85.28000 9.794
85.30000 7.909
85.32000 0.171
85.34000 1.148
85.36000 1.883
85.38000 0.661
85.40000 -1.295
85.42000 0.942
85.44000 2.828
85.46000 7.214
85.48000 4.896
85.50000 6.469
85.52000 3.018
85.54000 3.334
85.56000 3.280
85.58000 2.551
85.60000 2.084
85.62000 4.434
85.64000 3.762
85.66000 3.568
85.68000 8.163
85.70000 8.269
85.72000 3.516
85.74000 3.055
85.76000 6.094
85.78000 8.000
85.80000 9.230
85.82000 8.740
85.84000 8.905
85.86000 8.229
85.88000 10.555
85.90000 9.645
85.92000 5.960
85.94000 10.317
85.96000 11.555
85.98000 11.060
86.00000 16.333
86.02000 16.949
86.04000 10.846
86.06000 10.259
86.08000 12.782
86.10000 12.800
86.12000 12.925
86.14000 12.662
86.16000 12.894
86.18000 18.978
86.20000 17.232
86.22000 15.641
86.24000 20.616
86.26000 24.181
86.28000 19.839
86.30000 15.628
86.32000 13.834
86.34000 14.185
86.36000 18.213
86.38000 19.263
86.40000 19.730
86.42000 23.178
86.44000 19.019
86.46000 21.410
86.48000 19.237
86.50000 20.352
86.52000 26.416
86.54000 23.018
86.56000 23.421
86.58000 21.949
86.60000 24.329
86.62000 23.747
86.64000 22.106
86.66000 18.291
86.68000 20.778
86.70000 23.524
86.72000 21.903
86.74000 18.851
86.76000 21.903
86.78000 19.119
86.80000 16.860
86.82000 18.764
86.84000 22.591
86.86000 25.080
86.88000 24.370
86.90000 21.062
86.92000 18.119
86.94000 19.675
86.96000 18.193
86.98000 20.726
87.00000 20.021
87.02000 17.545
87.04000 12.881
87.06000 14.822
87.08000 15.567
87.10000 13.077
87.12000 13.625
87.14000 10.274
87.16000 11.451
87.18000 10.096
87.20000 11.741
87.22000 12.331
87.24000 15.739
87.26000 17.405
87.28000 12.974
87.30000 16.830
87.32000 14.575
87.34000 13.066
87.36000 10.402
87.38000 9.323
87.40000 6.163
87.42000 4.845
87.44000 12.705
87.46000 14.556
87.48000 7.752
87.50000 8.483
87.52000 11.639
87.54000 7.479
87.56000 2.364
87.58000 1.566
87.60000 2.229
87.62000 5.200
87.64000 12.300
87.66000 11.013
87.68000 10.315
87.70000 11.107
87.72000 6.865
87.74000 5.875
87.76000 2.904
87.78000 2.591
87.80000 4.432
87.82000 1.211
87.84000 -2.244
87.86000 3.226
87.88000 6.047
87.90000 3.536
87.92000 2.592
87.94000 4.842
87.96000 3.564
87.98000 0.948
88.00000 0.960
88.02000 3.019
88.04000 1.828
88.06000 -0.980
88.08000 1.858
88.10000 3.944
88.12000 5.389
88.14000 1.045
88.16000 -0.566
88.18000 -0.290
88.20000 0.049
88.22000 -0.238
88.24000 3.016
88.26000 7.272
88.28000 2.516
88.30000 0.557
88.32000 -0.857
88.34000 2.101
88.36000 2.456
88.38000 4.340
88.40000 3.236
88.42000 5.244
88.44000 2.682
88.46000 -0.582
88.48000 -0.100
88.50000 5.181
88.52000 2.168
88.54000 3.827
88.56000 6.723
88.58000 4.946
88.60000 0.508
88.62000 3.171
88.64000 7.736
88.66000 5.097
88.68000 2.283
88.70000 -0.509
88.72000 -0.685
88.74000 1.525
88.76000 1.304
88.78000 0.409
88.80000 3.928
88.82000 8.683
88.84000 6.756
88.86000 4.427
88.88000 3.812
88.90000 0.019
88.92000 3.445
88.94000 4.094
88.96000 2.533
88.98000 0.134
89.00000 6.296
89.02000 6.223
89.04000 2.882
89.06000 -2.064
89.08000 0.023
89.10000 3.588
89.12000 3.953
89.14000 5.182
89.16000 7.172
89.18000 5.270
89.20000 5.002
89.22000 2.326
89.24000 -0.594
89.26000 -1.603
89.28000 1.911
89.30000 3.048
89.32000 2.893
89.34000 1.694
89.36000 2.587
89.38000 3.498
89.40000 3.286
89.42000 0.400
89.44000 4.072
89.46000 5.746
89.48000 1.898
89.50000 -0.443
89.52000 0.490
89.54000 2.852
89.56000 5.986
89.58000 7.608
89.60000 6.652
89.62000 1.931
89.64000 1.986
89.66000 2.486
89.68000 0.187
89.70000 0.518
89.72000 2.233
89.74000 1.567
89.76000 3.232
89.78000 5.419
89.80000 3.852
89.82000 3.192
89.84000 1.800
89.86000 0.599
89.88000 3.024
89.90000 -1.436
89.92000 4.842
89.94000 3.151
89.96000 4.963
89.98000 9.509
90.00000 8.280
90.02000 3.376
90.04000 0.790
90.06000 -1.380
90.08000 0.446
90.10000 1.172
90.12000 0.505
90.14000 2.334
90.16000 2.533
90.18000 2.486
90.20000 3.330
90.22000 -0.989
90.24000 -0.939
90.26000 4.898
90.28000 7.045
90.30000 5.888
90.32000 4.934
90.34000 4.230
90.36000 1.565
90.38000 3.309
90.40000 -0.630
90.42000 -2.061
90.44000 1.952
90.46000 -0.859
90.48000 2.165
90.50000 2.392
90.52000 3.020
90.54000 3.784
90.56000 2.419
90.58000 6.466
90.60000 9.978
90.62000 4.941
90.64000 2.774
90.66000 6.380
90.68000 5.854
90.70000 4.927
90.72000 3.324
90.74000 -0.373
90.76000 1.196
90.78000 0.219
90.80000 2.910
90.82000 4.356
90.84000 1.251
90.86000 4.224
90.88000 4.690
90.90000 2.789
90.92000 2.219
90.94000 0.012
90.96000 4.588
90.98000 6.947
91.00000 3.260
91.02000 -0.278
91.04000 5.521
91.06000 7.360
91.08000 2.404
91.10000 -0.848
91.12000 1.807
91.14000 5.662
91.16000 3.382
91.18000 -0.151
91.20000 -2.065
91.22000 1.142
91.24000 1.685
91.26000 4.741
91.28000 3.441
91.30000 3.406
91.32000 1.098
91.34000 0.098
91.36000 3.451
91.38000 3.231
91.40000 3.476
91.42000 2.893
91.44000 2.659
91.46000 1.816
91.48000 5.874
91.50000 8.005
91.52000 6.049
91.54000 0.991
91.56000 -2.082
91.58000 0.073
91.60000 4.091
91.62000 5.533
91.64000 4.174
91.66000 3.872
91.68000 -0.497
91.70000 -1.510
91.72000 3.174
91.74000 3.642
91.76000 0.101
91.78000 1.825
91.80000 4.679
91.82000 5.519
91.84000 2.982
91.86000 1.943
91.88000 5.424
91.90000 2.709
91.92000 1.723
91.94000 1.047
91.96000 5.431
91.98000 6.233
92.00000 6.993
92.02000 9.079
92.04000 6.537
92.06000 3.944
92.08000 1.242
92.10000 -0.023
92.12000 3.264
92.14000 -0.292
92.16000 0.518
92.18000 3.895
92.20000 5.668
92.22000 3.037
92.24000 1.421
92.26000 1.061
92.28000 0.649
92.30000 2.887
92.32000 6.591
92.34000 5.371
92.36000 3.327
92.38000 1.991
92.40000 4.093
92.42000 4.320
92.44000 2.909
92.46000 6.043
92.48000 9.215
92.50000 3.513
92.52000 3.263
92.54000 2.844
92.56000 4.514
92.58000 0.151
92.60000 4.655
92.62000 3.942
92.64000 -0.719
92.66000 -0.114
92.68000 6.788
92.70000 4.559
92.72000 -0.898
92.74000 2.362
92.76000 4.486
92.78000 3.822
92.80000 3.239
92.82000 2.090
92.84000 2.740
92.86000 0.592
92.88000 1.335
92.90000 -2.051
92.92000 2.714
92.94000 8.786
92.96000 5.295
92.98000 1.558
93.00000 3.465
93.02000 5.197
93.04000 4.804
93.06000 5.315
93.08000 5.784
93.10000 11.782
93.12000 6.959
93.14000 3.018
93.16000 6.645
93.18000 8.256
93.20000 7.957
93.22000 6.579
93.24000 3.479
93.26000 5.491
93.28000 8.154
93.30000 8.599
93.32000 3.621
93.34000 -0.427
93.36000 -0.194
93.38000 4.918
93.40000 5.878
93.42000 4.159
93.44000 5.161
93.46000 5.889
93.48000 3.915
93.50000 2.856
93.52000 0.799
93.54000 1.897
93.56000 2.089
93.58000 -1.090
93.60000 1.604
93.62000 3.115
93.64000 3.008
93.66000 -0.150
93.68000 0.008
93.70000 2.645
93.72000 4.395
93.74000 2.553
93.76000 4.913
93.78000 4.884
93.80000 3.465
93.82000 5.552
93.84000 3.507
93.86000 2.862
93.88000 2.807
93.90000 3.533
93.92000 5.061
93.94000 9.313
93.96000 9.127
93.98000 2.469
94.00000 2.170
94.02000 8.266
94.04000 4.238
94.06000 2.122
94.08000 0.209
94.10000 7.296
94.12000 8.209
94.14000 7.234
94.16000 1.262
94.18000 1.547
94.20000 1.364
94.22000 3.913
94.24000 2.739
94.26000 3.144
94.28000 6.577
94.30000 7.439
94.32000 7.412
94.34000 4.175
94.36000 1.987
94.38000 1.901
94.40000 2.421
94.42000 4.161
94.44000 4.840
94.46000 4.521
94.48000 6.178
94.50000 5.985
94.52000 0.473
94.54000 -1.187
94.56000 -2.103
94.58000 2.948
94.60000 4.055
94.62000 2.315
94.64000 5.528
94.66000 4.104
94.68000 3.774
94.70000 5.104
94.72000 4.566
94.74000 2.539
94.76000 3.400
94.78000 3.407
94.80000 0.827
94.82000 4.315
94.84000 1.215
94.86000 2.671
94.88000 2.992
94.90000 1.120
94.92000 2.451
94.94000 8.661
94.96000 6.362
94.98000 6.836
95.00000 5.868
95.02000 5.824
95.04000 5.394
95.06000 8.394
95.08000 6.172
95.10000 11.025
95.12000 10.778
95.14000 8.279
95.16000 2.288
95.18000 5.447
95.20000 1.765
95.22000 -0.038
95.24000 0.875
95.26000 8.060
95.28000 3.519
95.30000 2.647
95.32000 1.520
95.34000 3.093
95.36000 1.693
95.38000 3.925
95.40000 3.677
95.42000 2.794
95.44000 4.111
95.46000 5.580
95.48000 8.420
95.50000 9.768
95.52000 9.716
95.54000 5.926
95.56000 6.800
95.58000 5.798
95.60000 5.158
95.62000 1.808
95.64000 0.313
95.66000 -2.048
95.68000 4.446
95.70000 0.870
95.72000 7.363
95.74000 4.853
95.76000 5.438
95.78000 7.230
95.80000 8.537
95.82000 9.576
95.84000 4.882
95.86000 1.933
95.88000 7.102
95.90000 8.961
95.92000 8.034
95.94000 5.876
95.96000 9.451
95.98000 9.267
96.00000 7.571
96.02000 5.758
96.04000 10.067
96.06000 6.659
96.08000 3.887
96.10000 2.926
96.12000 6.988
96.14000 3.577
96.16000 3.448
96.18000 4.639
96.20000 4.495
96.22000 9.859
96.24000 2.572
96.26000 4.443
96.28000 3.661
96.30000 3.283
96.32000 5.159
96.34000 6.472
96.36000 6.348
96.38000 6.577
96.40000 4.460
96.42000 8.234
96.44000 12.175
96.46000 8.281
96.48000 5.573
96.50000 8.442
96.52000 6.680
96.54000 9.334
96.56000 11.900
96.58000 8.076
96.60000 8.336
96.62000 12.188
96.64000 10.246
96.66000 5.775
96.68000 7.304
96.70000 9.120
96.72000 9.678
96.74000 8.962
96.76000 7.614
96.78000 7.856
96.80000 7.604
96.82000 9.318
96.84000 8.796
96.86000 7.183
96.88000 -2.008
96.90000 2.185
96.92000 7.910
96.94000 5.065
96.96000 6.834
96.98000 7.209
97.00000 4.935
97.02000 6.226
97.04000 5.825
97.06000 11.971
97.08000 9.423
97.10000 7.271
97.12000 3.935
97.14000 0.292
97.16000 9.005
97.18000 9.585
97.20000 6.656
97.22000 7.553
97.24000 6.715
97.26000 9.685
97.28000 12.045
97.30000 6.662
97.32000 1.245
97.34000 5.705
97.36000 7.100
97.38000 7.191
97.40000 8.185
97.42000 9.610
97.44000 8.066
97.46000 10.118
97.48000 3.697
97.50000 6.213
97.52000 7.619
97.54000 6.241
97.56000 7.217
97.58000 3.367
97.60000 3.867
97.62000 6.892
97.64000 5.600
97.66000 5.344
97.68000 6.036
97.70000 11.429
97.72000 10.248
97.74000 6.084
97.76000 4.489
97.78000 8.212
97.80000 8.895
97.82000 12.596
97.84000 11.469
97.86000 8.554
97.88000 3.287
97.90000 5.096
97.92000 6.759
97.94000 5.599
97.96000 2.681
97.98000 7.154
98.00000 12.253
98.02000 13.186
98.04000 2.724
98.06000 8.167
98.08000 -0.273
98.10000 -0.074
98.12000 4.954
98.14000 5.424
98.16000 6.293
98.18000 4.281
98.20000 7.306
98.22000 7.347
98.24000 3.100
98.26000 7.676
98.28000 3.580
98.30000 4.241
98.32000 6.334
98.34000 5.551
98.36000 5.961
98.38000 8.232
98.40000 3.269
98.42000 0.001
98.44000 3.895
98.46000 5.696
98.48000 3.740
98.50000 9.783
98.52000 6.208
98.54000 8.522
98.56000 7.690
98.58000 -1.064
98.60000 0.223
98.62000 9.684
98.64000 13.797
98.66000 3.138
98.68000 2.092
98.70000 8.403
98.72000 7.964
98.74000 7.040
98.76000 2.261
98.78000 5.912
98.80000 10.455
98.82000 -2.158
98.84000 -0.267
98.86000 3.375
98.88000 7.439
98.90000 6.363
98.92000 10.594
98.94000 13.867
98.96000 10.896
98.98000 10.528
99.00000 4.877
99.02000 11.610
99.04000 10.853
99.06000 11.337
99.08000 3.973
99.10000 0.813
99.12000 4.022
99.14000 4.022
99.16000 14.032
99.18000 15.873
99.20000 11.315
99.22000 15.539
99.24000 8.775
99.26000 5.832
99.28000 6.386
99.30000 4.979
99.32000 6.241
99.34000 7.138
99.36000 1.547
99.38000 10.433
99.40000 3.022
99.42000 1.902
99.44000 9.924
99.46000 11.108
99.48000 13.051
99.50000 8.539
99.52000 16.172
99.54000 9.000
99.56000 11.536
99.58000 8.180
99.60000 16.514
99.62000 11.348
99.64000 7.425
99.66000 10.336
99.68000 0.338
99.70000 0.098
99.72000 -2.032
99.74000 0.809
99.76000 4.480
99.78000 19.028
99.80000 18.848
99.82000 8.302
99.84000 -2.091
99.86000 -1.835
99.88000 -2.181
99.90000 2.589
99.92000 4.502
99.94000 7.286
99.96000 4.205
99.98000 0.000
