'Id: "0011388" Comment: "Integrate frame 0011388_Au-Ir-Rh_Rh-rich_XRD-Mapping-158-0000.gfrmwith cursor Wedge Cursor #5" Operator: "B?rgel" Anode: "Cu" Wavelength: "1.5406" Scantype: "2Theta (TwoTheta)" TimePerStep: "1" X: "-40.5" Y: "0" Z: "5.95" 
10.00000 0.000
10.02000 2.070
10.04000 -4.593
10.06000 -1.095
10.08000 8.036
10.10000 -4.427
10.12000 3.483
10.14000 9.253
10.16000 23.876
10.18000 23.722
10.20000 11.627
10.22000 10.679
10.24000 2.511
10.26000 14.801
10.28000 30.407
10.30000 29.338
10.32000 15.866
10.34000 12.976
10.36000 17.365
10.38000 3.310
10.40000 9.695
10.42000 22.628
10.44000 18.145
10.46000 12.087
10.48000 16.478
10.50000 27.698
10.52000 19.691
10.54000 13.546
10.56000 17.529
10.58000 30.565
10.60000 19.373
10.62000 6.413
10.64000 4.704
10.66000 13.026
10.68000 16.557
10.70000 18.787
10.72000 9.175
10.74000 18.026
10.76000 25.693
10.78000 17.414
10.80000 8.252
10.82000 4.424
10.84000 -4.460
10.86000 5.396
10.88000 9.707
10.90000 14.808
10.92000 19.684
10.94000 14.611
10.96000 9.298
10.98000 18.582
11.00000 15.766
11.02000 35.345
11.04000 18.403
11.06000 25.100
11.08000 17.180
11.10000 5.466
11.12000 8.656
11.14000 3.997
11.16000 2.024
11.18000 10.926
11.20000 17.264
11.22000 24.797
11.24000 31.054
11.26000 21.902
11.28000 16.119
11.30000 24.190
11.32000 18.633
11.34000 3.246
11.36000 9.761
11.38000 7.099
11.40000 12.542
11.42000 11.782
11.44000 11.934
11.46000 8.995
11.48000 1.241
11.50000 9.786
11.52000 11.440
11.54000 16.206
11.56000 16.517
11.58000 10.179
11.60000 15.547
11.62000 6.574
11.64000 3.701
11.66000 17.934
11.68000 13.287
11.70000 14.887
11.72000 11.646
11.74000 7.835
11.76000 11.500
11.78000 14.014
11.80000 15.686
11.82000 8.417
11.84000 11.920
11.86000 7.944
11.88000 8.774
11.90000 23.460
11.92000 21.412
11.94000 11.629
11.96000 1.574
11.98000 7.770
12.00000 -2.283
12.02000 2.149
12.04000 2.887
12.06000 0.963
12.08000 -3.398
12.10000 1.641
12.12000 11.093
12.14000 18.107
12.16000 13.404
12.18000 14.574
12.20000 13.836
12.22000 8.097
12.24000 12.849
12.26000 9.228
12.28000 11.385
12.30000 4.092
12.32000 11.217
12.34000 3.819
12.36000 6.653
12.38000 -1.034
12.40000 13.416
12.42000 15.741
12.44000 6.254
12.46000 6.892
12.48000 5.061
12.50000 9.452
12.52000 11.907
12.54000 3.871
12.56000 4.254
12.58000 5.624
12.60000 17.218
12.62000 14.368
12.64000 18.124
12.66000 21.633
12.68000 9.735
12.70000 10.356
12.72000 7.592
12.74000 11.938
12.76000 3.812
12.78000 3.050
12.80000 0.779
12.82000 0.463
12.84000 4.787
12.86000 -0.175
12.88000 5.902
12.90000 9.085
12.92000 18.522
12.94000 19.545
12.96000 13.393
12.98000 9.594
13.00000 6.761
13.02000 8.590
13.04000 4.107
13.06000 5.596
13.08000 2.845
13.10000 -2.220
13.12000 -1.289
13.14000 6.444
13.16000 1.726
13.18000 3.444
13.20000 6.930
13.22000 14.800
13.24000 15.423
13.26000 8.618
13.28000 13.095
13.30000 19.203
13.32000 22.593
13.34000 10.807
13.36000 8.017
13.38000 8.459
13.40000 15.496
13.42000 8.306
13.44000 2.713
13.46000 -3.188
13.48000 6.929
13.50000 14.098
13.52000 15.585
13.54000 18.304
13.56000 17.292
13.58000 8.714
13.60000 5.670
13.62000 5.449
13.64000 7.551
13.66000 6.101
13.68000 1.757
13.70000 1.810
13.72000 -0.527
13.74000 7.003
13.76000 12.752
13.78000 10.524
13.80000 4.933
13.82000 -4.507
13.84000 -2.112
13.86000 7.512
13.88000 7.070
13.90000 3.709
13.92000 2.397
13.94000 7.177
13.96000 2.614
13.98000 2.647
14.00000 7.635
14.02000 3.559
14.04000 -3.928
14.06000 1.790
14.08000 1.218
14.10000 5.007
14.12000 5.926
14.14000 5.745
14.16000 5.718
14.18000 9.909
14.20000 15.849
14.22000 9.949
14.24000 9.179
14.26000 0.144
14.28000 -3.308
14.30000 -4.385
14.32000 -1.328
14.34000 7.785
14.36000 10.131
14.38000 9.714
14.40000 7.799
14.42000 3.722
14.44000 5.292
14.46000 4.604
14.48000 2.258
14.50000 8.224
14.52000 12.125
14.54000 12.804
14.56000 7.466
14.58000 12.789
14.60000 4.700
14.62000 5.597
14.64000 -0.739
14.66000 8.091
14.68000 0.321
14.70000 10.545
14.72000 5.415
14.74000 1.229
14.76000 9.438
14.78000 11.982
14.80000 13.314
14.82000 12.084
14.84000 -4.184
14.86000 1.331
14.88000 10.011
14.90000 9.104
14.92000 13.962
14.94000 10.701
14.96000 0.462
14.98000 6.055
15.00000 10.035
15.02000 -4.451
15.04000 6.447
15.06000 10.173
15.08000 8.752
15.10000 13.645
15.12000 13.949
15.14000 6.922
15.16000 15.133
15.18000 7.885
15.20000 0.939
15.22000 6.577
15.24000 17.816
15.26000 7.574
15.28000 10.216
15.30000 8.556
15.32000 1.322
15.34000 11.077
15.36000 9.077
15.38000 9.481
15.40000 12.046
15.42000 12.554
15.44000 3.945
15.46000 10.720
15.48000 10.223
15.50000 10.082
15.52000 3.511
15.54000 7.977
15.56000 11.263
15.58000 -0.104
15.60000 8.566
15.62000 15.287
15.64000 12.441
15.66000 3.592
15.68000 -2.230
15.70000 0.197
15.72000 10.397
15.74000 8.771
15.76000 1.077
15.78000 6.093
15.80000 9.356
15.82000 -4.434
15.84000 -2.497
15.86000 4.818
15.88000 4.825
15.90000 6.873
15.92000 7.771
15.94000 10.672
15.96000 -0.355
15.98000 -1.124
16.00000 7.165
16.02000 5.689
16.04000 6.297
16.06000 3.348
16.08000 1.315
16.10000 -3.432
16.12000 -2.635
16.14000 10.839
16.16000 8.131
16.18000 7.456
16.20000 6.628
16.22000 8.263
16.24000 11.722
16.26000 8.501
16.28000 6.842
16.30000 8.277
16.32000 1.638
16.34000 4.460
16.36000 2.870
16.38000 3.052
16.40000 1.536
16.42000 9.460
16.44000 13.027
16.46000 5.938
16.48000 0.485
16.50000 1.096
16.52000 1.653
16.54000 -4.400
16.56000 6.585
16.58000 14.093
16.60000 10.176
16.62000 8.297
16.64000 10.880
16.66000 6.978
16.68000 1.305
16.70000 -0.796
16.72000 3.216
16.74000 10.622
16.76000 11.074
16.78000 11.510
16.80000 7.381
16.82000 3.909
16.84000 2.240
16.86000 -0.906
16.88000 1.160
16.90000 3.564
16.92000 2.424
16.94000 3.191
16.96000 2.170
16.98000 2.938
17.00000 8.900
17.02000 13.296
17.04000 16.222
17.06000 12.525
17.08000 9.759
17.10000 4.554
17.12000 3.809
17.14000 5.582
17.16000 4.467
17.18000 2.346
17.20000 4.200
17.22000 5.215
17.24000 3.676
17.26000 5.463
17.28000 4.965
17.30000 5.789
17.32000 6.039
17.34000 16.007
17.36000 14.381
17.38000 1.761
17.40000 5.490
17.42000 6.225
17.44000 1.801
17.46000 7.473
17.48000 9.217
17.50000 1.204
17.52000 -0.681
17.54000 6.605
17.56000 6.877
17.58000 4.143
17.60000 4.650
17.62000 3.800
17.64000 6.923
17.66000 5.614
17.68000 7.365
17.70000 1.130
17.72000 -0.843
17.74000 1.626
17.76000 0.431
17.78000 5.409
17.80000 2.022
17.82000 5.441
17.84000 6.917
17.86000 7.140
17.88000 11.287
17.90000 6.917
17.92000 11.879
17.94000 10.136
17.96000 5.818
17.98000 3.870
18.00000 1.815
18.02000 1.323
18.04000 1.042
18.06000 -4.320
18.08000 -0.991
18.10000 8.141
18.12000 8.376
18.14000 6.366
18.16000 11.854
18.18000 11.700
18.20000 2.608
18.22000 2.520
18.24000 6.094
18.26000 13.186
18.28000 9.495
18.30000 3.032
18.32000 -1.923
18.34000 -4.305
18.36000 -3.761
18.38000 3.145
18.40000 2.344
18.42000 0.661
18.44000 -0.376
18.46000 0.134
18.48000 -3.139
18.50000 3.729
18.52000 9.187
18.54000 2.349
18.56000 -0.984
18.58000 3.470
18.60000 3.975
18.62000 3.969
18.64000 12.051
18.66000 9.595
18.68000 0.293
18.70000 -1.778
18.72000 2.108
18.74000 9.922
18.76000 5.964
18.78000 5.141
18.80000 8.032
18.82000 4.475
18.84000 2.246
18.86000 6.747
18.88000 4.315
18.90000 4.647
18.92000 6.944
18.94000 6.504
18.96000 -0.944
18.98000 7.880
19.00000 11.271
19.02000 6.792
19.04000 3.638
19.06000 2.317
19.08000 8.614
19.10000 9.720
19.12000 13.860
19.14000 11.558
19.16000 6.307
19.18000 2.872
19.20000 0.731
19.22000 -1.743
19.24000 2.569
19.26000 1.823
19.28000 2.587
19.30000 7.518
19.32000 7.009
19.34000 -0.571
19.36000 4.721
19.38000 3.740
19.40000 3.991
19.42000 5.768
19.44000 1.037
19.46000 4.016
19.48000 6.535
19.50000 10.141
19.52000 9.384
19.54000 11.509
19.56000 8.211
19.58000 5.196
19.60000 2.828
19.62000 2.710
19.64000 4.780
19.66000 2.401
19.68000 2.728
19.70000 3.599
19.72000 9.063
19.74000 9.956
19.76000 7.088
19.78000 10.323
19.80000 12.881
19.82000 7.235
19.84000 2.616
19.86000 11.648
19.88000 7.607
19.90000 3.793
19.92000 3.115
19.94000 7.739
19.96000 9.163
19.98000 11.854
20.00000 10.432
20.02000 8.740
20.04000 3.576
20.06000 2.996
20.08000 -1.115
20.10000 -4.185
20.12000 -0.989
20.14000 2.881
20.16000 10.705
20.18000 8.047
20.20000 8.850
20.22000 8.524
20.24000 5.666
20.26000 4.602
20.28000 4.066
20.30000 8.746
20.32000 9.542
20.34000 8.889
20.36000 10.911
20.38000 9.997
20.40000 10.355
20.42000 11.269
20.44000 1.832
20.46000 2.295
20.48000 6.016
20.50000 -2.219
20.52000 5.609
20.54000 10.383
20.56000 6.305
20.58000 -3.658
20.60000 4.202
20.62000 9.314
20.64000 6.040
20.66000 7.764
20.68000 5.617
20.70000 4.839
20.72000 6.043
20.74000 5.800
20.76000 6.318
20.78000 14.765
20.80000 12.162
20.82000 3.458
20.84000 8.017
20.86000 15.235
20.88000 10.356
20.90000 -4.155
20.92000 -1.341
20.94000 -1.755
20.96000 3.620
20.98000 2.019
21.00000 7.939
21.02000 6.317
21.04000 8.503
21.06000 4.414
21.08000 4.898
21.10000 10.227
21.12000 11.721
21.14000 6.935
21.16000 3.922
21.18000 2.154
21.20000 2.241
21.22000 5.999
21.24000 6.537
21.26000 4.950
21.28000 5.522
21.30000 11.874
21.32000 12.548
21.34000 6.751
21.36000 4.257
21.38000 6.307
21.40000 7.442
21.42000 5.752
21.44000 4.975
21.46000 1.902
21.48000 3.065
21.50000 0.932
21.52000 0.563
21.54000 -0.553
21.56000 -0.465
21.58000 3.246
21.60000 6.601
21.62000 9.955
21.64000 5.542
21.66000 3.586
21.68000 5.051
21.70000 7.082
21.72000 13.811
21.74000 14.012
21.76000 11.615
21.78000 5.141
21.80000 -0.267
21.82000 1.197
21.84000 4.188
21.86000 8.430
21.88000 7.455
21.90000 1.468
21.92000 4.708
21.94000 4.692
21.96000 1.088
21.98000 8.138
22.00000 10.409
22.02000 11.798
22.04000 11.746
22.06000 6.056
22.08000 4.294
22.10000 -4.084
22.12000 1.680
22.14000 6.441
22.16000 5.330
22.18000 8.719
22.20000 3.722
22.22000 1.902
22.24000 2.382
22.26000 5.781
22.28000 9.202
22.30000 6.227
22.32000 8.064
22.34000 7.723
22.36000 8.901
22.38000 10.728
22.40000 7.040
22.42000 6.719
22.44000 3.660
22.46000 0.252
22.48000 0.282
22.50000 0.789
22.52000 3.277
22.54000 -1.148
22.56000 0.428
22.58000 7.847
22.60000 15.104
22.62000 12.919
22.64000 12.281
22.66000 7.387
22.68000 2.930
22.70000 1.981
22.72000 5.892
22.74000 8.000
22.76000 7.775
22.78000 0.030
22.80000 0.336
22.82000 2.463
22.84000 -0.170
22.86000 5.148
22.88000 10.110
22.90000 11.035
22.92000 3.642
22.94000 3.941
22.96000 5.780
22.98000 2.849
23.00000 2.617
23.02000 5.810
23.04000 6.107
23.06000 2.728
23.08000 6.163
23.10000 13.869
23.12000 8.631
23.14000 2.733
23.16000 4.512
23.18000 10.170
23.20000 14.292
23.22000 9.150
23.24000 8.201
23.26000 4.586
23.28000 6.909
23.30000 4.016
23.32000 5.415
23.34000 7.082
23.36000 8.206
23.38000 7.032
23.40000 5.450
23.42000 5.192
23.44000 6.413
23.46000 12.416
23.48000 1.848
23.50000 3.428
23.52000 4.214
23.54000 5.761
23.56000 5.985
23.58000 9.100
23.60000 3.168
23.62000 0.200
23.64000 -4.005
23.66000 1.493
23.68000 1.137
23.70000 -1.151
23.72000 1.954
23.74000 6.213
23.76000 7.546
23.78000 6.755
23.80000 9.447
23.82000 1.314
23.84000 1.693
23.86000 1.915
23.88000 1.888
23.90000 3.188
23.92000 3.744
23.94000 5.903
23.96000 1.956
23.98000 5.216
24.00000 5.596
24.02000 5.573
24.04000 -1.196
24.06000 1.839
24.08000 -3.972
24.10000 4.803
24.12000 9.735
24.14000 6.492
24.16000 5.389
24.18000 8.587
24.20000 7.239
24.22000 4.617
24.24000 6.186
24.26000 3.985
24.28000 6.317
24.30000 6.352
24.32000 5.173
24.34000 3.765
24.36000 -1.530
24.38000 0.205
24.40000 3.130
24.42000 9.881
24.44000 9.533
24.46000 3.754
24.48000 5.980
24.50000 6.143
24.52000 7.207
24.54000 9.674
24.56000 8.374
24.58000 4.161
24.60000 5.601
24.62000 7.347
24.64000 3.584
24.66000 2.945
24.68000 7.272
24.70000 8.214
24.72000 11.143
24.74000 6.744
24.76000 2.931
24.78000 1.893
24.80000 4.478
24.82000 5.006
24.84000 5.737
24.86000 3.003
24.88000 3.400
24.90000 6.589
24.92000 6.308
24.94000 5.094
24.96000 7.011
24.98000 1.910
25.00000 5.619
25.02000 10.110
25.04000 9.910
25.06000 0.114
25.08000 9.460
25.10000 6.501
25.12000 3.990
25.14000 -3.928
25.16000 -2.295
25.18000 5.945
25.20000 7.526
25.22000 4.185
25.24000 4.842
25.26000 3.691
25.28000 1.967
25.30000 1.801
25.32000 6.898
25.34000 8.414
25.36000 11.965
25.38000 8.809
25.40000 9.133
25.42000 8.933
25.44000 9.266
25.46000 5.387
25.48000 4.380
25.50000 3.394
25.52000 3.413
25.54000 7.248
25.56000 7.295
25.58000 8.289
25.60000 8.271
25.62000 10.695
25.64000 7.414
25.66000 3.623
25.68000 9.017
25.70000 8.418
25.72000 3.359
25.74000 0.892
25.76000 -0.113
25.78000 4.478
25.80000 7.082
25.82000 3.518
25.84000 -3.878
25.86000 -1.726
25.88000 4.772
25.90000 5.320
25.92000 4.593
25.94000 6.533
25.96000 4.992
25.98000 4.780
26.00000 5.462
26.02000 7.904
26.04000 8.822
26.06000 9.690
26.08000 6.023
26.10000 6.476
26.12000 3.334
26.14000 3.703
26.16000 3.155
26.18000 -1.926
26.20000 2.928
26.22000 8.200
26.24000 10.573
26.26000 6.232
26.28000 3.142
26.30000 8.248
26.32000 12.179
26.34000 10.698
26.36000 7.499
26.38000 6.526
26.40000 6.129
26.42000 7.720
26.44000 8.532
26.46000 8.547
26.48000 8.099
26.50000 -0.016
26.52000 2.692
26.54000 0.691
26.56000 2.783
26.58000 6.410
26.60000 1.414
26.62000 4.095
26.64000 5.240
26.66000 4.952
26.68000 2.471
26.70000 1.293
26.72000 4.039
26.74000 2.453
26.76000 2.523
26.78000 0.235
26.80000 4.733
26.82000 3.358
26.84000 1.222
26.86000 3.403
26.88000 0.833
26.90000 3.869
26.92000 9.358
26.94000 6.397
26.96000 4.839
26.98000 6.560
27.00000 7.539
27.02000 3.726
27.04000 1.994
27.06000 0.004
27.08000 -1.228
27.10000 0.189
27.12000 -0.692
27.14000 3.851
27.16000 3.576
27.18000 -0.281
27.20000 1.633
27.22000 -0.960
27.24000 3.444
27.26000 6.332
27.28000 4.182
27.30000 6.221
27.32000 4.142
27.34000 5.074
27.36000 6.658
27.38000 3.088
27.40000 3.045
27.42000 3.146
27.44000 1.618
27.46000 4.446
27.48000 1.853
27.50000 2.197
27.52000 5.555
27.54000 9.854
27.56000 13.349
27.58000 10.275
27.60000 3.831
27.62000 6.081
27.64000 4.111
27.66000 7.946
27.68000 6.305
27.70000 7.325
27.72000 3.975
27.74000 4.818
27.76000 2.244
27.78000 3.556
27.80000 6.330
27.82000 5.114
27.84000 2.479
27.86000 1.069
27.88000 2.009
27.90000 3.791
27.92000 2.160
27.94000 -3.759
27.96000 -1.357
27.98000 1.280
28.00000 8.492
28.02000 13.759
28.04000 9.750
28.06000 5.800
28.08000 3.919
28.10000 8.835
28.12000 3.881
28.14000 0.877
28.16000 7.361
28.18000 11.459
28.20000 11.361
28.22000 5.214
28.24000 6.815
28.26000 12.076
28.28000 8.366
28.30000 5.256
28.32000 9.946
28.34000 6.006
28.36000 0.974
28.38000 0.448
28.40000 -0.210
28.42000 1.870
28.44000 4.911
28.46000 4.358
28.48000 6.283
28.50000 6.738
28.52000 6.055
28.54000 2.283
28.56000 1.516
28.58000 3.846
28.60000 2.249
28.62000 9.251
28.64000 10.865
28.66000 8.476
28.68000 8.653
28.70000 5.769
28.72000 3.896
28.74000 4.992
28.76000 7.832
28.78000 5.959
28.80000 9.813
28.82000 13.491
28.84000 7.046
28.86000 9.550
28.88000 -0.802
28.90000 -3.704
28.92000 0.326
28.94000 5.130
28.96000 11.301
28.98000 6.276
29.00000 6.489
29.02000 2.782
29.04000 -3.040
29.06000 -0.119
29.08000 2.467
29.10000 4.723
29.12000 0.923
29.14000 0.354
29.16000 4.651
29.18000 7.491
29.20000 7.025
29.22000 6.050
29.24000 4.125
29.26000 6.071
29.28000 5.215
29.30000 4.555
29.32000 5.340
29.34000 4.166
29.36000 5.632
29.38000 6.640
29.40000 9.166
29.42000 1.761
29.44000 -3.685
29.46000 0.294
29.48000 0.567
29.50000 -1.001
29.52000 3.253
29.54000 4.901
29.56000 4.790
29.58000 -0.422
29.60000 3.491
29.62000 7.953
29.64000 5.879
29.66000 3.878
29.68000 4.829
29.70000 4.949
29.72000 4.426
29.74000 6.882
29.76000 2.113
29.78000 0.658
29.80000 2.208
29.82000 -2.608
29.84000 -1.631
29.86000 2.258
29.88000 9.738
29.90000 9.294
29.92000 1.335
29.94000 6.273
29.96000 1.334
29.98000 -0.929
30.00000 1.754
30.02000 5.583
30.04000 2.924
30.06000 4.574
30.08000 4.322
30.10000 3.781
30.12000 4.385
30.14000 4.828
30.16000 5.336
30.18000 0.133
30.20000 3.632
30.22000 1.270
30.24000 -3.670
30.26000 -1.209
30.28000 0.704
30.30000 2.181
30.32000 6.471
30.34000 5.895
30.36000 1.300
30.38000 1.170
30.40000 4.830
30.42000 3.946
30.44000 3.690
30.46000 0.550
30.48000 -1.293
30.50000 0.207
30.52000 0.866
30.54000 1.464
30.56000 -0.035
30.58000 5.197
30.60000 5.271
30.62000 4.520
30.64000 4.133
30.66000 2.623
30.68000 6.481
30.70000 8.355
30.72000 4.676
30.74000 -1.210
30.76000 1.574
30.78000 1.914
30.80000 0.399
30.82000 0.025
30.84000 2.160
30.86000 7.192
30.88000 3.907
30.90000 1.860
30.92000 -0.769
30.94000 2.755
30.96000 5.254
30.98000 7.205
31.00000 -2.380
31.02000 0.353
31.04000 6.157
31.06000 3.366
31.08000 2.225
31.10000 3.871
31.12000 6.413
31.14000 8.965
31.16000 5.817
31.18000 3.476
31.20000 3.494
31.22000 -3.615
31.24000 0.214
31.26000 2.345
31.28000 2.243
31.30000 -0.428
31.32000 -1.922
31.34000 -0.337
31.36000 1.387
31.38000 0.229
31.40000 1.734
31.42000 2.908
31.44000 3.924
31.46000 3.386
31.48000 -0.394
31.50000 -1.840
31.52000 5.836
31.54000 3.711
31.56000 2.984
31.58000 -0.953
31.60000 0.626
31.62000 3.673
31.64000 -0.631
31.66000 -0.905
31.68000 -2.017
31.70000 6.862
31.72000 7.059
31.74000 2.421
31.76000 4.093
31.78000 6.612
31.80000 2.304
31.82000 1.136
31.84000 -1.416
31.86000 1.223
31.88000 4.129
31.90000 1.611
31.92000 4.509
31.94000 4.615
31.96000 3.876
31.98000 2.665
32.00000 2.073
32.02000 4.866
32.04000 1.408
32.06000 -2.935
32.08000 -0.222
32.10000 1.338
32.12000 -0.842
32.14000 -3.127
32.16000 -1.014
32.18000 1.937
32.20000 1.074
32.22000 1.378
32.24000 0.406
32.26000 -0.723
32.28000 -2.216
32.30000 -0.543
32.32000 -1.363
32.34000 1.386
32.36000 4.571
32.38000 6.107
32.40000 -1.810
32.42000 -3.386
32.44000 -2.842
32.46000 -3.417
32.48000 -0.577
32.50000 -2.053
32.52000 4.185
32.54000 3.915
32.56000 4.376
32.58000 2.657
32.60000 -2.610
32.62000 -1.464
32.64000 4.136
32.66000 6.492
32.68000 -1.705
32.70000 1.022
32.72000 3.642
32.74000 6.819
32.76000 3.214
32.78000 1.686
32.80000 0.452
32.82000 3.407
32.84000 6.667
32.86000 6.977
32.88000 4.840
32.90000 -1.176
32.92000 -3.584
32.94000 1.018
32.96000 -0.805
32.98000 0.847
33.00000 0.875
33.02000 3.922
33.04000 0.836
33.06000 3.291
33.08000 2.412
33.10000 -3.331
33.12000 -1.567
33.14000 4.281
33.16000 2.265
33.18000 2.868
33.20000 -0.415
33.22000 2.405
33.24000 6.922
33.26000 1.988
33.28000 -2.583
33.30000 -2.243
33.32000 2.423
33.34000 4.684
33.36000 4.643
33.38000 3.258
33.40000 -1.579
33.42000 0.720
33.44000 1.340
33.46000 -1.667
33.48000 0.082
33.50000 2.998
33.52000 5.247
33.54000 4.304
33.56000 1.217
33.58000 3.314
33.60000 1.275
33.62000 -1.313
33.64000 4.222
33.66000 7.216
33.68000 3.422
33.70000 2.237
33.72000 3.750
33.74000 -0.225
33.76000 0.022
33.78000 0.764
33.80000 4.045
33.82000 1.300
33.84000 -2.012
33.86000 -0.459
33.88000 3.129
33.90000 5.048
33.92000 4.825
33.94000 3.168
33.96000 2.635
33.98000 4.571
34.00000 5.117
34.02000 2.307
34.04000 3.469
34.06000 2.543
34.08000 4.344
34.10000 4.003
34.12000 -2.859
34.14000 -0.337
34.16000 2.384
34.18000 3.343
34.20000 1.416
34.22000 3.474
34.24000 8.132
34.26000 5.978
34.28000 3.376
34.30000 6.620
34.32000 6.186
34.34000 5.266
34.36000 5.590
34.38000 4.798
34.40000 5.782
34.42000 3.708
34.44000 -3.518
34.46000 -0.482
34.48000 2.536
34.50000 6.057
34.52000 4.817
34.54000 3.126
34.56000 5.319
34.58000 4.151
34.60000 6.898
34.62000 7.856
34.64000 0.045
34.66000 -1.117
34.68000 -0.729
34.70000 3.412
34.72000 4.389
34.74000 0.435
34.76000 0.750
34.78000 4.264
34.80000 6.724
34.82000 4.847
34.84000 1.396
34.86000 2.163
34.88000 6.705
34.90000 2.864
34.92000 0.215
34.94000 2.463
34.96000 3.363
34.98000 3.251
35.00000 3.560
35.02000 6.708
35.04000 1.047
35.06000 4.078
35.08000 4.674
35.10000 1.379
35.12000 3.324
35.14000 1.606
35.16000 -0.411
35.18000 1.066
35.20000 0.249
35.22000 0.152
35.24000 4.885
35.26000 2.999
35.28000 -1.128
35.30000 -0.886
35.32000 -0.379
35.34000 -2.300
35.36000 0.198
35.38000 0.958
35.40000 3.363
35.42000 2.085
35.44000 4.629
35.46000 3.659
35.48000 0.380
35.50000 -2.155
35.52000 -2.945
35.54000 -3.519
35.56000 3.705
35.58000 6.027
35.60000 2.434
35.62000 2.748
35.64000 2.546
35.66000 2.866
35.68000 2.724
35.70000 1.530
35.72000 0.303
35.74000 3.303
35.76000 -2.890
35.78000 -2.241
35.80000 7.041
35.82000 2.411
35.84000 -0.324
35.86000 3.182
35.88000 7.188
35.90000 5.090
35.92000 6.324
35.94000 5.138
35.96000 0.262
35.98000 -1.792
36.00000 -3.522
36.02000 1.920
36.04000 1.773
36.06000 2.011
36.08000 4.125
36.10000 3.307
36.12000 2.087
36.14000 4.108
36.16000 0.245
36.18000 2.649
36.20000 1.897
36.22000 8.896
36.24000 5.642
36.26000 -1.754
36.28000 -0.494
36.30000 -1.276
36.32000 -0.950
36.34000 5.977
36.36000 4.056
36.38000 3.094
36.40000 2.720
36.42000 3.771
36.44000 4.083
36.46000 -2.946
36.48000 -2.097
36.50000 -1.327
36.52000 0.895
36.54000 4.004
36.56000 3.884
36.58000 -1.888
36.60000 2.316
36.62000 -1.146
36.64000 -1.722
36.66000 -0.354
36.68000 0.950
36.70000 2.093
36.72000 4.761
36.74000 2.002
36.76000 -0.638
36.78000 0.059
36.80000 0.023
36.82000 -0.263
36.84000 2.054
36.86000 3.923
36.88000 3.784
36.90000 4.927
36.92000 0.210
36.94000 -3.552
36.96000 -1.122
36.98000 -0.631
37.00000 0.756
37.02000 1.814
37.04000 4.090
37.06000 0.435
37.08000 2.316
37.10000 0.663
37.12000 1.525
37.14000 4.230
37.16000 0.726
37.18000 -3.554
37.20000 6.353
37.22000 9.276
37.24000 6.407
37.26000 6.504
37.28000 3.415
37.30000 5.628
37.32000 6.466
37.34000 4.376
37.36000 4.315
37.38000 3.728
37.40000 3.464
37.42000 7.708
37.44000 5.184
37.46000 6.174
37.48000 6.121
37.50000 1.926
37.52000 2.123
37.54000 7.911
37.56000 4.538
37.58000 1.519
37.60000 2.989
37.62000 4.252
37.64000 8.584
37.66000 10.901
37.68000 5.189
37.70000 2.201
37.72000 0.030
37.74000 4.125
37.76000 12.076
37.78000 9.303
37.80000 9.831
37.82000 8.771
37.84000 6.190
37.86000 7.817
37.88000 6.294
37.90000 4.056
37.92000 9.355
37.94000 12.340
37.96000 10.064
37.98000 4.585
38.00000 6.843
38.02000 7.523
38.04000 11.408
38.06000 10.076
38.08000 8.378
38.10000 7.712
38.12000 11.687
38.14000 14.383
38.16000 17.637
38.18000 17.903
38.20000 10.700
38.22000 10.598
38.24000 16.294
38.26000 14.273
38.28000 17.416
38.30000 15.507
38.32000 16.056
38.34000 15.930
38.36000 15.086
38.38000 16.179
38.40000 14.168
38.42000 19.282
38.44000 18.270
38.46000 21.784
38.48000 26.146
38.50000 25.953
38.52000 20.802
38.54000 18.783
38.56000 20.931
38.58000 23.668
38.60000 24.148
38.62000 30.210
38.64000 30.559
38.66000 28.260
38.68000 27.487
38.70000 30.305
38.72000 35.347
38.74000 35.979
38.76000 34.572
38.78000 32.172
38.80000 33.090
38.82000 34.509
38.84000 33.206
38.86000 36.394
38.88000 36.508
38.90000 36.765
38.92000 44.336
38.94000 52.635
38.96000 52.536
38.98000 49.830
39.00000 52.791
39.02000 54.491
39.04000 57.018
39.06000 57.714
39.08000 64.280
39.10000 67.732
39.12000 65.191
39.14000 75.667
39.16000 74.584
39.18000 71.562
39.20000 81.015
39.22000 83.791
39.24000 87.097
39.26000 92.028
39.28000 92.690
39.30000 99.877
39.32000 102.915
39.34000 105.689
39.36000 114.210
39.38000 118.554
39.40000 120.333
39.42000 126.815
39.44000 133.344
39.46000 136.713
39.48000 142.940
39.50000 150.164
39.52000 161.973
39.54000 172.617
39.56000 179.123
39.58000 183.340
39.60000 195.077
39.62000 197.396
39.64000 208.126
39.66000 227.056
39.68000 238.001
39.70000 251.653
39.72000 273.321
39.74000 285.512
39.76000 287.628
39.78000 299.683
39.80000 313.365
39.82000 327.266
39.84000 339.711
39.86000 366.013
39.88000 376.824
39.90000 396.432
39.92000 416.216
39.94000 435.540
39.96000 449.952
39.98000 464.580
40.00000 477.326
40.02000 498.549
40.04000 507.873
40.06000 522.575
40.08000 549.957
40.10000 563.530
40.12000 578.275
40.14000 587.508
40.16000 586.634
40.18000 602.747
40.20000 603.989
40.22000 604.708
40.24000 609.966
40.26000 617.205
40.28000 621.451
40.30000 620.132
40.32000 613.101
40.34000 612.587
40.36000 604.806
40.38000 607.583
40.40000 601.453
40.42000 576.907
40.44000 564.712
40.46000 556.211
40.48000 536.011
40.50000 524.348
40.52000 511.457
40.54000 495.069
40.56000 470.688
40.58000 460.834
40.60000 448.231
40.62000 436.715
40.64000 416.663
40.66000 399.456
40.68000 375.146
40.70000 358.335
40.72000 332.345
40.74000 318.093
40.76000 307.162
40.78000 295.555
40.80000 283.477
40.82000 268.249
40.84000 251.377
40.86000 230.297
40.88000 222.343
40.90000 210.996
40.92000 201.838
40.94000 194.849
40.96000 183.618
40.98000 169.804
41.00000 161.375
41.02000 150.003
41.04000 141.097
41.06000 131.632
41.08000 127.556
41.10000 124.225
41.12000 115.238
41.14000 107.856
41.16000 98.003
41.18000 98.920
41.20000 99.414
41.22000 93.494
41.24000 80.426
41.26000 71.873
41.28000 70.514
41.30000 71.515
41.32000 66.758
41.34000 62.465
41.36000 61.595
41.38000 58.133
41.40000 50.535
41.42000 45.080
41.44000 44.697
41.46000 48.740
41.48000 45.772
41.50000 41.908
41.52000 37.654
41.54000 35.669
41.56000 32.923
41.58000 28.968
41.60000 27.704
41.62000 31.986
41.64000 29.402
41.66000 32.542
41.68000 31.596
41.70000 25.363
41.72000 25.783
41.74000 22.011
41.76000 21.676
41.78000 21.800
41.80000 17.502
41.82000 16.111
41.84000 12.395
41.86000 13.353
41.88000 12.441
41.90000 13.414
41.92000 13.152
41.94000 14.234
41.96000 11.637
41.98000 9.102
42.00000 10.333
42.02000 9.110
42.04000 11.367
42.06000 9.035
42.08000 8.126
42.10000 8.748
42.12000 11.553
42.14000 15.065
42.16000 13.997
42.18000 11.013
42.20000 8.898
42.22000 7.288
42.24000 8.636
42.26000 5.779
42.28000 8.466
42.30000 6.145
42.32000 4.376
42.34000 6.409
42.36000 5.824
42.38000 6.917
42.40000 5.496
42.42000 1.460
42.44000 0.285
42.46000 2.941
42.48000 3.920
42.50000 1.535
42.52000 -0.031
42.54000 -1.574
42.56000 -3.560
42.58000 -1.482
42.60000 0.662
42.62000 4.265
42.64000 5.212
42.66000 1.592
42.68000 4.012
42.70000 0.930
42.72000 2.356
42.74000 3.366
42.76000 0.664
42.78000 -3.276
42.80000 -3.102
42.82000 -1.947
42.84000 1.411
42.86000 7.993
42.88000 4.250
42.90000 1.891
42.92000 2.168
42.94000 3.265
42.96000 6.071
42.98000 2.554
43.00000 0.747
43.02000 3.131
43.04000 5.011
43.06000 -0.276
43.08000 -2.257
43.10000 0.308
43.12000 -0.565
43.14000 0.745
43.16000 -3.351
43.18000 -3.495
43.20000 -2.141
43.22000 4.664
43.24000 -0.139
43.26000 -0.476
43.28000 1.597
43.30000 -0.254
43.32000 -2.428
43.34000 2.391
43.36000 1.729
43.38000 -2.653
43.40000 1.052
43.42000 4.449
43.44000 5.629
43.46000 5.355
43.48000 4.301
43.50000 3.685
43.52000 4.220
43.54000 5.041
43.56000 1.974
43.58000 1.355
43.60000 3.081
43.62000 3.559
43.64000 1.526
43.66000 3.637
43.68000 4.195
43.70000 1.347
43.72000 0.848
43.74000 1.140
43.76000 4.017
43.78000 2.778
43.80000 5.269
43.82000 4.774
43.84000 0.830
43.86000 -3.420
43.88000 1.967
43.90000 2.545
43.92000 -0.666
43.94000 3.817
43.96000 1.090
43.98000 1.832
44.00000 10.170
44.02000 10.552
44.04000 6.354
44.06000 0.549
44.08000 -1.483
44.10000 1.687
44.12000 1.504
44.14000 1.232
44.16000 -0.014
44.18000 -0.430
44.20000 4.004
44.22000 -0.920
44.24000 0.987
44.26000 7.697
44.28000 2.108
44.30000 -3.387
44.32000 1.873
44.34000 3.429
44.36000 5.444
44.38000 0.678
44.40000 1.934
44.42000 0.943
44.44000 1.121
44.46000 -2.331
44.48000 -0.447
44.50000 -1.010
44.52000 5.379
44.54000 3.030
44.56000 5.559
44.58000 6.640
44.60000 4.588
44.62000 4.848
44.64000 4.403
44.66000 4.981
44.68000 9.010
44.70000 5.592
44.72000 -0.991
44.74000 2.635
44.76000 8.446
44.78000 8.181
44.80000 7.056
44.82000 4.133
44.84000 3.416
44.86000 1.518
44.88000 -0.446
44.90000 2.426
44.92000 3.179
44.94000 6.219
44.96000 5.805
44.98000 7.422
45.00000 12.084
45.02000 6.234
45.04000 4.849
45.06000 6.539
45.08000 10.727
45.10000 11.826
45.12000 13.143
45.14000 10.617
45.16000 9.094
45.18000 6.656
45.20000 9.138
45.22000 6.976
45.24000 10.212
45.26000 5.223
45.28000 5.873
45.30000 12.019
45.32000 13.163
45.34000 13.870
45.36000 11.137
45.38000 10.133
45.40000 10.696
45.42000 13.065
45.44000 17.256
45.46000 14.166
45.48000 13.117
45.50000 12.353
45.52000 14.587
45.54000 16.285
45.56000 17.485
45.58000 17.594
45.60000 18.402
45.62000 19.479
45.64000 16.567
45.66000 22.295
45.68000 22.065
45.70000 26.050
45.72000 28.412
45.74000 25.752
45.76000 33.438
45.78000 30.250
45.80000 29.108
45.82000 27.894
45.84000 35.975
45.86000 38.814
45.88000 33.163
45.90000 33.256
45.92000 35.838
45.94000 34.527
45.96000 36.441
45.98000 38.026
46.00000 40.974
46.02000 42.310
46.04000 41.018
46.06000 44.543
46.08000 50.721
46.10000 53.873
46.12000 51.251
46.14000 48.360
46.16000 49.120
46.18000 45.822
46.20000 49.159
46.22000 51.400
46.24000 52.227
46.26000 51.012
46.28000 51.987
46.30000 57.984
46.32000 58.606
46.34000 59.040
46.36000 62.900
46.38000 69.967
46.40000 71.236
46.42000 71.018
46.44000 71.598
46.46000 69.538
46.48000 69.412
46.50000 72.700
46.52000 73.729
46.54000 75.309
46.56000 76.116
46.58000 76.935
46.60000 80.976
46.62000 84.146
46.64000 82.781
46.66000 82.941
46.68000 83.516
46.70000 93.816
46.72000 92.860
46.74000 91.905
46.76000 89.973
46.78000 91.679
46.80000 92.345
46.82000 87.313
46.84000 90.418
46.86000 87.367
46.88000 90.259
46.90000 89.468
46.92000 83.652
46.94000 91.024
46.96000 88.135
46.98000 84.569
47.00000 88.758
47.02000 86.471
47.04000 93.548
47.06000 89.850
47.08000 89.347
47.10000 90.083
47.12000 86.964
47.14000 86.268
47.16000 81.795
47.18000 82.227
47.20000 82.308
47.22000 79.079
47.24000 74.105
47.26000 70.572
47.28000 72.142
47.30000 71.541
47.32000 71.271
47.34000 66.165
47.36000 59.619
47.38000 56.263
47.40000 57.282
47.42000 59.288
47.44000 57.703
47.46000 53.545
47.48000 47.542
47.50000 49.925
47.52000 46.782
47.54000 44.035
47.56000 43.981
47.58000 48.164
47.60000 47.670
47.62000 38.095
47.64000 34.855
47.66000 35.906
47.68000 40.320
47.70000 38.706
47.72000 37.013
47.74000 39.171
47.76000 35.294
47.78000 31.293
47.80000 30.243
47.82000 30.936
47.84000 27.755
47.86000 29.613
47.88000 22.552
47.90000 20.042
47.92000 24.339
47.94000 23.799
47.96000 23.776
47.98000 24.685
48.00000 21.886
48.02000 15.489
48.04000 18.935
48.06000 18.635
48.08000 16.404
48.10000 14.427
48.12000 13.112
48.14000 16.035
48.16000 13.576
48.18000 11.549
48.20000 7.297
48.22000 11.977
48.24000 13.651
48.26000 11.361
48.28000 11.450
48.30000 12.213
48.32000 8.649
48.34000 3.135
48.36000 5.157
48.38000 8.435
48.40000 8.431
48.42000 5.708
48.44000 1.533
48.46000 3.631
48.48000 11.094
48.50000 9.013
48.52000 4.656
48.54000 5.029
48.56000 7.416
48.58000 11.255
48.60000 2.007
48.62000 5.693
48.64000 9.570
48.66000 3.028
48.68000 0.343
48.70000 6.356
48.72000 6.568
48.74000 2.049
48.76000 2.639
48.78000 8.001
48.80000 2.221
48.82000 2.303
48.84000 1.062
48.86000 2.300
48.88000 1.813
48.90000 3.857
48.92000 4.820
48.94000 1.457
48.96000 0.854
48.98000 1.600
49.00000 4.926
49.02000 5.568
49.04000 0.391
49.06000 -0.110
49.08000 -0.995
49.10000 2.048
49.12000 -3.035
49.14000 0.709
49.16000 -1.093
49.18000 4.403
49.20000 5.200
49.22000 3.426
49.24000 3.425
49.26000 6.109
49.28000 3.493
49.30000 4.744
49.32000 6.949
49.34000 6.548
49.36000 6.905
49.38000 6.004
49.40000 5.683
49.42000 1.890
49.44000 5.437
49.46000 4.749
49.48000 3.653
49.50000 3.487
49.52000 -0.135
49.54000 0.063
49.56000 2.757
49.58000 1.040
49.60000 -1.372
49.62000 4.025
49.64000 7.563
49.66000 3.637
49.68000 4.159
49.70000 6.185
49.72000 1.592
49.74000 0.054
49.76000 3.072
49.78000 4.176
49.80000 3.913
49.82000 3.345
49.84000 0.154
49.86000 3.186
49.88000 4.370
49.90000 3.413
49.92000 1.445
49.94000 3.967
49.96000 -0.637
49.98000 1.278
50.00000 2.669
50.02000 -0.489
50.04000 0.505
50.06000 3.820
50.08000 5.311
50.10000 4.107
50.12000 -0.775
50.14000 -1.530
50.16000 6.945
50.18000 4.714
50.20000 8.967
50.22000 1.897
50.24000 1.114
50.26000 -0.541
50.28000 -2.354
50.30000 1.883
50.32000 5.814
50.34000 2.957
50.36000 2.296
50.38000 0.704
50.40000 4.304
50.42000 5.400
50.44000 7.090
50.46000 5.924
50.48000 1.859
50.50000 5.156
50.52000 6.826
50.54000 6.083
50.56000 2.203
50.58000 0.307
50.60000 -1.986
50.62000 2.977
50.64000 7.902
50.66000 8.250
50.68000 5.724
50.70000 -2.908
50.72000 -0.498
50.74000 1.666
50.76000 -0.105
50.78000 -0.228
50.80000 0.259
50.82000 0.383
50.84000 3.986
50.86000 3.863
50.88000 1.578
50.90000 3.449
50.92000 6.912
50.94000 1.246
50.96000 3.790
50.98000 5.587
51.00000 3.639
51.02000 4.903
51.04000 7.196
51.06000 6.068
51.08000 5.023
51.10000 5.886
51.12000 2.684
51.14000 -2.261
51.16000 -1.955
51.18000 -2.881
51.20000 -1.819
51.22000 2.337
51.24000 1.638
51.26000 2.183
51.28000 1.289
51.30000 4.259
51.32000 2.963
51.34000 4.302
51.36000 2.187
51.38000 8.542
51.40000 11.662
51.42000 6.343
51.44000 5.034
51.46000 6.069
51.48000 10.611
51.50000 7.637
51.52000 5.042
51.54000 1.697
51.56000 4.177
51.58000 1.383
51.60000 7.085
51.62000 9.602
51.64000 1.949
51.66000 4.903
51.68000 4.856
51.70000 6.063
51.72000 8.119
51.74000 0.787
51.76000 -0.590
51.78000 -0.317
51.80000 -2.028
51.82000 3.344
51.84000 4.851
51.86000 3.728
51.88000 -0.550
51.90000 2.718
51.92000 2.932
51.94000 -1.664
51.96000 -0.667
51.98000 5.285
52.00000 2.806
52.02000 5.610
52.04000 2.321
52.06000 3.817
52.08000 4.288
52.10000 3.542
52.12000 4.551
52.14000 5.861
52.16000 3.767
52.18000 4.136
52.20000 7.048
52.22000 6.777
52.24000 7.317
52.26000 0.083
52.28000 3.393
52.30000 7.123
52.32000 6.068
52.34000 0.382
52.36000 0.415
52.38000 2.001
52.40000 2.036
52.42000 -0.775
52.44000 0.950
52.46000 -2.852
52.48000 0.368
52.50000 4.007
52.52000 -2.180
52.54000 3.927
52.56000 5.573
52.58000 3.503
52.60000 4.859
52.62000 2.400
52.64000 4.109
52.66000 1.821
52.68000 -1.034
52.70000 6.088
52.72000 6.280
52.74000 2.914
52.76000 1.368
52.78000 1.270
52.80000 -2.713
52.82000 -0.868
52.84000 -0.548
52.86000 2.152
52.88000 3.549
52.90000 -2.834
52.92000 1.535
52.94000 -0.532
52.96000 2.247
52.98000 1.611
53.00000 0.459
53.02000 1.928
53.04000 4.186
53.06000 2.777
53.08000 3.395
53.10000 4.043
53.12000 2.480
53.14000 1.732
53.16000 3.808
53.18000 3.862
53.20000 3.924
53.22000 5.940
53.24000 4.459
53.26000 2.617
53.28000 -0.540
53.30000 -2.425
53.32000 2.307
53.34000 3.975
53.36000 0.081
53.38000 0.872
53.40000 2.610
53.42000 3.121
53.44000 4.956
53.46000 3.184
53.48000 6.905
53.50000 6.054
53.52000 -0.715
53.54000 -1.587
53.56000 5.998
53.58000 2.267
53.60000 1.013
53.62000 -0.911
53.64000 1.868
53.66000 0.918
53.68000 0.653
53.70000 -2.317
53.72000 3.913
53.74000 7.846
53.76000 2.099
53.78000 -1.072
53.80000 -0.882
53.82000 2.657
53.84000 -1.071
53.86000 0.201
53.88000 3.594
53.90000 2.130
53.92000 2.872
53.94000 2.741
53.96000 0.957
53.98000 4.058
54.00000 6.933
54.02000 7.119
54.04000 6.044
54.06000 4.386
54.08000 1.664
54.10000 3.868
54.12000 -0.700
54.14000 0.854
54.16000 1.268
54.18000 0.451
54.20000 -2.275
54.22000 -1.598
54.24000 3.886
54.26000 4.449
54.28000 -1.515
54.30000 -1.283
54.32000 -0.822
54.34000 0.131
54.36000 -2.778
54.38000 7.011
54.40000 5.300
54.42000 0.629
54.44000 -0.180
54.46000 5.901
54.48000 3.170
54.50000 6.635
54.52000 5.800
54.54000 6.132
54.56000 2.330
54.58000 1.666
54.60000 1.505
54.62000 2.548
54.64000 5.681
54.66000 4.592
54.68000 2.522
54.70000 2.210
54.72000 -0.661
54.74000 2.185
54.76000 1.160
54.78000 -0.910
54.80000 4.292
54.82000 6.614
54.84000 3.892
54.86000 6.247
54.88000 7.261
54.90000 4.354
54.92000 1.516
54.94000 1.126
54.96000 -2.762
54.98000 2.207
55.00000 5.589
55.02000 1.118
55.04000 1.260
55.06000 1.901
55.08000 0.421
55.10000 0.651
55.12000 0.618
55.14000 0.423
55.16000 -0.486
55.18000 3.221
55.20000 2.962
55.22000 2.550
55.24000 5.511
55.26000 4.208
55.28000 7.606
55.30000 7.316
55.32000 2.999
55.34000 5.424
55.36000 5.623
55.38000 4.571
55.40000 2.420
55.42000 3.570
55.44000 3.470
55.46000 -0.445
55.48000 0.818
55.50000 0.877
55.52000 3.683
55.54000 6.324
55.56000 8.861
55.58000 8.443
55.60000 9.172
55.62000 6.584
55.64000 5.538
55.66000 2.237
55.68000 2.986
55.70000 1.266
55.72000 0.550
55.74000 6.619
55.76000 7.806
55.78000 8.336
55.80000 5.612
55.82000 3.870
55.84000 0.600
55.86000 -1.138
55.88000 -0.355
55.90000 5.394
55.92000 1.311
55.94000 6.747
55.96000 10.521
55.98000 8.239
56.00000 5.694
56.02000 6.037
56.04000 6.209
56.06000 5.016
56.08000 7.286
56.10000 7.637
56.12000 3.935
56.14000 10.910
56.16000 10.742
56.18000 6.568
56.20000 8.258
56.22000 3.878
56.24000 -2.680
56.26000 1.360
56.28000 6.185
56.30000 4.824
56.32000 2.759
56.34000 -1.906
56.36000 -1.848
56.38000 3.132
56.40000 3.375
56.42000 8.024
56.44000 7.217
56.46000 9.431
56.48000 6.521
56.50000 3.547
56.52000 2.858
56.54000 7.452
56.56000 4.935
56.58000 7.799
56.60000 5.806
56.62000 0.181
56.64000 -0.188
56.66000 1.781
56.68000 4.644
56.70000 3.775
56.72000 2.864
56.74000 2.246
56.76000 1.487
56.78000 6.770
56.80000 7.105
56.82000 4.008
56.84000 8.586
56.86000 9.652
56.88000 8.057
56.90000 4.421
56.92000 4.341
56.94000 0.475
56.96000 2.527
56.98000 3.023
57.00000 1.500
57.02000 0.648
57.04000 1.385
57.06000 3.600
57.08000 5.698
57.10000 7.518
57.12000 5.875
57.14000 8.249
57.16000 9.327
57.18000 8.974
57.20000 3.665
57.22000 1.542
57.24000 4.702
57.26000 6.173
57.28000 2.886
57.30000 4.838
57.32000 4.007
57.34000 9.997
57.36000 9.386
57.38000 3.873
57.40000 5.701
57.42000 2.166
57.44000 2.075
57.46000 2.620
57.48000 4.537
57.50000 1.639
57.52000 3.320
57.54000 5.275
57.56000 9.842
57.58000 7.902
57.60000 6.395
57.62000 5.448
57.64000 4.907
57.66000 6.896
57.68000 8.201
57.70000 4.707
57.72000 6.024
57.74000 5.296
57.76000 2.961
57.78000 5.588
57.80000 0.632
57.82000 2.380
57.84000 0.582
57.86000 -2.649
57.88000 -1.136
57.90000 5.311
57.92000 6.378
57.94000 0.465
57.96000 -1.733
57.98000 -0.157
58.00000 2.210
58.02000 2.638
58.04000 0.390
58.06000 3.726
58.08000 7.130
58.10000 6.050
58.12000 3.352
58.14000 1.867
58.16000 0.407
58.18000 1.670
58.20000 4.140
58.22000 6.063
58.24000 2.823
58.26000 -0.443
58.28000 1.754
58.30000 3.790
58.32000 3.691
58.34000 1.182
58.36000 1.839
58.38000 4.613
58.40000 5.564
58.42000 5.980
58.44000 3.451
58.46000 2.800
58.48000 4.767
58.50000 -1.530
58.52000 1.323
58.54000 1.689
58.56000 3.003
58.58000 3.911
58.60000 4.078
58.62000 2.753
58.64000 2.446
58.66000 7.735
58.68000 6.891
58.70000 3.961
58.72000 2.826
58.74000 5.619
58.76000 5.844
58.78000 4.813
58.80000 4.539
58.82000 5.772
58.84000 2.494
58.86000 5.327
58.88000 6.244
58.90000 3.587
58.92000 -2.173
58.94000 -2.657
58.96000 -0.275
58.98000 -2.071
59.00000 0.096
59.02000 8.216
59.04000 4.490
59.06000 2.886
59.08000 3.020
59.10000 6.726
59.12000 2.254
59.14000 -0.660
59.16000 -0.899
59.18000 -1.514
59.20000 2.850
59.22000 -0.220
59.24000 2.543
59.26000 4.423
59.28000 5.512
59.30000 3.205
59.32000 3.263
59.34000 4.916
59.36000 1.767
59.38000 2.959
59.40000 4.279
59.42000 3.304
59.44000 4.710
59.46000 3.809
59.48000 5.073
59.50000 3.594
59.52000 1.872
59.54000 5.275
59.56000 -0.033
59.58000 3.024
59.60000 4.419
59.62000 2.631
59.64000 7.804
59.66000 7.427
59.68000 5.793
59.70000 4.798
59.72000 2.466
59.74000 3.880
59.76000 5.294
59.78000 4.369
59.80000 0.822
59.82000 2.204
59.84000 -2.613
59.86000 4.192
59.88000 7.169
59.90000 2.254
59.92000 2.574
59.94000 -2.569
59.96000 -0.673
59.98000 1.827
60.00000 5.177
60.02000 5.271
60.04000 3.199
60.06000 2.710
60.08000 3.862
60.10000 0.249
60.12000 5.936
60.14000 4.586
60.16000 0.685
60.18000 2.440
60.20000 3.697
60.22000 3.250
60.24000 0.405
60.26000 -1.276
60.28000 -0.473
60.30000 2.391
60.32000 0.874
60.34000 3.320
60.36000 3.490
60.38000 0.476
60.40000 2.510
60.42000 0.816
60.44000 2.403
60.46000 4.699
60.48000 -0.257
60.50000 1.990
60.52000 -0.186
60.54000 1.473
60.56000 11.553
60.58000 6.762
60.60000 1.596
60.62000 0.780
60.64000 -0.646
60.66000 0.572
60.68000 1.054
60.70000 0.812
60.72000 1.041
60.74000 2.750
60.76000 0.442
60.78000 4.880
60.80000 3.358
60.82000 -1.465
60.84000 -2.595
60.86000 -0.999
60.88000 0.829
60.90000 -0.580
60.92000 0.807
60.94000 1.179
60.96000 0.679
60.98000 2.677
61.00000 3.184
61.02000 4.059
61.04000 2.896
61.06000 3.265
61.08000 3.680
61.10000 3.777
61.12000 1.487
61.14000 1.358
61.16000 2.222
61.18000 5.834
61.20000 7.203
61.22000 5.288
61.24000 4.317
61.26000 -0.463
61.28000 -0.798
61.30000 3.396
61.32000 0.883
61.34000 5.372
61.36000 5.292
61.38000 1.566
61.40000 0.390
61.42000 1.681
61.44000 0.186
61.46000 0.907
61.48000 2.058
61.50000 -0.996
61.52000 0.813
61.54000 0.374
61.56000 0.013
61.58000 -0.655
61.60000 0.581
61.62000 2.597
61.64000 -0.103
61.66000 -0.045
61.68000 2.088
61.70000 1.583
61.72000 0.774
61.74000 6.624
61.76000 4.658
61.78000 2.486
61.80000 3.819
61.82000 0.420
61.84000 3.296
61.86000 0.007
61.88000 3.704
61.90000 3.298
61.92000 6.514
61.94000 8.391
61.96000 6.362
61.98000 2.804
62.00000 1.397
62.02000 2.213
62.04000 5.599
62.06000 5.068
62.08000 3.640
62.10000 0.220
62.12000 -2.528
62.14000 -0.053
62.16000 3.355
62.18000 3.956
62.20000 3.749
62.22000 3.768
62.24000 3.303
62.26000 1.829
62.28000 3.986
62.30000 2.756
62.32000 3.250
62.34000 4.781
62.36000 3.069
62.38000 2.300
62.40000 2.524
62.42000 4.733
62.44000 1.262
62.46000 5.539
62.48000 3.549
62.50000 1.221
62.52000 -0.047
62.54000 -2.521
62.56000 3.469
62.58000 6.788
62.60000 6.345
62.62000 5.545
62.64000 0.978
62.66000 2.651
62.68000 5.589
62.70000 4.286
62.72000 4.090
62.74000 0.154
62.76000 6.083
62.78000 8.570
62.80000 4.964
62.82000 2.492
62.84000 1.071
62.86000 2.072
62.88000 5.224
62.90000 5.682
62.92000 5.841
62.94000 1.318
62.96000 1.320
62.98000 -0.653
63.00000 -1.236
63.02000 -2.316
63.04000 4.606
63.06000 6.602
63.08000 3.441
63.10000 2.523
63.12000 6.847
63.14000 4.755
63.16000 3.503
63.18000 1.325
63.20000 1.584
63.22000 2.379
63.24000 -0.049
63.26000 2.132
63.28000 5.307
63.30000 4.064
63.32000 3.115
63.34000 2.171
63.36000 2.323
63.38000 1.908
63.40000 -2.556
63.42000 -2.274
63.44000 2.630
63.46000 2.976
63.48000 0.528
63.50000 3.026
63.52000 1.725
63.54000 -0.211
63.56000 1.897
63.58000 5.523
63.60000 6.217
63.62000 5.645
63.64000 1.362
63.66000 2.380
63.68000 2.561
63.70000 -1.974
63.72000 5.647
63.74000 6.117
63.76000 5.173
63.78000 3.842
63.80000 2.509
63.82000 0.491
63.84000 -0.733
63.86000 0.947
63.88000 3.697
63.90000 6.328
63.92000 7.142
63.94000 6.444
63.96000 3.974
63.98000 5.478
64.00000 3.558
64.02000 2.805
64.04000 5.223
64.06000 2.570
64.08000 3.011
64.10000 5.348
64.12000 2.627
64.14000 5.421
64.16000 1.488
64.18000 1.433
64.20000 1.184
64.22000 0.939
64.24000 1.568
64.26000 -0.964
64.28000 -2.540
64.30000 -2.540
64.32000 2.492
64.34000 8.106
64.36000 6.251
64.38000 4.786
64.40000 1.678
64.42000 3.639
64.44000 0.363
64.46000 0.992
64.48000 5.224
64.50000 1.214
64.52000 4.247
64.54000 3.387
64.56000 2.096
64.58000 3.226
64.60000 2.809
64.62000 0.075
64.64000 2.432
64.66000 1.638
64.68000 0.083
64.70000 -2.087
64.72000 -0.993
64.74000 4.461
64.76000 2.753
64.78000 4.739
64.80000 5.516
64.82000 2.166
64.84000 2.605
64.86000 0.416
64.88000 -0.902
64.90000 1.755
64.92000 7.191
64.94000 7.118
64.96000 4.742
64.98000 4.787
65.00000 1.734
65.02000 2.455
65.04000 -0.889
65.06000 -0.511
65.08000 2.118
65.10000 3.454
65.12000 -0.887
65.14000 -1.390
65.16000 1.382
65.18000 0.414
65.20000 -1.343
65.22000 -1.268
65.24000 -1.051
65.26000 2.098
65.28000 4.959
65.30000 4.509
65.32000 2.882
65.34000 2.354
65.36000 1.207
65.38000 3.446
65.40000 0.029
65.42000 -0.669
65.44000 0.733
65.46000 4.749
65.48000 2.936
65.50000 4.667
65.52000 4.112
65.54000 -1.201
65.56000 -0.320
65.58000 4.795
65.60000 0.877
65.62000 3.518
65.64000 6.294
65.66000 4.464
65.68000 1.550
65.70000 -2.553
65.72000 -0.580
65.74000 -0.064
65.76000 0.559
65.78000 -0.660
65.80000 2.024
65.82000 5.817
65.84000 2.415
65.86000 4.868
65.88000 3.455
65.90000 3.059
65.92000 2.629
65.94000 2.178
65.96000 0.278
65.98000 0.285
66.00000 3.303
66.02000 0.699
66.04000 2.053
66.06000 4.245
66.08000 3.501
66.10000 0.446
66.12000 -0.559
66.14000 4.385
66.16000 5.599
66.18000 5.022
66.20000 2.231
66.22000 2.220
66.24000 1.719
66.26000 1.905
66.28000 0.151
66.30000 -0.335
66.32000 -2.339
66.34000 1.376
66.36000 2.643
66.38000 2.414
66.40000 0.121
66.42000 -2.630
66.44000 -1.936
66.46000 1.058
66.48000 -0.573
66.50000 4.057
66.52000 3.705
66.54000 0.164
66.56000 1.899
66.58000 0.733
66.60000 3.612
66.62000 2.212
66.64000 2.699
66.66000 2.111
66.68000 4.351
66.70000 2.511
66.72000 0.217
66.74000 1.125
66.76000 1.321
66.78000 0.802
66.80000 1.465
66.82000 3.005
66.84000 1.676
66.86000 3.172
66.88000 2.955
66.90000 3.615
66.92000 5.290
66.94000 3.312
66.96000 1.086
66.98000 2.297
67.00000 4.753
67.02000 2.396
67.04000 6.363
67.06000 6.797
67.08000 5.119
67.10000 1.209
67.12000 2.316
67.14000 1.947
67.16000 2.919
67.18000 5.650
67.20000 5.579
67.22000 7.828
67.24000 6.159
67.26000 4.019
67.28000 4.813
67.30000 4.645
67.32000 5.564
67.34000 5.359
67.36000 2.526
67.38000 8.832
67.40000 6.065
67.42000 2.548
67.44000 3.439
67.46000 5.460
67.48000 4.370
67.50000 6.313
67.52000 4.966
67.54000 5.641
67.56000 8.325
67.58000 8.310
67.60000 10.657
67.62000 7.037
67.64000 8.141
67.66000 5.477
67.68000 5.829
67.70000 9.785
67.72000 10.829
67.74000 9.156
67.76000 7.158
67.78000 8.271
67.80000 9.313
67.82000 11.276
67.84000 9.823
67.86000 6.508
67.88000 9.363
67.90000 11.535
67.92000 11.711
67.94000 12.896
67.96000 11.684
67.98000 13.589
68.00000 15.824
68.02000 15.943
68.04000 13.476
68.06000 14.419
68.08000 14.854
68.10000 13.870
68.12000 15.637
68.14000 20.815
68.16000 20.913
68.18000 18.311
68.20000 16.865
68.22000 15.435
68.24000 15.111
68.26000 16.402
68.28000 14.250
68.30000 15.906
68.32000 16.523
68.34000 15.478
68.36000 20.517
68.38000 19.064
68.40000 17.308
68.42000 13.183
68.44000 17.530
68.46000 19.137
68.48000 19.798
68.50000 18.385
68.52000 20.884
68.54000 19.960
68.56000 18.749
68.58000 18.649
68.60000 21.076
68.62000 22.871
68.64000 20.176
68.66000 20.337
68.68000 12.363
68.70000 14.112
68.72000 16.354
68.74000 21.863
68.76000 20.296
68.78000 18.571
68.80000 18.704
68.82000 15.857
68.84000 12.621
68.86000 17.101
68.88000 13.108
68.90000 9.108
68.92000 8.326
68.94000 7.183
68.96000 10.266
68.98000 10.802
69.00000 10.687
69.02000 10.201
69.04000 5.742
69.06000 7.673
69.08000 9.220
69.10000 11.158
69.12000 11.634
69.14000 10.433
69.16000 11.415
69.18000 6.772
69.20000 8.151
69.22000 8.804
69.24000 7.327
69.26000 7.431
69.28000 7.653
69.30000 6.348
69.32000 4.586
69.34000 4.494
69.36000 11.263
69.38000 9.467
69.40000 7.020
69.42000 4.596
69.44000 0.789
69.46000 1.893
69.48000 -2.593
69.50000 2.104
69.52000 1.295
69.54000 0.832
69.56000 4.142
69.58000 1.982
69.60000 -0.415
69.62000 0.615
69.64000 -0.733
69.66000 -2.375
69.68000 0.085
69.70000 1.316
69.72000 0.914
69.74000 7.254
69.76000 6.396
69.78000 3.176
69.80000 1.756
69.82000 -0.362
69.84000 -0.419
69.86000 -2.294
69.88000 -1.551
69.90000 -2.256
69.92000 0.720
69.94000 -1.416
69.96000 1.277
69.98000 0.830
70.00000 -1.281
70.02000 1.029
70.04000 4.584
70.06000 4.344
70.08000 3.151
70.10000 -0.502
70.12000 -0.138
70.14000 -1.924
70.16000 0.291
70.18000 2.208
70.20000 -0.529
70.22000 -1.682
70.24000 -1.439
70.26000 -1.822
70.28000 -1.206
70.30000 -0.703
70.32000 -0.246
70.34000 -0.680
70.36000 -2.534
70.38000 0.142
70.40000 3.037
70.42000 2.770
70.44000 -1.509
70.46000 0.949
70.48000 0.553
70.50000 0.604
70.52000 2.641
70.54000 2.534
70.56000 1.870
70.58000 0.562
70.60000 3.208
70.62000 2.854
70.64000 3.189
70.66000 3.373
70.68000 0.507
70.70000 3.214
70.72000 1.411
70.74000 -1.262
70.76000 0.655
70.78000 1.547
70.80000 -1.152
70.82000 -0.307
70.84000 -0.927
70.86000 0.791
70.88000 -0.807
70.90000 -2.488
70.92000 -0.136
70.94000 3.308
70.96000 2.873
70.98000 -0.124
71.00000 1.398
71.02000 -1.463
71.04000 0.618
71.06000 5.164
71.08000 -0.422
71.10000 0.764
71.12000 0.886
71.14000 -1.316
71.16000 -2.465
71.18000 3.096
71.20000 0.246
71.22000 -2.369
71.24000 2.148
71.26000 5.953
71.28000 7.069
71.30000 1.951
71.32000 1.625
71.34000 9.182
71.36000 5.023
71.38000 -1.167
71.40000 -0.812
71.42000 4.295
71.44000 1.199
71.46000 -1.418
71.48000 -1.635
71.50000 -1.932
71.52000 2.516
71.54000 4.616
71.56000 6.717
71.58000 8.063
71.60000 4.392
71.62000 4.306
71.64000 0.151
71.66000 0.458
71.68000 0.813
71.70000 1.580
71.72000 5.137
71.74000 3.393
71.76000 -0.051
71.78000 -2.283
71.80000 -2.162
71.82000 1.471
71.84000 0.440
71.86000 -2.254
71.88000 -1.337
71.90000 4.378
71.92000 3.285
71.94000 6.335
71.96000 0.786
71.98000 0.244
72.00000 4.404
72.02000 6.306
72.04000 1.600
72.06000 -2.298
72.08000 -0.168
72.10000 1.302
72.12000 -0.764
72.14000 -0.082
72.16000 0.769
72.18000 2.923
72.20000 3.280
72.22000 1.054
72.24000 2.416
72.26000 1.893
72.28000 0.226
72.30000 5.854
72.32000 5.949
72.34000 1.060
72.36000 4.214
72.38000 1.074
72.40000 2.347
72.42000 3.592
72.44000 7.217
72.46000 6.878
72.48000 4.673
72.50000 6.732
72.52000 3.154
72.54000 1.871
72.56000 -0.227
72.58000 -2.380
72.60000 -0.318
72.62000 5.210
72.64000 13.691
72.66000 11.019
72.68000 6.816
72.70000 7.156
72.72000 1.139
72.74000 3.791
72.76000 10.035
72.78000 7.737
72.80000 6.357
72.82000 3.573
72.84000 4.145
72.86000 5.929
72.88000 5.064
72.90000 4.268
72.92000 2.818
72.94000 3.598
72.96000 3.931
72.98000 2.373
73.00000 4.630
73.02000 4.679
73.04000 4.806
73.06000 0.060
73.08000 -2.372
73.10000 -0.009
73.12000 1.104
73.14000 5.595
73.16000 3.008
73.18000 -1.447
73.20000 1.182
73.22000 3.286
73.24000 3.109
73.26000 5.214
73.28000 5.066
73.30000 5.496
73.32000 4.647
73.34000 3.774
73.36000 5.121
73.38000 7.873
73.40000 3.421
73.42000 3.796
73.44000 3.013
73.46000 -0.056
73.48000 2.189
73.50000 3.769
73.52000 0.564
73.54000 2.119
73.56000 3.906
73.58000 3.214
73.60000 7.404
73.62000 6.694
73.64000 3.246
73.66000 1.805
73.68000 -0.131
73.70000 0.143
73.72000 2.270
73.74000 9.553
73.76000 4.413
73.78000 1.934
73.80000 2.950
73.82000 0.448
73.84000 5.120
73.86000 2.121
73.88000 -0.834
73.90000 3.968
73.92000 5.982
73.94000 0.129
73.96000 -1.088
73.98000 1.418
74.00000 0.367
74.02000 -1.795
74.04000 0.424
74.06000 4.018
74.08000 8.631
74.10000 6.055
74.12000 5.341
74.14000 4.162
74.16000 0.724
74.18000 1.865
74.20000 2.955
74.22000 1.682
74.24000 3.699
74.26000 5.579
74.28000 6.812
74.30000 1.566
74.32000 6.194
74.34000 4.366
74.36000 4.782
74.38000 2.657
74.40000 4.255
74.42000 2.725
74.44000 5.388
74.46000 3.700
74.48000 1.011
74.50000 4.477
74.52000 2.887
74.54000 4.912
74.56000 3.352
74.58000 8.570
74.60000 3.706
74.62000 1.420
74.64000 1.472
74.66000 3.218
74.68000 1.817
74.70000 1.992
74.72000 2.660
74.74000 0.295
74.76000 3.979
74.78000 6.503
74.80000 7.035
74.82000 3.867
74.84000 1.055
74.86000 1.466
74.88000 4.319
74.90000 3.025
74.92000 3.229
74.94000 1.926
74.96000 1.856
74.98000 4.789
75.00000 5.801
75.02000 -2.340
75.04000 4.191
75.06000 6.435
75.08000 2.506
75.10000 -0.642
75.12000 0.552
75.14000 1.876
75.16000 7.391
75.18000 6.803
75.20000 3.485
75.22000 -0.002
75.24000 3.075
75.26000 -0.797
75.28000 1.003
75.30000 2.749
75.32000 3.624
75.34000 11.003
75.36000 9.834
75.38000 4.130
75.40000 5.118
75.42000 8.111
75.44000 3.864
75.46000 6.446
75.48000 6.237
75.50000 5.621
75.52000 6.718
75.54000 1.313
75.56000 -0.542
75.58000 4.213
75.60000 3.230
75.62000 2.596
75.64000 5.425
75.66000 4.867
75.68000 1.089
75.70000 3.463
75.72000 2.929
75.74000 4.130
75.76000 -0.217
75.78000 3.476
75.80000 -0.220
75.82000 -2.375
75.84000 -1.333
75.86000 3.928
75.88000 8.378
75.90000 6.685
75.92000 9.434
75.94000 5.788
75.96000 2.505
75.98000 3.170
76.00000 4.557
76.02000 5.251
76.04000 5.969
76.06000 2.547
76.08000 5.481
76.10000 6.535
76.12000 9.509
76.14000 2.142
76.16000 -2.362
76.18000 1.714
76.20000 4.029
76.22000 7.903
76.24000 5.396
76.26000 7.150
76.28000 6.099
76.30000 7.982
76.32000 4.530
76.34000 1.979
76.36000 2.582
76.38000 4.171
76.40000 4.316
76.42000 3.490
76.44000 7.236
76.46000 6.816
76.48000 3.312
76.50000 2.599
76.52000 0.715
76.54000 4.174
76.56000 2.601
76.58000 -1.552
76.60000 1.693
76.62000 5.325
76.64000 2.501
76.66000 0.004
76.68000 -0.487
76.70000 2.584
76.72000 6.738
76.74000 6.014
76.76000 4.983
76.78000 8.589
76.80000 6.231
76.82000 7.689
76.84000 4.014
76.86000 8.197
76.88000 6.014
76.90000 9.136
76.92000 8.805
76.94000 1.983
76.96000 4.539
76.98000 4.188
77.00000 -2.360
77.02000 7.425
77.04000 10.272
77.06000 5.441
77.08000 7.781
77.10000 8.182
77.12000 8.247
77.14000 4.670
77.16000 3.441
77.18000 2.273
77.20000 4.163
77.22000 3.359
77.24000 3.515
77.26000 2.674
77.28000 -0.647
77.30000 -2.124
77.32000 -0.136
77.34000 0.860
77.36000 6.379
77.38000 5.442
77.40000 3.689
77.42000 6.698
77.44000 4.449
77.46000 9.678
77.48000 7.752
77.50000 4.867
77.52000 3.539
77.54000 5.609
77.56000 2.656
77.58000 3.704
77.60000 1.414
77.62000 -1.730
77.64000 -2.145
77.66000 -0.447
77.68000 2.072
77.70000 3.038
77.72000 2.707
77.74000 1.523
77.76000 1.143
77.78000 -1.085
77.80000 1.980
77.82000 6.074
77.84000 6.852
77.86000 5.532
77.88000 5.430
77.90000 3.886
77.92000 -1.607
77.94000 1.309
77.96000 5.442
77.98000 5.136
78.00000 3.777
78.02000 5.632
78.04000 -0.996
78.06000 5.638
78.08000 4.204
78.10000 -3.671
78.12000 9.495
78.14000 9.498
78.16000 1.504
78.18000 -0.455
78.20000 2.112
78.22000 5.743
78.24000 5.993
78.26000 5.012
78.28000 8.276
78.30000 6.186
78.32000 3.144
78.34000 3.363
78.36000 3.785
78.38000 6.174
78.40000 3.093
78.42000 -2.417
78.44000 2.487
78.46000 3.541
78.48000 0.174
78.50000 2.331
78.52000 0.489
78.54000 -0.466
78.56000 3.845
78.58000 6.722
78.60000 5.572
78.62000 5.971
78.64000 4.554
78.66000 1.568
78.68000 0.858
78.70000 2.150
78.72000 3.412
78.74000 2.129
78.76000 3.001
78.78000 4.929
78.80000 6.271
78.82000 6.755
78.84000 -0.399
78.86000 4.594
78.88000 10.868
78.90000 12.791
78.92000 5.906
78.94000 4.200
78.96000 4.889
78.98000 3.760
79.00000 4.642
79.02000 2.986
79.04000 6.062
79.06000 6.908
79.08000 1.699
79.10000 2.027
79.12000 6.026
79.14000 6.325
79.16000 4.876
79.18000 6.155
79.20000 5.247
79.22000 -0.268
79.24000 2.319
79.26000 4.139
79.28000 1.358
79.30000 0.689
79.32000 1.863
79.34000 5.223
79.36000 1.201
79.38000 -2.418
79.40000 0.458
79.42000 0.020
79.44000 3.873
79.46000 7.948
79.48000 5.704
79.50000 1.657
79.52000 5.157
79.54000 1.798
79.56000 3.634
79.58000 7.259
79.60000 3.258
79.62000 3.452
79.64000 4.441
79.66000 -0.352
79.68000 3.516
79.70000 9.299
79.72000 11.848
79.74000 4.061
79.76000 -0.314
79.78000 -1.247
79.80000 1.500
79.82000 -0.017
79.84000 -1.211
79.86000 6.305
79.88000 5.785
79.90000 3.855
79.92000 2.088
79.94000 2.075
79.96000 2.632
79.98000 0.207
80.00000 2.860
80.02000 5.066
80.04000 3.133
80.06000 6.851
80.08000 5.305
80.10000 3.929
80.12000 2.324
80.14000 0.543
80.16000 0.448
80.18000 3.032
80.20000 0.517
80.22000 -1.039
80.24000 3.278
80.26000 5.665
80.28000 4.211
80.30000 -0.798
80.32000 0.690
80.34000 3.242
80.36000 1.781
80.38000 3.037
80.40000 -0.456
80.42000 -1.802
80.44000 0.545
80.46000 1.062
80.48000 2.376
80.50000 -0.102
80.52000 0.982
80.54000 4.677
80.56000 4.278
80.58000 3.966
80.60000 1.420
80.62000 0.151
80.64000 1.690
80.66000 2.701
80.68000 -0.709
80.70000 -0.413
80.72000 4.460
80.74000 1.421
80.76000 0.799
80.78000 2.861
80.80000 5.203
80.82000 3.880
80.84000 9.370
80.86000 2.297
80.88000 3.957
80.90000 -2.110
80.92000 -2.608
80.94000 2.261
80.96000 9.368
80.98000 10.053
81.00000 7.801
81.02000 4.903
81.04000 5.321
81.06000 2.501
81.08000 5.140
81.10000 8.793
81.12000 9.024
81.14000 8.359
81.16000 8.932
81.18000 5.612
81.20000 0.491
81.22000 3.393
81.24000 3.779
81.26000 9.117
81.28000 7.585
81.30000 7.352
81.32000 7.392
81.34000 9.182
81.36000 9.240
81.38000 11.026
81.40000 8.637
81.42000 11.612
81.44000 9.140
81.46000 6.104
81.48000 7.806
81.50000 7.311
81.52000 11.803
81.54000 12.364
81.56000 9.080
81.58000 7.267
81.60000 10.181
81.62000 17.477
81.64000 18.576
81.66000 11.102
81.68000 6.355
81.70000 5.491
81.72000 8.967
81.74000 13.074
81.76000 10.800
81.78000 13.956
81.80000 14.481
81.82000 11.838
81.84000 7.468
81.86000 8.546
81.88000 16.405
81.90000 17.877
81.92000 19.225
81.94000 19.311
81.96000 16.837
81.98000 20.057
82.00000 20.410
82.02000 20.594
82.04000 26.013
82.06000 26.949
82.08000 28.021
82.10000 23.234
82.12000 18.808
82.14000 18.515
82.16000 17.664
82.18000 18.049
82.20000 15.537
82.22000 21.435
82.24000 20.169
82.26000 20.454
82.28000 22.583
82.30000 23.137
82.32000 23.666
82.34000 20.453
82.36000 20.336
82.38000 23.372
82.40000 21.689
82.42000 22.909
82.44000 28.150
82.46000 27.489
82.48000 30.816
82.50000 27.226
82.52000 26.602
82.54000 29.537
82.56000 22.678
82.58000 24.574
82.60000 23.345
82.62000 25.273
82.64000 26.376
82.66000 23.756
82.68000 24.023
82.70000 23.908
82.72000 26.147
82.74000 23.802
82.76000 20.890
82.78000 23.043
82.80000 22.843
82.82000 25.306
82.84000 24.033
82.86000 22.675
82.88000 24.032
82.90000 16.269
82.92000 14.011
82.94000 17.991
82.96000 19.036
82.98000 20.874
83.00000 24.328
83.02000 24.189
83.04000 19.302
83.06000 22.501
83.08000 17.682
83.10000 12.320
83.12000 16.085
83.14000 21.418
83.16000 18.021
83.18000 19.411
83.20000 13.285
83.22000 16.625
83.24000 14.887
83.26000 13.163
83.28000 18.139
83.30000 17.587
83.32000 10.412
83.34000 13.471
83.36000 12.292
83.38000 14.154
83.40000 15.952
83.42000 11.674
83.44000 6.803
83.46000 7.475
83.48000 6.988
83.50000 12.982
83.52000 13.626
83.54000 9.497
83.56000 14.023
83.58000 10.828
83.60000 7.956
83.62000 14.439
83.64000 12.259
83.66000 8.676
83.68000 7.037
83.70000 8.284
83.72000 11.819
83.74000 10.625
83.76000 8.592
83.78000 10.616
83.80000 10.707
83.82000 7.260
83.84000 8.737
83.86000 8.695
83.88000 6.414
83.90000 6.693
83.92000 1.385
83.94000 2.116
83.96000 2.947
83.98000 4.741
84.00000 4.199
84.02000 2.404
84.04000 0.554
84.06000 -1.961
84.08000 -2.533
84.10000 1.297
84.12000 5.008
84.14000 11.923
84.16000 5.925
84.18000 4.727
84.20000 6.109
84.22000 5.817
84.24000 5.970
84.26000 3.904
84.28000 9.464
84.30000 5.163
84.32000 5.678
84.34000 7.142
84.36000 8.931
84.38000 1.921
84.40000 2.391
84.42000 4.357
84.44000 4.127
84.46000 6.730
84.48000 5.904
84.50000 6.799
84.52000 7.197
84.54000 3.723
84.56000 1.792
84.58000 2.023
84.60000 3.613
84.62000 2.029
84.64000 6.863
84.66000 0.091
84.68000 0.553
84.70000 0.085
84.72000 -1.474
84.74000 -2.198
84.76000 2.055
84.78000 2.807
84.80000 4.935
84.82000 8.272
84.84000 2.282
84.86000 5.109
84.88000 5.442
84.90000 5.072
84.92000 -1.792
84.94000 -2.483
84.96000 -0.438
84.98000 4.762
85.00000 8.996
85.02000 9.829
85.04000 5.806
85.06000 0.160
85.08000 -2.207
85.10000 -0.587
85.12000 -2.468
85.14000 2.624
85.16000 0.824
85.18000 6.348
85.20000 6.231
85.22000 3.216
85.24000 3.743
85.26000 2.345
85.28000 4.751
85.30000 3.106
85.32000 6.906
85.34000 8.970
85.36000 8.006
85.38000 1.331
85.40000 2.344
85.42000 3.596
85.44000 5.849
85.46000 5.499
85.48000 3.067
85.50000 3.827
85.52000 3.458
85.54000 4.629
85.56000 5.255
85.58000 4.138
85.60000 5.694
85.62000 5.229
85.64000 0.933
85.66000 1.187
85.68000 6.226
85.70000 7.589
85.72000 7.172
85.74000 8.536
85.76000 3.320
85.78000 6.062
85.80000 6.896
85.82000 8.018
85.84000 7.445
85.86000 8.143
85.88000 10.325
85.90000 7.094
85.92000 5.258
85.94000 8.806
85.96000 8.076
85.98000 8.125
86.00000 9.124
86.02000 8.758
86.04000 6.807
86.06000 11.096
86.08000 8.766
86.10000 9.527
86.12000 11.086
86.14000 18.840
86.16000 19.198
86.18000 17.529
86.20000 14.104
86.22000 13.939
86.24000 13.491
86.26000 14.119
86.28000 14.836
86.30000 16.587
86.32000 14.406
86.34000 15.803
86.36000 20.971
86.38000 16.698
86.40000 15.232
86.42000 16.742
86.44000 22.001
86.46000 21.839
86.48000 22.503
86.50000 18.016
86.52000 20.060
86.54000 23.323
86.56000 25.775
86.58000 23.227
86.60000 22.917
86.62000 24.280
86.64000 20.801
86.66000 24.051
86.68000 24.364
86.70000 23.193
86.72000 22.612
86.74000 25.455
86.76000 24.862
86.78000 18.185
86.80000 24.004
86.82000 20.642
86.84000 22.863
86.86000 26.719
86.88000 26.874
86.90000 24.880
86.92000 27.504
86.94000 22.855
86.96000 27.130
86.98000 29.437
87.00000 26.404
87.02000 22.567
87.04000 26.638
87.06000 24.233
87.08000 21.886
87.10000 20.411
87.12000 23.185
87.14000 24.844
87.16000 26.251
87.18000 25.155
87.20000 23.980
87.22000 24.903
87.24000 24.498
87.26000 23.508
87.28000 25.509
87.30000 25.845
87.32000 22.971
87.34000 21.156
87.36000 18.120
87.38000 17.852
87.40000 18.961
87.42000 16.426
87.44000 16.779
87.46000 15.186
87.48000 19.964
87.50000 21.434
87.52000 22.539
87.54000 16.316
87.56000 12.348
87.58000 8.179
87.60000 8.213
87.62000 15.231
87.64000 12.041
87.66000 14.654
87.68000 13.371
87.70000 16.018
87.72000 14.574
87.74000 12.792
87.76000 12.494
87.78000 15.839
87.80000 16.861
87.82000 17.561
87.84000 16.001
87.86000 10.255
87.88000 8.144
87.90000 2.241
87.92000 5.494
87.94000 10.207
87.96000 7.037
87.98000 5.826
88.00000 8.700
88.02000 7.353
88.04000 7.480
88.06000 4.142
88.08000 4.340
88.10000 10.114
88.12000 8.316
88.14000 7.716
88.16000 4.252
88.18000 4.752
88.20000 6.997
88.22000 5.487
88.24000 3.002
88.26000 9.717
88.28000 7.983
88.30000 2.248
88.32000 4.694
88.34000 7.631
88.36000 7.560
88.38000 4.006
88.40000 6.078
88.42000 1.672
88.44000 -0.751
88.46000 1.167
88.48000 1.911
88.50000 7.843
88.52000 9.687
88.54000 3.182
88.56000 3.840
88.58000 4.956
88.60000 2.414
88.62000 0.854
88.64000 4.930
88.66000 1.444
88.68000 -2.326
88.70000 3.981
88.72000 3.264
88.74000 1.864
88.76000 5.021
88.78000 4.857
88.80000 2.445
88.82000 2.647
88.84000 7.246
88.86000 9.569
88.88000 3.376
88.90000 3.837
88.92000 5.729
88.94000 1.525
88.96000 1.309
88.98000 1.793
89.00000 3.023
89.02000 3.008
89.04000 3.464
89.06000 4.928
89.08000 5.953
89.10000 3.791
89.12000 1.524
89.14000 -1.033
89.16000 -0.737
89.18000 -1.519
89.20000 -1.135
89.22000 -1.745
89.24000 0.045
89.26000 1.538
89.28000 2.797
89.30000 2.110
89.32000 0.601
89.34000 0.322
89.36000 -1.361
89.38000 3.020
89.40000 -2.282
89.42000 0.311
89.44000 3.635
89.46000 5.184
89.48000 6.519
89.50000 2.389
89.52000 3.571
89.54000 0.671
89.56000 2.878
89.58000 2.036
89.60000 -1.746
89.62000 3.122
89.64000 1.987
89.66000 2.370
89.68000 3.808
89.70000 7.676
89.72000 1.564
89.74000 -0.149
89.76000 1.449
89.78000 1.212
89.80000 -1.396
89.82000 0.641
89.84000 2.827
89.86000 1.935
89.88000 8.642
89.90000 3.499
89.92000 5.584
89.94000 3.775
89.96000 3.272
89.98000 5.138
90.00000 6.807
90.02000 6.216
90.04000 4.638
90.06000 2.153
90.08000 0.862
90.10000 3.649
90.12000 1.033
90.14000 3.458
90.16000 5.866
90.18000 2.218
90.20000 1.114
90.22000 4.911
90.24000 5.914
90.26000 5.084
90.28000 3.008
90.30000 2.661
90.32000 3.481
90.34000 3.701
90.36000 -0.657
90.38000 4.164
90.40000 4.926
90.42000 5.649
90.44000 8.090
90.46000 7.231
90.48000 -1.064
90.50000 -2.217
90.52000 0.241
90.54000 2.969
90.56000 6.747
90.58000 6.299
90.60000 1.715
90.62000 5.918
90.64000 11.584
90.66000 12.015
90.68000 5.303
90.70000 7.789
90.72000 6.494
90.74000 6.210
90.76000 9.480
90.78000 6.241
90.80000 5.477
90.82000 0.472
90.84000 0.783
90.86000 8.573
90.88000 5.845
90.90000 6.278
90.92000 4.371
90.94000 6.172
90.96000 8.445
90.98000 4.168
91.00000 -0.384
91.02000 2.577
91.04000 2.037
91.06000 5.032
91.08000 4.849
91.10000 6.344
91.12000 2.347
91.14000 1.320
91.16000 4.666
91.18000 -0.702
91.20000 -1.797
91.22000 -0.499
91.24000 1.758
91.26000 5.393
91.28000 6.026
91.30000 6.212
91.32000 2.964
91.34000 -0.471
91.36000 0.521
91.38000 3.683
91.40000 5.719
91.42000 5.258
91.44000 1.933
91.46000 6.828
91.48000 1.487
91.50000 0.386
91.52000 -1.878
91.54000 2.542
91.56000 2.336
91.58000 -1.999
91.60000 1.660
91.62000 2.609
91.64000 4.182
91.66000 3.466
91.68000 1.712
91.70000 3.591
91.72000 4.445
91.74000 1.153
91.76000 -2.084
91.78000 -2.270
91.80000 -1.529
91.82000 0.854
91.84000 -0.819
91.86000 1.647
91.88000 0.811
91.90000 2.265
91.92000 0.389
91.94000 2.674
91.96000 0.553
91.98000 6.043
92.00000 3.024
92.02000 2.802
92.04000 2.623
92.06000 6.506
92.08000 3.906
92.10000 4.362
92.12000 7.022
92.14000 3.360
92.16000 1.860
92.18000 2.372
92.20000 5.870
92.22000 4.592
92.24000 7.442
92.26000 9.503
92.28000 4.031
92.30000 0.527
92.32000 1.594
92.34000 3.386
92.36000 7.593
92.38000 5.402
92.40000 4.033
92.42000 -0.079
92.44000 2.219
92.46000 2.826
92.48000 4.441
92.50000 2.534
92.52000 5.097
92.54000 2.853
92.56000 5.626
92.58000 2.537
92.60000 0.920
92.62000 2.312
92.64000 3.941
92.66000 2.405
92.68000 4.962
92.70000 4.936
92.72000 4.600
92.74000 0.862
92.76000 -0.156
92.78000 4.467
92.80000 2.060
92.82000 6.931
92.84000 7.533
92.86000 3.607
92.88000 0.480
92.90000 -2.232
92.92000 6.886
92.94000 12.762
92.96000 4.765
92.98000 5.115
93.00000 6.179
93.02000 6.543
93.04000 4.624
93.06000 7.962
93.08000 8.642
93.10000 1.688
93.12000 2.505
93.14000 3.734
93.16000 7.111
93.18000 5.668
93.20000 2.817
93.22000 0.622
93.24000 3.553
93.26000 9.933
93.28000 8.144
93.30000 5.474
93.32000 3.865
93.34000 3.490
93.36000 8.779
93.38000 5.247
93.40000 5.851
93.42000 4.358
93.44000 0.932
93.46000 5.366
93.48000 4.633
93.50000 7.124
93.52000 3.670
93.54000 2.721
93.56000 3.949
93.58000 1.301
93.60000 2.396
93.62000 1.258
93.64000 -1.978
93.66000 -0.969
93.68000 1.899
93.70000 2.136
93.72000 3.143
93.74000 6.333
93.76000 4.909
93.78000 4.198
93.80000 0.693
93.82000 0.575
93.84000 4.658
93.86000 3.989
93.88000 -2.249
93.90000 3.419
93.92000 3.866
93.94000 4.240
93.96000 4.219
93.98000 3.549
94.00000 5.224
94.02000 5.580
94.04000 1.987
94.06000 6.268
94.08000 3.038
94.10000 5.683
94.12000 4.938
94.14000 7.911
94.16000 6.189
94.18000 7.317
94.20000 9.995
94.22000 8.369
94.24000 7.020
94.26000 4.424
94.28000 5.219
94.30000 5.757
94.32000 -2.233
94.34000 4.472
94.36000 -0.924
94.38000 2.690
94.40000 6.599
94.42000 4.296
94.44000 3.276
94.46000 2.991
94.48000 5.514
94.50000 3.213
94.52000 4.078
94.54000 1.279
94.56000 3.934
94.58000 4.265
94.60000 4.548
94.62000 9.114
94.64000 6.085
94.66000 7.391
94.68000 6.971
94.70000 7.399
94.72000 5.854
94.74000 4.945
94.76000 4.050
94.78000 7.098
94.80000 14.407
94.82000 10.019
94.84000 1.509
94.86000 1.032
94.88000 4.700
94.90000 8.733
94.92000 11.591
94.94000 6.305
94.96000 -0.850
94.98000 -1.128
95.00000 1.468
95.02000 4.767
95.04000 6.405
95.06000 6.483
95.08000 2.669
95.10000 3.506
95.12000 -0.367
95.14000 2.476
95.16000 11.204
95.18000 12.413
95.20000 5.469
95.22000 -1.586
95.24000 -0.403
95.26000 5.183
95.28000 4.992
95.30000 2.945
95.32000 2.144
95.34000 -1.753
95.36000 1.186
95.38000 3.243
95.40000 2.808
95.42000 4.843
95.44000 9.008
95.46000 5.301
95.48000 5.719
95.50000 5.996
95.52000 5.910
95.54000 2.419
95.56000 4.348
95.58000 3.107
95.60000 -0.452
95.62000 1.652
95.64000 1.524
95.66000 0.291
95.68000 4.359
95.70000 2.147
95.72000 7.260
95.74000 7.502
95.76000 -0.109
95.78000 0.611
95.80000 -1.069
95.82000 -2.020
95.84000 1.886
95.86000 3.807
95.88000 7.006
95.90000 4.711
95.92000 5.561
95.94000 6.084
95.96000 7.580
95.98000 3.726
96.00000 3.171
96.02000 1.674
96.04000 1.812
96.06000 2.955
96.08000 10.644
96.10000 10.358
96.12000 6.432
96.14000 9.303
96.16000 10.614
96.18000 3.329
96.20000 4.090
96.22000 2.325
96.24000 7.566
96.26000 5.843
96.28000 4.642
96.30000 7.657
96.32000 7.314
96.34000 1.242
96.36000 8.418
96.38000 7.592
96.40000 13.281
96.42000 6.040
96.44000 2.101
96.46000 6.801
96.48000 10.185
96.50000 5.021
96.52000 7.364
96.54000 6.590
96.56000 10.011
96.58000 5.908
96.60000 3.017
96.62000 3.946
96.64000 4.089
96.66000 3.899
96.68000 9.151
96.70000 6.211
96.72000 5.107
96.74000 9.565
96.76000 8.832
96.78000 4.663
96.80000 6.079
96.82000 11.797
96.84000 9.619
96.86000 13.661
96.88000 14.154
96.90000 11.684
96.92000 8.979
96.94000 1.101
96.96000 -2.199
96.98000 2.201
97.00000 4.890
97.02000 3.862
97.04000 8.538
97.06000 3.136
97.08000 8.807
97.10000 9.534
97.12000 8.244
97.14000 11.906
97.16000 11.841
97.18000 12.319
97.20000 6.341
97.22000 9.121
97.24000 7.330
97.26000 7.003
97.28000 5.512
97.30000 10.719
97.32000 7.275
97.34000 11.041
97.36000 8.793
97.38000 10.661
97.40000 6.068
97.42000 3.384
97.44000 6.372
97.46000 5.719
97.48000 4.686
97.50000 4.875
97.52000 -1.636
97.54000 6.432
97.56000 1.937
97.58000 -1.050
97.60000 6.496
97.62000 7.904
97.64000 2.450
97.66000 0.835
97.68000 2.160
97.70000 7.216
97.72000 8.679
97.74000 7.626
97.76000 9.371
97.78000 4.005
97.80000 1.503
97.82000 -0.784
97.84000 4.733
97.86000 5.969
97.88000 6.165
97.90000 8.399
97.92000 7.226
97.94000 5.685
97.96000 10.546
97.98000 10.694
98.00000 5.500
98.02000 0.562
98.04000 2.104
98.06000 7.573
98.08000 11.509
98.10000 1.979
98.12000 4.952
98.14000 8.183
98.16000 10.832
98.18000 10.072
98.20000 7.614
98.22000 2.058
98.24000 -2.116
98.26000 0.876
98.28000 2.611
98.30000 4.507
98.32000 12.105
98.34000 7.271
98.36000 8.601
98.38000 12.823
98.40000 2.048
98.42000 2.987
98.44000 -0.046
98.46000 -2.175
98.48000 3.010
98.50000 11.942
98.52000 13.097
98.54000 7.386
98.56000 5.799
98.58000 3.270
98.60000 3.135
98.62000 14.258
98.64000 2.982
98.66000 3.014
98.68000 1.923
98.70000 9.416
98.72000 6.933
98.74000 4.680
98.76000 -1.223
98.78000 3.676
98.80000 16.086
98.82000 7.565
98.84000 2.716
98.86000 0.419
98.88000 6.616
98.90000 5.811
98.92000 6.375
98.94000 8.329
98.96000 4.434
98.98000 3.197
99.00000 11.113
99.02000 11.058
99.04000 9.600
99.06000 14.976
99.08000 13.165
99.10000 7.583
99.12000 6.769
99.14000 6.616
99.16000 5.716
99.18000 9.422
99.20000 0.962
99.22000 2.628
99.24000 5.838
99.26000 3.881
99.28000 2.645
99.30000 6.099
99.32000 7.425
99.34000 1.618
99.36000 8.667
99.38000 -2.126
99.40000 3.467
99.42000 10.464
99.44000 6.701
99.46000 7.123
99.48000 -2.208
99.50000 3.748
99.52000 4.884
99.54000 3.663
99.56000 -2.557
99.58000 9.651
99.60000 4.826
99.62000 5.796
99.64000 -1.643
99.66000 2.587
99.68000 7.955
99.70000 7.125
99.72000 10.659
99.74000 11.547
99.76000 5.649
99.78000 3.595
99.80000 6.634
99.82000 5.621
99.84000 -2.254
99.86000 -2.260
99.88000 -2.287
99.90000 5.033
99.92000 10.807
99.94000 13.599
99.96000 12.432
99.98000 0.000
