'Id: "0011388" Comment: "Integrate frame 0011388_Au-Ir-Rh_Rh-rich_XRD-Mapping-069-0000.gfrmwith cursor Wedge Cursor #5" Operator: "B?rgel" Anode: "Cu" Wavelength: "1.5406" Scantype: "2Theta (TwoTheta)" TimePerStep: "1" X: "18" Y: "-22.5" Z: "5.95" 
10.00000 0.000
10.02000 16.259
10.04000 5.750
10.06000 15.588
10.08000 23.351
10.10000 28.775
10.12000 24.605
10.14000 29.400
10.16000 9.131
10.18000 12.254
10.20000 9.362
10.22000 7.673
10.24000 4.836
10.26000 2.027
10.28000 9.070
10.30000 22.684
10.32000 20.426
10.34000 15.083
10.36000 14.884
10.38000 13.874
10.40000 19.957
10.42000 17.177
10.44000 16.278
10.46000 26.232
10.48000 20.427
10.50000 10.861
10.52000 15.015
10.54000 8.387
10.56000 3.858
10.58000 13.935
10.60000 12.424
10.62000 26.650
10.64000 28.031
10.66000 15.746
10.68000 11.938
10.70000 8.478
10.72000 17.552
10.74000 24.709
10.76000 25.546
10.78000 16.899
10.80000 24.576
10.82000 19.384
10.84000 23.999
10.86000 10.171
10.88000 15.500
10.90000 20.819
10.92000 12.251
10.94000 21.750
10.96000 20.783
10.98000 23.503
11.00000 27.351
11.02000 20.459
11.04000 15.537
11.06000 34.536
11.08000 25.210
11.10000 11.578
11.12000 10.848
11.14000 20.853
11.16000 29.620
11.18000 26.744
11.20000 18.447
11.22000 22.468
11.24000 28.459
11.26000 23.820
11.28000 29.328
11.30000 14.052
11.32000 5.577
11.34000 5.598
11.36000 11.932
11.38000 11.350
11.40000 23.746
11.42000 24.105
11.44000 16.946
11.46000 19.184
11.48000 18.000
11.50000 14.877
11.52000 18.035
11.54000 23.954
11.56000 20.509
11.58000 23.388
11.60000 22.709
11.62000 22.469
11.64000 23.005
11.66000 21.472
11.68000 28.529
11.70000 20.098
11.72000 19.566
11.74000 33.132
11.76000 31.672
11.78000 17.326
11.80000 15.992
11.82000 21.465
11.84000 17.983
11.86000 15.988
11.88000 21.376
11.90000 25.680
11.92000 34.728
11.94000 22.643
11.96000 27.294
11.98000 27.657
12.00000 19.334
12.02000 20.409
12.04000 14.220
12.06000 16.523
12.08000 27.065
12.10000 30.717
12.12000 28.609
12.14000 23.470
12.16000 19.845
12.18000 8.613
12.20000 11.269
12.22000 14.149
12.24000 22.268
12.26000 21.754
12.28000 22.501
12.30000 25.506
12.32000 28.344
12.34000 22.665
12.36000 18.850
12.38000 29.390
12.40000 13.000
12.42000 10.173
12.44000 7.633
12.46000 4.374
12.48000 18.953
12.50000 20.194
12.52000 23.967
12.54000 23.442
12.56000 32.499
12.58000 30.394
12.60000 32.175
12.62000 25.456
12.64000 13.288
12.66000 22.317
12.68000 27.625
12.70000 20.968
12.72000 19.291
12.74000 22.514
12.76000 18.540
12.78000 11.289
12.80000 18.583
12.82000 26.260
12.84000 17.803
12.86000 20.182
12.88000 27.891
12.90000 28.148
12.92000 25.187
12.94000 18.350
12.96000 10.752
12.98000 17.126
13.00000 23.877
13.02000 24.002
13.04000 26.984
13.06000 25.124
13.08000 20.372
13.10000 17.091
13.12000 9.587
13.14000 16.297
13.16000 21.809
13.18000 18.205
13.20000 24.624
13.22000 34.483
13.24000 25.463
13.26000 18.465
13.28000 26.105
13.30000 18.330
13.32000 14.835
13.34000 22.841
13.36000 23.029
13.38000 23.582
13.40000 22.343
13.42000 22.910
13.44000 22.258
13.46000 20.597
13.48000 12.412
13.50000 8.202
13.52000 17.603
13.54000 15.019
13.56000 14.913
13.58000 20.059
13.60000 14.852
13.62000 12.575
13.64000 17.184
13.66000 16.781
13.68000 12.907
13.70000 9.125
13.72000 15.832
13.74000 25.858
13.76000 24.460
13.78000 19.998
13.80000 14.377
13.82000 17.431
13.84000 20.105
13.86000 12.772
13.88000 21.034
13.90000 25.277
13.92000 24.143
13.94000 16.793
13.96000 22.241
13.98000 20.427
14.00000 15.203
14.02000 7.945
14.04000 13.481
14.06000 19.802
14.08000 30.093
14.10000 23.311
14.12000 18.251
14.14000 8.915
14.16000 10.798
14.18000 8.043
14.20000 15.647
14.22000 10.598
14.24000 11.311
14.26000 13.274
14.28000 13.772
14.30000 19.557
14.32000 21.155
14.34000 17.335
14.36000 22.526
14.38000 17.268
14.40000 7.964
14.42000 13.104
14.44000 12.647
14.46000 5.518
14.48000 7.079
14.50000 16.153
14.52000 14.393
14.54000 14.210
14.56000 18.323
14.58000 17.323
14.60000 14.276
14.62000 17.886
14.64000 11.574
14.66000 2.203
14.68000 8.470
14.70000 9.438
14.72000 11.434
14.74000 14.876
14.76000 9.288
14.78000 17.717
14.80000 17.528
14.82000 20.388
14.84000 15.178
14.86000 11.380
14.88000 13.586
14.90000 12.834
14.92000 14.390
14.94000 21.399
14.96000 16.799
14.98000 11.111
15.00000 25.964
15.02000 16.087
15.04000 4.745
15.06000 -1.465
15.08000 4.390
15.10000 22.730
15.12000 10.196
15.14000 6.558
15.16000 16.906
15.18000 9.589
15.20000 9.905
15.22000 18.665
15.24000 17.125
15.26000 11.250
15.28000 14.618
15.30000 4.185
15.32000 11.707
15.34000 16.612
15.36000 20.812
15.38000 13.992
15.40000 10.219
15.42000 11.865
15.44000 10.998
15.46000 12.916
15.48000 13.585
15.50000 16.864
15.52000 14.920
15.54000 8.478
15.56000 2.577
15.58000 1.935
15.60000 6.722
15.62000 8.765
15.64000 7.868
15.66000 12.247
15.68000 12.951
15.70000 19.037
15.72000 11.506
15.74000 4.795
15.76000 1.293
15.78000 -4.416
15.80000 -0.808
15.82000 1.104
15.84000 8.130
15.86000 8.633
15.88000 8.153
15.90000 8.773
15.92000 7.745
15.94000 7.074
15.96000 4.801
15.98000 6.360
16.00000 8.917
16.02000 6.647
16.04000 8.459
16.06000 7.734
16.08000 6.364
16.10000 6.061
16.12000 11.701
16.14000 5.096
16.16000 15.546
16.18000 10.325
16.20000 1.341
16.22000 -4.058
16.24000 0.511
16.26000 4.094
16.28000 9.569
16.30000 14.646
16.32000 11.260
16.34000 5.679
16.36000 2.486
16.38000 6.205
16.40000 6.417
16.42000 1.928
16.44000 -1.836
16.46000 2.475
16.48000 8.068
16.50000 16.877
16.52000 14.683
16.54000 9.262
16.56000 1.119
16.58000 0.391
16.60000 6.943
16.62000 14.291
16.64000 14.804
16.66000 3.277
16.68000 6.248
16.70000 7.693
16.72000 3.611
16.74000 5.790
16.76000 9.225
16.78000 -0.354
16.80000 -1.077
16.82000 -3.271
16.84000 -1.714
16.86000 5.065
16.88000 1.486
16.90000 -1.340
16.92000 5.639
16.94000 1.296
16.96000 1.475
16.98000 5.550
17.00000 8.815
17.02000 11.754
17.04000 20.602
17.06000 15.207
17.08000 9.802
17.10000 4.869
17.12000 2.178
17.14000 2.625
17.16000 -0.056
17.18000 -1.966
17.20000 -0.621
17.22000 7.238
17.24000 12.000
17.26000 16.067
17.28000 12.254
17.30000 4.422
17.32000 5.525
17.34000 9.124
17.36000 3.487
17.38000 -4.386
17.40000 -1.489
17.42000 7.526
17.44000 8.540
17.46000 8.519
17.48000 11.030
17.50000 16.204
17.52000 9.305
17.54000 1.589
17.56000 -1.616
17.58000 2.458
17.60000 6.786
17.62000 5.045
17.64000 3.496
17.66000 5.790
17.68000 4.673
17.70000 1.957
17.72000 3.888
17.74000 9.007
17.76000 7.768
17.78000 6.741
17.80000 2.686
17.82000 2.301
17.84000 -2.100
17.86000 5.428
17.88000 7.252
17.90000 2.430
17.92000 -4.076
17.94000 0.458
17.96000 4.508
17.98000 5.462
18.00000 -0.389
18.02000 -3.350
18.04000 -3.897
18.06000 5.028
18.08000 6.239
18.10000 3.083
18.12000 2.184
18.14000 13.387
18.16000 16.015
18.18000 8.468
18.20000 3.081
18.22000 6.464
18.24000 3.497
18.26000 -0.067
18.28000 -0.783
18.30000 2.625
18.32000 1.645
18.34000 3.436
18.36000 3.590
18.38000 2.868
18.40000 1.877
18.42000 3.924
18.44000 6.098
18.46000 0.694
18.48000 4.512
18.50000 -1.809
18.52000 -4.317
18.54000 4.823
18.56000 5.975
18.58000 1.900
18.60000 3.586
18.62000 0.531
18.64000 -0.607
18.66000 0.096
18.68000 7.374
18.70000 15.002
18.72000 8.884
18.74000 7.681
18.76000 3.336
18.78000 3.270
18.80000 8.085
18.82000 5.629
18.84000 3.363
18.86000 6.374
18.88000 3.304
18.90000 1.732
18.92000 1.593
18.94000 2.006
18.96000 3.926
18.98000 4.848
19.00000 0.656
19.02000 -4.129
19.04000 -4.282
19.06000 -1.502
19.08000 12.773
19.10000 11.067
19.12000 9.162
19.14000 5.610
19.16000 3.250
19.18000 7.211
19.20000 8.792
19.22000 2.190
19.24000 -3.758
19.26000 8.233
19.28000 2.551
19.30000 -0.720
19.32000 2.836
19.34000 6.294
19.36000 1.852
19.38000 1.260
19.40000 4.388
19.42000 4.260
19.44000 3.726
19.46000 3.329
19.48000 2.420
19.50000 3.733
19.52000 5.249
19.54000 5.035
19.56000 4.773
19.58000 5.976
19.60000 5.014
19.62000 7.970
19.64000 14.198
19.66000 8.272
19.68000 3.013
19.70000 -4.226
19.72000 -2.111
19.74000 1.768
19.76000 9.498
19.78000 12.305
19.80000 11.456
19.82000 7.240
19.84000 0.474
19.86000 0.749
19.88000 4.351
19.90000 7.331
19.92000 7.121
19.94000 7.371
19.96000 4.482
19.98000 3.590
20.00000 1.406
20.02000 2.441
20.04000 -0.210
20.06000 6.420
20.08000 4.030
20.10000 1.345
20.12000 1.284
20.14000 7.318
20.16000 10.279
20.18000 4.563
20.20000 5.467
20.22000 7.588
20.24000 3.648
20.26000 3.393
20.28000 0.798
20.30000 2.670
20.32000 0.060
20.34000 1.949
20.36000 1.331
20.38000 2.157
20.40000 4.445
20.42000 9.740
20.44000 8.812
20.46000 11.998
20.48000 -0.202
20.50000 5.503
20.52000 1.735
20.54000 0.958
20.56000 4.395
20.58000 2.967
20.60000 8.900
20.62000 10.619
20.64000 1.540
20.66000 -0.527
20.68000 -0.164
20.70000 2.765
20.72000 11.420
20.74000 15.676
20.76000 6.734
20.78000 5.355
20.80000 5.416
20.82000 9.729
20.84000 4.157
20.86000 8.995
20.88000 0.805
20.90000 -0.196
20.92000 -4.165
20.94000 -4.006
20.96000 -3.428
20.98000 1.418
21.00000 9.228
21.02000 11.097
21.04000 5.724
21.06000 1.016
21.08000 -3.911
21.10000 -3.483
21.12000 -3.020
21.14000 0.443
21.16000 -3.035
21.18000 7.569
21.20000 5.157
21.22000 11.059
21.24000 7.486
21.26000 -4.145
21.28000 -1.624
21.30000 1.448
21.32000 3.926
21.34000 2.120
21.36000 4.326
21.38000 3.050
21.40000 6.077
21.42000 3.693
21.44000 -0.881
21.46000 -1.183
21.48000 -2.416
21.50000 -0.393
21.52000 2.769
21.54000 9.404
21.56000 6.278
21.58000 -3.673
21.60000 4.805
21.62000 6.122
21.64000 6.220
21.66000 1.954
21.68000 3.163
21.70000 6.140
21.72000 1.114
21.74000 -2.773
21.76000 3.084
21.78000 8.863
21.80000 1.483
21.82000 4.663
21.84000 9.888
21.86000 2.879
21.88000 2.302
21.90000 9.506
21.92000 8.468
21.94000 9.158
21.96000 10.922
21.98000 8.838
22.00000 1.798
22.02000 -1.133
22.04000 -1.646
22.06000 0.909
22.08000 1.936
22.10000 3.445
22.12000 -1.669
22.14000 -1.925
22.16000 2.101
22.18000 2.614
22.20000 -0.055
22.22000 0.607
22.24000 6.781
22.26000 8.201
22.28000 1.352
22.30000 1.711
22.32000 3.125
22.34000 -2.927
22.36000 -2.508
22.38000 3.078
22.40000 3.799
22.42000 -3.030
22.44000 0.853
22.46000 -1.308
22.48000 -4.091
22.50000 -2.509
22.52000 -0.071
22.54000 2.171
22.56000 5.902
22.58000 9.985
22.60000 10.850
22.62000 6.424
22.64000 -1.364
22.66000 3.099
22.68000 3.925
22.70000 8.023
22.72000 4.862
22.74000 4.533
22.76000 1.034
22.78000 3.081
22.80000 5.869
22.82000 2.374
22.84000 -1.442
22.86000 -1.499
22.88000 1.069
22.90000 -0.088
22.92000 3.871
22.94000 1.545
22.96000 -1.640
22.98000 3.745
23.00000 9.274
23.02000 4.261
23.04000 3.713
23.06000 -0.008
23.08000 3.543
23.10000 -0.599
23.12000 -4.040
23.14000 -3.528
23.16000 -0.576
23.18000 3.208
23.20000 2.606
23.22000 2.266
23.24000 4.488
23.26000 -1.027
23.28000 -0.883
23.30000 3.069
23.32000 4.395
23.34000 3.098
23.36000 2.472
23.38000 5.861
23.40000 5.386
23.42000 7.438
23.44000 5.990
23.46000 5.223
23.48000 4.603
23.50000 2.554
23.52000 4.701
23.54000 3.354
23.56000 3.002
23.58000 7.749
23.60000 12.147
23.62000 12.942
23.64000 7.564
23.66000 6.525
23.68000 6.350
23.70000 3.940
23.72000 4.617
23.74000 11.220
23.76000 6.046
23.78000 1.770
23.80000 4.086
23.82000 2.085
23.84000 0.140
23.86000 -3.992
23.88000 -3.721
23.90000 -1.499
23.92000 -0.944
23.94000 1.371
23.96000 1.240
23.98000 7.712
24.00000 15.887
24.02000 9.751
24.04000 8.755
24.06000 9.659
24.08000 9.739
24.10000 4.130
24.12000 5.617
24.14000 5.139
24.16000 5.630
24.18000 7.705
24.20000 10.291
24.22000 9.569
24.24000 9.608
24.26000 3.510
24.28000 2.323
24.30000 2.767
24.32000 4.821
24.34000 11.097
24.36000 7.248
24.38000 4.836
24.40000 0.690
24.42000 1.732
24.44000 -1.078
24.46000 2.600
24.48000 10.026
24.50000 6.702
24.52000 7.516
24.54000 3.414
24.56000 -0.327
24.58000 -3.098
24.60000 5.132
24.62000 4.206
24.64000 5.417
24.66000 0.180
24.68000 1.570
24.70000 3.945
24.72000 -0.878
24.74000 -3.933
24.76000 -2.509
24.78000 0.142
24.80000 4.441
24.82000 8.072
24.84000 6.320
24.86000 3.480
24.88000 7.821
24.90000 9.700
24.92000 5.013
24.94000 2.468
24.96000 4.529
24.98000 9.170
25.00000 3.836
25.02000 -0.013
25.04000 1.438
25.06000 -3.804
25.08000 -1.659
25.10000 -2.735
25.12000 2.862
25.14000 1.858
25.16000 -0.921
25.18000 -2.869
25.20000 3.910
25.22000 0.735
25.24000 7.775
25.26000 4.764
25.28000 -0.593
25.30000 1.735
25.32000 -1.769
25.34000 -3.150
25.36000 0.556
25.38000 5.914
25.40000 4.918
25.42000 7.679
25.44000 3.933
25.46000 6.884
25.48000 13.370
25.50000 8.428
25.52000 6.724
25.54000 5.085
25.56000 1.080
25.58000 -0.636
25.60000 5.060
25.62000 6.671
25.64000 3.207
25.66000 -0.053
25.68000 0.403
25.70000 2.277
25.72000 1.978
25.74000 2.247
25.76000 5.903
25.78000 3.734
25.80000 1.016
25.82000 -3.242
25.84000 1.318
25.86000 1.584
25.88000 1.571
25.90000 1.101
25.92000 2.427
25.94000 -0.786
25.96000 -2.850
25.98000 3.862
26.00000 1.957
26.02000 -1.766
26.04000 -3.900
26.06000 2.096
26.08000 -2.100
26.10000 0.245
26.12000 4.966
26.14000 3.159
26.16000 1.606
26.18000 1.743
26.20000 0.160
26.22000 1.416
26.24000 -0.957
26.26000 2.761
26.28000 4.925
26.30000 7.415
26.32000 6.271
26.34000 6.574
26.36000 2.516
26.38000 1.385
26.40000 -0.629
26.42000 -0.733
26.44000 0.447
26.46000 3.582
26.48000 5.770
26.50000 3.648
26.52000 3.759
26.54000 -0.941
26.56000 0.092
26.58000 1.672
26.60000 -0.452
26.62000 3.638
26.64000 1.016
26.66000 1.313
26.68000 1.009
26.70000 1.775
26.72000 3.527
26.74000 5.838
26.76000 3.917
26.78000 2.887
26.80000 1.148
26.82000 1.906
26.84000 1.485
26.86000 -1.782
26.88000 3.168
26.90000 5.557
26.92000 2.831
26.94000 5.050
26.96000 8.096
26.98000 9.515
27.00000 7.439
27.02000 1.728
27.04000 1.054
27.06000 1.401
27.08000 2.876
27.10000 4.961
27.12000 1.470
27.14000 -3.826
27.16000 3.567
27.18000 6.323
27.20000 1.038
27.22000 1.278
27.24000 6.677
27.26000 3.955
27.28000 4.327
27.30000 0.437
27.32000 -1.462
27.34000 1.854
27.36000 5.512
27.38000 7.392
27.40000 2.628
27.42000 2.772
27.44000 5.262
27.46000 10.408
27.48000 8.687
27.50000 5.628
27.52000 8.793
27.54000 11.764
27.56000 11.627
27.58000 4.760
27.60000 0.039
27.62000 -1.132
27.64000 3.683
27.66000 5.117
27.68000 4.118
27.70000 3.667
27.72000 3.869
27.74000 7.055
27.76000 2.862
27.78000 2.792
27.80000 -2.091
27.82000 5.458
27.84000 10.224
27.86000 10.129
27.88000 7.887
27.90000 7.826
27.92000 6.028
27.94000 2.737
27.96000 -0.013
27.98000 5.301
28.00000 3.837
28.02000 -0.840
28.04000 -2.994
28.06000 2.082
28.08000 4.769
28.10000 5.638
28.12000 3.292
28.14000 4.704
28.16000 15.053
28.18000 17.045
28.20000 4.245
28.22000 4.454
28.24000 1.238
28.26000 1.546
28.28000 4.518
28.30000 6.000
28.32000 8.330
28.34000 3.119
28.36000 -0.051
28.38000 -3.752
28.40000 4.282
28.42000 3.278
28.44000 3.359
28.46000 5.658
28.48000 5.965
28.50000 2.518
28.52000 2.178
28.54000 2.964
28.56000 5.982
28.58000 8.527
28.60000 8.675
28.62000 10.186
28.64000 5.489
28.66000 -1.448
28.68000 2.573
28.70000 8.024
28.72000 1.874
28.74000 -0.684
28.76000 0.141
28.78000 2.339
28.80000 7.457
28.82000 2.966
28.84000 4.663
28.86000 2.433
28.88000 -0.423
28.90000 5.887
28.92000 5.411
28.94000 5.239
28.96000 2.105
28.98000 -2.473
29.00000 0.172
29.02000 7.074
29.04000 5.621
29.06000 1.024
29.08000 1.161
29.10000 5.350
29.12000 4.533
29.14000 2.366
29.16000 2.510
29.18000 5.937
29.20000 2.664
29.22000 2.270
29.24000 -0.192
29.26000 -0.690
29.28000 6.183
29.30000 6.074
29.32000 5.382
29.34000 7.112
29.36000 6.776
29.38000 1.837
29.40000 1.374
29.42000 -3.706
29.44000 -0.697
29.46000 4.383
29.48000 -1.381
29.50000 -1.065
29.52000 3.411
29.54000 -2.226
29.56000 -1.333
29.58000 6.257
29.60000 6.998
29.62000 5.013
29.64000 10.010
29.66000 7.721
29.68000 3.606
29.70000 1.803
29.72000 3.586
29.74000 0.931
29.76000 1.780
29.78000 0.038
29.80000 0.679
29.82000 5.559
29.84000 3.650
29.86000 3.057
29.88000 3.496
29.90000 -1.183
29.92000 2.253
29.94000 3.831
29.96000 3.778
29.98000 3.562
30.00000 2.347
30.02000 2.990
30.04000 1.612
30.06000 3.280
30.08000 5.062
30.10000 5.414
30.12000 0.436
30.14000 1.400
30.16000 4.683
30.18000 2.628
30.20000 2.914
30.22000 6.723
30.24000 3.521
30.26000 3.104
30.28000 3.363
30.30000 2.727
30.32000 0.029
30.34000 -0.178
30.36000 -1.424
30.38000 0.239
30.40000 3.558
30.42000 7.640
30.44000 3.698
30.46000 0.062
30.48000 0.762
30.50000 3.327
30.52000 2.101
30.54000 -3.646
30.56000 -1.666
30.58000 5.576
30.60000 7.629
30.62000 6.546
30.64000 4.687
30.66000 0.400
30.68000 4.267
30.70000 7.107
30.72000 7.322
30.74000 -1.919
30.76000 -3.636
30.78000 4.167
30.80000 0.949
30.82000 3.835
30.84000 4.796
30.86000 5.614
30.88000 1.081
30.90000 4.568
30.92000 3.986
30.94000 2.401
30.96000 -0.793
30.98000 1.511
31.00000 7.241
31.02000 3.936
31.04000 -0.673
31.06000 -0.187
31.08000 4.262
31.10000 1.464
31.12000 3.885
31.14000 -0.788
31.16000 -3.301
31.18000 4.645
31.20000 6.990
31.22000 6.497
31.24000 8.905
31.26000 4.830
31.28000 0.778
31.30000 4.717
31.32000 5.805
31.34000 7.141
31.36000 4.045
31.38000 -2.042
31.40000 2.379
31.42000 5.210
31.44000 5.408
31.46000 7.552
31.48000 8.110
31.50000 6.485
31.52000 3.567
31.54000 2.676
31.56000 -0.488
31.58000 -1.245
31.60000 1.402
31.62000 4.992
31.64000 0.810
31.66000 1.384
31.68000 4.473
31.70000 8.931
31.72000 8.294
31.74000 3.739
31.76000 4.094
31.78000 4.788
31.80000 5.463
31.82000 6.251
31.84000 0.728
31.86000 -3.587
31.88000 2.987
31.90000 3.927
31.92000 2.797
31.94000 6.580
31.96000 0.450
31.98000 4.395
32.00000 0.401
32.02000 1.333
32.04000 3.142
32.06000 2.220
32.08000 -0.304
32.10000 0.987
32.12000 6.427
32.14000 9.171
32.16000 5.209
32.18000 0.025
32.20000 1.627
32.22000 -0.089
32.24000 3.017
32.26000 2.787
32.28000 -0.809
32.30000 2.598
32.32000 6.511
32.34000 6.810
32.36000 1.658
32.38000 2.010
32.40000 5.684
32.42000 6.163
32.44000 1.998
32.46000 1.737
32.48000 4.702
32.50000 9.684
32.52000 8.113
32.54000 3.593
32.56000 2.381
32.58000 2.976
32.60000 2.341
32.62000 -2.647
32.64000 -3.558
32.66000 -2.656
32.68000 -2.855
32.70000 4.749
32.72000 6.833
32.74000 2.510
32.76000 0.730
32.78000 -0.183
32.80000 2.891
32.82000 6.559
32.84000 2.751
32.86000 0.185
32.88000 5.765
32.90000 2.668
32.92000 -1.675
32.94000 -0.221
32.96000 -1.158
32.98000 0.293
33.00000 1.562
33.02000 1.596
33.04000 2.539
33.06000 3.200
33.08000 2.377
33.10000 -0.096
33.12000 -0.363
33.14000 -1.072
33.16000 1.901
33.18000 0.317
33.20000 4.511
33.22000 10.681
33.24000 8.197
33.26000 6.196
33.28000 3.495
33.30000 3.096
33.32000 1.785
33.34000 0.164
33.36000 1.291
33.38000 7.291
33.40000 4.182
33.42000 -1.215
33.44000 -0.694
33.46000 2.179
33.48000 1.031
33.50000 3.942
33.52000 5.837
33.54000 12.079
33.56000 8.928
33.58000 2.165
33.60000 4.704
33.62000 5.148
33.64000 0.175
33.66000 4.175
33.68000 5.160
33.70000 1.221
33.72000 -1.823
33.74000 4.530
33.76000 7.011
33.78000 4.548
33.80000 2.225
33.82000 3.073
33.84000 0.305
33.86000 3.308
33.88000 5.884
33.90000 6.407
33.92000 5.335
33.94000 3.905
33.96000 8.298
33.98000 3.662
34.00000 3.166
34.02000 2.217
34.04000 -0.773
34.06000 0.283
34.08000 1.776
34.10000 8.840
34.12000 13.468
34.14000 6.512
34.16000 3.241
34.18000 6.987
34.20000 8.817
34.22000 6.434
34.24000 3.678
34.26000 2.234
34.28000 3.821
34.30000 10.104
34.32000 6.522
34.34000 3.663
34.36000 2.591
34.38000 2.422
34.40000 -0.320
34.42000 -0.698
34.44000 3.268
34.46000 3.737
34.48000 5.163
34.50000 -0.878
34.52000 1.600
34.54000 0.719
34.56000 -0.840
34.58000 3.553
34.60000 -2.534
34.62000 -1.157
34.64000 2.949
34.66000 6.348
34.68000 3.808
34.70000 1.329
34.72000 -2.415
34.74000 4.120
34.76000 3.684
34.78000 -3.508
34.80000 0.661
34.82000 5.201
34.84000 -1.027
34.86000 2.463
34.88000 6.032
34.90000 2.942
34.92000 -1.984
34.94000 -1.590
34.96000 1.940
34.98000 2.351
35.00000 2.113
35.02000 -1.135
35.04000 5.717
35.06000 4.003
35.08000 2.887
35.10000 9.797
35.12000 9.673
35.14000 4.858
35.16000 3.350
35.18000 0.724
35.20000 -0.921
35.22000 2.657
35.24000 3.352
35.26000 3.156
35.28000 6.966
35.30000 5.628
35.32000 1.153
35.34000 -1.154
35.36000 -3.491
35.38000 1.972
35.40000 3.326
35.42000 5.128
35.44000 6.652
35.46000 2.549
35.48000 1.097
35.50000 1.474
35.52000 -1.301
35.54000 1.362
35.56000 -0.859
35.58000 0.380
35.60000 4.403
35.62000 2.503
35.64000 1.774
35.66000 0.379
35.68000 2.686
35.70000 3.161
35.72000 -0.510
35.74000 0.459
35.76000 6.278
35.78000 0.029
35.80000 4.264
35.82000 9.400
35.84000 2.842
35.86000 2.689
35.88000 0.605
35.90000 0.265
35.92000 2.590
35.94000 4.595
35.96000 7.827
35.98000 4.084
36.00000 2.278
36.02000 4.474
36.04000 3.333
36.06000 -3.477
36.08000 0.112
36.10000 6.118
36.12000 1.846
36.14000 -1.059
36.16000 2.113
36.18000 1.860
36.20000 3.859
36.22000 4.431
36.24000 5.564
36.26000 4.895
36.28000 4.028
36.30000 -1.323
36.32000 -0.321
36.34000 -1.665
36.36000 2.365
36.38000 1.620
36.40000 1.631
36.42000 0.300
36.44000 1.067
36.46000 7.501
36.48000 7.029
36.50000 6.840
36.52000 3.345
36.54000 3.214
36.56000 0.423
36.58000 0.603
36.60000 5.986
36.62000 5.692
36.64000 2.322
36.66000 4.573
36.68000 1.132
36.70000 1.056
36.72000 4.320
36.74000 3.456
36.76000 0.387
36.78000 -3.153
36.80000 0.358
36.82000 3.749
36.84000 2.645
36.86000 6.700
36.88000 4.827
36.90000 2.789
36.92000 0.735
36.94000 3.339
36.96000 4.481
36.98000 2.571
37.00000 6.926
37.02000 4.469
37.04000 1.777
37.06000 3.380
37.08000 0.980
37.10000 1.918
37.12000 0.073
37.14000 3.198
37.16000 2.969
37.18000 2.955
37.20000 6.077
37.22000 7.001
37.24000 0.900
37.26000 -3.509
37.28000 0.377
37.30000 2.320
37.32000 0.050
37.34000 1.399
37.36000 9.627
37.38000 6.925
37.40000 1.962
37.42000 -0.221
37.44000 4.537
37.46000 3.823
37.48000 3.241
37.50000 -0.453
37.52000 -0.737
37.54000 4.327
37.56000 3.068
37.58000 -0.752
37.60000 1.538
37.62000 0.803
37.64000 1.688
37.66000 0.401
37.68000 3.303
37.70000 5.223
37.72000 5.947
37.74000 3.992
37.76000 3.778
37.78000 6.513
37.80000 2.666
37.82000 2.263
37.84000 2.061
37.86000 1.734
37.88000 3.231
37.90000 4.877
37.92000 3.248
37.94000 5.002
37.96000 3.970
37.98000 2.233
38.00000 4.083
38.02000 8.850
38.04000 7.521
38.06000 4.382
38.08000 2.037
38.10000 0.841
38.12000 2.898
38.14000 6.031
38.16000 7.916
38.18000 10.625
38.20000 8.809
38.22000 8.142
38.24000 9.358
38.26000 8.206
38.28000 9.979
38.30000 12.031
38.32000 9.435
38.34000 9.272
38.36000 8.808
38.38000 7.546
38.40000 8.177
38.42000 11.677
38.44000 15.980
38.46000 16.952
38.48000 11.756
38.50000 13.359
38.52000 14.597
38.54000 11.808
38.56000 14.403
38.58000 12.706
38.60000 16.029
38.62000 12.791
38.64000 12.653
38.66000 16.577
38.68000 11.031
38.70000 11.591
38.72000 14.700
38.74000 16.703
38.76000 14.616
38.78000 11.484
38.80000 13.505
38.82000 13.400
38.84000 17.175
38.86000 19.717
38.88000 23.557
38.90000 23.804
38.92000 19.774
38.94000 19.487
38.96000 20.932
38.98000 23.231
39.00000 23.731
39.02000 18.714
39.04000 23.925
39.06000 26.800
39.08000 26.497
39.10000 26.937
39.12000 26.826
39.14000 25.209
39.16000 27.002
39.18000 30.204
39.20000 33.017
39.22000 32.447
39.24000 32.646
39.26000 34.437
39.28000 36.590
39.30000 40.409
39.32000 39.974
39.34000 43.869
39.36000 40.253
39.38000 36.389
39.40000 40.480
39.42000 42.383
39.44000 45.995
39.46000 48.816
39.48000 50.272
39.50000 59.338
39.52000 58.987
39.54000 66.025
39.56000 65.182
39.58000 64.965
39.60000 65.840
39.62000 70.691
39.64000 73.198
39.66000 75.713
39.68000 80.993
39.70000 86.941
39.72000 88.505
39.74000 89.378
39.76000 98.928
39.78000 100.604
39.80000 99.553
39.82000 106.051
39.84000 116.015
39.86000 127.906
39.88000 135.034
39.90000 132.304
39.92000 145.071
39.94000 156.260
39.96000 156.448
39.98000 162.321
40.00000 177.211
40.02000 179.178
40.04000 182.508
40.06000 191.388
40.08000 203.266
40.10000 218.875
40.12000 223.700
40.14000 231.785
40.16000 247.427
40.18000 259.237
40.20000 271.772
40.22000 289.179
40.24000 305.498
40.26000 308.083
40.28000 324.214
40.30000 336.308
40.32000 346.644
40.34000 354.582
40.36000 370.715
40.38000 390.303
40.40000 407.593
40.42000 417.481
40.44000 427.267
40.46000 443.428
40.48000 461.819
40.50000 469.169
40.52000 482.081
40.54000 495.772
40.56000 495.753
40.58000 508.144
40.60000 526.927
40.62000 532.337
40.64000 528.735
40.66000 538.831
40.68000 541.027
40.70000 540.351
40.72000 547.005
40.74000 549.041
40.76000 543.748
40.78000 532.408
40.80000 524.750
40.82000 515.607
40.84000 502.244
40.86000 499.443
40.88000 503.662
40.90000 487.520
40.92000 480.816
40.94000 460.447
40.96000 456.745
40.98000 446.967
41.00000 427.551
41.02000 407.314
41.04000 384.617
41.06000 369.424
41.08000 364.899
41.10000 362.816
41.12000 339.805
41.14000 323.338
41.16000 309.384
41.18000 299.022
41.20000 287.372
41.22000 268.464
41.24000 250.876
41.26000 246.230
41.28000 229.462
41.30000 217.774
41.32000 214.406
41.34000 201.247
41.36000 189.722
41.38000 180.735
41.40000 167.487
41.42000 159.129
41.44000 152.387
41.46000 148.445
41.48000 137.785
41.50000 125.732
41.52000 117.871
41.54000 116.456
41.56000 112.176
41.58000 100.813
41.60000 98.290
41.62000 90.579
41.64000 83.253
41.66000 85.175
41.68000 80.016
41.70000 74.646
41.72000 74.442
41.74000 69.362
41.76000 69.068
41.78000 68.343
41.80000 59.914
41.82000 56.132
41.84000 57.936
41.86000 55.802
41.88000 47.357
41.90000 45.344
41.92000 45.527
41.94000 48.498
41.96000 41.126
41.98000 37.299
42.00000 38.387
42.02000 34.106
42.04000 35.324
42.06000 30.531
42.08000 33.865
42.10000 30.576
42.12000 23.797
42.14000 25.306
42.16000 26.463
42.18000 24.819
42.20000 21.139
42.22000 22.679
42.24000 22.600
42.26000 22.559
42.28000 21.599
42.30000 19.044
42.32000 17.429
42.34000 14.235
42.36000 15.934
42.38000 16.133
42.40000 14.986
42.42000 13.567
42.44000 10.272
42.46000 8.105
42.48000 11.577
42.50000 12.136
42.52000 10.570
42.54000 8.523
42.56000 9.021
42.58000 12.381
42.60000 8.715
42.62000 7.070
42.64000 8.910
42.66000 6.266
42.68000 6.192
42.70000 6.665
42.72000 6.803
42.74000 5.776
42.76000 7.457
42.78000 4.857
42.80000 3.269
42.82000 0.094
42.84000 0.830
42.86000 0.424
42.88000 2.971
42.90000 5.531
42.92000 1.137
42.94000 0.361
42.96000 1.991
42.98000 1.896
43.00000 1.183
43.02000 -2.931
43.04000 -1.408
43.06000 2.046
43.08000 5.555
43.10000 3.196
43.12000 1.065
43.14000 2.249
43.16000 -0.714
43.18000 0.322
43.20000 -1.239
43.22000 -1.873
43.24000 -2.880
43.26000 -1.775
43.28000 -3.564
43.30000 -0.532
43.32000 0.250
43.34000 -2.685
43.36000 4.340
43.38000 3.096
43.40000 1.110
43.42000 -0.044
43.44000 -1.056
43.46000 3.361
43.48000 1.424
43.50000 0.080
43.52000 -1.136
43.54000 0.551
43.56000 -1.691
43.58000 -0.815
43.60000 1.352
43.62000 1.180
43.64000 -0.491
43.66000 -2.117
43.68000 -0.719
43.70000 2.167
43.72000 -2.175
43.74000 -3.510
43.76000 -0.154
43.78000 2.075
43.80000 -0.973
43.82000 2.979
43.84000 4.810
43.86000 -2.698
43.88000 -2.498
43.90000 3.921
43.92000 -0.231
43.94000 -3.446
43.96000 1.067
43.98000 4.737
44.00000 1.077
44.02000 -0.637
44.04000 2.009
44.06000 2.161
44.08000 -0.108
44.10000 0.485
44.12000 -1.458
44.14000 3.948
44.16000 5.908
44.18000 -0.042
44.20000 0.597
44.22000 -0.181
44.24000 3.596
44.26000 4.626
44.28000 4.848
44.30000 1.939
44.32000 -0.303
44.34000 2.520
44.36000 3.243
44.38000 1.822
44.40000 2.560
44.42000 2.267
44.44000 5.442
44.46000 4.323
44.48000 -1.971
44.50000 -3.422
44.52000 0.556
44.54000 -0.425
44.56000 -0.444
44.58000 5.354
44.60000 3.836
44.62000 4.370
44.64000 2.097
44.66000 2.517
44.68000 7.233
44.70000 5.103
44.72000 4.775
44.74000 3.376
44.76000 1.209
44.78000 2.856
44.80000 -2.149
44.82000 3.244
44.84000 7.526
44.86000 8.991
44.88000 6.314
44.90000 4.608
44.92000 3.046
44.94000 -3.427
44.96000 -1.312
44.98000 1.553
45.00000 5.159
45.02000 5.128
45.04000 3.640
45.06000 4.126
45.08000 1.421
45.10000 2.168
45.12000 4.160
45.14000 8.491
45.16000 10.929
45.18000 5.492
45.20000 -0.137
45.22000 -0.473
45.24000 4.623
45.26000 2.880
45.28000 5.641
45.30000 6.230
45.32000 4.714
45.34000 4.732
45.36000 4.428
45.38000 5.828
45.40000 4.049
45.42000 4.541
45.44000 4.454
45.46000 4.616
45.48000 3.249
45.50000 2.681
45.52000 8.575
45.54000 4.329
45.56000 5.309
45.58000 10.338
45.60000 8.413
45.62000 8.917
45.64000 13.335
45.66000 11.005
45.68000 8.636
45.70000 6.748
45.72000 6.764
45.74000 12.939
45.76000 8.531
45.78000 11.133
45.80000 14.014
45.82000 14.239
45.84000 16.714
45.86000 16.420
45.88000 8.032
45.90000 7.730
45.92000 12.003
45.94000 17.986
45.96000 22.238
45.98000 23.367
46.00000 19.632
46.02000 16.842
46.04000 15.809
46.06000 19.114
46.08000 19.027
46.10000 16.996
46.12000 16.654
46.14000 21.430
46.16000 23.972
46.18000 25.424
46.20000 26.440
46.22000 26.195
46.24000 22.694
46.26000 25.692
46.28000 21.414
46.30000 30.167
46.32000 33.725
46.34000 31.899
46.36000 24.751
46.38000 20.540
46.40000 22.961
46.42000 30.451
46.44000 34.636
46.46000 35.119
46.48000 37.494
46.50000 36.960
46.52000 43.179
46.54000 45.295
46.56000 46.786
46.58000 42.926
46.60000 44.535
46.62000 46.857
46.64000 46.114
46.66000 46.960
46.68000 44.843
46.70000 41.089
46.72000 51.353
46.74000 53.766
46.76000 54.886
46.78000 57.835
46.80000 56.473
46.82000 55.306
46.84000 55.586
46.86000 53.228
46.88000 56.917
46.90000 54.713
46.92000 59.797
46.94000 57.219
46.96000 51.701
46.98000 57.827
47.00000 58.861
47.02000 60.165
47.04000 61.033
47.06000 65.252
47.08000 75.739
47.10000 66.491
47.12000 68.674
47.14000 70.470
47.16000 67.110
47.18000 65.236
47.20000 67.859
47.22000 64.733
47.24000 61.787
47.26000 62.466
47.28000 61.947
47.30000 60.617
47.32000 60.885
47.34000 63.387
47.36000 74.390
47.38000 70.962
47.40000 68.713
47.42000 70.269
47.44000 63.485
47.46000 60.660
47.48000 58.611
47.50000 62.615
47.52000 59.498
47.54000 64.920
47.56000 59.531
47.58000 59.527
47.60000 51.457
47.62000 51.038
47.64000 45.789
47.66000 52.236
47.68000 50.949
47.70000 49.098
47.72000 50.502
47.74000 51.097
47.76000 46.514
47.78000 45.775
47.80000 44.235
47.82000 43.333
47.84000 40.815
47.86000 42.031
47.88000 38.447
47.90000 38.999
47.92000 41.883
47.94000 39.810
47.96000 36.583
47.98000 37.916
48.00000 40.645
48.02000 29.411
48.04000 27.290
48.06000 26.625
48.08000 21.994
48.10000 31.641
48.12000 34.827
48.14000 28.667
48.16000 27.441
48.18000 22.806
48.20000 26.752
48.22000 25.859
48.24000 24.051
48.26000 25.439
48.28000 20.395
48.30000 19.876
48.32000 17.202
48.34000 14.782
48.36000 16.253
48.38000 18.404
48.40000 18.167
48.42000 18.277
48.44000 15.191
48.46000 17.635
48.48000 13.243
48.50000 12.075
48.52000 15.310
48.54000 14.378
48.56000 13.096
48.58000 9.784
48.60000 7.391
48.62000 8.359
48.64000 9.149
48.66000 5.454
48.68000 0.875
48.70000 4.025
48.72000 5.309
48.74000 9.857
48.76000 5.618
48.78000 2.771
48.80000 7.832
48.82000 8.454
48.84000 5.250
48.86000 8.275
48.88000 8.339
48.90000 2.887
48.92000 3.180
48.94000 5.550
48.96000 4.705
48.98000 2.702
49.00000 6.137
49.02000 10.700
49.04000 9.874
49.06000 1.822
49.08000 2.822
49.10000 3.425
49.12000 -3.128
49.14000 -0.362
49.16000 1.394
49.18000 2.513
49.20000 1.085
49.22000 2.695
49.24000 1.141
49.26000 1.529
49.28000 0.279
49.30000 4.156
49.32000 3.703
49.34000 5.697
49.36000 7.916
49.38000 2.557
49.40000 3.410
49.42000 -1.886
49.44000 -2.410
49.46000 1.889
49.48000 0.379
49.50000 -0.728
49.52000 -1.304
49.54000 -0.547
49.56000 3.884
49.58000 5.603
49.60000 9.367
49.62000 8.342
49.64000 3.701
49.66000 5.563
49.68000 2.027
49.70000 -0.065
49.72000 5.872
49.74000 6.966
49.76000 8.778
49.78000 9.299
49.80000 4.248
49.82000 3.754
49.84000 7.635
49.86000 7.324
49.88000 3.984
49.90000 5.871
49.92000 5.356
49.94000 2.216
49.96000 2.584
49.98000 0.685
50.00000 -0.948
50.02000 3.659
50.04000 8.777
50.06000 5.543
50.08000 8.849
50.10000 11.096
50.12000 11.796
50.14000 8.818
50.16000 9.030
50.18000 4.008
50.20000 3.069
50.22000 -2.915
50.24000 0.033
50.26000 2.122
50.28000 6.579
50.30000 4.561
50.32000 7.610
50.34000 14.000
50.36000 11.232
50.38000 9.454
50.40000 9.321
50.42000 9.888
50.44000 10.841
50.46000 3.532
50.48000 3.822
50.50000 6.103
50.52000 7.990
50.54000 8.510
50.56000 9.364
50.58000 10.431
50.60000 6.133
50.62000 6.962
50.64000 7.237
50.66000 1.229
50.68000 2.926
50.70000 6.973
50.72000 8.616
50.74000 5.845
50.76000 5.502
50.78000 3.893
50.80000 6.977
50.82000 8.560
50.84000 4.643
50.86000 2.280
50.88000 2.711
50.90000 3.460
50.92000 9.073
50.94000 3.389
50.96000 3.234
50.98000 4.164
51.00000 -2.885
51.02000 -0.248
51.04000 4.854
51.06000 1.530
51.08000 2.827
51.10000 10.272
51.12000 10.650
51.14000 11.542
51.16000 7.149
51.18000 6.828
51.20000 6.462
51.22000 5.207
51.24000 3.277
51.26000 1.605
51.28000 6.315
51.30000 7.090
51.32000 10.719
51.34000 6.516
51.36000 0.170
51.38000 2.368
51.40000 5.030
51.42000 5.205
51.44000 8.136
51.46000 4.402
51.48000 4.588
51.50000 5.102
51.52000 7.777
51.54000 11.597
51.56000 7.588
51.58000 3.978
51.60000 5.504
51.62000 3.165
51.64000 5.510
51.66000 5.052
51.68000 3.053
51.70000 1.315
51.72000 2.688
51.74000 2.435
51.76000 5.149
51.78000 6.142
51.80000 5.997
51.82000 1.978
51.84000 6.786
51.86000 7.417
51.88000 8.965
51.90000 10.818
51.92000 11.983
51.94000 7.323
51.96000 6.546
51.98000 5.528
52.00000 6.685
52.02000 7.140
52.04000 6.922
52.06000 4.713
52.08000 3.669
52.10000 4.834
52.12000 10.557
52.14000 10.949
52.16000 7.521
52.18000 5.065
52.20000 8.902
52.22000 10.896
52.24000 7.498
52.26000 8.157
52.28000 1.229
52.30000 2.535
52.32000 -2.791
52.34000 2.792
52.36000 10.509
52.38000 5.335
52.40000 6.099
52.42000 7.038
52.44000 14.324
52.46000 13.396
52.48000 6.744
52.50000 -0.108
52.52000 4.427
52.54000 11.516
52.56000 2.810
52.58000 0.678
52.60000 8.298
52.62000 3.260
52.64000 6.325
52.66000 4.347
52.68000 5.519
52.70000 8.575
52.72000 7.608
52.74000 2.189
52.76000 3.306
52.78000 5.615
52.80000 1.964
52.82000 5.765
52.84000 11.802
52.86000 7.919
52.88000 3.193
52.90000 3.014
52.92000 4.653
52.94000 3.109
52.96000 0.298
52.98000 0.766
53.00000 3.058
53.02000 7.682
53.04000 7.826
53.06000 8.959
53.08000 4.150
53.10000 3.683
53.12000 4.160
53.14000 3.679
53.16000 1.457
53.18000 1.443
53.20000 2.573
53.22000 1.901
53.24000 -0.604
53.26000 2.908
53.28000 5.910
53.30000 5.479
53.32000 8.159
53.34000 4.939
53.36000 2.335
53.38000 2.908
53.40000 2.842
53.42000 6.707
53.44000 6.331
53.46000 6.853
53.48000 4.555
53.50000 0.008
53.52000 -1.894
53.54000 3.370
53.56000 3.944
53.58000 2.393
53.60000 4.858
53.62000 3.759
53.64000 3.462
53.66000 4.459
53.68000 4.567
53.70000 3.664
53.72000 2.953
53.74000 2.922
53.76000 4.121
53.78000 4.587
53.80000 7.381
53.82000 5.071
53.84000 2.058
53.86000 1.460
53.88000 4.051
53.90000 9.987
53.92000 7.004
53.94000 11.894
53.96000 6.598
53.98000 4.014
54.00000 1.972
54.02000 3.059
54.04000 3.682
54.06000 1.405
54.08000 0.929
54.10000 1.404
54.12000 1.603
54.14000 2.630
54.16000 4.813
54.18000 7.820
54.20000 4.739
54.22000 4.791
54.24000 2.205
54.26000 5.292
54.28000 6.185
54.30000 -0.167
54.32000 0.014
54.34000 5.962
54.36000 4.550
54.38000 1.072
54.40000 3.465
54.42000 2.224
54.44000 2.423
54.46000 5.926
54.48000 0.804
54.50000 2.712
54.52000 5.079
54.54000 3.341
54.56000 4.848
54.58000 5.117
54.60000 1.825
54.62000 -0.081
54.64000 7.761
54.66000 4.876
54.68000 3.592
54.70000 -0.095
54.72000 -2.798
54.74000 2.234
54.76000 3.134
54.78000 1.920
54.80000 -0.152
54.82000 5.228
54.84000 7.264
54.86000 1.654
54.88000 -0.021
54.90000 3.450
54.92000 6.673
54.94000 5.900
54.96000 3.358
54.98000 0.130
55.00000 -0.256
55.02000 2.854
55.04000 0.801
55.06000 4.864
55.08000 6.500
55.10000 2.709
55.12000 1.440
55.14000 5.579
55.16000 3.842
55.18000 1.256
55.20000 2.405
55.22000 4.050
55.24000 6.164
55.26000 3.556
55.28000 1.053
55.30000 3.443
55.32000 4.695
55.34000 3.687
55.36000 4.716
55.38000 6.186
55.40000 5.461
55.42000 1.595
55.44000 3.406
55.46000 2.806
55.48000 -2.361
55.50000 -1.321
55.52000 -2.781
55.54000 -1.794
55.56000 3.312
55.58000 2.267
55.60000 2.959
55.62000 0.989
55.64000 0.248
55.66000 1.171
55.68000 3.847
55.70000 5.143
55.72000 -0.528
55.74000 0.072
55.76000 7.768
55.78000 10.731
55.80000 6.133
55.82000 -0.200
55.84000 1.819
55.86000 2.169
55.88000 3.137
55.90000 3.651
55.92000 4.696
55.94000 6.492
55.96000 4.924
55.98000 4.113
56.00000 3.182
56.02000 4.519
56.04000 7.872
56.06000 7.201
56.08000 4.686
56.10000 10.824
56.12000 9.520
56.14000 6.769
56.16000 5.097
56.18000 4.931
56.20000 2.239
56.22000 5.066
56.24000 4.676
56.26000 4.027
56.28000 1.016
56.30000 2.470
56.32000 0.617
56.34000 2.332
56.36000 5.881
56.38000 3.016
56.40000 2.165
56.42000 1.935
56.44000 0.006
56.46000 5.837
56.48000 9.790
56.50000 6.541
56.52000 8.616
56.54000 4.381
56.56000 -2.712
56.58000 -1.079
56.60000 2.473
56.62000 6.112
56.64000 9.627
56.66000 7.083
56.68000 5.110
56.70000 5.658
56.72000 6.921
56.74000 7.923
56.76000 7.711
56.78000 6.153
56.80000 6.197
56.82000 10.037
56.84000 7.709
56.86000 6.615
56.88000 0.552
56.90000 3.884
56.92000 5.755
56.94000 6.036
56.96000 3.604
56.98000 2.118
57.00000 3.079
57.02000 4.754
57.04000 2.712
57.06000 -2.048
57.08000 2.628
57.10000 6.868
57.12000 8.356
57.14000 7.756
57.16000 5.585
57.18000 6.643
57.20000 9.369
57.22000 10.820
57.24000 2.932
57.26000 4.567
57.28000 3.163
57.30000 4.660
57.32000 5.217
57.34000 2.568
57.36000 0.243
57.38000 2.583
57.40000 7.731
57.42000 6.491
57.44000 5.318
57.46000 0.715
57.48000 -0.763
57.50000 0.394
57.52000 4.205
57.54000 3.441
57.56000 3.249
57.58000 4.287
57.60000 7.796
57.62000 3.212
57.64000 4.618
57.66000 5.049
57.68000 6.842
57.70000 4.495
57.72000 3.946
57.74000 5.207
57.76000 7.599
57.78000 4.846
57.80000 6.209
57.82000 5.037
57.84000 2.034
57.86000 3.281
57.88000 2.289
57.90000 5.049
57.92000 4.248
57.94000 3.519
57.96000 4.617
57.98000 -1.727
58.00000 9.116
58.02000 8.372
58.04000 9.316
58.06000 10.058
58.08000 5.359
58.10000 8.146
58.12000 5.838
58.14000 2.796
58.16000 4.629
58.18000 4.179
58.20000 1.868
58.22000 -0.447
58.24000 -2.641
58.26000 -2.665
58.28000 2.826
58.30000 4.942
58.32000 8.812
58.34000 8.430
58.36000 9.458
58.38000 7.657
58.40000 4.514
58.42000 0.823
58.44000 1.937
58.46000 3.281
58.48000 9.134
58.50000 4.308
58.52000 -1.393
58.54000 -2.320
58.56000 0.182
58.58000 4.551
58.60000 4.103
58.62000 2.224
58.64000 2.731
58.66000 6.356
58.68000 6.931
58.70000 1.272
58.72000 -1.448
58.74000 -0.217
58.76000 0.918
58.78000 6.320
58.80000 5.958
58.82000 -1.860
58.84000 0.808
58.86000 -0.215
58.88000 1.710
58.90000 2.792
58.92000 -1.109
58.94000 -0.671
58.96000 -0.647
58.98000 -1.970
59.00000 -0.654
59.02000 8.446
59.04000 3.617
59.06000 1.456
59.08000 0.686
59.10000 0.641
59.12000 -2.234
59.14000 1.879
59.16000 4.696
59.18000 2.701
59.20000 -2.688
59.22000 -0.919
59.24000 1.499
59.26000 2.692
59.28000 2.098
59.30000 3.558
59.32000 -2.476
59.34000 -1.017
59.36000 1.287
59.38000 3.814
59.40000 5.826
59.42000 1.325
59.44000 0.736
59.46000 1.788
59.48000 1.623
59.50000 0.250
59.52000 1.015
59.54000 4.011
59.56000 -0.823
59.58000 0.786
59.60000 2.124
59.62000 2.271
59.64000 4.896
59.66000 2.139
59.68000 1.640
59.70000 1.952
59.72000 2.210
59.74000 0.385
59.76000 4.617
59.78000 4.207
59.80000 3.006
59.82000 0.297
59.84000 -0.656
59.86000 -2.455
59.88000 -1.261
59.90000 2.763
59.92000 -1.298
59.94000 4.293
59.96000 0.497
59.98000 2.832
60.00000 2.583
60.02000 3.333
60.04000 2.406
60.06000 0.845
60.08000 -1.069
60.10000 0.051
60.12000 4.512
60.14000 0.414
60.16000 0.164
60.18000 4.313
60.20000 0.370
60.22000 -1.313
60.24000 2.730
60.26000 2.758
60.28000 2.367
60.30000 4.793
60.32000 0.772
60.34000 -1.324
60.36000 -2.472
60.38000 -0.611
60.40000 0.668
60.42000 2.265
60.44000 3.963
60.46000 2.325
60.48000 -1.771
60.50000 1.132
60.52000 4.484
60.54000 0.464
60.56000 -2.629
60.58000 -1.057
60.60000 -0.129
60.62000 3.135
60.64000 6.392
60.66000 4.437
60.68000 6.357
60.70000 3.471
60.72000 -1.770
60.74000 -1.305
60.76000 4.446
60.78000 4.953
60.80000 0.524
60.82000 -0.095
60.84000 0.712
60.86000 0.755
60.88000 4.042
60.90000 4.634
60.92000 1.653
60.94000 4.040
60.96000 4.331
60.98000 0.901
61.00000 -2.596
61.02000 -2.595
61.04000 2.931
61.06000 2.940
61.08000 -2.247
61.10000 1.420
61.12000 1.468
61.14000 1.074
61.16000 0.042
61.18000 1.151
61.20000 2.313
61.22000 3.034
61.24000 3.496
61.26000 1.993
61.28000 4.105
61.30000 7.163
61.32000 3.583
61.34000 -0.807
61.36000 -1.965
61.38000 -2.320
61.40000 -0.789
61.42000 2.400
61.44000 3.564
61.46000 3.844
61.48000 -2.590
61.50000 2.773
61.52000 2.959
61.54000 5.067
61.56000 2.323
61.58000 2.386
61.60000 6.148
61.62000 2.386
61.64000 4.824
61.66000 3.753
61.68000 -2.590
61.70000 -1.865
61.72000 1.685
61.74000 0.443
61.76000 -1.328
61.78000 0.205
61.80000 -0.270
61.82000 1.923
61.84000 -0.755
61.86000 -0.373
61.88000 0.307
61.90000 1.395
61.92000 1.175
61.94000 0.320
61.96000 -1.090
61.98000 0.626
62.00000 0.903
62.02000 2.491
62.04000 1.232
62.06000 4.663
62.08000 5.987
62.10000 3.809
62.12000 2.388
62.14000 4.132
62.16000 3.116
62.18000 4.602
62.20000 3.388
62.22000 3.873
62.24000 4.035
62.26000 3.585
62.28000 6.346
62.30000 3.044
62.32000 0.192
62.34000 -1.336
62.36000 -0.105
62.38000 1.452
62.40000 2.941
62.42000 2.209
62.44000 0.771
62.46000 2.197
62.48000 3.608
62.50000 3.243
62.52000 5.103
62.54000 4.670
62.56000 0.410
62.58000 1.180
62.60000 5.610
62.62000 7.876
62.64000 3.344
62.66000 2.613
62.68000 4.568
62.70000 6.578
62.72000 5.808
62.74000 2.729
62.76000 4.953
62.78000 2.835
62.80000 0.655
62.82000 -2.549
62.84000 0.741
62.86000 1.573
62.88000 4.546
62.90000 5.900
62.92000 1.529
62.94000 1.631
62.96000 4.524
62.98000 6.684
63.00000 5.522
63.02000 6.405
63.04000 4.453
63.06000 1.399
63.08000 0.981
63.10000 0.826
63.12000 4.699
63.14000 4.266
63.16000 0.332
63.18000 2.335
63.20000 3.283
63.22000 2.827
63.24000 -0.088
63.26000 -2.559
63.28000 0.387
63.30000 1.935
63.32000 3.349
63.34000 7.169
63.36000 5.405
63.38000 1.951
63.40000 1.327
63.42000 0.830
63.44000 0.038
63.46000 0.223
63.48000 1.442
63.50000 -0.785
63.52000 4.133
63.54000 3.088
63.56000 0.695
63.58000 3.143
63.60000 5.252
63.62000 4.688
63.64000 1.724
63.66000 3.358
63.68000 6.446
63.70000 2.455
63.72000 3.537
63.74000 4.684
63.76000 1.295
63.78000 1.774
63.80000 0.087
63.82000 -1.239
63.84000 -1.633
63.86000 0.900
63.88000 3.623
63.90000 2.380
63.92000 -0.707
63.94000 0.957
63.96000 0.910
63.98000 0.963
64.00000 1.131
64.02000 3.365
64.04000 4.742
64.06000 0.504
64.08000 1.687
64.10000 -0.055
64.12000 0.774
64.14000 2.703
64.16000 3.625
64.18000 7.705
64.20000 6.707
64.22000 1.297
64.24000 0.893
64.26000 -0.742
64.28000 2.518
64.30000 5.022
64.32000 5.541
64.34000 3.168
64.36000 4.006
64.38000 2.901
64.40000 8.695
64.42000 2.077
64.44000 -0.983
64.46000 1.949
64.48000 4.201
64.50000 6.555
64.52000 6.334
64.54000 6.715
64.56000 4.152
64.58000 3.088
64.60000 1.194
64.62000 2.614
64.64000 3.038
64.66000 -0.557
64.68000 0.038
64.70000 3.912
64.72000 3.545
64.74000 4.090
64.76000 5.801
64.78000 8.213
64.80000 7.412
64.82000 4.408
64.84000 1.168
64.86000 1.487
64.88000 7.603
64.90000 5.308
64.92000 1.036
64.94000 1.694
64.96000 6.007
64.98000 3.080
65.00000 -2.523
65.02000 1.976
65.04000 8.127
65.06000 8.174
65.08000 4.177
65.10000 2.549
65.12000 1.567
65.14000 6.201
65.16000 7.251
65.18000 5.287
65.20000 2.370
65.22000 1.632
65.24000 0.703
65.26000 1.709
65.28000 4.563
65.30000 3.535
65.32000 0.686
65.34000 2.238
65.36000 1.178
65.38000 3.019
65.40000 3.359
65.42000 2.303
65.44000 2.950
65.46000 0.809
65.48000 -0.615
65.50000 -0.543
65.52000 0.987
65.54000 2.600
65.56000 4.554
65.58000 4.454
65.60000 2.228
65.62000 2.293
65.64000 2.607
65.66000 4.587
65.68000 5.601
65.70000 6.980
65.72000 1.544
65.74000 1.277
65.76000 0.932
65.78000 5.106
65.80000 6.563
65.82000 5.754
65.84000 4.268
65.86000 1.988
65.88000 0.567
65.90000 2.794
65.92000 1.660
65.94000 0.596
65.96000 6.226
65.98000 3.954
66.00000 5.183
66.02000 7.273
66.04000 3.887
66.06000 1.014
66.08000 1.241
66.10000 1.994
66.12000 1.825
66.14000 1.247
66.16000 0.820
66.18000 2.279
66.20000 2.421
66.22000 4.604
66.24000 2.368
66.26000 3.866
66.28000 -1.546
66.30000 -2.573
66.32000 1.802
66.34000 3.327
66.36000 3.782
66.38000 2.854
66.40000 -0.164
66.42000 2.682
66.44000 2.116
66.46000 0.223
66.48000 3.341
66.50000 -0.066
66.52000 -2.213
66.54000 -1.965
66.56000 -0.436
66.58000 1.118
66.60000 5.943
66.62000 7.707
66.64000 2.575
66.66000 0.702
66.68000 -1.198
66.70000 -1.960
66.72000 2.587
66.74000 4.556
66.76000 3.542
66.78000 -0.189
66.80000 1.676
66.82000 3.276
66.84000 3.686
66.86000 1.438
66.88000 1.766
66.90000 0.973
66.92000 5.690
66.94000 0.252
66.96000 -0.969
66.98000 0.342
67.00000 2.093
67.02000 2.622
67.04000 0.016
67.06000 -2.579
67.08000 -2.414
67.10000 -0.580
67.12000 -0.171
67.14000 0.860
67.16000 1.966
67.18000 4.573
67.20000 3.683
67.22000 5.604
67.24000 4.940
67.26000 4.908
67.28000 4.965
67.30000 3.757
67.32000 1.171
67.34000 7.214
67.36000 5.129
67.38000 7.814
67.40000 8.288
67.42000 4.325
67.44000 1.025
67.46000 0.676
67.48000 3.172
67.50000 7.933
67.52000 4.390
67.54000 0.245
67.56000 4.785
67.58000 7.058
67.60000 5.457
67.62000 3.504
67.64000 3.993
67.66000 3.569
67.68000 -0.822
67.70000 3.675
67.72000 1.740
67.74000 4.374
67.76000 5.455
67.78000 2.903
67.80000 3.121
67.82000 4.497
67.84000 5.391
67.86000 5.904
67.88000 1.930
67.90000 6.526
67.92000 9.035
67.94000 7.003
67.96000 7.188
67.98000 7.466
68.00000 7.759
68.02000 5.994
68.04000 8.777
68.06000 7.550
68.08000 5.831
68.10000 3.630
68.12000 3.666
68.14000 2.586
68.16000 6.171
68.18000 6.492
68.20000 6.509
68.22000 8.452
68.24000 10.896
68.26000 12.080
68.28000 12.167
68.30000 11.279
68.32000 13.445
68.34000 13.230
68.36000 11.813
68.38000 12.281
68.40000 9.346
68.42000 10.920
68.44000 13.679
68.46000 14.748
68.48000 12.170
68.50000 15.073
68.52000 15.181
68.54000 14.741
68.56000 13.740
68.58000 15.095
68.60000 14.723
68.62000 14.540
68.64000 14.963
68.66000 18.642
68.68000 16.879
68.70000 12.610
68.72000 11.173
68.74000 18.224
68.76000 21.905
68.78000 21.618
68.80000 23.064
68.82000 19.453
68.84000 25.643
68.86000 24.996
68.88000 23.336
68.90000 22.361
68.92000 23.306
68.94000 21.669
68.96000 24.764
68.98000 22.038
69.00000 22.171
69.02000 24.538
69.04000 27.729
69.06000 27.898
69.08000 24.659
69.10000 26.179
69.12000 22.636
69.14000 27.606
69.16000 24.004
69.18000 26.148
69.20000 25.900
69.22000 22.973
69.24000 20.028
69.26000 22.015
69.28000 20.272
69.30000 22.232
69.32000 22.788
69.34000 19.100
69.36000 16.682
69.38000 18.033
69.40000 17.329
69.42000 20.489
69.44000 22.265
69.46000 18.461
69.48000 20.525
69.50000 23.982
69.52000 23.343
69.54000 20.695
69.56000 15.232
69.58000 18.533
69.60000 20.295
69.62000 17.789
69.64000 20.708
69.66000 17.353
69.68000 16.802
69.70000 16.354
69.72000 12.494
69.74000 11.945
69.76000 12.799
69.78000 8.994
69.80000 14.368
69.82000 15.611
69.84000 11.841
69.86000 8.973
69.88000 13.060
69.90000 12.508
69.92000 13.429
69.94000 8.693
69.96000 7.685
69.98000 7.496
70.00000 7.206
70.02000 6.373
70.04000 6.551
70.06000 7.741
70.08000 6.346
70.10000 5.366
70.12000 11.648
70.14000 9.837
70.16000 8.310
70.18000 6.513
70.20000 7.799
70.22000 8.606
70.24000 5.545
70.26000 6.023
70.28000 1.994
70.30000 3.479
70.32000 5.233
70.34000 8.931
70.36000 7.642
70.38000 4.412
70.40000 4.364
70.42000 3.584
70.44000 4.423
70.46000 3.602
70.48000 5.681
70.50000 7.631
70.52000 6.172
70.54000 4.610
70.56000 6.928
70.58000 1.691
70.60000 4.725
70.62000 7.366
70.64000 5.078
70.66000 5.678
70.68000 1.709
70.70000 -1.587
70.72000 2.351
70.74000 0.445
70.76000 4.634
70.78000 2.037
70.80000 -2.320
70.82000 1.333
70.84000 5.423
70.86000 7.412
70.88000 5.156
70.90000 2.547
70.92000 2.084
70.94000 0.295
70.96000 1.438
70.98000 3.639
71.00000 7.860
71.02000 4.716
71.04000 -0.641
71.06000 -2.475
71.08000 4.585
71.10000 7.539
71.12000 7.237
71.14000 7.706
71.16000 6.533
71.18000 3.661
71.20000 3.104
71.22000 1.636
71.24000 3.787
71.26000 0.407
71.28000 3.526
71.30000 1.675
71.32000 6.105
71.34000 7.495
71.36000 6.172
71.38000 0.921
71.40000 0.753
71.42000 -2.461
71.44000 -0.325
71.46000 5.462
71.48000 -0.696
71.50000 1.127
71.52000 0.563
71.54000 -0.126
71.56000 -0.788
71.58000 -1.579
71.60000 -0.226
71.62000 4.937
71.64000 4.733
71.66000 2.637
71.68000 4.388
71.70000 4.578
71.72000 5.899
71.74000 6.491
71.76000 7.796
71.78000 3.942
71.80000 0.213
71.82000 0.572
71.84000 1.951
71.86000 1.882
71.88000 1.394
71.90000 -2.447
71.92000 -1.059
71.94000 1.790
71.96000 -1.079
71.98000 1.242
72.00000 -0.963
72.02000 -2.444
72.04000 1.518
72.06000 0.602
72.08000 1.056
72.10000 -0.957
72.12000 4.155
72.14000 3.291
72.16000 2.786
72.18000 2.332
72.20000 -0.995
72.22000 0.703
72.24000 4.395
72.26000 -1.714
72.28000 -1.952
72.30000 0.559
72.32000 1.746
72.34000 0.533
72.36000 -1.635
72.38000 -0.471
72.40000 5.870
72.42000 4.348
72.44000 3.006
72.46000 1.951
72.48000 5.166
72.50000 5.178
72.52000 4.187
72.54000 4.689
72.56000 2.008
72.58000 -0.135
72.60000 1.910
72.62000 2.177
72.64000 0.455
72.66000 1.807
72.68000 4.475
72.70000 2.297
72.72000 5.373
72.74000 -0.093
72.76000 2.206
72.78000 4.248
72.80000 0.293
72.82000 -0.029
72.84000 -0.355
72.86000 -0.979
72.88000 1.510
72.90000 3.385
72.92000 2.537
72.94000 1.894
72.96000 0.446
72.98000 -1.720
73.00000 -0.057
73.02000 -1.203
73.04000 -1.160
73.06000 -2.409
73.08000 -0.815
73.10000 2.872
73.12000 1.870
73.14000 1.593
73.16000 0.429
73.18000 -0.017
73.20000 1.511
73.22000 4.070
73.24000 3.062
73.26000 7.041
73.28000 2.980
73.30000 6.874
73.32000 2.198
73.34000 -1.437
73.36000 -2.394
73.38000 2.983
73.40000 4.613
73.42000 3.403
73.44000 4.531
73.46000 1.863
73.48000 1.576
73.50000 0.248
73.52000 1.629
73.54000 0.404
73.56000 -1.304
73.58000 -0.673
73.60000 -0.005
73.62000 4.577
73.64000 -2.393
73.66000 -1.317
73.68000 0.175
73.70000 1.544
73.72000 3.302
73.74000 1.428
73.76000 1.053
73.78000 1.371
73.80000 0.363
73.82000 1.438
73.84000 -0.317
73.86000 -0.177
73.88000 -2.210
73.90000 -1.624
73.92000 3.620
73.94000 -1.117
73.96000 -1.297
73.98000 1.579
74.00000 -0.218
74.02000 2.602
74.04000 -1.068
74.06000 -0.175
74.08000 -2.391
74.10000 -0.006
74.12000 3.358
74.14000 1.799
74.16000 -0.672
74.18000 0.478
74.20000 0.828
74.22000 3.506
74.24000 3.958
74.26000 1.179
74.28000 3.094
74.30000 1.250
74.32000 -1.996
74.34000 -0.194
74.36000 2.955
74.38000 4.634
74.40000 1.617
74.42000 1.679
74.44000 3.809
74.46000 7.235
74.48000 4.635
74.50000 4.653
74.52000 5.453
74.54000 2.822
74.56000 3.767
74.58000 1.408
74.60000 -1.344
74.62000 -0.427
74.64000 -1.724
74.66000 1.776
74.68000 1.556
74.70000 0.313
74.72000 1.423
74.74000 1.302
74.76000 -0.688
74.78000 -0.915
74.80000 2.289
74.82000 1.300
74.84000 -2.025
74.86000 -0.190
74.88000 -2.378
74.90000 0.719
74.92000 -0.822
74.94000 -1.282
74.96000 1.553
74.98000 5.056
75.00000 1.184
75.02000 2.933
75.04000 1.556
75.06000 3.269
75.08000 0.331
75.10000 1.412
75.12000 2.498
75.14000 2.167
75.16000 -1.243
75.18000 1.163
75.20000 1.904
75.22000 -1.247
75.24000 1.017
75.26000 0.355
75.28000 0.286
75.30000 0.167
75.32000 -0.599
75.34000 0.248
75.36000 -0.463
75.38000 -1.212
75.40000 2.508
75.42000 4.772
75.44000 4.762
75.46000 4.476
75.48000 -1.565
75.50000 -0.117
75.52000 0.815
75.54000 2.423
75.56000 3.944
75.58000 3.726
75.60000 6.283
75.62000 4.377
75.64000 -1.091
75.66000 0.924
75.68000 1.258
75.70000 1.266
75.72000 -0.529
75.74000 2.532
75.76000 2.084
75.78000 7.231
75.80000 2.331
75.82000 -2.384
75.84000 -1.872
75.86000 1.702
75.88000 3.647
75.90000 5.720
75.92000 3.504
75.94000 5.400
75.96000 5.895
75.98000 2.014
76.00000 4.393
76.02000 0.453
76.04000 -0.577
76.06000 -0.618
76.08000 1.982
76.10000 3.258
76.12000 3.731
76.14000 5.628
76.16000 7.055
76.18000 6.124
76.20000 3.824
76.22000 6.655
76.24000 7.215
76.26000 5.324
76.28000 5.286
76.30000 2.475
76.32000 3.931
76.34000 -1.871
76.36000 1.785
76.38000 3.067
76.40000 0.695
76.42000 0.792
76.44000 3.364
76.46000 0.620
76.48000 2.952
76.50000 1.496
76.52000 -0.515
76.54000 0.331
76.56000 0.932
76.58000 0.601
76.60000 -0.189
76.62000 2.728
76.64000 2.120
76.66000 1.691
76.68000 -2.371
76.70000 -0.725
76.72000 2.074
76.74000 -1.687
76.76000 2.557
76.78000 3.318
76.80000 8.079
76.82000 8.339
76.84000 5.331
76.86000 4.062
76.88000 4.834
76.90000 2.174
76.92000 5.903
76.94000 2.348
76.96000 1.986
76.98000 2.861
77.00000 1.947
77.02000 3.908
77.04000 3.288
77.06000 3.015
77.08000 2.276
77.10000 5.072
77.12000 1.611
77.14000 1.748
77.16000 4.901
77.18000 1.694
77.20000 4.354
77.22000 2.825
77.24000 -2.365
77.26000 4.663
77.28000 3.975
77.30000 4.647
77.32000 4.821
77.34000 7.409
77.36000 4.660
77.38000 3.354
77.40000 1.004
77.42000 4.988
77.44000 0.721
77.46000 0.000
77.48000 1.835
77.50000 2.635
77.52000 1.140
77.54000 -1.465
77.56000 0.710
77.58000 3.925
77.60000 5.022
77.62000 -0.814
77.64000 1.909
77.66000 4.741
77.68000 4.194
77.70000 4.750
77.72000 7.537
77.74000 4.203
77.76000 2.331
77.78000 -1.325
77.80000 -1.604
77.82000 -1.170
77.84000 1.206
77.86000 2.084
77.88000 1.489
77.90000 0.485
77.92000 0.210
77.94000 -1.431
77.96000 2.237
77.98000 2.190
78.00000 2.412
78.02000 2.150
78.04000 -1.232
78.06000 0.978
78.08000 -2.296
78.10000 -0.593
78.12000 -1.397
78.14000 2.754
78.16000 4.340
78.18000 4.743
78.20000 3.681
78.22000 7.654
78.24000 8.060
78.26000 1.677
78.28000 2.457
78.30000 3.475
78.32000 1.971
78.34000 2.712
78.36000 1.500
78.38000 3.605
78.40000 5.862
78.42000 5.346
78.44000 5.179
78.46000 -0.010
78.48000 -0.945
78.50000 2.576
78.52000 3.486
78.54000 2.143
78.56000 -0.239
78.58000 0.640
78.60000 1.005
78.62000 0.103
78.64000 5.919
78.66000 2.041
78.68000 1.161
78.70000 7.025
78.72000 6.535
78.74000 10.320
78.76000 4.436
78.78000 4.581
78.80000 1.739
78.82000 1.019
78.84000 4.999
78.86000 2.365
78.88000 6.422
78.90000 5.818
78.92000 0.953
78.94000 -0.992
78.96000 -0.019
78.98000 2.579
79.00000 0.275
79.02000 -2.414
79.04000 -1.208
79.06000 0.618
79.08000 4.221
79.10000 6.076
79.12000 8.111
79.14000 6.102
79.16000 0.480
79.18000 2.912
79.20000 2.353
79.22000 1.457
79.24000 4.056
79.26000 -0.395
79.28000 -2.421
79.30000 4.739
79.32000 5.849
79.34000 0.079
79.36000 4.218
79.38000 2.547
79.40000 -1.908
79.42000 -1.660
79.44000 1.859
79.46000 0.467
79.48000 0.682
79.50000 -1.143
79.52000 0.071
79.54000 0.397
79.56000 2.921
79.58000 1.708
79.60000 0.149
79.62000 8.649
79.64000 7.445
79.66000 0.247
79.68000 2.103
79.70000 2.016
79.72000 2.141
79.74000 5.820
79.76000 5.977
79.78000 2.890
79.80000 3.678
79.82000 3.950
79.84000 4.645
79.86000 1.756
79.88000 1.554
79.90000 3.103
79.92000 3.899
79.94000 -0.073
79.96000 1.760
79.98000 2.959
80.00000 5.935
80.02000 3.639
80.04000 4.827
80.06000 1.070
80.08000 4.233
80.10000 4.139
80.12000 4.032
80.14000 5.420
80.16000 -1.256
80.18000 3.076
80.20000 3.773
80.22000 0.566
80.24000 -2.428
80.26000 -2.423
80.28000 -1.845
80.30000 -0.951
80.32000 -0.413
80.34000 2.690
80.36000 3.761
80.38000 4.045
80.40000 0.765
80.42000 -0.476
80.44000 -2.441
80.46000 -0.338
80.48000 -0.772
80.50000 0.386
80.52000 1.028
80.54000 3.554
80.56000 5.713
80.58000 13.969
80.60000 13.003
80.62000 9.014
80.64000 6.754
80.66000 2.091
80.68000 1.985
80.70000 1.964
80.72000 4.336
80.74000 4.349
80.76000 7.696
80.78000 1.734
80.80000 -1.725
80.82000 -0.294
80.84000 1.012
80.86000 2.152
80.88000 4.409
80.90000 1.559
80.92000 2.182
80.94000 2.395
80.96000 -2.460
80.98000 -1.948
81.00000 -0.788
81.02000 1.144
81.04000 7.204
81.06000 5.681
81.08000 3.835
81.10000 3.681
81.12000 4.893
81.14000 3.588
81.16000 4.529
81.18000 6.609
81.20000 8.472
81.22000 6.435
81.24000 6.136
81.26000 2.257
81.28000 2.939
81.30000 6.752
81.32000 6.736
81.34000 8.697
81.36000 5.962
81.38000 2.696
81.40000 1.098
81.42000 1.484
81.44000 2.862
81.46000 2.245
81.48000 6.757
81.50000 4.271
81.52000 6.166
81.54000 3.872
81.56000 3.189
81.58000 -0.250
81.60000 3.130
81.62000 -0.035
81.64000 -0.753
81.66000 2.352
81.68000 4.077
81.70000 -1.142
81.72000 -0.438
81.74000 -0.123
81.76000 4.969
81.78000 1.672
81.80000 4.176
81.82000 3.741
81.84000 6.321
81.86000 2.064
81.88000 -2.175
81.90000 1.765
81.92000 3.509
81.94000 1.223
81.96000 2.084
81.98000 7.633
82.00000 6.918
82.02000 4.953
82.04000 7.671
82.06000 2.618
82.08000 3.704
82.10000 4.836
82.12000 5.189
82.14000 5.547
82.16000 5.998
82.18000 3.566
82.20000 1.344
82.22000 6.002
82.24000 8.014
82.26000 4.666
82.28000 6.280
82.30000 4.157
82.32000 8.937
82.34000 7.333
82.36000 8.721
82.38000 8.247
82.40000 11.016
82.42000 4.362
82.44000 13.309
82.46000 11.547
82.48000 8.018
82.50000 7.365
82.52000 7.103
82.54000 3.808
82.56000 7.216
82.58000 10.342
82.60000 12.315
82.62000 10.124
82.64000 10.976
82.66000 10.626
82.68000 12.516
82.70000 14.037
82.72000 19.873
82.74000 17.902
82.76000 12.439
82.78000 16.427
82.80000 20.807
82.82000 19.320
82.84000 15.375
82.86000 18.725
82.88000 22.668
82.90000 16.439
82.92000 15.428
82.94000 16.826
82.96000 20.818
82.98000 21.787
83.00000 19.052
83.02000 14.965
83.04000 20.003
83.06000 16.449
83.08000 15.010
83.10000 17.241
83.12000 17.060
83.14000 15.897
83.16000 14.557
83.18000 18.663
83.20000 25.265
83.22000 23.526
83.24000 16.677
83.26000 18.634
83.28000 28.096
83.30000 28.989
83.32000 21.268
83.34000 22.329
83.36000 21.870
83.38000 19.475
83.40000 21.293
83.42000 25.428
83.44000 26.672
83.46000 28.736
83.48000 26.095
83.50000 20.879
83.52000 20.573
83.54000 29.020
83.56000 28.174
83.58000 26.541
83.60000 20.508
83.62000 23.601
83.64000 23.470
83.66000 21.490
83.68000 23.247
83.70000 25.020
83.72000 25.311
83.74000 22.334
83.76000 19.530
83.78000 17.857
83.80000 20.818
83.82000 27.746
83.84000 24.233
83.86000 19.904
83.88000 16.586
83.90000 16.481
83.92000 25.355
83.94000 22.822
83.96000 23.960
83.98000 16.925
84.00000 16.953
84.02000 18.049
84.04000 19.479
84.06000 15.132
84.08000 13.681
84.10000 11.109
84.12000 11.224
84.14000 14.267
84.16000 20.251
84.18000 23.753
84.20000 18.078
84.22000 15.984
84.24000 18.602
84.26000 14.228
84.28000 12.530
84.30000 15.702
84.32000 12.019
84.34000 6.394
84.36000 7.659
84.38000 7.437
84.40000 2.568
84.42000 6.465
84.44000 8.325
84.46000 5.395
84.48000 10.401
84.50000 14.936
84.52000 12.384
84.54000 10.410
84.56000 11.129
84.58000 10.152
84.60000 11.593
84.62000 10.528
84.64000 6.686
84.66000 4.854
84.68000 4.592
84.70000 -0.019
84.72000 5.835
84.74000 6.713
84.76000 8.126
84.78000 7.680
84.80000 4.874
84.82000 3.683
84.84000 1.627
84.86000 1.146
84.88000 7.299
84.90000 5.094
84.92000 6.225
84.94000 3.375
84.96000 -2.340
84.98000 2.931
85.00000 6.378
85.02000 -0.506
85.04000 -2.070
85.06000 3.019
85.08000 6.338
85.10000 -0.432
85.12000 -2.500
85.14000 5.655
85.16000 3.766
85.18000 7.389
85.20000 4.575
85.22000 4.609
85.24000 4.956
85.26000 5.376
85.28000 2.682
85.30000 1.131
85.32000 3.262
85.34000 4.009
85.36000 0.987
85.38000 2.890
85.40000 2.824
85.42000 2.853
85.44000 3.195
85.46000 5.074
85.48000 4.249
85.50000 6.913
85.52000 1.795
85.54000 3.291
85.56000 -0.180
85.58000 -1.873
85.60000 -2.456
85.62000 -1.029
85.64000 3.309
85.66000 1.717
85.68000 -0.208
85.70000 4.269
85.72000 5.956
85.74000 1.143
85.76000 0.247
85.78000 -1.997
85.80000 -1.309
85.82000 1.986
85.84000 3.552
85.86000 5.637
85.88000 5.618
85.90000 7.735
85.92000 1.807
85.94000 2.840
85.96000 3.611
85.98000 1.877
86.00000 3.075
86.02000 -1.837
86.04000 0.166
86.06000 1.261
86.08000 3.397
86.10000 4.589
86.12000 3.390
86.14000 6.202
86.16000 6.110
86.18000 1.944
86.20000 4.382
86.22000 2.807
86.24000 2.889
86.26000 0.500
86.28000 -1.416
86.30000 -2.400
86.32000 3.123
86.34000 9.380
86.36000 5.841
86.38000 5.175
86.40000 9.105
86.42000 6.181
86.44000 4.949
86.46000 3.052
86.48000 6.025
86.50000 7.294
86.52000 9.428
86.54000 6.345
86.56000 5.849
86.58000 8.023
86.60000 4.207
86.62000 2.450
86.64000 2.303
86.66000 2.538
86.68000 1.709
86.70000 2.117
86.72000 4.860
86.74000 4.448
86.76000 4.267
86.78000 9.602
86.80000 11.921
86.82000 5.028
86.84000 7.181
86.86000 6.519
86.88000 4.205
86.90000 1.586
86.92000 4.790
86.94000 7.636
86.96000 6.148
86.98000 5.482
87.00000 5.808
87.02000 9.310
87.04000 7.309
87.06000 8.336
87.08000 7.879
87.10000 3.490
87.12000 4.939
87.14000 4.531
87.16000 1.381
87.18000 7.735
87.20000 8.804
87.22000 6.747
87.24000 5.623
87.26000 7.595
87.28000 10.749
87.30000 10.375
87.32000 15.153
87.34000 13.940
87.36000 10.488
87.38000 13.246
87.40000 9.780
87.42000 10.171
87.44000 12.884
87.46000 14.614
87.48000 14.932
87.50000 15.809
87.52000 20.805
87.54000 13.386
87.56000 13.437
87.58000 13.923
87.60000 15.279
87.62000 17.246
87.64000 14.234
87.66000 15.650
87.68000 18.861
87.70000 21.326
87.72000 19.814
87.74000 21.993
87.76000 22.120
87.78000 14.947
87.80000 14.023
87.82000 15.253
87.84000 20.347
87.86000 22.584
87.88000 20.600
87.90000 18.960
87.92000 17.692
87.94000 23.887
87.96000 17.747
87.98000 14.938
88.00000 16.160
88.02000 17.505
88.04000 17.320
88.06000 19.773
88.08000 21.251
88.10000 23.387
88.12000 21.776
88.14000 18.932
88.16000 12.395
88.18000 16.189
88.20000 14.576
88.22000 17.415
88.24000 22.622
88.26000 24.791
88.28000 28.296
88.30000 23.000
88.32000 20.339
88.34000 20.363
88.36000 12.578
88.38000 15.408
88.40000 18.765
88.42000 17.810
88.44000 14.263
88.46000 22.482
88.48000 23.417
88.50000 21.705
88.52000 17.518
88.54000 20.911
88.56000 12.201
88.58000 10.764
88.60000 15.913
88.62000 20.594
88.64000 18.598
88.66000 7.920
88.68000 11.143
88.70000 10.390
88.72000 12.253
88.74000 10.016
88.76000 6.330
88.78000 6.110
88.80000 12.604
88.82000 16.914
88.84000 17.604
88.86000 13.696
88.88000 14.908
88.90000 17.451
88.92000 13.311
88.94000 9.610
88.96000 6.886
88.98000 9.772
89.00000 7.007
89.02000 6.029
89.04000 11.804
89.06000 14.555
89.08000 13.699
89.10000 9.856
89.12000 1.657
89.14000 1.474
89.16000 3.872
89.18000 7.216
89.20000 5.544
89.22000 2.705
89.24000 4.030
89.26000 6.920
89.28000 6.312
89.30000 7.494
89.32000 6.657
89.34000 11.218
89.36000 13.565
89.38000 6.477
89.40000 6.737
89.42000 4.087
89.44000 4.295
89.46000 3.118
89.48000 1.531
89.50000 5.290
89.52000 4.575
89.54000 1.423
89.56000 6.083
89.58000 6.611
89.60000 5.595
89.62000 0.939
89.64000 5.219
89.66000 6.330
89.68000 5.739
89.70000 3.614
89.72000 4.561
89.74000 -1.375
89.76000 2.534
89.78000 4.529
89.80000 4.474
89.82000 4.636
89.84000 5.767
89.86000 8.181
89.88000 5.552
89.90000 1.800
89.92000 1.030
89.94000 -0.860
89.96000 -2.318
89.98000 -0.434
90.00000 0.047
90.02000 0.538
90.04000 5.389
90.06000 6.574
90.08000 2.962
90.10000 6.071
90.12000 5.798
90.14000 9.040
90.16000 6.881
90.18000 3.612
90.20000 8.019
90.22000 2.540
90.24000 -1.736
90.26000 3.755
90.28000 1.467
90.30000 4.479
90.32000 7.111
90.34000 4.713
90.36000 4.167
90.38000 -0.930
90.40000 3.193
90.42000 5.710
90.44000 0.783
90.46000 3.766
90.48000 5.924
90.50000 6.571
90.52000 4.377
90.54000 1.177
90.56000 2.876
90.58000 3.069
90.60000 0.412
90.62000 -0.104
90.64000 -0.183
90.66000 -2.109
90.68000 -2.294
90.70000 2.452
90.72000 3.589
90.74000 4.529
90.76000 0.983
90.78000 0.801
90.80000 0.839
90.82000 1.793
90.84000 7.129
90.86000 4.288
90.88000 -0.851
90.90000 -2.291
90.92000 0.564
90.94000 1.796
90.96000 4.372
90.98000 5.047
91.00000 0.321
91.02000 1.773
91.04000 1.060
91.06000 7.830
91.08000 4.432
91.10000 4.139
91.12000 3.052
91.14000 0.785
91.16000 1.331
91.18000 4.925
91.20000 6.416
91.22000 2.665
91.24000 4.219
91.26000 4.568
91.28000 6.887
91.30000 4.318
91.32000 1.737
91.34000 2.309
91.36000 4.730
91.38000 4.834
91.40000 3.012
91.42000 7.051
91.44000 9.382
91.46000 3.075
91.48000 3.262
91.50000 1.952
91.52000 0.794
91.54000 2.563
91.56000 5.792
91.58000 3.639
91.60000 5.675
91.62000 3.389
91.64000 2.386
91.66000 3.851
91.68000 -0.196
91.70000 -0.708
91.72000 -0.992
91.74000 0.061
91.76000 2.342
91.78000 -2.037
91.80000 -2.273
91.82000 0.543
91.84000 3.921
91.86000 2.459
91.88000 4.429
91.90000 3.877
91.92000 3.458
91.94000 -0.887
91.96000 1.113
91.98000 3.648
92.00000 6.213
92.02000 6.304
92.04000 3.203
92.06000 -1.238
92.08000 5.199
92.10000 6.899
92.12000 0.826
92.14000 2.083
92.16000 3.950
92.18000 4.713
92.20000 4.152
92.22000 1.549
92.24000 4.660
92.26000 3.992
92.28000 -0.219
92.30000 1.789
92.32000 1.581
92.34000 5.212
92.36000 2.631
92.38000 2.474
92.40000 2.360
92.42000 3.335
92.44000 0.497
92.46000 3.352
92.48000 5.803
92.50000 5.016
92.52000 4.996
92.54000 10.936
92.56000 4.335
92.58000 0.469
92.60000 -0.718
92.62000 1.951
92.64000 2.862
92.66000 3.046
92.68000 8.413
92.70000 10.074
92.72000 6.243
92.74000 4.566
92.76000 6.181
92.78000 5.603
92.80000 0.705
92.82000 0.506
92.84000 -2.231
92.86000 1.581
92.88000 5.128
92.90000 4.353
92.92000 4.999
92.94000 3.316
92.96000 6.040
92.98000 10.311
93.00000 5.643
93.02000 3.634
93.04000 6.980
93.06000 6.643
93.08000 10.884
93.10000 6.831
93.12000 -2.457
93.14000 4.586
93.16000 3.445
93.18000 3.251
93.20000 1.054
93.22000 3.870
93.24000 6.959
93.26000 7.359
93.28000 4.645
93.30000 1.719
93.32000 1.072
93.34000 1.599
93.36000 5.118
93.38000 6.884
93.40000 5.837
93.42000 6.751
93.44000 1.798
93.46000 4.148
93.48000 9.256
93.50000 4.941
93.52000 5.793
93.54000 3.283
93.56000 5.670
93.58000 9.385
93.60000 13.302
93.62000 6.677
93.64000 2.650
93.66000 3.448
93.68000 4.723
93.70000 8.207
93.72000 4.602
93.74000 5.783
93.76000 4.695
93.78000 3.051
93.80000 -2.243
93.82000 1.656
93.84000 9.040
93.86000 9.115
93.88000 8.490
93.90000 4.154
93.92000 5.310
93.94000 2.558
93.96000 5.952
93.98000 10.916
94.00000 9.705
94.02000 8.319
94.04000 6.865
94.06000 7.003
94.08000 7.325
94.10000 9.680
94.12000 4.368
94.14000 3.121
94.16000 2.659
94.18000 5.478
94.20000 4.574
94.22000 5.980
94.24000 5.478
94.26000 4.858
94.28000 2.712
94.30000 3.584
94.32000 10.154
94.34000 13.001
94.36000 11.423
94.38000 10.143
94.40000 3.357
94.42000 6.110
94.44000 7.181
94.46000 8.707
94.48000 3.799
94.50000 5.708
94.52000 2.032
94.54000 2.765
94.56000 6.372
94.58000 3.866
94.60000 3.285
94.62000 0.924
94.64000 -0.277
94.66000 6.167
94.68000 6.486
94.70000 -1.756
94.72000 -2.209
94.74000 0.167
94.76000 5.924
94.78000 6.925
94.80000 7.499
94.82000 5.721
94.84000 6.370
94.86000 10.277
94.88000 6.378
94.90000 9.741
94.92000 8.953
94.94000 1.925
94.96000 6.088
94.98000 8.719
95.00000 8.710
95.02000 4.997
95.04000 3.854
95.06000 5.249
95.08000 5.820
95.10000 4.229
95.12000 4.190
95.14000 3.161
95.16000 2.052
95.18000 6.298
95.20000 7.035
95.22000 5.434
95.24000 8.138
95.26000 9.036
95.28000 5.350
95.30000 12.208
95.32000 6.040
95.34000 5.203
95.36000 3.941
95.38000 3.700
95.40000 12.112
95.42000 10.407
95.44000 3.019
95.46000 3.306
95.48000 5.050
95.50000 7.138
95.52000 9.984
95.54000 9.609
95.56000 3.198
95.58000 2.757
95.60000 6.543
95.62000 13.445
95.64000 8.157
95.66000 4.932
95.68000 4.883
95.70000 8.575
95.72000 13.701
95.74000 3.220
95.76000 2.283
95.78000 7.219
95.80000 7.233
95.82000 9.100
95.84000 4.498
95.86000 4.252
95.88000 6.942
95.90000 4.603
95.92000 5.563
95.94000 2.462
95.96000 4.088
95.98000 5.094
96.00000 4.933
96.02000 5.340
96.04000 9.877
96.06000 11.639
96.08000 8.129
96.10000 13.499
96.12000 14.946
96.14000 11.377
96.16000 10.990
96.18000 9.081
96.20000 3.518
96.22000 8.027
96.24000 7.722
96.26000 7.848
96.28000 4.892
96.30000 1.265
96.32000 -2.234
96.34000 3.933
96.36000 7.173
96.38000 6.183
96.40000 4.830
96.42000 6.008
96.44000 6.498
96.46000 9.587
96.48000 2.097
96.50000 4.806
96.52000 11.812
96.54000 11.573
96.56000 5.194
96.58000 7.603
96.60000 12.543
96.62000 10.713
96.64000 5.639
96.66000 1.954
96.68000 6.208
96.70000 10.279
96.72000 12.859
96.74000 9.650
96.76000 5.516
96.78000 8.235
96.80000 6.698
96.82000 1.373
96.84000 5.677
96.86000 4.172
96.88000 6.990
96.90000 11.450
96.92000 2.702
96.94000 8.394
96.96000 1.766
96.98000 8.600
97.00000 5.684
97.02000 6.141
97.04000 7.642
97.06000 7.526
97.08000 9.378
97.10000 8.569
97.12000 12.657
97.14000 8.792
97.16000 5.975
97.18000 3.129
97.20000 -1.003
97.22000 3.231
97.24000 13.945
97.26000 21.161
97.28000 14.355
97.30000 7.219
97.32000 5.058
97.34000 6.242
97.36000 3.801
97.38000 3.805
97.40000 -2.203
97.42000 2.999
97.44000 6.253
97.46000 7.859
97.48000 5.179
97.50000 4.718
97.52000 2.204
97.54000 5.085
97.56000 5.980
97.58000 6.507
97.60000 5.077
97.62000 2.948
97.64000 0.839
97.66000 5.657
97.68000 7.157
97.70000 8.543
97.72000 8.631
97.74000 10.932
97.76000 9.382
97.78000 7.776
97.80000 6.916
97.82000 5.785
97.84000 1.366
97.86000 9.744
97.88000 6.187
97.90000 6.494
97.92000 4.861
97.94000 4.943
97.96000 3.302
97.98000 5.062
98.00000 11.741
98.02000 13.775
98.04000 2.240
98.06000 -0.081
98.08000 1.249
98.10000 1.168
98.12000 7.594
98.14000 7.572
98.16000 9.976
98.18000 15.941
98.20000 12.263
98.22000 6.538
98.24000 2.073
98.26000 1.712
98.28000 6.975
98.30000 -0.334
98.32000 3.111
98.34000 11.117
98.36000 10.883
98.38000 9.414
98.40000 7.094
98.42000 1.344
98.44000 1.703
98.46000 -0.134
98.48000 2.389
98.50000 -0.032
98.52000 1.019
98.54000 2.959
98.56000 6.947
98.58000 3.789
98.60000 6.576
98.62000 5.758
98.64000 5.167
98.66000 3.288
98.68000 7.508
98.70000 7.471
98.72000 -2.202
98.74000 -0.595
98.76000 -0.680
98.78000 9.138
98.80000 7.231
98.82000 4.339
98.84000 3.780
98.86000 1.189
98.88000 7.404
98.90000 5.554
98.92000 2.341
98.94000 7.529
98.96000 13.520
98.98000 13.730
99.00000 14.236
99.02000 10.812
99.04000 2.584
99.06000 4.191
99.08000 4.554
99.10000 4.824
99.12000 11.556
99.14000 11.425
99.16000 -0.346
99.18000 11.624
99.20000 8.635
99.22000 6.830
99.24000 -2.201
99.26000 2.313
99.28000 -1.742
99.30000 -0.668
99.32000 1.282
99.34000 7.129
99.36000 8.951
99.38000 11.353
99.40000 -0.065
99.42000 5.565
99.44000 2.161
99.46000 8.268
99.48000 4.541
99.50000 3.711
99.52000 -0.161
99.54000 7.340
99.56000 5.170
99.58000 4.557
99.60000 9.711
99.62000 17.427
99.64000 4.798
99.66000 -1.814
99.68000 5.196
99.70000 15.545
99.72000 7.598
99.74000 3.208
99.76000 3.618
99.78000 -2.272
99.80000 5.542
99.82000 -1.243
99.84000 11.380
99.86000 8.568
99.88000 8.966
99.90000 18.780
99.92000 11.049
99.94000 14.259
99.96000 2.527
99.98000 0.000
