'Id: "0011387" Comment: "Integrate frame 0011387_Au-Ir-Rh_Rh-rich_XRD-Mapping-267-0000.gfrmwith cursor Wedge Cursor #5" Operator: "B?rgel" Anode: "Cu" Wavelength: "1.5406" Scantype: "2Theta (TwoTheta)" TimePerStep: "1" X: "-9" Y: "22.5" Z: "5.95" 
10.00000 0.000
10.02000 6.887
10.04000 -4.505
10.06000 7.805
10.08000 0.346
10.10000 0.409
10.12000 -2.156
10.14000 -4.428
10.16000 -2.309
10.18000 5.121
10.20000 3.147
10.22000 -4.403
10.24000 1.427
10.26000 12.793
10.28000 -1.528
10.30000 15.920
10.32000 10.248
10.34000 -0.740
10.36000 3.576
10.38000 -4.373
10.40000 0.570
10.42000 13.999
10.44000 12.455
10.46000 -3.446
10.48000 11.955
10.50000 19.740
10.52000 7.284
10.54000 0.363
10.56000 3.113
10.58000 2.653
10.60000 -2.099
10.62000 -2.565
10.64000 0.439
10.66000 10.953
10.68000 2.121
10.70000 -1.036
10.72000 2.671
10.74000 8.661
10.76000 18.194
10.78000 29.335
10.80000 34.599
10.82000 25.777
10.84000 9.294
10.86000 12.336
10.88000 18.793
10.90000 18.005
10.92000 11.949
10.94000 14.241
10.96000 19.776
10.98000 23.597
11.00000 10.764
11.02000 9.001
11.04000 6.096
11.06000 13.538
11.08000 15.549
11.10000 15.237
11.12000 15.806
11.14000 7.085
11.16000 -1.871
11.18000 -0.842
11.20000 5.514
11.22000 6.757
11.24000 13.216
11.26000 31.519
11.28000 20.792
11.30000 23.092
11.32000 6.851
11.34000 -4.367
11.36000 5.144
11.38000 17.814
11.40000 13.427
11.42000 16.545
11.44000 25.912
11.46000 23.819
11.48000 19.764
11.50000 8.505
11.52000 0.255
11.54000 8.470
11.56000 18.990
11.58000 12.094
11.60000 13.663
11.62000 19.355
11.64000 16.176
11.66000 15.271
11.68000 11.758
11.70000 21.359
11.72000 19.753
11.74000 16.937
11.76000 25.560
11.78000 23.611
11.80000 10.795
11.82000 7.102
11.84000 1.225
11.86000 2.610
11.88000 17.113
11.90000 19.185
11.92000 10.970
11.94000 5.253
11.96000 13.321
11.98000 -1.822
12.00000 7.189
12.02000 22.059
12.04000 12.159
12.06000 4.684
12.08000 14.741
12.10000 16.364
12.12000 12.014
12.14000 4.896
12.16000 1.085
12.18000 7.689
12.20000 20.003
12.22000 10.437
12.24000 6.296
12.26000 5.876
12.28000 1.676
12.30000 2.329
12.32000 15.336
12.34000 14.543
12.36000 12.881
12.38000 11.827
12.40000 12.146
12.42000 18.944
12.44000 22.522
12.46000 13.996
12.48000 9.455
12.50000 6.462
12.52000 -0.455
12.54000 3.156
12.56000 14.347
12.58000 11.988
12.60000 16.091
12.62000 12.077
12.64000 8.733
12.66000 13.330
12.68000 9.797
12.70000 10.469
12.72000 16.511
12.74000 26.287
12.76000 19.658
12.78000 7.718
12.80000 5.730
12.82000 18.092
12.84000 8.686
12.86000 10.036
12.88000 18.162
12.90000 12.433
12.92000 10.528
12.94000 9.240
12.96000 11.820
12.98000 6.008
13.00000 3.239
13.02000 8.613
13.04000 15.511
13.06000 24.396
13.08000 12.538
13.10000 16.425
13.12000 17.638
13.14000 18.368
13.16000 12.869
13.18000 12.079
13.20000 8.533
13.22000 9.219
13.24000 11.241
13.26000 10.219
13.28000 11.965
13.30000 7.464
13.32000 12.211
13.34000 18.007
13.36000 16.355
13.38000 7.525
13.40000 10.071
13.42000 10.125
13.44000 10.640
13.46000 7.296
13.48000 4.024
13.50000 8.689
13.52000 17.820
13.54000 21.736
13.56000 11.801
13.58000 0.079
13.60000 0.126
13.62000 12.186
13.64000 21.308
13.66000 19.261
13.68000 11.414
13.70000 8.576
13.72000 5.793
13.74000 8.139
13.76000 11.626
13.78000 4.330
13.80000 2.981
13.82000 1.466
13.84000 13.664
13.86000 12.845
13.88000 3.340
13.90000 3.686
13.92000 11.315
13.94000 2.964
13.96000 9.808
13.98000 5.766
14.00000 -4.510
14.02000 -2.382
14.04000 -0.910
14.06000 8.572
14.08000 7.191
14.10000 9.106
14.12000 6.964
14.14000 -3.510
14.16000 -2.171
14.18000 12.596
14.20000 12.967
14.22000 3.498
14.24000 11.449
14.26000 12.351
14.28000 11.660
14.30000 6.357
14.32000 7.568
14.34000 4.794
14.36000 7.861
14.38000 14.787
14.40000 8.789
14.42000 7.648
14.44000 6.477
14.46000 9.914
14.48000 16.503
14.50000 14.353
14.52000 3.568
14.54000 -3.404
14.56000 5.677
14.58000 17.988
14.60000 10.632
14.62000 6.372
14.64000 12.175
14.66000 6.270
14.68000 2.574
14.70000 0.135
14.72000 7.689
14.74000 10.510
14.76000 9.736
14.78000 6.463
14.80000 4.792
14.82000 -2.927
14.84000 -0.209
14.86000 4.417
14.88000 3.275
14.90000 8.652
14.92000 3.629
14.94000 2.130
14.96000 3.685
14.98000 7.602
15.00000 10.605
15.02000 17.358
15.04000 17.502
15.06000 11.009
15.08000 4.448
15.10000 2.467
15.12000 7.493
15.14000 6.461
15.16000 5.326
15.18000 4.144
15.20000 12.188
15.22000 11.593
15.24000 13.444
15.26000 13.333
15.28000 17.011
15.30000 16.227
15.32000 6.127
15.34000 9.702
15.36000 15.345
15.38000 11.269
15.40000 3.975
15.42000 -4.469
15.44000 8.813
15.46000 7.025
15.48000 12.217
15.50000 6.792
15.52000 14.917
15.54000 10.343
15.56000 -2.356
15.58000 -4.112
15.60000 -0.918
15.62000 0.571
15.64000 1.657
15.66000 9.846
15.68000 10.890
15.70000 7.752
15.72000 5.826
15.74000 2.927
15.76000 8.486
15.78000 9.049
15.80000 6.951
15.82000 6.776
15.84000 2.931
15.86000 1.473
15.88000 4.720
15.90000 11.215
15.92000 10.743
15.94000 5.739
15.96000 6.174
15.98000 6.916
16.00000 12.877
16.02000 4.512
16.04000 9.357
16.06000 9.442
16.08000 10.318
16.10000 11.193
16.12000 13.551
16.14000 18.227
16.16000 14.939
16.18000 13.876
16.20000 7.136
16.22000 -2.347
16.24000 -0.879
16.26000 7.014
16.28000 -1.026
16.30000 -1.307
16.32000 6.964
16.34000 14.332
16.36000 6.480
16.38000 7.958
16.40000 8.792
16.42000 14.845
16.44000 9.966
16.46000 13.170
16.48000 8.286
16.50000 9.335
16.52000 7.565
16.54000 12.739
16.56000 7.909
16.58000 2.783
16.60000 6.467
16.62000 9.953
16.64000 5.735
16.66000 9.192
16.68000 14.108
16.70000 18.605
16.72000 9.323
16.74000 13.770
16.76000 16.447
16.78000 11.101
16.80000 -0.538
16.82000 6.773
16.84000 6.128
16.86000 7.163
16.88000 6.226
16.90000 8.334
16.92000 5.218
16.94000 6.110
16.96000 13.343
16.98000 11.197
17.00000 6.335
17.02000 5.846
17.04000 8.015
17.06000 11.374
17.08000 11.485
17.10000 -3.221
17.12000 -4.351
17.14000 5.356
17.16000 7.026
17.18000 5.097
17.20000 7.967
17.22000 6.114
17.24000 6.149
17.26000 8.644
17.28000 9.083
17.30000 11.571
17.32000 10.358
17.34000 4.330
17.36000 7.774
17.38000 15.316
17.40000 11.339
17.42000 2.431
17.44000 9.911
17.46000 11.941
17.48000 11.367
17.50000 14.782
17.52000 9.446
17.54000 7.623
17.56000 6.592
17.58000 6.035
17.60000 3.115
17.62000 8.104
17.64000 12.632
17.66000 15.171
17.68000 9.723
17.70000 2.753
17.72000 9.294
17.74000 8.119
17.76000 11.617
17.78000 4.456
17.80000 -0.402
17.82000 6.361
17.84000 9.200
17.86000 3.419
17.88000 5.007
17.90000 7.284
17.92000 3.608
17.94000 3.469
17.96000 8.189
17.98000 11.064
18.00000 3.173
18.02000 3.539
18.04000 3.913
18.06000 6.496
18.08000 4.713
18.10000 -1.801
18.12000 -0.752
18.14000 9.547
18.16000 1.263
18.18000 3.015
18.20000 4.473
18.22000 0.296
18.24000 2.366
18.26000 6.968
18.28000 6.623
18.30000 6.509
18.32000 9.023
18.34000 6.357
18.36000 2.432
18.38000 4.986
18.40000 4.521
18.42000 3.454
18.44000 3.496
18.46000 -3.872
18.48000 -2.147
18.50000 1.186
18.52000 10.739
18.54000 9.222
18.56000 6.367
18.58000 4.167
18.60000 4.288
18.62000 -2.991
18.64000 0.173
18.66000 6.496
18.68000 1.752
18.70000 0.430
18.72000 2.522
18.74000 10.663
18.76000 5.664
18.78000 1.458
18.80000 2.969
18.82000 0.201
18.84000 0.937
18.86000 3.581
18.88000 1.619
18.90000 0.225
18.92000 -1.157
18.94000 3.580
18.96000 2.398
18.98000 1.530
19.00000 0.615
19.02000 1.104
19.04000 3.695
19.06000 1.913
19.08000 -2.230
19.10000 -1.229
19.12000 6.966
19.14000 7.988
19.16000 2.049
19.18000 1.598
19.20000 3.568
19.22000 -3.049
19.24000 1.407
19.26000 14.010
19.28000 14.274
19.30000 4.728
19.32000 -2.951
19.34000 -1.521
19.36000 -2.452
19.38000 -3.613
19.40000 -0.935
19.42000 0.448
19.44000 1.395
19.46000 0.329
19.48000 -2.686
19.50000 5.220
19.52000 13.520
19.54000 11.344
19.56000 1.943
19.58000 -3.549
19.60000 1.096
19.62000 1.160
19.64000 3.641
19.66000 3.505
19.68000 1.991
19.70000 7.499
19.72000 9.512
19.74000 5.886
19.76000 5.842
19.78000 2.960
19.80000 3.672
19.82000 6.241
19.84000 -0.882
19.86000 2.068
19.88000 5.444
19.90000 4.806
19.92000 -2.009
19.94000 -1.775
19.96000 4.828
19.98000 8.684
20.00000 9.013
20.02000 0.917
20.04000 5.743
20.06000 9.838
20.08000 4.422
20.10000 0.593
20.12000 -1.513
20.14000 6.418
20.16000 7.033
20.18000 3.999
20.20000 3.357
20.22000 -1.950
20.24000 9.646
20.26000 0.667
20.28000 2.573
20.30000 8.412
20.32000 8.890
20.34000 1.982
20.36000 0.254
20.38000 5.979
20.40000 14.075
20.42000 13.639
20.44000 15.053
20.46000 3.388
20.48000 1.318
20.50000 -0.300
20.52000 -4.182
20.54000 3.973
20.56000 13.517
20.58000 4.975
20.60000 0.703
20.62000 6.058
20.64000 9.478
20.66000 4.551
20.68000 3.149
20.70000 0.614
20.72000 6.384
20.74000 15.107
20.76000 8.640
20.78000 11.057
20.80000 11.573
20.82000 16.169
20.84000 14.872
20.86000 0.907
20.88000 0.252
20.90000 4.168
20.92000 8.805
20.94000 4.842
20.96000 6.496
20.98000 10.854
21.00000 1.646
21.02000 4.418
21.04000 6.508
21.06000 1.984
21.08000 0.161
21.10000 1.675
21.12000 4.818
21.14000 3.543
21.16000 2.038
21.18000 6.759
21.20000 9.598
21.22000 10.409
21.24000 1.712
21.26000 4.953
21.28000 5.251
21.30000 -2.546
21.32000 0.975
21.34000 7.617
21.36000 3.556
21.38000 4.483
21.40000 6.894
21.42000 10.565
21.44000 10.205
21.46000 5.150
21.48000 8.116
21.50000 10.405
21.52000 9.079
21.54000 11.434
21.56000 5.784
21.58000 0.800
21.60000 -0.603
21.62000 3.572
21.64000 4.782
21.66000 4.566
21.68000 0.728
21.70000 7.915
21.72000 5.303
21.74000 4.516
21.76000 3.272
21.78000 -4.128
21.80000 -0.244
21.82000 5.053
21.84000 -0.010
21.86000 5.970
21.88000 2.895
21.90000 9.044
21.92000 5.608
21.94000 5.431
21.96000 10.607
21.98000 13.951
22.00000 7.550
22.02000 2.860
22.04000 2.436
22.06000 8.438
22.08000 5.552
22.10000 11.860
22.12000 12.326
22.14000 9.095
22.16000 10.016
22.18000 4.525
22.20000 0.650
22.22000 -3.164
22.24000 4.235
22.26000 0.858
22.28000 0.446
22.30000 3.882
22.32000 4.015
22.34000 2.138
22.36000 7.042
22.38000 7.252
22.40000 5.531
22.42000 0.680
22.44000 1.115
22.46000 4.576
22.48000 9.712
22.50000 10.544
22.52000 7.526
22.54000 4.661
22.56000 11.106
22.58000 5.261
22.60000 6.940
22.62000 15.633
22.64000 13.869
22.66000 4.960
22.68000 0.886
22.70000 5.012
22.72000 7.623
22.74000 5.183
22.76000 0.037
22.78000 1.048
22.80000 5.658
22.82000 6.654
22.84000 1.954
22.86000 2.726
22.88000 5.945
22.90000 7.590
22.92000 9.161
22.94000 11.573
22.96000 -0.548
22.98000 -0.610
23.00000 -4.031
23.02000 1.341
23.04000 11.431
23.06000 15.337
23.08000 11.277
23.10000 7.113
23.12000 10.712
23.14000 11.387
23.16000 8.499
23.18000 3.454
23.20000 5.429
23.22000 8.865
23.24000 10.337
23.26000 9.087
23.28000 1.758
23.30000 4.133
23.32000 16.457
23.34000 14.796
23.36000 11.525
23.38000 2.707
23.40000 5.013
23.42000 7.752
23.44000 5.463
23.46000 1.020
23.48000 -1.897
23.50000 2.828
23.52000 4.544
23.54000 5.241
23.56000 6.691
23.58000 9.746
23.60000 10.338
23.62000 5.850
23.64000 4.988
23.66000 0.459
23.68000 11.393
23.70000 13.902
23.72000 14.990
23.74000 16.259
23.76000 9.751
23.78000 2.171
23.80000 7.613
23.82000 6.376
23.84000 5.059
23.86000 3.515
23.88000 2.231
23.90000 -0.643
23.92000 2.922
23.94000 6.174
23.96000 5.079
23.98000 4.678
24.00000 6.970
24.02000 7.871
24.04000 5.855
24.06000 7.731
24.08000 8.243
24.10000 4.677
24.12000 7.967
24.14000 12.253
24.16000 9.002
24.18000 5.117
24.20000 9.619
24.22000 6.016
24.24000 1.879
24.26000 0.838
24.28000 0.551
24.30000 6.939
24.32000 10.027
24.34000 7.327
24.36000 8.413
24.38000 14.130
24.40000 8.886
24.42000 2.339
24.44000 -0.463
24.46000 3.345
24.48000 4.890
24.50000 -3.466
24.52000 -3.965
24.54000 -1.357
24.56000 4.710
24.58000 5.804
24.60000 5.852
24.62000 -1.762
24.64000 1.619
24.66000 5.357
24.68000 5.072
24.70000 5.554
24.72000 7.564
24.74000 3.615
24.76000 3.479
24.78000 1.405
24.80000 5.212
24.82000 8.515
24.84000 7.343
24.86000 11.500
24.88000 4.987
24.90000 0.514
24.92000 1.880
24.94000 -0.359
24.96000 3.350
24.98000 4.094
25.00000 3.609
25.02000 2.004
25.04000 2.768
25.06000 -1.675
25.08000 2.829
25.10000 8.072
25.12000 6.504
25.14000 5.438
25.16000 -0.035
25.18000 -0.840
25.20000 3.141
25.22000 7.087
25.24000 6.660
25.26000 6.135
25.28000 3.203
25.30000 3.359
25.32000 0.989
25.34000 -0.735
25.36000 5.325
25.38000 5.693
25.40000 7.535
25.42000 7.667
25.44000 5.494
25.46000 6.849
25.48000 0.187
25.50000 -0.568
25.52000 4.860
25.54000 1.613
25.56000 -1.311
25.58000 -0.752
25.60000 3.196
25.62000 0.107
25.64000 3.109
25.66000 5.537
25.68000 11.601
25.70000 5.491
25.72000 5.766
25.74000 6.997
25.76000 2.137
25.78000 3.841
25.80000 5.775
25.82000 6.088
25.84000 6.513
25.86000 6.134
25.88000 1.622
25.90000 -1.100
25.92000 3.505
25.94000 11.646
25.96000 8.007
25.98000 3.290
26.00000 2.998
26.02000 6.178
26.04000 5.251
26.06000 4.330
26.08000 2.691
26.10000 -2.583
26.12000 -3.888
26.14000 1.182
26.16000 4.684
26.18000 4.154
26.20000 2.801
26.22000 2.000
26.24000 5.762
26.26000 6.665
26.28000 7.233
26.30000 3.170
26.32000 2.215
26.34000 4.670
26.36000 6.619
26.38000 5.789
26.40000 4.101
26.42000 4.471
26.44000 6.082
26.46000 2.634
26.48000 5.014
26.50000 7.789
26.52000 3.542
26.54000 6.441
26.56000 10.666
26.58000 15.117
26.60000 11.597
26.62000 7.570
26.64000 8.865
26.66000 4.230
26.68000 7.749
26.70000 -0.591
26.72000 -0.801
26.74000 4.712
26.76000 8.482
26.78000 10.731
26.80000 11.370
26.82000 10.886
26.84000 8.885
26.86000 6.778
26.88000 2.244
26.90000 5.476
26.92000 8.564
26.94000 7.476
26.96000 12.228
26.98000 10.779
27.00000 6.542
27.02000 7.158
27.04000 7.137
27.06000 4.197
27.08000 2.979
27.10000 -1.115
27.12000 -3.814
27.14000 -0.274
27.16000 6.571
27.18000 6.730
27.20000 2.653
27.22000 8.852
27.24000 9.450
27.26000 7.759
27.28000 2.091
27.30000 3.134
27.32000 2.458
27.34000 2.431
27.36000 0.683
27.38000 0.650
27.40000 -3.096
27.42000 2.052
27.44000 5.544
27.46000 4.242
27.48000 3.029
27.50000 4.246
27.52000 4.341
27.54000 4.647
27.56000 6.452
27.58000 6.973
27.60000 5.593
27.62000 3.969
27.64000 2.225
27.66000 -2.470
27.68000 -2.700
27.70000 1.073
27.72000 2.626
27.74000 3.089
27.76000 2.178
27.78000 0.626
27.80000 4.266
27.82000 2.159
27.84000 0.848
27.86000 -2.102
27.88000 2.569
27.90000 6.452
27.92000 4.514
27.94000 5.246
27.96000 1.383
27.98000 3.147
28.00000 4.663
28.02000 3.426
28.04000 0.502
28.06000 0.495
28.08000 -0.649
28.10000 1.540
28.12000 5.013
28.14000 6.444
28.16000 5.006
28.18000 6.183
28.20000 0.941
28.22000 -0.189
28.24000 1.532
28.26000 7.808
28.28000 3.083
28.30000 5.737
28.32000 5.703
28.34000 -0.168
28.36000 -1.442
28.38000 4.156
28.40000 9.086
28.42000 4.744
28.44000 1.894
28.46000 0.604
28.48000 -3.176
28.50000 1.235
28.52000 1.302
28.54000 1.467
28.56000 4.096
28.58000 5.512
28.60000 4.668
28.62000 2.071
28.64000 6.969
28.66000 1.924
28.68000 -1.919
28.70000 -2.482
28.72000 8.582
28.74000 8.590
28.76000 5.016
28.78000 4.579
28.80000 2.306
28.82000 -0.944
28.84000 3.296
28.86000 2.793
28.88000 5.102
28.90000 -1.241
28.92000 -3.750
28.94000 4.234
28.96000 4.152
28.98000 5.128
29.00000 3.276
29.02000 2.916
29.04000 -0.300
29.06000 1.457
29.08000 6.402
29.10000 7.375
29.12000 4.398
29.14000 12.752
29.16000 7.604
29.18000 5.141
29.20000 0.600
29.22000 -1.334
29.24000 -3.730
29.26000 -0.398
29.28000 2.392
29.30000 2.764
29.32000 -1.488
29.34000 0.420
29.36000 1.425
29.38000 1.413
29.40000 -1.902
29.42000 0.531
29.44000 9.531
29.46000 9.928
29.48000 7.165
29.50000 4.102
29.52000 3.032
29.54000 -1.506
29.56000 -0.011
29.58000 10.729
29.60000 7.061
29.62000 3.374
29.64000 2.476
29.66000 0.503
29.68000 0.778
29.70000 3.167
29.72000 2.497
29.74000 -2.377
29.76000 0.168
29.78000 1.292
29.80000 4.551
29.82000 4.905
29.84000 4.343
29.86000 4.122
29.88000 0.689
29.90000 -2.855
29.92000 -3.694
29.94000 -2.128
29.96000 -2.753
29.98000 -3.577
30.00000 -1.079
30.02000 1.386
30.04000 2.884
30.06000 -3.710
30.08000 -3.709
30.10000 1.103
30.12000 1.805
30.14000 3.856
30.16000 3.989
30.18000 -0.466
30.20000 0.846
30.22000 3.831
30.24000 4.755
30.26000 1.671
30.28000 -3.702
30.30000 -2.178
30.32000 -3.411
30.34000 0.054
30.36000 1.280
30.38000 -2.028
30.40000 0.492
30.42000 -2.222
30.44000 1.348
30.46000 4.276
30.48000 3.896
30.50000 5.077
30.52000 1.775
30.54000 -0.429
30.56000 -1.741
30.58000 0.073
30.60000 2.598
30.62000 0.686
30.64000 1.651
30.66000 4.056
30.68000 2.112
30.70000 0.060
30.72000 4.773
30.74000 6.563
30.76000 4.793
30.78000 -1.229
30.80000 -1.624
30.82000 1.243
30.84000 5.173
30.86000 4.791
30.88000 1.532
30.90000 0.835
30.92000 0.011
30.94000 5.676
30.96000 3.468
30.98000 0.538
31.00000 4.764
31.02000 0.821
31.04000 -0.040
31.06000 2.865
31.08000 5.060
31.10000 3.445
31.12000 8.587
31.14000 9.045
31.16000 6.752
31.18000 0.682
31.20000 -3.649
31.22000 1.400
31.24000 1.764
31.26000 2.219
31.28000 3.733
31.30000 4.705
31.32000 -2.023
31.34000 0.875
31.36000 3.368
31.38000 0.675
31.40000 2.927
31.42000 4.066
31.44000 1.569
31.46000 -0.871
31.48000 0.809
31.50000 -1.812
31.52000 0.807
31.54000 4.724
31.56000 2.363
31.58000 -0.511
31.60000 -1.523
31.62000 0.639
31.64000 3.598
31.66000 4.114
31.68000 2.195
31.70000 -0.029
31.72000 6.893
31.74000 6.239
31.76000 0.691
31.78000 4.366
31.80000 3.810
31.82000 1.030
31.84000 1.192
31.86000 4.596
31.88000 0.962
31.90000 -3.621
31.92000 1.664
31.94000 2.923
31.96000 -1.092
31.98000 -1.322
32.00000 -2.307
32.02000 -2.094
32.04000 -0.538
32.06000 -0.531
32.08000 1.202
32.10000 3.142
32.12000 4.453
32.14000 1.994
32.16000 4.264
32.18000 2.172
32.20000 4.074
32.22000 4.520
32.24000 1.588
32.26000 1.843
32.28000 3.290
32.30000 4.932
32.32000 -1.184
32.34000 6.067
32.36000 6.949
32.38000 2.954
32.40000 4.684
32.42000 6.363
32.44000 4.819
32.46000 3.383
32.48000 0.444
32.50000 1.718
32.52000 4.633
32.54000 3.369
32.56000 1.794
32.58000 2.982
32.60000 -1.467
32.62000 -3.615
32.64000 -3.091
32.66000 -3.106
32.68000 -0.207
32.70000 0.074
32.72000 -0.611
32.74000 2.578
32.76000 3.425
32.78000 -2.889
32.80000 0.964
32.82000 3.212
32.84000 5.263
32.86000 3.821
32.88000 2.465
32.90000 -0.513
32.92000 -2.583
32.94000 -0.103
32.96000 -2.613
32.98000 3.686
33.00000 3.290
33.02000 -2.660
33.04000 -1.636
33.06000 -0.343
33.08000 6.064
33.10000 3.816
33.12000 4.007
33.14000 5.457
33.16000 2.589
33.18000 0.221
33.20000 3.216
33.22000 1.550
33.24000 4.702
33.26000 2.373
33.28000 -0.742
33.30000 -3.586
33.32000 3.051
33.34000 4.191
33.36000 1.837
33.38000 3.911
33.40000 8.911
33.42000 8.996
33.44000 5.057
33.46000 7.047
33.48000 7.776
33.50000 11.219
33.52000 6.364
33.54000 -0.966
33.56000 3.364
33.58000 4.822
33.60000 1.809
33.62000 6.670
33.64000 2.798
33.66000 0.468
33.68000 5.130
33.70000 2.706
33.72000 1.010
33.74000 1.941
33.76000 -2.463
33.78000 -0.446
33.80000 3.443
33.82000 3.975
33.84000 7.049
33.86000 6.180
33.88000 8.359
33.90000 8.765
33.92000 5.050
33.94000 1.183
33.96000 3.542
33.98000 4.669
34.00000 3.445
34.02000 -1.371
34.04000 1.296
34.06000 4.007
34.08000 1.706
34.10000 0.375
34.12000 3.394
34.14000 7.000
34.16000 3.166
34.18000 2.354
34.20000 2.833
34.22000 6.466
34.24000 3.873
34.26000 2.996
34.28000 2.526
34.30000 2.612
34.32000 1.148
34.34000 0.714
34.36000 6.239
34.38000 5.468
34.40000 4.834
34.42000 2.878
34.44000 1.113
34.46000 -3.551
34.48000 3.913
34.50000 4.869
34.52000 3.030
34.54000 1.730
34.56000 0.185
34.58000 0.434
34.60000 1.177
34.62000 1.137
34.64000 4.543
34.66000 5.710
34.68000 4.760
34.70000 1.661
34.72000 -2.313
34.74000 -2.222
34.76000 1.261
34.78000 1.019
34.80000 1.736
34.82000 3.030
34.84000 3.956
34.86000 6.715
34.88000 7.582
34.90000 3.660
34.92000 6.517
34.94000 4.585
34.96000 -1.304
34.98000 -3.549
35.00000 0.501
35.02000 -0.174
35.04000 -3.418
35.06000 2.117
35.08000 2.459
35.10000 0.175
35.12000 0.399
35.14000 3.004
35.16000 0.261
35.18000 3.907
35.20000 2.657
35.22000 -0.414
35.24000 1.210
35.26000 3.285
35.28000 5.420
35.30000 1.048
35.32000 0.667
35.34000 3.767
35.36000 6.173
35.38000 6.101
35.40000 -0.445
35.42000 -3.543
35.44000 0.599
35.46000 3.504
35.48000 5.689
35.50000 6.779
35.52000 4.387
35.54000 0.421
35.56000 -1.118
35.58000 -2.097
35.60000 -3.546
35.62000 1.036
35.64000 2.350
35.66000 2.639
35.68000 2.039
35.70000 -1.840
35.72000 0.536
35.74000 4.084
35.76000 0.448
35.78000 4.450
35.80000 2.518
35.82000 2.905
35.84000 1.876
35.86000 0.974
35.88000 -3.080
35.90000 -1.267
35.92000 3.368
35.94000 4.397
35.96000 4.893
35.98000 3.965
36.00000 4.337
36.02000 3.706
36.04000 10.625
36.06000 6.511
36.08000 2.334
36.10000 5.510
36.12000 3.485
36.14000 3.245
36.16000 0.683
36.18000 -3.548
36.20000 -1.055
36.22000 -2.087
36.24000 -0.262
36.26000 -1.830
36.28000 0.646
36.30000 5.569
36.32000 0.173
36.34000 0.027
36.36000 5.572
36.38000 7.293
36.40000 4.082
36.42000 2.693
36.44000 2.003
36.46000 4.393
36.48000 0.873
36.50000 -3.165
36.52000 -2.032
36.54000 -0.338
36.56000 2.029
36.58000 1.784
36.60000 5.813
36.62000 0.999
36.64000 0.974
36.66000 7.191
36.68000 4.213
36.70000 6.763
36.72000 3.137
36.74000 -0.701
36.76000 0.465
36.78000 1.310
36.80000 1.929
36.82000 1.168
36.84000 2.730
36.86000 6.192
36.88000 6.169
36.90000 2.044
36.92000 -0.142
36.94000 1.094
36.96000 -3.593
36.98000 -1.257
37.00000 2.756
37.02000 -0.025
37.04000 1.129
37.06000 2.472
37.08000 0.357
37.10000 -0.560
37.12000 -1.188
37.14000 -3.608
37.16000 2.131
37.18000 1.066
37.20000 1.348
37.22000 2.548
37.24000 1.148
37.26000 3.463
37.28000 2.953
37.30000 1.556
37.32000 -0.104
37.34000 -0.711
37.36000 2.435
37.38000 5.600
37.40000 5.552
37.42000 3.811
37.44000 6.701
37.46000 1.041
37.48000 0.365
37.50000 3.578
37.52000 0.140
37.54000 3.903
37.56000 3.598
37.58000 0.585
37.60000 0.901
37.62000 6.549
37.64000 8.528
37.66000 7.222
37.68000 7.881
37.70000 4.164
37.72000 2.674
37.74000 3.697
37.76000 3.958
37.78000 3.152
37.80000 4.567
37.82000 10.796
37.84000 8.635
37.86000 9.033
37.88000 14.479
37.90000 11.200
37.92000 5.754
37.94000 6.630
37.96000 12.109
37.98000 15.629
38.00000 16.414
38.02000 15.353
38.04000 16.184
38.06000 13.860
38.08000 16.654
38.10000 16.789
38.12000 16.902
38.14000 18.807
38.16000 17.048
38.18000 15.527
38.20000 13.536
38.22000 14.982
38.24000 15.280
38.26000 16.087
38.28000 19.609
38.30000 24.793
38.32000 29.534
38.34000 23.466
38.36000 18.749
38.38000 20.998
38.40000 24.870
38.42000 26.006
38.44000 26.036
38.46000 29.960
38.48000 31.055
38.50000 33.021
38.52000 34.738
38.54000 35.242
38.56000 36.094
38.58000 40.298
38.60000 39.219
38.62000 38.872
38.64000 37.813
38.66000 35.582
38.68000 40.516
38.70000 37.381
38.72000 39.852
38.74000 43.232
38.76000 41.630
38.78000 50.250
38.80000 55.221
38.82000 55.905
38.84000 57.313
38.86000 62.638
38.88000 62.388
38.90000 58.636
38.92000 64.719
38.94000 68.210
38.96000 70.329
38.98000 69.860
39.00000 69.824
39.02000 74.039
39.04000 80.125
39.06000 88.469
39.08000 89.511
39.10000 91.651
39.12000 96.025
39.14000 100.267
39.16000 102.702
39.18000 110.484
39.20000 119.537
39.22000 125.737
39.24000 126.402
39.26000 135.796
39.28000 138.542
39.30000 141.353
39.32000 154.933
39.34000 160.218
39.36000 167.443
39.38000 172.657
39.40000 177.606
39.42000 191.583
39.44000 202.524
39.46000 213.819
39.48000 227.471
39.50000 235.276
39.52000 245.057
39.54000 250.238
39.56000 274.801
39.58000 288.488
39.60000 300.028
39.62000 306.863
39.64000 330.036
39.66000 341.171
39.68000 361.707
39.70000 385.437
39.72000 398.112
39.74000 414.776
39.76000 436.243
39.78000 447.727
39.80000 474.019
39.82000 502.381
39.84000 525.333
39.86000 545.460
39.88000 563.773
39.90000 580.706
39.92000 595.121
39.94000 622.938
39.96000 642.732
39.98000 660.767
40.00000 665.466
40.02000 670.734
40.04000 679.626
40.06000 697.622
40.08000 698.201
40.10000 711.995
40.12000 708.817
40.14000 705.444
40.16000 701.260
40.18000 691.716
40.20000 699.395
40.22000 692.557
40.24000 681.182
40.26000 668.253
40.28000 654.886
40.30000 634.632
40.32000 611.888
40.34000 593.249
40.36000 576.657
40.38000 560.835
40.40000 542.019
40.42000 525.689
40.44000 510.917
40.46000 489.598
40.48000 472.223
40.50000 448.763
40.52000 423.148
40.54000 413.944
40.56000 383.585
40.58000 376.291
40.60000 367.309
40.62000 343.558
40.64000 322.133
40.66000 309.395
40.68000 295.701
40.70000 274.063
40.72000 260.543
40.74000 253.674
40.76000 239.115
40.78000 226.370
40.80000 211.592
40.82000 199.973
40.84000 189.782
40.86000 174.187
40.88000 162.534
40.90000 157.797
40.92000 146.950
40.94000 141.109
40.96000 130.843
40.98000 122.030
41.00000 123.894
41.02000 111.457
41.04000 106.498
41.06000 105.175
41.08000 90.066
41.10000 90.395
41.12000 82.324
41.14000 75.035
41.16000 75.322
41.18000 68.285
41.20000 69.563
41.22000 61.876
41.24000 58.710
41.26000 58.361
41.28000 55.148
41.30000 50.690
41.32000 50.535
41.34000 58.313
41.36000 55.477
41.38000 47.930
41.40000 41.488
41.42000 42.389
41.44000 35.563
41.46000 29.108
41.48000 30.224
41.50000 30.556
41.52000 27.785
41.54000 28.376
41.56000 27.750
41.58000 25.012
41.60000 21.409
41.62000 23.717
41.64000 22.761
41.66000 23.052
41.68000 20.292
41.70000 16.843
41.72000 18.016
41.74000 17.477
41.76000 12.741
41.78000 15.931
41.80000 13.991
41.82000 14.518
41.84000 7.164
41.86000 8.312
41.88000 9.146
41.90000 14.050
41.92000 16.355
41.94000 13.377
41.96000 7.904
41.98000 7.057
42.00000 8.201
42.02000 10.926
42.04000 7.923
42.06000 10.312
42.08000 9.527
42.10000 7.142
42.12000 6.769
42.14000 7.248
42.16000 8.481
42.18000 8.259
42.20000 7.790
42.22000 8.385
42.24000 6.658
42.26000 8.084
42.28000 4.728
42.30000 5.488
42.32000 5.144
42.34000 7.049
42.36000 4.136
42.38000 3.233
42.40000 0.636
42.42000 -0.117
42.44000 5.621
42.46000 3.190
42.48000 1.818
42.50000 6.885
42.52000 3.277
42.54000 5.100
42.56000 5.011
42.58000 1.568
42.60000 6.572
42.62000 4.702
42.64000 4.461
42.66000 3.801
42.68000 0.588
42.70000 -3.460
42.72000 4.206
42.74000 8.016
42.76000 6.604
42.78000 3.267
42.80000 0.482
42.82000 3.006
42.84000 5.021
42.86000 4.523
42.88000 2.546
42.90000 1.586
42.92000 3.962
42.94000 7.412
42.96000 3.008
42.98000 5.336
43.00000 0.617
43.02000 -3.407
43.04000 -0.192
43.06000 1.877
43.08000 1.843
43.10000 6.427
43.12000 3.296
43.14000 2.267
43.16000 6.587
43.18000 3.248
43.20000 0.382
43.22000 -1.581
43.24000 0.345
43.26000 4.209
43.28000 -1.249
43.30000 1.253
43.32000 5.098
43.34000 6.812
43.36000 4.406
43.38000 1.740
43.40000 1.451
43.42000 0.726
43.44000 2.352
43.46000 -3.351
43.48000 2.385
43.50000 0.904
43.52000 -2.558
43.54000 1.281
43.56000 2.031
43.58000 1.337
43.60000 1.441
43.62000 1.302
43.64000 -0.230
43.66000 0.624
43.68000 4.562
43.70000 3.798
43.72000 2.087
43.74000 4.896
43.76000 0.885
43.78000 0.416
43.80000 5.134
43.82000 4.112
43.84000 1.717
43.86000 4.278
43.88000 -1.419
43.90000 0.301
43.92000 1.470
43.94000 -0.103
43.96000 0.018
43.98000 2.705
44.00000 3.961
44.02000 1.440
44.04000 -0.981
44.06000 2.612
44.08000 4.061
44.10000 4.025
44.12000 3.356
44.14000 2.813
44.16000 -0.604
44.18000 0.119
44.20000 1.327
44.22000 -0.160
44.24000 -3.224
44.26000 -3.345
44.28000 -2.103
44.30000 -0.393
44.32000 -0.093
44.34000 1.927
44.36000 2.248
44.38000 0.485
44.40000 -2.095
44.42000 -0.059
44.44000 4.132
44.46000 6.502
44.48000 0.879
44.50000 -1.102
44.52000 -0.055
44.54000 1.721
44.56000 3.411
44.58000 1.889
44.60000 1.530
44.62000 3.673
44.64000 2.760
44.66000 2.984
44.68000 3.583
44.70000 2.129
44.72000 6.564
44.74000 7.434
44.76000 2.814
44.78000 -2.259
44.80000 -0.996
44.82000 4.331
44.84000 4.685
44.86000 2.514
44.88000 1.367
44.90000 3.719
44.92000 3.092
44.94000 3.275
44.96000 5.764
44.98000 5.384
45.00000 1.179
45.02000 3.342
45.04000 2.145
45.06000 4.619
45.08000 10.977
45.10000 13.538
45.12000 13.694
45.14000 10.466
45.16000 10.434
45.18000 10.746
45.20000 11.670
45.22000 14.314
45.24000 11.090
45.26000 7.915
45.28000 11.697
45.30000 12.896
45.32000 16.117
45.34000 16.226
45.36000 15.266
45.38000 14.905
45.40000 14.710
45.42000 10.140
45.44000 16.933
45.46000 20.969
45.48000 21.362
45.50000 24.034
45.52000 23.572
45.54000 22.789
45.56000 21.265
45.58000 23.866
45.60000 28.758
45.62000 28.481
45.64000 27.781
45.66000 32.134
45.68000 33.021
45.70000 25.826
45.72000 25.287
45.74000 33.427
45.76000 37.473
45.78000 35.367
45.80000 35.505
45.82000 41.633
45.84000 37.175
45.86000 38.481
45.88000 43.805
45.90000 45.803
45.92000 43.455
45.94000 50.889
45.96000 46.265
45.98000 47.942
46.00000 49.679
46.02000 52.815
46.04000 55.897
46.06000 54.967
46.08000 57.312
46.10000 64.557
46.12000 68.049
46.14000 70.121
46.16000 74.765
46.18000 76.056
46.20000 75.277
46.22000 72.095
46.24000 71.618
46.26000 84.362
46.28000 86.192
46.30000 81.832
46.32000 81.346
46.34000 88.918
46.36000 91.713
46.38000 92.462
46.40000 94.957
46.42000 98.362
46.44000 102.440
46.46000 102.888
46.48000 100.572
46.50000 104.968
46.52000 114.671
46.54000 113.825
46.56000 110.398
46.58000 112.907
46.60000 119.221
46.62000 119.043
46.64000 118.903
46.66000 117.997
46.68000 122.584
46.70000 127.584
46.72000 127.314
46.74000 128.152
46.76000 133.124
46.78000 132.095
46.80000 123.603
46.82000 129.232
46.84000 125.537
46.86000 120.891
46.88000 121.936
46.90000 128.573
46.92000 126.553
46.94000 120.778
46.96000 122.136
46.98000 122.484
47.00000 118.497
47.02000 115.836
47.04000 115.117
47.06000 112.496
47.08000 111.903
47.10000 109.330
47.12000 107.236
47.14000 101.823
47.16000 99.509
47.18000 100.179
47.20000 93.678
47.22000 92.425
47.24000 99.243
47.26000 87.170
47.28000 78.615
47.30000 83.673
47.32000 82.704
47.34000 76.468
47.36000 70.793
47.38000 70.616
47.40000 64.997
47.42000 64.989
47.44000 63.164
47.46000 64.932
47.48000 53.506
47.50000 55.399
47.52000 51.804
47.54000 44.408
47.56000 42.646
47.58000 42.536
47.60000 41.520
47.62000 36.064
47.64000 36.195
47.66000 33.118
47.68000 33.476
47.70000 34.731
47.72000 31.929
47.74000 31.969
47.76000 34.059
47.78000 28.654
47.80000 24.098
47.82000 20.501
47.84000 18.269
47.86000 17.651
47.88000 16.735
47.90000 15.126
47.92000 17.164
47.94000 16.496
47.96000 14.694
47.98000 7.171
48.00000 6.080
48.02000 6.017
48.04000 8.361
48.06000 10.040
48.08000 9.323
48.10000 5.152
48.12000 3.462
48.14000 3.846
48.16000 6.184
48.18000 7.237
48.20000 0.273
48.22000 -0.946
48.24000 2.965
48.26000 0.477
48.28000 1.115
48.30000 1.773
48.32000 3.001
48.34000 4.501
48.36000 2.326
48.38000 3.146
48.40000 3.022
48.42000 5.296
48.44000 3.215
48.46000 1.766
48.48000 -1.782
48.50000 -0.819
48.52000 1.733
48.54000 0.940
48.56000 2.615
48.58000 0.901
48.60000 3.664
48.62000 4.455
48.64000 5.181
48.66000 3.536
48.68000 6.339
48.70000 5.529
48.72000 1.888
48.74000 3.349
48.76000 1.096
48.78000 4.015
48.80000 3.226
48.82000 4.716
48.84000 4.021
48.86000 1.089
48.88000 -2.829
48.90000 2.179
48.92000 1.659
48.94000 -0.227
48.96000 -0.456
48.98000 2.194
49.00000 -2.871
49.02000 -0.487
49.04000 4.460
49.06000 0.184
49.08000 -1.599
49.10000 1.387
49.12000 0.635
49.14000 -2.844
49.16000 0.203
49.18000 2.074
49.20000 1.648
49.22000 1.698
49.24000 -1.611
49.26000 2.358
49.28000 4.320
49.30000 3.684
49.32000 5.201
49.34000 4.961
49.36000 2.477
49.38000 4.227
49.40000 1.388
49.42000 1.387
49.44000 3.473
49.46000 1.488
49.48000 1.397
49.50000 2.460
49.52000 0.901
49.54000 3.986
49.56000 2.490
49.58000 -0.490
49.60000 1.685
49.62000 5.279
49.64000 2.280
49.66000 0.055
49.68000 0.104
49.70000 1.277
49.72000 2.155
49.74000 -0.769
49.76000 -0.532
49.78000 1.171
49.80000 2.251
49.82000 4.294
49.84000 4.109
49.86000 1.463
49.88000 0.076
49.90000 6.040
49.92000 6.743
49.94000 3.683
49.96000 2.844
49.98000 3.788
50.00000 3.789
50.02000 3.805
50.04000 1.368
50.06000 4.877
50.08000 4.633
50.10000 1.070
50.12000 -1.265
50.14000 3.667
50.16000 10.466
50.18000 3.470
50.20000 -0.943
50.22000 -2.754
50.24000 1.376
50.26000 3.254
50.28000 0.991
50.30000 0.935
50.32000 3.891
50.34000 3.625
50.36000 0.189
50.38000 -2.738
50.40000 -0.045
50.42000 1.962
50.44000 1.079
50.46000 0.691
50.48000 4.776
50.50000 1.994
50.52000 1.285
50.54000 2.452
50.56000 6.610
50.58000 6.124
50.60000 5.044
50.62000 4.945
50.64000 4.525
50.66000 4.392
50.68000 5.017
50.70000 6.807
50.72000 3.154
50.74000 3.449
50.76000 2.932
50.78000 4.919
50.80000 6.224
50.82000 2.802
50.84000 8.434
50.86000 5.531
50.88000 3.073
50.90000 5.085
50.92000 2.335
50.94000 1.238
50.96000 4.141
50.98000 4.497
51.00000 6.297
51.02000 5.959
51.04000 6.273
51.06000 8.524
51.08000 11.155
51.10000 6.432
51.12000 0.980
51.14000 -1.447
51.16000 -2.669
51.18000 0.469
51.20000 5.149
51.22000 3.500
51.24000 4.521
51.26000 2.837
51.28000 4.988
51.30000 7.074
51.32000 6.433
51.34000 1.716
51.36000 1.501
51.38000 2.420
51.40000 2.684
51.42000 0.497
51.44000 1.942
51.46000 3.981
51.48000 -1.501
51.50000 0.760
51.52000 4.628
51.54000 1.105
51.56000 4.380
51.58000 5.056
51.60000 11.807
51.62000 7.477
51.64000 7.112
51.66000 5.504
51.68000 6.314
51.70000 6.316
51.72000 3.641
51.74000 6.536
51.76000 1.405
51.78000 2.912
51.80000 5.800
51.82000 5.613
51.84000 1.047
51.86000 -1.533
51.88000 -0.978
51.90000 0.694
51.92000 3.970
51.94000 6.082
51.96000 4.082
51.98000 6.946
52.00000 7.975
52.02000 2.445
52.04000 3.948
52.06000 2.286
52.08000 2.239
52.10000 0.309
52.12000 -0.562
52.14000 -2.073
52.16000 -0.265
52.18000 6.200
52.20000 7.679
52.22000 7.372
52.24000 6.856
52.26000 0.276
52.28000 2.640
52.30000 4.276
52.32000 -2.638
52.34000 0.257
52.36000 4.775
52.38000 4.452
52.40000 5.925
52.42000 6.959
52.44000 6.299
52.46000 3.927
52.48000 5.031
52.50000 3.606
52.52000 2.905
52.54000 3.095
52.56000 5.663
52.58000 4.940
52.60000 5.711
52.62000 5.281
52.64000 6.372
52.66000 4.417
52.68000 2.095
52.70000 -2.642
52.72000 5.009
52.74000 1.707
52.76000 4.068
52.78000 3.946
52.80000 0.936
52.82000 2.459
52.84000 4.976
52.86000 6.643
52.88000 8.241
52.90000 4.306
52.92000 1.898
52.94000 -0.587
52.96000 -1.103
52.98000 0.059
53.00000 0.055
53.02000 2.903
53.04000 2.971
53.06000 -2.644
53.08000 -2.376
53.10000 2.417
53.12000 2.839
53.14000 -0.772
53.16000 1.459
53.18000 -0.821
53.20000 1.972
53.22000 1.570
53.24000 0.357
53.26000 -2.642
53.28000 0.574
53.30000 2.803
53.32000 1.164
53.34000 -1.704
53.36000 -0.558
53.38000 2.522
53.40000 1.759
53.42000 -1.357
53.44000 1.432
53.46000 1.810
53.48000 1.809
53.50000 3.148
53.52000 2.357
53.54000 2.927
53.56000 2.532
53.58000 3.983
53.60000 0.003
53.62000 1.530
53.64000 0.713
53.66000 2.900
53.68000 -1.335
53.70000 -2.630
53.72000 -0.820
53.74000 3.108
53.76000 5.145
53.78000 2.917
53.80000 -1.256
53.82000 0.023
53.84000 2.084
53.86000 4.705
53.88000 -1.009
53.90000 1.961
53.92000 2.269
53.94000 -0.220
53.96000 1.835
53.98000 3.928
54.00000 6.377
54.02000 5.669
54.04000 3.351
54.06000 -0.042
54.08000 -1.882
54.10000 1.012
54.12000 2.375
54.14000 0.930
54.16000 1.215
54.18000 0.285
54.20000 1.229
54.22000 0.190
54.24000 3.087
54.26000 3.674
54.28000 4.030
54.30000 4.435
54.32000 1.248
54.34000 1.731
54.36000 3.205
54.38000 4.839
54.40000 3.355
54.42000 0.627
54.44000 2.705
54.46000 -1.586
54.48000 -2.604
54.50000 5.030
54.52000 6.495
54.54000 2.211
54.56000 0.667
54.58000 5.076
54.60000 5.651
54.62000 -0.166
54.64000 -1.723
54.66000 -1.433
54.68000 1.429
54.70000 2.996
54.72000 2.907
54.74000 -0.537
54.76000 3.025
54.78000 5.482
54.80000 3.925
54.82000 0.456
54.84000 -0.341
54.86000 1.779
54.88000 3.027
54.90000 4.891
54.92000 1.712
54.94000 -1.779
54.96000 3.840
54.98000 5.337
55.00000 3.103
55.02000 -0.867
55.04000 -2.583
55.06000 -1.498
55.08000 2.199
55.10000 4.909
55.12000 3.107
55.14000 2.558
55.16000 0.791
55.18000 -0.276
55.20000 0.697
55.22000 1.969
55.24000 4.346
55.26000 4.902
55.28000 4.845
55.30000 3.454
55.32000 -2.574
55.34000 -1.047
55.36000 1.508
55.38000 2.350
55.40000 3.350
55.42000 0.450
55.44000 4.587
55.46000 5.860
55.48000 7.161
55.50000 0.833
55.52000 3.119
55.54000 7.701
55.56000 3.371
55.58000 0.542
55.60000 0.907
55.62000 1.459
55.64000 2.213
55.66000 8.360
55.68000 6.901
55.70000 5.127
55.72000 5.751
55.74000 5.956
55.76000 2.911
55.78000 -2.283
55.80000 -2.553
55.82000 -1.678
55.84000 2.342
55.86000 -0.303
55.88000 0.492
55.90000 4.658
55.92000 3.801
55.94000 4.005
55.96000 5.035
55.98000 0.679
56.00000 -0.459
56.02000 4.384
56.04000 4.694
56.06000 -0.180
56.08000 -0.673
56.10000 0.203
56.12000 -0.618
56.14000 -0.659
56.16000 1.624
56.18000 0.572
56.20000 -0.050
56.22000 -2.553
56.24000 -1.179
56.26000 0.072
56.28000 -1.338
56.30000 0.582
56.32000 1.299
56.34000 2.745
56.36000 3.413
56.38000 2.708
56.40000 2.965
56.42000 5.194
56.44000 4.494
56.46000 0.946
56.48000 -2.135
56.50000 -0.286
56.52000 2.785
56.54000 4.007
56.56000 0.399
56.58000 -1.272
56.60000 -0.407
56.62000 3.338
56.64000 3.859
56.66000 2.052
56.68000 -0.032
56.70000 -1.176
56.72000 -1.531
56.74000 -0.425
56.76000 2.147
56.78000 1.201
56.80000 1.184
56.82000 6.808
56.84000 3.565
56.86000 -2.164
56.88000 -0.140
56.90000 1.590
56.92000 0.778
56.94000 -0.778
56.96000 3.724
56.98000 1.205
57.00000 -0.157
57.02000 1.069
57.04000 0.306
57.06000 1.705
57.08000 -0.940
57.10000 -1.096
57.12000 -2.519
57.14000 -1.719
57.16000 0.497
57.18000 -0.027
57.20000 -0.452
57.22000 1.057
57.24000 2.757
57.26000 2.100
57.28000 -1.366
57.30000 -1.122
57.32000 0.305
57.34000 1.639
57.36000 2.606
57.38000 1.255
57.40000 5.229
57.42000 4.040
57.44000 1.836
57.46000 1.159
57.48000 2.396
57.50000 1.839
57.52000 4.017
57.54000 1.507
57.56000 -1.490
57.58000 2.304
57.60000 2.430
57.62000 -2.508
57.64000 -2.094
57.66000 1.525
57.68000 3.255
57.70000 1.192
57.72000 4.059
57.74000 5.652
57.76000 3.042
57.78000 2.869
57.80000 6.741
57.82000 3.510
57.84000 -0.636
57.86000 -0.283
57.88000 1.502
57.90000 0.015
57.92000 1.913
57.94000 0.219
57.96000 0.219
57.98000 4.355
58.00000 0.415
58.02000 -0.319
58.04000 0.789
58.06000 3.442
58.08000 2.108
58.10000 3.665
58.12000 7.635
58.14000 9.618
58.16000 1.200
58.18000 2.863
58.20000 0.588
58.22000 -1.255
58.24000 1.090
58.26000 1.067
58.28000 3.395
58.30000 1.788
58.32000 1.476
58.34000 -0.141
58.36000 0.509
58.38000 -2.477
58.40000 0.728
58.42000 1.903
58.44000 2.183
58.46000 2.094
58.48000 2.647
58.50000 1.363
58.52000 -0.244
58.54000 0.176
58.56000 -1.129
58.58000 1.152
58.60000 0.650
58.62000 -0.656
58.64000 1.302
58.66000 4.106
58.68000 2.883
58.70000 -0.230
58.72000 -2.465
58.74000 4.209
58.76000 5.260
58.78000 -1.531
58.80000 0.700
58.82000 2.145
58.84000 4.609
58.86000 6.381
58.88000 4.114
58.90000 2.554
58.92000 3.527
58.94000 5.745
58.96000 3.140
58.98000 1.651
59.00000 -0.709
59.02000 2.819
59.04000 0.344
59.06000 -2.031
59.08000 3.514
59.10000 2.498
59.12000 0.037
59.14000 1.623
59.16000 1.234
59.18000 1.984
59.20000 3.842
59.22000 3.753
59.24000 2.319
59.26000 4.086
59.28000 3.958
59.30000 1.703
59.32000 -1.719
59.34000 -0.375
59.36000 -1.505
59.38000 0.856
59.40000 0.277
59.42000 0.024
59.44000 5.051
59.46000 -0.491
59.48000 0.031
59.50000 5.866
59.52000 4.206
59.54000 2.611
59.56000 3.257
59.58000 -0.385
59.60000 1.422
59.62000 1.652
59.64000 3.814
59.66000 3.751
59.68000 2.119
59.70000 0.591
59.72000 1.103
59.74000 3.804
59.76000 5.642
59.78000 6.464
59.80000 4.769
59.82000 1.106
59.84000 2.644
59.86000 2.137
59.88000 4.679
59.90000 6.971
59.92000 4.625
59.94000 0.854
59.96000 -2.419
59.98000 1.102
60.00000 2.970
60.02000 4.479
60.04000 4.545
60.06000 3.107
60.08000 2.462
60.10000 3.301
60.12000 6.212
60.14000 3.075
60.16000 1.841
60.18000 -2.213
60.20000 0.318
60.22000 0.449
60.24000 -1.963
60.26000 3.074
60.28000 2.645
60.30000 3.921
60.32000 1.008
60.34000 -0.156
60.36000 0.441
60.38000 3.276
60.40000 6.588
60.42000 5.386
60.44000 2.831
60.46000 3.021
60.48000 3.288
60.50000 -0.141
60.52000 0.959
60.54000 3.386
60.56000 2.255
60.58000 0.520
60.60000 0.876
60.62000 2.257
60.64000 4.263
60.66000 3.485
60.68000 4.823
60.70000 0.638
60.72000 1.067
60.74000 -0.448
60.76000 1.955
60.78000 1.156
60.80000 0.478
60.82000 4.092
60.84000 3.165
60.86000 3.513
60.88000 3.652
60.90000 2.773
60.92000 3.146
60.94000 0.235
60.96000 3.720
60.98000 4.412
61.00000 -2.264
61.02000 -1.342
61.04000 7.995
61.06000 4.902
61.08000 3.804
61.10000 5.681
61.12000 6.201
61.14000 4.901
61.16000 6.886
61.18000 3.749
61.20000 6.235
61.22000 5.762
61.24000 4.723
61.26000 5.350
61.28000 1.618
61.30000 -1.954
61.32000 -2.370
61.34000 3.676
61.36000 7.155
61.38000 6.395
61.40000 6.899
61.42000 6.886
61.44000 6.551
61.46000 4.641
61.48000 1.812
61.50000 2.710
61.52000 3.069
61.54000 5.893
61.56000 2.477
61.58000 4.180
61.60000 2.440
61.62000 0.905
61.64000 0.026
61.66000 3.504
61.68000 7.470
61.70000 6.399
61.72000 7.699
61.74000 6.292
61.76000 6.594
61.78000 2.416
61.80000 -2.371
61.82000 0.258
61.84000 2.440
61.86000 4.783
61.88000 2.516
61.90000 0.786
61.92000 4.167
61.94000 3.054
61.96000 4.246
61.98000 3.350
62.00000 3.572
62.02000 2.671
62.04000 0.673
62.06000 -0.128
62.08000 3.504
62.10000 4.318
62.12000 2.798
62.14000 0.690
62.16000 -0.028
62.18000 2.521
62.20000 -0.101
62.22000 3.007
62.24000 3.839
62.26000 1.356
62.28000 3.803
62.30000 1.012
62.32000 0.219
62.34000 2.884
62.36000 2.114
62.38000 -0.004
62.40000 0.572
62.42000 1.448
62.44000 2.815
62.46000 2.352
62.48000 2.716
62.50000 3.297
62.52000 0.625
62.54000 2.086
62.56000 4.319
62.58000 3.792
62.60000 4.202
62.62000 5.841
62.64000 2.951
62.66000 2.499
62.68000 2.869
62.70000 0.789
62.72000 -0.018
62.74000 1.528
62.76000 3.316
62.78000 1.571
62.80000 0.712
62.82000 -0.152
62.84000 -0.928
62.86000 0.225
62.88000 -1.047
62.90000 1.698
62.92000 1.230
62.94000 0.513
62.96000 -0.197
62.98000 -0.412
63.00000 2.142
63.02000 0.829
63.04000 2.037
63.06000 1.341
63.08000 -0.255
63.10000 -1.374
63.12000 -1.377
63.14000 1.506
63.16000 2.533
63.18000 -0.433
63.20000 -0.067
63.22000 -0.293
63.24000 -2.392
63.26000 -1.612
63.28000 -0.890
63.30000 -0.427
63.32000 -2.084
63.34000 -0.852
63.36000 -0.143
63.38000 -2.241
63.40000 0.563
63.42000 -0.141
63.44000 -0.759
63.46000 2.239
63.48000 -0.964
63.50000 -0.766
63.52000 1.449
63.54000 2.032
63.56000 3.610
63.58000 2.809
63.60000 2.870
63.62000 2.806
63.64000 3.893
63.66000 2.315
63.68000 1.131
63.70000 -0.050
63.72000 0.074
63.74000 1.359
63.76000 -2.402
63.78000 -2.396
63.80000 -0.582
63.82000 2.826
63.84000 -0.983
63.86000 2.138
63.88000 3.429
63.90000 1.875
63.92000 -0.324
63.94000 1.634
63.96000 1.055
63.98000 -1.149
64.00000 -1.902
64.02000 1.078
64.04000 0.499
64.06000 -2.100
64.08000 -1.017
64.10000 0.749
64.12000 0.847
64.14000 0.210
64.16000 2.419
64.18000 6.357
64.20000 2.328
64.22000 1.231
64.24000 1.303
64.26000 1.783
64.28000 -1.525
64.30000 0.912
64.32000 1.176
64.34000 3.431
64.36000 5.956
64.38000 4.602
64.40000 1.824
64.42000 -0.807
64.44000 -2.071
64.46000 -2.385
64.48000 0.294
64.50000 5.280
64.52000 4.214
64.54000 3.483
64.56000 4.592
64.58000 3.753
64.60000 2.789
64.62000 -0.789
64.64000 0.804
64.66000 2.808
64.68000 -0.325
64.70000 -1.170
64.72000 2.111
64.74000 2.961
64.76000 2.902
64.78000 5.039
64.80000 -0.424
64.82000 0.663
64.84000 2.051
64.86000 -0.668
64.88000 1.152
64.90000 1.420
64.92000 1.591
64.94000 -0.504
64.96000 4.536
64.98000 3.466
65.00000 -0.406
65.02000 -0.399
65.04000 -1.098
65.06000 -0.291
65.08000 -2.417
65.10000 0.709
65.12000 2.809
65.14000 3.356
65.16000 1.446
65.18000 2.283
65.20000 1.166
65.22000 2.630
65.24000 0.556
65.26000 0.429
65.28000 -1.297
65.30000 1.568
65.32000 -0.751
65.34000 -1.023
65.36000 -0.132
65.38000 1.207
65.40000 -1.563
65.42000 0.094
65.44000 -0.818
65.46000 2.783
65.48000 2.558
65.50000 0.510
65.52000 2.496
65.54000 0.427
65.56000 1.946
65.58000 1.577
65.60000 -0.213
65.62000 -1.395
65.64000 0.521
65.66000 -0.725
65.68000 0.355
65.70000 0.127
65.72000 0.513
65.74000 1.396
65.76000 0.515
65.78000 0.152
65.80000 -2.072
65.82000 -1.229
65.84000 0.354
65.86000 1.888
65.88000 0.284
65.90000 -0.856
65.92000 -0.876
65.94000 -2.468
65.96000 0.530
65.98000 -1.031
66.00000 -0.735
66.02000 4.024
66.04000 2.738
66.06000 1.767
66.08000 1.435
66.10000 0.291
66.12000 -1.987
66.14000 0.344
66.16000 1.166
66.18000 -2.477
66.20000 -0.659
66.22000 -0.554
66.24000 0.061
66.26000 2.772
66.28000 2.553
66.30000 1.114
66.32000 2.846
66.34000 4.244
66.36000 3.465
66.38000 0.344
66.40000 1.257
66.42000 0.154
66.44000 0.452
66.46000 1.959
66.48000 -1.954
66.50000 -1.916
66.52000 1.265
66.54000 -0.619
66.56000 0.473
66.58000 0.326
66.60000 -1.374
66.62000 1.341
66.64000 1.380
66.66000 -2.496
66.68000 -1.154
66.70000 2.133
66.72000 2.133
66.74000 4.474
66.76000 3.063
66.78000 2.691
66.80000 2.390
66.82000 4.577
66.84000 4.763
66.86000 3.060
66.88000 3.045
66.90000 2.261
66.92000 3.664
66.94000 4.936
66.96000 2.310
66.98000 4.680
67.00000 3.854
67.02000 2.274
67.04000 4.741
67.06000 4.413
67.08000 4.978
67.10000 3.842
67.12000 2.960
67.14000 5.570
67.16000 5.071
67.18000 2.858
67.20000 2.866
67.22000 6.173
67.24000 5.263
67.26000 5.764
67.28000 7.708
67.30000 8.677
67.32000 9.636
67.34000 9.580
67.36000 6.960
67.38000 7.790
67.40000 6.476
67.42000 6.574
67.44000 4.333
67.46000 7.344
67.48000 9.340
67.50000 15.060
67.52000 15.511
67.54000 11.639
67.56000 12.349
67.58000 10.287
67.60000 13.474
67.62000 14.354
67.64000 12.440
67.66000 11.607
67.68000 11.009
67.70000 15.909
67.72000 15.623
67.74000 18.287
67.76000 17.388
67.78000 14.584
67.80000 16.745
67.82000 18.627
67.84000 19.356
67.86000 16.882
67.88000 19.854
67.90000 19.796
67.92000 17.776
67.94000 19.552
67.96000 21.487
67.98000 25.227
68.00000 27.182
68.02000 22.168
68.04000 20.804
68.06000 24.032
68.08000 25.174
68.10000 22.083
68.12000 20.497
68.14000 22.413
68.16000 24.003
68.18000 23.553
68.20000 24.351
68.22000 29.749
68.24000 29.980
68.26000 28.261
68.28000 26.062
68.30000 25.829
68.32000 26.274
68.34000 26.759
68.36000 27.399
68.38000 28.527
68.40000 27.205
68.42000 28.711
68.44000 28.484
68.46000 26.927
68.48000 24.232
68.50000 26.641
68.52000 24.951
68.54000 22.538
68.56000 23.073
68.58000 25.098
68.60000 24.324
68.62000 22.110
68.64000 24.515
68.66000 21.061
68.68000 19.366
68.70000 20.019
68.72000 21.732
68.74000 20.633
68.76000 21.023
68.78000 22.026
68.80000 20.339
68.82000 21.560
68.84000 19.366
68.86000 18.091
68.88000 18.120
68.90000 19.644
68.92000 15.705
68.94000 11.809
68.96000 9.582
68.98000 10.993
69.00000 9.436
69.02000 7.173
69.04000 10.250
69.06000 13.243
69.08000 11.420
69.10000 6.265
69.12000 5.101
69.14000 6.053
69.16000 4.714
69.18000 1.132
69.20000 3.537
69.22000 6.013
69.24000 4.860
69.26000 3.448
69.28000 4.668
69.30000 5.491
69.32000 5.758
69.34000 4.114
69.36000 3.073
69.38000 2.532
69.40000 5.924
69.42000 5.512
69.44000 1.911
69.46000 4.936
69.48000 5.277
69.50000 3.594
69.52000 0.570
69.54000 -0.076
69.56000 0.004
69.58000 3.011
69.60000 3.301
69.62000 1.991
69.64000 2.483
69.66000 -0.027
69.68000 -1.598
69.70000 -2.420
69.72000 -1.955
69.74000 1.813
69.76000 2.533
69.78000 2.618
69.80000 4.480
69.82000 2.037
69.84000 0.521
69.86000 -0.039
69.88000 0.950
69.90000 -0.232
69.92000 -0.832
69.94000 -1.081
69.96000 -0.213
69.98000 -0.653
70.00000 -1.382
70.02000 0.349
70.04000 1.838
70.06000 2.602
70.08000 1.754
70.10000 -1.102
70.12000 -1.214
70.14000 2.655
70.16000 -0.312
70.18000 -0.665
70.20000 -1.519
70.22000 0.521
70.24000 1.079
70.26000 2.550
70.28000 0.820
70.30000 1.682
70.32000 1.621
70.34000 3.552
70.36000 2.239
70.38000 0.667
70.40000 0.252
70.42000 1.944
70.44000 4.657
70.46000 2.416
70.48000 0.014
70.50000 0.255
70.52000 -1.465
70.54000 0.111
70.56000 -0.923
70.58000 -0.456
70.60000 -1.361
70.62000 1.166
70.64000 2.638
70.66000 2.101
70.68000 -1.222
70.70000 -2.309
70.72000 0.785
70.74000 1.757
70.76000 1.321
70.78000 -0.306
70.80000 -0.292
70.82000 -1.704
70.84000 -0.535
70.86000 3.664
70.88000 6.032
70.90000 7.559
70.92000 3.342
70.94000 1.818
70.96000 5.462
70.98000 5.421
71.00000 2.025
71.02000 2.002
71.04000 0.675
71.06000 -1.072
71.08000 -0.439
71.10000 2.184
71.12000 -0.234
71.14000 -0.448
71.16000 0.296
71.18000 2.770
71.20000 1.703
71.22000 0.335
71.24000 -0.309
71.26000 1.417
71.28000 -0.036
71.30000 4.204
71.32000 5.034
71.34000 3.441
71.36000 0.887
71.38000 -1.000
71.40000 0.927
71.42000 4.122
71.44000 3.894
71.46000 3.561
71.48000 0.006
71.50000 2.538
71.52000 2.861
71.54000 3.753
71.56000 3.874
71.58000 1.547
71.60000 2.454
71.62000 0.883
71.64000 3.645
71.66000 4.201
71.68000 0.920
71.70000 -0.725
71.72000 -1.190
71.74000 -2.254
71.76000 -0.048
71.78000 1.413
71.80000 0.873
71.82000 3.551
71.84000 -0.508
71.86000 0.742
71.88000 4.834
71.90000 0.473
71.92000 -2.256
71.94000 -1.012
71.96000 4.722
71.98000 3.396
72.00000 0.134
72.02000 2.908
72.04000 3.276
72.06000 2.304
72.08000 2.596
72.10000 2.470
72.12000 1.199
72.14000 3.201
72.16000 5.756
72.18000 3.270
72.20000 2.169
72.22000 0.562
72.24000 0.165
72.26000 1.626
72.28000 0.530
72.30000 0.289
72.32000 -0.867
72.34000 0.067
72.36000 0.525
72.38000 0.260
72.40000 1.654
72.42000 2.882
72.44000 0.979
72.46000 0.514
72.48000 1.544
72.50000 -0.405
72.52000 1.254
72.54000 4.651
72.56000 5.385
72.58000 5.653
72.60000 5.084
72.62000 2.022
72.64000 1.000
72.66000 -1.312
72.68000 0.606
72.70000 3.153
72.72000 2.904
72.74000 0.055
72.76000 2.624
72.78000 1.081
72.80000 -0.522
72.82000 3.677
72.84000 4.097
72.86000 4.396
72.88000 3.804
72.90000 1.439
72.92000 -0.645
72.94000 0.036
72.96000 1.720
72.98000 0.854
73.00000 -2.212
73.02000 1.484
73.04000 0.701
73.06000 -1.860
73.08000 -2.209
73.10000 0.441
73.12000 1.708
73.14000 2.709
73.16000 3.066
73.18000 6.068
73.20000 3.545
73.22000 1.574
73.24000 6.312
73.26000 2.499
73.28000 2.957
73.30000 1.996
73.32000 1.609
73.34000 2.493
73.36000 0.617
73.38000 1.236
73.40000 4.526
73.42000 1.618
73.44000 2.682
73.46000 3.898
73.48000 5.866
73.50000 3.330
73.52000 3.835
73.54000 2.582
73.56000 2.783
73.58000 -2.212
73.60000 2.835
73.62000 2.878
73.64000 3.432
73.66000 4.320
73.68000 3.265
73.70000 1.512
73.72000 4.458
73.74000 5.206
73.76000 2.873
73.78000 1.908
73.80000 5.444
73.82000 3.537
73.84000 0.032
73.86000 -1.160
73.88000 1.399
73.90000 2.078
73.92000 -0.406
73.94000 0.581
73.96000 4.962
73.98000 1.724
74.00000 4.328
74.02000 6.229
74.04000 4.479
74.06000 3.075
74.08000 5.935
74.10000 5.829
74.12000 6.183
74.14000 3.933
74.16000 3.996
74.18000 0.610
74.20000 1.477
74.22000 1.842
74.24000 -0.867
74.26000 0.205
74.28000 -0.809
74.30000 1.058
74.32000 4.319
74.34000 1.389
74.36000 1.798
74.38000 2.671
74.40000 1.936
74.42000 2.538
74.44000 1.863
74.46000 2.451
74.48000 3.135
74.50000 4.474
74.52000 3.587
74.54000 0.397
74.56000 0.711
74.58000 2.155
74.60000 0.895
74.62000 0.982
74.64000 1.969
74.66000 0.179
74.68000 1.334
74.70000 -1.678
74.72000 1.112
74.74000 4.211
74.76000 -0.290
74.78000 0.117
74.80000 3.575
74.82000 4.142
74.84000 0.952
74.86000 2.330
74.88000 0.138
74.90000 1.306
74.92000 1.163
74.94000 -1.720
74.96000 -2.197
74.98000 2.789
75.00000 4.345
75.02000 4.796
75.04000 4.169
75.06000 4.545
75.08000 7.972
75.10000 7.704
75.12000 8.141
75.14000 4.195
75.16000 3.805
75.18000 3.128
75.20000 4.196
75.22000 7.264
75.24000 3.273
75.26000 -0.036
75.28000 0.096
75.30000 7.066
75.32000 1.557
75.34000 -2.202
75.36000 -0.073
75.38000 1.597
75.40000 5.631
75.42000 6.225
75.44000 3.818
75.46000 5.340
75.48000 4.609
75.50000 4.857
75.52000 3.149
75.54000 2.378
75.56000 5.077
75.58000 4.497
75.60000 0.473
75.62000 -0.685
75.64000 0.206
75.66000 1.591
75.68000 1.199
75.70000 2.665
75.72000 0.625
75.74000 3.474
75.76000 1.632
75.78000 4.071
75.80000 -1.161
75.82000 0.927
75.84000 -2.196
75.86000 -1.394
75.88000 0.357
75.90000 0.194
75.92000 1.630
75.94000 5.011
75.96000 6.332
75.98000 6.740
76.00000 5.898
76.02000 6.401
76.04000 6.737
76.06000 6.903
76.08000 6.838
76.10000 4.877
76.12000 3.832
76.14000 5.892
76.16000 5.604
76.18000 3.234
76.20000 6.586
76.22000 6.699
76.24000 5.715
76.26000 3.348
76.28000 3.097
76.30000 5.178
76.32000 3.397
76.34000 4.883
76.36000 7.894
76.38000 4.647
76.40000 3.163
76.42000 4.336
76.44000 2.578
76.46000 -1.253
76.48000 -2.169
76.50000 1.362
76.52000 3.697
76.54000 5.564
76.56000 7.397
76.58000 9.542
76.60000 8.374
76.62000 5.219
76.64000 6.788
76.66000 5.498
76.68000 6.292
76.70000 5.531
76.72000 2.287
76.74000 2.630
76.76000 3.876
76.78000 3.428
76.80000 2.404
76.82000 -0.597
76.84000 6.759
76.86000 6.728
76.88000 5.082
76.90000 4.953
76.92000 5.841
76.94000 6.148
76.96000 4.787
76.98000 5.577
77.00000 4.957
77.02000 4.181
77.04000 3.862
77.06000 5.386
77.08000 3.605
77.10000 5.601
77.12000 4.311
77.14000 4.898
77.16000 5.246
77.18000 1.269
77.20000 3.254
77.22000 0.833
77.24000 -1.822
77.26000 5.030
77.28000 1.210
77.30000 3.135
77.32000 0.957
77.34000 5.354
77.36000 10.119
77.38000 4.676
77.40000 1.878
77.42000 2.955
77.44000 6.185
77.46000 1.412
77.48000 5.324
77.50000 5.925
77.52000 7.208
77.54000 6.339
77.56000 3.771
77.58000 3.978
77.60000 -0.020
77.62000 -0.645
77.64000 -1.680
77.66000 0.121
77.68000 4.206
77.70000 3.896
77.72000 3.975
77.74000 3.264
77.76000 -1.553
77.78000 -2.237
77.80000 -2.204
77.82000 2.969
77.84000 4.304
77.86000 1.926
77.88000 2.776
77.90000 2.596
77.92000 2.358
77.94000 3.393
77.96000 2.520
77.98000 2.869
78.00000 1.759
78.02000 5.960
78.04000 5.536
78.06000 2.204
78.08000 0.411
78.10000 3.437
78.12000 4.368
78.14000 2.057
78.16000 1.405
78.18000 1.234
78.20000 -0.675
78.22000 0.720
78.24000 2.149
78.26000 -1.178
78.28000 1.319
78.30000 7.399
78.32000 4.548
78.34000 0.828
78.36000 2.127
78.38000 -0.363
78.40000 -2.276
78.42000 -0.543
78.44000 0.202
78.46000 2.947
78.48000 2.999
78.50000 0.320
78.52000 0.208
78.54000 2.784
78.56000 2.768
78.58000 3.663
78.60000 1.674
78.62000 -0.352
78.64000 2.736
78.66000 2.634
78.68000 3.289
78.70000 1.337
78.72000 1.676
78.74000 1.868
78.76000 2.190
78.78000 0.648
78.80000 1.835
78.82000 4.562
78.84000 1.998
78.86000 -2.289
78.88000 -1.181
78.90000 1.843
78.92000 2.345
78.94000 0.996
78.96000 2.361
78.98000 1.248
79.00000 3.614
79.02000 5.841
79.04000 1.532
79.06000 0.534
79.08000 0.012
79.10000 0.353
79.12000 2.870
79.14000 2.953
79.16000 2.925
79.18000 -0.817
79.20000 -1.760
79.22000 -2.312
79.24000 2.213
79.26000 1.207
79.28000 3.040
79.30000 3.393
79.32000 4.493
79.34000 2.358
79.36000 1.656
79.38000 2.495
79.40000 6.364
79.42000 -0.014
79.44000 3.075
79.46000 5.744
79.48000 2.396
79.50000 -0.142
79.52000 -2.334
79.54000 -0.443
79.56000 0.714
79.58000 1.933
79.60000 2.402
79.62000 2.378
79.64000 1.419
79.66000 3.049
79.68000 3.258
79.70000 2.401
79.72000 3.595
79.74000 1.319
79.76000 0.487
79.78000 0.699
79.80000 -0.367
79.82000 4.787
79.84000 1.381
79.86000 2.430
79.88000 -2.090
79.90000 0.048
79.92000 3.231
79.94000 4.064
79.96000 0.966
79.98000 -2.357
80.00000 1.270
80.02000 2.461
80.04000 4.107
80.06000 5.967
80.08000 -2.206
80.10000 -2.372
80.12000 -1.413
80.14000 -0.574
80.16000 0.429
80.18000 0.750
80.20000 1.018
80.22000 1.441
80.24000 -0.353
80.26000 -1.289
80.28000 1.174
80.30000 2.381
80.32000 5.033
80.34000 1.516
80.36000 1.452
80.38000 1.240
80.40000 4.574
80.42000 2.508
80.44000 2.386
80.46000 0.022
80.48000 0.369
80.50000 1.709
80.52000 1.536
80.54000 2.428
80.56000 3.466
80.58000 2.392
80.60000 2.817
80.62000 6.022
80.64000 7.067
80.66000 1.150
80.68000 3.871
80.70000 7.211
80.72000 4.843
80.74000 4.109
80.76000 5.340
80.78000 6.518
80.80000 3.211
80.82000 5.489
80.84000 5.056
80.86000 4.967
80.88000 7.907
80.90000 8.764
80.92000 6.641
80.94000 5.445
80.96000 9.339
80.98000 8.774
81.00000 5.214
81.02000 5.280
81.04000 2.094
81.06000 7.050
81.08000 4.255
81.10000 5.395
81.12000 10.524
81.14000 10.064
81.16000 6.479
81.18000 9.253
81.20000 11.567
81.22000 8.417
81.24000 8.202
81.26000 7.550
81.28000 10.126
81.30000 9.734
81.32000 10.220
81.34000 8.558
81.36000 12.210
81.38000 16.874
81.40000 13.495
81.42000 19.398
81.44000 13.541
81.46000 18.984
81.48000 21.132
81.50000 12.943
81.52000 9.850
81.54000 16.370
81.56000 15.041
81.58000 14.982
81.60000 16.021
81.62000 13.950
81.64000 16.383
81.66000 22.497
81.68000 19.940
81.70000 18.366
81.72000 19.037
81.74000 18.773
81.76000 24.258
81.78000 20.360
81.80000 18.114
81.82000 15.525
81.84000 15.552
81.86000 16.911
81.88000 24.814
81.90000 24.414
81.92000 23.396
81.94000 23.426
81.96000 19.065
81.98000 24.795
82.00000 26.903
82.02000 25.225
82.04000 25.601
82.06000 26.189
82.08000 30.107
82.10000 24.160
82.12000 28.594
82.14000 30.088
82.16000 25.859
82.18000 24.403
82.20000 29.064
82.22000 29.268
82.24000 28.611
82.26000 28.283
82.28000 28.142
82.30000 33.937
82.32000 35.861
82.34000 35.820
82.36000 32.656
82.38000 28.979
82.40000 34.408
82.42000 32.744
82.44000 29.185
82.46000 33.985
82.48000 32.495
82.50000 31.791
82.52000 33.868
82.54000 30.766
82.56000 31.140
82.58000 30.150
82.60000 31.205
82.62000 32.905
82.64000 31.960
82.66000 32.889
82.68000 34.875
82.70000 35.943
82.72000 26.944
82.74000 26.174
82.76000 29.920
82.78000 33.908
82.80000 32.609
82.82000 32.357
82.84000 34.939
82.86000 30.065
82.88000 26.269
82.90000 22.748
82.92000 25.799
82.94000 23.990
82.96000 19.651
82.98000 19.596
83.00000 24.181
83.02000 23.075
83.04000 20.606
83.06000 21.294
83.08000 20.923
83.10000 18.380
83.12000 18.802
83.14000 18.348
83.16000 16.821
83.18000 8.459
83.20000 10.455
83.22000 16.479
83.24000 20.803
83.26000 14.461
83.28000 17.384
83.30000 20.223
83.32000 17.301
83.34000 14.698
83.36000 13.326
83.38000 11.724
83.40000 13.574
83.42000 16.604
83.44000 11.113
83.46000 10.642
83.48000 6.910
83.50000 10.332
83.52000 17.742
83.54000 8.870
83.56000 11.405
83.58000 8.021
83.60000 10.353
83.62000 8.121
83.64000 8.067
83.66000 4.440
83.68000 4.171
83.70000 8.914
83.72000 7.559
83.74000 4.181
83.76000 3.234
83.78000 5.743
83.80000 5.923
83.82000 3.729
83.84000 4.341
83.86000 6.656
83.88000 7.558
83.90000 5.346
83.92000 1.776
83.94000 2.383
83.96000 1.808
83.98000 -0.359
84.00000 -1.311
84.02000 2.847
84.04000 5.648
84.06000 3.469
84.08000 -0.464
84.10000 1.710
84.12000 5.287
84.14000 5.261
84.16000 5.036
84.18000 2.835
84.20000 7.089
84.22000 9.768
84.24000 8.623
84.26000 7.104
84.28000 10.746
84.30000 6.744
84.32000 1.070
84.34000 3.549
84.36000 6.264
84.38000 3.427
84.40000 1.054
84.42000 2.854
84.44000 1.256
84.46000 -2.295
84.48000 4.813
84.50000 6.480
84.52000 2.150
84.54000 2.027
84.56000 -2.305
84.58000 0.785
84.60000 5.041
84.62000 6.936
84.64000 8.458
84.66000 6.228
84.68000 0.908
84.70000 -1.020
84.72000 1.292
84.74000 -0.514
84.76000 0.095
84.78000 -0.918
84.80000 2.021
84.82000 0.999
84.84000 -0.727
84.86000 0.745
84.88000 2.015
84.90000 3.381
84.92000 2.676
84.94000 -0.018
84.96000 0.263
84.98000 -0.787
85.00000 1.410
85.02000 -0.585
85.04000 3.095
85.06000 3.205
85.08000 0.707
85.10000 0.707
85.12000 -2.351
85.14000 3.578
85.16000 4.143
85.18000 1.304
85.20000 0.811
85.22000 0.797
85.24000 4.244
85.26000 5.267
85.28000 0.844
85.30000 -0.360
85.32000 2.568
85.34000 4.988
85.36000 4.487
85.38000 1.239
85.40000 3.300
85.42000 1.764
85.44000 -1.181
85.46000 -1.610
85.48000 -0.424
85.50000 1.178
85.52000 2.033
85.54000 0.954
85.56000 2.631
85.58000 2.799
85.60000 3.388
85.62000 4.469
85.64000 4.970
85.66000 5.715
85.68000 4.826
85.70000 5.784
85.72000 5.935
85.74000 2.602
85.76000 3.774
85.78000 4.905
85.80000 5.294
85.82000 6.059
85.84000 5.985
85.86000 7.793
85.88000 4.004
85.90000 4.293
85.92000 4.577
85.94000 7.958
85.96000 8.941
85.98000 4.738
86.00000 7.389
86.02000 9.246
86.04000 11.210
86.06000 6.914
86.08000 7.234
86.10000 12.091
86.12000 13.163
86.14000 8.764
86.16000 11.947
86.18000 15.004
86.20000 13.107
86.22000 11.898
86.24000 12.805
86.26000 11.233
86.28000 13.523
86.30000 12.775
86.32000 13.421
86.34000 14.251
86.36000 18.611
86.38000 16.351
86.40000 14.036
86.42000 17.332
86.44000 18.705
86.46000 19.404
86.48000 23.562
86.50000 18.679
86.52000 19.158
86.54000 20.094
86.56000 15.705
86.58000 16.095
86.60000 20.108
86.62000 19.181
86.64000 22.997
86.66000 21.678
86.68000 18.740
86.70000 19.770
86.72000 16.540
86.74000 21.856
86.76000 23.129
86.78000 21.222
86.80000 21.739
86.82000 17.920
86.84000 15.337
86.86000 16.871
86.88000 16.751
86.90000 16.218
86.92000 13.509
86.94000 14.560
86.96000 15.619
86.98000 19.020
87.00000 18.578
87.02000 15.016
87.04000 13.928
87.06000 14.724
87.08000 11.924
87.10000 14.976
87.12000 15.646
87.14000 11.469
87.16000 11.268
87.18000 10.639
87.20000 12.519
87.22000 14.607
87.24000 10.447
87.26000 9.405
87.28000 11.150
87.30000 10.353
87.32000 10.948
87.34000 7.009
87.36000 6.454
87.38000 7.508
87.40000 4.081
87.42000 2.999
87.44000 7.483
87.46000 11.614
87.48000 6.564
87.50000 5.939
87.52000 10.372
87.54000 12.284
87.56000 8.905
87.58000 5.086
87.60000 10.513
87.62000 5.067
87.64000 1.049
87.66000 2.451
87.68000 6.055
87.70000 5.404
87.72000 1.952
87.74000 2.360
87.76000 3.015
87.78000 3.326
87.80000 0.344
87.82000 -0.618
87.84000 -0.760
87.86000 5.242
87.88000 4.447
87.90000 4.475
87.92000 5.132
87.94000 2.917
87.96000 2.504
87.98000 2.030
88.00000 3.499
88.02000 3.117
88.04000 1.377
88.06000 4.336
88.08000 3.919
88.10000 2.774
88.12000 1.423
88.14000 3.733
88.16000 0.692
88.18000 4.283
88.20000 3.747
88.22000 4.005
88.24000 5.692
88.26000 5.902
88.28000 1.468
88.30000 2.705
88.32000 3.594
88.34000 -0.678
88.36000 -2.170
88.38000 -0.036
88.40000 3.985
88.42000 5.753
88.44000 3.514
88.46000 4.159
88.48000 5.147
88.50000 2.993
88.52000 3.036
88.54000 3.862
88.56000 4.678
88.58000 2.206
88.60000 1.989
88.62000 1.728
88.64000 3.644
88.66000 2.874
88.68000 -0.495
88.70000 0.752
88.72000 0.853
88.74000 1.362
88.76000 4.010
88.78000 2.755
88.80000 4.960
88.82000 3.092
88.84000 1.179
88.86000 -0.099
88.88000 4.170
88.90000 0.486
88.92000 3.034
88.94000 6.517
88.96000 7.261
88.98000 -0.271
89.00000 0.885
89.02000 2.066
89.04000 3.838
89.06000 2.427
89.08000 2.830
89.10000 4.190
89.12000 2.711
89.14000 1.617
89.16000 -0.571
89.18000 1.375
89.20000 2.453
89.22000 0.878
89.24000 0.593
89.26000 -2.140
89.28000 -1.644
89.30000 1.378
89.32000 1.593
89.34000 2.368
89.36000 4.562
89.38000 5.116
89.40000 2.565
89.42000 -0.894
89.44000 1.587
89.46000 3.897
89.48000 1.739
89.50000 0.983
89.52000 -0.538
89.54000 -0.354
89.56000 0.032
89.58000 4.884
89.60000 6.081
89.62000 1.475
89.64000 -0.714
89.66000 -1.444
89.68000 -0.224
89.70000 -0.352
89.72000 1.104
89.74000 1.585
89.76000 4.071
89.78000 6.417
89.80000 5.680
89.82000 3.960
89.84000 2.455
89.86000 1.242
89.88000 4.838
89.90000 -0.527
89.92000 -1.388
89.94000 1.773
89.96000 3.198
89.98000 4.575
90.00000 7.048
90.02000 4.311
90.04000 -0.469
90.06000 1.676
90.08000 3.078
90.10000 6.838
90.12000 5.602
90.14000 4.863
90.16000 0.090
90.18000 -2.077
90.20000 1.863
90.22000 4.238
90.24000 4.155
90.26000 0.807
90.28000 -0.217
90.30000 0.306
90.32000 3.022
90.34000 4.820
90.36000 3.203
90.38000 2.321
90.40000 2.869
90.42000 4.503
90.44000 6.950
90.46000 2.332
90.48000 1.514
90.50000 6.844
90.52000 5.529
90.54000 -0.142
90.56000 4.768
90.58000 4.016
90.60000 6.395
90.62000 2.715
90.64000 1.473
90.66000 -0.128
90.68000 3.104
90.70000 4.898
90.72000 4.391
90.74000 7.841
90.76000 1.805
90.78000 3.697
90.80000 8.967
90.82000 6.628
90.84000 4.795
90.86000 2.126
90.88000 -2.039
90.90000 -0.727
90.92000 4.953
90.94000 7.140
90.96000 5.056
90.98000 5.235
91.00000 6.371
91.02000 9.197
91.04000 3.940
91.06000 0.644
91.08000 3.201
91.10000 3.775
91.12000 5.271
91.14000 5.390
91.16000 4.071
91.18000 4.849
91.20000 5.021
91.22000 6.725
91.24000 2.455
91.26000 -0.810
91.28000 0.836
91.30000 5.303
91.32000 5.442
91.34000 7.057
91.36000 4.304
91.38000 4.367
91.40000 3.535
91.42000 5.029
91.44000 3.962
91.46000 3.669
91.48000 6.110
91.50000 6.762
91.52000 5.325
91.54000 0.875
91.56000 1.668
91.58000 -0.253
91.60000 1.760
91.62000 4.234
91.64000 7.129
91.66000 6.343
91.68000 7.583
91.70000 5.264
91.72000 4.598
91.74000 6.800
91.76000 1.234
91.78000 1.251
91.80000 5.998
91.82000 5.368
91.84000 6.080
91.86000 4.639
91.88000 0.668
91.90000 0.750
91.92000 2.606
91.94000 3.843
91.96000 7.687
91.98000 1.787
92.00000 1.446
92.02000 1.433
92.04000 -0.194
92.06000 0.048
92.08000 0.677
92.10000 -0.861
92.12000 -0.753
92.14000 3.451
92.16000 4.125
92.18000 -0.818
92.20000 0.340
92.22000 2.177
92.24000 4.583
92.26000 5.537
92.28000 1.395
92.30000 -2.099
92.32000 -0.611
92.34000 0.644
92.36000 -0.684
92.38000 2.849
92.40000 2.734
92.42000 2.170
92.44000 5.177
92.46000 5.803
92.48000 3.314
92.50000 3.906
92.52000 2.105
92.54000 -1.012
92.56000 4.501
92.58000 3.643
92.60000 5.284
92.62000 -1.622
92.64000 3.047
92.66000 1.346
92.68000 -2.088
92.70000 2.748
92.72000 4.614
92.74000 5.549
92.76000 9.923
92.78000 5.587
92.80000 6.801
92.82000 4.789
92.84000 1.874
92.86000 1.807
92.88000 1.491
92.90000 1.268
92.92000 1.440
92.94000 0.974
92.96000 3.469
92.98000 8.040
93.00000 7.276
93.02000 1.964
93.04000 4.165
93.06000 5.537
93.08000 4.599
93.10000 4.936
93.12000 5.713
93.14000 7.681
93.16000 4.038
93.18000 6.493
93.20000 5.658
93.22000 1.562
93.24000 0.965
93.26000 5.144
93.28000 -0.557
93.30000 -2.083
93.32000 -0.747
93.34000 1.865
93.36000 2.875
93.38000 6.412
93.40000 6.122
93.42000 5.967
93.44000 2.416
93.46000 -0.169
93.48000 0.580
93.50000 1.538
93.52000 4.426
93.54000 5.970
93.56000 8.178
93.58000 6.180
93.60000 3.705
93.62000 3.707
93.64000 7.155
93.66000 7.267
93.68000 3.121
93.70000 -1.085
93.72000 -1.763
93.74000 1.765
93.76000 -0.306
93.78000 -0.361
93.80000 -0.995
93.82000 2.897
93.84000 4.693
93.86000 3.544
93.88000 1.692
93.90000 -0.165
93.92000 5.821
93.94000 6.505
93.96000 2.981
93.98000 1.734
94.00000 3.448
94.02000 3.115
94.04000 0.432
94.06000 3.362
94.08000 4.143
94.10000 0.110
94.12000 2.137
94.14000 3.234
94.16000 1.491
94.18000 2.163
94.20000 4.114
94.22000 5.820
94.24000 2.557
94.26000 1.559
94.28000 2.981
94.30000 1.814
94.32000 2.980
94.34000 4.228
94.36000 -0.129
94.38000 2.313
94.40000 2.529
94.42000 6.830
94.44000 3.754
94.46000 0.835
94.48000 6.945
94.50000 5.177
94.52000 1.759
94.54000 0.688
94.56000 -2.107
94.58000 -1.501
94.60000 2.180
94.62000 6.265
94.64000 3.999
94.66000 3.528
94.68000 3.100
94.70000 4.157
94.72000 3.976
94.74000 6.307
94.76000 0.233
94.78000 3.231
94.80000 3.722
94.82000 2.550
94.84000 1.561
94.86000 5.076
94.88000 6.018
94.90000 3.032
94.92000 2.962
94.94000 -0.284
94.96000 -2.088
94.98000 2.069
95.00000 0.677
95.02000 1.515
95.04000 1.821
95.06000 2.800
95.08000 5.005
95.10000 8.737
95.12000 7.232
95.14000 7.449
95.16000 9.179
95.18000 11.507
95.20000 5.963
95.22000 1.054
95.24000 2.532
95.26000 3.605
95.28000 -2.077
95.30000 4.433
95.32000 9.043
95.34000 7.771
95.36000 8.070
95.38000 2.971
95.40000 0.154
95.42000 0.152
95.44000 4.605
95.46000 6.090
95.48000 4.589
95.50000 5.421
95.52000 4.651
95.54000 -1.211
95.56000 3.551
95.58000 6.092
95.60000 4.677
95.62000 2.652
95.64000 3.945
95.66000 3.898
95.68000 17.188
95.70000 11.490
95.72000 6.209
95.74000 3.828
95.76000 4.982
95.78000 6.870
95.80000 10.435
95.82000 1.320
95.84000 4.438
95.86000 7.831
95.88000 12.389
95.90000 6.614
95.92000 5.931
95.94000 6.051
95.96000 4.352
95.98000 6.903
96.00000 2.870
96.02000 4.955
96.04000 3.046
96.06000 1.387
96.08000 3.947
96.10000 4.761
96.12000 6.915
96.14000 5.289
96.16000 6.719
96.18000 5.997
96.20000 6.684
96.22000 7.217
96.24000 4.240
96.26000 5.356
96.28000 5.066
96.30000 -2.057
96.32000 4.102
96.34000 6.006
96.36000 4.308
96.38000 6.282
96.40000 7.395
96.42000 8.910
96.44000 6.163
96.46000 5.300
96.48000 6.931
96.50000 10.511
96.52000 9.592
96.54000 5.173
96.56000 2.920
96.58000 5.372
96.60000 5.578
96.62000 1.931
96.64000 5.641
96.66000 7.261
96.68000 10.644
96.70000 7.352
96.72000 -0.022
96.74000 2.293
96.76000 10.076
96.78000 7.100
96.80000 3.516
96.82000 0.760
96.84000 -2.065
96.86000 4.186
96.88000 5.015
96.90000 5.301
96.92000 10.027
96.94000 2.154
96.96000 1.024
96.98000 2.020
97.00000 6.916
97.02000 7.616
97.04000 8.331
97.06000 7.764
97.08000 7.439
97.10000 8.819
97.12000 9.475
97.14000 7.845
97.16000 5.210
97.18000 1.180
97.20000 -1.743
97.22000 4.747
97.24000 10.038
97.26000 3.221
97.28000 3.366
97.30000 5.696
97.32000 -0.381
97.34000 8.782
97.36000 10.278
97.38000 5.029
97.40000 8.756
97.42000 6.685
97.44000 4.843
97.46000 5.314
97.48000 -0.687
97.50000 2.653
97.52000 1.664
97.54000 3.315
97.56000 5.415
97.58000 2.961
97.60000 4.099
97.62000 0.978
97.64000 -0.501
97.66000 3.627
97.68000 7.516
97.70000 7.616
97.72000 7.637
97.74000 6.217
97.76000 5.897
97.78000 1.571
97.80000 -1.553
97.82000 -2.046
97.84000 3.936
97.86000 4.318
97.88000 10.254
97.90000 4.360
97.92000 4.226
97.94000 5.717
97.96000 9.399
97.98000 8.519
98.00000 0.247
98.02000 3.926
98.04000 10.819
98.06000 4.891
98.08000 8.340
98.10000 6.908
98.12000 1.996
98.14000 4.944
98.16000 11.462
98.18000 7.388
98.20000 11.386
98.22000 6.036
98.24000 4.685
98.26000 7.070
98.28000 3.079
98.30000 5.805
98.32000 8.015
98.34000 6.717
98.36000 7.168
98.38000 2.909
98.40000 6.059
98.42000 6.254
98.44000 7.743
98.46000 10.691
98.48000 12.510
98.50000 5.568
98.52000 8.709
98.54000 6.186
98.56000 0.670
98.58000 -1.529
98.60000 1.519
98.62000 7.962
98.64000 8.027
98.66000 10.194
98.68000 7.636
98.70000 1.311
98.72000 -2.020
98.74000 6.656
98.76000 12.611
98.78000 16.393
98.80000 10.603
98.82000 6.954
98.84000 3.093
98.86000 7.464
98.88000 6.636
98.90000 11.183
98.92000 5.237
98.94000 5.404
98.96000 8.527
98.98000 6.232
99.00000 9.963
99.02000 3.564
99.04000 -5.234
99.06000 7.820
99.08000 9.074
99.10000 8.587
99.12000 1.557
99.14000 0.071
99.16000 0.257
99.18000 5.274
99.20000 3.663
99.22000 -2.078
99.24000 2.829
99.26000 1.378
99.28000 0.152
99.30000 0.622
99.32000 5.099
99.34000 6.991
99.36000 -1.174
99.38000 1.176
99.40000 6.503
99.42000 10.473
99.44000 10.247
99.46000 5.805
99.48000 5.194
99.50000 2.871
99.52000 5.121
99.54000 7.688
99.56000 0.511
99.58000 7.510
99.60000 8.771
99.62000 6.494
99.64000 2.567
99.66000 4.643
99.68000 6.460
99.70000 4.764
99.72000 1.298
99.74000 -2.124
99.76000 6.206
99.78000 3.403
99.80000 5.321
99.82000 3.714
99.84000 -2.182
99.86000 1.412
99.88000 7.332
99.90000 0.848
99.92000 -2.278
99.94000 1.138
99.96000 8.593
99.98000 0.000
