'Id: "0011388" Comment: "Integrate frame 0011388_Au-Ir-Rh_Rh-rich_XRD-Mapping-189-0000.gfrmwith cursor Wedge Cursor #5" Operator: "B?rgel" Anode: "Cu" Wavelength: "1.5406" Scantype: "2Theta (TwoTheta)" TimePerStep: "1" X: "4.5" Y: "4.5" Z: "5.95" 
10.00000 0.000
10.02000 9.074
10.04000 -4.092
10.06000 -4.088
10.08000 2.125
10.10000 -2.264
10.12000 12.016
10.14000 3.997
10.16000 6.730
10.18000 16.202
10.20000 -0.674
10.22000 3.772
10.24000 12.677
10.26000 10.347
10.28000 2.648
10.30000 -4.049
10.32000 5.898
10.34000 6.442
10.36000 18.605
10.38000 11.606
10.40000 1.199
10.42000 16.711
10.44000 25.734
10.46000 16.876
10.48000 10.873
10.50000 12.151
10.52000 11.002
10.54000 0.671
10.56000 6.859
10.58000 4.184
10.60000 7.740
10.62000 6.036
10.64000 7.591
10.66000 -1.546
10.68000 0.869
10.70000 7.003
10.72000 8.247
10.74000 2.683
10.76000 5.965
10.78000 10.985
10.80000 7.985
10.82000 16.048
10.84000 4.218
10.86000 2.894
10.88000 1.922
10.90000 17.639
10.92000 12.810
10.94000 5.016
10.96000 5.617
10.98000 8.121
11.00000 2.883
11.02000 9.443
11.04000 20.599
11.06000 -1.580
11.08000 7.189
11.10000 22.257
11.12000 18.631
11.14000 14.769
11.16000 11.880
11.18000 8.712
11.20000 8.034
11.22000 2.324
11.24000 3.913
11.26000 5.992
11.28000 1.947
11.30000 3.115
11.32000 13.906
11.34000 15.924
11.36000 19.570
11.38000 15.748
11.40000 11.081
11.42000 19.904
11.44000 27.164
11.46000 24.290
11.48000 32.332
11.50000 35.493
11.52000 20.932
11.54000 1.480
11.56000 10.999
11.58000 4.171
11.60000 1.815
11.62000 15.383
11.64000 20.092
11.66000 13.369
11.68000 12.595
11.70000 8.039
11.72000 9.375
11.74000 12.517
11.76000 7.673
11.78000 3.247
11.80000 2.700
11.82000 1.147
11.84000 -0.760
11.86000 0.442
11.88000 7.125
11.90000 7.123
11.92000 7.936
11.94000 5.370
11.96000 9.051
11.98000 16.746
12.00000 18.336
12.02000 13.865
12.04000 3.552
12.06000 5.228
12.08000 9.761
12.10000 12.678
12.12000 11.230
12.14000 10.393
12.16000 10.817
12.18000 13.457
12.20000 17.141
12.22000 6.512
12.24000 10.124
12.26000 21.007
12.28000 18.335
12.30000 17.114
12.32000 12.544
12.34000 11.310
12.36000 14.178
12.38000 19.040
12.40000 14.064
12.42000 13.961
12.44000 9.219
12.46000 17.877
12.48000 17.489
12.50000 10.015
12.52000 9.523
12.54000 1.581
12.56000 7.792
12.58000 14.304
12.60000 21.861
12.62000 20.732
12.64000 17.495
12.66000 14.694
12.68000 13.626
12.70000 13.247
12.72000 10.754
12.74000 14.018
12.76000 16.860
12.78000 15.719
12.80000 14.289
12.82000 18.517
12.84000 9.810
12.86000 20.868
12.88000 18.521
12.90000 11.999
12.92000 8.566
12.94000 8.728
12.96000 5.807
12.98000 11.320
13.00000 6.109
13.02000 7.716
13.04000 15.845
13.06000 14.514
13.08000 -0.013
13.10000 3.129
13.12000 13.421
13.14000 16.249
13.16000 7.970
13.18000 8.815
13.20000 14.013
13.22000 12.693
13.24000 6.677
13.26000 3.676
13.28000 13.606
13.30000 15.331
13.32000 14.309
13.34000 16.933
13.36000 17.992
13.38000 17.051
13.40000 23.402
13.42000 16.955
13.44000 8.605
13.46000 7.482
13.48000 5.125
13.50000 9.486
13.52000 15.884
13.54000 18.502
13.56000 16.968
13.58000 8.330
13.60000 2.913
13.62000 10.210
13.64000 12.683
13.66000 11.579
13.68000 4.630
13.70000 9.479
13.72000 7.726
13.74000 10.956
13.76000 19.260
13.78000 17.442
13.80000 11.120
13.82000 12.611
13.84000 8.782
13.86000 4.537
13.88000 8.826
13.90000 14.869
13.92000 15.474
13.94000 19.347
13.96000 11.370
13.98000 8.812
14.00000 7.937
14.02000 10.650
14.04000 2.281
14.06000 7.490
14.08000 9.514
14.10000 15.856
14.12000 10.116
14.14000 5.774
14.16000 15.271
14.18000 8.238
14.20000 9.610
14.22000 6.868
14.24000 1.411
14.26000 -2.391
14.28000 5.638
14.30000 -2.519
14.32000 6.678
14.34000 10.090
14.36000 9.771
14.38000 8.051
14.40000 8.723
14.42000 12.635
14.44000 13.820
14.46000 7.781
14.48000 7.250
14.50000 6.931
14.52000 8.878
14.54000 8.108
14.56000 6.779
14.58000 4.918
14.60000 3.133
14.62000 3.948
14.64000 2.116
14.66000 1.514
14.68000 3.395
14.70000 6.321
14.72000 5.903
14.74000 8.959
14.76000 20.204
14.78000 13.141
14.80000 10.618
14.82000 1.445
14.84000 3.481
14.86000 2.754
14.88000 1.178
14.90000 14.536
14.92000 10.132
14.94000 1.914
14.96000 1.005
14.98000 4.758
15.00000 2.274
15.02000 -4.466
15.04000 -3.917
15.06000 3.405
15.08000 6.682
15.10000 10.949
15.12000 11.589
15.14000 8.512
15.16000 5.743
15.18000 7.654
15.20000 8.420
15.22000 14.646
15.24000 17.258
15.26000 6.720
15.28000 3.794
15.30000 13.721
15.32000 3.806
15.34000 0.894
15.36000 10.676
15.38000 6.111
15.40000 3.207
15.42000 -4.369
15.44000 -1.568
15.46000 4.488
15.48000 7.901
15.50000 10.376
15.52000 0.081
15.54000 11.750
15.56000 6.386
15.58000 7.553
15.60000 4.000
15.62000 2.043
15.64000 5.489
15.66000 11.046
15.68000 12.385
15.70000 10.974
15.72000 7.133
15.74000 7.707
15.76000 6.595
15.78000 6.556
15.80000 2.786
15.82000 7.184
15.84000 5.116
15.86000 6.489
15.88000 11.658
15.90000 9.087
15.92000 8.890
15.94000 -0.282
15.96000 -0.500
15.98000 8.510
16.00000 0.991
16.02000 11.515
16.04000 8.434
16.06000 2.398
16.08000 3.396
16.10000 0.988
16.12000 1.123
16.14000 6.424
16.16000 5.849
16.18000 8.034
16.20000 10.786
16.22000 -0.331
16.24000 -4.436
16.26000 0.929
16.28000 7.660
16.30000 9.759
16.32000 7.255
16.34000 6.081
16.36000 8.178
16.38000 6.166
16.40000 3.051
16.42000 5.784
16.44000 6.635
16.46000 2.089
16.48000 -1.327
16.50000 5.290
16.52000 0.963
16.54000 1.848
16.56000 2.270
16.58000 2.393
16.60000 5.279
16.62000 9.562
16.64000 3.412
16.66000 -0.112
16.68000 -4.359
16.70000 -4.349
16.72000 5.038
16.74000 4.420
16.76000 4.677
16.78000 6.917
16.80000 9.086
16.82000 10.575
16.84000 3.232
16.86000 1.624
16.88000 4.427
16.90000 -1.991
16.92000 5.522
16.94000 3.542
16.96000 3.592
16.98000 3.468
17.00000 9.092
17.02000 9.537
17.04000 8.003
17.06000 -0.053
17.08000 -4.396
17.10000 2.832
17.12000 2.218
17.14000 11.593
17.16000 10.681
17.18000 6.423
17.20000 6.824
17.22000 10.728
17.24000 2.187
17.26000 2.090
17.28000 3.527
17.30000 5.134
17.32000 8.635
17.34000 11.386
17.36000 6.684
17.38000 -0.928
17.40000 6.269
17.42000 2.098
17.44000 2.786
17.46000 4.943
17.48000 1.228
17.50000 2.319
17.52000 4.041
17.54000 2.928
17.56000 1.813
17.58000 8.576
17.60000 10.953
17.62000 1.939
17.64000 3.661
17.66000 2.819
17.68000 6.562
17.70000 14.745
17.72000 13.722
17.74000 8.787
17.76000 5.968
17.78000 1.576
17.80000 -0.580
17.82000 8.821
17.84000 13.882
17.86000 9.462
17.88000 2.525
17.90000 2.739
17.92000 0.986
17.94000 5.217
17.96000 8.373
17.98000 9.621
18.00000 1.429
18.02000 3.892
18.04000 2.547
18.06000 6.546
18.08000 8.714
18.10000 -1.503
18.12000 1.035
18.14000 0.342
18.16000 3.734
18.18000 8.172
18.20000 6.462
18.22000 7.312
18.24000 4.344
18.26000 -2.301
18.28000 2.504
18.30000 8.996
18.32000 12.169
18.34000 8.346
18.36000 7.569
18.38000 6.982
18.40000 6.876
18.42000 13.915
18.44000 6.619
18.46000 4.228
18.48000 7.636
18.50000 11.644
18.52000 9.094
18.54000 7.850
18.56000 9.398
18.58000 6.839
18.60000 2.426
18.62000 12.514
18.64000 8.250
18.66000 7.110
18.68000 7.262
18.70000 -4.275
18.72000 -0.726
18.74000 2.445
18.76000 4.037
18.78000 -0.838
18.80000 -1.996
18.82000 0.943
18.84000 0.816
18.86000 5.876
18.88000 6.174
18.90000 4.327
18.92000 7.136
18.94000 8.578
18.96000 6.506
18.98000 7.121
19.00000 5.234
19.02000 3.570
19.04000 7.280
19.06000 5.855
19.08000 1.958
19.10000 5.005
19.12000 5.775
19.14000 4.778
19.16000 15.002
19.18000 12.530
19.20000 8.084
19.22000 5.517
19.24000 -3.081
19.26000 2.741
19.28000 13.908
19.30000 10.218
19.32000 4.927
19.34000 3.144
19.36000 4.858
19.38000 2.565
19.40000 3.881
19.42000 6.617
19.44000 -3.216
19.46000 1.567
19.48000 6.538
19.50000 3.232
19.52000 0.826
19.54000 -3.380
19.56000 3.619
19.58000 5.748
19.60000 10.744
19.62000 9.494
19.64000 12.186
19.66000 2.138
19.68000 3.738
19.70000 10.263
19.72000 7.486
19.74000 8.224
19.76000 10.629
19.78000 9.526
19.80000 0.081
19.82000 -4.241
19.84000 -2.191
19.86000 -3.230
19.88000 1.242
19.90000 -0.396
19.92000 2.824
19.94000 0.184
19.96000 2.378
19.98000 2.854
20.00000 3.035
20.02000 0.002
20.04000 2.616
20.06000 2.379
20.08000 5.434
20.10000 10.388
20.12000 2.718
20.14000 3.961
20.16000 5.444
20.18000 -1.596
20.20000 -1.971
20.22000 9.409
20.24000 4.025
20.26000 3.634
20.28000 3.785
20.30000 -0.286
20.32000 1.071
20.34000 1.339
20.36000 1.051
20.38000 10.860
20.40000 8.696
20.42000 -4.214
20.44000 -2.066
20.46000 8.666
20.48000 3.348
20.50000 2.388
20.52000 4.718
20.54000 4.290
20.56000 6.515
20.58000 5.012
20.60000 1.992
20.62000 -1.846
20.64000 -2.376
20.66000 -1.113
20.68000 3.599
20.70000 1.820
20.72000 3.672
20.74000 5.174
20.76000 1.078
20.78000 1.941
20.80000 -0.069
20.82000 -4.199
20.84000 -1.316
20.86000 6.890
20.88000 2.182
20.90000 4.956
20.92000 5.335
20.94000 4.611
20.96000 5.745
20.98000 2.767
21.00000 2.103
21.02000 5.354
21.04000 10.614
21.06000 5.752
21.08000 0.880
21.10000 4.069
21.12000 1.122
21.14000 0.143
21.16000 1.483
21.18000 1.796
21.20000 2.021
21.22000 1.198
21.24000 2.199
21.26000 3.478
21.28000 3.620
21.30000 -3.301
21.32000 -2.298
21.34000 -3.269
21.36000 -3.096
21.38000 -0.153
21.40000 -0.457
21.42000 2.372
21.44000 2.577
21.46000 4.203
21.48000 2.802
21.50000 -0.482
21.52000 5.212
21.54000 7.789
21.56000 0.789
21.58000 4.744
21.60000 7.442
21.62000 7.577
21.64000 5.416
21.66000 10.172
21.68000 10.968
21.70000 8.216
21.72000 5.265
21.74000 1.642
21.76000 7.044
21.78000 2.342
21.80000 -0.903
21.82000 7.515
21.84000 1.724
21.86000 2.860
21.88000 8.942
21.90000 1.828
21.92000 3.217
21.94000 2.342
21.96000 2.131
21.98000 8.356
22.00000 3.205
22.02000 2.392
22.04000 2.177
22.06000 0.324
22.08000 -2.451
22.10000 0.869
22.12000 7.787
22.14000 2.889
22.16000 1.493
22.18000 -3.163
22.20000 -1.973
22.22000 -2.305
22.24000 3.932
22.26000 3.131
22.28000 7.619
22.30000 9.052
22.32000 1.913
22.34000 2.649
22.36000 3.947
22.38000 6.708
22.40000 7.356
22.42000 1.618
22.44000 -2.671
22.46000 -4.102
22.48000 -1.245
22.50000 0.980
22.52000 2.167
22.54000 1.767
22.56000 4.382
22.58000 5.267
22.60000 0.278
22.62000 1.310
22.64000 5.002
22.66000 6.998
22.68000 5.906
22.70000 9.218
22.72000 3.843
22.74000 -0.638
22.76000 -1.310
22.78000 2.754
22.80000 6.584
22.82000 8.467
22.84000 13.306
22.86000 13.646
22.88000 9.151
22.90000 3.448
22.92000 2.683
22.94000 8.165
22.96000 8.885
22.98000 5.182
23.00000 -2.494
23.02000 2.969
23.04000 0.572
23.06000 3.152
23.08000 8.123
23.10000 0.783
23.12000 0.413
23.14000 3.231
23.16000 1.208
23.18000 1.119
23.20000 2.673
23.22000 2.867
23.24000 5.933
23.26000 3.384
23.28000 4.005
23.30000 5.062
23.32000 4.506
23.34000 1.754
23.36000 -1.211
23.38000 0.631
23.40000 4.349
23.42000 3.648
23.44000 2.810
23.46000 1.626
23.48000 1.777
23.50000 -1.457
23.52000 -0.354
23.54000 -4.051
23.56000 -1.833
23.58000 -1.444
23.60000 -2.333
23.62000 3.188
23.64000 1.074
23.66000 2.541
23.68000 4.385
23.70000 8.719
23.72000 -0.515
23.74000 -1.723
23.76000 -4.019
23.78000 5.640
23.80000 6.457
23.82000 5.532
23.84000 4.288
23.86000 2.416
23.88000 -3.728
23.90000 -3.243
23.92000 0.019
23.94000 1.795
23.96000 1.701
23.98000 4.621
24.00000 5.618
24.02000 4.171
24.04000 5.159
24.06000 1.423
24.08000 5.122
24.10000 3.962
24.12000 -0.956
24.14000 -0.860
24.16000 3.528
24.18000 -1.343
24.20000 -4.002
24.22000 0.719
24.24000 7.202
24.26000 5.328
24.28000 3.332
24.30000 4.534
24.32000 6.881
24.34000 6.576
24.36000 2.056
24.38000 2.747
24.40000 5.986
24.42000 3.174
24.44000 6.792
24.46000 2.060
24.48000 0.428
24.50000 -0.137
24.52000 0.717
24.54000 4.102
24.56000 8.720
24.58000 3.662
24.60000 -0.454
24.62000 0.317
24.64000 0.049
24.66000 3.026
24.68000 5.127
24.70000 6.234
24.72000 3.032
24.74000 -1.012
24.76000 7.704
24.78000 8.141
24.80000 5.558
24.82000 6.598
24.84000 1.520
24.86000 -2.812
24.88000 2.726
24.90000 3.303
24.92000 6.008
24.94000 1.652
24.96000 0.723
24.98000 3.785
25.00000 -1.444
25.02000 -1.831
25.04000 -2.151
25.06000 -0.751
25.08000 3.724
25.10000 -0.146
25.12000 4.593
25.14000 6.223
25.16000 4.806
25.18000 7.678
25.20000 3.757
25.22000 2.725
25.24000 0.854
25.26000 5.982
25.28000 4.505
25.30000 -1.815
25.32000 0.778
25.34000 1.481
25.36000 3.193
25.38000 4.022
25.40000 2.664
25.42000 1.479
25.44000 -0.981
25.46000 1.976
25.48000 3.703
25.50000 3.352
25.52000 4.666
25.54000 -1.770
25.56000 2.978
25.58000 0.207
25.60000 0.167
25.62000 2.183
25.64000 5.928
25.66000 8.384
25.68000 5.703
25.70000 -0.573
25.72000 -3.775
25.74000 2.112
25.76000 2.306
25.78000 -0.959
25.80000 1.148
25.82000 1.346
25.84000 0.123
25.86000 -1.569
25.88000 -0.893
25.90000 5.115
25.92000 6.969
25.94000 3.983
25.96000 1.111
25.98000 4.970
26.00000 1.048
26.02000 3.263
26.04000 6.514
26.06000 2.909
26.08000 7.540
26.10000 8.019
26.12000 3.628
26.14000 2.883
26.16000 7.465
26.18000 10.640
26.20000 5.562
26.22000 3.108
26.24000 1.437
26.26000 -1.561
26.28000 1.949
26.30000 4.697
26.32000 9.753
26.34000 4.413
26.36000 6.660
26.38000 -1.719
26.40000 -3.871
26.42000 -2.246
26.44000 -1.569
26.46000 5.422
26.48000 4.344
26.50000 2.336
26.52000 3.962
26.54000 2.485
26.56000 3.579
26.58000 0.838
26.60000 8.518
26.62000 10.975
26.64000 8.366
26.66000 4.404
26.68000 4.813
26.70000 8.743
26.72000 7.012
26.74000 0.896
26.76000 3.211
26.78000 5.787
26.80000 3.298
26.82000 5.737
26.84000 4.564
26.86000 3.879
26.88000 4.392
26.90000 2.794
26.92000 1.848
26.94000 2.003
26.96000 1.215
26.98000 2.517
27.00000 6.516
27.02000 10.056
27.04000 3.773
27.06000 8.269
27.08000 6.869
27.10000 2.822
27.12000 -3.166
27.14000 1.306
27.16000 5.874
27.18000 7.310
27.20000 2.816
27.22000 -2.169
27.24000 -3.460
27.26000 3.109
27.28000 9.010
27.30000 7.455
27.32000 2.180
27.34000 0.422
27.36000 1.159
27.38000 2.562
27.40000 0.506
27.42000 -1.219
27.44000 -2.345
27.46000 1.756
27.48000 -3.089
27.50000 -1.050
27.52000 2.251
27.54000 1.239
27.56000 4.039
27.58000 5.576
27.60000 4.171
27.62000 2.373
27.64000 0.910
27.66000 3.156
27.68000 3.769
27.70000 3.668
27.72000 -1.240
27.74000 3.538
27.76000 4.029
27.78000 -0.533
27.80000 -0.222
27.82000 -1.174
27.84000 -3.815
27.86000 0.500
27.88000 1.612
27.90000 -0.227
27.92000 -2.389
27.94000 4.523
27.96000 7.710
27.98000 8.883
28.00000 5.474
28.02000 1.827
28.04000 -1.041
28.06000 0.108
28.08000 5.305
28.10000 5.720
28.12000 1.702
28.14000 3.308
28.16000 4.383
28.18000 1.885
28.20000 1.182
28.22000 -0.325
28.24000 3.494
28.26000 5.565
28.28000 6.181
28.30000 4.487
28.32000 1.161
28.34000 2.720
28.36000 6.113
28.38000 0.492
28.40000 1.826
28.42000 5.861
28.44000 3.500
28.46000 4.005
28.48000 4.313
28.50000 2.406
28.52000 3.048
28.54000 1.658
28.56000 -1.878
28.58000 3.482
28.60000 1.049
28.62000 -3.764
28.64000 1.463
28.66000 3.431
28.68000 11.359
28.70000 10.544
28.72000 6.585
28.74000 3.522
28.76000 -1.115
28.78000 0.975
28.80000 5.987
28.82000 8.242
28.84000 5.738
28.86000 7.231
28.88000 7.100
28.90000 1.911
28.92000 1.619
28.94000 -1.029
28.96000 -1.928
28.98000 -2.466
29.00000 -3.750
29.02000 -2.714
29.04000 0.026
29.06000 3.107
29.08000 6.068
29.10000 9.883
29.12000 6.027
29.14000 7.010
29.16000 1.450
29.18000 0.862
29.20000 2.077
29.22000 1.985
29.24000 0.423
29.26000 2.282
29.28000 4.455
29.30000 -1.086
29.32000 -0.446
29.34000 0.368
29.36000 4.830
29.38000 6.204
29.40000 5.412
29.42000 6.981
29.44000 7.571
29.46000 9.621
29.48000 3.003
29.50000 0.970
29.52000 -1.673
29.54000 -1.774
29.56000 1.833
29.58000 3.782
29.60000 1.377
29.62000 3.972
29.64000 0.551
29.66000 2.537
29.68000 2.173
29.70000 5.567
29.72000 8.475
29.74000 0.285
29.76000 -0.891
29.78000 -1.665
29.80000 0.340
29.82000 1.107
29.84000 3.417
29.86000 4.277
29.88000 2.061
29.90000 7.485
29.92000 7.157
29.94000 3.598
29.96000 5.653
29.98000 5.842
30.00000 5.425
30.02000 0.725
30.04000 0.583
30.06000 -2.250
30.08000 1.356
30.10000 5.616
30.12000 4.746
30.14000 4.652
30.16000 3.655
30.18000 5.356
30.20000 2.546
30.22000 1.272
30.24000 1.200
30.26000 2.150
30.28000 4.397
30.30000 -0.027
30.32000 -1.243
30.34000 -1.830
30.36000 -0.534
30.38000 0.821
30.40000 0.664
30.42000 3.464
30.44000 4.667
30.46000 1.562
30.48000 1.290
30.50000 -2.799
30.52000 0.723
30.54000 5.248
30.56000 5.078
30.58000 3.497
30.60000 0.010
30.62000 -1.712
30.64000 2.601
30.66000 1.188
30.68000 -0.100
30.70000 -0.217
30.72000 1.885
30.74000 4.589
30.76000 2.213
30.78000 3.547
30.80000 3.910
30.82000 4.611
30.84000 5.060
30.86000 8.248
30.88000 8.282
30.90000 5.465
30.92000 4.056
30.94000 4.853
30.96000 5.188
30.98000 2.930
31.00000 3.539
31.02000 1.374
31.04000 2.835
31.06000 4.490
31.08000 4.970
31.10000 1.545
31.12000 -3.631
31.14000 6.395
31.16000 11.857
31.18000 7.004
31.20000 5.307
31.22000 3.336
31.24000 6.280
31.26000 15.226
31.28000 12.010
31.30000 4.041
31.32000 0.554
31.34000 3.949
31.36000 1.358
31.38000 5.193
31.40000 5.344
31.42000 6.254
31.44000 1.876
31.46000 1.227
31.48000 5.665
31.50000 3.104
31.52000 0.119
31.54000 3.939
31.56000 7.620
31.58000 9.237
31.60000 6.642
31.62000 5.501
31.64000 2.824
31.66000 5.530
31.68000 0.247
31.70000 -2.163
31.72000 -0.390
31.74000 3.500
31.76000 9.527
31.78000 6.079
31.80000 -0.912
31.82000 1.073
31.84000 8.058
31.86000 5.920
31.88000 5.490
31.90000 6.830
31.92000 1.891
31.94000 -0.637
31.96000 -3.623
31.98000 -3.414
32.00000 -1.683
32.02000 0.238
32.04000 -0.810
32.06000 0.586
32.08000 6.375
32.10000 3.876
32.12000 -0.554
32.14000 3.689
32.16000 0.852
32.18000 1.694
32.20000 -1.069
32.22000 -2.192
32.24000 -1.213
32.26000 2.467
32.28000 5.491
32.30000 6.370
32.32000 5.326
32.34000 5.019
32.36000 1.843
32.38000 1.855
32.40000 2.486
32.42000 2.516
32.44000 0.362
32.46000 1.081
32.48000 -1.488
32.50000 0.481
32.52000 2.728
32.54000 5.367
32.56000 2.744
32.58000 0.347
32.60000 1.284
32.62000 4.715
32.64000 2.854
32.66000 2.468
32.68000 -0.321
32.70000 4.261
32.72000 2.231
32.74000 3.295
32.76000 2.368
32.78000 1.714
32.80000 -1.025
32.82000 -1.359
32.84000 -3.585
32.86000 0.926
32.88000 -2.641
32.90000 -0.043
32.92000 2.857
32.94000 3.980
32.96000 5.126
32.98000 0.768
33.00000 1.233
33.02000 5.079
33.04000 3.313
33.06000 2.765
33.08000 2.474
33.10000 -3.585
33.12000 -0.676
33.14000 0.659
33.16000 3.435
33.18000 3.591
33.20000 1.021
33.22000 1.297
33.24000 0.668
33.26000 1.019
33.28000 -2.801
33.30000 -3.103
33.32000 3.339
33.34000 5.693
33.36000 1.970
33.38000 1.198
33.40000 0.810
33.42000 1.439
33.44000 5.059
33.46000 2.900
33.48000 -1.310
33.50000 -2.533
33.52000 4.278
33.54000 6.700
33.56000 3.388
33.58000 2.917
33.60000 3.459
33.62000 4.119
33.64000 4.057
33.66000 2.353
33.68000 4.555
33.70000 5.234
33.72000 2.134
33.74000 -1.715
33.76000 -1.572
33.78000 1.737
33.80000 2.734
33.82000 3.985
33.84000 3.991
33.86000 3.349
33.88000 8.477
33.90000 8.937
33.92000 4.005
33.94000 0.266
33.96000 0.792
33.98000 2.437
34.00000 2.032
34.02000 3.083
34.04000 2.153
34.06000 0.426
34.08000 -1.894
34.10000 -1.080
34.12000 1.271
34.14000 2.538
34.16000 2.600
34.18000 1.422
34.20000 1.487
34.22000 3.781
34.24000 2.820
34.26000 1.512
34.28000 1.609
34.30000 4.359
34.32000 2.797
34.34000 4.626
34.36000 2.572
34.38000 6.973
34.40000 4.230
34.42000 6.134
34.44000 3.397
34.46000 2.299
34.48000 0.941
34.50000 0.655
34.52000 2.519
34.54000 2.576
34.56000 3.214
34.58000 1.150
34.60000 -1.232
34.62000 2.866
34.64000 -0.046
34.66000 -1.389
34.68000 3.149
34.70000 6.861
34.72000 6.458
34.74000 3.372
34.76000 4.315
34.78000 6.153
34.80000 5.130
34.82000 4.283
34.84000 1.528
34.86000 3.036
34.88000 3.911
34.90000 6.991
34.92000 2.023
34.94000 0.109
34.96000 6.217
34.98000 6.030
35.00000 6.924
35.02000 3.749
35.04000 2.565
35.06000 3.962
35.08000 2.934
35.10000 3.786
35.12000 -3.503
35.14000 2.315
35.16000 4.214
35.18000 0.860
35.20000 4.335
35.22000 4.803
35.24000 -0.707
35.26000 3.120
35.28000 9.699
35.30000 9.102
35.32000 6.727
35.34000 7.366
35.36000 6.526
35.38000 3.217
35.40000 5.601
35.42000 5.827
35.44000 2.344
35.46000 2.959
35.48000 3.425
35.50000 5.825
35.52000 7.080
35.54000 3.641
35.56000 1.879
35.58000 -0.844
35.60000 -1.583
35.62000 3.260
35.64000 11.935
35.66000 7.670
35.68000 5.532
35.70000 1.551
35.72000 -3.523
35.74000 -3.012
35.76000 1.123
35.78000 6.401
35.80000 10.784
35.82000 2.956
35.84000 0.107
35.86000 -3.526
35.88000 -1.394
35.90000 3.732
35.92000 3.038
35.94000 1.910
35.96000 0.134
35.98000 1.342
36.00000 2.608
36.02000 -0.719
36.04000 0.156
36.06000 -0.160
36.08000 -1.113
36.10000 3.722
36.12000 0.749
36.14000 3.738
36.16000 3.549
36.18000 -0.550
36.20000 7.743
36.22000 4.405
36.24000 -3.249
36.26000 1.460
36.28000 3.497
36.30000 1.098
36.32000 6.875
36.34000 6.065
36.36000 6.355
36.38000 1.039
36.40000 -1.572
36.42000 -0.891
36.44000 -0.826
36.46000 -0.191
36.48000 0.081
36.50000 4.456
36.52000 3.462
36.54000 4.925
36.56000 8.974
36.58000 7.848
36.60000 1.529
36.62000 -2.395
36.64000 -1.560
36.66000 -3.546
36.68000 2.173
36.70000 4.847
36.72000 -0.735
36.74000 1.225
36.76000 2.621
36.78000 0.636
36.80000 3.170
36.82000 0.666
36.84000 -3.430
36.86000 -1.844
36.88000 -1.394
36.90000 3.578
36.92000 2.510
36.94000 4.982
36.96000 2.012
36.98000 2.689
37.00000 4.278
37.02000 3.706
37.04000 -2.819
37.06000 -1.026
37.08000 -1.141
37.10000 -0.905
37.12000 -3.572
37.14000 -0.643
37.16000 1.675
37.18000 1.155
37.20000 2.527
37.22000 0.896
37.24000 0.712
37.26000 5.512
37.28000 1.050
37.30000 2.443
37.32000 3.770
37.34000 -1.585
37.36000 -2.887
37.38000 0.234
37.40000 4.788
37.42000 5.361
37.44000 3.783
37.46000 3.802
37.48000 4.532
37.50000 3.986
37.52000 2.822
37.54000 6.293
37.56000 4.921
37.58000 -1.037
37.60000 1.258
37.62000 -2.305
37.64000 -2.658
37.66000 -1.505
37.68000 1.969
37.70000 1.032
37.72000 0.012
37.74000 2.254
37.76000 4.626
37.78000 2.172
37.80000 -0.498
37.82000 2.374
37.84000 3.344
37.86000 1.397
37.88000 2.372
37.90000 1.738
37.92000 6.897
37.94000 5.715
37.96000 7.216
37.98000 4.930
38.00000 6.221
38.02000 6.012
38.04000 4.763
38.06000 5.867
38.08000 7.848
38.10000 7.013
38.12000 8.829
38.14000 11.888
38.16000 7.704
38.18000 9.307
38.20000 8.629
38.22000 10.776
38.24000 13.532
38.26000 12.934
38.28000 8.981
38.30000 7.634
38.32000 8.190
38.34000 12.079
38.36000 12.225
38.38000 9.875
38.40000 12.517
38.42000 12.126
38.44000 13.215
38.46000 18.886
38.48000 17.839
38.50000 20.853
38.52000 19.116
38.54000 21.835
38.56000 18.687
38.58000 22.428
38.60000 24.574
38.62000 22.497
38.64000 22.919
38.66000 18.340
38.68000 16.549
38.70000 25.429
38.72000 22.556
38.74000 23.934
38.76000 26.561
38.78000 24.051
38.80000 20.430
38.82000 24.098
38.84000 23.680
38.86000 26.360
38.88000 32.747
38.90000 30.462
38.92000 29.568
38.94000 29.663
38.96000 31.484
38.98000 34.458
39.00000 32.183
39.02000 37.432
39.04000 36.911
39.06000 41.439
39.08000 45.185
39.10000 43.793
39.12000 39.962
39.14000 36.561
39.16000 42.729
39.18000 45.804
39.20000 45.447
39.22000 55.620
39.24000 59.781
39.26000 59.965
39.28000 59.522
39.30000 59.257
39.32000 65.941
39.34000 69.347
39.36000 60.170
39.38000 68.065
39.40000 74.580
39.42000 79.695
39.44000 85.993
39.46000 90.700
39.48000 86.075
39.50000 91.618
39.52000 97.636
39.54000 100.795
39.56000 107.055
39.58000 114.655
39.60000 118.550
39.62000 123.552
39.64000 128.229
39.66000 133.435
39.68000 145.173
39.70000 148.092
39.72000 154.943
39.74000 173.199
39.76000 173.757
39.78000 178.937
39.80000 184.712
39.82000 190.828
39.84000 198.784
39.86000 212.814
39.88000 216.008
39.90000 227.363
39.92000 247.114
39.94000 257.003
39.96000 269.910
39.98000 284.270
40.00000 289.832
40.02000 307.108
40.04000 315.502
40.06000 322.135
40.08000 344.042
40.10000 362.759
40.12000 374.791
40.14000 394.438
40.16000 398.653
40.18000 408.549
40.20000 418.766
40.22000 433.358
40.24000 452.149
40.26000 465.623
40.28000 483.999
40.30000 494.215
40.32000 505.027
40.34000 508.090
40.36000 518.942
40.38000 532.002
40.40000 537.859
40.42000 549.584
40.44000 544.209
40.46000 553.007
40.48000 554.280
40.50000 545.326
40.52000 542.138
40.54000 541.187
40.56000 536.991
40.58000 533.617
40.60000 530.923
40.62000 522.544
40.64000 512.578
40.66000 507.079
40.68000 485.772
40.70000 478.188
40.72000 464.904
40.74000 451.534
40.76000 450.870
40.78000 435.823
40.80000 414.253
40.82000 392.164
40.84000 379.436
40.86000 366.964
40.88000 350.122
40.90000 341.110
40.92000 332.929
40.94000 316.147
40.96000 292.243
40.98000 280.073
41.00000 263.481
41.02000 251.941
41.04000 237.106
41.06000 232.925
41.08000 228.313
41.10000 216.363
41.12000 201.016
41.14000 192.643
41.16000 180.648
41.18000 172.943
41.20000 167.313
41.22000 154.570
41.24000 145.682
41.26000 141.398
41.28000 131.920
41.30000 121.165
41.32000 120.695
41.34000 119.009
41.36000 111.730
41.38000 111.169
41.40000 101.374
41.42000 91.303
41.44000 89.399
41.46000 81.527
41.48000 76.501
41.50000 69.583
41.52000 67.288
41.54000 67.426
41.56000 63.198
41.58000 62.248
41.60000 62.022
41.62000 56.189
41.64000 55.962
41.66000 52.071
41.68000 48.909
41.70000 44.916
41.72000 46.437
41.74000 44.200
41.76000 41.046
41.78000 35.530
41.80000 30.993
41.82000 32.680
41.84000 31.203
41.86000 29.944
41.88000 27.534
41.90000 25.355
41.92000 28.678
41.94000 26.290
41.96000 25.422
41.98000 26.145
42.00000 21.384
42.02000 19.219
42.04000 14.070
42.06000 16.233
42.08000 20.753
42.10000 17.658
42.12000 14.115
42.14000 10.620
42.16000 10.301
42.18000 12.580
42.20000 16.236
42.22000 13.221
42.24000 14.067
42.26000 16.126
42.28000 17.651
42.30000 11.077
42.32000 7.583
42.34000 10.457
42.36000 13.109
42.38000 9.406
42.40000 8.855
42.42000 11.011
42.44000 7.799
42.46000 7.339
42.48000 7.976
42.50000 7.727
42.52000 6.494
42.54000 5.540
42.56000 3.208
42.58000 2.749
42.60000 6.196
42.62000 6.880
42.64000 9.125
42.66000 5.328
42.68000 5.667
42.70000 8.037
42.72000 6.788
42.74000 6.722
42.76000 10.703
42.78000 8.606
42.80000 3.255
42.82000 3.516
42.84000 7.108
42.86000 5.115
42.88000 0.340
42.90000 4.044
42.92000 5.884
42.94000 2.463
42.96000 4.515
42.98000 5.650
43.00000 4.472
43.02000 0.743
43.04000 1.517
43.06000 -0.716
43.08000 1.199
43.10000 -1.515
43.12000 0.859
43.14000 0.492
43.16000 -1.399
43.18000 -3.521
43.20000 -2.449
43.22000 0.914
43.24000 4.832
43.26000 6.190
43.28000 3.647
43.30000 1.521
43.32000 -2.060
43.34000 0.190
43.36000 0.295
43.38000 1.346
43.40000 5.175
43.42000 0.571
43.44000 0.593
43.46000 2.819
43.48000 2.112
43.50000 1.577
43.52000 0.625
43.54000 0.325
43.56000 2.497
43.58000 1.792
43.60000 0.191
43.62000 1.904
43.64000 3.779
43.66000 3.054
43.68000 0.075
43.70000 1.605
43.72000 5.363
43.74000 4.264
43.76000 0.345
43.78000 -2.063
43.80000 -0.304
43.82000 3.447
43.84000 3.456
43.86000 -1.154
43.88000 -0.518
43.90000 -2.019
43.92000 0.481
43.94000 2.611
43.96000 -1.272
43.98000 -0.690
44.00000 -0.169
44.02000 0.584
44.04000 1.640
44.06000 -3.134
44.08000 2.644
44.10000 4.250
44.12000 2.034
44.14000 1.117
44.16000 5.870
44.18000 5.563
44.20000 7.143
44.22000 3.380
44.24000 0.883
44.26000 5.702
44.28000 3.740
44.30000 4.996
44.32000 8.912
44.34000 8.607
44.36000 9.355
44.38000 10.198
44.40000 4.922
44.42000 3.769
44.44000 -3.414
44.46000 -0.394
44.48000 2.563
44.50000 0.289
44.52000 2.686
44.54000 7.861
44.56000 10.448
44.58000 3.738
44.60000 4.624
44.62000 3.654
44.64000 -0.787
44.66000 0.570
44.68000 2.470
44.70000 3.304
44.72000 0.225
44.74000 2.452
44.76000 4.771
44.78000 9.198
44.80000 9.475
44.82000 11.608
44.84000 7.645
44.86000 12.555
44.88000 6.052
44.90000 7.675
44.92000 4.489
44.94000 3.666
44.96000 2.157
44.98000 3.563
45.00000 6.455
45.02000 4.719
45.04000 10.875
45.06000 6.774
45.08000 5.875
45.10000 6.922
45.12000 5.447
45.14000 8.929
45.16000 10.442
45.18000 5.639
45.20000 6.034
45.22000 10.218
45.24000 10.741
45.26000 9.121
45.28000 7.992
45.30000 11.162
45.32000 8.411
45.34000 7.959
45.36000 12.288
45.38000 14.613
45.40000 8.884
45.42000 2.686
45.44000 12.117
45.46000 16.221
45.48000 12.645
45.50000 13.298
45.52000 17.368
45.54000 18.375
45.56000 10.781
45.58000 10.114
45.60000 16.775
45.62000 23.493
45.64000 17.068
45.66000 16.942
45.68000 9.409
45.70000 14.919
45.72000 17.432
45.74000 24.971
45.76000 21.607
45.78000 24.596
45.80000 27.905
45.82000 28.492
45.84000 23.217
45.86000 22.866
45.88000 24.000
45.90000 23.766
45.92000 24.116
45.94000 27.109
45.96000 30.147
45.98000 33.193
46.00000 34.208
46.02000 33.363
46.04000 32.157
46.06000 35.680
46.08000 39.263
46.10000 41.445
46.12000 35.411
46.14000 31.099
46.16000 30.821
46.18000 31.326
46.20000 41.228
46.22000 45.993
46.24000 41.232
46.26000 41.057
46.28000 38.638
46.30000 43.087
46.32000 45.086
46.34000 44.181
46.36000 43.193
46.38000 45.230
46.40000 51.182
46.42000 49.794
46.44000 48.148
46.46000 57.529
46.48000 60.581
46.50000 56.791
46.52000 59.791
46.54000 59.478
46.56000 62.577
46.58000 61.437
46.60000 62.213
46.62000 61.370
46.64000 63.197
46.66000 62.708
46.68000 68.155
46.70000 68.479
46.72000 71.078
46.74000 73.562
46.76000 75.036
46.78000 68.805
46.80000 67.831
46.82000 79.969
46.84000 78.903
46.86000 67.946
46.88000 72.478
46.90000 81.618
46.92000 79.398
46.94000 75.809
46.96000 78.005
46.98000 75.317
47.00000 72.497
47.02000 80.017
47.04000 87.139
47.06000 81.656
47.08000 85.994
47.10000 82.171
47.12000 78.441
47.14000 86.010
47.16000 82.529
47.18000 80.221
47.20000 76.865
47.22000 78.972
47.24000 77.275
47.26000 75.550
47.28000 84.470
47.30000 75.084
47.32000 78.316
47.34000 70.503
47.36000 66.181
47.38000 67.907
47.40000 65.742
47.42000 70.695
47.44000 74.071
47.46000 66.317
47.48000 60.569
47.50000 59.612
47.52000 61.294
47.54000 61.392
47.56000 54.604
47.58000 53.399
47.60000 49.149
47.62000 48.599
47.64000 52.111
47.66000 51.393
47.68000 52.939
47.70000 54.127
47.72000 51.261
47.74000 49.229
47.76000 42.115
47.78000 43.766
47.80000 33.971
47.82000 28.923
47.84000 38.856
47.86000 40.871
47.88000 36.435
47.90000 28.323
47.92000 25.537
47.94000 28.941
47.96000 27.872
47.98000 30.147
48.00000 28.318
48.02000 26.104
48.04000 29.835
48.06000 28.738
48.08000 29.152
48.10000 26.648
48.12000 26.325
48.14000 23.868
48.16000 26.916
48.18000 22.671
48.20000 17.839
48.22000 19.570
48.24000 18.495
48.26000 20.513
48.28000 15.772
48.30000 16.036
48.32000 11.914
48.34000 11.809
48.36000 11.080
48.38000 11.296
48.40000 12.523
48.42000 11.657
48.44000 13.427
48.46000 9.254
48.48000 10.560
48.50000 12.337
48.52000 14.269
48.54000 10.752
48.56000 12.357
48.58000 16.442
48.60000 12.581
48.62000 12.056
48.64000 15.004
48.66000 9.543
48.68000 7.863
48.70000 11.303
48.72000 9.117
48.74000 6.633
48.76000 5.054
48.78000 8.133
48.80000 8.828
48.82000 10.237
48.84000 9.489
48.86000 0.357
48.88000 1.319
48.90000 -0.326
48.92000 2.572
48.94000 1.063
48.96000 6.413
48.98000 10.510
49.00000 9.251
49.02000 6.793
49.04000 -1.042
49.06000 -3.105
49.08000 3.525
49.10000 8.147
49.12000 7.847
49.14000 5.449
49.16000 -2.097
49.18000 3.317
49.20000 0.396
49.22000 2.735
49.24000 2.236
49.26000 1.347
49.28000 1.881
49.30000 1.223
49.32000 5.432
49.34000 -0.957
49.36000 0.091
49.38000 -2.578
49.40000 -0.080
49.42000 1.586
49.44000 8.050
49.46000 3.298
49.48000 6.618
49.50000 3.816
49.52000 3.028
49.54000 3.790
49.56000 3.837
49.58000 6.131
49.60000 -0.488
49.62000 -1.807
49.64000 1.674
49.66000 0.172
49.68000 1.078
49.70000 7.847
49.72000 8.996
49.74000 3.428
49.76000 1.790
49.78000 4.553
49.80000 8.320
49.82000 8.349
49.84000 4.070
49.86000 5.082
49.88000 5.346
49.90000 -1.606
49.92000 0.599
49.94000 6.107
49.96000 5.032
49.98000 2.748
50.00000 6.142
50.02000 6.555
50.04000 3.293
50.06000 -2.268
50.08000 -2.991
50.10000 1.072
50.12000 1.979
50.14000 1.150
50.16000 5.255
50.18000 3.352
50.20000 4.254
50.22000 1.362
50.24000 3.871
50.26000 1.914
50.28000 0.541
50.30000 1.734
50.32000 6.040
50.34000 4.598
50.36000 1.035
50.38000 1.223
50.40000 3.912
50.42000 7.765
50.44000 5.410
50.46000 2.998
50.48000 2.482
50.50000 -0.148
50.52000 0.269
50.54000 -2.263
50.56000 -1.622
50.58000 -1.542
50.60000 -1.494
50.62000 -1.498
50.64000 1.492
50.66000 5.429
50.68000 8.387
50.70000 6.403
50.72000 6.998
50.74000 4.890
50.76000 4.944
50.78000 2.722
50.80000 1.809
50.82000 4.556
50.84000 1.763
50.86000 0.342
50.88000 0.157
50.90000 1.447
50.92000 4.498
50.94000 -0.927
50.96000 2.146
50.98000 5.946
51.00000 2.555
51.02000 -0.681
51.04000 0.735
51.06000 1.095
51.08000 2.393
51.10000 -0.898
51.12000 -0.208
51.14000 -2.262
51.16000 -1.794
51.18000 2.110
51.20000 4.818
51.22000 5.994
51.24000 1.352
51.26000 5.055
51.28000 6.006
51.30000 6.940
51.32000 8.333
51.34000 4.485
51.36000 -0.601
51.38000 -1.536
51.40000 6.471
51.42000 7.079
51.44000 5.134
51.46000 -1.239
51.48000 -0.935
51.50000 3.660
51.52000 0.804
51.54000 -1.924
51.56000 -0.105
51.58000 3.115
51.60000 6.358
51.62000 3.347
51.64000 -1.408
51.66000 -1.013
51.68000 6.488
51.70000 10.000
51.72000 9.181
51.74000 9.133
51.76000 7.457
51.78000 6.516
51.80000 8.791
51.82000 3.676
51.84000 1.368
51.86000 -2.915
51.88000 -1.031
51.90000 1.584
51.92000 -0.636
51.94000 4.644
51.96000 4.703
51.98000 3.775
52.00000 2.130
52.02000 7.448
52.04000 7.907
52.06000 4.039
52.08000 -0.934
52.10000 1.228
52.12000 5.134
52.14000 3.646
52.16000 5.408
52.18000 3.019
52.20000 3.889
52.22000 -0.447
52.24000 1.492
52.26000 1.412
52.28000 8.194
52.30000 5.826
52.32000 -0.559
52.34000 -0.381
52.36000 3.564
52.38000 1.808
52.40000 1.061
52.42000 5.229
52.44000 3.924
52.46000 5.677
52.48000 5.565
52.50000 5.296
52.52000 1.055
52.54000 5.288
52.56000 12.057
52.58000 3.545
52.60000 0.348
52.62000 3.296
52.64000 2.815
52.66000 2.523
52.68000 8.319
52.70000 6.541
52.72000 4.805
52.74000 2.974
52.76000 1.382
52.78000 -0.095
52.80000 -2.884
52.82000 -1.736
52.84000 1.584
52.86000 7.234
52.88000 8.014
52.90000 7.594
52.92000 2.440
52.94000 2.073
52.96000 2.601
52.98000 4.267
53.00000 4.866
53.02000 0.982
53.04000 0.343
53.06000 3.628
53.08000 7.780
53.10000 2.942
53.12000 -0.206
53.14000 2.335
53.16000 -0.141
53.18000 -0.716
53.20000 2.215
53.22000 3.245
53.24000 6.445
53.26000 5.423
53.28000 0.199
53.30000 0.690
53.32000 4.705
53.34000 2.132
53.36000 -0.886
53.38000 -2.847
53.40000 0.213
53.42000 2.416
53.44000 3.574
53.46000 2.533
53.48000 3.465
53.50000 1.974
53.52000 6.155
53.54000 7.194
53.56000 7.137
53.58000 10.728
53.60000 5.863
53.62000 -1.953
53.64000 -0.247
53.66000 4.505
53.68000 7.540
53.70000 3.003
53.72000 1.997
53.74000 1.998
53.76000 2.667
53.78000 -0.033
53.80000 2.337
53.82000 9.124
53.84000 8.850
53.86000 3.955
53.88000 5.129
53.90000 3.562
53.92000 1.454
53.94000 2.729
53.96000 5.069
53.98000 5.031
54.00000 1.739
54.02000 0.751
54.04000 -0.207
54.06000 -2.827
54.08000 0.329
54.10000 4.590
54.12000 3.218
54.14000 5.950
54.16000 2.575
54.18000 2.850
54.20000 5.140
54.22000 5.358
54.24000 2.476
54.26000 2.308
54.28000 4.520
54.30000 4.130
54.32000 8.239
54.34000 6.443
54.36000 0.639
54.38000 0.709
54.40000 3.997
54.42000 12.927
54.44000 10.743
54.46000 12.471
54.48000 7.662
54.50000 4.085
54.52000 2.882
54.54000 4.471
54.56000 5.173
54.58000 6.756
54.60000 1.989
54.62000 1.627
54.64000 1.508
54.66000 8.595
54.68000 9.189
54.70000 3.108
54.72000 1.629
54.74000 1.060
54.76000 -1.973
54.78000 5.296
54.80000 5.970
54.82000 4.421
54.84000 8.890
54.86000 3.728
54.88000 4.086
54.90000 7.621
54.92000 11.289
54.94000 7.324
54.96000 -2.769
54.98000 0.849
55.00000 2.643
55.02000 5.510
55.04000 4.025
55.06000 1.238
55.08000 2.013
55.10000 2.386
55.12000 4.669
55.14000 2.577
55.16000 8.346
55.18000 10.405
55.20000 7.086
55.22000 7.132
55.24000 7.192
55.26000 6.239
55.28000 6.914
55.30000 3.824
55.32000 3.982
55.34000 6.556
55.36000 6.834
55.38000 3.546
55.40000 5.268
55.42000 0.975
55.44000 4.890
55.46000 0.719
55.48000 2.532
55.50000 3.547
55.52000 3.683
55.54000 5.248
55.56000 2.369
55.58000 -1.013
55.60000 2.300
55.62000 4.159
55.64000 5.378
55.66000 3.836
55.68000 -0.444
55.70000 1.514
55.72000 4.202
55.74000 4.332
55.76000 1.541
55.78000 -0.100
55.80000 3.204
55.82000 5.968
55.84000 5.533
55.86000 2.297
55.88000 3.964
55.90000 2.421
55.92000 1.265
55.94000 1.596
55.96000 -1.332
55.98000 2.161
56.00000 0.169
56.02000 0.715
56.04000 2.213
56.06000 3.939
56.08000 6.793
56.10000 9.011
56.12000 4.298
56.14000 3.672
56.16000 6.322
56.18000 0.779
56.20000 3.870
56.22000 4.802
56.24000 3.324
56.26000 4.409
56.28000 6.647
56.30000 2.475
56.32000 -2.777
56.34000 1.433
56.36000 8.946
56.38000 7.292
56.40000 4.745
56.42000 2.570
56.44000 0.727
56.46000 5.158
56.48000 3.173
56.50000 5.863
56.52000 5.019
56.54000 5.925
56.56000 1.926
56.58000 -0.168
56.60000 -1.112
56.62000 2.632
56.64000 3.550
56.66000 6.107
56.68000 4.901
56.70000 8.707
56.72000 3.119
56.74000 3.825
56.76000 5.554
56.78000 2.953
56.80000 4.203
56.82000 1.034
56.84000 2.959
56.86000 -2.758
56.88000 1.023
56.90000 0.871
56.92000 0.484
56.94000 4.092
56.96000 8.556
56.98000 7.510
57.00000 0.793
57.02000 0.267
57.04000 4.135
57.06000 4.458
57.08000 1.312
57.10000 4.959
57.12000 1.945
57.14000 1.491
57.16000 0.562
57.18000 2.753
57.20000 3.847
57.22000 -0.938
57.24000 1.759
57.26000 1.530
57.28000 3.025
57.30000 5.067
57.32000 4.310
57.34000 4.991
57.36000 0.120
57.38000 4.036
57.40000 1.591
57.42000 3.214
57.44000 -0.322
57.46000 2.886
57.48000 6.053
57.50000 2.373
57.52000 2.815
57.54000 3.399
57.56000 6.011
57.58000 4.691
57.60000 4.840
57.62000 7.406
57.64000 1.620
57.66000 0.312
57.68000 2.310
57.70000 2.022
57.72000 1.850
57.74000 1.567
57.76000 -0.650
57.78000 -0.085
57.80000 5.922
57.82000 5.365
57.84000 3.981
57.86000 -0.344
57.88000 6.172
57.90000 7.200
57.92000 3.557
57.94000 2.359
57.96000 4.571
57.98000 8.827
58.00000 6.318
58.02000 4.993
58.04000 5.509
58.06000 -1.302
58.08000 -2.680
58.10000 5.329
58.12000 13.528
58.14000 10.583
58.16000 6.863
58.18000 5.767
58.20000 11.014
58.22000 7.878
58.24000 7.935
58.26000 7.673
58.28000 2.413
58.30000 -0.379
58.32000 -0.323
58.34000 -1.868
58.36000 -1.883
58.38000 -0.161
58.40000 5.482
58.42000 9.871
58.44000 10.841
58.46000 7.746
58.48000 6.311
58.50000 7.067
58.52000 8.904
58.54000 8.024
58.56000 10.308
58.58000 4.004
58.60000 5.093
58.62000 3.916
58.64000 4.177
58.66000 4.329
58.68000 -0.273
58.70000 1.867
58.72000 7.326
58.74000 8.761
58.76000 7.705
58.78000 5.921
58.80000 5.944
58.82000 7.060
58.84000 1.114
58.86000 6.716
58.88000 8.043
58.90000 7.487
58.92000 5.443
58.94000 4.762
58.96000 7.570
58.98000 9.024
59.00000 5.586
59.02000 3.946
59.04000 3.697
59.06000 5.507
59.08000 5.047
59.10000 9.456
59.12000 5.599
59.14000 4.553
59.16000 5.686
59.18000 4.686
59.20000 7.560
59.22000 1.560
59.24000 5.366
59.26000 2.595
59.28000 4.260
59.30000 6.535
59.32000 7.627
59.34000 8.032
59.36000 -2.633
59.38000 -0.165
59.40000 5.542
59.42000 7.120
59.44000 3.704
59.46000 2.495
59.48000 0.660
59.50000 8.599
59.52000 3.509
59.54000 1.984
59.56000 4.560
59.58000 2.514
59.60000 2.526
59.62000 5.165
59.64000 10.031
59.66000 9.485
59.68000 3.059
59.70000 5.003
59.72000 2.298
59.74000 0.568
59.76000 3.646
59.78000 4.602
59.80000 4.745
59.82000 6.661
59.84000 5.215
59.86000 3.242
59.88000 4.030
59.90000 8.352
59.92000 5.658
59.94000 2.675
59.96000 -0.651
59.98000 2.141
60.00000 2.330
60.02000 4.068
60.04000 10.983
60.06000 4.461
60.08000 9.372
60.10000 5.687
60.12000 -0.488
60.14000 -2.649
60.16000 -0.951
60.18000 2.795
60.20000 4.388
60.22000 -1.037
60.24000 -0.717
60.26000 0.933
60.28000 2.186
60.30000 2.044
60.32000 -1.086
60.34000 0.798
60.36000 2.763
60.38000 1.693
60.40000 4.499
60.42000 9.214
60.44000 6.078
60.46000 4.974
60.48000 2.805
60.50000 2.471
60.52000 -1.897
60.54000 1.141
60.56000 3.107
60.58000 6.667
60.60000 3.493
60.62000 2.527
60.64000 -0.359
60.66000 2.011
60.68000 6.050
60.70000 3.996
60.72000 -1.071
60.74000 3.578
60.76000 2.527
60.78000 -1.337
60.80000 1.195
60.82000 4.061
60.84000 8.225
60.86000 3.784
60.88000 2.832
60.90000 0.830
60.92000 0.781
60.94000 -0.969
60.96000 3.996
60.98000 4.349
61.00000 3.334
61.02000 0.071
61.04000 -2.640
61.06000 -1.061
61.08000 1.351
61.10000 -0.824
61.12000 -1.396
61.14000 -0.726
61.16000 -0.204
61.18000 1.707
61.20000 2.255
61.22000 -0.416
61.24000 -0.355
61.26000 0.668
61.28000 0.016
61.30000 -0.180
61.32000 1.220
61.34000 1.623
61.36000 2.075
61.38000 3.871
61.40000 4.168
61.42000 -2.060
61.44000 0.318
61.46000 3.232
61.48000 1.574
61.50000 1.196
61.52000 3.019
61.54000 6.247
61.56000 3.506
61.58000 -2.617
61.60000 0.314
61.62000 1.141
61.64000 1.618
61.66000 3.042
61.68000 3.316
61.70000 -0.111
61.72000 4.496
61.74000 2.495
61.76000 0.562
61.78000 2.369
61.80000 3.199
61.82000 0.336
61.84000 0.952
61.86000 4.837
61.88000 4.569
61.90000 6.504
61.92000 2.127
61.94000 2.141
61.96000 4.854
61.98000 0.280
62.00000 3.009
62.02000 4.196
62.04000 5.010
62.06000 1.196
62.08000 -2.594
62.10000 -0.206
62.12000 3.079
62.14000 1.255
62.16000 1.256
62.18000 1.651
62.20000 1.898
62.22000 3.970
62.24000 0.865
62.26000 2.873
62.28000 5.645
62.30000 5.164
62.32000 3.868
62.34000 2.868
62.36000 5.230
62.38000 4.849
62.40000 0.258
62.42000 4.442
62.44000 5.550
62.46000 4.265
62.48000 3.460
62.50000 4.375
62.52000 1.728
62.54000 -1.169
62.56000 -2.545
62.58000 -1.244
62.60000 0.963
62.62000 -0.357
62.64000 1.671
62.66000 1.663
62.68000 2.989
62.70000 3.737
62.72000 3.376
62.74000 1.319
62.76000 4.034
62.78000 4.944
62.80000 5.077
62.82000 3.993
62.84000 4.500
62.86000 4.815
62.88000 5.660
62.90000 4.507
62.92000 2.086
62.94000 2.725
62.96000 3.369
62.98000 -0.960
63.00000 -2.578
63.02000 1.013
63.04000 2.619
63.06000 -1.347
63.08000 0.351
63.10000 3.168
63.12000 5.617
63.14000 2.502
63.16000 2.351
63.18000 1.261
63.20000 2.974
63.22000 3.318
63.24000 4.093
63.26000 3.865
63.28000 0.162
63.30000 -1.885
63.32000 0.033
63.34000 3.032
63.36000 0.915
63.38000 0.578
63.40000 1.128
63.42000 0.554
63.44000 2.685
63.46000 2.490
63.48000 3.137
63.50000 -0.537
63.52000 0.151
63.54000 -1.202
63.56000 2.137
63.58000 6.417
63.60000 5.834
63.62000 6.103
63.64000 3.615
63.66000 2.599
63.68000 5.152
63.70000 4.467
63.72000 5.268
63.74000 3.721
63.76000 0.900
63.78000 3.162
63.80000 4.956
63.82000 2.922
63.84000 3.305
63.86000 4.521
63.88000 7.396
63.90000 7.982
63.92000 5.774
63.94000 6.003
63.96000 4.903
63.98000 5.339
64.00000 0.437
64.02000 2.527
64.04000 4.942
64.06000 5.234
64.08000 4.046
64.10000 5.627
64.12000 3.472
64.14000 -2.552
64.16000 -1.441
64.18000 5.336
64.20000 5.028
64.22000 2.969
64.24000 3.525
64.26000 1.501
64.28000 2.662
64.30000 3.774
64.32000 2.539
64.34000 0.715
64.36000 1.354
64.38000 6.613
64.40000 6.935
64.42000 4.572
64.44000 5.214
64.46000 7.384
64.48000 5.113
64.50000 6.001
64.52000 7.290
64.54000 5.085
64.56000 5.257
64.58000 9.487
64.60000 6.776
64.62000 4.251
64.64000 3.352
64.66000 8.162
64.68000 6.630
64.70000 4.996
64.72000 3.162
64.74000 -0.678
64.76000 2.003
64.78000 4.087
64.80000 3.654
64.82000 4.910
64.84000 3.649
64.86000 4.832
64.88000 3.066
64.90000 6.375
64.92000 1.356
64.94000 -0.291
64.96000 3.014
64.98000 4.168
65.00000 2.007
65.02000 1.549
65.04000 1.359
65.06000 0.445
65.08000 2.011
65.10000 3.560
65.12000 8.635
65.14000 6.311
65.16000 3.833
65.18000 -2.048
65.20000 -0.108
65.22000 0.127
65.24000 2.310
65.26000 3.396
65.28000 2.906
65.30000 1.918
65.32000 -0.251
65.34000 1.338
65.36000 3.148
65.38000 0.308
65.40000 0.574
65.42000 4.953
65.44000 3.907
65.46000 3.895
65.48000 0.395
65.50000 0.750
65.52000 2.641
65.54000 3.052
65.56000 0.500
65.58000 2.773
65.60000 2.600
65.62000 1.885
65.64000 0.893
65.66000 0.691
65.68000 5.180
65.70000 4.995
65.72000 -0.424
65.74000 -1.059
65.76000 -2.597
65.78000 -1.289
65.80000 7.361
65.82000 5.382
65.84000 0.803
65.86000 2.822
65.88000 3.669
65.90000 0.402
65.92000 0.452
65.94000 -0.144
65.96000 -0.133
65.98000 4.875
66.00000 2.087
66.02000 2.441
66.04000 0.774
66.06000 -0.693
66.08000 2.077
66.10000 3.980
66.12000 -0.524
66.14000 2.560
66.16000 0.136
66.18000 -0.754
66.20000 1.166
66.22000 5.686
66.24000 1.205
66.26000 3.749
66.28000 1.871
66.30000 -2.653
66.32000 0.090
66.34000 2.802
66.36000 1.663
66.38000 6.264
66.40000 5.275
66.42000 2.891
66.44000 -1.004
66.46000 -0.820
66.48000 -1.165
66.50000 0.895
66.52000 0.606
66.54000 1.328
66.56000 5.597
66.58000 1.533
66.60000 1.857
66.62000 0.928
66.64000 -0.356
66.66000 1.798
66.68000 1.044
66.70000 0.077
66.72000 -0.518
66.74000 1.780
66.76000 -0.943
66.78000 -0.015
66.80000 3.360
66.82000 5.342
66.84000 3.259
66.86000 2.440
66.88000 2.202
66.90000 0.429
66.92000 -0.511
66.94000 -0.821
66.96000 0.417
66.98000 -0.390
67.00000 0.196
67.02000 2.193
67.04000 0.747
67.06000 0.252
67.08000 -1.453
67.10000 -0.490
67.12000 1.426
67.14000 0.454
67.16000 1.036
67.18000 5.293
67.20000 8.407
67.22000 3.545
67.24000 1.497
67.26000 1.842
67.28000 5.177
67.30000 3.816
67.32000 -2.731
67.34000 -0.598
67.36000 0.014
67.38000 0.726
67.40000 5.227
67.42000 3.358
67.44000 -0.748
67.46000 1.447
67.48000 2.114
67.50000 5.316
67.52000 7.374
67.54000 3.879
67.56000 2.135
67.58000 3.390
67.60000 5.083
67.62000 5.233
67.64000 6.068
67.66000 7.919
67.68000 7.024
67.70000 7.289
67.72000 6.657
67.74000 7.315
67.76000 4.795
67.78000 5.007
67.80000 3.991
67.82000 7.042
67.84000 6.682
67.86000 9.196
67.88000 9.731
67.90000 7.986
67.92000 10.241
67.94000 10.295
67.96000 10.292
67.98000 12.144
68.00000 14.719
68.02000 12.465
68.04000 11.331
68.06000 15.880
68.08000 16.590
68.10000 13.444
68.12000 10.711
68.14000 11.197
68.16000 11.269
68.18000 14.049
68.20000 14.154
68.22000 18.692
68.24000 18.005
68.26000 15.139
68.28000 12.431
68.30000 19.767
68.32000 19.722
68.34000 16.362
68.36000 18.987
68.38000 18.785
68.40000 22.668
68.42000 19.342
68.44000 22.512
68.46000 20.401
68.48000 18.779
68.50000 18.920
68.52000 19.310
68.54000 19.202
68.56000 19.837
68.58000 23.051
68.60000 19.620
68.62000 22.205
68.64000 23.017
68.66000 25.841
68.68000 25.146
68.70000 27.621
68.72000 23.872
68.74000 23.696
68.76000 24.164
68.78000 25.828
68.80000 30.954
68.82000 26.535
68.84000 22.500
68.86000 22.868
68.88000 22.928
68.90000 23.155
68.92000 25.876
68.94000 27.213
68.96000 24.294
68.98000 21.584
69.00000 16.700
69.02000 17.409
69.04000 21.776
69.06000 25.708
69.08000 25.362
69.10000 21.972
69.12000 23.203
69.14000 23.207
69.16000 20.696
69.18000 20.837
69.20000 22.680
69.22000 25.280
69.24000 24.955
69.26000 18.782
69.28000 16.256
69.30000 18.809
69.32000 19.382
69.34000 18.407
69.36000 15.409
69.38000 15.593
69.40000 14.291
69.42000 12.591
69.44000 9.771
69.46000 11.821
69.48000 13.426
69.50000 9.119
69.52000 9.826
69.54000 10.325
69.56000 8.580
69.58000 11.732
69.60000 14.669
69.62000 11.692
69.64000 8.413
69.66000 7.999
69.68000 10.900
69.70000 12.451
69.72000 12.479
69.74000 11.717
69.76000 7.647
69.78000 8.580
69.80000 7.345
69.82000 8.873
69.84000 8.679
69.86000 8.242
69.88000 4.618
69.90000 5.529
69.92000 2.272
69.94000 0.998
69.96000 2.317
69.98000 0.300
70.00000 2.553
70.02000 4.141
70.04000 2.552
70.06000 4.817
70.08000 6.533
70.10000 4.085
70.12000 3.927
70.14000 7.299
70.16000 4.564
70.18000 3.207
70.20000 1.515
70.22000 0.598
70.24000 2.799
70.26000 2.248
70.28000 2.733
70.30000 2.262
70.32000 2.544
70.34000 7.457
70.36000 6.845
70.38000 3.653
70.40000 6.156
70.42000 -0.123
70.44000 0.408
70.46000 6.555
70.48000 3.754
70.50000 1.781
70.52000 2.595
70.54000 -2.559
70.56000 -0.830
70.58000 1.123
70.60000 4.546
70.62000 4.061
70.64000 3.711
70.66000 4.112
70.68000 -0.609
70.70000 -2.540
70.72000 0.029
70.74000 0.237
70.76000 5.287
70.78000 3.279
70.80000 2.467
70.82000 4.893
70.84000 1.452
70.86000 -0.639
70.88000 3.623
70.90000 7.311
70.92000 3.311
70.94000 1.649
70.96000 4.006
70.98000 0.045
71.00000 5.101
71.02000 10.878
71.04000 5.657
71.06000 1.841
71.08000 5.072
71.10000 1.829
71.12000 -0.376
71.14000 2.615
71.16000 3.349
71.18000 5.404
71.20000 1.686
71.22000 2.954
71.24000 5.400
71.26000 4.779
71.28000 8.217
71.30000 6.781
71.32000 2.402
71.34000 3.915
71.36000 7.507
71.38000 5.789
71.40000 6.720
71.42000 6.762
71.44000 2.303
71.46000 2.889
71.48000 0.810
71.50000 2.811
71.52000 6.328
71.54000 3.568
71.56000 -0.004
71.58000 1.351
71.60000 5.818
71.62000 5.821
71.64000 4.314
71.66000 5.573
71.68000 4.814
71.70000 -2.437
71.72000 -1.842
71.74000 -0.987
71.76000 -0.767
71.78000 3.144
71.80000 4.151
71.82000 4.703
71.84000 4.329
71.86000 4.311
71.88000 1.970
71.90000 3.476
71.92000 2.388
71.94000 3.087
71.96000 3.608
71.98000 2.557
72.00000 3.919
72.02000 6.380
72.04000 9.403
72.06000 4.573
72.08000 4.221
72.10000 4.804
72.12000 2.364
72.14000 6.687
72.16000 4.929
72.18000 3.389
72.20000 4.875
72.22000 1.803
72.24000 2.211
72.26000 0.330
72.28000 0.527
72.30000 -0.393
72.32000 0.908
72.34000 2.705
72.36000 5.622
72.38000 2.992
72.40000 4.469
72.42000 6.096
72.44000 5.595
72.46000 4.304
72.48000 3.893
72.50000 4.883
72.52000 6.874
72.54000 6.182
72.56000 7.495
72.58000 6.921
72.60000 1.034
72.62000 3.428
72.64000 1.484
72.66000 6.166
72.68000 3.765
72.70000 2.924
72.72000 4.276
72.74000 3.738
72.76000 2.852
72.78000 2.597
72.80000 1.711
72.82000 1.574
72.84000 6.436
72.86000 5.703
72.88000 4.836
72.90000 4.521
72.92000 1.403
72.94000 0.485
72.96000 0.112
72.98000 -0.565
73.00000 2.752
73.02000 -0.461
73.04000 -2.391
73.06000 1.385
73.08000 5.847
73.10000 2.486
73.12000 3.372
73.14000 4.302
73.16000 7.462
73.18000 3.166
73.20000 3.543
73.22000 4.666
73.24000 5.497
73.26000 4.712
73.28000 4.408
73.30000 5.586
73.32000 2.445
73.34000 0.806
73.36000 0.418
73.38000 4.222
73.40000 8.485
73.42000 7.973
73.44000 9.917
73.46000 6.077
73.48000 3.520
73.50000 2.831
73.52000 -0.009
73.54000 1.327
73.56000 3.032
73.58000 4.091
73.60000 5.184
73.62000 8.549
73.64000 5.307
73.66000 3.038
73.68000 3.622
73.70000 2.381
73.72000 -0.822
73.74000 0.941
73.76000 2.149
73.78000 4.452
73.80000 3.964
73.82000 -2.399
73.84000 -1.295
73.86000 -2.285
73.88000 0.328
73.90000 0.301
73.92000 0.449
73.94000 0.610
73.96000 3.625
73.98000 4.114
74.00000 6.947
74.02000 3.451
74.04000 0.929
74.06000 2.860
74.08000 6.319
74.10000 3.629
74.12000 6.623
74.14000 4.212
74.16000 -0.104
74.18000 -1.050
74.20000 3.113
74.22000 4.400
74.24000 3.334
74.26000 6.991
74.28000 -0.440
74.30000 1.488
74.32000 1.354
74.34000 3.717
74.36000 5.488
74.38000 7.058
74.40000 1.403
74.42000 2.876
74.44000 6.386
74.46000 7.127
74.48000 1.185
74.50000 -2.402
74.52000 -1.128
74.54000 3.176
74.56000 7.332
74.58000 1.669
74.60000 -0.570
74.62000 0.781
74.64000 6.067
74.66000 3.076
74.68000 1.522
74.70000 0.511
74.72000 1.120
74.74000 0.304
74.76000 4.524
74.78000 4.930
74.80000 6.334
74.82000 5.422
74.84000 4.463
74.86000 3.012
74.88000 0.053
74.90000 0.868
74.92000 1.020
74.94000 1.916
74.96000 1.514
74.98000 -0.761
75.00000 -0.877
75.02000 0.795
75.04000 4.360
75.06000 6.296
75.08000 6.065
75.10000 -2.386
75.12000 3.229
75.14000 -0.736
75.16000 -0.648
75.18000 5.445
75.20000 7.707
75.22000 3.964
75.24000 0.338
75.26000 2.068
75.28000 8.010
75.30000 5.023
75.32000 4.062
75.34000 3.932
75.36000 3.243
75.38000 5.897
75.40000 -0.313
75.42000 0.330
75.44000 -0.959
75.46000 0.295
75.48000 1.696
75.50000 3.571
75.52000 0.816
75.54000 3.286
75.56000 4.073
75.58000 7.333
75.60000 6.506
75.62000 9.761
75.64000 9.057
75.66000 7.122
75.68000 7.087
75.70000 9.448
75.72000 4.484
75.74000 4.379
75.76000 2.246
75.78000 1.891
75.80000 2.211
75.82000 5.394
75.84000 5.254
75.86000 4.018
75.88000 -2.383
75.90000 2.955
75.92000 5.504
75.94000 6.380
75.96000 4.776
75.98000 2.534
76.00000 6.826
76.02000 6.447
76.04000 4.655
76.06000 5.507
76.08000 2.912
76.10000 5.899
76.12000 6.808
76.14000 6.716
76.16000 6.639
76.18000 4.188
76.20000 3.980
76.22000 7.154
76.24000 5.133
76.26000 7.204
76.28000 5.272
76.30000 3.007
76.32000 3.515
76.34000 1.294
76.36000 2.715
76.38000 3.434
76.40000 2.037
76.42000 2.541
76.44000 1.887
76.46000 6.462
76.48000 4.948
76.50000 0.807
76.52000 -2.413
76.54000 -1.393
76.56000 2.894
76.58000 6.165
76.60000 3.717
76.62000 5.365
76.64000 3.078
76.66000 4.104
76.68000 1.458
76.70000 2.927
76.72000 4.103
76.74000 2.304
76.76000 2.785
76.78000 4.306
76.80000 2.663
76.82000 3.214
76.84000 1.729
76.86000 2.223
76.88000 1.233
76.90000 5.346
76.92000 3.806
76.94000 5.912
76.96000 6.201
76.98000 3.374
77.00000 5.885
77.02000 1.926
77.04000 2.259
77.06000 1.010
77.08000 0.213
77.10000 -0.005
77.12000 3.045
77.14000 3.421
77.16000 2.330
77.18000 0.733
77.20000 2.123
77.22000 4.369
77.24000 5.007
77.26000 -0.715
77.28000 -1.225
77.30000 3.939
77.32000 2.282
77.34000 0.897
77.36000 5.239
77.38000 3.206
77.40000 2.247
77.42000 2.174
77.44000 0.841
77.46000 0.428
77.48000 3.584
77.50000 3.302
77.52000 4.400
77.54000 4.092
77.56000 9.179
77.58000 6.858
77.60000 5.631
77.62000 -1.350
77.64000 2.646
77.66000 0.428
77.68000 2.558
77.70000 4.173
77.72000 0.043
77.74000 4.183
77.76000 -2.442
77.78000 -0.540
77.80000 0.523
77.82000 3.242
77.84000 5.669
77.86000 6.869
77.88000 4.002
77.90000 6.869
77.92000 3.333
77.94000 2.980
77.96000 5.565
77.98000 2.666
78.00000 1.321
78.02000 1.476
78.04000 -1.250
78.06000 0.432
78.08000 -1.158
78.10000 -0.437
78.12000 2.458
78.14000 4.829
78.16000 4.096
78.18000 4.747
78.20000 11.028
78.22000 7.215
78.24000 3.856
78.26000 4.614
78.28000 5.141
78.30000 -1.234
78.32000 -2.429
78.34000 3.005
78.36000 1.841
78.38000 2.740
78.40000 4.565
78.42000 4.363
78.44000 2.163
78.46000 4.384
78.48000 8.583
78.50000 6.422
78.52000 3.640
78.54000 5.729
78.56000 2.506
78.58000 3.948
78.60000 3.244
78.62000 3.477
78.64000 1.499
78.66000 3.618
78.68000 8.423
78.70000 5.676
78.72000 4.544
78.74000 2.907
78.76000 1.132
78.78000 1.812
78.80000 7.372
78.82000 7.796
78.84000 10.689
78.86000 3.090
78.88000 3.410
78.90000 1.682
78.92000 1.156
78.94000 4.707
78.96000 4.325
78.98000 3.208
79.00000 4.123
79.02000 0.376
79.04000 1.457
79.06000 2.769
79.08000 5.648
79.10000 10.737
79.12000 6.322
79.14000 2.098
79.16000 3.591
79.18000 4.816
79.20000 6.448
79.22000 10.385
79.24000 6.653
79.26000 1.034
79.28000 1.182
79.30000 -1.695
79.32000 1.921
79.34000 6.062
79.36000 0.404
79.38000 -0.999
79.40000 6.092
79.42000 2.613
79.44000 -2.443
79.46000 0.442
79.48000 1.491
79.50000 3.850
79.52000 5.167
79.54000 2.821
79.56000 5.023
79.58000 3.891
79.60000 7.618
79.62000 4.089
79.64000 5.781
79.66000 1.520
79.68000 -0.560
79.70000 1.802
79.72000 1.136
79.74000 4.424
79.76000 5.472
79.78000 6.339
79.80000 3.773
79.82000 6.147
79.84000 8.655
79.86000 8.355
79.88000 7.561
79.90000 5.015
79.92000 5.568
79.94000 3.409
79.96000 0.914
79.98000 0.445
80.00000 2.896
80.02000 5.104
80.04000 1.911
80.06000 6.180
80.08000 5.428
80.10000 3.185
80.12000 4.359
80.14000 6.154
80.16000 4.961
80.18000 0.173
80.20000 -0.237
80.22000 0.620
80.24000 4.637
80.26000 3.414
80.28000 -0.503
80.30000 -2.148
80.32000 -2.506
80.34000 3.661
80.36000 2.124
80.38000 2.106
80.40000 5.089
80.42000 6.503
80.44000 6.213
80.46000 4.082
80.48000 1.840
80.50000 5.541
80.52000 6.057
80.54000 7.634
80.56000 8.973
80.58000 4.291
80.60000 2.888
80.62000 7.567
80.64000 7.440
80.66000 3.853
80.68000 4.376
80.70000 7.090
80.72000 3.888
80.74000 3.083
80.76000 2.100
80.78000 4.765
80.80000 3.560
80.82000 -2.545
80.84000 3.101
80.86000 4.088
80.88000 3.252
80.90000 8.630
80.92000 12.180
80.94000 4.945
80.96000 7.445
80.98000 9.520
81.00000 7.648
81.02000 5.699
81.04000 7.437
81.06000 6.530
81.08000 6.220
81.10000 5.483
81.12000 0.328
81.14000 4.202
81.16000 3.003
81.18000 4.868
81.20000 3.908
81.22000 8.858
81.24000 15.696
81.26000 9.612
81.28000 5.130
81.30000 1.622
81.32000 5.352
81.34000 6.121
81.36000 3.110
81.38000 0.669
81.40000 3.024
81.42000 8.425
81.44000 6.002
81.46000 8.656
81.48000 4.341
81.50000 1.982
81.52000 5.392
81.54000 11.581
81.56000 10.565
81.58000 9.470
81.60000 11.079
81.62000 5.864
81.64000 9.473
81.66000 9.969
81.68000 5.587
81.70000 5.850
81.72000 7.420
81.74000 10.111
81.76000 8.919
81.78000 5.144
81.80000 11.316
81.82000 12.259
81.84000 7.154
81.86000 6.344
81.88000 9.600
81.90000 15.512
81.92000 12.756
81.94000 12.528
81.96000 12.688
81.98000 18.580
82.00000 13.187
82.02000 14.938
82.04000 12.075
82.06000 11.679
82.08000 14.712
82.10000 17.824
82.12000 20.895
82.14000 16.730
82.16000 14.664
82.18000 13.666
82.20000 11.550
82.22000 16.513
82.24000 13.410
82.26000 13.475
82.28000 10.967
82.30000 10.558
82.32000 16.268
82.34000 18.117
82.36000 18.064
82.38000 14.758
82.40000 15.070
82.42000 21.982
82.44000 16.536
82.46000 14.102
82.48000 19.590
82.50000 24.293
82.52000 20.529
82.54000 19.535
82.56000 18.040
82.58000 17.717
82.60000 17.639
82.62000 18.037
82.64000 22.551
82.66000 24.782
82.68000 19.672
82.70000 22.499
82.72000 21.494
82.74000 23.058
82.76000 23.003
82.78000 21.824
82.80000 26.869
82.82000 21.070
82.84000 18.747
82.86000 20.324
82.88000 22.504
82.90000 20.850
82.92000 22.531
82.94000 30.638
82.96000 31.339
82.98000 24.652
83.00000 20.427
83.02000 26.389
83.04000 22.894
83.06000 24.459
83.08000 26.249
83.10000 23.848
83.12000 26.024
83.14000 21.834
83.16000 23.892
83.18000 21.137
83.20000 19.101
83.22000 27.102
83.24000 29.279
83.26000 27.701
83.28000 28.770
83.30000 25.760
83.32000 28.998
83.34000 24.909
83.36000 28.578
83.38000 30.251
83.40000 19.175
83.42000 17.762
83.44000 20.561
83.46000 19.732
83.48000 22.061
83.50000 22.169
83.52000 19.775
83.54000 19.102
83.56000 16.630
83.58000 15.112
83.60000 16.793
83.62000 20.466
83.64000 19.691
83.66000 18.533
83.68000 23.666
83.70000 25.646
83.72000 25.073
83.74000 18.080
83.76000 16.446
83.78000 12.937
83.80000 17.656
83.82000 18.007
83.84000 18.635
83.86000 19.661
83.88000 15.687
83.90000 14.251
83.92000 12.072
83.94000 12.793
83.96000 7.302
83.98000 12.487
84.00000 11.795
84.02000 9.645
84.04000 11.892
84.06000 8.951
84.08000 10.375
84.10000 7.586
84.12000 6.365
84.14000 8.548
84.16000 6.001
84.18000 8.279
84.20000 4.588
84.22000 3.770
84.24000 8.123
84.26000 8.761
84.28000 3.584
84.30000 3.289
84.32000 7.686
84.34000 5.734
84.36000 4.646
84.38000 6.074
84.40000 2.793
84.42000 1.301
84.44000 2.756
84.46000 2.089
84.48000 1.795
84.50000 3.175
84.52000 4.474
84.54000 1.645
84.56000 1.153
84.58000 4.026
84.60000 2.660
84.62000 -0.640
84.64000 -0.742
84.66000 3.226
84.68000 7.418
84.70000 4.034
84.72000 -0.007
84.74000 5.617
84.76000 6.888
84.78000 4.097
84.80000 2.505
84.82000 3.554
84.84000 1.778
84.86000 3.801
84.88000 8.941
84.90000 7.795
84.92000 4.226
84.94000 0.394
84.96000 0.895
84.98000 -2.540
85.00000 0.178
85.02000 3.080
85.04000 3.101
85.06000 -0.355
85.08000 -2.050
85.10000 2.269
85.12000 6.304
85.14000 3.737
85.16000 3.723
85.18000 3.793
85.20000 1.188
85.22000 -2.344
85.24000 0.417
85.26000 6.521
85.28000 2.736
85.30000 2.663
85.32000 3.913
85.34000 -1.227
85.36000 0.758
85.38000 0.622
85.40000 4.036
85.42000 5.479
85.44000 -0.486
85.46000 -2.499
85.48000 -1.146
85.50000 -1.352
85.52000 -0.361
85.54000 2.371
85.56000 1.783
85.58000 -1.317
85.60000 -2.493
85.62000 -0.167
85.64000 4.327
85.66000 1.904
85.68000 0.615
85.70000 -1.419
85.72000 -2.491
85.74000 0.952
85.76000 1.518
85.78000 2.831
85.80000 2.529
85.82000 2.319
85.84000 -0.145
85.86000 -2.498
85.88000 0.067
85.90000 1.924
85.92000 2.874
85.94000 1.090
85.96000 3.760
85.98000 7.155
86.00000 5.319
86.02000 4.256
86.04000 3.976
86.06000 5.520
86.08000 5.423
86.10000 2.007
86.12000 2.436
86.14000 4.987
86.16000 5.127
86.18000 4.425
86.20000 2.184
86.22000 2.733
86.24000 1.876
86.26000 1.130
86.28000 3.887
86.30000 5.106
86.32000 2.380
86.34000 1.651
86.36000 4.968
86.38000 6.056
86.40000 0.683
86.42000 6.035
86.44000 5.403
86.46000 7.458
86.48000 9.782
86.50000 8.154
86.52000 6.163
86.54000 5.619
86.56000 9.131
86.58000 6.840
86.60000 0.175
86.62000 2.866
86.64000 8.383
86.66000 5.325
86.68000 6.364
86.70000 10.460
86.72000 9.137
86.74000 5.704
86.76000 3.724
86.78000 0.211
86.80000 2.405
86.82000 8.151
86.84000 4.192
86.86000 7.894
86.88000 6.681
86.90000 7.652
86.92000 10.145
86.94000 14.733
86.96000 12.398
86.98000 13.662
87.00000 13.167
87.02000 16.798
87.04000 12.589
87.06000 16.457
87.08000 14.914
87.10000 17.600
87.12000 20.321
87.14000 18.894
87.16000 18.567
87.18000 19.022
87.20000 16.047
87.22000 12.661
87.24000 15.876
87.26000 12.693
87.28000 16.645
87.30000 24.107
87.32000 23.630
87.34000 19.126
87.36000 11.595
87.38000 14.854
87.40000 14.968
87.42000 15.209
87.44000 16.983
87.46000 15.987
87.48000 18.011
87.50000 22.350
87.52000 20.640
87.54000 21.098
87.56000 22.237
87.58000 12.006
87.60000 10.216
87.62000 15.336
87.64000 14.166
87.66000 15.975
87.68000 16.102
87.70000 23.488
87.72000 22.542
87.74000 16.399
87.76000 14.368
87.78000 14.849
87.80000 15.490
87.82000 15.748
87.84000 16.996
87.86000 19.505
87.88000 16.059
87.90000 14.848
87.92000 18.229
87.94000 19.496
87.96000 15.582
87.98000 12.436
88.00000 17.605
88.02000 19.946
88.04000 17.413
88.06000 12.473
88.08000 9.392
88.10000 8.880
88.12000 10.966
88.14000 15.982
88.16000 8.820
88.18000 9.304
88.20000 14.985
88.22000 16.734
88.24000 11.654
88.26000 9.998
88.28000 4.689
88.30000 4.698
88.32000 8.351
88.34000 7.725
88.36000 13.287
88.38000 9.968
88.40000 9.183
88.42000 6.312
88.44000 3.959
88.46000 5.778
88.48000 11.159
88.50000 9.102
88.52000 7.324
88.54000 6.288
88.56000 5.220
88.58000 7.074
88.60000 7.796
88.62000 8.793
88.64000 2.263
88.66000 0.977
88.68000 2.784
88.70000 10.171
88.72000 12.505
88.74000 4.118
88.76000 3.244
88.78000 4.390
88.80000 -0.568
88.82000 2.884
88.84000 9.130
88.86000 8.278
88.88000 4.926
88.90000 5.570
88.92000 6.890
88.94000 4.800
88.96000 4.114
88.98000 5.991
89.00000 3.715
89.02000 3.814
89.04000 0.144
89.06000 3.011
89.08000 0.918
89.10000 1.229
89.12000 2.198
89.14000 4.525
89.16000 2.427
89.18000 3.910
89.20000 5.494
89.22000 3.775
89.24000 -0.138
89.26000 -2.240
89.28000 -2.391
89.30000 -0.932
89.32000 -0.264
89.34000 -2.331
89.36000 0.616
89.38000 5.867
89.40000 5.869
89.42000 1.507
89.44000 0.902
89.46000 2.501
89.48000 1.373
89.50000 -1.207
89.52000 0.176
89.54000 1.307
89.56000 1.414
89.58000 3.514
89.60000 6.968
89.62000 1.433
89.64000 -2.365
89.66000 -0.063
89.68000 -2.328
89.70000 1.150
89.72000 3.959
89.74000 0.871
89.76000 0.866
89.78000 3.575
89.80000 -0.800
89.82000 -1.026
89.84000 3.304
89.86000 4.237
89.88000 1.237
89.90000 4.012
89.92000 4.358
89.94000 3.183
89.96000 4.474
89.98000 2.908
90.00000 1.960
90.02000 3.868
90.04000 3.915
90.06000 1.274
90.08000 2.697
90.10000 0.375
90.12000 1.012
90.14000 0.932
90.16000 2.028
90.18000 -0.367
90.20000 3.586
90.22000 -0.048
90.24000 -0.233
90.26000 3.681
90.28000 3.115
90.30000 -1.882
90.32000 2.297
90.34000 4.332
90.36000 5.362
90.38000 2.751
90.40000 4.009
90.42000 4.991
90.44000 1.650
90.46000 4.531
90.48000 1.708
90.50000 1.384
90.52000 0.346
90.54000 -0.436
90.56000 3.388
90.58000 1.652
90.60000 2.148
90.62000 1.963
90.64000 -2.307
90.66000 0.438
90.68000 2.268
90.70000 3.291
90.72000 5.263
90.74000 4.993
90.76000 2.761
90.78000 -2.294
90.80000 2.918
90.82000 5.631
90.84000 6.595
90.86000 6.739
90.88000 3.839
90.90000 1.890
90.92000 0.791
90.94000 -0.788
90.96000 2.479
90.98000 2.490
91.00000 0.921
91.02000 3.685
91.04000 4.210
91.06000 6.025
91.08000 5.819
91.10000 -0.098
91.12000 -0.542
91.14000 0.877
91.16000 -0.005
91.18000 1.816
91.20000 2.428
91.22000 7.202
91.24000 6.272
91.26000 3.970
91.28000 4.227
91.30000 1.602
91.32000 5.471
91.34000 3.324
91.36000 6.542
91.38000 5.512
91.40000 2.987
91.42000 2.991
91.44000 1.634
91.46000 1.843
91.48000 1.419
91.50000 5.330
91.52000 4.067
91.54000 4.727
91.56000 3.396
91.58000 -0.681
91.60000 2.971
91.62000 2.340
91.64000 4.106
91.66000 2.281
91.68000 -0.552
91.70000 5.824
91.72000 5.715
91.74000 4.901
91.76000 3.735
91.78000 -0.392
91.80000 3.361
91.82000 2.680
91.84000 3.410
91.86000 10.432
91.88000 7.321
91.90000 7.742
91.92000 6.154
91.94000 1.457
91.96000 0.435
91.98000 -2.268
92.00000 1.275
92.02000 1.923
92.04000 5.066
92.06000 6.166
92.08000 5.377
92.10000 6.100
92.12000 4.132
92.14000 1.655
92.16000 0.211
92.18000 3.539
92.20000 0.457
92.22000 6.229
92.24000 3.984
92.26000 -2.256
92.28000 -1.815
92.30000 -1.480
92.32000 3.412
92.34000 7.069
92.36000 4.432
92.38000 2.137
92.40000 8.251
92.42000 6.921
92.44000 4.770
92.46000 5.590
92.48000 4.934
92.50000 -0.370
92.52000 6.273
92.54000 8.836
92.56000 6.641
92.58000 3.989
92.60000 5.477
92.62000 7.546
92.64000 3.652
92.66000 2.440
92.68000 9.056
92.70000 8.460
92.72000 4.646
92.74000 3.167
92.76000 3.105
92.78000 4.532
92.80000 5.941
92.82000 5.670
92.84000 6.350
92.86000 2.289
92.88000 -0.148
92.90000 -0.726
92.92000 2.059
92.94000 -1.608
92.96000 6.337
92.98000 9.581
93.00000 4.056
93.02000 4.259
93.04000 5.310
93.06000 1.661
93.08000 9.255
93.10000 12.799
93.12000 3.131
93.14000 2.224
93.16000 1.329
93.18000 0.072
93.20000 2.492
93.22000 1.445
93.24000 3.371
93.26000 3.827
93.28000 8.726
93.30000 9.215
93.32000 7.500
93.34000 7.409
93.36000 7.297
93.38000 5.637
93.40000 4.310
93.42000 6.241
93.44000 3.257
93.46000 2.517
93.48000 6.853
93.50000 5.415
93.52000 2.254
93.54000 6.182
93.56000 7.775
93.58000 7.936
93.60000 4.745
93.62000 3.653
93.64000 5.885
93.66000 6.223
93.68000 5.091
93.70000 8.381
93.72000 6.220
93.74000 8.858
93.76000 10.287
93.78000 7.499
93.80000 4.569
93.82000 2.326
93.84000 6.724
93.86000 2.956
93.88000 -2.264
93.90000 -2.180
93.92000 -0.513
93.94000 -0.404
93.96000 4.864
93.98000 2.104
94.00000 5.078
94.02000 6.148
94.04000 6.290
94.06000 10.127
94.08000 9.884
94.10000 6.926
94.12000 3.215
94.14000 5.862
94.16000 3.383
94.18000 2.842
94.20000 9.190
94.22000 7.048
94.24000 -0.001
94.26000 4.161
94.28000 9.101
94.30000 7.695
94.32000 7.251
94.34000 4.466
94.36000 2.443
94.38000 3.402
94.40000 3.069
94.42000 2.625
94.44000 4.120
94.46000 5.424
94.48000 9.947
94.50000 5.218
94.52000 5.309
94.54000 0.689
94.56000 2.089
94.58000 7.454
94.60000 6.304
94.62000 2.998
94.64000 -0.475
94.66000 -2.312
94.68000 0.953
94.70000 5.115
94.72000 2.658
94.74000 3.318
94.76000 5.410
94.78000 2.799
94.80000 4.232
94.82000 4.114
94.84000 -0.730
94.86000 -1.909
94.88000 0.969
94.90000 1.245
94.92000 2.331
94.94000 8.013
94.96000 4.766
94.98000 1.377
95.00000 9.330
95.02000 8.232
95.04000 4.519
95.06000 4.796
95.08000 2.682
95.10000 2.974
95.12000 1.277
95.14000 -1.227
95.16000 3.947
95.18000 1.162
95.20000 5.724
95.22000 3.777
95.24000 3.857
95.26000 6.625
95.28000 5.387
95.30000 2.429
95.32000 1.484
95.34000 1.738
95.36000 1.940
95.38000 1.711
95.40000 3.158
95.42000 6.145
95.44000 7.086
95.46000 1.241
95.48000 9.011
95.50000 12.331
95.52000 12.621
95.54000 10.988
95.56000 -0.540
95.58000 1.133
95.60000 -2.313
95.62000 -0.610
95.64000 -0.262
95.66000 1.878
95.68000 3.383
95.70000 11.313
95.72000 12.916
95.74000 2.659
95.76000 1.555
95.78000 1.620
95.80000 6.756
95.82000 10.221
95.84000 5.241
95.86000 2.126
95.88000 3.761
95.90000 6.495
95.92000 2.950
95.94000 1.119
95.96000 7.209
95.98000 7.763
96.00000 8.983
96.02000 7.239
96.04000 3.500
96.06000 2.724
96.08000 5.369
96.10000 -0.149
96.12000 2.258
96.14000 -0.258
96.16000 -2.307
96.18000 0.000
96.20000 4.703
96.22000 7.710
96.24000 0.694
96.26000 1.800
96.28000 3.779
96.30000 6.758
96.32000 6.405
96.34000 4.439
96.36000 6.052
96.38000 9.437
96.40000 7.795
96.42000 1.465
96.44000 7.192
96.46000 7.493
96.48000 3.531
96.50000 3.326
96.52000 3.849
96.54000 4.625
96.56000 11.017
96.58000 7.197
96.60000 -0.771
96.62000 9.383
96.64000 5.304
96.66000 4.212
96.68000 2.169
96.70000 0.385
96.72000 4.995
96.74000 3.410
96.76000 1.902
96.78000 4.965
96.80000 6.504
96.82000 6.247
96.84000 7.325
96.86000 5.418
96.88000 7.321
96.90000 2.013
96.92000 3.006
96.94000 4.923
96.96000 2.312
96.98000 3.975
97.00000 1.678
97.02000 2.493
97.04000 2.448
97.06000 1.963
97.08000 3.134
97.10000 0.359
97.12000 2.315
97.14000 9.680
97.16000 11.940
97.18000 7.528
97.20000 4.395
97.22000 0.849
97.24000 0.045
97.26000 5.405
97.28000 1.929
97.30000 -1.220
97.32000 -2.261
97.34000 2.867
97.36000 2.087
97.38000 2.533
97.40000 5.582
97.42000 4.910
97.44000 5.632
97.46000 11.158
97.48000 4.671
97.50000 5.516
97.52000 10.414
97.54000 5.326
97.56000 6.172
97.58000 2.646
97.60000 3.669
97.62000 8.963
97.64000 9.409
97.66000 3.953
97.68000 1.179
97.70000 6.909
97.72000 6.874
97.74000 8.049
97.76000 2.541
97.78000 6.627
97.80000 3.482
97.82000 6.110
97.84000 9.547
97.86000 4.320
97.88000 -0.650
97.90000 4.945
97.92000 7.596
97.94000 10.847
97.96000 8.537
97.98000 7.078
98.00000 4.276
98.02000 10.794
98.04000 10.806
98.06000 10.626
98.08000 11.548
98.10000 6.835
98.12000 -2.218
98.14000 3.984
98.16000 7.819
98.18000 11.953
98.20000 7.648
98.22000 7.927
98.24000 -0.261
98.26000 1.359
98.28000 11.574
98.30000 12.223
98.32000 14.766
98.34000 20.035
98.36000 12.451
98.38000 14.329
98.40000 8.183
98.42000 -2.197
98.44000 2.974
98.46000 2.300
98.48000 6.837
98.50000 10.947
98.52000 12.231
98.54000 7.792
98.56000 3.160
98.58000 6.123
98.60000 12.767
98.62000 6.591
98.64000 9.001
98.66000 10.898
98.68000 12.216
98.70000 5.647
98.72000 7.526
98.74000 17.363
98.76000 17.407
98.78000 15.777
98.80000 5.918
98.82000 2.604
98.84000 2.628
98.86000 3.332
98.88000 5.137
98.90000 11.642
98.92000 7.383
98.94000 0.766
98.96000 5.334
98.98000 6.508
99.00000 13.266
99.02000 8.283
99.04000 19.182
99.06000 18.465
99.08000 5.487
99.10000 3.441
99.12000 7.120
99.14000 10.589
99.16000 11.671
99.18000 9.578
99.20000 6.767
99.22000 13.084
99.24000 17.092
99.26000 14.652
99.28000 17.610
99.30000 14.258
99.32000 13.081
99.34000 15.546
99.36000 16.458
99.38000 17.162
99.40000 6.584
99.42000 -2.101
99.44000 2.517
99.46000 8.080
99.48000 18.089
99.50000 24.756
99.52000 14.134
99.54000 12.938
99.56000 10.837
99.58000 8.510
99.60000 7.485
99.62000 7.488
99.64000 8.022
99.66000 3.793
99.68000 1.628
99.70000 16.021
99.72000 19.737
99.74000 8.325
99.76000 -2.309
99.78000 -1.795
99.80000 2.332
99.82000 15.164
99.84000 0.714
99.86000 5.837
99.88000 7.672
99.90000 10.046
99.92000 5.641
99.94000 -2.471
99.96000 -2.599
99.98000 0.000
