'Id: "0011387" Comment: "Integrate frame 0011387_Au-Ir-Rh_Rh-rich_XRD-Mapping-324-0000.gfrmwith cursor Wedge Cursor #5" Operator: "B?rgel" Anode: "Cu" Wavelength: "1.5406" Scantype: "2Theta (TwoTheta)" TimePerStep: "1" X: "-22.5" Y: "40.5" Z: "5.95" 
10.00000 0.000
10.02000 13.397
10.04000 11.466
10.06000 9.475
10.08000 0.555
10.10000 11.442
10.12000 16.732
10.14000 15.436
10.16000 7.985
10.18000 6.575
10.20000 3.411
10.22000 5.042
10.24000 15.400
10.26000 24.466
10.28000 41.400
10.30000 29.445
10.32000 18.998
10.34000 4.954
10.36000 13.733
10.38000 33.123
10.40000 11.300
10.42000 20.779
10.44000 40.015
10.46000 34.489
10.48000 19.652
10.50000 9.338
10.52000 9.297
10.54000 22.949
10.56000 22.228
10.58000 15.287
10.60000 8.273
10.62000 16.351
10.64000 23.819
10.66000 31.210
10.68000 29.282
10.70000 23.851
10.72000 15.032
10.74000 12.506
10.76000 3.811
10.78000 6.281
10.80000 44.091
10.82000 38.993
10.84000 26.179
10.86000 26.051
10.88000 20.814
10.90000 16.148
10.92000 18.493
10.94000 30.488
10.96000 25.077
10.98000 9.262
11.00000 6.815
11.02000 9.351
11.04000 -4.477
11.06000 10.078
11.08000 27.855
11.10000 24.028
11.12000 19.663
11.14000 22.284
11.16000 12.366
11.18000 16.970
11.20000 20.751
11.22000 26.079
11.24000 8.413
11.26000 6.463
11.28000 24.353
11.30000 13.030
11.32000 20.777
11.34000 18.933
11.36000 19.865
11.38000 25.651
11.40000 25.593
11.42000 29.035
11.44000 19.543
11.46000 19.078
11.48000 9.871
11.50000 2.936
11.52000 -2.522
11.54000 0.730
11.56000 10.871
11.58000 13.993
11.60000 10.096
11.62000 4.910
11.64000 8.743
11.66000 18.133
11.68000 19.297
11.70000 12.741
11.72000 5.293
11.74000 7.935
11.76000 26.296
11.78000 31.061
11.80000 21.459
11.82000 15.126
11.84000 5.871
11.86000 10.135
11.88000 13.989
11.90000 18.863
11.92000 8.885
11.94000 24.794
11.96000 18.199
11.98000 15.287
12.00000 11.904
12.02000 3.315
12.04000 5.219
12.06000 7.840
12.08000 6.565
12.10000 6.735
12.12000 9.085
12.14000 -0.083
12.16000 0.660
12.18000 -0.917
12.20000 6.013
12.22000 18.002
12.24000 18.825
12.26000 21.434
12.28000 20.699
12.30000 2.175
12.32000 12.072
12.34000 18.836
12.36000 6.102
12.38000 0.102
12.40000 1.641
12.42000 6.177
12.44000 4.866
12.46000 14.765
12.48000 17.476
12.50000 9.052
12.52000 16.447
12.54000 18.195
12.56000 16.303
12.58000 21.846
12.60000 18.511
12.62000 24.827
12.64000 17.400
12.66000 5.939
12.68000 10.732
12.70000 18.429
12.72000 14.484
12.74000 17.039
12.76000 14.924
12.78000 8.925
12.80000 9.925
12.82000 16.033
12.84000 3.109
12.86000 4.260
12.88000 1.913
12.90000 4.145
12.92000 7.279
12.94000 10.409
12.96000 6.395
12.98000 1.257
13.00000 4.243
13.02000 4.836
13.04000 4.438
13.06000 5.259
13.08000 11.560
13.10000 9.761
13.12000 8.144
13.14000 6.701
13.16000 6.967
13.18000 7.808
13.20000 14.580
13.22000 11.179
13.24000 3.537
13.26000 5.339
13.28000 19.159
13.30000 13.285
13.32000 14.701
13.34000 10.368
13.36000 3.975
13.38000 6.087
13.40000 6.654
13.42000 -1.241
13.44000 6.025
13.46000 9.133
13.48000 4.968
13.50000 4.781
13.52000 3.455
13.54000 0.149
13.56000 6.023
13.58000 12.940
13.60000 9.972
13.62000 10.511
13.64000 7.590
13.66000 11.716
13.68000 7.789
13.70000 1.842
13.72000 9.947
13.74000 12.708
13.76000 -0.906
13.78000 1.886
13.80000 -1.006
13.82000 1.876
13.84000 11.683
13.86000 7.326
13.88000 3.641
13.90000 5.841
13.92000 2.487
13.94000 12.365
13.96000 6.877
13.98000 -0.789
14.00000 2.301
14.02000 1.196
14.04000 2.586
14.06000 11.659
14.08000 13.414
14.10000 2.354
14.12000 7.149
14.14000 10.872
14.16000 3.599
14.18000 -2.145
14.20000 7.666
14.22000 12.348
14.24000 7.923
14.26000 10.253
14.28000 10.088
14.30000 5.597
14.32000 8.369
14.34000 4.919
14.36000 6.076
14.38000 3.994
14.40000 -3.520
14.42000 -3.949
14.44000 4.981
14.46000 2.078
14.48000 4.148
14.50000 5.048
14.52000 -4.519
14.54000 -2.184
14.56000 11.122
14.58000 -0.926
14.60000 6.067
14.62000 12.065
14.64000 19.191
14.66000 16.776
14.68000 12.811
14.70000 7.982
14.72000 12.573
14.74000 17.451
14.76000 11.677
14.78000 9.710
14.80000 13.226
14.82000 20.122
14.84000 20.132
14.86000 12.527
14.88000 9.818
14.90000 7.307
14.92000 6.650
14.94000 13.809
14.96000 3.742
14.98000 -0.004
15.00000 4.788
15.02000 4.387
15.04000 10.484
15.06000 17.026
15.08000 7.334
15.10000 1.279
15.12000 3.166
15.14000 1.963
15.16000 2.047
15.18000 7.027
15.20000 7.296
15.22000 2.046
15.24000 4.117
15.26000 6.163
15.28000 15.086
15.30000 14.045
15.32000 10.578
15.34000 6.581
15.36000 0.244
15.38000 6.431
15.40000 15.952
15.42000 10.500
15.44000 15.587
15.46000 13.288
15.48000 5.958
15.50000 6.123
15.52000 7.283
15.54000 8.204
15.56000 2.953
15.58000 2.558
15.60000 6.665
15.62000 3.802
15.64000 8.903
15.66000 18.455
15.68000 12.183
15.70000 17.048
15.72000 16.364
15.74000 8.615
15.76000 16.101
15.78000 17.936
15.80000 10.458
15.82000 8.486
15.84000 10.617
15.86000 9.368
15.88000 18.202
15.90000 12.008
15.92000 7.119
15.94000 6.886
15.96000 -4.423
15.98000 0.600
16.00000 1.542
16.02000 0.592
16.04000 4.976
16.06000 7.060
16.08000 12.434
16.10000 16.538
16.12000 10.876
16.14000 0.384
16.16000 5.000
16.18000 2.256
16.20000 6.189
16.22000 0.825
16.24000 -0.316
16.26000 11.691
16.28000 8.386
16.30000 6.573
16.32000 4.661
16.34000 9.211
16.36000 6.185
16.38000 3.215
16.40000 7.662
16.42000 8.294
16.44000 7.860
16.46000 15.774
16.48000 14.632
16.50000 20.000
16.52000 16.522
16.54000 10.283
16.56000 4.518
16.58000 17.125
16.60000 23.839
16.62000 15.069
16.64000 10.734
16.66000 5.348
16.68000 6.667
16.70000 8.010
16.72000 8.245
16.74000 6.585
16.76000 5.712
16.78000 -0.036
16.80000 -1.952
16.82000 5.020
16.84000 14.323
16.86000 11.014
16.88000 3.728
16.90000 -0.687
16.92000 6.013
16.94000 13.467
16.96000 5.637
16.98000 9.544
17.00000 -0.318
17.02000 8.508
17.04000 13.346
17.06000 19.010
17.08000 16.057
17.10000 12.308
17.12000 18.063
17.14000 10.854
17.16000 15.057
17.18000 15.580
17.20000 10.869
17.22000 12.564
17.24000 11.705
17.26000 17.205
17.28000 13.897
17.30000 5.444
17.32000 0.533
17.34000 3.594
17.36000 -0.073
17.38000 5.274
17.40000 4.935
17.42000 5.842
17.44000 9.164
17.46000 13.066
17.48000 14.341
17.50000 8.024
17.52000 14.232
17.54000 8.152
17.56000 -4.325
17.58000 3.646
17.60000 15.689
17.62000 17.364
17.64000 11.820
17.66000 8.666
17.68000 10.647
17.70000 11.208
17.72000 10.530
17.74000 12.315
17.76000 8.697
17.78000 8.456
17.80000 7.612
17.82000 7.437
17.84000 3.449
17.86000 5.531
17.88000 9.402
17.90000 13.785
17.92000 13.669
17.94000 17.430
17.96000 10.920
17.98000 15.151
18.00000 14.304
18.02000 6.732
18.04000 7.837
18.06000 11.391
18.08000 10.324
18.10000 13.807
18.12000 11.900
18.14000 11.759
18.16000 13.135
18.18000 11.786
18.20000 9.534
18.22000 13.629
18.24000 16.352
18.26000 9.786
18.28000 5.631
18.30000 -0.939
18.32000 -2.468
18.34000 -0.125
18.36000 3.416
18.38000 1.182
18.40000 5.545
18.42000 11.131
18.44000 9.331
18.46000 7.910
18.48000 8.704
18.50000 12.056
18.52000 9.964
18.54000 5.591
18.56000 2.782
18.58000 9.372
18.60000 1.478
18.62000 3.954
18.64000 8.595
18.66000 10.264
18.68000 9.511
18.70000 1.707
18.72000 2.518
18.74000 7.715
18.76000 2.722
18.78000 -3.111
18.80000 -4.062
18.82000 3.639
18.84000 5.574
18.86000 4.266
18.88000 8.034
18.90000 6.249
18.92000 5.007
18.94000 6.729
18.96000 3.791
18.98000 -0.366
19.00000 -0.263
19.02000 1.983
19.04000 4.039
19.06000 4.421
19.08000 -1.340
19.10000 1.153
19.12000 -0.845
19.14000 -1.439
19.16000 3.327
19.18000 9.617
19.20000 7.243
19.22000 -1.471
19.24000 1.156
19.26000 3.717
19.28000 1.238
19.30000 3.681
19.32000 7.540
19.34000 9.674
19.36000 0.093
19.38000 4.666
19.40000 -0.938
19.42000 -0.300
19.44000 5.716
19.46000 7.445
19.48000 12.454
19.50000 1.513
19.52000 2.085
19.54000 4.204
19.56000 7.553
19.58000 2.825
19.60000 -3.140
19.62000 -2.533
19.64000 4.337
19.66000 5.269
19.68000 8.045
19.70000 11.489
19.72000 7.298
19.74000 2.905
19.76000 4.102
19.78000 7.214
19.80000 3.785
19.82000 -0.650
19.84000 4.682
19.86000 3.747
19.88000 4.943
19.90000 8.864
19.92000 -4.274
19.94000 -0.054
19.96000 2.300
19.98000 4.259
20.00000 4.790
20.02000 0.616
20.04000 3.935
20.06000 -0.619
20.08000 -2.311
20.10000 -0.529
20.12000 -1.972
20.14000 4.110
20.16000 2.300
20.18000 0.384
20.20000 5.308
20.22000 2.638
20.24000 8.258
20.26000 10.592
20.28000 7.100
20.30000 2.726
20.32000 7.044
20.34000 7.903
20.36000 10.004
20.38000 7.449
20.40000 0.794
20.42000 0.929
20.44000 6.104
20.46000 5.742
20.48000 3.038
20.50000 -0.991
20.52000 1.779
20.54000 1.492
20.56000 -1.720
20.58000 1.890
20.60000 4.257
20.62000 5.232
20.64000 6.041
20.66000 6.816
20.68000 4.537
20.70000 0.998
20.72000 2.848
20.74000 4.927
20.76000 6.700
20.78000 11.136
20.80000 10.650
20.82000 8.498
20.84000 3.479
20.86000 -0.874
20.88000 6.380
20.90000 10.569
20.92000 11.521
20.94000 7.192
20.96000 6.069
20.98000 12.064
21.00000 8.289
21.02000 5.209
21.04000 7.547
21.06000 8.715
21.08000 1.808
21.10000 6.069
21.12000 5.559
21.14000 3.914
21.16000 -0.793
21.18000 1.482
21.20000 3.062
21.22000 5.303
21.24000 4.231
21.26000 -4.169
21.28000 -4.099
21.30000 4.379
21.32000 2.982
21.34000 -1.143
21.36000 2.842
21.38000 4.419
21.40000 10.357
21.42000 3.735
21.44000 -0.105
21.46000 4.976
21.48000 8.811
21.50000 2.826
21.52000 5.197
21.54000 7.955
21.56000 11.291
21.58000 3.322
21.60000 3.853
21.62000 6.538
21.64000 6.777
21.66000 2.567
21.68000 3.227
21.70000 11.147
21.72000 8.143
21.74000 10.822
21.76000 13.367
21.78000 7.345
21.80000 4.725
21.82000 0.965
21.84000 5.730
21.86000 9.339
21.88000 8.198
21.90000 14.138
21.92000 4.473
21.94000 4.500
21.96000 5.731
21.98000 9.545
22.00000 8.082
22.02000 7.696
22.04000 9.786
22.06000 8.697
22.08000 4.998
22.10000 3.377
22.12000 1.350
22.14000 2.244
22.16000 3.482
22.18000 9.531
22.20000 7.394
22.22000 10.279
22.24000 14.286
22.26000 13.905
22.28000 2.672
22.30000 1.884
22.32000 5.713
22.34000 5.356
22.36000 12.809
22.38000 11.408
22.40000 9.791
22.42000 6.465
22.44000 -1.951
22.46000 6.620
22.48000 12.005
22.50000 10.337
22.52000 7.546
22.54000 5.475
22.56000 -4.060
22.58000 0.927
22.60000 8.929
22.62000 8.551
22.64000 9.015
22.66000 6.625
22.68000 9.748
22.70000 6.450
22.72000 7.214
22.74000 8.086
22.76000 10.060
22.78000 10.401
22.80000 8.275
22.82000 6.128
22.84000 8.185
22.86000 5.197
22.88000 8.745
22.90000 9.050
22.92000 4.189
22.94000 8.045
22.96000 10.310
22.98000 9.685
23.00000 3.499
23.02000 7.250
23.04000 10.843
23.06000 12.542
23.08000 9.325
23.10000 5.605
23.12000 5.722
23.14000 14.086
23.16000 15.139
23.18000 12.854
23.20000 13.127
23.22000 10.080
23.24000 4.023
23.26000 -1.379
23.28000 2.133
23.30000 4.642
23.32000 6.987
23.34000 12.042
23.36000 8.176
23.38000 4.171
23.40000 6.126
23.42000 8.646
23.44000 4.610
23.46000 5.716
23.48000 3.769
23.50000 2.747
23.52000 7.245
23.54000 7.870
23.56000 -3.240
23.58000 -4.026
23.60000 0.337
23.62000 6.174
23.64000 6.222
23.66000 5.849
23.68000 3.238
23.70000 7.147
23.72000 10.664
23.74000 8.167
23.76000 10.825
23.78000 10.640
23.80000 4.368
23.82000 2.025
23.84000 5.903
23.86000 6.348
23.88000 1.079
23.90000 0.251
23.92000 -2.168
23.94000 -0.013
23.96000 4.338
23.98000 0.403
24.00000 0.345
24.02000 4.956
24.04000 6.402
24.06000 5.514
24.08000 10.230
24.10000 9.752
24.12000 11.592
24.14000 8.899
24.16000 1.765
24.18000 -2.623
24.20000 -3.100
24.22000 -3.386
24.24000 0.369
24.26000 6.334
24.28000 2.994
24.30000 0.124
24.32000 -0.496
24.34000 -0.939
24.36000 -0.268
24.38000 2.715
24.40000 5.757
24.42000 6.734
24.44000 7.897
24.46000 0.587
24.48000 -4.011
24.50000 0.791
24.52000 1.188
24.54000 2.396
24.56000 -2.139
24.58000 2.321
24.60000 4.913
24.62000 2.031
24.64000 -3.913
24.66000 0.239
24.68000 2.242
24.70000 1.420
24.72000 0.065
24.74000 -3.159
24.76000 1.120
24.78000 7.658
24.80000 1.191
24.82000 2.610
24.84000 2.254
24.86000 3.465
24.88000 6.542
24.90000 1.458
24.92000 -3.486
24.94000 -1.731
24.96000 5.525
24.98000 10.827
25.00000 4.971
25.02000 0.557
25.04000 2.080
25.06000 3.368
25.08000 0.880
25.10000 1.411
25.12000 -0.549
25.14000 -1.581
25.16000 -1.362
25.18000 -0.890
25.20000 2.900
25.22000 4.112
25.24000 6.249
25.26000 3.262
25.28000 2.751
25.30000 2.362
25.32000 0.402
25.34000 0.865
25.36000 6.537
25.38000 5.308
25.40000 -1.122
25.42000 1.978
25.44000 6.280
25.46000 5.421
25.48000 7.912
25.50000 2.715
25.52000 3.667
25.54000 1.573
25.56000 3.773
25.58000 5.757
25.60000 -0.264
25.62000 -0.980
25.64000 2.803
25.66000 1.425
25.68000 8.784
25.70000 8.046
25.72000 5.298
25.74000 5.626
25.76000 4.049
25.78000 5.585
25.80000 0.671
25.82000 1.440
25.84000 5.244
25.86000 11.000
25.88000 4.604
25.90000 1.817
25.92000 -0.553
25.94000 -0.158
25.96000 3.357
25.98000 -3.780
26.00000 -3.928
26.02000 3.033
26.04000 4.034
26.06000 3.913
26.08000 4.970
26.10000 2.106
26.12000 2.014
26.14000 1.081
26.16000 -1.316
26.18000 -2.469
26.20000 1.116
26.22000 2.014
26.24000 7.519
26.26000 4.169
26.28000 3.647
26.30000 4.124
26.32000 -1.033
26.34000 1.052
26.36000 3.607
26.38000 0.680
26.40000 0.146
26.42000 4.276
26.44000 6.333
26.46000 2.926
26.48000 0.914
26.50000 5.090
26.52000 9.779
26.54000 4.285
26.56000 -3.896
26.58000 2.362
26.60000 5.845
26.62000 2.009
26.64000 5.467
26.66000 3.873
26.68000 0.137
26.70000 3.692
26.72000 10.019
26.74000 7.476
26.76000 9.828
26.78000 11.260
26.80000 8.544
26.82000 9.800
26.84000 2.577
26.86000 7.279
26.88000 0.035
26.90000 -1.616
26.92000 0.248
26.94000 1.048
26.96000 -3.873
26.98000 1.110
27.00000 5.899
27.02000 1.658
27.04000 0.712
27.06000 -0.066
27.08000 0.977
27.10000 0.953
27.12000 -2.593
27.14000 -0.523
27.16000 2.157
27.18000 5.435
27.20000 6.292
27.22000 -0.917
27.24000 -3.354
27.26000 -2.935
27.28000 1.949
27.30000 3.289
27.32000 2.987
27.34000 5.093
27.36000 -0.497
27.38000 4.922
27.40000 8.287
27.42000 6.718
27.44000 5.113
27.46000 -1.614
27.48000 -0.293
27.50000 -0.904
27.52000 -3.552
27.54000 -1.823
27.56000 -0.694
27.58000 1.163
27.60000 -0.117
27.62000 -2.135
27.64000 2.244
27.66000 -2.965
27.68000 -1.432
27.70000 3.238
27.72000 3.191
27.74000 2.775
27.76000 1.294
27.78000 3.799
27.80000 -3.021
27.82000 -0.413
27.84000 3.523
27.86000 8.096
27.88000 5.068
27.90000 -0.705
27.92000 -3.529
27.94000 4.755
27.96000 3.956
27.98000 -0.634
28.00000 -1.884
28.02000 -1.429
28.04000 4.019
28.06000 2.411
28.08000 -3.839
28.10000 1.214
28.12000 1.887
28.14000 -0.965
28.16000 5.668
28.18000 4.800
28.20000 5.276
28.22000 4.106
28.24000 9.603
28.26000 3.789
28.28000 1.139
28.30000 2.621
28.32000 4.904
28.34000 4.653
28.36000 1.957
28.38000 0.319
28.40000 1.663
28.42000 4.521
28.44000 5.369
28.46000 3.328
28.48000 4.086
28.50000 3.783
28.52000 5.262
28.54000 0.200
28.56000 7.242
28.58000 7.619
28.60000 10.296
28.62000 4.782
28.64000 4.572
28.66000 1.399
28.68000 0.250
28.70000 -1.802
28.72000 -0.458
28.74000 -1.420
28.76000 -3.128
28.78000 -0.960
28.80000 2.774
28.82000 5.084
28.84000 1.522
28.86000 -3.284
28.88000 -1.161
28.90000 0.171
28.92000 -2.498
28.94000 -0.362
28.96000 1.147
28.98000 7.097
29.00000 5.572
29.02000 5.274
29.04000 2.383
29.06000 3.824
29.08000 0.103
29.10000 -0.789
29.12000 1.439
29.14000 8.545
29.16000 1.173
29.18000 -1.943
29.20000 -0.951
29.22000 -0.721
29.24000 -3.355
29.26000 3.155
29.28000 3.060
29.30000 -3.759
29.32000 -2.236
29.34000 2.687
29.36000 2.043
29.38000 1.936
29.40000 3.668
29.42000 1.491
29.44000 7.526
29.46000 6.971
29.48000 -0.245
29.50000 7.895
29.52000 6.155
29.54000 3.730
29.56000 5.195
29.58000 8.391
29.60000 7.897
29.62000 6.162
29.64000 5.321
29.66000 4.540
29.68000 0.112
29.70000 2.644
29.72000 6.317
29.74000 6.114
29.76000 0.449
29.78000 4.547
29.80000 6.135
29.82000 -1.452
29.84000 -0.896
29.86000 2.523
29.88000 3.297
29.90000 2.735
29.92000 2.537
29.94000 0.280
29.96000 0.119
29.98000 4.648
30.00000 -2.983
30.02000 -1.778
30.04000 2.771
30.06000 3.485
30.08000 -0.561
30.10000 3.523
30.12000 7.946
30.14000 4.970
30.16000 -0.526
30.18000 1.037
30.20000 3.471
30.22000 1.266
30.24000 -3.689
30.26000 1.126
30.28000 -0.912
30.30000 1.349
30.32000 2.628
30.34000 1.611
30.36000 0.213
30.38000 0.141
30.40000 -2.460
30.42000 11.006
30.44000 5.043
30.46000 2.555
30.48000 2.955
30.50000 1.770
30.52000 -2.218
30.54000 1.368
30.56000 2.543
30.58000 1.731
30.60000 2.542
30.62000 6.948
30.64000 7.089
30.66000 4.764
30.68000 2.350
30.70000 2.779
30.72000 9.336
30.74000 10.522
30.76000 4.085
30.78000 1.764
30.80000 5.631
30.82000 6.331
30.84000 3.445
30.86000 8.011
30.88000 9.000
30.90000 7.116
30.92000 0.619
30.94000 0.155
30.96000 1.186
30.98000 1.781
31.00000 2.933
31.02000 8.197
31.04000 6.616
31.06000 2.924
31.08000 1.701
31.10000 2.717
31.12000 1.374
31.14000 3.413
31.16000 0.246
31.18000 -3.183
31.20000 -0.836
31.22000 4.188
31.24000 2.076
31.26000 -0.449
31.28000 -0.691
31.30000 -0.534
31.32000 -3.307
31.34000 0.982
31.36000 3.524
31.38000 5.006
31.40000 1.886
31.42000 3.253
31.44000 5.626
31.46000 4.775
31.48000 6.958
31.50000 3.183
31.52000 3.661
31.54000 6.895
31.56000 1.857
31.58000 2.598
31.60000 1.696
31.62000 5.044
31.64000 3.534
31.66000 1.596
31.68000 6.829
31.70000 8.865
31.72000 -0.275
31.74000 0.390
31.76000 -1.287
31.78000 -1.760
31.80000 -1.254
31.82000 -3.621
31.84000 3.762
31.86000 5.961
31.88000 7.598
31.90000 6.287
31.92000 6.343
31.94000 10.374
31.96000 7.094
31.98000 5.486
32.00000 3.795
32.02000 2.980
32.04000 2.016
32.06000 -0.733
32.08000 -0.467
32.10000 3.961
32.12000 1.199
32.14000 6.266
32.16000 9.310
32.18000 5.497
32.20000 -2.342
32.22000 -0.155
32.24000 6.079
32.26000 3.717
32.28000 2.592
32.30000 -2.068
32.32000 1.040
32.34000 3.935
32.36000 5.251
32.38000 5.392
32.40000 3.886
32.42000 1.134
32.44000 1.720
32.46000 1.390
32.48000 0.599
32.50000 2.721
32.52000 -2.905
32.54000 0.190
32.56000 -1.926
32.58000 1.026
32.60000 -2.190
32.62000 0.280
32.64000 4.166
32.66000 2.382
32.68000 6.093
32.70000 7.722
32.72000 3.507
32.74000 4.117
32.76000 -0.210
32.78000 4.566
32.80000 6.291
32.82000 5.704
32.84000 -0.912
32.86000 0.621
32.88000 -1.027
32.90000 -3.596
32.92000 0.501
32.94000 2.873
32.96000 2.430
32.98000 9.354
33.00000 4.015
33.02000 0.291
33.04000 -0.407
33.06000 0.276
33.08000 1.982
33.10000 -0.402
33.12000 -0.471
33.14000 3.454
33.16000 -1.397
33.18000 0.472
33.20000 -0.996
33.22000 1.857
33.24000 2.616
33.26000 3.374
33.28000 3.726
33.30000 1.944
33.32000 3.453
33.34000 3.019
33.36000 3.017
33.38000 -3.605
33.40000 -0.977
33.42000 3.314
33.44000 2.327
33.46000 0.320
33.48000 -0.149
33.50000 2.643
33.52000 6.578
33.54000 4.152
33.56000 4.623
33.58000 7.808
33.60000 4.665
33.62000 3.754
33.64000 4.078
33.66000 2.301
33.68000 0.333
33.70000 3.612
33.72000 5.937
33.74000 2.117
33.76000 1.853
33.78000 1.689
33.80000 1.196
33.82000 -3.603
33.84000 1.354
33.86000 0.284
33.88000 1.716
33.90000 -2.861
33.92000 0.575
33.94000 -0.171
33.96000 -0.157
33.98000 -1.061
34.00000 -3.602
34.02000 2.117
34.04000 2.951
34.06000 2.988
34.08000 -1.424
34.10000 1.150
34.12000 6.178
34.14000 2.090
34.16000 9.321
34.18000 10.894
34.20000 7.519
34.22000 -0.535
34.24000 -3.598
34.26000 -3.062
34.28000 1.958
34.30000 5.763
34.32000 2.034
34.34000 2.045
34.36000 1.467
34.38000 -2.429
34.40000 4.596
34.42000 2.533
34.44000 4.497
34.46000 -1.224
34.48000 -2.850
34.50000 -1.628
34.52000 1.175
34.54000 0.044
34.56000 3.077
34.58000 0.228
34.60000 -0.653
34.62000 -0.200
34.64000 2.548
34.66000 -0.432
34.68000 2.600
34.70000 5.396
34.72000 3.868
34.74000 1.025
34.76000 -1.913
34.78000 3.063
34.80000 3.001
34.82000 1.240
34.84000 1.027
34.86000 7.282
34.88000 7.842
34.90000 0.112
34.92000 3.228
34.94000 5.906
34.96000 1.445
34.98000 5.723
35.00000 -2.404
35.02000 -1.813
35.04000 -1.303
35.06000 3.019
35.08000 4.879
35.10000 -0.057
35.12000 1.000
35.14000 1.766
35.16000 3.216
35.18000 0.900
35.20000 -1.136
35.22000 -3.057
35.24000 -1.649
35.26000 -1.147
35.28000 -0.049
35.30000 1.382
35.32000 3.016
35.34000 -1.436
35.36000 3.099
35.38000 1.238
35.40000 -2.185
35.42000 -3.589
35.44000 1.454
35.46000 1.557
35.48000 -3.591
35.50000 -2.474
35.52000 -0.439
35.54000 -2.670
35.56000 -3.537
35.58000 -0.773
35.60000 2.088
35.62000 -1.936
35.64000 -2.915
35.66000 -1.488
35.68000 -2.149
35.70000 -0.824
35.72000 3.429
35.74000 6.617
35.76000 2.159
35.78000 3.781
35.80000 4.668
35.82000 -1.222
35.84000 -1.895
35.86000 1.528
35.88000 5.640
35.90000 -2.013
35.92000 -1.706
35.94000 2.124
35.96000 1.737
35.98000 4.739
36.00000 -0.265
36.02000 1.532
36.04000 -2.292
36.06000 -1.864
36.08000 3.176
36.10000 3.619
36.12000 0.495
36.14000 2.462
36.16000 1.060
36.18000 -1.927
36.20000 1.583
36.22000 0.098
36.24000 0.143
36.26000 -2.968
36.28000 0.890
36.30000 0.079
36.32000 2.190
36.34000 5.015
36.36000 1.174
36.38000 0.875
36.40000 3.759
36.42000 -0.045
36.44000 2.892
36.46000 1.753
36.48000 2.216
36.50000 -2.878
36.52000 -3.621
36.54000 -0.110
36.56000 5.084
36.58000 6.190
36.60000 3.549
36.62000 3.521
36.64000 1.572
36.66000 -2.930
36.68000 -0.316
36.70000 4.247
36.72000 2.223
36.74000 3.992
36.76000 8.316
36.78000 4.924
36.80000 1.850
36.82000 0.795
36.84000 1.845
36.86000 2.712
36.88000 3.029
36.90000 -0.090
36.92000 0.307
36.94000 4.335
36.96000 5.990
36.98000 -0.027
37.00000 5.618
37.02000 4.388
37.04000 4.987
37.06000 6.242
37.08000 5.040
37.10000 0.208
37.12000 3.106
37.14000 -0.427
37.16000 2.310
37.18000 5.668
37.20000 3.905
37.22000 0.407
37.24000 5.579
37.26000 0.861
37.28000 0.391
37.30000 -0.826
37.32000 2.698
37.34000 4.554
37.36000 3.885
37.38000 5.507
37.40000 8.333
37.42000 7.322
37.44000 7.371
37.46000 7.235
37.48000 11.391
37.50000 7.194
37.52000 8.662
37.54000 10.815
37.56000 13.293
37.58000 14.617
37.60000 16.432
37.62000 11.235
37.64000 13.544
37.66000 13.579
37.68000 8.537
37.70000 9.670
37.72000 11.927
37.74000 13.171
37.76000 15.057
37.78000 13.846
37.80000 15.658
37.82000 18.162
37.84000 15.993
37.86000 15.865
37.88000 15.981
37.90000 18.906
37.92000 16.941
37.94000 19.480
37.96000 22.394
37.98000 25.867
38.00000 19.152
38.02000 16.146
38.04000 19.312
38.06000 21.241
38.08000 25.282
38.10000 26.492
38.12000 25.437
38.14000 30.319
38.16000 36.714
38.18000 37.870
38.20000 36.720
38.22000 32.333
38.24000 33.902
38.26000 32.215
38.28000 41.454
38.30000 38.110
38.32000 37.994
38.34000 37.474
38.36000 46.023
38.38000 43.122
38.40000 38.863
38.42000 47.321
38.44000 51.801
38.46000 51.980
38.48000 55.132
38.50000 60.898
38.52000 63.844
38.54000 64.696
38.56000 61.065
38.58000 65.989
38.60000 65.361
38.62000 68.262
38.64000 77.501
38.66000 84.439
38.68000 82.653
38.70000 81.305
38.72000 86.669
38.74000 92.335
38.76000 96.447
38.78000 102.920
38.80000 105.873
38.82000 109.291
38.84000 116.665
38.86000 123.308
38.88000 129.359
38.90000 132.937
38.92000 139.150
38.94000 146.663
38.96000 154.758
38.98000 166.485
39.00000 173.150
39.02000 184.677
39.04000 192.609
39.06000 200.673
39.08000 205.851
39.10000 214.141
39.12000 235.524
39.14000 238.782
39.16000 250.491
39.18000 260.273
39.20000 281.360
39.22000 297.614
39.24000 310.763
39.26000 327.007
39.28000 344.782
39.30000 359.935
39.32000 369.461
39.34000 400.291
39.36000 422.338
39.38000 435.159
39.40000 460.533
39.42000 487.813
39.44000 509.202
39.46000 530.759
39.48000 558.385
39.50000 579.649
39.52000 599.680
39.54000 633.756
39.56000 670.642
39.58000 687.447
39.60000 711.318
39.62000 726.291
39.64000 737.514
39.66000 757.240
39.68000 791.049
39.70000 819.105
39.72000 824.788
39.74000 834.213
39.76000 835.430
39.78000 837.087
39.80000 831.699
39.82000 828.994
39.84000 833.978
39.86000 835.334
39.88000 818.037
39.90000 803.915
39.92000 786.837
39.94000 755.044
39.96000 738.356
39.98000 717.343
40.00000 695.068
40.02000 673.148
40.04000 654.553
40.06000 630.142
40.08000 615.615
40.10000 591.133
40.12000 559.867
40.14000 527.383
40.16000 501.595
40.18000 477.526
40.20000 451.883
40.22000 429.834
40.24000 410.490
40.26000 397.663
40.28000 375.229
40.30000 348.689
40.32000 323.118
40.34000 302.783
40.36000 288.506
40.38000 271.718
40.40000 253.843
40.42000 236.840
40.44000 219.553
40.46000 209.225
40.48000 194.141
40.50000 181.040
40.52000 173.706
40.54000 166.510
40.56000 155.708
40.58000 143.900
40.60000 132.121
40.62000 126.443
40.64000 125.515
40.66000 114.473
40.68000 104.403
40.70000 97.872
40.72000 93.827
40.74000 85.624
40.76000 79.974
40.78000 77.115
40.80000 75.742
40.82000 73.475
40.84000 69.715
40.86000 64.047
40.88000 65.041
40.90000 59.871
40.92000 50.378
40.94000 46.219
40.96000 44.920
40.98000 49.099
41.00000 47.536
41.02000 39.148
41.04000 35.457
41.06000 38.038
41.08000 35.082
41.10000 31.279
41.12000 27.173
41.14000 23.619
41.16000 22.463
41.18000 27.401
41.20000 27.743
41.22000 28.693
41.24000 23.899
41.26000 19.402
41.28000 17.959
41.30000 18.548
41.32000 19.332
41.34000 17.281
41.36000 17.222
41.38000 20.428
41.40000 21.965
41.42000 14.366
41.44000 13.284
41.46000 12.315
41.48000 14.845
41.50000 13.816
41.52000 12.868
41.54000 14.986
41.56000 11.871
41.58000 12.288
41.60000 11.187
41.62000 5.130
41.64000 2.713
41.66000 10.063
41.68000 8.122
41.70000 6.821
41.72000 6.272
41.74000 6.119
41.76000 4.888
41.78000 4.405
41.80000 5.697
41.82000 4.003
41.84000 3.574
41.86000 1.036
41.88000 4.248
41.90000 4.287
41.92000 2.317
41.94000 3.600
41.96000 2.508
41.98000 -0.497
42.00000 -0.632
42.02000 0.291
42.04000 0.723
42.06000 1.959
42.08000 5.115
42.10000 4.759
42.12000 2.975
42.14000 1.666
42.16000 2.767
42.18000 2.428
42.20000 0.970
42.22000 0.071
42.24000 -0.913
42.26000 -1.494
42.28000 0.186
42.30000 -0.697
42.32000 0.904
42.34000 3.947
42.36000 3.722
42.38000 -1.852
42.40000 -1.213
42.42000 -0.820
42.44000 0.568
42.46000 2.731
42.48000 -2.161
42.50000 1.715
42.52000 3.556
42.54000 5.695
42.56000 0.557
42.58000 -3.404
42.60000 -3.097
42.62000 -2.264
42.64000 -2.132
42.66000 0.406
42.68000 3.401
42.70000 -0.290
42.72000 3.787
42.74000 2.534
42.76000 -1.204
42.78000 -1.240
42.80000 1.542
42.82000 2.942
42.84000 4.131
42.86000 0.501
42.88000 3.368
42.90000 5.044
42.92000 2.226
42.94000 1.768
42.96000 3.461
42.98000 -0.577
43.00000 1.501
43.02000 0.096
43.04000 0.261
43.06000 2.494
43.08000 3.521
43.10000 4.207
43.12000 3.181
43.14000 2.006
43.16000 3.767
43.18000 3.554
43.20000 -1.388
43.22000 -3.339
43.24000 -2.456
43.26000 3.939
43.28000 5.796
43.30000 6.364
43.32000 1.836
43.34000 -0.346
43.36000 -0.725
43.38000 -2.384
43.40000 0.345
43.42000 3.683
43.44000 1.697
43.46000 -3.327
43.48000 -1.075
43.50000 -0.227
43.52000 3.800
43.54000 1.378
43.56000 1.108
43.58000 2.659
43.60000 2.036
43.62000 -1.581
43.64000 -2.151
43.66000 1.315
43.68000 3.855
43.70000 -1.185
43.72000 0.464
43.74000 1.270
43.76000 2.861
43.78000 1.150
43.80000 -1.938
43.82000 -3.083
43.84000 -1.878
43.86000 -0.831
43.88000 4.903
43.90000 2.218
43.92000 -0.574
43.94000 0.492
43.96000 -2.572
43.98000 -1.985
44.00000 3.358
44.02000 3.319
44.04000 3.468
44.06000 2.893
44.08000 3.880
44.10000 0.311
44.12000 -3.284
44.14000 -3.233
44.16000 1.653
44.18000 1.644
44.20000 2.118
44.22000 0.659
44.24000 0.999
44.26000 2.088
44.28000 -0.848
44.30000 -1.875
44.32000 1.260
44.34000 4.514
44.36000 3.238
44.38000 2.012
44.40000 -0.067
44.42000 5.839
44.44000 0.798
44.46000 0.109
44.48000 3.353
44.50000 2.153
44.52000 1.487
44.54000 0.824
44.56000 0.435
44.58000 3.329
44.60000 4.144
44.62000 4.592
44.64000 5.673
44.66000 5.215
44.68000 4.680
44.70000 2.537
44.72000 4.004
44.74000 5.245
44.76000 3.413
44.78000 3.597
44.80000 6.845
44.82000 6.375
44.84000 10.359
44.86000 10.994
44.88000 9.362
44.90000 3.265
44.92000 5.421
44.94000 8.449
44.96000 5.079
44.98000 6.241
45.00000 8.342
45.02000 7.989
45.04000 8.562
45.06000 10.030
45.08000 9.876
45.10000 8.815
45.12000 9.931
45.14000 12.182
45.16000 10.279
45.18000 8.191
45.20000 10.973
45.22000 14.065
45.24000 14.379
45.26000 13.747
45.28000 14.793
45.30000 16.393
45.32000 20.576
45.34000 18.496
45.36000 18.115
45.38000 17.327
45.40000 21.261
45.42000 23.068
45.44000 22.676
45.46000 24.231
45.48000 24.986
45.50000 24.524
45.52000 22.792
45.54000 22.877
45.56000 26.299
45.58000 27.730
45.60000 29.479
45.62000 32.026
45.64000 34.865
45.66000 30.518
45.68000 30.515
45.70000 33.691
45.72000 39.380
45.74000 42.711
45.76000 45.793
45.78000 45.402
45.80000 49.078
45.82000 55.052
45.84000 52.550
45.86000 49.878
45.88000 51.603
45.90000 54.023
45.92000 56.021
45.94000 61.526
45.96000 62.883
45.98000 68.827
46.00000 71.745
46.02000 69.975
46.04000 68.705
46.06000 66.629
46.08000 71.462
46.10000 76.871
46.12000 79.966
46.14000 84.458
46.16000 87.222
46.18000 83.352
46.20000 88.571
46.22000 91.971
46.24000 89.528
46.26000 97.299
46.28000 100.299
46.30000 101.924
46.32000 93.103
46.34000 94.928
46.36000 103.261
46.38000 104.986
46.40000 109.104
46.42000 105.727
46.44000 104.498
46.46000 107.466
46.48000 105.492
46.50000 106.570
46.52000 103.397
46.54000 98.248
46.56000 101.390
46.58000 103.989
46.60000 110.161
46.62000 107.273
46.64000 103.730
46.66000 104.650
46.68000 107.740
46.70000 103.137
46.72000 101.458
46.74000 101.040
46.76000 94.997
46.78000 91.452
46.80000 88.808
46.82000 86.192
46.84000 86.137
46.86000 85.796
46.88000 78.893
46.90000 77.296
46.92000 72.612
46.94000 70.841
46.96000 72.028
46.98000 68.263
47.00000 65.637
47.02000 57.450
47.04000 58.081
47.06000 55.247
47.08000 54.657
47.10000 52.793
47.12000 47.250
47.14000 45.440
47.16000 47.298
47.18000 46.836
47.20000 44.820
47.22000 38.660
47.24000 35.276
47.26000 26.015
47.28000 22.350
47.30000 27.493
47.32000 28.530
47.34000 26.169
47.36000 24.901
47.38000 28.475
47.40000 29.370
47.42000 26.555
47.44000 22.073
47.46000 24.706
47.48000 20.208
47.50000 18.556
47.52000 18.905
47.54000 16.325
47.56000 17.663
47.58000 14.042
47.60000 12.578
47.62000 16.618
47.64000 14.440
47.66000 12.239
47.68000 6.033
47.70000 8.094
47.72000 7.922
47.74000 7.010
47.76000 6.418
47.78000 8.501
47.80000 11.407
47.82000 13.492
47.84000 7.888
47.86000 8.394
47.88000 9.027
47.90000 7.169
47.92000 4.709
47.94000 8.139
47.96000 6.687
47.98000 5.103
48.00000 4.043
48.02000 2.011
48.04000 2.254
48.06000 3.552
48.08000 3.614
48.10000 3.571
48.12000 3.867
48.14000 -2.498
48.16000 -2.880
48.18000 1.991
48.20000 2.974
48.22000 3.144
48.24000 1.622
48.26000 2.263
48.28000 3.075
48.30000 3.021
48.32000 6.185
48.34000 6.350
48.36000 4.615
48.38000 5.985
48.40000 4.194
48.42000 0.058
48.44000 3.969
48.46000 5.037
48.48000 -2.320
48.50000 2.173
48.52000 1.338
48.54000 0.298
48.56000 -0.512
48.58000 3.852
48.60000 5.891
48.62000 4.589
48.64000 3.010
48.66000 3.399
48.68000 0.920
48.70000 -0.913
48.72000 2.083
48.74000 1.836
48.76000 1.944
48.78000 8.820
48.80000 8.759
48.82000 7.912
48.84000 7.967
48.86000 3.072
48.88000 -2.745
48.90000 6.431
48.92000 7.868
48.94000 6.684
48.96000 5.041
48.98000 6.082
49.00000 2.459
49.02000 1.908
49.04000 2.723
49.06000 4.460
49.08000 7.544
49.10000 5.551
49.12000 2.966
49.14000 2.996
49.16000 1.323
49.18000 1.881
49.20000 2.278
49.22000 4.098
49.24000 2.423
49.26000 1.253
49.28000 3.271
49.30000 6.380
49.32000 1.456
49.34000 0.261
49.36000 0.856
49.38000 3.827
49.40000 2.401
49.42000 1.527
49.44000 0.932
49.46000 1.532
49.48000 0.875
49.50000 1.033
49.52000 1.355
49.54000 0.776
49.56000 4.472
49.58000 2.358
49.60000 -1.192
49.62000 3.075
49.64000 5.313
49.66000 5.449
49.68000 2.859
49.70000 0.334
49.72000 -1.235
49.74000 5.611
49.76000 4.340
49.78000 0.944
49.80000 1.370
49.82000 2.885
49.84000 3.041
49.86000 -1.137
49.88000 2.257
49.90000 -1.045
49.92000 -0.543
49.94000 -0.242
49.96000 -0.104
49.98000 -0.410
50.00000 4.822
50.02000 3.314
50.04000 0.046
50.06000 0.012
50.08000 3.233
50.10000 3.651
50.12000 0.002
50.14000 3.024
50.16000 2.900
50.18000 -2.680
50.20000 2.523
50.22000 3.594
50.24000 2.022
50.26000 3.424
50.28000 5.328
50.30000 6.229
50.32000 5.831
50.34000 4.931
50.36000 6.035
50.38000 4.226
50.40000 5.625
50.42000 2.685
50.44000 0.203
50.46000 -0.993
50.48000 4.342
50.50000 1.529
50.52000 1.945
50.54000 0.551
50.56000 1.552
50.58000 0.001
50.60000 -0.145
50.62000 0.401
50.64000 1.890
50.66000 3.308
50.68000 -1.116
50.70000 -1.629
50.72000 -0.602
50.74000 -1.014
50.76000 0.035
50.78000 3.081
50.80000 1.173
50.82000 1.038
50.84000 2.217
50.86000 3.461
50.88000 -2.660
50.90000 -0.665
50.92000 6.223
50.94000 3.405
50.96000 -0.561
50.98000 1.501
51.00000 3.167
51.02000 4.515
51.04000 2.667
51.06000 -0.475
51.08000 2.815
51.10000 3.788
51.12000 1.679
51.14000 -0.757
51.16000 0.189
51.18000 4.131
51.20000 4.097
51.22000 2.526
51.24000 4.330
51.26000 7.685
51.28000 4.709
51.30000 4.768
51.32000 0.578
51.34000 -1.898
51.36000 -0.791
51.38000 1.864
51.40000 1.194
51.42000 2.047
51.44000 3.818
51.46000 0.768
51.48000 2.791
51.50000 2.403
51.52000 1.960
51.54000 -0.995
51.56000 2.176
51.58000 2.385
51.60000 -0.590
51.62000 -2.261
51.64000 -2.640
51.66000 3.765
51.68000 6.617
51.70000 4.514
51.72000 5.592
51.74000 0.534
51.76000 4.676
51.78000 3.467
51.80000 0.545
51.82000 4.000
51.84000 2.183
51.86000 4.149
51.88000 4.202
51.90000 2.724
51.92000 3.919
51.94000 2.121
51.96000 -2.069
51.98000 -0.778
52.00000 1.257
52.02000 2.541
52.04000 1.762
52.06000 -2.513
52.08000 -2.448
52.10000 1.363
52.12000 4.521
52.14000 4.458
52.16000 2.903
52.18000 1.379
52.20000 1.877
52.22000 -2.206
52.24000 0.505
52.26000 0.747
52.28000 -1.073
52.30000 0.733
52.32000 4.220
52.34000 2.594
52.36000 3.270
52.38000 3.216
52.40000 -2.635
52.42000 -0.665
52.44000 0.465
52.46000 2.232
52.48000 2.799
52.50000 -0.470
52.52000 0.160
52.54000 -1.916
52.56000 -2.194
52.58000 0.274
52.60000 1.937
52.62000 0.893
52.64000 1.510
52.66000 0.838
52.68000 -2.541
52.70000 -1.326
52.72000 0.422
52.74000 -0.106
52.76000 2.997
52.78000 2.775
52.80000 -2.479
52.82000 -2.370
52.84000 1.264
52.86000 1.652
52.88000 2.414
52.90000 2.377
52.92000 -0.170
52.94000 -1.913
52.96000 -2.604
52.98000 2.118
53.00000 1.992
53.02000 0.493
53.04000 -0.253
53.06000 -0.803
53.08000 1.264
53.10000 0.700
53.12000 -2.080
53.14000 0.099
53.16000 1.570
53.18000 2.658
53.20000 1.250
53.22000 1.890
53.24000 3.678
53.26000 3.928
53.28000 2.836
53.30000 1.627
53.32000 1.312
53.34000 2.427
53.36000 1.366
53.38000 3.306
53.40000 0.395
53.42000 -1.040
53.44000 -2.458
53.46000 -0.084
53.48000 -0.745
53.50000 1.886
53.52000 4.251
53.54000 2.362
53.56000 1.722
53.58000 -1.589
53.60000 -1.941
53.62000 3.754
53.64000 4.543
53.66000 5.006
53.68000 2.016
53.70000 3.424
53.72000 2.345
53.74000 -1.030
53.76000 -0.991
53.78000 0.688
53.80000 0.497
53.82000 -0.363
53.84000 1.156
53.86000 -1.789
53.88000 2.286
53.90000 3.802
53.92000 2.882
53.94000 -2.581
53.96000 -2.319
53.98000 1.362
54.00000 -1.064
54.02000 -1.200
54.04000 3.057
54.06000 4.178
54.08000 2.076
54.10000 5.143
54.12000 3.120
54.14000 3.819
54.16000 0.912
54.18000 1.228
54.20000 0.762
54.22000 5.421
54.24000 2.134
54.26000 -2.564
54.28000 -0.282
54.30000 2.715
54.32000 0.017
54.34000 1.298
54.36000 0.273
54.38000 3.179
54.40000 4.970
54.42000 -0.036
54.44000 -2.381
54.46000 -0.698
54.48000 1.821
54.50000 2.134
54.52000 2.554
54.54000 -2.101
54.56000 -0.948
54.58000 0.867
54.60000 1.972
54.62000 0.251
54.64000 1.186
54.66000 2.936
54.68000 2.830
54.70000 -0.378
54.72000 0.336
54.74000 3.406
54.76000 1.782
54.78000 5.541
54.80000 5.809
54.82000 7.288
54.84000 8.510
54.86000 5.388
54.88000 0.868
54.90000 -0.897
54.92000 -2.505
54.94000 0.374
54.96000 -1.366
54.98000 0.048
55.00000 2.463
55.02000 2.298
55.04000 1.906
55.06000 0.170
55.08000 1.946
55.10000 2.610
55.12000 4.659
55.14000 5.067
55.16000 5.210
55.18000 5.836
55.20000 5.964
55.22000 4.893
55.24000 2.781
55.26000 3.573
55.28000 4.942
55.30000 3.282
55.32000 3.072
55.34000 7.749
55.36000 4.956
55.38000 2.350
55.40000 5.755
55.42000 4.810
55.44000 2.107
55.46000 3.206
55.48000 1.953
55.50000 3.476
55.52000 2.421
55.54000 0.769
55.56000 -1.412
55.58000 -2.421
55.60000 4.927
55.62000 4.850
55.64000 0.020
55.66000 -2.493
55.68000 -1.247
55.70000 3.352
55.72000 5.280
55.74000 6.188
55.76000 4.295
55.78000 3.147
55.80000 2.445
55.82000 4.374
55.84000 0.282
55.86000 1.614
55.88000 -1.049
55.90000 1.747
55.92000 6.256
55.94000 7.097
55.96000 8.923
55.98000 5.215
56.00000 1.380
56.02000 1.473
56.04000 0.121
56.06000 -0.877
56.08000 2.032
56.10000 2.795
56.12000 6.139
56.14000 5.454
56.16000 5.216
56.18000 3.855
56.20000 1.436
56.22000 1.740
56.24000 1.221
56.26000 1.752
56.28000 4.414
56.30000 2.456
56.32000 3.040
56.34000 0.744
56.36000 0.857
56.38000 3.297
56.40000 5.345
56.42000 2.820
56.44000 1.567
56.46000 -2.492
56.48000 4.993
56.50000 2.812
56.52000 2.773
56.54000 1.675
56.56000 1.166
56.58000 -0.520
56.60000 1.090
56.62000 5.023
56.64000 4.727
56.66000 3.669
56.68000 6.266
56.70000 2.504
56.72000 -1.702
56.74000 0.453
56.76000 0.910
56.78000 0.399
56.80000 -1.128
56.82000 0.078
56.84000 -0.889
56.86000 5.646
56.88000 5.307
56.90000 2.987
56.92000 2.386
56.94000 -0.639
56.96000 -0.766
56.98000 0.158
57.00000 2.197
57.02000 3.737
57.04000 5.605
57.06000 -0.329
57.08000 -1.373
57.10000 -0.151
57.12000 0.866
57.14000 3.415
57.16000 2.690
57.18000 6.661
57.20000 5.954
57.22000 4.341
57.24000 3.665
57.26000 3.684
57.28000 0.652
57.30000 3.099
57.32000 3.564
57.34000 -1.123
57.36000 -2.449
57.38000 2.120
57.40000 4.524
57.42000 2.328
57.44000 -1.747
57.46000 -0.244
57.48000 3.397
57.50000 2.415
57.52000 2.529
57.54000 3.121
57.56000 5.295
57.58000 8.506
57.60000 4.428
57.62000 3.050
57.64000 3.626
57.66000 4.425
57.68000 4.201
57.70000 3.531
57.72000 2.632
57.74000 2.836
57.76000 2.458
57.78000 1.929
57.80000 3.839
57.82000 3.820
57.84000 3.817
57.86000 0.481
57.88000 2.795
57.90000 2.072
57.92000 1.270
57.94000 1.727
57.96000 2.882
57.98000 4.978
58.00000 4.533
58.02000 6.936
58.04000 2.561
58.06000 5.373
58.08000 2.246
58.10000 2.441
58.12000 4.697
58.14000 -2.439
58.16000 1.556
58.18000 0.445
58.20000 -1.634
58.22000 1.431
58.24000 -1.477
58.26000 -0.838
58.28000 3.145
58.30000 2.071
58.32000 2.854
58.34000 1.243
58.36000 -0.760
58.38000 2.609
58.40000 2.483
58.42000 0.768
58.44000 4.116
58.46000 6.301
58.48000 2.599
58.50000 -2.425
58.52000 1.577
58.54000 4.126
58.56000 -0.386
58.58000 -0.843
58.60000 0.951
58.62000 2.381
58.64000 0.685
58.66000 2.128
58.68000 5.441
58.70000 -0.183
58.72000 0.310
58.74000 2.037
58.76000 3.444
58.78000 5.573
58.80000 3.054
58.82000 -1.283
58.84000 1.456
58.86000 1.596
58.88000 2.156
58.90000 4.864
58.92000 5.178
58.94000 4.892
58.96000 3.515
58.98000 4.329
59.00000 4.970
59.02000 0.078
59.04000 2.745
59.06000 4.720
59.08000 5.552
59.10000 5.602
59.12000 3.358
59.14000 4.100
59.16000 3.852
59.18000 6.528
59.20000 6.771
59.22000 7.629
59.24000 7.138
59.26000 8.173
59.28000 7.075
59.30000 5.038
59.32000 3.687
59.34000 0.713
59.36000 0.397
59.38000 5.677
59.40000 7.022
59.42000 3.204
59.44000 3.131
59.46000 5.761
59.48000 1.403
59.50000 2.886
59.52000 4.108
59.54000 -0.477
59.56000 -1.781
59.58000 -2.361
59.60000 0.050
59.62000 0.747
59.64000 4.897
59.66000 0.729
59.68000 1.309
59.70000 2.097
59.72000 4.886
59.74000 3.510
59.76000 4.560
59.78000 5.405
59.80000 4.764
59.82000 3.924
59.84000 2.007
59.86000 3.036
59.88000 4.412
59.90000 2.848
59.92000 -0.009
59.94000 2.104
59.96000 3.046
59.98000 2.883
60.00000 4.474
60.02000 5.263
60.04000 3.468
60.06000 2.956
60.08000 3.083
60.10000 4.493
60.12000 6.035
60.14000 4.890
60.16000 1.665
60.18000 0.602
60.20000 3.089
60.22000 2.302
60.24000 0.776
60.26000 2.896
60.28000 6.811
60.30000 3.327
60.32000 -0.468
60.34000 5.332
60.36000 4.691
60.38000 1.113
60.40000 5.876
60.42000 5.221
60.44000 2.401
60.46000 2.887
60.48000 2.250
60.50000 1.132
60.52000 0.651
60.54000 -2.368
60.56000 0.395
60.58000 1.663
60.60000 1.272
60.62000 4.010
60.64000 3.752
60.66000 2.686
60.68000 6.214
60.70000 5.344
60.72000 2.852
60.74000 2.184
60.76000 1.737
60.78000 2.835
60.80000 3.440
60.82000 6.349
60.84000 1.082
60.86000 1.442
60.88000 -0.430
60.90000 -2.353
60.92000 -0.931
60.94000 1.000
60.96000 1.870
60.98000 2.024
61.00000 0.471
61.02000 3.968
61.04000 1.922
61.06000 1.800
61.08000 0.721
61.10000 2.893
61.12000 1.525
61.14000 1.936
61.16000 -0.571
61.18000 2.451
61.20000 3.027
61.22000 1.396
61.24000 2.779
61.26000 5.397
61.28000 2.864
61.30000 2.779
61.32000 1.986
61.34000 -2.344
61.36000 -2.177
61.38000 1.578
61.40000 2.603
61.42000 3.710
61.44000 2.282
61.46000 -0.339
61.48000 0.396
61.50000 1.708
61.52000 6.797
61.54000 6.042
61.56000 2.367
61.58000 2.511
61.60000 2.352
61.62000 5.531
61.64000 5.146
61.66000 2.610
61.68000 -0.050
61.70000 0.244
61.72000 0.650
61.74000 2.400
61.76000 3.659
61.78000 -0.542
61.80000 0.717
61.82000 -0.118
61.84000 1.074
61.86000 2.950
61.88000 2.967
61.90000 1.776
61.92000 0.914
61.94000 2.321
61.96000 0.791
61.98000 2.606
62.00000 5.517
62.02000 1.688
62.04000 1.431
62.06000 0.160
62.08000 2.447
62.10000 3.973
62.12000 5.152
62.14000 3.421
62.16000 1.344
62.18000 2.275
62.20000 2.141
62.22000 1.634
62.24000 2.637
62.26000 2.719
62.28000 2.933
62.30000 -1.110
62.32000 1.347
62.34000 -2.328
62.36000 -1.500
62.38000 3.594
62.40000 3.611
62.42000 2.424
62.44000 4.263
62.46000 -0.091
62.48000 -0.349
62.50000 2.118
62.52000 3.357
62.54000 1.155
62.56000 1.513
62.58000 0.028
62.60000 2.336
62.62000 0.687
62.64000 -1.327
62.66000 0.895
62.68000 0.193
62.70000 -1.473
62.72000 1.692
62.74000 -0.029
62.76000 1.017
62.78000 1.533
62.80000 0.678
62.82000 -0.706
62.84000 3.110
62.86000 -0.155
62.88000 1.018
62.90000 1.402
62.92000 0.448
62.94000 3.794
62.96000 1.156
62.98000 -0.826
63.00000 0.056
63.02000 1.306
63.04000 2.111
63.06000 -0.254
63.08000 1.362
63.10000 -0.184
63.12000 -0.923
63.14000 0.211
63.16000 -0.919
63.18000 -1.100
63.20000 1.071
63.22000 -2.328
63.24000 -0.029
63.26000 0.299
63.28000 -0.175
63.30000 -1.552
63.32000 0.753
63.34000 3.976
63.36000 3.882
63.38000 -0.085
63.40000 -0.087
63.42000 2.242
63.44000 1.596
63.46000 1.539
63.48000 2.248
63.50000 1.561
63.52000 0.653
63.54000 0.848
63.56000 -0.296
63.58000 -0.065
63.60000 0.917
63.62000 1.285
63.64000 0.114
63.66000 2.839
63.68000 3.554
63.70000 4.854
63.72000 2.582
63.74000 1.304
63.76000 3.379
63.78000 3.014
63.80000 2.111
63.82000 1.191
63.84000 -2.179
63.86000 -0.073
63.88000 1.849
63.90000 1.618
63.92000 2.616
63.94000 4.758
63.96000 5.230
63.98000 -0.911
64.00000 2.183
64.02000 2.479
64.04000 1.579
64.06000 -2.024
64.08000 -2.296
64.10000 -0.619
64.12000 0.306
64.14000 1.609
64.16000 0.904
64.18000 2.127
64.20000 -0.981
64.22000 2.890
64.24000 4.395
64.26000 -0.285
64.28000 0.185
64.30000 3.808
64.32000 5.374
64.34000 2.145
64.36000 0.801
64.38000 1.766
64.40000 2.591
64.42000 1.179
64.44000 1.333
64.46000 2.157
64.48000 -0.724
64.50000 3.302
64.52000 -0.119
64.54000 1.481
64.56000 1.067
64.58000 2.941
64.60000 0.513
64.62000 0.619
64.64000 3.671
64.66000 2.604
64.68000 -0.937
64.70000 1.268
64.72000 2.215
64.74000 1.489
64.76000 -0.073
64.78000 -1.265
64.80000 -2.309
64.82000 -0.489
64.84000 0.745
64.86000 1.309
64.88000 1.098
64.90000 3.189
64.92000 3.898
64.94000 4.010
64.96000 1.119
64.98000 0.310
65.00000 0.213
65.02000 -0.413
65.04000 1.370
65.06000 1.030
65.08000 1.814
65.10000 -0.057
65.12000 0.031
65.14000 -1.428
65.16000 -0.032
65.18000 2.406
65.20000 1.124
65.22000 0.752
65.24000 2.080
65.26000 1.935
65.28000 0.041
65.30000 1.930
65.32000 2.373
65.34000 5.336
65.36000 -0.008
65.38000 -0.511
65.40000 1.435
65.42000 1.358
65.44000 -0.405
65.46000 1.643
65.48000 3.885
65.50000 3.158
65.52000 1.210
65.54000 2.617
65.56000 4.087
65.58000 1.175
65.60000 -0.303
65.62000 1.314
65.64000 2.588
65.66000 0.793
65.68000 -1.068
65.70000 -0.523
65.72000 -2.312
65.74000 -1.635
65.76000 4.007
65.78000 1.362
65.80000 1.788
65.82000 3.512
65.84000 1.056
65.86000 -1.117
65.88000 -0.251
65.90000 1.876
65.92000 1.345
65.94000 4.753
65.96000 3.789
65.98000 0.889
66.00000 2.294
66.02000 2.645
66.04000 4.176
66.06000 1.991
66.08000 1.302
66.10000 -1.361
66.12000 2.287
66.14000 3.516
66.16000 2.391
66.18000 1.530
66.20000 2.267
66.22000 0.314
66.24000 -0.655
66.26000 3.211
66.28000 2.720
66.30000 0.883
66.32000 3.287
66.34000 3.625
66.36000 3.292
66.38000 0.811
66.40000 3.570
66.42000 2.126
66.44000 4.711
66.46000 2.866
66.48000 3.853
66.50000 2.468
66.52000 1.425
66.54000 2.685
66.56000 4.492
66.58000 0.102
66.60000 0.595
66.62000 3.192
66.64000 5.086
66.66000 5.378
66.68000 5.258
66.70000 4.784
66.72000 5.700
66.74000 4.054
66.76000 6.295
66.78000 4.341
66.80000 1.629
66.82000 1.608
66.84000 2.843
66.86000 3.930
66.88000 1.878
66.90000 2.154
66.92000 3.427
66.94000 3.120
66.96000 2.002
66.98000 2.856
67.00000 5.309
67.02000 4.958
67.04000 5.565
67.06000 7.057
67.08000 6.984
67.10000 6.983
67.12000 6.082
67.14000 6.330
67.16000 7.939
67.18000 7.379
67.20000 4.437
67.22000 7.644
67.24000 6.799
67.26000 6.808
67.28000 8.014
67.30000 10.880
67.32000 9.897
67.34000 7.553
67.36000 9.384
67.38000 12.435
67.40000 12.602
67.42000 13.751
67.44000 13.929
67.46000 14.464
67.48000 12.444
67.50000 8.882
67.52000 8.654
67.54000 12.871
67.56000 14.133
67.58000 15.490
67.60000 16.311
67.62000 18.329
67.64000 14.793
67.66000 12.404
67.68000 14.003
67.70000 14.582
67.72000 15.782
67.74000 15.703
67.76000 17.770
67.78000 17.231
67.80000 16.379
67.82000 14.003
67.84000 14.316
67.86000 13.029
67.88000 13.879
67.90000 14.110
67.92000 13.356
67.94000 13.202
67.96000 11.572
67.98000 14.081
68.00000 12.491
68.02000 11.806
68.04000 14.979
68.06000 11.419
68.08000 9.412
68.10000 10.806
68.12000 13.513
68.14000 12.072
68.16000 11.471
68.18000 10.899
68.20000 9.348
68.22000 9.069
68.24000 8.132
68.26000 8.686
68.28000 9.587
68.30000 8.533
68.32000 7.466
68.34000 8.315
68.36000 9.270
68.38000 6.016
68.40000 6.820
68.42000 6.139
68.44000 7.210
68.46000 6.230
68.48000 6.103
68.50000 7.597
68.52000 8.270
68.54000 7.556
68.56000 5.796
68.58000 5.023
68.60000 3.983
68.62000 3.172
68.64000 2.996
68.66000 3.336
68.68000 3.004
68.70000 1.277
68.72000 2.027
68.74000 0.370
68.76000 2.177
68.78000 4.155
68.80000 1.662
68.82000 2.588
68.84000 1.423
68.86000 0.037
68.88000 0.803
68.90000 -0.481
68.92000 -0.602
68.94000 -0.623
68.96000 0.817
68.98000 -1.327
69.00000 0.156
69.02000 0.678
69.04000 1.269
69.06000 0.517
69.08000 0.810
69.10000 0.362
69.12000 -0.708
69.14000 -0.987
69.16000 -0.799
69.18000 -1.184
69.20000 -1.304
69.22000 0.072
69.24000 -0.331
69.26000 0.700
69.28000 3.285
69.30000 2.337
69.32000 0.454
69.34000 0.218
69.36000 -2.194
69.38000 -2.035
69.40000 0.180
69.42000 -0.846
69.44000 -0.355
69.46000 1.641
69.48000 1.763
69.50000 0.960
69.52000 1.288
69.54000 0.095
69.56000 1.279
69.58000 0.663
69.60000 -0.130
69.62000 -0.062
69.64000 1.894
69.66000 1.135
69.68000 1.392
69.70000 1.150
69.72000 -2.170
69.74000 -0.699
69.76000 -1.163
69.78000 -1.458
69.80000 0.486
69.82000 0.584
69.84000 0.982
69.86000 1.597
69.88000 2.899
69.90000 2.657
69.92000 3.137
69.94000 1.869
69.96000 2.588
69.98000 0.843
70.00000 1.737
70.02000 2.702
70.04000 1.549
70.06000 0.235
70.08000 1.134
70.10000 2.477
70.12000 2.441
70.14000 0.980
70.16000 1.004
70.18000 0.076
70.20000 -0.076
70.22000 2.331
70.24000 0.394
70.26000 0.207
70.28000 -2.118
70.30000 -0.621
70.32000 1.088
70.34000 1.863
70.36000 1.209
70.38000 0.198
70.40000 -0.406
70.42000 0.665
70.44000 -0.867
70.46000 -1.532
70.48000 -1.277
70.50000 -0.614
70.52000 -0.078
70.54000 0.626
70.56000 -0.615
70.58000 0.316
70.60000 1.781
70.62000 1.675
70.64000 1.471
70.66000 0.257
70.68000 2.250
70.70000 4.124
70.72000 0.616
70.74000 0.400
70.76000 -0.286
70.78000 1.268
70.80000 2.267
70.82000 2.951
70.84000 1.943
70.86000 -0.213
70.88000 1.630
70.90000 2.727
70.92000 1.742
70.94000 -2.060
70.96000 -0.915
70.98000 1.542
71.00000 0.396
71.02000 2.119
71.04000 0.747
71.06000 -1.007
71.08000 1.066
71.10000 0.388
71.12000 -1.029
71.14000 -1.262
71.16000 2.818
71.18000 1.763
71.20000 -1.546
71.22000 -1.986
71.24000 0.235
71.26000 -1.042
71.28000 0.612
71.30000 2.617
71.32000 4.518
71.34000 2.515
71.36000 3.259
71.38000 2.497
71.40000 2.281
71.42000 3.665
71.44000 2.797
71.46000 0.416
71.48000 1.749
71.50000 3.735
71.52000 3.571
71.54000 3.106
71.56000 3.914
71.58000 3.608
71.60000 2.620
71.62000 3.820
71.64000 2.159
71.66000 0.466
71.68000 2.337
71.70000 1.539
71.72000 0.002
71.74000 0.599
71.76000 -2.024
71.78000 -0.099
71.80000 1.378
71.82000 2.840
71.84000 1.817
71.86000 2.112
71.88000 3.057
71.90000 5.112
71.92000 2.582
71.94000 2.675
71.96000 -1.228
71.98000 -0.764
72.00000 2.401
72.02000 1.503
72.04000 1.854
72.06000 3.628
72.08000 4.079
72.10000 2.287
72.12000 -0.063
72.14000 0.665
72.16000 1.212
72.18000 0.686
72.20000 -2.041
72.22000 -0.044
72.24000 0.343
72.26000 0.895
72.28000 -1.439
72.30000 1.123
72.32000 1.406
72.34000 0.834
72.36000 1.583
72.38000 4.011
72.40000 2.726
72.42000 1.535
72.44000 -0.443
72.46000 1.049
72.48000 -0.814
72.50000 -0.918
72.52000 2.007
72.54000 2.791
72.56000 2.693
72.58000 2.641
72.60000 2.316
72.62000 1.075
72.64000 4.719
72.66000 3.551
72.68000 3.578
72.70000 3.456
72.72000 1.296
72.74000 1.790
72.76000 1.812
72.78000 2.674
72.80000 3.585
72.82000 3.891
72.84000 -0.416
72.86000 -0.879
72.88000 -0.278
72.90000 -2.031
72.92000 0.218
72.94000 2.130
72.96000 -0.526
72.98000 -0.387
73.00000 1.668
73.02000 3.004
73.04000 2.514
73.06000 3.545
73.08000 4.770
73.10000 1.928
73.12000 0.989
73.14000 -0.539
73.16000 4.104
73.18000 2.269
73.20000 -0.092
73.22000 1.209
73.24000 0.863
73.26000 3.333
73.28000 2.353
73.30000 1.255
73.32000 0.702
73.34000 -0.869
73.36000 -0.380
73.38000 2.345
73.40000 3.375
73.42000 4.976
73.44000 1.304
73.46000 -0.332
73.48000 -1.263
73.50000 -1.044
73.52000 0.404
73.54000 0.590
73.56000 -0.382
73.58000 1.599
73.60000 1.842
73.62000 -1.800
73.64000 0.782
73.66000 3.176
73.68000 5.582
73.70000 4.107
73.72000 0.723
73.74000 0.630
73.76000 -1.259
73.78000 1.027
73.80000 0.161
73.82000 1.909
73.84000 1.248
73.86000 3.759
73.88000 2.490
73.90000 3.349
73.92000 0.138
73.94000 -0.272
73.96000 1.497
73.98000 1.807
74.00000 3.856
74.02000 2.322
74.04000 0.759
74.06000 2.899
74.08000 3.058
74.10000 0.307
74.12000 1.221
74.14000 2.005
74.16000 2.086
74.18000 -1.710
74.20000 1.729
74.22000 3.664
74.24000 2.984
74.26000 4.879
74.28000 6.549
74.30000 4.044
74.32000 3.779
74.34000 2.071
74.36000 -1.954
74.38000 -0.209
74.40000 -0.624
74.42000 1.906
74.44000 7.241
74.46000 5.879
74.48000 5.241
74.50000 4.137
74.52000 2.403
74.54000 3.215
74.56000 5.388
74.58000 1.318
74.60000 -0.159
74.62000 -1.946
74.64000 2.593
74.66000 4.362
74.68000 3.354
74.70000 4.370
74.72000 6.009
74.74000 4.370
74.76000 3.224
74.78000 2.562
74.80000 4.196
74.82000 4.178
74.84000 3.229
74.86000 1.808
74.88000 1.904
74.90000 -0.942
74.92000 2.390
74.94000 7.880
74.96000 2.187
74.98000 0.362
75.00000 4.098
75.02000 3.812
75.04000 2.316
75.06000 1.588
75.08000 1.258
75.10000 -0.091
75.12000 0.432
75.14000 -1.906
75.16000 0.883
75.18000 0.069
75.20000 -1.217
75.22000 3.171
75.24000 1.449
75.26000 0.599
75.28000 0.867
75.30000 1.404
75.32000 2.115
75.34000 0.369
75.36000 1.827
75.38000 -1.276
75.40000 3.139
75.42000 3.366
75.44000 1.439
75.46000 5.510
75.48000 1.855
75.50000 -1.171
75.52000 -0.147
75.54000 -0.939
75.56000 0.653
75.58000 0.295
75.60000 -1.031
75.62000 1.116
75.64000 4.182
75.66000 4.531
75.68000 2.500
75.70000 1.579
75.72000 1.881
75.74000 5.275
75.76000 1.462
75.78000 -0.349
75.80000 0.843
75.82000 0.451
75.84000 2.423
75.86000 -0.497
75.88000 0.317
75.90000 0.583
75.92000 -2.019
75.94000 4.411
75.96000 3.660
75.98000 0.720
76.00000 -1.464
76.02000 -0.407
76.04000 0.115
76.06000 0.958
76.08000 1.163
76.10000 -0.003
76.12000 0.058
76.14000 -1.911
76.16000 1.899
76.18000 3.961
76.20000 2.861
76.22000 3.956
76.24000 0.070
76.26000 1.251
76.28000 3.109
76.30000 2.540
76.32000 3.461
76.34000 1.242
76.36000 0.378
76.38000 1.260
76.40000 -0.880
76.42000 -0.952
76.44000 2.236
76.46000 6.057
76.48000 4.707
76.50000 3.178
76.52000 -1.401
76.54000 -1.800
76.56000 -2.019
76.58000 1.569
76.60000 2.561
76.62000 0.851
76.64000 1.956
76.66000 5.411
76.68000 3.336
76.70000 2.165
76.72000 1.524
76.74000 1.161
76.76000 1.303
76.78000 -0.448
76.80000 0.088
76.82000 0.443
76.84000 0.525
76.86000 -0.632
76.88000 1.964
76.90000 3.388
76.92000 1.614
76.94000 1.974
76.96000 1.536
76.98000 0.208
77.00000 0.676
77.02000 -2.044
77.04000 0.822
77.06000 -0.266
77.08000 1.590
77.10000 -0.140
77.12000 -0.332
77.14000 0.820
77.16000 -0.293
77.18000 -0.101
77.20000 -0.994
77.22000 0.417
77.24000 4.048
77.26000 2.736
77.28000 -0.454
77.30000 -2.050
77.32000 -0.610
77.34000 1.348
77.36000 3.918
77.38000 3.513
77.40000 1.768
77.42000 1.166
77.44000 2.721
77.46000 0.281
77.48000 -0.454
77.50000 0.620
77.52000 -1.092
77.54000 -0.743
77.56000 1.107
77.58000 -0.037
77.60000 0.204
77.62000 -0.233
77.64000 -1.443
77.66000 0.311
77.68000 0.511
77.70000 -0.618
77.72000 0.751
77.74000 1.058
77.76000 -2.061
77.78000 1.477
77.80000 2.125
77.82000 2.084
77.84000 -1.090
77.86000 -1.809
77.88000 -0.080
77.90000 1.938
77.92000 1.315
77.94000 2.657
77.96000 0.494
77.98000 5.458
78.00000 5.050
78.02000 4.643
78.04000 3.279
78.06000 2.715
78.08000 2.905
78.10000 2.921
78.12000 2.496
78.14000 0.015
78.16000 -2.058
78.18000 -0.062
78.20000 0.780
78.22000 3.358
78.24000 4.688
78.26000 2.567
78.28000 3.535
78.30000 3.801
78.32000 0.431
78.34000 2.077
78.36000 3.735
78.38000 3.277
78.40000 3.139
78.42000 1.825
78.44000 2.519
78.46000 2.249
78.48000 3.917
78.50000 0.705
78.52000 2.733
78.54000 3.324
78.56000 1.730
78.58000 1.845
78.60000 0.967
78.62000 5.127
78.64000 5.746
78.66000 2.859
78.68000 0.605
78.70000 1.599
78.72000 3.567
78.74000 2.841
78.76000 1.787
78.78000 0.397
78.80000 1.683
78.82000 0.973
78.84000 0.317
78.86000 -1.573
78.88000 0.725
78.90000 2.054
78.92000 1.731
78.94000 -0.916
78.96000 -2.090
78.98000 -0.178
79.00000 0.031
79.02000 3.195
79.04000 2.753
79.06000 4.031
79.08000 1.137
79.10000 3.952
79.12000 2.954
79.14000 2.117
79.16000 0.267
79.18000 -0.826
79.20000 2.299
79.22000 1.000
79.24000 2.448
79.26000 5.627
79.28000 3.926
79.30000 2.520
79.32000 -0.857
79.34000 -2.118
79.36000 0.878
79.38000 3.768
79.40000 -1.197
79.42000 -2.123
79.44000 0.544
79.46000 2.348
79.48000 3.277
79.50000 2.419
79.52000 2.932
79.54000 0.217
79.56000 1.372
79.58000 2.283
79.60000 2.077
79.62000 0.282
79.64000 -2.133
79.66000 0.485
79.68000 -1.016
79.70000 1.936
79.72000 3.408
79.74000 2.134
79.76000 1.816
79.78000 4.504
79.80000 1.316
79.82000 1.106
79.84000 3.966
79.86000 1.288
79.88000 1.176
79.90000 0.961
79.92000 2.028
79.94000 -0.537
79.96000 0.646
79.98000 1.805
80.00000 1.992
80.02000 3.489
80.04000 3.082
80.06000 5.054
80.08000 4.690
80.10000 5.584
80.12000 4.021
80.14000 0.681
80.16000 -0.609
80.18000 -0.826
80.20000 2.583
80.22000 2.448
80.24000 5.853
80.26000 6.216
80.28000 4.283
80.30000 2.494
80.32000 2.343
80.34000 -0.828
80.36000 1.141
80.38000 1.845
80.40000 2.962
80.42000 3.890
80.44000 4.934
80.46000 1.770
80.48000 1.078
80.50000 3.424
80.52000 5.984
80.54000 5.788
80.56000 3.702
80.58000 4.908
80.60000 6.027
80.62000 3.947
80.64000 3.956
80.66000 1.104
80.68000 2.132
80.70000 4.041
80.72000 5.757
80.74000 8.313
80.76000 7.786
80.78000 8.582
80.80000 8.339
80.82000 5.254
80.84000 5.132
80.86000 6.490
80.88000 5.296
80.90000 5.333
80.92000 4.280
80.94000 7.303
80.96000 10.960
80.98000 8.766
81.00000 11.202
81.02000 12.655
81.04000 13.768
81.06000 12.948
81.08000 8.281
81.10000 11.380
81.12000 13.295
81.14000 9.806
81.16000 10.240
81.18000 9.975
81.20000 7.991
81.22000 11.224
81.24000 13.795
81.26000 13.545
81.28000 10.481
81.30000 12.864
81.32000 18.175
81.34000 15.454
81.36000 13.926
81.38000 17.197
81.40000 17.828
81.42000 18.621
81.44000 20.685
81.46000 18.028
81.48000 19.734
81.50000 20.445
81.52000 17.414
81.54000 21.088
81.56000 23.434
81.58000 20.260
81.60000 19.959
81.62000 17.481
81.64000 22.326
81.66000 20.878
81.68000 18.863
81.70000 22.726
81.72000 24.646
81.74000 22.668
81.76000 21.995
81.78000 23.465
81.80000 19.262
81.82000 17.087
81.84000 16.346
81.86000 17.682
81.88000 22.991
81.90000 21.500
81.92000 21.136
81.94000 20.686
81.96000 18.592
81.98000 16.446
82.00000 17.211
82.02000 17.047
82.04000 22.291
82.06000 14.741
82.08000 13.977
82.10000 18.143
82.12000 18.135
82.14000 17.880
82.16000 12.995
82.18000 13.812
82.20000 15.435
82.22000 17.321
82.24000 15.081
82.26000 14.360
82.28000 16.487
82.30000 14.326
82.32000 15.789
82.34000 16.538
82.36000 12.150
82.38000 12.903
82.40000 12.759
82.42000 12.557
82.44000 13.634
82.46000 9.441
82.48000 12.163
82.50000 12.627
82.52000 12.824
82.54000 13.380
82.56000 6.544
82.58000 9.226
82.60000 6.300
82.62000 5.177
82.64000 5.575
82.66000 6.608
82.68000 5.914
82.70000 6.909
82.72000 6.345
82.74000 5.524
82.76000 5.218
82.78000 4.678
82.80000 4.264
82.82000 3.990
82.84000 3.055
82.86000 6.272
82.88000 6.850
82.90000 4.740
82.92000 4.565
82.94000 6.089
82.96000 3.261
82.98000 1.287
83.00000 3.693
83.02000 2.608
83.04000 4.842
83.06000 3.334
83.08000 5.414
83.10000 1.721
83.12000 2.881
83.14000 3.970
83.16000 1.274
83.18000 0.072
83.20000 0.088
83.22000 2.333
83.24000 1.816
83.26000 -0.597
83.28000 -0.442
83.30000 -0.911
83.32000 -2.196
83.34000 1.306
83.36000 -0.349
83.38000 0.904
83.40000 1.097
83.42000 1.685
83.44000 4.850
83.46000 3.721
83.48000 6.237
83.50000 4.897
83.52000 -0.305
83.54000 -0.400
83.56000 2.060
83.58000 2.630
83.60000 2.034
83.62000 -1.500
83.64000 0.618
83.66000 0.235
83.68000 -0.563
83.70000 -0.758
83.72000 3.163
83.74000 -0.551
83.76000 1.485
83.78000 -1.975
83.80000 -1.348
83.82000 1.386
83.84000 0.564
83.86000 -0.442
83.88000 0.663
83.90000 0.145
83.92000 1.154
83.94000 4.319
83.96000 2.638
83.98000 3.027
84.00000 -0.606
84.02000 0.277
84.04000 2.105
84.06000 5.125
84.08000 6.291
84.10000 2.199
84.12000 -2.176
84.14000 -1.416
84.16000 0.232
84.18000 1.018
84.20000 0.950
84.22000 1.415
84.24000 0.015
84.26000 0.485
84.28000 -1.182
84.30000 0.151
84.32000 1.988
84.34000 1.082
84.36000 1.896
84.38000 1.045
84.40000 3.021
84.42000 3.744
84.44000 2.867
84.46000 2.798
84.48000 1.146
84.50000 0.224
84.52000 0.665
84.54000 1.029
84.56000 1.057
84.58000 -0.851
84.60000 1.237
84.62000 3.307
84.64000 4.118
84.66000 0.395
84.68000 1.591
84.70000 3.727
84.72000 8.365
84.74000 1.824
84.76000 0.361
84.78000 -0.125
84.80000 4.022
84.82000 7.330
84.84000 4.674
84.86000 4.528
84.88000 5.067
84.90000 5.269
84.92000 4.148
84.94000 5.036
84.96000 11.177
84.98000 10.076
85.00000 7.746
85.02000 7.138
85.04000 7.127
85.06000 4.380
85.08000 7.342
85.10000 7.991
85.12000 8.281
85.14000 8.778
85.16000 9.507
85.18000 13.791
85.20000 17.588
85.22000 19.448
85.24000 18.545
85.26000 17.840
85.28000 18.540
85.30000 16.633
85.32000 16.612
85.34000 17.742
85.36000 13.771
85.38000 16.561
85.40000 16.668
85.42000 18.450
85.44000 18.163
85.46000 22.334
85.48000 23.275
85.50000 20.750
85.52000 19.570
85.54000 25.632
85.56000 26.113
85.58000 27.591
85.60000 24.710
85.62000 23.168
85.64000 22.692
85.66000 25.518
85.68000 25.893
85.70000 26.004
85.72000 28.012
85.74000 25.661
85.76000 26.628
85.78000 29.227
85.80000 27.823
85.82000 26.918
85.84000 24.864
85.86000 27.182
85.88000 26.230
85.90000 20.848
85.92000 20.923
85.94000 20.501
85.96000 22.067
85.98000 23.568
86.00000 24.939
86.02000 24.662
86.04000 24.972
86.06000 23.014
86.08000 21.752
86.10000 24.227
86.12000 23.825
86.14000 21.168
86.16000 21.000
86.18000 18.480
86.20000 17.432
86.22000 19.182
86.24000 21.341
86.26000 19.673
86.28000 18.616
86.30000 18.018
86.32000 16.433
86.34000 15.684
86.36000 14.670
86.38000 10.918
86.40000 15.281
86.42000 12.730
86.44000 9.879
86.46000 10.816
86.48000 11.577
86.50000 12.185
86.52000 13.273
86.54000 8.897
86.56000 8.054
86.58000 7.789
86.60000 5.708
86.62000 4.032
86.64000 3.524
86.66000 2.969
86.68000 4.841
86.70000 4.755
86.72000 1.396
86.74000 3.714
86.76000 5.396
86.78000 5.416
86.80000 4.694
86.82000 3.656
86.84000 1.197
86.86000 3.969
86.88000 1.728
86.90000 1.821
86.92000 0.461
86.94000 1.476
86.96000 4.079
86.98000 7.137
87.00000 2.598
87.02000 1.299
87.04000 5.340
87.06000 4.248
87.08000 0.686
87.10000 1.539
87.12000 -0.367
87.14000 2.446
87.16000 2.903
87.18000 1.787
87.20000 1.827
87.22000 1.890
87.24000 -0.151
87.26000 2.593
87.28000 2.695
87.30000 1.292
87.32000 1.732
87.34000 0.987
87.36000 -2.029
87.38000 0.089
87.40000 3.346
87.42000 2.207
87.44000 -0.315
87.46000 1.144
87.48000 2.865
87.50000 3.478
87.52000 0.727
87.54000 -2.006
87.56000 1.891
87.58000 2.045
87.60000 -0.067
87.62000 2.694
87.64000 1.371
87.66000 -0.052
87.68000 0.044
87.70000 2.246
87.72000 1.264
87.74000 2.941
87.76000 2.643
87.78000 0.895
87.80000 1.742
87.82000 -0.241
87.84000 -0.980
87.86000 2.293
87.88000 0.639
87.90000 -1.959
87.92000 -1.943
87.94000 -1.167
87.96000 -0.343
87.98000 -0.667
88.00000 -0.124
88.02000 -0.622
88.04000 0.384
88.06000 0.686
88.08000 2.560
88.10000 2.292
88.12000 3.414
88.14000 1.131
88.16000 -0.057
88.18000 1.508
88.20000 -0.301
88.22000 0.767
88.24000 -0.013
88.26000 -1.094
88.28000 -0.324
88.30000 -0.500
88.32000 0.746
88.34000 0.852
88.36000 2.788
88.38000 2.368
88.40000 0.871
88.42000 0.673
88.44000 3.976
88.46000 1.053
88.48000 -0.294
88.50000 -1.010
88.52000 -0.306
88.54000 -1.716
88.56000 -1.091
88.58000 -1.935
88.60000 0.392
88.62000 0.199
88.64000 2.616
88.66000 2.020
88.68000 1.939
88.70000 2.487
88.72000 4.022
88.74000 1.383
88.76000 0.593
88.78000 0.281
88.80000 -1.589
88.82000 -0.808
88.84000 3.595
88.86000 7.579
88.88000 3.524
88.90000 5.064
88.92000 1.958
88.94000 -0.345
88.96000 0.245
88.98000 1.900
89.00000 4.143
89.02000 2.679
89.04000 0.800
89.06000 1.128
89.08000 5.293
89.10000 4.560
89.12000 1.988
89.14000 -1.118
89.16000 -1.880
89.18000 3.211
89.20000 3.766
89.22000 3.488
89.24000 5.899
89.26000 5.394
89.28000 2.829
89.30000 0.825
89.32000 -0.266
89.34000 0.120
89.36000 0.692
89.38000 2.437
89.40000 5.460
89.42000 6.425
89.44000 4.764
89.46000 2.196
89.48000 2.055
89.50000 2.009
89.52000 1.925
89.54000 2.152
89.56000 0.471
89.58000 -1.635
89.60000 2.459
89.62000 2.583
89.64000 0.494
89.66000 1.713
89.68000 1.631
89.70000 0.892
89.72000 -1.768
89.74000 -0.765
89.76000 -0.754
89.78000 -1.753
89.80000 3.048
89.82000 1.634
89.84000 2.132
89.86000 0.154
89.88000 1.878
89.90000 1.415
89.92000 0.902
89.94000 -0.895
89.96000 3.185
89.98000 5.738
90.00000 4.320
90.02000 1.580
90.04000 -1.777
90.06000 -1.886
90.08000 0.852
90.10000 1.578
90.12000 2.265
90.14000 8.006
90.16000 2.836
90.18000 0.043
90.20000 1.467
90.22000 6.094
90.24000 3.332
90.26000 2.417
90.28000 0.640
90.30000 0.372
90.32000 1.747
90.34000 1.274
90.36000 -0.410
90.38000 1.113
90.40000 0.116
90.42000 2.277
90.44000 4.310
90.46000 2.842
90.48000 0.641
90.50000 0.972
90.52000 -1.776
90.54000 -0.250
90.56000 0.665
90.58000 0.852
90.60000 -1.646
90.62000 -0.589
90.64000 0.239
90.66000 1.574
90.68000 2.791
90.70000 1.305
90.72000 0.595
90.74000 0.423
90.76000 1.072
90.78000 4.226
90.80000 3.689
90.82000 3.281
90.84000 1.626
90.86000 1.046
90.88000 2.918
90.90000 -0.737
90.92000 -1.862
90.94000 5.292
90.96000 6.058
90.98000 1.830
91.00000 1.427
91.02000 2.304
91.04000 3.771
91.06000 5.324
91.08000 3.551
91.10000 -0.658
91.12000 0.519
91.14000 2.443
91.16000 1.470
91.18000 -1.245
91.20000 -1.571
91.22000 0.960
91.24000 -0.522
91.26000 1.997
91.28000 1.865
91.30000 1.809
91.32000 1.321
91.34000 5.419
91.36000 1.797
91.38000 0.353
91.40000 2.150
91.42000 1.456
91.44000 0.776
91.46000 2.715
91.48000 6.038
91.50000 3.949
91.52000 -0.500
91.54000 0.560
91.56000 0.736
91.58000 1.536
91.60000 1.294
91.62000 1.267
91.64000 1.851
91.66000 2.541
91.68000 3.070
91.70000 2.901
91.72000 0.892
91.74000 -1.889
91.76000 0.236
91.78000 -0.475
91.80000 1.950
91.82000 0.523
91.84000 2.914
91.86000 0.524
91.88000 3.314
91.90000 0.710
91.92000 2.715
91.94000 0.450
91.96000 -0.344
91.98000 -1.588
92.00000 1.837
92.02000 2.055
92.04000 1.442
92.06000 1.664
92.08000 5.781
92.10000 5.564
92.12000 1.541
92.14000 0.150
92.16000 0.001
92.18000 1.666
92.20000 5.874
92.22000 2.762
92.24000 0.815
92.26000 -1.018
92.28000 -1.871
92.30000 -1.163
92.32000 0.640
92.34000 1.808
92.36000 3.174
92.38000 8.218
92.40000 7.955
92.42000 0.982
92.44000 -1.860
92.46000 0.710
92.48000 3.565
92.50000 2.242
92.52000 3.882
92.54000 1.872
92.56000 5.182
92.58000 0.466
92.60000 -1.861
92.62000 -0.314
92.64000 1.961
92.66000 1.660
92.68000 6.942
92.70000 8.328
92.72000 5.836
92.74000 4.203
92.76000 5.750
92.78000 3.625
92.80000 0.544
92.82000 2.052
92.84000 0.720
92.86000 2.916
92.88000 5.718
92.90000 2.704
92.92000 -1.122
92.94000 -0.463
92.96000 2.428
92.98000 5.599
93.00000 4.391
93.02000 1.099
93.04000 2.586
93.06000 0.126
93.08000 1.325
93.10000 3.015
93.12000 4.931
93.14000 5.622
93.16000 6.126
93.18000 3.632
93.20000 0.548
93.22000 -0.575
93.24000 0.286
93.26000 -0.959
93.28000 0.184
93.30000 1.210
93.32000 3.650
93.34000 4.359
93.36000 3.257
93.38000 2.081
93.40000 3.613
93.42000 -0.603
93.44000 -1.507
93.46000 2.527
93.48000 4.259
93.50000 1.604
93.52000 2.111
93.54000 1.949
93.56000 2.258
93.58000 -0.255
93.60000 0.731
93.62000 6.471
93.64000 0.122
93.66000 -0.017
93.68000 1.080
93.70000 0.482
93.72000 0.551
93.74000 1.664
93.76000 -0.864
93.78000 -1.306
93.80000 2.855
93.82000 -0.579
93.84000 -1.893
93.86000 0.904
93.88000 3.425
93.90000 2.143
93.92000 3.872
93.94000 3.569
93.96000 6.169
93.98000 4.499
94.00000 3.406
94.02000 1.354
94.04000 1.421
94.06000 1.293
94.08000 2.842
94.10000 8.868
94.12000 7.754
94.14000 4.472
94.16000 1.983
94.18000 1.682
94.20000 1.904
94.22000 2.345
94.24000 -0.286
94.26000 4.086
94.28000 8.308
94.30000 3.465
94.32000 3.500
94.34000 5.504
94.36000 5.532
94.38000 0.061
94.40000 2.285
94.42000 1.685
94.44000 2.768
94.46000 4.833
94.48000 1.899
94.50000 -0.132
94.52000 2.627
94.54000 4.364
94.56000 2.123
94.58000 -1.867
94.60000 0.711
94.62000 0.252
94.64000 5.882
94.66000 5.351
94.68000 1.887
94.70000 3.365
94.72000 4.268
94.74000 3.355
94.76000 0.450
94.78000 4.171
94.80000 5.396
94.82000 4.999
94.84000 3.698
94.86000 2.937
94.88000 5.502
94.90000 5.079
94.92000 3.654
94.94000 5.808
94.96000 5.540
94.98000 3.611
95.00000 0.086
95.02000 2.208
95.04000 2.665
95.06000 -0.285
95.08000 1.422
95.10000 1.315
95.12000 1.162
95.14000 2.489
95.16000 4.498
95.18000 1.776
95.20000 -1.873
95.22000 -1.241
95.24000 3.523
95.26000 4.694
95.28000 5.798
95.30000 7.872
95.32000 6.180
95.34000 3.666
95.36000 5.056
95.38000 6.195
95.40000 3.075
95.42000 0.833
95.44000 0.164
95.46000 3.015
95.48000 3.543
95.50000 3.060
95.52000 0.382
95.54000 1.773
95.56000 1.566
95.58000 0.411
95.60000 -1.499
95.62000 0.470
95.64000 4.991
95.66000 4.506
95.68000 4.557
95.70000 0.916
95.72000 -1.891
95.74000 -0.854
95.76000 2.526
95.78000 -0.136
95.80000 4.538
95.82000 3.975
95.84000 0.271
95.86000 2.190
95.88000 2.127
95.90000 1.359
95.92000 4.321
95.94000 4.371
95.96000 5.384
95.98000 1.531
96.00000 4.542
96.02000 4.428
96.04000 1.904
96.06000 4.173
96.08000 4.219
96.10000 3.223
96.12000 1.730
96.14000 2.483
96.16000 -0.501
96.18000 -0.626
96.20000 3.276
96.22000 7.128
96.24000 6.675
96.26000 5.178
96.28000 1.058
96.30000 7.043
96.32000 7.978
96.34000 4.392
96.36000 0.314
96.38000 2.070
96.40000 5.516
96.42000 3.104
96.44000 2.350
96.46000 0.855
96.48000 0.764
96.50000 2.186
96.52000 5.910
96.54000 4.928
96.56000 3.226
96.58000 -1.899
96.60000 -0.041
96.62000 -1.546
96.64000 2.189
96.66000 3.681
96.68000 4.343
96.70000 2.929
96.72000 1.620
96.74000 2.006
96.76000 -1.892
96.78000 2.839
96.80000 7.837
96.82000 3.066
96.84000 -0.608
96.86000 -0.347
96.88000 1.699
96.90000 5.830
96.92000 6.170
96.94000 4.978
96.96000 5.906
96.98000 1.548
97.00000 1.018
97.02000 -1.829
97.04000 0.677
97.06000 -0.896
97.08000 1.555
97.10000 5.286
97.12000 2.856
97.14000 2.934
97.16000 6.384
97.18000 1.634
97.20000 5.355
97.22000 2.361
97.24000 -0.382
97.26000 3.314
97.28000 2.590
97.30000 2.346
97.32000 5.004
97.34000 3.990
97.36000 4.022
97.38000 7.336
97.40000 3.851
97.42000 5.836
97.44000 6.874
97.46000 5.972
97.48000 7.563
97.50000 1.501
97.52000 1.116
97.54000 7.708
97.56000 4.792
97.58000 0.476
97.60000 2.905
97.62000 4.851
97.64000 5.544
97.66000 8.309
97.68000 8.167
97.70000 4.847
97.72000 3.967
97.74000 5.449
97.76000 5.857
97.78000 7.609
97.80000 12.116
97.82000 5.264
97.84000 2.964
97.86000 8.308
97.88000 6.985
97.90000 2.158
97.92000 3.818
97.94000 9.943
97.96000 3.837
97.98000 -3.657
98.00000 5.265
98.02000 2.876
98.04000 8.619
98.06000 8.633
98.08000 13.956
98.10000 7.515
98.12000 4.202
98.14000 6.035
98.16000 10.936
98.18000 12.515
98.20000 7.350
98.22000 3.130
98.24000 6.193
98.26000 6.710
98.28000 9.078
98.30000 10.806
98.32000 11.669
98.34000 6.727
98.36000 8.313
98.38000 7.416
98.40000 3.070
98.42000 3.122
98.44000 8.594
98.46000 2.714
98.48000 3.404
98.50000 4.768
98.52000 8.528
98.54000 8.289
98.56000 2.836
98.58000 1.959
98.60000 2.549
98.62000 4.807
98.64000 3.400
98.66000 8.268
98.68000 5.717
98.70000 3.672
98.72000 2.508
98.74000 8.861
98.76000 6.134
98.78000 3.582
98.80000 6.853
98.82000 5.485
98.84000 2.127
98.86000 0.855
98.88000 7.909
98.90000 8.752
98.92000 3.105
98.94000 6.219
98.96000 0.466
98.98000 6.888
99.00000 4.951
99.02000 1.461
99.04000 4.992
99.06000 9.892
99.08000 13.470
99.10000 8.983
99.12000 6.109
99.14000 9.280
99.16000 10.159
99.18000 11.946
99.20000 8.474
99.22000 15.083
99.24000 12.667
99.26000 9.095
99.28000 5.252
99.30000 3.350
99.32000 11.619
99.34000 11.447
99.36000 8.886
99.38000 5.069
99.40000 5.054
99.42000 7.723
99.44000 2.241
99.46000 0.600
99.48000 8.329
99.50000 13.402
99.52000 9.892
99.54000 1.520
99.56000 1.242
99.58000 -1.758
99.60000 5.252
99.62000 8.251
99.64000 6.451
99.66000 9.380
99.68000 9.941
99.70000 9.683
99.72000 3.922
99.74000 2.791
99.76000 4.031
99.78000 8.276
99.80000 11.021
99.82000 11.105
99.84000 5.916
99.86000 3.727
99.88000 -1.841
99.90000 1.191
99.92000 6.326
99.94000 3.542
99.96000 6.841
99.98000 0.000
