'Id: "0011388" Comment: "Integrate frame 0011388_Au-Ir-Rh_Rh-rich_XRD-Mapping-194-0000.gfrmwith cursor Wedge Cursor #5" Operator: "B?rgel" Anode: "Cu" Wavelength: "1.5406" Scantype: "2Theta (TwoTheta)" TimePerStep: "1" X: "27" Y: "4.5" Z: "5.95" 
10.00000 0.000
10.02000 11.651
10.04000 10.609
10.06000 2.312
10.08000 0.091
10.10000 3.877
10.12000 4.789
10.14000 0.799
10.16000 3.697
10.18000 13.154
10.20000 10.794
10.22000 17.075
10.24000 -5.041
10.26000 0.507
10.28000 11.642
10.30000 16.421
10.32000 12.172
10.34000 6.876
10.36000 19.291
10.38000 10.394
10.40000 9.831
10.42000 9.908
10.44000 21.545
10.46000 22.689
10.48000 13.453
10.50000 1.607
10.52000 -3.611
10.54000 5.981
10.56000 7.138
10.58000 11.430
10.60000 23.057
10.62000 29.911
10.64000 27.975
10.66000 21.503
10.68000 9.371
10.70000 -1.871
10.72000 11.642
10.74000 18.451
10.76000 14.820
10.78000 22.878
10.80000 27.418
10.82000 25.083
10.84000 10.234
10.86000 23.084
10.88000 26.611
10.90000 16.442
10.92000 18.791
10.94000 16.433
10.96000 13.059
10.98000 18.122
11.00000 18.788
11.02000 23.183
11.04000 32.334
11.06000 22.448
11.08000 20.295
11.10000 10.587
11.12000 11.594
11.14000 24.275
11.16000 22.023
11.18000 22.951
11.20000 27.694
11.22000 29.781
11.24000 36.395
11.26000 32.172
11.28000 17.403
11.30000 20.416
11.32000 25.801
11.34000 29.974
11.36000 35.422
11.38000 21.475
11.40000 16.603
11.42000 30.302
11.44000 18.455
11.46000 10.914
11.48000 12.543
11.50000 20.252
11.52000 17.931
11.54000 19.022
11.56000 28.532
11.58000 34.008
11.60000 22.962
11.62000 18.526
11.64000 22.771
11.66000 27.897
11.68000 33.959
11.70000 36.257
11.72000 27.845
11.74000 32.290
11.76000 40.663
11.78000 30.470
11.80000 24.367
11.82000 17.684
11.84000 23.136
11.86000 25.570
11.88000 25.736
11.90000 29.317
11.92000 36.666
11.94000 27.060
11.96000 25.692
11.98000 26.251
12.00000 22.447
12.02000 33.196
12.04000 33.341
12.06000 29.071
12.08000 38.327
12.10000 28.747
12.12000 30.253
12.14000 25.850
12.16000 37.766
12.18000 40.416
12.20000 31.869
12.22000 26.832
12.24000 26.680
12.26000 17.455
12.28000 21.648
12.30000 23.801
12.32000 26.322
12.34000 28.619
12.36000 27.250
12.38000 33.176
12.40000 39.497
12.42000 20.000
12.44000 30.138
12.46000 33.566
12.48000 34.360
12.50000 40.635
12.52000 32.826
12.54000 28.735
12.56000 36.757
12.58000 38.861
12.60000 29.018
12.62000 33.550
12.64000 33.376
12.66000 28.824
12.68000 32.898
12.70000 32.947
12.72000 34.784
12.74000 40.053
12.76000 44.151
12.78000 39.100
12.80000 35.311
12.82000 29.622
12.84000 35.182
12.86000 43.887
12.88000 33.829
12.90000 31.569
12.92000 37.752
12.94000 36.364
12.96000 34.887
12.98000 37.995
13.00000 39.239
13.02000 37.463
13.04000 27.800
13.06000 23.556
13.08000 19.706
13.10000 28.905
13.12000 35.135
13.14000 30.194
13.16000 31.223
13.18000 29.050
13.20000 32.503
13.22000 25.415
13.24000 28.606
13.26000 28.928
13.28000 33.074
13.30000 40.177
13.32000 33.362
13.34000 33.995
13.36000 31.571
13.38000 35.347
13.40000 25.518
13.42000 29.328
13.44000 28.957
13.46000 26.653
13.48000 34.616
13.50000 33.446
13.52000 25.490
13.54000 37.122
13.56000 35.973
13.58000 24.555
13.60000 25.118
13.62000 22.565
13.64000 22.950
13.66000 24.122
13.68000 20.988
13.70000 24.812
13.72000 27.246
13.74000 22.089
13.76000 24.815
13.78000 26.353
13.80000 24.594
13.82000 23.808
13.84000 34.711
13.86000 37.498
13.88000 26.514
13.90000 28.542
13.92000 36.923
13.94000 33.731
13.96000 24.430
13.98000 15.829
14.00000 17.885
14.02000 19.341
14.04000 21.232
14.06000 23.488
14.08000 20.797
14.10000 26.917
14.12000 18.300
14.14000 18.375
14.16000 23.534
14.18000 19.195
14.20000 13.816
14.22000 14.174
14.24000 23.078
14.26000 25.006
14.28000 25.253
14.30000 24.483
14.32000 24.863
14.34000 25.164
14.36000 22.249
14.38000 23.507
14.40000 18.488
14.42000 9.515
14.44000 14.685
14.46000 25.451
14.48000 17.840
14.50000 12.518
14.52000 21.372
14.54000 20.123
14.56000 20.766
14.58000 26.202
14.60000 17.252
14.62000 15.594
14.64000 14.755
14.66000 15.049
14.68000 21.024
14.70000 20.390
14.72000 8.955
14.74000 21.207
14.76000 26.122
14.78000 20.877
14.80000 17.506
14.82000 15.852
14.84000 18.047
14.86000 12.153
14.88000 18.073
14.90000 15.131
14.92000 17.783
14.94000 22.517
14.96000 12.229
14.98000 15.642
15.00000 27.805
15.02000 18.180
15.04000 14.817
15.06000 19.669
15.08000 10.224
15.10000 10.206
15.12000 18.221
15.14000 14.144
15.16000 17.640
15.18000 18.125
15.20000 30.067
15.22000 24.384
15.24000 17.315
15.26000 16.205
15.28000 14.099
15.30000 3.664
15.32000 7.758
15.34000 17.368
15.36000 23.159
15.38000 15.417
15.40000 20.670
15.42000 19.303
15.44000 16.980
15.46000 3.150
15.48000 4.261
15.50000 14.494
15.52000 19.109
15.54000 12.121
15.56000 16.150
15.58000 17.227
15.60000 12.339
15.62000 23.616
15.64000 11.557
15.66000 6.674
15.68000 16.155
15.70000 14.346
15.72000 7.931
15.74000 8.358
15.76000 11.002
15.78000 11.226
15.80000 14.656
15.82000 11.662
15.84000 12.906
15.86000 8.664
15.88000 8.468
15.90000 4.004
15.92000 4.775
15.94000 7.349
15.96000 8.583
15.98000 8.137
16.00000 19.234
16.02000 21.330
16.04000 17.108
16.06000 14.600
16.08000 12.430
16.10000 9.972
16.12000 6.308
16.14000 4.706
16.16000 13.139
16.18000 3.199
16.20000 4.279
16.22000 10.048
16.24000 13.640
16.26000 10.514
16.28000 6.962
16.30000 3.237
16.32000 -1.376
16.34000 -0.771
16.36000 -1.612
16.38000 3.147
16.40000 4.940
16.42000 4.897
16.44000 1.484
16.46000 1.529
16.48000 8.215
16.50000 7.558
16.52000 2.938
16.54000 12.961
16.56000 3.578
16.58000 -2.408
16.60000 2.753
16.62000 10.094
16.64000 7.585
16.66000 3.170
16.68000 5.223
16.70000 14.484
16.72000 19.274
16.74000 12.344
16.76000 11.742
16.78000 8.241
16.80000 5.802
16.82000 4.724
16.84000 9.412
16.86000 10.004
16.88000 10.027
16.90000 5.833
16.92000 8.232
16.94000 7.813
16.96000 8.117
16.98000 4.546
17.00000 2.859
17.02000 5.908
17.04000 1.862
17.06000 3.291
17.08000 8.577
17.10000 3.228
17.12000 2.222
17.14000 1.552
17.16000 4.241
17.18000 10.572
17.20000 5.694
17.22000 -3.052
17.24000 6.327
17.26000 5.883
17.28000 4.951
17.30000 3.948
17.32000 4.277
17.34000 2.426
17.36000 4.373
17.38000 10.573
17.40000 11.241
17.42000 4.624
17.44000 -4.379
17.46000 0.295
17.48000 13.279
17.50000 15.047
17.52000 8.565
17.54000 2.011
17.56000 3.937
17.58000 8.514
17.60000 6.193
17.62000 3.398
17.64000 -2.289
17.66000 1.560
17.68000 4.699
17.70000 4.618
17.72000 9.271
17.74000 9.305
17.76000 2.099
17.78000 8.897
17.80000 1.934
17.82000 -3.844
17.84000 -2.681
17.86000 -2.057
17.88000 3.428
17.90000 4.438
17.92000 11.523
17.94000 11.213
17.96000 7.369
17.98000 3.068
18.00000 5.168
18.02000 5.619
18.04000 2.238
18.06000 0.195
18.08000 2.151
18.10000 3.247
18.12000 4.675
18.14000 1.929
18.16000 5.968
18.18000 9.733
18.20000 3.579
18.22000 5.455
18.24000 2.600
18.26000 -1.611
18.28000 0.647
18.30000 0.860
18.32000 0.301
18.34000 1.994
18.36000 5.834
18.38000 -2.111
18.40000 3.963
18.42000 5.569
18.44000 -4.342
18.46000 -1.679
18.48000 6.280
18.50000 6.800
18.52000 1.194
18.54000 1.236
18.56000 2.328
18.58000 2.010
18.60000 2.703
18.62000 0.128
18.64000 -2.709
18.66000 2.431
18.68000 5.090
18.70000 1.105
18.72000 0.564
18.74000 -0.609
18.76000 -4.327
18.78000 0.129
18.80000 4.373
18.82000 2.181
18.84000 0.324
18.86000 4.057
18.88000 5.283
18.90000 3.358
18.92000 6.966
18.94000 7.997
18.96000 9.982
18.98000 6.725
19.00000 0.465
19.02000 1.222
19.04000 5.107
19.06000 2.474
19.08000 1.825
19.10000 4.809
19.12000 6.621
19.14000 6.521
19.16000 5.461
19.18000 2.535
19.20000 1.441
19.22000 -2.964
19.24000 1.087
19.26000 4.695
19.28000 3.902
19.30000 -2.465
19.32000 -2.339
19.34000 0.194
19.36000 2.431
19.38000 3.056
19.40000 -0.994
19.42000 1.422
19.44000 5.307
19.46000 4.396
19.48000 0.716
19.50000 2.775
19.52000 0.731
19.54000 -1.985
19.56000 -3.839
19.58000 -3.875
19.60000 -1.541
19.62000 -0.355
19.64000 -0.588
19.66000 -0.285
19.68000 4.116
19.70000 8.014
19.72000 -0.365
19.74000 -1.485
19.76000 2.966
19.78000 2.629
19.80000 -2.189
19.82000 0.831
19.84000 -0.715
19.86000 -1.848
19.88000 0.029
19.90000 2.139
19.92000 3.589
19.94000 2.088
19.96000 4.741
19.98000 4.501
20.00000 2.512
20.02000 -3.598
20.04000 -4.245
20.06000 1.373
20.08000 3.133
20.10000 6.749
20.12000 7.060
20.14000 3.839
20.16000 -1.272
20.18000 1.549
20.20000 3.062
20.22000 5.269
20.24000 7.773
20.26000 8.516
20.28000 3.324
20.30000 4.462
20.32000 3.079
20.34000 1.407
20.36000 2.276
20.38000 0.961
20.40000 9.916
20.42000 12.655
20.44000 10.534
20.46000 7.257
20.48000 3.558
20.50000 1.608
20.52000 -0.443
20.54000 0.110
20.56000 3.062
20.58000 6.908
20.60000 5.063
20.62000 5.666
20.64000 5.515
20.66000 5.220
20.68000 2.616
20.70000 5.587
20.72000 5.378
20.74000 5.925
20.76000 3.485
20.78000 1.831
20.80000 -0.900
20.82000 5.905
20.84000 4.300
20.86000 4.047
20.88000 2.752
20.90000 4.368
20.92000 9.400
20.94000 1.319
20.96000 -2.726
20.98000 -1.945
21.00000 4.056
21.02000 6.155
21.04000 6.148
21.06000 -0.283
21.08000 0.693
21.10000 7.672
21.12000 5.210
21.14000 2.238
21.16000 5.456
21.18000 -1.288
21.20000 4.891
21.22000 1.489
21.24000 8.063
21.26000 8.808
21.28000 7.278
21.30000 4.740
21.32000 7.166
21.34000 9.117
21.36000 8.030
21.38000 1.579
21.40000 5.847
21.42000 5.891
21.44000 2.007
21.46000 4.419
21.48000 7.527
21.50000 2.496
21.52000 -4.164
21.54000 0.989
21.56000 5.086
21.58000 3.626
21.60000 3.096
21.62000 4.537
21.64000 1.678
21.66000 4.438
21.68000 0.448
21.70000 -1.514
21.72000 -1.012
21.74000 3.695
21.76000 7.358
21.78000 5.087
21.80000 4.518
21.82000 5.014
21.84000 5.079
21.86000 5.031
21.88000 6.349
21.90000 6.096
21.92000 8.821
21.94000 3.557
21.96000 4.389
21.98000 8.007
22.00000 3.405
22.02000 3.419
22.04000 -4.114
22.06000 3.572
22.08000 3.589
22.10000 5.545
22.12000 6.077
22.14000 8.047
22.16000 6.502
22.18000 5.962
22.20000 6.758
22.22000 5.043
22.24000 -0.016
22.26000 -1.028
22.28000 4.251
22.30000 0.172
22.32000 8.051
22.34000 10.647
22.36000 6.830
22.38000 11.750
22.40000 9.332
22.42000 1.557
22.44000 -1.429
22.46000 -0.677
22.48000 1.517
22.50000 -1.241
22.52000 2.180
22.54000 4.109
22.56000 4.991
22.58000 -0.173
22.60000 6.117
22.62000 6.209
22.64000 2.324
22.66000 4.804
22.68000 5.484
22.70000 2.303
22.72000 -3.160
22.74000 3.538
22.76000 5.377
22.78000 8.360
22.80000 6.494
22.82000 6.669
22.84000 5.938
22.86000 8.270
22.88000 2.321
22.90000 -3.535
22.92000 -4.089
22.94000 -0.268
22.96000 1.280
22.98000 -0.793
23.00000 -1.561
23.02000 0.450
23.04000 6.803
23.06000 8.606
23.08000 6.204
23.10000 4.399
23.12000 7.014
23.14000 -0.575
23.16000 0.817
23.18000 4.670
23.20000 0.773
23.22000 1.241
23.24000 4.735
23.26000 8.910
23.28000 7.590
23.30000 3.265
23.32000 1.732
23.34000 -1.283
23.36000 -1.548
23.38000 -0.060
23.40000 4.016
23.42000 0.692
23.44000 -0.170
23.46000 -1.069
23.48000 -0.930
23.50000 3.245
23.52000 7.227
23.54000 6.691
23.56000 6.706
23.58000 1.609
23.60000 0.473
23.62000 0.663
23.64000 -0.362
23.66000 -1.337
23.68000 0.041
23.70000 2.626
23.72000 2.677
23.74000 9.698
23.76000 5.476
23.78000 6.026
23.80000 5.292
23.82000 0.979
23.84000 -2.663
23.86000 -3.155
23.88000 -2.753
23.90000 -1.311
23.92000 3.080
23.94000 5.327
23.96000 7.461
23.98000 4.491
24.00000 1.059
24.02000 0.155
24.04000 -3.399
24.06000 -1.629
24.08000 6.174
24.10000 6.850
24.12000 2.400
24.14000 6.753
24.16000 5.611
24.18000 -1.405
24.20000 0.922
24.22000 1.898
24.24000 -1.595
24.26000 -1.414
24.28000 5.464
24.30000 5.269
24.32000 6.743
24.34000 8.091
24.36000 1.914
24.38000 -4.005
24.40000 -0.083
24.42000 2.047
24.44000 2.814
24.46000 5.641
24.48000 4.356
24.50000 3.258
24.52000 4.001
24.54000 7.258
24.56000 0.461
24.58000 -2.311
24.60000 0.010
24.62000 -3.646
24.64000 7.497
24.66000 -0.998
24.68000 -2.842
24.70000 4.667
24.72000 4.855
24.74000 5.429
24.76000 2.587
24.78000 3.296
24.80000 1.135
24.82000 3.062
24.84000 0.806
24.86000 4.817
24.88000 4.749
24.90000 0.545
24.92000 3.074
24.94000 2.193
24.96000 0.393
24.98000 2.354
25.00000 4.680
25.02000 5.111
25.04000 4.531
25.06000 -1.777
25.08000 -3.945
25.10000 0.931
25.12000 2.199
25.14000 0.677
25.16000 0.698
25.18000 -3.307
25.20000 -2.420
25.22000 1.997
25.24000 5.728
25.26000 5.314
25.28000 1.934
25.30000 -3.433
25.32000 -2.721
25.34000 -2.006
25.36000 -1.072
25.38000 2.615
25.40000 1.013
25.42000 0.199
25.44000 -3.952
25.46000 -3.414
25.48000 5.326
25.50000 9.827
25.52000 8.180
25.54000 4.577
25.56000 -0.144
25.58000 5.894
25.60000 1.443
25.62000 4.523
25.64000 6.726
25.66000 2.835
25.68000 4.811
25.70000 4.221
25.72000 5.588
25.74000 14.820
25.76000 7.527
25.78000 8.881
25.80000 8.436
25.82000 6.912
25.84000 4.860
25.86000 8.219
25.88000 7.269
25.90000 2.779
25.92000 3.983
25.94000 10.724
25.96000 11.174
25.98000 7.282
26.00000 -0.417
26.02000 -0.729
26.04000 -3.912
26.06000 -2.507
26.08000 3.437
26.10000 2.284
26.12000 2.197
26.14000 7.437
26.16000 6.546
26.18000 6.284
26.20000 5.867
26.22000 6.556
26.24000 6.282
26.26000 7.216
26.28000 6.634
26.30000 3.440
26.32000 5.192
26.34000 5.107
26.36000 5.451
26.38000 3.184
26.40000 4.927
26.42000 3.022
26.44000 2.669
26.46000 3.005
26.48000 6.041
26.50000 1.228
26.52000 -3.278
26.54000 1.800
26.56000 2.276
26.58000 -0.765
26.60000 -0.104
26.62000 4.975
26.64000 4.445
26.66000 1.220
26.68000 0.882
26.70000 -1.457
26.72000 -2.131
26.74000 4.836
26.76000 3.084
26.78000 2.003
26.80000 5.071
26.82000 7.114
26.84000 7.732
26.86000 7.836
26.88000 -0.810
26.90000 -2.947
26.92000 -2.974
26.94000 -1.943
26.96000 2.879
26.98000 2.927
27.00000 6.860
27.02000 9.368
27.04000 0.670
27.06000 0.275
27.08000 3.406
27.10000 -3.072
27.12000 -2.864
27.14000 1.447
27.16000 1.153
27.18000 -1.779
27.20000 1.713
27.22000 1.185
27.24000 -3.518
27.26000 -3.432
27.28000 1.282
27.30000 0.268
27.32000 4.971
27.34000 0.596
27.36000 -2.458
27.38000 -1.698
27.40000 -2.438
27.42000 0.858
27.44000 3.316
27.46000 5.568
27.48000 6.105
27.50000 2.434
27.52000 1.477
27.54000 -2.177
27.56000 -2.775
27.58000 -2.707
27.60000 -3.834
27.62000 1.368
27.64000 5.783
27.66000 -0.083
27.68000 -0.727
27.70000 -0.414
27.72000 1.183
27.74000 1.880
27.76000 2.406
27.78000 2.282
27.80000 0.360
27.82000 3.143
27.84000 0.026
27.86000 -2.233
27.88000 -2.450
27.90000 5.910
27.92000 -0.043
27.94000 -3.179
27.96000 -3.468
27.98000 -3.472
28.00000 -1.313
28.02000 1.766
28.04000 2.090
28.06000 6.631
28.08000 10.065
28.10000 10.710
28.12000 6.680
28.14000 5.403
28.16000 1.536
28.18000 -3.069
28.20000 -3.817
28.22000 0.859
28.24000 -1.770
28.26000 2.383
28.28000 2.167
28.30000 5.262
28.32000 6.723
28.34000 3.556
28.36000 0.511
28.38000 5.597
28.40000 3.685
28.42000 -1.159
28.44000 1.063
28.46000 -1.460
28.48000 -0.362
28.50000 3.377
28.52000 4.989
28.54000 3.859
28.56000 1.131
28.58000 2.557
28.60000 2.741
28.62000 1.999
28.64000 2.335
28.66000 1.606
28.68000 -2.018
28.70000 1.245
28.72000 4.279
28.74000 3.657
28.76000 7.149
28.78000 3.180
28.80000 6.618
28.82000 1.211
28.84000 2.509
28.86000 0.774
28.88000 -3.782
28.90000 -0.755
28.92000 1.474
28.94000 5.543
28.96000 -1.855
28.98000 1.305
29.00000 1.858
29.02000 3.352
29.04000 3.173
29.06000 1.686
29.08000 -0.913
29.10000 2.265
29.12000 0.865
29.14000 -3.772
29.16000 1.759
29.18000 -0.820
29.20000 -1.585
29.22000 2.387
29.24000 3.105
29.26000 0.175
29.28000 1.432
29.30000 1.620
29.32000 -1.005
29.34000 1.572
29.36000 -0.417
29.38000 -3.393
29.40000 -0.780
29.42000 -0.470
29.44000 -2.186
29.46000 1.144
29.48000 -3.361
29.50000 -2.700
29.52000 -1.571
29.54000 -2.280
29.56000 -1.760
29.58000 -1.298
29.60000 -1.036
29.62000 1.503
29.64000 2.379
29.66000 3.365
29.68000 2.801
29.70000 -1.953
29.72000 1.444
29.74000 2.111
29.76000 7.750
29.78000 3.525
29.80000 -0.499
29.82000 1.909
29.84000 3.903
29.86000 0.914
29.88000 2.526
29.90000 3.388
29.92000 4.213
29.94000 -0.313
29.96000 -3.010
29.98000 -1.464
30.00000 0.431
30.02000 0.021
30.04000 1.313
30.06000 -2.811
30.08000 -3.342
30.10000 1.711
30.12000 1.853
30.14000 1.292
30.16000 9.063
30.18000 4.440
30.20000 -1.828
30.22000 -3.473
30.24000 -3.720
30.26000 -2.543
30.28000 -0.823
30.30000 -2.047
30.32000 0.218
30.34000 5.815
30.36000 1.922
30.38000 1.492
30.40000 -1.077
30.42000 3.971
30.44000 7.137
30.46000 0.912
30.48000 2.307
30.50000 -3.700
30.52000 1.582
30.54000 2.939
30.56000 -1.238
30.58000 0.098
30.60000 -0.868
30.62000 -0.602
30.64000 0.325
30.66000 3.253
30.68000 4.843
30.70000 6.334
30.72000 6.443
30.74000 2.621
30.76000 0.248
30.78000 1.881
30.80000 -3.675
30.82000 -0.374
30.84000 3.095
30.86000 4.324
30.88000 0.579
30.90000 -0.665
30.92000 3.411
30.94000 3.263
30.96000 5.623
30.98000 9.428
31.00000 8.461
31.02000 5.622
31.04000 7.138
31.06000 6.674
31.08000 11.648
31.10000 7.328
31.12000 10.643
31.14000 6.970
31.16000 9.715
31.18000 11.173
31.20000 6.129
31.22000 3.059
31.24000 3.872
31.26000 2.964
31.28000 1.838
31.30000 0.504
31.32000 -3.363
31.34000 1.952
31.36000 3.042
31.38000 3.051
31.40000 4.409
31.42000 1.590
31.44000 0.698
31.46000 6.218
31.48000 7.363
31.50000 4.738
31.52000 4.634
31.54000 3.177
31.56000 4.952
31.58000 10.826
31.60000 3.929
31.62000 4.584
31.64000 3.997
31.66000 3.667
31.68000 2.304
31.70000 6.571
31.72000 7.085
31.74000 5.828
31.76000 5.714
31.78000 5.119
31.80000 4.257
31.82000 3.485
31.84000 8.852
31.86000 6.501
31.88000 4.502
31.90000 8.038
31.92000 10.048
31.94000 10.456
31.96000 7.997
31.98000 6.027
32.00000 0.927
32.02000 5.630
32.04000 7.659
32.06000 3.790
32.08000 3.408
32.10000 -3.565
32.12000 0.150
32.14000 5.395
32.16000 12.807
32.18000 6.555
32.20000 4.592
32.22000 4.521
32.24000 0.637
32.26000 1.798
32.28000 6.392
32.30000 5.280
32.32000 3.384
32.34000 6.371
32.36000 4.295
32.38000 3.512
32.40000 4.757
32.42000 4.100
32.44000 3.906
32.46000 7.149
32.48000 3.812
32.50000 5.561
32.52000 7.264
32.54000 7.693
32.56000 5.969
32.58000 7.959
32.60000 4.791
32.62000 4.325
32.64000 -0.366
32.66000 -0.314
32.68000 5.977
32.70000 4.941
32.72000 6.219
32.74000 7.860
32.76000 5.783
32.78000 5.524
32.80000 11.640
32.82000 9.023
32.84000 2.512
32.86000 1.237
32.88000 2.713
32.90000 2.675
32.92000 4.995
32.94000 2.417
32.96000 4.608
32.98000 5.182
33.00000 10.334
33.02000 7.352
33.04000 6.744
33.06000 0.547
33.08000 1.128
33.10000 5.632
33.12000 7.175
33.14000 4.561
33.16000 -0.459
33.18000 -3.574
33.20000 -2.631
33.22000 -0.114
33.24000 1.374
33.26000 2.774
33.28000 4.851
33.30000 6.428
33.32000 4.342
33.34000 4.397
33.36000 0.887
33.38000 -1.058
33.40000 -0.899
33.42000 4.023
33.44000 7.156
33.46000 0.910
33.48000 2.214
33.50000 3.205
33.52000 4.320
33.54000 4.887
33.56000 5.629
33.58000 1.315
33.60000 1.882
33.62000 5.812
33.64000 3.869
33.66000 -0.314
33.68000 0.316
33.70000 0.095
33.72000 2.078
33.74000 2.888
33.76000 3.570
33.78000 6.562
33.80000 3.961
33.82000 4.594
33.84000 2.576
33.86000 4.829
33.88000 4.915
33.90000 6.009
33.92000 3.796
33.94000 2.373
33.96000 0.406
33.98000 -0.952
34.00000 0.499
34.02000 3.311
34.04000 2.869
34.06000 -1.385
34.08000 -2.167
34.10000 -0.359
34.12000 0.756
34.14000 5.021
34.16000 3.627
34.18000 6.128
34.20000 2.956
34.22000 1.000
34.24000 -0.536
34.26000 -3.577
34.28000 3.042
34.30000 7.761
34.32000 5.388
34.34000 2.609
34.36000 7.005
34.38000 4.408
34.40000 1.771
34.42000 -1.264
34.44000 1.413
34.46000 4.534
34.48000 1.896
34.50000 -1.446
34.52000 1.364
34.54000 3.162
34.56000 1.222
34.58000 -0.632
34.60000 -0.255
34.62000 1.214
34.64000 -1.273
34.66000 4.597
34.68000 1.798
34.70000 2.804
34.72000 0.942
34.74000 0.401
34.76000 5.350
34.78000 6.296
34.80000 1.331
34.82000 4.003
34.84000 2.503
34.86000 -2.881
34.88000 -1.559
34.90000 6.266
34.92000 2.750
34.94000 -2.106
34.96000 0.849
34.98000 0.031
35.00000 7.732
35.02000 9.770
35.04000 5.076
35.06000 6.086
35.08000 6.208
35.10000 2.971
35.12000 -2.407
35.14000 -3.544
35.16000 0.479
35.18000 1.227
35.20000 0.543
35.22000 0.485
35.24000 1.408
35.26000 3.697
35.28000 4.282
35.30000 2.137
35.32000 5.697
35.34000 6.615
35.36000 4.205
35.38000 2.426
35.40000 4.437
35.42000 4.002
35.44000 2.074
35.46000 -1.188
35.48000 -3.525
35.50000 0.820
35.52000 1.592
35.54000 1.640
35.56000 6.354
35.58000 5.963
35.60000 0.907
35.62000 2.716
35.64000 2.807
35.66000 2.806
35.68000 0.269
35.70000 -1.530
35.72000 1.292
35.74000 0.897
35.76000 -0.460
35.78000 6.570
35.80000 5.921
35.82000 2.713
35.84000 -1.930
35.86000 3.090
35.88000 0.589
35.90000 -0.315
35.92000 4.405
35.94000 4.694
35.96000 2.180
35.98000 -0.863
36.00000 -3.543
36.02000 0.117
36.04000 0.783
36.06000 4.434
36.08000 6.390
36.10000 5.208
36.12000 2.869
36.14000 3.948
36.16000 -1.867
36.18000 -2.267
36.20000 0.985
36.22000 4.612
36.24000 4.299
36.26000 -2.716
36.28000 -3.552
36.30000 0.507
36.32000 1.665
36.34000 -2.374
36.36000 -1.873
36.38000 -0.843
36.40000 3.495
36.42000 1.040
36.44000 -1.171
36.46000 2.988
36.48000 4.199
36.50000 2.264
36.52000 1.101
36.54000 0.802
36.56000 1.475
36.58000 -3.028
36.60000 -3.561
36.62000 -1.076
36.64000 -2.819
36.66000 2.257
36.68000 7.745
36.70000 7.741
36.72000 -2.452
36.74000 -2.431
36.76000 2.727
36.78000 -0.494
36.80000 4.775
36.82000 5.288
36.84000 -0.413
36.86000 -2.396
36.88000 -1.442
36.90000 0.365
36.92000 1.063
36.94000 1.848
36.96000 -1.699
36.98000 1.489
37.00000 -1.761
37.02000 1.089
37.04000 -1.314
37.06000 0.112
37.08000 -0.600
37.10000 1.469
37.12000 -2.396
37.14000 -2.884
37.16000 2.163
37.18000 6.201
37.20000 3.218
37.22000 0.747
37.24000 0.782
37.26000 -3.599
37.28000 -0.991
37.30000 -1.687
37.32000 -2.599
37.34000 4.684
37.36000 3.381
37.38000 6.660
37.40000 6.385
37.42000 -0.884
37.44000 -0.945
37.46000 -1.378
37.48000 3.183
37.50000 1.278
37.52000 3.130
37.54000 0.283
37.56000 0.399
37.58000 1.941
37.60000 2.808
37.62000 -1.708
37.64000 1.172
37.66000 -0.571
37.68000 1.190
37.70000 7.012
37.72000 10.279
37.74000 2.930
37.76000 -3.637
37.78000 2.576
37.80000 7.205
37.82000 6.628
37.84000 -0.880
37.86000 -3.573
37.88000 2.035
37.90000 4.514
37.92000 4.190
37.94000 2.623
37.96000 3.928
37.98000 1.298
38.00000 3.361
38.02000 1.419
38.04000 2.932
38.06000 10.423
38.08000 9.453
38.10000 7.204
38.12000 9.450
38.14000 11.870
38.16000 10.368
38.18000 6.840
38.20000 5.768
38.22000 10.169
38.24000 8.069
38.26000 11.633
38.28000 13.605
38.30000 9.555
38.32000 4.863
38.34000 6.401
38.36000 6.261
38.38000 7.755
38.40000 15.189
38.42000 23.660
38.44000 17.655
38.46000 15.302
38.48000 14.689
38.50000 11.740
38.52000 17.215
38.54000 17.219
38.56000 14.129
38.58000 16.970
38.60000 21.004
38.62000 19.273
38.64000 14.014
38.66000 14.414
38.68000 18.012
38.70000 20.861
38.72000 17.465
38.74000 18.592
38.76000 22.531
38.78000 23.771
38.80000 25.033
38.82000 25.561
38.84000 23.535
38.86000 26.754
38.88000 26.910
38.90000 25.986
38.92000 27.418
38.94000 24.904
38.96000 23.666
38.98000 27.003
39.00000 37.628
39.02000 38.015
39.04000 35.311
39.06000 33.925
39.08000 29.480
39.10000 33.786
39.12000 36.040
39.14000 39.538
39.16000 38.375
39.18000 35.514
39.20000 42.639
39.22000 41.875
39.24000 46.584
39.26000 46.879
39.28000 46.026
39.30000 46.244
39.32000 45.792
39.34000 52.515
39.36000 54.803
39.38000 56.058
39.40000 54.392
39.42000 52.883
39.44000 56.347
39.46000 61.575
39.48000 64.503
39.50000 74.739
39.52000 77.783
39.54000 84.251
39.56000 77.732
39.58000 75.258
39.60000 78.996
39.62000 88.462
39.64000 94.849
39.66000 98.365
39.68000 101.767
39.70000 111.294
39.72000 118.236
39.74000 119.921
39.76000 129.345
39.78000 133.621
39.80000 139.450
39.82000 144.408
39.84000 153.310
39.86000 160.576
39.88000 161.009
39.90000 170.752
39.92000 176.526
39.94000 178.789
39.96000 196.687
39.98000 200.951
40.00000 208.057
40.02000 219.939
40.04000 235.916
40.06000 243.851
40.08000 255.102
40.10000 273.881
40.12000 284.044
40.14000 293.853
40.16000 306.807
40.18000 323.707
40.20000 341.498
40.22000 353.332
40.24000 360.099
40.26000 380.201
40.28000 392.316
40.30000 404.445
40.32000 424.033
40.34000 448.312
40.36000 463.041
40.38000 471.616
40.40000 486.575
40.42000 514.011
40.44000 528.951
40.46000 545.141
40.48000 556.155
40.50000 566.553
40.52000 573.617
40.54000 587.437
40.56000 598.971
40.58000 597.919
40.60000 609.568
40.62000 606.948
40.64000 619.828
40.66000 629.160
40.68000 621.512
40.70000 616.108
40.72000 615.431
40.74000 616.026
40.76000 610.384
40.78000 605.376
40.80000 595.403
40.82000 576.717
40.84000 559.206
40.86000 559.070
40.88000 539.042
40.90000 521.642
40.92000 510.640
40.94000 498.354
40.96000 483.523
40.98000 464.248
41.00000 448.022
41.02000 433.451
41.04000 409.730
41.06000 397.046
41.08000 378.739
41.10000 352.105
41.12000 347.813
41.14000 332.074
41.16000 313.186
41.18000 293.453
41.20000 284.811
41.22000 273.316
41.24000 258.971
41.26000 244.827
41.28000 237.643
41.30000 223.511
41.32000 219.755
41.34000 208.714
41.36000 193.695
41.38000 179.487
41.40000 167.414
41.42000 153.604
41.44000 150.594
41.46000 144.085
41.48000 136.015
41.50000 132.050
41.52000 125.957
41.54000 116.525
41.56000 110.467
41.58000 103.098
41.60000 101.592
41.62000 96.368
41.64000 86.586
41.66000 84.316
41.68000 85.408
41.70000 79.609
41.72000 76.350
41.74000 78.963
41.76000 73.345
41.78000 60.342
41.80000 59.211
41.82000 61.713
41.84000 63.645
41.86000 57.062
41.88000 45.172
41.90000 43.887
41.92000 46.520
41.94000 36.985
41.96000 40.405
41.98000 42.729
42.00000 40.995
42.02000 38.813
42.04000 28.301
42.06000 31.827
42.08000 31.556
42.10000 30.386
42.12000 28.269
42.14000 25.087
42.16000 25.963
42.18000 27.378
42.20000 26.104
42.22000 21.755
42.24000 18.932
42.26000 17.053
42.28000 17.375
42.30000 14.604
42.32000 17.052
42.34000 14.716
42.36000 14.354
42.38000 15.994
42.40000 17.250
42.42000 13.691
42.44000 12.021
42.46000 10.560
42.48000 12.542
42.50000 12.741
42.52000 6.811
42.54000 6.146
42.56000 5.560
42.58000 7.982
42.60000 13.076
42.62000 14.658
42.64000 7.678
42.66000 6.642
42.68000 9.744
42.70000 5.198
42.72000 5.854
42.74000 4.957
42.76000 2.107
42.78000 3.152
42.80000 3.009
42.82000 2.896
42.84000 4.385
42.86000 2.932
42.88000 3.840
42.90000 0.538
42.92000 -0.496
42.94000 3.747
42.96000 5.512
42.98000 6.250
43.00000 4.960
43.02000 -0.626
43.04000 -2.975
43.06000 2.216
43.08000 4.900
43.10000 3.986
43.12000 5.415
43.14000 0.979
43.16000 0.003
43.18000 -2.222
43.20000 -3.251
43.22000 -1.371
43.24000 -0.612
43.26000 -1.674
43.28000 1.161
43.30000 -3.599
43.32000 1.187
43.34000 2.594
43.36000 2.759
43.38000 2.725
43.40000 2.163
43.42000 0.606
43.44000 -1.200
43.46000 -0.049
43.48000 3.635
43.50000 3.285
43.52000 0.817
43.54000 0.543
43.56000 1.718
43.58000 -1.258
43.60000 1.730
43.62000 1.214
43.64000 -0.094
43.66000 2.882
43.68000 2.780
43.70000 -0.223
43.72000 2.433
43.74000 -1.118
43.76000 -1.073
43.78000 2.766
43.80000 -1.517
43.82000 0.865
43.84000 5.547
43.86000 2.234
43.88000 2.141
43.90000 0.580
43.92000 0.468
43.94000 3.214
43.96000 0.151
43.98000 2.258
44.00000 0.701
44.02000 -3.529
44.04000 -1.106
44.06000 3.430
44.08000 4.016
44.10000 2.376
44.12000 2.988
44.14000 3.123
44.16000 0.724
44.18000 0.727
44.20000 2.592
44.22000 4.449
44.24000 5.792
44.26000 3.432
44.28000 3.226
44.30000 0.671
44.32000 5.269
44.34000 4.143
44.36000 2.103
44.38000 5.687
44.40000 6.038
44.42000 5.257
44.44000 6.688
44.46000 4.483
44.48000 9.433
44.50000 11.268
44.52000 4.600
44.54000 -0.168
44.56000 -3.472
44.58000 0.063
44.60000 7.517
44.62000 5.106
44.64000 3.186
44.66000 0.580
44.68000 1.325
44.70000 7.542
44.72000 6.335
44.74000 8.317
44.76000 9.590
44.78000 6.721
44.80000 5.507
44.82000 5.945
44.84000 4.750
44.86000 -0.409
44.88000 4.411
44.90000 5.132
44.92000 5.192
44.94000 7.955
44.96000 6.655
44.98000 7.123
45.00000 5.737
45.02000 3.705
45.04000 3.848
45.06000 3.846
45.08000 0.930
45.10000 3.285
45.12000 8.102
45.14000 7.156
45.16000 4.159
45.18000 6.655
45.20000 6.674
45.22000 7.725
45.24000 7.651
45.26000 1.028
45.28000 0.937
45.30000 -0.864
45.32000 2.640
45.34000 1.160
45.36000 5.224
45.38000 10.001
45.40000 11.439
45.42000 6.473
45.44000 6.094
45.46000 6.928
45.48000 8.930
45.50000 5.502
45.52000 9.940
45.54000 17.349
45.56000 18.208
45.58000 7.183
45.60000 9.441
45.62000 16.688
45.64000 15.329
45.66000 12.908
45.68000 10.249
45.70000 12.446
45.72000 11.683
45.74000 13.975
45.76000 14.264
45.78000 12.845
45.80000 8.870
45.82000 10.806
45.84000 13.933
45.86000 22.399
45.88000 18.133
45.90000 18.595
45.92000 18.229
45.94000 17.852
45.96000 19.819
45.98000 29.700
46.00000 24.709
46.02000 24.207
46.04000 25.498
46.06000 23.604
46.08000 21.445
46.10000 21.094
46.12000 24.317
46.14000 21.820
46.16000 20.839
46.18000 28.428
46.20000 25.993
46.22000 24.405
46.24000 27.432
46.26000 24.429
46.28000 23.726
46.30000 26.937
46.32000 34.891
46.34000 33.768
46.36000 36.473
46.38000 35.059
46.40000 39.413
46.42000 43.131
46.44000 40.344
46.46000 40.437
46.48000 45.303
46.50000 48.633
46.52000 51.743
46.54000 46.027
46.56000 42.696
46.58000 45.864
46.60000 46.904
46.62000 43.990
46.64000 47.588
46.66000 48.712
46.68000 51.488
46.70000 60.959
46.72000 64.495
46.74000 62.156
46.76000 59.072
46.78000 60.176
46.80000 58.530
46.82000 60.168
46.84000 60.858
46.86000 63.118
46.88000 66.745
46.90000 67.278
46.92000 66.110
46.94000 69.421
46.96000 68.566
46.98000 66.929
47.00000 74.531
47.02000 73.422
47.04000 76.505
47.06000 79.810
47.08000 65.161
47.10000 73.357
47.12000 68.551
47.14000 69.622
47.16000 70.384
47.18000 73.020
47.20000 75.618
47.22000 70.892
47.24000 76.267
47.26000 80.006
47.28000 75.344
47.30000 76.587
47.32000 71.505
47.34000 70.433
47.36000 74.100
47.38000 76.968
47.40000 76.092
47.42000 72.709
47.44000 66.424
47.46000 66.452
47.48000 61.373
47.50000 64.997
47.52000 66.784
47.54000 62.873
47.56000 60.993
47.58000 61.177
47.60000 54.308
47.62000 54.163
47.64000 60.728
47.66000 59.018
47.68000 52.734
47.70000 54.878
47.72000 56.305
47.74000 55.890
47.76000 48.855
47.78000 43.185
47.80000 50.379
47.82000 51.052
47.84000 43.667
47.86000 40.409
47.88000 43.094
47.90000 42.011
47.92000 39.327
47.94000 37.131
47.96000 36.502
47.98000 40.687
48.00000 40.113
48.02000 36.737
48.04000 31.638
48.06000 22.803
48.08000 26.384
48.10000 24.876
48.12000 25.657
48.14000 28.254
48.16000 27.443
48.18000 24.891
48.20000 22.007
48.22000 14.357
48.24000 15.141
48.26000 17.816
48.28000 23.380
48.30000 16.638
48.32000 21.693
48.34000 20.073
48.36000 17.809
48.38000 8.644
48.40000 7.667
48.42000 12.973
48.44000 8.150
48.46000 9.635
48.48000 13.742
48.50000 12.096
48.52000 6.163
48.54000 4.394
48.56000 1.358
48.58000 3.782
48.60000 0.185
48.62000 9.995
48.64000 5.223
48.66000 2.414
48.68000 7.552
48.70000 5.811
48.72000 5.381
48.74000 8.487
48.76000 4.966
48.78000 3.074
48.80000 -0.034
48.82000 -1.623
48.84000 1.502
48.86000 6.682
48.88000 7.433
48.90000 5.226
48.92000 4.642
48.94000 6.087
48.96000 4.375
48.98000 8.136
49.00000 8.494
49.02000 0.095
49.04000 -3.232
49.06000 2.797
49.08000 0.541
49.10000 0.023
49.12000 -2.123
49.14000 -1.263
49.16000 2.125
49.18000 5.893
49.20000 4.421
49.22000 -0.537
49.24000 3.805
49.26000 1.719
49.28000 3.334
49.30000 1.504
49.32000 3.511
49.34000 6.830
49.36000 6.681
49.38000 0.497
49.40000 2.168
49.42000 3.053
49.44000 1.331
49.46000 5.325
49.48000 3.945
49.50000 3.445
49.52000 3.759
49.54000 1.256
49.56000 3.115
49.58000 2.066
49.60000 2.467
49.62000 -3.130
49.64000 -1.638
49.66000 2.607
49.68000 0.983
49.70000 0.413
49.72000 3.332
49.74000 6.308
49.76000 3.549
49.78000 2.324
49.80000 1.117
49.82000 2.233
49.84000 5.360
49.86000 4.402
49.88000 3.102
49.90000 0.182
49.92000 1.605
49.94000 1.175
49.96000 1.749
49.98000 2.045
50.00000 -3.068
50.02000 -2.426
50.04000 -1.190
50.06000 2.702
50.08000 4.615
50.10000 7.636
50.12000 3.086
50.14000 5.625
50.16000 0.514
50.18000 -0.789
50.20000 5.998
50.22000 7.109
50.24000 5.493
50.26000 5.904
50.28000 -3.028
50.30000 0.447
50.32000 7.690
50.34000 8.627
50.36000 7.664
50.38000 2.494
50.40000 0.718
50.42000 6.265
50.44000 8.742
50.46000 11.850
50.48000 5.218
50.50000 4.569
50.52000 3.765
50.54000 1.934
50.56000 -1.086
50.58000 7.881
50.60000 8.688
50.62000 5.689
50.64000 9.837
50.66000 11.532
50.68000 4.085
50.70000 2.818
50.72000 4.943
50.74000 6.715
50.76000 4.986
50.78000 4.719
50.80000 7.192
50.82000 1.091
50.84000 -0.312
50.86000 -0.099
50.88000 0.136
50.90000 -2.402
50.92000 2.671
50.94000 8.175
50.96000 9.666
50.98000 5.520
51.00000 5.260
51.02000 1.654
51.04000 -2.958
51.06000 -0.339
51.08000 3.120
51.10000 3.623
51.12000 6.019
51.14000 5.838
51.16000 1.149
51.18000 3.395
51.20000 10.553
51.22000 12.374
51.24000 6.955
51.26000 4.760
51.28000 11.109
51.30000 12.702
51.32000 8.408
51.34000 1.525
51.36000 7.467
51.38000 6.912
51.40000 9.085
51.42000 2.594
51.44000 0.670
51.46000 1.195
51.48000 3.773
51.50000 3.641
51.52000 5.556
51.54000 6.927
51.56000 7.882
51.58000 1.225
51.60000 2.609
51.62000 2.860
51.64000 4.278
51.66000 4.514
51.68000 6.781
51.70000 0.718
51.72000 2.082
51.74000 6.388
51.76000 6.439
51.78000 3.618
51.80000 1.698
51.82000 0.856
51.84000 5.588
51.86000 6.357
51.88000 0.262
51.90000 0.135
51.92000 4.685
51.94000 1.889
51.96000 -1.738
51.98000 -0.747
52.00000 1.219
52.02000 0.669
52.04000 -1.268
52.06000 -1.487
52.08000 0.555
52.10000 1.964
52.12000 0.922
52.14000 4.039
52.16000 2.575
52.18000 1.680
52.20000 4.409
52.22000 2.280
52.24000 6.690
52.26000 9.280
52.28000 4.797
52.30000 6.072
52.32000 6.096
52.34000 3.660
52.36000 5.374
52.38000 -0.603
52.40000 -1.096
52.42000 -2.951
52.44000 3.164
52.46000 7.586
52.48000 -1.460
52.50000 -2.255
52.52000 1.196
52.54000 0.068
52.56000 4.351
52.58000 2.255
52.60000 -2.048
52.62000 3.157
52.64000 3.981
52.66000 4.845
52.68000 4.976
52.70000 3.101
52.72000 2.728
52.74000 6.083
52.76000 7.912
52.78000 6.609
52.80000 0.994
52.82000 -0.152
52.84000 1.842
52.86000 4.461
52.88000 10.832
52.90000 4.462
52.92000 6.962
52.94000 10.232
52.96000 9.129
52.98000 6.247
53.00000 3.849
53.02000 8.529
53.04000 5.634
53.06000 0.853
53.08000 6.925
53.10000 6.203
53.12000 4.726
53.14000 3.033
53.16000 4.995
53.18000 5.246
53.20000 6.245
53.22000 4.829
53.24000 7.478
53.26000 6.788
53.28000 1.547
53.30000 2.669
53.32000 5.018
53.34000 7.736
53.36000 9.377
53.38000 9.310
53.40000 6.567
53.42000 -1.654
53.44000 -2.874
53.46000 1.427
53.48000 5.168
53.50000 5.646
53.52000 8.508
53.54000 8.296
53.56000 9.228
53.58000 7.905
53.60000 8.993
53.62000 4.930
53.64000 8.413
53.66000 4.490
53.68000 0.610
53.70000 4.640
53.72000 4.632
53.74000 4.740
53.76000 4.582
53.78000 5.746
53.80000 5.003
53.82000 1.455
53.84000 -0.676
53.86000 3.627
53.88000 -0.187
53.90000 1.828
53.92000 -0.602
53.94000 1.308
53.96000 2.915
53.98000 6.684
54.00000 5.079
54.02000 -0.720
54.04000 -1.105
54.06000 1.632
54.08000 2.775
54.10000 1.250
54.12000 -0.174
54.14000 -2.892
54.16000 5.554
54.18000 6.816
54.20000 7.908
54.22000 8.107
54.24000 7.970
54.26000 6.056
54.28000 -0.840
54.30000 2.482
54.32000 3.970
54.34000 4.856
54.36000 8.828
54.38000 6.763
54.40000 3.833
54.42000 3.957
54.44000 -2.311
54.46000 0.468
54.48000 -2.480
54.50000 0.379
54.52000 1.830
54.54000 -0.763
54.56000 1.421
54.58000 1.817
54.60000 5.249
54.62000 9.696
54.64000 6.900
54.66000 -2.152
54.68000 -1.547
54.70000 1.669
54.72000 0.853
54.74000 -0.121
54.76000 4.337
54.78000 3.194
54.80000 1.758
54.82000 7.475
54.84000 4.639
54.86000 -0.116
54.88000 5.292
54.90000 5.295
54.92000 3.019
54.94000 3.577
54.96000 6.060
54.98000 -2.244
55.00000 -1.319
55.02000 3.102
55.04000 1.536
55.06000 3.914
55.08000 3.030
55.10000 0.816
55.12000 3.813
55.14000 0.294
55.16000 -2.848
55.18000 -1.312
55.20000 0.347
55.22000 0.060
55.24000 3.973
55.26000 5.158
55.28000 5.854
55.30000 2.054
55.32000 2.575
55.34000 -0.382
55.36000 0.602
55.38000 1.207
55.40000 6.451
55.42000 1.665
55.44000 3.849
55.46000 6.639
55.48000 4.473
55.50000 -0.466
55.52000 1.251
55.54000 3.261
55.56000 0.703
55.58000 -2.860
55.60000 1.169
55.62000 4.485
55.64000 3.356
55.66000 3.121
55.68000 3.093
55.70000 6.161
55.72000 2.146
55.74000 1.682
55.76000 10.121
55.78000 0.601
55.80000 1.519
55.82000 6.032
55.84000 2.952
55.86000 -2.839
55.88000 -1.405
55.90000 1.616
55.92000 3.666
55.94000 5.790
55.96000 3.724
55.98000 -1.606
56.00000 -1.777
56.02000 1.089
56.04000 2.842
56.06000 4.023
56.08000 0.037
56.10000 6.162
56.12000 5.163
56.14000 8.241
56.16000 6.443
56.18000 1.202
56.20000 1.722
56.22000 2.478
56.24000 3.949
56.26000 2.295
56.28000 0.130
56.30000 1.856
56.32000 2.545
56.34000 1.701
56.36000 0.048
56.38000 1.536
56.40000 0.595
56.42000 6.040
56.44000 2.881
56.46000 2.560
56.48000 4.849
56.50000 -0.802
56.52000 -0.161
56.54000 1.884
56.56000 0.438
56.58000 -0.164
56.60000 1.662
56.62000 3.025
56.64000 4.081
56.66000 4.082
56.68000 5.428
56.70000 5.344
56.72000 1.900
56.74000 3.180
56.76000 2.640
56.78000 4.905
56.80000 6.676
56.82000 7.469
56.84000 6.810
56.86000 7.256
56.88000 3.100
56.90000 10.441
56.92000 9.600
56.94000 5.869
56.96000 3.009
56.98000 0.134
57.00000 2.046
57.02000 -2.789
57.04000 -1.302
57.06000 4.660
57.08000 6.713
57.10000 10.031
57.12000 6.962
57.14000 1.884
57.16000 3.905
57.18000 7.633
57.20000 4.980
57.22000 6.987
57.24000 3.408
57.26000 3.380
57.28000 1.457
57.30000 2.133
57.32000 9.259
57.34000 10.161
57.36000 1.716
57.38000 -1.255
57.40000 0.375
57.42000 6.644
57.44000 10.496
57.46000 5.627
57.48000 6.872
57.50000 4.939
57.52000 3.083
57.54000 1.328
57.56000 0.582
57.58000 2.506
57.60000 2.842
57.62000 5.162
57.64000 2.146
57.66000 -0.892
57.68000 3.362
57.70000 8.766
57.72000 10.230
57.74000 4.822
57.76000 2.712
57.78000 7.314
57.80000 1.831
57.82000 9.575
57.84000 7.581
57.86000 7.032
57.88000 6.753
57.90000 7.919
57.92000 9.290
57.94000 4.522
57.96000 3.469
57.98000 5.397
58.00000 7.354
58.02000 6.556
58.04000 4.026
58.06000 6.339
58.08000 8.361
58.10000 12.674
58.12000 7.677
58.14000 4.334
58.16000 2.406
58.18000 1.514
58.20000 8.479
58.22000 6.252
58.24000 13.817
58.26000 12.665
58.28000 9.566
58.30000 6.728
58.32000 0.581
58.34000 -2.673
58.36000 -0.205
58.38000 4.399
58.40000 9.059
58.42000 6.211
58.44000 6.586
58.46000 6.592
58.48000 10.062
58.50000 9.567
58.52000 8.319
58.54000 4.545
58.56000 5.781
58.58000 4.958
58.60000 7.429
58.62000 4.989
58.64000 6.093
58.66000 14.852
58.68000 13.295
58.70000 8.884
58.72000 4.735
58.74000 3.239
58.76000 5.601
58.78000 3.274
58.80000 4.303
58.82000 5.114
58.84000 10.446
58.86000 9.570
58.88000 7.856
58.90000 2.710
58.92000 1.173
58.94000 5.518
58.96000 12.374
58.98000 12.519
59.00000 6.931
59.02000 8.397
59.04000 6.131
59.06000 3.962
59.08000 5.267
59.10000 7.430
59.12000 4.222
59.14000 5.545
59.16000 10.020
59.18000 10.216
59.20000 4.023
59.22000 5.391
59.24000 2.649
59.26000 5.015
59.28000 6.278
59.30000 6.512
59.32000 5.158
59.34000 6.810
59.36000 8.237
59.38000 9.841
59.40000 5.388
59.42000 2.629
59.44000 -2.652
59.46000 3.074
59.48000 5.922
59.50000 9.732
59.52000 6.735
59.54000 7.006
59.56000 6.467
59.58000 9.351
59.60000 7.323
59.62000 8.139
59.64000 5.130
59.66000 6.007
59.68000 10.209
59.70000 3.269
59.72000 1.840
59.74000 3.300
59.76000 1.297
59.78000 4.078
59.80000 4.512
59.82000 3.464
59.84000 0.500
59.86000 0.561
59.88000 4.962
59.90000 2.899
59.92000 3.166
59.94000 1.611
59.96000 2.436
59.98000 4.961
60.00000 5.740
60.02000 4.557
60.04000 4.716
60.06000 3.187
60.08000 4.626
60.10000 2.458
60.12000 8.796
60.14000 6.096
60.16000 7.834
60.18000 4.076
60.20000 5.963
60.22000 6.072
60.24000 4.185
60.26000 5.845
60.28000 8.550
60.30000 6.475
60.32000 3.218
60.34000 7.068
60.36000 10.644
60.38000 4.502
60.40000 0.716
60.42000 4.556
60.44000 5.438
60.46000 8.124
60.48000 1.285
60.50000 -0.660
60.52000 3.446
60.54000 5.079
60.56000 4.832
60.58000 3.976
60.60000 -1.616
60.62000 -2.140
60.64000 8.703
60.66000 9.280
60.68000 8.295
60.70000 8.342
60.72000 6.527
60.74000 6.039
60.76000 4.657
60.78000 7.940
60.80000 3.053
60.82000 1.044
60.84000 4.740
60.86000 9.304
60.88000 9.053
60.90000 3.285
60.92000 0.009
60.94000 0.968
60.96000 -0.745
60.98000 -2.634
61.00000 2.557
61.02000 3.305
61.04000 6.750
61.06000 5.357
61.08000 6.361
61.10000 2.954
61.12000 4.245
61.14000 2.206
61.16000 1.297
61.18000 4.904
61.20000 2.157
61.22000 6.411
61.24000 5.181
61.26000 9.995
61.28000 7.882
61.30000 4.688
61.32000 2.843
61.34000 2.061
61.36000 -1.460
61.38000 -2.031
61.40000 2.378
61.42000 -1.057
61.44000 -2.615
61.46000 1.800
61.48000 3.752
61.50000 6.751
61.52000 3.262
61.54000 5.314
61.56000 4.271
61.58000 2.227
61.60000 3.944
61.62000 3.318
61.64000 2.974
61.66000 2.399
61.68000 -1.551
61.70000 2.459
61.72000 4.646
61.74000 3.366
61.76000 -0.567
61.78000 0.398
61.80000 1.099
61.82000 4.332
61.84000 7.226
61.86000 4.372
61.88000 5.858
61.90000 3.382
61.92000 0.730
61.94000 -2.585
61.96000 -0.863
61.98000 0.936
62.00000 2.806
62.02000 1.915
62.04000 -1.331
62.06000 -0.883
62.08000 -2.329
62.10000 4.531
62.12000 2.065
62.14000 2.236
62.16000 1.367
62.18000 2.765
62.20000 1.699
62.22000 0.869
62.24000 7.089
62.26000 2.596
62.28000 -1.429
62.30000 5.017
62.32000 3.511
62.34000 1.479
62.36000 1.219
62.38000 -2.120
62.40000 1.251
62.42000 2.230
62.44000 2.525
62.46000 1.869
62.48000 0.400
62.50000 2.232
62.52000 4.418
62.54000 2.634
62.56000 -1.090
62.58000 0.230
62.60000 -0.197
62.62000 -1.346
62.64000 1.960
62.66000 4.878
62.68000 7.077
62.70000 4.412
62.72000 2.545
62.74000 -1.509
62.76000 -2.647
62.78000 3.012
62.80000 2.857
62.82000 2.467
62.84000 3.058
62.86000 3.941
62.88000 6.266
62.90000 2.782
62.92000 3.178
62.94000 5.121
62.96000 2.217
62.98000 3.479
63.00000 3.306
63.02000 0.066
63.04000 2.170
63.06000 5.623
63.08000 1.252
63.10000 -2.637
63.12000 0.253
63.14000 0.656
63.16000 0.407
63.18000 1.959
63.20000 4.204
63.22000 4.609
63.24000 1.399
63.26000 2.649
63.28000 2.207
63.30000 -0.440
63.32000 2.319
63.34000 4.237
63.36000 3.730
63.38000 1.583
63.40000 2.346
63.42000 3.398
63.44000 1.601
63.46000 2.205
63.48000 1.208
63.50000 -0.754
63.52000 0.082
63.54000 2.555
63.56000 3.947
63.58000 3.637
63.60000 1.399
63.62000 4.300
63.64000 5.684
63.66000 3.029
63.68000 5.228
63.70000 2.385
63.72000 1.790
63.74000 5.268
63.76000 4.379
63.78000 5.005
63.80000 2.673
63.82000 2.517
63.84000 2.070
63.86000 1.115
63.88000 3.779
63.90000 4.273
63.92000 0.667
63.94000 -2.433
63.96000 2.473
63.98000 3.446
64.00000 3.585
64.02000 3.991
64.04000 4.121
64.06000 2.010
64.08000 -2.600
64.10000 4.731
64.12000 7.983
64.14000 7.501
64.16000 1.830
64.18000 3.140
64.20000 3.064
64.22000 7.348
64.24000 3.182
64.26000 3.665
64.28000 1.753
64.30000 4.637
64.32000 4.700
64.34000 3.205
64.36000 3.532
64.38000 3.346
64.40000 9.444
64.42000 4.627
64.44000 2.151
64.46000 4.277
64.48000 5.595
64.50000 4.829
64.52000 6.656
64.54000 2.192
64.56000 1.947
64.58000 0.907
64.60000 2.322
64.62000 0.029
64.64000 2.297
64.66000 2.690
64.68000 4.951
64.70000 4.695
64.72000 4.868
64.74000 6.848
64.76000 7.498
64.78000 6.791
64.80000 3.079
64.82000 1.902
64.84000 2.885
64.86000 1.813
64.88000 0.699
64.90000 -0.187
64.92000 1.736
64.94000 -0.185
64.96000 2.486
64.98000 0.646
65.00000 2.018
65.02000 4.415
65.04000 4.159
65.06000 3.385
65.08000 3.032
65.10000 2.621
65.12000 4.656
65.14000 -0.464
65.16000 1.917
65.18000 2.515
65.20000 2.555
65.22000 -0.079
65.24000 1.490
65.26000 3.331
65.28000 0.848
65.30000 -2.016
65.32000 -1.124
65.34000 3.264
65.36000 1.131
65.38000 -1.505
65.40000 -0.096
65.42000 -0.531
65.44000 0.694
65.46000 0.972
65.48000 1.535
65.50000 1.804
65.52000 -0.647
65.54000 3.281
65.56000 4.490
65.58000 2.785
65.60000 0.004
65.62000 1.654
65.64000 -0.470
65.66000 0.345
65.68000 -2.632
65.70000 -0.820
65.72000 0.728
65.74000 0.692
65.76000 -0.260
65.78000 0.173
65.80000 -0.816
65.82000 4.041
65.84000 -0.586
65.86000 2.850
65.88000 2.165
65.90000 4.559
65.92000 -0.311
65.94000 -0.206
65.96000 2.236
65.98000 4.572
66.00000 4.724
66.02000 6.194
66.04000 2.380
66.06000 0.802
66.08000 3.713
66.10000 1.942
66.12000 -1.850
66.14000 0.118
66.16000 2.368
66.18000 0.752
66.20000 -2.649
66.22000 -1.806
66.24000 2.856
66.26000 1.537
66.28000 -1.740
66.30000 -0.236
66.32000 0.074
66.34000 0.645
66.36000 2.599
66.38000 3.188
66.40000 2.538
66.42000 0.291
66.44000 -0.346
66.46000 -1.464
66.48000 -0.716
66.50000 3.364
66.52000 6.019
66.54000 2.693
66.56000 4.507
66.58000 4.654
66.60000 3.315
66.62000 3.242
66.64000 2.773
66.66000 -2.690
66.68000 0.022
66.70000 -1.272
66.72000 -2.014
66.74000 4.554
66.76000 1.533
66.78000 0.454
66.80000 2.645
66.82000 3.365
66.84000 -0.290
66.86000 -1.392
66.88000 3.357
66.90000 3.340
66.92000 0.911
66.94000 0.236
66.96000 -0.452
66.98000 -0.847
67.00000 2.655
67.02000 4.249
67.04000 0.307
67.06000 -0.871
67.08000 5.206
67.10000 0.103
67.12000 -1.674
67.14000 2.611
67.16000 3.815
67.18000 -1.455
67.20000 -2.732
67.22000 -1.310
67.24000 -1.253
67.26000 1.579
67.28000 1.098
67.30000 -0.464
67.32000 -0.177
67.34000 2.397
67.36000 4.381
67.38000 2.586
67.40000 1.549
67.42000 3.728
67.44000 2.102
67.46000 1.081
67.48000 0.949
67.50000 0.957
67.52000 1.825
67.54000 1.207
67.56000 0.716
67.58000 1.068
67.60000 -0.800
67.62000 0.510
67.64000 -1.099
67.66000 1.572
67.68000 1.350
67.70000 1.203
67.72000 4.251
67.74000 2.191
67.76000 2.400
67.78000 5.408
67.80000 5.423
67.82000 3.017
67.84000 3.267
67.86000 -1.545
67.88000 3.830
67.90000 3.720
67.92000 3.606
67.94000 8.796
67.96000 5.173
67.98000 0.141
68.00000 2.097
68.02000 2.021
68.04000 3.814
68.06000 -0.370
68.08000 3.941
68.10000 4.554
68.12000 9.293
68.14000 8.706
68.16000 8.004
68.18000 5.779
68.20000 2.436
68.22000 8.024
68.24000 7.743
68.26000 8.581
68.28000 8.891
68.30000 6.195
68.32000 7.411
68.34000 7.507
68.36000 8.178
68.38000 12.078
68.40000 12.430
68.42000 15.122
68.44000 9.932
68.46000 8.558
68.48000 15.134
68.50000 16.727
68.52000 13.035
68.54000 19.511
68.56000 18.654
68.58000 22.005
68.60000 20.447
68.62000 19.219
68.64000 14.549
68.66000 15.079
68.68000 17.770
68.70000 20.617
68.72000 21.096
68.74000 22.545
68.76000 23.768
68.78000 22.726
68.80000 19.350
68.82000 25.459
68.84000 27.581
68.86000 26.206
68.88000 23.097
68.90000 25.349
68.92000 32.881
68.94000 27.723
68.96000 27.712
68.98000 27.114
69.00000 28.222
69.02000 29.209
69.04000 26.072
69.06000 25.646
69.08000 26.576
69.10000 27.849
69.12000 30.502
69.14000 29.139
69.16000 31.167
69.18000 26.067
69.20000 31.496
69.22000 27.814
69.24000 22.635
69.26000 24.819
69.28000 25.133
69.30000 24.124
69.32000 21.907
69.34000 28.949
69.36000 28.837
69.38000 30.266
69.40000 25.592
69.42000 23.129
69.44000 22.246
69.46000 17.491
69.48000 21.737
69.50000 24.348
69.52000 22.074
69.54000 20.894
69.56000 19.105
69.58000 20.599
69.60000 16.010
69.62000 20.810
69.64000 19.633
69.66000 19.276
69.68000 15.334
69.70000 13.166
69.72000 15.400
69.74000 12.983
69.76000 9.956
69.78000 12.546
69.80000 11.298
69.82000 11.027
69.84000 9.542
69.86000 10.574
69.88000 10.705
69.90000 6.688
69.92000 6.296
69.94000 8.077
69.96000 12.371
69.98000 4.665
70.00000 0.427
70.02000 5.681
70.04000 7.509
70.06000 9.052
70.08000 11.837
70.10000 7.871
70.12000 5.774
70.14000 6.009
70.16000 8.162
70.18000 8.463
70.20000 5.647
70.22000 -0.862
70.24000 2.793
70.26000 1.955
70.28000 -1.059
70.30000 5.650
70.32000 6.104
70.34000 2.837
70.36000 -2.389
70.38000 -2.646
70.40000 3.784
70.42000 5.124
70.44000 2.846
70.46000 -1.535
70.48000 -1.290
70.50000 -2.115
70.52000 -1.480
70.54000 1.732
70.56000 5.642
70.58000 2.978
70.60000 6.400
70.62000 7.601
70.64000 0.573
70.66000 -0.233
70.68000 1.864
70.70000 6.252
70.72000 7.038
70.74000 7.099
70.76000 4.216
70.78000 5.240
70.80000 9.715
70.82000 3.690
70.84000 0.476
70.86000 -1.307
70.88000 0.792
70.90000 -1.939
70.92000 -0.583
70.94000 0.152
70.96000 3.372
70.98000 3.010
71.00000 3.959
71.02000 1.386
71.04000 -0.602
71.06000 -1.913
71.08000 -1.676
71.10000 7.665
71.12000 5.715
71.14000 4.333
71.16000 5.635
71.18000 7.245
71.20000 4.480
71.22000 2.078
71.24000 -0.035
71.26000 -2.525
71.28000 4.385
71.30000 2.648
71.32000 2.949
71.34000 0.528
71.36000 1.490
71.38000 1.930
71.40000 3.287
71.42000 5.735
71.44000 6.894
71.46000 6.731
71.48000 6.161
71.50000 3.897
71.52000 4.133
71.54000 5.656
71.56000 8.068
71.58000 3.616
71.60000 5.198
71.62000 5.456
71.64000 0.826
71.66000 2.181
71.68000 0.954
71.70000 -2.487
71.72000 -0.918
71.74000 2.483
71.76000 4.792
71.78000 2.194
71.80000 1.221
71.82000 4.359
71.84000 2.265
71.86000 2.506
71.88000 6.998
71.90000 5.149
71.92000 4.643
71.94000 5.472
71.96000 6.718
71.98000 4.500
72.00000 3.357
72.02000 4.420
72.04000 5.380
72.06000 5.248
72.08000 8.405
72.10000 6.967
72.12000 3.428
72.14000 -0.257
72.16000 -2.483
72.18000 1.419
72.20000 3.422
72.22000 2.691
72.24000 -0.400
72.26000 -1.560
72.28000 1.877
72.30000 0.957
72.32000 5.406
72.34000 3.814
72.36000 2.904
72.38000 3.504
72.40000 6.564
72.42000 4.357
72.44000 -1.222
72.46000 2.700
72.48000 3.744
72.50000 -2.217
72.52000 -1.000
72.54000 0.457
72.56000 2.472
72.58000 3.020
72.60000 3.873
72.62000 -0.427
72.64000 -1.179
72.66000 1.176
72.68000 -0.520
72.70000 1.613
72.72000 4.251
72.74000 4.286
72.76000 3.551
72.78000 7.438
72.80000 3.186
72.82000 0.939
72.84000 -0.088
72.86000 1.392
72.88000 -0.599
72.90000 -0.063
72.92000 -1.771
72.94000 2.352
72.96000 4.651
72.98000 2.994
73.00000 -1.403
73.02000 -0.168
73.04000 3.785
73.06000 4.684
73.08000 4.952
73.10000 6.196
73.12000 4.370
73.14000 4.018
73.16000 1.472
73.18000 1.201
73.20000 1.879
73.22000 -1.972
73.24000 4.154
73.26000 6.941
73.28000 5.593
73.30000 -0.900
73.32000 -0.723
73.34000 0.348
73.36000 -2.461
73.38000 -0.523
73.40000 -1.108
73.42000 4.383
73.44000 3.906
73.46000 0.909
73.48000 2.190
73.50000 1.248
73.52000 3.365
73.54000 1.852
73.56000 4.877
73.58000 6.725
73.60000 7.009
73.62000 5.812
73.64000 2.063
73.66000 3.176
73.68000 3.808
73.70000 5.999
73.72000 2.965
73.74000 -0.507
73.76000 7.994
73.78000 6.973
73.80000 8.397
73.82000 3.914
73.84000 4.742
73.86000 -1.859
73.88000 -2.008
73.90000 -2.306
73.92000 -1.308
73.94000 -2.456
73.96000 0.744
73.98000 4.169
74.00000 5.611
74.02000 5.967
74.04000 3.847
74.06000 2.214
74.08000 -2.454
74.10000 4.299
74.12000 5.874
74.14000 -0.134
74.16000 -2.095
74.18000 -1.368
74.20000 4.542
74.22000 7.137
74.24000 8.032
74.26000 4.349
74.28000 3.269
74.30000 9.229
74.32000 4.760
74.34000 1.879
74.36000 0.202
74.38000 0.183
74.40000 6.005
74.42000 9.203
74.44000 8.184
74.46000 6.956
74.48000 3.846
74.50000 0.502
74.52000 2.969
74.54000 -0.769
74.56000 -2.445
74.58000 -1.259
74.60000 -0.461
74.62000 -1.059
74.64000 -0.968
74.66000 -0.600
74.68000 6.282
74.70000 3.270
74.72000 0.017
74.74000 2.922
74.76000 2.096
74.78000 4.684
74.80000 5.808
74.82000 4.494
74.84000 3.670
74.86000 -2.441
74.88000 -0.616
74.90000 2.258
74.92000 0.980
74.94000 4.242
74.96000 2.226
74.98000 -0.081
75.00000 2.669
75.02000 5.540
75.04000 9.572
75.06000 4.575
75.08000 1.318
75.10000 3.036
75.12000 8.882
75.14000 3.632
75.16000 1.866
75.18000 -0.720
75.20000 0.259
75.22000 0.638
75.24000 3.641
75.26000 3.834
75.28000 2.664
75.30000 5.688
75.32000 6.531
75.34000 5.522
75.36000 2.412
75.38000 -1.602
75.40000 1.763
75.42000 -1.993
75.44000 1.991
75.46000 2.179
75.48000 2.487
75.50000 3.840
75.52000 5.568
75.54000 3.987
75.56000 0.797
75.58000 0.085
75.60000 6.907
75.62000 6.412
75.64000 -0.099
75.66000 2.986
75.68000 3.488
75.70000 1.371
75.72000 4.120
75.74000 5.249
75.76000 3.707
75.78000 2.924
75.80000 7.490
75.82000 6.079
75.84000 1.016
75.86000 1.079
75.88000 2.335
75.90000 9.202
75.92000 4.493
75.94000 0.922
75.96000 1.793
75.98000 -0.704
76.00000 2.275
76.02000 4.068
76.04000 4.298
76.06000 3.455
76.08000 1.949
76.10000 1.983
76.12000 8.004
76.14000 2.346
76.16000 4.270
76.18000 2.651
76.20000 3.165
76.22000 -2.408
76.24000 3.777
76.26000 2.664
76.28000 6.644
76.30000 6.387
76.32000 2.759
76.34000 1.424
76.36000 3.260
76.38000 1.281
76.40000 6.098
76.42000 7.375
76.44000 3.615
76.46000 7.808
76.48000 7.771
76.50000 7.923
76.52000 4.054
76.54000 5.616
76.56000 6.266
76.58000 1.455
76.60000 4.875
76.62000 7.507
76.64000 4.484
76.66000 1.288
76.68000 5.020
76.70000 5.695
76.72000 3.461
76.74000 0.154
76.76000 6.428
76.78000 4.518
76.80000 1.012
76.82000 0.511
76.84000 0.620
76.86000 0.546
76.88000 4.017
76.90000 5.972
76.92000 4.895
76.94000 3.962
76.96000 3.616
76.98000 9.383
77.00000 5.279
77.02000 1.795
77.04000 2.650
77.06000 2.370
77.08000 7.286
77.10000 0.655
77.12000 3.057
77.14000 -0.373
77.16000 1.691
77.18000 1.362
77.20000 3.752
77.22000 5.229
77.24000 12.065
77.26000 6.332
77.28000 0.390
77.30000 1.941
77.32000 5.242
77.34000 2.409
77.36000 3.254
77.38000 2.315
77.40000 0.747
77.42000 1.601
77.44000 4.007
77.46000 1.761
77.48000 6.120
77.50000 4.945
77.52000 3.301
77.54000 5.307
77.56000 8.541
77.58000 7.328
77.60000 1.838
77.62000 0.757
77.64000 2.549
77.66000 1.046
77.68000 2.867
77.70000 0.702
77.72000 3.520
77.74000 5.277
77.76000 8.489
77.78000 6.148
77.80000 7.117
77.82000 6.843
77.84000 9.029
77.86000 15.044
77.88000 4.291
77.90000 11.548
77.92000 5.044
77.94000 3.776
77.96000 2.327
77.98000 5.328
78.00000 6.682
78.02000 3.874
78.04000 2.106
78.06000 1.609
78.08000 4.056
78.10000 7.619
78.12000 8.195
78.14000 7.608
78.16000 8.177
78.18000 1.251
78.20000 -2.411
78.22000 5.446
78.24000 3.758
78.26000 5.978
78.28000 2.172
78.30000 4.951
78.32000 4.176
78.34000 8.175
78.36000 6.702
78.38000 8.464
78.40000 9.852
78.42000 9.839
78.44000 7.330
78.46000 6.963
78.48000 3.530
78.50000 9.811
78.52000 7.677
78.54000 8.077
78.56000 8.497
78.58000 5.982
78.60000 -0.197
78.62000 6.175
78.64000 8.771
78.66000 6.459
78.68000 2.780
78.70000 4.505
78.72000 2.263
78.74000 -0.173
78.76000 2.002
78.78000 3.404
78.80000 9.620
78.82000 2.763
78.84000 3.597
78.86000 5.964
78.88000 5.953
78.90000 7.835
78.92000 10.735
78.94000 6.906
78.96000 5.482
78.98000 6.090
79.00000 2.791
79.02000 0.512
79.04000 4.041
79.06000 9.738
79.08000 -1.429
79.10000 -0.766
79.12000 4.619
79.14000 2.855
79.16000 4.557
79.18000 4.353
79.20000 7.045
79.22000 6.127
79.24000 4.161
79.26000 4.189
79.28000 2.384
79.30000 -0.731
79.32000 -2.467
79.34000 0.242
79.36000 2.943
79.38000 3.289
79.40000 4.514
79.42000 6.149
79.44000 2.394
79.46000 -0.474
79.48000 2.187
79.50000 4.085
79.52000 4.341
79.54000 9.489
79.56000 5.723
79.58000 0.084
79.60000 5.186
79.62000 5.849
79.64000 7.378
79.66000 3.521
79.68000 0.326
79.70000 -0.999
79.72000 0.987
79.74000 -0.135
79.76000 -1.761
79.78000 7.826
79.80000 8.125
79.82000 7.074
79.84000 5.326
79.86000 4.616
79.88000 8.174
79.90000 4.925
79.92000 4.082
79.94000 7.263
79.96000 5.703
79.98000 5.122
80.00000 7.240
80.02000 4.273
80.04000 -0.520
80.06000 1.305
80.08000 4.247
80.10000 2.956
80.12000 2.586
80.14000 2.764
80.16000 2.331
80.18000 4.484
80.20000 2.286
80.22000 -1.302
80.24000 0.883
80.26000 0.377
80.28000 -2.480
80.30000 -0.466
80.32000 1.779
80.34000 4.322
80.36000 5.292
80.38000 8.477
80.40000 6.109
80.42000 2.870
80.44000 3.212
80.46000 -0.343
80.48000 3.217
80.50000 7.385
80.52000 1.608
80.54000 5.778
80.56000 2.912
80.58000 0.324
80.60000 1.811
80.62000 2.481
80.64000 1.769
80.66000 -0.398
80.68000 2.314
80.70000 2.846
80.72000 0.521
80.74000 1.243
80.76000 -0.040
80.78000 2.002
80.80000 -0.862
80.82000 -0.210
80.84000 1.480
80.86000 3.743
80.88000 11.383
80.90000 3.455
80.92000 2.901
80.94000 1.619
80.96000 0.308
80.98000 -0.785
81.00000 -2.080
81.02000 -1.135
81.04000 5.214
81.06000 4.533
81.08000 2.185
81.10000 2.010
81.12000 2.976
81.14000 -0.785
81.16000 -2.564
81.18000 0.165
81.20000 -1.221
81.22000 -0.762
81.24000 1.061
81.26000 4.285
81.28000 4.827
81.30000 -0.766
81.32000 -2.585
81.34000 2.947
81.36000 1.157
81.38000 0.873
81.40000 -0.547
81.42000 1.918
81.44000 0.537
81.46000 4.723
81.48000 1.974
81.50000 3.318
81.52000 3.548
81.54000 5.982
81.56000 7.109
81.58000 1.193
81.60000 -0.950
81.62000 6.038
81.64000 10.411
81.66000 7.423
81.68000 5.474
81.70000 -0.557
81.72000 7.663
81.74000 7.974
81.76000 2.430
81.78000 -0.966
81.80000 1.724
81.82000 5.102
81.84000 4.278
81.86000 8.063
81.88000 7.602
81.90000 8.370
81.92000 7.250
81.94000 4.756
81.96000 5.902
81.98000 1.019
82.00000 0.981
82.02000 -0.170
82.04000 5.059
82.06000 7.442
82.08000 7.624
82.10000 7.331
82.12000 6.594
82.14000 7.481
82.16000 2.454
82.18000 3.613
82.20000 8.066
82.22000 5.617
82.24000 8.978
82.26000 8.536
82.28000 8.653
82.30000 14.492
82.32000 12.044
82.34000 6.991
82.36000 3.588
82.38000 9.789
82.40000 12.385
82.42000 11.295
82.44000 12.360
82.46000 11.832
82.48000 10.277
82.50000 11.449
82.52000 15.469
82.54000 16.845
82.56000 13.697
82.58000 9.197
82.60000 14.878
82.62000 20.592
82.64000 15.786
82.66000 11.334
82.68000 4.892
82.70000 12.132
82.72000 17.091
82.74000 16.838
82.76000 14.415
82.78000 12.460
82.80000 16.600
82.82000 16.128
82.84000 21.586
82.86000 20.494
82.88000 18.177
82.90000 15.096
82.92000 16.858
82.94000 22.771
82.96000 21.254
82.98000 23.134
83.00000 26.646
83.02000 25.321
83.04000 25.485
83.06000 33.373
83.08000 26.764
83.10000 25.235
83.12000 27.413
83.14000 22.531
83.16000 20.650
83.18000 23.506
83.20000 19.689
83.22000 20.075
83.24000 22.076
83.26000 21.686
83.28000 23.555
83.30000 29.754
83.32000 30.847
83.34000 35.186
83.36000 33.675
83.38000 30.229
83.40000 28.827
83.42000 31.097
83.44000 32.555
83.46000 30.280
83.48000 27.972
83.50000 21.139
83.52000 21.762
83.54000 25.797
83.56000 30.370
83.58000 20.633
83.60000 22.776
83.62000 21.588
83.64000 24.782
83.66000 26.239
83.68000 27.306
83.70000 24.110
83.72000 25.079
83.74000 26.868
83.76000 23.319
83.78000 31.984
83.80000 29.627
83.82000 23.577
83.84000 23.492
83.86000 27.450
83.88000 29.493
83.90000 25.074
83.92000 24.431
83.94000 28.230
83.96000 27.958
83.98000 26.158
84.00000 17.745
84.02000 27.686
84.04000 28.019
84.06000 20.608
84.08000 20.373
84.10000 16.491
84.12000 17.246
84.14000 19.530
84.16000 17.358
84.18000 20.902
84.20000 17.446
84.22000 18.633
84.24000 15.813
84.26000 14.981
84.28000 7.343
84.30000 11.156
84.32000 12.101
84.34000 12.949
84.36000 7.031
84.38000 10.176
84.40000 8.724
84.42000 10.958
84.44000 11.287
84.46000 12.367
84.48000 8.823
84.50000 10.955
84.52000 9.220
84.54000 6.226
84.56000 10.688
84.58000 8.228
84.60000 3.910
84.62000 5.699
84.64000 8.772
84.66000 8.150
84.68000 4.994
84.70000 4.451
84.72000 7.523
84.74000 5.356
84.76000 4.435
84.78000 4.035
84.80000 7.772
84.82000 6.370
84.84000 7.260
84.86000 7.520
84.88000 9.455
84.90000 7.454
84.92000 7.458
84.94000 8.809
84.96000 1.908
84.98000 3.569
85.00000 2.824
85.02000 0.529
85.04000 -0.340
85.06000 2.814
85.08000 9.985
85.10000 3.429
85.12000 1.685
85.14000 4.939
85.16000 7.341
85.18000 3.326
85.20000 1.107
85.22000 -1.670
85.24000 -2.068
85.26000 0.995
85.28000 5.861
85.30000 7.451
85.32000 5.195
85.34000 -2.543
85.36000 -1.767
85.38000 6.326
85.40000 4.471
85.42000 2.292
85.44000 0.142
85.46000 3.176
85.48000 0.507
85.50000 -2.349
85.52000 2.363
85.54000 3.878
85.56000 2.162
85.58000 1.856
85.60000 6.229
85.62000 6.812
85.64000 7.268
85.66000 3.161
85.68000 -2.525
85.70000 1.316
85.72000 3.987
85.74000 -1.174
85.76000 4.258
85.78000 0.247
85.80000 2.650
85.82000 5.448
85.84000 4.368
85.86000 -0.931
85.88000 1.058
85.90000 0.209
85.92000 -2.513
85.94000 4.571
85.96000 6.761
85.98000 4.407
86.00000 5.224
86.02000 4.350
86.04000 1.286
86.06000 0.845
86.08000 3.696
86.10000 3.439
86.12000 2.685
86.14000 0.657
86.16000 2.441
86.18000 4.249
86.20000 6.123
86.22000 1.454
86.24000 7.025
86.26000 6.119
86.28000 -0.197
86.30000 -2.514
86.32000 3.855
86.34000 3.322
86.36000 1.920
86.38000 4.829
86.40000 9.677
86.42000 9.330
86.44000 5.161
86.46000 4.965
86.48000 2.942
86.50000 3.758
86.52000 4.103
86.54000 0.503
86.56000 -2.037
86.58000 -2.527
86.60000 3.262
86.62000 7.546
86.64000 5.491
86.66000 4.626
86.68000 3.278
86.70000 7.367
86.72000 5.114
86.74000 3.657
86.76000 0.374
86.78000 9.011
86.80000 9.147
86.82000 5.809
86.84000 3.521
86.86000 5.175
86.88000 10.028
86.90000 12.044
86.92000 8.984
86.94000 5.978
86.96000 11.775
86.98000 8.915
87.00000 5.205
87.02000 5.697
87.04000 4.073
87.06000 5.877
87.08000 2.998
87.10000 2.113
87.12000 14.954
87.14000 13.615
87.16000 11.374
87.18000 10.153
87.20000 10.043
87.22000 7.362
87.24000 6.285
87.26000 6.260
87.28000 10.305
87.30000 14.332
87.32000 15.614
87.34000 15.585
87.36000 13.984
87.38000 13.278
87.40000 18.035
87.42000 17.493
87.44000 13.486
87.46000 14.128
87.48000 14.522
87.50000 13.643
87.52000 16.174
87.54000 20.007
87.56000 23.025
87.58000 18.560
87.60000 17.242
87.62000 24.086
87.64000 21.613
87.66000 15.503
87.68000 17.149
87.70000 18.292
87.72000 25.315
87.74000 18.164
87.76000 19.818
87.78000 24.188
87.80000 27.296
87.82000 22.908
87.84000 22.584
87.86000 24.670
87.88000 24.428
87.90000 25.213
87.92000 22.314
87.94000 23.807
87.96000 27.352
87.98000 28.720
88.00000 26.320
88.02000 27.811
88.04000 27.925
88.06000 30.468
88.08000 28.439
88.10000 25.830
88.12000 23.783
88.14000 27.380
88.16000 27.709
88.18000 26.467
88.20000 25.889
88.22000 22.483
88.24000 26.513
88.26000 22.966
88.28000 21.277
88.30000 21.961
88.32000 17.222
88.34000 20.748
88.36000 28.667
88.38000 26.983
88.40000 25.067
88.42000 27.815
88.44000 25.055
88.46000 28.450
88.48000 25.847
88.50000 27.742
88.52000 27.253
88.54000 20.112
88.56000 11.965
88.58000 13.611
88.60000 15.251
88.62000 14.225
88.64000 15.193
88.66000 18.806
88.68000 20.238
88.70000 11.563
88.72000 12.933
88.74000 14.508
88.76000 9.876
88.78000 7.210
88.80000 10.576
88.82000 17.541
88.84000 18.296
88.86000 14.786
88.88000 11.351
88.90000 11.242
88.92000 9.705
88.94000 10.199
88.96000 13.343
88.98000 11.194
89.00000 8.660
89.02000 14.475
89.04000 12.782
89.06000 7.027
89.08000 6.193
89.10000 11.671
89.12000 12.070
89.14000 12.792
89.16000 11.640
89.18000 9.475
89.20000 6.920
89.22000 12.005
89.24000 7.812
89.26000 -0.581
89.28000 -0.014
89.30000 1.596
89.32000 6.755
89.34000 8.914
89.36000 1.474
89.38000 6.242
89.40000 9.216
89.42000 10.290
89.44000 3.008
89.46000 5.487
89.48000 3.631
89.50000 2.852
89.52000 4.715
89.54000 1.038
89.56000 1.881
89.58000 1.274
89.60000 3.777
89.62000 -0.271
89.64000 -1.755
89.66000 -2.399
89.68000 3.666
89.70000 4.048
89.72000 5.740
89.74000 10.282
89.76000 4.601
89.78000 3.027
89.80000 2.882
89.82000 -1.100
89.84000 1.240
89.86000 -1.159
89.88000 4.027
89.90000 2.171
89.92000 2.896
89.94000 5.233
89.96000 7.072
89.98000 10.191
90.00000 8.160
90.02000 5.935
90.04000 8.036
90.06000 2.189
90.08000 5.524
90.10000 2.555
90.12000 5.119
90.14000 4.198
90.16000 0.997
90.18000 -1.474
90.20000 2.491
90.22000 -1.529
90.24000 -1.198
90.26000 0.328
90.28000 1.285
90.30000 4.307
90.32000 3.910
90.34000 4.769
90.36000 7.889
90.38000 4.490
90.40000 3.301
90.42000 0.992
90.44000 3.419
90.46000 -1.194
90.48000 0.392
90.50000 2.894
90.52000 3.410
90.54000 -0.374
90.56000 -1.693
90.58000 -0.866
90.60000 -1.068
90.62000 -0.093
90.64000 2.467
90.66000 4.054
90.68000 -0.408
90.70000 -1.306
90.72000 2.182
90.74000 3.998
90.76000 1.793
90.78000 -2.339
90.80000 2.835
90.82000 1.560
90.84000 3.556
90.86000 3.123
90.88000 2.013
90.90000 5.542
90.92000 4.807
90.94000 3.198
90.96000 0.228
90.98000 6.309
91.00000 2.963
91.02000 1.577
91.04000 2.532
91.06000 5.550
91.08000 9.751
91.10000 8.016
91.12000 4.971
91.14000 7.572
91.16000 4.974
91.18000 3.715
91.20000 4.908
91.22000 2.677
91.24000 5.337
91.26000 4.833
91.28000 8.928
91.30000 4.979
91.32000 5.937
91.34000 3.723
91.36000 4.904
91.38000 1.037
91.40000 -1.091
91.42000 -0.559
91.44000 4.387
91.46000 0.956
91.48000 8.853
91.50000 10.412
91.52000 3.389
91.54000 4.818
91.56000 2.790
91.58000 3.760
91.60000 3.587
91.62000 -0.505
91.64000 0.400
91.66000 7.981
91.68000 7.489
91.70000 3.116
91.72000 1.580
91.74000 3.284
91.76000 1.037
91.78000 1.404
91.80000 5.566
91.82000 7.718
91.84000 7.229
91.86000 7.876
91.88000 7.489
91.90000 1.996
91.92000 2.130
91.94000 2.199
91.96000 7.192
91.98000 9.834
92.00000 9.301
92.02000 10.745
92.04000 2.086
92.06000 1.767
92.08000 1.033
92.10000 0.313
92.12000 0.705
92.14000 6.740
92.16000 9.019
92.18000 4.728
92.20000 -2.279
92.22000 -0.662
92.24000 5.400
92.26000 10.884
92.28000 4.438
92.30000 4.922
92.32000 5.269
92.34000 5.796
92.36000 5.426
92.38000 2.295
92.40000 -0.837
92.42000 3.340
92.44000 12.789
92.46000 13.946
92.48000 9.273
92.50000 0.018
92.52000 3.092
92.54000 1.730
92.56000 4.793
92.58000 8.031
92.60000 3.599
92.62000 1.618
92.64000 3.092
92.66000 3.625
92.68000 1.706
92.70000 5.257
92.72000 5.725
92.74000 2.965
92.76000 5.665
92.78000 4.751
92.80000 1.827
92.82000 -0.553
92.84000 4.385
92.86000 10.451
92.88000 1.961
92.90000 -1.296
92.92000 3.077
92.94000 4.373
92.96000 1.455
92.98000 5.619
93.00000 5.048
93.02000 4.554
93.04000 2.221
93.06000 4.804
93.08000 10.552
93.10000 5.500
93.12000 -1.064
93.14000 -0.635
93.16000 0.157
93.18000 5.751
93.20000 11.588
93.22000 9.123
93.24000 4.494
93.26000 3.144
93.28000 2.768
93.30000 4.638
93.32000 3.817
93.34000 4.158
93.36000 4.507
93.38000 4.316
93.40000 0.518
93.42000 5.297
93.44000 4.102
93.46000 1.603
93.48000 2.532
93.50000 5.019
93.52000 1.842
93.54000 4.622
93.56000 3.163
93.58000 5.379
93.60000 6.866
93.62000 7.148
93.64000 6.408
93.66000 0.268
93.68000 5.539
93.70000 8.769
93.72000 9.332
93.74000 3.125
93.76000 3.939
93.78000 11.059
93.80000 13.180
93.82000 9.105
93.84000 7.087
93.86000 6.240
93.88000 6.014
93.90000 7.561
93.92000 -0.013
93.94000 1.013
93.96000 4.513
93.98000 2.584
94.00000 1.846
94.02000 -2.302
94.04000 1.904
94.06000 4.444
94.08000 5.097
94.10000 9.044
94.12000 2.990
94.14000 0.137
94.16000 0.228
94.18000 2.556
94.20000 3.715
94.22000 4.574
94.24000 8.671
94.26000 7.206
94.28000 6.486
94.30000 9.270
94.32000 10.849
94.34000 10.008
94.36000 8.891
94.38000 1.863
94.40000 1.972
94.42000 3.687
94.44000 5.786
94.46000 5.029
94.48000 5.090
94.50000 5.560
94.52000 2.289
94.54000 4.177
94.56000 5.564
94.58000 6.694
94.60000 6.364
94.62000 3.687
94.64000 2.452
94.66000 4.742
94.68000 5.293
94.70000 3.716
94.72000 8.931
94.74000 13.927
94.76000 14.114
94.78000 8.258
94.80000 1.812
94.82000 10.913
94.84000 7.284
94.86000 6.899
94.88000 9.648
94.90000 10.346
94.92000 6.810
94.94000 8.013
94.96000 8.186
94.98000 8.738
95.00000 4.222
95.02000 2.731
95.04000 0.479
95.06000 -2.277
95.08000 6.824
95.10000 9.735
95.12000 7.517
95.14000 8.789
95.16000 4.015
95.18000 2.803
95.20000 3.683
95.22000 8.714
95.24000 8.924
95.26000 1.874
95.28000 3.486
95.30000 9.499
95.32000 10.561
95.34000 13.855
95.36000 10.283
95.38000 3.194
95.40000 3.647
95.42000 6.499
95.44000 6.151
95.46000 10.767
95.48000 8.134
95.50000 6.138
95.52000 7.376
95.54000 10.909
95.56000 10.213
95.58000 9.862
95.60000 7.947
95.62000 3.748
95.64000 3.031
95.66000 2.789
95.68000 4.534
95.70000 5.007
95.72000 0.674
95.74000 4.436
95.76000 5.097
95.78000 9.039
95.80000 5.248
95.82000 3.600
95.84000 10.711
95.86000 13.412
95.88000 9.289
95.90000 10.716
95.92000 10.035
95.94000 10.548
95.96000 12.965
95.98000 8.680
96.00000 7.642
96.02000 7.154
96.04000 7.296
96.06000 3.648
96.08000 2.808
96.10000 5.115
96.12000 -2.270
96.14000 1.390
96.16000 7.758
96.18000 10.263
96.20000 7.649
96.22000 2.909
96.24000 9.492
96.26000 13.848
96.28000 15.792
96.30000 13.846
96.32000 6.578
96.34000 -1.191
96.36000 1.673
96.38000 8.514
96.40000 5.708
96.42000 3.974
96.44000 6.386
96.46000 9.553
96.48000 4.343
96.50000 2.531
96.52000 1.887
96.54000 5.691
96.56000 5.948
96.58000 13.747
96.60000 13.313
96.62000 9.362
96.64000 2.564
96.66000 3.329
96.68000 4.287
96.70000 9.129
96.72000 7.964
96.74000 6.456
96.76000 8.253
96.78000 2.023
96.80000 -0.057
96.82000 4.495
96.84000 4.656
96.86000 3.174
96.88000 4.232
96.90000 8.059
96.92000 12.756
96.94000 5.424
96.96000 2.221
96.98000 3.249
97.00000 -0.531
97.02000 7.594
97.04000 7.193
97.06000 5.421
97.08000 5.937
97.10000 3.659
97.12000 5.031
97.14000 3.328
97.16000 2.715
97.18000 10.394
97.20000 8.457
97.22000 6.949
97.24000 10.026
97.26000 3.447
97.28000 -1.856
97.30000 2.884
97.32000 -1.147
97.34000 4.529
97.36000 9.630
97.38000 -0.895
97.40000 0.730
97.42000 3.083
97.44000 -2.073
97.46000 3.282
97.48000 2.912
97.50000 5.656
97.52000 0.472
97.54000 0.451
97.56000 9.351
97.58000 5.450
97.60000 -2.300
97.62000 1.469
97.64000 -0.693
97.66000 2.205
97.68000 0.360
97.70000 5.579
97.72000 9.298
97.74000 3.033
97.76000 -1.344
97.78000 2.549
97.80000 4.847
97.82000 5.408
97.84000 10.399
97.86000 10.872
97.88000 5.880
97.90000 8.426
97.92000 5.404
97.94000 2.305
97.96000 2.867
97.98000 7.345
98.00000 9.917
98.02000 8.675
98.04000 4.973
98.06000 0.532
98.08000 0.514
98.10000 4.300
98.12000 5.531
98.14000 4.858
98.16000 10.794
98.18000 8.763
98.20000 4.102
98.22000 2.499
98.24000 -1.195
98.26000 6.431
98.28000 6.891
98.30000 4.830
98.32000 7.257
98.34000 10.700
98.36000 11.973
98.38000 8.428
98.40000 -2.161
98.42000 5.014
98.44000 15.438
98.46000 13.060
98.48000 7.384
98.50000 8.319
98.52000 9.156
98.54000 6.363
98.56000 7.527
98.58000 5.047
98.60000 8.180
98.62000 9.368
98.64000 10.293
98.66000 8.187
98.68000 4.519
98.70000 7.568
98.72000 9.298
98.74000 -3.801
98.76000 2.020
98.78000 2.576
98.80000 4.086
98.82000 6.576
98.84000 10.205
98.86000 6.003
98.88000 13.991
98.90000 8.667
98.92000 5.112
98.94000 1.164
98.96000 7.179
98.98000 -1.655
99.00000 7.151
99.02000 8.497
99.04000 -3.533
99.06000 2.811
99.08000 6.961
99.10000 10.075
99.12000 0.184
99.14000 2.685
99.16000 12.469
99.18000 12.961
99.20000 14.221
99.22000 5.198
99.24000 3.173
99.26000 9.068
99.28000 1.303
99.30000 6.564
99.32000 13.421
99.34000 17.545
99.36000 12.449
99.38000 5.186
99.40000 7.212
99.42000 12.639
99.44000 8.161
99.46000 4.360
99.48000 1.538
99.50000 11.616
99.52000 7.225
99.54000 1.347
99.56000 10.000
99.58000 13.174
99.60000 19.105
99.62000 18.137
99.64000 2.100
99.66000 6.657
99.68000 -0.906
99.70000 -0.676
99.72000 9.586
99.74000 14.222
99.76000 10.342
99.78000 7.735
99.80000 9.220
99.82000 13.817
99.84000 13.583
99.86000 17.252
99.88000 11.307
99.90000 -3.854
99.92000 -2.234
99.94000 2.334
99.96000 3.484
99.98000 0.000
