'Id: "0011389" Comment: "Integrate frame 0011389_Au-Ir-Rh_Au-Rich_XRD_Mapping-017-0000.gfrmwith cursor Wedge Cursor #5" Operator: "B?rgel" Anode: "Cu" Wavelength: "1.5406" Scantype: "2Theta (TwoTheta)" TimePerStep: "1" X: "0" Y: "-36" Z: "5.95" 
10.00000 0.000
10.02000 -4.373
10.04000 -4.334
10.06000 3.788
10.08000 1.697
10.10000 8.485
10.12000 1.972
10.14000 6.819
10.16000 12.758
10.18000 -0.228
10.20000 -1.460
10.22000 10.591
10.24000 2.468
10.26000 7.031
10.28000 10.032
10.30000 12.869
10.32000 23.081
10.34000 25.410
10.36000 28.326
10.38000 20.453
10.40000 7.015
10.42000 10.542
10.44000 16.370
10.46000 17.841
10.48000 9.763
10.50000 14.121
10.52000 19.949
10.54000 1.630
10.56000 10.633
10.58000 25.009
10.60000 20.603
10.62000 5.487
10.64000 9.129
10.66000 19.239
10.68000 14.254
10.70000 9.926
10.72000 4.722
10.74000 27.274
10.76000 25.249
10.78000 17.215
10.80000 25.099
10.82000 26.611
10.84000 4.168
10.86000 -4.276
10.88000 8.639
10.90000 26.668
10.92000 29.328
10.94000 21.073
10.96000 14.710
10.98000 16.433
11.00000 12.866
11.02000 5.994
11.04000 14.286
11.06000 18.059
11.08000 6.099
11.10000 10.441
11.12000 15.252
11.14000 11.575
11.16000 17.207
11.18000 17.988
11.20000 18.425
11.22000 15.425
11.24000 20.911
11.26000 8.907
11.28000 -3.942
11.30000 16.581
11.32000 20.063
11.34000 19.819
11.36000 20.111
11.38000 15.644
11.40000 13.188
11.42000 19.498
11.44000 13.192
11.46000 17.491
11.48000 15.398
11.50000 9.528
11.52000 5.986
11.54000 16.904
11.56000 14.424
11.58000 11.557
11.60000 19.200
11.62000 18.572
11.64000 18.035
11.66000 11.729
11.68000 23.539
11.70000 39.309
11.72000 26.663
11.74000 22.754
11.76000 12.587
11.78000 6.264
11.80000 11.031
11.82000 23.472
11.84000 13.821
11.86000 19.481
11.88000 10.112
11.90000 15.821
11.92000 21.751
11.94000 13.379
11.96000 12.076
11.98000 4.736
12.00000 13.099
12.02000 8.977
12.04000 9.718
12.06000 11.392
12.08000 16.880
12.10000 25.569
12.12000 16.412
12.14000 2.467
12.16000 8.992
12.18000 9.512
12.20000 6.950
12.22000 12.925
12.24000 17.346
12.26000 13.932
12.28000 18.417
12.30000 19.766
12.32000 12.069
12.34000 10.495
12.36000 5.277
12.38000 7.327
12.40000 11.396
12.42000 11.456
12.44000 15.750
12.46000 11.180
12.48000 9.163
12.50000 9.711
12.52000 17.450
12.54000 17.042
12.56000 2.076
12.58000 3.275
12.60000 6.826
12.62000 5.496
12.64000 -3.247
12.66000 2.432
12.68000 14.557
12.70000 15.032
12.72000 6.120
12.74000 2.862
12.76000 14.270
12.78000 15.343
12.80000 18.388
12.82000 17.912
12.84000 10.024
12.86000 4.941
12.88000 7.049
12.90000 3.564
12.92000 2.340
12.94000 11.270
12.96000 12.356
12.98000 12.300
13.00000 12.956
13.02000 11.735
13.04000 2.410
13.06000 8.234
13.08000 12.199
13.10000 6.577
13.12000 -4.446
13.14000 3.818
13.16000 9.100
13.18000 11.798
13.20000 10.039
13.22000 12.758
13.24000 15.854
13.26000 -2.032
13.28000 -3.630
13.30000 12.697
13.32000 12.593
13.34000 9.454
13.36000 12.584
13.38000 6.782
13.40000 13.763
13.42000 12.336
13.44000 17.461
13.46000 19.708
13.48000 20.347
13.50000 12.451
13.52000 5.953
13.54000 10.794
13.56000 11.131
13.58000 1.022
13.60000 4.848
13.62000 12.970
13.64000 9.450
13.66000 7.381
13.68000 4.828
13.70000 4.752
13.72000 6.112
13.74000 3.512
13.76000 -4.015
13.78000 -4.202
13.80000 -1.832
13.82000 -2.059
13.84000 5.291
13.86000 6.903
13.88000 7.632
13.90000 3.351
13.92000 7.752
13.94000 1.260
13.96000 7.830
13.98000 4.376
14.00000 1.720
14.02000 8.674
14.04000 8.042
14.06000 8.711
14.08000 7.029
14.10000 11.692
14.12000 12.069
14.14000 10.032
14.16000 10.384
14.18000 2.381
14.20000 1.649
14.22000 8.254
14.24000 7.963
14.26000 7.720
14.28000 11.814
14.30000 3.504
14.32000 -4.469
14.34000 1.695
14.36000 1.569
14.38000 0.914
14.40000 -2.983
14.42000 -1.093
14.44000 2.658
14.46000 -1.583
14.48000 0.222
14.50000 13.787
14.52000 12.017
14.54000 8.467
14.56000 5.760
14.58000 6.325
14.60000 8.381
14.62000 4.528
14.64000 9.413
14.66000 2.685
14.68000 5.082
14.70000 8.997
14.72000 4.386
14.74000 4.901
14.76000 -1.762
14.78000 -3.681
14.80000 -1.363
14.82000 5.905
14.84000 11.936
14.86000 4.139
14.88000 3.843
14.90000 9.089
14.92000 8.401
14.94000 7.585
14.96000 9.794
14.98000 2.168
15.00000 4.378
15.02000 0.923
15.04000 -0.470
15.06000 12.129
15.08000 11.896
15.10000 8.583
15.12000 3.272
15.14000 8.983
15.16000 12.098
15.18000 2.609
15.20000 6.769
15.22000 5.995
15.24000 2.281
15.26000 6.725
15.28000 2.267
15.30000 -1.196
15.32000 -4.450
15.34000 2.273
15.36000 11.511
15.38000 6.201
15.40000 1.930
15.42000 2.263
15.44000 8.008
15.46000 13.990
15.48000 14.572
15.50000 4.451
15.52000 4.344
15.54000 6.273
15.56000 9.756
15.58000 10.226
15.60000 14.579
15.62000 5.013
15.64000 -0.863
15.66000 -0.317
15.68000 4.281
15.70000 7.654
15.72000 4.313
15.74000 6.829
15.76000 3.360
15.78000 6.604
15.80000 8.847
15.82000 1.331
15.84000 -1.888
15.86000 3.408
15.88000 8.183
15.90000 7.647
15.92000 7.627
15.94000 6.526
15.96000 -1.415
15.98000 -2.478
16.00000 3.778
16.02000 -4.416
16.04000 0.476
16.06000 12.637
16.08000 13.384
16.10000 7.323
16.12000 4.059
16.14000 0.058
16.16000 9.124
16.18000 0.454
16.20000 -1.752
16.22000 4.377
16.24000 -1.371
16.26000 -3.859
16.28000 0.664
16.30000 3.461
16.32000 3.749
16.34000 8.963
16.36000 3.963
16.38000 8.084
16.40000 11.242
16.42000 6.820
16.44000 6.435
16.46000 10.529
16.48000 8.349
16.50000 3.601
16.52000 9.134
16.54000 7.658
16.56000 2.998
16.58000 7.573
16.60000 10.584
16.62000 12.663
16.64000 -0.886
16.66000 1.034
16.68000 7.125
16.70000 1.059
16.72000 -2.080
16.74000 -4.375
16.76000 1.725
16.78000 -3.322
16.80000 0.876
16.82000 9.614
16.84000 3.430
16.86000 0.966
16.88000 -0.148
16.90000 9.870
16.92000 5.202
16.94000 -0.918
16.96000 6.249
16.98000 11.176
17.00000 10.010
17.02000 1.651
17.04000 8.734
17.06000 8.941
17.08000 15.106
17.10000 11.034
17.12000 7.205
17.14000 6.587
17.16000 5.693
17.18000 8.949
17.20000 7.323
17.22000 4.240
17.24000 -0.555
17.26000 -1.654
17.28000 0.446
17.30000 0.876
17.32000 7.784
17.34000 10.933
17.36000 5.309
17.38000 6.223
17.40000 7.572
17.42000 3.954
17.44000 2.849
17.46000 3.083
17.48000 2.591
17.50000 6.039
17.52000 10.681
17.54000 10.336
17.56000 10.144
17.58000 6.491
17.60000 6.598
17.62000 -1.289
17.64000 2.182
17.66000 7.705
17.68000 7.305
17.70000 7.710
17.72000 5.619
17.74000 5.404
17.76000 3.969
17.78000 -1.830
17.80000 -0.106
17.82000 4.627
17.84000 9.689
17.86000 5.692
17.88000 8.347
17.90000 13.194
17.92000 2.036
17.94000 -4.291
17.96000 5.908
17.98000 19.253
18.00000 19.309
18.02000 13.730
18.04000 11.903
18.06000 2.935
18.08000 8.487
18.10000 11.812
18.12000 13.295
18.14000 8.920
18.16000 1.395
18.18000 -1.237
18.20000 -0.727
18.22000 6.325
18.24000 7.686
18.26000 12.990
18.28000 8.028
18.30000 -0.425
18.32000 3.580
18.34000 7.872
18.36000 3.350
18.38000 -1.337
18.40000 -1.930
18.42000 3.781
18.44000 12.589
18.46000 14.702
18.48000 5.960
18.50000 3.242
18.52000 12.589
18.54000 10.318
18.56000 5.408
18.58000 9.960
18.60000 2.816
18.62000 0.399
18.64000 0.165
18.66000 4.430
18.68000 9.835
18.70000 5.210
18.72000 1.822
18.74000 0.822
18.76000 3.281
18.78000 8.672
18.80000 7.119
18.82000 4.869
18.84000 7.531
18.86000 4.580
18.88000 1.729
18.90000 12.697
18.92000 2.976
18.94000 -4.219
18.96000 1.617
18.98000 6.416
19.00000 6.228
19.02000 4.447
19.04000 4.860
19.06000 4.167
19.08000 10.999
19.10000 12.259
19.12000 4.978
19.14000 4.633
19.16000 8.341
19.18000 6.642
19.20000 6.642
19.22000 6.986
19.24000 1.974
19.26000 0.958
19.28000 11.366
19.30000 11.000
19.32000 1.829
19.34000 0.047
19.36000 9.417
19.38000 9.742
19.40000 2.685
19.42000 0.219
19.44000 0.799
19.46000 6.193
19.48000 6.462
19.50000 1.612
19.52000 0.319
19.54000 5.415
19.56000 2.951
19.58000 4.121
19.60000 -0.087
19.62000 4.534
19.64000 6.508
19.66000 5.942
19.68000 4.296
19.70000 9.016
19.72000 6.398
19.74000 12.364
19.76000 9.332
19.78000 0.872
19.80000 4.628
19.82000 9.238
19.84000 10.099
19.86000 2.665
19.88000 1.349
19.90000 3.357
19.92000 1.199
19.94000 3.102
19.96000 8.112
19.98000 8.697
20.00000 6.532
20.02000 8.716
20.04000 4.674
20.06000 11.066
20.08000 11.796
20.10000 8.211
20.12000 4.675
20.14000 4.036
20.16000 2.700
20.18000 2.332
20.20000 3.555
20.22000 6.608
20.24000 7.766
20.26000 3.383
20.28000 4.809
20.30000 6.441
20.32000 7.600
20.34000 5.776
20.36000 2.353
20.38000 -0.153
20.40000 8.428
20.42000 8.587
20.44000 2.134
20.46000 7.112
20.48000 9.318
20.50000 -0.029
20.52000 -1.705
20.54000 -1.371
20.56000 -1.004
20.58000 0.240
20.60000 0.698
20.62000 1.854
20.64000 -1.111
20.66000 3.753
20.68000 5.323
20.70000 0.890
20.72000 -4.099
20.74000 -1.000
20.76000 3.644
20.78000 13.557
20.80000 16.452
20.82000 9.578
20.84000 6.875
20.86000 4.708
20.88000 11.863
20.90000 8.318
20.92000 7.147
20.94000 7.051
20.96000 10.094
20.98000 5.369
21.00000 1.515
21.02000 6.943
21.04000 1.929
21.06000 4.311
21.08000 5.282
21.10000 8.508
21.12000 2.726
21.14000 0.812
21.16000 2.324
21.18000 5.759
21.20000 1.861
21.22000 -0.183
21.24000 5.694
21.26000 8.858
21.28000 6.068
21.30000 10.060
21.32000 9.162
21.34000 9.517
21.36000 10.255
21.38000 8.513
21.40000 3.965
21.42000 7.742
21.44000 1.495
21.46000 -1.684
21.48000 0.711
21.50000 3.520
21.52000 2.587
21.54000 -1.849
21.56000 6.601
21.58000 2.761
21.60000 5.708
21.62000 4.575
21.64000 0.387
21.66000 6.014
21.68000 9.458
21.70000 7.763
21.72000 6.112
21.74000 6.587
21.76000 7.296
21.78000 6.628
21.80000 12.379
21.82000 12.008
21.84000 12.943
21.86000 16.002
21.88000 6.200
21.90000 6.973
21.92000 11.801
21.94000 3.949
21.96000 4.343
21.98000 5.002
22.00000 7.081
22.02000 2.386
22.04000 -3.264
22.06000 -3.364
22.08000 3.098
22.10000 9.531
22.12000 10.974
22.14000 10.127
22.16000 6.540
22.18000 1.061
22.20000 1.552
22.22000 4.364
22.24000 6.991
22.26000 6.725
22.28000 4.103
22.30000 7.146
22.32000 8.581
22.34000 2.589
22.36000 -4.017
22.38000 4.582
22.40000 15.077
22.42000 6.644
22.44000 6.776
22.46000 1.159
22.48000 3.074
22.50000 1.065
22.52000 4.206
22.54000 8.022
22.56000 6.268
22.58000 7.661
22.60000 4.336
22.62000 4.782
22.64000 6.364
22.66000 4.090
22.68000 1.219
22.70000 3.303
22.72000 1.873
22.74000 2.225
22.76000 9.653
22.78000 10.642
22.80000 6.840
22.82000 -2.570
22.84000 4.219
22.86000 9.961
22.88000 7.090
22.90000 -0.572
22.92000 5.319
22.94000 10.380
22.96000 10.307
22.98000 5.671
23.00000 6.552
23.02000 8.066
23.04000 8.052
23.06000 -0.232
23.08000 -3.967
23.10000 4.497
23.12000 7.422
23.14000 4.694
23.16000 2.504
23.18000 2.342
23.20000 5.341
23.22000 4.200
23.24000 2.082
23.26000 1.890
23.28000 2.558
23.30000 9.209
23.32000 7.225
23.34000 3.205
23.36000 3.963
23.38000 3.936
23.40000 3.588
23.42000 2.295
23.44000 0.990
23.46000 4.303
23.48000 5.162
23.50000 7.042
23.52000 8.535
23.54000 11.135
23.56000 6.301
23.58000 3.923
23.60000 0.544
23.62000 1.953
23.64000 3.705
23.66000 6.063
23.68000 5.754
23.70000 -3.099
23.72000 -0.639
23.74000 4.340
23.76000 0.666
23.78000 -3.589
23.80000 -1.885
23.82000 5.524
23.84000 5.185
23.86000 3.990
23.88000 3.392
23.90000 0.196
23.92000 0.129
23.94000 6.855
23.96000 8.019
23.98000 8.803
24.00000 9.849
24.02000 2.532
24.04000 3.698
24.06000 3.535
24.08000 2.697
24.10000 1.391
24.12000 -0.376
24.14000 -0.720
24.16000 -0.157
24.18000 0.626
24.20000 -3.844
24.22000 -1.161
24.24000 1.437
24.26000 2.665
24.28000 4.385
24.30000 1.680
24.32000 -1.135
24.34000 0.944
24.36000 4.336
24.38000 -2.000
24.40000 -3.927
24.42000 -1.343
24.44000 5.601
24.46000 5.889
24.48000 4.847
24.50000 3.369
24.52000 5.410
24.54000 3.937
24.56000 2.905
24.58000 -2.276
24.60000 -2.929
24.62000 3.750
24.64000 2.237
24.66000 0.363
24.68000 4.747
24.70000 5.308
24.72000 1.123
24.74000 0.612
24.76000 2.191
24.78000 2.969
24.80000 0.231
24.82000 -3.910
24.84000 0.228
24.86000 3.324
24.88000 4.912
24.90000 7.979
24.92000 3.990
24.94000 1.369
24.96000 1.950
24.98000 3.400
25.00000 4.958
25.02000 4.931
25.04000 9.424
25.06000 8.888
25.08000 7.067
25.10000 0.414
25.12000 -3.763
25.14000 -1.142
25.16000 -2.849
25.18000 4.853
25.20000 6.439
25.22000 6.990
25.24000 1.687
25.26000 -1.413
25.28000 -2.266
25.30000 -2.931
25.32000 4.415
25.34000 6.709
25.36000 3.517
25.38000 -2.120
25.40000 -2.295
25.42000 5.060
25.44000 8.626
25.46000 3.043
25.48000 5.143
25.50000 5.964
25.52000 5.639
25.54000 -0.156
25.56000 0.250
25.58000 -2.436
25.60000 -2.602
25.62000 -3.592
25.64000 -2.380
25.66000 2.459
25.68000 -0.049
25.70000 -1.828
25.72000 -1.322
25.74000 2.485
25.76000 0.487
25.78000 -2.448
25.80000 2.059
25.82000 3.405
25.84000 -0.417
25.86000 2.184
25.88000 -1.721
25.90000 -3.582
25.92000 3.765
25.94000 1.903
25.96000 0.181
25.98000 -0.723
26.00000 3.893
26.02000 1.266
26.04000 -0.074
26.06000 0.739
26.08000 1.156
26.10000 3.508
26.12000 0.138
26.14000 -2.201
26.16000 1.179
26.18000 4.023
26.20000 3.106
26.22000 6.724
26.24000 9.456
26.26000 4.738
26.28000 6.425
26.30000 3.481
26.32000 4.672
26.34000 -1.249
26.36000 -0.510
26.38000 -3.821
26.40000 -1.157
26.42000 3.125
26.44000 0.219
26.46000 1.426
26.48000 5.851
26.50000 8.940
26.52000 7.320
26.54000 2.591
26.56000 4.586
26.58000 6.297
26.60000 8.468
26.62000 5.016
26.64000 3.161
26.66000 0.477
26.68000 3.516
26.70000 12.309
26.72000 9.859
26.74000 1.685
26.76000 -3.787
26.78000 5.405
26.80000 7.157
26.82000 2.156
26.84000 -0.504
26.86000 0.746
26.88000 5.171
26.90000 6.786
26.92000 2.547
26.94000 -1.418
26.96000 4.188
26.98000 7.922
27.00000 4.209
27.02000 5.587
27.04000 5.646
27.06000 1.099
27.08000 2.029
27.10000 3.758
27.12000 1.977
27.14000 1.252
27.16000 6.005
27.18000 5.384
27.20000 6.290
27.22000 6.780
27.24000 6.986
27.26000 5.827
27.28000 9.137
27.30000 3.765
27.32000 5.460
27.34000 3.353
27.36000 6.631
27.38000 6.701
27.40000 7.862
27.42000 7.392
27.44000 2.183
27.46000 -0.078
27.48000 1.919
27.50000 3.636
27.52000 4.733
27.54000 5.500
27.56000 5.964
27.58000 3.465
27.60000 -0.892
27.62000 -1.850
27.64000 0.741
27.66000 1.402
27.68000 0.651
27.70000 3.844
27.72000 -0.086
27.74000 2.476
27.76000 2.247
27.78000 4.783
27.80000 7.779
27.82000 12.378
27.84000 11.628
27.86000 11.803
27.88000 8.343
27.90000 -3.742
27.92000 -3.246
27.94000 -2.942
27.96000 4.135
27.98000 10.216
28.00000 15.361
28.02000 11.611
28.04000 5.221
28.06000 5.629
28.08000 1.625
28.10000 3.313
28.12000 6.575
28.14000 5.469
28.16000 1.459
28.18000 -1.099
28.20000 2.502
28.22000 6.577
28.24000 9.664
28.26000 6.602
28.28000 3.128
28.30000 5.908
28.32000 0.599
28.34000 -3.490
28.36000 -0.525
28.38000 0.813
28.40000 3.217
28.42000 0.521
28.44000 -1.847
28.46000 1.543
28.48000 2.000
28.50000 2.698
28.52000 2.650
28.54000 2.544
28.56000 6.364
28.58000 2.599
28.60000 -1.748
28.62000 1.900
28.64000 2.966
28.66000 1.610
28.68000 4.115
28.70000 4.683
28.72000 8.462
28.74000 3.052
28.76000 2.234
28.78000 2.974
28.80000 4.654
28.82000 0.784
28.84000 4.710
28.86000 10.893
28.88000 13.201
28.90000 7.750
28.92000 8.150
28.94000 8.047
28.96000 6.678
28.98000 9.611
29.00000 8.613
29.02000 5.408
29.04000 -3.655
29.06000 -1.299
29.08000 0.234
29.10000 -0.455
29.12000 3.443
29.14000 0.307
29.16000 1.436
29.18000 3.200
29.20000 3.027
29.22000 6.819
29.24000 8.906
29.26000 3.986
29.28000 5.093
29.30000 6.206
29.32000 4.769
29.34000 5.699
29.36000 4.853
29.38000 8.810
29.40000 8.121
29.42000 4.247
29.44000 1.821
29.46000 2.215
29.48000 2.738
29.50000 5.637
29.52000 5.403
29.54000 1.650
29.56000 0.159
29.58000 5.906
29.60000 2.254
29.62000 0.906
29.64000 1.861
29.66000 6.007
29.68000 2.998
29.70000 -1.105
29.72000 -0.662
29.74000 -3.650
29.76000 5.180
29.78000 11.123
29.80000 5.014
29.82000 5.026
29.84000 3.817
29.86000 7.039
29.88000 8.202
29.90000 9.909
29.92000 8.126
29.94000 2.937
29.96000 0.366
29.98000 0.668
30.00000 0.610
30.02000 -1.285
30.04000 -3.005
30.06000 1.380
30.08000 -1.001
30.10000 3.460
30.12000 4.636
30.14000 3.254
30.16000 6.823
30.18000 -0.134
30.20000 -2.490
30.22000 2.706
30.24000 6.047
30.26000 4.107
30.28000 0.770
30.30000 0.793
30.32000 1.411
30.34000 0.129
30.36000 2.640
30.38000 6.530
30.40000 7.819
30.42000 5.013
30.44000 2.270
30.46000 -1.065
30.48000 -3.633
30.50000 0.025
30.52000 5.286
30.54000 2.120
30.56000 -0.670
30.58000 3.823
30.60000 10.465
30.62000 9.928
30.64000 9.000
30.66000 4.243
30.68000 -3.472
30.70000 -2.291
30.72000 -0.088
30.74000 4.298
30.76000 8.975
30.78000 5.702
30.80000 2.635
30.82000 3.567
30.84000 1.077
30.86000 4.241
30.88000 6.599
30.90000 4.272
30.92000 1.659
30.94000 -0.471
30.96000 0.718
30.98000 3.501
31.00000 1.644
31.02000 1.415
31.04000 2.545
31.06000 6.691
31.08000 8.108
31.10000 5.817
31.12000 4.260
31.14000 5.626
31.16000 2.945
31.18000 -1.430
31.20000 -0.479
31.22000 3.830
31.24000 2.306
31.26000 -0.359
31.28000 -0.401
31.30000 -1.307
31.32000 0.949
31.34000 -3.583
31.36000 0.735
31.38000 7.822
31.40000 4.831
31.42000 -2.308
31.44000 -0.024
31.46000 5.877
31.48000 4.903
31.50000 5.573
31.52000 1.561
31.54000 7.747
31.56000 5.975
31.58000 0.727
31.60000 -3.572
31.62000 0.656
31.64000 0.721
31.66000 2.923
31.68000 2.830
31.70000 2.141
31.72000 2.164
31.74000 -2.181
31.76000 1.514
31.78000 3.531
31.80000 1.816
31.82000 -2.127
31.84000 -0.288
31.86000 6.286
31.88000 3.289
31.90000 -0.914
31.92000 3.103
31.94000 4.849
31.96000 1.103
31.98000 -0.943
32.00000 -0.809
32.02000 -2.552
32.04000 -3.419
32.06000 0.021
32.08000 4.270
32.10000 3.412
32.12000 0.499
32.14000 1.283
32.16000 3.067
32.18000 1.047
32.20000 2.016
32.22000 3.208
32.24000 7.852
32.26000 4.640
32.28000 -0.714
32.30000 -0.583
32.32000 1.842
32.34000 1.150
32.36000 3.288
32.38000 4.315
32.40000 2.053
32.42000 0.085
32.44000 0.048
32.46000 2.157
32.48000 5.587
32.50000 1.080
32.52000 -3.533
32.54000 4.226
32.56000 5.515
32.58000 6.026
32.60000 1.846
32.62000 2.695
32.64000 3.417
32.66000 2.440
32.68000 4.264
32.70000 2.457
32.72000 3.212
32.74000 1.486
32.76000 2.316
32.78000 2.975
32.80000 3.573
32.82000 8.716
32.84000 6.988
32.86000 1.718
32.88000 3.289
32.90000 -0.648
32.92000 -0.180
32.94000 4.256
32.96000 8.779
32.98000 4.267
33.00000 4.384
33.02000 -1.270
33.04000 -0.337
33.06000 2.796
33.08000 5.146
33.10000 9.120
33.12000 5.550
33.14000 -1.303
33.16000 1.022
33.18000 0.488
33.20000 -0.026
33.22000 -0.729
33.24000 6.671
33.26000 5.273
33.28000 3.314
33.30000 2.684
33.32000 1.954
33.34000 6.188
33.36000 4.283
33.38000 4.081
33.40000 5.193
33.42000 3.831
33.44000 0.310
33.46000 -3.515
33.48000 5.091
33.50000 8.224
33.52000 5.274
33.54000 1.355
33.56000 -3.252
33.58000 3.421
33.60000 3.474
33.62000 2.436
33.64000 0.503
33.66000 3.825
33.68000 3.396
33.70000 5.111
33.72000 5.501
33.74000 -0.165
33.76000 1.777
33.78000 4.379
33.80000 6.449
33.82000 2.568
33.84000 0.574
33.86000 2.659
33.88000 4.938
33.90000 8.442
33.92000 8.621
33.94000 4.553
33.96000 8.052
33.98000 8.556
34.00000 5.495
34.02000 2.440
34.04000 2.998
34.06000 5.326
34.08000 4.298
34.10000 8.091
34.12000 5.653
34.14000 7.961
34.16000 10.954
34.18000 2.141
34.20000 1.807
34.22000 1.937
34.24000 -0.626
34.26000 -1.162
34.28000 5.606
34.30000 5.191
34.32000 2.229
34.34000 3.383
34.36000 1.963
34.38000 4.200
34.40000 8.722
34.42000 3.637
34.44000 5.819
34.46000 3.857
34.48000 1.806
34.50000 3.920
34.52000 5.991
34.54000 7.726
34.56000 5.090
34.58000 4.221
34.60000 1.690
34.62000 4.451
34.64000 10.242
34.66000 8.654
34.68000 2.653
34.70000 -3.491
34.72000 -0.278
34.74000 2.522
34.76000 2.463
34.78000 1.396
34.80000 7.076
34.82000 7.258
34.84000 7.111
34.86000 2.815
34.88000 -0.332
34.90000 -0.233
34.92000 -0.555
34.94000 1.074
34.96000 3.406
34.98000 1.993
35.00000 5.871
35.02000 2.227
35.04000 0.727
35.06000 2.718
35.08000 7.916
35.10000 7.338
35.12000 3.346
35.14000 3.748
35.16000 2.432
35.18000 0.714
35.20000 0.389
35.22000 4.979
35.24000 1.629
35.26000 2.636
35.28000 5.352
35.30000 3.525
35.32000 4.199
35.34000 4.904
35.36000 4.223
35.38000 6.289
35.40000 4.503
35.42000 2.896
35.44000 0.516
35.46000 5.796
35.48000 2.572
35.50000 2.645
35.52000 2.968
35.54000 -3.461
35.56000 -0.263
35.58000 6.070
35.60000 3.052
35.62000 1.589
35.64000 3.777
35.66000 6.968
35.68000 7.090
35.70000 7.659
35.72000 9.605
35.74000 4.718
35.76000 4.137
35.78000 4.704
35.80000 4.806
35.82000 5.611
35.84000 1.032
35.86000 6.806
35.88000 8.369
35.90000 6.511
35.92000 9.851
35.94000 13.144
35.96000 9.036
35.98000 5.106
36.00000 -1.222
36.02000 -0.049
36.04000 2.760
36.06000 2.609
36.08000 0.572
36.10000 -3.481
36.12000 5.045
36.14000 9.395
36.16000 4.840
36.18000 0.128
36.20000 3.193
36.22000 4.226
36.24000 1.693
36.26000 2.136
36.28000 5.247
36.30000 4.082
36.32000 1.674
36.34000 1.277
36.36000 1.492
36.38000 0.272
36.40000 -3.184
36.42000 -0.409
36.44000 2.883
36.46000 2.651
36.48000 -0.293
36.50000 -0.612
36.52000 1.691
36.54000 1.346
36.56000 2.150
36.58000 -1.521
36.60000 2.174
36.62000 1.203
36.64000 0.716
36.66000 -2.114
36.68000 -0.077
36.70000 4.280
36.72000 0.022
36.74000 -2.129
36.76000 -1.377
36.78000 -1.552
36.80000 -1.426
36.82000 -0.382
36.84000 -1.630
36.86000 3.108
36.88000 2.473
36.90000 4.177
36.92000 0.408
36.94000 -1.942
36.96000 0.305
36.98000 -0.807
37.00000 2.577
37.02000 3.330
37.04000 -0.206
37.06000 -3.589
37.08000 0.933
37.10000 -1.196
37.12000 3.923
37.14000 5.345
37.16000 2.156
37.18000 0.704
37.20000 0.739
37.22000 3.398
37.24000 6.178
37.26000 0.077
37.28000 -1.921
37.30000 -1.836
37.32000 0.204
37.34000 -1.316
37.36000 -2.129
37.38000 0.882
37.40000 4.360
37.42000 3.086
37.44000 0.081
37.46000 -1.583
37.48000 4.228
37.50000 1.146
37.52000 0.862
37.54000 0.673
37.56000 1.224
37.58000 3.118
37.60000 -0.141
37.62000 2.461
37.64000 3.249
37.66000 8.361
37.68000 4.985
37.70000 9.771
37.72000 6.119
37.74000 7.115
37.76000 6.221
37.78000 3.954
37.80000 3.897
37.82000 5.765
37.84000 5.979
37.86000 5.800
37.88000 5.191
37.90000 10.699
37.92000 11.290
37.94000 9.339
37.96000 9.102
37.98000 5.116
38.00000 9.603
38.02000 9.585
38.04000 11.426
38.06000 12.722
38.08000 13.854
38.10000 11.931
38.12000 14.321
38.14000 15.189
38.16000 19.644
38.18000 16.060
38.20000 15.136
38.22000 24.376
38.24000 24.161
38.26000 20.292
38.28000 20.162
38.30000 21.755
38.32000 18.890
38.34000 19.341
38.36000 21.703
38.38000 25.953
38.40000 26.191
38.42000 29.918
38.44000 24.796
38.46000 25.397
38.48000 28.938
38.50000 26.057
38.52000 28.348
38.54000 35.366
38.56000 32.433
38.58000 36.330
38.60000 42.117
38.62000 39.604
38.64000 44.083
38.66000 44.555
38.68000 43.033
38.70000 46.098
38.72000 52.032
38.74000 54.208
38.76000 51.643
38.78000 51.049
38.80000 50.969
38.82000 52.405
38.84000 57.112
38.86000 58.859
38.88000 62.851
38.90000 69.223
38.92000 72.733
38.94000 72.215
38.96000 72.330
38.98000 80.064
39.00000 86.394
39.02000 88.214
39.04000 92.265
39.06000 98.466
39.08000 108.627
39.10000 114.009
39.12000 115.602
39.14000 125.025
39.16000 126.132
39.18000 134.356
39.20000 143.654
39.22000 151.409
39.24000 161.006
39.26000 175.835
39.28000 181.083
39.30000 189.753
39.32000 194.768
39.34000 208.669
39.36000 224.109
39.38000 237.503
39.40000 247.687
39.42000 264.936
39.44000 283.150
39.46000 297.673
39.48000 315.726
39.50000 337.834
39.52000 354.176
39.54000 371.177
39.56000 396.140
39.58000 421.882
39.60000 442.018
39.62000 466.457
39.64000 482.453
39.66000 510.552
39.68000 533.791
39.70000 562.858
39.72000 578.991
39.74000 605.632
39.76000 608.570
39.78000 640.024
39.80000 657.691
39.82000 675.205
39.84000 702.168
39.86000 716.553
39.88000 728.247
39.90000 721.968
39.92000 718.633
39.94000 715.621
39.96000 724.362
39.98000 721.264
40.00000 706.130
40.02000 703.015
40.04000 690.993
40.06000 679.650
40.08000 667.866
40.10000 654.505
40.12000 644.318
40.14000 620.153
40.16000 594.101
40.18000 567.895
40.20000 550.868
40.22000 526.814
40.24000 506.893
40.26000 486.839
40.28000 456.519
40.30000 422.982
40.32000 402.076
40.34000 388.608
40.36000 370.679
40.38000 354.100
40.40000 325.642
40.42000 297.077
40.44000 283.384
40.46000 271.813
40.48000 256.321
40.50000 235.002
40.52000 221.609
40.54000 200.841
40.56000 190.634
40.58000 184.374
40.60000 175.152
40.62000 167.253
40.64000 155.974
40.66000 140.251
40.68000 128.913
40.70000 119.406
40.72000 111.003
40.74000 106.603
40.76000 108.402
40.78000 101.803
40.80000 93.339
40.82000 87.514
40.84000 87.456
40.86000 77.844
40.88000 75.541
40.90000 67.698
40.92000 61.330
40.94000 55.735
40.96000 55.239
40.98000 60.271
41.00000 53.379
41.02000 44.930
41.04000 36.841
41.06000 41.472
41.08000 40.177
41.10000 38.469
41.12000 36.007
41.14000 33.212
41.16000 32.832
41.18000 31.125
41.20000 33.148
41.22000 29.557
41.24000 31.638
41.26000 30.391
41.28000 28.750
41.30000 22.939
41.32000 20.424
41.34000 28.956
41.36000 23.627
41.38000 20.870
41.40000 18.493
41.42000 17.463
41.44000 15.079
41.46000 15.901
41.48000 14.074
41.50000 8.868
41.52000 10.029
41.54000 15.365
41.56000 14.762
41.58000 12.036
41.60000 8.400
41.62000 6.074
41.64000 6.632
41.66000 7.584
41.68000 6.780
41.70000 6.795
41.72000 10.390
41.74000 7.089
41.76000 2.979
41.78000 3.870
41.80000 5.192
41.82000 3.285
41.84000 4.819
41.86000 2.413
41.88000 1.877
41.90000 4.519
41.92000 3.444
41.94000 1.273
41.96000 1.218
41.98000 3.446
42.00000 -3.454
42.02000 -3.394
42.04000 -2.551
42.06000 1.170
42.08000 1.183
42.10000 4.248
42.12000 2.295
42.14000 2.272
42.16000 1.855
42.18000 -2.075
42.20000 -2.656
42.22000 0.149
42.24000 0.932
42.26000 -2.699
42.28000 -2.230
42.30000 -1.243
42.32000 -0.924
42.34000 -0.470
42.36000 1.692
42.38000 -0.815
42.40000 -0.825
42.42000 0.874
42.44000 0.488
42.46000 -0.589
42.48000 0.733
42.50000 2.171
42.52000 -0.651
42.54000 0.007
42.56000 0.277
42.58000 2.439
42.60000 1.905
42.62000 1.250
42.64000 -1.663
42.66000 -3.338
42.68000 -0.040
42.70000 2.688
42.72000 1.285
42.74000 1.741
42.76000 0.692
42.78000 -1.666
42.80000 -3.313
42.82000 -0.642
42.84000 0.451
42.86000 1.628
42.88000 3.149
42.90000 -0.755
42.92000 2.608
42.94000 3.034
42.96000 0.138
42.98000 -0.795
43.00000 -0.889
43.02000 1.096
43.04000 1.502
43.06000 3.369
43.08000 -2.961
43.10000 -3.267
43.12000 3.385
43.14000 7.513
43.16000 2.253
43.18000 -2.956
43.20000 1.013
43.22000 0.655
43.24000 -2.411
43.26000 1.474
43.28000 0.052
43.30000 1.309
43.32000 -2.643
43.34000 -0.820
43.36000 0.082
43.38000 0.274
43.40000 0.911
43.42000 -1.367
43.44000 -3.232
43.46000 -0.103
43.48000 -1.990
43.50000 0.324
43.52000 -0.114
43.54000 0.001
43.56000 -1.174
43.58000 -1.251
43.60000 -2.703
43.62000 -0.101
43.64000 -0.119
43.66000 1.399
43.68000 -0.605
43.70000 -2.500
43.72000 -1.264
43.74000 1.479
43.76000 1.689
43.78000 -0.838
43.80000 -2.214
43.82000 -3.202
43.84000 0.963
43.86000 3.201
43.88000 4.972
43.90000 2.287
43.92000 -1.060
43.94000 -1.175
43.96000 0.759
43.98000 -0.366
44.00000 -2.453
44.02000 0.876
44.04000 -0.758
44.06000 -1.711
44.08000 -0.503
44.10000 0.579
44.12000 1.511
44.14000 0.164
44.16000 0.101
44.18000 -1.774
44.20000 3.978
44.22000 2.262
44.24000 -3.171
44.26000 -0.458
44.28000 0.302
44.30000 0.204
44.32000 1.482
44.34000 0.855
44.36000 -0.544
44.38000 -1.311
44.40000 1.269
44.42000 0.384
44.44000 -0.637
44.46000 2.236
44.48000 2.080
44.50000 -1.549
44.52000 -1.219
44.54000 1.559
44.56000 -0.817
44.58000 -2.497
44.60000 -0.258
44.62000 0.755
44.64000 1.932
44.66000 1.428
44.68000 2.741
44.70000 -2.466
44.72000 -3.146
44.74000 0.174
44.76000 7.228
44.78000 7.225
44.80000 3.710
44.82000 0.621
44.84000 0.220
44.86000 -1.042
44.88000 -1.531
44.90000 -1.635
44.92000 1.815
44.94000 1.902
44.96000 1.948
44.98000 6.503
45.00000 7.690
45.02000 3.638
45.04000 6.537
45.06000 6.794
45.08000 4.894
45.10000 1.924
45.12000 1.171
45.14000 2.521
45.16000 7.165
45.18000 6.630
45.20000 2.735
45.22000 7.170
45.24000 9.410
45.26000 5.409
45.28000 4.897
45.30000 3.627
45.32000 4.329
45.34000 3.372
45.36000 7.780
45.38000 7.711
45.40000 10.188
45.42000 7.930
45.44000 6.660
45.46000 9.501
45.48000 11.568
45.50000 8.232
45.52000 11.922
45.54000 12.691
45.56000 15.356
45.58000 17.462
45.60000 17.206
45.62000 13.483
45.64000 13.567
45.66000 18.820
45.68000 17.299
45.70000 15.097
45.72000 16.903
45.74000 20.677
45.76000 16.122
45.78000 17.582
45.80000 23.646
45.82000 24.937
45.84000 22.161
45.86000 27.152
45.88000 31.073
45.90000 30.341
45.92000 30.062
45.94000 35.208
45.96000 34.728
45.98000 37.234
46.00000 32.780
46.02000 30.928
46.04000 38.203
46.06000 39.895
46.08000 36.360
46.10000 44.494
46.12000 45.326
46.14000 45.113
46.16000 47.672
46.18000 48.799
46.20000 47.746
46.22000 54.157
46.24000 56.025
46.26000 57.950
46.28000 59.062
46.30000 58.534
46.32000 61.156
46.34000 63.478
46.36000 67.923
46.38000 71.691
46.40000 70.361
46.42000 68.871
46.44000 69.333
46.46000 70.074
46.48000 75.112
46.50000 76.274
46.52000 75.882
46.54000 76.956
46.56000 76.947
46.58000 81.943
46.60000 78.445
46.62000 79.715
46.64000 79.119
46.66000 77.544
46.68000 77.326
46.70000 80.048
46.72000 81.278
46.74000 79.522
46.76000 78.797
46.78000 75.690
46.80000 76.067
46.82000 72.615
46.84000 74.241
46.86000 74.371
46.88000 71.525
46.90000 67.974
46.92000 65.674
46.94000 65.300
46.96000 63.545
46.98000 60.492
47.00000 58.096
47.02000 53.307
47.04000 54.391
47.06000 56.743
47.08000 57.062
47.10000 54.603
47.12000 53.349
47.14000 47.939
47.16000 43.438
47.18000 43.780
47.20000 37.151
47.22000 33.202
47.24000 30.371
47.26000 27.540
47.28000 24.905
47.30000 23.703
47.32000 25.576
47.34000 25.567
47.36000 25.071
47.38000 24.458
47.40000 23.833
47.42000 16.978
47.44000 17.718
47.46000 18.343
47.48000 18.243
47.50000 18.892
47.52000 20.313
47.54000 16.683
47.56000 12.159
47.58000 13.359
47.60000 15.650
47.62000 16.916
47.64000 15.765
47.66000 10.359
47.68000 8.020
47.70000 7.308
47.72000 7.033
47.74000 8.736
47.76000 7.623
47.78000 9.094
47.80000 6.593
47.82000 2.369
47.84000 5.166
47.86000 5.260
47.88000 3.731
47.90000 1.858
47.92000 2.353
47.94000 3.955
47.96000 0.977
47.98000 0.012
48.00000 -0.932
48.02000 3.589
48.04000 4.957
48.06000 4.060
48.08000 3.590
48.10000 3.082
48.12000 1.671
48.14000 -0.120
48.16000 4.943
48.18000 5.376
48.20000 5.287
48.22000 -2.760
48.24000 -0.424
48.26000 4.594
48.28000 6.230
48.30000 4.365
48.32000 7.505
48.34000 3.807
48.36000 0.914
48.38000 1.953
48.40000 5.460
48.42000 2.650
48.44000 -0.940
48.46000 -2.483
48.48000 -1.167
48.50000 3.206
48.52000 3.536
48.54000 1.207
48.56000 2.416
48.58000 5.894
48.60000 3.274
48.62000 3.168
48.64000 0.036
48.66000 2.146
48.68000 2.170
48.70000 -0.439
48.72000 -1.646
48.74000 1.015
48.76000 0.140
48.78000 0.749
48.80000 0.062
48.82000 -0.502
48.84000 4.022
48.86000 1.750
48.88000 3.681
48.90000 3.666
48.92000 4.790
48.94000 2.244
48.96000 1.204
48.98000 1.527
49.00000 0.649
49.02000 -2.664
49.04000 2.299
49.06000 1.591
49.08000 1.640
49.10000 4.368
49.12000 7.659
49.14000 4.261
49.16000 3.727
49.18000 2.335
49.20000 0.750
49.22000 -1.217
49.24000 1.063
49.26000 1.863
49.28000 3.228
49.30000 3.052
49.32000 1.113
49.34000 2.531
49.36000 2.574
49.38000 -1.552
49.40000 0.223
49.42000 1.694
49.44000 5.915
49.46000 5.701
49.48000 1.211
49.50000 2.969
49.52000 1.809
49.54000 0.428
49.56000 -0.462
49.58000 0.156
49.60000 -2.653
49.62000 -0.418
49.64000 -1.671
49.66000 -0.167
49.68000 3.784
49.70000 2.252
49.72000 6.012
49.74000 4.004
49.76000 1.944
49.78000 0.873
49.80000 4.823
49.82000 0.731
49.84000 -0.779
49.86000 1.934
49.88000 1.402
49.90000 -2.420
49.92000 -1.594
49.94000 1.677
49.96000 4.565
49.98000 2.168
50.00000 0.436
50.02000 -0.674
50.04000 -0.776
50.06000 -0.288
50.08000 1.392
50.10000 -1.813
50.12000 0.683
50.14000 3.861
50.16000 4.228
50.18000 3.856
50.20000 -0.911
50.22000 -1.809
50.24000 -1.115
50.26000 2.677
50.28000 -1.251
50.30000 -2.619
50.32000 -0.230
50.34000 0.247
50.36000 -1.621
50.38000 -1.882
50.40000 1.582
50.42000 0.861
50.44000 2.482
50.46000 4.111
50.48000 1.783
50.50000 1.947
50.52000 5.679
50.54000 1.753
50.56000 1.055
50.58000 1.174
50.60000 3.815
50.62000 4.416
50.64000 3.973
50.66000 2.773
50.68000 0.779
50.70000 6.124
50.72000 1.626
50.74000 2.662
50.76000 2.642
50.78000 5.456
50.80000 2.870
50.82000 1.990
50.84000 3.377
50.86000 4.893
50.88000 3.535
50.90000 -0.768
50.92000 -0.125
50.94000 3.076
50.96000 4.571
50.98000 4.553
51.00000 1.513
51.02000 -1.811
51.04000 4.611
51.06000 5.143
51.08000 -1.334
51.10000 3.601
51.12000 7.723
51.14000 5.509
51.16000 6.513
51.18000 1.989
51.20000 3.764
51.22000 0.550
51.24000 2.868
51.26000 5.309
51.28000 3.115
51.30000 6.857
51.32000 7.723
51.34000 7.726
51.36000 7.134
51.38000 6.625
51.40000 5.781
51.42000 7.955
51.44000 5.829
51.46000 2.203
51.48000 -2.496
51.50000 -2.404
51.52000 2.420
51.54000 2.556
51.56000 4.951
51.58000 2.949
51.60000 5.442
51.62000 6.016
51.64000 5.114
51.66000 5.288
51.68000 2.862
51.70000 4.059
51.72000 6.183
51.74000 5.269
51.76000 4.982
51.78000 6.352
51.80000 8.381
51.82000 7.855
51.84000 6.922
51.86000 6.193
51.88000 2.784
51.90000 4.625
51.92000 0.412
51.94000 2.062
51.96000 3.127
51.98000 2.376
52.00000 4.720
52.02000 5.067
52.04000 5.399
52.06000 1.730
52.08000 2.511
52.10000 4.684
52.12000 2.019
52.14000 2.003
52.16000 6.421
52.18000 4.521
52.20000 4.710
52.22000 5.956
52.24000 4.575
52.26000 7.398
52.28000 5.913
52.30000 2.114
52.32000 2.627
52.34000 9.084
52.36000 6.072
52.38000 3.210
52.40000 1.135
52.42000 4.302
52.44000 2.627
52.46000 0.879
52.48000 0.541
52.50000 1.651
52.52000 0.962
52.54000 -1.288
52.56000 1.622
52.58000 6.459
52.60000 3.474
52.62000 1.348
52.64000 5.687
52.66000 2.429
52.68000 1.015
52.70000 1.770
52.72000 0.391
52.74000 1.604
52.76000 3.000
52.78000 4.571
52.80000 1.919
52.82000 6.842
52.84000 8.586
52.86000 3.616
52.88000 4.034
52.90000 3.157
52.92000 3.695
52.94000 3.222
52.96000 0.450
52.98000 2.401
53.00000 0.806
53.02000 3.073
53.04000 2.247
53.06000 3.724
53.08000 5.986
53.10000 7.756
53.12000 8.620
53.14000 11.670
53.16000 11.238
53.18000 5.133
53.20000 4.216
53.22000 8.556
53.24000 3.871
53.26000 5.463
53.28000 5.522
53.30000 5.083
53.32000 4.049
53.34000 4.662
53.36000 5.724
53.38000 5.169
53.40000 6.959
53.42000 8.713
53.44000 5.470
53.46000 7.540
53.48000 2.989
53.50000 3.323
53.52000 4.079
53.54000 3.398
53.56000 6.156
53.58000 6.461
53.60000 5.374
53.62000 5.612
53.64000 2.785
53.66000 2.992
53.68000 10.382
53.70000 8.929
53.72000 5.106
53.74000 0.497
53.76000 -2.431
53.78000 3.686
53.80000 7.185
53.82000 10.313
53.84000 8.877
53.86000 6.381
53.88000 5.768
53.90000 6.401
53.92000 4.793
53.94000 5.266
53.96000 5.761
53.98000 4.932
54.00000 5.475
54.02000 2.438
54.04000 3.611
54.06000 1.159
54.08000 3.506
54.10000 6.398
54.12000 7.906
54.14000 5.425
54.16000 8.227
54.18000 1.947
54.20000 3.804
54.22000 3.346
54.24000 0.616
54.26000 2.986
54.28000 4.731
54.30000 1.515
54.32000 0.263
54.34000 -0.829
54.36000 -2.458
54.38000 -2.458
54.40000 0.867
54.42000 3.304
54.44000 0.752
54.46000 4.550
54.48000 2.622
54.50000 0.314
54.52000 4.424
54.54000 1.635
54.56000 3.428
54.58000 8.362
54.60000 6.525
54.62000 6.207
54.64000 6.419
54.66000 5.054
54.68000 2.461
54.70000 3.970
54.72000 3.975
54.74000 0.822
54.76000 0.390
54.78000 1.122
54.80000 4.118
54.82000 2.196
54.84000 0.889
54.86000 0.845
54.88000 1.099
54.90000 0.994
54.92000 1.946
54.94000 2.559
54.96000 2.845
54.98000 4.814
55.00000 0.342
55.02000 1.328
55.04000 1.117
55.06000 1.869
55.08000 6.551
55.10000 4.915
55.12000 3.740
55.14000 4.280
55.16000 2.016
55.18000 2.286
55.20000 0.662
55.22000 -0.518
55.24000 1.047
55.26000 5.942
55.28000 5.964
55.30000 3.077
55.32000 2.115
55.34000 6.410
55.36000 3.586
55.38000 5.636
55.40000 6.374
55.42000 0.971
55.44000 1.912
55.46000 1.758
55.48000 3.789
55.50000 3.845
55.52000 2.522
55.54000 1.101
55.56000 0.321
55.58000 3.122
55.60000 -1.726
55.62000 -1.375
55.64000 2.520
55.66000 4.050
55.68000 5.306
55.70000 4.365
55.72000 4.121
55.74000 -2.438
55.76000 1.162
55.78000 3.899
55.80000 1.605
55.82000 0.015
55.84000 1.927
55.86000 2.495
55.88000 -0.688
55.90000 1.726
55.92000 3.075
55.94000 4.538
55.96000 -0.757
55.98000 -1.885
56.00000 1.533
56.02000 2.236
56.04000 1.935
56.06000 1.165
56.08000 4.609
56.10000 3.632
56.12000 2.463
56.14000 3.115
56.16000 4.045
56.18000 1.346
56.20000 3.545
56.22000 2.860
56.24000 0.235
56.26000 2.201
56.28000 2.256
56.30000 2.983
56.32000 4.091
56.34000 4.390
56.36000 1.240
56.38000 1.027
56.40000 -1.495
56.42000 0.553
56.44000 -0.818
56.46000 -1.828
56.48000 0.125
56.50000 1.370
56.52000 1.084
56.54000 -1.573
56.56000 -2.446
56.58000 -0.604
56.60000 2.002
56.62000 0.294
56.64000 -1.747
56.66000 -0.923
56.68000 0.859
56.70000 1.004
56.72000 1.967
56.74000 1.873
56.76000 5.571
56.78000 1.564
56.80000 0.116
56.82000 2.338
56.84000 4.322
56.86000 3.368
56.88000 3.436
56.90000 2.124
56.92000 0.011
56.94000 2.275
56.96000 4.178
56.98000 1.708
57.00000 1.472
57.02000 3.503
57.04000 2.820
57.06000 -0.538
57.08000 4.095
57.10000 0.259
57.12000 -0.023
57.14000 0.545
57.16000 1.651
57.18000 -1.876
57.20000 -2.318
57.22000 -1.542
57.24000 -2.238
57.26000 -1.985
57.28000 -0.206
57.30000 -0.254
57.32000 1.029
57.34000 3.261
57.36000 5.557
57.38000 3.160
57.40000 -1.899
57.42000 0.409
57.44000 -1.129
57.46000 -2.422
57.48000 -2.015
57.50000 -2.186
57.52000 -2.220
57.54000 1.492
57.56000 -1.647
57.58000 -0.502
57.60000 2.068
57.62000 0.323
57.64000 0.765
57.66000 4.154
57.68000 -0.341
57.70000 1.867
57.72000 1.296
57.74000 -2.411
57.76000 1.123
57.78000 3.437
57.80000 1.154
57.82000 1.472
57.84000 0.260
57.86000 0.292
57.88000 1.135
57.90000 -0.443
57.92000 -0.066
57.94000 -2.416
57.96000 -1.100
57.98000 4.305
58.00000 -1.150
58.02000 -2.181
58.04000 -0.528
58.06000 1.632
58.08000 0.254
58.10000 0.435
58.12000 -1.362
58.14000 0.872
58.16000 -1.667
58.18000 -0.557
58.20000 -0.934
58.22000 1.049
58.24000 0.585
58.26000 -1.355
58.28000 -1.882
58.30000 -1.376
58.32000 0.535
58.34000 1.289
58.36000 1.615
58.38000 -1.457
58.40000 2.583
58.42000 0.938
58.44000 3.483
58.46000 1.540
58.48000 0.890
58.50000 -0.193
58.52000 0.598
58.54000 -1.610
58.56000 0.788
58.58000 -0.469
58.60000 2.066
58.62000 -0.598
58.64000 2.008
58.66000 2.348
58.68000 0.362
58.70000 -1.231
58.72000 -1.052
58.74000 -2.387
58.76000 0.741
58.78000 1.861
58.80000 2.417
58.82000 2.963
58.84000 -0.254
58.86000 5.405
58.88000 3.720
58.90000 0.093
58.92000 0.746
58.94000 -0.840
58.96000 -0.394
58.98000 1.778
59.00000 3.895
59.02000 3.217
59.04000 -0.464
59.06000 0.715
59.08000 -1.466
59.10000 -0.174
59.12000 0.119
59.14000 0.189
59.16000 -0.340
59.18000 0.097
59.20000 2.007
59.22000 -2.317
59.24000 -2.359
59.26000 4.602
59.28000 2.988
59.30000 1.930
59.32000 -1.176
59.34000 1.982
59.36000 0.259
59.38000 4.672
59.40000 3.837
59.42000 1.164
59.44000 -2.181
59.46000 2.093
59.48000 2.158
59.50000 3.066
59.52000 -0.087
59.54000 0.973
59.56000 1.700
59.58000 2.733
59.60000 8.208
59.62000 7.433
59.64000 4.841
59.66000 3.906
59.68000 3.143
59.70000 4.150
59.72000 2.561
59.74000 0.140
59.76000 2.151
59.78000 1.225
59.80000 -0.911
59.82000 -2.329
59.84000 -0.114
59.86000 0.128
59.88000 2.406
59.90000 1.895
59.92000 1.604
59.94000 3.575
59.96000 2.719
59.98000 1.622
60.00000 -0.593
60.02000 2.900
60.04000 2.645
60.06000 -0.900
60.08000 2.070
60.10000 3.500
60.12000 2.105
60.14000 0.326
60.16000 2.363
60.18000 2.074
60.20000 1.947
60.22000 3.108
60.24000 2.484
60.26000 1.564
60.28000 0.840
60.30000 3.895
60.32000 -0.356
60.34000 -2.309
60.36000 -0.483
60.38000 -1.053
60.40000 -0.950
60.42000 0.582
60.44000 0.229
60.46000 1.769
60.48000 3.333
60.50000 3.246
60.52000 4.498
60.54000 1.950
60.56000 -0.176
60.58000 0.045
60.60000 1.186
60.62000 2.531
60.64000 2.392
60.66000 1.611
60.68000 1.719
60.70000 3.978
60.72000 2.967
60.74000 2.127
60.76000 2.599
60.78000 0.979
60.80000 2.050
60.82000 -1.104
60.84000 1.740
60.86000 5.296
60.88000 2.918
60.90000 -0.079
60.92000 -0.997
60.94000 -0.756
60.96000 -1.239
60.98000 0.809
61.00000 0.747
61.02000 -0.057
61.04000 0.741
61.06000 4.130
61.08000 5.944
61.10000 5.406
61.12000 -0.828
61.14000 -2.303
61.16000 -1.558
61.18000 3.124
61.20000 3.629
61.22000 3.044
61.24000 1.423
61.26000 1.822
61.28000 -0.643
61.30000 -0.206
61.32000 1.284
61.34000 4.113
61.36000 3.527
61.38000 4.668
61.40000 3.987
61.42000 4.479
61.44000 4.163
61.46000 2.425
61.48000 1.615
61.50000 3.808
61.52000 3.258
61.54000 2.689
61.56000 1.215
61.58000 -0.357
61.60000 4.217
61.62000 1.102
61.64000 1.604
61.66000 2.036
61.68000 -0.057
61.70000 0.368
61.72000 -0.265
61.74000 0.361
61.76000 1.982
61.78000 -0.542
61.80000 -2.262
61.82000 1.259
61.84000 3.593
61.86000 1.754
61.88000 4.681
61.90000 2.244
61.92000 1.972
61.94000 1.074
61.96000 2.770
61.98000 5.464
62.00000 4.592
62.02000 1.434
62.04000 -1.537
62.06000 2.545
62.08000 1.730
62.10000 -0.001
62.12000 -2.258
62.14000 -1.589
62.16000 2.093
62.18000 0.828
62.20000 0.578
62.22000 1.076
62.24000 -1.976
62.26000 0.608
62.28000 0.576
62.30000 -1.721
62.32000 -0.487
62.34000 1.901
62.36000 3.244
62.38000 0.086
62.40000 1.837
62.42000 2.501
62.44000 0.275
62.46000 -0.376
62.48000 -0.929
62.50000 0.010
62.52000 -0.534
62.54000 -0.443
62.56000 1.471
62.58000 2.647
62.60000 4.169
62.62000 5.344
62.64000 2.362
62.66000 2.066
62.68000 1.303
62.70000 1.816
62.72000 -1.218
62.74000 -1.890
62.76000 -1.321
62.78000 -1.453
62.80000 2.246
62.82000 5.827
62.84000 2.128
62.86000 -0.387
62.88000 2.476
62.90000 -0.003
62.92000 3.459
62.94000 4.516
62.96000 2.325
62.98000 1.032
63.00000 1.486
63.02000 0.765
63.04000 1.437
63.06000 2.514
63.08000 -0.416
63.10000 0.396
63.12000 2.480
63.14000 0.707
63.16000 0.620
63.18000 0.415
63.20000 -0.719
63.22000 -2.248
63.24000 0.473
63.26000 3.651
63.28000 3.215
63.30000 3.509
63.32000 3.290
63.34000 4.135
63.36000 4.832
63.38000 1.262
63.40000 2.430
63.42000 -0.579
63.44000 -2.195
63.46000 -1.454
63.48000 1.038
63.50000 1.904
63.52000 3.671
63.54000 2.486
63.56000 -1.776
63.58000 -1.497
63.60000 -0.619
63.62000 -0.764
63.64000 0.070
63.66000 -1.542
63.68000 -1.481
63.70000 1.194
63.72000 -1.343
63.74000 0.230
63.76000 0.786
63.78000 0.534
63.80000 -0.662
63.82000 0.469
63.84000 0.096
63.86000 4.620
63.88000 3.015
63.90000 1.889
63.92000 -1.201
63.94000 1.207
63.96000 3.326
63.98000 1.969
64.00000 4.247
64.02000 0.300
64.04000 1.490
64.06000 -1.778
64.08000 -1.702
64.10000 1.159
64.12000 0.690
64.14000 -1.256
64.16000 -2.279
64.18000 -1.302
64.20000 0.612
64.22000 -0.322
64.24000 0.395
64.26000 1.261
64.28000 1.144
64.30000 3.125
64.32000 0.851
64.34000 0.559
64.36000 0.402
64.38000 0.724
64.40000 2.000
64.42000 1.024
64.44000 3.953
64.46000 1.522
64.48000 1.177
64.50000 -0.652
64.52000 0.492
64.54000 3.641
64.56000 1.222
64.58000 2.180
64.60000 2.149
64.62000 1.215
64.64000 0.432
64.66000 -1.947
64.68000 -0.301
64.70000 -0.381
64.72000 1.729
64.74000 0.764
64.76000 -0.680
64.78000 -0.507
64.80000 0.845
64.82000 -0.550
64.84000 -1.523
64.86000 -1.863
64.88000 -2.288
64.90000 0.015
64.92000 1.948
64.94000 2.759
64.96000 -0.258
64.98000 0.843
65.00000 -0.001
65.02000 -1.363
65.04000 -0.287
65.06000 3.431
65.08000 1.136
65.10000 0.669
65.12000 0.028
65.14000 -0.641
65.16000 -0.892
65.18000 0.241
65.20000 2.765
65.22000 2.293
65.24000 0.745
65.26000 -0.312
65.28000 -1.508
65.30000 1.206
65.32000 1.238
65.34000 -0.497
65.36000 1.542
65.38000 2.274
65.40000 1.194
65.42000 -1.523
65.44000 0.819
65.46000 0.810
65.48000 1.319
65.50000 0.696
65.52000 0.057
65.54000 2.243
65.56000 1.437
65.58000 2.296
65.60000 3.831
65.62000 1.587
65.64000 -0.144
65.66000 1.893
65.68000 -0.325
65.70000 0.951
65.72000 -2.309
65.74000 0.300
65.76000 2.826
65.78000 -0.296
65.80000 -1.736
65.82000 -1.781
65.84000 -1.656
65.86000 -0.871
65.88000 0.018
65.90000 1.908
65.92000 1.901
65.94000 2.708
65.96000 0.163
65.98000 -0.772
66.00000 0.558
66.02000 -1.875
66.04000 0.801
66.06000 2.216
66.08000 0.890
66.10000 0.465
66.12000 0.930
66.14000 1.554
66.16000 -2.313
66.18000 1.527
66.20000 0.042
66.22000 0.045
66.24000 0.597
66.26000 1.423
66.28000 0.381
66.30000 -0.820
66.32000 -1.509
66.34000 -0.786
66.36000 1.948
66.38000 -0.390
66.40000 -0.022
66.42000 -0.262
66.44000 -2.323
66.46000 -0.890
66.48000 -0.217
66.50000 1.034
66.52000 -0.059
66.54000 -1.230
66.56000 0.348
66.58000 0.691
66.60000 2.287
66.62000 1.451
66.64000 -1.841
66.66000 -1.229
66.68000 0.806
66.70000 3.128
66.72000 2.304
66.74000 1.814
66.76000 1.193
66.78000 3.393
66.80000 4.908
66.82000 2.530
66.84000 1.769
66.86000 2.040
66.88000 2.314
66.90000 0.950
66.92000 0.165
66.94000 -0.503
66.96000 1.760
66.98000 2.442
67.00000 4.123
67.02000 4.267
67.04000 6.164
67.06000 6.030
67.08000 6.275
67.10000 4.781
67.12000 4.137
67.14000 4.529
67.16000 4.178
67.18000 6.389
67.20000 5.967
67.22000 7.258
67.24000 4.042
67.26000 0.655
67.28000 6.202
67.30000 9.813
67.32000 9.017
67.34000 3.945
67.36000 6.933
67.38000 10.386
67.40000 13.521
67.42000 11.191
67.44000 10.701
67.46000 9.772
67.48000 8.365
67.50000 11.059
67.52000 12.088
67.54000 12.733
67.56000 12.673
67.58000 11.958
67.60000 8.325
67.62000 9.305
67.64000 10.144
67.66000 12.312
67.68000 12.996
67.70000 14.050
67.72000 13.908
67.74000 13.681
67.76000 15.648
67.78000 12.899
67.80000 12.617
67.82000 12.583
67.84000 16.464
67.86000 21.797
67.88000 20.252
67.90000 21.097
67.92000 19.263
67.94000 18.489
67.96000 20.219
67.98000 19.415
68.00000 18.240
68.02000 18.665
68.04000 19.269
68.06000 17.934
68.08000 17.729
68.10000 17.897
68.12000 17.869
68.14000 16.319
68.16000 16.428
68.18000 16.984
68.20000 19.295
68.22000 19.245
68.24000 17.111
68.26000 14.122
68.28000 16.974
68.30000 16.323
68.32000 14.707
68.34000 13.876
68.36000 16.525
68.38000 14.730
68.40000 12.565
68.42000 10.923
68.44000 9.955
68.46000 9.938
68.48000 13.295
68.50000 12.115
68.52000 8.526
68.54000 8.283
68.56000 7.979
68.58000 9.430
68.60000 5.812
68.62000 5.020
68.64000 5.200
68.66000 4.414
68.68000 5.071
68.70000 6.736
68.72000 5.135
68.74000 3.430
68.76000 2.646
68.78000 0.398
68.80000 1.545
68.82000 2.963
68.84000 3.330
68.86000 3.509
68.88000 1.293
68.90000 2.425
68.92000 3.415
68.94000 2.066
68.96000 2.725
68.98000 2.496
69.00000 3.913
69.02000 1.341
69.04000 1.018
69.06000 -2.275
69.08000 0.678
69.10000 0.540
69.12000 1.809
69.14000 4.802
69.16000 4.506
69.18000 0.822
69.20000 2.899
69.22000 4.306
69.24000 -0.164
69.26000 -0.161
69.28000 0.610
69.30000 -0.469
69.32000 0.937
69.34000 1.445
69.36000 0.306
69.38000 -1.013
69.40000 0.061
69.42000 0.429
69.44000 2.333
69.46000 1.241
69.48000 0.752
69.50000 1.792
69.52000 1.541
69.54000 0.232
69.56000 -0.042
69.58000 -1.519
69.60000 -2.205
69.62000 -0.839
69.64000 3.782
69.66000 5.502
69.68000 2.300
69.70000 2.037
69.72000 1.337
69.74000 3.870
69.76000 3.523
69.78000 4.498
69.80000 5.157
69.82000 5.029
69.84000 1.572
69.86000 1.547
69.88000 0.472
69.90000 1.184
69.92000 0.629
69.94000 -2.178
69.96000 2.848
69.98000 3.506
70.00000 4.601
70.02000 5.071
70.04000 2.673
70.06000 1.786
70.08000 2.850
70.10000 2.329
70.12000 2.369
70.14000 1.806
70.16000 3.974
70.18000 3.463
70.20000 1.720
70.22000 1.962
70.24000 2.056
70.26000 -1.846
70.28000 0.806
70.30000 2.864
70.32000 2.074
70.34000 -0.249
70.36000 0.659
70.38000 5.062
70.40000 5.445
70.42000 2.176
70.44000 4.789
70.46000 4.136
70.48000 2.321
70.50000 4.329
70.52000 3.657
70.54000 1.406
70.56000 -0.490
70.58000 -0.576
70.60000 -0.648
70.62000 -1.236
70.64000 1.000
70.66000 0.348
70.68000 -1.952
70.70000 0.554
70.72000 1.014
70.74000 3.414
70.76000 1.095
70.78000 -0.560
70.80000 0.408
70.82000 0.305
70.84000 -2.167
70.86000 1.857
70.88000 1.654
70.90000 -0.472
70.92000 1.353
70.94000 6.304
70.96000 6.266
70.98000 4.447
71.00000 1.646
71.02000 2.463
71.04000 4.377
71.06000 4.385
71.08000 2.294
71.10000 1.404
71.12000 2.006
71.14000 0.889
71.16000 -1.039
71.18000 -1.531
71.20000 -2.149
71.22000 0.225
71.24000 -1.361
71.26000 -1.915
71.28000 -0.852
71.30000 0.145
71.32000 0.107
71.34000 0.300
71.36000 2.118
71.38000 0.669
71.40000 1.075
71.42000 -0.220
71.44000 -1.260
71.46000 2.610
71.48000 5.868
71.50000 5.656
71.52000 5.730
71.54000 0.658
71.56000 1.328
71.58000 2.466
71.60000 0.879
71.62000 3.724
71.64000 2.221
71.66000 -0.155
71.68000 0.957
71.70000 -0.616
71.72000 -1.533
71.74000 0.747
71.76000 1.060
71.78000 3.389
71.80000 4.922
71.82000 2.892
71.84000 -0.380
71.86000 -1.390
71.88000 -0.982
71.90000 0.171
71.92000 -2.119
71.94000 -0.630
71.96000 -1.128
71.98000 -1.472
72.00000 -0.340
72.02000 1.723
72.04000 5.623
72.06000 4.140
72.08000 0.535
72.10000 -0.457
72.12000 0.049
72.14000 5.603
72.16000 6.948
72.18000 3.318
72.20000 2.874
72.22000 0.645
72.24000 6.787
72.26000 0.338
72.28000 -2.100
72.30000 -1.529
72.32000 0.693
72.34000 2.070
72.36000 1.994
72.38000 1.288
72.40000 2.898
72.42000 1.697
72.44000 -0.928
72.46000 -0.334
72.48000 -1.309
72.50000 -0.312
72.52000 3.788
72.54000 2.395
72.56000 -0.927
72.58000 -0.978
72.60000 -0.853
72.62000 -1.913
72.64000 2.457
72.66000 0.889
72.68000 -0.701
72.70000 -0.685
72.72000 -0.963
72.74000 2.058
72.76000 6.278
72.78000 4.413
72.80000 1.082
72.82000 -0.119
72.84000 4.246
72.86000 3.263
72.88000 -0.807
72.90000 -1.081
72.92000 -0.539
72.94000 1.176
72.96000 2.720
72.98000 1.831
73.00000 1.820
73.02000 2.486
73.04000 0.868
73.06000 0.860
73.08000 0.535
73.10000 2.288
73.12000 2.037
73.14000 1.411
73.16000 -1.241
73.18000 1.071
73.20000 2.456
73.22000 2.524
73.24000 1.692
73.26000 1.156
73.28000 3.049
73.30000 2.868
73.32000 1.769
73.34000 1.943
73.36000 2.686
73.38000 2.339
73.40000 4.125
73.42000 4.396
73.44000 1.975
73.46000 -1.101
73.48000 -1.771
73.50000 0.320
73.52000 2.454
73.54000 0.230
73.56000 0.585
73.58000 1.642
73.60000 -2.070
73.62000 3.396
73.64000 1.349
73.66000 4.200
73.68000 3.497
73.70000 4.217
73.72000 2.164
73.74000 1.196
73.76000 1.691
73.78000 2.278
73.80000 4.024
73.82000 2.868
73.84000 2.172
73.86000 1.412
73.88000 0.923
73.90000 1.962
73.92000 3.985
73.94000 5.378
73.96000 4.533
73.98000 2.590
74.00000 1.519
74.02000 -2.056
74.04000 0.052
74.06000 3.080
74.08000 0.914
74.10000 2.116
74.12000 1.494
74.14000 5.927
74.16000 4.214
74.18000 4.692
74.20000 5.697
74.22000 5.275
74.24000 2.556
74.26000 -1.013
74.28000 0.826
74.30000 3.750
74.32000 6.778
74.34000 5.363
74.36000 2.713
74.38000 -2.048
74.40000 -0.053
74.42000 2.844
74.44000 6.778
74.46000 5.861
74.48000 4.643
74.50000 3.923
74.52000 0.964
74.54000 1.281
74.56000 1.628
74.58000 0.858
74.60000 3.105
74.62000 2.767
74.64000 2.758
74.66000 0.545
74.68000 1.536
74.70000 0.653
74.72000 2.040
74.74000 -1.379
74.76000 2.358
74.78000 3.399
74.80000 2.948
74.82000 2.097
74.84000 0.725
74.86000 2.940
74.88000 3.450
74.90000 -0.085
74.92000 0.050
74.94000 1.159
74.96000 3.059
74.98000 4.125
75.00000 2.024
75.02000 2.627
75.04000 3.162
75.06000 2.562
75.08000 2.176
75.10000 3.195
75.12000 1.167
75.14000 1.766
75.16000 2.930
75.18000 1.848
75.20000 4.536
75.22000 6.970
75.24000 5.766
75.26000 4.501
75.28000 3.041
75.30000 1.026
75.32000 0.695
75.34000 1.905
75.36000 4.875
75.38000 5.193
75.40000 2.710
75.42000 4.315
75.44000 7.088
75.46000 5.934
75.48000 2.749
75.50000 2.882
75.52000 2.230
75.54000 3.068
75.56000 2.399
75.58000 4.990
75.60000 6.593
75.62000 7.730
75.64000 3.036
75.66000 2.178
75.68000 3.029
75.70000 3.386
75.72000 -2.060
75.74000 1.969
75.76000 1.532
75.78000 1.541
75.80000 1.592
75.82000 4.476
75.84000 3.495
75.86000 4.883
75.88000 6.550
75.90000 5.674
75.92000 8.170
75.94000 6.866
75.96000 5.584
75.98000 6.291
76.00000 5.623
76.02000 4.103
76.04000 4.130
76.06000 5.679
76.08000 5.690
76.10000 4.228
76.12000 3.942
76.14000 3.749
76.16000 3.805
76.18000 5.258
76.20000 3.070
76.22000 5.642
76.24000 1.768
76.26000 -0.804
76.28000 -2.067
76.30000 1.680
76.32000 3.039
76.34000 4.445
76.36000 1.524
76.38000 2.220
76.40000 3.762
76.42000 6.086
76.44000 3.321
76.46000 1.011
76.48000 4.216
76.50000 4.514
76.52000 3.371
76.54000 1.855
76.56000 7.359
76.58000 4.485
76.60000 4.319
76.62000 4.769
76.64000 6.240
76.66000 4.475
76.68000 3.041
76.70000 4.150
76.72000 0.955
76.74000 0.154
76.76000 3.923
76.78000 4.159
76.80000 0.300
76.82000 1.070
76.84000 1.745
76.86000 3.614
76.88000 0.333
76.90000 1.770
76.92000 2.227
76.94000 2.926
76.96000 2.403
76.98000 0.149
77.00000 3.222
77.02000 3.755
77.04000 6.262
77.06000 2.779
77.08000 8.388
77.10000 6.999
77.12000 4.987
77.14000 2.241
77.16000 6.253
77.18000 3.262
77.20000 3.596
77.22000 -0.949
77.24000 -2.110
77.26000 1.869
77.28000 3.339
77.30000 1.485
77.32000 4.750
77.34000 2.267
77.36000 2.795
77.38000 3.935
77.40000 2.789
77.42000 0.946
77.44000 1.595
77.46000 1.189
77.48000 2.724
77.50000 0.932
77.52000 0.590
77.54000 3.554
77.56000 1.793
77.58000 2.926
77.60000 -0.582
77.62000 1.407
77.64000 4.598
77.66000 5.172
77.68000 3.547
77.70000 0.672
77.72000 1.110
77.74000 1.375
77.76000 3.039
77.78000 1.586
77.80000 2.389
77.82000 3.286
77.84000 3.699
77.86000 3.717
77.88000 6.731
77.90000 4.003
77.92000 2.577
77.94000 0.984
77.96000 3.038
77.98000 1.488
78.00000 2.415
78.02000 0.143
78.04000 0.264
78.06000 1.913
78.08000 1.205
78.10000 3.353
78.12000 2.899
78.14000 4.582
78.16000 3.777
78.18000 1.355
78.20000 -0.762
78.22000 -0.939
78.24000 0.638
78.26000 0.339
78.28000 1.555
78.30000 4.883
78.32000 2.486
78.34000 1.636
78.36000 1.463
78.38000 -2.141
78.40000 -0.273
78.42000 0.902
78.44000 0.696
78.46000 0.941
78.48000 -0.778
78.50000 -0.042
78.52000 1.843
78.54000 0.683
78.56000 -0.798
78.58000 3.788
78.60000 2.495
78.62000 4.975
78.64000 1.378
78.66000 -0.216
78.68000 2.346
78.70000 1.373
78.72000 1.552
78.74000 4.361
78.76000 2.854
78.78000 1.022
78.80000 2.965
78.82000 4.795
78.84000 -2.102
78.86000 -1.267
78.88000 3.352
78.90000 0.597
78.92000 0.507
78.94000 -1.397
78.96000 3.391
78.98000 7.332
79.00000 3.926
79.02000 4.288
79.04000 3.013
79.06000 3.736
79.08000 3.137
79.10000 5.278
79.12000 4.710
79.14000 -0.057
79.16000 -1.007
79.18000 2.264
79.20000 1.779
79.22000 1.261
79.24000 1.919
79.26000 0.748
79.28000 0.445
79.30000 1.516
79.32000 0.752
79.34000 1.163
79.36000 3.659
79.38000 0.745
79.40000 2.151
79.42000 6.436
79.44000 2.600
79.46000 5.187
79.48000 7.438
79.50000 5.421
79.52000 4.323
79.54000 2.388
79.56000 2.468
79.58000 1.050
79.60000 5.468
79.62000 7.210
79.64000 2.264
79.66000 -2.154
79.68000 1.216
79.70000 4.839
79.72000 4.416
79.74000 -1.052
79.76000 4.703
79.78000 3.774
79.80000 1.776
79.82000 3.914
79.84000 5.509
79.86000 3.882
79.88000 3.510
79.90000 4.662
79.92000 1.180
79.94000 3.364
79.96000 2.738
79.98000 5.438
80.00000 2.587
80.02000 3.274
80.04000 0.021
80.06000 -0.500
80.08000 1.944
80.10000 4.709
80.12000 4.222
80.14000 3.084
80.16000 4.066
80.18000 4.357
80.20000 1.024
80.22000 1.759
80.24000 2.764
80.26000 3.133
80.28000 1.474
80.30000 0.094
80.32000 1.809
80.34000 1.781
80.36000 1.369
80.38000 -0.015
80.40000 2.634
80.42000 7.705
80.44000 3.260
80.46000 1.303
80.48000 4.806
80.50000 6.792
80.52000 5.721
80.54000 2.263
80.56000 2.583
80.58000 4.401
80.60000 5.406
80.62000 7.913
80.64000 5.882
80.66000 5.101
80.68000 3.316
80.70000 3.802
80.72000 11.434
80.74000 7.730
80.76000 5.024
80.78000 3.448
80.80000 6.151
80.82000 1.581
80.84000 3.212
80.86000 1.086
80.88000 4.452
80.90000 4.919
80.92000 4.137
80.94000 12.574
80.96000 10.903
80.98000 11.039
81.00000 11.121
81.02000 11.108
81.04000 12.897
81.06000 13.320
81.08000 14.415
81.10000 10.449
81.12000 11.304
81.14000 14.935
81.16000 14.972
81.18000 14.640
81.20000 9.817
81.22000 11.036
81.24000 13.288
81.26000 10.339
81.28000 11.967
81.30000 14.570
81.32000 16.568
81.34000 21.313
81.36000 20.521
81.38000 20.915
81.40000 16.495
81.42000 15.432
81.44000 17.471
81.46000 20.390
81.48000 19.705
81.50000 24.109
81.52000 22.911
81.54000 24.770
81.56000 18.607
81.58000 18.785
81.60000 21.369
81.62000 23.365
81.64000 26.871
81.66000 30.251
81.68000 28.079
81.70000 29.179
81.72000 29.775
81.74000 28.369
81.76000 28.986
81.78000 29.886
81.80000 21.783
81.82000 23.148
81.84000 26.608
81.86000 30.025
81.88000 30.184
81.90000 27.183
81.92000 29.708
81.94000 30.639
81.96000 28.018
81.98000 27.079
82.00000 29.041
82.02000 32.401
82.04000 29.734
82.06000 28.416
82.08000 32.695
82.10000 34.344
82.12000 32.642
82.14000 31.197
82.16000 29.036
82.18000 25.716
82.20000 23.734
82.22000 25.185
82.24000 26.584
82.26000 28.274
82.28000 28.194
82.30000 27.743
82.32000 21.787
82.34000 24.502
82.36000 26.520
82.38000 23.853
82.40000 26.256
82.42000 25.978
82.44000 24.905
82.46000 27.234
82.48000 23.972
82.50000 21.674
82.52000 20.175
82.54000 20.512
82.56000 24.252
82.58000 17.666
82.60000 17.593
82.62000 14.244
82.64000 19.086
82.66000 18.121
82.68000 11.065
82.70000 11.311
82.72000 11.992
82.74000 12.994
82.76000 5.780
82.78000 5.142
82.80000 8.911
82.82000 10.871
82.84000 10.569
82.86000 11.434
82.88000 9.509
82.90000 8.666
82.92000 10.899
82.94000 7.540
82.96000 10.512
82.98000 7.239
83.00000 1.831
83.02000 5.609
83.04000 7.392
83.06000 5.922
83.08000 3.962
83.10000 3.454
83.12000 3.818
83.14000 5.022
83.16000 3.992
83.18000 0.307
83.20000 -2.056
83.22000 -0.058
83.24000 2.042
83.26000 2.639
83.28000 3.627
83.30000 1.509
83.32000 1.250
83.34000 2.470
83.36000 0.695
83.38000 0.613
83.40000 2.715
83.42000 1.953
83.44000 2.434
83.46000 3.511
83.48000 6.134
83.50000 7.242
83.52000 3.186
83.54000 -0.200
83.56000 1.219
83.58000 2.623
83.60000 -0.766
83.62000 -1.360
83.64000 1.909
83.66000 3.471
83.68000 5.156
83.70000 2.306
83.72000 -0.425
83.74000 2.256
83.76000 1.637
83.78000 2.084
83.80000 3.494
83.82000 3.250
83.84000 0.765
83.86000 3.655
83.88000 4.895
83.90000 3.399
83.92000 -0.806
83.94000 -2.225
83.96000 2.338
83.98000 2.427
84.00000 0.557
84.02000 3.128
84.04000 3.053
84.06000 2.951
84.08000 3.617
84.10000 -0.504
84.12000 -1.065
84.14000 -1.957
84.16000 -0.470
84.18000 -2.203
84.20000 -1.045
84.22000 3.285
84.24000 3.567
84.26000 0.077
84.28000 2.198
84.30000 2.571
84.32000 -0.608
84.34000 0.545
84.36000 3.025
84.38000 1.505
84.40000 1.627
84.42000 3.025
84.44000 -1.129
84.46000 2.910
84.48000 1.943
84.50000 1.778
84.52000 0.260
84.54000 1.885
84.56000 -0.131
84.58000 0.182
84.60000 -0.371
84.62000 1.035
84.64000 2.222
84.66000 3.188
84.68000 4.813
84.70000 2.467
84.72000 1.240
84.74000 0.560
84.76000 1.574
84.78000 -0.478
84.80000 -0.748
84.82000 -1.030
84.84000 1.326
84.86000 4.107
84.88000 2.367
84.90000 2.896
84.92000 3.128
84.94000 0.962
84.96000 1.320
84.98000 0.400
85.00000 4.971
85.02000 4.392
85.04000 4.326
85.06000 6.011
85.08000 8.674
85.10000 8.423
85.12000 8.326
85.14000 5.877
85.16000 7.280
85.18000 5.229
85.20000 6.865
85.22000 8.087
85.24000 12.685
85.26000 10.103
85.28000 8.979
85.30000 2.272
85.32000 1.974
85.34000 5.053
85.36000 6.666
85.38000 8.571
85.40000 11.394
85.42000 12.111
85.44000 10.641
85.46000 9.935
85.48000 8.545
85.50000 8.824
85.52000 12.878
85.54000 12.780
85.56000 16.619
85.58000 15.287
85.60000 14.807
85.62000 14.490
85.64000 14.255
85.66000 12.550
85.68000 12.145
85.70000 16.383
85.72000 15.637
85.74000 14.565
85.76000 17.024
85.78000 16.939
85.80000 17.370
85.82000 25.772
85.84000 23.312
85.86000 18.989
85.88000 18.433
85.90000 18.536
85.92000 23.205
85.94000 21.262
85.96000 23.152
85.98000 19.151
86.00000 20.958
86.02000 20.122
86.04000 22.567
86.06000 24.560
86.08000 22.450
86.10000 20.939
86.12000 19.459
86.14000 22.243
86.16000 23.070
86.18000 25.023
86.20000 24.294
86.22000 23.974
86.24000 22.644
86.26000 23.706
86.28000 23.146
86.30000 20.335
86.32000 20.459
86.34000 18.509
86.36000 19.601
86.38000 17.579
86.40000 20.929
86.42000 20.432
86.44000 21.008
86.46000 19.405
86.48000 20.722
86.50000 19.374
86.52000 18.621
86.54000 17.461
86.56000 14.120
86.58000 14.695
86.60000 15.620
86.62000 14.843
86.64000 16.635
86.66000 15.437
86.68000 13.082
86.70000 12.606
86.72000 9.654
86.74000 10.604
86.76000 11.177
86.78000 10.092
86.80000 9.859
86.82000 6.430
86.84000 9.554
86.86000 7.823
86.88000 9.687
86.90000 10.580
86.92000 13.013
86.94000 13.941
86.96000 9.667
86.98000 5.633
87.00000 7.887
87.02000 7.366
87.04000 7.401
87.06000 4.228
87.08000 2.206
87.10000 5.334
87.12000 4.979
87.14000 5.987
87.16000 0.315
87.18000 -1.494
87.20000 1.956
87.22000 0.055
87.24000 -0.709
87.26000 1.438
87.28000 -1.503
87.30000 1.441
87.32000 4.617
87.34000 1.482
87.36000 -1.265
87.38000 -0.961
87.40000 2.420
87.42000 2.101
87.44000 1.667
87.46000 1.189
87.48000 1.694
87.50000 -1.599
87.52000 -1.131
87.54000 3.994
87.56000 1.874
87.58000 0.214
87.60000 1.501
87.62000 0.880
87.64000 1.887
87.66000 -0.890
87.68000 -2.074
87.70000 1.483
87.72000 3.270
87.74000 1.087
87.76000 -0.572
87.78000 -0.780
87.80000 -0.845
87.82000 -1.156
87.84000 -2.062
87.86000 -1.394
87.88000 1.522
87.90000 1.192
87.92000 -1.813
87.94000 -0.401
87.96000 -0.652
87.98000 0.442
88.00000 0.757
88.02000 0.053
88.04000 2.805
88.06000 -0.618
88.08000 2.711
88.10000 6.172
88.12000 4.560
88.14000 2.053
88.16000 2.079
88.18000 -0.251
88.20000 0.227
88.22000 -0.524
88.24000 0.725
88.26000 -0.751
88.28000 2.370
88.30000 5.477
88.32000 3.335
88.34000 2.833
88.36000 1.381
88.38000 1.429
88.40000 2.509
88.42000 0.647
88.44000 0.573
88.46000 1.637
88.48000 0.754
88.50000 0.551
88.52000 -0.793
88.54000 -2.010
88.56000 3.796
88.58000 6.627
88.60000 5.417
88.62000 0.290
88.64000 1.192
88.66000 1.663
88.68000 0.271
88.70000 1.826
88.72000 2.468
88.74000 1.304
88.76000 -0.639
88.78000 1.458
88.80000 -1.768
88.82000 3.406
88.84000 4.779
88.86000 5.954
88.88000 1.898
88.90000 -0.079
88.92000 1.153
88.94000 0.190
88.96000 2.384
88.98000 -1.931
89.00000 -0.194
89.02000 2.083
89.04000 2.737
89.06000 4.145
89.08000 6.769
89.10000 1.322
89.12000 3.982
89.14000 1.143
89.16000 1.285
89.18000 -1.957
89.20000 -1.031
89.22000 -0.294
89.24000 2.037
89.26000 3.626
89.28000 5.474
89.30000 3.881
89.32000 3.615
89.34000 4.167
89.36000 1.279
89.38000 1.393
89.40000 3.085
89.42000 4.007
89.44000 1.110
89.46000 2.169
89.48000 1.531
89.50000 5.066
89.52000 3.174
89.54000 1.566
89.56000 3.305
89.58000 8.287
89.60000 4.592
89.62000 2.507
89.64000 1.613
89.66000 4.735
89.68000 3.695
89.70000 5.772
89.72000 3.076
89.74000 2.556
89.76000 0.302
89.78000 3.441
89.80000 0.605
89.82000 -0.013
89.84000 -1.943
89.86000 5.071
89.88000 4.392
89.90000 3.051
89.92000 3.762
89.94000 4.604
89.96000 2.138
89.98000 1.806
90.00000 2.223
90.02000 2.493
90.04000 5.520
90.06000 7.656
90.08000 3.837
90.10000 1.864
90.12000 1.881
90.14000 2.572
90.16000 3.865
90.18000 4.653
90.20000 5.167
90.22000 1.483
90.24000 1.738
90.26000 1.744
90.28000 2.750
90.30000 3.635
90.32000 3.240
90.34000 -0.140
90.36000 3.588
90.38000 0.552
90.40000 2.664
90.42000 -0.239
90.44000 3.868
90.46000 4.556
90.48000 3.499
90.50000 2.302
90.52000 1.590
90.54000 1.372
90.56000 1.184
90.58000 2.497
90.60000 1.849
90.62000 1.358
90.64000 5.237
90.66000 3.809
90.68000 2.904
90.70000 4.200
90.72000 3.917
90.74000 4.652
90.76000 2.876
90.78000 3.948
90.80000 2.963
90.82000 2.154
90.84000 3.007
90.86000 6.189
90.88000 7.345
90.90000 4.857
90.92000 1.599
90.94000 1.834
90.96000 2.816
90.98000 1.033
91.00000 -1.002
91.02000 -0.020
91.04000 0.436
91.06000 1.278
91.08000 1.288
91.10000 3.027
91.12000 6.173
91.14000 5.548
91.16000 7.711
91.18000 -0.006
91.20000 -1.734
91.22000 0.037
91.24000 -1.940
91.26000 3.194
91.28000 4.564
91.30000 2.909
91.32000 1.451
91.34000 1.534
91.36000 1.933
91.38000 7.750
91.40000 6.694
91.42000 2.931
91.44000 2.024
91.46000 -0.099
91.48000 0.384
91.50000 -0.395
91.52000 3.067
91.54000 3.472
91.56000 2.397
91.58000 3.776
91.60000 2.869
91.62000 2.058
91.64000 1.492
91.66000 3.356
91.68000 3.954
91.70000 2.033
91.72000 0.241
91.74000 1.175
91.76000 1.561
91.78000 1.839
91.80000 4.883
91.82000 1.326
91.84000 4.071
91.86000 3.125
91.88000 4.303
91.90000 2.571
91.92000 5.703
91.94000 2.890
91.96000 0.306
91.98000 0.738
92.00000 2.844
92.02000 6.573
92.04000 3.785
92.06000 0.617
92.08000 2.431
92.10000 4.228
92.12000 5.435
92.14000 4.731
92.16000 2.474
92.18000 5.356
92.20000 3.194
92.22000 2.264
92.24000 4.521
92.26000 2.155
92.28000 2.589
92.30000 0.972
92.32000 1.345
92.34000 2.102
92.36000 -0.137
92.38000 2.447
92.40000 -0.703
92.42000 -1.239
92.44000 -0.468
92.46000 1.453
92.48000 -1.625
92.50000 1.769
92.52000 1.436
92.54000 1.354
92.56000 2.345
92.58000 5.345
92.60000 5.578
92.62000 2.401
92.64000 -2.017
92.66000 -1.895
92.68000 0.968
92.70000 1.168
92.72000 2.368
92.74000 3.491
92.76000 1.989
92.78000 1.700
92.80000 2.201
92.82000 -1.135
92.84000 -1.208
92.86000 -2.030
92.88000 -0.537
92.90000 0.613
92.92000 2.600
92.94000 1.191
92.96000 -0.859
92.98000 -0.343
93.00000 2.103
93.02000 1.678
93.04000 -1.350
93.06000 -1.660
93.08000 0.386
93.10000 -1.119
93.12000 0.106
93.14000 2.862
93.16000 1.118
93.18000 1.217
93.20000 -1.754
93.22000 1.161
93.24000 3.484
93.26000 7.617
93.28000 4.297
93.30000 1.721
93.32000 -0.621
93.34000 -1.550
93.36000 -1.355
93.38000 3.941
93.40000 4.227
93.42000 3.420
93.44000 1.065
93.46000 0.076
93.48000 1.958
93.50000 2.373
93.52000 3.667
93.54000 3.095
93.56000 2.557
93.58000 2.034
93.60000 4.069
93.62000 0.938
93.64000 2.098
93.66000 6.889
93.68000 3.783
93.70000 0.970
93.72000 4.168
93.74000 2.503
93.76000 3.200
93.78000 2.944
93.80000 -1.974
93.82000 1.515
93.84000 3.901
93.86000 3.424
93.88000 -0.330
93.90000 2.559
93.92000 6.163
93.94000 4.921
93.96000 7.144
93.98000 4.105
94.00000 4.075
94.02000 2.801
94.04000 3.493
94.06000 3.672
94.08000 2.605
94.10000 2.770
94.12000 -0.631
94.14000 2.046
94.16000 4.471
94.18000 7.225
94.20000 2.833
94.22000 2.105
94.24000 3.099
94.26000 4.183
94.28000 3.477
94.30000 7.256
94.32000 5.079
94.34000 1.382
94.36000 0.235
94.38000 -0.810
94.40000 3.692
94.42000 6.144
94.44000 5.882
94.46000 3.319
94.48000 6.796
94.50000 4.166
94.52000 -1.960
94.54000 1.353
94.56000 4.206
94.58000 9.505
94.60000 3.776
94.62000 3.131
94.64000 3.382
94.66000 5.454
94.68000 5.116
94.70000 3.717
94.72000 0.171
94.74000 3.105
94.76000 6.358
94.78000 6.363
94.80000 4.161
94.82000 0.151
94.84000 0.635
94.86000 0.213
94.88000 0.716
94.90000 1.003
94.92000 -0.270
94.94000 -0.575
94.96000 2.074
94.98000 4.948
95.00000 4.469
95.02000 4.706
95.04000 4.637
95.06000 1.518
95.08000 4.780
95.10000 5.192
95.12000 -0.978
95.14000 0.037
95.16000 2.029
95.18000 0.896
95.20000 1.633
95.22000 1.159
95.24000 1.910
95.26000 3.669
95.28000 3.692
95.30000 9.043
95.32000 5.339
95.34000 -0.425
95.36000 4.585
95.38000 3.488
95.40000 3.237
95.42000 4.830
95.44000 8.793
95.46000 7.044
95.48000 2.902
95.50000 3.183
95.52000 3.990
95.54000 1.814
95.56000 0.035
95.58000 2.867
95.60000 1.649
95.62000 -0.087
95.64000 1.177
95.66000 -0.008
95.68000 4.739
95.70000 4.314
95.72000 0.784
95.74000 4.318
95.76000 4.634
95.78000 1.775
95.80000 -2.033
95.82000 1.943
95.84000 4.596
95.86000 6.245
95.88000 8.444
95.90000 2.383
95.92000 2.226
95.94000 4.919
95.96000 1.376
95.98000 2.914
96.00000 1.458
96.02000 -2.038
96.04000 -1.137
96.06000 1.883
96.08000 5.798
96.10000 3.771
96.12000 5.373
96.14000 7.097
96.16000 1.213
96.18000 6.953
96.20000 8.497
96.22000 6.294
96.24000 1.026
96.26000 3.607
96.28000 8.393
96.30000 3.274
96.32000 -1.182
96.34000 3.061
96.36000 3.800
96.38000 3.655
96.40000 3.694
96.42000 4.418
96.44000 1.180
96.46000 0.003
96.48000 1.405
96.50000 2.821
96.52000 -0.185
96.54000 3.968
96.56000 8.557
96.58000 5.664
96.60000 5.078
96.62000 1.583
96.64000 0.926
96.66000 -0.506
96.68000 1.139
96.70000 2.042
96.72000 -0.009
96.74000 2.950
96.76000 6.832
96.78000 8.015
96.80000 3.065
96.82000 -2.021
96.84000 4.807
96.86000 10.238
96.88000 7.296
96.90000 2.502
96.92000 0.931
96.94000 2.276
96.96000 2.251
96.98000 3.826
97.00000 5.847
97.02000 6.866
97.04000 3.974
97.06000 2.309
97.08000 5.419
97.10000 6.978
97.12000 8.029
97.14000 6.004
97.16000 4.167
97.18000 5.194
97.20000 6.380
97.22000 7.121
97.24000 -1.128
97.26000 -0.264
97.28000 3.762
97.30000 5.598
97.32000 1.876
97.34000 -0.420
97.36000 4.896
97.38000 3.494
97.40000 2.687
97.42000 2.594
97.44000 1.116
97.46000 2.814
97.48000 3.038
97.50000 2.002
97.52000 -0.626
97.54000 6.259
97.56000 6.164
97.58000 5.605
97.60000 2.376
97.62000 4.253
97.64000 9.539
97.66000 7.127
97.68000 4.667
97.70000 4.389
97.72000 6.127
97.74000 6.991
97.76000 4.766
97.78000 12.349
97.80000 3.516
97.82000 -1.947
97.84000 1.192
97.86000 5.330
97.88000 6.608
97.90000 6.255
97.92000 6.241
97.94000 4.287
97.96000 3.982
97.98000 7.024
98.00000 -0.302
98.02000 4.269
98.04000 6.973
98.06000 6.589
98.08000 4.926
98.10000 5.891
98.12000 3.768
98.14000 -0.470
98.16000 2.195
98.18000 2.531
98.20000 9.757
98.22000 3.938
98.24000 4.889
98.26000 2.298
98.28000 4.904
98.30000 11.660
98.32000 7.252
98.34000 3.616
98.36000 2.021
98.38000 1.459
98.40000 5.318
98.42000 -1.277
98.44000 2.638
98.46000 7.605
98.48000 3.633
98.50000 10.196
98.52000 8.332
98.54000 1.895
98.56000 4.185
98.58000 8.779
98.60000 10.119
98.62000 8.945
98.64000 12.658
98.66000 11.051
98.68000 8.991
98.70000 9.875
98.72000 3.299
98.74000 3.682
98.76000 1.873
98.78000 8.244
98.80000 13.061
98.82000 9.015
98.84000 -0.160
98.86000 0.221
98.88000 1.486
98.90000 1.063
98.92000 -1.912
98.94000 5.558
98.96000 6.910
98.98000 10.856
99.00000 10.451
99.02000 8.095
99.04000 6.157
99.06000 4.006
99.08000 6.546
99.10000 5.008
99.12000 5.349
99.14000 11.277
99.16000 6.962
99.18000 5.243
99.20000 6.264
99.22000 2.775
99.24000 5.678
99.26000 5.254
99.28000 2.025
99.30000 9.583
99.32000 13.848
99.34000 16.702
99.36000 10.301
99.38000 10.553
99.40000 3.344
99.42000 8.871
99.44000 7.913
99.46000 3.183
99.48000 7.028
99.50000 2.726
99.52000 8.453
99.54000 8.233
99.56000 0.880
99.58000 -1.887
99.60000 7.679
99.62000 14.713
99.64000 3.903
99.66000 5.209
99.68000 4.826
99.70000 3.593
99.72000 6.451
99.74000 2.421
99.76000 2.004
99.78000 2.401
99.80000 -1.914
99.82000 9.245
99.84000 -1.183
99.86000 -2.070
99.88000 7.794
99.90000 4.597
99.92000 1.823
99.94000 7.258
99.96000 -2.167
99.98000 0.000
