'Id: "0011387" Comment: "Integrate frame 0011387_Au-Ir-Rh_Rh-rich_XRD-Mapping-170-0000.gfrmwith cursor Wedge Cursor #5" Operator: "B?rgel" Anode: "Cu" Wavelength: "1.5406" Scantype: "2Theta (TwoTheta)" TimePerStep: "1" X: "13.5" Y: "0" Z: "5.95" 
10.00000 0.000
10.02000 0.598
10.04000 -3.824
10.06000 -3.820
10.08000 -3.488
10.10000 14.593
10.12000 23.214
10.14000 22.992
10.16000 14.578
10.18000 17.096
10.20000 9.003
10.22000 14.133
10.24000 8.960
10.26000 17.107
10.28000 11.916
10.30000 7.143
10.32000 18.549
10.34000 14.667
10.36000 22.039
10.38000 22.769
10.40000 17.588
10.42000 18.992
10.44000 24.413
10.46000 19.571
10.48000 17.579
10.50000 25.981
10.52000 23.683
10.54000 24.694
10.56000 11.833
10.58000 4.698
10.60000 15.387
10.62000 16.876
10.64000 12.589
10.66000 9.187
10.68000 23.408
10.70000 14.635
10.72000 7.708
10.74000 10.081
10.76000 18.298
10.78000 23.871
10.80000 17.384
10.82000 3.129
10.84000 7.123
10.86000 7.622
10.88000 7.852
10.90000 2.634
10.92000 6.870
10.94000 21.165
10.96000 18.639
10.98000 20.806
11.00000 10.326
11.02000 12.431
11.04000 18.082
11.06000 20.520
11.08000 20.337
11.10000 14.773
11.12000 16.621
11.14000 1.068
11.16000 6.533
11.18000 23.273
11.20000 13.942
11.22000 1.375
11.24000 11.134
11.26000 19.801
11.28000 15.179
11.30000 13.079
11.32000 19.163
11.34000 12.655
11.36000 11.156
11.38000 14.948
11.40000 9.580
11.42000 15.311
11.44000 17.614
11.46000 10.016
11.48000 3.219
11.50000 14.252
11.52000 16.682
11.54000 19.617
11.56000 26.860
11.58000 21.234
11.60000 27.724
11.62000 16.032
11.64000 15.427
11.66000 22.086
11.68000 23.613
11.70000 17.776
11.72000 20.694
11.74000 16.056
11.76000 29.039
11.78000 30.871
11.80000 20.905
11.82000 20.591
11.84000 15.388
11.86000 8.205
11.88000 6.708
11.90000 14.121
11.92000 18.089
11.94000 13.736
11.96000 14.839
11.98000 3.593
12.00000 5.408
12.02000 5.236
12.04000 5.076
12.06000 18.983
12.08000 23.042
12.10000 12.840
12.12000 12.946
12.14000 24.008
12.16000 24.450
12.18000 17.132
12.20000 16.387
12.22000 23.990
12.24000 26.913
12.26000 16.337
12.28000 18.165
12.30000 27.288
12.32000 26.430
12.34000 19.133
12.36000 16.743
12.38000 6.107
12.40000 13.211
12.42000 19.732
12.44000 22.510
12.46000 14.933
12.48000 14.238
12.50000 32.878
12.52000 30.235
12.54000 30.026
12.56000 13.693
12.58000 14.434
12.60000 16.781
12.62000 10.746
12.64000 15.568
12.66000 16.883
12.68000 15.638
12.70000 21.015
12.72000 21.682
12.74000 24.010
12.76000 27.326
12.78000 19.758
12.80000 17.291
12.82000 19.190
12.84000 21.678
12.86000 25.073
12.88000 25.623
12.90000 16.119
12.92000 21.299
12.94000 14.011
12.96000 16.210
12.98000 22.738
13.00000 19.360
13.02000 14.123
13.04000 16.956
13.06000 30.577
13.08000 23.654
13.10000 17.024
13.12000 17.176
13.14000 21.083
13.16000 16.390
13.18000 26.792
13.20000 36.450
13.22000 35.836
13.24000 25.535
13.26000 11.718
13.28000 20.051
13.30000 32.326
13.32000 30.860
13.34000 21.382
13.36000 10.430
13.38000 23.263
13.40000 20.544
13.42000 12.850
13.44000 18.514
13.46000 9.241
13.48000 10.953
13.50000 12.963
13.52000 8.161
13.54000 16.794
13.56000 19.531
13.58000 18.083
13.60000 16.163
13.62000 15.440
13.64000 13.201
13.66000 14.749
13.68000 16.284
13.70000 14.315
13.72000 18.609
13.74000 16.864
13.76000 18.287
13.78000 14.328
13.80000 8.528
13.82000 15.633
13.84000 11.713
13.86000 12.371
13.88000 15.757
13.90000 8.523
13.92000 9.212
13.94000 19.581
13.96000 14.781
13.98000 10.047
14.00000 4.728
14.02000 6.366
14.04000 9.847
14.06000 14.851
14.08000 14.398
14.10000 14.133
14.12000 14.971
14.14000 12.650
14.16000 18.265
14.18000 7.001
14.20000 15.806
14.22000 11.020
14.24000 11.440
14.26000 15.906
14.28000 18.158
14.30000 8.152
14.32000 9.181
14.34000 13.979
14.36000 14.624
14.38000 12.864
14.40000 23.378
14.42000 18.527
14.44000 6.002
14.46000 12.010
14.48000 20.584
14.50000 17.803
14.52000 16.903
14.54000 9.006
14.56000 1.915
14.58000 8.400
14.60000 15.175
14.62000 11.511
14.64000 5.341
14.66000 5.522
14.68000 9.502
14.70000 8.150
14.72000 11.828
14.74000 2.349
14.76000 -1.186
14.78000 13.241
14.80000 11.089
14.82000 1.776
14.84000 14.795
14.86000 14.399
14.88000 5.044
14.90000 4.602
14.92000 4.354
14.94000 4.980
14.96000 10.174
14.98000 -1.112
15.00000 5.924
15.02000 5.675
15.04000 3.354
15.06000 9.304
15.08000 5.562
15.10000 8.900
15.12000 9.318
15.14000 3.535
15.16000 2.423
15.18000 10.443
15.20000 7.185
15.22000 5.242
15.24000 7.968
15.26000 7.787
15.28000 5.042
15.30000 14.499
15.32000 19.210
15.34000 12.351
15.36000 13.557
15.38000 14.939
15.40000 10.266
15.42000 13.190
15.44000 10.053
15.46000 7.389
15.48000 4.522
15.50000 12.156
15.52000 9.806
15.54000 9.476
15.56000 5.811
15.58000 4.778
15.60000 16.438
15.62000 12.670
15.64000 5.425
15.66000 11.049
15.68000 24.382
15.70000 18.916
15.72000 15.871
15.74000 8.457
15.76000 6.386
15.78000 9.641
15.80000 7.131
15.82000 2.750
15.84000 3.088
15.86000 1.508
15.88000 10.279
15.90000 6.594
15.92000 3.650
15.94000 9.190
15.96000 9.723
15.98000 4.314
16.00000 2.905
16.02000 1.399
16.04000 4.678
16.06000 6.113
16.08000 13.703
16.10000 21.378
16.12000 14.519
16.14000 7.163
16.16000 1.047
16.18000 -4.414
16.20000 -4.413
16.22000 2.132
16.24000 1.450
16.26000 1.493
16.28000 -1.594
16.30000 9.903
16.32000 15.603
16.34000 9.129
16.36000 -0.881
16.38000 -4.410
16.40000 0.921
16.42000 -2.804
16.44000 6.813
16.46000 11.443
16.48000 7.139
16.50000 6.517
16.52000 8.545
16.54000 9.347
16.56000 8.613
16.58000 2.791
16.60000 12.830
16.62000 6.610
16.64000 1.546
16.66000 1.488
16.68000 4.325
16.70000 8.675
16.72000 4.617
16.74000 2.625
16.76000 -1.223
16.78000 -1.618
16.80000 3.018
16.82000 9.890
16.84000 8.210
16.86000 16.569
16.88000 15.309
16.90000 14.425
16.92000 10.258
16.94000 8.158
16.96000 11.003
16.98000 11.535
17.00000 12.454
17.02000 7.800
17.04000 9.707
17.06000 10.234
17.08000 2.720
17.10000 -2.496
17.12000 4.766
17.14000 8.118
17.16000 2.556
17.18000 2.631
17.20000 0.883
17.22000 6.236
17.24000 1.695
17.26000 1.441
17.28000 0.964
17.30000 0.968
17.32000 4.046
17.34000 1.628
17.36000 -3.156
17.38000 0.296
17.40000 5.367
17.42000 6.244
17.44000 -0.684
17.46000 5.211
17.48000 6.114
17.50000 5.715
17.52000 4.707
17.54000 7.640
17.56000 6.944
17.58000 14.491
17.60000 15.299
17.62000 11.400
17.64000 10.081
17.66000 5.593
17.68000 6.109
17.70000 4.507
17.72000 2.985
17.74000 3.901
17.76000 4.198
17.78000 7.008
17.80000 2.228
17.82000 -1.747
17.84000 4.104
17.86000 5.689
17.88000 2.869
17.90000 7.073
17.92000 9.826
17.94000 6.918
17.96000 13.332
17.98000 13.935
18.00000 3.664
18.02000 -3.009
18.04000 0.813
18.06000 8.513
18.08000 2.568
18.10000 -0.392
18.12000 2.563
18.14000 10.453
18.16000 7.192
18.18000 6.242
18.20000 8.867
18.22000 9.789
18.24000 2.172
18.26000 0.609
18.28000 7.042
18.30000 3.967
18.32000 4.126
18.34000 14.648
18.36000 15.148
18.38000 6.664
18.40000 1.274
18.42000 3.079
18.44000 1.990
18.46000 5.106
18.48000 -0.681
18.50000 0.716
18.52000 8.313
18.54000 5.973
18.56000 0.784
18.58000 3.437
18.60000 4.657
18.62000 5.962
18.64000 5.432
18.66000 1.193
18.68000 10.890
18.70000 4.595
18.72000 -4.267
18.74000 2.137
18.76000 9.348
18.78000 9.921
18.80000 8.635
18.82000 0.032
18.84000 3.532
18.86000 0.536
18.88000 10.601
18.90000 11.505
18.92000 7.324
18.94000 8.752
18.96000 4.926
18.98000 -0.323
19.00000 -1.299
19.02000 11.023
19.04000 9.153
19.06000 2.236
19.08000 5.664
19.10000 7.767
19.12000 2.786
19.14000 -2.981
19.16000 -0.549
19.18000 4.622
19.20000 5.819
19.22000 5.805
19.24000 9.911
19.26000 9.548
19.28000 9.377
19.30000 8.433
19.32000 2.735
19.34000 3.266
19.36000 11.555
19.38000 3.104
19.40000 5.296
19.42000 10.795
19.44000 13.581
19.46000 5.423
19.48000 -2.758
19.50000 0.674
19.52000 9.195
19.54000 11.367
19.56000 10.220
19.58000 1.199
19.60000 -4.245
19.62000 -0.067
19.64000 -2.275
19.66000 -1.977
19.68000 0.138
19.70000 5.492
19.72000 5.791
19.74000 6.430
19.76000 4.742
19.78000 4.577
19.80000 4.231
19.82000 4.577
19.84000 5.079
19.86000 -1.556
19.88000 -0.093
19.90000 7.274
19.92000 7.597
19.94000 8.114
19.96000 7.415
19.98000 10.028
20.00000 7.830
20.02000 6.317
20.04000 5.648
20.06000 -1.782
20.08000 3.085
20.10000 1.861
20.12000 0.661
20.14000 -1.150
20.16000 5.181
20.18000 5.068
20.20000 11.411
20.22000 6.957
20.24000 -4.207
20.26000 -1.694
20.28000 2.109
20.30000 4.062
20.32000 -0.795
20.34000 -0.522
20.36000 -1.962
20.38000 0.213
20.40000 -0.308
20.42000 4.587
20.44000 9.210
20.46000 5.595
20.48000 4.506
20.50000 2.439
20.52000 7.020
20.54000 8.697
20.56000 10.750
20.58000 10.840
20.60000 -1.762
20.62000 2.248
20.64000 4.211
20.66000 5.554
20.68000 8.849
20.70000 5.271
20.72000 3.213
20.74000 2.800
20.76000 4.108
20.78000 7.857
20.80000 4.287
20.82000 6.806
20.84000 -1.144
20.86000 -0.035
20.88000 6.412
20.90000 11.241
20.92000 9.688
20.94000 3.397
20.96000 -1.519
20.98000 1.459
21.00000 4.676
21.02000 6.283
21.04000 5.061
21.06000 8.864
21.08000 3.720
21.10000 6.335
21.12000 11.413
21.14000 3.043
21.16000 -4.148
21.18000 -3.797
21.20000 5.392
21.22000 7.871
21.24000 8.342
21.26000 8.084
21.28000 1.923
21.30000 2.784
21.32000 6.349
21.34000 1.002
21.36000 -1.579
21.38000 3.706
21.40000 2.051
21.42000 2.566
21.44000 5.993
21.46000 5.491
21.48000 2.406
21.50000 9.977
21.52000 14.480
21.54000 5.273
21.56000 1.351
21.58000 -0.813
21.60000 -3.710
21.62000 6.165
21.64000 9.212
21.66000 8.223
21.68000 6.348
21.70000 6.178
21.72000 8.889
21.74000 5.061
21.76000 1.041
21.78000 -2.076
21.80000 2.105
21.82000 -1.655
21.84000 -4.115
21.86000 -0.445
21.88000 1.763
21.90000 6.545
21.92000 4.632
21.94000 1.434
21.96000 5.576
21.98000 8.925
22.00000 2.513
22.02000 -3.736
22.04000 3.171
22.06000 5.988
22.08000 6.183
22.10000 0.849
22.12000 0.546
22.14000 -0.984
22.16000 6.882
22.18000 2.809
22.20000 2.029
22.22000 0.537
22.24000 1.246
22.26000 5.414
22.28000 2.931
22.30000 0.651
22.32000 0.887
22.34000 0.343
22.36000 5.017
22.38000 4.812
22.40000 7.832
22.42000 10.231
22.44000 6.953
22.46000 13.161
22.48000 5.471
22.50000 1.424
22.52000 10.315
22.54000 5.390
22.56000 2.923
22.58000 2.455
22.60000 4.885
22.62000 2.583
22.64000 5.231
22.66000 7.171
22.68000 5.430
22.70000 5.058
22.72000 -1.402
22.74000 2.965
22.76000 5.589
22.78000 5.536
22.80000 4.359
22.82000 2.693
22.84000 2.314
22.86000 3.995
22.88000 8.460
22.90000 5.492
22.92000 0.868
22.94000 3.468
22.96000 1.680
22.98000 3.488
23.00000 4.288
23.02000 1.800
23.04000 -4.043
23.06000 6.147
23.08000 3.626
23.10000 4.736
23.12000 -0.170
23.14000 -0.975
23.16000 6.695
23.18000 13.818
23.20000 4.218
23.22000 9.077
23.24000 7.033
23.26000 2.672
23.28000 1.419
23.30000 2.017
23.32000 2.334
23.34000 3.961
23.36000 3.907
23.38000 0.492
23.40000 7.503
23.42000 9.282
23.44000 11.852
23.46000 12.287
23.48000 7.971
23.50000 -4.016
23.52000 2.332
23.54000 0.351
23.56000 0.629
23.58000 5.675
23.60000 5.376
23.62000 2.624
23.64000 -0.191
23.66000 7.654
23.68000 10.430
23.70000 7.295
23.72000 1.814
23.74000 0.169
23.76000 4.125
23.78000 6.826
23.80000 9.261
23.82000 3.631
23.84000 8.870
23.86000 4.156
23.88000 2.056
23.90000 2.652
23.92000 6.639
23.94000 7.643
23.96000 5.033
23.98000 7.936
24.00000 -0.749
24.02000 3.968
24.04000 4.687
24.06000 -1.237
24.08000 -1.111
24.10000 -1.620
24.12000 -2.360
24.14000 1.358
24.16000 0.922
24.18000 3.905
24.20000 4.156
24.22000 6.773
24.24000 4.776
24.26000 3.532
24.28000 -2.638
24.30000 -3.981
24.32000 4.145
24.34000 4.242
24.36000 3.636
24.38000 4.015
24.40000 7.686
24.42000 3.726
24.44000 1.615
24.46000 1.206
24.48000 4.232
24.50000 4.007
24.52000 -3.973
24.54000 -1.996
24.56000 3.886
24.58000 -0.730
24.60000 2.256
24.62000 1.367
24.64000 4.097
24.66000 -1.817
24.68000 1.339
24.70000 0.755
24.72000 1.145
24.74000 3.048
24.76000 1.907
24.78000 6.656
24.80000 8.131
24.82000 9.996
24.84000 8.850
24.86000 2.972
24.88000 6.862
24.90000 3.869
24.92000 2.805
24.94000 2.953
24.96000 3.657
24.98000 4.339
25.00000 0.036
25.02000 0.738
25.04000 0.592
25.06000 3.817
25.08000 4.585
25.10000 -1.824
25.12000 -3.947
25.14000 -1.583
25.16000 0.400
25.18000 2.106
25.20000 3.421
25.22000 3.546
25.24000 1.620
25.26000 -0.135
25.28000 -0.066
25.30000 -1.139
25.32000 3.440
25.34000 2.472
25.36000 1.502
25.38000 3.454
25.40000 0.741
25.42000 2.813
25.44000 8.408
25.46000 2.799
25.48000 2.416
25.50000 4.482
25.52000 1.411
25.54000 2.628
25.56000 0.365
25.58000 -2.154
25.60000 0.582
25.62000 0.853
25.64000 3.852
25.66000 2.844
25.68000 5.057
25.70000 5.427
25.72000 3.497
25.74000 0.830
25.76000 -0.602
25.78000 1.836
25.80000 2.560
25.82000 -0.550
25.84000 -2.837
25.86000 2.863
25.88000 0.435
25.90000 -2.088
25.92000 -3.900
25.94000 1.599
25.96000 3.889
25.98000 10.617
26.00000 4.875
26.02000 -1.899
26.04000 -1.828
26.06000 0.971
26.08000 0.429
26.10000 5.953
26.12000 4.972
26.14000 1.717
26.16000 4.692
26.18000 2.484
26.20000 2.306
26.22000 0.899
26.24000 2.051
26.26000 5.609
26.28000 3.074
26.30000 2.978
26.32000 6.216
26.34000 5.580
26.36000 3.870
26.38000 3.449
26.40000 4.562
26.42000 2.304
26.44000 3.381
26.46000 1.057
26.48000 4.145
26.50000 4.098
26.52000 -1.570
26.54000 -3.215
26.56000 5.992
26.58000 7.766
26.60000 1.450
26.62000 -0.625
26.64000 -0.161
26.66000 4.709
26.68000 1.522
26.70000 3.355
26.72000 -2.192
26.74000 0.451
26.76000 5.417
26.78000 1.260
26.80000 2.560
26.82000 0.764
26.84000 0.140
26.86000 4.786
26.88000 3.708
26.90000 6.119
26.92000 5.033
26.94000 6.480
26.96000 0.549
26.98000 -0.590
27.00000 3.330
27.02000 6.644
27.04000 2.588
27.06000 -1.128
27.08000 -3.829
27.10000 1.450
27.12000 3.719
27.14000 0.798
27.16000 7.171
27.18000 5.680
27.20000 9.143
27.22000 8.088
27.24000 4.777
27.26000 -1.083
27.28000 2.476
27.30000 -0.646
27.32000 -3.819
27.34000 3.228
27.36000 7.760
27.38000 9.033
27.40000 5.531
27.42000 3.976
27.44000 4.873
27.46000 0.818
27.48000 0.854
27.50000 0.811
27.52000 2.912
27.54000 6.748
27.56000 9.214
27.58000 6.025
27.60000 3.399
27.62000 2.263
27.64000 0.461
27.66000 2.192
27.68000 3.832
27.70000 6.478
27.72000 0.862
27.74000 -1.145
27.76000 0.831
27.78000 -0.762
27.80000 -1.816
27.82000 -2.905
27.84000 -2.590
27.86000 2.814
27.88000 3.595
27.90000 2.572
27.92000 1.335
27.94000 2.140
27.96000 4.551
27.98000 2.148
28.00000 2.290
28.02000 4.035
28.04000 0.238
28.06000 2.160
28.08000 7.094
28.10000 2.599
28.12000 0.932
28.14000 -1.231
28.16000 -3.530
28.18000 0.784
28.20000 2.252
28.22000 2.183
28.24000 2.342
28.26000 1.760
28.28000 2.210
28.30000 2.218
28.32000 -1.292
28.34000 -0.568
28.36000 3.268
28.38000 5.225
28.40000 4.335
28.42000 6.033
28.44000 8.210
28.46000 3.773
28.48000 -3.780
28.50000 0.420
28.52000 -0.799
28.54000 0.152
28.56000 1.668
28.58000 -1.285
28.60000 -1.397
28.62000 -0.490
28.64000 -2.525
28.66000 -1.023
28.68000 -1.003
28.70000 3.317
28.72000 1.064
28.74000 -0.760
28.76000 0.808
28.78000 2.086
28.80000 1.812
28.82000 -0.964
28.84000 1.651
28.86000 3.427
28.88000 -2.223
28.90000 -3.616
28.92000 3.282
28.94000 1.338
28.96000 -0.746
28.98000 0.825
29.00000 3.024
29.02000 6.015
29.04000 0.410
29.06000 -2.314
29.08000 -3.586
29.10000 0.834
29.12000 3.225
29.14000 8.073
29.16000 5.360
29.18000 2.789
29.20000 3.267
29.22000 -0.024
29.24000 -3.113
29.26000 5.031
29.28000 4.011
29.30000 0.562
29.32000 1.248
29.34000 2.034
29.36000 1.136
29.38000 0.171
29.40000 2.141
29.42000 2.089
29.44000 3.035
29.46000 3.246
29.48000 5.145
29.50000 7.790
29.52000 0.986
29.54000 5.388
29.56000 7.765
29.58000 2.460
29.60000 0.982
29.62000 2.755
29.64000 -2.231
29.66000 -3.239
29.68000 -3.694
29.70000 0.132
29.72000 4.113
29.74000 6.085
29.76000 8.387
29.78000 3.257
29.80000 0.440
29.82000 -0.288
29.84000 -0.335
29.86000 1.516
29.88000 2.941
29.90000 6.557
29.92000 7.363
29.94000 10.326
29.96000 4.947
29.98000 2.606
30.00000 6.986
30.02000 7.371
30.04000 4.683
30.06000 -1.974
30.08000 2.114
30.10000 4.274
30.12000 1.650
30.14000 0.228
30.16000 3.444
30.18000 2.120
30.20000 1.370
30.22000 1.854
30.24000 2.594
30.26000 0.585
30.28000 5.937
30.30000 7.029
30.32000 7.748
30.34000 9.440
30.36000 6.644
30.38000 3.872
30.40000 5.438
30.42000 0.641
30.44000 8.340
30.46000 3.021
30.48000 -3.620
30.50000 -0.290
30.52000 2.783
30.54000 7.829
30.56000 4.376
30.58000 9.350
30.60000 5.344
30.62000 6.615
30.64000 4.840
30.66000 4.642
30.68000 1.960
30.70000 3.745
30.72000 5.723
30.74000 4.568
30.76000 1.886
30.78000 -0.384
30.80000 -0.378
30.82000 4.874
30.84000 5.215
30.86000 3.706
30.88000 2.792
30.90000 7.804
30.92000 7.249
30.94000 5.770
30.96000 7.204
30.98000 7.355
31.00000 8.637
31.02000 5.614
31.04000 3.393
31.06000 3.780
31.08000 5.384
31.10000 4.024
31.12000 -0.082
31.14000 2.159
31.16000 6.538
31.18000 6.675
31.20000 5.790
31.22000 2.857
31.24000 0.670
31.26000 2.505
31.28000 1.269
31.30000 2.366
31.32000 5.062
31.34000 3.291
31.36000 5.021
31.38000 6.713
31.40000 5.797
31.42000 6.720
31.44000 3.734
31.46000 -1.172
31.48000 0.404
31.50000 5.556
31.52000 3.563
31.54000 6.642
31.56000 8.027
31.58000 2.811
31.60000 0.928
31.62000 6.450
31.64000 1.353
31.66000 4.949
31.68000 5.368
31.70000 4.244
31.72000 4.430
31.74000 5.381
31.76000 5.891
31.78000 7.427
31.80000 6.699
31.82000 4.214
31.84000 1.526
31.86000 1.616
31.88000 0.848
31.90000 -3.558
31.92000 0.556
31.94000 6.989
31.96000 5.014
31.98000 4.006
32.00000 7.100
32.02000 13.074
32.04000 12.963
32.06000 5.318
32.08000 -0.896
32.10000 2.132
32.12000 6.913
32.14000 5.343
32.16000 3.881
32.18000 8.148
32.20000 2.742
32.22000 4.390
32.24000 6.359
32.26000 5.992
32.28000 10.898
32.30000 7.180
32.32000 1.728
32.34000 6.028
32.36000 7.999
32.38000 4.798
32.40000 7.186
32.42000 5.414
32.44000 4.053
32.46000 1.446
32.48000 0.916
32.50000 4.242
32.52000 3.935
32.54000 -0.663
32.56000 5.447
32.58000 3.813
32.60000 -3.563
32.62000 0.033
32.64000 1.635
32.66000 0.001
32.68000 1.793
32.70000 3.543
32.72000 3.261
32.74000 7.976
32.76000 3.757
32.78000 6.027
32.80000 3.373
32.82000 3.667
32.84000 6.025
32.86000 6.558
32.88000 3.713
32.90000 -0.381
32.92000 2.132
32.94000 7.764
32.96000 4.856
32.98000 3.579
33.00000 -0.240
33.02000 -0.220
33.04000 2.555
33.06000 -1.297
33.08000 -2.555
33.10000 0.712
33.12000 0.174
33.14000 -0.170
33.16000 1.950
33.18000 1.705
33.20000 5.250
33.22000 6.274
33.24000 6.537
33.26000 4.581
33.28000 -1.022
33.30000 4.230
33.32000 10.597
33.34000 5.404
33.36000 1.124
33.38000 4.792
33.40000 10.355
33.42000 7.297
33.44000 6.001
33.46000 5.620
33.48000 -1.609
33.50000 -0.047
33.52000 1.176
33.54000 2.391
33.56000 -0.267
33.58000 2.129
33.60000 0.787
33.62000 -2.999
33.64000 0.503
33.66000 -0.883
33.68000 -0.656
33.70000 6.286
33.72000 3.638
33.74000 3.843
33.76000 4.903
33.78000 0.883
33.80000 1.710
33.82000 5.345
33.84000 3.749
33.86000 2.209
33.88000 -3.544
33.90000 -2.600
33.92000 1.593
33.94000 4.116
33.96000 3.035
33.98000 -0.545
34.00000 2.238
34.02000 4.971
34.04000 10.777
34.06000 10.946
34.08000 1.706
34.10000 4.414
34.12000 6.801
34.14000 2.741
34.16000 1.744
34.18000 6.238
34.20000 1.520
34.22000 -1.966
34.24000 -1.396
34.26000 0.924
34.28000 3.598
34.30000 1.319
34.32000 2.372
34.34000 3.847
34.36000 2.638
34.38000 5.106
34.40000 1.564
34.42000 3.472
34.44000 6.406
34.46000 1.063
34.48000 1.181
34.50000 5.296
34.52000 9.461
34.54000 8.295
34.56000 4.716
34.58000 -2.246
34.60000 -3.533
34.62000 0.352
34.64000 -1.460
34.66000 -0.291
34.68000 -1.294
34.70000 4.517
34.72000 7.017
34.74000 4.396
34.76000 3.049
34.78000 2.387
34.80000 -0.086
34.82000 1.607
34.84000 1.431
34.86000 3.278
34.88000 4.515
34.90000 1.011
34.92000 3.752
34.94000 3.897
34.96000 1.147
34.98000 5.959
35.00000 5.649
35.02000 3.206
35.04000 -1.373
35.06000 -1.453
35.08000 0.439
35.10000 2.191
35.12000 0.039
35.14000 0.322
35.16000 -0.447
35.18000 -0.943
35.20000 2.375
35.22000 1.126
35.24000 3.941
35.26000 3.886
35.28000 3.003
35.30000 -1.053
35.32000 -1.681
35.34000 -1.743
35.36000 -2.767
35.38000 0.967
35.40000 -0.733
35.42000 -0.434
35.44000 4.301
35.46000 1.062
35.48000 -3.506
35.50000 0.611
35.52000 3.145
35.54000 1.147
35.56000 1.119
35.58000 -2.309
35.60000 -1.369
35.62000 0.318
35.64000 3.692
35.66000 1.523
35.68000 1.526
35.70000 4.097
35.72000 2.536
35.74000 2.672
35.76000 -3.516
35.78000 -0.175
35.80000 0.817
35.82000 0.842
35.84000 0.994
35.86000 3.514
35.88000 4.533
35.90000 6.211
35.92000 2.267
35.94000 3.096
35.96000 2.039
35.98000 1.941
36.00000 -0.019
36.02000 -0.012
36.04000 -0.688
36.06000 -2.684
36.08000 3.436
36.10000 5.524
36.12000 6.042
36.14000 1.062
36.16000 0.369
36.18000 0.725
36.20000 0.086
36.22000 1.598
36.24000 3.455
36.26000 4.952
36.28000 4.534
36.30000 3.313
36.32000 0.232
36.34000 -0.815
36.36000 4.991
36.38000 4.233
36.40000 0.608
36.42000 -0.964
36.44000 -0.339
36.46000 3.764
36.48000 1.944
36.50000 -1.698
36.52000 -1.044
36.54000 0.370
36.56000 2.770
36.58000 0.065
36.60000 2.094
36.62000 2.725
36.64000 2.237
36.66000 2.046
36.68000 -2.270
36.70000 -2.273
36.72000 4.689
36.74000 1.022
36.76000 4.980
36.78000 -0.379
36.80000 -1.869
36.82000 0.607
36.84000 2.318
36.86000 4.905
36.88000 8.891
36.90000 2.046
36.92000 1.173
36.94000 1.375
36.96000 1.584
36.98000 -3.529
37.00000 -0.841
37.02000 -2.277
37.04000 -0.202
37.06000 1.800
37.08000 3.704
37.10000 -0.469
37.12000 -0.646
37.14000 2.895
37.16000 1.048
37.18000 0.369
37.20000 2.916
37.22000 -0.486
37.24000 -3.541
37.26000 -0.280
37.28000 1.419
37.30000 2.621
37.32000 -2.341
37.34000 -3.549
37.36000 -2.154
37.38000 0.533
37.40000 5.813
37.42000 0.801
37.44000 -1.554
37.46000 2.299
37.48000 4.178
37.50000 2.642
37.52000 1.189
37.54000 2.430
37.56000 0.502
37.58000 0.920
37.60000 1.304
37.62000 2.947
37.64000 6.695
37.66000 5.772
37.68000 4.536
37.70000 4.133
37.72000 3.362
37.74000 7.439
37.76000 -2.275
37.78000 1.374
37.80000 3.521
37.82000 5.082
37.84000 8.505
37.86000 7.143
37.88000 4.646
37.90000 5.630
37.92000 6.195
37.94000 6.188
37.96000 5.130
37.98000 4.247
38.00000 8.193
38.02000 8.688
38.04000 6.427
38.06000 8.708
38.08000 8.786
38.10000 3.700
38.12000 9.783
38.14000 13.753
38.16000 11.808
38.18000 10.163
38.20000 7.592
38.22000 12.893
38.24000 12.683
38.26000 9.993
38.28000 7.230
38.30000 17.191
38.32000 14.167
38.34000 17.247
38.36000 17.471
38.38000 15.479
38.40000 13.769
38.42000 16.062
38.44000 15.293
38.46000 13.360
38.48000 13.946
38.50000 18.682
38.52000 21.215
38.54000 19.293
38.56000 15.867
38.58000 19.665
38.60000 20.350
38.62000 16.545
38.64000 18.761
38.66000 16.853
38.68000 16.865
38.70000 20.039
38.72000 22.537
38.74000 23.681
38.76000 29.386
38.78000 27.266
38.80000 26.828
38.82000 30.390
38.84000 25.810
38.86000 29.302
38.88000 28.476
38.90000 27.121
38.92000 25.050
38.94000 30.574
38.96000 31.227
38.98000 28.437
39.00000 30.107
39.02000 39.321
39.04000 40.611
39.06000 37.218
39.08000 40.049
39.10000 38.132
39.12000 40.461
39.14000 41.703
39.16000 41.538
39.18000 45.785
39.20000 47.510
39.22000 49.614
39.24000 52.125
39.26000 52.879
39.28000 54.817
39.30000 59.670
39.32000 60.602
39.34000 59.634
39.36000 64.117
39.38000 71.574
39.40000 77.643
39.42000 77.307
39.44000 81.578
39.46000 86.935
39.48000 83.691
39.50000 85.662
39.52000 93.697
39.54000 109.691
39.56000 110.028
39.58000 110.730
39.60000 114.989
39.62000 128.894
39.64000 130.372
39.66000 138.040
39.68000 147.576
39.70000 157.791
39.72000 163.474
39.74000 172.890
39.76000 182.170
39.78000 195.525
39.80000 202.290
39.82000 214.880
39.84000 229.405
39.86000 235.897
39.88000 256.270
39.90000 272.143
39.92000 285.102
39.94000 293.846
39.96000 313.067
39.98000 342.115
40.00000 359.119
40.02000 379.154
40.04000 394.408
40.06000 412.213
40.08000 431.615
40.10000 459.484
40.12000 478.656
40.14000 505.677
40.16000 522.129
40.18000 540.552
40.20000 562.905
40.22000 580.182
40.24000 597.277
40.26000 612.074
40.28000 640.460
40.30000 660.469
40.32000 666.473
40.34000 673.233
40.36000 680.965
40.38000 685.009
40.40000 688.706
40.42000 700.855
40.44000 691.208
40.46000 686.807
40.48000 685.739
40.50000 672.644
40.52000 657.647
40.54000 647.801
40.56000 639.770
40.58000 629.263
40.60000 606.542
40.62000 587.794
40.64000 577.229
40.66000 553.613
40.68000 540.895
40.70000 526.291
40.72000 502.389
40.74000 476.941
40.76000 458.046
40.78000 435.102
40.80000 412.117
40.82000 399.935
40.84000 390.134
40.86000 370.197
40.88000 353.148
40.90000 326.078
40.92000 313.559
40.94000 292.572
40.96000 281.250
40.98000 270.603
41.00000 261.645
41.02000 237.864
41.04000 222.718
41.06000 219.043
41.08000 208.083
41.10000 196.775
41.12000 176.911
41.14000 167.922
41.16000 167.346
41.18000 156.895
41.20000 150.045
41.22000 141.635
41.24000 132.133
41.26000 119.762
41.28000 115.882
41.30000 114.305
41.32000 103.603
41.34000 99.278
41.36000 96.027
41.38000 86.338
41.40000 83.897
41.42000 85.331
41.44000 81.446
41.46000 78.103
41.48000 74.458
41.50000 75.562
41.52000 71.547
41.54000 60.589
41.56000 53.443
41.58000 52.874
41.60000 51.095
41.62000 47.912
41.64000 47.545
41.66000 46.163
41.68000 41.892
41.70000 41.241
41.72000 36.711
41.74000 37.132
41.76000 34.157
41.78000 31.858
41.80000 33.539
41.82000 30.306
41.84000 28.360
41.86000 23.461
41.88000 23.875
41.90000 23.278
41.92000 26.609
41.94000 21.801
41.96000 18.138
41.98000 19.130
42.00000 20.705
42.02000 21.423
42.04000 22.043
42.06000 20.478
42.08000 19.664
42.10000 13.753
42.12000 14.585
42.14000 16.916
42.16000 14.768
42.18000 12.093
42.20000 11.071
42.22000 12.641
42.24000 14.109
42.26000 9.294
42.28000 8.210
42.30000 6.263
42.32000 8.511
42.34000 14.255
42.36000 16.061
42.38000 8.717
42.40000 6.772
42.42000 8.640
42.44000 7.208
42.46000 10.899
42.48000 9.304
42.50000 9.449
42.52000 6.813
42.54000 4.479
42.56000 5.340
42.58000 5.420
42.60000 4.950
42.62000 2.449
42.64000 1.608
42.66000 5.035
42.68000 9.192
42.70000 7.961
42.72000 3.719
42.74000 -0.272
42.76000 -0.465
42.78000 5.659
42.80000 6.081
42.82000 4.402
42.84000 4.148
42.86000 2.478
42.88000 0.296
42.90000 2.001
42.92000 0.761
42.94000 -0.828
42.96000 -0.967
42.98000 0.741
43.00000 1.354
43.02000 3.028
43.04000 0.628
43.06000 0.708
43.08000 1.293
43.10000 2.302
43.12000 2.777
43.14000 -2.065
43.16000 -2.902
43.18000 -2.429
43.20000 -1.651
43.22000 -0.827
43.24000 2.616
43.26000 0.000
43.28000 2.566
43.30000 4.714
43.32000 3.138
43.34000 7.877
43.36000 0.422
43.38000 -3.428
43.40000 -2.615
43.42000 0.290
43.44000 2.529
43.46000 1.965
43.48000 -0.771
43.50000 -0.369
43.52000 0.535
43.54000 -3.170
43.56000 -2.305
43.58000 -0.633
43.60000 0.204
43.62000 2.244
43.64000 1.996
43.66000 -1.348
43.68000 -0.843
43.70000 1.086
43.72000 -0.538
43.74000 1.091
43.76000 1.298
43.78000 1.906
43.80000 -1.381
43.82000 2.961
43.84000 0.189
43.86000 -1.076
43.88000 -1.455
43.90000 1.450
43.92000 3.519
43.94000 0.172
43.96000 -1.525
43.98000 0.616
44.00000 1.175
44.02000 -2.550
44.04000 -2.061
44.06000 1.779
44.08000 1.122
44.10000 -2.806
44.12000 -0.543
44.14000 -2.479
44.16000 -3.179
44.18000 -0.748
44.20000 0.861
44.22000 -1.077
44.24000 1.009
44.26000 -0.385
44.28000 -1.880
44.30000 1.008
44.32000 -1.284
44.34000 -3.356
44.36000 -0.275
44.38000 -0.610
44.40000 1.904
44.42000 1.681
44.44000 2.985
44.46000 1.336
44.48000 -1.367
44.50000 -0.651
44.52000 0.028
44.54000 -0.486
44.56000 -2.324
44.58000 1.723
44.60000 -0.201
44.62000 1.439
44.64000 -2.333
44.66000 -0.727
44.68000 0.275
44.70000 4.462
44.72000 4.334
44.74000 3.472
44.76000 0.841
44.78000 1.893
44.80000 -0.542
44.82000 0.028
44.84000 2.230
44.86000 1.174
44.88000 2.010
44.90000 2.073
44.92000 2.341
44.94000 0.530
44.96000 3.376
44.98000 8.286
45.00000 3.337
45.02000 -2.082
45.04000 -3.350
45.06000 3.536
45.08000 3.886
45.10000 1.608
45.12000 3.861
45.14000 4.329
45.16000 0.946
45.18000 -0.475
45.20000 -1.417
45.22000 0.116
45.24000 0.797
45.26000 8.815
45.28000 7.017
45.30000 6.673
45.32000 2.686
45.34000 0.787
45.36000 2.395
45.38000 6.638
45.40000 7.831
45.42000 9.227
45.44000 7.588
45.46000 11.368
45.48000 8.863
45.50000 5.297
45.52000 8.047
45.54000 8.911
45.56000 8.881
45.58000 9.335
45.60000 12.291
45.62000 11.412
45.64000 10.657
45.66000 14.000
45.68000 17.219
45.70000 13.853
45.72000 5.843
45.74000 11.181
45.76000 14.730
45.78000 16.752
45.80000 17.072
45.82000 13.296
45.84000 15.075
45.86000 18.325
45.88000 21.360
45.90000 22.159
45.92000 18.309
45.94000 18.632
45.96000 28.432
45.98000 28.353
46.00000 21.921
46.02000 22.826
46.04000 23.550
46.06000 28.473
46.08000 28.863
46.10000 30.956
46.12000 32.306
46.14000 39.089
46.16000 39.818
46.18000 43.943
46.20000 41.703
46.22000 41.941
46.24000 47.799
46.26000 48.149
46.28000 48.462
46.30000 49.320
46.32000 53.070
46.34000 51.824
46.36000 57.473
46.38000 54.086
46.40000 54.970
46.42000 60.612
46.44000 62.797
46.46000 66.421
46.48000 69.360
46.50000 73.191
46.52000 73.779
46.54000 75.103
46.56000 72.419
46.58000 79.897
46.60000 83.808
46.62000 90.041
46.64000 88.562
46.66000 85.847
46.68000 86.334
46.70000 91.949
46.72000 95.133
46.74000 94.981
46.76000 98.960
46.78000 97.035
46.80000 102.367
46.82000 114.053
46.84000 113.711
46.86000 118.127
46.88000 119.092
46.90000 111.142
46.92000 113.655
46.94000 117.770
46.96000 115.218
46.98000 111.237
47.00000 113.707
47.02000 117.538
47.04000 120.546
47.06000 129.740
47.08000 127.462
47.10000 120.108
47.12000 119.295
47.14000 118.509
47.16000 122.747
47.18000 114.768
47.20000 118.305
47.22000 114.072
47.24000 109.555
47.26000 107.783
47.28000 107.375
47.30000 104.064
47.32000 99.991
47.34000 92.440
47.36000 91.306
47.38000 95.045
47.40000 94.650
47.42000 92.736
47.44000 86.948
47.46000 87.118
47.48000 81.270
47.50000 75.026
47.52000 75.280
47.54000 81.634
47.56000 74.254
47.58000 71.244
47.60000 62.727
47.62000 61.132
47.64000 62.338
47.66000 55.737
47.68000 52.398
47.70000 47.998
47.72000 49.288
47.74000 47.654
47.76000 39.590
47.78000 40.945
47.80000 40.101
47.82000 35.420
47.84000 38.265
47.86000 34.465
47.88000 30.115
47.90000 31.573
47.92000 35.426
47.94000 30.456
47.96000 21.889
47.98000 21.293
48.00000 26.864
48.02000 20.658
48.04000 13.814
48.06000 14.084
48.08000 14.500
48.10000 15.590
48.12000 18.013
48.14000 16.191
48.16000 13.539
48.18000 18.026
48.20000 12.232
48.22000 8.609
48.24000 9.482
48.26000 11.115
48.28000 12.792
48.30000 11.967
48.32000 8.894
48.34000 6.079
48.36000 8.732
48.38000 6.802
48.40000 3.549
48.42000 6.481
48.44000 6.128
48.46000 3.468
48.48000 0.543
48.50000 -0.789
48.52000 2.558
48.54000 6.991
48.56000 2.552
48.58000 3.742
48.60000 3.816
48.62000 5.170
48.64000 2.282
48.66000 6.583
48.68000 2.869
48.70000 3.995
48.72000 6.835
48.74000 3.817
48.76000 2.027
48.78000 3.024
48.80000 0.670
48.82000 3.058
48.84000 4.155
48.86000 0.786
48.88000 -2.969
48.90000 -1.308
48.92000 2.530
48.94000 2.585
48.96000 2.789
48.98000 0.550
49.00000 1.384
49.02000 6.096
49.04000 3.953
49.06000 1.356
49.08000 -2.592
49.10000 -0.765
49.12000 -1.002
49.14000 -0.868
49.16000 -1.051
49.18000 -0.960
49.20000 3.627
49.22000 0.860
49.24000 1.364
49.26000 -1.629
49.28000 -2.878
49.30000 1.898
49.32000 3.669
49.34000 8.079
49.36000 5.659
49.38000 3.003
49.40000 1.430
49.42000 2.258
49.44000 -1.402
49.46000 -2.839
49.48000 1.098
49.50000 5.913
49.52000 0.875
49.54000 -2.726
49.56000 1.419
49.58000 2.818
49.60000 5.948
49.62000 2.418
49.64000 2.012
49.66000 2.892
49.68000 6.870
49.70000 4.663
49.72000 3.773
49.74000 4.311
49.76000 5.120
49.78000 -0.981
49.80000 -0.596
49.82000 3.799
49.84000 6.078
49.86000 1.709
49.88000 0.917
49.90000 1.337
49.92000 2.418
49.94000 -0.927
49.96000 1.157
49.98000 8.340
50.00000 6.941
50.02000 -0.261
50.04000 -2.758
50.06000 -2.346
50.08000 3.772
50.10000 6.049
50.12000 3.839
50.14000 3.978
50.16000 6.379
50.18000 5.743
50.20000 3.077
50.22000 5.715
50.24000 3.936
50.26000 -2.739
50.28000 1.431
50.30000 2.190
50.32000 3.705
50.34000 5.186
50.36000 3.651
50.38000 1.041
50.40000 -1.672
50.42000 2.755
50.44000 3.992
50.46000 3.649
50.48000 2.460
50.50000 6.291
50.52000 7.849
50.54000 6.149
50.56000 1.513
50.58000 1.716
50.60000 2.231
50.62000 4.406
50.64000 6.931
50.66000 4.873
50.68000 -1.167
50.70000 -0.431
50.72000 4.743
50.74000 2.458
50.76000 1.884
50.78000 4.233
50.80000 3.305
50.82000 3.801
50.84000 1.094
50.86000 1.460
50.88000 1.469
50.90000 5.213
50.92000 7.047
50.94000 0.661
50.96000 1.089
50.98000 1.839
51.00000 2.037
51.02000 2.947
51.04000 0.362
51.06000 2.585
51.08000 3.841
51.10000 3.776
51.12000 1.889
51.14000 2.123
51.16000 1.516
51.18000 3.836
51.20000 3.867
51.22000 7.726
51.24000 4.210
51.26000 4.687
51.28000 1.886
51.30000 -2.684
51.32000 -2.683
51.34000 0.416
51.36000 2.349
51.38000 4.166
51.40000 4.570
51.42000 6.736
51.44000 1.807
51.46000 1.892
51.48000 9.372
51.50000 4.910
51.52000 1.839
51.54000 -0.089
51.56000 1.288
51.58000 3.585
51.60000 3.085
51.62000 9.735
51.64000 6.230
51.66000 3.338
51.68000 2.261
51.70000 0.886
51.72000 3.207
51.74000 4.261
51.76000 0.880
51.78000 6.868
51.80000 2.243
51.82000 0.593
51.84000 0.002
51.86000 -0.385
51.88000 -1.232
51.90000 -0.694
51.92000 -0.692
51.94000 3.519
51.96000 2.512
51.98000 0.758
52.00000 1.108
52.02000 1.457
52.04000 2.201
52.06000 3.842
52.08000 4.863
52.10000 2.654
52.12000 0.548
52.14000 -0.365
52.16000 2.462
52.18000 1.547
52.20000 0.795
52.22000 2.551
52.24000 3.693
52.26000 3.045
52.28000 3.661
52.30000 4.573
52.32000 4.258
52.34000 4.315
52.36000 4.373
52.38000 1.866
52.40000 4.277
52.42000 -1.479
52.44000 -2.000
52.46000 0.252
52.48000 1.672
52.50000 -0.046
52.52000 1.842
52.54000 -0.063
52.56000 -2.684
52.58000 0.644
52.60000 4.186
52.62000 6.422
52.64000 0.915
52.66000 -0.355
52.68000 -0.633
52.70000 5.221
52.72000 3.319
52.74000 4.563
52.76000 3.496
52.78000 -2.675
52.80000 -0.249
52.82000 0.410
52.84000 -0.603
52.86000 2.044
52.88000 2.291
52.90000 1.554
52.92000 1.709
52.94000 2.041
52.96000 2.220
52.98000 1.721
53.00000 0.352
53.02000 0.063
53.04000 0.879
53.06000 -1.463
53.08000 1.344
53.10000 2.697
53.12000 1.550
53.14000 2.000
53.16000 1.571
53.18000 1.178
53.20000 0.999
53.22000 4.561
53.24000 4.835
53.26000 2.618
53.28000 3.408
53.30000 4.985
53.32000 2.922
53.34000 -0.548
53.36000 -1.421
53.38000 -1.359
53.40000 2.962
53.42000 5.651
53.44000 -1.837
53.46000 -1.106
53.48000 4.994
53.50000 3.125
53.52000 1.053
53.54000 2.015
53.56000 4.577
53.58000 5.380
53.60000 1.373
53.62000 0.199
53.64000 2.581
53.66000 1.476
53.68000 0.508
53.70000 1.537
53.72000 3.272
53.74000 4.891
53.76000 2.276
53.78000 4.664
53.80000 5.982
53.82000 4.261
53.84000 3.605
53.86000 2.479
53.88000 3.477
53.90000 4.227
53.92000 3.633
53.94000 1.217
53.96000 1.646
53.98000 2.328
54.00000 6.071
54.02000 4.677
54.04000 -0.314
54.06000 -2.585
54.08000 -1.410
54.10000 2.969
54.12000 1.654
54.14000 2.159
54.16000 2.502
54.18000 2.130
54.20000 2.469
54.22000 0.351
54.24000 1.331
54.26000 0.355
54.28000 0.809
54.30000 0.510
54.32000 -2.485
54.34000 1.216
54.36000 0.327
54.38000 -0.770
54.40000 1.544
54.42000 3.696
54.44000 0.465
54.46000 3.673
54.48000 6.137
54.50000 2.530
54.52000 3.788
54.54000 3.789
54.56000 5.426
54.58000 5.826
54.60000 4.596
54.62000 5.057
54.64000 -0.973
54.66000 -1.156
54.68000 1.575
54.70000 1.543
54.72000 0.587
54.74000 5.623
54.76000 3.148
54.78000 3.620
54.80000 -1.791
54.82000 2.708
54.84000 -0.181
54.86000 0.408
54.88000 1.639
54.90000 2.917
54.92000 3.746
54.94000 -0.402
54.96000 0.550
54.98000 2.676
55.00000 1.081
55.02000 -0.587
55.04000 1.720
55.06000 5.371
55.08000 4.740
55.10000 8.486
55.12000 5.914
55.14000 5.056
55.16000 4.127
55.18000 1.860
55.20000 0.407
55.22000 2.581
55.24000 5.769
55.26000 2.650
55.28000 5.541
55.30000 4.971
55.32000 4.595
55.34000 5.138
55.36000 4.658
55.38000 6.842
55.40000 2.370
55.42000 2.080
55.44000 -0.062
55.46000 3.457
55.48000 2.176
55.50000 -2.544
55.52000 1.235
55.54000 1.973
55.56000 0.475
55.58000 1.282
55.60000 6.401
55.62000 10.793
55.64000 9.405
55.66000 3.561
55.68000 0.421
55.70000 0.317
55.72000 2.672
55.74000 5.264
55.76000 4.679
55.78000 3.772
55.80000 0.485
55.82000 1.542
55.84000 2.308
55.86000 1.928
55.88000 2.439
55.90000 4.576
55.92000 2.334
55.94000 4.100
55.96000 1.595
55.98000 -0.621
56.00000 2.172
56.02000 1.125
56.04000 0.824
56.06000 5.640
56.08000 2.246
56.10000 -2.553
56.12000 0.382
56.14000 2.108
56.16000 0.425
56.18000 -0.462
56.20000 4.036
56.22000 3.790
56.24000 3.597
56.26000 1.514
56.28000 3.602
56.30000 1.743
56.32000 -0.701
56.34000 1.408
56.36000 0.766
56.38000 1.248
56.40000 2.336
56.42000 0.651
56.44000 4.714
56.46000 9.058
56.48000 2.877
56.50000 1.508
56.52000 2.283
56.54000 2.262
56.56000 4.472
56.58000 5.693
56.60000 8.003
56.62000 3.635
56.64000 -2.539
56.66000 4.038
56.68000 5.142
56.70000 -0.287
56.72000 -0.723
56.74000 -0.770
56.76000 0.455
56.78000 1.579
56.80000 6.101
56.82000 3.877
56.84000 0.232
56.86000 2.989
56.88000 4.813
56.90000 4.152
56.92000 4.483
56.94000 4.882
56.96000 0.676
56.98000 -2.528
57.00000 -1.180
57.02000 1.783
57.04000 0.995
57.06000 5.055
57.08000 5.471
57.10000 7.204
57.12000 4.477
57.14000 2.470
57.16000 2.903
57.18000 3.453
57.20000 1.470
57.22000 0.199
57.24000 -1.511
57.26000 0.662
57.28000 0.562
57.30000 0.986
57.32000 3.408
57.34000 2.378
57.36000 0.428
57.38000 -1.047
57.40000 3.143
57.42000 0.169
57.44000 3.150
57.46000 5.595
57.48000 0.045
57.50000 -0.906
57.52000 -2.507
57.54000 -1.551
57.56000 3.179
57.58000 5.355
57.60000 4.435
57.62000 4.232
57.64000 3.721
57.66000 1.607
57.68000 3.286
57.70000 6.371
57.72000 2.394
57.74000 3.972
57.76000 8.254
57.78000 2.068
57.80000 -2.112
57.82000 -1.125
57.84000 1.787
57.86000 6.534
57.88000 3.969
57.90000 1.258
57.92000 -2.374
57.94000 -2.193
57.96000 1.641
57.98000 1.076
58.00000 0.556
58.02000 3.171
58.04000 1.502
58.06000 1.277
58.08000 -2.494
58.10000 0.680
58.12000 2.838
58.14000 6.242
58.16000 4.620
58.18000 0.696
58.20000 1.627
58.22000 0.473
58.24000 -0.255
58.26000 -2.485
58.28000 0.503
58.30000 6.566
58.32000 6.449
58.34000 0.562
58.36000 1.611
58.38000 0.285
58.40000 0.369
58.42000 4.564
58.44000 6.550
58.46000 4.176
58.48000 2.903
58.50000 1.646
58.52000 3.398
58.54000 4.055
58.56000 1.061
58.58000 -1.910
58.60000 -0.913
58.62000 3.199
58.64000 2.502
58.66000 1.303
58.68000 3.336
58.70000 3.565
58.72000 0.118
58.74000 -1.698
58.76000 -1.639
58.78000 1.583
58.80000 0.625
58.82000 1.908
58.84000 2.335
58.86000 3.240
58.88000 3.428
58.90000 6.276
58.92000 4.622
58.94000 1.708
58.96000 -1.381
58.98000 0.498
59.00000 -2.453
59.02000 -0.229
59.04000 2.261
59.06000 3.573
59.08000 -1.044
59.10000 -0.123
59.12000 2.862
59.14000 2.510
59.16000 3.450
59.18000 4.965
59.20000 3.404
59.22000 2.245
59.24000 2.362
59.26000 4.939
59.28000 3.528
59.30000 5.168
59.32000 1.361
59.34000 -0.939
59.36000 -1.972
59.38000 0.152
59.40000 -0.932
59.42000 2.639
59.44000 2.760
59.46000 3.945
59.48000 4.774
59.50000 6.765
59.52000 3.074
59.54000 3.040
59.56000 6.152
59.58000 4.014
59.60000 1.531
59.62000 -0.110
59.64000 2.832
59.66000 4.082
59.68000 1.785
59.70000 2.748
59.72000 2.615
59.74000 1.634
59.76000 4.918
59.78000 1.125
59.80000 0.167
59.82000 6.442
59.84000 8.890
59.86000 5.778
59.88000 1.545
59.90000 3.571
59.92000 4.847
59.94000 3.180
59.96000 6.230
59.98000 5.875
60.00000 0.488
60.02000 -0.823
60.04000 0.390
60.06000 1.462
60.08000 2.932
60.10000 3.972
60.12000 8.256
60.14000 11.284
60.16000 8.950
60.18000 4.646
60.20000 2.629
60.22000 -0.056
60.24000 2.866
60.26000 5.610
60.28000 6.912
60.30000 4.456
60.32000 5.898
60.34000 5.506
60.36000 5.756
60.38000 1.368
60.40000 -2.388
60.42000 -0.409
60.44000 1.928
60.46000 3.954
60.48000 7.370
60.50000 5.356
60.52000 4.863
60.54000 5.969
60.56000 4.508
60.58000 5.336
60.60000 3.597
60.62000 -0.188
60.64000 0.019
60.66000 2.828
60.68000 2.738
60.70000 0.572
60.72000 3.377
60.74000 3.922
60.76000 6.835
60.78000 6.175
60.80000 4.531
60.82000 -0.719
60.84000 -1.884
60.86000 2.392
60.88000 0.854
60.90000 -1.784
60.92000 -1.649
60.94000 -1.382
60.96000 3.017
60.98000 5.697
61.00000 6.645
61.02000 5.431
61.04000 1.594
61.06000 1.106
61.08000 2.227
61.10000 0.117
61.12000 2.525
61.14000 0.386
61.16000 -2.400
61.18000 1.214
61.20000 5.041
61.22000 5.024
61.24000 2.637
61.26000 5.583
61.28000 6.146
61.30000 3.868
61.32000 4.001
61.34000 1.990
61.36000 -2.366
61.38000 -1.741
61.40000 1.382
61.42000 3.909
61.44000 1.817
61.46000 2.080
61.48000 2.578
61.50000 -1.524
61.52000 0.475
61.54000 2.884
61.56000 -0.443
61.58000 3.578
61.60000 2.132
61.62000 2.584
61.64000 0.261
61.66000 2.200
61.68000 3.020
61.70000 2.147
61.72000 4.623
61.74000 2.825
61.76000 2.179
61.78000 3.529
61.80000 2.119
61.82000 1.236
61.84000 1.342
61.86000 0.035
61.88000 -2.225
61.90000 1.294
61.92000 2.096
61.94000 0.209
61.96000 2.798
61.98000 3.209
62.00000 3.343
62.02000 1.714
62.04000 -0.002
62.06000 2.163
62.08000 2.355
62.10000 -0.709
62.12000 -2.383
62.14000 1.458
62.16000 2.383
62.18000 4.896
62.20000 4.576
62.22000 4.593
62.24000 4.419
62.26000 4.772
62.28000 3.149
62.30000 0.190
62.32000 4.497
62.34000 3.109
62.36000 1.978
62.38000 2.586
62.40000 4.884
62.42000 4.780
62.44000 5.848
62.46000 1.665
62.48000 -2.360
62.50000 1.797
62.52000 4.473
62.54000 6.554
62.56000 4.712
62.58000 0.455
62.60000 3.658
62.62000 -0.148
62.64000 0.234
62.66000 3.168
62.68000 0.713
62.70000 3.276
62.72000 1.619
62.74000 2.816
62.76000 1.622
62.78000 3.927
62.80000 3.787
62.82000 3.291
62.84000 2.377
62.86000 4.863
62.88000 3.332
62.90000 3.215
62.92000 1.881
62.94000 7.379
62.96000 3.734
62.98000 4.329
63.00000 5.459
63.02000 3.871
63.04000 4.178
63.06000 6.673
63.08000 6.348
63.10000 6.043
63.12000 5.771
63.14000 3.439
63.16000 -1.305
63.18000 1.456
63.20000 1.626
63.22000 1.011
63.24000 -2.345
63.26000 0.420
63.28000 3.013
63.30000 2.382
63.32000 3.938
63.34000 2.873
63.36000 2.364
63.38000 -0.500
63.40000 2.240
63.42000 3.184
63.44000 5.534
63.46000 3.489
63.48000 -0.058
63.50000 -0.989
63.52000 2.149
63.54000 1.630
63.56000 1.071
63.58000 5.137
63.60000 3.523
63.62000 2.936
63.64000 2.303
63.66000 1.795
63.68000 2.160
63.70000 1.090
63.72000 5.313
63.74000 7.785
63.76000 5.452
63.78000 1.096
63.80000 2.614
63.82000 4.367
63.84000 0.238
63.86000 -1.743
63.88000 1.531
63.90000 2.594
63.92000 2.012
63.94000 1.038
63.96000 -2.363
63.98000 0.032
64.00000 5.420
64.02000 7.359
64.04000 3.605
64.06000 4.592
64.08000 4.114
64.10000 4.096
64.12000 1.864
64.14000 2.223
64.16000 1.359
64.18000 1.458
64.20000 1.057
64.22000 2.491
64.24000 2.749
64.26000 0.342
64.28000 0.873
64.30000 0.905
64.32000 0.174
64.34000 1.131
64.36000 2.847
64.38000 4.697
64.40000 3.573
64.42000 1.798
64.44000 0.420
64.46000 0.158
64.48000 0.494
64.50000 -1.037
64.52000 0.558
64.54000 2.024
64.56000 2.688
64.58000 3.120
64.60000 1.914
64.62000 2.781
64.64000 4.484
64.66000 4.756
64.68000 1.923
64.70000 -1.757
64.72000 -1.865
64.74000 0.277
64.76000 3.159
64.78000 2.108
64.80000 -0.204
64.82000 0.231
64.84000 1.460
64.86000 1.888
64.88000 2.994
64.90000 -2.373
64.92000 -1.962
64.94000 -0.273
64.96000 1.574
64.98000 1.692
65.00000 4.251
65.02000 3.083
65.04000 2.945
65.06000 -0.300
65.08000 -1.969
65.10000 1.899
65.12000 2.015
65.14000 1.641
65.16000 0.808
65.18000 1.633
65.20000 0.450
65.22000 0.866
65.24000 1.048
65.26000 0.781
65.28000 -0.286
65.30000 1.094
65.32000 0.493
65.34000 -0.175
65.36000 0.784
65.38000 -0.784
65.40000 1.990
65.42000 0.737
65.44000 2.611
65.46000 2.604
65.48000 1.802
65.50000 -1.707
65.52000 -1.685
65.54000 1.203
65.56000 1.183
65.58000 2.637
65.60000 4.625
65.62000 3.500
65.64000 2.348
65.66000 0.726
65.68000 2.369
65.70000 1.975
65.72000 2.956
65.74000 0.839
65.76000 -0.122
65.78000 0.216
65.80000 0.795
65.82000 2.310
65.84000 1.117
65.86000 1.824
65.88000 2.339
65.90000 2.311
65.92000 1.792
65.94000 0.823
65.96000 -2.394
65.98000 2.483
66.00000 1.604
66.02000 -1.081
66.04000 -0.875
66.06000 2.093
66.08000 1.504
66.10000 2.389
66.12000 0.604
66.14000 0.987
66.16000 -0.128
66.18000 2.977
66.20000 3.552
66.22000 1.000
66.24000 1.675
66.26000 0.843
66.28000 -1.328
66.30000 -2.085
66.32000 -1.595
66.34000 -1.964
66.36000 -0.225
66.38000 4.517
66.40000 1.992
66.42000 -1.904
66.44000 -0.090
66.46000 2.369
66.48000 2.926
66.50000 0.351
66.52000 -0.469
66.54000 1.084
66.56000 2.764
66.58000 0.731
66.60000 0.418
66.62000 -1.487
66.64000 2.174
66.66000 -0.507
66.68000 1.165
66.70000 -0.805
66.72000 0.641
66.74000 3.927
66.76000 3.300
66.78000 -1.675
66.80000 1.648
66.82000 0.092
66.84000 -0.482
66.86000 0.695
66.88000 0.959
66.90000 -0.991
66.92000 -0.238
66.94000 -2.457
66.96000 -1.458
66.98000 -0.021
67.00000 0.458
67.02000 2.184
67.04000 1.153
67.06000 -2.110
67.08000 -1.086
67.10000 0.894
67.12000 0.157
67.14000 0.543
67.16000 2.054
67.18000 3.997
67.20000 1.283
67.22000 -1.456
67.24000 -2.482
67.26000 0.962
67.28000 0.359
67.30000 -0.161
67.32000 0.308
67.34000 2.803
67.36000 0.502
67.38000 0.589
67.40000 -1.016
67.42000 2.376
67.44000 1.352
67.46000 -1.498
67.48000 -0.869
67.50000 -1.215
67.52000 -0.582
67.54000 0.551
67.56000 2.069
67.58000 2.667
67.60000 2.613
67.62000 5.537
67.64000 3.940
67.66000 -1.304
67.68000 2.323
67.70000 2.579
67.72000 5.583
67.74000 4.912
67.76000 3.240
67.78000 4.531
67.80000 8.691
67.82000 3.607
67.84000 6.522
67.86000 8.403
67.88000 5.333
67.90000 6.492
67.92000 7.783
67.94000 10.145
67.96000 10.617
67.98000 12.263
68.00000 10.887
68.02000 9.104
68.04000 7.842
68.06000 11.572
68.08000 10.701
68.10000 10.146
68.12000 13.261
68.14000 15.672
68.16000 11.608
68.18000 10.425
68.20000 13.269
68.22000 17.182
68.24000 17.197
68.26000 20.174
68.28000 18.441
68.30000 17.381
68.32000 18.522
68.34000 18.297
68.36000 18.452
68.38000 21.846
68.40000 23.791
68.42000 23.952
68.44000 24.367
68.46000 29.364
68.48000 31.693
68.50000 30.413
68.52000 28.221
68.54000 29.830
68.56000 30.466
68.58000 29.753
68.60000 26.949
68.62000 28.625
68.64000 31.707
68.66000 31.167
68.68000 34.534
68.70000 36.568
68.72000 33.222
68.74000 33.244
68.76000 31.325
68.78000 33.150
68.80000 30.493
68.82000 30.146
68.84000 32.610
68.86000 36.531
68.88000 33.446
68.90000 27.288
68.92000 31.916
68.94000 32.302
68.96000 29.795
68.98000 25.845
69.00000 29.328
69.02000 34.662
69.04000 33.967
69.06000 28.832
69.08000 26.353
69.10000 24.269
69.12000 25.214
69.14000 22.764
69.16000 18.697
69.18000 21.809
69.20000 25.613
69.22000 21.502
69.24000 20.486
69.26000 19.254
69.28000 19.694
69.30000 17.457
69.32000 14.337
69.34000 13.374
69.36000 12.934
69.38000 11.422
69.40000 13.018
69.42000 11.763
69.44000 12.115
69.46000 13.705
69.48000 11.282
69.50000 10.340
69.52000 10.297
69.54000 11.239
69.56000 9.960
69.58000 8.361
69.60000 10.004
69.62000 9.108
69.64000 8.713
69.66000 9.286
69.68000 10.721
69.70000 3.659
69.72000 4.401
69.74000 5.166
69.76000 2.771
69.78000 8.936
69.80000 9.704
69.82000 6.322
69.84000 4.518
69.86000 2.033
69.88000 2.793
69.90000 2.734
69.92000 2.484
69.94000 0.065
69.96000 0.319
69.98000 3.308
70.00000 3.078
70.02000 4.135
70.04000 6.748
70.06000 6.007
70.08000 2.841
70.10000 1.555
70.12000 5.107
70.14000 3.554
70.16000 2.981
70.18000 1.494
70.20000 0.440
70.22000 2.318
70.24000 2.836
70.26000 -0.907
70.28000 2.742
70.30000 3.868
70.32000 5.297
70.34000 5.188
70.36000 1.411
70.38000 2.723
70.40000 5.299
70.42000 1.818
70.44000 3.893
70.46000 4.290
70.48000 3.354
70.50000 0.111
70.52000 0.809
70.54000 3.238
70.56000 3.130
70.58000 2.986
70.60000 3.850
70.62000 3.397
70.64000 8.209
70.66000 1.488
70.68000 -2.292
70.70000 -1.986
70.72000 1.622
70.74000 2.428
70.76000 6.120
70.78000 4.579
70.80000 2.818
70.82000 1.539
70.84000 1.756
70.86000 6.066
70.88000 7.720
70.90000 4.104
70.92000 6.849
70.94000 5.259
70.96000 5.648
70.98000 7.886
71.00000 5.221
71.02000 4.858
71.04000 1.075
71.06000 0.609
71.08000 0.504
71.10000 -0.307
71.12000 -0.560
71.14000 -0.332
71.16000 1.461
71.18000 1.205
71.20000 -1.297
71.22000 2.032
71.24000 -0.810
71.26000 -2.286
71.28000 -0.223
71.30000 3.154
71.32000 4.700
71.34000 2.145
71.36000 3.774
71.38000 9.564
71.40000 3.879
71.42000 2.072
71.44000 2.699
71.46000 1.866
71.48000 0.341
71.50000 1.444
71.52000 0.145
71.54000 -0.911
71.56000 1.078
71.58000 3.595
71.60000 4.350
71.62000 6.235
71.64000 4.197
71.66000 3.613
71.68000 5.266
71.70000 2.229
71.72000 3.493
71.74000 1.219
71.76000 0.365
71.78000 2.736
71.80000 3.520
71.82000 2.368
71.84000 -0.824
71.86000 0.734
71.88000 -2.269
71.90000 -0.242
71.92000 0.776
71.94000 4.418
71.96000 4.506
71.98000 2.826
72.00000 2.685
72.02000 2.986
72.04000 1.547
72.06000 1.341
72.08000 -0.809
72.10000 0.314
72.12000 0.280
72.14000 3.255
72.16000 3.297
72.18000 1.725
72.20000 -1.202
72.22000 -2.262
72.24000 -1.187
72.26000 1.204
72.28000 1.135
72.30000 2.182
72.32000 -0.314
72.34000 0.439
72.36000 1.940
72.38000 0.941
72.40000 1.249
72.42000 6.091
72.44000 1.860
72.46000 -1.003
72.48000 -2.068
72.50000 0.697
72.52000 0.840
72.54000 1.105
72.56000 4.111
72.58000 2.916
72.60000 3.873
72.62000 3.077
72.64000 2.994
72.66000 2.921
72.68000 4.300
72.70000 5.266
72.72000 3.232
72.74000 1.183
72.76000 4.214
72.78000 2.220
72.80000 -0.558
72.82000 1.090
72.84000 3.589
72.86000 3.386
72.88000 1.969
72.90000 -0.768
72.92000 1.398
72.94000 -0.389
72.96000 1.039
72.98000 0.417
73.00000 -1.375
73.02000 -1.139
73.04000 0.935
73.06000 1.979
73.08000 2.438
73.10000 1.937
73.12000 2.598
73.14000 3.054
73.16000 3.906
73.18000 10.825
73.20000 7.434
73.22000 0.932
73.24000 3.718
73.26000 3.048
73.28000 -0.245
73.30000 4.536
73.32000 6.676
73.34000 5.807
73.36000 4.433
73.38000 5.935
73.40000 2.417
73.42000 4.263
73.44000 8.400
73.46000 6.728
73.48000 4.745
73.50000 3.322
73.52000 3.807
73.54000 6.589
73.56000 7.641
73.58000 8.966
73.60000 3.197
73.62000 -2.168
73.64000 3.412
73.66000 1.866
73.68000 7.136
73.70000 7.030
73.72000 10.618
73.74000 8.758
73.76000 5.926
73.78000 3.684
73.80000 5.449
73.82000 5.312
73.84000 4.083
73.86000 1.838
73.88000 2.026
73.90000 2.696
73.92000 4.808
73.94000 4.625
73.96000 4.484
73.98000 2.260
74.00000 2.199
74.02000 4.639
74.04000 1.929
74.06000 3.540
74.08000 2.827
74.10000 2.251
74.12000 0.810
74.14000 -2.176
74.16000 0.295
74.18000 4.862
74.20000 5.607
74.22000 5.855
74.24000 7.573
74.26000 4.234
74.28000 6.106
74.30000 0.988
74.32000 -0.441
74.34000 -0.973
74.36000 0.792
74.38000 -0.958
74.40000 5.981
74.42000 4.666
74.44000 2.732
74.46000 4.870
74.48000 4.832
74.50000 4.148
74.52000 5.425
74.54000 4.287
74.56000 -1.379
74.58000 -1.753
74.60000 1.943
74.62000 3.490
74.64000 3.754
74.66000 2.825
74.68000 -0.173
74.70000 3.205
74.72000 5.774
74.74000 2.569
74.76000 2.245
74.78000 2.850
74.80000 1.913
74.82000 1.899
74.84000 3.631
74.86000 -1.627
74.88000 -1.925
74.90000 -0.645
74.92000 1.410
74.94000 1.023
74.96000 1.915
74.98000 1.690
75.00000 0.992
75.02000 1.391
75.04000 1.844
75.06000 -0.681
75.08000 -2.209
75.10000 2.386
75.12000 3.653
75.14000 0.353
75.16000 -0.813
75.18000 1.072
75.20000 3.242
75.22000 3.611
75.24000 5.141
75.26000 -0.004
75.28000 -0.032
75.30000 2.903
75.32000 4.285
75.34000 1.210
75.36000 -0.494
75.38000 1.436
75.40000 3.274
75.42000 1.690
75.44000 -0.613
75.46000 -1.803
75.48000 -2.226
75.50000 -0.844
75.52000 0.544
75.54000 1.042
75.56000 1.472
75.58000 2.916
75.60000 1.520
75.62000 -0.052
75.64000 -1.966
75.66000 1.837
75.68000 -0.149
75.70000 0.142
75.72000 -1.830
75.74000 -0.902
75.76000 4.097
75.78000 1.749
75.80000 0.060
75.82000 2.818
75.84000 1.437
75.86000 1.019
75.88000 -1.751
75.90000 -0.636
75.92000 3.396
75.94000 0.352
75.96000 0.071
75.98000 1.088
76.00000 0.879
76.02000 1.660
76.04000 0.531
76.06000 4.020
76.08000 4.506
76.10000 3.096
76.12000 0.631
76.14000 -0.274
76.16000 0.948
76.18000 3.025
76.20000 3.731
76.22000 5.921
76.24000 5.070
76.26000 1.753
76.28000 2.569
76.30000 3.971
76.32000 -1.906
76.34000 4.651
76.36000 3.414
76.38000 2.419
76.40000 1.078
76.42000 3.074
76.44000 -1.886
76.46000 0.554
76.48000 4.022
76.50000 3.998
76.52000 1.168
76.54000 -0.748
76.56000 0.361
76.58000 2.813
76.60000 1.926
76.62000 0.072
76.64000 -1.270
76.66000 -2.236
76.68000 2.782
76.70000 7.090
76.72000 2.011
76.74000 -1.450
76.76000 1.698
76.78000 4.364
76.80000 3.389
76.82000 6.104
76.84000 5.732
76.86000 0.069
76.88000 -0.982
76.90000 -0.444
76.92000 1.384
76.94000 4.090
76.96000 2.096
76.98000 3.110
77.00000 2.226
77.02000 2.223
77.04000 2.059
77.06000 3.413
77.08000 1.766
77.10000 0.753
77.12000 2.568
77.14000 3.532
77.16000 3.142
77.18000 5.970
77.20000 6.678
77.22000 5.804
77.24000 4.523
77.26000 -1.724
77.28000 2.584
77.30000 0.575
77.32000 3.129
77.34000 1.700
77.36000 3.977
77.38000 2.488
77.40000 4.111
77.42000 1.175
77.44000 0.042
77.46000 -2.225
77.48000 1.548
77.50000 1.078
77.52000 -0.812
77.54000 1.667
77.56000 6.963
77.58000 2.864
77.60000 6.309
77.62000 5.779
77.64000 3.846
77.66000 2.306
77.68000 1.180
77.70000 4.021
77.72000 4.749
77.74000 0.238
77.76000 2.782
77.78000 3.087
77.80000 1.341
77.82000 3.165
77.84000 4.098
77.86000 -0.904
77.88000 1.461
77.90000 2.160
77.92000 -2.230
77.94000 -0.975
77.96000 0.568
77.98000 2.458
78.00000 0.939
78.02000 0.869
78.04000 0.155
78.06000 0.779
78.08000 0.428
78.10000 2.432
78.12000 2.827
78.14000 3.074
78.16000 3.501
78.18000 5.413
78.20000 2.797
78.22000 6.796
78.24000 3.438
78.26000 1.476
78.28000 4.993
78.30000 5.049
78.32000 4.934
78.34000 2.639
78.36000 -0.115
78.38000 -0.116
78.40000 -0.633
78.42000 0.102
78.44000 -0.792
78.46000 2.110
78.48000 4.259
78.50000 6.440
78.52000 1.889
78.54000 0.966
78.56000 -1.975
78.58000 0.142
78.60000 0.034
78.62000 -2.254
78.64000 0.465
78.66000 2.743
78.68000 4.990
78.70000 3.497
78.72000 3.566
78.74000 1.768
78.76000 0.554
78.78000 0.048
78.80000 1.056
78.82000 -0.150
78.84000 -0.473
78.86000 0.127
78.88000 1.729
78.90000 1.226
78.92000 1.188
78.94000 1.871
78.96000 5.026
78.98000 5.078
79.00000 -0.713
79.02000 -0.695
79.04000 0.758
79.06000 2.693
79.08000 3.380
79.10000 1.699
79.12000 3.309
79.14000 2.400
79.16000 3.111
79.18000 2.094
79.20000 4.799
79.22000 3.379
79.24000 3.490
79.26000 -2.289
79.28000 1.485
79.30000 4.541
79.32000 4.126
79.34000 3.958
79.36000 -0.239
79.38000 -2.292
79.40000 -1.207
79.42000 2.063
79.44000 2.884
79.46000 3.200
79.48000 2.145
79.50000 -0.456
79.52000 1.317
79.54000 0.612
79.56000 0.195
79.58000 0.772
79.60000 -1.827
79.62000 -1.222
79.64000 0.893
79.66000 1.698
79.68000 3.125
79.70000 -0.951
79.72000 1.094
79.74000 1.815
79.76000 -0.198
79.78000 -1.030
79.80000 1.956
79.82000 1.817
79.84000 -0.531
79.86000 2.153
79.88000 -0.965
79.90000 -0.265
79.92000 3.259
79.94000 4.539
79.96000 0.027
79.98000 -2.049
80.00000 1.493
80.02000 2.024
80.04000 1.604
80.06000 2.865
80.08000 2.414
80.10000 4.546
80.12000 7.591
80.14000 2.932
80.16000 -1.516
80.18000 -2.285
80.20000 1.574
80.22000 1.349
80.24000 2.312
80.26000 3.989
80.28000 4.369
80.30000 1.785
80.32000 1.578
80.34000 1.806
80.36000 3.155
80.38000 0.659
80.40000 2.583
80.42000 4.020
80.44000 3.086
80.46000 1.763
80.48000 -0.224
80.50000 1.335
80.52000 -0.564
80.54000 3.636
80.56000 4.556
80.58000 -1.223
80.60000 -1.264
80.62000 1.206
80.64000 4.581
80.66000 4.426
80.68000 1.024
80.70000 -0.394
80.72000 -2.351
80.74000 -0.813
80.76000 -1.363
80.78000 2.923
80.80000 1.681
80.82000 2.110
80.84000 0.804
80.86000 1.968
80.88000 0.492
80.90000 0.760
80.92000 -0.435
80.94000 1.807
80.96000 1.443
80.98000 4.501
81.00000 4.766
81.02000 4.259
81.04000 3.991
81.06000 2.373
81.08000 4.525
81.10000 2.918
81.12000 2.355
81.14000 3.016
81.16000 -0.358
81.18000 -2.392
81.20000 0.885
81.22000 4.056
81.24000 3.423
81.26000 1.924
81.28000 2.597
81.30000 3.452
81.32000 5.787
81.34000 3.173
81.36000 2.096
81.38000 1.895
81.40000 7.024
81.42000 2.695
81.44000 -0.740
81.46000 4.060
81.48000 4.271
81.50000 5.124
81.52000 4.493
81.54000 3.569
81.56000 2.873
81.58000 6.022
81.60000 4.898
81.62000 6.986
81.64000 7.325
81.66000 7.225
81.68000 8.195
81.70000 7.023
81.72000 7.087
81.74000 8.741
81.76000 6.148
81.78000 8.571
81.80000 4.809
81.82000 1.726
81.84000 7.178
81.86000 7.772
81.88000 9.991
81.90000 11.503
81.92000 11.866
81.94000 15.476
81.96000 11.432
81.98000 7.758
82.00000 7.893
82.02000 9.855
82.04000 10.215
82.06000 6.520
82.08000 9.025
82.10000 13.606
82.12000 14.195
82.14000 17.677
82.16000 13.996
82.18000 8.290
82.20000 16.973
82.22000 13.846
82.24000 15.206
82.26000 17.065
82.28000 16.172
82.30000 22.193
82.32000 21.809
82.34000 19.728
82.36000 17.950
82.38000 21.729
82.40000 24.859
82.42000 25.269
82.44000 25.219
82.46000 24.380
82.48000 26.777
82.50000 26.324
82.52000 28.712
82.54000 28.118
82.56000 32.178
82.58000 36.232
82.60000 35.340
82.62000 31.311
82.64000 33.248
82.66000 32.479
82.68000 33.148
82.70000 28.564
82.72000 31.715
82.74000 37.269
82.76000 37.448
82.78000 33.339
82.80000 35.342
82.82000 39.395
82.84000 39.235
82.86000 36.944
82.88000 39.701
82.90000 42.105
82.92000 41.173
82.94000 40.830
82.96000 40.927
82.98000 38.962
83.00000 39.743
83.02000 43.321
83.04000 41.616
83.06000 40.944
83.08000 39.081
83.10000 40.149
83.12000 41.286
83.14000 43.674
83.16000 42.616
83.18000 42.519
83.20000 44.061
83.22000 37.880
83.24000 39.717
83.26000 36.788
83.28000 33.361
83.30000 28.465
83.32000 32.962
83.34000 33.110
83.36000 36.532
83.38000 33.861
83.40000 30.203
83.42000 26.107
83.44000 32.185
83.46000 25.130
83.48000 23.704
83.50000 23.819
83.52000 27.021
83.54000 32.613
83.56000 27.583
83.58000 26.741
83.60000 18.413
83.62000 20.699
83.64000 23.508
83.66000 21.057
83.68000 15.890
83.70000 20.458
83.72000 21.012
83.74000 20.108
83.76000 14.220
83.78000 14.460
83.80000 11.802
83.82000 13.196
83.84000 15.783
83.86000 10.945
83.88000 12.337
83.90000 8.538
83.92000 7.997
83.94000 9.936
83.96000 12.828
83.98000 5.617
84.00000 5.167
84.02000 8.071
84.04000 9.679
84.06000 8.519
84.08000 6.113
84.10000 6.488
84.12000 9.424
84.14000 5.231
84.16000 8.258
84.18000 7.336
84.20000 3.485
84.22000 4.256
84.24000 2.655
84.26000 1.244
84.28000 0.155
84.30000 1.279
84.32000 2.751
84.34000 3.985
84.36000 5.119
84.38000 8.258
84.40000 9.836
84.42000 5.596
84.44000 0.501
84.46000 -1.060
84.48000 1.307
84.50000 3.073
84.52000 1.456
84.54000 1.054
84.56000 1.849
84.58000 2.263
84.60000 1.514
84.62000 2.472
84.64000 5.454
84.66000 6.618
84.68000 4.122
84.70000 -1.097
84.72000 -1.813
84.74000 -2.074
84.76000 -1.043
84.78000 -1.078
84.80000 1.728
84.82000 0.970
84.84000 0.787
84.86000 0.404
84.88000 -2.264
84.90000 -0.048
84.92000 3.529
84.94000 4.833
84.96000 0.130
84.98000 1.447
85.00000 0.155
85.02000 0.650
85.04000 -0.479
85.06000 1.251
85.08000 -0.608
85.10000 -0.899
85.12000 4.407
85.14000 4.657
85.16000 5.761
85.18000 2.802
85.20000 1.589
85.22000 -2.303
85.24000 -2.301
85.26000 -1.619
85.28000 3.029
85.30000 2.539
85.32000 3.268
85.34000 0.662
85.36000 3.360
85.38000 2.039
85.40000 2.148
85.42000 -1.342
85.44000 2.942
85.46000 2.916
85.48000 -0.657
85.50000 0.481
85.52000 -1.935
85.54000 0.696
85.56000 4.387
85.58000 1.414
85.60000 -2.267
85.62000 2.157
85.64000 3.255
85.66000 4.391
85.68000 5.620
85.70000 6.545
85.72000 0.686
85.74000 1.519
85.76000 -0.621
85.78000 -0.738
85.80000 0.977
85.82000 3.299
85.84000 3.439
85.86000 -0.892
85.88000 1.366
85.90000 -0.378
85.92000 0.411
85.94000 4.959
85.96000 5.663
85.98000 2.971
86.00000 2.834
86.02000 0.873
86.04000 2.253
86.06000 4.777
86.08000 0.841
86.10000 2.052
86.12000 -1.351
86.14000 -2.118
86.16000 -0.928
86.18000 2.244
86.20000 3.759
86.22000 4.620
86.24000 0.095
86.26000 -1.143
86.28000 1.640
86.30000 2.085
86.32000 2.451
86.34000 3.871
86.36000 1.394
86.38000 3.989
86.40000 3.832
86.42000 2.125
86.44000 1.725
86.46000 5.323
86.48000 6.319
86.50000 4.159
86.52000 5.199
86.54000 3.324
86.56000 5.532
86.58000 6.400
86.60000 4.249
86.62000 0.494
86.64000 4.086
86.66000 6.132
86.68000 5.811
86.70000 4.456
86.72000 5.378
86.74000 11.180
86.76000 8.964
86.78000 3.998
86.80000 6.364
86.82000 9.143
86.84000 9.535
86.86000 9.716
86.88000 11.094
86.90000 14.794
86.92000 14.919
86.94000 12.723
86.96000 13.347
86.98000 13.759
87.00000 18.297
87.02000 20.312
87.04000 17.495
87.06000 18.594
87.08000 22.076
87.10000 23.176
87.12000 19.453
87.14000 17.190
87.16000 18.967
87.18000 19.901
87.20000 20.660
87.22000 22.597
87.24000 24.143
87.26000 16.751
87.28000 18.194
87.30000 19.210
87.32000 20.193
87.34000 19.644
87.36000 21.780
87.38000 21.079
87.40000 16.226
87.42000 21.245
87.44000 23.377
87.46000 20.939
87.48000 17.003
87.50000 19.046
87.52000 20.602
87.54000 20.708
87.56000 20.200
87.58000 19.844
87.60000 20.322
87.62000 21.157
87.64000 16.404
87.66000 16.071
87.68000 17.282
87.70000 16.055
87.72000 16.400
87.74000 11.603
87.76000 12.099
87.78000 14.997
87.80000 18.315
87.82000 22.163
87.84000 19.796
87.86000 19.329
87.88000 18.633
87.90000 11.988
87.92000 8.677
87.94000 11.791
87.96000 11.077
87.98000 7.670
88.00000 9.495
88.02000 8.572
88.04000 11.250
88.06000 11.816
88.08000 11.504
88.10000 11.190
88.12000 8.227
88.14000 6.338
88.16000 5.995
88.18000 10.227
88.20000 7.522
88.22000 5.903
88.24000 9.763
88.26000 9.054
88.28000 4.320
88.30000 1.329
88.32000 3.116
88.34000 4.718
88.36000 2.688
88.38000 3.886
88.40000 2.227
88.42000 0.476
88.44000 -0.395
88.46000 4.767
88.48000 7.987
88.50000 7.370
88.52000 3.961
88.54000 4.435
88.56000 1.785
88.58000 1.113
88.60000 -0.510
88.62000 -0.372
88.64000 0.501
88.66000 2.101
88.68000 0.089
88.70000 -1.514
88.72000 1.342
88.74000 1.999
88.76000 -1.940
88.78000 2.751
88.80000 -0.699
88.82000 0.566
88.84000 3.389
88.86000 -0.433
88.88000 -0.939
88.90000 -0.447
88.92000 -1.514
88.94000 -1.849
88.96000 2.272
88.98000 2.118
89.00000 -0.623
89.02000 -0.460
89.04000 0.907
89.06000 5.954
89.08000 4.453
89.10000 1.713
89.12000 -1.821
89.14000 -2.186
89.16000 2.064
89.18000 2.826
89.20000 0.512
89.22000 2.136
89.24000 4.418
89.26000 5.094
89.28000 3.164
89.30000 0.831
89.32000 2.171
89.34000 3.503
89.36000 3.541
89.38000 2.398
89.40000 1.059
89.42000 3.200
89.44000 -0.870
89.46000 -2.139
89.48000 1.940
89.50000 3.047
89.52000 -0.547
89.54000 -0.684
89.56000 2.465
89.58000 6.283
89.60000 6.032
89.62000 0.215
89.64000 -0.578
89.66000 3.367
89.68000 3.146
89.70000 3.083
89.72000 0.219
89.74000 2.467
89.76000 6.486
89.78000 6.465
89.80000 1.468
89.82000 -0.780
89.84000 -0.676
89.86000 -0.198
89.88000 -0.780
89.90000 -0.463
89.92000 -2.091
89.94000 1.146
89.96000 4.793
89.98000 5.796
90.00000 5.545
90.02000 3.167
90.04000 -0.852
90.06000 0.177
90.08000 4.770
90.10000 4.992
90.12000 6.083
90.14000 2.647
90.16000 1.816
90.18000 4.851
90.20000 2.535
90.22000 6.893
90.24000 5.611
90.26000 5.862
90.28000 5.433
90.30000 5.366
90.32000 5.163
90.34000 7.261
90.36000 2.776
90.38000 0.789
90.40000 1.584
90.42000 1.716
90.44000 1.323
90.46000 1.269
90.48000 1.054
90.50000 1.997
90.52000 -2.061
90.54000 2.367
90.56000 4.250
90.58000 6.577
90.60000 4.663
90.62000 1.965
90.64000 2.649
90.66000 1.659
90.68000 -0.120
90.70000 2.140
90.72000 5.061
90.74000 0.400
90.76000 3.619
90.78000 2.540
90.80000 0.865
90.82000 0.494
90.84000 3.574
90.86000 1.872
90.88000 3.789
90.90000 4.352
90.92000 5.690
90.94000 4.438
90.96000 6.710
90.98000 4.601
91.00000 7.920
91.02000 6.910
91.04000 7.922
91.06000 1.011
91.08000 1.192
91.10000 0.353
91.12000 0.526
91.14000 6.518
91.16000 6.975
91.18000 7.980
91.20000 7.743
91.22000 2.615
91.24000 3.810
91.26000 5.649
91.28000 1.933
91.30000 4.559
91.32000 6.109
91.34000 4.522
91.36000 2.138
91.38000 4.852
91.40000 6.912
91.42000 6.579
91.44000 4.022
91.46000 3.963
91.48000 4.342
91.50000 8.478
91.52000 7.679
91.54000 3.603
91.56000 -2.032
91.58000 -1.764
91.60000 -1.756
91.62000 2.907
91.64000 4.964
91.66000 7.800
91.68000 4.836
91.70000 4.544
91.72000 9.095
91.74000 8.793
91.76000 9.031
91.78000 3.237
91.80000 3.537
91.82000 11.831
91.84000 7.102
91.86000 2.346
91.88000 4.581
91.90000 1.994
91.92000 6.023
91.94000 7.887
91.96000 8.805
91.98000 4.315
92.00000 2.817
92.02000 4.430
92.04000 6.633
92.06000 6.435
92.08000 1.208
92.10000 -1.208
92.12000 0.984
92.14000 -2.020
92.16000 4.998
92.18000 3.108
92.20000 2.458
92.22000 9.536
92.24000 10.543
92.26000 9.218
92.28000 1.264
92.30000 3.340
92.32000 5.342
92.34000 8.758
92.36000 5.969
92.38000 3.210
92.40000 2.919
92.42000 6.118
92.44000 4.162
92.46000 1.253
92.48000 1.701
92.50000 0.933
92.52000 1.399
92.54000 7.684
92.56000 6.917
92.58000 2.009
92.60000 2.472
92.62000 4.998
92.64000 3.193
92.66000 0.854
92.68000 0.336
92.70000 0.784
92.72000 4.413
92.74000 2.647
92.76000 5.182
92.78000 3.699
92.80000 3.738
92.82000 4.795
92.84000 3.937
92.86000 3.933
92.88000 4.800
92.90000 3.354
92.92000 4.529
92.94000 2.777
92.96000 3.293
92.98000 1.591
93.00000 2.227
93.02000 3.438
93.04000 0.694
93.06000 0.181
93.08000 2.563
93.10000 8.003
93.12000 7.246
93.14000 0.618
93.16000 4.075
93.18000 2.962
93.20000 4.036
93.22000 7.028
93.24000 2.912
93.26000 0.078
93.28000 0.868
93.30000 1.106
93.32000 8.675
93.34000 7.742
93.36000 0.314
93.38000 1.360
93.40000 1.397
93.42000 6.210
93.44000 4.735
93.46000 2.971
93.48000 1.866
93.50000 2.751
93.52000 8.227
93.54000 4.075
93.56000 2.509
93.58000 5.974
93.60000 5.958
93.62000 5.828
93.64000 3.294
93.66000 3.640
93.68000 3.007
93.70000 8.702
93.72000 2.998
93.74000 -2.108
93.76000 0.011
93.78000 1.705
93.80000 4.205
93.82000 6.520
93.84000 0.117
93.86000 -2.023
93.88000 -0.638
93.90000 0.345
93.92000 1.468
93.94000 2.646
93.96000 1.631
93.98000 3.054
94.00000 2.976
94.02000 0.896
94.04000 -1.369
94.06000 4.798
94.08000 2.552
94.10000 -0.669
94.12000 2.664
94.14000 2.280
94.16000 1.839
94.18000 1.781
94.20000 3.331
94.22000 -0.889
94.24000 -0.839
94.26000 0.625
94.28000 1.811
94.30000 3.319
94.32000 3.784
94.34000 3.010
94.36000 1.498
94.38000 0.681
94.40000 3.515
94.42000 3.346
94.44000 2.848
94.46000 1.115
94.48000 2.459
94.50000 1.457
94.52000 2.050
94.54000 -0.650
94.56000 5.935
94.58000 3.908
94.60000 1.164
94.62000 3.233
94.64000 2.023
94.66000 5.404
94.68000 2.529
94.70000 3.298
94.72000 1.951
94.74000 0.081
94.76000 1.069
94.78000 2.363
94.80000 -2.153
94.82000 3.840
94.84000 3.088
94.86000 0.812
94.88000 5.411
94.90000 2.497
94.92000 0.389
94.94000 -1.471
94.96000 -2.158
94.98000 -0.153
95.00000 5.068
95.02000 7.104
95.04000 3.733
95.06000 0.503
95.08000 -0.145
95.10000 -0.862
95.12000 2.853
95.14000 -0.155
95.16000 -1.446
95.18000 1.777
95.20000 0.960
95.22000 2.754
95.24000 5.449
95.26000 5.157
95.28000 7.503
95.30000 10.564
95.32000 7.839
95.34000 2.266
95.36000 2.350
95.38000 1.534
95.40000 -0.074
95.42000 1.856
95.44000 6.089
95.46000 4.096
95.48000 2.703
95.50000 -1.492
95.52000 2.074
95.54000 2.578
95.56000 -0.793
95.58000 -0.663
95.60000 5.290
95.62000 5.141
95.64000 -0.782
95.66000 0.200
95.68000 -1.002
95.70000 -1.272
95.72000 6.659
95.74000 9.324
95.76000 10.626
95.78000 4.339
95.80000 3.065
95.82000 1.775
95.84000 1.820
95.86000 2.660
95.88000 2.210
95.90000 2.105
95.92000 3.153
95.94000 3.671
95.96000 4.507
95.98000 5.993
96.00000 4.876
96.02000 0.034
96.04000 4.536
96.06000 1.786
96.08000 1.476
96.10000 3.932
96.12000 7.912
96.14000 5.447
96.16000 7.623
96.18000 3.454
96.20000 6.663
96.22000 3.122
96.24000 3.484
96.26000 -2.014
96.28000 -0.628
96.30000 9.140
96.32000 5.709
96.34000 4.474
96.36000 4.949
96.38000 4.573
96.40000 5.036
96.42000 6.981
96.44000 5.304
96.46000 1.866
96.48000 1.835
96.50000 1.552
96.52000 3.374
96.54000 12.588
96.56000 10.949
96.58000 7.519
96.60000 -0.278
96.62000 0.625
96.64000 5.216
96.66000 2.476
96.68000 8.183
96.70000 9.097
96.72000 4.223
96.74000 10.004
96.76000 7.523
96.78000 2.839
96.80000 6.077
96.82000 5.208
96.84000 2.414
96.86000 -0.854
96.88000 -2.063
96.90000 2.310
96.92000 10.302
96.94000 10.025
96.96000 6.719
96.98000 5.308
97.00000 3.567
97.02000 3.749
97.04000 -0.316
97.06000 3.493
97.08000 2.650
97.10000 5.654
97.12000 4.872
97.14000 3.613
97.16000 6.829
97.18000 6.431
97.20000 6.679
97.22000 8.239
97.24000 8.101
97.26000 13.487
97.28000 8.993
97.30000 3.438
97.32000 4.159
97.34000 3.235
97.36000 3.865
97.38000 7.956
97.40000 5.225
97.42000 1.337
97.44000 4.153
97.46000 4.712
97.48000 -0.548
97.50000 4.241
97.52000 5.733
97.54000 7.771
97.56000 4.608
97.58000 4.611
97.60000 1.867
97.62000 4.806
97.64000 6.428
97.66000 7.583
97.68000 5.320
97.70000 4.497
97.72000 7.038
97.74000 6.408
97.76000 6.443
97.78000 8.950
97.80000 -2.036
97.82000 7.349
97.84000 11.264
97.86000 10.724
97.88000 7.171
97.90000 8.514
97.92000 3.682
97.94000 -0.473
97.96000 1.893
97.98000 1.793
98.00000 7.972
98.02000 4.390
98.04000 5.362
98.06000 11.760
98.08000 7.873
98.10000 5.603
98.12000 5.092
98.14000 4.884
98.16000 11.692
98.18000 8.751
98.20000 4.682
98.22000 3.338
98.24000 5.399
98.26000 12.392
98.28000 6.357
98.30000 4.359
98.32000 5.889
98.34000 6.106
98.36000 5.769
98.38000 10.851
98.40000 9.705
98.42000 3.376
98.44000 13.818
98.46000 8.657
98.48000 5.585
98.50000 12.523
98.52000 8.851
98.54000 5.350
98.56000 8.863
98.58000 5.068
98.60000 15.812
98.62000 8.927
98.64000 3.120
98.66000 5.887
98.68000 15.981
98.70000 16.677
98.72000 18.081
98.74000 5.570
98.76000 5.058
98.78000 9.397
98.80000 3.491
98.82000 -1.919
98.84000 3.285
98.86000 6.687
98.88000 6.329
98.90000 11.166
98.92000 7.159
98.94000 5.111
98.96000 11.503
98.98000 7.810
99.00000 5.701
99.02000 9.277
99.04000 8.193
99.06000 9.593
99.08000 6.740
99.10000 6.483
99.12000 9.780
99.14000 10.531
99.16000 13.994
99.18000 9.116
99.20000 11.874
99.22000 7.187
99.24000 9.302
99.26000 5.328
99.28000 6.942
99.30000 11.617
99.32000 10.708
99.34000 10.710
99.36000 9.300
99.38000 5.476
99.40000 11.860
99.42000 -1.330
99.44000 0.005
99.46000 4.447
99.48000 8.967
99.50000 9.139
99.52000 7.363
99.54000 5.415
99.56000 16.875
99.58000 12.674
99.60000 6.262
99.62000 6.414
99.64000 4.265
99.66000 11.232
99.68000 11.118
99.70000 2.287
99.72000 -2.015
99.74000 3.698
99.76000 12.659
99.78000 11.274
99.80000 4.718
99.82000 4.426
99.84000 2.471
99.86000 6.175
99.88000 -0.328
99.90000 13.181
99.92000 14.709
99.94000 9.488
99.96000 1.331
99.98000 0.000
