'Id: "0011389" Comment: "Integrate frame 0011389_Au-Ir-Rh_Au-Rich_XRD_Mapping-097-0000.gfrmwith cursor Wedge Cursor #5" Operator: "B?rgel" Anode: "Cu" Wavelength: "1.5406" Scantype: "2Theta (TwoTheta)" TimePerStep: "1" X: "-31.5" Y: "-13.5" Z: "5.95" 
10.00000 0.000
10.02000 -4.475
10.04000 1.455
10.06000 7.135
10.08000 4.447
10.10000 -1.702
10.12000 18.189
10.14000 10.706
10.16000 9.059
10.18000 11.756
10.20000 -1.342
10.22000 8.325
10.24000 10.831
10.26000 10.829
10.28000 21.799
10.30000 27.707
10.32000 10.484
10.34000 -2.703
10.36000 4.369
10.38000 8.648
10.40000 0.302
10.42000 13.877
10.44000 17.113
10.46000 12.841
10.48000 9.873
10.50000 7.943
10.52000 -12.931
10.54000 13.693
10.56000 6.004
10.58000 4.588
10.60000 9.922
10.62000 6.698
10.64000 12.353
10.66000 14.899
10.68000 7.975
10.70000 11.226
10.72000 8.907
10.74000 4.717
10.76000 8.877
10.78000 12.560
10.80000 18.622
10.82000 12.316
10.84000 6.632
10.86000 8.712
10.88000 10.387
10.90000 9.444
10.92000 -1.666
10.94000 5.841
10.96000 9.002
10.98000 12.133
11.00000 14.179
11.02000 13.168
11.04000 3.250
11.06000 -2.903
11.08000 11.159
11.10000 11.229
11.12000 -2.038
11.14000 10.786
11.16000 19.833
11.18000 5.992
11.20000 13.176
11.22000 12.498
11.24000 7.045
11.26000 5.169
11.28000 13.838
11.30000 10.605
11.32000 12.226
11.34000 9.343
11.36000 14.155
11.38000 24.948
11.40000 22.483
11.42000 0.249
11.44000 0.029
11.46000 8.174
11.48000 4.910
11.50000 0.792
11.52000 3.528
11.54000 3.661
11.56000 10.683
11.58000 6.176
11.60000 10.235
11.62000 14.866
11.64000 18.479
11.66000 27.963
11.68000 15.075
11.70000 7.262
11.72000 5.918
11.74000 11.797
11.76000 13.811
11.78000 0.725
11.80000 7.707
11.82000 10.559
11.84000 15.327
11.86000 14.941
11.88000 5.109
11.90000 6.223
11.92000 6.369
11.94000 1.283
11.96000 1.985
11.98000 -0.451
12.00000 12.584
12.02000 11.450
12.04000 6.269
12.06000 4.217
12.08000 -4.479
12.10000 0.024
12.12000 6.706
12.14000 12.730
12.16000 11.548
12.18000 4.516
12.20000 6.761
12.22000 5.613
12.24000 12.336
12.26000 11.730
12.28000 8.525
12.30000 2.447
12.32000 4.169
12.34000 0.581
12.36000 10.981
12.38000 10.861
12.40000 4.586
12.42000 7.346
12.44000 15.282
12.46000 26.985
12.48000 17.347
12.50000 15.406
12.52000 -4.469
12.54000 5.590
12.56000 17.857
12.58000 19.107
12.60000 6.990
12.62000 11.499
12.64000 10.229
12.66000 10.464
12.68000 15.707
12.70000 25.295
12.72000 16.178
12.74000 19.698
12.76000 20.967
12.78000 15.257
12.80000 14.615
12.82000 9.563
12.84000 4.872
12.86000 7.255
12.88000 5.503
12.90000 7.530
12.92000 15.738
12.94000 11.690
12.96000 8.430
12.98000 8.228
13.00000 7.810
13.02000 5.016
13.04000 8.390
13.06000 10.125
13.08000 10.241
13.10000 5.841
13.12000 3.696
13.14000 12.415
13.16000 8.580
13.18000 -4.468
13.20000 0.650
13.22000 13.285
13.24000 8.518
13.26000 6.648
13.28000 12.401
13.30000 17.433
13.32000 13.836
13.34000 18.309
13.36000 20.767
13.38000 23.606
13.40000 22.127
13.42000 19.006
13.44000 7.102
13.46000 9.336
13.48000 16.211
13.50000 10.523
13.52000 19.331
13.54000 31.237
13.56000 14.241
13.58000 10.123
13.60000 11.245
13.62000 7.918
13.64000 8.371
13.66000 6.987
13.68000 3.487
13.70000 12.228
13.72000 12.802
13.74000 21.845
13.76000 13.193
13.78000 14.923
13.80000 19.025
13.82000 20.470
13.84000 14.232
13.86000 13.067
13.88000 18.327
13.90000 20.446
13.92000 15.774
13.94000 5.429
13.96000 -4.462
13.98000 7.018
14.00000 13.311
14.02000 18.818
14.04000 14.416
14.06000 13.652
14.08000 17.904
14.10000 16.209
14.12000 10.263
14.14000 7.887
14.16000 2.118
14.18000 0.828
14.20000 5.601
14.22000 10.283
14.24000 8.762
14.26000 14.114
14.28000 7.553
14.30000 10.901
14.32000 5.825
14.34000 0.299
14.36000 5.026
14.38000 17.744
14.40000 19.902
14.42000 11.858
14.44000 20.403
14.46000 17.765
14.48000 21.909
14.50000 10.842
14.52000 9.936
14.54000 7.396
14.56000 2.352
14.58000 3.029
14.60000 8.851
14.62000 11.612
14.64000 5.799
14.66000 3.876
14.68000 5.181
14.70000 16.555
14.72000 6.744
14.74000 5.094
14.76000 7.661
14.78000 10.264
14.80000 12.838
14.82000 13.251
14.84000 6.255
14.86000 7.401
14.88000 12.624
14.90000 13.434
14.92000 5.127
14.94000 5.117
14.96000 -1.319
14.98000 4.421
15.00000 10.881
15.02000 5.747
15.04000 9.119
15.06000 10.414
15.08000 6.300
15.10000 -0.705
15.12000 3.558
15.14000 2.783
15.16000 2.907
15.18000 15.837
15.20000 23.358
15.22000 13.893
15.24000 6.304
15.26000 -0.718
15.28000 -2.040
15.30000 -0.001
15.32000 7.345
15.34000 16.033
15.36000 9.456
15.38000 0.279
15.40000 1.449
15.42000 5.224
15.44000 8.429
15.46000 5.607
15.48000 -4.206
15.50000 -2.809
15.52000 0.953
15.54000 3.333
15.56000 5.627
15.58000 -2.501
15.60000 1.080
15.62000 5.856
15.64000 4.669
15.66000 6.801
15.68000 8.957
15.70000 8.506
15.72000 6.259
15.74000 8.732
15.76000 5.536
15.78000 10.056
15.80000 3.852
15.82000 10.675
15.84000 15.339
15.86000 5.928
15.88000 4.133
15.90000 7.003
15.92000 17.967
15.94000 1.094
15.96000 0.567
15.98000 9.827
16.00000 11.883
16.02000 9.368
16.04000 6.583
16.06000 9.232
16.08000 9.237
16.10000 8.358
16.12000 7.945
16.14000 11.911
16.16000 16.938
16.18000 16.568
16.20000 12.263
16.22000 7.136
16.24000 3.764
16.26000 3.680
16.28000 2.375
16.30000 2.965
16.32000 7.290
16.34000 18.409
16.36000 16.029
16.38000 -2.098
16.40000 -4.385
16.42000 -0.821
16.44000 11.141
16.46000 9.128
16.48000 8.486
16.50000 10.733
16.52000 9.380
16.54000 -2.228
16.56000 3.209
16.58000 13.415
16.60000 5.499
16.62000 3.559
16.64000 -1.568
16.66000 -0.741
16.68000 2.877
16.70000 10.526
16.72000 7.845
16.74000 2.209
16.76000 8.144
16.78000 18.425
16.80000 7.980
16.82000 3.513
16.84000 12.349
16.86000 8.049
16.88000 2.302
16.90000 4.535
16.92000 5.897
16.94000 8.417
16.96000 6.057
16.98000 10.189
17.00000 -0.151
17.02000 4.311
17.04000 5.777
17.06000 7.269
17.08000 6.922
17.10000 9.402
17.12000 8.377
17.14000 2.936
17.16000 0.043
17.18000 2.642
17.20000 0.942
17.22000 5.422
17.24000 7.666
17.26000 12.314
17.28000 15.383
17.30000 7.031
17.32000 8.767
17.34000 9.657
17.36000 11.732
17.38000 9.935
17.40000 7.622
17.42000 8.810
17.44000 5.337
17.46000 5.196
17.48000 1.157
17.50000 0.348
17.52000 6.327
17.54000 5.295
17.56000 5.477
17.58000 7.279
17.60000 17.579
17.62000 15.450
17.64000 7.508
17.66000 0.939
17.68000 0.828
17.70000 5.267
17.72000 11.309
17.74000 9.419
17.76000 7.602
17.78000 11.526
17.80000 4.708
17.82000 -4.314
17.84000 -1.481
17.86000 3.496
17.88000 7.738
17.90000 8.466
17.92000 5.857
17.94000 7.310
17.96000 6.346
17.98000 11.891
18.00000 8.266
18.02000 3.957
18.04000 4.512
18.06000 6.054
18.08000 8.007
18.10000 12.078
18.12000 10.777
18.14000 12.497
18.16000 5.660
18.18000 1.359
18.20000 6.135
18.22000 11.947
18.24000 7.880
18.26000 11.726
18.28000 10.067
18.30000 10.871
18.32000 5.516
18.34000 2.294
18.36000 0.035
18.38000 3.801
18.40000 4.673
18.42000 2.777
18.44000 -0.281
18.46000 4.587
18.48000 6.576
18.50000 10.649
18.52000 9.337
18.54000 8.968
18.56000 6.441
18.58000 1.150
18.60000 0.933
18.62000 3.943
18.64000 2.741
18.66000 -0.437
18.68000 3.755
18.70000 12.819
18.72000 17.018
18.74000 11.008
18.76000 14.259
18.78000 11.886
18.80000 9.050
18.82000 8.889
18.84000 10.197
18.86000 6.919
18.88000 11.200
18.90000 12.996
18.92000 8.938
18.94000 2.730
18.96000 7.860
18.98000 3.086
19.00000 11.643
19.02000 3.544
19.04000 -3.511
19.06000 -3.645
19.08000 5.454
19.10000 7.900
19.12000 11.503
19.14000 8.409
19.16000 9.220
19.18000 9.812
19.20000 9.614
19.22000 4.056
19.24000 4.028
19.26000 7.785
19.28000 5.032
19.30000 7.483
19.32000 11.528
19.34000 21.360
19.36000 11.193
19.38000 6.311
19.40000 8.513
19.42000 7.868
19.44000 -4.201
19.46000 6.828
19.48000 11.054
19.50000 9.966
19.52000 7.614
19.54000 6.104
19.56000 12.179
19.58000 14.825
19.60000 8.185
19.62000 5.137
19.64000 8.014
19.66000 8.730
19.68000 6.423
19.70000 4.164
19.72000 7.209
19.74000 7.796
19.76000 9.746
19.78000 11.184
19.80000 9.550
19.82000 11.776
19.84000 10.437
19.86000 8.986
19.88000 -1.724
19.90000 4.490
19.92000 11.149
19.94000 9.221
19.96000 7.727
19.98000 4.136
20.00000 10.006
20.02000 14.988
20.04000 9.320
20.06000 12.541
20.08000 3.765
20.10000 3.055
20.12000 9.040
20.14000 4.164
20.16000 1.540
20.18000 1.318
20.20000 3.807
20.22000 8.000
20.24000 5.647
20.26000 10.429
20.28000 14.803
20.30000 7.129
20.32000 7.617
20.34000 2.345
20.36000 -4.121
20.38000 2.538
20.40000 5.666
20.42000 8.571
20.44000 17.431
20.46000 15.676
20.48000 7.912
20.50000 9.390
20.52000 7.714
20.54000 3.344
20.56000 9.835
20.58000 15.424
20.60000 16.046
20.62000 15.585
20.64000 4.177
20.66000 -0.412
20.68000 12.315
20.70000 14.268
20.72000 6.845
20.74000 9.242
20.76000 14.291
20.78000 16.719
20.80000 10.480
20.82000 5.548
20.84000 6.934
20.86000 7.716
20.88000 6.987
20.90000 4.060
20.92000 7.576
20.94000 4.211
20.96000 2.679
20.98000 3.750
21.00000 1.964
21.02000 7.960
21.04000 10.713
21.06000 3.103
21.08000 2.489
21.10000 1.563
21.12000 -4.022
21.14000 1.820
21.16000 4.475
21.18000 5.445
21.20000 1.853
21.22000 4.791
21.24000 9.915
21.26000 4.666
21.28000 7.509
21.30000 12.359
21.32000 8.972
21.34000 6.684
21.36000 7.065
21.38000 6.441
21.40000 2.515
21.42000 6.995
21.44000 4.466
21.46000 0.877
21.48000 -3.671
21.50000 -0.412
21.52000 6.106
21.54000 4.515
21.56000 4.235
21.58000 10.210
21.60000 2.569
21.62000 4.100
21.64000 5.699
21.66000 10.670
21.68000 4.504
21.70000 6.093
21.72000 8.443
21.74000 2.546
21.76000 2.279
21.78000 6.060
21.80000 6.664
21.82000 4.647
21.84000 8.520
21.86000 12.949
21.88000 6.752
21.90000 4.823
21.92000 1.588
21.94000 -3.163
21.96000 -4.097
21.98000 0.095
22.00000 0.963
22.02000 0.364
22.04000 6.775
22.06000 7.991
22.08000 3.586
22.10000 2.168
22.12000 1.734
22.14000 -2.264
22.16000 1.262
22.18000 3.672
22.20000 10.057
22.22000 4.498
22.24000 2.023
22.26000 -0.638
22.28000 -3.528
22.30000 -0.182
22.32000 7.280
22.34000 6.034
22.36000 5.776
22.38000 1.903
22.40000 2.078
22.42000 2.244
22.44000 1.055
22.46000 1.408
22.48000 0.151
22.50000 3.567
22.52000 1.501
22.54000 7.461
22.56000 9.215
22.58000 -3.558
22.60000 2.859
22.62000 0.691
22.64000 4.355
22.66000 2.051
22.68000 4.151
22.70000 3.099
22.72000 2.801
22.74000 5.628
22.76000 6.917
22.78000 4.078
22.80000 4.733
22.82000 9.862
22.84000 4.173
22.86000 1.974
22.88000 3.207
22.90000 8.047
22.92000 8.656
22.94000 -0.473
22.96000 -1.541
22.98000 5.230
23.00000 9.330
23.02000 5.250
23.04000 5.545
23.06000 4.708
23.08000 5.261
23.10000 4.061
23.12000 2.647
23.14000 3.540
23.16000 7.989
23.18000 8.619
23.20000 6.629
23.22000 -1.175
23.24000 1.272
23.26000 -0.335
23.28000 -4.024
23.30000 3.565
23.32000 6.137
23.34000 5.273
23.36000 3.580
23.38000 2.673
23.40000 5.779
23.42000 3.895
23.44000 0.841
23.46000 0.886
23.48000 0.166
23.50000 3.338
23.52000 3.433
23.54000 6.359
23.56000 8.632
23.58000 8.807
23.60000 4.547
23.62000 5.798
23.64000 4.115
23.66000 1.316
23.68000 4.781
23.70000 8.327
23.72000 5.553
23.74000 1.591
23.76000 -1.750
23.78000 -2.392
23.80000 -2.955
23.82000 -4.000
23.84000 1.910
23.86000 10.145
23.88000 3.362
23.90000 -0.677
23.92000 -3.665
23.94000 2.763
23.96000 5.423
23.98000 8.788
24.00000 1.955
24.02000 -1.203
24.04000 0.886
24.06000 -2.797
24.08000 -0.233
24.10000 5.118
24.12000 5.248
24.14000 11.695
24.16000 8.959
24.18000 3.481
24.20000 7.151
24.22000 6.964
24.24000 -2.935
24.26000 4.251
24.28000 2.162
24.30000 -1.917
24.32000 -1.851
24.34000 -2.804
24.36000 -0.864
24.38000 0.464
24.40000 5.502
24.42000 5.046
24.44000 -1.265
24.46000 1.168
24.48000 -1.010
24.50000 -2.991
24.52000 -0.040
24.54000 6.843
24.56000 3.069
24.58000 -1.480
24.60000 0.451
24.62000 -1.119
24.64000 0.665
24.66000 0.018
24.68000 1.432
24.70000 0.063
24.72000 4.069
24.74000 -0.312
24.76000 0.795
24.78000 4.507
24.80000 7.506
24.82000 4.071
24.84000 5.987
24.86000 6.268
24.88000 2.682
24.90000 -1.696
24.92000 -0.128
24.94000 9.894
24.96000 4.236
24.98000 2.491
25.00000 6.813
25.02000 6.647
25.04000 7.404
25.06000 4.013
25.08000 -3.915
25.10000 -0.866
25.12000 4.323
25.14000 5.878
25.16000 3.096
25.18000 2.859
25.20000 2.702
25.22000 2.364
25.24000 5.489
25.26000 8.791
25.28000 2.169
25.30000 2.537
25.32000 4.843
25.34000 4.389
25.36000 3.283
25.38000 -0.171
25.40000 3.105
25.42000 2.808
25.44000 -0.160
25.46000 4.590
25.48000 3.241
25.50000 9.713
25.52000 6.726
25.54000 6.585
25.56000 1.939
25.58000 2.256
25.60000 2.952
25.62000 2.024
25.64000 7.696
25.66000 8.398
25.68000 3.616
25.70000 -1.523
25.72000 -0.679
25.74000 3.119
25.76000 1.192
25.78000 3.168
25.80000 3.471
25.82000 2.759
25.84000 -2.913
25.86000 -3.880
25.88000 -0.186
25.90000 2.783
25.92000 2.013
25.94000 1.646
25.96000 -2.649
25.98000 3.917
26.00000 6.862
26.02000 6.257
26.04000 7.804
26.06000 12.856
26.08000 11.379
26.10000 11.529
26.12000 1.347
26.14000 3.816
26.16000 5.281
26.18000 5.317
26.20000 2.668
26.22000 -3.513
26.24000 -0.685
26.26000 5.126
26.28000 4.158
26.30000 9.701
26.32000 9.565
26.34000 5.725
26.36000 1.865
26.38000 1.662
26.40000 4.488
26.42000 -1.045
26.44000 2.663
26.46000 1.944
26.48000 1.747
26.50000 2.227
26.52000 1.350
26.54000 5.311
26.56000 5.416
26.58000 2.682
26.60000 2.905
26.62000 8.229
26.64000 5.006
26.66000 1.723
26.68000 2.001
26.70000 1.275
26.72000 -2.718
26.74000 -0.174
26.76000 1.076
26.78000 2.818
26.80000 5.826
26.82000 3.908
26.84000 5.306
26.86000 7.053
26.88000 5.879
26.90000 0.467
26.92000 0.623
26.94000 5.157
26.96000 6.811
26.98000 5.567
27.00000 2.964
27.02000 0.931
27.04000 1.688
27.06000 -1.990
27.08000 -0.248
27.10000 1.127
27.12000 4.643
27.14000 8.062
27.16000 3.907
27.18000 6.312
27.20000 5.999
27.22000 4.837
27.24000 3.685
27.26000 3.187
27.28000 0.970
27.30000 -3.818
27.32000 2.478
27.34000 0.587
27.36000 5.368
27.38000 6.114
27.40000 1.793
27.42000 0.119
27.44000 6.752
27.46000 7.365
27.48000 6.260
27.50000 5.499
27.52000 4.724
27.54000 -1.506
27.56000 5.047
27.58000 6.743
27.60000 10.100
27.62000 8.868
27.64000 11.286
27.66000 6.528
27.68000 3.441
27.70000 6.487
27.72000 4.659
27.74000 4.032
27.76000 0.602
27.78000 1.097
27.80000 0.662
27.82000 2.328
27.84000 10.622
27.86000 11.826
27.88000 6.715
27.90000 4.919
27.92000 2.899
27.94000 -1.944
27.96000 2.326
27.98000 4.166
28.00000 -0.310
28.02000 -1.378
28.04000 -3.762
28.06000 4.209
28.08000 3.356
28.10000 0.865
28.12000 -0.123
28.14000 0.722
28.16000 -3.235
28.18000 3.157
28.20000 1.930
28.22000 -0.364
28.24000 3.091
28.26000 4.856
28.28000 1.126
28.30000 1.123
28.32000 3.842
28.34000 -0.911
28.36000 6.791
28.38000 4.155
28.40000 1.021
28.42000 -3.735
28.44000 0.907
28.46000 4.182
28.48000 9.505
28.50000 6.095
28.52000 3.121
28.54000 4.244
28.56000 3.714
28.58000 6.831
28.60000 9.042
28.62000 5.322
28.64000 9.652
28.66000 6.719
28.68000 3.890
28.70000 4.630
28.72000 1.301
28.74000 5.072
28.76000 5.492
28.78000 -0.521
28.80000 4.380
28.82000 3.981
28.84000 5.236
28.86000 8.117
28.88000 1.826
28.90000 -3.715
28.92000 0.086
28.94000 9.948
28.96000 4.068
28.98000 1.545
29.00000 -0.667
29.02000 -2.529
29.04000 3.119
29.06000 8.636
29.08000 2.838
29.10000 0.932
29.12000 1.794
29.14000 3.530
29.16000 4.504
29.18000 0.307
29.20000 4.403
29.22000 2.021
29.24000 1.193
29.26000 -0.742
29.28000 0.902
29.30000 2.651
29.32000 2.355
29.34000 3.977
29.36000 7.627
29.38000 7.455
29.40000 5.542
29.42000 7.755
29.44000 4.884
29.46000 4.254
29.48000 3.182
29.50000 3.302
29.52000 0.982
29.54000 -0.085
29.56000 1.666
29.58000 3.381
29.60000 2.729
29.62000 1.557
29.64000 5.131
29.66000 4.386
29.68000 3.732
29.70000 1.343
29.72000 -1.933
29.74000 -1.210
29.76000 0.382
29.78000 4.121
29.80000 2.680
29.82000 5.460
29.84000 2.923
29.86000 -1.270
29.88000 5.555
29.90000 3.917
29.92000 -3.475
29.94000 -2.495
29.96000 -3.695
29.98000 -1.795
30.00000 -1.411
30.02000 1.373
30.04000 6.937
30.06000 4.736
30.08000 2.213
30.10000 2.055
30.12000 2.180
30.14000 0.693
30.16000 3.665
30.18000 0.801
30.20000 0.839
30.22000 0.672
30.24000 -0.101
30.26000 0.162
30.28000 1.521
30.30000 0.308
30.32000 0.112
30.34000 4.712
30.36000 5.005
30.38000 3.101
30.40000 3.356
30.42000 4.097
30.44000 2.759
30.46000 0.757
30.48000 0.935
30.50000 -3.668
30.52000 -0.287
30.54000 6.280
30.56000 3.378
30.58000 2.467
30.60000 2.369
30.62000 2.579
30.64000 2.637
30.66000 -1.078
30.68000 0.697
30.70000 -0.492
30.72000 -1.558
30.74000 3.017
30.76000 7.031
30.78000 4.840
30.80000 2.830
30.82000 -3.647
30.84000 0.756
30.86000 6.459
30.88000 6.776
30.90000 8.879
30.92000 6.968
30.94000 2.819
30.96000 -1.169
30.98000 1.568
31.00000 5.781
31.02000 3.886
31.04000 1.578
31.06000 5.658
31.08000 1.394
31.10000 -0.622
31.12000 1.319
31.14000 1.676
31.16000 3.520
31.18000 -1.960
31.20000 -0.026
31.22000 1.983
31.24000 4.353
31.26000 4.809
31.28000 5.892
31.30000 6.887
31.32000 9.187
31.34000 7.956
31.36000 4.053
31.38000 2.930
31.40000 -0.736
31.42000 1.854
31.44000 6.701
31.46000 6.317
31.48000 4.842
31.50000 2.663
31.52000 5.161
31.54000 2.215
31.56000 8.460
31.58000 9.903
31.60000 6.621
31.62000 9.936
31.64000 9.669
31.66000 6.836
31.68000 5.011
31.70000 6.163
31.72000 8.759
31.74000 5.394
31.76000 -0.764
31.78000 2.761
31.80000 -3.572
31.82000 4.009
31.84000 11.332
31.86000 8.815
31.88000 5.862
31.90000 7.685
31.92000 10.971
31.94000 10.937
31.96000 7.032
31.98000 3.364
32.00000 -0.812
32.02000 -0.813
32.04000 4.091
32.06000 3.750
32.08000 2.821
32.10000 5.171
32.12000 2.545
32.14000 3.243
32.16000 0.963
32.18000 2.938
32.20000 3.030
32.22000 -2.281
32.24000 -0.334
32.26000 3.980
32.28000 1.282
32.30000 7.201
32.32000 5.390
32.34000 5.722
32.36000 3.944
32.38000 6.572
32.40000 5.101
32.42000 1.863
32.44000 3.830
32.46000 -3.102
32.48000 0.667
32.50000 0.754
32.52000 0.576
32.54000 1.668
32.56000 1.390
32.58000 2.322
32.60000 3.827
32.62000 2.863
32.64000 1.958
32.66000 3.961
32.68000 4.495
32.70000 2.444
32.72000 4.553
32.74000 3.646
32.76000 4.684
32.78000 5.274
32.80000 2.951
32.82000 0.943
32.84000 -3.096
32.86000 3.926
32.88000 0.072
32.90000 -3.572
32.92000 2.309
32.94000 4.785
32.96000 -0.872
32.98000 3.463
33.00000 11.053
33.02000 6.688
33.04000 3.120
33.06000 1.521
33.08000 2.568
33.10000 3.096
33.12000 1.526
33.14000 -0.376
33.16000 1.830
33.18000 9.525
33.20000 5.166
33.22000 4.416
33.24000 3.289
33.26000 3.118
33.28000 3.446
33.30000 7.494
33.32000 6.810
33.34000 3.654
33.36000 -0.150
33.38000 2.466
33.40000 3.240
33.42000 4.862
33.44000 8.048
33.46000 4.989
33.48000 0.583
33.50000 -3.556
33.52000 3.790
33.54000 4.933
33.56000 3.585
33.58000 3.465
33.60000 12.458
33.62000 12.855
33.64000 12.323
33.66000 6.946
33.68000 7.829
33.70000 6.062
33.72000 5.995
33.74000 6.084
33.76000 3.943
33.78000 5.692
33.80000 1.595
33.82000 3.610
33.84000 9.191
33.86000 7.183
33.88000 3.780
33.90000 5.253
33.92000 4.560
33.94000 7.932
33.96000 6.590
33.98000 4.358
34.00000 6.771
34.02000 9.962
34.04000 12.504
34.06000 6.189
34.08000 4.093
34.10000 4.595
34.12000 8.723
34.14000 10.793
34.16000 7.017
34.18000 3.715
34.20000 6.086
34.22000 6.437
34.24000 10.471
34.26000 11.265
34.28000 7.935
34.30000 5.935
34.32000 3.720
34.34000 8.626
34.36000 3.763
34.38000 3.522
34.40000 0.667
34.42000 2.304
34.44000 4.145
34.46000 3.497
34.48000 5.606
34.50000 4.734
34.52000 -2.864
34.54000 -1.058
34.56000 0.391
34.58000 3.129
34.60000 5.032
34.62000 5.668
34.64000 2.159
34.66000 0.896
34.68000 2.597
34.70000 3.544
34.72000 2.390
34.74000 3.604
34.76000 6.090
34.78000 5.568
34.80000 6.150
34.82000 3.831
34.84000 3.023
34.86000 3.243
34.88000 2.427
34.90000 3.501
34.92000 6.078
34.94000 5.069
34.96000 6.327
34.98000 -0.831
35.00000 -3.059
35.02000 -0.056
35.04000 -3.515
35.06000 -0.347
35.08000 4.567
35.10000 0.950
35.12000 -0.654
35.14000 1.428
35.16000 0.695
35.18000 1.566
35.20000 1.853
35.22000 2.156
35.24000 1.058
35.26000 4.209
35.28000 8.193
35.30000 7.413
35.32000 0.670
35.34000 0.146
35.36000 2.732
35.38000 7.643
35.40000 6.144
35.42000 8.455
35.44000 11.574
35.46000 6.707
35.48000 2.902
35.50000 0.332
35.52000 2.136
35.54000 1.386
35.56000 1.383
35.58000 1.093
35.60000 2.042
35.62000 4.934
35.64000 4.915
35.66000 3.804
35.68000 4.152
35.70000 2.915
35.72000 5.966
35.74000 10.522
35.76000 4.004
35.78000 3.374
35.80000 5.259
35.82000 6.228
35.84000 7.504
35.86000 3.100
35.88000 0.264
35.90000 3.828
35.92000 3.082
35.94000 -1.674
35.96000 -3.523
35.98000 0.439
36.00000 -1.257
36.02000 1.424
36.04000 8.432
36.06000 7.850
36.08000 4.321
36.10000 5.941
36.12000 7.389
36.14000 5.035
36.16000 9.387
36.18000 6.662
36.20000 4.392
36.22000 4.117
36.24000 4.881
36.26000 -0.984
36.28000 -3.090
36.30000 -2.836
36.32000 4.508
36.34000 4.718
36.36000 3.776
36.38000 3.049
36.40000 3.671
36.42000 6.441
36.44000 5.821
36.46000 3.494
36.48000 0.946
36.50000 2.241
36.52000 2.727
36.54000 1.751
36.56000 3.062
36.58000 11.834
36.60000 7.887
36.62000 4.111
36.64000 2.851
36.66000 3.651
36.68000 5.174
36.70000 6.066
36.72000 3.908
36.74000 4.547
36.76000 5.513
36.78000 3.831
36.80000 3.811
36.82000 1.665
36.84000 0.719
36.86000 4.388
36.88000 4.705
36.90000 6.747
36.92000 7.733
36.94000 7.954
36.96000 9.156
36.98000 6.881
37.00000 4.763
37.02000 6.186
37.04000 7.514
37.06000 8.732
37.08000 8.865
37.10000 7.167
37.12000 8.316
37.14000 8.376
37.16000 5.678
37.18000 3.189
37.20000 8.402
37.22000 10.023
37.24000 9.471
37.26000 5.062
37.28000 9.829
37.30000 12.823
37.32000 6.080
37.34000 5.229
37.36000 8.169
37.38000 7.581
37.40000 9.466
37.42000 12.177
37.44000 12.304
37.46000 10.541
37.48000 9.271
37.50000 5.730
37.52000 11.938
37.54000 15.185
37.56000 12.475
37.58000 12.480
37.60000 19.118
37.62000 18.339
37.64000 16.554
37.66000 13.062
37.68000 13.188
37.70000 16.593
37.72000 19.590
37.74000 18.362
37.76000 15.919
37.78000 20.112
37.80000 23.224
37.82000 22.763
37.84000 26.735
37.86000 23.627
37.88000 21.596
37.90000 28.196
37.92000 28.234
37.94000 25.972
37.96000 21.940
37.98000 28.681
38.00000 26.918
38.02000 26.419
38.04000 31.006
38.06000 28.449
38.08000 29.052
38.10000 33.173
38.12000 29.870
38.14000 31.898
38.16000 35.861
38.18000 35.035
38.20000 38.295
38.22000 39.455
38.24000 39.675
38.26000 38.199
38.28000 37.805
38.30000 38.705
38.32000 43.399
38.34000 49.358
38.36000 54.521
38.38000 56.553
38.40000 48.793
38.42000 49.994
38.44000 54.288
38.46000 60.659
38.48000 59.545
38.50000 61.231
38.52000 62.140
38.54000 68.335
38.56000 79.788
38.58000 83.180
38.60000 80.467
38.62000 81.727
38.64000 88.315
38.66000 95.382
38.68000 100.016
38.70000 106.534
38.72000 111.729
38.74000 117.463
38.76000 127.973
38.78000 128.948
38.80000 139.686
38.82000 147.140
38.84000 154.243
38.86000 156.497
38.88000 174.267
38.90000 187.580
38.92000 193.525
38.94000 203.624
38.96000 219.382
38.98000 233.028
39.00000 240.456
39.02000 255.259
39.04000 272.593
39.06000 293.768
39.08000 308.206
39.10000 320.588
39.12000 341.510
39.14000 359.837
39.16000 376.680
39.18000 397.105
39.20000 413.747
39.22000 430.458
39.24000 443.401
39.26000 454.956
39.28000 469.516
39.30000 485.254
39.32000 493.204
39.34000 505.281
39.36000 512.691
39.38000 523.735
39.40000 522.048
39.42000 525.047
39.44000 527.143
39.46000 527.177
39.48000 516.296
39.50000 511.786
39.52000 505.721
39.54000 503.706
39.56000 494.184
39.58000 473.476
39.60000 464.971
39.62000 452.686
39.64000 438.167
39.66000 416.156
39.68000 396.396
39.70000 383.947
39.72000 363.063
39.74000 341.520
39.76000 328.078
39.78000 315.556
39.80000 298.446
39.82000 278.097
39.84000 260.220
39.86000 245.827
39.88000 230.141
39.90000 225.527
39.92000 208.349
39.94000 187.851
39.96000 170.771
39.98000 160.581
40.00000 156.145
40.02000 150.118
40.04000 142.178
40.06000 127.441
40.08000 118.740
40.10000 110.563
40.12000 99.983
40.14000 94.788
40.16000 90.659
40.18000 88.985
40.20000 86.991
40.22000 81.630
40.24000 74.598
40.26000 70.188
40.28000 65.493
40.30000 60.307
40.32000 61.509
40.34000 55.328
40.36000 55.229
40.38000 54.620
40.40000 45.739
40.42000 40.215
40.44000 44.184
40.46000 48.771
40.48000 42.364
40.50000 38.089
40.52000 35.479
40.54000 33.620
40.56000 31.257
40.58000 29.850
40.60000 32.116
40.62000 33.968
40.64000 30.993
40.66000 27.441
40.68000 23.264
40.70000 20.818
40.72000 22.330
40.74000 26.099
40.76000 26.889
40.78000 22.392
40.80000 18.874
40.82000 18.481
40.84000 18.111
40.86000 19.113
40.88000 19.147
40.90000 12.587
40.92000 13.645
40.94000 16.061
40.96000 14.154
40.98000 12.531
41.00000 8.953
41.02000 8.735
41.04000 13.506
41.06000 11.017
41.08000 6.334
41.10000 9.442
41.12000 8.813
41.14000 13.020
41.16000 10.641
41.18000 8.154
41.20000 12.620
41.22000 16.587
41.24000 12.147
41.26000 10.130
41.28000 7.860
41.30000 5.076
41.32000 6.636
41.34000 6.300
41.36000 8.713
41.38000 7.496
41.40000 7.389
41.42000 3.685
41.44000 4.232
41.46000 -0.416
41.48000 1.059
41.50000 2.296
41.52000 0.980
41.54000 3.929
41.56000 2.118
41.58000 3.361
41.60000 2.636
41.62000 5.098
41.64000 8.306
41.66000 8.469
41.68000 3.283
41.70000 3.326
41.72000 4.713
41.74000 5.842
41.76000 3.155
41.78000 4.344
41.80000 4.537
41.82000 8.143
41.84000 6.174
41.86000 10.455
41.88000 6.178
41.90000 1.523
41.92000 0.564
41.94000 5.188
41.96000 6.982
41.98000 1.236
42.00000 -1.421
42.02000 2.145
42.04000 4.488
42.06000 1.477
42.08000 -0.347
42.10000 2.749
42.12000 6.103
42.14000 3.086
42.16000 1.831
42.18000 2.666
42.20000 3.437
42.22000 4.181
42.24000 -3.350
42.26000 -1.525
42.28000 -1.406
42.30000 1.608
42.32000 0.043
42.34000 2.409
42.36000 4.709
42.38000 3.970
42.40000 1.433
42.42000 2.615
42.44000 2.984
42.46000 5.363
42.48000 1.185
42.50000 -2.623
42.52000 -2.787
42.54000 1.431
42.56000 3.291
42.58000 -1.960
42.60000 -1.778
42.62000 -2.734
42.64000 1.218
42.66000 -0.153
42.68000 -2.492
42.70000 1.927
42.72000 3.037
42.74000 3.192
42.76000 0.030
42.78000 -2.590
42.80000 2.994
42.82000 -0.115
42.84000 1.963
42.86000 3.147
42.88000 4.313
42.90000 4.502
42.92000 4.047
42.94000 3.038
42.96000 -0.032
42.98000 -0.978
43.00000 0.599
43.02000 4.333
43.04000 3.823
43.06000 4.184
43.08000 3.203
43.10000 4.011
43.12000 0.611
43.14000 1.178
43.16000 -0.668
43.18000 0.274
43.20000 1.757
43.22000 -0.216
43.24000 -2.516
43.26000 -0.011
43.28000 4.212
43.30000 1.151
43.32000 1.499
43.34000 2.465
43.36000 -3.228
43.38000 -1.470
43.40000 0.284
43.42000 0.869
43.44000 1.861
43.46000 2.726
43.48000 1.424
43.50000 -0.033
43.52000 2.979
43.54000 4.772
43.56000 4.678
43.58000 1.037
43.60000 2.386
43.62000 1.061
43.64000 -0.520
43.66000 3.839
43.68000 4.229
43.70000 2.325
43.72000 -0.085
43.74000 3.293
43.76000 5.901
43.78000 4.974
43.80000 -0.873
43.82000 -2.175
43.84000 -3.182
43.86000 0.059
43.88000 2.758
43.90000 -3.182
43.92000 -0.531
43.94000 2.679
43.96000 5.037
43.98000 5.419
44.00000 4.620
44.02000 4.424
44.04000 1.946
44.06000 3.205
44.08000 9.622
44.10000 5.761
44.12000 1.497
44.14000 3.606
44.16000 1.036
44.18000 0.929
44.20000 0.880
44.22000 0.117
44.24000 -0.169
44.26000 2.781
44.28000 5.590
44.30000 3.815
44.32000 3.828
44.34000 2.456
44.36000 0.091
44.38000 0.874
44.40000 2.161
44.42000 4.701
44.44000 5.595
44.46000 3.902
44.48000 4.170
44.50000 3.557
44.52000 3.289
44.54000 4.874
44.56000 3.115
44.58000 0.416
44.60000 4.224
44.62000 6.102
44.64000 3.145
44.66000 2.913
44.68000 2.896
44.70000 3.943
44.72000 5.591
44.74000 6.524
44.76000 7.645
44.78000 5.476
44.80000 5.332
44.82000 7.145
44.84000 3.354
44.86000 5.324
44.88000 6.285
44.90000 8.986
44.92000 11.304
44.94000 7.538
44.96000 7.905
44.98000 9.322
45.00000 10.507
45.02000 8.644
45.04000 8.348
45.06000 12.497
45.08000 10.839
45.10000 12.438
45.12000 14.395
45.14000 15.188
45.16000 14.359
45.18000 13.934
45.20000 14.978
45.22000 15.708
45.24000 16.871
45.26000 16.003
45.28000 15.638
45.30000 19.212
45.32000 18.323
45.34000 22.623
45.36000 25.400
45.38000 24.884
45.40000 21.869
45.42000 22.052
45.44000 26.320
45.46000 26.323
45.48000 28.472
45.50000 31.912
45.52000 35.439
45.54000 30.583
45.56000 34.451
45.58000 36.259
45.60000 35.993
45.62000 41.405
45.64000 44.696
45.66000 50.153
45.68000 48.988
45.70000 48.948
45.72000 47.311
45.74000 53.618
45.76000 59.365
45.78000 55.653
45.80000 55.204
45.82000 54.083
45.84000 57.176
45.86000 57.888
45.88000 56.432
45.90000 56.764
45.92000 63.451
45.94000 64.564
45.96000 65.881
45.98000 63.469
46.00000 67.939
46.02000 69.565
46.04000 69.042
46.06000 64.849
46.08000 66.752
46.10000 68.145
46.12000 64.446
46.14000 62.849
46.16000 63.023
46.18000 62.954
46.20000 60.988
46.22000 58.532
46.24000 58.419
46.26000 61.328
46.28000 60.156
46.30000 59.126
46.32000 58.322
46.34000 58.859
46.36000 59.849
46.38000 54.450
46.40000 44.217
46.42000 43.621
46.44000 44.055
46.46000 44.373
46.48000 39.400
46.50000 38.627
46.52000 31.964
46.54000 36.158
46.56000 35.747
46.58000 35.027
46.60000 32.255
46.62000 28.282
46.64000 26.693
46.66000 22.441
46.68000 27.042
46.70000 23.028
46.72000 19.269
46.74000 20.863
46.76000 19.226
46.78000 19.196
46.80000 18.027
46.82000 17.543
46.84000 17.180
46.86000 16.556
46.88000 14.507
46.90000 15.528
46.92000 8.414
46.94000 6.148
46.96000 8.368
46.98000 8.943
47.00000 6.522
47.02000 5.252
47.04000 6.462
47.06000 5.120
47.08000 4.328
47.10000 5.749
47.12000 2.705
47.14000 3.542
47.16000 2.567
47.18000 5.370
47.20000 6.017
47.22000 6.094
47.24000 4.923
47.26000 4.488
47.28000 4.838
47.30000 0.622
47.32000 3.121
47.34000 2.904
47.36000 1.518
47.38000 0.665
47.40000 -1.475
47.42000 1.368
47.44000 -2.843
47.46000 -2.324
47.48000 3.896
47.50000 3.374
47.52000 4.523
47.54000 1.609
47.56000 2.540
47.58000 6.131
47.60000 2.921
47.62000 -0.205
47.64000 -1.654
47.66000 -0.021
47.68000 2.804
47.70000 0.153
47.72000 -2.218
47.74000 -0.303
47.76000 1.808
47.78000 1.958
47.80000 0.681
47.82000 6.504
47.84000 3.119
47.86000 -2.058
47.88000 -0.195
47.90000 4.637
47.92000 -0.020
47.94000 -2.743
47.96000 0.217
47.98000 -1.588
48.00000 0.023
48.02000 1.581
48.04000 2.421
48.06000 7.858
48.08000 7.082
48.10000 2.594
48.12000 4.133
48.14000 -2.315
48.16000 2.836
48.18000 4.228
48.20000 2.112
48.22000 -0.786
48.24000 1.760
48.26000 -1.320
48.28000 1.566
48.30000 4.047
48.32000 0.809
48.34000 -2.085
48.36000 1.308
48.38000 3.753
48.40000 1.851
48.42000 -0.887
48.44000 2.954
48.46000 1.210
48.48000 -1.327
48.50000 2.159
48.52000 4.787
48.54000 2.292
48.56000 -0.237
48.58000 1.201
48.60000 2.453
48.62000 5.637
48.64000 6.605
48.66000 5.224
48.68000 4.279
48.70000 3.973
48.72000 2.035
48.74000 -1.612
48.76000 0.972
48.78000 1.039
48.80000 -0.010
48.82000 6.544
48.84000 8.088
48.86000 3.762
48.88000 2.790
48.90000 5.206
48.92000 5.485
48.94000 4.296
48.96000 2.640
48.98000 -0.009
49.00000 -1.807
49.02000 -2.613
49.04000 1.492
49.06000 3.370
49.08000 5.622
49.10000 4.387
49.12000 4.181
49.14000 1.354
49.16000 0.521
49.18000 1.660
49.20000 3.546
49.22000 2.673
49.24000 5.219
49.26000 6.773
49.28000 3.364
49.30000 5.242
49.32000 5.806
49.34000 4.847
49.36000 -2.622
49.38000 -1.396
49.40000 5.290
49.42000 3.571
49.44000 2.765
49.46000 3.911
49.48000 0.878
49.50000 2.011
49.52000 5.672
49.54000 3.419
49.56000 1.171
49.58000 3.497
49.60000 4.407
49.62000 1.683
49.64000 2.557
49.66000 3.906
49.68000 6.957
49.70000 5.175
49.72000 4.975
49.74000 4.982
49.76000 4.677
49.78000 -0.049
49.80000 0.051
49.82000 1.710
49.84000 3.491
49.86000 4.012
49.88000 2.690
49.90000 -0.372
49.92000 1.890
49.94000 0.754
49.96000 2.554
49.98000 5.210
50.00000 2.102
50.02000 1.736
50.04000 1.221
50.06000 -1.022
50.08000 2.645
50.10000 2.375
50.12000 2.754
50.14000 0.004
50.16000 -1.924
50.18000 -2.314
50.20000 0.108
50.22000 2.175
50.24000 1.177
50.26000 1.288
50.28000 1.513
50.30000 -1.816
50.32000 3.751
50.34000 2.427
50.36000 -1.294
50.38000 0.268
50.40000 0.941
50.42000 0.313
50.44000 -0.555
50.46000 -0.550
50.48000 -0.812
50.50000 1.126
50.52000 -2.616
50.54000 -1.353
50.56000 0.775
50.58000 -0.818
50.60000 1.740
50.62000 5.259
50.64000 1.772
50.66000 -0.896
50.68000 1.040
50.70000 0.436
50.72000 4.120
50.74000 2.432
50.76000 2.183
50.78000 3.065
50.80000 3.869
50.82000 0.597
50.84000 -1.692
50.86000 -1.910
50.88000 0.141
50.90000 0.180
50.92000 0.748
50.94000 -0.301
50.96000 0.263
50.98000 1.716
51.00000 -0.057
51.02000 0.892
51.04000 -0.969
51.06000 1.083
51.08000 0.771
51.10000 -1.853
51.12000 -1.191
51.14000 2.529
51.16000 2.795
51.18000 2.632
51.20000 3.943
51.22000 1.928
51.24000 3.070
51.26000 3.949
51.28000 2.294
51.30000 4.057
51.32000 5.747
51.34000 0.809
51.36000 1.629
51.38000 1.928
51.40000 3.146
51.42000 6.505
51.44000 5.248
51.46000 5.882
51.48000 1.499
51.50000 -0.096
51.52000 1.431
51.54000 -0.173
51.56000 1.529
51.58000 1.138
51.60000 0.896
51.62000 -1.199
51.64000 -2.577
51.66000 -1.683
51.68000 3.284
51.70000 4.002
51.72000 3.396
51.74000 2.700
51.76000 -0.353
51.78000 -1.672
51.80000 2.342
51.82000 1.620
51.84000 1.789
51.86000 1.568
51.88000 1.298
51.90000 3.866
51.92000 2.501
51.94000 5.258
51.96000 6.356
51.98000 6.604
52.00000 6.704
52.02000 2.564
52.04000 4.185
52.06000 8.494
52.08000 9.224
52.10000 4.947
52.12000 1.589
52.14000 0.535
52.16000 2.495
52.18000 6.165
52.20000 7.162
52.22000 7.396
52.24000 0.677
52.26000 1.531
52.28000 6.532
52.30000 1.337
52.32000 -0.856
52.34000 3.447
52.36000 5.236
52.38000 8.131
52.40000 5.093
52.42000 4.214
52.44000 6.903
52.46000 4.008
52.48000 -0.517
52.50000 2.785
52.52000 7.173
52.54000 6.566
52.56000 1.736
52.58000 5.455
52.60000 6.280
52.62000 3.719
52.64000 2.281
52.66000 -2.497
52.68000 -1.262
52.70000 1.780
52.72000 2.493
52.74000 1.181
52.76000 3.891
52.78000 5.603
52.80000 7.271
52.82000 6.808
52.84000 2.949
52.86000 1.270
52.88000 0.900
52.90000 0.880
52.92000 1.254
52.94000 2.791
52.96000 3.489
52.98000 4.105
53.00000 5.944
53.02000 6.280
53.04000 4.281
53.06000 1.024
53.08000 1.780
53.10000 5.222
53.12000 4.835
53.14000 1.308
53.16000 1.065
53.18000 1.468
53.20000 1.803
53.22000 3.122
53.24000 5.119
53.26000 4.267
53.28000 5.675
53.30000 1.459
53.32000 -0.397
53.34000 1.678
53.36000 3.190
53.38000 2.121
53.40000 1.336
53.42000 0.312
53.44000 -1.769
53.46000 1.130
53.48000 5.412
53.50000 6.473
53.52000 3.432
53.54000 0.017
53.56000 0.110
53.58000 -1.974
53.60000 -0.899
53.62000 0.450
53.64000 2.690
53.66000 2.060
53.68000 2.794
53.70000 1.789
53.72000 3.954
53.74000 4.782
53.76000 0.161
53.78000 3.063
53.80000 3.574
53.82000 3.586
53.84000 4.745
53.86000 1.595
53.88000 -0.468
53.90000 2.047
53.92000 3.022
53.94000 -0.214
53.96000 0.015
53.98000 4.464
54.00000 5.672
54.02000 2.078
54.04000 -0.970
54.06000 1.818
54.08000 -0.668
54.10000 3.612
54.12000 2.351
54.14000 6.900
54.16000 5.192
54.18000 3.573
54.20000 2.922
54.22000 3.115
54.24000 1.594
54.26000 1.341
54.28000 -0.362
54.30000 0.574
54.32000 4.670
54.34000 6.186
54.36000 4.112
54.38000 -1.128
54.40000 -2.488
54.42000 -1.165
54.44000 2.739
54.46000 1.388
54.48000 2.428
54.50000 1.800
54.52000 2.371
54.54000 3.930
54.56000 0.979
54.58000 0.619
54.60000 0.922
54.62000 1.617
54.64000 0.780
54.66000 3.480
54.68000 4.573
54.70000 6.870
54.72000 5.758
54.74000 3.000
54.76000 2.625
54.78000 2.509
54.80000 6.122
54.82000 3.313
54.84000 1.066
54.86000 3.232
54.88000 1.909
54.90000 0.862
54.92000 0.838
54.94000 4.614
54.96000 1.327
54.98000 3.007
55.00000 4.572
55.02000 4.223
55.04000 1.014
55.06000 2.374
55.08000 -0.604
55.10000 -0.721
55.12000 0.857
55.14000 0.822
55.16000 2.453
55.18000 4.967
55.20000 1.583
55.22000 2.718
55.24000 3.034
55.26000 5.589
55.28000 6.316
55.30000 6.194
55.32000 1.875
55.34000 3.797
55.36000 4.193
55.38000 5.022
55.40000 2.688
55.42000 2.046
55.44000 2.305
55.46000 1.109
55.48000 1.047
55.50000 -0.481
55.52000 0.363
55.54000 0.070
55.56000 2.461
55.58000 3.322
55.60000 5.123
55.62000 2.527
55.64000 2.748
55.66000 0.240
55.68000 -2.461
55.70000 2.083
55.72000 1.406
55.74000 2.193
55.76000 2.427
55.78000 2.127
55.80000 3.220
55.82000 2.419
55.84000 0.208
55.86000 3.424
55.88000 3.544
55.90000 8.010
55.92000 5.699
55.94000 1.583
55.96000 6.031
55.98000 4.282
56.00000 -1.654
56.02000 0.292
56.04000 6.597
56.06000 5.373
56.08000 -0.963
56.10000 -0.176
56.12000 3.322
56.14000 4.572
56.16000 4.215
56.18000 0.928
56.20000 1.523
56.22000 4.599
56.24000 1.946
56.26000 -2.442
56.28000 -1.548
56.30000 -0.587
56.32000 3.172
56.34000 0.820
56.36000 -0.408
56.38000 2.483
56.40000 -0.720
56.42000 -1.187
56.44000 2.515
56.46000 -0.488
56.48000 2.904
56.50000 5.528
56.52000 1.268
56.54000 0.108
56.56000 2.612
56.58000 1.742
56.60000 0.557
56.62000 3.101
56.64000 1.950
56.66000 -0.274
56.68000 3.132
56.70000 0.998
56.72000 1.032
56.74000 1.655
56.76000 2.626
56.78000 2.826
56.80000 1.054
56.82000 1.708
56.84000 2.096
56.86000 1.274
56.88000 2.961
56.90000 0.294
56.92000 -1.062
56.94000 2.502
56.96000 2.897
56.98000 1.714
57.00000 5.100
57.02000 6.182
57.04000 1.412
57.06000 -0.026
57.08000 3.050
57.10000 3.278
57.12000 1.924
57.14000 -0.084
57.16000 -0.245
57.18000 0.090
57.20000 0.539
57.22000 2.997
57.24000 5.432
57.26000 2.066
57.28000 0.290
57.30000 -1.063
57.32000 1.321
57.34000 -0.114
57.36000 0.602
57.38000 0.134
57.40000 2.323
57.42000 1.508
57.44000 2.593
57.46000 2.466
57.48000 0.575
57.50000 2.728
57.52000 1.845
57.54000 0.354
57.56000 3.448
57.58000 4.200
57.60000 1.852
57.62000 0.310
57.64000 -1.249
57.66000 -0.159
57.68000 0.952
57.70000 -2.406
57.72000 -2.405
57.74000 1.562
57.76000 3.750
57.78000 2.936
57.80000 2.043
57.82000 0.794
57.84000 3.078
57.86000 3.492
57.88000 0.027
57.90000 2.185
57.92000 3.209
57.94000 3.133
57.96000 2.523
57.98000 -0.624
58.00000 2.623
58.02000 3.065
58.04000 0.550
58.06000 3.686
58.08000 2.895
58.10000 1.451
58.12000 -0.863
58.14000 -2.262
58.16000 -0.561
58.18000 2.817
58.20000 5.205
58.22000 3.254
58.24000 1.271
58.26000 1.087
58.28000 0.887
58.30000 2.124
58.32000 -0.206
58.34000 1.522
58.36000 1.531
58.38000 2.021
58.40000 1.964
58.42000 -0.827
58.44000 -0.571
58.46000 1.418
58.48000 0.435
58.50000 -1.903
58.52000 0.573
58.54000 1.985
58.56000 -0.556
58.58000 1.295
58.60000 1.073
58.62000 2.112
58.64000 4.070
58.66000 3.062
58.68000 1.899
58.70000 -0.063
58.72000 -0.010
58.74000 1.714
58.76000 -2.392
58.78000 1.392
58.80000 2.993
58.82000 -0.552
58.84000 -1.941
58.86000 -0.128
58.88000 2.040
58.90000 -0.168
58.92000 1.224
58.94000 6.151
58.96000 1.735
58.98000 1.054
59.00000 4.001
59.02000 7.180
59.04000 5.800
59.06000 2.655
59.08000 -0.021
59.10000 -0.399
59.12000 2.539
59.14000 -0.326
59.16000 -2.371
59.18000 1.728
59.20000 2.151
59.22000 1.096
59.24000 -1.481
59.26000 -1.706
59.28000 -2.311
59.30000 0.202
59.32000 2.308
59.34000 1.873
59.36000 0.597
59.38000 1.796
59.40000 1.344
59.42000 0.887
59.44000 -0.841
59.46000 -0.632
59.48000 -1.781
59.50000 -2.357
59.52000 -0.021
59.54000 2.878
59.56000 1.376
59.58000 2.510
59.60000 5.039
59.62000 5.451
59.64000 1.758
59.66000 1.424
59.68000 4.067
59.70000 4.809
59.72000 5.698
59.74000 0.894
59.76000 2.117
59.78000 1.711
59.80000 0.861
59.82000 0.811
59.84000 2.181
59.86000 3.739
59.88000 0.038
59.90000 1.921
59.92000 4.017
59.94000 3.859
59.96000 2.920
59.98000 1.588
60.00000 0.868
60.02000 3.961
60.04000 2.144
60.06000 0.975
60.08000 1.250
60.10000 -2.334
60.12000 -1.842
60.14000 -0.453
60.16000 1.775
60.18000 2.520
60.20000 4.278
60.22000 4.821
60.24000 4.771
60.26000 3.238
60.28000 2.436
60.30000 3.312
60.32000 4.874
60.34000 5.093
60.36000 4.925
60.38000 -0.563
60.40000 3.516
60.42000 2.309
60.44000 0.651
60.46000 0.215
60.48000 0.521
60.50000 3.076
60.52000 5.729
60.54000 2.179
60.56000 1.902
60.58000 3.878
60.60000 2.725
60.62000 2.029
60.64000 4.570
60.66000 5.922
60.68000 6.413
60.70000 1.958
60.72000 6.660
60.74000 3.336
60.76000 3.443
60.78000 2.881
60.80000 3.249
60.82000 -0.331
60.84000 3.664
60.86000 3.956
60.88000 2.502
60.90000 -1.274
60.92000 -0.147
60.94000 3.841
60.96000 0.833
60.98000 -1.851
61.00000 -2.286
61.02000 2.400
61.04000 6.661
61.06000 4.326
61.08000 2.992
61.10000 4.217
61.12000 6.180
61.14000 9.037
61.16000 2.587
61.18000 2.643
61.20000 3.766
61.22000 4.482
61.24000 5.888
61.26000 5.832
61.28000 3.919
61.30000 2.727
61.32000 4.701
61.34000 1.854
61.36000 5.316
61.38000 5.501
61.40000 1.902
61.42000 1.875
61.44000 2.044
61.46000 2.069
61.48000 4.249
61.50000 5.583
61.52000 0.246
61.54000 1.863
61.56000 -0.104
61.58000 1.621
61.60000 3.406
61.62000 0.867
61.64000 -0.522
61.66000 1.832
61.68000 2.344
61.70000 5.971
61.72000 4.963
61.74000 3.731
61.76000 0.737
61.78000 1.692
61.80000 4.434
61.82000 5.006
61.84000 4.745
61.86000 2.992
61.88000 -0.623
61.90000 -2.272
61.92000 -2.030
61.94000 -0.754
61.96000 1.839
61.98000 4.175
62.00000 4.124
62.02000 4.276
62.04000 2.032
62.06000 2.503
62.08000 1.410
62.10000 1.327
62.12000 2.922
62.14000 1.229
62.16000 1.319
62.18000 2.032
62.20000 1.896
62.22000 0.454
62.24000 -1.181
62.26000 -1.298
62.28000 1.264
62.30000 0.718
62.32000 2.116
62.34000 2.018
62.36000 -0.674
62.38000 0.061
62.40000 -1.759
62.42000 -1.798
62.44000 -1.345
62.46000 1.624
62.48000 1.009
62.50000 2.378
62.52000 1.476
62.54000 -1.735
62.56000 -1.242
62.58000 -2.278
62.60000 0.869
62.62000 0.642
62.64000 -2.211
62.66000 0.254
62.68000 1.197
62.70000 1.636
62.72000 2.883
62.74000 3.627
62.76000 2.543
62.78000 1.065
62.80000 -0.384
62.82000 0.674
62.84000 -1.153
62.86000 0.770
62.88000 1.170
62.90000 1.929
62.92000 2.863
62.94000 0.112
62.96000 0.863
62.98000 4.358
63.00000 2.611
63.02000 3.927
63.04000 1.763
63.06000 2.167
63.08000 0.253
63.10000 0.700
63.12000 2.127
63.14000 -0.282
63.16000 -2.280
63.18000 0.151
63.20000 0.095
63.22000 3.073
63.24000 3.477
63.26000 0.304
63.28000 0.310
63.30000 -1.562
63.32000 0.411
63.34000 -1.658
63.36000 -0.585
63.38000 -0.282
63.40000 -0.824
63.42000 0.493
63.44000 2.108
63.46000 1.683
63.48000 1.139
63.50000 2.117
63.52000 2.671
63.54000 1.968
63.56000 -0.826
63.58000 1.707
63.60000 -0.138
63.62000 -1.229
63.64000 2.247
63.66000 1.681
63.68000 3.179
63.70000 5.800
63.72000 4.826
63.74000 4.323
63.76000 1.944
63.78000 2.203
63.80000 3.904
63.82000 4.659
63.84000 1.397
63.86000 -2.251
63.88000 -0.422
63.90000 0.638
63.92000 3.275
63.94000 3.611
63.96000 2.493
63.98000 1.411
64.00000 -0.647
64.02000 2.168
64.04000 2.121
64.06000 3.153
64.08000 0.707
64.10000 1.293
64.12000 3.594
64.14000 2.183
64.16000 4.060
64.18000 2.978
64.20000 0.011
64.22000 0.951
64.24000 -0.080
64.26000 -0.541
64.28000 3.017
64.30000 4.323
64.32000 3.609
64.34000 1.756
64.36000 2.553
64.38000 -0.821
64.40000 0.810
64.42000 0.567
64.44000 -1.298
64.46000 2.931
64.48000 3.547
64.50000 4.230
64.52000 1.642
64.54000 0.364
64.56000 -0.460
64.58000 -0.455
64.60000 -1.035
64.62000 -0.980
64.64000 -0.432
64.66000 2.145
64.68000 -0.189
64.70000 -2.247
64.72000 1.155
64.74000 -0.266
64.76000 0.602
64.78000 0.651
64.80000 -1.020
64.82000 1.795
64.84000 0.112
64.86000 1.750
64.88000 2.081
64.90000 0.076
64.92000 -1.658
64.94000 1.391
64.96000 2.405
64.98000 3.002
65.00000 2.815
65.02000 0.632
65.04000 -1.585
65.06000 -0.360
65.08000 1.569
65.10000 3.052
65.12000 0.501
65.14000 -0.828
65.16000 2.154
65.18000 2.221
65.20000 2.913
65.22000 2.253
65.24000 -0.271
65.26000 1.338
65.28000 -0.420
65.30000 -0.848
65.32000 -1.489
65.34000 1.574
65.36000 2.449
65.38000 -0.949
65.40000 -2.254
65.42000 -0.304
65.44000 1.182
65.46000 0.700
65.48000 2.274
65.50000 2.751
65.52000 1.191
65.54000 1.660
65.56000 -1.024
65.58000 1.010
65.60000 0.391
65.62000 0.158
65.64000 0.109
65.66000 1.213
65.68000 -0.378
65.70000 -0.036
65.72000 -1.541
65.74000 -1.753
65.76000 1.574
65.78000 2.985
65.80000 3.552
65.82000 1.176
65.84000 1.115
65.86000 0.780
65.88000 -0.063
65.90000 1.079
65.92000 0.274
65.94000 2.239
65.96000 2.217
65.98000 4.747
66.00000 2.091
66.02000 -2.257
66.04000 0.035
66.06000 1.794
66.08000 4.040
66.10000 1.505
66.12000 2.471
66.14000 4.651
66.16000 2.048
66.18000 0.823
66.20000 1.025
66.22000 1.825
66.24000 2.755
66.26000 0.630
66.28000 0.093
66.30000 0.277
66.32000 2.138
66.34000 0.872
66.36000 1.883
66.38000 2.973
66.40000 4.337
66.42000 1.894
66.44000 3.388
66.46000 2.155
66.48000 0.563
66.50000 0.542
66.52000 0.645
66.54000 2.849
66.56000 3.629
66.58000 6.010
66.60000 4.708
66.62000 4.729
66.64000 6.048
66.66000 6.218
66.68000 6.383
66.70000 6.392
66.72000 5.389
66.74000 2.266
66.76000 2.674
66.78000 3.740
66.80000 4.059
66.82000 3.345
66.84000 6.124
66.86000 5.548
66.88000 3.044
66.90000 5.136
66.92000 3.876
66.94000 4.501
66.96000 4.178
66.98000 4.618
67.00000 3.696
67.02000 5.061
67.04000 1.469
67.06000 1.349
67.08000 2.956
67.10000 7.303
67.12000 9.035
67.14000 8.009
67.16000 6.369
67.18000 4.261
67.20000 2.438
67.22000 5.361
67.24000 4.667
67.26000 8.537
67.28000 8.452
67.30000 8.974
67.32000 9.584
67.34000 4.158
67.36000 4.490
67.38000 4.198
67.40000 5.264
67.42000 4.524
67.44000 3.228
67.46000 2.508
67.48000 2.445
67.50000 4.120
67.52000 4.561
67.54000 4.400
67.56000 4.984
67.58000 -0.384
67.60000 0.583
67.62000 2.417
67.64000 2.054
67.66000 1.854
67.68000 4.067
67.70000 4.224
67.72000 0.769
67.74000 -0.131
67.76000 0.342
67.78000 1.420
67.80000 1.139
67.82000 0.304
67.84000 0.440
67.86000 1.320
67.88000 1.205
67.90000 1.250
67.92000 2.300
67.94000 4.383
67.96000 5.486
67.98000 3.590
68.00000 0.698
68.02000 -0.198
68.04000 -0.796
68.06000 -0.084
68.08000 2.876
68.10000 -1.468
68.12000 -1.463
68.14000 2.898
68.16000 0.974
68.18000 -0.857
68.20000 -2.156
68.22000 0.672
68.24000 0.453
68.26000 1.721
68.28000 2.630
68.30000 3.865
68.32000 4.310
68.34000 1.478
68.36000 1.515
68.38000 2.200
68.40000 3.648
68.42000 1.792
68.44000 0.404
68.46000 -1.086
68.48000 -1.447
68.50000 0.468
68.52000 2.964
68.54000 0.941
68.56000 -2.127
68.58000 -1.091
68.60000 1.326
68.62000 1.347
68.64000 1.300
68.66000 -0.055
68.68000 1.444
68.70000 3.626
68.72000 2.270
68.74000 0.728
68.76000 1.725
68.78000 0.206
68.80000 0.143
68.82000 2.215
68.84000 4.358
68.86000 5.455
68.88000 2.328
68.90000 2.987
68.92000 3.357
68.94000 2.976
68.96000 1.210
68.98000 1.185
69.00000 1.045
69.02000 3.116
69.04000 1.915
69.06000 0.549
69.08000 2.940
69.10000 2.093
69.12000 1.307
69.14000 2.428
69.16000 2.990
69.18000 2.836
69.20000 1.554
69.22000 1.352
69.24000 2.409
69.26000 0.805
69.28000 0.035
69.30000 -0.314
69.32000 0.402
69.34000 -1.054
69.36000 -0.809
69.38000 0.235
69.40000 1.246
69.42000 4.400
69.44000 4.197
69.46000 1.832
69.48000 0.721
69.50000 3.231
69.52000 1.757
69.54000 -1.737
69.56000 -2.075
69.58000 0.542
69.60000 0.403
69.62000 1.693
69.64000 -0.270
69.66000 1.820
69.68000 1.126
69.70000 -0.701
69.72000 0.611
69.74000 3.057
69.76000 4.160
69.78000 2.359
69.80000 2.923
69.82000 1.291
69.84000 1.288
69.86000 0.338
69.88000 0.364
69.90000 -0.501
69.92000 -0.719
69.94000 1.873
69.96000 3.449
69.98000 0.441
70.00000 2.112
70.02000 1.565
70.04000 -0.322
70.06000 1.083
70.08000 4.064
70.10000 0.474
70.12000 -0.368
70.14000 0.105
70.16000 0.566
70.18000 -1.993
70.20000 -0.667
70.22000 0.945
70.24000 0.815
70.26000 1.644
70.28000 0.800
70.30000 0.667
70.32000 2.325
70.34000 2.314
70.36000 1.382
70.38000 1.003
70.40000 -0.010
70.42000 -0.556
70.44000 -0.822
70.46000 2.725
70.48000 -2.072
70.50000 -0.846
70.52000 0.877
70.54000 1.739
70.56000 -0.866
70.58000 3.044
70.60000 0.703
70.62000 0.463
70.64000 2.131
70.66000 3.029
70.68000 3.298
70.70000 0.277
70.72000 0.207
70.74000 2.296
70.76000 -0.811
70.78000 -0.257
70.80000 0.411
70.82000 -1.245
70.84000 0.518
70.86000 -0.062
70.88000 -0.281
70.90000 4.030
70.92000 5.786
70.94000 2.119
70.96000 -0.455
70.98000 -0.542
71.00000 3.324
71.02000 3.054
71.04000 2.439
71.06000 2.484
71.08000 2.725
71.10000 2.012
71.12000 -0.555
71.14000 1.894
71.16000 3.592
71.18000 5.907
71.20000 3.882
71.22000 -0.770
71.24000 -2.029
71.26000 1.172
71.28000 -0.888
71.30000 -0.199
71.32000 1.125
71.34000 4.229
71.36000 3.228
71.38000 3.755
71.40000 2.308
71.42000 0.986
71.44000 0.976
71.46000 2.402
71.48000 4.795
71.50000 6.933
71.52000 3.511
71.54000 3.194
71.56000 2.633
71.58000 1.727
71.60000 0.288
71.62000 3.703
71.64000 1.800
71.66000 0.439
71.68000 -1.390
71.70000 -1.991
71.72000 0.359
71.74000 0.234
71.76000 1.715
71.78000 5.125
71.80000 4.749
71.82000 5.821
71.84000 3.743
71.86000 2.186
71.88000 1.167
71.90000 1.865
71.92000 0.635
71.94000 0.738
71.96000 0.228
71.98000 0.071
72.00000 3.660
72.02000 4.653
72.04000 0.820
72.06000 1.897
72.08000 1.739
72.10000 4.738
72.12000 0.919
72.14000 0.211
72.16000 -0.021
72.18000 1.889
72.20000 0.906
72.22000 1.593
72.24000 0.327
72.26000 1.881
72.28000 1.476
72.30000 1.463
72.32000 -1.992
72.34000 -0.374
72.36000 4.340
72.38000 1.979
72.40000 2.702
72.42000 4.360
72.44000 2.659
72.46000 1.858
72.48000 2.674
72.50000 0.456
72.52000 3.611
72.54000 0.785
72.56000 -0.999
72.58000 0.381
72.60000 0.245
72.62000 1.991
72.64000 -0.415
72.66000 0.196
72.68000 -0.554
72.70000 -0.406
72.72000 3.808
72.74000 3.710
72.76000 4.438
72.78000 2.109
72.80000 4.559
72.82000 1.436
72.84000 0.825
72.86000 -0.297
72.88000 -1.412
72.90000 -0.099
72.92000 0.031
72.94000 0.660
72.96000 -0.222
72.98000 0.346
73.00000 1.300
73.02000 1.434
73.04000 0.311
73.06000 -1.086
73.08000 -0.745
73.10000 1.112
73.12000 1.573
73.14000 0.469
73.16000 -0.798
73.18000 2.302
73.20000 1.978
73.22000 0.160
73.24000 1.212
73.26000 0.379
73.28000 -1.952
73.30000 0.060
73.32000 0.977
73.34000 -0.154
73.36000 6.303
73.38000 4.230
73.40000 1.734
73.42000 1.131
73.44000 -0.357
73.46000 1.558
73.48000 0.824
73.50000 -0.463
73.52000 1.478
73.54000 1.750
73.56000 2.226
73.58000 -0.118
73.60000 1.627
73.62000 1.197
73.64000 -0.182
73.66000 -1.958
73.68000 2.092
73.70000 0.180
73.72000 3.458
73.74000 2.965
73.76000 3.039
73.78000 2.452
73.80000 -0.072
73.82000 -0.269
73.84000 0.103
73.86000 2.051
73.88000 2.239
73.90000 0.085
73.92000 1.684
73.94000 4.070
73.96000 -0.428
73.98000 -0.573
74.00000 0.466
74.02000 0.229
74.04000 -1.944
74.06000 -1.494
74.08000 0.905
74.10000 2.472
74.12000 4.065
74.14000 3.125
74.16000 0.057
74.18000 0.420
74.20000 1.174
74.22000 -0.334
74.24000 -0.423
74.26000 0.739
74.28000 0.885
74.30000 0.162
74.32000 -0.929
74.34000 -0.155
74.36000 -0.610
74.38000 -0.151
74.40000 -0.252
74.42000 1.463
74.44000 0.637
74.46000 1.019
74.48000 3.067
74.50000 2.971
74.52000 -1.356
74.54000 1.303
74.56000 -0.083
74.58000 3.474
74.60000 2.820
74.62000 2.958
74.64000 1.061
74.66000 0.868
74.68000 -0.876
74.70000 -0.602
74.72000 -1.369
74.74000 -0.084
74.76000 -1.290
74.78000 3.391
74.80000 3.156
74.82000 -1.609
74.84000 -1.975
74.86000 0.888
74.88000 0.601
74.90000 -0.023
74.92000 -0.949
74.94000 4.335
74.96000 1.632
74.98000 -0.130
75.00000 4.804
75.02000 1.655
75.04000 2.697
75.06000 2.646
75.08000 2.685
75.10000 2.006
75.12000 4.139
75.14000 1.057
75.16000 2.210
75.18000 0.868
75.20000 -0.070
75.22000 -0.216
75.24000 -0.453
75.26000 1.033
75.28000 -0.183
75.30000 1.148
75.32000 -0.143
75.34000 -1.984
75.36000 -0.183
75.38000 2.404
75.40000 1.489
75.42000 -0.119
75.44000 0.031
75.46000 -1.604
75.48000 -0.928
75.50000 -1.516
75.52000 1.270
75.54000 1.646
75.56000 1.015
75.58000 -0.922
75.60000 -0.845
75.62000 -0.523
75.64000 -1.614
75.66000 1.586
75.68000 -0.070
75.70000 1.652
75.72000 2.659
75.74000 1.961
75.76000 3.289
75.78000 2.199
75.80000 3.338
75.82000 1.667
75.84000 4.477
75.86000 0.462
75.88000 -0.085
75.90000 0.581
75.92000 0.640
75.94000 0.738
75.96000 3.494
75.98000 1.181
76.00000 2.248
76.02000 4.300
76.04000 1.123
76.06000 -0.800
76.08000 1.384
76.10000 3.124
76.12000 0.614
76.14000 -0.292
76.16000 0.557
76.18000 -1.110
76.20000 -1.983
76.22000 0.005
76.24000 0.307
76.26000 -0.529
76.28000 2.547
76.30000 2.421
76.32000 1.698
76.34000 3.085
76.36000 1.928
76.38000 1.960
76.40000 4.456
76.42000 1.395
76.44000 0.889
76.46000 2.035
76.48000 2.977
76.50000 -1.027
76.52000 -0.551
76.54000 -1.060
76.56000 -1.823
76.58000 1.089
76.60000 4.029
76.62000 2.398
76.64000 1.760
76.66000 0.187
76.68000 4.454
76.70000 0.061
76.72000 -1.811
76.74000 0.035
76.76000 2.772
76.78000 1.453
76.80000 0.748
76.82000 2.168
76.84000 3.569
76.86000 3.697
76.88000 2.295
76.90000 1.148
76.92000 3.111
76.94000 4.493
76.96000 3.371
76.98000 1.946
77.00000 1.417
77.02000 2.058
77.04000 4.343
77.06000 1.559
77.08000 0.269
77.10000 1.099
77.12000 0.313
77.14000 0.918
77.16000 3.067
77.18000 3.563
77.20000 1.736
77.22000 3.792
77.24000 4.122
77.26000 4.016
77.28000 0.861
77.30000 -1.980
77.32000 2.085
77.34000 4.547
77.36000 3.275
77.38000 2.845
77.40000 1.273
77.42000 0.175
77.44000 1.133
77.46000 0.038
77.48000 2.173
77.50000 1.397
77.52000 2.707
77.54000 0.591
77.56000 -1.012
77.58000 -1.275
77.60000 -0.608
77.62000 2.697
77.64000 3.593
77.66000 2.923
77.68000 0.051
77.70000 -0.056
77.72000 0.976
77.74000 3.492
77.76000 2.406
77.78000 2.524
77.80000 -1.993
77.82000 3.520
77.84000 3.094
77.86000 2.465
77.88000 4.192
77.90000 4.938
77.92000 3.519
77.94000 2.374
77.96000 1.809
77.98000 0.867
78.00000 2.135
78.02000 5.806
78.04000 -0.130
78.06000 1.336
78.08000 1.153
78.10000 1.982
78.12000 5.732
78.14000 5.740
78.16000 2.341
78.18000 0.573
78.20000 1.914
78.22000 2.319
78.24000 3.432
78.26000 4.094
78.28000 0.119
78.30000 -0.910
78.32000 1.640
78.34000 2.204
78.36000 4.844
78.38000 5.567
78.40000 3.136
78.42000 1.680
78.44000 0.491
78.46000 -0.744
78.48000 -0.373
78.50000 0.092
78.52000 -2.062
78.54000 -0.145
78.56000 -1.125
78.58000 -0.225
78.60000 2.020
78.62000 1.498
78.64000 -1.474
78.66000 2.674
78.68000 5.138
78.70000 2.039
78.72000 -1.129
78.74000 1.047
78.76000 2.217
78.78000 0.509
78.80000 -2.088
78.82000 -0.822
78.84000 -0.964
78.86000 0.331
78.88000 1.662
78.90000 -0.664
78.92000 1.923
78.94000 0.259
78.96000 -1.664
78.98000 -0.522
79.00000 2.598
79.02000 2.931
79.04000 4.473
79.06000 2.782
79.08000 0.024
79.10000 -1.520
79.12000 2.232
79.14000 2.574
79.16000 2.779
79.18000 3.286
79.20000 0.274
79.22000 -1.524
79.24000 1.360
79.26000 1.064
79.28000 0.803
79.30000 -1.230
79.32000 1.005
79.34000 1.211
79.36000 0.810
79.38000 1.029
79.40000 -1.243
79.42000 -1.225
79.44000 -1.201
79.46000 0.169
79.48000 -2.166
79.50000 -1.402
79.52000 0.227
79.54000 3.535
79.56000 5.369
79.58000 2.752
79.60000 2.146
79.62000 2.258
79.64000 1.265
79.66000 -0.943
79.68000 0.206
79.70000 1.717
79.72000 3.607
79.74000 3.828
79.76000 2.729
79.78000 0.228
79.80000 0.106
79.82000 4.718
79.84000 3.225
79.86000 3.981
79.88000 4.789
79.90000 5.136
79.92000 4.476
79.94000 5.465
79.96000 5.595
79.98000 3.652
80.00000 4.580
80.02000 5.446
80.04000 5.718
80.06000 6.228
80.08000 10.845
80.10000 7.832
80.12000 7.171
80.14000 10.462
80.16000 10.329
80.18000 7.715
80.20000 7.504
80.22000 9.680
80.24000 12.629
80.26000 10.244
80.28000 9.865
80.30000 12.243
80.32000 15.425
80.34000 13.482
80.36000 14.084
80.38000 15.858
80.40000 18.904
80.42000 16.907
80.44000 14.505
80.46000 12.055
80.48000 10.622
80.50000 14.142
80.52000 12.909
80.54000 16.131
80.56000 16.002
80.58000 16.635
80.60000 18.272
80.62000 14.911
80.64000 14.214
80.66000 17.025
80.68000 21.124
80.70000 16.825
80.72000 15.400
80.74000 13.427
80.76000 17.868
80.78000 20.094
80.80000 20.174
80.82000 20.304
80.84000 17.471
80.86000 19.166
80.88000 20.724
80.90000 17.798
80.92000 14.853
80.94000 15.230
80.96000 21.300
80.98000 19.568
81.00000 19.784
81.02000 20.289
81.04000 17.424
81.06000 19.513
81.08000 18.271
81.10000 16.689
81.12000 13.627
81.14000 12.462
81.16000 12.263
81.18000 15.478
81.20000 17.906
81.22000 14.828
81.24000 12.165
81.26000 10.775
81.28000 8.826
81.30000 7.054
81.32000 9.342
81.34000 10.758
81.36000 9.692
81.38000 10.038
81.40000 12.853
81.42000 9.289
81.44000 6.178
81.46000 7.336
81.48000 6.833
81.50000 5.896
81.52000 5.616
81.54000 7.676
81.56000 6.332
81.58000 4.044
81.60000 6.982
81.62000 6.125
81.64000 4.817
81.66000 3.545
81.68000 2.714
81.70000 3.879
81.72000 8.135
81.74000 3.292
81.76000 4.519
81.78000 4.805
81.80000 6.680
81.82000 4.351
81.84000 4.672
81.86000 0.460
81.88000 -0.588
81.90000 1.101
81.92000 2.254
81.94000 2.054
81.96000 0.173
81.98000 3.497
82.00000 5.027
82.02000 1.399
82.04000 4.356
82.06000 2.918
82.08000 0.364
82.10000 -1.014
82.12000 1.180
82.14000 0.993
82.16000 -2.207
82.18000 -0.451
82.20000 1.081
82.22000 3.556
82.24000 4.705
82.26000 4.848
82.28000 1.718
82.30000 -0.218
82.32000 0.838
82.34000 1.246
82.36000 3.193
82.38000 2.666
82.40000 -0.601
82.42000 0.576
82.44000 2.547
82.46000 1.929
82.48000 -1.511
82.50000 0.116
82.52000 1.306
82.54000 0.559
82.56000 3.811
82.58000 2.058
82.60000 1.063
82.62000 -0.164
82.64000 2.871
82.66000 2.836
82.68000 2.768
82.70000 2.923
82.72000 1.549
82.74000 -0.833
82.76000 0.235
82.78000 1.259
82.80000 -0.789
82.82000 -2.191
82.84000 -1.663
82.86000 -0.654
82.88000 -1.137
82.90000 0.310
82.92000 1.264
82.94000 -0.470
82.96000 -0.711
82.98000 3.711
83.00000 4.803
83.02000 1.281
83.04000 -2.191
83.06000 -0.858
83.08000 2.000
83.10000 1.986
83.12000 -0.765
83.14000 0.443
83.16000 2.583
83.18000 4.279
83.20000 3.939
83.22000 3.550
83.24000 -0.970
83.26000 1.061
83.28000 0.470
83.30000 1.418
83.32000 3.618
83.34000 5.814
83.36000 6.547
83.38000 1.807
83.40000 3.728
83.42000 4.026
83.44000 2.496
83.46000 4.318
83.48000 4.619
83.50000 6.470
83.52000 4.334
83.54000 5.807
83.56000 4.555
83.58000 4.653
83.60000 6.101
83.62000 7.064
83.64000 9.454
83.66000 7.734
83.68000 8.390
83.70000 9.909
83.72000 8.006
83.74000 9.041
83.76000 6.998
83.78000 8.475
83.80000 9.042
83.82000 7.886
83.84000 10.761
83.86000 16.057
83.88000 15.158
83.90000 15.869
83.92000 13.754
83.94000 15.672
83.96000 14.715
83.98000 16.678
84.00000 13.590
84.02000 15.283
84.04000 16.345
84.06000 16.286
84.08000 19.545
84.10000 20.755
84.12000 21.126
84.14000 23.084
84.16000 24.508
84.18000 22.578
84.20000 22.349
84.22000 25.283
84.24000 21.537
84.26000 23.108
84.28000 26.086
84.30000 30.770
84.32000 32.064
84.34000 29.844
84.36000 32.507
84.38000 33.024
84.40000 31.197
84.42000 34.551
84.44000 32.551
84.46000 30.277
84.48000 31.644
84.50000 33.534
84.52000 33.877
84.54000 35.238
84.56000 37.511
84.58000 37.073
84.60000 34.510
84.62000 34.368
84.64000 36.244
84.66000 37.320
84.68000 37.049
84.70000 37.303
84.72000 35.751
84.74000 36.265
84.76000 38.559
84.78000 41.537
84.80000 32.939
84.82000 30.876
84.84000 33.222
84.86000 35.002
84.88000 32.312
84.90000 32.159
84.92000 33.805
84.94000 30.408
84.96000 26.743
84.98000 28.965
85.00000 24.109
85.02000 23.335
85.04000 25.181
85.06000 22.502
85.08000 23.854
85.10000 19.900
85.12000 21.958
85.14000 22.878
85.16000 20.993
85.18000 18.810
85.20000 21.613
85.22000 17.938
85.24000 18.441
85.26000 19.855
85.28000 19.307
85.30000 16.141
85.32000 13.086
85.34000 11.202
85.36000 8.958
85.38000 9.162
85.40000 10.182
85.42000 8.997
85.44000 12.194
85.46000 8.579
85.48000 6.494
85.50000 5.718
85.52000 10.716
85.54000 8.228
85.56000 6.011
85.58000 3.178
85.60000 1.566
85.62000 0.792
85.64000 4.079
85.66000 2.878
85.68000 2.291
85.70000 1.677
85.72000 1.790
85.74000 1.151
85.76000 -0.019
85.78000 0.705
85.80000 2.334
85.82000 6.003
85.84000 5.392
85.86000 2.012
85.88000 0.559
85.90000 -0.504
85.92000 1.336
85.94000 2.541
85.96000 1.854
85.98000 0.211
86.00000 -1.630
86.02000 0.066
86.04000 -0.299
86.06000 -0.021
86.08000 4.224
86.10000 0.634
86.12000 -0.940
86.14000 -1.168
86.16000 -0.950
86.18000 -0.288
86.20000 -1.127
86.22000 -2.030
86.24000 -0.775
86.26000 0.247
86.28000 -0.372
86.30000 -1.526
86.32000 -1.021
86.34000 -1.248
86.36000 0.810
86.38000 0.794
86.40000 -1.717
86.42000 1.216
86.44000 2.771
86.46000 -0.968
86.48000 -1.439
86.50000 -1.392
86.52000 0.523
86.54000 1.953
86.56000 0.268
86.58000 -1.012
86.60000 0.113
86.62000 -0.695
86.64000 0.038
86.66000 -0.131
86.68000 1.197
86.70000 0.661
86.72000 0.063
86.74000 -1.336
86.76000 -1.230
86.78000 1.373
86.80000 3.393
86.82000 0.071
86.84000 -1.959
86.86000 -1.147
86.88000 -0.142
86.90000 1.062
86.92000 -0.181
86.94000 -1.267
86.96000 0.544
86.98000 -1.745
87.00000 -0.488
87.02000 -0.100
87.04000 -0.620
87.06000 -0.715
87.08000 1.957
87.10000 1.550
87.12000 -0.311
87.14000 0.005
87.16000 -1.315
87.18000 -1.208
87.20000 -0.121
87.22000 1.171
87.24000 6.749
87.26000 3.795
87.28000 2.290
87.30000 2.374
87.32000 -1.166
87.34000 -1.880
87.36000 -0.947
87.38000 3.604
87.40000 1.040
87.42000 1.093
87.44000 2.105
87.46000 1.651
87.48000 3.238
87.50000 2.093
87.52000 1.331
87.54000 3.815
87.56000 3.487
87.58000 2.318
87.60000 2.496
87.62000 2.305
87.64000 4.229
87.66000 -0.384
87.68000 -0.163
87.70000 0.734
87.72000 3.299
87.74000 0.029
87.76000 0.177
87.78000 4.081
87.80000 6.223
87.82000 2.700
87.84000 -0.255
87.86000 -0.768
87.88000 1.858
87.90000 1.869
87.92000 3.078
87.94000 0.817
87.96000 1.913
87.98000 0.472
88.00000 1.796
88.02000 0.773
88.04000 -0.497
88.06000 -0.784
88.08000 2.450
88.10000 5.276
88.12000 3.283
88.14000 2.155
88.16000 0.583
88.18000 2.320
88.20000 1.691
88.22000 0.753
88.24000 -1.100
88.26000 0.043
88.28000 4.741
88.30000 4.581
88.32000 1.440
88.34000 0.523
88.36000 2.073
88.38000 3.781
88.40000 3.325
88.42000 1.055
88.44000 3.494
88.46000 1.975
88.48000 1.403
88.50000 1.465
88.52000 0.886
88.54000 3.548
88.56000 6.157
88.58000 4.912
88.60000 1.384
88.62000 -1.831
88.64000 -0.464
88.66000 1.859
88.68000 2.489
88.70000 4.783
88.72000 4.270
88.74000 3.614
88.76000 2.418
88.78000 3.254
88.80000 2.789
88.82000 2.389
88.84000 3.340
88.86000 1.030
88.88000 2.284
88.90000 2.772
88.92000 -0.659
88.94000 -1.418
88.96000 -0.712
88.98000 2.217
89.00000 3.008
89.02000 2.993
89.04000 1.123
89.06000 2.970
89.08000 3.882
89.10000 0.806
89.12000 1.267
89.14000 3.363
89.16000 3.762
89.18000 2.233
89.20000 0.284
89.22000 0.516
89.24000 4.031
89.26000 5.460
89.28000 3.478
89.30000 -0.140
89.32000 2.320
89.34000 2.991
89.36000 2.488
89.38000 5.791
89.40000 2.845
89.42000 4.349
89.44000 6.004
89.46000 4.057
89.48000 4.916
89.50000 3.942
89.52000 4.951
89.54000 1.716
89.56000 -1.807
89.58000 2.596
89.60000 3.703
89.62000 1.018
89.64000 1.454
89.66000 3.777
89.68000 4.559
89.70000 3.934
89.72000 4.170
89.74000 7.895
89.76000 6.022
89.78000 3.871
89.80000 1.260
89.82000 0.029
89.84000 -0.387
89.86000 2.984
89.88000 -0.631
89.90000 -1.598
89.92000 2.725
89.94000 4.769
89.96000 2.090
89.98000 0.510
90.00000 0.326
90.02000 -0.395
90.04000 0.065
90.06000 2.091
90.08000 2.297
90.10000 1.716
90.12000 -1.844
90.14000 2.812
90.16000 5.313
90.18000 4.949
90.20000 2.165
90.22000 -0.340
90.24000 -0.863
90.26000 2.342
90.28000 3.935
90.30000 2.174
90.32000 0.371
90.34000 0.757
90.36000 0.134
90.38000 0.721
90.40000 1.215
90.42000 2.182
90.44000 0.739
90.46000 2.635
90.48000 0.550
90.50000 -1.541
90.52000 0.992
90.54000 0.178
90.56000 -0.303
90.58000 -0.115
90.60000 2.286
90.62000 2.654
90.64000 0.501
90.66000 4.049
90.68000 2.550
90.70000 0.212
90.72000 -0.238
90.74000 -1.869
90.76000 0.063
90.78000 -1.657
90.80000 -0.751
90.82000 1.126
90.84000 0.611
90.86000 1.872
90.88000 2.166
90.90000 0.514
90.92000 -0.166
90.94000 -0.954
90.96000 -0.013
90.98000 1.672
91.00000 4.122
91.02000 3.243
91.04000 4.153
91.06000 1.997
91.08000 0.811
91.10000 -0.480
91.12000 -1.736
91.14000 -0.903
91.16000 0.521
91.18000 -1.044
91.20000 -0.412
91.22000 -1.876
91.24000 -0.021
91.26000 0.984
91.28000 -1.474
91.30000 -0.419
91.32000 -1.338
91.34000 1.603
91.36000 1.331
91.38000 -0.636
91.40000 0.420
91.42000 2.905
91.44000 0.394
91.46000 -0.810
91.48000 2.058
91.50000 1.704
91.52000 -1.100
91.54000 -1.480
91.56000 -0.392
91.58000 -1.851
91.60000 0.048
91.62000 0.788
91.64000 2.763
91.66000 1.876
91.68000 0.466
91.70000 1.748
91.72000 0.842
91.74000 1.523
91.76000 2.341
91.78000 3.001
91.80000 0.116
91.82000 -0.167
91.84000 0.705
91.86000 1.420
91.88000 3.785
91.90000 2.465
91.92000 -0.424
91.94000 1.384
91.96000 3.603
91.98000 3.170
92.00000 2.570
92.02000 3.742
92.04000 3.477
92.06000 1.063
92.08000 0.183
92.10000 -1.868
92.12000 -0.011
92.14000 0.202
92.16000 1.357
92.18000 0.059
92.20000 2.156
92.22000 -0.011
92.24000 -1.096
92.26000 0.808
92.28000 4.401
92.30000 0.192
92.32000 -0.536
92.34000 -1.041
92.36000 -1.155
92.38000 0.311
92.40000 3.743
92.42000 0.769
92.44000 -0.750
92.46000 0.651
92.48000 -0.899
92.50000 -0.131
92.52000 3.242
92.54000 2.656
92.56000 -1.172
92.58000 0.780
92.60000 1.345
92.62000 0.678
92.64000 0.646
92.66000 0.592
92.68000 -0.512
92.70000 1.932
92.72000 3.880
92.74000 1.491
92.76000 0.951
92.78000 0.728
92.80000 5.013
92.82000 2.158
92.84000 -1.424
92.86000 -1.141
92.88000 2.397
92.90000 0.681
92.92000 0.462
92.94000 -0.038
92.96000 -0.152
92.98000 3.137
93.00000 1.161
93.02000 2.763
93.04000 3.099
93.06000 2.331
93.08000 -1.845
93.10000 0.211
93.12000 0.663
93.14000 1.047
93.16000 0.913
93.18000 -1.067
93.20000 0.368
93.22000 3.155
93.24000 2.464
93.26000 3.752
93.28000 5.099
93.30000 3.165
93.32000 1.017
93.34000 0.566
93.36000 0.603
93.38000 3.216
93.40000 0.837
93.42000 2.151
93.44000 6.541
93.46000 1.824
93.48000 1.732
93.50000 3.609
93.52000 5.584
93.54000 2.252
93.56000 0.385
93.58000 2.099
93.60000 5.623
93.62000 2.267
93.64000 2.949
93.66000 3.245
93.68000 3.915
93.70000 3.207
93.72000 3.494
93.74000 3.500
93.76000 1.890
93.78000 3.916
93.80000 3.210
93.82000 3.214
93.84000 0.673
93.86000 -0.301
93.88000 3.310
93.90000 4.153
93.92000 2.278
93.94000 -1.858
93.96000 0.293
93.98000 -0.552
94.00000 2.191
94.02000 2.573
94.04000 4.325
94.06000 3.801
94.08000 -1.857
94.10000 0.537
94.12000 3.235
94.14000 3.443
94.16000 2.250
94.18000 0.446
94.20000 3.154
94.22000 5.390
94.24000 4.093
94.26000 2.586
94.28000 1.973
94.30000 4.744
94.32000 2.187
94.34000 -1.851
94.36000 1.785
94.38000 0.926
94.40000 0.625
94.42000 3.247
94.44000 3.405
94.46000 -0.363
94.48000 2.430
94.50000 3.769
94.52000 1.715
94.54000 1.864
94.56000 3.131
94.58000 3.398
94.60000 4.721
94.62000 7.008
94.64000 1.988
94.66000 0.415
94.68000 1.834
94.70000 1.578
94.72000 2.471
94.74000 3.271
94.76000 6.053
94.78000 4.686
94.80000 5.570
94.82000 7.025
94.84000 6.530
94.86000 3.262
94.88000 4.673
94.90000 4.335
94.92000 4.328
94.94000 2.531
94.96000 -0.505
94.98000 -1.787
95.00000 -1.006
95.02000 1.232
95.04000 4.429
95.06000 8.379
95.08000 6.826
95.10000 3.473
95.12000 -0.338
95.14000 -1.836
95.16000 4.228
95.18000 3.070
95.20000 6.625
95.22000 5.178
95.24000 3.744
95.26000 2.615
95.28000 1.713
95.30000 6.943
95.32000 6.853
95.34000 6.604
95.36000 5.919
95.38000 1.891
95.40000 -1.429
95.42000 1.169
95.44000 0.511
95.46000 0.100
95.48000 -1.843
95.50000 1.003
95.52000 3.257
95.54000 3.714
95.56000 7.019
95.58000 5.585
95.60000 2.754
95.62000 5.321
95.64000 4.663
95.66000 1.833
95.68000 3.320
95.70000 4.054
95.72000 3.892
95.74000 1.886
95.76000 2.300
95.78000 -0.376
95.80000 1.873
95.82000 0.078
95.84000 1.784
95.86000 4.759
95.88000 4.725
95.90000 2.021
95.92000 0.604
95.94000 2.328
95.96000 2.978
95.98000 2.426
96.00000 0.612
96.02000 0.618
96.04000 2.967
96.06000 4.526
96.08000 6.292
96.10000 3.776
96.12000 5.481
96.14000 5.143
96.16000 4.986
96.18000 7.442
96.20000 7.375
96.22000 5.206
96.24000 3.841
96.26000 0.653
96.28000 3.502
96.30000 -1.636
96.32000 0.282
96.34000 1.424
96.36000 5.924
96.38000 4.282
96.40000 3.309
96.42000 5.962
96.44000 6.000
96.46000 4.323
96.48000 4.884
96.50000 8.964
96.52000 8.366
96.54000 4.222
96.56000 5.522
96.58000 5.766
96.60000 -0.624
96.62000 0.289
96.64000 1.252
96.66000 -1.539
96.68000 -1.845
96.70000 2.698
96.72000 2.477
96.74000 3.624
96.76000 2.813
96.78000 1.435
96.80000 5.887
96.82000 4.567
96.84000 0.878
96.86000 4.064
96.88000 4.612
96.90000 5.441
96.92000 0.052
96.94000 3.845
96.96000 2.642
96.98000 3.925
97.00000 0.517
97.02000 1.806
97.04000 6.613
97.06000 9.530
97.08000 5.261
97.10000 7.196
97.12000 6.634
97.14000 3.062
97.16000 3.160
97.18000 1.903
97.20000 1.256
97.22000 2.194
97.24000 2.151
97.26000 -0.954
97.28000 1.017
97.30000 2.836
97.32000 2.305
97.34000 4.575
97.36000 6.489
97.38000 7.053
97.40000 4.691
97.42000 4.145
97.44000 2.256
97.46000 2.815
97.48000 5.708
97.50000 4.644
97.52000 2.749
97.54000 1.067
97.56000 1.932
97.58000 -0.153
97.60000 0.757
97.62000 3.714
97.64000 3.607
97.66000 7.380
97.68000 7.938
97.70000 4.617
97.72000 5.461
97.74000 2.008
97.76000 -1.799
97.78000 0.631
97.80000 8.133
97.82000 7.879
97.84000 7.699
97.86000 4.528
97.88000 6.838
97.90000 4.050
97.92000 3.799
97.94000 7.437
97.96000 2.674
97.98000 0.755
98.00000 5.339
98.02000 9.903
98.04000 8.452
98.06000 7.232
98.08000 3.339
98.10000 7.043
98.12000 6.237
98.14000 2.369
98.16000 10.616
98.18000 5.413
98.20000 9.110
98.22000 2.140
98.24000 1.314
98.26000 2.380
98.28000 9.890
98.30000 10.709
98.32000 8.926
98.34000 5.374
98.36000 5.268
98.38000 2.728
98.40000 8.816
98.42000 8.287
98.44000 0.816
98.46000 0.812
98.48000 7.162
98.50000 5.339
98.52000 6.377
98.54000 7.995
98.56000 4.183
98.58000 3.821
98.60000 4.592
98.62000 6.674
98.64000 9.546
98.66000 2.709
98.68000 -0.135
98.70000 4.047
98.72000 2.434
98.74000 3.897
98.76000 1.034
98.78000 -0.990
98.80000 7.787
98.82000 6.498
98.84000 -0.549
98.86000 0.135
98.88000 2.716
98.90000 6.630
98.92000 8.478
98.94000 8.532
98.96000 3.061
98.98000 2.087
99.00000 -0.710
99.02000 -0.152
99.04000 4.808
99.06000 6.717
99.08000 7.526
99.10000 9.493
99.12000 10.597
99.14000 8.380
99.16000 11.898
99.18000 8.603
99.20000 5.348
99.22000 10.891
99.24000 3.163
99.26000 -1.763
99.28000 5.168
99.30000 6.329
99.32000 7.337
99.34000 10.335
99.36000 9.218
99.38000 8.522
99.40000 4.006
99.42000 8.418
99.44000 3.879
99.46000 4.689
99.48000 7.331
99.50000 7.722
99.52000 5.564
99.54000 3.238
99.56000 5.548
99.58000 4.340
99.60000 7.737
99.62000 1.313
99.64000 0.027
99.66000 0.772
99.68000 0.597
99.70000 1.831
99.72000 5.210
99.74000 5.152
99.76000 4.209
99.78000 11.217
99.80000 6.957
99.82000 4.657
99.84000 -2.980
99.86000 4.480
99.88000 0.658
99.90000 -1.901
99.92000 2.315
99.94000 -1.989
99.96000 -2.073
99.98000 0.000
