'Id: "0011389" Comment: "Integrate frame 0011389_Au-Ir-Rh_Au-Rich_XRD_Mapping-051-0000.gfrmwith cursor Wedge Cursor #5" Operator: "B?rgel" Anode: "Cu" Wavelength: "1.5406" Scantype: "2Theta (TwoTheta)" TimePerStep: "1" X: "18" Y: "-27" Z: "5.95" 
10.00000 0.000
10.02000 13.737
10.04000 27.980
10.06000 13.336
10.08000 16.317
10.10000 8.332
10.12000 24.851
10.14000 22.500
10.16000 10.414
10.18000 9.239
10.20000 13.908
10.22000 10.504
10.24000 24.481
10.26000 18.815
10.28000 14.155
10.30000 13.339
10.32000 12.263
10.34000 18.815
10.36000 37.280
10.38000 30.517
10.40000 13.085
10.42000 21.157
10.44000 23.729
10.46000 23.501
10.48000 17.228
10.50000 18.060
10.52000 13.961
10.54000 4.269
10.56000 13.144
10.58000 16.652
10.60000 19.330
10.62000 14.421
10.64000 24.580
10.66000 29.328
10.68000 15.868
10.70000 11.492
10.72000 6.346
10.74000 9.132
10.76000 14.498
10.78000 30.422
10.80000 18.636
10.82000 10.291
10.84000 12.552
10.86000 11.285
10.88000 21.501
10.90000 21.081
10.92000 21.394
10.94000 23.415
10.96000 19.152
10.98000 25.858
11.00000 17.205
11.02000 6.062
11.04000 13.993
11.06000 25.901
11.08000 23.221
11.10000 23.327
11.12000 9.325
11.14000 17.350
11.16000 23.123
11.18000 19.439
11.20000 15.555
11.22000 28.218
11.24000 29.670
11.26000 27.931
11.28000 17.445
11.30000 3.557
11.32000 7.696
11.34000 12.960
11.36000 10.731
11.38000 2.257
11.40000 4.452
11.42000 12.549
11.44000 19.981
11.46000 14.544
11.48000 17.661
11.50000 20.758
11.52000 23.681
11.54000 18.902
11.56000 17.206
11.58000 22.680
11.60000 19.932
11.62000 18.617
11.64000 23.678
11.66000 20.549
11.68000 17.264
11.70000 13.699
11.72000 17.504
11.74000 20.977
11.76000 16.597
11.78000 21.440
11.80000 24.010
11.82000 19.937
11.84000 21.681
11.86000 23.531
11.88000 19.977
11.90000 18.825
11.92000 15.115
11.94000 19.177
11.96000 28.227
11.98000 13.897
12.00000 1.194
12.02000 15.662
12.04000 16.497
12.06000 23.014
12.08000 25.727
12.10000 21.749
12.12000 10.546
12.14000 6.743
12.16000 10.816
12.18000 4.953
12.20000 8.473
12.22000 16.556
12.24000 23.596
12.26000 27.970
12.28000 26.443
12.30000 5.373
12.32000 19.457
12.34000 27.310
12.36000 22.784
12.38000 24.815
12.40000 22.572
12.42000 18.509
12.44000 22.731
12.46000 15.799
12.48000 9.049
12.50000 12.850
12.52000 20.855
12.54000 19.057
12.56000 18.958
12.58000 28.382
12.60000 23.817
12.62000 18.674
12.64000 22.480
12.66000 18.834
12.68000 21.986
12.70000 19.552
12.72000 11.683
12.74000 9.878
12.76000 12.993
12.78000 26.292
12.80000 26.343
12.82000 30.112
12.84000 35.053
12.86000 28.878
12.88000 15.431
12.90000 14.912
12.92000 11.369
12.94000 18.203
12.96000 22.358
12.98000 21.126
13.00000 18.595
13.02000 21.334
13.04000 27.565
13.06000 22.540
13.08000 20.033
13.10000 22.720
13.12000 15.366
13.14000 24.602
13.16000 34.316
13.18000 31.729
13.20000 27.812
13.22000 21.611
13.24000 15.596
13.26000 22.116
13.28000 14.610
13.30000 11.969
13.32000 13.414
13.34000 26.110
13.36000 26.611
13.38000 11.891
13.40000 4.531
13.42000 15.036
13.44000 22.121
13.46000 9.759
13.48000 13.813
13.50000 19.794
13.52000 27.611
13.54000 23.901
13.56000 13.742
13.58000 10.486
13.60000 12.149
13.62000 8.688
13.64000 7.700
13.66000 12.156
13.68000 17.064
13.70000 19.639
13.72000 18.046
13.74000 18.647
13.76000 17.086
13.78000 12.064
13.80000 16.184
13.82000 25.410
13.84000 22.750
13.86000 15.711
13.88000 13.288
13.90000 16.978
13.92000 10.741
13.94000 18.994
13.96000 26.987
13.98000 28.933
14.00000 12.927
14.02000 11.450
14.04000 14.949
14.06000 15.228
14.08000 16.722
14.10000 9.533
14.12000 15.361
14.14000 12.887
14.16000 6.846
14.18000 12.451
14.20000 20.915
14.22000 15.108
14.24000 10.996
14.26000 14.278
14.28000 23.667
14.30000 23.167
14.32000 15.719
14.34000 11.642
14.36000 24.969
14.38000 21.383
14.40000 22.186
14.42000 16.943
14.44000 13.952
14.46000 19.158
14.48000 19.902
14.50000 16.621
14.52000 6.608
14.54000 3.133
14.56000 8.472
14.58000 5.414
14.60000 13.503
14.62000 11.301
14.64000 8.452
14.66000 8.113
14.68000 5.699
14.70000 17.378
14.72000 15.438
14.74000 6.479
14.76000 8.623
14.78000 6.203
14.80000 9.427
14.82000 9.959
14.84000 10.410
14.86000 13.372
14.88000 10.288
14.90000 13.368
14.92000 10.964
14.94000 13.037
14.96000 14.069
14.98000 13.681
15.00000 10.077
15.02000 12.507
15.04000 7.175
15.06000 6.667
15.08000 11.534
15.10000 -1.930
15.12000 1.625
15.14000 13.271
15.16000 12.323
15.18000 12.534
15.20000 12.361
15.22000 8.553
15.24000 -4.408
15.26000 4.736
15.28000 15.495
15.30000 10.104
15.32000 15.219
15.34000 7.041
15.36000 11.363
15.38000 13.940
15.40000 11.792
15.42000 11.551
15.44000 16.045
15.46000 16.272
15.48000 12.815
15.50000 9.656
15.52000 18.431
15.54000 12.559
15.56000 4.522
15.58000 6.613
15.60000 14.186
15.62000 15.815
15.64000 9.128
15.66000 6.453
15.68000 7.582
15.70000 4.776
15.72000 4.464
15.74000 3.229
15.76000 8.212
15.78000 13.040
15.80000 18.292
15.82000 15.156
15.84000 3.554
15.86000 6.396
15.88000 6.166
15.90000 6.383
15.92000 11.068
15.94000 11.582
15.96000 9.476
15.98000 10.136
16.00000 2.811
16.02000 4.595
16.04000 9.173
16.06000 -0.416
16.08000 2.495
16.10000 7.631
16.12000 12.446
16.14000 11.521
16.16000 10.085
16.18000 4.686
16.20000 5.909
16.22000 1.149
16.24000 6.036
16.26000 4.381
16.28000 0.130
16.30000 0.409
16.32000 6.069
16.34000 15.435
16.36000 12.317
16.38000 5.437
16.40000 0.473
16.42000 0.811
16.44000 6.924
16.46000 2.240
16.48000 3.953
16.50000 6.078
16.52000 8.219
16.54000 16.552
16.56000 8.535
16.58000 -4.400
16.60000 2.456
16.62000 9.183
16.64000 5.749
16.66000 9.667
16.68000 3.867
16.70000 6.957
16.72000 6.204
16.74000 7.873
16.76000 0.747
16.78000 2.568
16.80000 9.352
16.82000 5.176
16.84000 13.385
16.86000 17.089
16.88000 11.911
16.90000 6.354
16.92000 6.952
16.94000 6.720
16.96000 -1.087
16.98000 6.623
17.00000 4.890
17.02000 -0.651
17.04000 1.396
17.06000 1.335
17.08000 10.027
17.10000 11.511
17.12000 10.801
17.14000 4.124
17.16000 9.237
17.18000 5.247
17.20000 4.239
17.22000 7.315
17.24000 8.439
17.26000 12.959
17.28000 5.746
17.30000 3.928
17.32000 1.529
17.34000 8.476
17.36000 5.651
17.38000 3.006
17.40000 4.869
17.42000 7.894
17.44000 -0.172
17.46000 2.398
17.48000 1.157
17.50000 5.151
17.52000 4.784
17.54000 10.558
17.56000 1.835
17.58000 -1.024
17.60000 1.413
17.62000 2.544
17.64000 6.991
17.66000 -3.556
17.68000 0.528
17.70000 9.646
17.72000 1.293
17.74000 -0.305
17.76000 2.838
17.78000 2.174
17.80000 7.620
17.82000 5.484
17.84000 3.222
17.86000 4.016
17.88000 3.145
17.90000 2.075
17.92000 -1.997
17.94000 3.442
17.96000 5.178
17.98000 3.540
18.00000 5.200
18.02000 4.391
18.04000 -2.671
18.06000 0.273
18.08000 7.901
18.10000 8.138
18.12000 1.443
18.14000 0.156
18.16000 2.711
18.18000 3.679
18.20000 6.249
18.22000 6.766
18.24000 7.921
18.26000 6.242
18.28000 11.895
18.30000 9.456
18.32000 6.234
18.34000 1.690
18.36000 -0.190
18.38000 2.413
18.40000 1.555
18.42000 0.611
18.44000 3.474
18.46000 5.963
18.48000 6.376
18.50000 3.226
18.52000 0.768
18.54000 4.006
18.56000 2.420
18.58000 0.146
18.60000 4.040
18.62000 4.808
18.64000 5.781
18.66000 10.560
18.68000 0.762
18.70000 2.203
18.72000 5.021
18.74000 7.862
18.76000 1.074
18.78000 -1.159
18.80000 -0.289
18.82000 -4.275
18.84000 0.525
18.86000 0.942
18.88000 3.994
18.90000 -0.272
18.92000 10.660
18.94000 15.597
18.96000 10.270
18.98000 6.947
19.00000 4.020
19.02000 -0.834
19.04000 0.408
19.06000 2.848
19.08000 0.101
19.10000 15.129
19.12000 11.858
19.14000 8.781
19.16000 1.785
19.18000 2.528
19.20000 6.876
19.22000 2.025
19.24000 4.408
19.26000 11.495
19.28000 8.200
19.30000 4.170
19.32000 4.726
19.34000 -0.638
19.36000 -4.230
19.38000 -1.879
19.40000 -1.303
19.42000 1.924
19.44000 4.972
19.46000 9.995
19.48000 3.446
19.50000 5.052
19.52000 8.636
19.54000 5.540
19.56000 3.896
19.58000 2.267
19.60000 3.928
19.62000 0.196
19.64000 2.977
19.66000 4.898
19.68000 10.074
19.70000 3.604
19.72000 6.058
19.74000 6.102
19.76000 13.390
19.78000 12.939
19.80000 5.489
19.82000 -0.802
19.84000 1.337
19.86000 7.704
19.88000 8.162
19.90000 6.899
19.92000 3.446
19.94000 0.015
19.96000 3.155
19.98000 9.431
20.00000 8.109
20.02000 4.945
20.04000 -1.652
20.06000 0.488
20.08000 4.473
20.10000 1.445
20.12000 2.754
20.14000 0.700
20.16000 -1.711
20.18000 1.055
20.20000 -3.617
20.22000 4.896
20.24000 9.178
20.26000 1.997
20.28000 3.357
20.30000 3.756
20.32000 3.814
20.34000 -0.037
20.36000 3.875
20.38000 2.504
20.40000 4.442
20.42000 5.131
20.44000 7.858
20.46000 4.766
20.48000 2.663
20.50000 1.723
20.52000 3.088
20.54000 1.949
20.56000 8.639
20.58000 9.024
20.60000 5.230
20.62000 10.954
20.64000 11.243
20.66000 4.630
20.68000 0.801
20.70000 8.876
20.72000 8.609
20.74000 6.231
20.76000 10.964
20.78000 10.632
20.80000 11.869
20.82000 6.661
20.84000 -0.714
20.86000 -0.715
20.88000 4.246
20.90000 5.033
20.92000 8.917
20.94000 8.192
20.96000 0.331
20.98000 -4.136
21.00000 2.401
21.02000 10.332
21.04000 11.365
21.06000 3.181
21.08000 0.804
21.10000 -3.705
21.12000 0.178
21.14000 3.064
21.16000 5.714
21.18000 1.907
21.20000 6.300
21.22000 5.910
21.24000 6.770
21.26000 8.377
21.28000 4.213
21.30000 3.602
21.32000 9.934
21.34000 4.329
21.36000 -1.806
21.38000 10.299
21.40000 5.312
21.42000 1.940
21.44000 6.481
21.46000 5.538
21.48000 8.980
21.50000 10.972
21.52000 8.021
21.54000 -2.282
21.56000 -1.203
21.58000 -2.344
21.60000 5.030
21.62000 3.369
21.64000 0.350
21.66000 9.624
21.68000 8.076
21.70000 -1.788
21.72000 2.494
21.74000 6.873
21.76000 8.592
21.78000 10.373
21.80000 3.810
21.82000 3.522
21.84000 -3.481
21.86000 4.171
21.88000 7.174
21.90000 2.967
21.92000 -0.983
21.94000 -3.764
21.96000 -4.101
21.98000 3.071
22.00000 4.025
22.02000 2.466
22.04000 1.108
22.06000 1.225
22.08000 0.112
22.10000 -0.477
22.12000 7.418
22.14000 10.806
22.16000 8.303
22.18000 6.729
22.20000 1.946
22.22000 -0.163
22.24000 2.076
22.26000 6.224
22.28000 4.413
22.30000 4.042
22.32000 5.289
22.34000 11.017
22.36000 5.569
22.38000 -3.401
22.40000 4.099
22.42000 3.344
22.44000 -2.375
22.46000 0.920
22.48000 -1.206
22.50000 0.717
22.52000 3.637
22.54000 3.468
22.56000 5.404
22.58000 5.317
22.60000 3.057
22.62000 1.077
22.64000 -3.569
22.66000 -0.685
22.68000 10.533
22.70000 6.500
22.72000 -2.558
22.74000 -0.385
22.76000 4.612
22.78000 4.352
22.80000 6.398
22.82000 -0.174
22.84000 1.555
22.86000 2.825
22.88000 1.095
22.90000 2.595
22.92000 7.559
22.94000 4.076
22.96000 3.046
22.98000 2.248
23.00000 3.893
23.02000 6.273
23.04000 4.533
23.06000 1.396
23.08000 4.946
23.10000 8.188
23.12000 7.983
23.14000 13.871
23.16000 3.346
23.18000 0.796
23.20000 6.683
23.22000 3.649
23.24000 2.833
23.26000 -4.033
23.28000 -0.711
23.30000 2.731
23.32000 2.445
23.34000 3.696
23.36000 2.821
23.38000 4.577
23.40000 3.634
23.42000 -0.276
23.44000 4.218
23.46000 5.799
23.48000 2.935
23.50000 1.689
23.52000 5.007
23.54000 11.243
23.56000 5.723
23.58000 1.439
23.60000 -0.038
23.62000 0.020
23.64000 3.292
23.66000 9.169
23.68000 7.689
23.70000 2.739
23.72000 2.143
23.74000 -0.083
23.76000 3.163
23.78000 6.974
23.80000 6.456
23.82000 -0.323
23.84000 -3.427
23.86000 0.626
23.88000 1.398
23.90000 -2.792
23.92000 3.490
23.94000 0.652
23.96000 4.830
23.98000 5.735
24.00000 -0.668
24.02000 2.076
24.04000 9.715
24.06000 11.654
24.08000 6.936
24.10000 2.062
24.12000 1.328
24.14000 2.426
24.16000 6.923
24.18000 5.006
24.20000 5.259
24.22000 0.929
24.24000 3.621
24.26000 4.553
24.28000 3.107
24.30000 2.281
24.32000 1.185
24.34000 8.210
24.36000 7.018
24.38000 0.016
24.40000 2.168
24.42000 7.099
24.44000 9.336
24.46000 8.221
24.48000 2.041
24.50000 0.043
24.52000 3.264
24.54000 6.267
24.56000 3.944
24.58000 5.462
24.60000 5.874
24.62000 9.365
24.64000 7.808
24.66000 7.638
24.68000 6.227
24.70000 4.417
24.72000 6.612
24.74000 7.040
24.76000 5.368
24.78000 5.180
24.80000 -3.924
24.82000 0.418
24.84000 8.732
24.86000 2.578
24.88000 -1.058
24.90000 -1.522
24.92000 0.232
24.94000 5.329
24.96000 4.447
24.98000 8.630
25.00000 5.508
25.02000 4.007
25.04000 8.839
25.06000 4.399
25.08000 -0.143
25.10000 -0.311
25.12000 -3.419
25.14000 4.273
25.16000 1.959
25.18000 2.633
25.20000 5.847
25.22000 7.645
25.24000 6.130
25.26000 9.062
25.28000 4.843
25.30000 -1.936
25.32000 1.115
25.34000 5.194
25.36000 3.720
25.38000 6.908
25.40000 5.025
25.42000 2.219
25.44000 0.399
25.46000 1.197
25.48000 -0.115
25.50000 5.036
25.52000 1.259
25.54000 1.804
25.56000 3.856
25.58000 2.726
25.60000 2.554
25.62000 0.110
25.64000 -0.617
25.66000 1.229
25.68000 7.275
25.70000 5.913
25.72000 2.742
25.74000 6.375
25.76000 4.936
25.78000 0.728
25.80000 -3.856
25.82000 3.729
25.84000 -1.212
25.86000 4.692
25.88000 11.666
25.90000 7.046
25.92000 -3.112
25.94000 1.753
25.96000 4.210
25.98000 4.272
26.00000 -0.597
26.02000 -0.499
26.04000 1.786
26.06000 5.436
26.08000 -0.141
26.10000 -1.822
26.12000 -3.888
26.14000 -2.393
26.16000 -2.166
26.18000 5.775
26.20000 7.095
26.22000 4.233
26.24000 6.612
26.26000 2.379
26.28000 4.160
26.30000 8.892
26.32000 2.131
26.34000 1.121
26.36000 3.743
26.38000 4.043
26.40000 4.259
26.42000 2.054
26.44000 5.453
26.46000 5.236
26.48000 1.929
26.50000 -0.960
26.52000 -0.575
26.54000 -2.820
26.56000 -0.358
26.58000 3.923
26.60000 4.236
26.62000 8.061
26.64000 2.795
26.66000 -3.032
26.68000 5.920
26.70000 4.139
26.72000 2.237
26.74000 2.651
26.76000 0.904
26.78000 1.379
26.80000 -1.987
26.82000 -3.579
26.84000 -1.394
26.86000 -1.159
26.88000 -1.001
26.90000 -1.869
26.92000 -2.323
26.94000 -2.263
26.96000 1.270
26.98000 -2.599
27.00000 -0.069
27.02000 -2.189
27.04000 4.114
27.06000 -1.242
27.08000 -0.467
27.10000 -0.017
27.12000 -2.607
27.14000 0.599
27.16000 2.198
27.18000 0.134
27.20000 4.465
27.22000 12.060
27.24000 9.917
27.26000 0.052
27.28000 -1.848
27.30000 0.044
27.32000 -0.108
27.34000 -3.841
27.36000 -3.337
27.38000 0.009
27.40000 7.325
27.42000 8.537
27.44000 3.486
27.46000 5.884
27.48000 5.511
27.50000 -0.236
27.52000 0.501
27.54000 0.903
27.56000 -2.928
27.58000 -2.141
27.60000 -0.029
27.62000 -0.747
27.64000 2.643
27.66000 1.090
27.68000 3.182
27.70000 3.236
27.72000 -1.012
27.74000 -2.297
27.76000 0.120
27.78000 4.525
27.80000 0.606
27.82000 -3.120
27.84000 -1.482
27.86000 1.307
27.88000 2.516
27.90000 7.907
27.92000 7.318
27.94000 3.022
27.96000 3.303
27.98000 1.503
28.00000 -3.485
28.02000 2.241
28.04000 4.134
28.06000 5.634
28.08000 0.215
28.10000 -3.520
28.12000 1.789
28.14000 3.622
28.16000 3.706
28.18000 -3.296
28.20000 0.118
28.22000 2.520
28.24000 3.461
28.26000 7.483
28.28000 4.056
28.30000 1.629
28.32000 5.621
28.34000 5.266
28.36000 2.014
28.38000 -2.294
28.40000 3.549
28.42000 5.259
28.44000 5.512
28.46000 -0.614
28.48000 3.907
28.50000 2.587
28.52000 -1.828
28.54000 1.114
28.56000 3.501
28.58000 -2.844
28.60000 -0.154
28.62000 -1.152
28.64000 -3.752
28.66000 0.132
28.68000 5.126
28.70000 3.832
28.72000 1.302
28.74000 2.004
28.76000 1.793
28.78000 -2.948
28.80000 5.349
28.82000 4.130
28.84000 5.074
28.86000 2.213
28.88000 -0.574
28.90000 -2.036
28.92000 -1.520
28.94000 -2.896
28.96000 -0.617
28.98000 -1.579
29.00000 4.830
29.02000 5.672
29.04000 7.916
29.06000 2.673
29.08000 3.987
29.10000 3.520
29.12000 0.584
29.14000 5.642
29.16000 2.057
29.18000 4.256
29.20000 1.588
29.22000 3.508
29.24000 1.365
29.26000 1.994
29.28000 3.373
29.30000 -1.486
29.32000 1.038
29.34000 4.798
29.36000 8.109
29.38000 2.730
29.40000 0.265
29.42000 -3.684
29.44000 -3.682
29.46000 2.798
29.48000 7.016
29.50000 12.119
29.52000 9.681
29.54000 8.068
29.56000 3.278
29.58000 6.274
29.60000 10.394
29.62000 3.626
29.64000 2.949
29.66000 11.682
29.68000 11.797
29.70000 10.720
29.72000 6.455
29.74000 2.569
29.76000 4.837
29.78000 6.906
29.80000 3.245
29.82000 2.147
29.84000 -0.026
29.86000 -2.092
29.88000 3.831
29.90000 4.989
29.92000 1.772
29.94000 1.853
29.96000 -1.549
29.98000 -0.686
30.00000 6.437
30.02000 4.181
30.04000 2.670
30.06000 1.201
30.08000 2.425
30.10000 5.300
30.12000 -2.153
30.14000 3.380
30.16000 5.401
30.18000 3.779
30.20000 5.121
30.22000 6.046
30.24000 0.937
30.26000 4.966
30.28000 9.153
30.30000 3.580
30.32000 1.345
30.34000 4.197
30.36000 -0.019
30.38000 1.437
30.40000 -0.503
30.42000 4.455
30.44000 4.660
30.46000 2.271
30.48000 -1.480
30.50000 0.163
30.52000 -1.289
30.54000 2.474
30.56000 2.066
30.58000 2.972
30.60000 4.140
30.62000 -0.762
30.64000 -2.129
30.66000 -1.577
30.68000 0.474
30.70000 8.112
30.72000 4.569
30.74000 4.061
30.76000 5.745
30.78000 1.161
30.80000 -3.658
30.82000 -2.487
30.84000 0.749
30.86000 2.323
30.88000 4.427
30.90000 -0.494
30.92000 2.357
30.94000 -1.858
30.96000 1.204
30.98000 2.309
31.00000 2.617
31.02000 5.203
31.04000 3.920
31.06000 2.330
31.08000 1.074
31.10000 2.382
31.12000 5.910
31.14000 0.836
31.16000 1.081
31.18000 -0.833
31.20000 0.091
31.22000 1.619
31.24000 1.563
31.26000 8.399
31.28000 4.029
31.30000 4.107
31.32000 0.791
31.34000 3.504
31.36000 0.060
31.38000 2.263
31.40000 3.379
31.42000 0.825
31.44000 -3.622
31.46000 -1.551
31.48000 2.258
31.50000 2.055
31.52000 4.324
31.54000 5.949
31.56000 8.126
31.58000 2.135
31.60000 6.488
31.62000 2.028
31.64000 3.643
31.66000 6.732
31.68000 3.107
31.70000 2.173
31.72000 -0.944
31.74000 2.435
31.76000 0.499
31.78000 -1.895
31.80000 3.192
31.82000 3.757
31.84000 1.086
31.86000 1.046
31.88000 -2.162
31.90000 -2.096
31.92000 0.825
31.94000 -0.147
31.96000 0.002
31.98000 -3.619
32.00000 -2.961
32.02000 -3.569
32.04000 -0.291
32.06000 0.836
32.08000 -1.380
32.10000 1.006
32.12000 2.385
32.14000 -0.629
32.16000 -3.383
32.18000 -2.734
32.20000 0.140
32.22000 -2.291
32.24000 -1.485
32.26000 4.871
32.28000 3.366
32.30000 -0.439
32.32000 -1.612
32.34000 1.570
32.36000 5.455
32.38000 4.837
32.40000 3.143
32.42000 -0.872
32.44000 1.582
32.46000 2.349
32.48000 1.405
32.50000 1.390
32.52000 -3.074
32.54000 -3.240
32.56000 -3.079
32.58000 -3.607
32.60000 3.208
32.62000 0.927
32.64000 1.622
32.66000 1.208
32.68000 2.360
32.70000 1.750
32.72000 3.147
32.74000 -0.994
32.76000 -1.727
32.78000 0.181
32.80000 -1.617
32.82000 -1.370
32.84000 0.637
32.86000 7.247
32.88000 8.366
32.90000 -0.686
32.92000 2.109
32.94000 0.761
32.96000 1.123
32.98000 1.222
33.00000 3.554
33.02000 3.971
33.04000 0.762
33.06000 4.702
33.08000 11.950
33.10000 3.743
33.12000 -1.542
33.14000 -3.597
33.16000 -1.963
33.18000 2.248
33.20000 1.293
33.22000 -2.108
33.24000 2.532
33.26000 3.685
33.28000 -0.970
33.30000 8.136
33.32000 5.046
33.34000 4.193
33.36000 -1.206
33.38000 0.231
33.40000 2.969
33.42000 1.898
33.44000 0.748
33.46000 2.423
33.48000 5.139
33.50000 3.730
33.52000 -0.494
33.54000 -0.493
33.56000 2.035
33.58000 0.235
33.60000 -3.071
33.62000 -0.703
33.64000 1.227
33.66000 3.719
33.68000 2.579
33.70000 3.125
33.72000 1.435
33.74000 0.994
33.76000 0.008
33.78000 3.215
33.80000 1.610
33.82000 2.953
33.84000 -1.347
33.86000 -2.391
33.88000 -1.208
33.90000 5.187
33.92000 8.956
33.94000 2.681
33.96000 3.179
33.98000 3.091
34.00000 3.609
34.02000 7.430
34.04000 6.693
34.06000 4.914
34.08000 1.990
34.10000 1.539
34.12000 3.615
34.14000 4.549
34.16000 6.259
34.18000 5.659
34.20000 9.047
34.22000 3.225
34.24000 -0.851
34.26000 5.949
34.28000 9.789
34.30000 5.947
34.32000 7.603
34.34000 7.910
34.36000 3.691
34.38000 2.651
34.40000 4.208
34.42000 3.546
34.44000 -2.605
34.46000 -3.561
34.48000 -0.115
34.50000 1.324
34.52000 5.728
34.54000 8.837
34.56000 3.953
34.58000 5.380
34.60000 6.482
34.62000 0.041
34.64000 3.313
34.66000 3.942
34.68000 1.522
34.70000 -2.228
34.72000 -0.784
34.74000 2.385
34.76000 0.162
34.78000 1.803
34.80000 -2.347
34.82000 0.460
34.84000 -0.136
34.86000 0.196
34.88000 2.264
34.90000 2.533
34.92000 0.504
34.94000 0.122
34.96000 -3.540
34.98000 -2.153
35.00000 3.624
35.02000 -0.139
35.04000 -0.839
35.06000 5.787
35.08000 5.939
35.10000 5.523
35.12000 5.427
35.14000 -0.209
35.16000 0.281
35.18000 3.176
35.20000 1.996
35.22000 2.294
35.24000 -1.887
35.26000 3.351
35.28000 8.477
35.30000 5.029
35.32000 -2.217
35.34000 -3.250
35.36000 -3.539
35.38000 -1.950
35.40000 5.598
35.42000 2.457
35.44000 0.465
35.46000 1.466
35.48000 -0.648
35.50000 0.185
35.52000 3.838
35.54000 3.541
35.56000 6.881
35.58000 1.346
35.60000 1.365
35.62000 0.357
35.64000 -1.942
35.66000 -1.119
35.68000 2.160
35.70000 0.937
35.72000 4.168
35.74000 3.714
35.76000 6.964
35.78000 2.383
35.80000 1.374
35.82000 1.259
35.84000 0.150
35.86000 7.339
35.88000 10.092
35.90000 8.076
35.92000 3.892
35.94000 1.150
35.96000 -2.548
35.98000 0.940
36.00000 -1.130
36.02000 -0.443
36.04000 2.888
36.06000 5.380
36.08000 6.415
36.10000 1.973
36.12000 4.998
36.14000 5.714
36.16000 5.114
36.18000 1.745
36.20000 5.233
36.22000 3.291
36.24000 2.099
36.26000 4.115
36.28000 1.881
36.30000 5.042
36.32000 7.331
36.34000 0.555
36.36000 -1.566
36.38000 -1.086
36.40000 -3.563
36.42000 2.145
36.44000 0.996
36.46000 -0.053
36.48000 -1.288
36.50000 -1.002
36.52000 3.409
36.54000 4.605
36.56000 5.550
36.58000 1.854
36.60000 2.934
36.62000 4.287
36.64000 2.249
36.66000 0.980
36.68000 3.575
36.70000 6.543
36.72000 2.551
36.74000 1.051
36.76000 0.336
36.78000 -1.195
36.80000 -1.894
36.82000 2.009
36.84000 1.285
36.86000 1.365
36.88000 3.097
36.90000 -0.377
36.92000 -1.468
36.94000 1.980
36.96000 5.068
36.98000 2.168
37.00000 -2.083
37.02000 -3.599
37.04000 -0.149
37.06000 2.230
37.08000 4.559
37.10000 3.634
37.12000 3.950
37.14000 3.337
37.16000 5.460
37.18000 6.864
37.20000 4.132
37.22000 3.189
37.24000 -2.040
37.26000 3.690
37.28000 6.026
37.30000 -1.285
37.32000 0.700
37.34000 6.778
37.36000 6.554
37.38000 3.737
37.40000 0.978
37.42000 2.439
37.44000 2.583
37.46000 2.729
37.48000 4.421
37.50000 7.907
37.52000 7.374
37.54000 9.143
37.56000 12.851
37.58000 9.684
37.60000 8.715
37.62000 9.178
37.64000 7.589
37.66000 4.592
37.68000 7.757
37.70000 10.381
37.72000 5.067
37.74000 4.884
37.76000 7.314
37.78000 7.157
37.80000 6.290
37.82000 11.787
37.84000 15.596
37.86000 10.734
37.88000 15.688
37.90000 17.116
37.92000 11.658
37.94000 11.485
37.96000 12.242
37.98000 15.661
38.00000 18.204
38.02000 19.723
38.04000 21.410
38.06000 19.638
38.08000 18.750
38.10000 19.953
38.12000 21.702
38.14000 22.783
38.16000 22.566
38.18000 22.310
38.20000 18.386
38.22000 21.819
38.24000 22.859
38.26000 26.534
38.28000 30.205
38.30000 31.074
38.32000 30.365
38.34000 33.033
38.36000 33.612
38.38000 31.364
38.40000 32.062
38.42000 35.425
38.44000 33.118
38.46000 34.511
38.48000 34.780
38.50000 32.106
38.52000 39.156
38.54000 42.512
38.56000 38.831
38.58000 40.484
38.60000 43.961
38.62000 42.782
38.64000 49.401
38.66000 52.029
38.68000 46.815
38.70000 48.029
38.72000 55.397
38.74000 61.330
38.76000 59.975
38.78000 60.878
38.80000 62.435
38.82000 65.761
38.84000 69.349
38.86000 72.261
38.88000 80.826
38.90000 81.835
38.92000 82.197
38.94000 89.036
38.96000 92.687
38.98000 91.939
39.00000 100.440
39.02000 105.664
39.04000 113.491
39.06000 114.698
39.08000 117.720
39.10000 125.774
39.12000 133.286
39.14000 137.267
39.16000 142.359
39.18000 150.642
39.20000 162.518
39.22000 171.463
39.24000 181.682
39.26000 186.803
39.28000 199.928
39.30000 214.036
39.32000 229.522
39.34000 241.995
39.36000 253.096
39.38000 268.716
39.40000 278.106
39.42000 299.138
39.44000 312.383
39.46000 325.853
39.48000 345.205
39.50000 360.952
39.52000 385.134
39.54000 409.678
39.56000 425.191
39.58000 444.351
39.60000 468.758
39.62000 493.066
39.64000 511.269
39.66000 523.487
39.68000 543.421
39.70000 568.118
39.72000 589.899
39.74000 604.166
39.76000 613.707
39.78000 612.385
39.80000 628.769
39.82000 640.091
39.84000 643.658
39.86000 661.889
39.88000 653.248
39.90000 647.696
39.92000 646.369
39.94000 635.010
39.96000 628.382
39.98000 624.016
40.00000 617.197
40.02000 611.939
40.04000 591.285
40.06000 567.246
40.08000 549.951
40.10000 534.729
40.12000 526.555
40.14000 507.602
40.16000 490.336
40.18000 469.523
40.20000 446.326
40.22000 428.045
40.24000 412.784
40.26000 384.248
40.28000 364.306
40.30000 340.587
40.32000 321.277
40.34000 302.790
40.36000 284.072
40.38000 268.292
40.40000 266.147
40.42000 248.720
40.44000 231.693
40.46000 227.075
40.48000 206.716
40.50000 185.271
40.52000 173.244
40.54000 161.808
40.56000 155.160
40.58000 145.703
40.60000 133.618
40.62000 127.039
40.64000 118.440
40.66000 109.089
40.68000 106.308
40.70000 101.128
40.72000 94.038
40.74000 91.449
40.76000 87.661
40.78000 80.008
40.80000 74.497
40.82000 76.646
40.84000 71.466
40.86000 63.449
40.88000 54.850
40.90000 50.043
40.92000 49.540
40.94000 51.333
40.96000 46.353
40.98000 46.127
41.00000 39.584
41.02000 36.249
41.04000 37.237
41.06000 33.909
41.08000 33.248
41.10000 31.635
41.12000 32.491
41.14000 31.869
41.16000 29.265
41.18000 26.802
41.20000 24.614
41.22000 23.774
41.24000 21.468
41.26000 23.316
41.28000 22.818
41.30000 26.680
41.32000 24.756
41.34000 20.376
41.36000 16.040
41.38000 12.418
41.40000 18.391
41.42000 15.202
41.44000 12.832
41.46000 12.719
41.48000 12.738
41.50000 9.895
41.52000 8.543
41.54000 9.482
41.56000 5.459
41.58000 5.270
41.60000 4.522
41.62000 8.985
41.64000 10.870
41.66000 9.122
41.68000 9.955
41.70000 10.785
41.72000 5.214
41.74000 3.114
41.76000 7.159
41.78000 5.095
41.80000 3.165
41.82000 7.335
41.84000 5.996
41.86000 4.631
41.88000 5.424
41.90000 6.234
41.92000 4.932
41.94000 1.980
41.96000 1.661
41.98000 4.542
42.00000 6.996
42.02000 3.646
42.04000 3.763
42.06000 5.100
42.08000 4.592
42.10000 3.956
42.12000 4.109
42.14000 -3.413
42.16000 -1.679
42.18000 -2.003
42.20000 -2.894
42.22000 -0.356
42.24000 1.086
42.26000 3.465
42.28000 3.560
42.30000 3.329
42.32000 4.097
42.34000 2.807
42.36000 2.002
42.38000 1.633
42.40000 -0.112
42.42000 1.387
42.44000 -0.156
42.46000 1.598
42.48000 1.057
42.50000 4.524
42.52000 3.395
42.54000 4.318
42.56000 2.966
42.58000 3.285
42.60000 -0.166
42.62000 -2.158
42.64000 0.834
42.66000 0.833
42.68000 -0.672
42.70000 -2.793
42.72000 0.744
42.74000 0.420
42.76000 -0.804
42.78000 -0.478
42.80000 1.997
42.82000 3.441
42.84000 3.850
42.86000 2.504
42.88000 0.467
42.90000 0.519
42.92000 -3.281
42.94000 -3.279
42.96000 1.722
42.98000 3.647
43.00000 2.873
43.02000 2.100
43.04000 1.036
43.06000 1.116
43.08000 4.128
43.10000 3.272
43.12000 1.036
43.14000 1.188
43.16000 3.338
43.18000 4.842
43.20000 -0.451
43.22000 1.705
43.24000 6.118
43.26000 1.292
43.28000 1.721
43.30000 4.541
43.32000 4.117
43.34000 4.572
43.36000 5.665
43.38000 3.652
43.40000 -0.209
43.42000 -3.173
43.44000 -0.435
43.46000 2.431
43.48000 2.972
43.50000 -0.619
43.52000 1.151
43.54000 3.068
43.56000 -3.216
43.58000 -2.128
43.60000 4.356
43.62000 4.732
43.64000 3.228
43.66000 5.260
43.68000 2.993
43.70000 2.607
43.72000 2.835
43.74000 4.732
43.76000 -0.078
43.78000 0.269
43.80000 4.103
43.82000 1.840
43.84000 -1.542
43.86000 -1.320
43.88000 0.445
43.90000 1.315
43.92000 0.528
43.94000 -0.434
43.96000 -1.440
43.98000 0.930
44.00000 2.173
44.02000 1.813
44.04000 1.107
44.06000 4.232
44.08000 1.193
44.10000 -2.033
44.12000 -3.187
44.14000 0.794
44.16000 -0.754
44.18000 -2.315
44.20000 -1.489
44.22000 1.747
44.24000 2.162
44.26000 0.509
44.28000 0.527
44.30000 0.380
44.32000 2.733
44.34000 2.038
44.36000 1.577
44.38000 1.292
44.40000 -0.499
44.42000 -0.412
44.44000 -0.383
44.46000 -0.613
44.48000 -0.021
44.50000 1.220
44.52000 0.822
44.54000 0.530
44.56000 0.596
44.58000 2.355
44.60000 0.830
44.62000 -1.976
44.64000 1.669
44.66000 0.375
44.68000 -0.638
44.70000 -3.192
44.72000 -0.242
44.74000 -2.128
44.76000 -1.955
44.78000 -0.548
44.80000 -1.770
44.82000 0.471
44.84000 4.082
44.86000 3.289
44.88000 0.041
44.90000 -1.500
44.92000 -2.651
44.94000 2.402
44.96000 3.304
44.98000 3.192
45.00000 2.291
45.02000 5.260
45.04000 1.698
45.06000 5.503
45.08000 1.133
45.10000 -0.049
45.12000 7.280
45.14000 4.917
45.16000 5.144
45.18000 2.527
45.20000 4.414
45.22000 6.093
45.24000 8.288
45.26000 6.554
45.28000 8.115
45.30000 7.031
45.32000 8.814
45.34000 7.157
45.36000 9.789
45.38000 7.161
45.40000 8.817
45.42000 10.597
45.44000 15.079
45.46000 14.149
45.48000 12.372
45.50000 13.821
45.52000 15.390
45.54000 14.523
45.56000 15.836
45.58000 18.539
45.60000 17.416
45.62000 15.078
45.64000 15.310
45.66000 14.081
45.68000 17.365
45.70000 19.678
45.72000 18.863
45.74000 19.712
45.76000 22.133
45.78000 26.038
45.80000 26.491
45.82000 24.651
45.84000 26.093
45.86000 26.701
45.88000 27.955
45.90000 28.069
45.92000 28.039
45.94000 28.253
45.96000 33.067
45.98000 39.723
46.00000 41.285
46.02000 37.400
46.04000 40.993
46.06000 43.098
46.08000 44.764
46.10000 38.888
46.12000 45.222
46.14000 49.939
46.16000 49.503
46.18000 51.765
46.20000 50.823
46.22000 52.183
46.24000 55.601
46.26000 55.673
46.28000 51.156
46.30000 60.246
46.32000 63.476
46.34000 60.058
46.36000 60.848
46.38000 64.111
46.40000 70.820
46.42000 72.251
46.44000 68.685
46.46000 67.914
46.48000 69.271
46.50000 69.095
46.52000 70.779
46.54000 69.290
46.56000 68.685
46.58000 69.671
46.60000 69.032
46.62000 74.233
46.64000 71.635
46.66000 67.648
46.68000 69.160
46.70000 68.473
46.72000 66.066
46.74000 68.751
46.76000 70.738
46.78000 67.187
46.80000 60.312
46.82000 56.267
46.84000 51.807
46.86000 55.345
46.88000 58.604
46.90000 58.318
46.92000 57.330
46.94000 51.186
46.96000 44.937
46.98000 44.787
47.00000 39.488
47.02000 38.281
47.04000 41.099
47.06000 40.780
47.08000 37.733
47.10000 36.283
47.12000 35.331
47.14000 34.965
47.16000 32.154
47.18000 29.906
47.20000 29.564
47.22000 31.529
47.24000 25.391
47.26000 22.408
47.28000 21.656
47.30000 24.059
47.32000 22.690
47.34000 21.315
47.36000 21.914
47.38000 16.923
47.40000 19.219
47.42000 18.879
47.44000 13.155
47.46000 12.507
47.48000 15.384
47.50000 15.621
47.52000 17.272
47.54000 13.865
47.56000 10.901
47.58000 13.096
47.60000 9.298
47.62000 6.349
47.64000 10.007
47.66000 9.404
47.68000 8.876
47.70000 8.686
47.72000 6.066
47.74000 1.970
47.76000 3.153
47.78000 2.869
47.80000 5.114
47.82000 5.110
47.84000 4.389
47.86000 7.351
47.88000 6.640
47.90000 -2.784
47.92000 -2.500
47.94000 -1.391
47.96000 4.140
47.98000 4.245
48.00000 3.496
48.02000 -2.035
48.04000 -2.847
48.06000 -0.624
48.08000 -2.579
48.10000 -0.069
48.12000 1.426
48.14000 2.452
48.16000 4.956
48.18000 0.979
48.20000 1.779
48.22000 3.405
48.24000 6.887
48.26000 1.260
48.28000 1.509
48.30000 2.264
48.32000 -1.099
48.34000 2.957
48.36000 1.992
48.38000 1.619
48.40000 3.753
48.42000 2.142
48.44000 1.448
48.46000 4.093
48.48000 2.454
48.50000 2.924
48.52000 4.052
48.54000 2.635
48.56000 0.331
48.58000 0.572
48.60000 -1.789
48.62000 0.376
48.64000 2.625
48.66000 4.976
48.68000 2.743
48.70000 -0.880
48.72000 -2.764
48.74000 0.935
48.76000 6.388
48.78000 2.832
48.80000 2.131
48.82000 0.221
48.84000 -2.714
48.86000 -0.579
48.88000 2.946
48.90000 4.707
48.92000 5.107
48.94000 6.392
48.96000 5.828
48.98000 1.535
49.00000 0.011
49.02000 3.165
49.04000 3.600
49.06000 1.638
49.08000 4.849
49.10000 1.965
49.12000 -0.485
49.14000 6.018
49.16000 6.126
49.18000 5.060
49.20000 0.162
49.22000 -2.707
49.24000 2.943
49.26000 6.198
49.28000 -0.358
49.30000 1.953
49.32000 4.425
49.34000 6.518
49.36000 3.031
49.38000 -1.547
49.40000 0.898
49.42000 3.420
49.44000 0.622
49.46000 2.176
49.48000 6.069
49.50000 4.952
49.52000 3.127
49.54000 -0.268
49.56000 5.612
49.58000 5.377
49.60000 2.514
49.62000 1.948
49.64000 2.806
49.66000 2.344
49.68000 8.009
49.70000 11.450
49.72000 4.329
49.74000 3.224
49.76000 3.610
49.78000 2.201
49.80000 5.012
49.82000 3.523
49.84000 4.739
49.86000 7.320
49.88000 5.691
49.90000 5.886
49.92000 9.736
49.94000 6.510
49.96000 4.700
49.98000 3.393
50.00000 2.726
50.02000 3.452
50.04000 2.620
50.06000 1.736
50.08000 -2.634
50.10000 -0.128
50.12000 4.140
50.14000 2.577
50.16000 2.588
50.18000 -1.146
50.20000 0.275
50.22000 0.909
50.24000 1.583
50.26000 2.062
50.28000 2.394
50.30000 0.233
50.32000 3.649
50.34000 4.883
50.36000 6.383
50.38000 2.724
50.40000 1.913
50.42000 8.340
50.44000 6.246
50.46000 7.799
50.48000 5.652
50.50000 4.103
50.52000 6.319
50.54000 6.900
50.56000 2.984
50.58000 1.541
50.60000 0.765
50.62000 2.418
50.64000 0.705
50.66000 -2.613
50.68000 1.237
50.70000 2.993
50.72000 3.679
50.74000 4.156
50.76000 4.598
50.78000 4.783
50.80000 5.768
50.82000 7.871
50.84000 4.160
50.86000 2.938
50.88000 4.040
50.90000 5.470
50.92000 6.960
50.94000 9.824
50.96000 8.688
50.98000 2.103
51.00000 5.779
51.02000 7.114
51.04000 6.127
51.06000 4.547
51.08000 6.707
51.10000 -0.090
51.12000 -0.739
51.14000 2.838
51.16000 0.664
51.18000 2.976
51.20000 1.718
51.22000 -0.558
51.24000 3.708
51.26000 3.882
51.28000 5.038
51.30000 5.269
51.32000 4.672
51.34000 3.265
51.36000 3.316
51.38000 6.003
51.40000 2.371
51.42000 2.116
51.44000 2.725
51.46000 1.105
51.48000 -1.309
51.50000 1.762
51.52000 4.224
51.54000 5.717
51.56000 2.305
51.58000 2.617
51.60000 3.698
51.62000 4.010
51.64000 6.847
51.66000 3.928
51.68000 3.930
51.70000 4.344
51.72000 7.001
51.74000 3.497
51.76000 3.692
51.78000 1.658
51.80000 3.974
51.82000 4.228
51.84000 -2.555
51.86000 1.441
51.88000 3.055
51.90000 4.269
51.92000 5.519
51.94000 4.179
51.96000 4.924
51.98000 5.791
52.00000 0.484
52.02000 2.469
52.04000 1.756
52.06000 5.899
52.08000 -0.645
52.10000 2.600
52.12000 4.438
52.14000 4.174
52.16000 4.963
52.18000 3.997
52.20000 5.659
52.22000 7.473
52.24000 7.595
52.26000 3.482
52.28000 1.531
52.30000 1.088
52.32000 2.340
52.34000 3.526
52.36000 2.512
52.38000 2.769
52.40000 5.403
52.42000 5.176
52.44000 2.808
52.46000 3.373
52.48000 4.162
52.50000 1.410
52.52000 4.478
52.54000 5.599
52.56000 4.695
52.58000 6.898
52.60000 5.503
52.62000 0.702
52.64000 -2.521
52.66000 2.263
52.68000 4.034
52.70000 3.478
52.72000 6.442
52.74000 7.354
52.76000 5.899
52.78000 3.803
52.80000 4.406
52.82000 5.599
52.84000 4.587
52.86000 2.010
52.88000 5.609
52.90000 5.401
52.92000 4.562
52.94000 2.533
52.96000 3.542
52.98000 6.852
53.00000 3.837
53.02000 0.517
53.04000 2.350
53.06000 2.109
53.08000 6.872
53.10000 5.473
53.12000 4.111
53.14000 3.230
53.16000 0.914
53.18000 2.384
53.20000 4.387
53.22000 8.437
53.24000 3.211
53.26000 2.187
53.28000 3.078
53.30000 -0.717
53.32000 2.560
53.34000 2.382
53.36000 1.572
53.38000 1.114
53.40000 5.913
53.42000 5.417
53.44000 3.181
53.46000 -0.879
53.48000 -2.522
53.50000 2.180
53.52000 0.559
53.54000 3.947
53.56000 0.100
53.58000 1.490
53.60000 1.410
53.62000 3.447
53.64000 6.523
53.66000 7.006
53.68000 2.372
53.70000 1.878
53.72000 1.448
53.74000 0.831
53.76000 2.731
53.78000 4.767
53.80000 3.086
53.82000 1.787
53.84000 2.040
53.86000 3.239
53.88000 2.244
53.90000 -0.680
53.92000 4.311
53.94000 1.567
53.96000 3.018
53.98000 1.645
54.00000 4.588
54.02000 3.003
54.04000 3.536
54.06000 3.100
54.08000 -1.276
54.10000 3.760
54.12000 5.730
54.14000 4.344
54.16000 1.426
54.18000 2.255
54.20000 2.588
54.22000 1.986
54.24000 3.101
54.26000 3.074
54.28000 2.846
54.30000 0.852
54.32000 2.210
54.34000 5.852
54.36000 7.694
54.38000 7.000
54.40000 4.281
54.42000 1.962
54.44000 3.901
54.46000 3.214
54.48000 4.417
54.50000 2.197
54.52000 2.023
54.54000 1.036
54.56000 6.347
54.58000 4.745
54.60000 6.820
54.62000 2.330
54.64000 1.293
54.66000 4.975
54.68000 6.272
54.70000 4.698
54.72000 1.777
54.74000 1.833
54.76000 5.020
54.78000 6.361
54.80000 8.533
54.82000 5.774
54.84000 4.522
54.86000 -0.031
54.88000 -2.464
54.90000 3.669
54.92000 2.268
54.94000 0.876
54.96000 0.241
54.98000 0.998
55.00000 0.879
55.02000 3.338
55.04000 7.157
55.06000 0.435
55.08000 2.667
55.10000 4.379
55.12000 5.768
55.14000 4.857
55.16000 1.420
55.18000 2.211
55.20000 2.857
55.22000 4.502
55.24000 3.728
55.26000 2.491
55.28000 3.185
55.30000 4.500
55.32000 2.220
55.34000 1.589
55.36000 4.159
55.38000 4.352
55.40000 0.401
55.42000 0.904
55.44000 5.165
55.46000 3.455
55.48000 -0.087
55.50000 1.424
55.52000 3.924
55.54000 6.045
55.56000 4.132
55.58000 4.500
55.60000 1.114
55.62000 -1.096
55.64000 1.884
55.66000 1.248
55.68000 1.584
55.70000 1.261
55.72000 2.466
55.74000 6.617
55.76000 2.576
55.78000 1.859
55.80000 -0.092
55.82000 2.476
55.84000 7.311
55.86000 4.674
55.88000 1.512
55.90000 1.488
55.92000 0.544
55.94000 5.931
55.96000 4.290
55.98000 4.013
56.00000 3.956
56.02000 1.044
56.04000 -0.472
56.06000 1.476
56.08000 2.520
56.10000 0.732
56.12000 -1.525
56.14000 -1.296
56.16000 -2.483
56.18000 -0.509
56.20000 -1.346
56.22000 -0.890
56.24000 0.500
56.26000 2.481
56.28000 2.447
56.30000 0.499
56.32000 3.778
56.34000 0.276
56.36000 2.691
56.38000 2.514
56.40000 0.382
56.42000 -2.476
56.44000 1.641
56.46000 3.604
56.48000 5.087
56.50000 4.665
56.52000 1.437
56.54000 3.604
56.56000 5.061
56.58000 2.949
56.60000 1.270
56.62000 -0.045
56.64000 0.112
56.66000 0.527
56.68000 1.887
56.70000 -0.554
56.72000 2.472
56.74000 1.981
56.76000 1.458
56.78000 1.243
56.80000 -0.095
56.82000 -0.628
56.84000 1.115
56.86000 5.334
56.88000 5.687
56.90000 2.949
56.92000 3.431
56.94000 2.729
56.96000 0.292
56.98000 -1.024
57.00000 -0.276
57.02000 -0.831
57.04000 -2.466
57.06000 -0.303
57.08000 -0.708
57.10000 1.712
57.12000 3.255
57.14000 1.718
57.16000 -2.223
57.18000 -2.197
57.20000 0.242
57.22000 1.214
57.24000 1.669
57.26000 3.240
57.28000 1.089
57.30000 2.208
57.32000 1.161
57.34000 3.061
57.36000 2.077
57.38000 1.997
57.40000 6.628
57.42000 2.911
57.44000 1.218
57.46000 1.103
57.48000 1.401
57.50000 0.517
57.52000 -2.440
57.54000 -0.054
57.56000 1.394
57.58000 -0.147
57.60000 0.385
57.62000 1.714
57.64000 0.324
57.66000 3.272
57.68000 3.260
57.70000 2.418
57.72000 3.862
57.74000 1.803
57.76000 0.447
57.78000 0.141
57.80000 -0.329
57.82000 1.190
57.84000 4.119
57.86000 5.810
57.88000 2.962
57.90000 -0.601
57.92000 1.040
57.94000 3.149
57.96000 0.133
57.98000 4.456
58.00000 5.906
58.02000 2.766
58.04000 1.538
58.06000 1.067
58.08000 2.709
58.10000 7.220
58.12000 7.685
58.14000 1.668
58.16000 -0.124
58.18000 -0.579
58.20000 1.358
58.22000 3.063
58.24000 5.536
58.26000 7.351
58.28000 3.358
58.30000 1.303
58.32000 0.485
58.34000 1.043
58.36000 3.865
58.38000 5.850
58.40000 5.228
58.42000 4.428
58.44000 4.543
58.46000 4.155
58.48000 3.818
58.50000 5.065
58.52000 2.412
58.54000 2.106
58.56000 3.496
58.58000 1.752
58.60000 2.582
58.62000 3.687
58.64000 3.341
58.66000 3.033
58.68000 4.157
58.70000 3.146
58.72000 5.816
58.74000 7.375
58.76000 0.347
58.78000 -0.097
58.80000 -2.354
58.82000 2.577
58.84000 8.702
58.86000 7.228
58.88000 7.089
58.90000 3.255
58.92000 1.984
58.94000 4.209
58.96000 1.049
58.98000 1.544
59.00000 4.839
59.02000 5.778
59.04000 5.474
59.06000 3.038
59.08000 1.493
59.10000 0.080
59.12000 -0.925
59.14000 0.113
59.16000 1.408
59.18000 2.291
59.20000 3.021
59.22000 0.549
59.24000 2.710
59.26000 0.278
59.28000 2.398
59.30000 5.344
59.32000 3.763
59.34000 3.169
59.36000 4.948
59.38000 6.321
59.40000 4.785
59.42000 1.718
59.44000 1.338
59.46000 0.666
59.48000 2.663
59.50000 4.005
59.52000 -0.861
59.54000 2.870
59.56000 1.156
59.58000 4.743
59.60000 6.005
59.62000 1.703
59.64000 -0.432
59.66000 0.780
59.68000 2.197
59.70000 4.873
59.72000 5.222
59.74000 5.098
59.76000 4.594
59.78000 3.614
59.80000 0.517
59.82000 -0.361
59.84000 2.817
59.86000 0.375
59.88000 2.929
59.90000 0.469
59.92000 -1.069
59.94000 0.337
59.96000 1.554
59.98000 2.855
60.00000 6.752
60.02000 2.931
60.04000 0.477
60.06000 3.000
60.08000 2.135
60.10000 0.957
60.12000 0.670
60.14000 3.173
60.16000 1.031
60.18000 0.222
60.20000 3.363
60.22000 2.299
60.24000 3.928
60.26000 2.198
60.28000 2.153
60.30000 3.287
60.32000 3.334
60.34000 3.950
60.36000 0.275
60.38000 3.967
60.40000 0.865
60.42000 5.205
60.44000 7.460
60.46000 6.717
60.48000 6.819
60.50000 3.883
60.52000 5.461
60.54000 1.671
60.56000 -0.052
60.58000 -2.325
60.60000 -0.509
60.62000 1.334
60.64000 3.824
60.66000 5.455
60.68000 4.400
60.70000 4.998
60.72000 5.028
60.74000 2.963
60.76000 2.864
60.78000 4.621
60.80000 1.937
60.82000 -0.690
60.84000 2.530
60.86000 5.965
60.88000 7.378
60.90000 5.793
60.92000 4.373
60.94000 2.533
60.96000 3.589
60.98000 1.587
61.00000 -0.383
61.02000 3.867
61.04000 3.621
61.06000 -1.782
61.08000 -1.215
61.10000 3.539
61.12000 -0.337
61.14000 -1.333
61.16000 -1.690
61.18000 0.379
61.20000 1.016
61.22000 2.262
61.24000 3.037
61.26000 1.779
61.28000 -1.466
61.30000 -2.336
61.32000 0.521
61.34000 5.730
61.36000 5.883
61.38000 7.352
61.40000 7.449
61.42000 4.656
61.44000 0.584
61.46000 1.046
61.48000 1.548
61.50000 1.719
61.52000 0.409
61.54000 1.321
61.56000 0.282
61.58000 2.623
61.60000 3.004
61.62000 2.298
61.64000 2.076
61.66000 1.935
61.68000 2.157
61.70000 2.242
61.72000 0.822
61.74000 4.024
61.76000 2.381
61.78000 4.517
61.80000 -0.118
61.82000 0.356
61.84000 2.593
61.86000 -1.076
61.88000 -0.320
61.90000 2.621
61.92000 7.796
61.94000 5.853
61.96000 4.538
61.98000 2.979
62.00000 0.336
62.02000 3.247
62.04000 0.485
62.06000 -2.313
62.08000 2.747
62.10000 4.109
62.12000 -1.426
62.14000 -0.910
62.16000 1.338
62.18000 0.319
62.20000 2.994
62.22000 4.154
62.24000 1.672
62.26000 1.927
62.28000 5.911
62.30000 3.033
62.32000 2.494
62.34000 2.025
62.36000 2.192
62.38000 0.463
62.40000 2.236
62.42000 3.086
62.44000 2.523
62.46000 -0.545
62.48000 -2.299
62.50000 0.697
62.52000 0.801
62.54000 -0.896
62.56000 1.166
62.58000 2.460
62.60000 2.721
62.62000 2.388
62.64000 2.425
62.66000 2.163
62.68000 3.619
62.70000 3.099
62.72000 3.952
62.74000 5.501
62.76000 3.553
62.78000 1.808
62.80000 1.324
62.82000 1.839
62.84000 0.965
62.86000 -1.697
62.88000 -2.220
62.90000 2.011
62.92000 2.456
62.94000 2.569
62.96000 5.960
62.98000 1.922
63.00000 3.446
63.02000 1.862
63.04000 -0.934
63.06000 -1.206
63.08000 1.647
63.10000 2.652
63.12000 -0.383
63.14000 -1.239
63.16000 -0.984
63.18000 0.192
63.20000 -1.125
63.22000 0.227
63.24000 -0.517
63.26000 0.482
63.28000 1.129
63.30000 0.099
63.32000 0.098
63.34000 -0.334
63.36000 3.284
63.38000 3.161
63.40000 2.112
63.42000 1.842
63.44000 1.484
63.46000 5.757
63.48000 4.961
63.50000 5.315
63.52000 1.890
63.54000 0.736
63.56000 2.313
63.58000 5.078
63.60000 2.987
63.62000 2.998
63.64000 5.253
63.66000 0.476
63.68000 3.591
63.70000 2.480
63.72000 4.875
63.74000 0.133
63.76000 -2.214
63.78000 -1.400
63.80000 2.058
63.82000 1.493
63.84000 2.452
63.86000 -1.625
63.88000 1.401
63.90000 2.421
63.92000 1.869
63.94000 2.056
63.96000 1.692
63.98000 -0.075
64.00000 -2.301
64.02000 1.846
64.04000 3.573
64.06000 3.382
64.08000 3.221
64.10000 0.449
64.12000 1.252
64.14000 5.061
64.16000 2.442
64.18000 2.123
64.20000 0.930
64.22000 0.348
64.24000 2.086
64.26000 1.027
64.28000 0.523
64.30000 2.022
64.32000 1.990
64.34000 3.367
64.36000 3.521
64.38000 2.839
64.40000 -0.701
64.42000 1.385
64.44000 -0.579
64.46000 -0.926
64.48000 -1.390
64.50000 -0.375
64.52000 -0.749
64.54000 0.466
64.56000 -0.528
64.58000 -0.508
64.60000 0.707
64.62000 -1.729
64.64000 0.395
64.66000 0.375
64.68000 1.376
64.70000 0.580
64.72000 -0.096
64.74000 -0.320
64.76000 2.502
64.78000 0.178
64.80000 -1.256
64.82000 0.546
64.84000 1.533
64.86000 -1.887
64.88000 -1.638
64.90000 3.758
64.92000 1.217
64.94000 -0.694
64.96000 0.276
64.98000 2.357
65.00000 2.088
65.02000 -0.832
65.04000 -0.859
65.06000 1.361
65.08000 -0.414
65.10000 0.563
65.12000 0.452
65.14000 -0.345
65.16000 -1.145
65.18000 -2.105
65.20000 -1.095
65.22000 0.435
65.24000 2.540
65.26000 2.930
65.28000 -0.309
65.30000 -0.028
65.32000 -0.455
65.34000 -2.168
65.36000 0.040
65.38000 -1.180
65.40000 0.058
65.42000 1.458
65.44000 2.213
65.46000 0.960
65.48000 -1.285
65.50000 -1.027
65.52000 1.757
65.54000 -0.944
65.56000 -1.909
65.58000 0.013
65.60000 4.020
65.62000 3.790
65.64000 0.668
65.66000 0.968
65.68000 0.339
65.70000 -0.283
65.72000 -1.186
65.74000 -0.466
65.76000 0.611
65.78000 -1.110
65.80000 -2.348
65.82000 -2.155
65.84000 -1.457
65.86000 3.666
65.88000 3.861
65.90000 1.687
65.92000 2.156
65.94000 -1.543
65.96000 -0.770
65.98000 -0.059
66.00000 2.923
66.02000 -0.115
66.04000 1.808
66.06000 3.078
66.08000 0.263
66.10000 0.121
66.12000 -0.199
66.14000 -0.397
66.16000 1.226
66.18000 0.827
66.20000 -0.344
66.22000 -0.433
66.24000 -2.114
66.26000 -0.833
66.28000 0.788
66.30000 1.487
66.32000 5.360
66.34000 3.640
66.36000 3.505
66.38000 3.071
66.40000 0.890
66.42000 -0.443
66.44000 -1.885
66.46000 -2.380
66.48000 2.502
66.50000 2.450
66.52000 1.431
66.54000 2.712
66.56000 3.582
66.58000 1.349
66.60000 1.689
66.62000 1.965
66.64000 -0.582
66.66000 2.745
66.68000 1.767
66.70000 1.037
66.72000 2.276
66.74000 6.748
66.76000 5.614
66.78000 0.609
66.80000 -0.485
66.82000 2.786
66.84000 3.397
66.86000 3.384
66.88000 4.930
66.90000 4.657
66.92000 2.558
66.94000 1.519
66.96000 2.475
66.98000 1.812
67.00000 2.651
67.02000 3.415
67.04000 4.941
67.06000 5.905
67.08000 7.668
67.10000 5.742
67.12000 4.624
67.14000 5.680
67.16000 3.992
67.18000 5.816
67.20000 10.663
67.22000 8.689
67.24000 8.992
67.26000 8.964
67.28000 9.837
67.30000 9.714
67.32000 11.778
67.34000 11.448
67.36000 10.634
67.38000 12.304
67.40000 9.179
67.42000 12.018
67.44000 11.643
67.46000 13.362
67.48000 12.356
67.50000 11.729
67.52000 12.638
67.54000 13.374
67.56000 13.377
67.58000 12.428
67.60000 16.403
67.62000 17.331
67.64000 13.534
67.66000 13.570
67.68000 14.894
67.70000 16.009
67.72000 16.659
67.74000 15.679
67.76000 13.050
67.78000 13.311
67.80000 18.352
67.82000 17.299
67.84000 16.475
67.86000 20.912
67.88000 16.209
67.90000 14.883
67.92000 17.066
67.94000 16.889
67.96000 16.048
67.98000 15.171
68.00000 15.191
68.02000 14.543
68.04000 16.390
68.06000 17.719
68.08000 18.468
68.10000 17.571
68.12000 14.554
68.14000 16.251
68.16000 14.478
68.18000 11.889
68.20000 10.778
68.22000 12.700
68.24000 12.801
68.26000 11.123
68.28000 11.189
68.30000 10.971
68.32000 10.495
68.34000 12.344
68.36000 9.337
68.38000 6.352
68.40000 5.204
68.42000 6.719
68.44000 5.160
68.46000 4.217
68.48000 6.044
68.50000 5.166
68.52000 6.708
68.54000 10.873
68.56000 9.934
68.58000 6.906
68.60000 4.667
68.62000 3.021
68.64000 1.976
68.66000 2.187
68.68000 2.999
68.70000 1.436
68.72000 2.035
68.74000 3.708
68.76000 4.056
68.78000 5.627
68.80000 6.425
68.82000 4.964
68.84000 6.386
68.86000 4.029
68.88000 2.428
68.90000 1.023
68.92000 1.707
68.94000 0.598
68.96000 0.294
68.98000 3.530
69.00000 4.553
69.02000 4.496
69.04000 -2.313
69.06000 -0.759
69.08000 -0.013
69.10000 1.245
69.12000 -0.278
69.14000 -1.019
69.16000 1.773
69.18000 1.676
69.20000 4.362
69.22000 4.676
69.24000 3.429
69.26000 3.644
69.28000 2.736
69.30000 4.340
69.32000 3.553
69.34000 1.467
69.36000 -1.439
69.38000 -0.958
69.40000 -1.170
69.42000 -0.217
69.44000 0.482
69.46000 -0.455
69.48000 1.012
69.50000 1.272
69.52000 -0.971
69.54000 -0.946
69.56000 1.259
69.58000 -0.787
69.60000 -1.032
69.62000 1.514
69.64000 0.534
69.66000 0.669
69.68000 0.519
69.70000 0.201
69.72000 -1.783
69.74000 2.702
69.76000 2.615
69.78000 -0.187
69.80000 -0.763
69.82000 1.107
69.84000 2.315
69.86000 3.524
69.88000 3.071
69.90000 2.703
69.92000 1.798
69.94000 0.489
69.96000 -0.165
69.98000 2.779
70.00000 2.368
70.02000 0.094
70.04000 -1.107
70.06000 3.775
70.08000 4.278
70.10000 1.328
70.12000 -0.141
70.14000 -0.150
70.16000 1.330
70.18000 3.533
70.20000 1.920
70.22000 3.308
70.24000 4.951
70.26000 2.679
70.28000 1.513
70.30000 0.413
70.32000 -2.224
70.34000 3.190
70.36000 4.020
70.38000 3.545
70.40000 2.162
70.42000 1.744
70.44000 0.119
70.46000 1.505
70.48000 3.911
70.50000 6.850
70.52000 2.964
70.54000 3.377
70.56000 2.808
70.58000 0.758
70.60000 2.398
70.62000 1.365
70.64000 1.589
70.66000 1.351
70.68000 1.511
70.70000 2.797
70.72000 5.376
70.74000 4.199
70.76000 0.763
70.78000 0.511
70.80000 0.894
70.82000 -1.069
70.84000 -2.192
70.86000 3.124
70.88000 2.950
70.90000 2.268
70.92000 1.206
70.94000 -0.556
70.96000 -0.386
70.98000 1.342
71.00000 1.631
71.02000 2.563
71.04000 3.561
71.06000 4.538
71.08000 2.911
71.10000 5.028
71.12000 3.561
71.14000 5.058
71.16000 5.996
71.18000 3.849
71.20000 1.727
71.22000 1.766
71.24000 1.243
71.26000 6.042
71.28000 5.615
71.30000 3.528
71.32000 2.521
71.34000 3.379
71.36000 6.227
71.38000 4.881
71.40000 2.332
71.42000 1.399
71.44000 -2.107
71.46000 2.383
71.48000 -2.169
71.50000 -0.636
71.52000 4.648
71.54000 5.091
71.56000 3.864
71.58000 0.533
71.60000 2.065
71.62000 6.116
71.64000 6.430
71.66000 6.062
71.68000 2.300
71.70000 5.180
71.72000 4.403
71.74000 4.526
71.76000 4.515
71.78000 6.074
71.80000 6.443
71.82000 3.914
71.84000 4.058
71.86000 2.766
71.88000 -0.447
71.90000 -1.282
71.92000 -1.991
71.94000 1.428
71.96000 3.117
71.98000 -0.006
72.00000 0.326
72.02000 1.504
72.04000 3.954
72.06000 4.841
72.08000 4.431
72.10000 2.784
72.12000 2.038
72.14000 -0.522
72.16000 1.401
72.18000 0.146
72.20000 1.412
72.22000 0.430
72.24000 3.301
72.26000 0.089
72.28000 0.319
72.30000 1.000
72.32000 -0.458
72.34000 -2.174
72.36000 0.883
72.38000 2.842
72.40000 0.993
72.42000 2.520
72.44000 -1.765
72.46000 -1.885
72.48000 -1.028
72.50000 6.311
72.52000 3.504
72.54000 -1.228
72.56000 1.911
72.58000 -2.168
72.60000 0.282
72.62000 5.777
72.64000 4.257
72.66000 2.270
72.68000 -0.011
72.70000 4.110
72.72000 -0.152
72.74000 3.433
72.76000 2.566
72.78000 -0.065
72.80000 2.591
72.82000 1.159
72.84000 3.327
72.86000 4.303
72.88000 4.076
72.90000 4.757
72.92000 1.900
72.94000 2.713
72.96000 -0.997
72.98000 -0.369
73.00000 1.180
73.02000 2.354
73.04000 2.500
73.06000 3.564
73.08000 3.579
73.10000 2.313
73.12000 2.937
73.14000 5.829
73.16000 3.578
73.18000 2.166
73.20000 -2.139
73.22000 2.989
73.24000 4.162
73.26000 1.969
73.28000 -0.163
73.30000 1.142
73.32000 1.594
73.34000 3.233
73.36000 6.524
73.38000 3.561
73.40000 3.595
73.42000 5.059
73.44000 2.263
73.46000 1.935
73.48000 2.225
73.50000 2.427
73.52000 1.894
73.54000 5.416
73.56000 2.996
73.58000 5.590
73.60000 3.964
73.62000 3.306
73.64000 5.139
73.66000 3.753
73.68000 2.418
73.70000 2.695
73.72000 1.329
73.74000 5.371
73.76000 1.193
73.78000 2.375
73.80000 3.846
73.82000 5.293
73.84000 1.591
73.86000 -2.091
73.88000 -1.057
73.90000 0.230
73.92000 0.762
73.94000 5.889
73.96000 6.358
73.98000 5.868
74.00000 6.433
74.02000 4.642
74.04000 5.229
74.06000 4.304
74.08000 4.954
74.10000 4.251
74.12000 4.079
74.14000 2.667
74.16000 4.653
74.18000 8.092
74.20000 1.780
74.22000 4.103
74.24000 4.153
74.26000 5.310
74.28000 3.244
74.30000 3.973
74.32000 5.763
74.34000 5.738
74.36000 2.393
74.38000 1.219
74.40000 1.175
74.42000 0.337
74.44000 -2.033
74.46000 -2.085
74.48000 3.230
74.50000 6.991
74.52000 3.140
74.54000 2.859
74.56000 3.964
74.58000 4.954
74.60000 3.308
74.62000 3.834
74.64000 2.561
74.66000 4.670
74.68000 3.074
74.70000 5.034
74.72000 5.707
74.74000 3.779
74.76000 5.142
74.78000 2.541
74.80000 1.367
74.82000 2.947
74.84000 3.574
74.86000 2.896
74.88000 -0.078
74.90000 2.361
74.92000 5.708
74.94000 6.956
74.96000 4.669
74.98000 2.353
75.00000 1.292
75.02000 3.154
75.04000 2.381
75.06000 3.983
75.08000 2.911
75.10000 3.808
75.12000 1.276
75.14000 -2.127
75.16000 1.315
75.18000 1.713
75.20000 3.727
75.22000 4.866
75.24000 1.586
75.26000 2.987
75.28000 4.471
75.30000 3.208
75.32000 0.163
75.34000 0.366
75.36000 2.331
75.38000 1.330
75.40000 3.611
75.42000 0.479
75.44000 4.165
75.46000 5.620
75.48000 3.867
75.50000 2.011
75.52000 -1.099
75.54000 0.217
75.56000 1.066
75.58000 3.661
75.60000 2.738
75.62000 2.578
75.64000 0.165
75.66000 1.086
75.68000 1.189
75.70000 2.479
75.72000 0.849
75.74000 1.708
75.76000 1.138
75.78000 3.581
75.80000 2.211
75.82000 -2.148
75.84000 -1.676
75.86000 1.179
75.88000 2.590
75.90000 2.802
75.92000 2.628
75.94000 3.277
75.96000 2.893
75.98000 1.178
76.00000 1.071
76.02000 2.056
76.04000 1.634
76.06000 -0.037
76.08000 -0.804
76.10000 3.743
76.12000 3.023
76.14000 -1.260
76.16000 0.556
76.18000 -1.192
76.20000 -1.909
76.22000 0.176
76.24000 3.708
76.26000 2.764
76.28000 1.892
76.30000 3.178
76.32000 4.074
76.34000 6.803
76.36000 5.947
76.38000 1.386
76.40000 -2.143
76.42000 0.019
76.44000 4.416
76.46000 2.412
76.48000 5.021
76.50000 7.257
76.52000 5.611
76.54000 2.126
76.56000 -1.244
76.58000 1.914
76.60000 1.143
76.62000 4.262
76.64000 0.314
76.66000 -1.488
76.68000 -2.139
76.70000 -1.032
76.72000 0.855
76.74000 1.201
76.76000 -0.694
76.78000 -0.666
76.80000 3.750
76.82000 1.868
76.84000 4.955
76.86000 5.525
76.88000 1.077
76.90000 4.297
76.92000 3.786
76.94000 2.371
76.96000 5.654
76.98000 2.285
77.00000 2.996
77.02000 3.310
77.04000 3.642
77.06000 3.115
77.08000 -0.701
77.10000 -0.297
77.12000 -0.969
77.14000 1.550
77.16000 0.274
77.18000 -1.317
77.20000 -0.400
77.22000 2.877
77.24000 2.451
77.26000 2.257
77.28000 -0.201
77.30000 0.098
77.32000 1.703
77.34000 2.063
77.36000 1.965
77.38000 2.356
77.40000 1.779
77.42000 0.734
77.44000 2.316
77.46000 2.007
77.48000 0.572
77.50000 0.581
77.52000 3.608
77.54000 3.461
77.56000 1.163
77.58000 -1.929
77.60000 -2.200
77.62000 -0.230
77.64000 0.756
77.66000 3.117
77.68000 0.129
77.70000 -1.711
77.72000 -1.514
77.74000 1.299
77.76000 1.211
77.78000 -1.123
77.80000 -0.094
77.82000 -0.142
77.84000 0.838
77.86000 3.563
77.88000 3.751
77.90000 4.044
77.92000 2.612
77.94000 -1.373
77.96000 0.382
77.98000 0.036
78.00000 0.453
78.02000 0.788
78.04000 4.468
78.06000 4.538
78.08000 1.010
78.10000 -1.332
78.12000 0.378
78.14000 2.121
78.16000 -0.895
78.18000 -1.357
78.20000 -0.468
78.22000 3.960
78.24000 1.836
78.26000 -0.083
78.28000 0.916
78.30000 2.565
78.32000 1.837
78.34000 -2.103
78.36000 -0.309
78.38000 5.937
78.40000 4.063
78.42000 2.021
78.44000 -0.355
78.46000 -0.340
78.48000 1.189
78.50000 -0.764
78.52000 0.739
78.54000 2.843
78.56000 3.674
78.58000 4.722
78.60000 1.440
78.62000 5.216
78.64000 8.534
78.66000 7.416
78.68000 7.603
78.70000 2.085
78.72000 -2.202
78.74000 -0.927
78.76000 2.191
78.78000 3.124
78.80000 2.006
78.82000 2.877
78.84000 1.892
78.86000 -1.265
78.88000 1.789
78.90000 2.417
78.92000 3.334
78.94000 1.609
78.96000 3.784
78.98000 -0.480
79.00000 1.086
79.02000 0.413
79.04000 0.301
79.06000 4.680
79.08000 1.841
79.10000 0.049
79.12000 0.820
79.14000 -0.483
79.16000 -1.638
79.18000 1.659
79.20000 2.090
79.22000 2.717
79.24000 3.390
79.26000 4.375
79.28000 5.942
79.30000 3.643
79.32000 0.560
79.34000 -2.229
79.36000 1.112
79.38000 4.577
79.40000 2.696
79.42000 3.863
79.44000 2.096
79.46000 1.418
79.48000 0.437
79.50000 -2.238
79.52000 -0.620
79.54000 1.025
79.56000 4.655
79.58000 4.515
79.60000 1.954
79.62000 -2.210
79.64000 -0.967
79.66000 0.187
79.68000 5.341
79.70000 6.035
79.72000 5.499
79.74000 5.226
79.76000 -0.153
79.78000 0.819
79.80000 1.916
79.82000 5.623
79.84000 2.309
79.86000 2.459
79.88000 2.226
79.90000 -0.550
79.92000 3.356
79.94000 3.715
79.96000 1.525
79.98000 0.504
80.00000 1.048
80.02000 0.954
80.04000 0.134
80.06000 3.755
80.08000 4.434
80.10000 3.840
80.12000 5.986
80.14000 4.914
80.16000 0.389
80.18000 -0.294
80.20000 -2.313
80.22000 3.351
80.24000 2.235
80.26000 3.448
80.28000 3.673
80.30000 0.545
80.32000 1.395
80.34000 3.078
80.36000 0.893
80.38000 1.313
80.40000 2.307
80.42000 3.088
80.44000 4.736
80.46000 3.634
80.48000 2.927
80.50000 3.743
80.52000 6.319
80.54000 5.692
80.56000 5.102
80.58000 2.656
80.60000 6.929
80.62000 9.295
80.64000 6.310
80.66000 3.801
80.68000 2.787
80.70000 6.441
80.72000 5.205
80.74000 3.746
80.76000 6.172
80.78000 9.597
80.80000 9.841
80.82000 8.284
80.84000 6.885
80.86000 6.034
80.88000 6.130
80.90000 10.285
80.92000 13.378
80.94000 9.307
80.96000 6.758
80.98000 9.895
81.00000 9.541
81.02000 12.467
81.04000 13.678
81.06000 12.361
81.08000 14.080
81.10000 11.991
81.12000 11.394
81.14000 12.379
81.16000 11.901
81.18000 11.205
81.20000 12.320
81.22000 14.582
81.24000 17.218
81.26000 12.781
81.28000 14.480
81.30000 19.021
81.32000 15.906
81.34000 15.508
81.36000 15.864
81.38000 15.866
81.40000 20.106
81.42000 19.323
81.44000 17.409
81.46000 22.048
81.48000 23.223
81.50000 24.827
81.52000 18.694
81.54000 22.261
81.56000 21.323
81.58000 22.385
81.60000 16.984
81.62000 15.090
81.64000 20.305
81.66000 22.407
81.68000 24.206
81.70000 23.243
81.72000 26.017
81.74000 30.986
81.76000 23.097
81.78000 26.443
81.80000 24.834
81.82000 24.499
81.84000 23.105
81.86000 22.431
81.88000 26.283
81.90000 27.984
81.92000 23.853
81.94000 27.337
81.96000 30.056
81.98000 26.910
82.00000 22.366
82.02000 27.208
82.04000 24.624
82.06000 26.728
82.08000 24.203
82.10000 19.812
82.12000 22.798
82.14000 28.173
82.16000 25.808
82.18000 18.564
82.20000 18.432
82.22000 21.420
82.24000 26.186
82.26000 24.882
82.28000 17.214
82.30000 16.060
82.32000 17.803
82.34000 15.837
82.36000 19.119
82.38000 19.691
82.40000 16.866
82.42000 15.338
82.44000 14.782
82.46000 16.031
82.48000 15.095
82.50000 13.220
82.52000 12.650
82.54000 16.211
82.56000 14.006
82.58000 10.619
82.60000 15.154
82.62000 14.562
82.64000 13.672
82.66000 11.219
82.68000 8.159
82.70000 10.000
82.72000 9.706
82.74000 8.487
82.76000 9.234
82.78000 11.406
82.80000 9.462
82.82000 8.137
82.84000 8.097
82.86000 5.904
82.88000 8.292
82.90000 4.554
82.92000 4.835
82.94000 5.843
82.96000 6.457
82.98000 5.125
83.00000 7.228
83.02000 5.054
83.04000 1.349
83.06000 4.297
83.08000 7.054
83.10000 2.200
83.12000 3.637
83.14000 1.470
83.16000 5.767
83.18000 5.061
83.20000 2.369
83.22000 2.630
83.24000 5.785
83.26000 0.746
83.28000 0.821
83.30000 0.971
83.32000 -2.332
83.34000 0.979
83.36000 2.603
83.38000 3.199
83.40000 4.780
83.42000 3.451
83.44000 -0.536
83.46000 -0.335
83.48000 1.352
83.50000 3.949
83.52000 3.773
83.54000 1.303
83.56000 -0.310
83.58000 5.819
83.60000 5.866
83.62000 2.760
83.64000 2.008
83.66000 3.457
83.68000 1.205
83.70000 0.425
83.72000 -2.309
83.74000 -0.052
83.76000 0.803
83.78000 1.220
83.80000 -1.686
83.82000 -0.321
83.84000 4.268
83.86000 3.149
83.88000 0.682
83.90000 0.341
83.92000 2.465
83.94000 3.837
83.96000 3.235
83.98000 3.587
84.00000 4.790
84.02000 2.644
84.04000 0.831
84.06000 2.029
84.08000 1.493
84.10000 2.679
84.12000 1.331
84.14000 -0.456
84.16000 0.178
84.18000 2.540
84.20000 7.334
84.22000 4.676
84.24000 0.671
84.26000 2.568
84.28000 4.214
84.30000 4.604
84.32000 6.445
84.34000 7.456
84.36000 5.052
84.38000 4.851
84.40000 6.907
84.42000 7.138
84.44000 3.619
84.46000 0.954
84.48000 0.856
84.50000 -2.244
84.52000 -1.657
84.54000 3.130
84.56000 6.475
84.58000 4.086
84.60000 8.413
84.62000 3.937
84.64000 3.426
84.66000 6.905
84.68000 4.747
84.70000 0.241
84.72000 2.479
84.74000 6.937
84.76000 5.620
84.78000 5.435
84.80000 9.169
84.82000 10.343
84.84000 5.520
84.86000 8.012
84.88000 10.986
84.90000 7.767
84.92000 4.290
84.94000 8.177
84.96000 7.222
84.98000 3.979
85.00000 8.455
85.02000 11.590
85.04000 10.449
85.06000 8.745
85.08000 7.899
85.10000 7.777
85.12000 8.914
85.14000 11.624
85.16000 10.391
85.18000 8.804
85.20000 10.530
85.22000 13.630
85.24000 12.913
85.26000 8.376
85.28000 12.691
85.30000 11.310
85.32000 10.410
85.34000 13.054
85.36000 15.299
85.38000 12.887
85.40000 15.717
85.42000 19.181
85.44000 16.125
85.46000 16.757
85.48000 16.655
85.50000 19.641
85.52000 22.888
85.54000 17.535
85.56000 13.360
85.58000 15.860
85.60000 21.275
85.62000 21.904
85.64000 20.773
85.66000 19.655
85.68000 23.630
85.70000 18.364
85.72000 15.782
85.74000 19.590
85.76000 16.874
85.78000 19.987
85.80000 20.273
85.82000 17.954
85.84000 19.044
85.86000 23.441
85.88000 21.031
85.90000 23.375
85.92000 23.910
85.94000 22.302
85.96000 20.177
85.98000 23.350
86.00000 24.334
86.02000 21.802
86.04000 20.214
86.06000 19.332
86.08000 19.880
86.10000 22.071
86.12000 20.435
86.14000 21.989
86.16000 22.771
86.18000 20.834
86.20000 22.039
86.22000 18.958
86.24000 17.999
86.26000 16.313
86.28000 19.791
86.30000 16.895
86.32000 16.388
86.34000 22.029
86.36000 21.840
86.38000 20.458
86.40000 17.755
86.42000 20.555
86.44000 21.284
86.46000 21.384
86.48000 17.201
86.50000 15.145
86.52000 15.637
86.54000 15.253
86.56000 14.680
86.58000 11.396
86.60000 7.692
86.62000 13.044
86.64000 15.239
86.66000 11.259
86.68000 8.777
86.70000 7.673
86.72000 6.556
86.74000 5.905
86.76000 9.529
86.78000 6.709
86.80000 7.411
86.82000 8.715
86.84000 7.939
86.86000 8.258
86.88000 5.722
86.90000 5.895
86.92000 2.835
86.94000 4.851
86.96000 6.198
86.98000 6.736
87.00000 5.589
87.02000 2.177
87.04000 2.915
87.06000 3.890
87.08000 3.227
87.10000 3.562
87.12000 3.384
87.14000 1.412
87.16000 1.664
87.18000 3.239
87.20000 4.152
87.22000 7.662
87.24000 5.449
87.26000 4.643
87.28000 1.303
87.30000 0.214
87.32000 2.313
87.34000 4.359
87.36000 4.194
87.38000 2.537
87.40000 3.699
87.42000 1.495
87.44000 -0.579
87.46000 0.527
87.48000 4.784
87.50000 3.373
87.52000 3.431
87.54000 2.887
87.56000 1.658
87.58000 3.123
87.60000 0.319
87.62000 -2.075
87.64000 3.074
87.66000 4.317
87.68000 3.019
87.70000 2.165
87.72000 4.474
87.74000 6.650
87.76000 6.523
87.78000 5.284
87.80000 3.419
87.82000 2.301
87.84000 3.958
87.86000 4.723
87.88000 4.625
87.90000 4.947
87.92000 4.931
87.94000 5.313
87.96000 3.654
87.98000 5.208
88.00000 4.172
88.02000 0.097
88.04000 2.494
88.06000 3.692
88.08000 1.353
88.10000 1.412
88.12000 4.173
88.14000 3.831
88.16000 4.925
88.18000 5.087
88.20000 6.204
88.22000 4.404
88.24000 5.086
88.26000 1.523
88.28000 2.299
88.30000 3.258
88.32000 2.732
88.34000 2.512
88.36000 -0.342
88.38000 -1.985
88.40000 3.346
88.42000 3.638
88.44000 7.206
88.46000 5.927
88.48000 4.553
88.50000 6.789
88.52000 5.308
88.54000 2.205
88.56000 2.036
88.58000 6.108
88.60000 3.579
88.62000 2.109
88.64000 3.597
88.66000 4.968
88.68000 2.195
88.70000 4.323
88.72000 3.585
88.74000 2.409
88.76000 -0.117
88.78000 4.722
88.80000 8.080
88.82000 7.316
88.84000 6.539
88.86000 0.142
88.88000 0.715
88.90000 3.308
88.92000 6.840
88.94000 6.297
88.96000 5.565
88.98000 3.546
89.00000 -1.970
89.02000 0.536
89.04000 5.441
89.06000 3.936
89.08000 4.965
89.10000 4.678
89.12000 3.803
89.14000 3.083
89.16000 3.101
89.18000 2.888
89.20000 6.355
89.22000 4.607
89.24000 3.979
89.26000 2.481
89.28000 1.349
89.30000 3.226
89.32000 6.346
89.34000 6.953
89.36000 7.707
89.38000 3.895
89.40000 3.438
89.42000 2.514
89.44000 2.779
89.46000 3.801
89.48000 6.233
89.50000 5.276
89.52000 4.817
89.54000 5.411
89.56000 0.863
89.58000 2.826
89.60000 6.022
89.62000 2.742
89.64000 0.676
89.66000 6.219
89.68000 5.607
89.70000 2.093
89.72000 4.313
89.74000 1.658
89.76000 -0.113
89.78000 0.197
89.80000 0.414
89.82000 2.825
89.84000 7.011
89.86000 5.184
89.88000 4.823
89.90000 4.102
89.92000 5.260
89.94000 3.811
89.96000 2.062
89.98000 1.596
90.00000 1.411
90.02000 2.231
90.04000 1.710
90.06000 -1.989
90.08000 1.379
90.10000 8.670
90.12000 6.542
90.14000 5.150
90.16000 0.496
90.18000 -0.043
90.20000 4.472
90.22000 2.175
90.24000 5.773
90.26000 6.278
90.28000 4.482
90.30000 3.544
90.32000 2.356
90.34000 3.832
90.36000 5.929
90.38000 4.650
90.40000 4.297
90.42000 4.740
90.44000 5.380
90.46000 6.160
90.48000 3.708
90.50000 4.254
90.52000 5.566
90.54000 2.795
90.56000 2.135
90.58000 4.721
90.60000 4.940
90.62000 3.054
90.64000 2.507
90.66000 -0.428
90.68000 -1.985
90.70000 -0.679
90.72000 -1.125
90.74000 4.401
90.76000 0.409
90.78000 0.063
90.80000 4.221
90.82000 5.195
90.84000 5.812
90.86000 5.765
90.88000 3.701
90.90000 1.637
90.92000 3.305
90.94000 7.946
90.96000 4.345
90.98000 -2.000
91.00000 1.107
91.02000 8.151
91.04000 2.735
91.06000 0.570
91.08000 -0.220
91.10000 3.567
91.12000 5.073
91.14000 5.580
91.16000 4.923
91.18000 -0.319
91.20000 0.430
91.22000 1.074
91.24000 0.100
91.26000 2.012
91.28000 4.595
91.30000 3.442
91.32000 3.792
91.34000 4.211
91.36000 4.794
91.38000 4.784
91.40000 -1.274
91.42000 -0.784
91.44000 -0.464
91.46000 1.109
91.48000 -2.026
91.50000 -0.244
91.52000 2.699
91.54000 0.195
91.56000 0.413
91.58000 3.047
91.60000 3.460
91.62000 1.248
91.64000 4.974
91.66000 3.277
91.68000 4.754
91.70000 5.213
91.72000 4.636
91.74000 1.412
91.76000 0.070
91.78000 5.436
91.80000 5.640
91.82000 2.889
91.84000 3.606
91.86000 5.991
91.88000 3.005
91.90000 1.991
91.92000 -1.199
91.94000 -2.034
91.96000 0.744
91.98000 4.768
92.00000 -1.440
92.02000 -0.587
92.04000 1.735
92.06000 1.346
92.08000 1.786
92.10000 -1.357
92.12000 -2.020
92.14000 3.043
92.16000 1.256
92.18000 -0.347
92.20000 -0.617
92.22000 1.384
92.24000 5.234
92.26000 3.346
92.28000 2.502
92.30000 1.799
92.32000 3.305
92.34000 4.596
92.36000 4.129
92.38000 5.246
92.40000 5.514
92.42000 3.830
92.44000 -1.713
92.46000 0.038
92.48000 -0.876
92.50000 1.017
92.52000 0.674
92.54000 1.839
92.56000 1.482
92.58000 5.374
92.60000 2.241
92.62000 2.825
92.64000 5.132
92.66000 2.620
92.68000 -0.406
92.70000 -0.016
92.72000 0.458
92.74000 2.010
92.76000 1.708
92.78000 3.397
92.80000 -1.361
92.82000 2.121
92.84000 1.911
92.86000 1.823
92.88000 3.808
92.90000 2.426
92.92000 4.272
92.94000 6.437
92.96000 1.092
92.98000 2.495
93.00000 3.909
93.02000 4.802
93.04000 4.513
93.06000 7.612
93.08000 8.329
93.10000 4.652
93.12000 2.641
93.14000 -1.310
93.16000 -1.024
93.18000 -0.092
93.20000 1.167
93.22000 6.109
93.24000 5.396
93.26000 -1.226
93.28000 -1.972
93.30000 1.547
93.32000 2.526
93.34000 5.407
93.36000 8.282
93.38000 7.241
93.40000 7.134
93.42000 3.393
93.44000 6.508
93.46000 7.456
93.48000 5.177
93.50000 3.854
93.52000 3.798
93.54000 3.483
93.56000 1.989
93.58000 2.694
93.60000 4.288
93.62000 5.916
93.64000 6.805
93.66000 8.957
93.68000 6.832
93.70000 5.368
93.72000 4.703
93.74000 3.650
93.76000 6.809
93.78000 6.824
93.80000 9.605
93.82000 12.031
93.84000 6.837
93.86000 3.332
93.88000 2.654
93.90000 1.081
93.92000 2.120
93.94000 1.840
93.96000 1.002
93.98000 6.070
94.00000 4.996
94.02000 3.168
94.04000 6.745
94.06000 7.171
94.08000 5.687
94.10000 5.855
94.12000 4.284
94.14000 6.177
94.16000 2.310
94.18000 0.490
94.20000 2.509
94.22000 1.558
94.24000 3.010
94.26000 2.684
94.28000 4.528
94.30000 5.607
94.32000 2.621
94.34000 1.631
94.36000 3.532
94.38000 1.887
94.40000 2.977
94.42000 5.587
94.44000 1.799
94.46000 -1.079
94.48000 -2.021
94.50000 0.475
94.52000 1.216
94.54000 0.115
94.56000 0.736
94.58000 1.694
94.60000 2.348
94.62000 7.395
94.64000 4.986
94.66000 4.488
94.68000 3.819
94.70000 5.388
94.72000 3.043
94.74000 4.324
94.76000 1.930
94.78000 3.849
94.80000 4.574
94.82000 4.404
94.84000 4.035
94.86000 2.780
94.88000 2.755
94.90000 3.108
94.92000 1.824
94.94000 2.085
94.96000 3.177
94.98000 3.692
95.00000 6.985
95.02000 6.114
95.04000 4.041
95.06000 3.252
95.08000 1.146
95.10000 5.142
95.12000 4.485
95.14000 7.302
95.16000 4.148
95.18000 2.584
95.20000 3.608
95.22000 0.677
95.24000 -1.033
95.26000 1.168
95.28000 3.253
95.30000 6.976
95.32000 5.787
95.34000 2.218
95.36000 -1.012
95.38000 4.164
95.40000 5.249
95.42000 5.836
95.44000 6.238
95.46000 4.476
95.48000 -1.912
95.50000 -0.178
95.52000 3.645
95.54000 5.800
95.56000 5.649
95.58000 6.863
95.60000 2.700
95.62000 2.040
95.64000 1.547
95.66000 2.107
95.68000 5.864
95.70000 7.166
95.72000 4.132
95.74000 8.415
95.76000 9.533
95.78000 8.342
95.80000 8.771
95.82000 1.908
95.84000 -1.189
95.86000 -0.669
95.88000 4.078
95.90000 4.426
95.92000 2.587
95.94000 1.333
95.96000 -1.987
95.98000 3.050
96.00000 4.062
96.02000 1.193
96.04000 3.023
96.06000 2.075
96.08000 3.414
96.10000 4.111
96.12000 3.666
96.14000 3.886
96.16000 7.675
96.18000 3.549
96.20000 1.342
96.22000 2.088
96.24000 8.134
96.26000 6.774
96.28000 5.241
96.30000 6.682
96.32000 2.633
96.34000 3.501
96.36000 5.581
96.38000 6.823
96.40000 -0.412
96.42000 1.486
96.44000 6.436
96.46000 4.356
96.48000 2.008
96.50000 2.450
96.52000 2.992
96.54000 5.908
96.56000 4.776
96.58000 4.417
96.60000 8.056
96.62000 4.117
96.64000 -0.031
96.66000 3.932
96.68000 8.260
96.70000 9.082
96.72000 5.121
96.74000 3.422
96.76000 1.218
96.78000 -1.462
96.80000 0.040
96.82000 0.518
96.84000 5.147
96.86000 3.921
96.88000 -0.448
96.90000 -2.030
96.92000 -2.030
96.94000 0.853
96.96000 3.807
96.98000 2.349
97.00000 3.936
97.02000 0.022
97.04000 2.731
97.06000 2.514
97.08000 3.552
97.10000 4.433
97.12000 2.529
97.14000 4.534
97.16000 8.553
97.18000 7.351
97.20000 4.786
97.22000 3.591
97.24000 3.332
97.26000 2.720
97.28000 4.107
97.30000 1.723
97.32000 0.697
97.34000 4.639
97.36000 8.105
97.38000 6.861
97.40000 3.065
97.42000 3.385
97.44000 4.520
97.46000 3.397
97.48000 1.923
97.50000 2.081
97.52000 2.297
97.54000 8.043
97.56000 5.289
97.58000 -1.368
97.60000 -2.033
97.62000 0.720
97.64000 -1.219
97.66000 -0.970
97.68000 3.579
97.70000 5.320
97.72000 2.838
97.74000 4.590
97.76000 2.998
97.78000 3.027
97.80000 2.380
97.82000 -0.388
97.84000 -0.955
97.86000 3.284
97.88000 1.345
97.90000 0.309
97.92000 1.978
97.94000 -1.737
97.96000 -1.935
97.98000 -2.030
98.00000 4.018
98.02000 7.055
98.04000 6.672
98.06000 2.359
98.08000 5.538
98.10000 1.012
98.12000 2.589
98.14000 4.191
98.16000 2.691
98.18000 3.486
98.20000 -0.392
98.22000 4.017
98.24000 2.545
98.26000 -1.974
98.28000 1.889
98.30000 5.662
98.32000 7.211
98.34000 8.728
98.36000 7.610
98.38000 4.456
98.40000 3.893
98.42000 7.382
98.44000 9.308
98.46000 0.644
98.48000 -0.384
98.50000 5.675
98.52000 0.589
98.54000 2.761
98.56000 5.079
98.58000 2.704
98.60000 1.766
98.62000 -0.928
98.64000 1.889
98.66000 8.046
98.68000 4.951
98.70000 1.016
98.72000 6.155
98.74000 2.924
98.76000 5.082
98.78000 9.567
98.80000 5.642
98.82000 3.559
98.84000 2.122
98.86000 3.275
98.88000 1.897
98.90000 0.561
98.92000 8.833
98.94000 10.567
98.96000 4.906
98.98000 6.274
99.00000 2.261
99.02000 1.629
99.04000 0.644
99.06000 1.748
99.08000 2.016
99.10000 1.476
99.12000 8.350
99.14000 6.020
99.16000 10.023
99.18000 -1.944
99.20000 -0.659
99.22000 -1.597
99.24000 2.281
99.26000 0.887
99.28000 0.108
99.30000 4.306
99.32000 4.534
99.34000 5.098
99.36000 6.153
99.38000 8.144
99.40000 7.236
99.42000 10.551
99.44000 10.581
99.46000 4.772
99.48000 4.692
99.50000 5.948
99.52000 8.550
99.54000 8.817
99.56000 10.252
99.58000 6.013
99.60000 5.797
99.62000 15.431
99.64000 7.254
99.66000 11.212
99.68000 5.885
99.70000 2.138
99.72000 11.508
99.74000 18.683
99.76000 14.189
99.78000 9.316
99.80000 5.960
99.82000 2.846
99.84000 4.448
99.86000 1.495
99.88000 -1.914
99.90000 -0.858
99.92000 -2.056
99.94000 1.839
99.96000 -2.215
99.98000 0.000
