'Id: "0011387" Comment: "Integrate frame 0011387_Au-Ir-Rh_Rh-rich_XRD-Mapping-182-0000.gfrmwith cursor Wedge Cursor #5" Operator: "B?rgel" Anode: "Cu" Wavelength: "1.5406" Scantype: "2Theta (TwoTheta)" TimePerStep: "1" X: "-27" Y: "4.5" Z: "5.95" 
10.00000 0.000
10.02000 1.497
10.04000 -4.472
10.06000 -4.433
10.08000 2.331
10.10000 16.588
10.12000 -1.709
10.14000 2.752
10.16000 7.111
10.18000 11.908
10.20000 1.275
10.22000 29.585
10.24000 21.006
10.26000 10.040
10.28000 16.504
10.30000 23.450
10.32000 13.745
10.34000 15.836
10.36000 25.047
10.38000 22.031
10.40000 4.924
10.42000 2.547
10.44000 8.674
10.46000 14.786
10.48000 10.809
10.50000 1.868
10.52000 10.781
10.54000 11.828
10.56000 6.957
10.58000 6.599
10.60000 14.546
10.62000 3.239
10.64000 9.626
10.66000 10.177
10.68000 12.486
10.70000 13.613
10.72000 10.432
10.74000 -2.272
10.76000 8.670
10.78000 21.830
10.80000 11.102
10.82000 -1.187
10.84000 9.170
10.86000 17.249
10.88000 22.024
10.90000 21.242
10.92000 6.922
10.94000 10.348
10.96000 20.436
10.98000 19.770
11.00000 13.425
11.02000 14.921
11.04000 9.809
11.06000 5.569
11.08000 12.941
11.10000 8.879
11.12000 -0.094
11.14000 7.804
11.16000 13.606
11.18000 6.059
11.20000 -3.775
11.22000 9.416
11.24000 17.006
11.26000 20.813
11.28000 1.604
11.30000 3.764
11.32000 5.032
11.34000 10.755
11.36000 16.368
11.38000 17.834
11.40000 19.276
11.42000 9.691
11.44000 13.836
11.46000 9.029
11.48000 9.769
11.50000 12.562
11.52000 10.946
11.54000 9.915
11.56000 17.726
11.58000 16.604
11.60000 10.230
11.62000 12.333
11.64000 10.773
11.66000 -2.662
11.68000 -4.389
11.70000 3.294
11.72000 15.438
11.74000 18.561
11.76000 27.839
11.78000 19.442
11.80000 22.882
11.82000 14.230
11.84000 8.364
11.86000 -0.757
11.88000 2.401
11.90000 15.059
11.92000 20.791
11.94000 22.433
11.96000 11.198
11.98000 7.680
12.00000 15.687
12.02000 3.828
12.04000 -4.441
12.06000 3.481
12.08000 20.347
12.10000 25.609
12.12000 17.578
12.14000 13.740
12.16000 10.882
12.18000 4.918
12.20000 7.044
12.22000 12.057
12.24000 12.281
12.26000 8.777
12.28000 -1.813
12.30000 13.040
12.32000 22.524
12.34000 15.755
12.36000 7.858
12.38000 11.685
12.40000 19.950
12.42000 7.691
12.44000 3.109
12.46000 10.217
12.48000 19.876
12.50000 26.207
12.52000 10.188
12.54000 0.863
12.56000 5.368
12.58000 15.995
12.60000 16.680
12.62000 18.955
12.64000 8.975
12.66000 7.154
12.68000 5.580
12.70000 9.753
12.72000 13.780
12.74000 9.884
12.76000 14.388
12.78000 17.048
12.80000 8.052
12.82000 15.644
12.84000 11.774
12.86000 14.884
12.88000 19.788
12.90000 9.490
12.92000 14.019
12.94000 23.984
12.96000 16.550
12.98000 18.623
13.00000 16.780
13.02000 17.763
13.04000 15.563
13.06000 13.551
13.08000 6.771
13.10000 3.883
13.12000 12.728
13.14000 5.283
13.16000 15.840
13.18000 8.202
13.20000 8.837
13.22000 17.359
13.24000 8.283
13.26000 7.805
13.28000 17.726
13.30000 5.285
13.32000 -4.470
13.34000 6.371
13.36000 10.552
13.38000 18.520
13.40000 19.682
13.42000 10.228
13.44000 8.626
13.46000 9.592
13.48000 5.700
13.50000 17.091
13.52000 24.239
13.54000 5.620
13.56000 2.138
13.58000 16.304
13.60000 6.065
13.62000 -1.488
13.64000 6.905
13.66000 9.764
13.68000 4.786
13.70000 7.297
13.72000 14.037
13.74000 10.200
13.76000 12.611
13.78000 18.909
13.80000 11.512
13.82000 10.093
13.84000 11.992
13.86000 6.217
13.88000 6.781
13.90000 9.324
13.92000 10.526
13.94000 15.505
13.96000 17.380
13.98000 7.112
14.00000 3.851
14.02000 13.993
14.04000 14.505
14.06000 6.230
14.08000 12.160
14.10000 19.867
14.12000 15.174
14.14000 6.582
14.16000 15.142
14.18000 13.961
14.20000 -1.639
14.22000 6.115
14.24000 15.632
14.26000 8.409
14.28000 8.589
14.30000 8.331
14.32000 11.327
14.34000 7.649
14.36000 -4.438
14.38000 2.431
14.40000 12.858
14.42000 12.269
14.44000 16.378
14.46000 11.506
14.48000 12.566
14.50000 1.841
14.52000 7.955
14.54000 13.737
14.56000 20.057
14.58000 15.344
14.60000 17.885
14.62000 13.642
14.64000 8.892
14.66000 11.695
14.68000 7.476
14.70000 1.196
14.72000 6.983
14.74000 15.888
14.76000 11.933
14.78000 9.628
14.80000 9.578
14.82000 11.585
14.84000 -0.504
14.86000 9.238
14.88000 8.013
14.90000 10.118
14.92000 17.011
14.94000 15.568
14.96000 11.040
14.98000 16.349
15.00000 10.328
15.02000 2.490
15.04000 7.778
15.06000 11.224
15.08000 8.750
15.10000 2.361
15.12000 -1.541
15.14000 -1.041
15.16000 8.105
15.18000 11.686
15.20000 13.275
15.22000 11.440
15.24000 11.214
15.26000 8.612
15.28000 10.947
15.30000 20.655
15.32000 13.442
15.34000 9.510
15.36000 11.726
15.38000 4.264
15.40000 6.797
15.42000 8.812
15.44000 9.897
15.46000 6.339
15.48000 6.708
15.50000 11.928
15.52000 7.985
15.54000 10.522
15.56000 2.066
15.58000 6.092
15.60000 14.563
15.62000 8.644
15.64000 9.814
15.66000 7.077
15.68000 5.431
15.70000 10.517
15.72000 8.456
15.74000 3.395
15.76000 -1.179
15.78000 -4.420
15.80000 2.829
15.82000 9.855
15.84000 17.886
15.86000 12.032
15.88000 3.717
15.90000 0.081
15.92000 7.302
15.94000 7.495
15.96000 1.461
15.98000 -1.663
16.00000 12.931
16.02000 10.437
16.04000 -0.781
16.06000 2.111
16.08000 10.702
16.10000 21.268
16.12000 13.836
16.14000 9.533
16.16000 6.680
16.18000 6.328
16.20000 4.550
16.22000 7.215
16.24000 10.163
16.26000 9.981
16.28000 9.061
16.30000 6.665
16.32000 14.409
16.34000 13.939
16.36000 15.429
16.38000 14.435
16.40000 8.062
16.42000 -2.721
16.44000 -4.383
16.46000 1.387
16.48000 10.258
16.50000 3.419
16.52000 8.055
16.54000 7.285
16.56000 9.519
16.58000 12.731
16.60000 6.358
16.62000 11.228
16.64000 8.817
16.66000 10.538
16.68000 14.247
16.70000 9.344
16.72000 9.437
16.74000 7.707
16.76000 5.006
16.78000 2.331
16.80000 7.004
16.82000 0.931
16.84000 2.269
16.86000 6.513
16.88000 7.884
16.90000 5.145
16.92000 10.002
16.94000 14.787
16.96000 6.991
16.98000 4.538
17.00000 9.384
17.02000 10.146
17.04000 9.527
17.06000 7.109
17.08000 6.557
17.10000 16.176
17.12000 9.907
17.14000 4.650
17.16000 6.450
17.18000 7.946
17.20000 2.282
17.22000 1.306
17.24000 2.589
17.26000 9.112
17.28000 9.421
17.30000 14.528
17.32000 18.809
17.34000 19.905
17.36000 8.754
17.38000 3.681
17.40000 1.137
17.42000 4.606
17.44000 12.595
17.46000 17.786
17.48000 7.132
17.50000 4.271
17.52000 10.279
17.54000 11.872
17.56000 7.150
17.58000 10.282
17.60000 7.573
17.62000 0.222
17.64000 -1.203
17.66000 6.783
17.68000 11.365
17.70000 8.899
17.72000 0.664
17.74000 6.078
17.76000 4.282
17.78000 7.170
17.80000 9.897
17.82000 9.741
17.84000 14.191
17.86000 6.876
17.88000 3.075
17.90000 4.701
17.92000 3.876
17.94000 1.645
17.96000 5.083
17.98000 5.391
18.00000 8.034
18.02000 12.485
18.04000 10.302
18.06000 5.192
18.08000 1.987
18.10000 5.281
18.12000 9.285
18.14000 10.087
18.16000 6.954
18.18000 9.033
18.20000 15.844
18.22000 13.892
18.24000 13.436
18.26000 4.461
18.28000 6.367
18.30000 11.382
18.32000 11.952
18.34000 14.132
18.36000 15.014
18.38000 7.763
18.40000 -4.250
18.42000 4.453
18.44000 6.501
18.46000 7.218
18.48000 8.637
18.50000 10.506
18.52000 6.893
18.54000 3.137
18.56000 5.331
18.58000 4.820
18.60000 5.205
18.62000 7.282
18.64000 0.729
18.66000 5.390
18.68000 13.285
18.70000 13.182
18.72000 12.437
18.74000 11.382
18.76000 9.794
18.78000 7.805
18.80000 12.791
18.82000 11.760
18.84000 10.522
18.86000 11.564
18.88000 9.708
18.90000 7.135
18.92000 3.947
18.94000 3.150
18.96000 3.967
18.98000 5.948
19.00000 4.316
19.02000 13.659
19.04000 5.555
19.06000 -2.681
19.08000 5.690
19.10000 11.898
19.12000 -0.371
19.14000 2.427
19.16000 12.331
19.18000 3.895
19.20000 1.073
19.22000 5.028
19.24000 9.256
19.26000 11.222
19.28000 15.004
19.30000 9.139
19.32000 2.690
19.34000 0.784
19.36000 2.924
19.38000 8.900
19.40000 5.306
19.42000 7.191
19.44000 7.031
19.46000 6.130
19.48000 -1.317
19.50000 1.531
19.52000 3.713
19.54000 -1.374
19.56000 -2.564
19.58000 1.052
19.60000 12.084
19.62000 6.277
19.64000 -2.854
19.66000 1.195
19.68000 7.247
19.70000 6.785
19.72000 3.402
19.74000 -2.755
19.76000 1.967
19.78000 3.854
19.80000 5.477
19.82000 2.178
19.84000 -1.045
19.86000 0.520
19.88000 10.690
19.90000 5.056
19.92000 4.317
19.94000 7.525
19.96000 7.103
19.98000 11.600
20.00000 2.457
20.02000 1.748
20.04000 1.973
20.06000 0.941
20.08000 1.164
20.10000 5.509
20.12000 7.896
20.14000 4.181
20.16000 1.324
20.18000 0.332
20.20000 0.123
20.22000 4.559
20.24000 7.939
20.26000 9.666
20.28000 6.670
20.30000 4.246
20.32000 1.327
20.34000 -1.478
20.36000 7.116
20.38000 6.581
20.40000 6.954
20.42000 8.339
20.44000 9.273
20.46000 5.563
20.48000 -0.512
20.50000 -4.185
20.52000 1.645
20.54000 -1.598
20.56000 -1.316
20.58000 3.175
20.60000 1.533
20.62000 2.051
20.64000 -3.225
20.66000 -4.176
20.68000 1.985
20.70000 9.185
20.72000 6.488
20.74000 -0.401
20.76000 0.871
20.78000 7.451
20.80000 3.247
20.82000 3.474
20.84000 2.287
20.86000 1.968
20.88000 10.636
20.90000 7.928
20.92000 -0.748
20.94000 1.189
20.96000 1.172
20.98000 5.636
21.00000 11.101
21.02000 5.679
21.04000 -0.828
21.06000 -0.284
21.08000 -0.527
21.10000 5.468
21.12000 4.105
21.14000 0.827
21.16000 4.577
21.18000 0.560
21.20000 2.536
21.22000 5.252
21.24000 0.891
21.26000 -4.155
21.28000 1.546
21.30000 8.166
21.32000 3.411
21.34000 1.559
21.36000 -2.836
21.38000 2.016
21.40000 8.527
21.42000 2.977
21.44000 1.830
21.46000 5.108
21.48000 3.652
21.50000 -0.101
21.52000 9.401
21.54000 11.314
21.56000 2.158
21.58000 0.766
21.60000 3.328
21.62000 -1.705
21.64000 0.456
21.66000 2.793
21.68000 5.712
21.70000 1.298
21.72000 5.549
21.74000 3.757
21.76000 1.822
21.78000 1.418
21.80000 -2.738
21.82000 -1.855
21.84000 -4.129
21.86000 2.223
21.88000 0.480
21.90000 3.759
21.92000 10.448
21.94000 6.398
21.96000 2.801
21.98000 1.868
22.00000 -3.417
22.02000 -1.954
22.04000 0.141
22.06000 0.218
22.08000 -2.758
22.10000 1.769
22.12000 4.613
22.14000 3.037
22.16000 3.580
22.18000 3.601
22.20000 1.774
22.22000 1.694
22.24000 6.243
22.26000 5.867
22.28000 5.005
22.30000 6.593
22.32000 3.008
22.34000 1.029
22.36000 0.053
22.38000 3.260
22.40000 8.430
22.42000 7.995
22.44000 4.754
22.46000 7.208
22.48000 0.841
22.50000 -2.478
22.52000 0.128
22.54000 5.191
22.56000 9.988
22.58000 1.208
22.60000 -3.381
22.62000 -2.596
22.64000 4.026
22.66000 2.908
22.68000 -0.691
22.70000 -1.269
22.72000 -2.998
22.74000 2.141
22.76000 4.450
22.78000 6.418
22.80000 3.852
22.82000 -3.945
22.84000 -4.073
22.86000 8.592
22.88000 6.455
22.90000 0.158
22.92000 0.674
22.94000 4.313
22.96000 3.839
22.98000 6.159
23.00000 1.932
23.02000 0.717
23.04000 6.550
23.06000 4.446
23.08000 6.326
23.10000 7.999
23.12000 9.024
23.14000 5.532
23.16000 6.268
23.18000 -0.465
23.20000 -2.112
23.22000 -0.110
23.24000 -1.758
23.26000 -1.144
23.28000 -0.336
23.30000 -0.566
23.32000 7.358
23.34000 5.507
23.36000 1.189
23.38000 3.649
23.40000 -0.382
23.42000 3.536
23.44000 3.349
23.46000 4.899
23.48000 1.763
23.50000 1.141
23.52000 2.147
23.54000 7.333
23.56000 7.196
23.58000 10.519
23.60000 8.590
23.62000 4.926
23.64000 4.233
23.66000 -2.276
23.68000 -3.968
23.70000 3.669
23.72000 1.734
23.74000 -2.024
23.76000 -4.017
23.78000 -0.555
23.80000 5.603
23.82000 4.376
23.84000 0.672
23.86000 1.189
23.88000 10.343
23.90000 7.505
23.92000 -2.607
23.94000 -1.632
23.96000 3.692
23.98000 4.814
24.00000 3.260
24.02000 2.088
24.04000 2.906
24.06000 -0.360
24.08000 4.256
24.10000 6.502
24.12000 -2.379
24.14000 -0.949
24.16000 6.202
24.18000 5.512
24.20000 2.452
24.22000 -3.981
24.24000 0.644
24.26000 5.226
24.28000 7.357
24.30000 6.587
24.32000 7.820
24.34000 8.121
24.36000 2.842
24.38000 2.909
24.40000 4.930
24.42000 1.121
24.44000 1.918
24.46000 3.585
24.48000 -3.958
24.50000 -3.963
24.52000 4.069
24.54000 0.843
24.56000 6.238
24.58000 5.879
24.60000 -0.759
24.62000 -3.956
24.64000 5.657
24.66000 -0.326
24.68000 -0.580
24.70000 0.157
24.72000 1.495
24.74000 3.993
24.76000 2.579
24.78000 6.378
24.80000 -0.738
24.82000 0.121
24.84000 6.361
24.86000 6.792
24.88000 6.332
24.90000 6.501
24.92000 2.688
24.94000 10.698
24.96000 7.804
24.98000 0.142
25.00000 1.671
25.02000 1.349
25.04000 1.488
25.06000 2.804
25.08000 3.031
25.10000 3.982
25.12000 7.787
25.14000 3.641
25.16000 2.372
25.18000 4.342
25.20000 4.558
25.22000 1.590
25.24000 5.099
25.26000 8.202
25.28000 5.336
25.30000 6.538
25.32000 5.779
25.34000 3.921
25.36000 2.624
25.38000 3.251
25.40000 3.771
25.42000 7.049
25.44000 9.141
25.46000 5.531
25.48000 5.596
25.50000 6.058
25.52000 3.253
25.54000 2.114
25.56000 5.585
25.58000 9.363
25.60000 3.373
25.62000 3.002
25.64000 6.957
25.66000 5.024
25.68000 6.807
25.70000 7.684
25.72000 6.917
25.74000 10.157
25.76000 10.027
25.78000 4.639
25.80000 7.441
25.82000 7.719
25.84000 12.451
25.86000 12.780
25.88000 8.908
25.90000 -0.320
25.92000 -3.838
25.94000 7.200
25.96000 11.084
25.98000 5.145
26.00000 1.320
26.02000 5.213
26.04000 7.740
26.06000 10.130
26.08000 11.409
26.10000 6.626
26.12000 5.648
26.14000 3.782
26.16000 6.082
26.18000 4.966
26.20000 3.170
26.22000 5.265
26.24000 10.758
26.26000 3.432
26.28000 5.826
26.30000 7.093
26.32000 5.473
26.34000 5.150
26.36000 -0.161
26.38000 1.113
26.40000 8.481
26.42000 7.435
26.44000 1.355
26.46000 -0.790
26.48000 0.138
26.50000 5.248
26.52000 7.872
26.54000 6.090
26.56000 4.443
26.58000 6.535
26.60000 3.115
26.62000 5.804
26.64000 6.106
26.66000 4.432
26.68000 3.528
26.70000 1.397
26.72000 -1.698
26.74000 1.009
26.76000 4.548
26.78000 3.158
26.80000 3.206
26.82000 4.571
26.84000 -0.813
26.86000 3.203
26.88000 3.745
26.90000 1.177
26.92000 0.262
26.94000 2.169
26.96000 7.199
26.98000 6.188
27.00000 4.014
27.02000 1.281
27.04000 5.071
27.06000 -3.579
27.08000 -3.838
27.10000 1.003
27.12000 2.995
27.14000 0.322
27.16000 3.156
27.18000 3.618
27.20000 6.544
27.22000 4.003
27.24000 1.769
27.26000 4.825
27.28000 5.627
27.30000 4.106
27.32000 3.629
27.34000 0.301
27.36000 -0.201
27.38000 1.376
27.40000 3.037
27.42000 2.496
27.44000 0.265
27.46000 2.773
27.48000 6.125
27.50000 2.394
27.52000 6.470
27.54000 2.872
27.56000 -3.400
27.58000 -1.020
27.60000 0.350
27.62000 4.762
27.64000 -0.944
27.66000 -3.190
27.68000 2.359
27.70000 5.736
27.72000 3.842
27.74000 3.667
27.76000 1.996
27.78000 2.059
27.80000 2.724
27.82000 2.192
27.84000 3.699
27.86000 5.791
27.88000 -0.694
27.90000 0.783
27.92000 3.379
27.94000 0.869
27.96000 -2.240
27.98000 2.418
28.00000 4.867
28.02000 4.757
28.04000 5.219
28.06000 1.474
28.08000 -0.851
28.10000 -2.384
28.12000 0.771
28.14000 0.059
28.16000 -0.989
28.18000 2.569
28.20000 8.205
28.22000 7.932
28.24000 4.290
28.26000 3.819
28.28000 7.334
28.30000 6.138
28.32000 2.794
28.34000 3.969
28.36000 5.657
28.38000 -0.903
28.40000 -3.755
28.42000 2.587
28.44000 4.365
28.46000 4.202
28.48000 2.511
28.50000 0.167
28.52000 -2.000
28.54000 -1.768
28.56000 -2.641
28.58000 -2.510
28.60000 0.067
28.62000 -0.210
28.64000 0.674
28.66000 0.197
28.68000 -0.696
28.70000 4.194
28.72000 10.857
28.74000 5.909
28.76000 3.387
28.78000 4.621
28.80000 2.372
28.82000 7.320
28.84000 7.915
28.86000 -1.024
28.88000 -0.022
28.90000 8.690
28.92000 9.507
28.94000 0.601
28.96000 -0.566
28.98000 3.301
29.00000 1.373
29.02000 3.855
29.04000 3.190
29.06000 4.779
29.08000 3.725
29.10000 3.305
29.12000 1.669
29.14000 -0.363
29.16000 -1.161
29.18000 -1.589
29.20000 -3.710
29.22000 3.710
29.24000 7.156
29.26000 5.113
29.28000 0.887
29.30000 4.026
29.32000 10.487
29.34000 7.969
29.36000 4.589
29.38000 2.592
29.40000 3.272
29.42000 2.527
29.44000 3.019
29.46000 5.562
29.48000 2.743
29.50000 0.628
29.52000 2.124
29.54000 2.728
29.56000 3.711
29.58000 10.155
29.60000 7.044
29.62000 0.953
29.64000 -1.532
29.66000 1.291
29.68000 5.138
29.70000 3.690
29.72000 0.968
29.74000 4.957
29.76000 4.200
29.78000 7.071
29.80000 5.883
29.82000 3.300
29.84000 1.953
29.86000 1.858
29.88000 -1.580
29.90000 3.491
29.92000 3.938
29.94000 3.572
29.96000 3.264
29.98000 2.722
30.00000 1.501
30.02000 1.249
30.04000 0.579
30.06000 0.266
30.08000 5.648
30.10000 3.526
30.12000 4.565
30.14000 0.740
30.16000 6.089
30.18000 2.032
30.20000 1.768
30.22000 4.335
30.24000 8.054
30.26000 7.621
30.28000 6.038
30.30000 7.302
30.32000 3.651
30.34000 3.081
30.36000 -0.746
30.38000 -1.963
30.40000 1.364
30.42000 5.641
30.44000 3.866
30.46000 -1.390
30.48000 -2.401
30.50000 0.124
30.52000 0.195
30.54000 -2.738
30.56000 -3.626
30.58000 2.309
30.60000 7.201
30.62000 7.221
30.64000 7.836
30.66000 4.363
30.68000 1.700
30.70000 2.078
30.72000 4.043
30.74000 6.783
30.76000 9.171
30.78000 6.019
30.80000 0.548
30.82000 1.548
30.84000 1.554
30.86000 2.081
30.88000 3.945
30.90000 4.171
30.92000 9.380
30.94000 9.636
30.96000 6.950
30.98000 3.496
31.00000 1.774
31.02000 2.555
31.04000 3.393
31.06000 5.278
31.08000 5.063
31.10000 8.069
31.12000 4.767
31.14000 3.573
31.16000 1.055
31.18000 -1.440
31.20000 5.808
31.22000 6.154
31.24000 4.918
31.26000 1.199
31.28000 1.277
31.30000 2.544
31.32000 4.894
31.34000 3.539
31.36000 11.157
31.38000 11.920
31.40000 6.048
31.42000 2.330
31.44000 2.761
31.46000 0.651
31.48000 1.941
31.50000 6.978
31.52000 6.542
31.54000 2.863
31.56000 -0.517
31.58000 -0.805
31.60000 -2.680
31.62000 -3.580
31.64000 3.274
31.66000 5.028
31.68000 4.667
31.70000 8.301
31.72000 7.022
31.74000 6.622
31.76000 9.301
31.78000 19.178
31.80000 13.884
31.82000 5.897
31.84000 -3.580
31.86000 2.133
31.88000 2.855
31.90000 3.502
31.92000 4.773
31.94000 3.991
31.96000 2.966
31.98000 -1.697
32.00000 1.598
32.02000 1.500
32.04000 -0.254
32.06000 3.066
32.08000 0.242
32.10000 0.238
32.12000 4.188
32.14000 5.348
32.16000 1.486
32.18000 5.226
32.20000 8.621
32.22000 5.401
32.24000 0.837
32.26000 2.031
32.28000 2.881
32.30000 0.132
32.32000 4.273
32.34000 1.925
32.36000 -3.285
32.38000 -0.669
32.40000 0.557
32.42000 1.746
32.44000 5.318
32.46000 4.305
32.48000 4.648
32.50000 2.537
32.52000 4.827
32.54000 7.873
32.56000 0.673
32.58000 0.117
32.60000 -0.487
32.62000 8.346
32.64000 4.983
32.66000 4.240
32.68000 4.074
32.70000 2.194
32.72000 1.409
32.74000 -0.416
32.76000 -2.348
32.78000 1.421
32.80000 1.851
32.82000 0.048
32.84000 -0.854
32.86000 -0.292
32.88000 -0.161
32.90000 3.085
32.92000 3.714
32.94000 1.911
32.96000 1.170
32.98000 3.295
33.00000 0.001
33.02000 -1.656
33.04000 -3.557
33.06000 3.165
33.08000 1.595
33.10000 4.720
33.12000 2.337
33.14000 0.479
33.16000 4.696
33.18000 6.482
33.20000 2.630
33.22000 2.420
33.24000 2.825
33.26000 3.105
33.28000 -1.235
33.30000 -3.369
33.32000 4.345
33.34000 11.614
33.36000 8.632
33.38000 3.748
33.40000 4.617
33.42000 2.433
33.44000 1.186
33.46000 -0.372
33.48000 -2.030
33.50000 1.587
33.52000 4.939
33.54000 4.581
33.56000 6.562
33.58000 7.546
33.60000 7.553
33.62000 -1.478
33.64000 0.890
33.66000 3.391
33.68000 1.645
33.70000 3.452
33.72000 1.433
33.74000 2.233
33.76000 2.992
33.78000 3.412
33.80000 7.036
33.82000 8.060
33.84000 7.750
33.86000 6.882
33.88000 4.030
33.90000 2.400
33.92000 2.571
33.94000 5.882
33.96000 4.813
33.98000 6.651
34.00000 7.297
34.02000 5.746
34.04000 6.847
34.06000 1.320
34.08000 5.218
34.10000 4.689
34.12000 2.379
34.14000 6.097
34.16000 7.002
34.18000 8.701
34.20000 7.261
34.22000 4.935
34.24000 7.118
34.26000 6.760
34.28000 3.024
34.30000 -1.393
34.32000 -3.476
34.34000 -3.476
34.36000 -2.067
34.38000 1.536
34.40000 2.186
34.42000 2.805
34.44000 6.871
34.46000 5.679
34.48000 4.219
34.50000 9.021
34.52000 3.301
34.54000 2.237
34.56000 2.136
34.58000 6.556
34.60000 7.025
34.62000 8.227
34.64000 8.056
34.66000 6.767
34.68000 8.005
34.70000 7.450
34.72000 7.955
34.74000 4.417
34.76000 7.667
34.78000 12.935
34.80000 5.728
34.82000 0.773
34.84000 5.275
34.86000 10.652
34.88000 3.610
34.90000 3.326
34.92000 7.771
34.94000 4.060
34.96000 -2.228
34.98000 0.644
35.00000 7.723
35.02000 6.697
35.04000 3.031
35.06000 3.480
35.08000 2.279
35.10000 -3.493
35.12000 -0.892
35.14000 -2.266
35.16000 5.257
35.18000 7.753
35.20000 3.087
35.22000 -0.036
35.24000 3.042
35.26000 -0.666
35.28000 2.499
35.30000 -1.251
35.32000 -2.325
35.34000 -0.871
35.36000 2.600
35.38000 4.073
35.40000 2.791
35.42000 4.147
35.44000 8.321
35.46000 7.447
35.48000 2.696
35.50000 2.407
35.52000 3.599
35.54000 5.250
35.56000 5.751
35.58000 0.624
35.60000 -3.094
35.62000 -3.499
35.64000 -0.730
35.66000 -0.364
35.68000 -0.042
35.70000 3.185
35.72000 8.046
35.74000 4.738
35.76000 -1.602
35.78000 4.734
35.80000 2.147
35.82000 -0.567
35.84000 3.318
35.86000 3.288
35.88000 4.030
35.90000 3.048
35.92000 -1.482
35.94000 -2.429
35.96000 0.557
35.98000 4.204
36.00000 5.211
36.02000 2.115
36.04000 1.311
36.06000 0.894
36.08000 3.303
36.10000 1.191
36.12000 5.772
36.14000 7.757
36.16000 4.298
36.18000 -0.308
36.20000 -0.166
36.22000 -1.939
36.24000 1.349
36.26000 2.195
36.28000 -0.025
36.30000 -3.211
36.32000 -3.505
36.34000 2.388
36.36000 6.893
36.38000 5.948
36.40000 6.088
36.42000 1.521
36.44000 2.277
36.46000 3.577
36.48000 2.049
36.50000 4.878
36.52000 4.910
36.54000 -1.541
36.56000 2.271
36.58000 0.815
36.60000 0.532
36.62000 -1.279
36.64000 4.763
36.66000 2.692
36.68000 2.481
36.70000 8.104
36.72000 10.366
36.74000 6.544
36.76000 1.831
36.78000 0.184
36.80000 0.127
36.82000 -3.550
36.84000 0.633
36.86000 -0.329
36.88000 -1.999
36.90000 -2.101
36.92000 -3.560
36.94000 -1.438
36.96000 2.257
36.98000 4.759
37.00000 1.219
37.02000 0.240
37.04000 -3.562
37.06000 4.248
37.08000 -1.262
37.10000 -3.580
37.12000 1.127
37.14000 2.534
37.16000 0.975
37.18000 1.429
37.20000 -0.272
37.22000 -3.593
37.24000 0.489
37.26000 0.519
37.28000 1.704
37.30000 2.921
37.32000 -0.277
37.34000 0.366
37.36000 4.573
37.38000 4.614
37.40000 -1.004
37.42000 -0.195
37.44000 -1.995
37.46000 -2.535
37.48000 1.167
37.50000 3.315
37.52000 -0.742
37.54000 -0.627
37.56000 -2.063
37.58000 -3.520
37.60000 -1.478
37.62000 2.946
37.64000 3.761
37.66000 1.480
37.68000 2.166
37.70000 3.096
37.72000 5.051
37.74000 1.536
37.76000 -0.169
37.78000 5.128
37.80000 6.557
37.82000 2.646
37.84000 1.260
37.86000 -0.877
37.88000 -0.916
37.90000 4.100
37.92000 3.502
37.94000 4.350
37.96000 5.216
37.98000 4.241
38.00000 6.728
38.02000 4.576
38.04000 8.635
38.06000 11.126
38.08000 11.163
38.10000 7.971
38.12000 7.786
38.14000 9.496
38.16000 9.171
38.18000 8.259
38.20000 10.123
38.22000 12.536
38.24000 12.356
38.26000 10.948
38.28000 12.782
38.30000 11.501
38.32000 14.052
38.34000 15.252
38.36000 14.674
38.38000 12.116
38.40000 14.476
38.42000 17.931
38.44000 16.915
38.46000 17.367
38.48000 18.385
38.50000 18.032
38.52000 25.449
38.54000 23.749
38.56000 22.732
38.58000 20.977
38.60000 19.539
38.62000 26.883
38.64000 26.367
38.66000 26.297
38.68000 26.633
38.70000 24.963
38.72000 25.281
38.74000 24.048
38.76000 25.920
38.78000 30.186
38.80000 32.113
38.82000 34.052
38.84000 34.426
38.86000 36.599
38.88000 38.800
38.90000 41.573
38.92000 38.345
38.94000 41.173
38.96000 44.059
38.98000 42.968
39.00000 44.956
39.02000 47.736
39.04000 46.804
39.06000 47.977
39.08000 51.362
39.10000 55.322
39.12000 57.106
39.14000 59.386
39.16000 58.663
39.18000 64.441
39.20000 67.953
39.22000 72.637
39.24000 76.844
39.26000 78.464
39.28000 86.485
39.30000 87.527
39.32000 89.192
39.34000 90.525
39.36000 96.687
39.38000 104.425
39.40000 111.329
39.42000 110.674
39.44000 117.305
39.46000 126.918
39.48000 141.378
39.50000 144.110
39.52000 146.547
39.54000 154.512
39.56000 166.809
39.58000 169.801
39.60000 178.498
39.62000 192.530
39.64000 198.706
39.66000 211.358
39.68000 220.573
39.70000 238.844
39.72000 257.713
39.74000 266.462
39.76000 276.043
39.78000 293.760
39.80000 306.912
39.82000 328.415
39.84000 358.368
39.86000 379.541
39.88000 402.268
39.90000 431.127
39.92000 457.493
39.94000 484.998
39.96000 509.231
39.98000 531.689
40.00000 563.175
40.02000 599.903
40.04000 635.075
40.06000 657.853
40.08000 688.805
40.10000 721.524
40.12000 737.161
40.14000 760.170
40.16000 787.501
40.18000 821.484
40.20000 842.132
40.22000 853.329
40.24000 877.554
40.26000 891.389
40.28000 900.491
40.30000 904.989
40.32000 903.660
40.34000 908.346
40.36000 904.009
40.38000 899.177
40.40000 887.143
40.42000 874.076
40.44000 864.291
40.46000 854.911
40.48000 842.409
40.50000 815.043
40.52000 786.784
40.54000 762.207
40.56000 747.512
40.58000 716.608
40.60000 676.391
40.62000 637.797
40.64000 625.244
40.66000 610.058
40.68000 578.396
40.70000 546.669
40.72000 522.010
40.74000 497.823
40.76000 478.258
40.78000 452.726
40.80000 422.374
40.82000 397.264
40.84000 381.000
40.86000 360.791
40.88000 341.764
40.90000 321.331
40.92000 305.771
40.94000 280.693
40.96000 270.712
40.98000 257.038
41.00000 236.281
41.02000 221.929
41.04000 210.849
41.06000 200.852
41.08000 193.750
41.10000 176.712
41.12000 171.987
41.14000 159.766
41.16000 151.155
41.18000 142.274
41.20000 133.611
41.22000 124.563
41.24000 113.788
41.26000 113.130
41.28000 108.910
41.30000 101.391
41.32000 99.831
41.34000 93.581
41.36000 86.883
41.38000 84.501
41.40000 84.225
41.42000 75.368
41.44000 66.627
41.46000 65.483
41.48000 60.876
41.50000 57.080
41.52000 51.787
41.54000 45.809
41.56000 44.846
41.58000 49.050
41.60000 49.331
41.62000 45.678
41.64000 38.878
41.66000 39.610
41.68000 41.057
41.70000 39.497
41.72000 33.522
41.74000 31.202
41.76000 31.063
41.78000 31.054
41.80000 30.920
41.82000 25.694
41.84000 24.133
41.86000 18.697
41.88000 17.265
41.90000 21.194
41.92000 24.963
41.94000 22.250
41.96000 16.504
41.98000 16.500
42.00000 17.360
42.02000 13.771
42.04000 15.600
42.06000 14.054
42.08000 13.533
42.10000 16.006
42.12000 16.280
42.14000 18.004
42.16000 13.464
42.18000 8.835
42.20000 7.281
42.22000 9.199
42.24000 9.714
42.26000 8.185
42.28000 4.441
42.30000 7.244
42.32000 7.908
42.34000 10.219
42.36000 6.504
42.38000 3.261
42.40000 5.156
42.42000 5.277
42.44000 1.119
42.46000 2.110
42.48000 -1.553
42.50000 2.481
42.52000 1.228
42.54000 0.968
42.56000 2.308
42.58000 2.365
42.60000 6.435
42.62000 1.696
42.64000 -2.760
42.66000 -1.817
42.68000 3.472
42.70000 6.019
42.72000 7.609
42.74000 1.574
42.76000 4.516
42.78000 2.772
42.80000 2.303
42.82000 1.227
42.84000 2.348
42.86000 1.372
42.88000 -1.827
42.90000 -0.002
42.92000 0.169
42.94000 3.584
42.96000 5.396
42.98000 1.532
43.00000 3.028
43.02000 -0.618
43.04000 -1.350
43.06000 0.930
43.08000 1.704
43.10000 1.850
43.12000 -1.562
43.14000 -0.608
43.16000 1.269
43.18000 3.975
43.20000 1.361
43.22000 1.668
43.24000 0.319
43.26000 2.392
43.28000 3.312
43.30000 0.883
43.32000 1.206
43.34000 -0.327
43.36000 -1.218
43.38000 -0.125
43.40000 0.956
43.42000 -3.426
43.44000 -3.034
43.46000 0.219
43.48000 1.951
43.50000 5.013
43.52000 0.769
43.54000 -2.656
43.56000 -1.714
43.58000 -2.349
43.60000 1.091
43.62000 4.579
43.64000 -1.615
43.66000 1.083
43.68000 0.381
43.70000 -0.997
43.72000 0.522
43.74000 0.325
43.76000 0.930
43.78000 -0.154
43.80000 1.958
43.82000 -0.228
43.84000 -2.739
43.86000 -3.378
43.88000 -2.408
43.90000 0.693
43.92000 -3.042
43.94000 -1.741
43.96000 0.080
43.98000 -1.260
44.00000 -2.349
44.02000 -3.250
44.04000 0.921
44.06000 -1.040
44.08000 -3.264
44.10000 -3.374
44.12000 -2.222
44.14000 1.865
44.16000 2.269
44.18000 -1.311
44.20000 -0.739
44.22000 -2.534
44.24000 -1.008
44.26000 -0.637
44.28000 -1.206
44.30000 -0.548
44.32000 -2.014
44.34000 -2.094
44.36000 -1.208
44.38000 -2.881
44.40000 -3.063
44.42000 1.304
44.44000 -0.720
44.46000 3.231
44.48000 3.823
44.50000 -0.330
44.52000 -0.596
44.54000 1.383
44.56000 0.810
44.58000 -1.751
44.60000 -1.954
44.62000 -3.094
44.64000 -1.060
44.66000 2.655
44.68000 2.699
44.70000 -0.368
44.72000 3.725
44.74000 -1.884
44.76000 -2.813
44.78000 -3.371
44.80000 -0.888
44.82000 -0.560
44.84000 -2.423
44.86000 2.025
44.88000 1.759
44.90000 -0.136
44.92000 1.696
44.94000 0.214
44.96000 -0.973
44.98000 -1.945
45.00000 -0.491
45.02000 -1.189
45.04000 3.086
45.06000 3.244
45.08000 -0.861
45.10000 -2.848
45.12000 -0.210
45.14000 3.575
45.16000 6.181
45.18000 2.381
45.20000 7.826
45.22000 8.553
45.24000 3.730
45.26000 1.348
45.28000 3.971
45.30000 1.061
45.32000 0.257
45.34000 0.753
45.36000 3.426
45.38000 6.734
45.40000 8.214
45.42000 10.910
45.44000 8.925
45.46000 8.673
45.48000 10.719
45.50000 10.160
45.52000 12.869
45.54000 14.521
45.56000 17.614
45.58000 15.245
45.60000 10.600
45.62000 12.045
45.64000 11.295
45.66000 14.128
45.68000 16.595
45.70000 20.275
45.72000 22.233
45.74000 15.530
45.76000 15.188
45.78000 19.426
45.80000 20.853
45.82000 20.852
45.84000 21.461
45.86000 21.802
45.88000 30.203
45.90000 26.508
45.92000 21.771
45.94000 22.942
45.96000 31.630
45.98000 36.941
46.00000 38.386
46.02000 35.345
46.04000 37.458
46.06000 39.181
46.08000 40.754
46.10000 43.427
46.12000 46.838
46.14000 48.543
46.16000 49.598
46.18000 51.183
46.20000 55.205
46.22000 54.914
46.24000 60.730
46.26000 60.613
46.28000 64.147
46.30000 63.319
46.32000 68.713
46.34000 71.351
46.36000 80.593
46.38000 85.101
46.40000 79.744
46.42000 83.713
46.44000 85.267
46.46000 91.610
46.48000 93.109
46.50000 98.924
46.52000 100.775
46.54000 105.338
46.56000 110.291
46.58000 115.833
46.60000 118.485
46.62000 119.609
46.64000 126.525
46.66000 131.919
46.68000 136.494
46.70000 138.193
46.72000 139.392
46.74000 143.800
46.76000 148.228
46.78000 146.901
46.80000 151.216
46.82000 150.017
46.84000 155.305
46.86000 167.082
46.88000 163.149
46.90000 163.733
46.92000 164.486
46.94000 173.569
46.96000 178.034
46.98000 177.947
47.00000 176.261
47.02000 172.275
47.04000 173.290
47.06000 168.250
47.08000 157.394
47.10000 150.720
47.12000 152.458
47.14000 151.297
47.16000 142.494
47.18000 137.003
47.20000 134.945
47.22000 134.921
47.24000 132.445
47.26000 131.516
47.28000 124.561
47.30000 116.895
47.32000 117.749
47.34000 110.106
47.36000 106.276
47.38000 104.256
47.40000 98.408
47.42000 98.654
47.44000 98.515
47.46000 90.074
47.48000 81.002
47.50000 75.443
47.52000 70.641
47.54000 69.618
47.56000 61.089
47.58000 58.870
47.60000 56.928
47.62000 53.535
47.64000 53.371
47.66000 52.776
47.68000 52.086
47.70000 50.922
47.72000 43.373
47.74000 39.401
47.76000 35.391
47.78000 35.090
47.80000 32.912
47.82000 32.677
47.84000 29.110
47.86000 23.866
47.88000 20.647
47.90000 23.378
47.92000 22.425
47.94000 21.549
47.96000 21.973
47.98000 18.179
48.00000 16.098
48.02000 9.897
48.04000 11.725
48.06000 13.486
48.08000 14.222
48.10000 14.950
48.12000 15.894
48.14000 14.179
48.16000 12.003
48.18000 8.708
48.20000 13.893
48.22000 10.817
48.24000 10.149
48.26000 9.192
48.28000 7.828
48.30000 9.613
48.32000 9.775
48.34000 5.374
48.36000 6.912
48.38000 5.792
48.40000 5.107
48.42000 5.539
48.44000 4.433
48.46000 0.284
48.48000 -2.988
48.50000 1.509
48.52000 2.919
48.54000 4.586
48.56000 2.103
48.58000 3.232
48.60000 6.682
48.62000 1.148
48.64000 -2.247
48.66000 -1.283
48.68000 1.871
48.70000 -0.846
48.72000 3.995
48.74000 3.636
48.76000 -1.874
48.78000 -0.389
48.80000 2.504
48.82000 -0.540
48.84000 1.096
48.86000 2.811
48.88000 0.921
48.90000 -1.901
48.92000 2.338
48.94000 3.774
48.96000 -1.161
48.98000 3.169
49.00000 -1.722
49.02000 0.723
49.04000 5.116
49.06000 2.920
49.08000 3.446
49.10000 8.771
49.12000 6.693
49.14000 2.332
49.16000 0.286
49.18000 -2.830
49.20000 0.222
49.22000 3.482
49.24000 4.667
49.26000 5.610
49.28000 7.077
49.30000 2.312
49.32000 0.315
49.34000 1.415
49.36000 1.039
49.38000 -0.477
49.40000 1.299
49.42000 -0.199
49.44000 -0.822
49.46000 4.906
49.48000 3.859
49.50000 1.281
49.52000 2.318
49.54000 2.251
49.56000 2.083
49.58000 1.715
49.60000 2.055
49.62000 -0.066
49.64000 2.635
49.66000 2.391
49.68000 2.181
49.70000 0.587
49.72000 -1.471
49.74000 -1.520
49.76000 -1.163
49.78000 -0.325
49.80000 -1.697
49.82000 -2.018
49.84000 -0.315
49.86000 2.560
49.88000 1.774
49.90000 1.428
49.92000 -2.627
49.94000 0.521
49.96000 1.610
49.98000 4.685
50.00000 -0.303
50.02000 1.628
50.04000 1.839
50.06000 0.879
50.08000 -0.551
50.10000 1.314
50.12000 -0.213
50.14000 1.696
50.16000 -0.144
50.18000 0.637
50.20000 1.689
50.22000 -2.735
50.24000 -2.309
50.26000 1.644
50.28000 3.095
50.30000 2.078
50.32000 2.699
50.34000 5.625
50.36000 5.823
50.38000 -0.330
50.40000 0.448
50.42000 4.138
50.44000 5.283
50.46000 2.198
50.48000 0.964
50.50000 -1.674
50.52000 -2.703
50.54000 -2.364
50.56000 -1.176
50.58000 1.350
50.60000 4.209
50.62000 5.314
50.64000 4.295
50.66000 6.499
50.68000 2.534
50.70000 0.030
50.72000 -2.046
50.74000 -0.179
50.76000 1.852
50.78000 -0.406
50.80000 4.997
50.82000 6.311
50.84000 11.715
50.86000 7.524
50.88000 4.697
50.90000 6.134
50.92000 4.527
50.94000 6.966
50.96000 4.640
50.98000 -2.061
51.00000 0.790
51.02000 2.245
51.04000 -1.529
51.06000 -2.633
51.08000 -0.743
51.10000 3.827
51.12000 4.207
51.14000 5.050
51.16000 5.368
51.18000 2.356
51.20000 2.566
51.22000 2.232
51.24000 2.717
51.26000 3.549
51.28000 2.442
51.30000 0.180
51.32000 2.267
51.34000 6.299
51.36000 3.810
51.38000 3.651
51.40000 6.913
51.42000 6.668
51.44000 0.385
51.46000 -0.378
51.48000 4.990
51.50000 1.602
51.52000 3.945
51.54000 5.153
51.56000 2.284
51.58000 1.678
51.60000 1.118
51.62000 -2.357
51.64000 2.122
51.66000 -0.803
51.68000 -2.640
51.70000 5.201
51.72000 4.113
51.74000 -1.175
51.76000 -2.240
51.78000 -0.599
51.80000 -0.351
51.82000 1.689
51.84000 3.474
51.86000 4.182
51.88000 5.197
51.90000 4.240
51.92000 2.161
51.94000 1.847
51.96000 2.376
51.98000 4.031
52.00000 0.561
52.02000 1.287
52.04000 4.003
52.06000 5.427
52.08000 1.445
52.10000 0.638
52.12000 -0.163
52.14000 -0.430
52.16000 4.309
52.18000 4.812
52.20000 4.392
52.22000 1.560
52.24000 3.227
52.26000 0.788
52.28000 4.126
52.30000 2.453
52.32000 0.579
52.34000 -0.768
52.36000 4.943
52.38000 6.123
52.40000 0.383
52.42000 4.396
52.44000 5.100
52.46000 1.599
52.48000 -0.785
52.50000 2.774
52.52000 3.419
52.54000 1.447
52.56000 1.858
52.58000 3.690
52.60000 5.437
52.62000 4.012
52.64000 4.463
52.66000 1.287
52.68000 -2.587
52.70000 -0.670
52.72000 -2.586
52.74000 -0.100
52.76000 2.083
52.78000 1.039
52.80000 3.168
52.82000 1.814
52.84000 -1.610
52.86000 -0.944
52.88000 -1.294
52.90000 1.362
52.92000 2.853
52.94000 1.826
52.96000 0.749
52.98000 1.018
53.00000 1.669
53.02000 1.539
53.04000 2.467
53.06000 2.169
53.08000 1.855
53.10000 3.838
53.12000 3.550
53.14000 0.298
53.16000 4.989
53.18000 4.759
53.20000 0.048
53.22000 2.497
53.24000 -2.597
53.26000 -0.229
53.28000 -0.442
53.30000 2.500
53.32000 4.562
53.34000 1.163
53.36000 0.417
53.38000 0.901
53.40000 -2.150
53.42000 2.781
53.44000 5.609
53.46000 1.445
53.48000 1.942
53.50000 2.590
53.52000 3.414
53.54000 0.049
53.56000 -0.252
53.58000 0.805
53.60000 3.497
53.62000 1.327
53.64000 1.867
53.66000 5.466
53.68000 5.589
53.70000 3.686
53.72000 1.393
53.74000 2.352
53.76000 1.720
53.78000 2.075
53.80000 4.368
53.82000 -0.983
53.84000 0.961
53.86000 -0.736
53.88000 1.402
53.90000 0.972
53.92000 1.909
53.94000 0.323
53.96000 -1.309
53.98000 3.827
54.00000 3.936
54.02000 5.939
54.04000 6.412
54.06000 4.351
54.08000 3.607
54.10000 -2.575
54.12000 0.744
54.14000 3.474
54.16000 -0.330
54.18000 -0.438
54.20000 -0.132
54.22000 0.899
54.24000 0.494
54.26000 -1.428
54.28000 4.067
54.30000 2.030
54.32000 3.131
54.34000 0.953
54.36000 -2.564
54.38000 -0.858
54.40000 3.420
54.42000 3.365
54.44000 3.881
54.46000 1.907
54.48000 2.764
54.50000 -0.663
54.52000 1.458
54.54000 2.783
54.56000 3.775
54.58000 5.112
54.60000 0.421
54.62000 0.315
54.64000 1.675
54.66000 0.170
54.68000 -0.670
54.70000 -0.948
54.72000 0.120
54.74000 -1.896
54.76000 -0.118
54.78000 1.233
54.80000 1.433
54.82000 4.289
54.84000 3.318
54.86000 -0.694
54.88000 -0.359
54.90000 0.390
54.92000 6.220
54.94000 0.703
54.96000 -1.532
54.98000 -1.850
55.00000 -1.506
55.02000 -2.537
55.04000 -1.622
55.06000 -1.222
55.08000 -1.494
55.10000 -1.964
55.12000 2.778
55.14000 2.437
55.16000 4.348
55.18000 1.799
55.20000 3.704
55.22000 5.317
55.24000 -1.257
55.26000 -1.254
55.28000 2.944
55.30000 3.150
55.32000 1.521
55.34000 0.804
55.36000 -2.236
55.38000 1.348
55.40000 0.487
55.42000 2.625
55.44000 -1.048
55.46000 -1.277
55.48000 1.519
55.50000 3.718
55.52000 2.533
55.54000 1.056
55.56000 5.837
55.58000 4.863
55.60000 5.784
55.62000 3.567
55.64000 0.192
55.66000 -0.122
55.68000 -2.488
55.70000 -0.761
55.72000 4.732
55.74000 2.974
55.76000 0.268
55.78000 -0.110
55.80000 -2.172
55.82000 0.539
55.84000 2.018
55.86000 3.440
55.88000 6.946
55.90000 2.598
55.92000 -0.412
55.94000 5.188
55.96000 5.273
55.98000 2.549
56.00000 4.395
56.02000 2.535
56.04000 2.183
56.06000 0.328
56.08000 2.040
56.10000 2.060
56.12000 -2.468
56.14000 1.082
56.16000 2.063
56.18000 1.785
56.20000 5.484
56.22000 5.767
56.24000 -0.215
56.26000 -0.316
56.28000 1.525
56.30000 0.596
56.32000 2.146
56.34000 3.257
56.36000 3.671
56.38000 2.758
56.40000 1.106
56.42000 -0.093
56.44000 -2.304
56.46000 1.007
56.48000 0.464
56.50000 0.968
56.52000 -2.051
56.54000 -1.047
56.56000 1.567
56.58000 2.702
56.60000 -1.099
56.62000 3.445
56.64000 1.818
56.66000 3.891
56.68000 6.088
56.70000 4.487
56.72000 1.096
56.74000 -1.301
56.76000 -0.153
56.78000 4.272
56.80000 0.758
56.82000 2.992
56.84000 3.788
56.86000 5.699
56.88000 5.745
56.90000 5.982
56.92000 4.398
56.94000 1.301
56.96000 4.925
56.98000 3.709
57.00000 0.534
57.02000 2.935
57.04000 3.294
57.06000 4.088
57.08000 2.428
57.10000 4.169
57.12000 3.217
57.14000 2.838
57.16000 3.190
57.18000 2.284
57.20000 -2.453
57.22000 0.883
57.24000 4.263
57.26000 4.402
57.28000 2.929
57.30000 3.147
57.32000 3.678
57.34000 2.315
57.36000 1.384
57.38000 1.569
57.40000 2.568
57.42000 3.733
57.44000 5.608
57.46000 5.014
57.48000 4.138
57.50000 0.870
57.52000 -0.789
57.54000 2.201
57.56000 2.182
57.58000 3.136
57.60000 1.279
57.62000 3.332
57.64000 1.853
57.66000 4.204
57.68000 2.955
57.70000 6.987
57.72000 4.766
57.74000 -0.035
57.76000 0.092
57.78000 4.845
57.80000 6.413
57.82000 4.861
57.84000 3.803
57.86000 0.662
57.88000 1.544
57.90000 4.818
57.92000 -2.430
57.94000 2.437
57.96000 1.300
57.98000 -1.492
58.00000 -0.066
58.02000 1.254
58.04000 3.096
58.06000 1.336
58.08000 -2.426
58.10000 3.489
58.12000 5.001
58.14000 4.231
58.16000 0.828
58.18000 1.353
58.20000 3.721
58.22000 3.891
58.24000 5.634
58.26000 8.587
58.28000 6.603
58.30000 1.855
58.32000 3.867
58.34000 4.804
58.36000 5.174
58.38000 2.991
58.40000 5.598
58.42000 2.491
58.44000 -1.190
58.46000 2.945
58.48000 3.637
58.50000 3.126
58.52000 3.787
58.54000 4.190
58.56000 2.776
58.58000 -0.200
58.60000 6.974
58.62000 4.056
58.64000 1.315
58.66000 1.984
58.68000 4.592
58.70000 5.447
58.72000 5.520
58.74000 3.773
58.76000 3.728
58.78000 2.965
58.80000 -0.584
58.82000 1.829
58.84000 0.619
58.86000 1.821
58.88000 2.481
58.90000 5.039
58.92000 2.806
58.94000 5.135
58.96000 6.205
58.98000 3.393
59.00000 0.126
59.02000 0.576
59.04000 1.792
59.06000 6.218
59.08000 4.284
59.10000 2.291
59.12000 7.378
59.14000 10.885
59.16000 4.215
59.18000 5.817
59.20000 6.277
59.22000 5.200
59.24000 5.700
59.26000 0.972
59.28000 1.304
59.30000 1.686
59.32000 4.841
59.34000 5.272
59.36000 4.590
59.38000 -0.131
59.40000 -2.349
59.42000 1.345
59.44000 0.666
59.46000 5.630
59.48000 6.350
59.50000 0.347
59.52000 1.256
59.54000 4.544
59.56000 2.853
59.58000 6.826
59.60000 5.619
59.62000 3.119
59.64000 4.202
59.66000 4.995
59.68000 0.985
59.70000 2.305
59.72000 4.293
59.74000 2.158
59.76000 5.614
59.78000 7.585
59.80000 3.857
59.82000 4.089
59.84000 5.131
59.86000 4.018
59.88000 2.180
59.90000 2.930
59.92000 1.128
59.94000 2.504
59.96000 0.260
59.98000 4.668
60.00000 3.414
60.02000 0.374
60.04000 1.482
60.06000 3.739
60.08000 5.184
60.10000 7.372
60.12000 5.864
60.14000 4.544
60.16000 5.803
60.18000 6.268
60.20000 2.653
60.22000 1.321
60.24000 5.791
60.26000 7.119
60.28000 3.706
60.30000 3.458
60.32000 0.289
60.34000 -0.819
60.36000 -1.642
60.38000 -2.354
60.40000 1.944
60.42000 0.759
60.44000 0.167
60.46000 2.144
60.48000 4.204
60.50000 1.885
60.52000 0.501
60.54000 1.168
60.56000 0.866
60.58000 1.807
60.60000 2.471
60.62000 4.592
60.64000 3.999
60.66000 4.066
60.68000 5.205
60.70000 8.290
60.72000 5.927
60.74000 5.632
60.76000 2.790
60.78000 1.654
60.80000 -2.333
60.82000 0.494
60.84000 2.713
60.86000 5.515
60.88000 1.584
60.90000 -1.098
60.92000 -0.876
60.94000 2.640
60.96000 1.212
60.98000 1.618
61.00000 7.648
61.02000 6.174
61.04000 3.810
61.06000 4.192
61.08000 1.788
61.10000 3.183
61.12000 1.445
61.14000 1.271
61.16000 5.025
61.18000 6.398
61.20000 2.367
61.22000 -0.150
61.24000 0.915
61.26000 2.076
61.28000 4.794
61.30000 4.029
61.32000 2.710
61.34000 3.943
61.36000 3.299
61.38000 4.432
61.40000 -0.727
61.42000 -0.888
61.44000 2.320
61.46000 1.187
61.48000 0.483
61.50000 0.887
61.52000 4.330
61.54000 6.585
61.56000 3.635
61.58000 3.700
61.60000 3.608
61.62000 3.082
61.64000 2.141
61.66000 -0.569
61.68000 -2.326
61.70000 0.663
61.72000 1.816
61.74000 1.419
61.76000 1.096
61.78000 3.641
61.80000 5.951
61.82000 3.464
61.84000 3.209
61.86000 0.806
61.88000 1.587
61.90000 0.422
61.92000 4.929
61.94000 2.644
61.96000 8.011
61.98000 7.621
62.00000 0.727
62.02000 -1.376
62.04000 1.699
62.06000 2.699
62.08000 6.042
62.10000 3.578
62.12000 1.189
62.14000 -0.481
62.16000 -1.804
62.18000 0.226
62.20000 1.649
62.22000 3.065
62.24000 0.721
62.26000 0.270
62.28000 3.264
62.30000 1.064
62.32000 -0.723
62.34000 1.443
62.36000 2.354
62.38000 -2.351
62.40000 1.422
62.42000 2.744
62.44000 0.982
62.46000 1.967
62.48000 0.463
62.50000 1.485
62.52000 0.341
62.54000 -0.246
62.56000 -2.093
62.58000 -0.381
62.60000 -0.320
62.62000 4.113
62.64000 3.759
62.66000 1.380
62.68000 0.288
62.70000 -1.284
62.72000 -0.779
62.74000 0.745
62.76000 -0.921
62.78000 0.859
62.80000 -0.326
62.82000 -1.314
62.84000 1.412
62.86000 -0.407
62.88000 -0.788
62.90000 0.297
62.92000 3.349
62.94000 2.301
62.96000 0.773
62.98000 1.092
63.00000 1.578
63.02000 2.777
63.04000 4.096
63.06000 2.714
63.08000 2.356
63.10000 -0.863
63.12000 -1.086
63.14000 -2.342
63.16000 2.165
63.18000 2.943
63.20000 -1.740
63.22000 0.841
63.24000 3.971
63.26000 1.534
63.28000 2.645
63.30000 -1.036
63.32000 0.409
63.34000 -1.121
63.36000 -0.821
63.38000 0.398
63.40000 1.060
63.42000 1.816
63.44000 -0.718
63.46000 -2.334
63.48000 0.035
63.50000 1.961
63.52000 3.025
63.54000 2.176
63.56000 3.864
63.58000 2.079
63.60000 -1.493
63.62000 -0.549
63.64000 -1.967
63.66000 -2.343
63.68000 -2.256
63.70000 2.163
63.72000 1.904
63.74000 0.368
63.76000 0.932
63.78000 0.529
63.80000 -1.525
63.82000 -1.889
63.84000 -1.183
63.86000 1.754
63.88000 1.800
63.90000 0.238
63.92000 -1.406
63.94000 -1.268
63.96000 0.431
63.98000 1.767
64.00000 3.228
64.02000 1.828
64.04000 1.569
64.06000 -0.034
64.08000 -2.353
64.10000 -0.588
64.12000 0.234
64.14000 3.399
64.16000 2.771
64.18000 -0.924
64.20000 -1.699
64.22000 0.158
64.24000 3.214
64.26000 3.119
64.28000 1.074
64.30000 -0.735
64.32000 1.934
64.34000 3.723
64.36000 -0.220
64.38000 0.282
64.40000 0.423
64.42000 1.463
64.44000 3.894
64.46000 4.916
64.48000 2.890
64.50000 0.293
64.52000 -1.407
64.54000 2.944
64.56000 3.400
64.58000 5.080
64.60000 3.280
64.62000 -1.952
64.64000 0.732
64.66000 0.401
64.68000 3.572
64.70000 2.129
64.72000 -1.357
64.74000 -2.142
64.76000 -1.585
64.78000 -2.337
64.80000 -2.046
64.82000 1.300
64.84000 2.383
64.86000 0.615
64.88000 2.416
64.90000 2.559
64.92000 -1.239
64.94000 1.100
64.96000 0.278
64.98000 2.205
65.00000 -0.242
65.02000 -0.368
65.04000 1.163
65.06000 1.191
65.08000 1.294
65.10000 0.085
65.12000 0.273
65.14000 -1.512
65.16000 0.967
65.18000 2.185
65.20000 1.968
65.22000 2.264
65.24000 -0.453
65.26000 0.606
65.28000 4.448
65.30000 0.602
65.32000 1.122
65.34000 0.913
65.36000 0.616
65.38000 0.175
65.40000 -1.435
65.42000 -0.718
65.44000 0.856
65.46000 0.827
65.48000 1.525
65.50000 1.574
65.52000 4.110
65.54000 1.344
65.56000 1.810
65.58000 2.571
65.60000 0.491
65.62000 3.098
65.64000 2.443
65.66000 1.321
65.68000 1.688
65.70000 0.188
65.72000 -2.341
65.74000 0.976
65.76000 -1.224
65.78000 -0.337
65.80000 -0.881
65.82000 1.825
65.84000 4.142
65.86000 4.911
65.88000 5.576
65.90000 0.576
65.92000 1.290
65.94000 4.096
65.96000 3.249
65.98000 1.787
66.00000 1.734
66.02000 1.740
66.04000 0.830
66.06000 2.860
66.08000 -2.358
66.10000 0.096
66.12000 2.594
66.14000 2.056
66.16000 2.397
66.18000 -1.113
66.20000 -0.436
66.22000 1.805
66.24000 0.930
66.26000 0.184
66.28000 0.425
66.30000 -0.748
66.32000 1.792
66.34000 1.368
66.36000 4.245
66.38000 4.961
66.40000 3.995
66.42000 0.206
66.44000 -2.370
66.46000 0.767
66.48000 1.061
66.50000 -2.375
66.52000 -0.957
66.54000 1.797
66.56000 1.406
66.58000 1.258
66.60000 1.918
66.62000 5.972
66.64000 5.265
66.66000 6.452
66.68000 0.838
66.70000 1.081
66.72000 3.309
66.74000 2.812
66.76000 2.045
66.78000 2.047
66.80000 1.614
66.82000 2.272
66.84000 3.769
66.86000 0.765
66.88000 -1.865
66.90000 3.983
66.92000 2.471
66.94000 4.494
66.96000 -0.185
66.98000 -1.315
67.00000 -2.419
67.02000 -0.852
67.04000 0.630
67.06000 1.771
67.08000 2.495
67.10000 1.708
67.12000 -0.222
67.14000 -0.518
67.16000 3.311
67.18000 3.311
67.20000 1.992
67.22000 -0.060
67.24000 1.883
67.26000 1.700
67.28000 3.900
67.30000 2.585
67.32000 2.429
67.34000 0.357
67.36000 1.590
67.38000 1.666
67.40000 1.887
67.42000 3.905
67.44000 4.468
67.46000 4.996
67.48000 7.737
67.50000 7.542
67.52000 3.801
67.54000 4.676
67.56000 4.937
67.58000 5.677
67.60000 5.508
67.62000 4.077
67.64000 5.107
67.66000 8.107
67.68000 7.793
67.70000 8.107
67.72000 10.198
67.74000 11.083
67.76000 12.462
67.78000 9.805
67.80000 8.067
67.82000 6.361
67.84000 10.464
67.86000 10.880
67.88000 16.081
67.90000 17.446
67.92000 19.593
67.94000 16.198
67.96000 15.871
67.98000 14.714
68.00000 14.268
68.02000 16.262
68.04000 15.098
68.06000 14.116
68.08000 15.718
68.10000 19.789
68.12000 26.031
68.14000 27.614
68.16000 26.345
68.18000 26.302
68.20000 24.814
68.22000 23.451
68.24000 26.339
68.26000 25.002
68.28000 23.052
68.30000 26.639
68.32000 27.991
68.34000 31.487
68.36000 31.895
68.38000 27.112
68.40000 32.340
68.42000 35.699
68.44000 32.515
68.46000 29.730
68.48000 36.212
68.50000 37.878
68.52000 36.563
68.54000 34.860
68.56000 35.683
68.58000 35.759
68.60000 34.883
68.62000 34.218
68.64000 37.510
68.66000 36.679
68.68000 37.755
68.70000 37.479
68.72000 33.387
68.74000 33.579
68.76000 37.044
68.78000 35.064
68.80000 35.794
68.82000 37.014
68.84000 33.173
68.86000 34.792
68.88000 33.486
68.90000 30.471
68.92000 30.838
68.94000 30.173
68.96000 30.031
68.98000 30.955
69.00000 30.760
69.02000 26.630
69.04000 24.069
69.06000 21.271
69.08000 14.294
69.10000 16.117
69.12000 17.895
69.14000 19.357
69.16000 18.095
69.18000 21.049
69.20000 21.856
69.22000 16.995
69.24000 13.273
69.26000 16.159
69.28000 14.925
69.30000 14.383
69.32000 10.712
69.34000 9.219
69.36000 11.352
69.38000 10.740
69.40000 8.540
69.42000 8.296
69.44000 4.657
69.46000 6.116
69.48000 5.039
69.50000 5.772
69.52000 5.381
69.54000 8.691
69.56000 7.067
69.58000 4.317
69.60000 3.585
69.62000 4.525
69.64000 5.499
69.66000 4.108
69.68000 7.229
69.70000 1.847
69.72000 3.792
69.74000 4.103
69.76000 4.597
69.78000 3.740
69.80000 2.164
69.82000 3.730
69.84000 5.455
69.86000 9.059
69.88000 4.432
69.90000 0.927
69.92000 1.247
69.94000 2.299
69.96000 4.911
69.98000 0.685
70.00000 -1.745
70.02000 1.362
70.04000 0.416
70.06000 2.842
70.08000 -0.601
70.10000 3.115
70.12000 3.192
70.14000 4.894
70.16000 0.577
70.18000 -2.328
70.20000 0.787
70.22000 2.285
70.24000 0.129
70.26000 1.863
70.28000 0.364
70.30000 0.018
70.32000 2.143
70.34000 5.727
70.36000 2.686
70.38000 0.345
70.40000 0.744
70.42000 3.317
70.44000 1.428
70.46000 -0.946
70.48000 -1.410
70.50000 0.828
70.52000 4.194
70.54000 4.576
70.56000 2.470
70.58000 4.133
70.60000 1.511
70.62000 2.240
70.64000 4.069
70.66000 4.232
70.68000 2.012
70.70000 -0.845
70.72000 0.456
70.74000 4.256
70.76000 4.430
70.78000 1.681
70.80000 1.762
70.82000 4.437
70.84000 3.714
70.86000 3.058
70.88000 0.376
70.90000 3.136
70.92000 3.989
70.94000 2.884
70.96000 1.266
70.98000 0.027
71.00000 4.285
71.02000 5.922
71.04000 3.782
71.06000 1.123
71.08000 -2.209
71.10000 4.285
71.12000 1.389
71.14000 1.759
71.16000 5.356
71.18000 9.378
71.20000 9.027
71.22000 6.036
71.24000 7.870
71.26000 9.345
71.28000 3.966
71.30000 1.624
71.32000 2.348
71.34000 2.331
71.36000 1.129
71.38000 4.653
71.40000 2.922
71.42000 5.331
71.44000 1.430
71.46000 0.949
71.48000 4.821
71.50000 6.264
71.52000 7.539
71.54000 7.019
71.56000 6.017
71.58000 5.879
71.60000 4.892
71.62000 4.782
71.64000 5.999
71.66000 6.273
71.68000 5.973
71.70000 5.257
71.72000 3.857
71.74000 5.856
71.76000 -0.061
71.78000 3.842
71.80000 7.322
71.82000 4.188
71.84000 4.323
71.86000 4.825
71.88000 6.020
71.90000 5.598
71.92000 3.617
71.94000 7.063
71.96000 4.841
71.98000 1.544
72.00000 -2.162
72.02000 -1.608
72.04000 3.589
72.06000 4.206
72.08000 7.578
72.10000 6.990
72.12000 3.106
72.14000 2.999
72.16000 1.179
72.18000 1.385
72.20000 3.383
72.22000 3.440
72.24000 1.999
72.26000 4.799
72.28000 7.427
72.30000 6.483
72.32000 4.956
72.34000 3.625
72.36000 5.889
72.38000 2.580
72.40000 3.610
72.42000 4.735
72.44000 4.697
72.46000 4.371
72.48000 2.775
72.50000 -1.602
72.52000 0.661
72.54000 5.288
72.56000 4.405
72.58000 1.588
72.60000 2.597
72.62000 1.652
72.64000 3.192
72.66000 4.503
72.68000 1.858
72.70000 1.899
72.72000 0.968
72.74000 3.182
72.76000 2.538
72.78000 1.897
72.80000 3.238
72.82000 -2.175
72.84000 0.820
72.86000 1.586
72.88000 1.444
72.90000 3.436
72.92000 1.726
72.94000 2.210
72.96000 1.784
72.98000 0.341
73.00000 2.567
73.02000 2.433
73.04000 2.023
73.06000 2.013
73.08000 1.689
73.10000 1.878
73.12000 -0.024
73.14000 -0.479
73.16000 1.900
73.18000 2.001
73.20000 0.688
73.22000 0.896
73.24000 -1.249
73.26000 -1.861
73.28000 0.285
73.30000 1.299
73.32000 0.383
73.34000 1.277
73.36000 0.167
73.38000 1.417
73.40000 1.382
73.42000 7.169
73.44000 5.397
73.46000 3.700
73.48000 4.849
73.50000 2.336
73.52000 0.868
73.54000 1.410
73.56000 0.863
73.58000 -0.007
73.60000 -0.742
73.62000 0.836
73.64000 0.802
73.66000 0.040
73.68000 4.949
73.70000 -0.471
73.72000 -0.325
73.74000 -0.106
73.76000 2.001
73.78000 3.238
73.80000 2.586
73.82000 2.465
73.84000 2.224
73.86000 4.247
73.88000 3.343
73.90000 7.872
73.92000 6.402
73.94000 -0.315
73.96000 1.096
73.98000 0.230
74.00000 0.470
74.02000 0.445
74.04000 3.849
74.06000 1.513
74.08000 0.666
74.10000 2.461
74.12000 3.394
74.14000 2.455
74.16000 2.931
74.18000 1.626
74.20000 3.150
74.22000 2.104
74.24000 2.463
74.26000 0.955
74.28000 2.853
74.30000 5.391
74.32000 0.988
74.34000 0.238
74.36000 -0.351
74.38000 -2.129
74.40000 0.543
74.42000 5.561
74.44000 6.170
74.46000 2.845
74.48000 3.084
74.50000 3.049
74.52000 5.924
74.54000 4.022
74.56000 1.978
74.58000 2.365
74.60000 3.687
74.62000 8.123
74.64000 8.250
74.66000 5.722
74.68000 5.125
74.70000 3.012
74.72000 1.753
74.74000 1.909
74.76000 3.419
74.78000 4.040
74.80000 7.692
74.82000 5.274
74.84000 5.586
74.86000 3.637
74.88000 -0.850
74.90000 -2.113
74.92000 3.357
74.94000 4.460
74.96000 1.812
74.98000 2.702
75.00000 3.507
75.02000 3.632
75.04000 -0.454
75.06000 -0.331
75.08000 1.331
75.10000 1.269
75.12000 1.582
75.14000 3.171
75.16000 7.151
75.18000 5.915
75.20000 0.454
75.22000 -0.474
75.24000 0.917
75.26000 2.988
75.28000 3.148
75.30000 -1.372
75.32000 0.803
75.34000 1.585
75.36000 2.476
75.38000 3.155
75.40000 5.901
75.42000 5.329
75.44000 4.507
75.46000 4.719
75.48000 5.693
75.50000 1.943
75.52000 1.404
75.54000 1.601
75.56000 0.404
75.58000 -1.014
75.60000 1.297
75.62000 0.297
75.64000 2.555
75.66000 3.490
75.68000 4.217
75.70000 3.823
75.72000 2.379
75.74000 2.018
75.76000 3.671
75.78000 4.142
75.80000 0.562
75.82000 2.581
75.84000 4.151
75.86000 6.268
75.88000 4.548
75.90000 1.257
75.92000 3.738
75.94000 6.767
75.96000 5.469
75.98000 0.124
76.00000 2.196
76.02000 4.223
76.04000 3.113
76.06000 2.075
76.08000 0.781
76.10000 1.728
76.12000 -1.175
76.14000 -2.152
76.16000 0.776
76.18000 3.198
76.20000 4.459
76.22000 2.058
76.24000 1.163
76.26000 0.725
76.28000 1.674
76.30000 4.361
76.32000 4.976
76.34000 2.220
76.36000 1.340
76.38000 -0.976
76.40000 0.034
76.42000 -0.053
76.44000 0.344
76.46000 2.326
76.48000 2.481
76.50000 3.706
76.52000 3.138
76.54000 0.505
76.56000 2.627
76.58000 4.506
76.60000 3.294
76.62000 2.143
76.64000 2.532
76.66000 3.758
76.68000 5.679
76.70000 5.071
76.72000 0.382
76.74000 2.648
76.76000 1.452
76.78000 0.338
76.80000 0.943
76.82000 0.597
76.84000 4.803
76.86000 5.116
76.88000 1.211
76.90000 1.312
76.92000 3.574
76.94000 4.929
76.96000 2.744
76.98000 -1.158
77.00000 1.387
77.02000 4.474
77.04000 5.149
77.06000 1.252
77.08000 3.048
77.10000 3.030
77.12000 0.649
77.14000 5.110
77.16000 1.949
77.18000 1.295
77.20000 -0.301
77.22000 -2.168
77.24000 -1.402
77.26000 -1.906
77.28000 3.205
77.30000 2.475
77.32000 3.571
77.34000 4.494
77.36000 2.570
77.38000 6.325
77.40000 7.016
77.42000 5.059
77.44000 2.468
77.46000 4.794
77.48000 8.880
77.50000 8.874
77.52000 5.004
77.54000 4.063
77.56000 2.273
77.58000 -2.183
77.60000 -1.707
77.62000 3.960
77.64000 4.090
77.66000 2.083
77.68000 1.938
77.70000 4.609
77.72000 3.645
77.74000 1.785
77.76000 0.508
77.78000 1.831
77.80000 3.802
77.82000 2.070
77.84000 3.499
77.86000 3.180
77.88000 3.319
77.90000 -0.432
77.92000 -2.202
77.94000 3.688
77.96000 2.860
77.98000 3.058
78.00000 -0.276
78.02000 4.667
78.04000 7.521
78.06000 5.511
78.08000 1.167
78.10000 1.618
78.12000 2.969
78.14000 2.911
78.16000 1.618
78.18000 -0.493
78.20000 3.329
78.22000 5.558
78.24000 1.213
78.26000 -1.082
78.28000 -0.406
78.30000 2.610
78.32000 4.492
78.34000 2.838
78.36000 1.563
78.38000 -0.907
78.40000 1.487
78.42000 4.242
78.44000 1.169
78.46000 3.986
78.48000 3.996
78.50000 2.306
78.52000 1.230
78.54000 3.399
78.56000 2.634
78.58000 -0.335
78.60000 1.395
78.62000 -0.252
78.64000 1.879
78.66000 0.444
78.68000 1.963
78.70000 2.571
78.72000 3.100
78.74000 1.941
78.76000 1.688
78.78000 -0.693
78.80000 3.360
78.82000 1.751
78.84000 -1.875
78.86000 0.853
78.88000 1.674
78.90000 0.234
78.92000 -1.115
78.94000 -2.222
78.96000 -0.462
78.98000 3.278
79.00000 1.894
79.02000 -0.516
79.04000 -0.272
79.06000 1.677
79.08000 2.980
79.10000 1.983
79.12000 2.588
79.14000 4.624
79.16000 3.041
79.18000 3.158
79.20000 2.699
79.22000 -2.227
79.24000 -0.831
79.26000 -0.156
79.28000 4.113
79.30000 -1.132
79.32000 1.156
79.34000 2.559
79.36000 2.508
79.38000 0.575
79.40000 3.533
79.42000 7.170
79.44000 3.972
79.46000 -0.779
79.48000 2.157
79.50000 5.162
79.52000 4.476
79.54000 4.456
79.56000 3.916
79.58000 0.720
79.60000 5.362
79.62000 0.503
79.64000 0.651
79.66000 4.896
79.68000 6.572
79.70000 3.496
79.72000 0.488
79.74000 3.169
79.76000 0.417
79.78000 3.217
79.80000 5.614
79.82000 8.207
79.84000 7.137
79.86000 4.618
79.88000 2.724
79.90000 1.395
79.92000 4.015
79.94000 4.528
79.96000 1.457
79.98000 6.075
80.00000 6.777
80.02000 7.690
80.04000 9.726
80.06000 9.875
80.08000 12.035
80.10000 7.484
80.12000 -0.053
80.14000 -2.204
80.16000 0.197
80.18000 5.605
80.20000 4.117
80.22000 8.865
80.24000 7.610
80.26000 1.905
80.28000 2.840
80.30000 6.918
80.32000 8.231
80.34000 4.120
80.36000 4.669
80.38000 7.837
80.40000 1.604
80.42000 -0.365
80.44000 -0.829
80.46000 2.847
80.48000 5.734
80.50000 3.557
80.52000 5.317
80.54000 4.536
80.56000 0.964
80.58000 2.518
80.60000 -0.964
80.62000 -1.346
80.64000 2.839
80.66000 4.094
80.68000 2.153
80.70000 3.659
80.72000 2.699
80.74000 2.418
80.76000 6.200
80.78000 2.767
80.80000 7.027
80.82000 6.661
80.84000 1.878
80.86000 0.353
80.88000 2.659
80.90000 3.321
80.92000 0.651
80.94000 -1.374
80.96000 3.682
80.98000 4.319
81.00000 4.426
81.02000 4.929
81.04000 4.138
81.06000 5.517
81.08000 3.364
81.10000 1.650
81.12000 1.151
81.14000 2.880
81.16000 1.292
81.18000 3.068
81.20000 3.407
81.22000 1.314
81.24000 -0.809
81.26000 5.566
81.28000 5.061
81.30000 2.629
81.32000 2.446
81.34000 6.330
81.36000 7.072
81.38000 6.872
81.40000 5.351
81.42000 9.444
81.44000 6.105
81.46000 6.135
81.48000 9.204
81.50000 8.245
81.52000 12.509
81.54000 11.750
81.56000 10.391
81.58000 7.371
81.60000 6.685
81.62000 9.591
81.64000 8.968
81.66000 11.018
81.68000 11.991
81.70000 12.452
81.72000 9.529
81.74000 11.036
81.76000 13.377
81.78000 14.338
81.80000 11.865
81.82000 12.051
81.84000 13.505
81.86000 20.206
81.88000 18.598
81.90000 17.657
81.92000 16.026
81.94000 12.880
81.96000 18.836
81.98000 22.858
82.00000 22.277
82.02000 19.895
82.04000 21.755
82.06000 24.449
82.08000 23.445
82.10000 25.852
82.12000 24.625
82.14000 28.537
82.16000 30.109
82.18000 29.540
82.20000 33.093
82.22000 29.739
82.24000 30.569
82.26000 31.557
82.28000 27.997
82.30000 33.470
82.32000 34.231
82.34000 37.075
82.36000 41.757
82.38000 37.700
82.40000 32.973
82.42000 37.171
82.44000 30.870
82.46000 33.615
82.48000 38.483
82.50000 39.517
82.52000 36.161
82.54000 43.906
82.56000 42.852
82.58000 48.552
82.60000 53.191
82.62000 56.389
82.64000 50.279
82.66000 46.934
82.68000 50.214
82.70000 49.171
82.72000 45.922
82.74000 45.069
82.76000 46.243
82.78000 49.683
82.80000 49.048
82.82000 51.409
82.84000 53.298
82.86000 50.639
82.88000 50.859
82.90000 48.332
82.92000 48.730
82.94000 50.566
82.96000 50.000
82.98000 46.827
83.00000 51.766
83.02000 54.555
83.04000 47.666
83.06000 44.309
83.08000 43.136
83.10000 41.458
83.12000 41.670
83.14000 39.371
83.16000 39.700
83.18000 42.713
83.20000 46.114
83.22000 38.926
83.24000 32.160
83.26000 27.216
83.28000 28.459
83.30000 29.597
83.32000 31.112
83.34000 33.295
83.36000 31.504
83.38000 28.881
83.40000 30.129
83.42000 25.556
83.44000 22.248
83.46000 22.654
83.48000 24.319
83.50000 19.481
83.52000 20.953
83.54000 17.784
83.56000 18.608
83.58000 16.834
83.60000 17.618
83.62000 21.120
83.64000 17.400
83.66000 12.253
83.68000 11.015
83.70000 12.378
83.72000 14.956
83.74000 23.950
83.76000 18.259
83.78000 13.345
83.80000 12.056
83.82000 9.702
83.84000 10.132
83.86000 12.631
83.88000 11.624
83.90000 8.281
83.92000 6.620
83.94000 5.453
83.96000 7.938
83.98000 10.875
84.00000 8.776
84.02000 7.860
84.04000 2.595
84.06000 3.340
84.08000 11.180
84.10000 16.374
84.12000 9.427
84.14000 4.841
84.16000 7.365
84.18000 8.213
84.20000 4.301
84.22000 -0.707
84.24000 -2.351
84.26000 5.634
84.28000 8.032
84.30000 4.964
84.32000 6.108
84.34000 0.869
84.36000 3.432
84.38000 2.432
84.40000 5.376
84.42000 5.958
84.44000 2.712
84.46000 5.991
84.48000 6.467
84.50000 7.736
84.52000 3.065
84.54000 -2.316
84.56000 -1.564
84.58000 1.893
84.60000 3.134
84.62000 -0.013
84.64000 2.255
84.66000 2.925
84.68000 0.225
84.70000 2.101
84.72000 1.220
84.74000 1.157
84.76000 2.645
84.78000 3.075
84.80000 3.526
84.82000 1.020
84.84000 1.066
84.86000 4.781
84.88000 5.286
84.90000 4.518
84.92000 3.944
84.94000 2.035
84.96000 0.840
84.98000 1.854
85.00000 0.647
85.02000 -2.285
85.04000 -1.932
85.06000 1.107
85.08000 1.499
85.10000 1.636
85.12000 2.049
85.14000 2.915
85.16000 -1.687
85.18000 -0.720
85.20000 0.386
85.22000 -0.664
85.24000 1.940
85.26000 2.504
85.28000 3.521
85.30000 1.177
85.32000 1.318
85.34000 -0.301
85.36000 -2.261
85.38000 -0.193
85.40000 0.953
85.42000 1.043
85.44000 -0.683
85.46000 4.590
85.48000 4.634
85.50000 3.139
85.52000 5.316
85.54000 2.275
85.56000 2.412
85.58000 4.639
85.60000 2.715
85.62000 4.841
85.64000 5.215
85.66000 5.410
85.68000 0.228
85.70000 -0.107
85.72000 6.767
85.74000 5.119
85.76000 2.978
85.78000 0.717
85.80000 0.723
85.82000 0.081
85.84000 -0.458
85.86000 -0.546
85.88000 -2.300
85.90000 -0.083
85.92000 5.874
85.94000 4.202
85.96000 5.301
85.98000 6.230
86.00000 5.458
86.02000 4.209
86.04000 5.044
86.06000 6.709
86.08000 6.346
86.10000 0.708
86.12000 5.743
86.14000 3.256
86.16000 1.129
86.18000 1.610
86.20000 4.944
86.22000 8.246
86.24000 6.906
86.26000 5.324
86.28000 4.833
86.30000 6.785
86.32000 7.564
86.34000 8.664
86.36000 9.357
86.38000 10.016
86.40000 7.315
86.42000 11.133
86.44000 12.064
86.46000 13.276
86.48000 14.016
86.50000 12.980
86.52000 14.112
86.54000 16.413
86.56000 18.153
86.58000 16.007
86.60000 15.673
86.62000 17.692
86.64000 23.078
86.66000 19.822
86.68000 23.695
86.70000 29.557
86.72000 21.915
86.74000 21.071
86.76000 24.306
86.78000 23.809
86.80000 21.711
86.82000 23.055
86.84000 27.797
86.86000 23.842
86.88000 29.177
86.90000 30.325
86.92000 28.323
86.94000 30.996
86.96000 27.192
86.98000 22.667
87.00000 25.811
87.02000 26.580
87.04000 27.545
87.06000 27.356
87.08000 30.089
87.10000 28.867
87.12000 27.709
87.14000 29.542
87.16000 29.516
87.18000 32.153
87.20000 30.335
87.22000 25.530
87.24000 26.216
87.26000 26.195
87.28000 26.264
87.30000 23.959
87.32000 23.477
87.34000 27.815
87.36000 31.539
87.38000 26.662
87.40000 26.740
87.42000 24.169
87.44000 25.016
87.46000 26.269
87.48000 21.880
87.50000 21.136
87.52000 19.188
87.54000 18.085
87.56000 17.091
87.58000 16.341
87.60000 17.220
87.62000 20.068
87.64000 20.326
87.66000 16.411
87.68000 16.578
87.70000 16.967
87.72000 17.936
87.74000 17.642
87.76000 13.275
87.78000 9.580
87.80000 8.483
87.82000 11.538
87.84000 14.305
87.86000 15.209
87.88000 12.845
87.90000 13.926
87.92000 13.237
87.94000 7.714
87.96000 9.254
87.98000 4.546
88.00000 7.544
88.02000 8.956
88.04000 9.598
88.06000 10.958
88.08000 6.186
88.10000 4.918
88.12000 5.142
88.14000 6.127
88.16000 11.537
88.18000 5.374
88.20000 2.863
88.22000 7.249
88.24000 5.138
88.26000 -1.029
88.28000 -0.608
88.30000 -0.980
88.32000 1.328
88.34000 3.405
88.36000 4.180
88.38000 2.906
88.40000 3.807
88.42000 3.305
88.44000 1.300
88.46000 -0.481
88.48000 -0.580
88.50000 1.402
88.52000 4.895
88.54000 3.335
88.56000 1.649
88.58000 -1.746
88.60000 1.248
88.62000 1.641
88.64000 0.559
88.66000 0.360
88.68000 3.387
88.70000 1.758
88.72000 -1.149
88.74000 -0.581
88.76000 1.159
88.78000 0.968
88.80000 1.962
88.82000 3.561
88.84000 -2.158
88.86000 3.373
88.88000 2.342
88.90000 1.062
88.92000 4.412
88.94000 2.928
88.96000 1.958
88.98000 1.433
89.00000 0.350
89.02000 1.270
89.04000 1.370
89.06000 1.647
89.08000 3.158
89.10000 5.998
89.12000 0.309
89.14000 -2.127
89.16000 0.553
89.18000 0.221
89.20000 2.419
89.22000 2.831
89.24000 3.363
89.26000 6.408
89.28000 2.822
89.30000 4.441
89.32000 3.499
89.34000 -0.778
89.36000 -0.805
89.38000 -1.432
89.40000 0.118
89.42000 1.890
89.44000 3.165
89.46000 0.302
89.48000 0.289
89.50000 1.656
89.52000 2.500
89.54000 0.579
89.56000 2.059
89.58000 -1.478
89.60000 -0.463
89.62000 3.485
89.64000 5.660
89.66000 3.843
89.68000 1.909
89.70000 2.363
89.72000 4.453
89.74000 5.571
89.76000 7.598
89.78000 7.851
89.80000 4.463
89.82000 -2.036
89.84000 -1.930
89.86000 3.052
89.88000 5.363
89.90000 6.509
89.92000 3.353
89.94000 1.986
89.96000 2.728
89.98000 3.316
90.00000 3.880
90.02000 3.238
90.04000 2.937
90.06000 3.946
90.08000 2.353
90.10000 0.122
90.12000 6.484
90.14000 6.907
90.16000 3.828
90.18000 0.019
90.20000 5.317
90.22000 2.271
90.24000 3.735
90.26000 3.191
90.28000 2.382
90.30000 0.622
90.32000 1.462
90.34000 1.529
90.36000 3.776
90.38000 2.071
90.40000 8.971
90.42000 5.542
90.44000 6.722
90.46000 2.528
90.48000 -2.032
90.50000 0.213
90.52000 3.464
90.54000 2.428
90.56000 3.332
90.58000 7.719
90.60000 6.511
90.62000 7.169
90.64000 3.009
90.66000 3.540
90.68000 2.243
90.70000 1.794
90.72000 5.112
90.74000 5.999
90.76000 5.618
90.78000 7.311
90.80000 4.499
90.82000 2.811
90.84000 4.519
90.86000 1.132
90.88000 -1.943
90.90000 -1.160
90.92000 0.572
90.94000 2.570
90.96000 2.573
90.98000 4.073
91.00000 3.205
91.02000 0.881
91.04000 -0.791
91.06000 0.753
91.08000 1.878
91.10000 -0.512
91.12000 2.426
91.14000 5.758
91.16000 5.729
91.18000 5.144
91.20000 3.904
91.22000 2.830
91.24000 1.989
91.26000 -2.061
91.28000 1.005
91.30000 3.800
91.32000 4.950
91.34000 5.289
91.36000 2.700
91.38000 1.432
91.40000 -1.106
91.42000 -1.972
91.44000 -2.060
91.46000 2.370
91.48000 1.483
91.50000 4.481
91.52000 2.778
91.54000 2.450
91.56000 0.511
91.58000 -1.135
91.60000 1.946
91.62000 4.420
91.64000 5.835
91.66000 3.751
91.68000 4.882
91.70000 2.902
91.72000 0.669
91.74000 5.307
91.76000 5.452
91.78000 1.058
91.80000 -0.767
91.82000 -1.333
91.84000 3.303
91.86000 2.200
91.88000 2.586
91.90000 1.531
91.92000 1.520
91.94000 0.951
91.96000 0.754
91.98000 2.623
92.00000 3.864
92.02000 2.780
92.04000 1.987
92.06000 3.712
92.08000 3.720
92.10000 2.887
92.12000 3.368
92.14000 -0.137
92.16000 1.176
92.18000 -2.052
92.20000 0.282
92.22000 2.143
92.24000 0.631
92.26000 2.316
92.28000 2.757
92.30000 -2.058
92.32000 2.384
92.34000 5.391
92.36000 4.240
92.38000 2.981
92.40000 5.776
92.42000 4.253
92.44000 3.983
92.46000 3.291
92.48000 2.239
92.50000 1.052
92.52000 2.180
92.54000 0.332
92.56000 1.134
92.58000 5.280
92.60000 4.740
92.62000 4.241
92.64000 2.453
92.66000 3.643
92.68000 1.370
92.70000 -2.068
92.72000 -0.912
92.74000 -1.625
92.76000 -1.421
92.78000 2.746
92.80000 5.816
92.82000 2.337
92.84000 2.580
92.86000 3.522
92.88000 1.185
92.90000 0.915
92.92000 2.349
92.94000 3.911
92.96000 4.683
92.98000 0.006
93.00000 1.118
93.02000 3.729
93.04000 1.346
93.06000 0.309
93.08000 4.317
93.10000 2.418
93.12000 -0.103
93.14000 -0.258
93.16000 1.306
93.18000 4.177
93.20000 4.686
93.22000 1.499
93.24000 4.082
93.26000 3.826
93.28000 -0.086
93.30000 0.844
93.32000 5.464
93.34000 7.967
93.36000 5.279
93.38000 1.349
93.40000 4.348
93.42000 6.585
93.44000 5.097
93.46000 4.380
93.48000 1.388
93.50000 -0.579
93.52000 3.555
93.54000 2.358
93.56000 3.734
93.58000 -0.390
93.60000 0.621
93.62000 0.719
93.64000 2.917
93.66000 1.488
93.68000 1.197
93.70000 4.445
93.72000 3.589
93.74000 3.500
93.76000 3.770
93.78000 1.379
93.80000 4.123
93.82000 5.552
93.84000 -0.210
93.86000 5.342
93.88000 5.503
93.90000 2.101
93.92000 -2.026
93.94000 2.723
93.96000 7.821
93.98000 5.073
94.00000 0.462
94.02000 0.536
94.04000 1.707
94.06000 2.834
94.08000 5.588
94.10000 2.447
94.12000 -0.845
94.14000 5.983
94.16000 10.497
94.18000 10.199
94.20000 5.137
94.22000 5.238
94.24000 2.894
94.26000 -0.435
94.28000 -0.012
94.30000 3.591
94.32000 5.332
94.34000 5.306
94.36000 2.076
94.38000 4.541
94.40000 1.883
94.42000 4.804
94.44000 5.502
94.46000 2.717
94.48000 4.396
94.50000 0.814
94.52000 1.795
94.54000 2.538
94.56000 6.097
94.58000 5.036
94.60000 4.485
94.62000 2.730
94.64000 4.311
94.66000 5.344
94.68000 7.185
94.70000 3.936
94.72000 2.670
94.74000 3.276
94.76000 2.340
94.78000 2.102
94.80000 0.045
94.82000 1.077
94.84000 2.223
94.86000 4.259
94.88000 3.452
94.90000 6.306
94.92000 5.324
94.94000 5.150
94.96000 4.015
94.98000 3.995
95.00000 0.368
95.02000 3.368
95.04000 2.140
95.06000 4.329
95.08000 6.707
95.10000 4.623
95.12000 5.180
95.14000 2.718
95.16000 0.971
95.18000 1.373
95.20000 2.947
95.22000 4.855
95.24000 0.413
95.26000 7.439
95.28000 8.050
95.30000 5.669
95.32000 3.742
95.34000 3.826
95.36000 3.808
95.38000 6.483
95.40000 5.484
95.42000 3.719
95.44000 1.387
95.46000 -1.048
95.48000 0.267
95.50000 1.388
95.52000 3.162
95.54000 4.952
95.56000 7.250
95.58000 4.545
95.60000 2.756
95.62000 7.425
95.64000 7.377
95.66000 8.343
95.68000 12.096
95.70000 4.398
95.72000 7.241
95.74000 6.125
95.76000 6.000
95.78000 6.423
95.80000 4.714
95.82000 3.802
95.84000 5.218
95.86000 -2.010
95.88000 1.870
95.90000 6.459
95.92000 8.626
95.94000 7.122
95.96000 8.805
95.98000 10.320
96.00000 9.882
96.02000 7.825
96.04000 6.006
96.06000 6.173
96.08000 8.046
96.10000 3.713
96.12000 5.585
96.14000 6.167
96.16000 4.674
96.18000 4.543
96.20000 4.143
96.22000 3.974
96.24000 7.292
96.26000 10.250
96.28000 7.629
96.30000 3.488
96.32000 3.507
96.34000 3.123
96.36000 8.651
96.38000 5.785
96.40000 3.624
96.42000 6.194
96.44000 6.990
96.46000 6.371
96.48000 3.421
96.50000 3.260
96.52000 5.463
96.54000 5.238
96.56000 8.424
96.58000 8.217
96.60000 10.035
96.62000 4.754
96.64000 6.980
96.66000 5.274
96.68000 4.953
96.70000 4.396
96.72000 -1.979
96.74000 1.204
96.76000 5.274
96.78000 8.684
96.80000 9.935
96.82000 11.918
96.84000 8.524
96.86000 7.330
96.88000 7.882
96.90000 6.899
96.92000 6.956
96.94000 7.542
96.96000 5.068
96.98000 3.686
97.00000 8.570
97.02000 9.161
97.04000 7.717
97.06000 8.709
97.08000 6.926
97.10000 1.350
97.12000 -1.967
97.14000 1.879
97.16000 8.180
97.18000 8.407
97.20000 7.243
97.22000 3.365
97.24000 6.260
97.26000 5.210
97.28000 6.872
97.30000 4.457
97.32000 4.525
97.34000 6.322
97.36000 10.732
97.38000 9.781
97.40000 10.368
97.42000 15.120
97.44000 14.371
97.46000 6.802
97.48000 -1.464
97.50000 5.671
97.52000 10.104
97.54000 10.457
97.56000 6.762
97.58000 13.375
97.60000 8.355
97.62000 3.836
97.64000 7.191
97.66000 5.529
97.68000 6.552
97.70000 4.096
97.72000 7.017
97.74000 8.372
97.76000 7.032
97.78000 8.029
97.80000 7.114
97.82000 4.276
97.84000 6.325
97.86000 7.363
97.88000 10.362
97.90000 9.082
97.92000 5.630
97.94000 10.265
97.96000 9.236
97.98000 10.970
98.00000 10.048
98.02000 11.169
98.04000 5.755
98.06000 1.327
98.08000 2.697
98.10000 5.187
98.12000 0.191
98.14000 7.001
98.16000 12.122
98.18000 12.956
98.20000 12.112
98.22000 9.461
98.24000 2.101
98.26000 2.381
98.28000 2.457
98.30000 8.091
98.32000 6.368
98.34000 7.273
98.36000 4.812
98.38000 -0.311
98.40000 1.972
98.42000 -2.580
98.44000 7.888
98.46000 9.240
98.48000 5.824
98.50000 14.693
98.52000 13.768
98.54000 5.435
98.56000 6.378
98.58000 4.242
98.60000 7.285
98.62000 5.234
98.64000 4.886
98.66000 2.767
98.68000 9.729
98.70000 12.936
98.72000 9.882
98.74000 14.284
98.76000 7.539
98.78000 11.400
98.80000 11.964
98.82000 9.008
98.84000 5.754
98.86000 5.385
98.88000 3.474
98.90000 5.373
98.92000 7.125
98.94000 8.294
98.96000 5.433
98.98000 2.080
99.00000 9.863
99.02000 11.899
99.04000 11.255
99.06000 10.370
99.08000 9.340
99.10000 12.944
99.12000 7.064
99.14000 4.600
99.16000 2.423
99.18000 8.353
99.20000 8.121
99.22000 0.614
99.24000 9.753
99.26000 6.450
99.28000 2.761
99.30000 4.917
99.32000 -2.431
99.34000 4.848
99.36000 7.425
99.38000 6.863
99.40000 5.433
99.42000 5.293
99.44000 9.011
99.46000 5.379
99.48000 6.558
99.50000 5.074
99.52000 0.102
99.54000 2.911
99.56000 1.901
99.58000 15.677
99.60000 11.448
99.62000 4.053
99.64000 -2.214
99.66000 6.317
99.68000 6.627
99.70000 5.719
99.72000 -0.225
99.74000 -2.011
99.76000 2.118
99.78000 0.482
99.80000 5.008
99.82000 2.407
99.84000 -1.343
99.86000 -2.128
99.88000 -2.111
99.90000 4.954
99.92000 0.162
99.94000 -2.203
99.96000 -2.259
99.98000 0.000
