'Id: "0011387" Comment: "Integrate frame 0011387_Au-Ir-Rh_Rh-rich_XRD-Mapping-309-0000.gfrmwith cursor Wedge Cursor #5" Operator: "B?rgel" Anode: "Cu" Wavelength: "1.5406" Scantype: "2Theta (TwoTheta)" TimePerStep: "1" X: "27" Y: "31.5" Z: "5.95" 
10.00000 0.000
10.02000 0.816
10.04000 15.767
10.06000 22.053
10.08000 19.283
10.10000 17.364
10.12000 22.794
10.14000 26.185
10.16000 16.771
10.18000 11.122
10.20000 12.898
10.22000 15.015
10.24000 21.815
10.26000 24.996
10.28000 18.972
10.30000 26.086
10.32000 25.108
10.34000 22.222
10.36000 41.396
10.38000 36.835
10.40000 22.194
10.42000 18.251
10.44000 8.599
10.46000 24.704
10.48000 17.638
10.50000 17.587
10.52000 13.250
10.54000 -0.075
10.56000 6.180
10.58000 23.291
10.60000 24.517
10.62000 25.038
10.64000 21.484
10.66000 25.304
10.68000 24.935
10.70000 18.241
10.72000 5.924
10.74000 16.535
10.76000 27.711
10.78000 38.033
10.80000 35.871
10.82000 25.838
10.84000 23.238
10.86000 13.028
10.88000 15.144
10.90000 18.432
10.92000 17.403
10.94000 27.884
10.96000 18.734
10.98000 13.127
11.00000 27.100
11.02000 31.936
11.04000 26.278
11.06000 25.854
11.08000 24.357
11.10000 19.155
11.12000 12.688
11.14000 17.105
11.16000 21.301
11.18000 11.654
11.20000 17.389
11.22000 18.375
11.24000 33.212
11.26000 34.132
11.28000 23.646
11.30000 38.624
11.32000 33.545
11.34000 18.919
11.36000 24.434
11.38000 22.683
11.40000 18.245
11.42000 28.152
11.44000 13.427
11.46000 14.217
11.48000 33.789
11.50000 32.792
11.52000 23.482
11.54000 22.444
11.56000 24.831
11.58000 27.318
11.60000 33.383
11.62000 37.801
11.64000 34.508
11.66000 35.123
11.68000 26.897
11.70000 31.023
11.72000 28.169
11.74000 22.176
11.76000 19.820
11.78000 25.114
11.80000 21.271
11.82000 23.902
11.84000 25.781
11.86000 29.013
11.88000 25.596
11.90000 27.880
11.92000 26.469
11.94000 28.338
11.96000 25.358
11.98000 32.283
12.00000 29.456
12.02000 37.516
12.04000 36.556
12.06000 33.514
12.08000 26.302
12.10000 27.983
12.12000 30.384
12.14000 21.771
12.16000 21.295
12.18000 27.060
12.20000 23.535
12.22000 22.438
12.24000 27.246
12.26000 30.211
12.28000 27.644
12.30000 29.626
12.32000 28.286
12.34000 29.400
12.36000 26.489
12.38000 31.976
12.40000 31.046
12.42000 38.158
12.44000 37.195
12.46000 31.317
12.48000 27.462
12.50000 28.063
12.52000 33.334
12.54000 29.247
12.56000 38.517
12.58000 29.973
12.60000 25.123
12.62000 17.563
12.64000 29.198
12.66000 34.982
12.68000 28.796
12.70000 25.681
12.72000 25.457
12.74000 35.825
12.76000 34.924
12.78000 36.603
12.80000 29.340
12.82000 26.284
12.84000 25.434
12.86000 34.428
12.88000 40.079
12.90000 31.870
12.92000 18.773
12.94000 25.413
12.96000 29.514
12.98000 32.383
13.00000 31.019
13.02000 25.703
13.04000 27.498
13.06000 23.387
13.08000 28.282
13.10000 30.805
13.12000 24.003
13.14000 28.642
13.16000 40.216
13.18000 44.031
13.20000 29.887
13.22000 30.464
13.24000 31.594
13.26000 27.950
13.28000 23.716
13.30000 27.985
13.32000 19.732
13.34000 18.815
13.36000 23.063
13.38000 24.123
13.40000 21.979
13.42000 18.005
13.44000 22.175
13.46000 16.914
13.48000 25.775
13.50000 33.353
13.52000 30.647
13.54000 25.798
13.56000 15.482
13.58000 19.718
13.60000 22.517
13.62000 25.264
13.64000 25.679
13.66000 25.160
13.68000 25.084
13.70000 17.808
13.72000 30.502
13.74000 31.977
13.76000 28.989
13.78000 27.656
13.80000 27.566
13.82000 23.774
13.84000 19.737
13.86000 16.315
13.88000 18.314
13.90000 22.260
13.92000 31.405
13.94000 29.032
13.96000 17.121
13.98000 17.417
14.00000 21.258
14.02000 13.028
14.04000 20.370
14.06000 16.498
14.08000 18.786
14.10000 20.245
14.12000 19.274
14.14000 19.480
14.16000 21.641
14.18000 22.604
14.20000 27.074
14.22000 23.578
14.24000 15.151
14.26000 13.411
14.28000 29.286
14.30000 32.650
14.32000 24.458
14.34000 20.037
14.36000 14.673
14.38000 18.016
14.40000 15.446
14.42000 18.923
14.44000 17.243
14.46000 17.335
14.48000 18.526
14.50000 12.974
14.52000 8.165
14.54000 10.353
14.56000 14.936
14.58000 17.353
14.60000 21.035
14.62000 16.377
14.64000 13.961
14.66000 15.992
14.68000 22.731
14.70000 16.392
14.72000 14.914
14.74000 18.926
14.76000 19.461
14.78000 15.270
14.80000 17.542
14.82000 14.054
14.84000 16.876
14.86000 16.090
14.88000 17.726
14.90000 12.362
14.92000 21.786
14.94000 12.809
14.96000 8.217
14.98000 8.083
15.00000 5.466
15.02000 10.320
15.04000 18.756
15.06000 15.927
15.08000 18.345
15.10000 21.662
15.12000 13.206
15.14000 16.600
15.16000 13.592
15.18000 20.453
15.20000 17.921
15.22000 12.908
15.24000 5.446
15.26000 6.992
15.28000 13.867
15.30000 23.282
15.32000 12.420
15.34000 6.444
15.36000 7.564
15.38000 17.032
15.40000 -0.940
15.42000 -3.510
15.44000 10.003
15.46000 12.709
15.48000 12.666
15.50000 10.570
15.52000 6.479
15.54000 11.617
15.56000 13.511
15.58000 9.568
15.60000 13.796
15.62000 20.853
15.64000 12.366
15.66000 14.662
15.68000 15.963
15.70000 16.198
15.72000 18.740
15.74000 13.602
15.76000 12.038
15.78000 10.834
15.80000 9.483
15.82000 8.564
15.84000 2.685
15.86000 -4.430
15.88000 1.531
15.90000 2.453
15.92000 9.718
15.94000 8.842
15.96000 12.429
15.98000 17.885
16.00000 11.898
16.02000 14.276
16.04000 14.791
16.06000 7.698
16.08000 8.215
16.10000 6.004
16.12000 15.529
16.14000 17.261
16.16000 8.354
16.18000 15.354
16.20000 7.591
16.22000 2.322
16.24000 7.569
16.26000 14.421
16.28000 7.828
16.30000 5.007
16.32000 6.519
16.34000 8.698
16.36000 17.568
16.38000 11.848
16.40000 6.337
16.42000 1.161
16.44000 5.432
16.46000 11.537
16.48000 4.726
16.50000 3.151
16.52000 6.761
16.54000 -2.119
16.56000 -2.271
16.58000 6.318
16.60000 11.919
16.62000 16.363
16.64000 13.824
16.66000 10.248
16.68000 16.927
16.70000 17.932
16.72000 13.381
16.74000 5.630
16.76000 6.003
16.78000 10.784
16.80000 9.261
16.82000 8.702
16.84000 11.394
16.86000 8.021
16.88000 6.304
16.90000 3.649
16.92000 -0.680
16.94000 8.853
16.96000 0.529
16.98000 -4.373
17.00000 13.157
17.02000 15.360
17.04000 11.249
17.06000 12.180
17.08000 11.291
17.10000 -0.628
17.12000 1.418
17.14000 8.518
17.16000 13.167
17.18000 16.563
17.20000 13.925
17.22000 11.572
17.24000 14.854
17.26000 10.853
17.28000 5.625
17.30000 2.818
17.32000 -0.893
17.34000 8.767
17.36000 10.198
17.38000 8.121
17.40000 11.782
17.42000 12.809
17.44000 12.892
17.46000 14.048
17.48000 15.116
17.50000 9.678
17.52000 13.375
17.54000 14.095
17.56000 5.843
17.58000 4.825
17.60000 14.853
17.62000 21.487
17.64000 15.941
17.66000 7.610
17.68000 3.659
17.70000 4.296
17.72000 12.498
17.74000 8.837
17.76000 -3.191
17.78000 4.359
17.80000 0.913
17.82000 -3.685
17.84000 -0.131
17.86000 5.888
17.88000 11.450
17.90000 10.319
17.92000 5.217
17.94000 7.177
17.96000 16.036
17.98000 13.128
18.00000 6.232
18.02000 1.157
18.04000 -4.351
18.06000 2.479
18.08000 6.076
18.10000 10.137
18.12000 7.634
18.14000 11.314
18.16000 6.563
18.18000 10.257
18.20000 8.810
18.22000 9.692
18.24000 6.071
18.26000 7.329
18.28000 4.410
18.30000 5.982
18.32000 8.965
18.34000 7.767
18.36000 1.259
18.38000 -1.285
18.40000 10.344
18.42000 4.768
18.44000 -2.460
18.46000 5.384
18.48000 7.174
18.50000 10.888
18.52000 5.648
18.54000 4.148
18.56000 7.724
18.58000 11.807
18.60000 5.119
18.62000 5.709
18.64000 9.845
18.66000 10.178
18.68000 3.733
18.70000 1.813
18.72000 14.830
18.74000 7.514
18.76000 1.157
18.78000 8.340
18.80000 6.792
18.82000 0.213
18.84000 -4.229
18.86000 4.574
18.88000 4.823
18.90000 7.468
18.92000 2.926
18.94000 5.953
18.96000 9.047
18.98000 10.473
19.00000 11.241
19.02000 7.938
19.04000 8.373
19.06000 5.406
19.08000 4.294
19.10000 0.879
19.12000 2.565
19.14000 6.146
19.16000 5.819
19.18000 0.284
19.20000 4.233
19.22000 5.296
19.24000 0.799
19.26000 4.920
19.28000 13.708
19.30000 13.988
19.32000 13.033
19.34000 6.487
19.36000 7.923
19.38000 8.155
19.40000 6.540
19.42000 9.063
19.44000 1.857
19.46000 5.310
19.48000 -1.789
19.50000 1.937
19.52000 5.184
19.54000 8.453
19.56000 5.206
19.58000 1.353
19.60000 0.040
19.62000 -2.560
19.64000 -0.401
19.66000 5.538
19.68000 10.209
19.70000 10.246
19.72000 4.454
19.74000 3.490
19.76000 6.725
19.78000 13.844
19.80000 16.907
19.82000 14.210
19.84000 12.421
19.86000 7.293
19.88000 0.190
19.90000 3.421
19.92000 7.247
19.94000 5.114
19.96000 -1.626
19.98000 -1.578
20.00000 -4.230
20.02000 0.427
20.04000 1.676
20.06000 4.502
20.08000 7.724
20.10000 8.374
20.12000 4.768
20.14000 6.792
20.16000 9.675
20.18000 15.498
20.20000 8.712
20.22000 -0.767
20.24000 1.015
20.26000 3.119
20.28000 2.356
20.30000 8.224
20.32000 7.635
20.34000 10.958
20.36000 8.253
20.38000 8.320
20.40000 1.150
20.42000 6.450
20.44000 11.962
20.46000 12.555
20.48000 5.400
20.50000 -1.432
20.52000 5.769
20.54000 7.467
20.56000 8.348
20.58000 6.253
20.60000 2.479
20.62000 8.061
20.64000 11.010
20.66000 7.020
20.68000 2.785
20.70000 0.247
20.72000 3.934
20.74000 4.129
20.76000 5.288
20.78000 4.630
20.80000 2.468
20.82000 0.145
20.84000 -0.605
20.86000 0.636
20.88000 1.197
20.90000 9.045
20.92000 9.112
20.94000 9.825
20.96000 8.006
20.98000 8.986
21.00000 10.325
21.02000 7.880
21.04000 4.724
21.06000 7.129
21.08000 7.535
21.10000 2.551
21.12000 -4.186
21.14000 4.349
21.16000 6.945
21.18000 16.396
21.20000 16.345
21.22000 14.016
21.24000 13.312
21.26000 4.058
21.28000 -2.049
21.30000 2.276
21.32000 1.366
21.34000 4.798
21.36000 3.153
21.38000 1.462
21.40000 8.209
21.42000 7.081
21.44000 -2.939
21.46000 0.226
21.48000 7.332
21.50000 6.825
21.52000 4.738
21.54000 9.906
21.56000 3.661
21.58000 0.727
21.60000 -1.088
21.62000 5.436
21.64000 7.316
21.66000 4.369
21.68000 5.497
21.70000 8.550
21.72000 10.573
21.74000 10.745
21.76000 5.926
21.78000 10.817
21.80000 5.000
21.82000 5.899
21.84000 4.938
21.86000 5.905
21.88000 8.372
21.90000 0.901
21.92000 0.873
21.94000 6.376
21.96000 5.319
21.98000 -0.369
22.00000 -1.153
22.02000 -2.949
22.04000 -0.909
22.06000 -0.304
22.08000 13.110
22.10000 12.282
22.12000 6.512
22.14000 4.075
22.16000 7.427
22.18000 8.985
22.20000 0.333
22.22000 -3.556
22.24000 -4.129
22.26000 2.876
22.28000 7.103
22.30000 3.120
22.32000 5.157
22.34000 6.166
22.36000 5.373
22.38000 1.351
22.40000 5.228
22.42000 2.970
22.44000 -1.031
22.46000 -2.208
22.48000 6.548
22.50000 8.327
22.52000 13.706
22.54000 16.872
22.56000 16.697
22.58000 12.576
22.60000 3.509
22.62000 10.484
22.64000 7.314
22.66000 3.589
22.68000 -1.554
22.70000 1.774
22.72000 -1.256
22.74000 0.871
22.76000 2.363
22.78000 1.160
22.80000 -4.120
22.82000 0.966
22.84000 5.758
22.86000 1.393
22.88000 0.980
22.90000 4.180
22.92000 3.688
22.94000 3.292
22.96000 0.089
22.98000 3.521
23.00000 8.779
23.02000 -0.733
23.04000 2.849
23.06000 1.868
23.08000 3.402
23.10000 4.702
23.12000 4.362
23.14000 2.160
23.16000 7.970
23.18000 6.012
23.20000 5.932
23.22000 5.738
23.24000 10.382
23.26000 7.255
23.28000 3.968
23.30000 0.786
23.32000 2.691
23.34000 0.714
23.36000 5.397
23.38000 2.942
23.40000 9.006
23.42000 7.296
23.44000 2.719
23.46000 1.664
23.48000 2.014
23.50000 1.577
23.52000 5.056
23.54000 2.034
23.56000 6.437
23.58000 8.511
23.60000 7.326
23.62000 2.986
23.64000 2.471
23.66000 -1.432
23.68000 -0.293
23.70000 1.138
23.72000 -0.768
23.74000 2.727
23.76000 3.644
23.78000 3.407
23.80000 0.838
23.82000 -1.223
23.84000 -2.491
23.86000 0.345
23.88000 2.616
23.90000 5.457
23.92000 5.048
23.94000 -3.233
23.96000 -1.258
23.98000 5.000
24.00000 4.112
24.02000 -3.135
24.04000 -3.731
24.06000 -2.004
24.08000 -2.043
24.10000 -2.265
24.12000 -1.640
24.14000 -4.045
24.16000 -0.463
24.18000 4.534
24.20000 2.482
24.22000 5.045
24.24000 4.737
24.26000 11.629
24.28000 3.765
24.30000 -0.864
24.32000 2.450
24.34000 -3.546
24.36000 -2.154
24.38000 5.395
24.40000 2.379
24.42000 3.367
24.44000 0.574
24.46000 0.907
24.48000 0.606
24.50000 6.483
24.52000 0.772
24.54000 -1.535
24.56000 -0.289
24.58000 6.049
24.60000 8.442
24.62000 7.165
24.64000 -0.024
24.66000 0.682
24.68000 0.245
24.70000 0.711
24.72000 -2.042
24.74000 -1.594
24.76000 6.379
24.78000 4.141
24.80000 6.210
24.82000 7.463
24.84000 3.765
24.86000 4.269
24.88000 8.446
24.90000 2.101
24.92000 -2.360
24.94000 -0.914
24.96000 -3.974
24.98000 -2.577
25.00000 6.403
25.02000 6.703
25.04000 -1.563
25.06000 1.276
25.08000 11.640
25.10000 6.995
25.12000 0.654
25.14000 1.330
25.16000 4.042
25.18000 3.929
25.20000 7.569
25.22000 9.378
25.24000 3.943
25.26000 1.617
25.28000 2.364
25.30000 4.886
25.32000 6.671
25.34000 6.042
25.36000 3.233
25.38000 0.369
25.40000 2.382
25.42000 7.265
25.44000 5.564
25.46000 4.479
25.48000 7.722
25.50000 0.968
25.52000 -1.304
25.54000 0.581
25.56000 8.256
25.58000 8.650
25.60000 8.199
25.62000 4.771
25.64000 1.521
25.66000 2.840
25.68000 5.175
25.70000 11.357
25.72000 7.062
25.74000 1.109
25.76000 0.347
25.78000 -3.936
25.80000 3.265
25.82000 -0.170
25.84000 -1.194
25.86000 2.752
25.88000 8.154
25.90000 8.896
25.92000 3.301
25.94000 1.875
25.96000 0.998
25.98000 3.179
26.00000 4.687
26.02000 5.003
26.04000 7.783
26.06000 1.889
26.08000 1.134
26.10000 8.633
26.12000 4.224
26.14000 3.256
26.16000 4.977
26.18000 9.478
26.20000 3.940
26.22000 1.056
26.24000 1.038
26.26000 5.892
26.28000 12.265
26.30000 5.501
26.32000 3.395
26.34000 5.999
26.36000 3.540
26.38000 6.717
26.40000 -1.328
26.42000 4.091
26.44000 4.629
26.46000 4.738
26.48000 7.740
26.50000 3.182
26.52000 4.583
26.54000 7.250
26.56000 6.304
26.58000 3.638
26.60000 0.826
26.62000 1.413
26.64000 2.246
26.66000 1.217
26.68000 4.116
26.70000 4.423
26.72000 7.451
26.74000 6.833
26.76000 5.034
26.78000 5.876
26.80000 5.974
26.82000 8.417
26.84000 6.180
26.86000 -0.269
26.88000 1.013
26.90000 2.245
26.92000 2.465
26.94000 -3.852
26.96000 1.080
26.98000 5.326
27.00000 5.491
27.02000 5.245
27.04000 2.710
27.06000 1.669
27.08000 -0.014
27.10000 5.646
27.12000 1.190
27.14000 0.659
27.16000 5.755
27.18000 6.950
27.20000 5.948
27.22000 6.768
27.24000 4.289
27.26000 3.532
27.28000 -0.120
27.30000 3.190
27.32000 4.435
27.34000 9.410
27.36000 2.574
27.38000 0.670
27.40000 0.362
27.42000 0.820
27.44000 3.615
27.46000 4.172
27.48000 3.861
27.50000 0.246
27.52000 -0.428
27.54000 0.080
27.56000 5.180
27.58000 3.497
27.60000 4.032
27.62000 2.437
27.64000 2.115
27.66000 9.416
27.68000 9.988
27.70000 4.183
27.72000 0.619
27.74000 2.523
27.76000 5.475
27.78000 8.401
27.80000 12.088
27.82000 11.188
27.84000 10.439
27.86000 6.203
27.88000 6.320
27.90000 3.425
27.92000 0.181
27.94000 -3.551
27.96000 0.359
27.98000 5.980
28.00000 14.346
28.02000 16.365
28.04000 1.251
28.06000 -3.800
28.08000 -1.016
28.10000 3.308
28.12000 3.019
28.14000 2.812
28.16000 2.968
28.18000 -0.624
28.20000 -0.543
28.22000 3.651
28.24000 6.107
28.26000 3.634
28.28000 8.898
28.30000 6.314
28.32000 5.620
28.34000 4.849
28.36000 1.753
28.38000 1.988
28.40000 1.107
28.42000 -0.022
28.44000 -1.013
28.46000 2.447
28.48000 3.283
28.50000 2.716
28.52000 4.426
28.54000 9.025
28.56000 7.875
28.58000 3.159
28.60000 -0.391
28.62000 3.414
28.64000 5.289
28.66000 6.104
28.68000 3.768
28.70000 -0.200
28.72000 5.082
28.74000 5.404
28.76000 6.603
28.78000 0.185
28.80000 -1.825
28.82000 1.331
28.84000 6.045
28.86000 7.562
28.88000 4.722
28.90000 4.075
28.92000 5.049
28.94000 2.302
28.96000 4.150
28.98000 3.089
29.00000 2.635
29.02000 -1.110
29.04000 -3.695
29.06000 -1.961
29.08000 -0.516
29.10000 5.486
29.12000 6.847
29.14000 1.316
29.16000 0.676
29.18000 2.021
29.20000 4.598
29.22000 5.715
29.24000 2.794
29.26000 4.630
29.28000 4.692
29.30000 1.611
29.32000 1.241
29.34000 5.357
29.36000 1.883
29.38000 0.448
29.40000 -1.698
29.42000 0.413
29.44000 1.836
29.46000 4.078
29.48000 6.643
29.50000 2.865
29.52000 0.987
29.54000 -0.709
29.56000 -2.542
29.58000 0.344
29.60000 4.900
29.62000 5.284
29.64000 4.624
29.66000 4.862
29.68000 -0.398
29.70000 -0.473
29.72000 -2.798
29.74000 -2.005
29.76000 1.838
29.78000 3.017
29.80000 4.455
29.82000 5.788
29.84000 5.774
29.86000 1.351
29.88000 -2.148
29.90000 -3.630
29.92000 -3.189
29.94000 -1.150
29.96000 5.221
29.98000 3.749
30.00000 0.043
30.02000 5.252
30.04000 5.066
30.06000 0.542
30.08000 1.627
30.10000 0.251
30.12000 -3.716
30.14000 -0.201
30.16000 4.486
30.18000 0.764
30.20000 -0.474
30.22000 -2.288
30.24000 2.220
30.26000 5.756
30.28000 0.417
30.30000 -1.509
30.32000 -0.265
30.34000 -0.227
30.36000 2.770
30.38000 5.083
30.40000 2.691
30.42000 2.354
30.44000 2.628
30.46000 -0.458
30.48000 1.616
30.50000 1.186
30.52000 -3.696
30.54000 -1.356
30.56000 4.888
30.58000 11.518
30.60000 8.581
30.62000 11.095
30.64000 7.093
30.66000 3.431
30.68000 3.072
30.70000 -0.780
30.72000 -1.965
30.74000 5.920
30.76000 4.073
30.78000 1.990
30.80000 0.962
30.82000 3.833
30.84000 2.285
30.86000 1.311
30.88000 -3.686
30.90000 -0.633
30.92000 0.521
30.94000 1.309
30.96000 1.841
30.98000 4.422
31.00000 4.003
31.02000 1.782
31.04000 2.428
31.06000 5.631
31.08000 6.342
31.10000 1.704
31.12000 1.778
31.14000 2.374
31.16000 2.626
31.18000 -3.158
31.20000 -0.439
31.22000 0.564
31.24000 -1.343
31.26000 4.359
31.28000 5.317
31.30000 1.939
31.32000 2.985
31.34000 2.583
31.36000 2.436
31.38000 5.144
31.40000 3.700
31.42000 -1.195
31.44000 0.112
31.46000 2.153
31.48000 1.992
31.50000 1.835
31.52000 1.830
31.54000 2.447
31.56000 5.438
31.58000 2.590
31.60000 6.340
31.62000 6.172
31.64000 0.774
31.66000 4.299
31.68000 4.950
31.70000 1.738
31.72000 5.333
31.74000 7.440
31.76000 5.856
31.78000 3.252
31.80000 -0.198
31.82000 -2.224
31.84000 0.840
31.86000 -0.197
31.88000 1.484
31.90000 1.892
31.92000 3.636
31.94000 6.049
31.96000 1.626
31.98000 4.389
32.00000 5.442
32.02000 7.081
32.04000 3.269
32.06000 6.410
32.08000 10.056
32.10000 4.954
32.12000 -3.206
32.14000 -0.083
32.16000 7.697
32.18000 6.237
32.20000 6.697
32.22000 5.652
32.24000 7.956
32.26000 2.716
32.28000 1.762
32.30000 1.539
32.32000 3.677
32.34000 3.061
32.36000 -1.671
32.38000 -2.409
32.40000 1.378
32.42000 4.769
32.44000 5.296
32.46000 5.189
32.48000 11.396
32.50000 5.899
32.52000 8.260
32.54000 9.522
32.56000 9.263
32.58000 9.656
32.60000 5.508
32.62000 -3.591
32.64000 -0.070
32.66000 3.718
32.68000 6.420
32.70000 2.187
32.72000 2.197
32.74000 4.083
32.76000 3.565
32.78000 6.663
32.80000 2.229
32.82000 -0.207
32.84000 2.717
32.86000 2.196
32.88000 4.253
32.90000 6.974
32.92000 6.404
32.94000 2.269
32.96000 -0.002
32.98000 -0.026
33.00000 1.959
33.02000 3.486
33.04000 3.437
33.06000 7.462
33.08000 4.943
33.10000 0.651
33.12000 3.144
33.14000 2.689
33.16000 4.344
33.18000 1.944
33.20000 -0.460
33.22000 1.601
33.24000 2.808
33.26000 1.206
33.28000 9.834
33.30000 9.780
33.32000 5.449
33.34000 0.255
33.36000 -0.621
33.38000 0.206
33.40000 5.064
33.42000 5.853
33.44000 0.316
33.46000 -1.414
33.48000 -1.309
33.50000 -0.182
33.52000 4.863
33.54000 4.788
33.56000 4.757
33.58000 2.172
33.60000 1.163
33.62000 0.527
33.64000 1.963
33.66000 4.997
33.68000 4.935
33.70000 2.612
33.72000 2.181
33.74000 -0.710
33.76000 1.330
33.78000 0.424
33.80000 2.546
33.82000 -0.675
33.84000 3.807
33.86000 4.488
33.88000 4.603
33.90000 1.150
33.92000 1.957
33.94000 5.087
33.96000 2.628
33.98000 3.816
34.00000 3.302
34.02000 3.017
34.04000 2.095
34.06000 3.543
34.08000 2.231
34.10000 2.635
34.12000 9.204
34.14000 7.718
34.16000 6.186
34.18000 1.343
34.20000 3.207
34.22000 7.523
34.24000 10.666
34.26000 6.896
34.28000 2.827
34.30000 2.597
34.32000 3.593
34.34000 -1.145
34.36000 2.592
34.38000 2.140
34.40000 0.953
34.42000 0.946
34.44000 3.939
34.46000 2.739
34.48000 1.343
34.50000 1.554
34.52000 3.130
34.54000 4.983
34.56000 -1.744
34.58000 0.377
34.60000 -2.337
34.62000 1.980
34.64000 4.225
34.66000 -1.390
34.68000 -3.573
34.70000 -2.032
34.72000 0.474
34.74000 2.834
34.76000 3.390
34.78000 0.301
34.80000 1.634
34.82000 1.283
34.84000 4.215
34.86000 0.240
34.88000 0.498
34.90000 -0.613
34.92000 3.107
34.94000 0.316
34.96000 0.469
34.98000 -2.198
35.00000 -1.948
35.02000 0.500
35.04000 4.037
35.06000 1.264
35.08000 -1.255
35.10000 0.740
35.12000 -1.074
35.14000 -1.653
35.16000 -1.669
35.18000 0.050
35.20000 3.985
35.22000 5.114
35.24000 0.094
35.26000 1.680
35.28000 0.542
35.30000 -0.975
35.32000 3.643
35.34000 5.058
35.36000 4.980
35.38000 3.179
35.40000 2.885
35.42000 4.007
35.44000 2.513
35.46000 5.054
35.48000 4.928
35.50000 3.895
35.52000 5.048
35.54000 6.035
35.56000 -1.497
35.58000 -1.614
35.60000 -1.577
35.62000 2.303
35.64000 -2.630
35.66000 -3.559
35.68000 6.430
35.70000 3.255
35.72000 3.233
35.74000 5.781
35.76000 7.365
35.78000 8.272
35.80000 7.135
35.82000 5.950
35.84000 1.076
35.86000 2.312
35.88000 3.988
35.90000 3.875
35.92000 -0.886
35.94000 -3.548
35.96000 3.192
35.98000 3.365
36.00000 0.814
36.02000 5.598
36.04000 7.836
36.06000 6.697
36.08000 6.830
36.10000 6.768
36.12000 8.164
36.14000 7.615
36.16000 3.520
36.18000 2.628
36.20000 7.040
36.22000 7.596
36.24000 6.686
36.26000 4.556
36.28000 1.708
36.30000 4.058
36.32000 8.382
36.34000 5.270
36.36000 8.829
36.38000 9.130
36.40000 4.971
36.42000 2.275
36.44000 -1.301
36.46000 -2.510
36.48000 0.620
36.50000 3.706
36.52000 0.838
36.54000 -3.024
36.56000 -3.580
36.58000 -0.606
36.60000 1.750
36.62000 4.764
36.64000 7.008
36.66000 6.042
36.68000 0.952
36.70000 -2.793
36.72000 1.975
36.74000 -0.801
36.76000 -0.528
36.78000 2.468
36.80000 3.553
36.82000 1.379
36.84000 1.452
36.86000 4.091
36.88000 -0.152
36.90000 1.167
36.92000 4.232
36.94000 3.656
36.96000 -0.414
36.98000 1.810
37.00000 -2.971
37.02000 -2.841
37.04000 1.462
37.06000 2.709
37.08000 -2.126
37.10000 -2.478
37.12000 0.297
37.14000 0.112
37.16000 3.090
37.18000 3.264
37.20000 5.145
37.22000 0.799
37.24000 -2.803
37.26000 -3.196
37.28000 -2.896
37.30000 0.762
37.32000 3.774
37.34000 -1.026
37.36000 -0.459
37.38000 -1.883
37.40000 -3.661
37.42000 -0.933
37.44000 3.330
37.46000 4.424
37.48000 -2.877
37.50000 -0.717
37.52000 -0.973
37.54000 2.360
37.56000 5.497
37.58000 6.713
37.60000 3.096
37.62000 -1.181
37.64000 0.241
37.66000 4.266
37.68000 6.623
37.70000 5.634
37.72000 4.914
37.74000 3.096
37.76000 0.700
37.78000 -1.122
37.80000 1.313
37.82000 6.068
37.84000 5.163
37.86000 3.213
37.88000 4.424
37.90000 6.554
37.92000 4.508
37.94000 6.886
37.96000 4.428
37.98000 8.392
38.00000 7.805
38.02000 8.892
38.04000 4.035
38.06000 7.618
38.08000 11.013
38.10000 10.365
38.12000 8.810
38.14000 2.574
38.16000 8.366
38.18000 13.886
38.20000 15.072
38.22000 10.785
38.24000 14.105
38.26000 13.799
38.28000 16.897
38.30000 13.816
38.32000 16.231
38.34000 14.983
38.36000 15.654
38.38000 16.100
38.40000 16.958
38.42000 17.315
38.44000 19.427
38.46000 19.385
38.48000 24.050
38.50000 24.940
38.52000 24.081
38.54000 24.143
38.56000 24.755
38.58000 29.905
38.60000 26.700
38.62000 24.578
38.64000 26.979
38.66000 30.341
38.68000 29.195
38.70000 34.321
38.72000 38.537
38.74000 32.914
38.76000 27.997
38.78000 34.086
38.80000 35.954
38.82000 35.242
38.84000 36.054
38.86000 39.225
38.88000 44.963
38.90000 47.375
38.92000 45.371
38.94000 48.075
38.96000 52.709
38.98000 54.050
39.00000 54.398
39.02000 56.414
39.04000 59.158
39.06000 59.832
39.08000 60.993
39.10000 63.809
39.12000 70.873
39.14000 72.402
39.16000 79.217
39.18000 81.691
39.20000 85.805
39.22000 88.319
39.24000 94.172
39.26000 97.053
39.28000 101.159
39.30000 108.926
39.32000 111.318
39.34000 117.169
39.36000 128.951
39.38000 131.849
39.40000 129.027
39.42000 136.518
39.44000 150.278
39.46000 154.366
39.48000 158.532
39.50000 169.280
39.52000 176.906
39.54000 181.613
39.56000 194.395
39.58000 203.816
39.60000 218.895
39.62000 223.966
39.64000 230.411
39.66000 249.019
39.68000 263.981
39.70000 267.367
39.72000 290.304
39.74000 316.679
39.76000 325.868
39.78000 326.142
39.80000 336.552
39.82000 355.741
39.84000 376.889
39.86000 390.079
39.88000 410.254
39.90000 427.263
39.92000 436.473
39.94000 455.067
39.96000 471.000
39.98000 480.907
40.00000 502.252
40.02000 509.540
40.04000 511.514
40.06000 527.859
40.08000 545.505
40.10000 546.145
40.12000 553.577
40.14000 563.259
40.16000 567.331
40.18000 560.071
40.20000 574.640
40.22000 574.035
40.24000 562.614
40.26000 556.915
40.28000 548.020
40.30000 541.913
40.32000 530.902
40.34000 523.159
40.36000 511.228
40.38000 509.463
40.40000 489.345
40.42000 476.650
40.44000 460.659
40.46000 448.453
40.48000 424.473
40.50000 409.863
40.52000 395.974
40.54000 388.848
40.56000 368.508
40.58000 349.336
40.60000 337.320
40.62000 317.182
40.64000 305.090
40.66000 294.093
40.68000 274.666
40.70000 263.391
40.72000 252.054
40.74000 238.495
40.76000 227.499
40.78000 218.200
40.80000 210.882
40.82000 194.952
40.84000 176.260
40.86000 164.267
40.88000 155.607
40.90000 151.320
40.92000 140.610
40.94000 139.368
40.96000 129.995
40.98000 120.298
41.00000 118.985
41.02000 114.530
41.04000 108.324
41.06000 96.935
41.08000 88.513
41.10000 87.252
41.12000 82.160
41.14000 77.111
41.16000 71.554
41.18000 70.648
41.20000 69.196
41.22000 65.086
41.24000 61.520
41.26000 56.188
41.28000 54.091
41.30000 48.960
41.32000 50.336
41.34000 52.322
41.36000 48.737
41.38000 43.546
41.40000 42.412
41.42000 43.037
41.44000 38.874
41.46000 34.942
41.48000 33.834
41.50000 29.771
41.52000 33.276
41.54000 28.946
41.56000 25.212
41.58000 23.731
41.60000 21.396
41.62000 23.620
41.64000 21.988
41.66000 23.460
41.68000 20.300
41.70000 18.770
41.72000 16.338
41.74000 17.967
41.76000 16.331
41.78000 14.210
41.80000 16.746
41.82000 17.342
41.84000 12.795
41.86000 7.245
41.88000 8.995
41.90000 13.028
41.92000 10.781
41.94000 10.856
41.96000 9.266
41.98000 7.546
42.00000 11.989
42.02000 10.261
42.04000 6.237
42.06000 4.242
42.08000 4.024
42.10000 5.592
42.12000 6.886
42.14000 10.217
42.16000 10.131
42.18000 11.430
42.20000 3.968
42.22000 1.473
42.24000 3.440
42.26000 5.448
42.28000 4.140
42.30000 5.027
42.32000 1.928
42.34000 0.464
42.36000 2.839
42.38000 4.880
42.40000 3.459
42.42000 4.777
42.44000 2.122
42.46000 0.009
42.48000 0.216
42.50000 1.587
42.52000 0.853
42.54000 -2.764
42.56000 3.511
42.58000 7.019
42.60000 1.834
42.62000 1.491
42.64000 4.428
42.66000 -1.162
42.68000 -1.486
42.70000 3.854
42.72000 6.275
42.74000 4.817
42.76000 4.824
42.78000 4.333
42.80000 0.542
42.82000 -0.348
42.84000 0.278
42.86000 0.429
42.88000 0.007
42.90000 1.489
42.92000 2.274
42.94000 -0.666
42.96000 2.110
42.98000 1.507
43.00000 0.836
43.02000 -3.445
43.04000 1.279
43.06000 4.650
43.08000 5.250
43.10000 3.359
43.12000 -0.035
43.14000 3.048
43.16000 2.352
43.18000 -1.578
43.20000 -0.176
43.22000 -0.908
43.24000 2.350
43.26000 1.746
43.28000 0.212
43.30000 2.663
43.32000 -0.742
43.34000 0.164
43.36000 -0.351
43.38000 -0.773
43.40000 0.124
43.42000 1.408
43.44000 -0.206
43.46000 -0.625
43.48000 0.232
43.50000 4.022
43.52000 2.693
43.54000 0.482
43.56000 -2.461
43.58000 -0.186
43.60000 -1.106
43.62000 -0.924
43.64000 -1.543
43.66000 -0.836
43.68000 -0.679
43.70000 -1.700
43.72000 -0.976
43.74000 1.975
43.76000 2.069
43.78000 2.822
43.80000 2.318
43.82000 2.715
43.84000 5.417
43.86000 4.692
43.88000 -0.579
43.90000 0.503
43.92000 0.127
43.94000 2.388
43.96000 5.776
43.98000 5.005
44.00000 5.069
44.02000 0.012
44.04000 -3.338
44.06000 0.803
44.08000 3.139
44.10000 2.156
44.12000 -0.121
44.14000 1.961
44.16000 2.305
44.18000 2.559
44.20000 1.013
44.22000 7.153
44.24000 8.663
44.26000 7.539
44.28000 8.720
44.30000 6.776
44.32000 5.201
44.34000 3.041
44.36000 5.998
44.38000 8.709
44.40000 6.488
44.42000 1.571
44.44000 -2.900
44.46000 -1.783
44.48000 1.945
44.50000 2.811
44.52000 6.338
44.54000 4.579
44.56000 1.472
44.58000 1.185
44.60000 3.728
44.62000 2.789
44.64000 -0.979
44.66000 4.130
44.68000 5.425
44.70000 8.671
44.72000 8.132
44.74000 7.146
44.76000 7.085
44.78000 3.122
44.80000 5.925
44.82000 7.331
44.84000 6.109
44.86000 6.559
44.88000 3.476
44.90000 4.516
44.92000 2.663
44.94000 8.878
44.96000 11.644
44.98000 12.894
45.00000 13.003
45.02000 7.988
45.04000 8.419
45.06000 8.762
45.08000 7.706
45.10000 11.610
45.12000 12.943
45.14000 9.883
45.16000 8.344
45.18000 9.545
45.20000 8.254
45.22000 8.696
45.24000 6.401
45.26000 8.184
45.28000 11.105
45.30000 11.778
45.32000 12.100
45.34000 5.452
45.36000 11.473
45.38000 16.259
45.40000 13.404
45.42000 15.939
45.44000 19.718
45.46000 17.733
45.48000 13.618
45.50000 15.085
45.52000 21.626
45.54000 20.822
45.56000 21.968
45.58000 28.310
45.60000 24.257
45.62000 16.979
45.64000 18.254
45.66000 17.105
45.68000 23.602
45.70000 27.034
45.72000 24.238
45.74000 30.081
45.76000 29.814
45.78000 25.493
45.80000 28.597
45.82000 28.789
45.84000 31.364
45.86000 37.734
45.88000 41.771
45.90000 38.055
45.92000 36.691
45.94000 35.390
45.96000 34.230
45.98000 39.140
46.00000 45.342
46.02000 42.402
46.04000 41.708
46.06000 42.555
46.08000 50.358
46.10000 54.198
46.12000 51.000
46.14000 51.924
46.16000 52.704
46.18000 48.216
46.20000 55.979
46.22000 56.248
46.24000 56.385
46.26000 59.008
46.28000 61.466
46.30000 66.715
46.32000 68.821
46.34000 65.482
46.36000 66.434
46.38000 68.551
46.40000 70.469
46.42000 74.048
46.44000 82.061
46.46000 83.001
46.48000 81.754
46.50000 77.060
46.52000 78.990
46.54000 83.196
46.56000 85.349
46.58000 79.326
46.60000 81.443
46.62000 84.634
46.64000 84.607
46.66000 79.567
46.68000 82.083
46.70000 87.098
46.72000 94.784
46.74000 94.170
46.76000 98.703
46.78000 98.730
46.80000 91.081
46.82000 94.332
46.84000 98.906
46.86000 100.139
46.88000 100.557
46.90000 96.359
46.92000 93.141
46.94000 87.350
46.96000 85.946
46.98000 84.603
47.00000 90.281
47.02000 90.429
47.04000 87.333
47.06000 87.861
47.08000 89.153
47.10000 86.536
47.12000 80.358
47.14000 74.351
47.16000 74.701
47.18000 87.123
47.20000 84.505
47.22000 74.680
47.24000 68.240
47.26000 69.790
47.28000 74.850
47.30000 69.999
47.32000 64.751
47.34000 63.948
47.36000 67.460
47.38000 68.068
47.40000 54.296
47.42000 45.135
47.44000 49.268
47.46000 55.112
47.48000 53.811
47.50000 50.976
47.52000 51.151
47.54000 50.144
47.56000 46.484
47.58000 49.840
47.60000 44.033
47.62000 43.709
47.64000 39.235
47.66000 36.766
47.68000 33.551
47.70000 32.187
47.72000 29.383
47.74000 31.652
47.76000 32.788
47.78000 32.584
47.80000 31.614
47.82000 27.478
47.84000 19.708
47.86000 21.816
47.88000 19.972
47.90000 19.464
47.92000 25.169
47.94000 23.133
47.96000 15.210
47.98000 18.772
48.00000 14.690
48.02000 17.896
48.04000 18.764
48.06000 15.306
48.08000 15.351
48.10000 14.881
48.12000 13.892
48.14000 16.751
48.16000 12.715
48.18000 9.568
48.20000 8.583
48.22000 12.625
48.24000 15.594
48.26000 10.868
48.28000 8.543
48.30000 5.867
48.32000 4.685
48.34000 7.459
48.36000 8.254
48.38000 9.393
48.40000 12.878
48.42000 10.320
48.44000 13.839
48.46000 4.402
48.48000 3.040
48.50000 4.395
48.52000 1.883
48.54000 -3.000
48.56000 3.097
48.58000 4.045
48.60000 6.959
48.62000 2.471
48.64000 -2.271
48.66000 3.754
48.68000 2.399
48.70000 0.737
48.72000 3.368
48.74000 1.543
48.76000 5.030
48.78000 4.914
48.80000 2.825
48.82000 -0.615
48.84000 2.894
48.86000 4.097
48.88000 -1.818
48.90000 -1.564
48.92000 1.089
48.94000 0.010
48.96000 6.762
48.98000 4.643
49.00000 0.738
49.02000 -0.187
49.04000 -0.458
49.06000 2.807
49.08000 3.160
49.10000 1.969
49.12000 3.345
49.14000 -0.657
49.16000 -2.259
49.18000 1.305
49.20000 3.662
49.22000 -1.882
49.24000 -1.289
49.26000 0.997
49.28000 3.360
49.30000 3.350
49.32000 4.034
49.34000 5.744
49.36000 4.248
49.38000 -0.291
49.40000 1.075
49.42000 0.388
49.44000 0.211
49.46000 0.365
49.48000 -2.906
49.50000 -2.660
49.52000 0.160
49.54000 -0.353
49.56000 -2.034
49.58000 1.873
49.60000 1.752
49.62000 9.960
49.64000 12.159
49.66000 6.765
49.68000 4.789
49.70000 3.323
49.72000 3.078
49.74000 3.231
49.76000 4.886
49.78000 0.974
49.80000 3.802
49.82000 2.734
49.84000 3.124
49.86000 4.343
49.88000 3.146
49.90000 1.776
49.92000 1.593
49.94000 6.246
49.96000 7.521
49.98000 6.439
50.00000 5.720
50.02000 4.123
50.04000 6.890
50.06000 5.523
50.08000 1.698
50.10000 5.867
50.12000 1.159
50.14000 -2.825
50.16000 -0.542
50.18000 0.821
50.20000 4.862
50.22000 8.246
50.24000 5.446
50.26000 5.333
50.28000 2.672
50.30000 2.866
50.32000 -0.100
50.34000 0.048
50.36000 -0.726
50.38000 0.874
50.40000 5.377
50.42000 4.030
50.44000 1.857
50.46000 5.058
50.48000 2.141
50.50000 2.029
50.52000 3.884
50.54000 -0.474
50.56000 -2.819
50.58000 0.747
50.60000 2.211
50.62000 2.814
50.64000 -0.282
50.66000 2.322
50.68000 0.908
50.70000 3.615
50.72000 1.559
50.74000 3.835
50.76000 5.101
50.78000 2.698
50.80000 1.986
50.82000 0.703
50.84000 2.083
50.86000 -1.264
50.88000 5.137
50.90000 4.850
50.92000 5.608
50.94000 2.905
50.96000 6.735
50.98000 4.319
51.00000 3.123
51.02000 -0.818
51.04000 3.721
51.06000 6.651
51.08000 5.836
51.10000 2.496
51.12000 -0.319
51.14000 0.836
51.16000 3.309
51.18000 3.631
51.20000 3.622
51.22000 1.658
51.24000 -0.489
51.26000 -2.798
51.28000 0.729
51.30000 2.158
51.32000 -0.299
51.34000 1.406
51.36000 1.185
51.38000 0.409
51.40000 1.652
51.42000 0.786
51.44000 0.969
51.46000 0.040
51.48000 -1.936
51.50000 1.409
51.52000 6.558
51.54000 1.181
51.56000 0.341
51.58000 1.193
51.60000 -2.471
51.62000 0.483
51.64000 4.044
51.66000 6.405
51.68000 1.009
51.70000 1.990
51.72000 1.636
51.74000 -0.748
51.76000 0.735
51.78000 5.021
51.80000 5.728
51.82000 4.099
51.84000 -1.128
51.86000 -0.847
51.88000 1.927
51.90000 1.662
51.92000 6.285
51.94000 3.234
51.96000 4.460
51.98000 2.338
52.00000 2.453
52.02000 4.013
52.04000 3.618
52.06000 3.757
52.08000 -0.181
52.10000 1.074
52.12000 2.099
52.14000 4.805
52.16000 3.400
52.18000 4.335
52.20000 -0.105
52.22000 4.397
52.24000 4.610
52.26000 3.181
52.28000 2.770
52.30000 0.068
52.32000 3.328
52.34000 6.202
52.36000 2.915
52.38000 5.096
52.40000 0.598
52.42000 -1.257
52.44000 1.466
52.46000 -1.109
52.48000 1.462
52.50000 4.901
52.52000 5.121
52.54000 3.716
52.56000 -1.300
52.58000 -0.683
52.60000 2.599
52.62000 6.226
52.64000 7.678
52.66000 6.026
52.68000 1.140
52.70000 4.281
52.72000 1.541
52.74000 -0.863
52.76000 1.923
52.78000 5.363
52.80000 6.653
52.82000 7.177
52.84000 7.204
52.86000 6.902
52.88000 5.001
52.90000 4.471
52.92000 5.734
52.94000 4.429
52.96000 4.141
52.98000 7.821
53.00000 2.233
53.02000 2.629
53.04000 7.412
53.06000 6.549
53.08000 4.696
53.10000 -0.990
53.12000 -2.683
53.14000 3.500
53.16000 6.830
53.18000 4.070
53.20000 5.154
53.22000 5.373
53.24000 8.131
53.26000 3.708
53.28000 2.426
53.30000 1.698
53.32000 0.803
53.34000 0.770
53.36000 4.137
53.38000 2.030
53.40000 1.531
53.42000 3.031
53.44000 7.040
53.46000 1.741
53.48000 2.936
53.50000 4.787
53.52000 6.015
53.54000 4.669
53.56000 3.277
53.58000 0.555
53.60000 0.491
53.62000 1.943
53.64000 4.877
53.66000 5.564
53.68000 6.745
53.70000 1.167
53.72000 1.669
53.74000 4.248
53.76000 1.545
53.78000 4.459
53.80000 5.047
53.82000 1.347
53.84000 2.611
53.86000 0.584
53.88000 2.581
53.90000 5.030
53.92000 0.486
53.94000 3.348
53.96000 4.766
53.98000 4.085
54.00000 2.886
54.02000 2.506
54.04000 0.823
54.06000 2.513
54.08000 0.156
54.10000 1.612
54.12000 3.469
54.14000 0.224
54.16000 -2.066
54.18000 -0.494
54.20000 4.910
54.22000 7.469
54.24000 6.968
54.26000 4.938
54.28000 3.608
54.30000 4.535
54.32000 2.813
54.34000 3.012
54.36000 1.707
54.38000 2.339
54.40000 4.261
54.42000 3.993
54.44000 1.945
54.46000 -0.176
54.48000 0.183
54.50000 7.598
54.52000 2.911
54.54000 6.516
54.56000 2.799
54.58000 3.459
54.60000 3.297
54.62000 2.940
54.64000 0.015
54.66000 2.025
54.68000 2.861
54.70000 2.209
54.72000 -2.677
54.74000 -0.146
54.76000 1.617
54.78000 3.774
54.80000 5.047
54.82000 7.014
54.84000 5.022
54.86000 5.905
54.88000 6.976
54.90000 2.475
54.92000 2.557
54.94000 5.644
54.96000 2.151
54.98000 1.968
55.00000 1.512
55.02000 2.031
55.04000 0.770
55.06000 3.068
55.08000 2.705
55.10000 5.849
55.12000 2.863
55.14000 1.364
55.16000 1.654
55.18000 0.542
55.20000 2.648
55.22000 -0.142
55.24000 -0.489
55.26000 3.725
55.28000 -0.256
55.30000 -0.807
55.32000 2.643
55.34000 -0.008
55.36000 1.060
55.38000 3.060
55.40000 0.740
55.42000 1.175
55.44000 1.376
55.46000 2.080
55.48000 3.745
55.50000 2.733
55.52000 1.304
55.54000 -0.256
55.56000 2.036
55.58000 1.496
55.60000 -1.980
55.62000 -0.189
55.64000 0.823
55.66000 1.079
55.68000 -0.329
55.70000 1.334
55.72000 -0.179
55.74000 1.331
55.76000 6.108
55.78000 5.329
55.80000 3.580
55.82000 3.460
55.84000 1.319
55.86000 5.310
55.88000 7.266
55.90000 4.885
55.92000 4.121
55.94000 5.677
55.96000 3.798
55.98000 3.490
56.00000 1.816
56.02000 1.003
56.04000 4.416
56.06000 3.193
56.08000 4.222
56.10000 4.564
56.12000 0.677
56.14000 0.671
56.16000 -0.599
56.18000 -2.642
56.20000 -0.370
56.22000 1.768
56.24000 0.458
56.26000 0.092
56.28000 4.523
56.30000 4.632
56.32000 4.702
56.34000 3.221
56.36000 -0.866
56.38000 1.103
56.40000 2.952
56.42000 2.980
56.44000 -0.540
56.46000 -2.475
56.48000 -1.242
56.50000 3.728
56.52000 6.598
56.54000 3.633
56.56000 6.383
56.58000 0.297
56.60000 -1.865
56.62000 0.078
56.64000 0.352
56.66000 1.238
56.68000 1.008
56.70000 2.384
56.72000 6.682
56.74000 4.341
56.76000 0.125
56.78000 4.301
56.80000 7.295
56.82000 6.922
56.84000 4.006
56.86000 2.494
56.88000 5.353
56.90000 2.898
56.92000 3.560
56.94000 0.164
56.96000 4.284
56.98000 1.903
57.00000 -2.614
57.02000 -2.613
57.04000 -0.814
57.06000 2.247
57.08000 1.928
57.10000 6.820
57.12000 7.105
57.14000 6.438
57.16000 4.542
57.18000 0.929
57.20000 3.769
57.22000 2.929
57.24000 -1.380
57.26000 -2.601
57.28000 -0.046
57.30000 -0.933
57.32000 2.689
57.34000 1.682
57.36000 5.774
57.38000 5.123
57.40000 1.137
57.42000 0.904
57.44000 0.624
57.46000 4.911
57.48000 5.947
57.50000 4.755
57.52000 1.042
57.54000 2.287
57.56000 2.127
57.58000 3.609
57.60000 0.876
57.62000 5.429
57.64000 2.972
57.66000 3.086
57.68000 3.355
57.70000 2.124
57.72000 0.961
57.74000 -0.612
57.76000 4.044
57.78000 11.125
57.80000 7.060
57.82000 5.628
57.84000 6.746
57.86000 6.038
57.88000 4.394
57.90000 2.334
57.92000 5.824
57.94000 6.497
57.96000 0.288
57.98000 -0.820
58.00000 0.927
58.02000 4.167
58.04000 2.081
58.06000 0.461
58.08000 2.090
58.10000 2.926
58.12000 2.302
58.14000 3.454
58.16000 9.553
58.18000 8.382
58.20000 5.271
58.22000 3.055
58.24000 2.912
58.26000 2.466
58.28000 2.398
58.30000 2.067
58.32000 -2.234
58.34000 -2.546
58.36000 1.231
58.38000 6.507
58.40000 6.658
58.42000 5.631
58.44000 5.179
58.46000 6.464
58.48000 3.192
58.50000 2.153
58.52000 2.658
58.54000 4.362
58.56000 2.939
58.58000 1.659
58.60000 2.950
58.62000 1.182
58.64000 -0.880
58.66000 4.871
58.68000 4.013
58.70000 4.572
58.72000 5.773
58.74000 4.307
58.76000 3.515
58.78000 3.368
58.80000 2.443
58.82000 0.348
58.84000 3.623
58.86000 2.214
58.88000 3.443
58.90000 8.399
58.92000 6.157
58.94000 5.536
58.96000 4.549
58.98000 5.205
59.00000 -0.603
59.02000 1.356
59.04000 3.608
59.06000 5.316
59.08000 2.523
59.10000 0.405
59.12000 5.189
59.14000 3.065
59.16000 2.428
59.18000 1.287
59.20000 -2.540
59.22000 0.160
59.24000 0.325
59.26000 0.007
59.28000 3.868
59.30000 4.512
59.32000 4.981
59.34000 2.000
59.36000 -2.408
59.38000 -1.549
59.40000 2.648
59.42000 5.126
59.44000 0.811
59.46000 -2.099
59.48000 -2.046
59.50000 -1.889
59.52000 2.998
59.54000 3.631
59.56000 4.651
59.58000 3.395
59.60000 6.567
59.62000 7.647
59.64000 3.375
59.66000 1.554
59.68000 1.890
59.70000 3.913
59.72000 0.644
59.74000 -1.963
59.76000 0.698
59.78000 0.547
59.80000 2.009
59.82000 7.904
59.84000 8.182
59.86000 1.824
59.88000 2.228
59.90000 -1.630
59.92000 0.645
59.94000 0.889
59.96000 3.905
59.98000 6.151
60.00000 2.208
60.02000 -0.687
60.04000 -2.374
60.06000 -0.605
60.08000 3.078
60.10000 0.502
60.12000 1.354
60.14000 1.015
60.16000 2.232
60.18000 8.757
60.20000 8.180
60.22000 4.737
60.24000 0.928
60.26000 1.304
60.28000 2.297
60.30000 -0.473
60.32000 2.856
60.34000 2.622
60.36000 0.148
60.38000 -0.297
60.40000 1.062
60.42000 0.329
60.44000 -2.501
60.46000 -0.209
60.48000 -0.860
60.50000 1.909
60.52000 -0.065
60.54000 -1.969
60.56000 -1.505
60.58000 -2.468
60.60000 -2.538
60.62000 0.799
60.64000 3.608
60.66000 7.062
60.68000 4.620
60.70000 6.751
60.72000 3.424
60.74000 1.406
60.76000 0.291
60.78000 -1.455
60.80000 0.125
60.82000 1.619
60.84000 1.459
60.86000 -0.469
60.88000 1.436
60.90000 -1.650
60.92000 -0.180
60.94000 -0.397
60.96000 6.310
60.98000 4.977
61.00000 2.399
61.02000 3.509
61.04000 5.071
61.06000 3.222
61.08000 -0.593
61.10000 2.870
61.12000 3.747
61.14000 3.954
61.16000 -0.777
61.18000 1.713
61.20000 4.846
61.22000 4.039
61.24000 2.436
61.26000 0.391
61.28000 0.476
61.30000 1.124
61.32000 0.827
61.34000 1.615
61.36000 1.767
61.38000 1.606
61.40000 -1.183
61.42000 -0.692
61.44000 0.601
61.46000 -2.494
61.48000 -0.425
61.50000 7.102
61.52000 4.759
61.54000 0.081
61.56000 0.174
61.58000 0.937
61.60000 2.583
61.62000 1.212
61.64000 3.753
61.66000 4.021
61.68000 1.481
61.70000 0.536
61.72000 2.788
61.74000 1.174
61.76000 -0.353
61.78000 -1.409
61.80000 0.861
61.82000 0.502
61.84000 -1.681
61.86000 1.783
61.88000 5.836
61.90000 -0.257
61.92000 1.980
61.94000 3.508
61.96000 1.732
61.98000 1.890
62.00000 3.692
62.02000 3.263
62.04000 0.717
62.06000 0.008
62.08000 0.011
62.10000 0.945
62.12000 3.670
62.14000 3.934
62.16000 -0.718
62.18000 -1.200
62.20000 2.210
62.22000 -0.037
62.24000 -0.724
62.26000 4.081
62.28000 -0.271
62.30000 -0.503
62.32000 -0.192
62.34000 3.549
62.36000 3.563
62.38000 3.121
62.40000 5.660
62.42000 -0.179
62.44000 1.569
62.46000 0.748
62.48000 1.376
62.50000 2.977
62.52000 0.222
62.54000 1.095
62.56000 1.692
62.58000 -1.278
62.60000 2.021
62.62000 1.752
62.64000 -0.670
62.66000 0.800
62.68000 0.977
62.70000 0.863
62.72000 3.914
62.74000 1.690
62.76000 -2.473
62.78000 -0.674
62.80000 1.067
62.82000 2.273
62.84000 1.091
62.86000 3.425
62.88000 3.182
62.90000 1.423
62.92000 0.860
62.94000 0.905
62.96000 3.103
62.98000 2.669
63.00000 2.247
63.02000 2.977
63.04000 1.902
63.06000 1.324
63.08000 1.209
63.10000 1.154
63.12000 3.042
63.14000 8.879
63.16000 5.764
63.18000 5.123
63.20000 4.510
63.22000 -0.500
63.24000 -1.150
63.26000 -0.565
63.28000 2.188
63.30000 0.564
63.32000 -2.035
63.34000 -1.514
63.36000 0.209
63.38000 1.985
63.40000 -0.065
63.42000 -0.860
63.44000 -0.541
63.46000 -0.284
63.48000 -1.656
63.50000 -1.375
63.52000 -2.458
63.54000 -1.819
63.56000 4.368
63.58000 0.129
63.60000 -1.818
63.62000 -0.503
63.64000 2.795
63.66000 1.949
63.68000 1.169
63.70000 0.562
63.72000 1.097
63.74000 0.449
63.76000 -0.249
63.78000 -0.511
63.80000 2.621
63.82000 2.030
63.84000 6.071
63.86000 1.959
63.88000 0.318
63.90000 0.770
63.92000 0.012
63.94000 1.242
63.96000 3.275
63.98000 0.994
64.00000 0.883
64.02000 -0.338
64.04000 -1.761
64.06000 -0.526
64.08000 1.266
64.10000 1.636
64.12000 2.250
64.14000 5.272
64.16000 5.626
64.18000 5.637
64.20000 1.250
64.22000 2.337
64.24000 1.193
64.26000 -2.472
64.28000 -1.118
64.30000 0.828
64.32000 1.056
64.34000 4.657
64.36000 3.767
64.38000 3.673
64.40000 0.420
64.42000 1.010
64.44000 4.545
64.46000 -0.011
64.48000 1.370
64.50000 3.892
64.52000 2.407
64.54000 1.391
64.56000 1.198
64.58000 0.258
64.60000 -0.662
64.62000 -2.482
64.64000 1.648
64.66000 1.676
64.68000 -0.654
64.70000 -1.022
64.72000 0.890
64.74000 1.284
64.76000 0.471
64.78000 1.486
64.80000 0.445
64.82000 0.986
64.84000 1.822
64.86000 4.324
64.88000 3.400
64.90000 -0.360
64.92000 2.117
64.94000 -0.100
64.96000 -1.153
64.98000 0.659
65.00000 1.340
65.02000 -0.716
65.04000 -2.301
65.06000 -0.808
65.08000 3.000
65.10000 0.802
65.12000 -0.628
65.14000 3.013
65.16000 2.083
65.18000 3.190
65.20000 2.672
65.22000 1.753
65.24000 0.273
65.26000 1.452
65.28000 2.985
65.30000 1.422
65.32000 1.214
65.34000 0.186
65.36000 2.009
65.38000 -0.670
65.40000 2.344
65.42000 4.272
65.44000 1.944
65.46000 1.778
65.48000 0.620
65.50000 0.249
65.52000 1.061
65.54000 -2.518
65.56000 -1.301
65.58000 -0.175
65.60000 0.095
65.62000 0.228
65.64000 2.933
65.66000 0.900
65.68000 -1.703
65.70000 -0.527
65.72000 -0.698
65.74000 -2.520
65.76000 1.428
65.78000 2.052
65.80000 1.972
65.82000 2.131
65.84000 2.817
65.86000 -0.137
65.88000 -2.522
65.90000 -2.373
65.92000 2.319
65.94000 1.562
65.96000 4.477
65.98000 3.468
66.00000 -0.363
66.02000 -0.360
66.04000 2.410
66.06000 4.014
66.08000 1.143
66.10000 3.068
66.12000 2.450
66.14000 -1.438
66.16000 0.131
66.18000 4.362
66.20000 2.709
66.22000 0.995
66.24000 -2.147
66.26000 1.864
66.28000 4.037
66.30000 2.681
66.32000 -1.844
66.34000 -2.526
66.36000 0.789
66.38000 0.734
66.40000 3.733
66.42000 1.042
66.44000 1.226
66.46000 1.384
66.48000 1.466
66.50000 3.038
66.52000 0.094
66.54000 3.445
66.56000 4.548
66.58000 1.906
66.60000 1.438
66.62000 8.877
66.64000 3.642
66.66000 3.706
66.68000 4.005
66.70000 3.934
66.72000 4.050
66.74000 -1.526
66.76000 0.784
66.78000 4.742
66.80000 3.201
66.82000 3.984
66.84000 5.013
66.86000 4.528
66.88000 1.229
66.90000 3.387
66.92000 2.326
66.94000 3.833
66.96000 3.050
66.98000 2.749
67.00000 6.124
67.02000 6.393
67.04000 5.467
67.06000 4.602
67.08000 0.417
67.10000 1.204
67.12000 2.302
67.14000 3.146
67.16000 3.774
67.18000 3.701
67.20000 2.059
67.22000 3.284
67.24000 6.067
67.26000 6.427
67.28000 2.412
67.30000 2.408
67.32000 2.886
67.34000 5.003
67.36000 5.778
67.38000 6.502
67.40000 4.044
67.42000 5.390
67.44000 4.900
67.46000 5.456
67.48000 5.488
67.50000 8.095
67.52000 9.821
67.54000 7.880
67.56000 9.295
67.58000 12.780
67.60000 9.931
67.62000 8.250
67.64000 9.157
67.66000 10.335
67.68000 11.192
67.70000 6.041
67.72000 7.798
67.74000 11.904
67.76000 13.825
67.78000 13.624
67.80000 13.576
67.82000 14.651
67.84000 18.862
67.86000 18.499
67.88000 18.053
67.90000 15.516
67.92000 17.611
67.94000 16.144
67.96000 16.557
67.98000 16.994
68.00000 19.816
68.02000 17.345
68.04000 16.997
68.06000 16.319
68.08000 16.093
68.10000 17.830
68.12000 21.274
68.14000 22.783
68.16000 24.783
68.18000 24.272
68.20000 17.011
68.22000 17.656
68.24000 16.927
68.26000 16.791
68.28000 18.262
68.30000 21.247
68.32000 25.811
68.34000 20.427
68.36000 19.973
68.38000 21.987
68.40000 24.413
68.42000 20.444
68.44000 18.342
68.46000 24.168
68.48000 25.059
68.50000 19.933
68.52000 20.799
68.54000 20.027
68.56000 18.851
68.58000 21.645
68.60000 20.394
68.62000 19.217
68.64000 16.724
68.66000 17.832
68.68000 16.298
68.70000 18.822
68.72000 21.416
68.74000 24.572
68.76000 19.632
68.78000 20.982
68.80000 21.574
68.82000 17.566
68.84000 15.182
68.86000 13.483
68.88000 19.753
68.90000 15.163
68.92000 10.574
68.94000 8.057
68.96000 10.845
68.98000 12.613
69.00000 10.521
69.02000 11.170
69.04000 13.065
69.06000 8.731
69.08000 10.979
69.10000 9.821
69.12000 9.895
69.14000 9.719
69.16000 7.232
69.18000 7.725
69.20000 7.879
69.22000 7.190
69.24000 4.979
69.26000 6.070
69.28000 4.971
69.30000 6.127
69.32000 7.187
69.34000 5.794
69.36000 10.452
69.38000 10.821
69.40000 7.264
69.42000 4.099
69.44000 4.672
69.46000 3.250
69.48000 5.900
69.50000 3.668
69.52000 5.012
69.54000 7.900
69.56000 4.317
69.58000 -0.021
69.60000 0.193
69.62000 0.668
69.64000 4.409
69.66000 4.381
69.68000 5.693
69.70000 0.449
69.72000 0.983
69.74000 1.454
69.76000 1.337
69.78000 1.732
69.80000 2.972
69.82000 3.065
69.84000 2.489
69.86000 0.611
69.88000 -0.995
69.90000 -0.301
69.92000 2.435
69.94000 3.863
69.96000 2.053
69.98000 1.765
70.00000 2.058
70.02000 0.345
70.04000 2.428
70.06000 6.393
70.08000 2.030
70.10000 -2.445
70.12000 -0.786
70.14000 4.532
70.16000 1.254
70.18000 0.460
70.20000 3.239
70.22000 1.084
70.24000 1.289
70.26000 2.216
70.28000 -1.478
70.30000 -0.443
70.32000 -1.508
70.34000 1.680
70.36000 3.329
70.38000 4.674
70.40000 3.022
70.42000 5.557
70.44000 3.659
70.46000 6.689
70.48000 6.313
70.50000 1.686
70.52000 -2.404
70.54000 0.671
70.56000 -0.817
70.58000 0.087
70.60000 1.893
70.62000 0.349
70.64000 5.892
70.66000 6.893
70.68000 1.360
70.70000 -0.352
70.72000 0.179
70.74000 0.221
70.76000 4.266
70.78000 4.797
70.80000 6.381
70.82000 6.704
70.84000 4.314
70.86000 2.959
70.88000 5.442
70.90000 3.340
70.92000 2.666
70.94000 1.024
70.96000 -0.085
70.98000 2.602
71.00000 3.438
71.02000 2.135
71.04000 0.406
71.06000 2.304
71.08000 2.675
71.10000 1.612
71.12000 1.642
71.14000 2.116
71.16000 -0.164
71.18000 1.210
71.20000 4.993
71.22000 4.800
71.24000 2.108
71.26000 2.860
71.28000 2.647
71.30000 4.682
71.32000 4.566
71.34000 -0.396
71.36000 0.926
71.38000 4.391
71.40000 3.234
71.42000 4.632
71.44000 4.874
71.46000 2.887
71.48000 2.604
71.50000 2.456
71.52000 -0.482
71.54000 0.460
71.56000 1.492
71.58000 -2.353
71.60000 0.475
71.62000 2.657
71.64000 2.656
71.66000 3.587
71.68000 11.023
71.70000 5.460
71.72000 3.669
71.74000 0.343
71.76000 1.947
71.78000 0.927
71.80000 3.768
71.82000 3.514
71.84000 3.272
71.86000 2.298
71.88000 0.899
71.90000 0.870
71.92000 1.052
71.94000 2.743
71.96000 4.054
71.98000 6.409
72.00000 1.118
72.02000 2.686
72.04000 1.182
72.06000 -0.588
72.08000 2.063
72.10000 3.023
72.12000 0.803
72.14000 1.189
72.16000 2.596
72.18000 2.298
72.20000 1.149
72.22000 2.961
72.24000 5.676
72.26000 7.589
72.28000 6.202
72.30000 2.226
72.32000 0.702
72.34000 1.692
72.36000 1.941
72.38000 1.544
72.40000 4.075
72.42000 3.725
72.44000 0.152
72.46000 3.257
72.48000 -0.468
72.50000 -1.308
72.52000 3.387
72.54000 6.834
72.56000 4.814
72.58000 -2.337
72.60000 0.097
72.62000 1.067
72.64000 0.478
72.66000 4.701
72.68000 2.934
72.70000 3.865
72.72000 3.880
72.74000 3.478
72.76000 -0.448
72.78000 -1.487
72.80000 3.660
72.82000 4.553
72.84000 2.968
72.86000 1.496
72.88000 3.269
72.90000 7.774
72.92000 6.432
72.94000 6.353
72.96000 4.648
72.98000 1.978
73.00000 -2.327
73.02000 -0.376
73.04000 0.241
73.06000 3.086
73.08000 3.046
73.10000 0.121
73.12000 -1.760
73.14000 0.423
73.16000 3.535
73.18000 4.146
73.20000 0.692
73.22000 0.776
73.24000 4.206
73.26000 5.637
73.28000 7.683
73.30000 5.586
73.32000 3.180
73.34000 2.758
73.36000 2.208
73.38000 3.243
73.40000 1.324
73.42000 -1.771
73.44000 5.796
73.46000 1.541
73.48000 -2.302
73.50000 -2.101
73.52000 1.578
73.54000 2.480
73.56000 0.835
73.58000 -1.013
73.60000 1.965
73.62000 0.230
73.64000 1.545
73.66000 0.016
73.68000 2.638
73.70000 2.809
73.72000 3.552
73.74000 -0.993
73.76000 0.150
73.78000 3.977
73.80000 5.099
73.82000 5.922
73.84000 6.304
73.86000 1.466
73.88000 0.226
73.90000 3.235
73.92000 3.609
73.94000 5.068
73.96000 2.938
73.98000 0.685
74.00000 0.574
74.02000 3.829
74.04000 4.669
74.06000 0.024
74.08000 5.027
74.10000 3.032
74.12000 2.298
74.14000 3.815
74.16000 2.468
74.18000 1.991
74.20000 5.124
74.22000 2.525
74.24000 -0.079
74.26000 5.430
74.28000 7.125
74.30000 7.320
74.32000 0.980
74.34000 5.712
74.36000 2.757
74.38000 2.495
74.40000 5.528
74.42000 4.688
74.44000 3.568
74.46000 2.568
74.48000 -0.407
74.50000 0.018
74.52000 1.860
74.54000 2.295
74.56000 2.797
74.58000 3.002
74.60000 0.913
74.62000 -0.018
74.64000 3.566
74.66000 4.436
74.68000 2.101
74.70000 2.450
74.72000 3.702
74.74000 5.278
74.76000 2.333
74.78000 3.306
74.80000 2.358
74.82000 3.127
74.84000 5.187
74.86000 8.255
74.88000 3.372
74.90000 1.197
74.92000 1.317
74.94000 8.166
74.96000 4.037
74.98000 0.653
75.00000 1.391
75.02000 -2.276
75.04000 2.903
75.06000 1.949
75.08000 4.096
75.10000 1.585
75.12000 1.245
75.14000 0.433
75.16000 0.932
75.18000 2.516
75.20000 2.769
75.22000 2.662
75.24000 4.065
75.26000 4.792
75.28000 3.336
75.30000 2.744
75.32000 1.714
75.34000 3.664
75.36000 1.920
75.38000 5.253
75.40000 1.861
75.42000 4.789
75.44000 5.661
75.46000 5.599
75.48000 8.378
75.50000 6.670
75.52000 6.119
75.54000 3.192
75.56000 5.881
75.58000 5.293
75.60000 5.428
75.62000 4.530
75.64000 2.459
75.66000 -1.473
75.68000 3.467
75.70000 8.321
75.72000 8.013
75.74000 2.677
75.76000 0.990
75.78000 3.868
75.80000 5.289
75.82000 5.824
75.84000 4.523
75.86000 2.623
75.88000 -2.248
75.90000 3.145
75.92000 6.110
75.94000 4.922
75.96000 9.240
75.98000 5.098
76.00000 6.407
76.02000 6.064
76.04000 7.879
76.06000 7.155
76.08000 5.954
76.10000 6.387
76.12000 2.612
76.14000 2.957
76.16000 3.465
76.18000 3.389
76.20000 2.800
76.22000 5.210
76.24000 3.173
76.26000 3.770
76.28000 4.366
76.30000 3.076
76.32000 8.683
76.34000 5.776
76.36000 5.135
76.38000 2.500
76.40000 4.649
76.42000 2.225
76.44000 3.581
76.46000 4.766
76.48000 -0.062
76.50000 -2.294
76.52000 1.737
76.54000 6.522
76.56000 1.844
76.58000 5.819
76.60000 5.071
76.62000 4.693
76.64000 2.863
76.66000 5.915
76.68000 2.288
76.70000 2.774
76.72000 4.428
76.74000 2.516
76.76000 0.574
76.78000 8.400
76.80000 5.436
76.82000 2.136
76.84000 3.947
76.86000 -0.844
76.88000 3.222
76.90000 3.953
76.92000 5.301
76.94000 7.314
76.96000 4.654
76.98000 3.518
77.00000 2.728
77.02000 0.443
77.04000 1.791
77.06000 3.860
77.08000 0.487
77.10000 -2.325
77.12000 -0.543
77.14000 1.422
77.16000 -0.338
77.18000 3.616
77.20000 3.713
77.22000 2.605
77.24000 5.006
77.26000 2.071
77.28000 -0.322
77.30000 1.566
77.32000 3.435
77.34000 -0.561
77.36000 -0.509
77.38000 3.224
77.40000 4.517
77.42000 7.100
77.44000 -0.941
77.46000 -1.678
77.48000 0.638
77.50000 -1.425
77.52000 0.517
77.54000 3.488
77.56000 1.227
77.58000 1.433
77.60000 -1.671
77.62000 2.874
77.64000 6.251
77.66000 4.220
77.68000 7.103
77.70000 6.716
77.72000 1.574
77.74000 2.261
77.76000 4.590
77.78000 1.660
77.80000 2.135
77.82000 4.093
77.84000 6.899
77.86000 8.399
77.88000 5.759
77.90000 4.714
77.92000 3.117
77.94000 3.691
77.96000 2.667
77.98000 3.303
78.00000 1.436
78.02000 -1.062
78.04000 -1.895
78.06000 -1.069
78.08000 -2.319
78.10000 -1.249
78.12000 3.460
78.14000 2.415
78.16000 -2.122
78.18000 3.134
78.20000 3.811
78.22000 5.761
78.24000 2.499
78.26000 2.376
78.28000 0.799
78.30000 0.176
78.32000 3.913
78.34000 2.816
78.36000 2.714
78.38000 4.318
78.40000 0.330
78.42000 2.613
78.44000 5.576
78.46000 1.872
78.48000 1.906
78.50000 1.753
78.52000 4.479
78.54000 1.888
78.56000 1.494
78.58000 3.255
78.60000 -0.123
78.62000 3.526
78.64000 5.321
78.66000 5.412
78.68000 4.615
78.70000 4.312
78.72000 8.330
78.74000 3.235
78.76000 1.136
78.78000 0.640
78.80000 1.621
78.82000 3.179
78.84000 3.718
78.86000 5.651
78.88000 2.730
78.90000 -0.628
78.92000 -0.161
78.94000 3.239
78.96000 2.920
78.98000 1.761
79.00000 6.279
79.02000 3.701
79.04000 2.224
79.06000 1.708
79.08000 1.003
79.10000 1.143
79.12000 4.197
79.14000 5.632
79.16000 6.538
79.18000 4.748
79.20000 1.028
79.22000 -2.367
79.24000 4.927
79.26000 3.013
79.28000 4.398
79.30000 4.537
79.32000 2.053
79.34000 2.484
79.36000 3.455
79.38000 8.709
79.40000 4.678
79.42000 4.636
79.44000 2.941
79.46000 3.964
79.48000 5.050
79.50000 1.795
79.52000 0.460
79.54000 5.369
79.56000 7.433
79.58000 0.449
79.60000 1.522
79.62000 -2.366
79.64000 -0.744
79.66000 1.576
79.68000 0.953
79.70000 3.804
79.72000 -1.441
79.74000 -1.181
79.76000 -0.981
79.78000 0.601
79.80000 3.003
79.82000 -2.377
79.84000 -1.924
79.86000 0.782
79.88000 5.007
79.90000 4.345
79.92000 4.072
79.94000 8.439
79.96000 3.794
79.98000 3.154
80.00000 0.841
80.02000 4.474
80.04000 6.248
80.06000 5.265
80.08000 1.081
80.10000 2.787
80.12000 5.619
80.14000 4.966
80.16000 3.305
80.18000 0.809
80.20000 1.507
80.22000 0.827
80.24000 2.259
80.26000 1.716
80.28000 4.237
80.30000 7.410
80.32000 5.109
80.34000 4.296
80.36000 6.596
80.38000 5.935
80.40000 8.692
80.42000 4.805
80.44000 1.686
80.46000 3.614
80.48000 0.547
80.50000 -0.772
80.52000 3.249
80.54000 2.055
80.56000 0.993
80.58000 -1.959
80.60000 1.800
80.62000 3.393
80.64000 0.851
80.66000 1.410
80.68000 1.464
80.70000 3.584
80.72000 2.470
80.74000 -0.171
80.76000 -0.995
80.78000 2.366
80.80000 3.396
80.82000 2.039
80.84000 2.819
80.86000 4.494
80.88000 2.864
80.90000 6.084
80.92000 7.532
80.94000 5.162
80.96000 5.007
80.98000 -0.804
81.00000 0.259
81.02000 2.844
81.04000 9.257
81.06000 6.091
81.08000 8.837
81.10000 6.754
81.12000 5.828
81.14000 7.209
81.16000 8.805
81.18000 8.205
81.20000 9.204
81.22000 6.466
81.24000 4.370
81.26000 7.096
81.28000 5.869
81.30000 3.917
81.32000 4.579
81.34000 3.986
81.36000 12.901
81.38000 7.326
81.40000 5.159
81.42000 9.885
81.44000 8.167
81.46000 10.448
81.48000 4.989
81.50000 11.422
81.52000 14.302
81.54000 12.847
81.56000 13.279
81.58000 11.123
81.60000 9.237
81.62000 13.187
81.64000 13.317
81.66000 7.747
81.68000 9.756
81.70000 10.243
81.72000 13.599
81.74000 16.526
81.76000 16.311
81.78000 14.214
81.80000 17.669
81.82000 20.021
81.84000 21.636
81.86000 17.816
81.88000 18.147
81.90000 16.075
81.92000 12.948
81.94000 16.786
81.96000 16.191
81.98000 17.510
82.00000 18.614
82.02000 18.762
82.04000 20.166
82.06000 20.094
82.08000 22.174
82.10000 25.661
82.12000 27.966
82.14000 25.995
82.16000 22.754
82.18000 19.091
82.20000 23.343
82.22000 23.724
82.24000 24.919
82.26000 23.866
82.28000 26.283
82.30000 27.051
82.32000 32.199
82.34000 30.562
82.36000 20.385
82.38000 21.196
82.40000 25.951
82.42000 29.905
82.44000 31.911
82.46000 31.526
82.48000 30.788
82.50000 31.529
82.52000 32.283
82.54000 30.166
82.56000 30.324
82.58000 28.239
82.60000 25.699
82.62000 25.229
82.64000 28.250
82.66000 23.297
82.68000 22.522
82.70000 31.765
82.72000 32.744
82.74000 32.691
82.76000 26.116
82.78000 22.603
82.80000 23.670
82.82000 24.516
82.84000 20.324
82.86000 16.868
82.88000 22.820
82.90000 27.534
82.92000 26.828
82.94000 25.912
82.96000 25.576
82.98000 24.440
83.00000 27.856
83.02000 22.281
83.04000 22.458
83.06000 17.931
83.08000 17.069
83.10000 23.412
83.12000 20.699
83.14000 18.089
83.16000 16.697
83.18000 18.425
83.20000 18.628
83.22000 18.057
83.24000 13.133
83.26000 12.075
83.28000 16.977
83.30000 16.123
83.32000 15.764
83.34000 12.908
83.36000 13.949
83.38000 16.525
83.40000 17.303
83.42000 14.374
83.44000 8.937
83.46000 10.837
83.48000 12.744
83.50000 12.719
83.52000 14.615
83.54000 17.346
83.56000 13.286
83.58000 6.257
83.60000 4.341
83.62000 6.698
83.64000 10.368
83.66000 9.550
83.68000 7.552
83.70000 7.240
83.72000 8.608
83.74000 6.981
83.76000 6.984
83.78000 6.852
83.80000 11.586
83.82000 11.573
83.84000 10.799
83.86000 10.466
83.88000 9.714
83.90000 8.615
83.92000 3.451
83.94000 2.268
83.96000 6.315
83.98000 7.782
84.00000 8.312
84.02000 6.009
84.04000 6.028
84.06000 5.563
84.08000 9.177
84.10000 6.679
84.12000 2.746
84.14000 3.518
84.16000 7.084
84.18000 8.124
84.20000 5.122
84.22000 5.032
84.24000 7.927
84.26000 7.874
84.28000 5.669
84.30000 5.533
84.32000 2.222
84.34000 0.467
84.36000 1.698
84.38000 5.784
84.40000 5.541
84.42000 10.230
84.44000 8.288
84.46000 2.289
84.48000 -2.387
84.50000 3.468
84.52000 2.587
84.54000 -0.626
84.56000 -1.393
84.58000 0.860
84.60000 8.159
84.62000 6.298
84.64000 4.882
84.66000 4.587
84.68000 5.888
84.70000 3.571
84.72000 7.776
84.74000 6.753
84.76000 5.545
84.78000 9.133
84.80000 7.634
84.82000 3.546
84.84000 4.699
84.86000 7.914
84.88000 5.241
84.90000 2.417
84.92000 0.864
84.94000 6.733
84.96000 3.404
84.98000 5.847
85.00000 3.650
85.02000 1.851
85.04000 -2.325
85.06000 0.695
85.08000 7.750
85.10000 4.918
85.12000 4.452
85.14000 4.441
85.16000 3.799
85.18000 4.701
85.20000 4.438
85.22000 1.372
85.24000 2.074
85.26000 6.751
85.28000 6.107
85.30000 5.555
85.32000 7.155
85.34000 6.285
85.36000 -0.006
85.38000 1.839
85.40000 3.587
85.42000 9.978
85.44000 5.799
85.46000 3.995
85.48000 0.908
85.50000 2.658
85.52000 0.232
85.54000 -1.341
85.56000 2.081
85.58000 8.898
85.60000 6.029
85.62000 5.478
85.64000 3.399
85.66000 4.491
85.68000 8.175
85.70000 8.690
85.72000 8.585
85.74000 6.689
85.76000 9.856
85.78000 11.000
85.80000 9.915
85.82000 9.527
85.84000 7.006
85.86000 11.049
85.88000 11.344
85.90000 5.222
85.92000 5.520
85.94000 8.401
85.96000 7.684
85.98000 5.022
86.00000 7.307
86.02000 10.564
86.04000 9.706
86.06000 7.708
86.08000 10.346
86.10000 6.307
86.12000 4.592
86.14000 6.219
86.16000 8.000
86.18000 14.712
86.20000 15.734
86.22000 14.180
86.24000 14.948
86.26000 12.210
86.28000 10.528
86.30000 11.475
86.32000 13.550
86.34000 16.557
86.36000 16.082
86.38000 12.137
86.40000 16.213
86.42000 17.852
86.44000 19.893
86.46000 18.534
86.48000 20.413
86.50000 18.035
86.52000 20.841
86.54000 21.274
86.56000 20.146
86.58000 12.716
86.60000 15.124
86.62000 16.957
86.64000 19.649
86.66000 15.876
86.68000 14.139
86.70000 15.812
86.72000 16.284
86.74000 18.499
86.76000 14.711
86.78000 14.253
86.80000 20.465
86.82000 22.938
86.84000 23.989
86.86000 22.325
86.88000 18.077
86.90000 20.765
86.92000 18.300
86.94000 17.657
86.96000 24.123
86.98000 19.513
87.00000 22.309
87.02000 24.255
87.04000 22.250
87.06000 22.142
87.08000 24.586
87.10000 25.010
87.12000 20.112
87.14000 16.588
87.16000 16.489
87.18000 15.449
87.20000 15.901
87.22000 17.604
87.24000 15.330
87.26000 19.155
87.28000 21.049
87.30000 16.306
87.32000 13.425
87.34000 16.816
87.36000 14.976
87.38000 10.552
87.40000 11.132
87.42000 13.804
87.44000 14.201
87.46000 18.543
87.48000 18.147
87.50000 15.858
87.52000 17.625
87.54000 14.461
87.56000 13.019
87.58000 13.384
87.60000 11.365
87.62000 7.066
87.64000 8.086
87.66000 13.737
87.68000 9.189
87.70000 6.273
87.72000 4.901
87.74000 10.008
87.76000 9.008
87.78000 9.610
87.80000 11.213
87.82000 13.726
87.84000 8.952
87.86000 6.871
87.88000 9.517
87.90000 7.122
87.92000 3.830
87.94000 1.244
87.96000 5.829
87.98000 2.450
88.00000 2.938
88.02000 4.523
88.04000 5.398
88.06000 5.174
88.08000 7.204
88.10000 7.422
88.12000 4.745
88.14000 2.537
88.16000 5.447
88.18000 8.080
88.20000 5.033
88.22000 4.226
88.24000 2.914
88.26000 1.758
88.28000 5.064
88.30000 4.951
88.32000 5.688
88.34000 5.003
88.36000 3.455
88.38000 4.084
88.40000 6.731
88.42000 5.987
88.44000 5.909
88.46000 5.126
88.48000 4.396
88.50000 1.360
88.52000 -2.236
88.54000 1.172
88.56000 0.229
88.58000 4.518
88.60000 -0.860
88.62000 1.834
88.64000 7.714
88.66000 8.009
88.68000 2.996
88.70000 3.174
88.72000 1.083
88.74000 4.471
88.76000 5.388
88.78000 2.417
88.80000 0.229
88.82000 2.009
88.84000 0.161
88.86000 -1.039
88.88000 3.069
88.90000 4.397
88.92000 4.412
88.94000 -0.823
88.96000 4.519
88.98000 4.446
89.00000 1.233
89.02000 -0.004
89.04000 6.934
89.06000 4.406
89.08000 3.044
89.10000 4.989
89.12000 2.858
89.14000 0.396
89.16000 0.638
89.18000 1.766
89.20000 8.536
89.22000 5.091
89.24000 4.329
89.26000 3.456
89.28000 8.539
89.30000 6.164
89.32000 5.246
89.34000 3.093
89.36000 -2.208
89.38000 1.805
89.40000 1.050
89.42000 0.691
89.44000 1.606
89.46000 3.125
89.48000 0.296
89.50000 0.728
89.52000 1.290
89.54000 1.070
89.56000 -0.970
89.58000 4.155
89.60000 -0.324
89.62000 -1.309
89.64000 -0.771
89.66000 2.318
89.68000 -0.940
89.70000 2.520
89.72000 3.837
89.74000 3.204
89.76000 -1.737
89.78000 2.197
89.80000 3.689
89.82000 4.317
89.84000 6.094
89.86000 5.673
89.88000 7.410
89.90000 5.763
89.92000 0.392
89.94000 0.395
89.96000 0.197
89.98000 1.027
90.00000 1.654
90.02000 1.563
90.04000 2.416
90.06000 -0.206
90.08000 -0.089
90.10000 4.768
90.12000 -2.166
90.14000 5.133
90.16000 6.872
90.18000 0.583
90.20000 -1.606
90.22000 1.878
90.24000 2.230
90.26000 6.117
90.28000 7.373
90.30000 6.788
90.32000 2.497
90.34000 1.751
90.36000 3.848
90.38000 4.310
90.40000 -2.179
90.42000 1.474
90.44000 2.219
90.46000 3.275
90.48000 4.237
90.50000 2.290
90.52000 -2.069
90.54000 -0.959
90.56000 -0.008
90.58000 2.396
90.60000 3.699
90.62000 4.566
90.64000 4.235
90.66000 5.527
90.68000 3.448
90.70000 3.555
90.72000 2.550
90.74000 5.408
90.76000 1.516
90.78000 -0.105
90.80000 0.909
90.82000 3.826
90.84000 3.505
90.86000 2.215
90.88000 4.304
90.90000 7.001
90.92000 4.227
90.94000 2.223
90.96000 4.841
90.98000 4.178
91.00000 1.184
91.02000 0.738
91.04000 3.271
91.06000 5.313
91.08000 5.489
91.10000 4.181
91.12000 6.356
91.14000 9.596
91.16000 7.408
91.18000 1.117
91.20000 -1.865
91.22000 1.679
91.24000 0.367
91.26000 2.902
91.28000 1.122
91.30000 0.495
91.32000 -0.254
91.34000 2.775
91.36000 3.836
91.38000 2.017
91.40000 -0.562
91.42000 -1.513
91.44000 -0.434
91.46000 0.709
91.48000 1.299
91.50000 -2.163
91.52000 3.731
91.54000 2.894
91.56000 4.103
91.58000 2.974
91.60000 -0.537
91.62000 -1.880
91.64000 -2.190
91.66000 2.228
91.68000 5.637
91.70000 2.792
91.72000 2.671
91.74000 3.231
91.76000 8.024
91.78000 7.735
91.80000 4.289
91.82000 1.561
91.84000 1.157
91.86000 0.337
91.88000 6.798
91.90000 7.810
91.92000 7.626
91.94000 8.778
91.96000 4.116
91.98000 0.187
92.00000 2.180
92.02000 4.153
92.04000 6.574
92.06000 5.661
92.08000 3.682
92.10000 4.251
92.12000 1.821
92.14000 4.653
92.16000 2.195
92.18000 4.963
92.20000 3.388
92.22000 1.871
92.24000 4.266
92.26000 -2.168
92.28000 -0.818
92.30000 5.078
92.32000 6.758
92.34000 5.311
92.36000 2.751
92.38000 4.726
92.40000 9.280
92.42000 5.792
92.44000 6.656
92.46000 1.966
92.48000 2.345
92.50000 3.491
92.52000 0.714
92.54000 2.057
92.56000 4.510
92.58000 8.171
92.60000 4.670
92.62000 -1.023
92.64000 -0.971
92.66000 4.108
92.68000 7.042
92.70000 0.064
92.72000 1.706
92.74000 4.380
92.76000 5.382
92.78000 4.149
92.80000 7.141
92.82000 3.915
92.84000 8.548
92.86000 6.035
92.88000 4.974
92.90000 0.836
92.92000 1.815
92.94000 3.265
92.96000 3.314
92.98000 5.763
93.00000 5.215
93.02000 5.658
93.04000 3.496
93.06000 4.163
93.08000 1.366
93.10000 2.219
93.12000 1.212
93.14000 2.373
93.16000 1.215
93.18000 2.079
93.20000 1.555
93.22000 3.421
93.24000 1.068
93.26000 -0.182
93.28000 2.835
93.30000 5.922
93.32000 4.250
93.34000 4.409
93.36000 7.004
93.38000 9.978
93.40000 3.426
93.42000 5.383
93.44000 1.956
93.46000 4.214
93.48000 8.096
93.50000 4.705
93.52000 -1.470
93.54000 -2.139
93.56000 1.350
93.58000 2.507
93.60000 2.679
93.62000 5.904
93.64000 7.982
93.66000 5.222
93.68000 4.637
93.70000 5.597
93.72000 1.083
93.74000 1.760
93.76000 8.464
93.78000 7.812
93.80000 5.234
93.82000 4.563
93.84000 2.684
93.86000 2.705
93.88000 4.169
93.90000 5.482
93.92000 7.384
93.94000 11.748
93.96000 7.407
93.98000 8.888
94.00000 6.573
94.02000 4.269
94.04000 1.861
94.06000 -0.880
94.08000 2.937
94.10000 7.597
94.12000 7.768
94.14000 11.621
94.16000 4.995
94.18000 1.047
94.20000 0.709
94.22000 2.042
94.24000 6.487
94.26000 3.712
94.28000 2.993
94.30000 4.162
94.32000 3.642
94.34000 3.830
94.36000 2.380
94.38000 2.377
94.40000 1.482
94.42000 3.776
94.44000 4.240
94.46000 11.539
94.48000 10.198
94.50000 5.302
94.52000 2.329
94.54000 1.304
94.56000 0.918
94.58000 0.610
94.60000 1.589
94.62000 5.048
94.64000 8.428
94.66000 3.420
94.68000 1.206
94.70000 5.475
94.72000 7.116
94.74000 3.865
94.76000 3.446
94.78000 3.011
94.80000 6.407
94.82000 -0.933
94.84000 -1.322
94.86000 5.685
94.88000 10.943
94.90000 11.675
94.92000 9.778
94.94000 10.486
94.96000 3.232
94.98000 2.426
95.00000 2.736
95.02000 8.037
95.04000 2.587
95.06000 3.326
95.08000 4.449
95.10000 4.713
95.12000 3.480
95.14000 4.443
95.16000 5.818
95.18000 5.647
95.20000 6.308
95.22000 13.271
95.24000 10.384
95.26000 7.617
95.28000 6.394
95.30000 13.121
95.32000 14.156
95.34000 8.644
95.36000 3.314
95.38000 3.623
95.40000 5.698
95.42000 3.357
95.44000 3.824
95.46000 6.812
95.48000 8.356
95.50000 8.048
95.52000 5.504
95.54000 5.682
95.56000 5.556
95.58000 7.883
95.60000 7.602
95.62000 3.117
95.64000 1.194
95.66000 6.419
95.68000 5.874
95.70000 5.564
95.72000 9.387
95.74000 10.256
95.76000 5.096
95.78000 7.290
95.80000 10.302
95.82000 6.480
95.84000 6.182
95.86000 5.933
95.88000 -2.115
95.90000 3.955
95.92000 11.370
95.94000 11.775
95.96000 7.287
95.98000 0.276
96.00000 3.348
96.02000 6.992
96.04000 4.527
96.06000 2.232
96.08000 5.270
96.10000 5.616
96.12000 8.924
96.14000 13.071
96.16000 5.834
96.18000 3.696
96.20000 1.173
96.22000 4.841
96.24000 5.859
96.26000 4.999
96.28000 8.765
96.30000 5.453
96.32000 7.121
96.34000 10.943
96.36000 11.397
96.38000 6.650
96.40000 7.783
96.42000 7.097
96.44000 5.306
96.46000 2.040
96.48000 6.357
96.50000 6.850
96.52000 8.762
96.54000 2.381
96.56000 4.112
96.58000 6.025
96.60000 8.994
96.62000 6.873
96.64000 6.050
96.66000 1.328
96.68000 1.731
96.70000 10.725
96.72000 11.272
96.74000 11.377
96.76000 7.478
96.78000 9.909
96.80000 9.078
96.82000 2.026
96.84000 -0.234
96.86000 1.964
96.88000 0.651
96.90000 5.616
96.92000 12.431
96.94000 9.748
96.96000 5.271
96.98000 7.582
97.00000 6.425
97.02000 8.074
97.04000 8.308
97.06000 8.289
97.08000 1.233
97.10000 1.787
97.12000 7.949
97.14000 6.000
97.16000 7.313
97.18000 8.009
97.20000 5.984
97.22000 3.011
97.24000 5.926
97.26000 7.230
97.28000 5.514
97.30000 5.420
97.32000 2.580
97.34000 8.329
97.36000 9.013
97.38000 6.990
97.40000 7.110
97.42000 6.864
97.44000 3.769
97.46000 3.893
97.48000 3.849
97.50000 4.538
97.52000 7.205
97.54000 10.291
97.56000 4.056
97.58000 3.213
97.60000 0.419
97.62000 8.629
97.64000 4.784
97.66000 2.745
97.68000 13.797
97.70000 14.767
97.72000 9.684
97.74000 2.369
97.76000 4.819
97.78000 10.357
97.80000 1.926
97.82000 1.898
97.84000 5.737
97.86000 6.919
97.88000 6.157
97.90000 2.498
97.92000 1.497
97.94000 -0.473
97.96000 -2.115
97.98000 5.213
98.00000 5.681
98.02000 6.218
98.04000 9.717
98.06000 7.081
98.08000 7.715
98.10000 3.707
98.12000 5.678
98.14000 6.990
98.16000 10.059
98.18000 6.006
98.20000 3.326
98.22000 1.900
98.24000 2.627
98.26000 2.354
98.28000 9.326
98.30000 4.090
98.32000 5.050
98.34000 6.249
98.36000 3.778
98.38000 4.303
98.40000 10.590
98.42000 10.676
98.44000 1.610
98.46000 0.506
98.48000 4.734
98.50000 8.679
98.52000 7.622
98.54000 -0.372
98.56000 -1.621
98.58000 5.884
98.60000 2.188
98.62000 0.748
98.64000 7.166
98.66000 7.849
98.68000 3.549
98.70000 3.166
98.72000 8.074
98.74000 1.453
98.76000 3.618
98.78000 0.964
98.80000 4.403
98.82000 7.290
98.84000 1.353
98.86000 4.035
98.88000 3.307
98.90000 2.991
98.92000 4.330
98.94000 4.697
98.96000 6.101
98.98000 0.206
99.00000 4.225
99.02000 12.909
99.04000 11.451
99.06000 8.683
99.08000 6.062
99.10000 5.429
99.12000 2.701
99.14000 -0.668
99.16000 3.672
99.18000 0.427
99.20000 -2.138
99.22000 5.614
99.24000 1.312
99.26000 2.357
99.28000 -1.485
99.30000 -2.121
99.32000 -0.040
99.34000 1.870
99.36000 -0.283
99.38000 4.338
99.40000 2.983
99.42000 4.816
99.44000 -2.155
99.46000 2.987
99.48000 7.365
99.50000 0.167
99.52000 3.306
99.54000 7.548
99.56000 10.426
99.58000 5.613
99.60000 6.531
99.62000 13.154
99.64000 3.659
99.66000 3.375
99.68000 3.216
99.70000 4.263
99.72000 4.311
99.74000 2.279
99.76000 6.877
99.78000 18.599
99.80000 18.504
99.82000 14.609
99.84000 7.437
99.86000 5.294
99.88000 3.376
99.90000 10.262
99.92000 11.724
99.94000 8.258
99.96000 7.556
99.98000 0.000
