'Id: "0011387" Comment: "Integrate frame 0011387_Au-Ir-Rh_Rh-rich_XRD-Mapping-190-0000.gfrmwith cursor Wedge Cursor #5" Operator: "B?rgel" Anode: "Cu" Wavelength: "1.5406" Scantype: "2Theta (TwoTheta)" TimePerStep: "1" X: "9" Y: "4.5" Z: "5.95" 
10.00000 0.000
10.02000 -0.068
10.04000 1.112
10.06000 -0.855
10.08000 -3.928
10.10000 17.610
10.12000 8.354
10.14000 17.242
10.16000 11.056
10.18000 3.194
10.20000 -0.496
10.22000 3.961
10.24000 0.317
10.26000 -1.347
10.28000 0.993
10.30000 12.997
10.32000 -1.253
10.34000 -0.224
10.36000 -2.633
10.38000 8.673
10.40000 16.809
10.42000 -3.948
10.44000 -0.424
10.46000 5.998
10.48000 22.320
10.50000 13.103
10.52000 11.841
10.54000 12.719
10.56000 26.771
10.58000 33.561
10.60000 33.756
10.62000 29.423
10.64000 19.727
10.66000 10.071
10.68000 10.595
10.70000 27.022
10.72000 22.379
10.74000 16.948
10.76000 10.242
10.78000 21.899
10.80000 22.294
10.82000 9.407
10.84000 15.789
10.86000 17.560
10.88000 16.179
10.90000 9.950
10.92000 7.526
10.94000 28.409
10.96000 41.316
10.98000 36.175
11.00000 19.288
11.02000 10.255
11.04000 3.960
11.06000 17.244
11.08000 31.425
11.10000 28.967
11.12000 17.693
11.14000 10.655
11.16000 11.261
11.18000 11.009
11.20000 18.222
11.22000 13.709
11.24000 18.127
11.26000 3.401
11.28000 -2.168
11.30000 0.015
11.32000 5.380
11.34000 18.659
11.36000 6.517
11.38000 12.346
11.40000 15.287
11.42000 14.577
11.44000 25.710
11.46000 24.677
11.48000 16.121
11.50000 22.128
11.52000 21.093
11.54000 12.489
11.56000 17.371
11.58000 21.974
11.60000 18.522
11.62000 25.870
11.64000 23.324
11.66000 18.215
11.68000 22.621
11.70000 10.301
11.72000 -1.593
11.74000 19.864
11.76000 13.960
11.78000 17.986
11.80000 19.264
11.82000 29.585
11.84000 20.776
11.86000 13.321
11.88000 19.258
11.90000 18.011
11.92000 23.079
11.94000 19.371
11.96000 -1.624
11.98000 9.367
12.00000 19.196
12.02000 18.775
12.04000 15.581
12.06000 26.060
12.08000 19.969
12.10000 19.009
12.12000 13.860
12.14000 17.752
12.16000 22.394
12.18000 16.553
12.20000 11.303
12.22000 14.252
12.24000 15.059
12.26000 21.866
12.28000 10.897
12.30000 8.898
12.32000 17.590
12.34000 5.416
12.36000 10.868
12.38000 15.414
12.40000 17.193
12.42000 25.357
12.44000 17.797
12.46000 15.237
12.48000 17.737
12.50000 8.060
12.52000 14.999
12.54000 13.703
12.56000 22.022
12.58000 24.352
12.60000 25.010
12.62000 22.483
12.64000 18.349
12.66000 17.971
12.68000 18.915
12.70000 19.993
12.72000 20.185
12.74000 23.042
12.76000 20.821
12.78000 11.760
12.80000 21.046
12.82000 21.223
12.84000 22.796
12.86000 21.320
12.88000 12.610
12.90000 13.134
12.92000 25.043
12.94000 32.009
12.96000 17.504
12.98000 12.194
13.00000 14.247
13.02000 16.739
13.04000 12.999
13.06000 12.111
13.08000 10.455
13.10000 20.279
13.12000 22.068
13.14000 18.576
13.16000 11.785
13.18000 18.707
13.20000 20.215
13.22000 16.959
13.24000 9.607
13.26000 10.888
13.28000 11.902
13.30000 18.312
13.32000 9.806
13.34000 18.937
13.36000 18.703
13.38000 11.506
13.40000 9.645
13.42000 7.810
13.44000 12.758
13.46000 9.043
13.48000 9.894
13.50000 6.455
13.52000 11.873
13.54000 20.536
13.56000 19.865
13.58000 24.399
13.60000 19.953
13.62000 21.951
13.64000 16.664
13.66000 19.771
13.68000 18.639
13.70000 12.799
13.72000 19.872
13.74000 24.731
13.76000 23.679
13.78000 10.221
13.80000 2.018
13.82000 5.350
13.84000 10.422
13.86000 14.049
13.88000 12.165
13.90000 11.777
13.92000 21.495
13.94000 14.170
13.96000 6.742
13.98000 6.609
14.00000 5.734
14.02000 8.065
14.04000 11.215
14.06000 14.213
14.08000 10.007
14.10000 3.129
14.12000 10.273
14.14000 15.461
14.16000 15.115
14.18000 6.260
14.20000 0.601
14.22000 2.680
14.24000 16.198
14.26000 15.686
14.28000 18.031
14.30000 13.326
14.32000 10.505
14.34000 13.529
14.36000 12.682
14.38000 21.524
14.40000 14.222
14.42000 3.592
14.44000 3.584
14.46000 4.562
14.48000 13.140
14.50000 14.636
14.52000 12.524
14.54000 12.693
14.56000 15.903
14.58000 12.754
14.60000 10.712
14.62000 16.227
14.64000 14.994
14.66000 4.536
14.68000 10.268
14.70000 12.768
14.72000 9.499
14.74000 12.590
14.76000 6.266
14.78000 3.913
14.80000 1.302
14.82000 4.252
14.84000 2.627
14.86000 9.761
14.88000 13.462
14.90000 5.909
14.92000 1.941
14.94000 4.161
14.96000 8.676
14.98000 2.235
15.00000 3.743
15.02000 14.053
15.04000 19.520
15.06000 14.078
15.08000 3.401
15.10000 4.086
15.12000 5.534
15.14000 12.163
15.16000 10.462
15.18000 7.211
15.20000 3.618
15.22000 2.664
15.24000 -1.556
15.26000 6.116
15.28000 6.912
15.30000 10.396
15.32000 11.943
15.34000 11.446
15.36000 7.949
15.38000 7.516
15.40000 10.553
15.42000 0.114
15.44000 1.935
15.46000 9.178
15.48000 16.264
15.50000 18.562
15.52000 9.201
15.54000 -3.244
15.56000 -0.700
15.58000 5.533
15.60000 9.916
15.62000 13.555
15.64000 12.451
15.66000 16.865
15.68000 10.091
15.70000 6.513
15.72000 3.149
15.74000 1.338
15.76000 4.282
15.78000 4.057
15.80000 17.737
15.82000 13.340
15.84000 2.200
15.86000 -1.238
15.88000 5.770
15.90000 5.892
15.92000 4.648
15.94000 7.049
15.96000 7.895
15.98000 8.945
16.00000 0.606
16.02000 -2.332
16.04000 -1.703
16.06000 0.405
16.08000 4.186
16.10000 10.282
16.12000 3.774
16.14000 0.839
16.16000 8.124
16.18000 7.138
16.20000 6.752
16.22000 3.901
16.24000 9.608
16.26000 11.087
16.28000 3.486
16.30000 8.266
16.32000 17.496
16.34000 15.211
16.36000 6.478
16.38000 10.141
16.40000 8.034
16.42000 6.557
16.44000 10.387
16.46000 7.395
16.48000 5.365
16.50000 8.989
16.52000 3.401
16.54000 0.165
16.56000 0.093
16.58000 2.964
16.60000 0.672
16.62000 2.550
16.64000 13.860
16.66000 5.356
16.68000 -3.722
16.70000 8.274
16.72000 8.606
16.74000 14.455
16.76000 5.536
16.78000 12.759
16.80000 10.246
16.82000 3.331
16.84000 -4.400
16.86000 2.530
16.88000 6.891
16.90000 7.752
16.92000 7.064
16.94000 2.753
16.96000 -2.216
16.98000 4.555
17.00000 5.162
17.02000 3.601
17.04000 5.305
17.06000 4.771
17.08000 -0.121
17.10000 6.908
17.12000 10.954
17.14000 10.592
17.16000 7.423
17.18000 5.489
17.20000 9.109
17.22000 2.773
17.24000 5.495
17.26000 6.575
17.28000 7.189
17.30000 4.533
17.32000 7.759
17.34000 10.124
17.36000 8.119
17.38000 2.602
17.40000 6.000
17.42000 3.916
17.44000 9.637
17.46000 11.944
17.48000 7.737
17.50000 6.278
17.52000 5.085
17.54000 10.366
17.56000 5.791
17.58000 6.251
17.60000 9.439
17.62000 0.913
17.64000 -4.322
17.66000 -2.167
17.68000 2.279
17.70000 10.801
17.72000 10.783
17.74000 4.029
17.76000 3.455
17.78000 3.313
17.80000 7.910
17.82000 9.381
17.84000 9.345
17.86000 15.669
17.88000 14.345
17.90000 10.777
17.92000 7.348
17.94000 0.905
17.96000 1.832
17.98000 10.839
18.00000 11.492
18.02000 -4.331
18.04000 -2.397
18.06000 8.862
18.08000 10.262
18.10000 8.346
18.12000 4.226
18.14000 8.136
18.16000 3.921
18.18000 2.874
18.20000 4.655
18.22000 1.381
18.24000 2.636
18.26000 4.979
18.28000 1.184
18.30000 3.245
18.32000 8.738
18.34000 4.788
18.36000 0.912
18.38000 3.811
18.40000 2.781
18.42000 3.424
18.44000 5.282
18.46000 5.780
18.48000 5.379
18.50000 6.601
18.52000 1.526
18.54000 1.485
18.56000 4.532
18.58000 8.883
18.60000 5.873
18.62000 3.382
18.64000 6.900
18.66000 8.140
18.68000 7.209
18.70000 0.063
18.72000 1.651
18.74000 10.144
18.76000 4.646
18.78000 8.256
18.80000 10.428
18.82000 13.603
18.84000 12.340
18.86000 6.399
18.88000 2.012
18.90000 5.786
18.92000 5.588
18.94000 3.543
18.96000 4.802
18.98000 3.789
19.00000 4.991
19.02000 5.550
19.04000 6.361
19.06000 6.957
19.08000 13.034
19.10000 8.361
19.12000 -4.238
19.14000 -2.653
19.16000 0.552
19.18000 14.813
19.20000 17.831
19.22000 10.779
19.24000 3.650
19.26000 4.432
19.28000 11.089
19.30000 3.324
19.32000 4.081
19.34000 7.386
19.36000 9.975
19.38000 6.909
19.40000 9.216
19.42000 7.842
19.44000 0.662
19.46000 2.960
19.48000 5.951
19.50000 6.868
19.52000 3.236
19.54000 3.204
19.56000 7.327
19.58000 8.737
19.60000 7.935
19.62000 1.793
19.64000 3.158
19.66000 6.814
19.68000 8.478
19.70000 5.794
19.72000 4.987
19.74000 -0.227
19.76000 0.533
19.78000 3.194
19.80000 4.183
19.82000 5.704
19.84000 5.577
19.86000 12.820
19.88000 10.323
19.90000 3.227
19.92000 2.245
19.94000 0.775
19.96000 4.588
19.98000 7.107
20.00000 13.002
20.02000 11.523
20.04000 2.557
20.06000 7.581
20.08000 9.669
20.10000 0.287
20.12000 2.040
20.14000 1.793
20.16000 4.827
20.18000 7.144
20.20000 6.566
20.22000 6.481
20.24000 3.927
20.26000 0.876
20.28000 2.997
20.30000 4.575
20.32000 6.968
20.34000 5.529
20.36000 12.565
20.38000 4.099
20.40000 0.441
20.42000 -4.205
20.44000 -1.020
20.46000 3.551
20.48000 1.368
20.50000 2.583
20.52000 2.555
20.54000 7.783
20.56000 5.777
20.58000 0.249
20.60000 5.352
20.62000 9.970
20.64000 1.466
20.66000 8.172
20.68000 5.128
20.70000 0.421
20.72000 7.532
20.74000 11.814
20.76000 11.285
20.78000 6.792
20.80000 15.372
20.82000 9.927
20.84000 4.273
20.86000 5.804
20.88000 3.051
20.90000 0.434
20.92000 -2.778
20.94000 -2.153
20.96000 4.839
20.98000 7.348
21.00000 8.693
21.02000 6.486
21.04000 3.968
21.06000 0.818
21.08000 0.102
21.10000 4.240
21.12000 2.619
21.14000 -0.037
21.16000 -4.164
21.18000 -1.394
21.20000 3.187
21.22000 3.219
21.24000 2.875
21.26000 4.461
21.28000 1.607
21.30000 3.120
21.32000 3.121
21.34000 1.213
21.36000 1.956
21.38000 0.068
21.40000 -3.626
21.42000 -2.896
21.44000 6.754
21.46000 7.613
21.48000 2.510
21.50000 4.532
21.52000 -0.247
21.54000 -1.715
21.56000 0.845
21.58000 -2.870
21.60000 -0.270
21.62000 8.156
21.64000 12.468
21.66000 8.031
21.68000 -0.226
21.70000 -1.327
21.72000 -0.325
21.74000 -2.122
21.76000 1.781
21.78000 1.155
21.80000 0.758
21.82000 -3.032
21.84000 -1.647
21.86000 5.704
21.88000 -2.518
21.90000 -3.007
21.92000 5.793
21.94000 3.809
21.96000 0.781
21.98000 0.930
22.00000 4.485
22.02000 9.016
22.04000 -1.731
22.06000 -1.980
22.08000 0.740
22.10000 -1.563
22.12000 0.175
22.14000 -0.628
22.16000 -0.474
22.18000 -1.619
22.20000 -1.481
22.22000 2.537
22.24000 4.000
22.26000 1.975
22.28000 3.243
22.30000 -3.190
22.32000 -1.940
22.34000 4.528
22.36000 7.650
22.38000 5.644
22.40000 3.748
22.42000 0.544
22.44000 4.376
22.46000 0.576
22.48000 0.012
22.50000 4.922
22.52000 2.941
22.54000 3.735
22.56000 1.143
22.58000 -4.111
22.60000 0.909
22.62000 1.642
22.64000 3.154
22.66000 4.040
22.68000 -0.404
22.70000 5.153
22.72000 3.090
22.74000 4.884
22.76000 -0.948
22.78000 -3.243
22.80000 -2.919
22.82000 2.864
22.84000 0.948
22.86000 1.585
22.88000 3.195
22.90000 4.890
22.92000 4.515
22.94000 1.024
22.96000 2.702
22.98000 9.095
23.00000 7.647
23.02000 6.796
23.04000 3.199
23.06000 -3.045
23.08000 -1.978
23.10000 -2.137
23.12000 4.880
23.14000 7.400
23.16000 5.926
23.18000 -0.305
23.20000 -2.235
23.22000 -4.079
23.24000 1.524
23.26000 9.703
23.28000 0.733
23.30000 -0.121
23.32000 1.568
23.34000 -3.292
23.36000 -2.124
23.38000 1.718
23.40000 5.174
23.42000 12.037
23.44000 1.738
23.46000 0.682
23.48000 -0.224
23.50000 1.754
23.52000 5.915
23.54000 -2.235
23.56000 -0.890
23.58000 1.457
23.60000 1.973
23.62000 2.729
23.64000 1.945
23.66000 0.753
23.68000 4.525
23.70000 1.203
23.72000 -0.654
23.74000 -1.941
23.76000 5.839
23.78000 4.429
23.80000 0.986
23.82000 1.129
23.84000 -1.789
23.86000 0.226
23.88000 5.096
23.90000 5.203
23.92000 1.274
23.94000 4.585
23.96000 7.559
23.98000 5.993
24.00000 5.198
24.02000 5.579
24.04000 3.938
24.06000 -1.422
24.08000 -2.993
24.10000 1.897
24.12000 0.153
24.14000 3.817
24.16000 0.798
24.18000 2.350
24.20000 4.867
24.22000 3.258
24.24000 -0.083
24.26000 -1.663
24.28000 4.649
24.30000 0.130
24.32000 -3.993
24.34000 -0.679
24.36000 0.028
24.38000 3.822
24.40000 4.550
24.42000 0.836
24.44000 -0.397
24.46000 0.500
24.48000 2.234
24.50000 1.656
24.52000 7.950
24.54000 6.857
24.56000 4.941
24.58000 0.857
24.60000 0.549
24.62000 3.634
24.64000 7.003
24.66000 2.532
24.68000 -2.430
24.70000 1.809
24.72000 4.805
24.74000 8.533
24.76000 5.302
24.78000 3.410
24.80000 3.884
24.82000 3.353
24.84000 7.148
24.86000 0.569
24.88000 1.856
24.90000 5.802
24.92000 7.387
24.94000 0.483
24.96000 3.511
24.98000 5.508
25.00000 6.875
25.02000 5.162
25.04000 0.496
25.06000 5.676
25.08000 2.478
25.10000 2.083
25.12000 2.654
25.14000 5.580
25.16000 8.256
25.18000 2.104
25.20000 4.589
25.22000 1.752
25.24000 7.110
25.26000 6.564
25.28000 0.538
25.30000 1.907
25.32000 2.359
25.34000 0.423
25.36000 -1.360
25.38000 -0.217
25.40000 -0.338
25.42000 8.799
25.44000 7.399
25.46000 11.112
25.48000 12.083
25.50000 5.988
25.52000 1.877
25.54000 -2.215
25.56000 3.216
25.58000 4.986
25.60000 -2.498
25.62000 -0.132
25.64000 0.812
25.66000 3.137
25.68000 6.680
25.70000 10.860
25.72000 9.240
25.74000 8.474
25.76000 11.860
25.78000 9.177
25.80000 7.871
25.82000 6.805
25.84000 4.162
25.86000 6.081
25.88000 3.095
25.90000 5.835
25.92000 9.588
25.94000 9.800
25.96000 13.106
25.98000 6.629
26.00000 6.178
26.02000 3.848
26.04000 -3.835
26.06000 -2.431
26.08000 5.718
26.10000 11.799
26.12000 6.845
26.14000 4.023
26.16000 6.077
26.18000 2.829
26.20000 1.226
26.22000 3.420
26.24000 1.885
26.26000 5.500
26.28000 9.372
26.30000 9.294
26.32000 12.952
26.34000 12.598
26.36000 8.301
26.38000 8.926
26.40000 8.050
26.42000 14.748
26.44000 11.109
26.46000 6.758
26.48000 1.063
26.50000 8.512
26.52000 6.443
26.54000 7.033
26.56000 5.842
26.58000 4.685
26.60000 4.385
26.62000 4.375
26.64000 3.838
26.66000 4.866
26.68000 7.886
26.70000 6.348
26.72000 6.383
26.74000 3.520
26.76000 8.912
26.78000 11.364
26.80000 9.618
26.82000 6.120
26.84000 0.324
26.86000 4.610
26.88000 4.491
26.90000 1.955
26.92000 2.520
26.94000 3.352
26.96000 3.123
26.98000 4.498
27.00000 7.100
27.02000 6.687
27.04000 8.066
27.06000 9.981
27.08000 7.209
27.10000 0.522
27.12000 -0.954
27.14000 1.333
27.16000 4.440
27.18000 5.962
27.20000 3.864
27.22000 -0.764
27.24000 3.392
27.26000 5.146
27.28000 4.987
27.30000 6.196
27.32000 6.051
27.34000 4.237
27.36000 1.627
27.38000 -1.662
27.40000 4.525
27.42000 7.331
27.44000 4.542
27.46000 4.133
27.48000 1.403
27.50000 2.761
27.52000 1.841
27.54000 1.752
27.56000 2.166
27.58000 -3.805
27.60000 0.350
27.62000 6.919
27.64000 4.268
27.66000 2.850
27.68000 2.437
27.70000 4.994
27.72000 1.739
27.74000 4.656
27.76000 5.334
27.78000 0.223
27.80000 0.119
27.82000 3.779
27.84000 1.172
27.86000 3.833
27.88000 4.043
27.90000 4.248
27.92000 1.634
27.94000 -1.341
27.96000 -0.944
27.98000 -3.064
28.00000 -1.754
28.02000 1.736
28.04000 4.052
28.06000 -0.006
28.08000 1.249
28.10000 0.414
28.12000 2.322
28.14000 0.327
28.16000 2.396
28.18000 -1.307
28.20000 1.673
28.22000 -2.766
28.24000 -2.676
28.26000 0.809
28.28000 -0.448
28.30000 -2.043
28.32000 -0.499
28.34000 0.990
28.36000 -0.012
28.38000 -0.648
28.40000 1.876
28.42000 -0.706
28.44000 -2.302
28.46000 -1.063
28.48000 2.483
28.50000 -2.123
28.52000 4.754
28.54000 3.408
28.56000 -0.260
28.58000 2.445
28.60000 5.742
28.62000 7.233
28.64000 7.051
28.66000 0.861
28.68000 0.466
28.70000 2.848
28.72000 6.166
28.74000 4.500
28.76000 2.823
28.78000 7.508
28.80000 6.666
28.82000 7.915
28.84000 4.241
28.86000 4.523
28.88000 3.268
28.90000 0.882
28.92000 0.120
28.94000 -1.275
28.96000 -1.072
28.98000 0.874
29.00000 1.423
29.02000 2.267
29.04000 1.328
29.06000 3.588
29.08000 -0.259
29.10000 0.912
29.12000 6.914
29.14000 6.115
29.16000 2.692
29.18000 -1.251
29.20000 -2.344
29.22000 -2.143
29.24000 2.415
29.26000 9.057
29.28000 4.761
29.30000 7.533
29.32000 0.744
29.34000 0.010
29.36000 2.208
29.38000 4.193
29.40000 1.468
29.42000 4.378
29.44000 3.134
29.46000 -1.405
29.48000 -3.698
29.50000 -1.723
29.52000 1.133
29.54000 4.851
29.56000 5.086
29.58000 6.839
29.60000 1.746
29.62000 4.152
29.64000 6.900
29.66000 5.558
29.68000 5.260
29.70000 2.484
29.72000 0.397
29.74000 2.551
29.76000 3.971
29.78000 5.370
29.80000 7.184
29.82000 5.763
29.84000 6.602
29.86000 7.413
29.88000 4.942
29.90000 2.730
29.92000 -0.569
29.94000 -2.121
29.96000 0.719
29.98000 4.874
30.00000 5.389
30.02000 -0.903
30.04000 4.023
30.06000 6.547
30.08000 3.977
30.10000 2.689
30.12000 0.677
30.14000 1.712
30.16000 2.492
30.18000 -3.028
30.20000 -1.866
30.22000 3.471
30.24000 2.657
30.26000 0.473
30.28000 -1.302
30.30000 -3.674
30.32000 -1.027
30.34000 -2.509
30.36000 3.200
30.38000 6.225
30.40000 4.263
30.42000 2.426
30.44000 4.877
30.46000 2.954
30.48000 4.764
30.50000 2.227
30.52000 -1.586
30.54000 -0.063
30.56000 1.664
30.58000 -2.304
30.60000 -1.062
30.62000 7.951
30.64000 4.933
30.66000 3.788
30.68000 0.565
30.70000 -0.334
30.72000 0.470
30.74000 3.446
30.76000 4.011
30.78000 1.608
30.80000 0.378
30.82000 3.942
30.84000 3.299
30.86000 6.147
30.88000 1.533
30.90000 3.130
30.92000 7.223
30.94000 5.121
30.96000 -1.240
30.98000 -3.633
31.00000 3.361
31.02000 7.916
31.04000 0.946
31.06000 -1.747
31.08000 2.846
31.10000 4.305
31.12000 7.057
31.14000 6.773
31.16000 6.799
31.18000 3.977
31.20000 0.792
31.22000 7.306
31.24000 7.414
31.26000 4.231
31.28000 5.711
31.30000 2.047
31.32000 6.192
31.34000 11.406
31.36000 10.383
31.38000 4.084
31.40000 1.023
31.42000 0.866
31.44000 2.360
31.46000 1.935
31.48000 6.999
31.50000 5.074
31.52000 5.127
31.54000 3.155
31.56000 4.139
31.58000 -0.645
31.60000 -1.390
31.62000 -3.600
31.64000 -2.006
31.66000 4.534
31.68000 4.955
31.70000 4.521
31.72000 0.643
31.74000 1.290
31.76000 7.753
31.78000 3.476
31.80000 0.829
31.82000 -0.207
31.84000 2.956
31.86000 -2.419
31.88000 -3.590
31.90000 3.086
31.92000 3.600
31.94000 -1.902
31.96000 -1.699
31.98000 7.015
32.00000 5.989
32.02000 -0.408
32.04000 -1.506
32.06000 -0.893
32.08000 -0.886
32.10000 6.218
32.12000 8.428
32.14000 0.169
32.16000 -3.591
32.18000 0.494
32.20000 2.317
32.22000 -1.089
32.24000 5.584
32.26000 5.926
32.28000 -0.600
32.30000 -0.682
32.32000 6.409
32.34000 6.457
32.36000 3.331
32.38000 0.057
32.40000 -0.026
32.42000 1.983
32.44000 7.198
32.46000 1.885
32.48000 0.657
32.50000 1.469
32.52000 -3.201
32.54000 -1.752
32.56000 2.580
32.58000 1.366
32.60000 4.043
32.62000 10.536
32.64000 8.343
32.66000 3.707
32.68000 3.880
32.70000 9.376
32.72000 3.027
32.74000 6.657
32.76000 1.879
32.78000 4.333
32.80000 4.694
32.82000 -2.771
32.84000 -0.110
32.86000 8.087
32.88000 -0.944
32.90000 -1.549
32.92000 3.053
32.94000 4.137
32.96000 4.395
32.98000 1.262
33.00000 -3.575
33.02000 0.378
33.04000 5.247
33.06000 6.875
33.08000 6.110
33.10000 1.577
33.12000 -1.726
33.14000 -1.756
33.16000 2.807
33.18000 0.708
33.20000 1.691
33.22000 -0.160
33.24000 1.001
33.26000 3.475
33.28000 1.949
33.30000 -2.798
33.32000 -0.188
33.34000 -2.426
33.36000 0.390
33.38000 0.816
33.40000 -0.403
33.42000 4.508
33.44000 3.718
33.46000 -2.780
33.48000 -1.047
33.50000 -0.500
33.52000 2.450
33.54000 0.158
33.56000 1.546
33.58000 6.732
33.60000 5.592
33.62000 0.966
33.64000 2.482
33.66000 3.659
33.68000 2.877
33.70000 7.018
33.72000 5.295
33.74000 -0.639
33.76000 -0.664
33.78000 -1.394
33.80000 0.799
33.82000 -0.496
33.84000 3.786
33.86000 5.464
33.88000 4.388
33.90000 2.531
33.92000 -1.053
33.94000 -2.350
33.96000 0.187
33.98000 7.073
34.00000 2.257
34.02000 1.477
34.04000 6.114
34.06000 7.702
34.08000 8.085
34.10000 0.840
34.12000 -0.876
34.14000 3.708
34.16000 9.669
34.18000 10.808
34.20000 10.337
34.22000 4.843
34.24000 3.831
34.26000 1.554
34.28000 2.798
34.30000 5.972
34.32000 -1.331
34.34000 -1.013
34.36000 3.099
34.38000 2.801
34.40000 -2.587
34.42000 -2.814
34.44000 1.927
34.46000 1.018
34.48000 1.780
34.50000 0.548
34.52000 -1.135
34.54000 -2.551
34.56000 -3.544
34.58000 2.663
34.60000 6.263
34.62000 3.189
34.64000 3.212
34.66000 1.538
34.68000 0.667
34.70000 -0.258
34.72000 0.867
34.74000 3.127
34.76000 0.436
34.78000 1.303
34.80000 1.171
34.82000 5.955
34.84000 1.234
34.86000 0.576
34.88000 4.410
34.90000 4.157
34.92000 5.888
34.94000 2.907
34.96000 3.900
34.98000 6.340
35.00000 2.387
35.02000 0.600
35.04000 2.216
35.06000 2.348
35.08000 4.095
35.10000 4.476
35.12000 1.772
35.14000 1.797
35.16000 1.931
35.18000 -3.223
35.20000 -2.659
35.22000 -3.513
35.24000 -0.610
35.26000 -0.579
35.28000 5.313
35.30000 5.419
35.32000 5.618
35.34000 3.574
35.36000 1.640
35.38000 3.608
35.40000 5.752
35.42000 3.646
35.44000 1.944
35.46000 2.549
35.48000 1.733
35.50000 4.425
35.52000 3.209
35.54000 2.668
35.56000 0.486
35.58000 -2.308
35.60000 -0.102
35.62000 -1.288
35.64000 1.823
35.66000 0.792
35.68000 -0.258
35.70000 5.613
35.72000 4.566
35.74000 5.022
35.76000 2.203
35.78000 -3.500
35.80000 0.599
35.82000 1.912
35.84000 2.225
35.86000 5.467
35.88000 4.647
35.90000 1.515
35.92000 -0.506
35.94000 -2.806
35.96000 -0.607
35.98000 1.043
36.00000 0.235
36.02000 -2.890
36.04000 -1.782
36.06000 -0.558
36.08000 3.561
36.10000 5.343
36.12000 1.857
36.14000 0.062
36.16000 1.634
36.18000 3.096
36.20000 6.230
36.22000 9.709
36.24000 10.280
36.26000 7.102
36.28000 6.413
36.30000 7.122
36.32000 1.783
36.34000 -2.469
36.36000 2.198
36.38000 -1.695
36.40000 3.518
36.42000 11.056
36.44000 4.999
36.46000 -0.140
36.48000 -0.133
36.50000 2.792
36.52000 1.845
36.54000 3.212
36.56000 -3.503
36.58000 -1.659
36.60000 4.032
36.62000 3.534
36.64000 1.053
36.66000 5.873
36.68000 3.503
36.70000 0.184
36.72000 -1.227
36.74000 1.895
36.76000 7.083
36.78000 3.106
36.80000 2.784
36.82000 2.613
36.84000 4.040
36.86000 2.867
36.88000 3.785
36.90000 5.565
36.92000 -0.225
36.94000 2.172
36.96000 -0.363
36.98000 2.038
37.00000 3.794
37.02000 2.845
37.04000 4.000
37.06000 3.123
37.08000 -0.440
37.10000 4.132
37.12000 1.835
37.14000 -0.737
37.16000 6.607
37.18000 9.110
37.20000 3.078
37.22000 2.793
37.24000 5.020
37.26000 10.296
37.28000 2.543
37.30000 -1.428
37.32000 -2.190
37.34000 -2.013
37.36000 -2.537
37.38000 -1.243
37.40000 3.234
37.42000 4.049
37.44000 3.379
37.46000 3.620
37.48000 2.258
37.50000 -3.552
37.52000 -2.476
37.54000 -0.071
37.56000 3.478
37.58000 5.563
37.60000 7.109
37.62000 10.680
37.64000 9.689
37.66000 6.368
37.68000 3.134
37.70000 5.190
37.72000 3.517
37.74000 4.012
37.76000 7.725
37.78000 4.577
37.80000 2.379
37.82000 8.135
37.84000 7.448
37.86000 5.452
37.88000 8.179
37.90000 4.202
37.92000 6.941
37.94000 8.633
37.96000 1.580
37.98000 2.900
38.00000 6.912
38.02000 6.873
38.04000 11.314
38.06000 13.310
38.08000 13.379
38.10000 13.916
38.12000 16.061
38.14000 16.487
38.16000 13.500
38.18000 12.986
38.20000 17.497
38.22000 20.208
38.24000 16.564
38.26000 15.006
38.28000 15.568
38.30000 17.049
38.32000 14.737
38.34000 11.863
38.36000 17.505
38.38000 14.456
38.40000 13.357
38.42000 19.297
38.44000 24.775
38.46000 18.968
38.48000 21.445
38.50000 21.231
38.52000 22.021
38.54000 21.949
38.56000 19.862
38.58000 20.815
38.60000 19.317
38.62000 21.907
38.64000 20.609
38.66000 23.497
38.68000 24.492
38.70000 24.383
38.72000 26.491
38.74000 27.800
38.76000 24.391
38.78000 28.347
38.80000 24.821
38.82000 33.543
38.84000 37.051
38.86000 31.443
38.88000 29.200
38.90000 32.846
38.92000 36.066
38.94000 39.720
38.96000 42.912
38.98000 38.706
39.00000 38.531
39.02000 40.226
39.04000 38.802
39.06000 42.755
39.08000 45.302
39.10000 48.639
39.12000 50.509
39.14000 48.461
39.16000 47.872
39.18000 53.738
39.20000 56.507
39.22000 63.563
39.24000 66.999
39.26000 67.380
39.28000 69.308
39.30000 72.024
39.32000 73.072
39.34000 81.648
39.36000 86.686
39.38000 87.844
39.40000 88.988
39.42000 95.747
39.44000 98.366
39.46000 98.853
39.48000 105.870
39.50000 107.678
39.52000 115.854
39.54000 124.781
39.56000 130.328
39.58000 140.589
39.60000 146.693
39.62000 150.487
39.64000 152.802
39.66000 166.790
39.68000 171.835
39.70000 182.642
39.72000 199.643
39.74000 207.247
39.76000 212.791
39.78000 226.997
39.80000 242.457
39.82000 251.208
39.84000 266.398
39.86000 280.442
39.88000 290.197
39.90000 316.771
39.92000 332.229
39.94000 345.593
39.96000 368.831
39.98000 393.808
40.00000 407.306
40.02000 428.994
40.04000 449.583
40.06000 475.252
40.08000 506.936
40.10000 529.373
40.12000 544.407
40.14000 563.845
40.16000 579.892
40.18000 586.098
40.20000 612.806
40.22000 628.826
40.24000 650.207
40.26000 663.284
40.28000 664.704
40.30000 677.647
40.32000 684.338
40.34000 690.864
40.36000 684.858
40.38000 681.691
40.40000 685.130
40.42000 693.628
40.44000 676.933
40.46000 670.938
40.48000 656.361
40.50000 648.691
40.52000 627.834
40.54000 614.888
40.56000 609.573
40.58000 589.558
40.60000 572.167
40.62000 554.571
40.64000 540.116
40.66000 512.682
40.68000 491.142
40.70000 473.026
40.72000 451.785
40.74000 435.092
40.76000 423.759
40.78000 401.516
40.80000 384.071
40.82000 364.829
40.84000 342.859
40.86000 320.700
40.88000 316.277
40.90000 300.767
40.92000 280.810
40.94000 260.225
40.96000 244.915
40.98000 239.045
41.00000 228.473
41.02000 217.540
41.04000 206.510
41.06000 189.899
41.08000 175.341
41.10000 164.159
41.12000 156.321
41.14000 151.412
41.16000 147.572
41.18000 143.308
41.20000 129.415
41.22000 120.724
41.24000 119.494
41.26000 113.349
41.28000 106.359
41.30000 100.562
41.32000 101.121
41.34000 95.260
41.36000 86.759
41.38000 79.088
41.40000 74.295
41.42000 73.087
41.44000 66.315
41.46000 67.701
41.48000 66.900
41.50000 62.800
41.52000 64.474
41.54000 56.569
41.56000 53.572
41.58000 53.185
41.60000 52.257
41.62000 46.189
41.64000 43.485
41.66000 42.566
41.68000 36.020
41.70000 39.957
41.72000 40.079
41.74000 33.959
41.76000 35.569
41.78000 31.857
41.80000 32.485
41.82000 32.611
41.84000 26.630
41.86000 25.049
41.88000 24.697
41.90000 20.988
41.92000 22.393
41.94000 19.688
41.96000 25.558
41.98000 23.527
42.00000 18.510
42.02000 19.508
42.04000 18.659
42.06000 19.685
42.08000 18.178
42.10000 14.594
42.12000 15.987
42.14000 18.531
42.16000 17.872
42.18000 13.998
42.20000 12.877
42.22000 12.911
42.24000 9.824
42.26000 8.758
42.28000 8.153
42.30000 7.085
42.32000 8.329
42.34000 7.605
42.36000 11.793
42.38000 11.234
42.40000 6.534
42.42000 6.206
42.44000 7.626
42.46000 6.928
42.48000 3.567
42.50000 5.227
42.52000 6.388
42.54000 7.511
42.56000 9.929
42.58000 8.347
42.60000 5.020
42.62000 3.791
42.64000 6.150
42.66000 2.672
42.68000 4.047
42.70000 4.461
42.72000 3.053
42.74000 2.921
42.76000 3.183
42.78000 5.832
42.80000 4.915
42.82000 2.234
42.84000 5.238
42.86000 6.745
42.88000 3.329
42.90000 4.198
42.92000 2.157
42.94000 3.743
42.96000 1.523
42.98000 1.094
43.00000 1.688
43.02000 0.057
43.04000 1.721
43.06000 5.430
43.08000 9.049
43.10000 3.787
43.12000 3.551
43.14000 1.130
43.16000 -1.548
43.18000 1.022
43.20000 5.689
43.22000 0.528
43.24000 1.150
43.26000 7.503
43.28000 4.545
43.30000 5.769
43.32000 7.185
43.34000 4.560
43.36000 2.595
43.38000 2.621
43.40000 0.818
43.42000 -3.383
43.44000 -0.737
43.46000 5.075
43.48000 8.535
43.50000 7.930
43.52000 7.353
43.54000 2.798
43.56000 1.487
43.58000 2.742
43.60000 0.322
43.62000 2.653
43.64000 -0.751
43.66000 1.723
43.68000 3.349
43.70000 4.302
43.72000 -0.467
43.74000 -0.766
43.76000 -1.101
43.78000 -1.607
43.80000 -2.720
43.82000 1.403
43.84000 1.638
43.86000 3.296
43.88000 1.853
43.90000 2.314
43.92000 -0.450
43.94000 -1.577
43.96000 0.372
43.98000 0.420
44.00000 -1.527
44.02000 -3.097
44.04000 0.648
44.06000 3.633
44.08000 1.047
44.10000 -3.372
44.12000 -0.192
44.14000 4.338
44.16000 2.795
44.18000 2.128
44.20000 3.730
44.22000 0.145
44.24000 -2.589
44.26000 0.319
44.28000 1.028
44.30000 0.133
44.32000 0.296
44.34000 2.353
44.36000 2.665
44.38000 0.852
44.40000 5.255
44.42000 6.331
44.44000 0.387
44.46000 -1.571
44.48000 -0.482
44.50000 0.131
44.52000 -3.015
44.54000 -0.241
44.56000 2.699
44.58000 -2.836
44.60000 0.168
44.62000 1.246
44.64000 -0.139
44.66000 -0.670
44.68000 3.388
44.70000 5.109
44.72000 3.280
44.74000 -3.357
44.76000 -0.073
44.78000 -2.580
44.80000 -2.895
44.82000 1.488
44.84000 2.849
44.86000 2.455
44.88000 -1.318
44.90000 4.749
44.92000 -1.588
44.94000 0.823
44.96000 4.220
44.98000 0.589
45.00000 1.772
45.02000 3.805
45.04000 2.207
45.06000 0.402
45.08000 -2.557
45.10000 5.187
45.12000 8.293
45.14000 4.876
45.16000 0.320
45.18000 -2.311
45.20000 -1.703
45.22000 2.236
45.24000 5.010
45.26000 2.332
45.28000 1.499
45.30000 3.936
45.32000 4.608
45.34000 5.240
45.36000 6.526
45.38000 5.855
45.40000 9.373
45.42000 5.814
45.44000 3.145
45.46000 5.015
45.48000 6.434
45.50000 3.741
45.52000 5.422
45.54000 11.617
45.56000 12.962
45.58000 12.697
45.60000 12.526
45.62000 11.684
45.64000 16.709
45.66000 14.745
45.68000 10.432
45.70000 14.804
45.72000 16.009
45.74000 20.504
45.76000 21.196
45.78000 21.463
45.80000 25.407
45.82000 20.945
45.84000 20.414
45.86000 20.484
45.88000 21.596
45.90000 26.387
45.92000 26.766
45.94000 27.276
45.96000 25.335
45.98000 28.935
46.00000 30.184
46.02000 34.564
46.04000 36.828
46.06000 37.460
46.08000 38.274
46.10000 37.866
46.12000 37.842
46.14000 34.704
46.16000 42.007
46.18000 47.492
46.20000 49.118
46.22000 49.733
46.24000 54.303
46.26000 53.780
46.28000 54.938
46.30000 50.713
46.32000 53.295
46.34000 58.410
46.36000 61.952
46.38000 69.455
46.40000 65.955
46.42000 67.434
46.44000 73.311
46.46000 70.143
46.48000 74.240
46.50000 84.572
46.52000 85.134
46.54000 84.450
46.56000 90.045
46.58000 92.295
46.60000 91.100
46.62000 96.149
46.64000 95.323
46.66000 93.124
46.68000 96.251
46.70000 103.250
46.72000 109.187
46.74000 116.289
46.76000 110.178
46.78000 104.571
46.80000 114.049
46.82000 120.626
46.84000 122.333
46.86000 115.422
46.88000 113.666
46.90000 118.036
46.92000 119.057
46.94000 123.878
46.96000 131.462
46.98000 122.816
47.00000 127.349
47.02000 124.566
47.04000 128.715
47.06000 124.876
47.08000 118.161
47.10000 120.574
47.12000 125.264
47.14000 126.877
47.16000 129.041
47.18000 121.863
47.20000 120.550
47.22000 115.066
47.24000 110.730
47.26000 111.689
47.28000 112.841
47.30000 103.995
47.32000 101.274
47.34000 104.953
47.36000 103.638
47.38000 98.257
47.40000 91.339
47.42000 85.443
47.44000 84.338
47.46000 90.115
47.48000 85.472
47.50000 78.394
47.52000 76.168
47.54000 70.553
47.56000 64.314
47.58000 61.400
47.60000 65.875
47.62000 63.141
47.64000 58.516
47.66000 54.103
47.68000 47.059
47.70000 49.736
47.72000 47.245
47.74000 42.047
47.76000 44.823
47.78000 42.670
47.80000 43.424
47.82000 41.481
47.84000 36.247
47.86000 33.785
47.88000 28.689
47.90000 26.006
47.92000 26.869
47.94000 28.170
47.96000 28.798
47.98000 27.805
48.00000 21.475
48.02000 18.777
48.04000 18.823
48.06000 10.691
48.08000 13.505
48.10000 14.316
48.12000 16.134
48.14000 18.986
48.16000 15.919
48.18000 19.323
48.20000 14.409
48.22000 10.237
48.24000 12.852
48.26000 18.184
48.28000 11.893
48.30000 10.497
48.32000 8.148
48.34000 8.492
48.36000 9.621
48.38000 5.772
48.40000 4.576
48.42000 -0.648
48.44000 -0.725
48.46000 2.372
48.48000 4.180
48.50000 8.676
48.52000 10.213
48.54000 8.503
48.56000 4.810
48.58000 3.113
48.60000 4.745
48.62000 5.976
48.64000 5.164
48.66000 6.357
48.68000 4.260
48.70000 3.486
48.72000 1.218
48.74000 -0.735
48.76000 -1.921
48.78000 3.318
48.80000 -2.945
48.82000 -2.310
48.84000 1.358
48.86000 7.366
48.88000 6.798
48.90000 2.576
48.92000 -0.479
48.94000 2.370
48.96000 0.715
48.98000 3.944
49.00000 5.756
49.02000 6.732
49.04000 3.642
49.06000 -0.604
49.08000 3.066
49.10000 4.402
49.12000 3.972
49.14000 2.883
49.16000 1.845
49.18000 5.144
49.20000 6.785
49.22000 -0.024
49.24000 -0.012
49.26000 0.958
49.28000 1.029
49.30000 1.103
49.32000 2.124
49.34000 2.479
49.36000 2.693
49.38000 4.823
49.40000 4.160
49.42000 -0.051
49.44000 -0.166
49.46000 -0.824
49.48000 2.444
49.50000 3.356
49.52000 1.985
49.54000 -1.324
49.56000 4.272
49.58000 8.740
49.60000 6.297
49.62000 5.377
49.64000 0.842
49.66000 -0.420
49.68000 -1.147
49.70000 -2.824
49.72000 1.910
49.74000 2.610
49.76000 2.232
49.78000 3.574
49.80000 5.957
49.82000 4.334
49.84000 1.762
49.86000 2.645
49.88000 2.106
49.90000 -1.440
49.92000 -2.739
49.94000 1.298
49.96000 1.798
49.98000 3.590
50.00000 2.394
50.02000 3.144
50.04000 5.459
50.06000 5.397
50.08000 6.046
50.10000 4.753
50.12000 1.929
50.14000 4.354
50.16000 5.005
50.18000 2.330
50.20000 0.423
50.22000 0.422
50.24000 2.687
50.26000 2.585
50.28000 1.270
50.30000 0.493
50.32000 1.933
50.34000 0.141
50.36000 1.671
50.38000 3.496
50.40000 1.487
50.42000 2.446
50.44000 -0.759
50.46000 3.927
50.48000 7.154
50.50000 4.062
50.52000 4.035
50.54000 -2.739
50.56000 -2.574
50.58000 2.484
50.60000 6.557
50.62000 5.132
50.64000 4.032
50.66000 1.136
50.68000 0.742
50.70000 -0.537
50.72000 1.370
50.74000 1.347
50.76000 0.429
50.78000 2.425
50.80000 4.701
50.82000 2.298
50.84000 0.715
50.86000 0.968
50.88000 -0.933
50.90000 4.355
50.92000 3.686
50.94000 6.578
50.96000 3.155
50.98000 0.181
51.00000 -1.680
51.02000 2.114
51.04000 3.520
51.06000 3.519
51.08000 3.530
51.10000 4.475
51.12000 6.669
51.14000 1.950
51.16000 5.759
51.18000 2.536
51.20000 -2.702
51.22000 -1.731
51.24000 1.215
51.26000 0.313
51.28000 2.259
51.30000 6.093
51.32000 5.117
51.34000 1.685
51.36000 2.980
51.38000 2.313
51.40000 5.319
51.42000 2.686
51.44000 2.739
51.46000 3.570
51.48000 1.766
51.50000 3.124
51.52000 3.878
51.54000 7.005
51.56000 1.781
51.58000 -0.736
51.60000 -2.426
51.62000 3.348
51.64000 5.121
51.66000 4.469
51.68000 3.219
51.70000 6.645
51.72000 9.604
51.74000 -0.977
51.76000 0.689
51.78000 1.406
51.80000 1.550
51.82000 0.913
51.84000 3.096
51.86000 -0.041
51.88000 -2.674
51.90000 -0.586
51.92000 2.897
51.94000 2.425
51.96000 3.904
51.98000 0.355
52.00000 1.182
52.02000 2.394
52.04000 6.872
52.06000 7.711
52.08000 6.551
52.10000 2.453
52.12000 4.839
52.14000 5.187
52.16000 0.425
52.18000 -2.663
52.20000 -1.005
52.22000 6.316
52.24000 5.424
52.26000 4.522
52.28000 5.238
52.30000 0.599
52.32000 -2.426
52.34000 2.108
52.36000 1.602
52.38000 2.832
52.40000 1.180
52.42000 0.544
52.44000 4.324
52.46000 4.113
52.48000 0.375
52.50000 2.411
52.52000 1.092
52.54000 2.096
52.56000 -0.290
52.58000 0.394
52.60000 1.548
52.62000 0.092
52.64000 3.036
52.66000 2.112
52.68000 1.447
52.70000 -1.737
52.72000 0.917
52.74000 2.420
52.76000 5.119
52.78000 5.041
52.80000 3.935
52.82000 4.243
52.84000 1.878
52.86000 1.482
52.88000 -0.122
52.90000 2.431
52.92000 4.995
52.94000 4.315
52.96000 0.456
52.98000 -1.825
53.00000 -2.639
53.02000 -2.528
53.04000 -1.048
53.06000 -2.430
53.08000 1.710
53.10000 0.368
53.12000 -1.365
53.14000 0.751
53.16000 4.973
53.18000 7.079
53.20000 5.946
53.22000 1.768
53.24000 5.424
53.26000 4.033
53.28000 -2.600
53.30000 -0.429
53.32000 0.898
53.34000 2.595
53.36000 4.145
53.38000 4.587
53.40000 1.302
53.42000 2.940
53.44000 -1.445
53.46000 -1.651
53.48000 2.057
53.50000 4.367
53.52000 1.895
53.54000 2.262
53.56000 6.903
53.58000 3.498
53.60000 3.163
53.62000 -0.757
53.64000 0.074
53.66000 3.268
53.68000 0.785
53.70000 -0.369
53.72000 -2.113
53.74000 -0.631
53.76000 -0.486
53.78000 0.875
53.80000 2.402
53.82000 -0.247
53.84000 0.999
53.86000 1.301
53.88000 -0.875
53.90000 -0.227
53.92000 1.627
53.94000 0.632
53.96000 2.178
53.98000 2.470
54.00000 4.013
54.02000 2.372
54.04000 3.629
54.06000 0.841
54.08000 2.891
54.10000 -1.393
54.12000 -2.186
54.14000 1.771
54.16000 4.035
54.18000 6.152
54.20000 3.722
54.22000 -0.041
54.24000 5.406
54.26000 7.012
54.28000 5.314
54.30000 3.799
54.32000 1.411
54.34000 2.995
54.36000 -2.591
54.38000 -0.893
54.40000 -0.303
54.42000 -0.213
54.44000 -2.464
54.46000 -2.507
54.48000 0.531
54.50000 -1.295
54.52000 0.052
54.54000 2.321
54.56000 5.607
54.58000 5.325
54.60000 4.400
54.62000 1.723
54.64000 5.271
54.66000 6.494
54.68000 5.463
54.70000 3.484
54.72000 1.342
54.74000 4.310
54.76000 9.050
54.78000 9.671
54.80000 6.688
54.82000 1.309
54.84000 3.008
54.86000 3.550
54.88000 4.863
54.90000 2.667
54.92000 0.976
54.94000 0.090
54.96000 -2.552
54.98000 4.880
55.00000 5.724
55.02000 5.233
55.04000 6.130
55.06000 6.474
55.08000 11.763
55.10000 8.974
55.12000 5.334
55.14000 6.140
55.16000 7.859
55.18000 7.388
55.20000 7.089
55.22000 8.038
55.24000 6.917
55.26000 4.185
55.28000 5.173
55.30000 4.042
55.32000 2.492
55.34000 -1.059
55.36000 -0.389
55.38000 3.494
55.40000 4.677
55.42000 0.324
55.44000 4.290
55.46000 5.754
55.48000 3.920
55.50000 5.539
55.52000 5.148
55.54000 2.643
55.56000 4.556
55.58000 4.376
55.60000 5.370
55.62000 2.764
55.64000 3.001
55.66000 4.953
55.68000 1.954
55.70000 5.506
55.72000 2.270
55.74000 -1.808
55.76000 -0.565
55.78000 2.831
55.80000 6.223
55.82000 4.377
55.84000 3.074
55.86000 0.343
55.88000 2.542
55.90000 4.394
55.92000 1.218
55.94000 1.591
55.96000 3.909
55.98000 4.066
56.00000 2.968
56.02000 -0.393
56.04000 1.254
56.06000 8.218
56.08000 2.939
56.10000 2.920
56.12000 4.083
56.14000 3.650
56.16000 2.913
56.18000 3.534
56.20000 5.055
56.22000 1.005
56.24000 1.345
56.26000 0.272
56.28000 2.693
56.30000 3.184
56.32000 4.373
56.34000 3.377
56.36000 1.617
56.38000 2.405
56.40000 4.963
56.42000 6.392
56.44000 1.843
56.46000 0.953
56.48000 8.655
56.50000 7.185
56.52000 3.041
56.54000 -2.529
56.56000 -1.945
56.58000 2.422
56.60000 0.762
56.62000 2.395
56.64000 6.179
56.66000 2.024
56.68000 2.661
56.70000 1.083
56.72000 1.624
56.74000 0.970
56.76000 -0.742
56.78000 0.652
56.80000 1.071
56.82000 1.888
56.84000 1.808
56.86000 2.854
56.88000 3.450
56.90000 5.622
56.92000 4.462
56.94000 4.229
56.96000 4.324
56.98000 4.835
57.00000 0.954
57.02000 1.063
57.04000 3.198
57.06000 1.194
57.08000 2.573
57.10000 2.519
57.12000 3.572
57.14000 1.928
57.16000 3.043
57.18000 6.130
57.20000 6.385
57.22000 1.308
57.24000 -2.500
57.26000 -0.480
57.28000 0.041
57.30000 6.072
57.32000 5.282
57.34000 3.107
57.36000 5.407
57.38000 3.089
57.40000 1.052
57.42000 3.612
57.44000 3.217
57.46000 5.654
57.48000 0.151
57.50000 0.617
57.52000 1.602
57.54000 8.435
57.56000 5.680
57.58000 0.718
57.60000 -0.807
57.62000 4.586
57.64000 5.898
57.66000 3.922
57.68000 3.814
57.70000 3.939
57.72000 2.996
57.74000 2.814
57.76000 5.195
57.78000 4.606
57.80000 7.868
57.82000 2.476
57.84000 -0.510
57.86000 1.230
57.88000 7.196
57.90000 7.652
57.92000 6.400
57.94000 4.752
57.96000 5.028
57.98000 4.109
58.00000 7.332
58.02000 0.527
58.04000 0.577
58.06000 1.094
58.08000 1.135
58.10000 0.757
58.12000 -0.321
58.14000 0.802
58.16000 -2.480
58.18000 1.232
58.20000 0.433
58.22000 1.505
58.24000 0.155
58.26000 -1.661
58.28000 4.734
58.30000 4.315
58.32000 3.373
58.34000 4.553
58.36000 1.741
58.38000 0.237
58.40000 -0.496
58.42000 -0.236
58.44000 3.756
58.46000 7.671
58.48000 4.504
58.50000 4.427
58.52000 0.792
58.54000 2.331
58.56000 4.876
58.58000 1.861
58.60000 2.614
58.62000 2.050
58.64000 2.751
58.66000 5.883
58.68000 1.191
58.70000 -0.073
58.72000 3.633
58.74000 -0.244
58.76000 3.280
58.78000 3.554
58.80000 -0.520
58.82000 2.194
58.84000 1.731
58.86000 -0.885
58.88000 0.551
58.90000 4.761
58.92000 0.646
58.94000 2.577
58.96000 3.419
58.98000 0.833
59.00000 1.572
59.02000 1.268
59.04000 2.866
59.06000 4.445
59.08000 3.866
59.10000 0.469
59.12000 -1.965
59.14000 0.622
59.16000 2.444
59.18000 1.370
59.20000 3.055
59.22000 0.022
59.24000 -2.465
59.26000 1.097
59.28000 0.045
59.30000 3.364
59.32000 3.464
59.34000 2.393
59.36000 2.830
59.38000 0.317
59.40000 4.759
59.42000 5.723
59.44000 2.593
59.46000 0.996
59.48000 0.226
59.50000 2.645
59.52000 1.292
59.54000 2.928
59.56000 2.109
59.58000 4.226
59.60000 1.607
59.62000 0.014
59.64000 1.156
59.66000 0.690
59.68000 1.385
59.70000 3.096
59.72000 -1.387
59.74000 -1.182
59.76000 2.631
59.78000 4.564
59.80000 -0.089
59.82000 -2.464
59.84000 -0.447
59.86000 1.886
59.88000 6.900
59.90000 4.524
59.92000 0.187
59.94000 -1.645
59.96000 -0.355
59.98000 -1.029
60.00000 2.631
60.02000 -0.801
60.04000 2.745
60.06000 2.981
60.08000 -1.290
60.10000 0.365
60.12000 -1.724
60.14000 -2.053
60.16000 0.106
60.18000 1.898
60.20000 1.135
60.22000 -0.241
60.24000 0.878
60.26000 2.663
60.28000 -0.452
60.30000 -2.454
60.32000 2.068
60.34000 2.387
60.36000 -0.715
60.38000 2.974
60.40000 1.445
60.42000 -1.271
60.44000 0.360
60.46000 -0.310
60.48000 -1.330
60.50000 1.058
60.52000 0.277
60.54000 -1.899
60.56000 1.599
60.58000 -0.308
60.60000 1.216
60.62000 1.585
60.64000 -1.652
60.66000 -1.769
60.68000 2.273
60.70000 4.837
60.72000 1.573
60.74000 -1.795
60.76000 -0.660
60.78000 1.207
60.80000 2.251
60.82000 -0.291
60.84000 0.573
60.86000 -2.427
60.88000 -0.647
60.90000 0.026
60.92000 3.718
60.94000 3.669
60.96000 3.375
60.98000 2.609
61.00000 3.462
61.02000 0.791
61.04000 2.839
61.06000 0.068
61.08000 -1.783
61.10000 -0.854
61.12000 -0.072
61.14000 -0.598
61.16000 -0.591
61.18000 -2.133
61.20000 0.420
61.22000 3.089
61.24000 0.509
61.26000 0.850
61.28000 0.632
61.30000 -0.776
61.32000 1.457
61.34000 4.225
61.36000 4.260
61.38000 -1.351
61.40000 0.232
61.42000 2.455
61.44000 2.050
61.46000 1.722
61.48000 -0.806
61.50000 1.496
61.52000 0.376
61.54000 -0.142
61.56000 -0.930
61.58000 0.111
61.60000 3.247
61.62000 -2.393
61.64000 -1.297
61.66000 0.885
61.68000 -1.453
61.70000 3.023
61.72000 6.860
61.74000 6.338
61.76000 1.579
61.78000 2.590
61.80000 2.580
61.82000 2.488
61.84000 1.222
61.86000 2.727
61.88000 1.481
61.90000 6.176
61.92000 4.088
61.94000 -1.589
61.96000 -1.984
61.98000 -2.386
62.00000 -1.722
62.02000 2.759
62.04000 2.637
62.06000 4.523
62.08000 2.910
62.10000 2.656
62.12000 2.654
62.14000 2.796
62.16000 3.037
62.18000 1.578
62.20000 -1.391
62.22000 -1.627
62.24000 -1.765
62.26000 -0.218
62.28000 0.074
62.30000 3.112
62.32000 1.482
62.34000 4.762
62.36000 2.340
62.38000 -0.120
62.40000 1.012
62.42000 0.643
62.44000 0.315
62.46000 -0.886
62.48000 -2.314
62.50000 -2.397
62.52000 -0.361
62.54000 3.506
62.56000 2.435
62.58000 4.974
62.60000 3.079
62.62000 -1.271
62.64000 -1.031
62.66000 -1.908
62.68000 -0.639
62.70000 0.970
62.72000 2.382
62.74000 4.017
62.76000 1.803
62.78000 1.029
62.80000 0.875
62.82000 -0.410
62.84000 0.635
62.86000 2.789
62.88000 -0.307
62.90000 -1.872
62.92000 1.900
62.94000 -0.882
62.96000 -1.996
62.98000 0.917
63.00000 -0.547
63.02000 0.742
63.04000 2.087
63.06000 -1.448
63.08000 -0.504
63.10000 -0.834
63.12000 -2.401
63.14000 -1.011
63.16000 3.464
63.18000 3.061
63.20000 -0.281
63.22000 -0.048
63.24000 -0.766
63.26000 0.230
63.28000 1.081
63.30000 -1.271
63.32000 -2.372
63.34000 1.341
63.36000 2.037
63.38000 0.293
63.40000 -0.667
63.42000 -2.099
63.44000 0.166
63.46000 1.699
63.48000 -0.643
63.50000 0.006
63.52000 0.189
63.54000 -2.007
63.56000 2.601
63.58000 1.808
63.60000 0.214
63.62000 0.971
63.64000 0.815
63.66000 0.253
63.68000 0.365
63.70000 1.742
63.72000 0.776
63.74000 1.580
63.76000 -0.640
63.78000 2.810
63.80000 2.450
63.82000 1.707
63.84000 0.468
63.86000 2.335
63.88000 1.210
63.90000 1.031
63.92000 2.587
63.94000 1.931
63.96000 -0.420
63.98000 -0.186
64.00000 1.975
64.02000 1.614
64.04000 -0.717
64.06000 -1.087
64.08000 1.092
64.10000 -2.391
64.12000 -0.376
64.14000 1.268
64.16000 -0.438
64.18000 -0.408
64.20000 1.907
64.22000 1.493
64.24000 0.628
64.26000 1.180
64.28000 2.075
64.30000 2.846
64.32000 1.478
64.34000 1.347
64.36000 3.265
64.38000 2.755
64.40000 2.361
64.42000 5.799
64.44000 5.551
64.46000 3.749
64.48000 0.949
64.50000 -2.371
64.52000 -0.788
64.54000 0.451
64.56000 4.004
64.58000 1.923
64.60000 3.590
64.62000 3.193
64.64000 2.487
64.66000 0.321
64.68000 2.048
64.70000 3.767
64.72000 2.270
64.74000 0.896
64.76000 2.163
64.78000 1.973
64.80000 1.989
64.82000 5.460
64.84000 1.651
64.86000 -0.113
64.88000 1.873
64.90000 1.976
64.92000 -0.729
64.94000 1.909
64.96000 3.218
64.98000 1.140
65.00000 -0.168
65.02000 -1.069
65.04000 2.563
65.06000 3.846
65.08000 0.625
65.10000 -1.323
65.12000 0.089
65.14000 0.551
65.16000 1.527
65.18000 2.157
65.20000 0.111
65.22000 1.917
65.24000 5.001
65.26000 5.187
65.28000 4.373
65.30000 1.613
65.32000 0.570
65.34000 2.374
65.36000 6.747
65.38000 4.521
65.40000 3.652
65.42000 0.672
65.44000 0.533
65.46000 -1.284
65.48000 -0.150
65.50000 0.182
65.52000 -2.212
65.54000 1.747
65.56000 -0.502
65.58000 0.201
65.60000 2.426
65.62000 1.042
65.64000 1.503
65.66000 -0.236
65.68000 1.982
65.70000 4.954
65.72000 1.204
65.74000 1.607
65.76000 0.838
65.78000 4.718
65.80000 3.204
65.82000 2.527
65.84000 5.070
65.86000 3.350
65.88000 0.354
65.90000 1.012
65.92000 0.355
65.94000 1.457
65.96000 1.611
65.98000 4.013
66.00000 2.835
66.02000 3.031
66.04000 2.395
66.06000 0.692
66.08000 0.947
66.10000 -0.035
66.12000 -2.374
66.14000 1.501
66.16000 4.759
66.18000 3.511
66.20000 1.551
66.22000 2.908
66.24000 1.048
66.26000 1.462
66.28000 4.253
66.30000 1.594
66.32000 1.050
66.34000 5.208
66.36000 5.895
66.38000 1.122
66.40000 2.599
66.42000 1.876
66.44000 -0.140
66.46000 0.775
66.48000 4.839
66.50000 0.231
66.52000 -0.402
66.54000 1.946
66.56000 0.580
66.58000 -1.366
66.60000 -0.947
66.62000 1.981
66.64000 0.857
66.66000 -2.444
66.68000 -0.925
66.70000 0.000
66.72000 1.514
66.74000 2.086
66.76000 0.264
66.78000 -1.134
66.80000 -0.349
66.82000 -1.885
66.84000 -1.887
66.86000 -2.179
66.88000 3.125
66.90000 1.147
66.92000 0.362
66.94000 1.377
66.96000 0.668
66.98000 0.085
67.00000 -0.115
67.02000 -2.479
67.04000 -0.756
67.06000 0.481
67.08000 -1.379
67.10000 -0.275
67.12000 -1.204
67.14000 1.018
67.16000 1.992
67.18000 1.616
67.20000 2.715
67.22000 1.517
67.24000 1.459
67.26000 2.987
67.28000 2.671
67.30000 4.244
67.32000 5.218
67.34000 1.856
67.36000 0.984
67.38000 3.513
67.40000 0.536
67.42000 3.124
67.44000 4.933
67.46000 6.314
67.48000 6.295
67.50000 3.245
67.52000 1.434
67.54000 3.271
67.56000 4.586
67.58000 2.145
67.60000 3.480
67.62000 7.157
67.64000 4.695
67.66000 4.222
67.68000 6.801
67.70000 9.212
67.72000 8.517
67.74000 9.666
67.76000 8.458
67.78000 9.653
67.80000 8.782
67.82000 9.544
67.84000 8.914
67.86000 8.643
67.88000 10.196
67.90000 6.176
67.92000 9.482
67.94000 13.458
67.96000 15.826
67.98000 14.680
68.00000 9.963
68.02000 11.650
68.04000 13.104
68.06000 13.327
68.08000 15.550
68.10000 15.761
68.12000 15.103
68.14000 18.587
68.16000 15.375
68.18000 18.519
68.20000 17.578
68.22000 18.686
68.24000 21.231
68.26000 21.646
68.28000 20.238
68.30000 21.270
68.32000 21.267
68.34000 20.710
68.36000 25.365
68.38000 27.364
68.40000 27.730
68.42000 25.446
68.44000 27.738
68.46000 24.531
68.48000 28.090
68.50000 30.835
68.52000 24.990
68.54000 26.317
68.56000 29.852
68.58000 31.651
68.60000 31.638
68.62000 32.868
68.64000 34.026
68.66000 35.975
68.68000 31.814
68.70000 28.512
68.72000 29.036
68.74000 33.575
68.76000 29.613
68.78000 25.984
68.80000 29.701
68.82000 30.403
68.84000 27.817
68.86000 23.956
68.88000 25.050
68.90000 32.213
68.92000 29.342
68.94000 30.338
68.96000 25.981
68.98000 28.486
69.00000 26.198
69.02000 23.868
69.04000 24.281
69.06000 21.151
69.08000 16.616
69.10000 18.927
69.12000 20.036
69.14000 19.961
69.16000 18.998
69.18000 17.048
69.20000 18.168
69.22000 18.147
69.24000 12.413
69.26000 11.373
69.28000 13.576
69.30000 13.961
69.32000 10.832
69.34000 12.981
69.36000 12.547
69.38000 9.889
69.40000 10.922
69.42000 13.019
69.44000 11.963
69.46000 9.166
69.48000 5.942
69.50000 5.259
69.52000 10.777
69.54000 8.243
69.56000 6.552
69.58000 5.589
69.60000 6.286
69.62000 7.797
69.64000 2.679
69.66000 1.465
69.68000 2.677
69.70000 2.470
69.72000 4.696
69.74000 11.083
69.76000 5.799
69.78000 0.908
69.80000 2.119
69.82000 1.718
69.84000 3.444
69.86000 5.568
69.88000 5.424
69.90000 5.580
69.92000 5.682
69.94000 2.309
69.96000 1.457
69.98000 3.608
70.00000 4.052
70.02000 1.277
70.04000 -1.774
70.06000 0.231
70.08000 2.807
70.10000 2.914
70.12000 1.728
70.14000 1.651
70.16000 0.416
70.18000 2.755
70.20000 2.853
70.22000 4.529
70.24000 1.653
70.26000 -2.375
70.28000 0.393
70.30000 1.210
70.32000 -0.093
70.34000 0.616
70.36000 1.026
70.38000 -1.487
70.40000 1.956
70.42000 -0.622
70.44000 0.099
70.46000 0.945
70.48000 2.833
70.50000 1.636
70.52000 0.184
70.54000 2.311
70.56000 1.821
70.58000 0.823
70.60000 3.384
70.62000 2.849
70.64000 -1.360
70.66000 3.209
70.68000 5.911
70.70000 2.192
70.72000 1.209
70.74000 0.987
70.76000 1.535
70.78000 2.897
70.80000 2.495
70.82000 1.926
70.84000 4.806
70.86000 2.281
70.88000 0.371
70.90000 2.903
70.92000 4.413
70.94000 3.566
70.96000 2.084
70.98000 3.198
71.00000 4.151
71.02000 5.331
71.04000 3.247
71.06000 1.199
71.08000 5.699
71.10000 6.513
71.12000 0.809
71.14000 -2.270
71.16000 -1.110
71.18000 0.502
71.20000 6.335
71.22000 5.017
71.24000 2.946
71.26000 1.762
71.28000 7.092
71.30000 6.262
71.32000 5.996
71.34000 5.187
71.36000 2.824
71.38000 4.747
71.40000 4.138
71.42000 1.698
71.44000 0.358
71.46000 0.142
71.48000 4.657
71.50000 6.780
71.52000 3.391
71.54000 2.089
71.56000 1.313
71.58000 1.932
71.60000 1.186
71.62000 1.338
71.64000 0.813
71.66000 5.031
71.68000 3.394
71.70000 1.655
71.72000 4.524
71.74000 2.841
71.76000 4.076
71.78000 4.234
71.80000 1.661
71.82000 5.403
71.84000 1.496
71.86000 2.477
71.88000 3.682
71.90000 3.515
71.92000 2.202
71.94000 2.752
71.96000 0.511
71.98000 -1.060
72.00000 0.881
72.02000 3.073
72.04000 4.038
72.06000 1.533
72.08000 -0.598
72.10000 1.190
72.12000 2.572
72.14000 3.196
72.16000 2.314
72.18000 3.675
72.20000 1.270
72.22000 4.355
72.24000 5.781
72.26000 1.220
72.28000 3.226
72.30000 3.278
72.32000 0.419
72.34000 1.352
72.36000 3.189
72.38000 0.821
72.40000 -0.577
72.42000 0.544
72.44000 4.744
72.46000 3.836
72.48000 1.104
72.50000 2.390
72.52000 1.662
72.54000 5.266
72.56000 7.849
72.58000 7.900
72.60000 5.317
72.62000 0.169
72.64000 -0.546
72.66000 1.325
72.68000 1.553
72.70000 1.561
72.72000 4.614
72.74000 4.396
72.76000 4.478
72.78000 -0.202
72.80000 1.610
72.82000 2.824
72.84000 1.562
72.86000 3.499
72.88000 3.810
72.90000 4.320
72.92000 7.536
72.94000 7.300
72.96000 0.453
72.98000 -2.165
73.00000 4.966
73.02000 4.994
73.04000 5.786
73.06000 8.317
73.08000 7.882
73.10000 5.270
73.12000 6.598
73.14000 4.799
73.16000 4.630
73.18000 2.389
73.20000 2.613
73.22000 6.566
73.24000 3.071
73.26000 1.630
73.28000 4.632
73.30000 4.652
73.32000 4.106
73.34000 5.383
73.36000 4.134
73.38000 4.968
73.40000 7.874
73.42000 9.307
73.44000 6.509
73.46000 3.401
73.48000 4.233
73.50000 7.055
73.52000 -0.206
73.54000 0.649
73.56000 5.949
73.58000 4.753
73.60000 7.946
73.62000 3.542
73.64000 6.007
73.66000 0.618
73.68000 2.457
73.70000 3.356
73.72000 1.965
73.74000 -0.124
73.76000 1.861
73.78000 0.317
73.80000 0.090
73.82000 3.680
73.84000 3.842
73.86000 2.635
73.88000 1.731
73.90000 -1.471
73.92000 1.044
73.94000 2.957
73.96000 3.116
73.98000 4.863
74.00000 -2.200
74.02000 -0.684
74.04000 3.312
74.06000 0.592
74.08000 6.414
74.10000 7.331
74.12000 4.942
74.14000 2.473
74.16000 2.216
74.18000 -1.053
74.20000 2.324
74.22000 1.937
74.24000 1.600
74.26000 0.479
74.28000 0.956
74.30000 5.252
74.32000 4.884
74.34000 2.214
74.36000 0.635
74.38000 4.089
74.40000 1.264
74.42000 -1.060
74.44000 2.714
74.46000 6.279
74.48000 4.692
74.50000 3.476
74.52000 3.126
74.54000 1.754
74.56000 -0.933
74.58000 1.733
74.60000 3.089
74.62000 4.085
74.64000 6.325
74.66000 5.938
74.68000 3.450
74.70000 1.663
74.72000 1.963
74.74000 0.759
74.76000 2.460
74.78000 3.371
74.80000 7.097
74.82000 6.966
74.84000 4.514
74.86000 3.643
74.88000 1.918
74.90000 3.829
74.92000 3.119
74.94000 5.060
74.96000 5.503
74.98000 8.428
75.00000 10.688
75.02000 6.355
75.04000 8.329
75.06000 5.943
75.08000 6.337
75.10000 5.159
75.12000 4.245
75.14000 1.021
75.16000 4.630
75.18000 4.432
75.20000 4.036
75.22000 5.020
75.24000 5.931
75.26000 -2.131
75.28000 0.537
75.30000 4.211
75.32000 5.402
75.34000 8.907
75.36000 7.882
75.38000 6.236
75.40000 7.493
75.42000 7.416
75.44000 4.787
75.46000 4.151
75.48000 3.962
75.50000 2.532
75.52000 -0.757
75.54000 3.033
75.56000 2.607
75.58000 3.747
75.60000 4.269
75.62000 6.304
75.64000 2.839
75.66000 1.221
75.68000 1.593
75.70000 1.605
75.72000 2.424
75.74000 2.920
75.76000 6.847
75.78000 6.196
75.80000 7.202
75.82000 1.408
75.84000 1.680
75.86000 -2.032
75.88000 -0.964
75.90000 5.921
75.92000 4.133
75.94000 3.009
75.96000 4.297
75.98000 1.222
76.00000 -0.918
76.02000 -1.593
76.04000 -1.020
76.06000 -1.780
76.08000 0.883
76.10000 -1.340
76.12000 0.578
76.14000 2.867
76.16000 -0.123
76.18000 -0.216
76.20000 3.038
76.22000 5.305
76.24000 4.912
76.26000 -0.813
76.28000 4.199
76.30000 4.961
76.32000 2.320
76.34000 2.944
76.36000 5.079
76.38000 2.698
76.40000 1.537
76.42000 2.183
76.44000 5.093
76.46000 2.310
76.48000 2.790
76.50000 7.609
76.52000 3.915
76.54000 2.979
76.56000 4.009
76.58000 1.006
76.60000 -0.725
76.62000 0.544
76.64000 3.052
76.66000 3.940
76.68000 5.179
76.70000 7.557
76.72000 3.811
76.74000 9.030
76.76000 8.490
76.78000 2.987
76.80000 -1.155
76.82000 0.264
76.84000 0.811
76.86000 2.915
76.88000 0.976
76.90000 -1.782
76.92000 -2.208
76.94000 0.768
76.96000 1.180
76.98000 6.024
77.00000 3.136
77.02000 2.330
77.04000 5.223
77.06000 3.374
77.08000 -2.211
77.10000 -0.534
77.12000 0.039
77.14000 1.029
77.16000 2.508
77.18000 -0.799
77.20000 -0.263
77.22000 3.266
77.24000 5.743
77.26000 7.006
77.28000 4.667
77.30000 -0.469
77.32000 -2.213
77.34000 -1.548
77.36000 2.211
77.38000 -0.350
77.40000 3.811
77.42000 3.083
77.44000 4.174
77.46000 4.258
77.48000 8.305
77.50000 6.915
77.52000 2.424
77.54000 6.648
77.56000 3.339
77.58000 1.636
77.60000 4.705
77.62000 1.258
77.64000 3.576
77.66000 4.829
77.68000 4.747
77.70000 4.206
77.72000 3.884
77.74000 2.020
77.76000 1.652
77.78000 0.293
77.80000 3.116
77.82000 6.040
77.84000 1.954
77.86000 -0.274
77.88000 2.621
77.90000 0.939
77.92000 -2.254
77.94000 -1.230
77.96000 1.468
77.98000 1.705
78.00000 1.160
78.02000 0.208
78.04000 0.309
78.06000 5.024
78.08000 2.391
78.10000 -0.181
78.12000 2.673
78.14000 2.178
78.16000 -0.226
78.18000 1.809
78.20000 2.573
78.22000 0.792
78.24000 -0.713
78.26000 -0.691
78.28000 1.818
78.30000 4.426
78.32000 0.743
78.34000 0.516
78.36000 0.471
78.38000 0.279
78.40000 0.349
78.42000 2.741
78.44000 2.995
78.46000 0.607
78.48000 0.439
78.50000 2.409
78.52000 2.706
78.54000 -0.121
78.56000 0.262
78.58000 0.155
78.60000 1.863
78.62000 0.151
78.64000 1.684
78.66000 2.809
78.68000 3.501
78.70000 3.454
78.72000 3.144
78.74000 3.318
78.76000 4.403
78.78000 1.605
78.80000 -0.579
78.82000 2.643
78.84000 2.383
78.86000 6.147
78.88000 3.770
78.90000 0.514
78.92000 4.158
78.94000 1.769
78.96000 1.015
78.98000 1.047
79.00000 2.178
79.02000 3.106
79.04000 1.782
79.06000 4.119
79.08000 6.394
79.10000 4.826
79.12000 0.554
79.14000 -1.380
79.16000 0.735
79.18000 3.176
79.20000 3.871
79.22000 4.663
79.24000 1.557
79.26000 -2.239
79.28000 -1.079
79.30000 -1.552
79.32000 1.679
79.34000 3.254
79.36000 1.159
79.38000 2.628
79.40000 4.691
79.42000 3.844
79.44000 3.621
79.46000 4.999
79.48000 1.988
79.50000 -2.237
79.52000 -0.060
79.54000 2.466
79.56000 5.494
79.58000 6.263
79.60000 3.075
79.62000 1.471
79.64000 1.000
79.66000 0.026
79.68000 3.738
79.70000 6.406
79.72000 1.157
79.74000 2.134
79.76000 2.548
79.78000 4.340
79.80000 5.488
79.82000 4.441
79.84000 2.131
79.86000 5.750
79.88000 3.644
79.90000 2.885
79.92000 2.687
79.94000 3.072
79.96000 4.274
79.98000 5.144
80.00000 -0.829
80.02000 -2.250
80.04000 -0.747
80.06000 6.069
80.08000 7.205
80.10000 0.853
80.12000 2.559
80.14000 5.126
80.16000 6.013
80.18000 3.800
80.20000 4.785
80.22000 3.136
80.24000 2.417
80.26000 0.989
80.28000 -2.278
80.30000 0.059
80.32000 0.520
80.34000 5.478
80.36000 5.003
80.38000 4.723
80.40000 4.907
80.42000 0.817
80.44000 4.458
80.46000 7.588
80.48000 0.505
80.50000 -0.559
80.52000 4.359
80.54000 5.991
80.56000 2.385
80.58000 5.816
80.60000 2.805
80.62000 1.243
80.64000 1.257
80.66000 1.441
80.68000 4.293
80.70000 3.632
80.72000 2.346
80.74000 -0.431
80.76000 1.789
80.78000 1.669
80.80000 0.868
80.82000 0.767
80.84000 1.608
80.86000 -0.260
80.88000 0.630
80.90000 -0.449
80.92000 2.118
80.94000 0.723
80.96000 0.922
80.98000 1.157
81.00000 2.495
81.02000 1.687
81.04000 -1.899
81.06000 -1.161
81.08000 1.169
81.10000 0.905
81.12000 0.221
81.14000 0.811
81.16000 -0.438
81.18000 1.486
81.20000 3.109
81.22000 0.404
81.24000 7.847
81.26000 5.288
81.28000 0.400
81.30000 3.438
81.32000 3.116
81.34000 3.963
81.36000 3.741
81.38000 3.859
81.40000 3.500
81.42000 7.775
81.44000 6.506
81.46000 9.242
81.48000 2.324
81.50000 0.675
81.52000 3.621
81.54000 7.562
81.56000 4.764
81.58000 4.910
81.60000 5.744
81.62000 6.358
81.64000 7.155
81.66000 7.872
81.68000 8.171
81.70000 7.953
81.72000 8.421
81.74000 9.975
81.76000 9.838
81.78000 11.934
81.80000 13.606
81.82000 14.231
81.84000 12.331
81.86000 9.595
81.88000 9.709
81.90000 9.949
81.92000 8.464
81.94000 5.591
81.96000 9.541
81.98000 14.454
82.00000 15.806
82.02000 14.499
82.04000 14.265
82.06000 15.839
82.08000 14.838
82.10000 18.508
82.12000 19.809
82.14000 19.266
82.16000 21.734
82.18000 18.129
82.20000 16.959
82.22000 18.982
82.24000 24.246
82.26000 23.823
82.28000 27.282
82.30000 26.153
82.32000 22.199
82.34000 24.704
82.36000 25.836
82.38000 22.443
82.40000 24.110
82.42000 27.528
82.44000 26.118
82.46000 26.316
82.48000 29.124
82.50000 28.264
82.52000 31.184
82.54000 29.579
82.56000 32.270
82.58000 34.253
82.60000 34.051
82.62000 35.237
82.64000 33.148
82.66000 34.388
82.68000 36.699
82.70000 35.046
82.72000 34.439
82.74000 40.275
82.76000 34.704
82.78000 28.997
82.80000 29.500
82.82000 33.058
82.84000 34.812
82.86000 36.618
82.88000 34.819
82.90000 36.400
82.92000 39.151
82.94000 35.376
82.96000 31.019
82.98000 32.088
83.00000 38.044
83.02000 45.137
83.04000 43.910
83.06000 40.686
83.08000 39.371
83.10000 35.101
83.12000 38.702
83.14000 36.819
83.16000 34.370
83.18000 31.284
83.20000 33.519
83.22000 35.004
83.24000 37.740
83.26000 34.831
83.28000 33.625
83.30000 29.500
83.32000 26.745
83.34000 29.666
83.36000 28.986
83.38000 28.372
83.40000 26.382
83.42000 24.074
83.44000 25.035
83.46000 21.992
83.48000 21.762
83.50000 21.534
83.52000 21.053
83.54000 24.179
83.56000 19.449
83.58000 20.923
83.60000 22.225
83.62000 16.167
83.64000 17.145
83.66000 22.420
83.68000 20.643
83.70000 16.639
83.72000 17.380
83.74000 11.785
83.76000 12.184
83.78000 14.236
83.80000 17.868
83.82000 11.503
83.84000 10.411
83.86000 10.215
83.88000 10.571
83.90000 9.812
83.92000 9.171
83.94000 8.553
83.96000 5.535
83.98000 5.923
84.00000 9.088
84.02000 4.983
84.04000 4.562
84.06000 6.124
84.08000 3.633
84.10000 2.967
84.12000 -1.292
84.14000 3.978
84.16000 8.391
84.18000 7.761
84.20000 7.858
84.22000 5.698
84.24000 5.299
84.26000 4.631
84.28000 2.393
84.30000 7.455
84.32000 7.746
84.34000 1.111
84.36000 2.041
84.38000 2.904
84.40000 6.151
84.42000 5.786
84.44000 3.725
84.46000 1.828
84.48000 3.876
84.50000 1.620
84.52000 -2.371
84.54000 -1.605
84.56000 -0.269
84.58000 0.649
84.60000 2.903
84.62000 5.999
84.64000 1.684
84.66000 1.224
84.68000 -1.757
84.70000 -1.616
84.72000 4.900
84.74000 5.538
84.76000 2.365
84.78000 3.525
84.80000 4.834
84.82000 2.420
84.84000 2.472
84.86000 1.190
84.88000 -1.493
84.90000 1.065
84.92000 3.400
84.94000 9.977
84.96000 6.283
84.98000 4.065
85.00000 3.358
85.02000 -0.895
85.04000 -2.298
85.06000 -2.131
85.08000 2.383
85.10000 3.559
85.12000 3.667
85.14000 1.213
85.16000 -2.189
85.18000 -2.282
85.20000 -1.537
85.22000 -0.275
85.24000 1.524
85.26000 1.421
85.28000 3.176
85.30000 4.046
85.32000 0.338
85.34000 -0.853
85.36000 -1.579
85.38000 0.962
85.40000 4.600
85.42000 3.023
85.44000 6.933
85.46000 3.230
85.48000 1.729
85.50000 -0.947
85.52000 -0.976
85.54000 0.120
85.56000 -1.406
85.58000 0.473
85.60000 0.096
85.62000 0.442
85.64000 3.468
85.66000 5.508
85.68000 4.275
85.70000 1.385
85.72000 0.518
85.74000 3.084
85.76000 1.463
85.78000 1.353
85.80000 1.470
85.82000 1.454
85.84000 2.028
85.86000 2.687
85.88000 2.777
85.90000 2.508
85.92000 0.150
85.94000 0.558
85.96000 4.010
85.98000 -0.082
86.00000 -0.763
86.02000 -2.308
86.04000 -0.288
86.06000 1.360
86.08000 0.406
86.10000 -2.240
86.12000 1.102
86.14000 4.758
86.16000 4.506
86.18000 6.086
86.20000 6.512
86.22000 5.457
86.24000 3.184
86.26000 5.276
86.28000 4.154
86.30000 4.052
86.32000 7.795
86.34000 5.216
86.36000 7.410
86.38000 4.576
86.40000 3.439
86.42000 0.339
86.44000 2.433
86.46000 4.178
86.48000 7.012
86.50000 9.536
86.52000 10.191
86.54000 5.180
86.56000 6.120
86.58000 5.407
86.60000 9.273
86.62000 6.952
86.64000 6.284
86.66000 6.628
86.68000 6.312
86.70000 6.845
86.72000 7.333
86.74000 8.369
86.76000 10.351
86.78000 11.812
86.80000 13.262
86.82000 9.674
86.84000 9.282
86.86000 13.356
86.88000 18.345
86.90000 19.937
86.92000 20.016
86.94000 15.501
86.96000 11.029
86.98000 14.441
87.00000 17.704
87.02000 18.468
87.04000 19.488
87.06000 22.799
87.08000 19.514
87.10000 19.838
87.12000 16.638
87.14000 24.448
87.16000 24.588
87.18000 21.368
87.20000 23.152
87.22000 24.665
87.24000 24.354
87.26000 20.776
87.28000 21.909
87.30000 17.357
87.32000 18.477
87.34000 18.986
87.36000 19.210
87.38000 24.257
87.40000 27.135
87.42000 26.793
87.44000 18.738
87.46000 17.564
87.48000 17.192
87.50000 14.828
87.52000 19.689
87.54000 22.442
87.56000 16.265
87.58000 21.510
87.60000 22.153
87.62000 20.460
87.64000 17.008
87.66000 18.355
87.68000 14.817
87.70000 13.010
87.72000 18.845
87.74000 17.941
87.76000 14.243
87.78000 15.869
87.80000 14.394
87.82000 11.682
87.84000 9.843
87.86000 9.025
87.88000 7.951
87.90000 7.960
87.92000 10.401
87.94000 10.960
87.96000 10.772
87.98000 11.056
88.00000 8.973
88.02000 8.806
88.04000 7.512
88.06000 5.897
88.08000 9.513
88.10000 11.042
88.12000 8.461
88.14000 5.741
88.16000 8.809
88.18000 9.803
88.20000 7.100
88.22000 7.675
88.24000 13.021
88.26000 12.059
88.28000 5.039
88.30000 -1.470
88.32000 0.304
88.34000 4.026
88.36000 5.638
88.38000 5.919
88.40000 6.494
88.42000 8.811
88.44000 7.968
88.46000 3.283
88.48000 1.213
88.50000 4.275
88.52000 3.055
88.54000 6.482
88.56000 8.538
88.58000 6.421
88.60000 2.013
88.62000 2.996
88.64000 0.870
88.66000 0.496
88.68000 1.724
88.70000 6.046
88.72000 1.914
88.74000 1.215
88.76000 5.098
88.78000 5.511
88.80000 4.775
88.82000 3.661
88.84000 0.893
88.86000 4.904
88.88000 3.134
88.90000 5.277
88.92000 3.752
88.94000 1.573
88.96000 2.515
88.98000 6.113
89.00000 3.675
89.02000 -2.137
89.04000 0.624
89.06000 1.544
89.08000 1.114
89.10000 3.720
89.12000 4.403
89.14000 2.915
89.16000 -1.374
89.18000 1.942
89.20000 2.980
89.22000 1.009
89.24000 4.354
89.26000 6.271
89.28000 6.821
89.30000 5.136
89.32000 0.907
89.34000 0.821
89.36000 3.872
89.38000 5.139
89.40000 2.441
89.42000 2.968
89.44000 2.253
89.46000 3.027
89.48000 5.694
89.50000 1.860
89.52000 2.691
89.54000 5.229
89.56000 1.580
89.58000 -2.117
89.60000 3.991
89.62000 8.894
89.64000 4.218
89.66000 2.396
89.68000 0.976
89.70000 0.035
89.72000 3.819
89.74000 7.005
89.76000 4.112
89.78000 1.813
89.80000 1.194
89.82000 4.571
89.84000 4.354
89.86000 5.292
89.88000 1.242
89.90000 3.321
89.92000 4.756
89.94000 4.649
89.96000 2.488
89.98000 2.263
90.00000 -0.223
90.02000 -0.069
90.04000 4.256
90.06000 1.331
90.08000 4.175
90.10000 3.034
90.12000 1.731
90.14000 3.264
90.16000 4.201
90.18000 0.607
90.20000 -1.601
90.22000 2.730
90.24000 4.912
90.26000 2.054
90.28000 0.611
90.30000 5.053
90.32000 3.784
90.34000 2.217
90.36000 3.946
90.38000 2.977
90.40000 3.470
90.42000 7.264
90.44000 2.224
90.46000 0.388
90.48000 1.431
90.50000 3.823
90.52000 1.181
90.54000 2.060
90.56000 3.804
90.58000 0.324
90.60000 -0.271
90.62000 3.445
90.64000 3.761
90.66000 2.357
90.68000 2.850
90.70000 4.282
90.72000 4.801
90.74000 8.898
90.76000 6.364
90.78000 4.379
90.80000 3.108
90.82000 4.605
90.84000 7.419
90.86000 2.846
90.88000 0.599
90.90000 2.675
90.92000 6.527
90.94000 4.276
90.96000 1.389
90.98000 -2.059
91.00000 0.731
91.02000 2.266
91.04000 0.702
91.06000 1.389
91.08000 5.438
91.10000 5.818
91.12000 6.937
91.14000 7.708
91.16000 5.152
91.18000 6.569
91.20000 9.056
91.22000 2.206
91.24000 5.485
91.26000 4.419
91.28000 5.232
91.30000 5.529
91.32000 2.192
91.34000 3.973
91.36000 5.958
91.38000 3.470
91.40000 8.104
91.42000 6.652
91.44000 5.347
91.46000 3.480
91.48000 5.406
91.50000 2.348
91.52000 7.286
91.54000 0.874
91.56000 -2.075
91.58000 3.175
91.60000 3.715
91.62000 2.046
91.64000 2.162
91.66000 6.186
91.68000 6.157
91.70000 3.538
91.72000 2.399
91.74000 -0.944
91.76000 1.882
91.78000 1.074
91.80000 1.419
91.82000 7.752
91.84000 9.166
91.86000 0.940
91.88000 -0.543
91.90000 0.952
91.92000 -0.760
91.94000 -0.083
91.96000 3.566
91.98000 1.500
92.00000 2.745
92.02000 5.911
92.04000 6.300
92.06000 3.064
92.08000 1.471
92.10000 5.044
92.12000 4.765
92.14000 1.618
92.16000 3.163
92.18000 2.784
92.20000 2.045
92.22000 1.737
92.24000 1.985
92.26000 5.530
92.28000 4.406
92.30000 0.048
92.32000 -1.339
92.34000 1.100
92.36000 4.102
92.38000 8.801
92.40000 6.639
92.42000 4.580
92.44000 7.646
92.46000 3.870
92.48000 -2.073
92.50000 1.201
92.52000 5.029
92.54000 4.709
92.56000 4.953
92.58000 6.336
92.60000 3.372
92.62000 1.020
92.64000 0.109
92.66000 2.909
92.68000 3.641
92.70000 4.326
92.72000 3.343
92.74000 2.351
92.76000 4.732
92.78000 8.500
92.80000 7.711
92.82000 2.834
92.84000 -0.470
92.86000 -2.075
92.88000 4.673
92.90000 3.935
92.92000 -1.213
92.94000 -1.676
92.96000 0.495
92.98000 2.851
93.00000 3.929
93.02000 -1.008
93.04000 -0.451
93.06000 6.140
93.08000 5.715
93.10000 4.197
93.12000 3.545
93.14000 5.640
93.16000 5.669
93.18000 3.163
93.20000 4.025
93.22000 1.050
93.24000 4.785
93.26000 4.030
93.28000 1.111
93.30000 3.215
93.32000 3.089
93.34000 -2.094
93.36000 0.153
93.38000 1.397
93.40000 4.501
93.42000 4.526
93.44000 5.393
93.46000 6.434
93.48000 4.532
93.50000 3.429
93.52000 2.089
93.54000 1.711
93.56000 2.016
93.58000 1.264
93.60000 2.655
93.62000 2.804
93.64000 0.955
93.66000 0.300
93.68000 1.056
93.70000 3.979
93.72000 2.891
93.74000 1.442
93.76000 1.705
93.78000 4.707
93.80000 7.788
93.82000 5.851
93.84000 2.407
93.86000 1.498
93.88000 2.229
93.90000 3.780
93.92000 6.738
93.94000 3.955
93.96000 2.833
93.98000 0.398
94.00000 -2.086
94.02000 -0.074
94.04000 3.786
94.06000 -0.474
94.08000 2.939
94.10000 6.542
94.12000 8.029
94.14000 7.555
94.16000 7.020
94.18000 0.705
94.20000 4.049
94.22000 6.453
94.24000 2.480
94.26000 2.289
94.28000 7.005
94.30000 5.091
94.32000 1.911
94.34000 0.663
94.36000 1.641
94.38000 6.080
94.40000 6.196
94.42000 7.011
94.44000 5.184
94.46000 2.117
94.48000 2.033
94.50000 1.295
94.52000 0.737
94.54000 1.028
94.56000 1.171
94.58000 0.733
94.60000 3.472
94.62000 2.204
94.64000 3.431
94.66000 7.080
94.68000 3.882
94.70000 3.864
94.72000 8.601
94.74000 6.203
94.76000 5.986
94.78000 6.932
94.80000 2.730
94.82000 -0.010
94.84000 0.559
94.86000 2.541
94.88000 -0.937
94.90000 3.758
94.92000 5.128
94.94000 5.713
94.96000 0.610
94.98000 -2.011
95.00000 3.264
95.02000 5.063
95.04000 1.463
95.06000 -2.064
95.08000 0.956
95.10000 5.021
95.12000 4.535
95.14000 4.808
95.16000 7.021
95.18000 3.171
95.20000 6.358
95.22000 0.883
95.24000 2.525
95.26000 2.537
95.28000 3.950
95.30000 4.874
95.32000 7.019
95.34000 3.808
95.36000 5.729
95.38000 3.454
95.40000 1.153
95.42000 -0.738
95.44000 0.009
95.46000 -0.816
95.48000 -1.339
95.50000 4.208
95.52000 2.625
95.54000 3.458
95.56000 4.128
95.58000 5.503
95.60000 7.014
95.62000 6.097
95.64000 5.510
95.66000 2.281
95.68000 0.058
95.70000 1.249
95.72000 2.695
95.74000 -2.097
95.76000 0.724
95.78000 0.105
95.80000 1.275
95.82000 5.289
95.84000 4.871
95.86000 1.937
95.88000 3.324
95.90000 2.506
95.92000 2.955
95.94000 3.213
95.96000 -0.054
95.98000 5.123
96.00000 9.065
96.02000 5.713
96.04000 3.748
96.06000 5.456
96.08000 6.013
96.10000 5.588
96.12000 6.193
96.14000 7.437
96.16000 1.807
96.18000 -1.376
96.20000 2.262
96.22000 1.859
96.24000 0.123
96.26000 2.945
96.28000 3.162
96.30000 2.525
96.32000 5.662
96.34000 4.392
96.36000 2.220
96.38000 -1.909
96.40000 3.306
96.42000 7.632
96.44000 6.630
96.46000 4.504
96.48000 1.241
96.50000 3.608
96.52000 6.959
96.54000 6.656
96.56000 3.130
96.58000 0.516
96.60000 -1.567
96.62000 0.353
96.64000 7.492
96.66000 6.566
96.68000 2.241
96.70000 0.618
96.72000 2.471
96.74000 1.493
96.76000 0.160
96.78000 5.694
96.80000 1.206
96.82000 -2.097
96.84000 -1.074
96.86000 0.743
96.88000 4.319
96.90000 3.925
96.92000 5.868
96.94000 8.621
96.96000 4.613
96.98000 5.162
97.00000 1.309
97.02000 1.513
97.04000 5.104
97.06000 5.669
97.08000 3.742
97.10000 1.561
97.12000 2.310
97.14000 1.825
97.16000 0.696
97.18000 4.727
97.20000 4.391
97.22000 4.783
97.24000 -0.464
97.26000 -2.103
97.28000 -1.062
97.30000 1.196
97.32000 7.420
97.34000 2.548
97.36000 9.965
97.38000 5.565
97.40000 7.182
97.42000 3.888
97.44000 4.071
97.46000 3.480
97.48000 4.993
97.50000 1.095
97.52000 -0.241
97.54000 -0.109
97.56000 2.501
97.58000 3.210
97.60000 -0.683
97.62000 1.899
97.64000 2.835
97.66000 6.106
97.68000 5.143
97.70000 2.455
97.72000 5.928
97.74000 7.796
97.76000 -0.573
97.78000 5.900
97.80000 7.505
97.82000 1.293
97.84000 -0.614
97.86000 4.398
97.88000 2.123
97.90000 1.390
97.92000 1.727
97.94000 -2.083
97.96000 -1.980
97.98000 1.584
98.00000 8.321
98.02000 -0.466
98.04000 0.546
98.06000 3.017
98.08000 -2.080
98.10000 -1.754
98.12000 6.797
98.14000 11.520
98.16000 11.516
98.18000 9.311
98.20000 3.813
98.22000 6.450
98.24000 2.682
98.26000 -0.340
98.28000 1.270
98.30000 -0.215
98.32000 4.875
98.34000 -0.184
98.36000 -0.741
98.38000 6.012
98.40000 8.661
98.42000 4.317
98.44000 6.558
98.46000 6.995
98.48000 2.682
98.50000 3.273
98.52000 4.133
98.54000 -0.974
98.56000 5.229
98.58000 0.610
98.60000 -1.937
98.62000 1.657
98.64000 10.664
98.66000 11.496
98.68000 2.610
98.70000 6.715
98.72000 3.687
98.74000 3.290
98.76000 7.011
98.78000 11.371
98.80000 11.721
98.82000 13.940
98.84000 8.132
98.86000 8.784
98.88000 4.308
98.90000 4.703
98.92000 8.057
98.94000 7.308
98.96000 -0.411
98.98000 1.525
99.00000 2.842
99.02000 -0.869
99.04000 4.778
99.06000 4.472
99.08000 2.000
99.10000 0.131
99.12000 0.388
99.14000 3.112
99.16000 10.219
99.18000 12.429
99.20000 -0.592
99.22000 3.612
99.24000 13.171
99.26000 6.547
99.28000 6.687
99.30000 7.868
99.32000 -0.983
99.34000 0.142
99.36000 2.061
99.38000 7.142
99.40000 7.702
99.42000 4.421
99.44000 -2.356
99.46000 5.637
99.48000 10.902
99.50000 5.297
99.52000 7.302
99.54000 6.025
99.56000 10.672
99.58000 8.724
99.60000 1.854
99.62000 1.499
99.64000 6.270
99.66000 15.691
99.68000 5.831
99.70000 8.235
99.72000 -1.660
99.74000 1.596
99.76000 9.423
99.78000 10.815
99.80000 5.548
99.82000 3.800
99.84000 4.690
99.86000 4.072
99.88000 -2.034
99.90000 5.475
99.92000 13.121
99.94000 15.663
99.96000 5.328
99.98000 0.000
