'Id: "0011389" Comment: "Integrate frame 0011389_Au-Ir-Rh_Au-Rich_XRD_Mapping-169-0000.gfrmwith cursor Wedge Cursor #5" Operator: "B?rgel" Anode: "Cu" Wavelength: "1.5406" Scantype: "2Theta (TwoTheta)" TimePerStep: "1" X: "9" Y: "0" Z: "5.95" 
10.00000 0.000
10.02000 5.834
10.04000 5.326
10.06000 -1.666
10.08000 -3.988
10.10000 -2.421
10.12000 11.203
10.14000 22.739
10.16000 17.171
10.18000 20.960
10.20000 8.175
10.22000 1.312
10.24000 13.601
10.26000 19.032
10.28000 27.574
10.30000 34.724
10.32000 28.887
10.34000 3.827
10.36000 -3.894
10.38000 9.205
10.40000 16.062
10.42000 26.138
10.44000 24.704
10.46000 16.882
10.48000 25.533
10.50000 22.366
10.52000 27.534
10.54000 13.817
10.56000 30.462
10.58000 20.745
10.60000 23.569
10.62000 32.396
10.64000 27.574
10.66000 30.105
10.68000 11.733
10.70000 18.616
10.72000 21.992
10.74000 28.191
10.76000 16.595
10.78000 2.809
10.80000 16.044
10.82000 28.840
10.84000 22.959
10.86000 29.968
10.88000 19.006
10.90000 6.845
10.92000 19.679
10.94000 21.621
10.96000 26.174
10.98000 19.512
11.00000 20.763
11.02000 10.324
11.04000 10.402
11.06000 20.609
11.08000 20.955
11.10000 24.036
11.12000 30.848
11.14000 32.912
11.16000 20.905
11.18000 17.851
11.20000 16.630
11.22000 19.836
11.24000 24.541
11.26000 25.548
11.28000 10.324
11.30000 12.440
11.32000 19.355
11.34000 18.619
11.36000 24.811
11.38000 37.237
11.40000 35.539
11.42000 19.423
11.44000 31.878
11.46000 34.755
11.48000 18.759
11.50000 22.086
11.52000 21.497
11.54000 17.274
11.56000 23.681
11.58000 30.012
11.60000 21.785
11.62000 23.985
11.64000 32.370
11.66000 24.512
11.68000 13.186
11.70000 18.542
11.72000 22.878
11.74000 36.109
11.76000 30.761
11.78000 28.426
11.80000 41.757
11.82000 31.653
11.84000 24.113
11.86000 22.406
11.88000 15.854
11.90000 26.609
11.92000 31.611
11.94000 39.897
11.96000 35.263
11.98000 33.647
12.00000 24.090
12.02000 20.268
12.04000 32.332
12.06000 27.581
12.08000 25.580
12.10000 22.179
12.12000 20.932
12.14000 22.412
12.16000 24.719
12.18000 24.775
12.20000 25.255
12.22000 15.600
12.24000 14.683
12.26000 15.279
12.28000 17.574
12.30000 28.584
12.32000 25.521
12.34000 22.413
12.36000 24.768
12.38000 23.967
12.40000 26.740
12.42000 22.477
12.44000 23.029
12.46000 23.573
12.48000 18.653
12.50000 20.105
12.52000 17.351
12.54000 21.902
12.56000 20.966
12.58000 23.411
12.60000 21.834
12.62000 26.019
12.64000 14.903
12.66000 20.323
12.68000 19.865
12.70000 22.062
12.72000 24.845
12.74000 18.030
12.76000 12.921
12.78000 26.968
12.80000 34.213
12.82000 26.255
12.84000 23.522
12.86000 18.997
12.88000 22.704
12.90000 11.674
12.92000 11.924
12.94000 22.535
12.96000 24.581
12.98000 24.525
13.00000 27.862
13.02000 22.931
13.04000 20.560
13.06000 26.203
13.08000 22.697
13.10000 15.366
13.12000 11.846
13.14000 27.111
13.16000 30.174
13.18000 21.830
13.20000 16.415
13.22000 22.360
13.24000 19.988
13.26000 20.508
13.28000 18.419
13.30000 16.282
13.32000 18.115
13.34000 17.801
13.36000 15.128
13.38000 23.579
13.40000 25.741
13.42000 27.611
13.44000 30.204
13.46000 20.786
13.48000 16.358
13.50000 15.279
13.52000 19.713
13.54000 22.030
13.56000 15.081
13.58000 13.944
13.60000 19.686
13.62000 27.333
13.64000 19.546
13.66000 9.670
13.68000 12.838
13.70000 7.506
13.72000 13.746
13.74000 18.074
13.76000 4.811
13.78000 8.095
13.80000 11.969
13.82000 5.077
13.84000 13.291
13.86000 10.111
13.88000 11.056
13.90000 15.307
13.92000 16.561
13.94000 20.753
13.96000 24.924
13.98000 28.240
14.00000 16.030
14.02000 15.416
14.04000 12.306
14.06000 15.398
14.08000 13.520
14.10000 8.388
14.12000 2.569
14.14000 7.325
14.16000 17.551
14.18000 18.922
14.20000 15.884
14.22000 8.013
14.24000 15.563
14.26000 18.924
14.28000 6.271
14.30000 1.364
14.32000 10.748
14.34000 12.937
14.36000 8.058
14.38000 6.398
14.40000 4.218
14.42000 8.183
14.44000 14.135
14.46000 12.877
14.48000 15.612
14.50000 19.917
14.52000 13.735
14.54000 12.105
14.56000 17.284
14.58000 16.060
14.60000 15.519
14.62000 15.815
14.64000 13.610
14.66000 15.626
14.68000 11.803
14.70000 14.711
14.72000 18.159
14.74000 15.167
14.76000 16.673
14.78000 19.467
14.80000 -0.980
14.82000 11.927
14.84000 24.457
14.86000 13.189
14.88000 6.274
14.90000 0.021
14.92000 1.410
14.94000 9.194
14.96000 15.102
14.98000 6.213
15.00000 14.309
15.02000 16.554
15.04000 12.717
15.06000 11.927
15.08000 16.062
15.10000 11.402
15.12000 13.240
15.14000 8.417
15.16000 8.892
15.18000 9.955
15.20000 8.351
15.22000 11.159
15.24000 13.022
15.26000 7.470
15.28000 13.094
15.30000 6.517
15.32000 -0.680
15.34000 -1.479
15.36000 8.067
15.38000 8.421
15.40000 10.610
15.42000 9.330
15.44000 10.152
15.46000 15.860
15.48000 16.791
15.50000 11.521
15.52000 11.203
15.54000 9.935
15.56000 8.151
15.58000 4.267
15.60000 11.579
15.62000 6.828
15.64000 1.213
15.66000 3.492
15.68000 5.450
15.70000 4.616
15.72000 8.151
15.74000 1.139
15.76000 6.991
15.78000 17.233
15.80000 17.643
15.82000 9.115
15.84000 7.640
15.86000 13.015
15.88000 6.761
15.90000 9.305
15.92000 12.510
15.94000 2.309
15.96000 -0.196
15.98000 4.883
16.00000 6.804
16.02000 5.171
16.04000 7.189
16.06000 3.124
16.08000 7.638
16.10000 6.805
16.12000 4.950
16.14000 8.179
16.16000 9.469
16.18000 14.689
16.20000 5.618
16.22000 5.254
16.24000 8.004
16.26000 3.257
16.28000 4.216
16.30000 2.602
16.32000 1.007
16.34000 8.539
16.36000 2.262
16.38000 4.455
16.40000 4.563
16.42000 5.044
16.44000 7.213
16.46000 1.801
16.48000 1.327
16.50000 5.185
16.52000 5.033
16.54000 12.846
16.56000 6.673
16.58000 2.927
16.60000 7.160
16.62000 8.428
16.64000 7.531
16.66000 19.085
16.68000 9.766
16.70000 3.310
16.72000 8.015
16.74000 8.983
16.76000 11.144
16.78000 8.311
16.80000 1.503
16.82000 4.030
16.84000 1.355
16.86000 3.486
16.88000 5.680
16.90000 3.327
16.92000 4.514
16.94000 11.525
16.96000 7.878
16.98000 7.385
17.00000 12.486
17.02000 11.676
17.04000 -0.248
17.06000 -1.512
17.08000 11.631
17.10000 22.158
17.12000 17.753
17.14000 5.732
17.16000 2.816
17.18000 8.344
17.20000 2.377
17.22000 0.586
17.24000 4.501
17.26000 5.062
17.28000 1.226
17.30000 -4.064
17.32000 1.386
17.34000 5.247
17.36000 2.278
17.38000 -3.761
17.40000 -3.856
17.42000 0.808
17.44000 -3.350
17.46000 -3.707
17.48000 5.450
17.50000 -0.481
17.52000 1.735
17.54000 5.903
17.56000 9.960
17.58000 9.814
17.60000 6.631
17.62000 9.954
17.64000 3.806
17.66000 2.050
17.68000 0.872
17.70000 -0.969
17.72000 2.594
17.74000 7.603
17.76000 10.199
17.78000 7.013
17.80000 5.486
17.82000 -2.398
17.84000 -0.840
17.86000 -0.802
17.88000 3.363
17.90000 6.173
17.92000 9.038
17.94000 5.660
17.96000 3.355
17.98000 4.194
18.00000 5.639
18.02000 8.511
18.04000 -0.637
18.06000 -1.172
18.08000 3.999
18.10000 9.104
18.12000 2.143
18.14000 5.280
18.16000 9.479
18.18000 6.398
18.20000 4.818
18.22000 0.260
18.24000 7.253
18.26000 6.386
18.28000 2.840
18.30000 1.937
18.32000 10.769
18.34000 8.935
18.36000 1.561
18.38000 -4.324
18.40000 4.529
18.42000 8.879
18.44000 11.313
18.46000 14.124
18.48000 9.479
18.50000 7.598
18.52000 3.668
18.54000 5.028
18.56000 8.373
18.58000 11.116
18.60000 8.979
18.62000 10.907
18.64000 9.187
18.66000 9.349
18.68000 2.737
18.70000 -1.088
18.72000 7.803
18.74000 3.276
18.76000 2.861
18.78000 9.267
18.80000 9.477
18.82000 -1.716
18.84000 5.016
18.86000 8.403
18.88000 9.760
18.90000 2.750
18.92000 8.407
18.94000 10.217
18.96000 1.609
18.98000 2.222
19.00000 4.306
19.02000 0.295
19.04000 0.572
19.06000 9.163
19.08000 9.660
19.10000 7.328
19.12000 -1.569
19.14000 -4.286
19.16000 -2.560
19.18000 5.518
19.20000 0.287
19.22000 1.192
19.24000 7.506
19.26000 7.218
19.28000 7.907
19.30000 12.824
19.32000 3.689
19.34000 1.723
19.36000 2.522
19.38000 6.716
19.40000 6.670
19.42000 -1.367
19.44000 -3.322
19.46000 0.397
19.48000 4.587
19.50000 8.237
19.52000 2.974
19.54000 5.102
19.56000 2.626
19.58000 2.223
19.60000 5.703
19.62000 6.742
19.64000 6.192
19.66000 5.178
19.68000 5.439
19.70000 6.309
19.72000 4.699
19.74000 4.506
19.76000 -0.873
19.78000 -4.243
19.80000 9.130
19.82000 12.399
19.84000 4.613
19.86000 11.037
19.88000 14.980
19.90000 10.128
19.92000 6.619
19.94000 3.513
19.96000 0.764
19.98000 1.787
20.00000 3.997
20.02000 3.543
20.04000 -2.388
20.06000 1.056
20.08000 7.873
20.10000 8.785
20.12000 7.211
20.14000 15.960
20.16000 12.869
20.18000 4.421
20.20000 6.206
20.22000 4.811
20.24000 0.897
20.26000 3.435
20.28000 5.118
20.30000 3.486
20.32000 -2.740
20.34000 2.633
20.36000 4.682
20.38000 4.587
20.40000 1.763
20.42000 -0.137
20.44000 3.975
20.46000 11.715
20.48000 4.839
20.50000 -1.272
20.52000 5.217
20.54000 8.575
20.56000 3.678
20.58000 6.108
20.60000 8.252
20.62000 -1.539
20.64000 -0.346
20.66000 2.146
20.68000 -0.807
20.70000 5.475
20.72000 8.250
20.74000 7.494
20.76000 0.264
20.78000 2.099
20.80000 9.949
20.82000 5.631
20.84000 7.040
20.86000 8.352
20.88000 4.232
20.90000 1.350
20.92000 5.033
20.94000 10.035
20.96000 6.517
20.98000 6.830
21.00000 7.193
21.02000 6.496
21.04000 8.877
21.06000 9.358
21.08000 12.744
21.10000 3.735
21.12000 0.970
21.14000 -0.839
21.16000 6.961
21.18000 1.437
21.20000 4.051
21.22000 5.652
21.24000 6.892
21.26000 5.537
21.28000 10.026
21.30000 15.133
21.32000 14.975
21.34000 10.507
21.36000 2.374
21.38000 -1.023
21.40000 12.451
21.42000 13.471
21.44000 8.358
21.46000 10.617
21.48000 20.414
21.50000 16.167
21.52000 12.049
21.54000 11.665
21.56000 6.381
21.58000 7.301
21.60000 10.897
21.62000 11.289
21.64000 9.506
21.66000 11.648
21.68000 10.782
21.70000 12.536
21.72000 9.657
21.74000 3.402
21.76000 16.394
21.78000 11.621
21.80000 11.671
21.82000 21.647
21.84000 12.529
21.86000 11.662
21.88000 6.894
21.90000 -4.062
21.92000 4.141
21.94000 10.828
21.96000 16.011
21.98000 11.476
22.00000 6.497
22.02000 3.320
22.04000 6.862
22.06000 8.996
22.08000 9.986
22.10000 9.277
22.12000 14.184
22.14000 12.572
22.16000 13.299
22.18000 11.425
22.20000 9.838
22.22000 10.850
22.24000 10.711
22.26000 8.596
22.28000 8.011
22.30000 11.445
22.32000 10.638
22.34000 4.884
22.36000 6.311
22.38000 6.910
22.40000 6.585
22.42000 8.500
22.44000 8.951
22.46000 10.516
22.48000 14.145
22.50000 8.534
22.52000 4.962
22.54000 13.235
22.56000 12.332
22.58000 6.431
22.60000 12.069
22.62000 7.927
22.64000 4.086
22.66000 1.951
22.68000 1.752
22.70000 13.994
22.72000 12.611
22.74000 6.516
22.76000 0.694
22.78000 2.969
22.80000 4.961
22.82000 6.974
22.84000 6.729
22.86000 9.736
22.88000 10.404
22.90000 7.201
22.92000 7.445
22.94000 6.633
22.96000 6.835
22.98000 6.389
23.00000 4.158
23.02000 1.569
23.04000 7.383
23.06000 8.575
23.08000 4.926
23.10000 7.263
23.12000 3.829
23.14000 4.795
23.16000 7.998
23.18000 11.188
23.20000 8.693
23.22000 4.453
23.24000 5.030
23.26000 7.728
23.28000 3.369
23.30000 3.099
23.32000 2.592
23.34000 2.461
23.36000 2.415
23.38000 5.589
23.40000 6.230
23.42000 6.518
23.44000 4.844
23.46000 1.681
23.48000 1.963
23.50000 4.463
23.52000 9.951
23.54000 4.012
23.56000 5.964
23.58000 3.536
23.60000 11.043
23.62000 18.576
23.64000 7.751
23.66000 4.423
23.68000 5.266
23.70000 7.335
23.72000 -0.148
23.74000 -2.254
23.76000 -0.272
23.78000 3.326
23.80000 4.816
23.82000 3.856
23.84000 -0.129
23.86000 0.978
23.88000 5.172
23.90000 5.387
23.92000 3.858
23.94000 -0.208
23.96000 2.449
23.98000 2.381
24.00000 7.150
24.02000 8.486
24.04000 9.937
24.06000 3.689
24.08000 5.315
24.10000 4.007
24.12000 8.287
24.14000 5.775
24.16000 7.608
24.18000 3.811
24.20000 2.709
24.22000 6.597
24.24000 7.536
24.26000 6.165
24.28000 4.039
24.30000 0.359
24.32000 1.200
24.34000 -3.602
24.36000 -0.313
24.38000 5.347
24.40000 3.120
24.42000 2.838
24.44000 -3.967
24.46000 1.873
24.48000 7.392
24.50000 6.541
24.52000 3.305
24.54000 6.218
24.56000 9.080
24.58000 8.426
24.60000 5.084
24.62000 6.065
24.64000 6.651
24.66000 3.232
24.68000 3.468
24.70000 8.629
24.72000 6.924
24.74000 7.602
24.76000 12.881
24.78000 6.761
24.80000 2.344
24.82000 6.272
24.84000 8.602
24.86000 5.661
24.88000 0.084
24.90000 4.796
24.92000 7.676
24.94000 4.973
24.96000 6.004
24.98000 8.451
25.00000 3.395
25.02000 -1.226
25.04000 3.160
25.06000 3.500
25.08000 3.086
25.10000 3.344
25.12000 1.337
25.14000 5.903
25.16000 8.574
25.18000 4.515
25.20000 5.747
25.22000 8.965
25.24000 5.428
25.26000 2.150
25.28000 3.046
25.30000 1.414
25.32000 2.759
25.34000 8.173
25.36000 11.064
25.38000 10.561
25.40000 11.676
25.42000 8.958
25.44000 7.790
25.46000 5.367
25.48000 6.765
25.50000 6.002
25.52000 6.385
25.54000 6.303
25.56000 5.152
25.58000 3.505
25.60000 5.183
25.62000 10.945
25.64000 1.596
25.66000 -3.887
25.68000 -1.602
25.70000 4.589
25.72000 4.989
25.74000 6.338
25.76000 7.139
25.78000 7.734
25.80000 4.496
25.82000 2.200
25.84000 3.495
25.86000 6.804
25.88000 8.618
25.90000 4.565
25.92000 4.867
25.94000 7.107
25.96000 6.550
25.98000 3.123
26.00000 -2.540
26.02000 4.209
26.04000 6.386
26.06000 3.951
26.08000 5.330
26.10000 6.622
26.12000 0.441
26.14000 2.652
26.16000 1.424
26.18000 4.441
26.20000 4.209
26.22000 1.760
26.24000 0.875
26.26000 3.789
26.28000 13.358
26.30000 15.485
26.32000 4.916
26.34000 3.211
26.36000 9.219
26.38000 4.576
26.40000 1.811
26.42000 7.334
26.44000 9.090
26.46000 4.319
26.48000 2.071
26.50000 3.617
26.52000 4.465
26.54000 5.267
26.56000 0.658
26.58000 2.136
26.60000 6.966
26.62000 7.547
26.64000 7.830
26.66000 2.512
26.68000 2.043
26.70000 4.279
26.72000 3.411
26.74000 6.254
26.76000 1.330
26.78000 4.194
26.80000 5.461
26.82000 5.538
26.84000 4.929
26.86000 0.107
26.88000 -3.859
26.90000 7.463
26.92000 8.335
26.94000 7.873
26.96000 3.948
26.98000 4.102
27.00000 5.318
27.02000 0.441
27.04000 1.429
27.06000 4.807
27.08000 4.126
27.10000 1.515
27.12000 -0.504
27.14000 3.231
27.16000 4.406
27.18000 6.442
27.20000 0.987
27.22000 -1.129
27.24000 1.015
27.26000 0.763
27.28000 1.016
27.30000 4.799
27.32000 2.297
27.34000 0.368
27.36000 2.733
27.38000 4.482
27.40000 3.283
27.42000 6.237
27.44000 4.406
27.46000 4.351
27.48000 3.018
27.50000 1.827
27.52000 2.692
27.54000 1.965
27.56000 0.265
27.58000 -0.108
27.60000 -1.687
27.62000 3.096
27.64000 6.997
27.66000 3.674
27.68000 5.396
27.70000 12.116
27.72000 4.876
27.74000 4.184
27.76000 4.810
27.78000 5.433
27.80000 -2.507
27.82000 -2.814
27.84000 -1.208
27.86000 0.299
27.88000 3.182
27.90000 5.545
27.92000 3.715
27.94000 2.612
27.96000 -1.066
27.98000 1.640
28.00000 -1.024
28.02000 0.730
28.04000 5.313
28.06000 6.787
28.08000 2.462
28.10000 3.382
28.12000 0.750
28.14000 0.666
28.16000 2.324
28.18000 1.245
28.20000 0.629
28.22000 1.274
28.24000 1.707
28.26000 -3.709
28.28000 -0.151
28.30000 3.746
28.32000 2.445
28.34000 4.955
28.36000 5.417
28.38000 1.051
28.40000 1.008
28.42000 -0.406
28.44000 3.393
28.46000 6.995
28.48000 3.269
28.50000 0.137
28.52000 -0.352
28.54000 -1.561
28.56000 -0.650
28.58000 -1.779
28.60000 2.232
28.62000 1.940
28.64000 0.764
28.66000 -1.578
28.68000 2.924
28.70000 3.608
28.72000 1.102
28.74000 -1.141
28.76000 -2.559
28.78000 -2.804
28.80000 1.474
28.82000 0.700
28.84000 -1.494
28.86000 0.962
28.88000 1.265
28.90000 -3.767
28.92000 0.293
28.94000 3.586
28.96000 3.190
28.98000 6.946
29.00000 -1.155
29.02000 -1.060
29.04000 1.078
29.06000 3.816
29.08000 2.318
29.10000 6.681
29.12000 6.994
29.14000 2.041
29.16000 3.877
29.18000 4.016
29.20000 6.321
29.22000 8.146
29.24000 -1.589
29.26000 1.678
29.28000 -0.156
29.30000 -1.188
29.32000 -3.436
29.34000 1.483
29.36000 0.030
29.38000 5.135
29.40000 4.953
29.42000 6.488
29.44000 0.228
29.46000 5.819
29.48000 8.826
29.50000 5.446
29.52000 4.985
29.54000 4.167
29.56000 1.874
29.58000 3.755
29.60000 4.691
29.62000 0.567
29.64000 -1.490
29.66000 1.751
29.68000 -0.679
29.70000 -2.496
29.72000 -1.710
29.74000 -0.323
29.76000 6.967
29.78000 3.189
29.80000 -3.717
29.82000 2.326
29.84000 4.314
29.86000 6.999
29.88000 4.130
29.90000 6.671
29.92000 6.084
29.94000 6.301
29.96000 0.506
29.98000 5.147
30.00000 3.879
30.02000 4.355
30.04000 3.471
30.06000 0.089
30.08000 6.885
30.10000 8.547
30.12000 3.216
30.14000 -1.359
30.16000 0.743
30.18000 4.256
30.20000 6.936
30.22000 7.468
30.24000 9.036
30.26000 5.235
30.28000 2.697
30.30000 -1.050
30.32000 -1.641
30.34000 0.944
30.36000 4.389
30.38000 7.413
30.40000 5.834
30.42000 4.530
30.44000 0.083
30.46000 -1.139
30.48000 0.180
30.50000 0.895
30.52000 -2.027
30.54000 -2.345
30.56000 0.918
30.58000 1.422
30.60000 3.469
30.62000 8.728
30.64000 10.203
30.66000 6.178
30.68000 -0.204
30.70000 0.141
30.72000 0.117
30.74000 0.542
30.76000 3.114
30.78000 5.606
30.80000 3.651
30.82000 5.497
30.84000 4.657
30.86000 4.133
30.88000 3.433
30.90000 3.130
30.92000 0.439
30.94000 1.466
30.96000 0.888
30.98000 4.598
31.00000 5.332
31.02000 5.968
31.04000 8.328
31.06000 10.807
31.08000 9.040
31.10000 3.543
31.12000 2.644
31.14000 5.258
31.16000 2.414
31.18000 0.919
31.20000 1.276
31.22000 6.492
31.24000 4.685
31.26000 3.702
31.28000 1.879
31.30000 6.176
31.32000 6.289
31.34000 4.011
31.36000 5.781
31.38000 9.000
31.40000 6.975
31.42000 -2.768
31.44000 -1.901
31.46000 -3.645
31.48000 -2.080
31.50000 0.970
31.52000 1.506
31.54000 6.069
31.56000 3.191
31.58000 4.517
31.60000 6.476
31.62000 -1.250
31.64000 -1.586
31.66000 1.962
31.68000 3.320
31.70000 5.240
31.72000 4.988
31.74000 7.386
31.76000 8.048
31.78000 4.334
31.80000 4.124
31.82000 4.736
31.84000 -0.402
31.86000 -2.308
31.88000 2.975
31.90000 -1.108
31.92000 -0.740
31.94000 0.042
31.96000 -0.922
31.98000 -2.586
32.00000 0.624
32.02000 2.115
32.04000 4.044
32.06000 -0.521
32.08000 -3.638
32.10000 1.563
32.12000 3.620
32.14000 6.712
32.16000 3.132
32.18000 0.242
32.20000 0.300
32.22000 2.335
32.24000 -0.324
32.26000 0.390
32.28000 4.650
32.30000 4.606
32.32000 2.658
32.34000 -2.959
32.36000 -1.762
32.38000 3.178
32.40000 -2.810
32.42000 1.715
32.44000 4.869
32.46000 1.434
32.48000 -0.399
32.50000 2.539
32.52000 3.025
32.54000 0.869
32.56000 -0.804
32.58000 -3.052
32.60000 -2.338
32.62000 -2.102
32.64000 -0.109
32.66000 1.038
32.68000 1.432
32.70000 -0.347
32.72000 2.788
32.74000 4.727
32.76000 3.598
32.78000 7.420
32.80000 0.858
32.82000 -0.037
32.84000 -1.538
32.86000 0.866
32.88000 3.389
32.90000 -0.590
32.92000 2.191
32.94000 7.412
32.96000 0.704
32.98000 -3.649
33.00000 1.864
33.02000 3.556
33.04000 -0.185
33.06000 0.664
33.08000 4.011
33.10000 0.206
33.12000 2.779
33.14000 0.149
33.16000 -1.189
33.18000 1.879
33.20000 2.904
33.22000 -1.484
33.24000 -1.266
33.26000 -0.630
33.28000 1.748
33.30000 4.906
33.32000 5.071
33.34000 4.347
33.36000 0.000
33.38000 4.013
33.40000 2.820
33.42000 -1.957
33.44000 0.746
33.46000 3.490
33.48000 3.350
33.50000 1.254
33.52000 -1.909
33.54000 -3.274
33.56000 -0.716
33.58000 1.997
33.60000 3.045
33.62000 -3.643
33.64000 -2.234
33.66000 4.541
33.68000 4.095
33.70000 2.917
33.72000 -1.371
33.74000 -0.718
33.76000 1.594
33.78000 4.321
33.80000 4.538
33.82000 2.933
33.84000 2.304
33.86000 0.451
33.88000 0.029
33.90000 -2.972
33.92000 1.485
33.94000 2.517
33.96000 4.065
33.98000 5.681
34.00000 6.884
34.02000 7.570
34.04000 4.520
34.06000 0.884
34.08000 -2.334
34.10000 1.719
34.12000 0.276
34.14000 -1.242
34.16000 2.671
34.18000 2.385
34.20000 2.854
34.22000 1.096
34.24000 -0.908
34.26000 0.069
34.28000 4.779
34.30000 2.157
34.32000 3.279
34.34000 9.168
34.36000 7.501
34.38000 2.510
34.40000 3.091
34.42000 -1.163
34.44000 -3.615
34.46000 0.236
34.48000 3.206
34.50000 3.693
34.52000 6.170
34.54000 9.037
34.56000 14.207
34.58000 7.782
34.60000 3.516
34.62000 3.533
34.64000 1.029
34.66000 0.216
34.68000 -1.831
34.70000 -0.739
34.72000 -3.607
34.74000 1.779
34.76000 -0.717
34.78000 0.666
34.80000 1.191
34.82000 -2.955
34.84000 5.164
34.86000 3.430
34.88000 7.081
34.90000 2.172
34.92000 1.239
34.94000 1.166
34.96000 6.428
34.98000 2.663
35.00000 1.442
35.02000 1.295
35.04000 2.933
35.06000 0.830
35.08000 1.013
35.10000 0.680
35.12000 4.868
35.14000 4.088
35.16000 0.830
35.18000 3.613
35.20000 3.304
35.22000 5.608
35.24000 -0.213
35.26000 -3.587
35.28000 4.419
35.30000 1.240
35.32000 -0.026
35.34000 -1.212
35.36000 4.612
35.38000 1.493
35.40000 0.827
35.42000 -1.279
35.44000 3.604
35.46000 3.914
35.48000 -0.325
35.50000 0.889
35.52000 0.304
35.54000 -0.801
35.56000 -0.111
35.58000 5.348
35.60000 8.311
35.62000 5.579
35.64000 2.127
35.66000 2.116
35.68000 1.657
35.70000 4.374
35.72000 1.989
35.74000 3.361
35.76000 -3.579
35.78000 -2.045
35.80000 3.878
35.82000 2.638
35.84000 3.523
35.86000 3.244
35.88000 2.907
35.90000 1.684
35.92000 0.762
35.94000 -0.081
35.96000 1.450
35.98000 -0.603
36.00000 0.111
36.02000 2.588
36.04000 -1.544
36.06000 -0.686
36.08000 3.385
36.10000 5.502
36.12000 4.498
36.14000 1.065
36.16000 2.463
36.18000 0.658
36.20000 0.162
36.22000 3.180
36.24000 4.997
36.26000 3.263
36.28000 -0.354
36.30000 1.685
36.32000 5.321
36.34000 1.290
36.36000 2.010
36.38000 2.958
36.40000 3.350
36.42000 2.503
36.44000 0.828
36.46000 -1.907
36.48000 1.171
36.50000 2.381
36.52000 4.459
36.54000 0.021
36.56000 0.962
36.58000 0.082
36.60000 1.234
36.62000 4.404
36.64000 4.242
36.66000 0.933
36.68000 -1.387
36.70000 2.000
36.72000 1.659
36.74000 -1.197
36.76000 4.554
36.78000 1.273
36.80000 3.357
36.82000 5.667
36.84000 5.854
36.86000 2.521
36.88000 -0.232
36.90000 1.305
36.92000 2.605
36.94000 -1.629
36.96000 0.817
36.98000 5.666
37.00000 5.027
37.02000 0.669
37.04000 1.511
37.06000 -0.989
37.08000 2.199
37.10000 2.897
37.12000 5.933
37.14000 3.529
37.16000 2.616
37.18000 1.882
37.20000 5.035
37.22000 4.723
37.24000 1.888
37.26000 2.562
37.28000 8.992
37.30000 9.749
37.32000 8.685
37.34000 8.942
37.36000 6.543
37.38000 9.633
37.40000 7.654
37.42000 7.738
37.44000 7.343
37.46000 7.107
37.48000 6.008
37.50000 3.791
37.52000 2.443
37.54000 8.441
37.56000 8.861
37.58000 9.006
37.60000 9.001
37.62000 14.989
37.64000 11.980
37.66000 8.907
37.68000 6.406
37.70000 9.121
37.72000 13.104
37.74000 13.350
37.76000 13.255
37.78000 18.788
37.80000 22.878
37.82000 19.210
37.84000 16.569
37.86000 14.845
37.88000 14.226
37.90000 14.843
37.92000 21.593
37.94000 23.877
37.96000 17.837
37.98000 20.149
38.00000 24.429
38.02000 22.666
38.04000 21.415
38.06000 23.820
38.08000 25.720
38.10000 25.415
38.12000 29.436
38.14000 34.488
38.16000 29.308
38.18000 29.775
38.20000 31.164
38.22000 32.202
38.24000 36.510
38.26000 32.856
38.28000 34.223
38.30000 37.666
38.32000 48.997
38.34000 52.942
38.36000 49.454
38.38000 46.901
38.40000 51.825
38.42000 54.230
38.44000 53.887
38.46000 56.982
38.48000 64.050
38.50000 65.977
38.52000 65.075
38.54000 63.505
38.56000 74.712
38.58000 77.723
38.60000 75.727
38.62000 82.384
38.64000 86.717
38.66000 92.590
38.68000 99.858
38.70000 102.781
38.72000 108.428
38.74000 111.532
38.76000 124.016
38.78000 134.602
38.80000 140.962
38.82000 142.084
38.84000 147.086
38.86000 155.000
38.88000 161.638
38.90000 170.321
38.92000 179.500
38.94000 188.203
38.96000 203.733
38.98000 217.785
39.00000 232.864
39.02000 248.232
39.04000 259.400
39.06000 269.561
39.08000 287.535
39.10000 313.462
39.12000 330.751
39.14000 347.439
39.16000 364.521
39.18000 378.029
39.20000 391.349
39.22000 419.303
39.24000 440.824
39.26000 456.867
39.28000 477.072
39.30000 488.798
39.32000 497.984
39.34000 513.864
39.36000 525.362
39.38000 530.921
39.40000 548.064
39.42000 547.766
39.44000 555.463
39.46000 555.768
39.48000 552.707
39.50000 547.575
39.52000 542.493
39.54000 541.222
39.56000 529.097
39.58000 513.859
39.60000 492.910
39.62000 483.418
39.64000 473.669
39.66000 449.504
39.68000 429.892
39.70000 421.005
39.72000 401.047
39.74000 383.214
39.76000 363.908
39.78000 345.167
39.80000 315.558
39.82000 299.277
39.84000 288.542
39.86000 277.662
39.88000 261.059
39.90000 245.815
39.92000 227.315
39.94000 209.691
39.96000 199.047
39.98000 183.865
40.00000 170.694
40.02000 161.727
40.04000 149.608
40.06000 141.949
40.08000 139.691
40.10000 131.550
40.12000 121.143
40.14000 110.773
40.16000 102.967
40.18000 96.260
40.20000 91.904
40.22000 84.383
40.24000 80.521
40.26000 72.114
40.28000 71.184
40.30000 62.878
40.32000 57.866
40.34000 55.642
40.36000 60.017
40.38000 55.414
40.40000 48.983
40.42000 46.655
40.44000 46.615
40.46000 40.149
40.48000 35.059
40.50000 33.993
40.52000 33.269
40.54000 30.865
40.56000 31.696
40.58000 27.091
40.60000 29.095
40.62000 28.034
40.64000 27.689
40.66000 27.528
40.68000 24.146
40.70000 21.737
40.72000 17.899
40.74000 16.358
40.76000 17.140
40.78000 18.795
40.80000 17.600
40.82000 18.321
40.84000 15.489
40.86000 13.931
40.88000 16.771
40.90000 12.490
40.92000 12.512
40.94000 13.117
40.96000 9.353
40.98000 10.248
41.00000 13.740
41.02000 11.157
41.04000 8.974
41.06000 9.994
41.08000 10.917
41.10000 10.681
41.12000 11.036
41.14000 9.264
41.16000 5.874
41.18000 6.839
41.20000 6.496
41.22000 6.454
41.24000 6.806
41.26000 2.855
41.28000 2.537
41.30000 2.901
41.32000 0.463
41.34000 2.212
41.36000 2.519
41.38000 2.917
41.40000 -0.175
41.42000 4.781
41.44000 3.553
41.46000 1.436
41.48000 0.798
41.50000 3.586
41.52000 5.558
41.54000 3.669
41.56000 0.904
41.58000 -1.745
41.60000 -2.702
41.62000 -1.617
41.64000 2.214
41.66000 8.092
41.68000 3.930
41.70000 3.012
41.72000 1.628
41.74000 1.402
41.76000 0.553
41.78000 -2.380
41.80000 0.347
41.82000 -1.737
41.84000 -3.396
41.86000 0.034
41.88000 -2.016
41.90000 -0.992
41.92000 1.872
41.94000 -0.311
41.96000 -2.157
41.98000 -1.893
42.00000 -0.471
42.02000 2.283
42.04000 1.192
42.06000 0.528
42.08000 2.213
42.10000 -2.550
42.12000 -0.880
42.14000 -0.418
42.16000 0.643
42.18000 3.973
42.20000 3.350
42.22000 2.782
42.24000 3.290
42.26000 0.459
42.28000 0.699
42.30000 1.551
42.32000 -1.189
42.34000 -0.554
42.36000 -0.794
42.38000 -0.388
42.40000 2.161
42.42000 2.017
42.44000 0.396
42.46000 -3.281
42.48000 -2.316
42.50000 1.333
42.52000 0.099
42.54000 0.452
42.56000 3.461
42.58000 1.316
42.60000 3.479
42.62000 1.613
42.64000 -1.036
42.66000 -2.550
42.68000 -3.253
42.70000 2.512
42.72000 2.422
42.74000 -2.617
42.76000 -0.042
42.78000 -0.381
42.80000 2.762
42.82000 2.820
42.84000 0.440
42.86000 1.244
42.88000 2.914
42.90000 1.974
42.92000 1.731
42.94000 6.796
42.96000 0.912
42.98000 -1.419
43.00000 -0.868
43.02000 -0.266
43.04000 1.779
43.06000 2.561
43.08000 -1.622
43.10000 1.263
43.12000 3.936
43.14000 5.020
43.16000 3.870
43.18000 2.510
43.20000 -2.503
43.22000 -0.074
43.24000 1.715
43.26000 0.071
43.28000 -2.983
43.30000 3.214
43.32000 4.872
43.34000 1.842
43.36000 1.511
43.38000 0.686
43.40000 1.641
43.42000 -0.821
43.44000 -0.139
43.46000 2.782
43.48000 2.291
43.50000 -2.770
43.52000 -3.153
43.54000 1.216
43.56000 -0.409
43.58000 1.559
43.60000 1.031
43.62000 0.412
43.64000 -0.393
43.66000 1.035
43.68000 -0.423
43.70000 -0.993
43.72000 -2.115
43.74000 -0.444
43.76000 -3.145
43.78000 2.435
43.80000 3.384
43.82000 1.200
43.84000 1.626
43.86000 1.781
43.88000 -1.325
43.90000 2.664
43.92000 1.876
43.94000 1.606
43.96000 -0.318
43.98000 1.663
44.00000 0.491
44.02000 -1.856
44.04000 -1.764
44.06000 -2.801
44.08000 -3.131
44.10000 -0.736
44.12000 -0.426
44.14000 0.410
44.16000 1.371
44.18000 1.912
44.20000 4.111
44.22000 2.867
44.24000 -0.169
44.26000 -1.393
44.28000 0.031
44.30000 3.876
44.32000 1.716
44.34000 -0.175
44.36000 2.346
44.38000 1.179
44.40000 -0.684
44.42000 1.205
44.44000 1.941
44.46000 1.099
44.48000 -1.199
44.50000 -2.299
44.52000 -0.025
44.54000 3.306
44.56000 0.373
44.58000 -0.900
44.60000 2.357
44.62000 2.512
44.64000 2.617
44.66000 2.861
44.68000 3.615
44.70000 5.676
44.72000 1.976
44.74000 1.292
44.76000 2.795
44.78000 5.082
44.80000 8.550
44.82000 8.237
44.84000 7.539
44.86000 4.167
44.88000 2.786
44.90000 3.079
44.92000 6.369
44.94000 8.843
44.96000 9.386
44.98000 6.833
45.00000 8.036
45.02000 13.387
45.04000 12.325
45.06000 12.828
45.08000 10.356
45.10000 8.676
45.12000 8.499
45.14000 11.607
45.16000 10.734
45.18000 10.461
45.20000 12.239
45.22000 11.999
45.24000 13.344
45.26000 14.471
45.28000 16.990
45.30000 18.944
45.32000 21.141
45.34000 25.527
45.36000 24.247
45.38000 22.742
45.40000 19.158
45.42000 22.217
45.44000 20.613
45.46000 27.039
45.48000 29.581
45.50000 29.485
45.52000 30.853
45.54000 29.831
45.56000 30.392
45.58000 32.378
45.60000 31.675
45.62000 32.522
45.64000 33.316
45.66000 34.088
45.68000 32.029
45.70000 36.657
45.72000 39.953
45.74000 39.119
45.76000 45.531
45.78000 47.527
45.80000 42.748
45.82000 47.777
45.84000 48.053
45.86000 46.655
45.88000 51.125
45.90000 49.191
45.92000 49.215
45.94000 50.333
45.96000 50.963
45.98000 55.969
46.00000 60.656
46.02000 65.380
46.04000 65.759
46.06000 62.743
46.08000 62.498
46.10000 59.831
46.12000 61.423
46.14000 57.893
46.16000 62.452
46.18000 58.432
46.20000 59.320
46.22000 60.328
46.24000 61.975
46.26000 59.190
46.28000 59.110
46.30000 57.900
46.32000 55.024
46.34000 50.843
46.36000 52.772
46.38000 52.962
46.40000 53.042
46.42000 55.702
46.44000 52.170
46.46000 48.917
46.48000 48.719
46.50000 43.970
46.52000 46.802
46.54000 43.028
46.56000 38.085
46.58000 36.143
46.60000 34.825
46.62000 33.566
46.64000 32.752
46.66000 33.721
46.68000 30.257
46.70000 31.788
46.72000 32.326
46.74000 30.330
46.76000 25.791
46.78000 26.649
46.80000 21.263
46.82000 16.172
46.84000 16.795
46.86000 18.685
46.88000 19.339
46.90000 12.761
46.92000 13.476
46.94000 14.040
46.96000 13.985
46.98000 14.564
47.00000 11.348
47.02000 10.540
47.04000 10.511
47.06000 10.709
47.08000 13.204
47.10000 10.381
47.12000 10.315
47.14000 7.708
47.16000 7.724
47.18000 11.324
47.20000 9.594
47.22000 9.728
47.24000 10.494
47.26000 2.105
47.28000 2.477
47.30000 4.259
47.32000 2.053
47.34000 -2.787
47.36000 -1.054
47.38000 1.859
47.40000 5.985
47.42000 2.267
47.44000 1.855
47.46000 3.197
47.48000 2.986
47.50000 -0.486
47.52000 2.919
47.54000 1.369
47.56000 0.890
47.58000 1.036
47.60000 0.489
47.62000 2.534
47.64000 0.129
47.66000 1.783
47.68000 1.589
47.70000 2.035
47.72000 2.511
47.74000 2.087
47.76000 1.597
47.78000 2.370
47.80000 0.757
47.82000 1.493
47.84000 -2.151
47.86000 -2.697
47.88000 0.445
47.90000 4.635
47.92000 5.407
47.94000 2.740
47.96000 0.972
47.98000 1.074
48.00000 -1.479
48.02000 1.313
48.04000 4.496
48.06000 2.844
48.08000 2.353
48.10000 1.621
48.12000 3.416
48.14000 0.986
48.16000 -0.526
48.18000 2.156
48.20000 4.479
48.22000 1.286
48.24000 0.760
48.26000 1.068
48.28000 -0.918
48.30000 -1.392
48.32000 0.321
48.34000 -1.146
48.36000 3.971
48.38000 0.799
48.40000 0.762
48.42000 1.930
48.44000 3.208
48.46000 6.557
48.48000 4.553
48.50000 1.805
48.52000 3.084
48.54000 4.742
48.56000 3.835
48.58000 1.508
48.60000 4.889
48.62000 3.488
48.64000 2.543
48.66000 2.767
48.68000 4.434
48.70000 3.789
48.72000 4.588
48.74000 2.060
48.76000 -2.596
48.78000 1.757
48.80000 2.190
48.82000 2.733
48.84000 2.294
48.86000 1.860
48.88000 1.333
48.90000 -0.954
48.92000 2.489
48.94000 3.016
48.96000 3.904
48.98000 7.404
49.00000 5.397
49.02000 6.366
49.04000 6.112
49.06000 4.377
49.08000 2.722
49.10000 3.167
49.12000 1.756
49.14000 1.925
49.16000 0.160
49.18000 0.717
49.20000 -0.304
49.22000 2.762
49.24000 3.844
49.26000 0.094
49.28000 2.420
49.30000 1.531
49.32000 3.369
49.34000 4.068
49.36000 4.112
49.38000 2.582
49.40000 -2.463
49.42000 2.987
49.44000 2.130
49.46000 2.650
49.48000 0.765
49.50000 4.448
49.52000 1.955
49.54000 1.241
49.56000 4.237
49.58000 1.888
49.60000 1.596
49.62000 5.868
49.64000 4.683
49.66000 0.009
49.68000 1.874
49.70000 1.998
49.72000 3.926
49.74000 2.982
49.76000 3.541
49.78000 1.350
49.80000 -0.676
49.82000 0.166
49.84000 2.102
49.86000 1.070
49.88000 4.776
49.90000 3.694
49.92000 -1.824
49.94000 -2.530
49.96000 0.719
49.98000 6.514
50.00000 6.011
50.02000 -0.275
50.04000 0.730
50.06000 1.398
50.08000 -1.053
50.10000 -0.746
50.12000 -2.283
50.14000 -0.726
50.16000 2.182
50.18000 2.050
50.20000 4.463
50.22000 5.231
50.24000 0.810
50.26000 0.718
50.28000 -0.058
50.30000 2.515
50.32000 2.210
50.34000 3.834
50.36000 5.344
50.38000 3.217
50.40000 4.747
50.42000 5.109
50.44000 1.101
50.46000 2.352
50.48000 2.376
50.50000 2.361
50.52000 3.139
50.54000 -0.984
50.56000 -0.566
50.58000 -1.738
50.60000 0.728
50.62000 1.174
50.64000 3.560
50.66000 -0.749
50.68000 -2.515
50.70000 -1.203
50.72000 0.233
50.74000 2.041
50.76000 1.357
50.78000 4.698
50.80000 5.200
50.82000 3.909
50.84000 -0.097
50.86000 1.884
50.88000 2.135
50.90000 3.165
50.92000 2.459
50.94000 1.286
50.96000 3.593
50.98000 4.211
51.00000 3.076
51.02000 -0.361
51.04000 -2.496
51.06000 -0.205
51.08000 1.962
51.10000 2.604
51.12000 0.967
51.14000 5.025
51.16000 4.704
51.18000 5.842
51.20000 4.471
51.22000 -1.579
51.24000 -2.461
51.26000 3.619
51.28000 4.217
51.30000 1.934
51.32000 3.693
51.34000 4.051
51.36000 3.448
51.38000 1.763
51.40000 -1.137
51.42000 0.940
51.44000 1.395
51.46000 3.386
51.48000 0.043
51.50000 0.712
51.52000 -2.476
51.54000 4.054
51.56000 3.647
51.58000 5.427
51.60000 4.221
51.62000 2.954
51.64000 5.047
51.66000 6.524
51.68000 5.669
51.70000 3.686
51.72000 0.765
51.74000 1.942
51.76000 3.198
51.78000 0.789
51.80000 1.261
51.82000 0.258
51.84000 0.691
51.86000 1.569
51.88000 1.876
51.90000 3.646
51.92000 3.088
51.94000 0.532
51.96000 1.193
51.98000 -1.678
52.00000 0.100
52.02000 0.006
52.04000 1.734
52.06000 2.977
52.08000 0.239
52.10000 1.689
52.12000 4.587
52.14000 5.181
52.16000 -0.054
52.18000 1.785
52.20000 3.110
52.22000 4.417
52.24000 0.358
52.26000 -1.098
52.28000 0.182
52.30000 1.577
52.32000 2.099
52.34000 0.358
52.36000 0.339
52.38000 -0.683
52.40000 0.666
52.42000 3.155
52.44000 1.998
52.46000 -0.723
52.48000 4.782
52.50000 3.567
52.52000 2.509
52.54000 1.522
52.56000 2.657
52.58000 1.121
52.60000 -1.819
52.62000 3.761
52.64000 6.488
52.66000 1.474
52.68000 2.199
52.70000 0.532
52.72000 0.502
52.74000 0.482
52.76000 -0.037
52.78000 0.783
52.80000 -0.018
52.82000 3.673
52.84000 5.238
52.86000 0.669
52.88000 2.534
52.90000 7.313
52.92000 6.592
52.94000 6.464
52.96000 5.023
52.98000 4.417
53.00000 4.535
53.02000 4.078
53.04000 5.375
53.06000 2.118
53.08000 2.591
53.10000 1.951
53.12000 3.144
53.14000 0.501
53.16000 -0.319
53.18000 2.946
53.20000 0.898
53.22000 -2.410
53.24000 -1.046
53.26000 0.505
53.28000 1.883
53.30000 1.497
53.32000 3.681
53.34000 7.358
53.36000 4.226
53.38000 0.909
53.40000 2.168
53.42000 6.355
53.44000 6.109
53.46000 6.363
53.48000 3.357
53.50000 3.195
53.52000 3.326
53.54000 3.452
53.56000 2.667
53.58000 1.687
53.60000 2.826
53.62000 2.344
53.64000 -1.707
53.66000 1.184
53.68000 2.661
53.70000 3.595
53.72000 1.215
53.74000 -0.576
53.76000 0.882
53.78000 1.811
53.80000 1.216
53.82000 -2.151
53.84000 -1.979
53.86000 1.099
53.88000 3.456
53.90000 3.218
53.92000 3.932
53.94000 4.087
53.96000 3.621
53.98000 4.248
54.00000 3.951
54.02000 1.502
54.04000 1.136
54.06000 1.061
54.08000 6.233
54.10000 4.270
54.12000 4.251
54.14000 3.619
54.16000 1.400
54.18000 2.083
54.20000 2.726
54.22000 2.995
54.24000 4.819
54.26000 5.471
54.28000 3.511
54.30000 3.563
54.32000 2.103
54.34000 -0.431
54.36000 1.291
54.38000 1.248
54.40000 1.890
54.42000 4.863
54.44000 4.332
54.46000 1.453
54.48000 -2.393
54.50000 -0.402
54.52000 3.053
54.54000 0.727
54.56000 -1.977
54.58000 -0.731
54.60000 2.999
54.62000 1.667
54.64000 2.654
54.66000 0.370
54.68000 1.074
54.70000 6.697
54.72000 5.638
54.74000 7.564
54.76000 4.440
54.78000 -0.824
54.80000 -0.094
54.82000 1.172
54.84000 3.449
54.86000 3.675
54.88000 0.565
54.90000 -1.116
54.92000 1.515
54.94000 3.883
54.96000 7.076
54.98000 3.284
55.00000 3.076
55.02000 3.070
55.04000 2.190
55.06000 2.603
55.08000 1.283
55.10000 3.723
55.12000 5.665
55.14000 3.287
55.16000 3.955
55.18000 0.141
55.20000 1.225
55.22000 1.069
55.24000 1.262
55.26000 -0.620
55.28000 -1.009
55.30000 1.737
55.32000 3.293
55.34000 6.232
55.36000 3.684
55.38000 4.129
55.40000 3.266
55.42000 3.412
55.44000 4.479
55.46000 2.746
55.48000 2.203
55.50000 0.147
55.52000 1.386
55.54000 1.574
55.56000 1.015
55.58000 1.422
55.60000 1.748
55.62000 -2.342
55.64000 -0.886
55.66000 1.216
55.68000 2.509
55.70000 3.057
55.72000 3.924
55.74000 3.913
55.76000 3.440
55.78000 6.808
55.80000 2.081
55.82000 0.287
55.84000 1.920
55.86000 -0.553
55.88000 2.053
55.90000 -0.095
55.92000 0.161
55.94000 -1.216
55.96000 -2.358
55.98000 -2.200
56.00000 1.316
56.02000 4.169
56.04000 3.197
56.06000 3.007
56.08000 4.497
56.10000 3.229
56.12000 3.623
56.14000 4.990
56.16000 3.636
56.18000 2.553
56.20000 4.974
56.22000 6.164
56.24000 3.448
56.26000 4.921
56.28000 5.905
56.30000 6.473
56.32000 4.411
56.34000 2.341
56.36000 -1.749
56.38000 -1.592
56.40000 1.427
56.42000 4.526
56.44000 3.738
56.46000 4.627
56.48000 1.333
56.50000 2.345
56.52000 4.287
56.54000 1.839
56.56000 1.913
56.58000 3.880
56.60000 1.852
56.62000 -1.168
56.64000 0.293
56.66000 -0.081
56.68000 3.198
56.70000 2.067
56.72000 1.608
56.74000 1.197
56.76000 3.608
56.78000 0.906
56.80000 -0.915
56.82000 0.029
56.84000 -1.364
56.86000 3.200
56.88000 2.673
56.90000 -0.031
56.92000 1.057
56.94000 2.495
56.96000 -1.407
56.98000 0.036
57.00000 -1.393
57.02000 -0.681
57.04000 -1.396
57.06000 -0.741
57.08000 2.720
57.10000 4.856
57.12000 4.486
57.14000 1.720
57.16000 0.283
57.18000 -1.038
57.20000 0.845
57.22000 0.187
57.24000 -0.672
57.26000 3.597
57.28000 1.393
57.30000 0.097
57.32000 1.222
57.34000 -0.641
57.36000 -0.955
57.38000 -2.338
57.40000 -1.484
57.42000 1.251
57.44000 2.668
57.46000 -1.146
57.48000 -0.826
57.50000 1.305
57.52000 4.156
57.54000 2.257
57.56000 4.345
57.58000 4.245
57.60000 1.673
57.62000 3.147
57.64000 -0.760
57.66000 0.665
57.68000 2.196
57.70000 1.692
57.72000 3.455
57.74000 3.626
57.76000 3.381
57.78000 8.080
57.80000 5.670
57.82000 5.686
57.84000 2.552
57.86000 2.249
57.88000 1.573
57.90000 -0.004
57.92000 -2.312
57.94000 3.032
57.96000 2.899
57.98000 5.444
58.00000 5.214
58.02000 3.222
58.04000 3.925
58.06000 2.444
58.08000 2.124
58.10000 3.913
58.12000 1.575
58.14000 0.532
58.16000 2.412
58.18000 3.281
58.20000 0.666
58.22000 -0.751
58.24000 1.494
58.26000 1.770
58.28000 3.788
58.30000 1.048
58.32000 0.195
58.34000 -1.436
58.36000 0.197
58.38000 3.991
58.40000 3.870
58.42000 3.391
58.44000 3.008
58.46000 0.926
58.48000 -0.319
58.50000 0.420
58.52000 0.390
58.54000 0.815
58.56000 1.043
58.58000 0.865
58.60000 2.490
58.62000 3.955
58.64000 3.697
58.66000 6.012
58.68000 5.382
58.70000 1.214
58.72000 -0.961
58.74000 0.345
58.76000 0.522
58.78000 0.834
58.80000 2.451
58.82000 1.034
58.84000 2.046
58.86000 6.019
58.88000 4.506
58.90000 1.244
58.92000 -0.175
58.94000 -1.742
58.96000 -0.799
58.98000 2.318
59.00000 4.291
59.02000 6.427
59.04000 0.896
59.06000 -0.999
59.08000 -0.835
59.10000 2.193
59.12000 2.849
59.14000 -0.109
59.16000 3.115
59.18000 7.757
59.20000 4.050
59.22000 3.401
59.24000 0.805
59.26000 -2.272
59.28000 -1.322
59.30000 1.477
59.32000 0.485
59.34000 2.779
59.36000 1.294
59.38000 1.225
59.40000 2.212
59.42000 5.218
59.44000 4.658
59.46000 -0.228
59.48000 1.506
59.50000 1.510
59.52000 2.899
59.54000 2.190
59.56000 4.352
59.58000 6.015
59.60000 6.688
59.62000 3.823
59.64000 3.575
59.66000 1.398
59.68000 3.332
59.70000 5.260
59.72000 2.342
59.74000 3.290
59.76000 5.561
59.78000 6.979
59.80000 3.313
59.82000 -2.149
59.84000 1.355
59.86000 3.844
59.88000 0.808
59.90000 2.205
59.92000 1.535
59.94000 1.635
59.96000 -0.106
59.98000 1.957
60.00000 0.911
60.02000 -0.963
60.04000 2.820
60.06000 5.347
60.08000 2.815
60.10000 2.853
60.12000 3.214
60.14000 4.024
60.16000 2.878
60.18000 0.615
60.20000 1.483
60.22000 0.893
60.24000 0.787
60.26000 3.944
60.28000 4.893
60.30000 1.952
60.32000 1.004
60.34000 2.507
60.36000 -1.483
60.38000 -2.247
60.40000 -0.401
60.42000 2.794
60.44000 2.712
60.46000 0.388
60.48000 -0.373
60.50000 1.769
60.52000 1.469
60.54000 2.819
60.56000 0.155
60.58000 3.739
60.60000 2.909
60.62000 2.417
60.64000 3.497
60.66000 6.775
60.68000 5.461
60.70000 4.114
60.72000 3.178
60.74000 6.134
60.76000 2.698
60.78000 -0.057
60.80000 0.820
60.82000 2.708
60.84000 -1.220
60.86000 0.180
60.88000 0.518
60.90000 0.814
60.92000 2.193
60.94000 2.215
60.96000 -1.057
60.98000 -2.202
61.00000 1.981
61.02000 5.527
61.04000 6.805
61.06000 7.630
61.08000 6.267
61.10000 4.910
61.12000 2.101
61.14000 2.242
61.16000 0.849
61.18000 2.211
61.20000 5.845
61.22000 3.642
61.24000 3.832
61.26000 1.356
61.28000 -0.382
61.30000 -0.102
61.32000 1.574
61.34000 2.070
61.36000 3.507
61.38000 3.419
61.40000 0.275
61.42000 1.404
61.44000 0.516
61.46000 5.195
61.48000 5.357
61.50000 5.346
61.52000 4.698
61.54000 2.960
61.56000 2.062
61.58000 3.677
61.60000 2.040
61.62000 1.326
61.64000 1.997
61.66000 -0.873
61.68000 -0.919
61.70000 1.939
61.72000 2.341
61.74000 2.056
61.76000 4.052
61.78000 3.956
61.80000 0.037
61.82000 -0.585
61.84000 4.297
61.86000 4.318
61.88000 5.394
61.90000 4.889
61.92000 1.947
61.94000 1.738
61.96000 2.204
61.98000 1.444
62.00000 1.715
62.02000 3.133
62.04000 7.076
62.06000 5.116
62.08000 1.486
62.10000 -0.299
62.12000 -0.357
62.14000 3.901
62.16000 3.266
62.18000 1.668
62.20000 4.118
62.22000 5.271
62.24000 2.635
62.26000 2.127
62.28000 2.118
62.30000 -2.172
62.32000 -0.604
62.34000 2.605
62.36000 4.298
62.38000 1.938
62.40000 2.317
62.42000 4.164
62.44000 6.496
62.46000 3.558
62.48000 2.799
62.50000 4.346
62.52000 3.182
62.54000 0.741
62.56000 1.961
62.58000 4.105
62.60000 4.684
62.62000 2.049
62.64000 1.298
62.66000 1.733
62.68000 1.470
62.70000 2.180
62.72000 4.144
62.74000 3.151
62.76000 1.594
62.78000 -2.185
62.80000 -1.966
62.82000 0.627
62.84000 2.658
62.86000 3.492
62.88000 3.375
62.90000 2.948
62.92000 -1.847
62.94000 0.511
62.96000 2.743
62.98000 1.671
63.00000 0.743
63.02000 -0.562
63.04000 -0.197
63.06000 0.147
63.08000 1.648
63.10000 1.609
63.12000 0.569
63.14000 0.083
63.16000 1.477
63.18000 1.460
63.20000 2.975
63.22000 -1.683
63.24000 2.565
63.26000 2.444
63.28000 2.975
63.30000 0.103
63.32000 -2.187
63.34000 -0.236
63.36000 -1.213
63.38000 -1.850
63.40000 3.792
63.42000 4.191
63.44000 3.069
63.46000 2.453
63.48000 1.321
63.50000 0.668
63.52000 1.797
63.54000 0.380
63.56000 3.270
63.58000 3.519
63.60000 -0.519
63.62000 3.049
63.64000 0.718
63.66000 0.535
63.68000 -2.192
63.70000 -0.904
63.72000 1.221
63.74000 4.884
63.76000 2.382
63.78000 2.515
63.80000 2.147
63.82000 0.395
63.84000 2.294
63.86000 0.803
63.88000 0.466
63.90000 1.958
63.92000 0.313
63.94000 -1.492
63.96000 2.294
63.98000 2.148
64.00000 1.381
64.02000 3.587
64.04000 2.833
64.06000 2.029
64.08000 1.067
64.10000 1.351
64.12000 1.616
64.14000 -0.573
64.16000 1.309
64.18000 1.048
64.20000 1.026
64.22000 1.839
64.24000 0.837
64.26000 -0.391
64.28000 -1.109
64.30000 -0.276
64.32000 -2.192
64.34000 0.056
64.36000 -0.953
64.38000 -0.435
64.40000 0.398
64.42000 1.371
64.44000 -0.928
64.46000 0.411
64.48000 2.209
64.50000 2.762
64.52000 -0.350
64.54000 -0.777
64.56000 2.418
64.58000 1.001
64.60000 0.371
64.62000 1.622
64.64000 0.733
64.66000 1.703
64.68000 -0.131
64.70000 1.383
64.72000 2.997
64.74000 4.202
64.76000 5.608
64.78000 3.967
64.80000 3.528
64.82000 5.003
64.84000 5.094
64.86000 -0.150
64.88000 -0.436
64.90000 0.008
64.92000 1.439
64.94000 -2.169
64.96000 1.153
64.98000 2.752
65.00000 3.856
65.02000 2.322
65.04000 1.271
65.06000 1.324
65.08000 1.275
65.10000 0.526
65.12000 2.166
65.14000 2.777
65.16000 3.273
65.18000 3.410
65.20000 3.264
65.22000 -0.558
65.24000 -0.936
65.26000 -0.818
65.28000 2.921
65.30000 2.163
65.32000 1.975
65.34000 0.075
65.36000 0.303
65.38000 0.660
65.40000 1.124
65.42000 0.788
65.44000 -0.716
65.46000 -0.328
65.48000 1.604
65.50000 3.056
65.52000 1.574
65.54000 -1.428
65.56000 -1.197
65.58000 -2.201
65.60000 -2.130
65.62000 -0.076
65.64000 2.084
65.66000 -0.338
65.68000 0.094
65.70000 -1.254
65.72000 1.166
65.74000 -0.518
65.76000 -1.379
65.78000 -1.288
65.80000 0.741
65.82000 0.497
65.84000 -1.480
65.86000 0.119
65.88000 1.037
65.90000 -1.620
65.92000 0.684
65.94000 0.016
65.96000 -0.229
65.98000 -1.956
66.00000 -2.214
66.02000 -0.829
66.04000 1.149
66.06000 -1.164
66.08000 2.239
66.10000 3.759
66.12000 1.920
66.14000 0.568
66.16000 -0.807
66.18000 0.486
66.20000 -0.078
66.22000 0.570
66.24000 0.342
66.26000 2.196
66.28000 0.091
66.30000 0.093
66.32000 0.154
66.34000 1.600
66.36000 1.601
66.38000 0.076
66.40000 0.213
66.42000 1.769
66.44000 3.749
66.46000 2.702
66.48000 3.066
66.50000 2.768
66.52000 5.101
66.54000 4.102
66.56000 2.809
66.58000 2.783
66.60000 3.670
66.62000 6.210
66.64000 5.096
66.66000 4.284
66.68000 6.003
66.70000 4.552
66.72000 5.000
66.74000 4.197
66.76000 3.997
66.78000 4.112
66.80000 5.018
66.82000 4.653
66.84000 3.245
66.86000 2.866
66.88000 7.477
66.90000 5.864
66.92000 5.032
66.94000 4.241
66.96000 5.776
66.98000 8.663
67.00000 7.543
67.02000 8.655
67.04000 7.845
67.06000 9.177
67.08000 8.166
67.10000 6.651
67.12000 7.462
67.14000 8.937
67.16000 7.399
67.18000 6.006
67.20000 7.520
67.22000 9.417
67.24000 10.365
67.26000 12.129
67.28000 8.673
67.30000 6.722
67.32000 8.728
67.34000 10.498
67.36000 10.506
67.38000 7.646
67.40000 5.824
67.42000 6.955
67.44000 9.054
67.46000 8.134
67.48000 5.849
67.50000 5.386
67.52000 5.253
67.54000 2.835
67.56000 2.685
67.58000 3.978
67.60000 3.710
67.62000 3.148
67.64000 5.265
67.66000 3.294
67.68000 2.614
67.70000 1.204
67.72000 2.137
67.74000 3.178
67.76000 4.024
67.78000 3.095
67.80000 3.134
67.82000 0.546
67.84000 1.232
67.86000 2.730
67.88000 2.794
67.90000 3.134
67.92000 5.166
67.94000 3.568
67.96000 1.448
67.98000 0.695
68.00000 0.475
68.02000 2.498
68.04000 2.804
68.06000 2.587
68.08000 1.957
68.10000 0.751
68.12000 2.264
68.14000 1.288
68.16000 -0.983
68.18000 1.144
68.20000 1.978
68.22000 -2.115
68.24000 -1.068
68.26000 1.410
68.28000 0.523
68.30000 0.928
68.32000 1.622
68.34000 -1.156
68.36000 2.172
68.38000 3.608
68.40000 0.966
68.42000 -0.983
68.44000 -0.742
68.46000 -1.737
68.48000 1.185
68.50000 1.718
68.52000 -1.811
68.54000 0.540
68.56000 0.976
68.58000 1.181
68.60000 0.409
68.62000 -2.069
68.64000 0.727
68.66000 1.312
68.68000 2.935
68.70000 0.895
68.72000 0.570
68.74000 1.220
68.76000 0.215
68.78000 -0.810
68.80000 0.920
68.82000 2.890
68.84000 1.663
68.86000 1.130
68.88000 0.991
68.90000 -0.100
68.92000 1.241
68.94000 -1.231
68.96000 1.511
68.98000 2.449
69.00000 0.774
69.02000 -0.137
69.04000 -0.099
69.06000 1.262
69.08000 1.378
69.10000 1.709
69.12000 0.956
69.14000 1.394
69.16000 -0.203
69.18000 -0.872
69.20000 0.105
69.22000 1.785
69.24000 1.410
69.26000 1.789
69.28000 0.285
69.30000 1.443
69.32000 -0.445
69.34000 -0.201
69.36000 1.071
69.38000 -0.942
69.40000 -0.794
69.42000 2.895
69.44000 2.277
69.46000 -0.794
69.48000 -2.028
69.50000 0.496
69.52000 -0.085
69.54000 1.460
69.56000 2.596
69.58000 0.137
69.60000 -1.299
69.62000 0.247
69.64000 0.556
69.66000 0.801
69.68000 -0.227
69.70000 -0.491
69.72000 0.670
69.74000 0.636
69.76000 -0.740
69.78000 -0.616
69.80000 -1.025
69.82000 0.885
69.84000 2.812
69.86000 1.195
69.88000 -0.499
69.90000 -1.008
69.92000 1.676
69.94000 1.503
69.96000 -0.035
69.98000 -0.291
70.00000 2.484
70.02000 -0.821
70.04000 -1.031
70.06000 -0.750
70.08000 1.155
70.10000 0.658
70.12000 1.694
70.14000 1.984
70.16000 2.142
70.18000 -0.149
70.20000 0.857
70.22000 -1.587
70.24000 -0.611
70.26000 -0.086
70.28000 -1.977
70.30000 -0.869
70.32000 0.703
70.34000 2.883
70.36000 3.300
70.38000 3.000
70.40000 4.551
70.42000 0.319
70.44000 1.013
70.46000 3.564
70.48000 3.997
70.50000 1.537
70.52000 -0.116
70.54000 -0.472
70.56000 -0.472
70.58000 2.441
70.60000 1.561
70.62000 -0.363
70.64000 1.576
70.66000 0.051
70.68000 -0.624
70.70000 0.096
70.72000 0.236
70.74000 0.440
70.76000 0.331
70.78000 0.784
70.80000 2.770
70.82000 3.763
70.84000 1.383
70.86000 1.857
70.88000 2.440
70.90000 4.884
70.92000 2.776
70.94000 0.464
70.96000 -1.049
70.98000 -0.748
71.00000 -0.941
71.02000 0.496
71.04000 -1.325
71.06000 -1.722
71.08000 2.225
71.10000 1.822
71.12000 -0.667
71.14000 -0.819
71.16000 1.648
71.18000 -0.143
71.20000 1.152
71.22000 -1.969
71.24000 -1.230
71.26000 -1.352
71.28000 -1.379
71.30000 1.745
71.32000 2.575
71.34000 0.927
71.36000 0.706
71.38000 -0.638
71.40000 1.243
71.42000 1.513
71.44000 2.255
71.46000 1.618
71.48000 0.524
71.50000 -0.221
71.52000 -1.060
71.54000 0.255
71.56000 0.109
71.58000 -1.119
71.60000 -0.446
71.62000 5.293
71.64000 2.268
71.66000 2.049
71.68000 -0.249
71.70000 -0.956
71.72000 -1.447
71.74000 -0.379
71.76000 -1.416
71.78000 -0.920
71.80000 -1.887
71.82000 -1.527
71.84000 -0.919
71.86000 -0.295
71.88000 1.123
71.90000 0.979
71.92000 1.331
71.94000 1.880
71.96000 0.714
71.98000 0.452
72.00000 0.320
72.02000 -0.996
72.04000 0.315
72.06000 0.182
72.08000 2.239
72.10000 1.054
72.12000 1.729
72.14000 1.050
72.16000 2.028
72.18000 1.191
72.20000 1.640
72.22000 2.114
72.24000 3.790
72.26000 1.132
72.28000 1.695
72.30000 1.650
72.32000 2.270
72.34000 0.277
72.36000 -0.253
72.38000 -1.445
72.40000 -1.921
72.42000 1.289
72.44000 2.130
72.46000 0.402
72.48000 -1.013
72.50000 -0.876
72.52000 -0.623
72.54000 -0.117
72.56000 0.543
72.58000 -0.581
72.60000 1.438
72.62000 1.943
72.64000 1.219
72.66000 -1.905
72.68000 -0.282
72.70000 -0.626
72.72000 1.094
72.74000 -0.621
72.76000 1.785
72.78000 6.254
72.80000 2.431
72.82000 -1.195
72.84000 0.833
72.86000 1.583
72.88000 0.338
72.90000 0.950
72.92000 0.793
72.94000 3.532
72.96000 1.478
72.98000 -0.346
73.00000 -0.629
73.02000 3.557
73.04000 -0.160
73.06000 -0.028
73.08000 0.939
73.10000 2.367
73.12000 3.065
73.14000 2.939
73.16000 -1.873
73.18000 -1.708
73.20000 -0.590
73.22000 1.082
73.24000 -1.291
73.26000 0.444
73.28000 0.909
73.30000 0.116
73.32000 -1.118
73.34000 -0.613
73.36000 1.882
73.38000 0.574
73.40000 0.659
73.42000 0.967
73.44000 3.877
73.46000 1.806
73.48000 1.404
73.50000 1.390
73.52000 -1.914
73.54000 0.157
73.56000 0.271
73.58000 1.305
73.60000 -1.452
73.62000 -1.325
73.64000 1.131
73.66000 1.454
73.68000 0.764
73.70000 0.366
73.72000 0.400
73.74000 0.626
73.76000 0.313
73.78000 -0.368
73.80000 -0.683
73.82000 1.253
73.84000 -0.804
73.86000 1.041
73.88000 2.530
73.90000 2.296
73.92000 0.346
73.94000 0.248
73.96000 -0.045
73.98000 -0.570
74.00000 0.884
74.02000 1.168
74.04000 1.916
74.06000 2.223
74.08000 0.192
74.10000 0.490
74.12000 -0.129
74.14000 0.602
74.16000 -0.625
74.18000 0.711
74.20000 -0.294
74.22000 -0.981
74.24000 1.113
74.26000 0.593
74.28000 0.922
74.30000 -0.793
74.32000 -1.897
74.34000 0.695
74.36000 3.019
74.38000 3.713
74.40000 1.733
74.42000 1.666
74.44000 3.264
74.46000 1.543
74.48000 0.951
74.50000 1.302
74.52000 0.969
74.54000 3.132
74.56000 5.450
74.58000 -1.662
74.60000 -1.444
74.62000 -0.143
74.64000 2.025
74.66000 0.616
74.68000 -0.310
74.70000 4.882
74.72000 4.052
74.74000 0.482
74.76000 1.834
74.78000 0.931
74.80000 1.266
74.82000 1.982
74.84000 2.778
74.86000 4.131
74.88000 4.406
74.90000 5.681
74.92000 5.702
74.94000 1.993
74.96000 -1.863
74.98000 0.672
75.00000 0.267
75.02000 2.760
75.04000 0.759
75.06000 -0.465
75.08000 2.527
75.10000 3.598
75.12000 4.749
75.14000 5.795
75.16000 3.848
75.18000 2.158
75.20000 2.150
75.22000 2.092
75.24000 4.131
75.26000 5.593
75.28000 2.289
75.30000 2.054
75.32000 2.215
75.34000 1.712
75.36000 2.826
75.38000 2.970
75.40000 3.611
75.42000 2.256
75.44000 1.433
75.46000 2.540
75.48000 0.937
75.50000 -0.233
75.52000 0.010
75.54000 1.235
75.56000 2.482
75.58000 3.426
75.60000 2.658
75.62000 2.563
75.64000 3.030
75.66000 1.323
75.68000 1.868
75.70000 -1.188
75.72000 1.533
75.74000 1.628
75.76000 2.063
75.78000 1.408
75.80000 2.532
75.82000 2.192
75.84000 0.243
75.86000 0.704
75.88000 -0.499
75.90000 2.203
75.92000 4.733
75.94000 2.499
75.96000 0.100
75.98000 0.415
76.00000 1.510
76.02000 0.837
76.04000 0.148
76.06000 1.925
76.08000 2.001
76.10000 1.532
76.12000 1.708
76.14000 -0.237
76.16000 0.546
76.18000 0.304
76.20000 2.090
76.22000 2.081
76.24000 1.340
76.26000 0.968
76.28000 4.172
76.30000 -0.921
76.32000 1.888
76.34000 1.707
76.36000 -0.780
76.38000 0.625
76.40000 1.188
76.42000 -1.198
76.44000 1.478
76.46000 2.208
76.48000 1.316
76.50000 2.196
76.52000 0.745
76.54000 2.271
76.56000 1.655
76.58000 2.208
76.60000 3.683
76.62000 2.989
76.64000 1.959
76.66000 2.469
76.68000 2.812
76.70000 0.956
76.72000 -1.906
76.74000 1.199
76.76000 1.691
76.78000 3.366
76.80000 2.228
76.82000 1.634
76.84000 -0.077
76.86000 1.898
76.88000 3.106
76.90000 2.761
76.92000 2.084
76.94000 -0.933
76.96000 -0.104
76.98000 0.291
77.00000 2.038
77.02000 4.838
77.04000 2.665
77.06000 4.373
77.08000 3.249
77.10000 0.591
77.12000 0.989
77.14000 -0.997
77.16000 1.204
77.18000 2.240
77.20000 1.208
77.22000 0.896
77.24000 3.718
77.26000 2.281
77.28000 2.374
77.30000 0.419
77.32000 3.802
77.34000 2.139
77.36000 0.929
77.38000 2.229
77.40000 -1.460
77.42000 -1.626
77.44000 1.039
77.46000 -0.050
77.48000 1.001
77.50000 -0.076
77.52000 0.337
77.54000 1.158
77.56000 0.909
77.58000 1.282
77.60000 -0.022
77.62000 -0.890
77.64000 0.432
77.66000 2.077
77.68000 -0.828
77.70000 -1.383
77.72000 -1.429
77.74000 1.359
77.76000 -0.377
77.78000 0.463
77.80000 -0.931
77.82000 -0.679
77.84000 -0.706
77.86000 1.325
77.88000 1.198
77.90000 -1.965
77.92000 -0.122
77.94000 1.761
77.96000 4.354
77.98000 3.409
78.00000 2.775
78.02000 1.690
78.04000 1.193
78.06000 -0.851
78.08000 -1.071
78.10000 -0.475
78.12000 0.421
78.14000 1.985
78.16000 -0.747
78.18000 -0.728
78.20000 1.695
78.22000 -0.899
78.24000 -1.600
78.26000 0.556
78.28000 -0.086
78.30000 -0.429
78.32000 -0.974
78.34000 0.492
78.36000 0.175
78.38000 0.231
78.40000 -0.448
78.42000 2.419
78.44000 3.245
78.46000 1.455
78.48000 2.614
78.50000 0.544
78.52000 2.113
78.54000 1.364
78.56000 2.375
78.58000 0.707
78.60000 0.270
78.62000 -1.221
78.64000 -0.572
78.66000 2.597
78.68000 -0.018
78.70000 -1.080
78.72000 1.351
78.74000 2.833
78.76000 1.076
78.78000 -1.987
78.80000 -0.969
78.82000 -1.057
78.84000 1.435
78.86000 1.558
78.88000 2.825
78.90000 2.744
78.92000 0.977
78.94000 1.300
78.96000 3.034
78.98000 2.441
79.00000 2.515
79.02000 1.604
79.04000 2.128
79.06000 -0.263
79.08000 -2.005
79.10000 -0.262
79.12000 -1.182
79.14000 -0.703
79.16000 1.689
79.18000 2.197
79.20000 2.575
79.22000 2.578
79.24000 2.183
79.26000 -0.679
79.28000 0.316
79.30000 0.058
79.32000 1.944
79.34000 1.981
79.36000 -0.625
79.38000 0.581
79.40000 2.186
79.42000 2.361
79.44000 3.203
79.46000 2.841
79.48000 0.069
79.50000 1.355
79.52000 2.058
79.54000 1.623
79.56000 -1.851
79.58000 -1.039
79.60000 2.598
79.62000 2.802
79.64000 1.956
79.66000 4.194
79.68000 5.040
79.70000 3.308
79.72000 3.298
79.74000 2.873
79.76000 6.460
79.78000 2.278
79.80000 -0.764
79.82000 2.889
79.84000 5.263
79.86000 4.086
79.88000 3.182
79.90000 2.839
79.92000 3.713
79.94000 0.402
79.96000 -0.640
79.98000 1.694
80.00000 4.800
80.02000 4.507
80.04000 3.252
80.06000 1.663
80.08000 4.751
80.10000 6.728
80.12000 6.760
80.14000 8.488
80.16000 8.835
80.18000 7.617
80.20000 5.458
80.22000 6.352
80.24000 6.787
80.26000 6.420
80.28000 3.090
80.30000 7.266
80.32000 8.464
80.34000 8.963
80.36000 9.176
80.38000 9.512
80.40000 9.561
80.42000 12.395
80.44000 8.768
80.46000 9.169
80.48000 13.017
80.50000 14.349
80.52000 12.631
80.54000 12.416
80.56000 13.852
80.58000 14.546
80.60000 14.647
80.62000 13.727
80.64000 13.143
80.66000 16.189
80.68000 13.708
80.70000 13.576
80.72000 12.239
80.74000 10.982
80.76000 14.887
80.78000 15.988
80.80000 15.061
80.82000 13.866
80.84000 12.009
80.86000 15.237
80.88000 14.802
80.90000 13.071
80.92000 13.816
80.94000 15.780
80.96000 14.260
80.98000 14.025
81.00000 19.113
81.02000 16.873
81.04000 16.386
81.06000 18.505
81.08000 17.752
81.10000 15.433
81.12000 13.382
81.14000 15.171
81.16000 13.488
81.18000 14.441
81.20000 14.705
81.22000 13.374
81.24000 11.747
81.26000 12.842
81.28000 10.627
81.30000 10.003
81.32000 9.478
81.34000 8.608
81.36000 9.659
81.38000 12.588
81.40000 11.309
81.42000 13.865
81.44000 10.925
81.46000 10.551
81.48000 10.552
81.50000 8.746
81.52000 7.271
81.54000 6.317
81.56000 5.387
81.58000 6.882
81.60000 7.686
81.62000 7.198
81.64000 9.380
81.66000 9.132
81.68000 2.915
81.70000 5.103
81.72000 4.693
81.74000 2.831
81.76000 4.106
81.78000 5.526
81.80000 5.634
81.82000 1.643
81.84000 0.315
81.86000 1.940
81.88000 3.001
81.90000 5.292
81.92000 3.199
81.94000 1.224
81.96000 0.266
81.98000 1.908
82.00000 2.162
82.02000 2.524
82.04000 5.417
82.06000 3.674
82.08000 0.875
82.10000 -0.544
82.12000 2.281
82.14000 3.285
82.16000 -1.150
82.18000 -0.206
82.20000 1.209
82.22000 -0.805
82.24000 -2.080
82.26000 -0.594
82.28000 -0.433
82.30000 0.609
82.32000 2.560
82.34000 2.065
82.36000 1.485
82.38000 -1.697
82.40000 0.742
82.42000 -1.267
82.44000 -2.126
82.46000 -0.158
82.48000 0.045
82.50000 -0.094
82.52000 0.689
82.54000 0.415
82.56000 -0.524
82.58000 -1.892
82.60000 0.457
82.62000 -0.968
82.64000 0.255
82.66000 0.616
82.68000 4.668
82.70000 4.002
82.72000 0.826
82.74000 -0.185
82.76000 -0.900
82.78000 -2.089
82.80000 -0.336
82.82000 1.099
82.84000 4.358
82.86000 3.042
82.88000 1.689
82.90000 -2.089
82.92000 2.583
82.94000 -0.113
82.96000 -2.089
82.98000 -1.784
83.00000 -0.589
83.02000 0.612
83.04000 1.689
83.06000 0.426
83.08000 1.795
83.10000 1.604
83.12000 3.397
83.14000 2.847
83.16000 1.031
83.18000 0.582
83.20000 0.976
83.22000 -1.456
83.24000 -1.633
83.26000 0.945
83.28000 0.909
83.30000 2.013
83.32000 1.189
83.34000 4.128
83.36000 0.957
83.38000 0.619
83.40000 -1.141
83.42000 2.903
83.44000 2.464
83.46000 2.325
83.48000 0.841
83.50000 -0.350
83.52000 -2.088
83.54000 -0.549
83.56000 3.635
83.58000 2.580
83.60000 0.437
83.62000 -0.424
83.64000 -0.038
83.66000 1.003
83.68000 2.359
83.70000 3.471
83.72000 5.903
83.74000 3.462
83.76000 1.200
83.78000 2.057
83.80000 1.403
83.82000 1.947
83.84000 4.363
83.86000 5.150
83.88000 3.056
83.90000 6.199
83.92000 5.239
83.94000 3.475
83.96000 3.836
83.98000 2.447
84.00000 6.703
84.02000 6.319
84.04000 2.795
84.06000 4.067
84.08000 4.383
84.10000 8.580
84.12000 7.918
84.14000 8.946
84.16000 7.078
84.18000 7.815
84.20000 10.131
84.22000 9.970
84.24000 9.054
84.26000 12.334
84.28000 13.332
84.30000 14.178
84.32000 11.681
84.34000 14.155
84.36000 12.701
84.38000 9.321
84.40000 12.574
84.42000 13.729
84.44000 13.388
84.46000 14.357
84.48000 17.393
84.50000 15.200
84.52000 18.598
84.54000 21.658
84.56000 14.952
84.58000 19.498
84.60000 17.936
84.62000 16.479
84.64000 14.470
84.66000 16.825
84.68000 17.886
84.70000 18.051
84.72000 15.203
84.74000 17.666
84.76000 20.554
84.78000 24.283
84.80000 22.095
84.82000 20.059
84.84000 19.986
84.86000 16.286
84.88000 16.191
84.90000 15.286
84.92000 16.538
84.94000 18.913
84.96000 19.646
84.98000 14.319
85.00000 14.830
85.02000 18.512
85.04000 16.370
85.06000 15.340
85.08000 15.427
85.10000 17.383
85.12000 16.075
85.14000 14.898
85.16000 17.380
85.18000 20.214
85.20000 15.979
85.22000 15.907
85.24000 14.242
85.26000 13.336
85.28000 16.996
85.30000 17.203
85.32000 16.518
85.34000 15.057
85.36000 17.469
85.38000 14.523
85.40000 13.129
85.42000 11.799
85.44000 8.608
85.46000 10.649
85.48000 11.197
85.50000 11.300
85.52000 11.165
85.54000 9.467
85.56000 4.155
85.58000 5.292
85.60000 8.367
85.62000 8.374
85.64000 4.527
85.66000 5.561
85.68000 5.681
85.70000 3.758
85.72000 7.189
85.74000 5.453
85.76000 2.053
85.78000 4.815
85.80000 9.739
85.82000 7.359
85.84000 4.685
85.86000 4.018
85.88000 3.030
85.90000 3.516
85.92000 2.659
85.94000 0.850
85.96000 0.583
85.98000 -0.075
86.00000 -1.163
86.02000 -0.336
86.04000 1.903
86.06000 5.218
86.08000 5.796
86.10000 1.181
86.12000 -1.227
86.14000 -1.539
86.16000 -1.729
86.18000 -1.946
86.20000 -1.159
86.22000 1.117
86.24000 -0.685
86.26000 -0.555
86.28000 1.264
86.30000 0.399
86.32000 -0.326
86.34000 2.294
86.36000 0.442
86.38000 -1.642
86.40000 0.733
86.42000 -0.891
86.44000 -1.098
86.46000 -0.307
86.48000 0.374
86.50000 1.754
86.52000 0.852
86.54000 0.337
86.56000 0.155
86.58000 -0.631
86.60000 -1.161
86.62000 0.295
86.64000 1.897
86.66000 -0.850
86.68000 -0.270
86.70000 0.231
86.72000 1.129
86.74000 2.950
86.76000 1.375
86.78000 -0.855
86.80000 2.252
86.82000 2.018
86.84000 0.972
86.86000 1.139
86.88000 -1.849
86.90000 -0.846
86.92000 1.306
86.94000 2.444
86.96000 0.463
86.98000 -1.717
87.00000 0.392
87.02000 0.608
87.04000 1.355
87.06000 -0.977
87.08000 1.104
87.10000 1.605
87.12000 -0.142
87.14000 0.355
87.16000 2.455
87.18000 4.005
87.20000 0.898
87.22000 0.262
87.24000 2.148
87.26000 3.244
87.28000 0.998
87.30000 0.639
87.32000 -0.441
87.34000 0.316
87.36000 -0.123
87.38000 -0.301
87.40000 -1.819
87.42000 -0.549
87.44000 1.978
87.46000 4.197
87.48000 -1.396
87.50000 -0.587
87.52000 2.775
87.54000 1.623
87.56000 1.629
87.58000 -0.480
87.60000 -0.140
87.62000 0.917
87.64000 -0.635
87.66000 -1.585
87.68000 1.351
87.70000 0.961
87.72000 1.021
87.74000 1.322
87.76000 -1.794
87.78000 1.062
87.80000 2.411
87.82000 2.303
87.84000 -0.205
87.86000 -1.549
87.88000 0.729
87.90000 -0.738
87.92000 -1.453
87.94000 -1.397
87.96000 -0.734
87.98000 -1.295
88.00000 -1.587
88.02000 0.773
88.04000 2.015
88.06000 2.285
88.08000 3.494
88.10000 0.472
88.12000 -0.872
88.14000 1.722
88.16000 1.289
88.18000 6.598
88.20000 2.661
88.22000 -0.305
88.24000 -1.781
88.26000 -0.754
88.28000 3.005
88.30000 4.139
88.32000 3.319
88.34000 2.822
88.36000 2.977
88.38000 -0.615
88.40000 -0.797
88.42000 0.169
88.44000 0.460
88.46000 0.363
88.48000 1.972
88.50000 3.409
88.52000 1.928
88.54000 2.506
88.56000 1.536
88.58000 0.134
88.60000 2.709
88.62000 2.897
88.64000 2.689
88.66000 1.573
88.68000 3.818
88.70000 4.068
88.72000 2.138
88.74000 2.350
88.76000 1.861
88.78000 0.897
88.80000 0.776
88.82000 -0.333
88.84000 2.958
88.86000 -1.352
88.88000 -1.774
88.90000 -0.439
88.92000 3.289
88.94000 0.944
88.96000 1.713
88.98000 2.014
89.00000 2.926
89.02000 1.337
89.04000 1.152
89.06000 2.997
89.08000 1.312
89.10000 -0.402
89.12000 0.320
89.14000 1.183
89.16000 1.343
89.18000 1.281
89.20000 -1.759
89.22000 0.649
89.24000 1.396
89.26000 4.139
89.28000 2.891
89.30000 1.500
89.32000 -1.751
89.34000 -0.073
89.36000 2.533
89.38000 4.155
89.40000 4.454
89.42000 3.201
89.44000 2.486
89.46000 0.362
89.48000 -1.338
89.50000 1.484
89.52000 3.110
89.54000 2.127
89.56000 -0.365
89.58000 1.498
89.60000 2.177
89.62000 3.213
89.64000 2.280
89.66000 1.833
89.68000 0.603
89.70000 -0.081
89.72000 3.271
89.74000 3.493
89.76000 0.320
89.78000 -1.737
89.80000 0.831
89.82000 2.911
89.84000 1.475
89.86000 -1.309
89.88000 1.762
89.90000 3.462
89.92000 3.205
89.94000 2.964
89.96000 3.738
89.98000 3.116
90.00000 0.397
90.02000 -1.056
90.04000 1.787
90.06000 6.134
90.08000 6.256
90.10000 3.386
90.12000 7.642
90.14000 5.756
90.16000 3.733
90.18000 2.735
90.20000 3.629
90.22000 3.590
90.24000 2.217
90.26000 2.681
90.28000 -0.677
90.30000 -1.721
90.32000 0.086
90.34000 2.346
90.36000 1.419
90.38000 2.402
90.40000 -0.314
90.42000 3.001
90.44000 1.400
90.46000 2.104
90.48000 1.963
90.50000 0.194
90.52000 -1.389
90.54000 0.576
90.56000 1.583
90.58000 1.294
90.60000 1.540
90.62000 3.034
90.64000 4.563
90.66000 6.463
90.68000 3.151
90.70000 4.487
90.72000 0.506
90.74000 -0.435
90.76000 1.712
90.78000 1.527
90.80000 3.586
90.82000 2.263
90.84000 0.958
90.86000 1.433
90.88000 3.459
90.90000 2.083
90.92000 2.233
90.94000 2.895
90.96000 3.475
90.98000 0.517
91.00000 3.874
91.02000 5.557
91.04000 2.113
91.06000 3.253
91.08000 2.622
91.10000 2.073
91.12000 2.570
91.14000 0.433
91.16000 -0.473
91.18000 3.086
91.20000 2.353
91.22000 0.237
91.24000 1.317
91.26000 1.634
91.28000 3.177
91.30000 0.314
91.32000 0.494
91.34000 2.017
91.36000 2.632
91.38000 -0.249
91.40000 -0.208
91.42000 -0.349
91.44000 0.516
91.46000 -0.058
91.48000 -1.329
91.50000 2.328
91.52000 0.287
91.54000 4.027
91.56000 3.607
91.58000 5.231
91.60000 -1.760
91.62000 -1.692
91.64000 3.423
91.66000 3.537
91.68000 1.592
91.70000 0.716
91.72000 1.889
91.74000 1.010
91.76000 -0.834
91.78000 0.768
91.80000 2.741
91.82000 3.337
91.84000 1.219
91.86000 3.213
91.88000 2.350
91.90000 3.220
91.92000 0.641
91.94000 -1.007
91.96000 1.154
91.98000 2.232
92.00000 2.394
92.02000 4.183
92.04000 3.699
92.06000 2.595
92.08000 2.749
92.10000 3.441
92.12000 3.518
92.14000 -0.052
92.16000 0.536
92.18000 4.083
92.20000 3.446
92.22000 1.266
92.24000 0.887
92.26000 0.312
92.28000 2.235
92.30000 0.460
92.32000 -0.553
92.34000 3.482
92.36000 3.214
92.38000 2.791
92.40000 2.777
92.42000 0.069
92.44000 -0.186
92.46000 1.588
92.48000 -0.155
92.50000 2.308
92.52000 3.442
92.54000 3.812
92.56000 2.104
92.58000 1.647
92.60000 0.968
92.62000 0.760
92.64000 0.244
92.66000 2.759
92.68000 4.136
92.70000 2.403
92.72000 2.232
92.74000 2.543
92.76000 1.283
92.78000 2.947
92.80000 2.385
92.82000 2.800
92.84000 1.180
92.86000 2.765
92.88000 3.004
92.90000 2.474
92.92000 3.773
92.94000 1.646
92.96000 2.683
92.98000 -0.170
93.00000 0.487
93.02000 3.634
93.04000 4.535
93.06000 1.818
93.08000 1.375
93.10000 6.099
93.12000 7.598
93.14000 7.222
93.16000 5.540
93.18000 2.355
93.20000 -1.730
93.22000 2.827
93.24000 3.341
93.26000 1.780
93.28000 3.462
93.30000 5.739
93.32000 5.451
93.34000 2.104
93.36000 3.897
93.38000 0.488
93.40000 4.161
93.42000 3.221
93.44000 1.995
93.46000 4.068
93.48000 0.466
93.50000 1.588
93.52000 1.766
93.54000 2.513
93.56000 5.592
93.58000 3.723
93.60000 3.590
93.62000 2.291
93.64000 2.571
93.66000 3.482
93.68000 3.532
93.70000 2.668
93.72000 1.858
93.74000 2.450
93.76000 3.744
93.78000 3.044
93.80000 3.738
93.82000 3.036
93.84000 0.396
93.86000 2.337
93.88000 5.591
93.90000 2.004
93.92000 0.170
93.94000 2.046
93.96000 4.772
93.98000 6.085
94.00000 4.901
94.02000 2.892
94.04000 1.522
94.06000 1.157
94.08000 2.425
94.10000 2.442
94.12000 -0.250
94.14000 2.013
94.16000 -1.127
94.18000 -1.783
94.20000 1.305
94.22000 4.440
94.24000 2.560
94.26000 2.060
94.28000 1.511
94.30000 -0.289
94.32000 2.337
94.34000 3.562
94.36000 3.669
94.38000 5.393
94.40000 4.582
94.42000 3.595
94.44000 4.676
94.46000 3.137
94.48000 2.085
94.50000 2.986
94.52000 4.135
94.54000 0.803
94.56000 0.683
94.58000 6.711
94.60000 5.589
94.62000 1.401
94.64000 3.063
94.66000 4.640
94.68000 3.738
94.70000 -1.218
94.72000 -0.358
94.74000 2.776
94.76000 3.993
94.78000 0.087
94.80000 1.805
94.82000 1.183
94.84000 0.826
94.86000 -0.547
94.88000 -0.652
94.90000 2.792
94.92000 4.567
94.94000 3.899
94.96000 2.227
94.98000 2.259
95.00000 3.072
95.02000 0.356
95.04000 0.558
95.06000 -1.407
95.08000 0.136
95.10000 -1.812
95.12000 -1.173
95.14000 0.121
95.16000 -0.289
95.18000 1.225
95.20000 2.543
95.22000 1.610
95.24000 -1.087
95.26000 1.850
95.28000 2.317
95.30000 1.589
95.32000 2.373
95.34000 0.910
95.36000 -1.350
95.38000 5.127
95.40000 4.723
95.42000 2.152
95.44000 0.315
95.46000 2.126
95.48000 4.066
95.50000 4.927
95.52000 1.958
95.54000 1.517
95.56000 0.088
95.58000 2.929
95.60000 3.868
95.62000 1.782
95.64000 2.679
95.66000 1.165
95.68000 1.781
95.70000 5.425
95.72000 5.620
95.74000 2.266
95.76000 0.460
95.78000 -0.325
95.80000 2.479
95.82000 5.745
95.84000 3.076
95.86000 2.929
95.88000 4.869
95.90000 4.902
95.92000 0.701
95.94000 1.997
95.96000 1.542
95.98000 0.717
96.00000 3.669
96.02000 4.640
96.04000 1.857
96.06000 0.374
96.08000 3.007
96.10000 4.252
96.12000 -1.503
96.14000 0.757
96.16000 -1.774
96.18000 0.441
96.20000 1.044
96.22000 2.045
96.24000 4.112
96.26000 7.294
96.28000 4.051
96.30000 1.299
96.32000 -1.492
96.34000 -0.643
96.36000 5.918
96.38000 5.477
96.40000 3.181
96.42000 4.006
96.44000 2.905
96.46000 5.044
96.48000 4.215
96.50000 3.188
96.52000 4.616
96.54000 3.531
96.56000 -1.069
96.58000 -0.726
96.60000 2.582
96.62000 2.139
96.64000 -0.380
96.66000 -1.466
96.68000 -0.382
96.70000 0.925
96.72000 2.829
96.74000 1.439
96.76000 -0.159
96.78000 2.251
96.80000 2.196
96.82000 4.395
96.84000 3.068
96.86000 4.095
96.88000 2.008
96.90000 4.356
96.92000 5.599
96.94000 5.266
96.96000 1.651
96.98000 -0.336
97.00000 4.003
97.02000 1.702
97.04000 2.511
97.06000 1.353
97.08000 2.691
97.10000 0.156
97.12000 -1.064
97.14000 1.864
97.16000 -0.207
97.18000 1.383
97.20000 3.958
97.22000 3.767
97.24000 5.529
97.26000 3.102
97.28000 2.346
97.30000 -1.122
97.32000 1.052
97.34000 -0.987
97.36000 0.990
97.38000 2.949
97.40000 8.577
97.42000 5.081
97.44000 0.740
97.46000 2.743
97.48000 2.995
97.50000 2.042
97.52000 4.088
97.54000 1.925
97.56000 2.735
97.58000 2.804
97.60000 0.975
97.62000 -0.056
97.64000 2.083
97.66000 3.617
97.68000 2.554
97.70000 0.091
97.72000 -1.798
97.74000 1.251
97.76000 1.249
97.78000 1.775
97.80000 2.611
97.82000 -0.060
97.84000 3.275
97.86000 -0.100
97.88000 4.113
97.90000 3.595
97.92000 -0.044
97.94000 -1.620
97.96000 -1.628
97.98000 3.658
98.00000 3.456
98.02000 2.510
98.04000 2.712
98.06000 1.310
98.08000 -0.221
98.10000 0.217
98.12000 -1.780
98.14000 -1.474
98.16000 0.277
98.18000 2.118
98.20000 -0.007
98.22000 0.617
98.24000 0.365
98.26000 0.127
98.28000 -0.081
98.30000 1.135
98.32000 2.674
98.34000 1.413
98.36000 0.089
98.38000 0.237
98.40000 1.013
98.42000 0.042
98.44000 0.385
98.46000 0.266
98.48000 0.004
98.50000 2.016
98.52000 2.140
98.54000 2.934
98.56000 2.103
98.58000 1.028
98.60000 1.235
98.62000 2.494
98.64000 0.140
98.66000 0.404
98.68000 -1.202
98.70000 4.751
98.72000 5.665
98.74000 1.114
98.76000 1.188
98.78000 4.475
98.80000 6.329
98.82000 9.083
98.84000 7.540
98.86000 4.864
98.88000 3.717
98.90000 4.092
98.92000 4.435
98.94000 -0.005
98.96000 -0.235
98.98000 4.297
99.00000 5.617
99.02000 3.453
99.04000 2.394
99.06000 4.735
99.08000 1.241
99.10000 0.456
99.12000 2.089
99.14000 0.692
99.16000 5.170
99.18000 6.295
99.20000 5.288
99.22000 -3.465
99.24000 4.072
99.26000 7.595
99.28000 6.857
99.30000 2.088
99.32000 0.620
99.34000 4.642
99.36000 5.434
99.38000 7.364
99.40000 2.583
99.42000 3.997
99.44000 7.965
99.46000 -0.872
99.48000 3.190
99.50000 6.874
99.52000 3.153
99.54000 0.886
99.56000 5.128
99.58000 6.747
99.60000 2.662
99.62000 5.246
99.64000 4.727
99.66000 9.621
99.68000 3.052
99.70000 -1.711
99.72000 3.852
99.74000 7.072
99.76000 12.873
99.78000 9.669
99.80000 13.042
99.82000 12.512
99.84000 0.166
99.86000 0.851
99.88000 -1.760
99.90000 1.523
99.92000 6.127
99.94000 4.638
99.96000 -1.872
99.98000 0.000
