'Id: "0011387" Comment: "Integrate frame 0011387_Au-Ir-Rh_Rh-rich_XRD-Mapping-340-0000.gfrmwith cursor Wedge Cursor #5" Operator: "B?rgel" Anode: "Cu" Wavelength: "1.5406" Scantype: "2Theta (TwoTheta)" TimePerStep: "1" X: "9" Y: "45" Z: "5.95" 
10.00000 0.000
10.02000 -4.427
10.04000 1.407
10.06000 6.614
10.08000 -7.885
10.10000 10.762
10.12000 12.421
10.14000 17.171
10.16000 -4.446
10.18000 4.276
10.20000 16.070
10.22000 13.265
10.24000 5.599
10.26000 8.786
10.28000 -1.074
10.30000 5.955
10.32000 6.452
10.34000 9.077
10.36000 5.001
10.38000 -3.772
10.40000 -0.342
10.42000 3.365
10.44000 -2.356
10.46000 6.430
10.48000 15.770
10.50000 11.606
10.52000 19.897
10.54000 9.943
10.56000 18.333
10.58000 6.479
10.60000 11.361
10.62000 16.786
10.64000 21.104
10.66000 23.918
10.68000 10.472
10.70000 2.635
10.72000 9.214
10.74000 14.776
10.76000 7.422
10.78000 4.326
10.80000 7.023
10.82000 9.453
10.84000 -1.413
10.86000 2.718
10.88000 18.912
10.90000 9.597
10.92000 14.168
10.94000 17.598
10.96000 12.876
10.98000 -0.002
11.00000 11.705
11.02000 8.653
11.04000 7.716
11.06000 5.881
11.08000 0.036
11.10000 2.887
11.12000 21.210
11.14000 5.544
11.16000 2.782
11.18000 13.232
11.20000 22.501
11.22000 16.824
11.24000 8.389
11.26000 16.273
11.28000 11.845
11.30000 9.937
11.32000 7.449
11.34000 -4.435
11.36000 5.202
11.38000 2.406
11.40000 4.627
11.42000 17.831
11.44000 13.161
11.46000 13.502
11.48000 3.906
11.50000 17.935
11.52000 23.751
11.54000 20.787
11.56000 18.292
11.58000 17.424
11.60000 14.746
11.62000 14.399
11.64000 14.679
11.66000 13.433
11.68000 19.856
11.70000 11.453
11.72000 14.938
11.74000 14.647
11.76000 10.229
11.78000 3.093
11.80000 1.353
11.82000 -2.140
11.84000 -2.696
11.86000 2.711
11.88000 11.478
11.90000 11.657
11.92000 7.017
11.94000 19.034
11.96000 17.767
11.98000 2.205
12.00000 3.361
12.02000 4.310
12.04000 16.271
12.06000 30.774
12.08000 24.635
12.10000 16.381
12.12000 11.799
12.14000 8.584
12.16000 8.850
12.18000 14.259
12.20000 13.674
12.22000 4.307
12.24000 17.020
12.26000 15.052
12.28000 9.400
12.30000 7.426
12.32000 9.562
12.34000 8.589
12.36000 5.236
12.38000 6.145
12.40000 6.625
12.42000 20.277
12.44000 21.909
12.46000 16.638
12.48000 9.122
12.50000 8.592
12.52000 9.096
12.54000 17.516
12.56000 10.432
12.58000 2.574
12.60000 3.493
12.62000 23.980
12.64000 16.346
12.66000 8.767
12.68000 20.165
12.70000 15.834
12.72000 19.550
12.74000 11.952
12.76000 3.341
12.78000 2.666
12.80000 16.524
12.82000 17.344
12.84000 11.989
12.86000 2.178
12.88000 14.355
12.90000 15.701
12.92000 13.778
12.94000 13.144
12.96000 23.123
12.98000 16.709
13.00000 5.461
13.02000 -0.001
13.04000 5.877
13.06000 1.408
13.08000 4.300
13.10000 12.137
13.12000 7.744
13.14000 14.372
13.16000 10.871
13.18000 13.253
13.20000 20.393
13.22000 15.254
13.24000 10.552
13.26000 5.103
13.28000 5.844
13.30000 2.268
13.32000 -1.019
13.34000 3.063
13.36000 2.506
13.38000 1.448
13.40000 4.661
13.42000 2.533
13.44000 -1.961
13.46000 3.147
13.48000 7.770
13.50000 19.969
13.52000 19.744
13.54000 14.670
13.56000 14.634
13.58000 17.349
13.60000 5.648
13.62000 6.348
13.64000 0.990
13.66000 3.806
13.68000 5.759
13.70000 6.257
13.72000 9.929
13.74000 13.091
13.76000 22.576
13.78000 26.479
13.80000 18.082
13.82000 5.730
13.84000 3.085
13.86000 6.043
13.88000 11.008
13.90000 13.441
13.92000 10.895
13.94000 7.182
13.96000 14.061
13.98000 5.233
14.00000 -4.520
14.02000 -0.996
14.04000 8.917
14.06000 13.538
14.08000 12.544
14.10000 6.736
14.12000 10.140
14.14000 9.047
14.16000 8.976
14.18000 -0.896
14.20000 3.518
14.22000 7.918
14.24000 11.525
14.26000 12.615
14.28000 6.603
14.30000 6.303
14.32000 -2.269
14.34000 1.936
14.36000 9.317
14.38000 10.342
14.40000 12.015
14.42000 11.480
14.44000 12.710
14.46000 13.391
14.48000 -2.865
14.50000 -3.000
14.52000 3.252
14.54000 9.236
14.56000 9.733
14.58000 -4.516
14.60000 -4.111
14.62000 0.597
14.64000 -2.561
14.66000 2.757
14.68000 8.923
14.70000 5.524
14.72000 8.429
14.74000 13.778
14.76000 8.155
14.78000 12.812
14.80000 12.740
14.82000 5.978
14.84000 3.501
14.86000 2.494
14.88000 12.240
14.90000 11.242
14.92000 8.300
14.94000 11.488
14.96000 6.449
14.98000 2.035
15.00000 3.059
15.02000 6.952
15.04000 5.064
15.06000 4.086
15.08000 7.622
15.10000 10.829
15.12000 5.360
15.14000 1.336
15.16000 0.054
15.18000 5.047
15.20000 6.306
15.22000 -4.161
15.24000 2.122
15.26000 5.708
15.28000 -3.755
15.30000 2.054
15.32000 11.933
15.34000 0.435
15.36000 -1.608
15.38000 5.183
15.40000 10.954
15.42000 8.857
15.44000 13.023
15.46000 17.546
15.48000 9.056
15.50000 8.872
15.52000 10.392
15.54000 0.694
15.56000 -0.290
15.58000 7.237
15.60000 5.460
15.62000 0.586
15.64000 0.344
15.66000 1.365
15.68000 3.724
15.70000 2.624
15.72000 4.324
15.74000 2.066
15.76000 8.949
15.78000 2.362
15.80000 4.856
15.82000 9.430
15.84000 12.595
15.86000 4.350
15.88000 5.163
15.90000 5.902
15.92000 7.513
15.94000 1.820
15.96000 2.538
15.98000 10.269
16.00000 8.196
16.02000 8.624
16.04000 7.672
16.06000 6.992
16.08000 3.934
16.10000 0.742
16.12000 3.141
16.14000 0.503
16.16000 1.373
16.18000 11.706
16.20000 13.100
16.22000 9.187
16.24000 6.414
16.26000 12.052
16.28000 13.634
16.30000 7.508
16.32000 0.350
16.34000 4.676
16.36000 1.850
16.38000 -4.460
16.40000 -1.839
16.42000 0.359
16.44000 3.264
16.46000 8.566
16.48000 8.015
16.50000 6.261
16.52000 4.571
16.54000 3.960
16.56000 4.847
16.58000 8.232
16.60000 10.464
16.62000 2.204
16.64000 -4.452
16.66000 9.333
16.68000 8.657
16.70000 6.899
16.72000 5.079
16.74000 5.101
16.76000 8.929
16.78000 9.463
16.80000 5.143
16.82000 2.798
16.84000 2.993
16.86000 2.994
16.88000 5.396
16.90000 11.389
16.92000 7.142
16.94000 7.558
16.96000 7.411
16.98000 6.708
17.00000 8.337
17.02000 12.068
17.04000 8.089
17.06000 2.360
17.08000 -2.599
17.10000 5.569
17.12000 7.659
17.14000 12.348
17.16000 9.771
17.18000 1.169
17.20000 0.509
17.22000 2.445
17.24000 5.346
17.26000 3.975
17.28000 5.474
17.30000 13.361
17.32000 8.972
17.34000 2.534
17.36000 0.496
17.38000 -4.418
17.40000 6.146
17.42000 7.830
17.44000 6.036
17.46000 6.183
17.48000 -4.076
17.50000 1.240
17.52000 0.230
17.54000 4.940
17.56000 10.165
17.58000 8.662
17.60000 8.213
17.62000 5.233
17.64000 10.465
17.66000 13.780
17.68000 1.036
17.70000 0.788
17.72000 6.773
17.74000 10.740
17.76000 13.127
17.78000 14.737
17.80000 8.687
17.82000 2.964
17.84000 0.697
17.86000 4.484
17.88000 8.102
17.90000 10.528
17.92000 7.368
17.94000 7.575
17.96000 5.776
17.98000 6.873
18.00000 7.161
18.02000 14.011
18.04000 6.609
18.06000 -4.371
18.08000 2.564
18.10000 5.572
18.12000 12.417
18.14000 17.335
18.16000 10.736
18.18000 1.176
18.20000 -2.658
18.22000 2.698
18.24000 6.607
18.26000 9.075
18.28000 10.872
18.30000 14.303
18.32000 9.395
18.34000 6.133
18.36000 0.819
18.38000 2.290
18.40000 -0.118
18.42000 -0.358
18.44000 0.452
18.46000 8.974
18.48000 12.233
18.50000 16.834
18.52000 9.762
18.54000 -0.566
18.56000 3.095
18.58000 4.502
18.60000 3.352
18.62000 -0.797
18.64000 2.439
18.66000 8.566
18.68000 10.260
18.70000 3.157
18.72000 4.387
18.74000 11.789
18.76000 12.892
18.78000 11.060
18.80000 13.071
18.82000 7.873
18.84000 -0.310
18.86000 7.123
18.88000 9.042
18.90000 5.862
18.92000 12.131
18.94000 11.470
18.96000 13.256
18.98000 20.161
19.00000 15.863
19.02000 4.996
19.04000 4.683
19.06000 11.483
19.08000 10.172
19.10000 4.551
19.12000 -0.167
19.14000 6.287
19.16000 7.127
19.18000 7.265
19.20000 14.668
19.22000 16.793
19.24000 8.809
19.26000 3.513
19.28000 10.465
19.30000 11.548
19.32000 17.656
19.34000 19.828
19.36000 14.275
19.38000 12.747
19.40000 6.319
19.42000 12.608
19.44000 17.808
19.46000 7.280
19.48000 6.688
19.50000 8.179
19.52000 -4.202
19.54000 1.099
19.56000 9.557
19.58000 13.457
19.60000 15.022
19.62000 11.056
19.64000 14.695
19.66000 18.109
19.68000 15.802
19.70000 10.213
19.72000 10.955
19.74000 15.808
19.76000 14.330
19.78000 11.655
19.80000 9.832
19.82000 8.987
19.84000 3.848
19.86000 7.408
19.88000 9.065
19.90000 12.000
19.92000 9.756
19.94000 9.127
19.96000 7.561
19.98000 8.581
20.00000 14.426
20.02000 11.413
20.04000 9.843
20.06000 9.822
20.08000 13.173
20.10000 14.570
20.12000 11.370
20.14000 4.145
20.16000 6.928
20.18000 7.549
20.20000 2.149
20.22000 13.413
20.24000 15.884
20.26000 14.233
20.28000 11.516
20.30000 7.512
20.32000 7.175
20.34000 5.246
20.36000 13.108
20.38000 15.124
20.40000 7.509
20.42000 5.612
20.44000 5.504
20.46000 7.291
20.48000 6.558
20.50000 6.895
20.52000 7.750
20.54000 3.687
20.56000 7.274
20.58000 8.791
20.60000 13.951
20.62000 5.511
20.64000 1.890
20.66000 8.500
20.68000 10.287
20.70000 5.140
20.72000 2.405
20.74000 2.827
20.76000 5.142
20.78000 6.640
20.80000 7.603
20.82000 6.211
20.84000 1.553
20.86000 -1.319
20.88000 0.715
20.90000 1.587
20.92000 0.944
20.94000 8.973
20.96000 6.427
20.98000 7.381
21.00000 5.377
21.02000 10.191
21.04000 6.092
21.06000 -4.219
21.08000 2.459
21.10000 3.159
21.12000 3.952
21.14000 0.392
21.16000 7.987
21.18000 5.113
21.20000 -0.531
21.22000 2.522
21.24000 5.269
21.26000 1.493
21.28000 2.549
21.30000 2.860
21.32000 3.727
21.34000 4.871
21.36000 8.061
21.38000 10.767
21.40000 10.783
21.42000 4.552
21.44000 3.661
21.46000 3.965
21.48000 -1.879
21.50000 -2.974
21.52000 4.495
21.54000 2.262
21.56000 -1.150
21.58000 4.383
21.60000 9.960
21.62000 5.892
21.64000 -2.997
21.66000 -3.991
21.68000 0.586
21.70000 7.086
21.72000 6.728
21.74000 4.224
21.76000 -0.739
21.78000 -3.081
21.80000 -0.357
21.82000 -0.033
21.84000 3.890
21.86000 10.542
21.88000 5.062
21.90000 4.875
21.92000 2.099
21.94000 4.264
21.96000 4.202
21.98000 6.209
22.00000 4.172
22.02000 6.920
22.04000 5.445
22.06000 -1.286
22.08000 -3.285
22.10000 2.346
22.12000 5.813
22.14000 6.079
22.16000 4.192
22.18000 5.327
22.20000 0.561
22.22000 1.129
22.24000 -4.170
22.26000 -0.700
22.28000 2.211
22.30000 4.897
22.32000 1.506
22.34000 6.298
22.36000 1.889
22.38000 0.227
22.40000 7.425
22.42000 8.832
22.44000 -0.004
22.46000 1.156
22.48000 6.965
22.50000 5.866
22.52000 5.279
22.54000 3.915
22.56000 6.953
22.58000 4.780
22.60000 8.618
22.62000 4.966
22.64000 4.507
22.66000 3.602
22.68000 -2.496
22.70000 -2.862
22.72000 0.155
22.74000 -2.464
22.76000 -0.627
22.78000 2.778
22.80000 2.100
22.82000 3.752
22.84000 3.337
22.86000 0.730
22.88000 2.086
22.90000 3.124
22.92000 3.134
22.94000 4.501
22.96000 7.325
22.98000 4.426
23.00000 2.254
23.02000 1.408
23.04000 2.503
23.06000 5.937
23.08000 7.358
23.10000 8.044
23.12000 9.170
23.14000 4.429
23.16000 1.339
23.18000 1.848
23.20000 10.768
23.22000 6.598
23.24000 1.412
23.26000 6.775
23.28000 8.302
23.30000 7.009
23.32000 2.798
23.34000 5.550
23.36000 9.397
23.38000 9.072
23.40000 2.594
23.42000 3.780
23.44000 10.967
23.46000 11.170
23.48000 3.523
23.50000 0.086
23.52000 1.479
23.54000 -4.066
23.56000 7.761
23.58000 10.765
23.60000 2.764
23.62000 10.582
23.64000 8.752
23.66000 6.017
23.68000 6.495
23.70000 8.367
23.72000 10.079
23.74000 0.436
23.76000 5.386
23.78000 13.617
23.80000 8.680
23.82000 6.358
23.84000 6.001
23.86000 3.634
23.88000 1.770
23.90000 -4.057
23.92000 -0.829
23.94000 8.116
23.96000 3.348
23.98000 3.609
24.00000 3.040
24.02000 -2.181
24.04000 -2.159
24.06000 -0.281
24.08000 1.485
24.10000 0.645
24.12000 -2.409
24.14000 2.646
24.16000 3.459
24.18000 -2.030
24.20000 3.708
24.22000 7.028
24.24000 5.640
24.26000 5.159
24.28000 6.596
24.30000 1.947
24.32000 -2.740
24.34000 -0.261
24.36000 2.944
24.38000 5.148
24.40000 7.648
24.42000 5.344
24.44000 2.714
24.46000 3.687
24.48000 -1.595
24.50000 -0.100
24.52000 -4.033
24.54000 -0.362
24.56000 1.838
24.58000 5.223
24.60000 3.244
24.62000 1.134
24.64000 4.379
24.66000 0.009
24.68000 -3.208
24.70000 1.221
24.72000 4.472
24.74000 9.704
24.76000 8.298
24.78000 5.661
24.80000 2.623
24.82000 9.401
24.84000 2.306
24.86000 4.329
24.88000 4.439
24.90000 5.078
24.92000 8.126
24.94000 6.734
24.96000 6.580
24.98000 7.933
25.00000 6.977
25.02000 0.960
25.04000 -1.643
25.06000 2.858
25.08000 1.672
25.10000 -0.105
25.12000 0.004
25.14000 1.151
25.16000 -2.491
25.18000 -2.611
25.20000 3.070
25.22000 4.434
25.24000 11.769
25.26000 8.791
25.28000 2.852
25.30000 -0.595
25.32000 -0.782
25.34000 2.520
25.36000 1.407
25.38000 4.107
25.40000 8.024
25.42000 2.440
25.44000 2.586
25.46000 8.242
25.48000 12.802
25.50000 6.301
25.52000 8.639
25.54000 6.319
25.56000 4.843
25.58000 2.482
25.60000 3.908
25.62000 2.192
25.64000 -3.960
25.66000 1.185
25.68000 -0.448
25.70000 -2.206
25.72000 2.934
25.74000 2.582
25.76000 5.229
25.78000 7.630
25.80000 1.580
25.82000 2.738
25.84000 0.190
25.86000 0.313
25.88000 -1.094
25.90000 0.556
25.92000 0.095
25.94000 -2.244
25.96000 0.342
25.98000 3.368
26.00000 1.654
26.02000 3.322
26.04000 7.804
26.06000 10.872
26.08000 9.647
26.10000 4.656
26.12000 1.544
26.14000 3.492
26.16000 7.908
26.18000 7.772
26.20000 6.971
26.22000 4.671
26.24000 1.716
26.26000 -2.040
26.28000 0.938
26.30000 2.085
26.32000 3.396
26.34000 5.154
26.36000 3.250
26.38000 0.925
26.40000 3.398
26.42000 2.669
26.44000 -0.259
26.46000 5.282
26.48000 4.695
26.50000 1.699
26.52000 -1.420
26.54000 0.784
26.56000 3.461
26.58000 3.862
26.60000 4.665
26.62000 1.439
26.64000 2.555
26.66000 0.547
26.68000 -1.024
26.70000 0.189
26.72000 4.291
26.74000 1.067
26.76000 -3.646
26.78000 0.156
26.80000 0.601
26.82000 -3.360
26.84000 1.083
26.86000 6.415
26.88000 0.170
26.90000 -3.272
26.92000 4.230
26.94000 9.977
26.96000 4.232
26.98000 -1.609
27.00000 -3.895
27.02000 -3.515
27.04000 -2.338
27.06000 5.209
27.08000 3.376
27.10000 5.132
27.12000 3.329
27.14000 -3.391
27.16000 0.358
27.18000 3.972
27.20000 0.793
27.22000 6.023
27.24000 6.702
27.26000 0.340
27.28000 -0.151
27.30000 2.117
27.32000 2.443
27.34000 0.949
27.36000 6.850
27.38000 -0.883
27.40000 -3.455
27.42000 -3.870
27.44000 3.403
27.46000 6.781
27.48000 9.504
27.50000 8.637
27.52000 2.058
27.54000 2.696
27.56000 -0.464
27.58000 6.552
27.60000 11.384
27.62000 9.796
27.64000 1.668
27.66000 -2.891
27.68000 -1.149
27.70000 5.068
27.72000 -0.176
27.74000 -1.932
27.76000 -1.296
27.78000 -1.308
27.80000 -0.788
27.82000 4.387
27.84000 12.625
27.86000 4.587
27.88000 -0.447
27.90000 -0.219
27.92000 1.802
27.94000 1.153
27.96000 1.119
27.98000 1.673
28.00000 -0.072
28.02000 4.009
28.04000 1.959
28.06000 -0.305
28.08000 0.964
28.10000 1.652
28.12000 -0.978
28.14000 3.428
28.16000 3.013
28.18000 -1.172
28.20000 3.810
28.22000 7.901
28.24000 2.787
28.26000 0.720
28.28000 -0.193
28.30000 3.899
28.32000 -0.080
28.34000 -1.773
28.36000 -3.815
28.38000 -2.533
28.40000 -0.902
28.42000 -1.343
28.44000 0.413
28.46000 3.360
28.48000 2.431
28.50000 0.454
28.52000 1.731
28.54000 1.597
28.56000 0.744
28.58000 0.723
28.60000 1.929
28.62000 3.454
28.64000 2.238
28.66000 1.728
28.68000 3.082
28.70000 6.217
28.72000 7.257
28.74000 7.253
28.76000 3.744
28.78000 5.889
28.80000 2.413
28.82000 1.716
28.84000 3.341
28.86000 5.502
28.88000 3.829
28.90000 -1.664
28.92000 -0.214
28.94000 -1.171
28.96000 -0.513
28.98000 -0.021
29.00000 2.792
29.02000 3.005
29.04000 -0.041
29.06000 5.234
29.08000 6.242
29.10000 2.980
29.12000 1.533
29.14000 4.161
29.16000 8.540
29.18000 1.204
29.20000 -0.847
29.22000 3.263
29.24000 1.777
29.26000 3.045
29.28000 -1.470
29.30000 -3.615
29.32000 4.342
29.34000 4.437
29.36000 5.378
29.38000 4.339
29.40000 8.635
29.42000 0.728
29.44000 -2.203
29.46000 -3.355
29.48000 5.523
29.50000 7.686
29.52000 4.404
29.54000 1.551
29.56000 7.124
29.58000 6.010
29.60000 3.789
29.62000 -1.785
29.64000 -0.079
29.66000 4.853
29.68000 4.682
29.70000 0.629
29.72000 2.879
29.74000 6.604
29.76000 2.593
29.78000 1.188
29.80000 0.777
29.82000 -1.590
29.84000 -3.733
29.86000 0.264
29.88000 2.271
29.90000 1.809
29.92000 -1.704
29.94000 1.811
29.96000 5.748
29.98000 6.756
30.00000 4.033
30.02000 2.493
30.04000 2.302
30.06000 0.464
30.08000 5.090
30.10000 1.971
30.12000 1.816
30.14000 3.979
30.16000 5.520
30.18000 5.225
30.20000 -0.271
30.22000 2.937
30.24000 3.515
30.26000 -0.567
30.28000 2.620
30.30000 3.502
30.32000 2.043
30.34000 1.274
30.36000 1.702
30.38000 -1.952
30.40000 2.604
30.42000 6.316
30.44000 1.828
30.46000 0.034
30.48000 -2.045
30.50000 1.256
30.52000 1.896
30.54000 5.146
30.56000 2.465
30.58000 2.097
30.60000 2.316
30.62000 5.405
30.64000 6.167
30.66000 3.601
30.68000 2.242
30.70000 5.677
30.72000 0.867
30.74000 0.462
30.76000 2.637
30.78000 2.298
30.80000 5.836
30.82000 1.828
30.84000 0.281
30.86000 1.706
30.88000 5.026
30.90000 3.158
30.92000 0.795
30.94000 4.591
30.96000 2.689
30.98000 4.993
31.00000 2.420
31.02000 5.270
31.04000 3.757
31.06000 2.874
31.08000 7.140
31.10000 2.157
31.12000 -3.681
31.14000 0.005
31.16000 1.643
31.18000 1.932
31.20000 6.836
31.22000 3.352
31.24000 1.478
31.26000 3.572
31.28000 10.070
31.30000 5.365
31.32000 3.280
31.34000 3.468
31.36000 6.148
31.38000 0.970
31.40000 -2.712
31.42000 -0.346
31.44000 0.669
31.46000 -1.290
31.48000 2.486
31.50000 0.524
31.52000 -1.926
31.54000 -0.183
31.56000 0.242
31.58000 4.101
31.60000 1.229
31.62000 0.389
31.64000 2.529
31.66000 3.941
31.68000 2.938
31.70000 0.117
31.72000 7.378
31.74000 4.875
31.76000 -0.289
31.78000 5.494
31.80000 5.696
31.82000 1.997
31.84000 1.301
31.86000 2.701
31.88000 2.300
31.90000 8.353
31.92000 5.043
31.94000 4.509
31.96000 2.218
31.98000 -2.311
32.00000 2.824
32.02000 2.557
32.04000 0.203
32.06000 4.035
32.08000 5.098
32.10000 5.102
32.12000 5.579
32.14000 5.468
32.16000 2.891
32.18000 2.177
32.20000 4.816
32.22000 4.397
32.24000 0.033
32.26000 1.323
32.28000 1.545
32.30000 0.390
32.32000 0.574
32.34000 4.991
32.36000 4.445
32.38000 7.325
32.40000 5.776
32.42000 7.267
32.44000 2.631
32.46000 0.291
32.48000 3.110
32.50000 3.881
32.52000 3.410
32.54000 6.516
32.56000 6.680
32.58000 7.586
32.60000 3.606
32.62000 3.356
32.64000 3.336
32.66000 2.094
32.68000 3.671
32.70000 5.998
32.72000 1.404
32.74000 2.864
32.76000 4.546
32.78000 4.052
32.80000 3.534
32.82000 3.703
32.84000 0.794
32.86000 0.298
32.88000 1.941
32.90000 3.747
32.92000 7.670
32.94000 8.030
32.96000 7.899
32.98000 5.507
33.00000 1.993
33.02000 5.921
33.04000 2.169
33.06000 -3.582
33.08000 0.708
33.10000 6.837
33.12000 4.980
33.14000 8.077
33.16000 5.951
33.18000 6.402
33.20000 10.466
33.22000 7.569
33.24000 6.807
33.26000 8.149
33.28000 10.649
33.30000 5.851
33.32000 1.580
33.34000 2.201
33.36000 7.174
33.38000 4.821
33.40000 2.298
33.42000 5.378
33.44000 7.873
33.46000 7.460
33.48000 7.330
33.50000 -1.146
33.52000 6.090
33.54000 5.923
33.56000 1.192
33.58000 -1.573
33.60000 1.806
33.62000 0.406
33.64000 2.653
33.66000 1.909
33.68000 3.413
33.70000 12.694
33.72000 12.435
33.74000 9.615
33.76000 0.009
33.78000 -3.170
33.80000 2.589
33.82000 1.615
33.84000 1.931
33.86000 4.716
33.88000 2.409
33.90000 0.855
33.92000 2.391
33.94000 0.376
33.96000 5.672
33.98000 3.233
34.00000 1.263
34.02000 5.763
34.04000 10.577
34.06000 7.436
34.08000 3.182
34.10000 -3.595
34.12000 -1.707
34.14000 1.783
34.16000 1.922
34.18000 4.001
34.20000 6.315
34.22000 2.071
34.24000 3.029
34.26000 4.729
34.28000 11.104
34.30000 7.896
34.32000 3.690
34.34000 6.120
34.36000 2.922
34.38000 3.983
34.40000 1.910
34.42000 0.889
34.44000 6.297
34.46000 7.591
34.48000 5.939
34.50000 0.881
34.52000 6.552
34.54000 6.956
34.56000 4.668
34.58000 4.118
34.60000 2.300
34.62000 2.089
34.64000 3.839
34.66000 5.869
34.68000 8.315
34.70000 5.131
34.72000 0.998
34.74000 2.917
34.76000 7.617
34.78000 6.301
34.80000 5.614
34.82000 0.901
34.84000 -3.374
34.86000 -3.570
34.88000 2.645
34.90000 5.038
34.92000 7.242
34.94000 6.011
34.96000 -0.644
34.98000 -2.619
35.00000 -3.564
35.02000 -0.490
35.04000 1.977
35.06000 0.594
35.08000 2.851
35.10000 3.284
35.12000 0.625
35.14000 1.327
35.16000 1.985
35.18000 3.700
35.20000 2.705
35.22000 1.182
35.24000 2.558
35.26000 5.197
35.28000 7.158
35.30000 4.154
35.32000 0.962
35.34000 0.189
35.36000 -2.316
35.38000 2.196
35.40000 5.431
35.42000 4.669
35.44000 3.810
35.46000 1.948
35.48000 2.399
35.50000 0.143
35.52000 4.387
35.54000 -1.534
35.56000 -3.255
35.58000 -3.305
35.60000 1.866
35.62000 0.343
35.64000 -1.481
35.66000 -1.206
35.68000 3.396
35.70000 7.765
35.72000 4.591
35.74000 0.288
35.76000 -1.187
35.78000 -2.442
35.80000 -3.085
35.82000 2.569
35.84000 0.836
35.86000 2.090
35.88000 4.652
35.90000 3.416
35.92000 3.680
35.94000 7.379
35.96000 5.035
35.98000 1.250
36.00000 -0.321
36.02000 -0.509
36.04000 -0.072
36.06000 1.491
36.08000 1.946
36.10000 6.207
36.12000 -0.053
36.14000 -1.407
36.16000 -0.611
36.18000 0.790
36.20000 0.527
36.22000 2.199
36.24000 4.963
36.26000 5.650
36.28000 0.690
36.30000 -2.882
36.32000 0.322
36.34000 3.875
36.36000 2.902
36.38000 0.167
36.40000 -3.313
36.42000 -3.629
36.44000 -0.837
36.46000 1.439
36.48000 0.115
36.50000 0.884
36.52000 0.404
36.54000 -0.807
36.56000 -1.503
36.58000 2.118
36.60000 5.191
36.62000 3.155
36.64000 1.781
36.66000 -0.928
36.68000 -0.233
36.70000 -1.554
36.72000 0.410
36.74000 0.597
36.76000 -3.646
36.78000 2.134
36.80000 0.298
36.82000 1.294
36.84000 5.376
36.86000 3.111
36.88000 1.184
36.90000 -1.662
36.92000 -1.595
36.94000 5.887
36.96000 0.967
36.98000 -1.633
37.00000 0.453
37.02000 7.161
37.04000 1.017
37.06000 -3.544
37.08000 2.722
37.10000 3.534
37.12000 1.470
37.14000 -0.127
37.16000 -0.920
37.18000 1.561
37.20000 6.152
37.22000 4.013
37.24000 2.505
37.26000 2.438
37.28000 2.489
37.30000 3.715
37.32000 7.662
37.34000 10.429
37.36000 7.284
37.38000 7.471
37.40000 6.082
37.42000 6.651
37.44000 8.841
37.46000 8.180
37.48000 4.663
37.50000 4.831
37.52000 5.821
37.54000 3.744
37.56000 4.620
37.58000 5.131
37.60000 4.071
37.62000 5.442
37.64000 0.837
37.66000 7.459
37.68000 11.792
37.70000 11.081
37.72000 11.125
37.74000 9.804
37.76000 11.224
37.78000 8.403
37.80000 15.493
37.82000 12.932
37.84000 13.479
37.86000 13.438
37.88000 16.830
37.90000 18.745
37.92000 18.079
37.94000 15.789
37.96000 13.621
37.98000 18.460
38.00000 16.304
38.02000 15.792
38.04000 18.800
38.06000 25.809
38.08000 20.949
38.10000 19.206
38.12000 23.221
38.14000 24.490
38.16000 27.924
38.18000 31.001
38.20000 32.984
38.22000 33.381
38.24000 29.630
38.26000 32.379
38.28000 28.939
38.30000 30.982
38.32000 29.874
38.34000 28.141
38.36000 35.126
38.38000 33.391
38.40000 36.265
38.42000 35.351
38.44000 35.168
38.46000 39.086
38.48000 41.056
38.50000 41.252
38.52000 47.413
38.54000 45.423
38.56000 44.537
38.58000 45.512
38.60000 43.903
38.62000 47.194
38.64000 55.726
38.66000 60.213
38.68000 62.067
38.70000 59.997
38.72000 62.161
38.74000 66.308
38.76000 70.826
38.78000 72.569
38.80000 78.324
38.82000 82.905
38.84000 84.539
38.86000 85.110
38.88000 87.283
38.90000 102.374
38.92000 104.958
38.94000 104.945
38.96000 107.898
38.98000 120.228
39.00000 124.131
39.02000 122.045
39.04000 129.711
39.06000 132.068
39.08000 138.968
39.10000 146.841
39.12000 165.477
39.14000 166.753
39.16000 173.845
39.18000 179.594
39.20000 195.250
39.22000 203.805
39.24000 204.162
39.26000 213.439
39.28000 223.139
39.30000 237.335
39.32000 250.288
39.34000 266.464
39.36000 283.985
39.38000 294.327
39.40000 306.283
39.42000 325.137
39.44000 341.882
39.46000 355.006
39.48000 373.709
39.50000 397.591
39.52000 413.205
39.54000 431.584
39.56000 444.729
39.58000 466.057
39.60000 495.152
39.62000 515.801
39.64000 521.944
39.66000 537.924
39.68000 562.736
39.70000 590.213
39.72000 608.690
39.74000 617.424
39.76000 633.791
39.78000 647.018
39.80000 662.367
39.82000 680.158
39.84000 688.231
39.86000 684.971
39.88000 671.686
39.90000 675.558
39.92000 681.190
39.94000 665.727
39.96000 662.986
39.98000 657.026
40.00000 643.898
40.02000 651.480
40.04000 642.960
40.06000 631.447
40.08000 608.197
40.10000 588.370
40.12000 572.166
40.14000 553.299
40.16000 530.408
40.18000 509.541
40.20000 501.190
40.22000 471.981
40.24000 450.956
40.26000 435.904
40.28000 413.914
40.30000 389.608
40.32000 364.519
40.34000 349.986
40.36000 324.196
40.38000 316.173
40.40000 296.470
40.42000 285.643
40.44000 280.134
40.46000 255.885
40.48000 239.255
40.50000 220.191
40.52000 208.940
40.54000 196.282
40.56000 185.286
40.58000 168.729
40.60000 166.213
40.62000 155.722
40.64000 153.315
40.66000 143.702
40.68000 131.390
40.70000 124.797
40.72000 112.854
40.74000 112.999
40.76000 103.294
40.78000 96.967
40.80000 90.085
40.82000 85.423
40.84000 84.009
40.86000 76.467
40.88000 69.541
40.90000 63.265
40.92000 63.806
40.94000 60.829
40.96000 59.725
40.98000 54.456
41.00000 47.043
41.02000 47.093
41.04000 47.994
41.06000 40.903
41.08000 40.089
41.10000 37.251
41.12000 31.389
41.14000 29.960
41.16000 33.537
41.18000 33.265
41.20000 36.113
41.22000 33.312
41.24000 24.038
41.26000 22.118
41.28000 23.939
41.30000 18.278
41.32000 16.477
41.34000 20.474
41.36000 20.510
41.38000 18.800
41.40000 16.237
41.42000 16.483
41.44000 11.023
41.46000 10.710
41.48000 18.087
41.50000 15.079
41.52000 10.017
41.54000 8.477
41.56000 13.267
41.58000 12.690
41.60000 9.059
41.62000 8.868
41.64000 8.300
41.66000 3.424
41.68000 5.496
41.70000 3.818
41.72000 -0.302
41.74000 7.520
41.76000 5.865
41.78000 3.458
41.80000 2.433
41.82000 2.536
41.84000 4.251
41.86000 0.320
41.88000 0.071
41.90000 3.529
41.92000 6.750
41.94000 4.419
41.96000 2.075
41.98000 5.098
42.00000 3.605
42.02000 4.785
42.04000 3.767
42.06000 3.991
42.08000 4.105
42.10000 -0.629
42.12000 -1.209
42.14000 -2.545
42.16000 2.975
42.18000 3.978
42.20000 2.157
42.22000 4.841
42.24000 2.226
42.26000 -0.347
42.28000 0.790
42.30000 0.278
42.32000 4.332
42.34000 -0.896
42.36000 -2.927
42.38000 4.694
42.40000 5.833
42.42000 5.665
42.44000 2.352
42.46000 0.511
42.48000 -1.275
42.50000 -3.479
42.52000 -1.007
42.54000 2.386
42.56000 1.790
42.58000 -0.501
42.60000 -0.385
42.62000 -0.020
42.64000 1.435
42.66000 1.709
42.68000 0.627
42.70000 3.888
42.72000 2.103
42.74000 2.067
42.76000 0.006
42.78000 -2.427
42.80000 -2.196
42.82000 7.255
42.84000 4.823
42.86000 3.392
42.88000 3.293
42.90000 0.264
42.92000 2.253
42.94000 -1.940
42.96000 -1.667
42.98000 1.952
43.00000 2.026
43.02000 -2.487
43.04000 -3.335
43.06000 -0.687
43.08000 0.967
43.10000 0.036
43.12000 -0.009
43.14000 -0.028
43.16000 1.054
43.18000 0.784
43.20000 5.904
43.22000 4.439
43.24000 2.201
43.26000 -2.409
43.28000 -0.384
43.30000 1.261
43.32000 -2.689
43.34000 -2.543
43.36000 -3.384
43.38000 0.479
43.40000 2.817
43.42000 2.335
43.44000 -0.204
43.46000 -2.874
43.48000 1.224
43.50000 4.864
43.52000 5.924
43.54000 1.474
43.56000 1.963
43.58000 1.634
43.60000 -0.076
43.62000 0.378
43.64000 0.433
43.66000 -3.262
43.68000 0.620
43.70000 3.566
43.72000 5.398
43.74000 7.653
43.76000 3.099
43.78000 2.933
43.80000 1.839
43.82000 1.440
43.84000 0.707
43.86000 0.181
43.88000 1.822
43.90000 -0.185
43.92000 1.947
43.94000 -0.164
43.96000 -0.823
43.98000 -3.373
44.00000 0.554
44.02000 3.713
44.04000 3.383
44.06000 2.488
44.08000 1.952
44.10000 3.708
44.12000 -0.159
44.14000 -0.574
44.16000 0.696
44.18000 3.312
44.20000 1.767
44.22000 3.145
44.24000 -0.977
44.26000 -2.647
44.28000 0.324
44.30000 -1.749
44.32000 -2.976
44.34000 0.141
44.36000 0.331
44.38000 -1.971
44.40000 -2.500
44.42000 -0.188
44.44000 -2.516
44.46000 -1.366
44.48000 -0.204
44.50000 -3.380
44.52000 -0.925
44.54000 -0.793
44.56000 0.344
44.58000 0.858
44.60000 0.200
44.62000 -0.163
44.64000 1.022
44.66000 1.570
44.68000 4.486
44.70000 1.681
44.72000 2.769
44.74000 2.439
44.76000 -0.131
44.78000 1.239
44.80000 2.526
44.82000 5.750
44.84000 8.322
44.86000 8.121
44.88000 6.341
44.90000 6.382
44.92000 5.340
44.94000 1.421
44.96000 6.116
44.98000 8.716
45.00000 3.289
45.02000 3.778
45.04000 8.241
45.06000 6.889
45.08000 6.533
45.10000 7.259
45.12000 8.136
45.14000 13.102
45.16000 13.716
45.18000 14.980
45.20000 8.459
45.22000 9.944
45.24000 6.724
45.26000 11.213
45.28000 15.096
45.30000 15.214
45.32000 18.765
45.34000 15.729
45.36000 14.276
45.38000 17.197
45.40000 16.690
45.42000 21.672
45.44000 23.116
45.46000 21.642
45.48000 22.184
45.50000 23.613
45.52000 24.692
45.54000 24.893
45.56000 28.691
45.58000 28.331
45.60000 27.057
45.62000 28.602
45.64000 29.277
45.66000 32.163
45.68000 36.355
45.70000 33.804
45.72000 38.984
45.74000 44.585
45.76000 38.586
45.78000 37.494
45.80000 40.879
45.82000 47.716
45.84000 48.165
45.86000 47.477
45.88000 48.399
45.90000 51.816
45.92000 49.664
45.94000 47.177
45.96000 50.589
45.98000 50.780
46.00000 59.231
46.02000 60.608
46.04000 63.455
46.06000 64.601
46.08000 66.263
46.10000 64.307
46.12000 66.045
46.14000 66.999
46.16000 70.186
46.18000 79.310
46.20000 81.624
46.22000 75.427
46.24000 81.719
46.26000 76.908
46.28000 82.943
46.30000 86.113
46.32000 87.788
46.34000 85.671
46.36000 89.494
46.38000 92.425
46.40000 95.466
46.42000 88.259
46.44000 93.938
46.46000 97.353
46.48000 98.130
46.50000 98.025
46.52000 94.337
46.54000 98.880
46.56000 103.471
46.58000 97.917
46.60000 96.177
46.62000 94.982
46.64000 97.568
46.66000 98.550
46.68000 97.463
46.70000 93.319
46.72000 87.697
46.74000 86.574
46.76000 88.440
46.78000 88.664
46.80000 92.612
46.82000 87.341
46.84000 85.582
46.86000 83.996
46.88000 80.862
46.90000 79.446
46.92000 79.039
46.94000 77.161
46.96000 74.754
46.98000 67.155
47.00000 63.051
47.02000 70.347
47.04000 70.135
47.06000 63.172
47.08000 59.559
47.10000 55.400
47.12000 54.740
47.14000 50.650
47.16000 57.106
47.18000 52.325
47.20000 47.016
47.22000 44.746
47.24000 41.220
47.26000 46.287
47.28000 48.854
47.30000 43.762
47.32000 39.340
47.34000 39.786
47.36000 38.683
47.38000 42.386
47.40000 37.005
47.42000 29.264
47.44000 23.999
47.46000 24.883
47.48000 21.293
47.50000 24.889
47.52000 27.764
47.54000 26.097
47.56000 17.318
47.58000 22.017
47.60000 18.696
47.62000 11.180
47.64000 11.391
47.66000 14.722
47.68000 13.226
47.70000 12.782
47.72000 12.778
47.74000 9.847
47.76000 10.732
47.78000 8.052
47.80000 11.466
47.82000 9.472
47.84000 6.720
47.86000 7.863
47.88000 9.037
47.90000 9.825
47.92000 6.377
47.94000 3.264
47.96000 4.146
47.98000 3.296
48.00000 3.340
48.02000 3.086
48.04000 3.864
48.06000 4.130
48.08000 6.957
48.10000 11.132
48.12000 9.780
48.14000 4.319
48.16000 -0.908
48.18000 -0.614
48.20000 3.337
48.22000 -1.768
48.24000 -2.181
48.26000 -1.780
48.28000 1.577
48.30000 -0.515
48.32000 1.730
48.34000 3.689
48.36000 0.054
48.38000 0.135
48.40000 -1.539
48.42000 -3.003
48.44000 4.743
48.46000 5.661
48.48000 0.223
48.50000 -0.485
48.52000 -1.788
48.54000 -2.155
48.56000 1.414
48.58000 1.938
48.60000 3.794
48.62000 3.670
48.64000 -0.938
48.66000 0.220
48.68000 -1.498
48.70000 0.486
48.72000 0.247
48.74000 -2.942
48.76000 0.586
48.78000 1.003
48.80000 1.865
48.82000 0.859
48.84000 -1.901
48.86000 0.466
48.88000 -1.120
48.90000 -0.338
48.92000 -1.627
48.94000 6.394
48.96000 7.556
48.98000 1.982
49.00000 -0.561
49.02000 -2.901
49.04000 0.409
49.06000 0.793
49.08000 -0.926
49.10000 1.499
49.12000 2.948
49.14000 0.098
49.16000 0.993
49.18000 -0.527
49.20000 -1.389
49.22000 -0.773
49.24000 -1.000
49.26000 4.722
49.28000 4.133
49.30000 -0.358
49.32000 1.688
49.34000 -0.620
49.36000 0.979
49.38000 5.308
49.40000 1.835
49.42000 2.292
49.44000 0.575
49.46000 3.099
49.48000 4.608
49.50000 1.766
49.52000 3.447
49.54000 -1.642
49.56000 -0.145
49.58000 0.849
49.60000 -0.887
49.62000 -1.869
49.64000 -2.836
49.66000 -1.123
49.68000 3.712
49.70000 5.088
49.72000 2.320
49.74000 3.122
49.76000 3.798
49.78000 1.796
49.80000 2.287
49.82000 1.033
49.84000 3.611
49.86000 0.256
49.88000 -0.374
49.90000 1.445
49.92000 1.387
49.94000 0.513
49.96000 3.337
49.98000 2.564
50.00000 2.898
50.02000 1.956
50.04000 0.807
50.06000 0.787
50.08000 -1.535
50.10000 -0.549
50.12000 2.820
50.14000 6.565
50.16000 5.568
50.18000 1.415
50.20000 -2.447
50.22000 -0.250
50.24000 2.187
50.26000 4.608
50.28000 1.369
50.30000 -0.897
50.32000 0.692
50.34000 6.942
50.36000 4.234
50.38000 -1.207
50.40000 1.340
50.42000 4.318
50.44000 3.297
50.46000 0.271
50.48000 2.961
50.50000 -0.021
50.52000 1.384
50.54000 1.333
50.56000 3.300
50.58000 -0.328
50.60000 2.280
50.62000 2.791
50.64000 4.998
50.66000 3.972
50.68000 4.770
50.70000 4.681
50.72000 2.583
50.74000 3.634
50.76000 6.573
50.78000 5.911
50.80000 5.419
50.82000 -1.473
50.84000 -0.411
50.86000 3.604
50.88000 9.349
50.90000 6.873
50.92000 4.526
50.94000 5.790
50.96000 1.193
50.98000 4.693
51.00000 6.586
51.02000 4.501
51.04000 -2.734
51.06000 0.009
51.08000 -0.883
51.10000 2.193
51.12000 -0.720
51.14000 1.190
51.16000 2.774
51.18000 4.373
51.20000 3.914
51.22000 4.890
51.24000 3.941
51.26000 6.175
51.28000 8.896
51.30000 8.218
51.32000 5.990
51.34000 7.394
51.36000 5.748
51.38000 -0.038
51.40000 2.240
51.42000 3.406
51.44000 -1.025
51.46000 2.895
51.48000 1.683
51.50000 1.420
51.52000 -0.361
51.54000 3.701
51.56000 4.405
51.58000 6.416
51.60000 6.100
51.62000 3.006
51.64000 4.357
51.66000 5.410
51.68000 5.319
51.70000 4.042
51.72000 4.000
51.74000 2.910
51.76000 0.291
51.78000 2.296
51.80000 0.068
51.82000 0.785
51.84000 4.822
51.86000 0.655
51.88000 1.036
51.90000 2.570
51.92000 -0.604
51.94000 -2.696
51.96000 -0.928
51.98000 1.617
52.00000 4.385
52.02000 8.167
52.04000 5.151
52.06000 4.741
52.08000 4.304
52.10000 4.600
52.12000 4.441
52.14000 1.577
52.16000 4.204
52.18000 4.335
52.20000 2.966
52.22000 -1.432
52.24000 2.358
52.26000 7.580
52.28000 7.985
52.30000 1.924
52.32000 0.564
52.34000 2.079
52.36000 7.226
52.38000 8.510
52.40000 5.358
52.42000 3.682
52.44000 4.556
52.46000 4.452
52.48000 2.552
52.50000 -2.683
52.52000 -1.930
52.54000 1.610
52.56000 2.584
52.58000 0.689
52.60000 5.171
52.62000 5.287
52.64000 2.288
52.66000 3.525
52.68000 0.685
52.70000 -0.941
52.72000 1.787
52.74000 1.004
52.76000 -0.696
52.78000 -0.215
52.80000 3.124
52.82000 2.324
52.84000 0.362
52.86000 0.258
52.88000 -0.259
52.90000 3.093
52.92000 0.572
52.94000 3.900
52.96000 1.723
52.98000 2.529
53.00000 -2.682
53.02000 -0.822
53.04000 2.588
53.06000 1.713
53.08000 2.559
53.10000 3.995
53.12000 1.869
53.14000 0.910
53.16000 5.117
53.18000 1.616
53.20000 1.921
53.22000 2.762
53.24000 1.668
53.26000 -1.732
53.28000 -1.433
53.30000 1.850
53.32000 2.381
53.34000 -0.781
53.36000 -1.825
53.38000 0.376
53.40000 0.373
53.42000 6.170
53.44000 6.321
53.46000 7.742
53.48000 8.218
53.50000 1.886
53.52000 -2.124
53.54000 -0.665
53.56000 2.194
53.58000 1.796
53.60000 2.822
53.62000 5.884
53.64000 3.392
53.66000 0.352
53.68000 0.736
53.70000 -0.305
53.72000 0.137
53.74000 3.009
53.76000 7.346
53.78000 1.769
53.80000 0.914
53.82000 -2.656
53.84000 5.617
53.86000 8.144
53.88000 3.776
53.90000 1.169
53.92000 1.319
53.94000 -1.029
53.96000 0.829
53.98000 3.618
54.00000 3.339
54.02000 6.137
54.04000 2.916
54.06000 -0.355
54.08000 2.783
54.10000 2.278
54.12000 3.083
54.14000 2.449
54.16000 -1.989
54.18000 -2.086
54.20000 -0.908
54.22000 -2.648
54.24000 3.296
54.26000 4.719
54.28000 8.620
54.30000 4.409
54.32000 3.709
54.34000 1.132
54.36000 1.316
54.38000 1.638
54.40000 2.781
54.42000 3.450
54.44000 5.596
54.46000 0.864
54.48000 1.038
54.50000 2.968
54.52000 -1.058
54.54000 -0.278
54.56000 2.519
54.58000 -2.644
54.60000 -1.566
54.62000 1.580
54.64000 4.670
54.66000 1.009
54.68000 3.652
54.70000 0.559
54.72000 3.498
54.74000 5.062
54.76000 -1.983
54.78000 -1.783
54.80000 2.385
54.82000 1.185
54.84000 2.583
54.86000 6.441
54.88000 4.132
54.90000 3.932
54.92000 -1.428
54.94000 -0.481
54.96000 0.292
54.98000 2.537
55.00000 1.076
55.02000 0.787
55.04000 3.287
55.06000 3.950
55.08000 3.081
55.10000 5.371
55.12000 5.663
55.14000 5.237
55.16000 -1.223
55.18000 1.717
55.20000 7.273
55.22000 7.160
55.24000 3.184
55.26000 6.953
55.28000 11.254
55.30000 8.948
55.32000 3.509
55.34000 3.610
55.36000 3.993
55.38000 1.788
55.40000 0.934
55.42000 5.003
55.44000 5.364
55.46000 3.281
55.48000 1.429
55.50000 3.550
55.52000 3.870
55.54000 2.970
55.56000 -0.036
55.58000 3.119
55.60000 1.431
55.62000 4.305
55.64000 5.816
55.66000 4.403
55.68000 3.848
55.70000 3.641
55.72000 5.453
55.74000 5.997
55.76000 5.740
55.78000 4.455
55.80000 4.166
55.82000 0.920
55.84000 -2.573
55.86000 -2.302
55.88000 2.121
55.90000 4.067
55.92000 6.897
55.94000 4.251
55.96000 3.666
55.98000 6.132
56.00000 -0.292
56.02000 0.801
56.04000 6.743
56.06000 5.202
56.08000 5.888
56.10000 5.610
56.12000 4.177
56.14000 2.179
56.16000 3.829
56.18000 5.985
56.20000 6.444
56.22000 7.668
56.24000 8.035
56.26000 0.961
56.28000 -0.375
56.30000 -0.509
56.32000 4.202
56.34000 5.867
56.36000 6.495
56.38000 3.093
56.40000 1.072
56.42000 0.696
56.44000 2.831
56.46000 4.640
56.48000 3.983
56.50000 3.030
56.52000 1.823
56.54000 -1.136
56.56000 -1.159
56.58000 -2.589
56.60000 2.661
56.62000 2.186
56.64000 5.208
56.66000 4.898
56.68000 2.802
56.70000 4.386
56.72000 4.086
56.74000 3.308
56.76000 0.753
56.78000 2.013
56.80000 0.908
56.82000 -0.476
56.84000 2.732
56.86000 -1.054
56.88000 2.754
56.90000 3.789
56.92000 4.184
56.94000 3.999
56.96000 0.660
56.98000 2.580
57.00000 4.302
57.02000 0.805
57.04000 -0.811
57.06000 5.478
57.08000 5.624
57.10000 5.384
57.12000 6.397
57.14000 4.401
57.16000 2.619
57.18000 -1.066
57.20000 1.569
57.22000 6.467
57.24000 4.934
57.26000 2.504
57.28000 5.169
57.30000 6.384
57.32000 5.659
57.34000 3.473
57.36000 6.507
57.38000 0.539
57.40000 3.232
57.42000 5.332
57.44000 -0.273
57.46000 -2.254
57.48000 2.685
57.50000 5.133
57.52000 2.887
57.54000 1.459
57.56000 1.116
57.58000 3.552
57.60000 1.352
57.62000 -0.022
57.64000 0.107
57.66000 4.400
57.68000 5.981
57.70000 5.320
57.72000 2.138
57.74000 2.345
57.76000 7.357
57.78000 7.036
57.80000 6.666
57.82000 7.247
57.84000 7.213
57.86000 0.073
57.88000 0.202
57.90000 -2.529
57.92000 0.332
57.94000 5.406
57.96000 4.610
57.98000 5.416
58.00000 4.399
58.02000 -2.526
58.04000 0.875
58.06000 4.171
58.08000 8.647
58.10000 1.512
58.12000 2.194
58.14000 6.571
58.16000 2.231
58.18000 0.828
58.20000 2.723
58.22000 2.974
58.24000 3.504
58.26000 4.123
58.28000 6.809
58.30000 4.570
58.32000 5.306
58.34000 1.577
58.36000 2.047
58.38000 1.460
58.40000 4.362
58.42000 3.244
58.44000 3.230
58.46000 1.355
58.48000 3.799
58.50000 3.353
58.52000 3.628
58.54000 4.195
58.56000 4.018
58.58000 2.484
58.60000 -0.636
58.62000 -2.125
58.64000 -0.250
58.66000 0.872
58.68000 2.927
58.70000 1.129
58.72000 0.024
58.74000 -0.408
58.76000 0.667
58.78000 4.189
58.80000 5.511
58.82000 1.680
58.84000 1.844
58.86000 3.989
58.88000 4.207
58.90000 2.215
58.92000 2.526
58.94000 1.886
58.96000 2.947
58.98000 4.887
59.00000 1.208
59.02000 0.906
59.04000 2.847
59.06000 3.018
59.08000 0.627
59.10000 2.038
59.12000 -0.098
59.14000 -2.499
59.16000 2.005
59.18000 4.433
59.20000 2.070
59.22000 4.886
59.24000 5.438
59.26000 6.496
59.28000 4.053
59.30000 3.447
59.32000 6.814
59.34000 2.902
59.36000 2.514
59.38000 0.233
59.40000 0.290
59.42000 4.094
59.44000 6.387
59.46000 4.670
59.48000 1.748
59.50000 2.435
59.52000 3.379
59.54000 2.380
59.56000 2.494
59.58000 2.160
59.60000 0.856
59.62000 -0.127
59.64000 -0.422
59.66000 -2.513
59.68000 -0.020
59.70000 -2.511
59.72000 -1.415
59.74000 1.451
59.76000 1.777
59.78000 2.522
59.80000 3.377
59.82000 3.481
59.84000 1.829
59.86000 -1.340
59.88000 2.896
59.90000 2.504
59.92000 3.876
59.94000 3.924
59.96000 8.272
59.98000 5.605
60.00000 2.694
60.02000 1.442
60.04000 0.725
60.06000 -0.557
60.08000 -1.433
60.10000 0.250
60.12000 -1.179
60.14000 0.270
60.16000 0.397
60.18000 1.080
60.20000 4.298
60.22000 2.678
60.24000 4.024
60.26000 4.886
60.28000 3.747
60.30000 1.396
60.32000 1.850
60.34000 1.894
60.36000 0.856
60.38000 -2.503
60.40000 -0.564
60.42000 5.510
60.44000 4.169
60.46000 0.149
60.48000 3.194
60.50000 7.826
60.52000 6.717
60.54000 4.827
60.56000 -0.187
60.58000 -0.345
60.60000 -1.609
60.62000 2.597
60.64000 2.093
60.66000 2.049
60.68000 1.181
60.70000 2.178
60.72000 0.040
60.74000 2.868
60.76000 2.607
60.78000 -1.105
60.80000 0.666
60.82000 1.048
60.84000 2.771
60.86000 5.336
60.88000 5.240
60.90000 1.935
60.92000 -0.108
60.94000 0.926
60.96000 3.983
60.98000 1.184
61.00000 0.130
61.02000 2.277
61.04000 -0.250
61.06000 1.686
61.08000 1.707
61.10000 0.405
61.12000 -0.599
61.14000 4.868
61.16000 4.447
61.18000 2.655
61.20000 6.436
61.22000 7.634
61.24000 0.891
61.26000 -2.450
61.28000 2.073
61.30000 2.050
61.32000 -0.859
61.34000 2.734
61.36000 3.109
61.38000 1.937
61.40000 0.612
61.42000 1.652
61.44000 5.045
61.46000 7.345
61.48000 3.851
61.50000 3.062
61.52000 3.735
61.54000 5.595
61.56000 4.426
61.58000 5.250
61.60000 6.177
61.62000 6.727
61.64000 1.408
61.66000 -0.586
61.68000 -0.088
61.70000 0.291
61.72000 2.141
61.74000 3.645
61.76000 3.391
61.78000 0.446
61.80000 1.387
61.82000 0.984
61.84000 -1.169
61.86000 1.357
61.88000 4.723
61.90000 1.951
61.92000 -0.253
61.94000 -0.057
61.96000 -0.261
61.98000 0.951
62.00000 2.075
62.02000 -1.887
62.04000 2.995
62.06000 3.036
62.08000 3.648
62.10000 4.338
62.12000 4.445
62.14000 5.360
62.16000 3.290
62.18000 2.256
62.20000 0.023
62.22000 -0.897
62.24000 1.251
62.26000 4.168
62.28000 1.452
62.30000 0.968
62.32000 1.664
62.34000 0.531
62.36000 1.377
62.38000 2.104
62.40000 2.049
62.42000 3.758
62.44000 2.143
62.46000 6.342
62.48000 6.470
62.50000 1.293
62.52000 2.756
62.54000 3.934
62.56000 3.294
62.58000 -2.337
62.60000 -1.302
62.62000 -2.010
62.64000 -1.292
62.66000 -2.428
62.68000 1.029
62.70000 -0.397
62.72000 4.527
62.74000 4.763
62.76000 1.213
62.78000 3.748
62.80000 6.595
62.82000 5.949
62.84000 0.278
62.86000 0.986
62.88000 0.776
62.90000 3.381
62.92000 1.438
62.94000 0.752
62.96000 -0.782
62.98000 1.832
63.00000 2.198
63.02000 5.495
63.04000 4.438
63.06000 2.870
63.08000 1.222
63.10000 -0.100
63.12000 1.082
63.14000 0.510
63.16000 0.775
63.18000 1.173
63.20000 1.407
63.22000 0.091
63.24000 1.177
63.26000 3.425
63.28000 2.351
63.30000 2.050
63.32000 0.215
63.34000 1.531
63.36000 2.801
63.38000 0.731
63.40000 3.649
63.42000 -0.799
63.44000 0.708
63.46000 2.868
63.48000 3.465
63.50000 1.683
63.52000 0.645
63.54000 5.366
63.56000 2.817
63.58000 -2.461
63.60000 -1.699
63.62000 0.247
63.64000 -1.144
63.66000 -1.276
63.68000 -0.984
63.70000 -1.450
63.72000 0.998
63.74000 2.630
63.76000 -1.979
63.78000 -1.581
63.80000 1.378
63.82000 0.149
63.84000 0.807
63.86000 2.668
63.88000 1.681
63.90000 -1.880
63.92000 -0.295
63.94000 0.703
63.96000 2.729
63.98000 3.004
64.00000 0.907
64.02000 -0.243
64.04000 1.780
64.06000 1.748
64.08000 -0.696
64.10000 3.951
64.12000 0.280
64.14000 1.123
64.16000 0.988
64.18000 -1.513
64.20000 -0.737
64.22000 -0.484
64.24000 1.234
64.26000 3.457
64.28000 4.524
64.30000 7.463
64.32000 4.115
64.34000 3.137
64.36000 -0.798
64.38000 5.419
64.40000 2.914
64.42000 2.400
64.44000 5.199
64.46000 1.837
64.48000 -0.624
64.50000 0.108
64.52000 1.306
64.54000 0.295
64.56000 -0.178
64.58000 -2.453
64.60000 2.491
64.62000 5.091
64.64000 1.137
64.66000 -1.429
64.68000 3.913
64.70000 0.049
64.72000 2.355
64.74000 4.363
64.76000 2.351
64.78000 1.217
64.80000 4.395
64.82000 1.732
64.84000 -2.439
64.86000 1.394
64.88000 3.737
64.90000 3.905
64.92000 3.646
64.94000 3.317
64.96000 2.627
64.98000 0.878
65.00000 3.348
65.02000 3.236
65.04000 1.838
65.06000 2.139
65.08000 2.719
65.10000 3.006
65.12000 3.270
65.14000 0.596
65.16000 3.561
65.18000 0.861
65.20000 0.627
65.22000 -0.504
65.24000 3.714
65.26000 4.685
65.28000 6.051
65.30000 2.753
65.32000 -1.183
65.34000 2.823
65.36000 1.955
65.38000 1.645
65.40000 0.252
65.42000 2.063
65.44000 2.459
65.46000 2.412
65.48000 0.244
65.50000 1.254
65.52000 2.761
65.54000 4.064
65.56000 6.342
65.58000 3.838
65.60000 2.666
65.62000 2.587
65.64000 1.020
65.66000 -0.134
65.68000 -2.061
65.70000 1.621
65.72000 3.158
65.74000 2.591
65.76000 0.666
65.78000 0.607
65.80000 0.950
65.82000 -0.102
65.84000 2.063
65.86000 1.717
65.88000 4.463
65.90000 4.081
65.92000 1.968
65.94000 -2.511
65.96000 0.767
65.98000 1.651
66.00000 1.441
66.02000 0.773
66.04000 0.193
66.06000 -0.820
66.08000 1.295
66.10000 -0.398
66.12000 -0.957
66.14000 1.497
66.16000 -0.843
66.18000 -2.532
66.20000 -0.033
66.22000 0.227
66.24000 1.757
66.26000 -0.581
66.28000 -0.246
66.30000 -0.743
66.32000 0.723
66.34000 1.285
66.36000 1.117
66.38000 1.323
66.40000 3.947
66.42000 4.919
66.44000 3.246
66.46000 4.548
66.48000 1.333
66.50000 1.452
66.52000 3.366
66.54000 4.687
66.56000 3.986
66.58000 4.423
66.60000 2.287
66.62000 0.214
66.64000 2.251
66.66000 2.147
66.68000 2.052
66.70000 3.897
66.72000 3.932
66.74000 4.872
66.76000 5.773
66.78000 2.223
66.80000 6.409
66.82000 4.847
66.84000 1.901
66.86000 4.149
66.88000 5.974
66.90000 4.330
66.92000 8.501
66.94000 7.248
66.96000 2.301
66.98000 5.031
67.00000 4.724
67.02000 6.324
67.04000 6.000
67.06000 6.978
67.08000 8.200
67.10000 10.013
67.12000 12.773
67.14000 12.103
67.16000 7.810
67.18000 5.601
67.20000 7.990
67.22000 8.499
67.24000 8.430
67.26000 6.804
67.28000 7.107
67.30000 9.458
67.32000 11.125
67.34000 11.183
67.36000 12.588
67.38000 11.277
67.40000 10.791
67.42000 15.344
67.44000 19.743
67.46000 17.487
67.48000 17.136
67.50000 15.789
67.52000 16.939
67.54000 21.300
67.56000 20.076
67.58000 14.661
67.60000 15.132
67.62000 13.698
67.64000 14.629
67.66000 13.323
67.68000 12.751
67.70000 15.402
67.72000 18.906
67.74000 20.755
67.76000 19.987
67.78000 16.518
67.80000 14.018
67.82000 14.647
67.84000 21.213
67.86000 21.225
67.88000 16.362
67.90000 20.748
67.92000 19.956
67.94000 16.288
67.96000 16.478
67.98000 19.627
68.00000 17.863
68.02000 19.914
68.04000 19.869
68.06000 17.434
68.08000 15.129
68.10000 13.909
68.12000 15.646
68.14000 20.636
68.16000 15.250
68.18000 15.367
68.20000 18.037
68.22000 18.579
68.24000 14.653
68.26000 10.905
68.28000 10.338
68.30000 13.250
68.32000 12.516
68.34000 13.123
68.36000 16.035
68.38000 12.363
68.40000 12.618
68.42000 14.476
68.44000 10.562
68.46000 13.938
68.48000 11.632
68.50000 8.048
68.52000 9.781
68.54000 11.592
68.56000 9.747
68.58000 9.151
68.60000 6.322
68.62000 8.560
68.64000 7.205
68.66000 6.824
68.68000 7.240
68.70000 6.204
68.72000 5.514
68.74000 3.970
68.76000 4.230
68.78000 2.311
68.80000 4.925
68.82000 3.091
68.84000 2.120
68.86000 5.316
68.88000 6.464
68.90000 4.024
68.92000 4.108
68.94000 2.001
68.96000 1.065
68.98000 4.799
69.00000 2.136
69.02000 3.771
69.04000 4.100
69.06000 1.849
69.08000 2.161
69.10000 4.386
69.12000 6.539
69.14000 0.916
69.16000 -0.644
69.18000 -0.260
69.20000 1.188
69.22000 2.339
69.24000 0.694
69.26000 -1.141
69.28000 1.294
69.30000 2.815
69.32000 -1.298
69.34000 -1.250
69.36000 -1.333
69.38000 -1.837
69.40000 -0.641
69.42000 0.533
69.44000 1.227
69.46000 -0.837
69.48000 -2.373
69.50000 -0.227
69.52000 2.971
69.54000 1.819
69.56000 -1.234
69.58000 1.380
69.60000 5.138
69.62000 2.539
69.64000 1.882
69.66000 3.983
69.68000 6.453
69.70000 -0.833
69.72000 -2.408
69.74000 1.686
69.76000 4.166
69.78000 8.528
69.80000 8.849
69.82000 5.984
69.84000 3.852
69.86000 3.199
69.88000 2.271
69.90000 2.700
69.92000 3.015
69.94000 5.288
69.96000 3.776
69.98000 2.056
70.00000 -1.982
70.02000 1.452
70.04000 3.884
70.06000 4.190
70.08000 7.312
70.10000 6.642
70.12000 3.985
70.14000 -0.548
70.16000 -1.056
70.18000 -2.381
70.20000 -1.842
70.22000 0.169
70.24000 1.892
70.26000 1.978
70.28000 1.976
70.30000 -0.568
70.32000 3.929
70.34000 3.166
70.36000 2.763
70.38000 1.421
70.40000 -0.791
70.42000 -0.821
70.44000 0.933
70.46000 -1.256
70.48000 -1.644
70.50000 -1.107
70.52000 -0.916
70.54000 1.837
70.56000 0.806
70.58000 2.676
70.60000 2.898
70.62000 1.368
70.64000 -1.153
70.66000 1.361
70.68000 5.782
70.70000 4.191
70.72000 1.387
70.74000 2.537
70.76000 2.846
70.78000 1.136
70.80000 0.450
70.82000 -1.383
70.84000 0.071
70.86000 5.243
70.88000 6.691
70.90000 3.580
70.92000 3.084
70.94000 4.296
70.96000 2.456
70.98000 1.710
71.00000 0.971
71.02000 1.677
71.04000 1.384
71.06000 -0.117
71.08000 -2.365
71.10000 -1.432
71.12000 2.552
71.14000 2.422
71.16000 1.452
71.18000 2.592
71.20000 2.375
71.22000 3.156
71.24000 1.012
71.26000 -2.364
71.28000 1.106
71.30000 2.006
71.32000 3.362
71.34000 5.272
71.36000 -1.643
71.38000 -0.618
71.40000 -0.089
71.42000 1.131
71.44000 0.533
71.46000 0.996
71.48000 -0.291
71.50000 0.938
71.52000 -1.888
71.54000 -0.661
71.56000 1.574
71.58000 1.763
71.60000 -1.136
71.62000 -1.026
71.64000 -0.029
71.66000 -0.953
71.68000 -2.198
71.70000 -2.359
71.72000 -1.049
71.74000 1.490
71.76000 -0.128
71.78000 2.468
71.80000 -0.749
71.82000 0.635
71.84000 4.516
71.86000 -0.876
71.88000 0.746
71.90000 1.966
71.92000 0.366
71.94000 1.159
71.96000 2.749
71.98000 0.091
72.00000 -0.763
72.02000 -0.652
72.04000 1.385
72.06000 2.580
72.08000 1.634
72.10000 0.728
72.12000 -1.219
72.14000 -2.152
72.16000 -0.971
72.18000 -0.300
72.20000 -1.535
72.22000 -1.265
72.24000 2.383
72.26000 2.335
72.28000 -0.180
72.30000 -1.979
72.32000 1.598
72.34000 3.236
72.36000 5.618
72.38000 6.329
72.40000 3.640
72.42000 6.334
72.44000 6.426
72.46000 3.393
72.48000 1.444
72.50000 0.311
72.52000 -2.243
72.54000 -0.641
72.56000 1.577
72.58000 0.902
72.60000 4.279
72.62000 5.726
72.64000 7.093
72.66000 0.412
72.68000 1.899
72.70000 4.672
72.72000 5.240
72.74000 4.673
72.76000 4.366
72.78000 -1.584
72.80000 -1.663
72.82000 4.772
72.84000 4.340
72.86000 4.038
72.88000 5.564
72.90000 7.252
72.92000 8.000
72.94000 2.291
72.96000 1.542
72.98000 -2.274
73.00000 1.177
73.02000 5.087
73.04000 3.867
73.06000 0.902
73.08000 3.528
73.10000 4.843
73.12000 6.398
73.14000 2.386
73.16000 3.151
73.18000 3.382
73.20000 3.776
73.22000 5.474
73.24000 3.939
73.26000 2.434
73.28000 2.095
73.30000 1.789
73.32000 4.593
73.34000 3.711
73.36000 5.415
73.38000 1.140
73.40000 -0.471
73.42000 3.297
73.44000 4.703
73.46000 2.879
73.48000 1.133
73.50000 2.737
73.52000 0.614
73.54000 1.173
73.56000 1.457
73.58000 4.592
73.60000 3.999
73.62000 0.610
73.64000 0.494
73.66000 -0.441
73.68000 1.424
73.70000 0.402
73.72000 -2.287
73.74000 4.089
73.76000 2.270
73.78000 2.623
73.80000 -0.612
73.82000 -2.286
73.84000 0.756
73.86000 0.812
73.88000 1.574
73.90000 0.414
73.92000 2.278
73.94000 -1.264
73.96000 2.433
73.98000 -1.406
74.00000 -0.733
74.02000 5.721
74.04000 5.202
74.06000 6.246
74.08000 8.126
74.10000 5.054
74.12000 1.778
74.14000 3.710
74.16000 2.283
74.18000 1.095
74.20000 0.959
74.22000 -0.357
74.24000 0.625
74.26000 3.647
74.28000 -0.391
74.30000 -0.135
74.32000 -0.986
74.34000 -0.563
74.36000 2.986
74.38000 1.531
74.40000 1.540
74.42000 0.022
74.44000 1.414
74.46000 0.309
74.48000 1.980
74.50000 1.982
74.52000 3.790
74.54000 6.794
74.56000 4.535
74.58000 2.243
74.60000 -2.275
74.62000 4.056
74.64000 5.187
74.66000 5.565
74.68000 4.479
74.70000 -2.249
74.72000 1.410
74.74000 0.535
74.76000 0.969
74.78000 4.595
74.80000 2.824
74.82000 3.257
74.84000 6.487
74.86000 2.987
74.88000 2.443
74.90000 1.915
74.92000 -2.288
74.94000 3.274
74.96000 4.739
74.98000 1.862
75.00000 -0.618
75.02000 -2.292
75.04000 1.040
75.06000 -0.508
75.08000 -1.306
75.10000 -1.325
75.12000 0.755
75.14000 4.586
75.16000 1.487
75.18000 -0.162
75.20000 1.070
75.22000 0.942
75.24000 1.266
75.26000 2.024
75.28000 0.475
75.30000 1.119
75.32000 3.590
75.34000 0.722
75.36000 0.004
75.38000 1.590
75.40000 1.529
75.42000 -0.060
75.44000 -1.536
75.46000 2.533
75.48000 2.034
75.50000 1.205
75.52000 1.623
75.54000 0.443
75.56000 0.361
75.58000 5.153
75.60000 2.596
75.62000 2.031
75.64000 0.672
75.66000 2.543
75.68000 5.538
75.70000 3.753
75.72000 3.462
75.74000 6.291
75.76000 2.164
75.78000 -1.894
75.80000 1.270
75.82000 0.680
75.84000 2.366
75.86000 1.932
75.88000 1.338
75.90000 0.709
75.92000 -2.306
75.94000 0.684
75.96000 1.048
75.98000 -0.945
76.00000 3.073
76.02000 7.273
76.04000 9.816
76.06000 2.455
76.08000 -2.069
76.10000 1.076
76.12000 3.228
76.14000 3.741
76.16000 4.020
76.18000 5.594
76.20000 4.232
76.22000 6.648
76.24000 7.184
76.26000 4.858
76.28000 5.348
76.30000 2.141
76.32000 1.999
76.34000 1.013
76.36000 2.437
76.38000 2.197
76.40000 -1.204
76.42000 0.471
76.44000 3.388
76.46000 6.544
76.48000 4.918
76.50000 3.826
76.52000 -1.201
76.54000 1.902
76.56000 7.571
76.58000 6.571
76.60000 7.466
76.62000 4.986
76.64000 5.034
76.66000 7.552
76.68000 3.682
76.70000 2.699
76.72000 3.138
76.74000 2.360
76.76000 -0.203
76.78000 -2.272
76.80000 -0.713
76.82000 3.940
76.84000 3.819
76.86000 5.529
76.88000 4.551
76.90000 2.056
76.92000 2.011
76.94000 0.527
76.96000 1.725
76.98000 -0.033
77.00000 1.674
77.02000 3.505
77.04000 4.672
77.06000 4.264
77.08000 4.818
77.10000 2.205
77.12000 3.273
77.14000 4.365
77.16000 6.502
77.18000 4.583
77.20000 5.635
77.22000 0.897
77.24000 2.040
77.26000 4.492
77.28000 0.923
77.30000 1.576
77.32000 7.247
77.34000 7.926
77.36000 4.385
77.38000 5.793
77.40000 2.436
77.42000 3.477
77.44000 6.288
77.46000 0.885
77.48000 -0.601
77.50000 3.462
77.52000 3.663
77.54000 4.325
77.56000 0.965
77.58000 0.274
77.60000 -2.312
77.62000 1.342
77.64000 -0.006
77.66000 3.635
77.68000 5.495
77.70000 4.543
77.72000 4.889
77.74000 3.947
77.76000 1.923
77.78000 1.249
77.80000 1.446
77.82000 -0.161
77.84000 0.357
77.86000 0.982
77.88000 5.116
77.90000 2.581
77.92000 1.470
77.94000 5.080
77.96000 9.707
77.98000 7.816
78.00000 3.624
78.02000 2.630
78.04000 2.359
78.06000 3.472
78.08000 6.412
78.10000 3.413
78.12000 3.532
78.14000 0.617
78.16000 -0.677
78.18000 -0.376
78.20000 2.736
78.22000 3.600
78.24000 3.814
78.26000 2.883
78.28000 4.341
78.30000 2.245
78.32000 3.328
78.34000 6.444
78.36000 3.030
78.38000 0.346
78.40000 -0.835
78.42000 4.434
78.44000 3.352
78.46000 5.634
78.48000 6.765
78.50000 5.072
78.52000 0.892
78.54000 3.195
78.56000 2.978
78.58000 2.028
78.60000 -0.277
78.62000 -0.853
78.64000 2.117
78.66000 3.869
78.68000 3.950
78.70000 6.970
78.72000 6.492
78.74000 6.913
78.76000 7.354
78.78000 7.927
78.80000 6.567
78.82000 12.379
78.84000 7.159
78.86000 5.262
78.88000 6.174
78.90000 3.912
78.92000 3.483
78.94000 2.370
78.96000 4.238
78.98000 7.823
79.00000 9.656
79.02000 8.132
79.04000 4.282
79.06000 -2.296
79.08000 1.642
79.10000 6.219
79.12000 10.166
79.14000 7.963
79.16000 6.776
79.18000 7.073
79.20000 7.813
79.22000 9.586
79.24000 5.788
79.26000 5.653
79.28000 4.130
79.30000 0.017
79.32000 7.874
79.34000 7.200
79.36000 2.095
79.38000 5.389
79.40000 5.187
79.42000 -0.065
79.44000 -1.189
79.46000 6.011
79.48000 7.375
79.50000 4.034
79.52000 2.399
79.54000 4.348
79.56000 4.266
79.58000 1.882
79.60000 2.948
79.62000 6.370
79.64000 4.688
79.66000 3.643
79.68000 2.779
79.70000 0.987
79.72000 2.171
79.74000 6.092
79.76000 4.909
79.78000 1.709
79.80000 1.494
79.82000 1.357
79.84000 1.687
79.86000 1.761
79.88000 2.971
79.90000 1.102
79.92000 3.512
79.94000 4.161
79.96000 6.693
79.98000 2.659
80.00000 2.010
80.02000 4.486
80.04000 2.958
80.06000 2.436
80.08000 0.899
80.10000 0.729
80.12000 3.865
80.14000 2.445
80.16000 0.874
80.18000 4.494
80.20000 1.630
80.22000 2.027
80.24000 4.178
80.26000 5.408
80.28000 2.322
80.30000 3.376
80.32000 3.909
80.34000 3.187
80.36000 5.391
80.38000 8.740
80.40000 5.136
80.42000 0.813
80.44000 4.865
80.46000 8.292
80.48000 13.244
80.50000 9.536
80.52000 5.252
80.54000 9.041
80.56000 3.198
80.58000 -0.571
80.60000 0.836
80.62000 7.122
80.64000 3.874
80.66000 5.335
80.68000 11.088
80.70000 7.062
80.72000 8.127
80.74000 8.774
80.76000 9.980
80.78000 10.125
80.80000 8.529
80.82000 9.374
80.84000 9.617
80.86000 9.501
80.88000 10.902
80.90000 10.315
80.92000 12.628
80.94000 9.176
80.96000 6.412
80.98000 8.435
81.00000 14.417
81.02000 13.017
81.04000 12.103
81.06000 12.833
81.08000 12.342
81.10000 11.025
81.12000 9.994
81.14000 12.033
81.16000 12.272
81.18000 9.775
81.20000 12.633
81.22000 13.504
81.24000 11.723
81.26000 10.800
81.28000 12.645
81.30000 13.798
81.32000 13.207
81.34000 13.568
81.36000 13.557
81.38000 16.382
81.40000 23.626
81.42000 22.596
81.44000 22.589
81.46000 21.289
81.48000 19.884
81.50000 24.039
81.52000 23.074
81.54000 16.995
81.56000 17.907
81.58000 16.736
81.60000 17.147
81.62000 19.102
81.64000 22.666
81.66000 20.822
81.68000 17.422
81.70000 18.834
81.72000 22.478
81.74000 23.498
81.76000 21.811
81.78000 27.204
81.80000 29.648
81.82000 29.546
81.84000 31.906
81.86000 27.700
81.88000 29.399
81.90000 25.395
81.92000 25.141
81.94000 29.999
81.96000 27.511
81.98000 27.331
82.00000 29.350
82.02000 27.196
82.04000 22.251
82.06000 21.956
82.08000 28.153
82.10000 24.149
82.12000 20.778
82.14000 18.102
82.16000 19.155
82.18000 25.727
82.20000 22.542
82.22000 20.713
82.24000 26.328
82.26000 24.145
82.28000 27.303
82.30000 27.259
82.32000 23.634
82.34000 18.800
82.36000 23.040
82.38000 20.440
82.40000 15.085
82.42000 23.774
82.44000 22.019
82.46000 21.121
82.48000 20.216
82.50000 22.151
82.52000 17.224
82.54000 15.377
82.56000 19.237
82.58000 17.529
82.60000 15.804
82.62000 17.824
82.64000 15.881
82.66000 12.226
82.68000 12.758
82.70000 13.457
82.72000 14.692
82.74000 15.966
82.76000 15.969
82.78000 14.172
82.80000 10.668
82.82000 10.506
82.84000 14.001
82.86000 9.984
82.88000 8.264
82.90000 7.577
82.92000 9.889
82.94000 6.605
82.96000 10.063
82.98000 9.057
83.00000 4.094
83.02000 0.649
83.04000 2.132
83.06000 6.590
83.08000 7.803
83.10000 4.363
83.12000 3.790
83.14000 4.457
83.16000 -1.280
83.18000 3.690
83.20000 2.413
83.22000 3.405
83.24000 2.233
83.26000 3.030
83.28000 3.582
83.30000 3.421
83.32000 0.526
83.34000 2.333
83.36000 3.903
83.38000 -0.363
83.40000 -0.742
83.42000 4.313
83.44000 4.307
83.46000 1.900
83.48000 2.431
83.50000 0.754
83.52000 1.283
83.54000 5.040
83.56000 4.861
83.58000 4.409
83.60000 5.739
83.62000 3.130
83.64000 -2.499
83.66000 1.353
83.68000 4.634
83.70000 4.196
83.72000 2.899
83.74000 3.036
83.76000 4.692
83.78000 0.063
83.80000 0.190
83.82000 2.969
83.84000 4.455
83.86000 6.103
83.88000 1.334
83.90000 1.676
83.92000 5.087
83.94000 1.690
83.96000 4.083
83.98000 2.661
84.00000 -1.263
84.02000 1.525
84.04000 0.526
84.06000 0.189
84.08000 -2.466
84.10000 -1.018
84.12000 -1.472
84.14000 0.054
84.16000 3.555
84.18000 2.770
84.20000 2.062
84.22000 1.785
84.24000 3.774
84.26000 2.733
84.28000 0.168
84.30000 -2.458
84.32000 -1.235
84.34000 -0.511
84.36000 1.098
84.38000 3.883
84.40000 3.840
84.42000 2.805
84.44000 -1.220
84.46000 -2.459
84.48000 0.396
84.50000 0.510
84.52000 6.963
84.54000 5.916
84.56000 2.322
84.58000 -1.903
84.60000 -0.621
84.62000 6.665
84.64000 2.114
84.66000 2.463
84.68000 4.911
84.70000 2.870
84.72000 1.152
84.74000 5.326
84.76000 6.527
84.78000 2.838
84.80000 -2.113
84.82000 4.566
84.84000 0.325
84.86000 2.780
84.88000 0.794
84.90000 1.956
84.92000 6.582
84.94000 3.304
84.96000 4.157
84.98000 4.382
85.00000 4.623
85.02000 5.365
85.04000 9.777
85.06000 8.343
85.08000 2.611
85.10000 5.165
85.12000 3.254
85.14000 6.926
85.16000 9.828
85.18000 5.428
85.20000 5.055
85.22000 6.766
85.24000 7.884
85.26000 7.501
85.28000 4.729
85.30000 6.458
85.32000 7.646
85.34000 4.863
85.36000 5.885
85.38000 9.594
85.40000 14.254
85.42000 11.747
85.44000 12.875
85.46000 14.187
85.48000 15.474
85.50000 14.421
85.52000 10.746
85.54000 10.800
85.56000 8.570
85.58000 15.033
85.60000 16.623
85.62000 18.633
85.64000 21.582
85.66000 15.094
85.68000 17.671
85.70000 18.074
85.72000 16.946
85.74000 15.713
85.76000 18.700
85.78000 23.863
85.80000 25.203
85.82000 19.112
85.84000 25.425
85.86000 23.897
85.88000 22.215
85.90000 22.972
85.92000 25.575
85.94000 26.880
85.96000 26.695
85.98000 19.772
86.00000 17.616
86.02000 17.029
86.04000 21.085
86.06000 26.454
86.08000 29.384
86.10000 30.584
86.12000 27.967
86.14000 28.271
86.16000 28.836
86.18000 33.264
86.20000 27.332
86.22000 31.134
86.24000 31.449
86.26000 26.275
86.28000 27.318
86.30000 28.996
86.32000 25.408
86.34000 20.342
86.36000 24.623
86.38000 29.861
86.40000 21.978
86.42000 21.362
86.44000 22.409
86.46000 16.549
86.48000 20.733
86.50000 18.789
86.52000 20.619
86.54000 17.891
86.56000 15.987
86.58000 20.169
86.60000 19.927
86.62000 17.139
86.64000 16.934
86.66000 12.808
86.68000 15.619
86.70000 19.608
86.72000 17.346
86.74000 15.011
86.76000 16.941
86.78000 15.581
86.80000 13.115
86.82000 9.770
86.84000 9.729
86.86000 9.555
86.88000 9.159
86.90000 9.851
86.92000 6.874
86.94000 7.581
86.96000 9.580
86.98000 10.093
87.00000 11.312
87.02000 6.046
87.04000 6.877
87.06000 2.873
87.08000 4.376
87.10000 6.362
87.12000 5.361
87.14000 4.225
87.16000 6.808
87.18000 10.686
87.20000 7.778
87.22000 3.130
87.24000 5.419
87.26000 2.499
87.28000 4.108
87.30000 3.466
87.32000 5.503
87.34000 10.322
87.36000 8.020
87.38000 2.985
87.40000 1.830
87.42000 -1.444
87.44000 5.041
87.46000 3.795
87.48000 1.025
87.50000 1.321
87.52000 4.071
87.54000 3.309
87.56000 2.258
87.58000 1.034
87.60000 2.772
87.62000 4.981
87.64000 3.797
87.66000 4.162
87.68000 4.608
87.70000 5.282
87.72000 4.052
87.74000 2.776
87.76000 4.125
87.78000 -1.119
87.80000 -0.231
87.82000 -0.415
87.84000 -0.592
87.86000 1.473
87.88000 2.311
87.90000 0.880
87.92000 -2.262
87.94000 -1.712
87.96000 1.563
87.98000 1.535
88.00000 2.845
88.02000 2.794
88.04000 -1.616
88.06000 -1.218
88.08000 2.392
88.10000 1.892
88.12000 1.890
88.14000 2.332
88.16000 5.801
88.18000 4.774
88.20000 2.317
88.22000 0.940
88.24000 1.970
88.26000 3.991
88.28000 3.894
88.30000 2.252
88.32000 1.733
88.34000 1.929
88.36000 2.978
88.38000 3.590
88.40000 -0.525
88.42000 -1.660
88.44000 0.954
88.46000 3.700
88.48000 2.227
88.50000 4.404
88.52000 3.955
88.54000 4.185
88.56000 4.881
88.58000 2.632
88.60000 -2.194
88.62000 1.591
88.64000 3.364
88.66000 4.972
88.68000 5.512
88.70000 2.921
88.72000 1.463
88.74000 1.938
88.76000 2.992
88.78000 1.927
88.80000 -0.234
88.82000 -0.425
88.84000 3.171
88.86000 1.548
88.88000 3.000
88.90000 3.392
88.92000 1.149
88.94000 3.161
88.96000 6.243
88.98000 6.610
89.00000 3.039
89.02000 1.654
89.04000 0.141
89.06000 1.168
89.08000 3.586
89.10000 5.262
89.12000 2.827
89.14000 -0.708
89.16000 -2.166
89.18000 3.268
89.20000 5.880
89.22000 8.383
89.24000 5.048
89.26000 6.956
89.28000 2.115
89.30000 1.408
89.32000 0.986
89.34000 0.932
89.36000 3.096
89.38000 2.781
89.40000 2.314
89.42000 7.116
89.44000 6.769
89.46000 2.933
89.48000 3.645
89.50000 1.060
89.52000 -0.229
89.54000 0.506
89.56000 2.144
89.58000 2.260
89.60000 1.141
89.62000 -0.821
89.64000 4.367
89.66000 2.813
89.68000 2.763
89.70000 0.876
89.72000 5.027
89.74000 5.470
89.76000 2.077
89.78000 3.043
89.80000 4.483
89.82000 6.448
89.84000 3.846
89.86000 -0.298
89.88000 -0.291
89.90000 -1.746
89.92000 -2.153
89.94000 0.822
89.96000 1.969
89.98000 1.950
90.00000 3.934
90.02000 7.163
90.04000 8.154
90.06000 5.124
90.08000 -2.148
90.10000 2.467
90.12000 4.298
90.14000 4.175
90.16000 3.649
90.18000 2.341
90.20000 1.638
90.22000 4.355
90.24000 5.131
90.26000 1.908
90.28000 2.686
90.30000 2.869
90.32000 1.667
90.34000 1.907
90.36000 3.950
90.38000 6.606
90.40000 3.696
90.42000 -1.001
90.44000 2.136
90.46000 4.770
90.48000 5.622
90.50000 4.642
90.52000 0.723
90.54000 2.380
90.56000 3.067
90.58000 2.985
90.60000 4.190
90.62000 -0.784
90.64000 -0.136
90.66000 0.660
90.68000 1.711
90.70000 2.846
90.72000 -0.006
90.74000 -1.349
90.76000 0.615
90.78000 2.613
90.80000 0.988
90.82000 2.393
90.84000 3.603
90.86000 7.335
90.88000 5.554
90.90000 1.272
90.92000 2.294
90.94000 1.135
90.96000 -0.247
90.98000 1.716
91.00000 2.839
91.02000 0.149
91.04000 2.452
91.06000 2.045
91.08000 1.891
91.10000 0.525
91.12000 1.009
91.14000 4.900
91.16000 3.681
91.18000 0.057
91.20000 -0.101
91.22000 0.976
91.24000 2.464
91.26000 2.883
91.28000 2.896
91.30000 5.905
91.32000 4.696
91.34000 4.605
91.36000 0.521
91.38000 3.465
91.40000 1.426
91.42000 2.725
91.44000 5.431
91.46000 1.381
91.48000 -2.148
91.50000 3.883
91.52000 3.627
91.54000 1.240
91.56000 -1.192
91.58000 2.256
91.60000 5.280
91.62000 3.992
91.64000 -1.560
91.66000 3.766
91.68000 2.594
91.70000 5.519
91.72000 5.158
91.74000 1.442
91.76000 2.762
91.78000 4.071
91.80000 3.035
91.82000 5.778
91.84000 2.741
91.86000 2.726
91.88000 3.919
91.90000 3.166
91.92000 8.420
91.94000 4.065
91.96000 1.959
91.98000 1.296
92.00000 4.539
92.02000 5.887
92.04000 5.133
92.06000 3.150
92.08000 2.446
92.10000 6.109
92.12000 4.101
92.14000 7.650
92.16000 8.841
92.18000 8.806
92.20000 6.889
92.22000 3.544
92.24000 2.098
92.26000 0.982
92.28000 2.449
92.30000 1.312
92.32000 3.577
92.34000 6.956
92.36000 5.722
92.38000 5.531
92.40000 2.193
92.42000 2.332
92.44000 2.905
92.46000 8.746
92.48000 6.652
92.50000 1.713
92.52000 0.577
92.54000 2.023
92.56000 6.177
92.58000 5.072
92.60000 -0.161
92.62000 -2.139
92.64000 2.272
92.66000 1.207
92.68000 1.411
92.70000 4.130
92.72000 5.572
92.74000 7.590
92.76000 5.731
92.78000 5.661
92.80000 1.004
92.82000 5.446
92.84000 10.800
92.86000 7.495
92.88000 3.784
92.90000 7.892
92.92000 7.619
92.94000 5.991
92.96000 1.933
92.98000 -1.593
93.00000 -0.106
93.02000 3.328
93.04000 2.249
93.06000 -0.698
93.08000 -0.409
93.10000 -1.565
93.12000 1.934
93.14000 2.315
93.16000 -1.076
93.18000 1.830
93.20000 1.035
93.22000 1.950
93.24000 3.774
93.26000 5.787
93.28000 8.060
93.30000 7.700
93.32000 2.879
93.34000 -1.006
93.36000 0.385
93.38000 5.419
93.40000 7.343
93.42000 5.386
93.44000 2.743
93.46000 0.479
93.48000 0.800
93.50000 7.452
93.52000 2.626
93.54000 -2.134
93.56000 1.513
93.58000 2.185
93.60000 7.215
93.62000 11.844
93.64000 6.342
93.66000 1.698
93.68000 6.480
93.70000 8.245
93.72000 5.120
93.74000 4.335
93.76000 7.022
93.78000 3.767
93.80000 4.701
93.82000 10.453
93.84000 3.831
93.86000 4.870
93.88000 4.456
93.90000 3.910
93.92000 4.988
93.94000 5.116
93.96000 3.475
93.98000 1.307
94.00000 1.893
94.02000 3.113
94.04000 4.119
94.06000 2.994
94.08000 1.949
94.10000 5.547
94.12000 4.897
94.14000 2.539
94.16000 -1.216
94.18000 2.454
94.20000 5.334
94.22000 1.103
94.24000 1.671
94.26000 0.526
94.28000 0.761
94.30000 2.230
94.32000 3.169
94.34000 0.836
94.36000 1.811
94.38000 3.756
94.40000 4.590
94.42000 4.877
94.44000 1.032
94.46000 2.130
94.48000 3.046
94.50000 1.718
94.52000 0.821
94.54000 3.001
94.56000 4.327
94.58000 3.293
94.60000 4.339
94.62000 2.127
94.64000 3.123
94.66000 2.928
94.68000 3.661
94.70000 -0.050
94.72000 -1.205
94.74000 3.178
94.76000 3.010
94.78000 3.605
94.80000 3.167
94.82000 4.947
94.84000 5.874
94.86000 3.663
94.88000 0.338
94.90000 0.388
94.92000 4.257
94.94000 4.531
94.96000 1.941
94.98000 6.663
95.00000 5.947
95.02000 0.918
95.04000 4.640
95.06000 9.843
95.08000 10.156
95.10000 9.623
95.12000 7.563
95.14000 6.051
95.16000 1.411
95.18000 1.045
95.20000 3.802
95.22000 7.883
95.24000 5.339
95.26000 -0.123
95.28000 -2.134
95.30000 6.246
95.32000 4.100
95.34000 3.953
95.36000 6.993
95.38000 6.016
95.40000 7.435
95.42000 3.877
95.44000 6.799
95.46000 6.046
95.48000 4.492
95.50000 1.418
95.52000 6.917
95.54000 6.618
95.56000 10.120
95.58000 4.830
95.60000 -2.130
95.62000 -1.383
95.64000 1.483
95.66000 6.328
95.68000 13.884
95.70000 15.012
95.72000 9.563
95.74000 8.066
95.76000 4.120
95.78000 2.220
95.80000 4.988
95.82000 9.373
95.84000 9.116
95.86000 7.927
95.88000 1.115
95.90000 3.481
95.92000 5.092
95.94000 5.773
95.96000 6.290
95.98000 4.576
96.00000 8.436
96.02000 11.884
96.04000 10.669
96.06000 9.187
96.08000 8.395
96.10000 10.123
96.12000 9.056
96.14000 2.804
96.16000 -0.376
96.18000 4.236
96.20000 8.413
96.22000 4.373
96.24000 2.108
96.26000 3.614
96.28000 0.555
96.30000 1.490
96.32000 4.751
96.34000 4.128
96.36000 2.786
96.38000 7.363
96.40000 8.437
96.42000 9.914
96.44000 14.865
96.46000 9.115
96.48000 -2.098
96.50000 0.294
96.52000 3.245
96.54000 8.127
96.56000 11.315
96.58000 8.419
96.60000 7.020
96.62000 6.822
96.64000 6.179
96.66000 7.193
96.68000 8.365
96.70000 5.926
96.72000 4.548
96.74000 4.039
96.76000 6.944
96.78000 5.602
96.80000 0.781
96.82000 0.943
96.84000 4.382
96.86000 0.552
96.88000 6.620
96.90000 8.949
96.92000 7.706
96.94000 5.659
96.96000 1.469
96.98000 3.825
97.00000 1.968
97.02000 5.784
97.04000 4.002
97.06000 10.418
97.08000 8.620
97.10000 6.674
97.12000 3.738
97.14000 9.434
97.16000 6.667
97.18000 5.393
97.20000 15.413
97.22000 8.891
97.24000 12.300
97.26000 9.644
97.28000 5.266
97.30000 12.054
97.32000 8.926
97.34000 1.258
97.36000 4.842
97.38000 5.824
97.40000 7.754
97.42000 7.001
97.44000 2.059
97.46000 -0.427
97.48000 -2.101
97.50000 4.585
97.52000 2.526
97.54000 3.128
97.56000 8.298
97.58000 10.484
97.60000 6.677
97.62000 7.236
97.64000 2.578
97.66000 -0.672
97.68000 0.473
97.70000 0.757
97.72000 4.009
97.74000 6.598
97.76000 7.581
97.78000 0.690
97.80000 2.932
97.82000 5.556
97.84000 9.360
97.86000 11.220
97.88000 8.382
97.90000 9.182
97.92000 8.940
97.94000 2.896
97.96000 8.203
97.98000 4.800
98.00000 -0.843
98.02000 2.133
98.04000 9.191
98.06000 8.873
98.08000 10.023
98.10000 4.642
98.12000 2.692
98.14000 6.917
98.16000 2.436
98.18000 7.096
98.20000 10.623
98.22000 6.782
98.24000 3.839
98.26000 7.244
98.28000 9.412
98.30000 5.468
98.32000 6.525
98.34000 6.582
98.36000 2.121
98.38000 4.166
98.40000 1.899
98.42000 6.428
98.44000 11.579
98.46000 13.556
98.48000 10.215
98.50000 14.481
98.52000 7.674
98.54000 4.265
98.56000 4.860
98.58000 8.365
98.60000 19.088
98.62000 9.024
98.64000 7.089
98.66000 10.025
98.68000 6.709
98.70000 6.657
98.72000 4.793
98.74000 3.853
98.76000 -1.636
98.78000 8.308
98.80000 8.030
98.82000 10.081
98.84000 9.246
98.86000 2.780
98.88000 3.380
98.90000 -2.101
98.92000 5.740
98.94000 11.386
98.96000 8.714
98.98000 6.907
99.00000 7.305
99.02000 4.340
99.04000 2.049
99.06000 -0.642
99.08000 0.916
99.10000 12.233
99.12000 7.725
99.14000 9.862
99.16000 9.943
99.18000 7.644
99.20000 6.872
99.22000 4.512
99.24000 5.096
99.26000 -0.510
99.28000 5.063
99.30000 6.022
99.32000 1.673
99.34000 0.169
99.36000 6.184
99.38000 8.439
99.40000 7.552
99.42000 13.919
99.44000 7.549
99.46000 3.098
99.48000 9.926
99.50000 9.290
99.52000 1.139
99.54000 -2.120
99.56000 -2.054
99.58000 2.621
99.60000 4.196
99.62000 6.649
99.64000 6.841
99.66000 14.007
99.68000 8.822
99.70000 5.587
99.72000 4.692
99.74000 7.633
99.76000 10.399
99.78000 5.713
99.80000 3.288
99.82000 14.713
99.84000 12.521
99.86000 10.426
99.88000 -2.932
99.90000 1.163
99.92000 -2.188
99.94000 -2.215
99.96000 4.922
99.98000 0.000
