'Id: "0011389" Comment: "Integrate frame 0011389_Au-Ir-Rh_Au-Rich_XRD_Mapping-043-0000.gfrmwith cursor Wedge Cursor #5" Operator: "B?rgel" Anode: "Cu" Wavelength: "1.5406" Scantype: "2Theta (TwoTheta)" TimePerStep: "1" X: "-18" Y: "-27" Z: "5.95" 
10.00000 0.000
10.02000 10.110
10.04000 -4.373
10.06000 -1.678
10.08000 -3.916
10.10000 18.543
10.12000 26.200
10.14000 17.709
10.16000 18.719
10.18000 10.513
10.20000 -0.529
10.22000 -4.360
10.24000 -1.812
10.26000 23.055
10.28000 25.197
10.30000 32.706
10.32000 14.796
10.34000 18.906
10.36000 10.247
10.38000 0.128
10.40000 5.599
10.42000 5.081
10.44000 8.123
10.46000 19.943
10.48000 25.172
10.50000 26.829
10.52000 21.131
10.54000 27.457
10.56000 27.139
10.58000 29.706
10.60000 27.829
10.62000 35.303
10.64000 32.274
10.66000 24.184
10.68000 18.173
10.70000 24.192
10.72000 24.521
10.74000 34.419
10.76000 34.624
10.78000 24.862
10.80000 20.104
10.82000 13.113
10.84000 4.011
10.86000 11.377
10.88000 21.401
10.90000 30.010
10.92000 28.860
10.94000 37.358
10.96000 22.164
10.98000 5.707
11.00000 -4.358
11.02000 4.041
11.04000 8.456
11.06000 8.350
11.08000 14.774
11.10000 11.281
11.12000 14.713
11.14000 13.020
11.16000 14.054
11.18000 11.117
11.20000 24.392
11.22000 25.957
11.24000 15.119
11.26000 19.823
11.28000 10.679
11.30000 32.432
11.32000 26.004
11.34000 24.075
11.36000 27.798
11.38000 18.272
11.40000 13.172
11.42000 18.721
11.44000 16.780
11.46000 16.713
11.48000 13.068
11.50000 14.822
11.52000 11.177
11.54000 16.144
11.56000 25.157
11.58000 18.270
11.60000 14.751
11.62000 15.734
11.64000 6.162
11.66000 8.916
11.68000 -0.314
11.70000 5.394
11.72000 12.321
11.74000 19.977
11.76000 8.296
11.78000 4.439
11.80000 8.874
11.82000 20.137
11.84000 11.055
11.86000 2.989
11.88000 11.979
11.90000 9.421
11.92000 4.684
11.94000 6.766
11.96000 7.315
11.98000 9.539
12.00000 14.652
12.02000 16.623
12.04000 15.049
12.06000 21.954
12.08000 19.248
12.10000 6.608
12.12000 13.501
12.14000 12.375
12.16000 10.496
12.18000 17.937
12.20000 14.163
12.22000 2.480
12.24000 8.170
12.26000 0.365
12.28000 5.730
12.30000 14.496
12.32000 15.412
12.34000 7.248
12.36000 -0.658
12.38000 14.095
12.40000 7.827
12.42000 7.855
12.44000 5.975
12.46000 20.476
12.48000 19.699
12.50000 14.506
12.52000 12.147
12.54000 18.765
12.56000 17.274
12.58000 11.384
12.60000 6.646
12.62000 2.568
12.64000 4.778
12.66000 7.105
12.68000 9.231
12.70000 11.330
12.72000 18.695
12.74000 17.218
12.76000 8.097
12.78000 9.406
12.80000 11.551
12.82000 6.441
12.84000 6.506
12.86000 17.002
12.88000 12.183
12.90000 8.967
12.92000 -0.592
12.94000 -4.352
12.96000 11.719
12.98000 19.874
13.00000 23.291
13.02000 23.596
13.04000 19.547
13.06000 19.534
13.08000 16.589
13.10000 15.234
13.12000 11.234
13.14000 15.879
13.16000 8.870
13.18000 5.076
13.20000 5.357
13.22000 15.070
13.24000 11.292
13.26000 10.568
13.28000 19.783
13.30000 18.744
13.32000 11.096
13.34000 9.111
13.36000 -0.137
13.38000 4.643
13.40000 8.693
13.42000 15.724
13.44000 10.194
13.46000 2.349
13.48000 0.841
13.50000 5.202
13.52000 7.813
13.54000 8.942
13.56000 6.349
13.58000 4.492
13.60000 3.508
13.62000 4.476
13.64000 7.735
13.66000 10.113
13.68000 15.817
13.70000 12.989
13.72000 6.865
13.74000 12.665
13.76000 13.430
13.78000 12.765
13.80000 10.257
13.82000 12.992
13.84000 16.994
13.86000 22.804
13.88000 19.772
13.90000 15.028
13.92000 11.286
13.94000 5.987
13.96000 5.054
13.98000 8.441
14.00000 11.480
14.02000 5.375
14.04000 9.736
14.06000 10.332
14.08000 0.580
14.10000 5.153
14.12000 24.736
14.14000 17.289
14.16000 11.229
14.18000 2.620
14.20000 6.437
14.22000 14.534
14.24000 18.703
14.26000 13.654
14.28000 11.649
14.30000 9.083
14.32000 9.924
14.34000 6.024
14.36000 5.592
14.38000 7.736
14.40000 11.846
14.42000 8.085
14.44000 1.599
14.46000 6.984
14.48000 15.944
14.50000 17.887
14.52000 14.931
14.54000 14.850
14.56000 13.445
14.58000 13.768
14.60000 10.529
14.62000 3.386
14.64000 4.711
14.66000 6.721
14.68000 8.619
14.70000 0.897
14.72000 1.882
14.74000 12.043
14.76000 9.603
14.78000 9.949
14.80000 22.100
14.82000 26.849
14.84000 19.565
14.86000 14.592
14.88000 11.313
14.90000 16.158
14.92000 14.990
14.94000 5.125
14.96000 7.244
14.98000 1.463
15.00000 1.088
15.02000 2.861
15.04000 -4.414
15.06000 3.803
15.08000 14.070
15.10000 8.075
15.12000 7.744
15.14000 6.760
15.16000 10.634
15.18000 14.372
15.20000 16.901
15.22000 21.426
15.24000 11.368
15.26000 3.725
15.28000 10.626
15.30000 11.759
15.32000 5.336
15.34000 -3.880
15.36000 5.136
15.38000 9.425
15.40000 4.930
15.42000 9.773
15.44000 15.549
15.46000 12.906
15.48000 14.838
15.50000 10.291
15.52000 6.969
15.54000 5.197
15.56000 15.448
15.58000 14.378
15.60000 8.576
15.62000 5.565
15.64000 11.714
15.66000 17.050
15.68000 10.416
15.70000 8.078
15.72000 6.827
15.74000 6.442
15.76000 5.646
15.78000 11.805
15.80000 14.019
15.82000 13.153
15.84000 19.706
15.86000 7.587
15.88000 7.119
15.90000 14.494
15.92000 1.950
15.94000 4.361
15.96000 11.479
15.98000 15.360
16.00000 12.295
16.02000 11.196
16.04000 12.794
16.06000 10.882
16.08000 15.040
16.10000 4.593
16.12000 10.912
16.14000 3.429
16.16000 11.142
16.18000 12.040
16.20000 19.323
16.22000 17.316
16.24000 13.949
16.26000 9.382
16.28000 5.331
16.30000 6.388
16.32000 12.285
16.34000 17.549
16.36000 12.884
16.38000 7.955
16.40000 -4.358
16.42000 1.242
16.44000 12.715
16.46000 12.267
16.48000 5.123
16.50000 9.264
16.52000 15.658
16.54000 18.469
16.56000 17.662
16.58000 11.294
16.60000 2.099
16.62000 2.552
16.64000 4.465
16.66000 5.703
16.68000 11.782
16.70000 3.183
16.72000 11.041
16.74000 7.960
16.76000 4.664
16.78000 9.840
16.80000 -1.671
16.82000 -1.918
16.84000 4.344
16.86000 15.806
16.88000 11.461
16.90000 8.753
16.92000 8.131
16.94000 5.152
16.96000 10.522
16.98000 7.898
17.00000 10.339
17.02000 8.194
17.04000 11.491
17.06000 5.010
17.08000 4.654
17.10000 8.796
17.12000 4.230
17.14000 2.799
17.16000 0.062
17.18000 -4.274
17.20000 7.803
17.22000 8.518
17.24000 7.025
17.26000 5.259
17.28000 5.013
17.30000 3.939
17.32000 3.138
17.34000 8.512
17.36000 9.432
17.38000 6.217
17.40000 7.003
17.42000 12.347
17.44000 9.178
17.46000 8.195
17.48000 6.468
17.50000 8.115
17.52000 8.501
17.54000 2.141
17.56000 -0.648
17.58000 5.525
17.60000 7.335
17.62000 -1.313
17.64000 -0.562
17.66000 12.366
17.68000 6.798
17.70000 5.305
17.72000 5.946
17.74000 2.110
17.76000 8.590
17.78000 14.040
17.80000 5.651
17.82000 -2.719
17.84000 1.691
17.86000 9.222
17.88000 7.021
17.90000 -0.868
17.92000 5.972
17.94000 4.387
17.96000 -0.927
17.98000 0.638
18.00000 5.599
18.02000 9.099
18.04000 4.441
18.06000 3.186
18.08000 0.058
18.10000 1.646
18.12000 5.193
18.14000 -2.138
18.16000 -4.303
18.18000 3.498
18.20000 5.196
18.22000 5.822
18.24000 5.866
18.26000 6.590
18.28000 7.493
18.30000 6.984
18.32000 5.442
18.34000 12.460
18.36000 1.906
18.38000 2.131
18.40000 5.612
18.42000 7.319
18.44000 0.009
18.46000 -2.985
18.48000 -1.315
18.50000 4.760
18.52000 5.097
18.54000 5.628
18.56000 1.212
18.58000 -0.896
18.60000 8.152
18.62000 12.036
18.64000 3.286
18.66000 5.112
18.68000 11.160
18.70000 13.011
18.72000 8.519
18.74000 4.836
18.76000 1.485
18.78000 6.499
18.80000 8.426
18.82000 6.960
18.84000 1.283
18.86000 -0.963
18.88000 3.747
18.90000 -0.865
18.92000 -3.159
18.94000 -0.444
18.96000 -1.734
18.98000 -0.673
19.00000 2.417
19.02000 -0.393
19.04000 -2.365
19.06000 3.649
19.08000 5.765
19.10000 4.124
19.12000 2.583
19.14000 -1.186
19.16000 2.709
19.18000 1.841
19.20000 4.704
19.22000 10.770
19.24000 9.971
19.26000 6.340
19.28000 7.447
19.30000 4.241
19.32000 -3.601
19.34000 4.239
19.36000 6.462
19.38000 7.981
19.40000 6.719
19.42000 8.263
19.44000 2.044
19.46000 -0.493
19.48000 -0.534
19.50000 1.753
19.52000 0.420
19.54000 3.081
19.56000 0.716
19.58000 0.244
19.60000 -4.207
19.62000 5.829
19.64000 9.456
19.66000 4.559
19.68000 3.009
19.70000 3.323
19.72000 6.864
19.74000 4.994
19.76000 3.270
19.78000 9.604
19.80000 12.457
19.82000 13.147
19.84000 12.337
19.86000 10.143
19.88000 -0.937
19.90000 -1.230
19.92000 5.896
19.94000 8.337
19.96000 5.936
19.98000 11.616
20.00000 8.514
20.02000 4.175
20.04000 1.126
20.06000 1.858
20.08000 -0.617
20.10000 2.126
20.12000 4.197
20.14000 6.057
20.16000 6.247
20.18000 6.215
20.20000 6.259
20.22000 11.093
20.24000 7.994
20.26000 0.203
20.28000 2.363
20.30000 5.075
20.32000 0.366
20.34000 2.803
20.36000 4.019
20.38000 -0.187
20.40000 -3.053
20.42000 6.225
20.44000 9.279
20.46000 6.470
20.48000 8.679
20.50000 0.863
20.52000 1.078
20.54000 -0.648
20.56000 4.426
20.58000 4.413
20.60000 6.101
20.62000 5.916
20.64000 6.178
20.66000 9.679
20.68000 2.953
20.70000 0.216
20.72000 7.415
20.74000 5.511
20.76000 2.409
20.78000 -1.953
20.80000 0.424
20.82000 2.264
20.84000 7.393
20.86000 7.387
20.88000 5.692
20.90000 7.433
20.92000 4.915
20.94000 10.054
20.96000 11.520
20.98000 10.223
21.00000 9.346
21.02000 1.267
21.04000 0.341
21.06000 5.383
21.08000 7.402
21.10000 5.879
21.12000 4.790
21.14000 0.043
21.16000 5.731
21.18000 4.858
21.20000 7.183
21.22000 6.613
21.24000 5.489
21.26000 6.899
21.28000 11.349
21.30000 6.327
21.32000 -2.693
21.34000 -2.592
21.36000 -4.105
21.38000 -0.829
21.40000 6.606
21.42000 1.958
21.44000 -3.406
21.46000 2.201
21.48000 5.021
21.50000 6.948
21.52000 14.576
21.54000 10.724
21.56000 11.266
21.58000 7.787
21.60000 10.085
21.62000 8.985
21.64000 10.166
21.66000 9.900
21.68000 11.630
21.70000 5.259
21.72000 4.476
21.74000 11.433
21.76000 13.057
21.78000 8.484
21.80000 8.522
21.82000 4.657
21.84000 -2.832
21.86000 -1.240
21.88000 4.009
21.90000 6.482
21.92000 4.427
21.94000 3.246
21.96000 6.076
21.98000 6.559
22.00000 2.012
22.02000 5.399
22.04000 5.542
22.06000 1.580
22.08000 1.307
22.10000 1.620
22.12000 1.670
22.14000 -0.253
22.16000 2.491
22.18000 0.569
22.20000 5.347
22.22000 4.427
22.24000 3.109
22.26000 -1.557
22.28000 1.126
22.30000 3.785
22.32000 -0.082
22.34000 0.321
22.36000 0.083
22.38000 5.170
22.40000 10.549
22.42000 5.834
22.44000 -0.043
22.46000 -0.265
22.48000 -1.940
22.50000 1.030
22.52000 2.120
22.54000 0.957
22.56000 2.954
22.58000 0.492
22.60000 4.767
22.62000 1.208
22.64000 0.110
22.66000 2.601
22.68000 3.640
22.70000 4.967
22.72000 8.400
22.74000 8.188
22.76000 8.858
22.78000 3.322
22.80000 -4.040
22.82000 0.982
22.84000 6.731
22.86000 13.372
22.88000 9.282
22.90000 7.771
22.92000 6.446
22.94000 5.416
22.96000 6.169
22.98000 4.665
23.00000 5.699
23.02000 5.045
23.04000 -0.229
23.06000 -1.499
23.08000 -0.132
23.10000 5.825
23.12000 3.561
23.14000 -0.654
23.16000 6.489
23.18000 8.040
23.20000 2.091
23.22000 0.822
23.24000 -4.003
23.26000 -2.536
23.28000 8.121
23.30000 11.666
23.32000 7.742
23.34000 2.744
23.36000 3.033
23.38000 6.309
23.40000 5.890
23.42000 8.470
23.44000 3.160
23.46000 2.551
23.48000 7.864
23.50000 9.500
23.52000 1.656
23.54000 1.181
23.56000 5.974
23.58000 5.553
23.60000 -0.532
23.62000 0.151
23.64000 2.584
23.66000 2.556
23.68000 3.675
23.70000 -1.477
23.72000 -3.302
23.74000 0.955
23.76000 2.182
23.78000 2.753
23.80000 0.105
23.82000 0.149
23.84000 -3.978
23.86000 5.024
23.88000 1.983
23.90000 1.837
23.92000 -1.308
23.94000 2.904
23.96000 2.510
23.98000 2.653
24.00000 2.599
24.02000 1.399
24.04000 -2.005
24.06000 -1.521
24.08000 5.642
24.10000 2.762
24.12000 -2.551
24.14000 2.597
24.16000 6.555
24.18000 2.103
24.20000 2.697
24.22000 1.254
24.24000 -3.967
24.26000 0.487
24.28000 0.554
24.30000 -2.894
24.32000 1.068
24.34000 5.868
24.36000 4.488
24.38000 3.975
24.40000 2.037
24.42000 1.935
24.44000 4.074
24.46000 1.961
24.48000 1.020
24.50000 0.853
24.52000 -0.432
24.54000 2.732
24.56000 6.025
24.58000 3.599
24.60000 1.388
24.62000 -2.378
24.64000 -2.100
24.66000 2.267
24.68000 2.407
24.70000 5.586
24.72000 5.859
24.74000 -0.172
24.76000 5.983
24.78000 7.163
24.80000 -0.052
24.82000 1.206
24.84000 5.789
24.86000 2.572
24.88000 -0.174
24.90000 2.594
24.92000 0.927
24.94000 2.438
24.96000 3.362
24.98000 0.396
25.00000 4.325
25.02000 6.953
25.04000 8.043
25.06000 0.689
25.08000 3.364
25.10000 6.164
25.12000 -3.926
25.14000 3.232
25.16000 3.395
25.18000 -3.428
25.20000 -0.170
25.22000 -1.111
25.24000 -1.379
25.26000 1.656
25.28000 3.657
25.30000 4.914
25.32000 -1.955
25.34000 -0.338
25.36000 1.235
25.38000 3.118
25.40000 -2.400
25.42000 -1.466
25.44000 1.652
25.46000 1.325
25.48000 2.286
25.50000 6.229
25.52000 5.886
25.54000 4.001
25.56000 1.344
25.58000 1.530
25.60000 1.526
25.62000 -1.465
25.64000 4.071
25.66000 3.739
25.68000 4.619
25.70000 4.297
25.72000 4.825
25.74000 0.911
25.76000 -1.074
25.78000 0.433
25.80000 -0.352
25.82000 0.307
25.84000 2.147
25.86000 1.845
25.88000 -2.257
25.90000 4.336
25.92000 3.433
25.94000 1.756
25.96000 -0.143
25.98000 -1.538
26.00000 2.695
26.02000 3.768
26.04000 2.013
26.06000 -0.410
26.08000 0.986
26.10000 -2.761
26.12000 0.386
26.14000 1.592
26.16000 -3.877
26.18000 -1.968
26.20000 -0.536
26.22000 2.296
26.24000 0.604
26.26000 3.687
26.28000 3.966
26.30000 5.218
26.32000 5.191
26.34000 4.642
26.36000 6.354
26.38000 4.231
26.40000 7.544
26.42000 6.799
26.44000 5.289
26.46000 -2.485
26.48000 -3.496
26.50000 -0.537
26.52000 4.277
26.54000 -1.578
26.56000 1.318
26.58000 -1.943
26.60000 2.838
26.62000 4.506
26.64000 0.713
26.66000 -1.539
26.68000 4.915
26.70000 7.793
26.72000 6.284
26.74000 6.015
26.76000 3.238
26.78000 3.731
26.80000 10.553
26.82000 9.678
26.84000 8.175
26.86000 6.663
26.88000 -0.831
26.90000 -0.710
26.92000 -0.018
26.94000 0.053
26.96000 1.516
26.98000 7.141
27.00000 8.219
27.02000 2.877
27.04000 2.345
27.06000 4.646
27.08000 7.506
27.10000 7.506
27.12000 2.161
27.14000 5.187
27.16000 5.866
27.18000 5.553
27.20000 4.176
27.22000 5.682
27.24000 7.064
27.26000 6.237
27.28000 7.058
27.30000 6.602
27.32000 9.101
27.34000 8.880
27.36000 5.742
27.38000 -0.157
27.40000 3.264
27.42000 8.614
27.44000 6.776
27.46000 3.342
27.48000 1.388
27.50000 2.761
27.52000 2.872
27.54000 4.918
27.56000 4.377
27.58000 3.349
27.60000 4.931
27.62000 2.741
27.64000 -0.625
27.66000 -0.031
27.68000 -1.269
27.70000 -3.754
27.72000 -0.224
27.74000 1.690
27.76000 4.660
27.78000 9.251
27.80000 9.853
27.82000 3.202
27.84000 6.597
27.86000 8.968
27.88000 9.784
27.90000 5.964
27.92000 6.786
27.94000 8.261
27.96000 8.656
27.98000 5.445
28.00000 0.735
28.02000 1.397
28.04000 2.887
28.06000 4.053
28.08000 4.933
28.10000 2.573
28.12000 1.101
28.14000 4.172
28.16000 1.833
28.18000 4.667
28.20000 1.379
28.22000 -2.034
28.24000 6.082
28.26000 8.398
28.28000 2.839
28.30000 0.572
28.32000 -0.450
28.34000 -0.988
28.36000 2.219
28.38000 3.595
28.40000 2.258
28.42000 0.146
28.44000 2.950
28.46000 -0.045
28.48000 1.963
28.50000 1.024
28.52000 1.849
28.54000 2.486
28.56000 0.963
28.58000 0.665
28.60000 0.785
28.62000 1.328
28.64000 4.632
28.66000 5.021
28.68000 0.911
28.70000 -1.100
28.72000 -0.305
28.74000 6.876
28.76000 3.865
28.78000 4.727
28.80000 7.034
28.82000 7.638
28.84000 6.609
28.86000 6.729
28.88000 5.872
28.90000 6.830
28.92000 4.243
28.94000 2.289
28.96000 4.636
28.98000 7.727
29.00000 -3.584
29.02000 -2.498
29.04000 -1.148
29.06000 3.420
29.08000 5.911
29.10000 7.335
29.12000 5.297
29.14000 -0.111
29.16000 4.674
29.18000 9.287
29.20000 5.436
29.22000 2.645
29.24000 1.807
29.26000 2.628
29.28000 2.034
29.30000 3.082
29.32000 5.646
29.34000 4.786
29.36000 3.194
29.38000 -3.687
29.40000 1.302
29.42000 1.958
29.44000 1.873
29.46000 2.157
29.48000 5.827
29.50000 4.389
29.52000 1.817
29.54000 1.167
29.56000 3.516
29.58000 2.132
29.60000 4.238
29.62000 2.227
29.64000 3.037
29.66000 0.411
29.68000 0.659
29.70000 1.942
29.72000 -2.446
29.74000 -1.544
29.76000 2.282
29.78000 3.363
29.80000 7.911
29.82000 4.226
29.84000 3.224
29.86000 6.861
29.88000 6.599
29.90000 2.910
29.92000 1.791
29.94000 1.192
29.96000 1.975
29.98000 10.046
30.00000 10.240
30.02000 6.831
30.04000 6.148
30.06000 -0.026
30.08000 -2.967
30.10000 -2.408
30.12000 1.453
30.14000 -0.910
30.16000 -0.809
30.18000 3.100
30.20000 6.977
30.22000 7.539
30.24000 -0.381
30.26000 -0.565
30.28000 -2.097
30.30000 -3.656
30.32000 -1.048
30.34000 1.406
30.36000 5.298
30.38000 5.885
30.40000 2.450
30.42000 1.547
30.44000 2.219
30.46000 -0.832
30.48000 -3.649
30.50000 -1.296
30.52000 6.236
30.54000 6.562
30.56000 4.973
30.58000 1.959
30.60000 1.715
30.62000 4.516
30.64000 6.451
30.66000 3.949
30.68000 2.976
30.70000 0.478
30.72000 -2.788
30.74000 -0.779
30.76000 1.571
30.78000 0.540
30.80000 -3.645
30.82000 -3.573
30.84000 1.453
30.86000 4.383
30.88000 1.997
30.90000 -0.910
30.92000 1.612
30.94000 1.686
30.96000 6.291
30.98000 7.733
31.00000 3.914
31.02000 4.193
31.04000 5.418
31.06000 3.274
31.08000 -0.207
31.10000 -0.174
31.12000 2.693
31.14000 2.876
31.16000 2.021
31.18000 1.055
31.20000 0.652
31.22000 5.332
31.24000 3.002
31.26000 2.563
31.28000 0.801
31.30000 -2.674
31.32000 1.064
31.34000 5.274
31.36000 4.189
31.38000 4.428
31.40000 3.540
31.42000 2.004
31.44000 1.303
31.46000 -1.076
31.48000 6.901
31.50000 2.875
31.52000 1.855
31.54000 1.121
31.56000 2.177
31.58000 0.827
31.60000 1.441
31.62000 3.421
31.64000 5.489
31.66000 2.853
31.68000 0.959
31.70000 -0.843
31.72000 -0.877
31.74000 0.115
31.76000 4.417
31.78000 3.261
31.80000 4.571
31.82000 4.166
31.84000 6.390
31.86000 2.293
31.88000 2.665
31.90000 2.935
31.92000 -1.717
31.94000 0.932
31.96000 6.207
31.98000 3.584
32.00000 1.472
32.02000 1.544
32.04000 3.095
32.06000 2.848
32.08000 3.091
32.10000 4.575
32.12000 4.280
32.14000 3.626
32.16000 3.464
32.18000 0.245
32.20000 3.046
32.22000 -1.486
32.24000 -2.083
32.26000 0.415
32.28000 -2.643
32.30000 -1.916
32.32000 -0.399
32.34000 1.394
32.36000 -1.483
32.38000 -3.570
32.40000 -2.370
32.42000 1.903
32.44000 7.104
32.46000 3.585
32.48000 2.042
32.50000 -0.087
32.52000 -0.483
32.54000 3.479
32.56000 2.677
32.58000 -0.302
32.60000 -0.968
32.62000 6.862
32.64000 4.788
32.66000 2.211
32.68000 -0.109
32.70000 4.121
32.72000 3.568
32.74000 -1.649
32.76000 1.078
32.78000 -0.349
32.80000 1.917
32.82000 2.835
32.84000 -1.499
32.86000 2.431
32.88000 -1.012
32.90000 -3.510
32.92000 -3.570
32.94000 -0.874
32.96000 0.158
32.98000 -2.260
33.00000 1.805
33.02000 4.902
33.04000 3.535
33.06000 -1.397
33.08000 -0.962
33.10000 1.483
33.12000 3.193
33.14000 2.448
33.16000 5.892
33.18000 8.685
33.20000 5.997
33.22000 5.392
33.24000 6.877
33.26000 6.090
33.28000 2.404
33.30000 2.587
33.32000 5.118
33.34000 5.988
33.36000 4.032
33.38000 1.051
33.40000 3.351
33.42000 7.886
33.44000 6.832
33.46000 4.466
33.48000 6.720
33.50000 6.146
33.52000 4.318
33.54000 2.224
33.56000 7.840
33.58000 2.184
33.60000 5.460
33.62000 5.424
33.64000 1.863
33.66000 2.486
33.68000 2.842
33.70000 5.949
33.72000 -1.286
33.74000 2.027
33.76000 0.784
33.78000 4.614
33.80000 2.496
33.82000 -2.476
33.84000 -3.564
33.86000 -2.864
33.88000 -0.789
33.90000 -1.246
33.92000 -0.764
33.94000 1.980
33.96000 7.801
33.98000 -0.848
34.00000 0.218
34.02000 6.465
34.04000 4.213
34.06000 2.600
34.08000 1.111
34.10000 0.695
34.12000 6.556
34.14000 5.341
34.16000 6.358
34.18000 11.480
34.20000 9.727
34.22000 1.641
34.24000 -1.895
34.26000 -0.611
34.28000 3.195
34.30000 -1.634
34.32000 -2.244
34.34000 1.410
34.36000 1.452
34.38000 2.891
34.40000 6.237
34.42000 -1.097
34.44000 -1.105
34.46000 1.324
34.48000 2.944
34.50000 4.256
34.52000 2.405
34.54000 2.855
34.56000 2.428
34.58000 0.501
34.60000 -0.851
34.62000 5.386
34.64000 5.567
34.66000 0.828
34.68000 -0.941
34.70000 5.337
34.72000 -1.008
34.74000 -2.375
34.76000 -2.486
34.78000 -0.140
34.80000 -0.795
34.82000 5.424
34.84000 4.448
34.86000 1.963
34.88000 2.766
34.90000 0.926
34.92000 1.728
34.94000 2.506
34.96000 2.191
34.98000 0.827
35.00000 0.500
35.02000 2.677
35.04000 6.586
35.06000 4.131
35.08000 2.194
35.10000 2.657
35.12000 2.232
35.14000 -3.194
35.16000 1.189
35.18000 -2.855
35.20000 -1.305
35.22000 3.859
35.24000 1.712
35.26000 -1.100
35.28000 -0.613
35.30000 3.414
35.32000 2.289
35.34000 -2.518
35.36000 1.036
35.38000 3.349
35.40000 3.932
35.42000 4.719
35.44000 5.215
35.46000 4.644
35.48000 -3.519
35.50000 -1.234
35.52000 -1.165
35.54000 -0.064
35.56000 2.390
35.58000 3.189
35.60000 5.391
35.62000 2.609
35.64000 1.027
35.66000 2.764
35.68000 6.843
35.70000 3.383
35.72000 1.136
35.74000 4.405
35.76000 1.354
35.78000 2.882
35.80000 6.297
35.82000 4.798
35.84000 1.888
35.86000 -0.844
35.88000 -3.303
35.90000 -1.322
35.92000 0.219
35.94000 2.716
35.96000 5.967
35.98000 7.526
36.00000 5.625
36.02000 6.626
36.04000 3.379
36.06000 1.936
36.08000 5.696
36.10000 4.023
36.12000 2.981
36.14000 0.947
36.16000 3.499
36.18000 2.921
36.20000 -2.082
36.22000 -2.683
36.24000 1.127
36.26000 -1.378
36.28000 -3.561
36.30000 -0.268
36.32000 8.387
36.34000 6.563
36.36000 6.756
36.38000 3.584
36.40000 3.412
36.42000 1.082
36.44000 0.990
36.46000 1.839
36.48000 0.358
36.50000 -0.238
36.52000 -3.336
36.54000 -0.532
36.56000 1.561
36.58000 8.036
36.60000 4.329
36.62000 4.472
36.64000 3.086
36.66000 -0.766
36.68000 -2.665
36.70000 3.746
36.72000 3.806
36.74000 -3.113
36.76000 -3.020
36.78000 -3.605
36.80000 6.168
36.82000 1.354
36.84000 4.819
36.86000 4.622
36.88000 3.862
36.90000 2.207
36.92000 -1.199
36.94000 -0.468
36.96000 1.194
36.98000 -1.104
37.00000 -0.375
37.02000 2.488
37.04000 8.127
37.06000 -1.068
37.08000 -2.942
37.10000 3.407
37.12000 -1.710
37.14000 1.291
37.16000 2.109
37.18000 3.775
37.20000 6.728
37.22000 4.721
37.24000 0.003
37.26000 2.893
37.28000 4.128
37.30000 4.143
37.32000 4.523
37.34000 6.530
37.36000 7.252
37.38000 5.790
37.40000 5.239
37.42000 7.561
37.44000 10.501
37.46000 10.380
37.48000 8.236
37.50000 4.233
37.52000 5.052
37.54000 8.076
37.56000 6.483
37.58000 3.559
37.60000 6.571
37.62000 9.056
37.64000 9.079
37.66000 4.957
37.68000 3.094
37.70000 9.992
37.72000 11.510
37.74000 10.595
37.76000 12.451
37.78000 17.776
37.80000 17.992
37.82000 14.111
37.84000 14.271
37.86000 18.099
37.88000 13.663
37.90000 10.256
37.92000 14.520
37.94000 14.311
37.96000 12.622
37.98000 13.726
38.00000 13.365
38.02000 11.544
38.04000 11.569
38.06000 14.734
38.08000 16.371
38.10000 24.883
38.12000 24.546
38.14000 27.410
38.16000 32.528
38.18000 26.458
38.20000 30.356
38.22000 30.768
38.24000 30.343
38.26000 29.240
38.28000 27.559
38.30000 30.050
38.32000 27.756
38.34000 32.097
38.36000 41.791
38.38000 39.235
38.40000 37.857
38.42000 40.050
38.44000 40.188
38.46000 43.198
38.48000 47.078
38.50000 50.269
38.52000 50.235
38.54000 50.760
38.56000 47.283
38.58000 51.939
38.60000 57.671
38.62000 55.004
38.64000 60.070
38.66000 62.027
38.68000 66.122
38.70000 73.116
38.72000 76.695
38.74000 76.547
38.76000 77.504
38.78000 81.275
38.80000 86.360
38.82000 90.388
38.84000 104.342
38.86000 106.493
38.88000 104.731
38.90000 111.300
38.92000 113.340
38.94000 119.311
38.96000 126.467
38.98000 137.777
39.00000 136.784
39.02000 140.030
39.04000 149.827
39.06000 170.830
39.08000 178.465
39.10000 185.731
39.12000 201.047
39.14000 212.068
39.16000 221.740
39.18000 234.185
39.20000 258.886
39.22000 268.253
39.24000 281.468
39.26000 298.988
39.28000 321.045
39.30000 336.088
39.32000 357.025
39.34000 387.257
39.36000 403.048
39.38000 424.078
39.40000 448.901
39.42000 477.519
39.44000 503.986
39.46000 524.765
39.48000 550.394
39.50000 579.194
39.52000 604.443
39.54000 629.256
39.56000 641.099
39.58000 665.940
39.60000 687.313
39.62000 699.960
39.64000 709.288
39.66000 724.346
39.68000 730.969
39.70000 740.801
39.72000 748.288
39.74000 756.030
39.76000 753.971
39.78000 745.525
39.80000 732.643
39.82000 729.120
39.84000 722.532
39.86000 708.389
39.88000 687.286
39.90000 676.292
39.92000 658.750
39.94000 635.506
39.96000 605.496
39.98000 589.698
40.00000 564.898
40.02000 531.548
40.04000 508.629
40.06000 487.235
40.08000 457.967
40.10000 439.137
40.12000 409.186
40.14000 379.997
40.16000 368.913
40.18000 338.733
40.20000 320.271
40.22000 305.469
40.24000 280.595
40.26000 271.794
40.28000 256.155
40.30000 230.846
40.32000 210.217
40.34000 204.998
40.36000 197.206
40.38000 178.448
40.40000 167.786
40.42000 151.920
40.44000 143.699
40.46000 132.750
40.48000 132.645
40.50000 124.252
40.52000 109.351
40.54000 101.402
40.56000 98.337
40.58000 96.332
40.60000 91.505
40.62000 89.076
40.64000 76.524
40.66000 70.572
40.68000 66.749
40.70000 64.870
40.72000 63.331
40.74000 58.262
40.76000 53.673
40.78000 58.003
40.80000 53.123
40.82000 45.645
40.84000 41.573
40.86000 39.026
40.88000 35.330
40.90000 33.726
40.92000 33.708
40.94000 38.339
40.96000 37.141
40.98000 30.674
41.00000 27.159
41.02000 26.462
41.04000 31.039
41.06000 29.895
41.08000 25.202
41.10000 21.352
41.12000 17.987
41.14000 13.012
41.16000 16.472
41.18000 22.663
41.20000 21.740
41.22000 19.236
41.24000 12.867
41.26000 12.399
41.28000 13.761
41.30000 11.452
41.32000 11.819
41.34000 11.472
41.36000 9.769
41.38000 11.589
41.40000 9.521
41.42000 8.044
41.44000 8.706
41.46000 11.764
41.48000 12.218
41.50000 10.919
41.52000 7.076
41.54000 9.397
41.56000 6.388
41.58000 4.762
41.60000 5.445
41.62000 5.695
41.64000 3.364
41.66000 0.766
41.68000 4.426
41.70000 8.241
41.72000 5.146
41.74000 4.638
41.76000 3.326
41.78000 3.630
41.80000 2.120
41.82000 3.629
41.84000 5.990
41.86000 3.190
41.88000 -1.756
41.90000 -0.305
41.92000 0.444
41.94000 -1.798
41.96000 -3.449
41.98000 1.083
42.00000 4.174
42.02000 1.858
42.04000 0.590
42.06000 0.458
42.08000 0.760
42.10000 0.955
42.12000 -0.684
42.14000 -1.517
42.16000 -0.278
42.18000 2.206
42.20000 2.181
42.22000 4.001
42.24000 1.808
42.26000 -0.303
42.28000 0.610
42.30000 -3.391
42.32000 -2.340
42.34000 2.409
42.36000 4.632
42.38000 -1.277
42.40000 -2.003
42.42000 0.576
42.44000 0.406
42.46000 -0.051
42.48000 0.295
42.50000 1.540
42.52000 -0.832
42.54000 -0.960
42.56000 -0.715
42.58000 -2.195
42.60000 -2.655
42.62000 -3.336
42.64000 -1.808
42.66000 -0.225
42.68000 4.339
42.70000 5.599
42.72000 3.107
42.74000 1.666
42.76000 -0.145
42.78000 -3.173
42.80000 1.109
42.82000 -1.421
42.84000 -1.150
42.86000 -1.728
42.88000 -0.587
42.90000 0.384
42.92000 5.790
42.94000 -0.593
42.96000 -1.953
42.98000 0.846
43.00000 -0.031
43.02000 -0.398
43.04000 3.174
43.06000 1.482
43.08000 1.644
43.10000 1.283
43.12000 3.368
43.14000 2.146
43.16000 3.351
43.18000 3.864
43.20000 2.164
43.22000 1.655
43.24000 0.238
43.26000 0.108
43.28000 1.371
43.30000 -0.256
43.32000 -3.236
43.34000 -0.986
43.36000 0.050
43.38000 0.401
43.40000 3.973
43.42000 -0.073
43.44000 0.195
43.46000 0.936
43.48000 1.738
43.50000 2.170
43.52000 2.671
43.54000 3.617
43.56000 1.902
43.58000 1.165
43.60000 -1.948
43.62000 -0.197
43.64000 1.172
43.66000 -0.116
43.68000 0.750
43.70000 -0.032
43.72000 0.476
43.74000 -0.921
43.76000 1.572
43.78000 1.367
43.80000 2.641
43.82000 4.464
43.84000 -0.128
43.86000 -1.438
43.88000 1.583
43.90000 -0.382
43.92000 -1.982
43.94000 -3.185
43.96000 -1.528
43.98000 -0.895
44.00000 1.121
44.02000 4.645
44.04000 5.155
44.06000 -0.011
44.08000 1.931
44.10000 2.155
44.12000 -3.176
44.14000 -2.770
44.16000 2.219
44.18000 0.178
44.20000 -1.228
44.22000 2.918
44.24000 6.764
44.26000 4.537
44.28000 2.136
44.30000 2.282
44.32000 -1.780
44.34000 -1.649
44.36000 0.911
44.38000 0.340
44.40000 0.537
44.42000 1.909
44.44000 2.509
44.46000 2.420
44.48000 -1.520
44.50000 -2.065
44.52000 -2.291
44.54000 0.102
44.56000 2.278
44.58000 0.264
44.60000 -0.173
44.62000 2.165
44.64000 2.311
44.66000 -1.346
44.68000 -2.038
44.70000 1.040
44.72000 2.751
44.74000 4.290
44.76000 0.689
44.78000 3.325
44.80000 3.815
44.82000 -1.125
44.84000 -1.517
44.86000 -1.452
44.88000 0.064
44.90000 0.271
44.92000 2.802
44.94000 1.970
44.96000 1.154
44.98000 4.677
45.00000 5.727
45.02000 5.363
45.04000 2.080
45.06000 4.336
45.08000 9.871
45.10000 7.129
45.12000 3.433
45.14000 6.220
45.16000 5.018
45.18000 9.032
45.20000 11.341
45.22000 7.402
45.24000 7.484
45.26000 9.519
45.28000 9.983
45.30000 10.371
45.32000 6.436
45.34000 8.220
45.36000 7.663
45.38000 8.865
45.40000 13.413
45.42000 12.917
45.44000 14.264
45.46000 13.065
45.48000 14.806
45.50000 17.520
45.52000 15.744
45.54000 13.272
45.56000 16.084
45.58000 19.809
45.60000 22.628
45.62000 18.336
45.64000 14.572
45.66000 17.244
45.68000 20.515
45.70000 22.895
45.72000 21.755
45.74000 27.597
45.76000 30.663
45.78000 31.882
45.80000 33.130
45.82000 36.861
45.84000 35.613
45.86000 38.863
45.88000 36.724
45.90000 36.871
45.92000 39.257
45.94000 42.330
45.96000 43.033
45.98000 44.026
46.00000 48.452
46.02000 51.823
46.04000 48.188
46.06000 51.219
46.08000 53.835
46.10000 60.181
46.12000 61.721
46.14000 59.131
46.16000 57.879
46.18000 66.731
46.20000 73.046
46.22000 65.518
46.24000 68.986
46.26000 68.891
46.28000 71.336
46.30000 70.363
46.32000 69.206
46.34000 74.315
46.36000 75.143
46.38000 71.778
46.40000 75.665
46.42000 79.136
46.44000 77.117
46.46000 76.581
46.48000 74.579
46.50000 73.346
46.52000 72.932
46.54000 76.634
46.56000 72.567
46.58000 71.782
46.60000 74.388
46.62000 73.952
46.64000 71.981
46.66000 69.791
46.68000 65.752
46.70000 62.808
46.72000 62.298
46.74000 58.321
46.76000 56.452
46.78000 58.426
46.80000 56.166
46.82000 51.662
46.84000 45.619
46.86000 43.139
46.88000 43.988
46.90000 42.678
46.92000 44.451
46.94000 40.988
46.96000 35.465
46.98000 33.167
47.00000 33.097
47.02000 31.659
47.04000 31.046
47.06000 32.274
47.08000 26.896
47.10000 24.415
47.12000 22.935
47.14000 20.118
47.16000 17.331
47.18000 16.880
47.20000 19.710
47.22000 19.496
47.24000 16.313
47.26000 14.615
47.28000 11.499
47.30000 9.569
47.32000 9.981
47.34000 10.125
47.36000 7.982
47.38000 10.363
47.40000 10.972
47.42000 6.785
47.44000 4.593
47.46000 3.734
47.48000 4.165
47.50000 2.845
47.52000 1.216
47.54000 5.109
47.56000 7.699
47.58000 9.028
47.60000 5.527
47.62000 4.901
47.64000 8.769
47.66000 7.063
47.68000 3.748
47.70000 -1.907
47.72000 6.431
47.74000 7.209
47.76000 4.213
47.78000 0.364
47.80000 -0.735
47.82000 -1.644
47.84000 0.069
47.86000 2.084
47.88000 4.946
47.90000 5.925
47.92000 3.361
47.94000 3.126
47.96000 3.603
47.98000 4.427
48.00000 4.649
48.02000 1.564
48.04000 -0.611
48.06000 -2.768
48.08000 2.859
48.10000 3.569
48.12000 4.069
48.14000 0.947
48.16000 1.369
48.18000 -0.685
48.20000 -2.455
48.22000 -2.705
48.24000 3.947
48.26000 2.929
48.28000 2.201
48.30000 2.438
48.32000 3.248
48.34000 3.588
48.36000 3.815
48.38000 3.488
48.40000 1.840
48.42000 -0.868
48.44000 0.101
48.46000 4.085
48.48000 -1.974
48.50000 1.479
48.52000 3.369
48.54000 0.739
48.56000 2.183
48.58000 3.745
48.60000 1.616
48.62000 -1.235
48.64000 -0.864
48.66000 -2.704
48.68000 0.173
48.70000 2.552
48.72000 4.902
48.74000 5.204
48.76000 2.697
48.78000 1.962
48.80000 1.634
48.82000 -1.868
48.84000 2.001
48.86000 2.219
48.88000 4.410
48.90000 3.167
48.92000 1.088
48.94000 4.543
48.96000 3.395
48.98000 5.392
49.00000 2.363
49.02000 0.799
49.04000 2.357
49.06000 2.877
49.08000 1.718
49.10000 4.233
49.12000 3.357
49.14000 4.740
49.16000 -0.467
49.18000 -2.669
49.20000 -0.534
49.22000 -2.464
49.24000 -1.712
49.26000 -0.189
49.28000 2.581
49.30000 6.785
49.32000 1.935
49.34000 -0.387
49.36000 -1.078
49.38000 3.439
49.40000 4.926
49.42000 1.261
49.44000 0.460
49.46000 2.937
49.48000 1.433
49.50000 0.002
49.52000 1.576
49.54000 3.191
49.56000 -0.670
49.58000 -2.003
49.60000 3.118
49.62000 5.058
49.64000 2.232
49.66000 -0.849
49.68000 -2.645
49.70000 1.576
49.72000 5.997
49.74000 0.229
49.76000 -0.993
49.78000 3.944
49.80000 6.507
49.82000 -0.464
49.84000 -2.434
49.86000 0.318
49.88000 2.037
49.90000 1.114
49.92000 -0.787
49.94000 -1.242
49.96000 -1.112
49.98000 -0.468
50.00000 1.418
50.02000 -0.476
50.04000 -0.651
50.06000 -0.069
50.08000 0.280
50.10000 4.500
50.12000 1.903
50.14000 0.020
50.16000 -2.627
50.18000 -0.138
50.20000 1.420
50.22000 3.325
50.24000 6.130
50.26000 1.025
50.28000 -0.255
50.30000 1.690
50.32000 -1.545
50.34000 -0.454
50.36000 2.004
50.38000 3.190
50.40000 -1.696
50.42000 2.697
50.44000 -1.042
50.46000 -1.451
50.48000 2.269
50.50000 3.464
50.52000 3.607
50.54000 1.260
50.56000 1.426
50.58000 5.717
50.60000 1.938
50.62000 -0.343
50.64000 -0.418
50.66000 -2.596
50.68000 -0.980
50.70000 1.323
50.72000 -0.750
50.74000 -2.292
50.76000 -0.536
50.78000 3.436
50.80000 4.481
50.82000 4.135
50.84000 2.735
50.86000 -1.298
50.88000 4.548
50.90000 6.468
50.92000 4.665
50.94000 0.979
50.96000 -0.545
50.98000 -1.346
51.00000 2.743
51.02000 4.846
51.04000 1.995
51.06000 -1.813
51.08000 1.220
51.10000 1.769
51.12000 2.699
51.14000 5.686
51.16000 2.291
51.18000 1.656
51.20000 -1.002
51.22000 -2.580
51.24000 -0.085
51.26000 2.534
51.28000 0.021
51.30000 0.235
51.32000 -0.465
51.34000 0.125
51.36000 -2.159
51.38000 -0.982
51.40000 1.071
51.42000 6.704
51.44000 9.429
51.46000 4.428
51.48000 2.969
51.50000 -0.113
51.52000 -0.245
51.54000 1.179
51.56000 0.729
51.58000 0.974
51.60000 3.494
51.62000 4.581
51.64000 5.241
51.66000 2.468
51.68000 3.214
51.70000 1.585
51.72000 -1.871
51.74000 0.454
51.76000 6.122
51.78000 3.341
51.80000 1.723
51.82000 2.596
51.84000 2.302
51.86000 -2.063
51.88000 0.938
51.90000 5.292
51.92000 4.526
51.94000 0.728
51.96000 1.268
51.98000 1.312
52.00000 6.964
52.02000 2.823
52.04000 2.744
52.06000 0.216
52.08000 -2.513
52.10000 0.973
52.12000 2.618
52.14000 2.173
52.16000 6.163
52.18000 6.419
52.20000 4.171
52.22000 1.519
52.24000 0.067
52.26000 3.598
52.28000 5.547
52.30000 3.655
52.32000 2.229
52.34000 2.245
52.36000 -0.535
52.38000 0.693
52.40000 -0.410
52.42000 1.424
52.44000 1.884
52.46000 4.892
52.48000 3.174
52.50000 3.517
52.52000 2.553
52.54000 4.071
52.56000 2.395
52.58000 2.719
52.60000 1.371
52.62000 3.255
52.64000 2.503
52.66000 5.515
52.68000 0.482
52.70000 2.810
52.72000 0.767
52.74000 -0.557
52.76000 0.250
52.78000 0.660
52.80000 2.310
52.82000 5.111
52.84000 3.763
52.86000 0.732
52.88000 3.442
52.90000 0.107
52.92000 -2.515
52.94000 -0.281
52.96000 0.588
52.98000 -0.226
53.00000 -1.777
53.02000 0.806
53.04000 -2.301
53.06000 -2.515
53.08000 -0.567
53.10000 -1.111
53.12000 1.648
53.14000 1.927
53.16000 4.206
53.18000 2.987
53.20000 2.462
53.22000 0.399
53.24000 1.198
53.26000 3.994
53.28000 1.762
53.30000 1.946
53.32000 2.529
53.34000 1.706
53.36000 2.245
53.38000 -0.178
53.40000 -2.268
53.42000 -1.146
53.44000 -0.378
53.46000 0.386
53.48000 1.877
53.50000 4.895
53.52000 4.146
53.54000 -0.783
53.56000 3.229
53.58000 0.418
53.60000 1.010
53.62000 1.369
53.64000 0.294
53.66000 4.063
53.68000 0.149
53.70000 1.806
53.72000 0.357
53.74000 0.443
53.76000 6.270
53.78000 3.818
53.80000 3.474
53.82000 0.704
53.84000 2.577
53.86000 2.113
53.88000 1.450
53.90000 1.468
53.92000 -0.664
53.94000 -1.355
53.96000 1.071
53.98000 0.267
54.00000 1.060
54.02000 3.427
54.04000 1.936
54.06000 0.196
54.08000 -0.035
54.10000 -0.507
54.12000 0.378
54.14000 -0.851
54.16000 1.473
54.18000 1.241
54.20000 0.056
54.22000 1.674
54.24000 3.316
54.26000 4.536
54.28000 4.696
54.30000 6.029
54.32000 2.503
54.34000 1.890
54.36000 1.497
54.38000 -0.184
54.40000 0.679
54.42000 0.243
54.44000 0.605
54.46000 -2.451
54.48000 0.063
54.50000 1.819
54.52000 3.201
54.54000 5.832
54.56000 7.737
54.58000 2.562
54.60000 6.220
54.62000 5.212
54.64000 5.151
54.66000 0.755
54.68000 2.625
54.70000 3.061
54.72000 1.789
54.74000 -2.430
54.76000 -1.581
54.78000 3.326
54.80000 4.209
54.82000 0.221
54.84000 3.206
54.86000 2.301
54.88000 0.339
54.90000 2.481
54.92000 3.878
54.94000 0.731
54.96000 -1.937
54.98000 3.862
55.00000 4.561
55.02000 3.909
55.04000 1.802
55.06000 2.497
55.08000 0.918
55.10000 1.918
55.12000 1.422
55.14000 4.167
55.16000 2.447
55.18000 4.440
55.20000 4.667
55.22000 2.416
55.24000 5.149
55.26000 6.125
55.28000 6.069
55.30000 5.358
55.32000 1.684
55.34000 3.756
55.36000 3.378
55.38000 5.703
55.40000 3.090
55.42000 -0.456
55.44000 3.318
55.46000 7.889
55.48000 4.976
55.50000 3.011
55.52000 1.423
55.54000 -2.396
55.56000 1.696
55.58000 7.014
55.60000 6.129
55.62000 6.547
55.64000 6.617
55.66000 3.743
55.68000 5.284
55.70000 6.531
55.72000 6.576
55.74000 6.979
55.76000 7.381
55.78000 7.625
55.80000 6.330
55.82000 1.895
55.84000 1.388
55.86000 1.832
55.88000 -0.776
55.90000 2.917
55.92000 4.498
55.94000 1.668
55.96000 -2.391
55.98000 -1.375
56.00000 0.030
56.02000 2.296
56.04000 3.029
56.06000 5.694
56.08000 3.291
56.10000 6.346
56.12000 6.102
56.14000 2.986
56.16000 4.417
56.18000 0.697
56.20000 -2.393
56.22000 1.350
56.24000 3.637
56.26000 4.416
56.28000 3.970
56.30000 2.363
56.32000 3.430
56.34000 3.715
56.36000 2.928
56.38000 2.742
56.40000 5.558
56.42000 4.767
56.44000 1.880
56.46000 2.023
56.48000 2.558
56.50000 4.918
56.52000 2.121
56.54000 1.544
56.56000 3.722
56.58000 3.459
56.60000 2.944
56.62000 2.046
56.64000 1.855
56.66000 4.369
56.68000 4.246
56.70000 -0.904
56.72000 0.292
56.74000 3.177
56.76000 3.181
56.78000 1.001
56.80000 1.638
56.82000 -0.753
56.84000 2.688
56.86000 3.244
56.88000 4.200
56.90000 4.242
56.92000 1.533
56.94000 3.123
56.96000 2.482
56.98000 -2.021
57.00000 -0.105
57.02000 3.211
57.04000 1.392
57.06000 2.908
57.08000 3.543
57.10000 6.869
57.12000 4.291
57.14000 -1.740
57.16000 -0.765
57.18000 0.679
57.20000 1.782
57.22000 1.951
57.24000 0.634
57.26000 2.285
57.28000 2.725
57.30000 0.507
57.32000 2.764
57.34000 1.423
57.36000 -0.570
57.38000 0.560
57.40000 3.223
57.42000 2.763
57.44000 1.876
57.46000 -1.969
57.48000 3.308
57.50000 5.077
57.52000 4.312
57.54000 3.995
57.56000 5.028
57.58000 6.258
57.60000 4.673
57.62000 0.911
57.64000 2.978
57.66000 4.786
57.68000 3.691
57.70000 1.392
57.72000 3.868
57.74000 4.767
57.76000 3.470
57.78000 1.941
57.80000 -2.362
57.82000 -1.601
57.84000 2.118
57.86000 0.467
57.88000 1.362
57.90000 2.803
57.92000 2.547
57.94000 1.670
57.96000 0.922
57.98000 1.020
58.00000 0.159
58.02000 2.076
58.04000 1.544
58.06000 3.335
58.08000 0.895
58.10000 -0.931
58.12000 1.760
58.14000 0.380
58.16000 1.470
58.18000 4.317
58.20000 2.262
58.22000 3.330
58.24000 1.109
58.26000 0.307
58.28000 1.788
58.30000 0.651
58.32000 1.413
58.34000 2.648
58.36000 2.053
58.38000 -1.169
58.40000 -2.334
58.42000 0.641
58.44000 1.873
58.46000 1.829
58.48000 1.788
58.50000 1.685
58.52000 2.933
58.54000 2.711
58.56000 1.237
58.58000 6.365
58.60000 5.027
58.62000 0.649
58.64000 -1.426
58.66000 -1.309
58.68000 -0.912
58.70000 -0.161
58.72000 1.608
58.74000 3.646
58.76000 7.045
58.78000 2.134
58.80000 2.671
58.82000 -0.453
58.84000 2.094
58.86000 1.283
58.88000 3.158
58.90000 2.395
58.92000 0.794
58.94000 1.563
58.96000 0.842
58.98000 -0.346
59.00000 2.698
59.02000 3.720
59.04000 -1.210
59.06000 -1.610
59.08000 3.716
59.10000 5.712
59.12000 4.497
59.14000 3.315
59.16000 2.689
59.18000 5.532
59.20000 5.297
59.22000 4.330
59.24000 2.282
59.26000 -2.329
59.28000 3.010
59.30000 6.043
59.32000 3.531
59.34000 3.080
59.36000 2.596
59.38000 2.907
59.40000 1.191
59.42000 1.136
59.44000 0.832
59.46000 -2.322
59.48000 2.717
59.50000 6.279
59.52000 4.149
59.54000 2.506
59.56000 1.117
59.58000 1.000
59.60000 3.255
59.62000 -1.867
59.64000 -2.138
59.66000 -1.484
59.68000 -1.096
59.70000 3.930
59.72000 3.022
59.74000 1.582
59.76000 1.283
59.78000 1.412
59.80000 0.178
59.82000 -1.397
59.84000 1.899
59.86000 3.429
59.88000 1.340
59.90000 2.350
59.92000 0.621
59.94000 2.539
59.96000 2.449
59.98000 5.630
60.00000 3.661
60.02000 2.780
60.04000 4.179
60.06000 1.357
60.08000 -1.408
60.10000 4.103
60.12000 3.215
60.14000 4.690
60.16000 2.307
60.18000 3.303
60.20000 1.531
60.22000 3.532
60.24000 1.936
60.26000 0.815
60.28000 1.883
60.30000 3.270
60.32000 4.533
60.34000 0.456
60.36000 0.201
60.38000 -1.299
60.40000 2.453
60.42000 2.161
60.44000 4.057
60.46000 5.629
60.48000 6.200
60.50000 6.268
60.52000 5.529
60.54000 6.441
60.56000 8.009
60.58000 5.102
60.60000 1.293
60.62000 -2.268
60.64000 -2.075
60.66000 -0.326
60.68000 -0.045
60.70000 0.756
60.72000 0.681
60.74000 1.756
60.76000 0.214
60.78000 0.121
60.80000 0.474
60.82000 0.136
60.84000 2.034
60.86000 3.111
60.88000 4.409
60.90000 3.635
60.92000 1.926
60.94000 3.192
60.96000 4.859
60.98000 2.622
61.00000 0.362
61.02000 -0.144
61.04000 -1.961
61.06000 0.099
61.08000 0.981
61.10000 3.335
61.12000 2.082
61.14000 2.754
61.16000 3.239
61.18000 1.007
61.20000 0.510
61.22000 1.634
61.24000 0.403
61.26000 2.076
61.28000 -1.235
61.30000 -0.434
61.32000 3.182
61.34000 1.351
61.36000 0.625
61.38000 2.781
61.40000 1.103
61.42000 0.207
61.44000 2.156
61.46000 3.053
61.48000 -0.898
61.50000 -1.275
61.52000 -0.349
61.54000 1.037
61.56000 1.923
61.58000 -1.844
61.60000 1.558
61.62000 4.150
61.64000 3.261
61.66000 0.755
61.68000 -0.057
61.70000 1.608
61.72000 0.449
61.74000 1.688
61.76000 3.443
61.78000 3.007
61.80000 -0.590
61.82000 -2.275
61.84000 -2.001
61.86000 -0.033
61.88000 5.372
61.90000 3.790
61.92000 0.343
61.94000 1.647
61.96000 1.863
61.98000 2.769
62.00000 4.342
62.02000 3.805
62.04000 1.949
62.06000 -1.290
62.08000 0.443
62.10000 3.312
62.12000 1.785
62.14000 -0.940
62.16000 0.965
62.18000 3.149
62.20000 2.852
62.22000 -0.430
62.24000 1.774
62.26000 5.787
62.28000 3.364
62.30000 1.396
62.32000 1.284
62.34000 -1.110
62.36000 -1.265
62.38000 -0.251
62.40000 -0.473
62.42000 0.177
62.44000 -1.059
62.46000 1.617
62.48000 2.118
62.50000 3.870
62.52000 3.271
62.54000 4.130
62.56000 2.374
62.58000 0.919
62.60000 2.967
62.62000 1.895
62.64000 1.068
62.66000 3.008
62.68000 5.445
62.70000 4.532
62.72000 3.940
62.74000 5.663
62.76000 3.809
62.78000 3.184
62.80000 4.713
62.82000 4.980
62.84000 4.957
62.86000 5.203
62.88000 2.452
62.90000 0.954
62.92000 0.202
62.94000 -2.207
62.96000 -0.815
62.98000 -0.418
63.00000 -1.271
63.02000 0.804
63.04000 2.413
63.06000 3.715
63.08000 3.243
63.10000 1.927
63.12000 0.516
63.14000 2.222
63.16000 4.125
63.18000 2.391
63.20000 5.167
63.22000 2.781
63.24000 2.286
63.26000 1.768
63.28000 -1.967
63.30000 0.318
63.32000 1.909
63.34000 -0.330
63.36000 -1.059
63.38000 1.551
63.40000 2.168
63.42000 3.747
63.44000 4.818
63.46000 5.440
63.48000 3.528
63.50000 -0.884
63.52000 -1.581
63.54000 0.148
63.56000 -1.192
63.58000 -1.275
63.60000 1.122
63.62000 3.801
63.64000 0.510
63.66000 0.248
63.68000 2.205
63.70000 2.832
63.72000 0.394
63.74000 0.920
63.76000 1.730
63.78000 1.876
63.80000 1.527
63.82000 -0.516
63.84000 -0.018
63.86000 1.630
63.88000 1.122
63.90000 0.544
63.92000 1.882
63.94000 1.390
63.96000 -0.444
63.98000 0.888
64.00000 0.444
64.02000 2.119
64.04000 6.269
64.06000 5.269
64.08000 0.108
64.10000 -0.070
64.12000 0.279
64.14000 0.855
64.16000 3.898
64.18000 2.403
64.20000 1.020
64.22000 0.478
64.24000 -0.844
64.26000 1.237
64.28000 -0.541
64.30000 1.782
64.32000 3.521
64.34000 1.948
64.36000 0.646
64.38000 3.063
64.40000 2.528
64.42000 4.173
64.44000 3.381
64.46000 3.572
64.48000 5.018
64.50000 4.983
64.52000 1.027
64.54000 3.114
64.56000 2.344
64.58000 0.519
64.60000 -2.217
64.62000 -0.600
64.64000 0.758
64.66000 1.619
64.68000 4.686
64.70000 4.197
64.72000 3.782
64.74000 1.717
64.76000 1.313
64.78000 2.509
64.80000 2.645
64.82000 -0.805
64.84000 0.325
64.86000 1.839
64.88000 0.637
64.90000 2.363
64.92000 3.143
64.94000 -0.238
64.96000 -0.134
64.98000 2.518
65.00000 2.998
65.02000 2.512
65.04000 2.772
65.06000 1.484
65.08000 0.944
65.10000 4.688
65.12000 4.378
65.14000 4.666
65.16000 1.959
65.18000 0.204
65.20000 1.875
65.22000 4.503
65.24000 -0.283
65.26000 -1.511
65.28000 0.079
65.30000 0.694
65.32000 2.701
65.34000 6.543
65.36000 0.757
65.38000 3.930
65.40000 1.585
65.42000 1.569
65.44000 3.725
65.46000 2.090
65.48000 0.298
65.50000 0.101
65.52000 0.680
65.54000 -0.893
65.56000 0.690
65.58000 1.298
65.60000 2.140
65.62000 1.933
65.64000 1.217
65.66000 -2.224
65.68000 -2.226
65.70000 0.662
65.72000 -0.833
65.74000 0.027
65.76000 -0.036
65.78000 -0.156
65.80000 -0.585
65.82000 1.054
65.84000 -0.233
65.86000 -0.089
65.88000 -0.019
65.90000 0.735
65.92000 -0.167
65.94000 -2.243
65.96000 -1.197
65.98000 -1.186
66.00000 -1.350
66.02000 -1.396
66.04000 -1.808
66.06000 -1.217
66.08000 2.043
66.10000 1.356
66.12000 1.014
66.14000 -2.080
66.16000 -2.218
66.18000 -2.097
66.20000 0.443
66.22000 0.050
66.24000 -1.822
66.26000 0.444
66.28000 2.243
66.30000 -0.704
66.32000 -1.572
66.34000 1.014
66.36000 -0.596
66.38000 -1.730
66.40000 2.266
66.42000 2.001
66.44000 0.185
66.46000 -1.488
66.48000 -1.801
66.50000 -0.098
66.52000 1.328
66.54000 0.250
66.56000 -1.417
66.58000 -1.009
66.60000 1.271
66.62000 1.607
66.64000 1.695
66.66000 2.677
66.68000 3.409
66.70000 0.840
66.72000 -0.466
66.74000 0.118
66.76000 -0.395
66.78000 2.192
66.80000 0.223
66.82000 1.073
66.84000 3.004
66.86000 2.306
66.88000 0.479
66.90000 -0.988
66.92000 -0.972
66.94000 0.603
66.96000 1.920
66.98000 0.192
67.00000 -0.174
67.02000 3.623
67.04000 2.424
67.06000 1.699
67.08000 4.580
67.10000 4.617
67.12000 5.837
67.14000 4.262
67.16000 3.143
67.18000 4.462
67.20000 5.466
67.22000 4.716
67.24000 6.496
67.26000 3.872
67.28000 4.897
67.30000 6.304
67.32000 6.396
67.34000 7.164
67.36000 4.360
67.38000 7.070
67.40000 7.353
67.42000 5.943
67.44000 10.189
67.46000 11.214
67.48000 9.217
67.50000 11.848
67.52000 10.151
67.54000 8.370
67.56000 10.643
67.58000 7.267
67.60000 7.538
67.62000 10.877
67.64000 11.437
67.66000 11.252
67.68000 13.357
67.70000 10.499
67.72000 10.837
67.74000 11.289
67.76000 10.846
67.78000 10.644
67.80000 11.456
67.82000 14.617
67.84000 11.448
67.86000 7.430
67.88000 8.008
67.90000 8.760
67.92000 9.717
67.94000 9.458
67.96000 7.838
67.98000 8.529
68.00000 6.473
68.02000 7.184
68.04000 7.204
68.06000 7.602
68.08000 6.253
68.10000 8.778
68.12000 8.853
68.14000 8.501
68.16000 5.384
68.18000 5.134
68.20000 5.927
68.22000 5.371
68.24000 5.216
68.26000 5.098
68.28000 2.730
68.30000 1.999
68.32000 3.121
68.34000 0.346
68.36000 2.688
68.38000 3.316
68.40000 1.362
68.42000 0.750
68.44000 1.472
68.46000 1.436
68.48000 -0.405
68.50000 0.280
68.52000 0.373
68.54000 -2.009
68.56000 -0.191
68.58000 -2.182
68.60000 -2.137
68.62000 1.106
68.64000 0.829
68.66000 0.823
68.68000 1.359
68.70000 -0.261
68.72000 1.568
68.74000 -0.225
68.76000 -1.585
68.78000 -0.684
68.80000 0.982
68.82000 -0.060
68.84000 -0.479
68.86000 -0.253
68.88000 1.185
68.90000 1.109
68.92000 0.123
68.94000 -1.368
68.96000 -0.202
68.98000 0.673
69.00000 -0.141
69.02000 -2.127
69.04000 -0.645
69.06000 -0.113
69.08000 1.367
69.10000 2.803
69.12000 1.174
69.14000 1.243
69.16000 -0.009
69.18000 0.205
69.20000 0.641
69.22000 0.991
69.24000 -0.881
69.26000 -1.061
69.28000 -0.466
69.30000 0.634
69.32000 1.726
69.34000 -0.337
69.36000 -0.856
69.38000 -0.657
69.40000 -0.101
69.42000 1.714
69.44000 -1.551
69.46000 -2.081
69.48000 0.412
69.50000 3.195
69.52000 2.058
69.54000 0.660
69.56000 -0.201
69.58000 -0.660
69.60000 2.007
69.62000 3.202
69.64000 1.510
69.66000 -0.014
69.68000 -0.417
69.70000 -0.600
69.72000 0.989
69.74000 1.096
69.76000 0.346
69.78000 -0.582
69.80000 -0.020
69.82000 -0.011
69.84000 1.510
69.86000 0.283
69.88000 -1.163
69.90000 0.404
69.92000 3.251
69.94000 3.414
69.96000 -0.412
69.98000 -0.098
70.00000 -1.027
70.02000 -2.061
70.04000 -1.982
70.06000 2.031
70.08000 3.131
70.10000 0.574
70.12000 2.294
70.14000 4.151
70.16000 3.083
70.18000 4.857
70.20000 0.398
70.22000 -1.916
70.24000 1.422
70.26000 1.638
70.28000 1.228
70.30000 0.658
70.32000 -0.032
70.34000 2.392
70.36000 1.794
70.38000 -2.036
70.40000 -1.127
70.42000 -1.530
70.44000 -0.086
70.46000 0.878
70.48000 1.657
70.50000 1.033
70.52000 -0.726
70.54000 2.884
70.56000 1.221
70.58000 1.228
70.60000 2.279
70.62000 0.539
70.64000 0.519
70.66000 2.112
70.68000 -0.140
70.70000 -1.333
70.72000 -2.028
70.74000 2.603
70.76000 1.440
70.78000 0.085
70.80000 -0.064
70.82000 -0.336
70.84000 -0.681
70.86000 -0.550
70.88000 0.251
70.90000 0.605
70.92000 2.876
70.94000 1.544
70.96000 -0.020
70.98000 1.668
71.00000 3.085
71.02000 0.052
71.04000 -1.733
71.06000 2.385
71.08000 0.582
71.10000 -0.437
71.12000 1.268
71.14000 -0.405
71.16000 -1.648
71.18000 0.723
71.20000 1.201
71.22000 0.215
71.24000 0.441
71.26000 3.590
71.28000 2.558
71.30000 1.579
71.32000 -1.729
71.34000 0.439
71.36000 1.540
71.38000 0.493
71.40000 -1.416
71.42000 -0.507
71.44000 -0.029
71.46000 0.450
71.48000 2.776
71.50000 2.427
71.52000 -0.866
71.54000 -1.362
71.56000 1.064
71.58000 -0.479
71.60000 -1.988
71.62000 -1.169
71.64000 0.182
71.66000 0.147
71.68000 0.074
71.70000 0.132
71.72000 2.207
71.74000 0.597
71.76000 0.308
71.78000 -0.912
71.80000 0.090
71.82000 0.545
71.84000 1.929
71.86000 0.451
71.88000 -1.693
71.90000 -1.972
71.92000 2.067
71.94000 2.666
71.96000 4.746
71.98000 0.443
72.00000 1.329
72.02000 1.761
72.04000 0.382
72.06000 0.032
72.08000 -0.491
72.10000 2.796
72.12000 1.977
72.14000 1.168
72.16000 -0.015
72.18000 1.029
72.20000 2.762
72.22000 2.230
72.24000 -0.604
72.26000 -1.860
72.28000 0.222
72.30000 -0.176
72.32000 -1.953
72.34000 -0.733
72.36000 0.869
72.38000 3.776
72.40000 2.357
72.42000 1.105
72.44000 1.765
72.46000 1.225
72.48000 0.968
72.50000 -1.402
72.52000 0.288
72.54000 1.509
72.56000 3.339
72.58000 3.321
72.60000 3.153
72.62000 4.640
72.64000 1.949
72.66000 -1.367
72.68000 0.488
72.70000 1.020
72.72000 -1.585
72.74000 0.258
72.76000 1.423
72.78000 1.060
72.80000 2.344
72.82000 -1.373
72.84000 -0.934
72.86000 -1.175
72.88000 3.465
72.90000 2.879
72.92000 1.796
72.94000 1.523
72.96000 1.334
72.98000 0.336
73.00000 -0.520
73.02000 2.547
73.04000 2.053
73.06000 1.432
73.08000 -0.683
73.10000 1.443
73.12000 0.803
73.14000 1.580
73.16000 -0.515
73.18000 -0.290
73.20000 2.750
73.22000 -0.524
73.24000 1.248
73.26000 3.233
73.28000 2.169
73.30000 2.030
73.32000 -1.229
73.34000 0.344
73.36000 -1.754
73.38000 -0.918
73.40000 -0.541
73.42000 3.550
73.44000 2.052
73.46000 1.693
73.48000 -0.269
73.50000 0.874
73.52000 1.679
73.54000 1.419
73.56000 1.496
73.58000 1.076
73.60000 1.336
73.62000 1.897
73.64000 -0.637
73.66000 1.587
73.68000 2.264
73.70000 3.637
73.72000 2.220
73.74000 -1.910
73.76000 -1.135
73.78000 -0.577
73.80000 2.252
73.82000 2.894
73.84000 2.701
73.86000 1.304
73.88000 2.962
73.90000 4.627
73.92000 4.114
73.94000 2.984
73.96000 2.871
73.98000 3.989
74.00000 4.501
74.02000 3.295
74.04000 1.685
74.06000 2.109
74.08000 0.580
74.10000 3.610
74.12000 4.443
74.14000 2.774
74.16000 1.650
74.18000 3.136
74.20000 1.779
74.22000 -1.891
74.24000 -1.892
74.26000 1.577
74.28000 2.889
74.30000 0.614
74.32000 2.589
74.34000 4.913
74.36000 3.059
74.38000 4.209
74.40000 4.359
74.42000 4.079
74.44000 5.401
74.46000 1.280
74.48000 2.836
74.50000 4.429
74.52000 3.947
74.54000 1.806
74.56000 -0.465
74.58000 -1.910
74.60000 0.247
74.62000 0.949
74.64000 3.135
74.66000 3.395
74.68000 3.637
74.70000 2.348
74.72000 1.301
74.74000 -0.522
74.76000 3.460
74.78000 3.462
74.80000 0.365
74.82000 -0.498
74.84000 2.944
74.86000 0.455
74.88000 1.094
74.90000 -0.109
74.92000 -0.617
74.94000 -1.190
74.96000 -0.540
74.98000 0.751
75.00000 1.225
75.02000 -0.011
75.04000 0.912
75.06000 1.192
75.08000 0.162
75.10000 -0.353
75.12000 0.895
75.14000 2.854
75.16000 -0.649
75.18000 -1.069
75.20000 0.525
75.22000 1.179
75.24000 -0.018
75.26000 0.098
75.28000 -1.914
75.30000 -1.559
75.32000 -0.107
75.34000 -0.808
75.36000 0.750
75.38000 3.810
75.40000 4.983
75.42000 1.498
75.44000 1.323
75.46000 3.550
75.48000 0.310
75.50000 3.413
75.52000 3.631
75.54000 -0.127
75.56000 3.297
75.58000 1.478
75.60000 2.043
75.62000 -1.071
75.64000 0.992
75.66000 0.097
75.68000 0.723
75.70000 -0.927
75.72000 -1.690
75.74000 -1.604
75.76000 1.367
75.78000 1.673
75.80000 1.413
75.82000 2.011
75.84000 1.359
75.86000 1.605
75.88000 1.029
75.90000 1.587
75.92000 4.523
75.94000 1.235
75.96000 2.715
75.98000 2.460
76.00000 1.029
76.02000 0.736
76.04000 0.432
76.06000 0.753
76.08000 2.115
76.10000 -0.112
76.12000 -1.139
76.14000 -0.148
76.16000 2.869
76.18000 4.575
76.20000 1.984
76.22000 2.474
76.24000 -0.241
76.26000 -1.245
76.28000 0.562
76.30000 -1.943
76.32000 -0.635
76.34000 2.122
76.36000 -0.615
76.38000 -0.626
76.40000 1.456
76.42000 1.593
76.44000 2.288
76.46000 3.896
76.48000 1.394
76.50000 0.125
76.52000 0.012
76.54000 -0.564
76.56000 4.231
76.58000 1.074
76.60000 0.111
76.62000 1.691
76.64000 0.801
76.66000 1.041
76.68000 0.340
76.70000 1.979
76.72000 4.177
76.74000 2.376
76.76000 1.281
76.78000 -1.024
76.80000 -1.220
76.82000 -0.393
76.84000 1.920
76.86000 0.236
76.88000 0.592
76.90000 0.797
76.92000 1.581
76.94000 2.186
76.96000 3.448
76.98000 4.892
77.00000 2.223
77.02000 3.414
77.04000 1.135
77.06000 2.030
77.08000 1.446
77.10000 -1.781
77.12000 -0.381
77.14000 0.392
77.16000 -1.279
77.18000 0.239
77.20000 -0.028
77.22000 0.734
77.24000 -0.247
77.26000 1.186
77.28000 2.115
77.30000 4.534
77.32000 4.736
77.34000 2.267
77.36000 1.488
77.38000 1.428
77.40000 0.736
77.42000 -0.817
77.44000 -1.951
77.46000 1.252
77.48000 3.402
77.50000 3.186
77.52000 3.125
77.54000 3.597
77.56000 0.648
77.58000 0.858
77.60000 1.401
77.62000 4.151
77.64000 2.934
77.66000 -0.571
77.68000 -0.632
77.70000 3.048
77.72000 3.362
77.74000 5.167
77.76000 4.708
77.78000 1.475
77.80000 2.389
77.82000 5.039
77.84000 6.248
77.86000 0.701
77.88000 -0.149
77.90000 -0.572
77.92000 0.182
77.94000 -1.043
77.96000 -0.689
77.98000 5.150
78.00000 5.485
78.02000 3.176
78.04000 -0.081
78.06000 -0.119
78.08000 -1.976
78.10000 -1.040
78.12000 0.690
78.14000 3.295
78.16000 1.808
78.18000 3.428
78.20000 1.137
78.22000 0.149
78.24000 1.572
78.26000 1.325
78.28000 0.191
78.30000 0.129
78.32000 0.012
78.34000 -1.605
78.36000 -1.997
78.38000 -0.745
78.40000 -0.067
78.42000 2.542
78.44000 1.638
78.46000 1.505
78.48000 0.985
78.50000 4.384
78.52000 1.777
78.54000 -1.810
78.56000 -0.716
78.58000 1.373
78.60000 0.683
78.62000 -1.396
78.64000 1.705
78.66000 4.295
78.68000 5.230
78.70000 1.405
78.72000 2.274
78.74000 -0.925
78.76000 -0.518
78.78000 -1.308
78.80000 0.938
78.82000 3.011
78.84000 1.226
78.86000 -1.022
78.88000 -1.343
78.90000 -0.146
78.92000 -2.031
78.94000 0.339
78.96000 -0.074
78.98000 0.221
79.00000 1.220
79.02000 -0.537
79.04000 0.530
79.06000 0.140
79.08000 2.052
79.10000 3.005
79.12000 1.431
79.14000 -2.037
79.16000 -1.189
79.18000 3.119
79.20000 -1.233
79.22000 -1.185
79.24000 -1.464
79.26000 1.644
79.28000 1.572
79.30000 1.287
79.32000 2.271
79.34000 -0.151
79.36000 -0.301
79.38000 0.425
79.40000 0.878
79.42000 0.432
79.44000 -0.088
79.46000 -0.197
79.48000 0.615
79.50000 0.389
79.52000 -0.581
79.54000 -1.177
79.56000 -0.116
79.58000 -1.565
79.60000 0.502
79.62000 3.006
79.64000 2.914
79.66000 -1.393
79.68000 -0.134
79.70000 -0.241
79.72000 0.151
79.74000 1.256
79.76000 -0.028
79.78000 -0.667
79.80000 1.322
79.82000 -0.001
79.84000 -2.089
79.86000 0.421
79.88000 -0.172
79.90000 2.133
79.92000 1.829
79.94000 2.380
79.96000 -0.197
79.98000 2.360
80.00000 -0.818
80.02000 -1.331
80.04000 2.270
80.06000 1.280
80.08000 -0.984
80.10000 -0.748
80.12000 3.359
80.14000 3.100
80.16000 0.338
80.18000 1.651
80.20000 0.577
80.22000 0.743
80.24000 4.409
80.26000 3.294
80.28000 1.827
80.30000 4.315
80.32000 5.376
80.34000 3.695
80.36000 0.695
80.38000 2.328
80.40000 6.456
80.42000 6.741
80.44000 3.104
80.46000 0.059
80.48000 0.530
80.50000 4.836
80.52000 2.195
80.54000 2.443
80.56000 4.251
80.58000 5.901
80.60000 5.330
80.62000 6.356
80.64000 9.454
80.66000 9.684
80.68000 9.890
80.70000 6.815
80.72000 10.972
80.74000 7.720
80.76000 11.471
80.78000 12.411
80.80000 11.580
80.82000 12.032
80.84000 11.386
80.86000 7.166
80.88000 9.087
80.90000 12.642
80.92000 12.446
80.94000 12.205
80.96000 13.117
80.98000 15.152
81.00000 15.087
81.02000 13.884
81.04000 15.965
81.06000 20.082
81.08000 20.193
81.10000 17.142
81.12000 15.023
81.14000 16.549
81.16000 17.152
81.18000 15.747
81.20000 18.224
81.22000 19.909
81.24000 24.861
81.26000 24.952
81.28000 20.947
81.30000 18.198
81.32000 18.713
81.34000 22.407
81.36000 24.993
81.38000 24.375
81.40000 22.706
81.42000 22.925
81.44000 19.561
81.46000 20.037
81.48000 22.689
81.50000 25.802
81.52000 27.764
81.54000 27.690
81.56000 27.865
81.58000 25.146
81.60000 23.428
81.62000 25.262
81.64000 26.426
81.66000 23.851
81.68000 21.480
81.70000 25.034
81.72000 23.643
81.74000 22.076
81.76000 21.982
81.78000 22.693
81.80000 21.914
81.82000 21.959
81.84000 22.363
81.86000 26.312
81.88000 23.462
81.90000 20.495
81.92000 21.676
81.94000 20.558
81.96000 17.063
81.98000 16.012
82.00000 15.737
82.02000 21.459
82.04000 17.935
82.06000 14.946
82.08000 11.148
82.10000 12.030
82.12000 13.632
82.14000 14.827
82.16000 13.372
82.18000 12.757
82.20000 11.116
82.22000 11.874
82.24000 10.900
82.26000 10.655
82.28000 8.581
82.30000 6.168
82.32000 7.569
82.34000 9.386
82.36000 8.463
82.38000 5.757
82.40000 5.329
82.42000 6.270
82.44000 4.076
82.46000 2.330
82.48000 1.142
82.50000 4.247
82.52000 6.687
82.54000 4.726
82.56000 5.528
82.58000 6.875
82.60000 5.537
82.62000 3.354
82.64000 3.297
82.66000 4.103
82.68000 3.142
82.70000 2.974
82.72000 4.543
82.74000 4.527
82.76000 6.593
82.78000 6.091
82.80000 1.798
82.82000 1.054
82.84000 -0.976
82.86000 0.605
82.88000 2.930
82.90000 5.417
82.92000 4.791
82.94000 1.714
82.96000 0.940
82.98000 1.285
83.00000 -0.764
83.02000 -0.359
83.04000 -1.135
83.06000 -2.130
83.08000 -2.091
83.10000 -0.818
83.12000 -1.067
83.14000 0.992
83.16000 0.551
83.18000 0.023
83.20000 0.996
83.22000 3.351
83.24000 -0.085
83.26000 1.983
83.28000 2.517
83.30000 -0.980
83.32000 -1.142
83.34000 -1.564
83.36000 -1.222
83.38000 0.248
83.40000 1.776
83.42000 1.425
83.44000 0.666
83.46000 0.876
83.48000 0.681
83.50000 -2.095
83.52000 -1.943
83.54000 1.751
83.56000 3.326
83.58000 1.165
83.60000 1.186
83.62000 1.108
83.64000 4.193
83.66000 3.809
83.68000 1.464
83.70000 0.466
83.72000 1.194
83.74000 2.023
83.76000 3.980
83.78000 3.126
83.80000 1.257
83.82000 -0.755
83.84000 2.645
83.86000 1.402
83.88000 -2.125
83.90000 -0.620
83.92000 -1.085
83.94000 -1.753
83.96000 -1.155
83.98000 0.513
84.00000 1.428
84.02000 -0.321
84.04000 0.402
84.06000 2.693
84.08000 2.822
84.10000 4.732
84.12000 2.909
84.14000 1.276
84.16000 0.822
84.18000 3.087
84.20000 2.496
84.22000 1.337
84.24000 1.381
84.26000 1.655
84.28000 0.323
84.30000 0.307
84.32000 -2.153
84.34000 0.921
84.36000 3.120
84.38000 0.739
84.40000 0.791
84.42000 3.150
84.44000 8.817
84.46000 8.254
84.48000 8.062
84.50000 5.411
84.52000 3.096
84.54000 3.307
84.56000 4.780
84.58000 4.439
84.60000 5.306
84.62000 5.530
84.64000 4.908
84.66000 6.777
84.68000 8.521
84.70000 8.851
84.72000 10.466
84.74000 10.728
84.76000 11.656
84.78000 10.410
84.80000 12.019
84.82000 10.939
84.84000 8.284
84.86000 9.817
84.88000 8.047
84.90000 13.499
84.92000 19.368
84.94000 17.233
84.96000 13.422
84.98000 15.164
85.00000 13.820
85.02000 11.754
85.04000 10.177
85.06000 13.381
85.08000 19.517
85.10000 21.261
85.12000 18.874
85.14000 18.532
85.16000 19.555
85.18000 16.515
85.20000 17.377
85.22000 18.209
85.24000 21.191
85.26000 22.752
85.28000 21.313
85.30000 24.467
85.32000 25.098
85.34000 23.690
85.36000 23.157
85.38000 25.925
85.40000 26.776
85.42000 25.193
85.44000 22.079
85.46000 19.223
85.48000 25.396
85.50000 29.467
85.52000 28.383
85.54000 26.007
85.56000 23.761
85.58000 24.316
85.60000 24.906
85.62000 25.045
85.64000 24.108
85.66000 21.855
85.68000 24.488
85.70000 23.198
85.72000 22.077
85.74000 19.708
85.76000 20.117
85.78000 19.778
85.80000 20.998
85.82000 18.167
85.84000 18.937
85.86000 19.047
85.88000 21.638
85.90000 19.810
85.92000 19.428
85.94000 22.143
85.96000 19.730
85.98000 18.606
86.00000 18.693
86.02000 18.244
86.04000 14.233
86.06000 10.573
86.08000 13.004
86.10000 17.217
86.12000 15.842
86.14000 11.202
86.16000 11.743
86.18000 14.254
86.20000 13.825
86.22000 13.036
86.24000 13.633
86.26000 10.468
86.28000 6.680
86.30000 7.568
86.32000 8.033
86.34000 6.907
86.36000 6.606
86.38000 2.860
86.40000 4.929
86.42000 6.269
86.44000 6.641
86.46000 6.543
86.48000 1.807
86.50000 0.574
86.52000 2.498
86.54000 2.892
86.56000 1.182
86.58000 0.500
86.60000 3.126
86.62000 1.556
86.64000 5.401
86.66000 3.998
86.68000 3.536
86.70000 3.115
86.72000 0.938
86.74000 1.351
86.76000 0.933
86.78000 -1.994
86.80000 -0.878
86.82000 -0.339
86.84000 2.103
86.86000 1.876
86.88000 0.261
86.90000 -1.197
86.92000 0.409
86.94000 1.033
86.96000 -1.512
86.98000 -1.281
87.00000 -0.004
87.02000 1.833
87.04000 1.463
87.06000 -0.008
87.08000 -1.621
87.10000 1.429
87.12000 0.602
87.14000 0.586
87.16000 1.881
87.18000 -1.408
87.20000 -0.891
87.22000 -0.469
87.24000 1.847
87.26000 -0.119
87.28000 3.394
87.30000 2.364
87.32000 1.323
87.34000 0.319
87.36000 3.445
87.38000 -0.875
87.40000 1.373
87.42000 3.260
87.44000 3.195
87.46000 1.676
87.48000 -1.872
87.50000 -1.203
87.52000 0.752
87.54000 1.632
87.56000 2.236
87.58000 5.653
87.60000 5.981
87.62000 3.482
87.64000 1.355
87.66000 -0.670
87.68000 -0.128
87.70000 3.576
87.72000 0.590
87.74000 1.776
87.76000 0.791
87.78000 0.415
87.80000 3.514
87.82000 -0.869
87.84000 -1.851
87.86000 0.051
87.88000 2.717
87.90000 1.536
87.92000 0.563
87.94000 0.217
87.96000 1.732
87.98000 2.308
88.00000 1.101
88.02000 -1.144
88.04000 -0.201
88.06000 2.669
88.08000 0.347
88.10000 1.379
88.12000 1.892
88.14000 0.916
88.16000 1.455
88.18000 1.656
88.20000 1.026
88.22000 2.041
88.24000 3.014
88.26000 1.288
88.28000 1.660
88.30000 -0.465
88.32000 -0.022
88.34000 -0.440
88.36000 1.357
88.38000 2.917
88.40000 -0.904
88.42000 2.247
88.44000 2.632
88.46000 1.308
88.48000 2.960
88.50000 2.806
88.52000 2.440
88.54000 0.041
88.56000 2.504
88.58000 3.882
88.60000 0.801
88.62000 2.470
88.64000 2.108
88.66000 1.045
88.68000 1.885
88.70000 2.035
88.72000 2.577
88.74000 -0.074
88.76000 -1.689
88.78000 -0.096
88.80000 -0.194
88.82000 -1.837
88.84000 0.209
88.86000 4.055
88.88000 5.849
88.90000 3.154
88.92000 3.215
88.94000 1.667
88.96000 -1.831
88.98000 -1.290
89.00000 2.295
89.02000 2.331
89.04000 0.377
89.06000 2.804
89.08000 0.523
89.10000 -1.200
89.12000 1.157
89.14000 4.999
89.16000 3.320
89.18000 2.446
89.20000 5.495
89.22000 3.666
89.24000 1.626
89.26000 -0.663
89.28000 -1.077
89.30000 -0.285
89.32000 2.287
89.34000 -0.023
89.36000 -0.415
89.38000 2.355
89.40000 0.724
89.42000 0.462
89.44000 1.478
89.46000 -1.412
89.48000 -1.820
89.50000 1.504
89.52000 -0.710
89.54000 -1.404
89.56000 5.964
89.58000 2.265
89.60000 2.066
89.62000 3.704
89.64000 2.228
89.66000 0.246
89.68000 0.493
89.70000 2.490
89.72000 1.876
89.74000 0.880
89.76000 0.422
89.78000 0.647
89.80000 0.061
89.82000 1.006
89.84000 4.169
89.86000 5.660
89.88000 2.662
89.90000 1.762
89.92000 3.224
89.94000 0.006
89.96000 -1.824
89.98000 -0.918
90.00000 0.202
90.02000 0.128
90.04000 -0.538
90.06000 -0.113
90.08000 -1.219
90.10000 -0.069
90.12000 2.234
90.14000 1.372
90.16000 0.549
90.18000 2.292
90.20000 3.472
90.22000 1.979
90.24000 1.011
90.26000 -0.799
90.28000 -0.521
90.30000 0.807
90.32000 -1.624
90.34000 1.102
90.36000 3.193
90.38000 1.730
90.40000 3.866
90.42000 2.215
90.44000 5.167
90.46000 4.065
90.48000 3.868
90.50000 1.652
90.52000 -0.092
90.54000 -1.407
90.56000 -0.482
90.58000 1.456
90.60000 0.391
90.62000 1.158
90.64000 2.495
90.66000 1.929
90.68000 2.166
90.70000 1.314
90.72000 1.440
90.74000 2.060
90.76000 3.153
90.78000 1.730
90.80000 0.869
90.82000 -1.185
90.84000 -0.655
90.86000 1.162
90.88000 3.363
90.90000 1.182
90.92000 3.271
90.94000 1.551
90.96000 0.455
90.98000 4.078
91.00000 5.023
91.02000 5.743
91.04000 3.374
91.06000 2.501
91.08000 1.622
91.10000 3.502
91.12000 3.895
91.14000 1.580
91.16000 4.006
91.18000 3.663
91.20000 0.490
91.22000 0.790
91.24000 0.765
91.26000 2.553
91.28000 1.781
91.30000 -1.802
91.32000 1.216
91.34000 5.439
91.36000 4.685
91.38000 2.819
91.40000 1.806
91.42000 -0.063
91.44000 2.251
91.46000 5.475
91.48000 4.591
91.50000 2.579
91.52000 2.738
91.54000 4.862
91.56000 3.760
91.58000 -1.788
91.60000 -0.086
91.62000 1.586
91.64000 2.303
91.66000 3.053
91.68000 2.533
91.70000 3.816
91.72000 1.966
91.74000 3.561
91.76000 4.083
91.78000 0.300
91.80000 1.528
91.82000 4.696
91.84000 3.843
91.86000 0.902
91.88000 0.022
91.90000 0.398
91.92000 1.832
91.94000 2.984
91.96000 0.580
91.98000 1.715
92.00000 0.886
92.02000 2.676
92.04000 1.781
92.06000 0.036
92.08000 -1.042
92.10000 1.801
92.12000 1.871
92.14000 2.530
92.16000 4.790
92.18000 0.847
92.20000 0.568
92.22000 -0.349
92.24000 1.256
92.26000 2.183
92.28000 -1.836
92.30000 -1.664
92.32000 1.265
92.34000 0.698
92.36000 -1.472
92.38000 -0.286
92.40000 2.510
92.42000 2.446
92.44000 3.733
92.46000 4.203
92.48000 -1.327
92.50000 1.029
92.52000 3.794
92.54000 3.043
92.56000 2.475
92.58000 0.129
92.60000 0.138
92.62000 2.099
92.64000 -1.444
92.66000 -1.079
92.68000 0.824
92.70000 1.547
92.72000 0.856
92.74000 0.825
92.76000 1.936
92.78000 0.966
92.80000 0.997
92.82000 1.684
92.84000 3.286
92.86000 0.902
92.88000 0.075
92.90000 1.373
92.92000 3.605
92.94000 3.141
92.96000 2.612
92.98000 2.413
93.00000 3.146
93.02000 2.459
93.04000 0.352
93.06000 1.111
93.08000 1.838
93.10000 0.076
93.12000 -0.648
93.14000 0.685
93.16000 0.809
93.18000 -0.480
93.20000 1.072
93.22000 2.138
93.24000 2.534
93.26000 0.814
93.28000 1.186
93.30000 2.623
93.32000 1.988
93.34000 1.278
93.36000 2.088
93.38000 2.983
93.40000 2.710
93.42000 -1.397
93.44000 1.251
93.46000 3.751
93.48000 1.586
93.50000 0.861
93.52000 -1.817
93.54000 -1.028
93.56000 2.710
93.58000 2.167
93.60000 0.128
93.62000 2.584
93.64000 5.848
93.66000 6.350
93.68000 4.906
93.70000 3.054
93.72000 2.940
93.74000 0.380
93.76000 0.701
93.78000 2.964
93.80000 2.319
93.82000 2.465
93.84000 2.857
93.86000 3.178
93.88000 -1.805
93.90000 0.054
93.92000 5.759
93.94000 4.837
93.96000 2.078
93.98000 4.150
94.00000 2.852
94.02000 3.280
94.04000 3.814
94.06000 1.306
94.08000 2.709
94.10000 0.294
94.12000 -0.531
94.14000 -0.664
94.16000 1.885
94.18000 1.644
94.20000 1.673
94.22000 3.049
94.24000 3.311
94.26000 4.627
94.28000 8.389
94.30000 4.849
94.32000 1.684
94.34000 1.571
94.36000 2.101
94.38000 1.593
94.40000 2.052
94.42000 1.256
94.44000 6.105
94.46000 4.935
94.48000 5.122
94.50000 1.332
94.52000 1.456
94.54000 2.753
94.56000 4.961
94.58000 6.113
94.60000 3.467
94.62000 1.120
94.64000 1.380
94.66000 2.095
94.68000 3.444
94.70000 1.593
94.72000 -1.790
94.74000 1.435
94.76000 3.112
94.78000 0.500
94.80000 2.083
94.82000 1.569
94.84000 0.360
94.86000 2.109
94.88000 2.379
94.90000 1.366
94.92000 4.746
94.94000 3.547
94.96000 5.256
94.98000 2.630
95.00000 2.872
95.02000 1.852
95.04000 2.930
95.06000 0.279
95.08000 1.863
95.10000 0.764
95.12000 1.624
95.14000 5.851
95.16000 4.939
95.18000 2.877
95.20000 -0.037
95.22000 3.317
95.24000 1.305
95.26000 1.912
95.28000 -0.296
95.30000 2.611
95.32000 1.744
95.34000 2.713
95.36000 4.882
95.38000 4.344
95.40000 3.379
95.42000 3.511
95.44000 2.743
95.46000 2.375
95.48000 4.491
95.50000 1.578
95.52000 4.524
95.54000 3.804
95.56000 3.815
95.58000 3.246
95.60000 -0.196
95.62000 1.247
95.64000 3.857
95.66000 -1.477
95.68000 -1.838
95.70000 2.519
95.72000 5.789
95.74000 6.411
95.76000 4.364
95.78000 1.300
95.80000 0.994
95.82000 2.864
95.84000 3.915
95.86000 3.294
95.88000 4.335
95.90000 2.083
95.92000 -0.336
95.94000 3.531
95.96000 5.654
95.98000 4.625
96.00000 2.533
96.02000 2.393
96.04000 3.874
96.06000 4.529
96.08000 4.738
96.10000 4.948
96.12000 3.190
96.14000 -0.374
96.16000 1.442
96.18000 -1.444
96.20000 3.447
96.22000 5.084
96.24000 4.539
96.26000 3.239
96.28000 0.099
96.30000 1.075
96.32000 5.055
96.34000 5.338
96.36000 3.711
96.38000 2.021
96.40000 -0.187
96.42000 0.128
96.44000 -1.021
96.46000 -1.325
96.48000 2.476
96.50000 2.421
96.52000 6.852
96.54000 8.520
96.56000 7.960
96.58000 6.783
96.60000 5.816
96.62000 3.036
96.64000 8.025
96.66000 11.591
96.68000 7.749
96.70000 5.617
96.72000 2.220
96.74000 6.804
96.76000 1.459
96.78000 3.624
96.80000 6.283
96.82000 5.397
96.84000 3.037
96.86000 5.241
96.88000 7.469
96.90000 8.323
96.92000 6.135
96.94000 3.428
96.96000 4.675
96.98000 3.167
97.00000 5.135
97.02000 4.898
97.04000 6.047
97.06000 5.478
97.08000 3.257
97.10000 3.517
97.12000 2.530
97.14000 -1.732
97.16000 3.672
97.18000 5.683
97.20000 6.956
97.22000 6.766
97.24000 5.678
97.26000 4.135
97.28000 8.717
97.30000 6.549
97.32000 5.632
97.34000 2.178
97.36000 3.253
97.38000 5.421
97.40000 6.881
97.42000 8.337
97.44000 3.891
97.46000 2.886
97.48000 4.279
97.50000 2.456
97.52000 0.541
97.54000 3.317
97.56000 5.438
97.58000 5.401
97.60000 7.196
97.62000 4.590
97.64000 7.308
97.66000 5.878
97.68000 3.444
97.70000 1.556
97.72000 3.380
97.74000 5.424
97.76000 4.743
97.78000 3.536
97.80000 1.589
97.82000 -0.568
97.84000 1.951
97.86000 2.479
97.88000 2.393
97.90000 3.728
97.92000 3.543
97.94000 2.761
97.96000 6.568
97.98000 5.837
98.00000 6.114
98.02000 5.920
98.04000 3.926
98.06000 4.449
98.08000 4.347
98.10000 2.065
98.12000 2.779
98.14000 7.088
98.16000 8.754
98.18000 9.019
98.20000 4.050
98.22000 6.633
98.24000 5.315
98.26000 -1.769
98.28000 3.124
98.30000 2.241
98.32000 3.761
98.34000 5.938
98.36000 11.918
98.38000 5.816
98.40000 3.496
98.42000 4.136
98.44000 2.289
98.46000 3.330
98.48000 3.584
98.50000 7.737
98.52000 8.460
98.54000 8.254
98.56000 5.880
98.58000 9.984
98.60000 2.700
98.62000 -0.922
98.64000 2.959
98.66000 9.043
98.68000 3.792
98.70000 3.594
98.72000 -0.094
98.74000 -1.004
98.76000 1.661
98.78000 1.221
98.80000 1.617
98.82000 5.263
98.84000 2.035
98.86000 6.171
98.88000 2.107
98.90000 0.342
98.92000 3.702
98.94000 2.604
98.96000 6.246
98.98000 5.437
99.00000 7.642
99.02000 4.521
99.04000 1.793
99.06000 5.908
99.08000 3.423
99.10000 -1.787
99.12000 1.368
99.14000 1.961
99.16000 2.234
99.18000 9.392
99.20000 9.365
99.22000 4.313
99.24000 5.232
99.26000 4.041
99.28000 4.158
99.30000 7.082
99.32000 1.674
99.34000 -1.673
99.36000 0.147
99.38000 2.221
99.40000 1.263
99.42000 6.114
99.44000 1.343
99.46000 5.763
99.48000 2.647
99.50000 -1.806
99.52000 -0.020
99.54000 2.149
99.56000 5.079
99.58000 1.262
99.60000 5.710
99.62000 0.010
99.64000 4.586
99.66000 0.188
99.68000 0.303
99.70000 1.184
99.72000 9.170
99.74000 12.323
99.76000 5.579
99.78000 0.116
99.80000 1.525
99.82000 4.561
99.84000 5.976
99.86000 4.874
99.88000 4.674
99.90000 4.128
99.92000 4.418
99.94000 2.682
99.96000 2.125
99.98000 0.000
