'Id: "0011388" Comment: "Integrate frame 0011388_Au-Ir-Rh_Rh-rich_XRD-Mapping-272-0000.gfrmwith cursor Wedge Cursor #5" Operator: "B?rgel" Anode: "Cu" Wavelength: "1.5406" Scantype: "2Theta (TwoTheta)" TimePerStep: "1" X: "13.5" Y: "22.5" Z: "5.95" 
10.00000 0.000
10.02000 -3.950
10.04000 4.726
10.06000 13.101
10.08000 12.641
10.10000 3.364
10.12000 16.068
10.14000 -0.814
10.16000 -3.907
10.18000 10.950
10.20000 17.704
10.22000 15.281
10.24000 15.505
10.26000 35.830
10.28000 31.145
10.30000 30.581
10.32000 17.877
10.34000 19.850
10.36000 15.239
10.38000 18.481
10.40000 14.227
10.42000 7.569
10.44000 23.161
10.46000 14.834
10.48000 9.488
10.50000 24.507
10.52000 22.260
10.54000 18.260
10.56000 24.339
10.58000 18.058
10.60000 21.045
10.62000 30.305
10.64000 19.666
10.66000 7.762
10.68000 21.740
10.70000 22.033
10.72000 23.408
10.74000 23.329
10.76000 10.306
10.78000 7.889
10.80000 -2.018
10.82000 25.693
10.84000 22.612
10.86000 4.310
10.88000 3.714
10.90000 16.580
10.92000 12.141
10.94000 20.169
10.96000 21.551
10.98000 19.106
11.00000 13.165
11.02000 1.830
11.04000 22.950
11.06000 20.803
11.08000 30.904
11.10000 25.937
11.12000 24.559
11.14000 29.650
11.16000 24.128
11.18000 16.666
11.20000 7.999
11.22000 21.774
11.24000 24.412
11.26000 21.049
11.28000 21.410
11.30000 19.185
11.32000 19.208
11.34000 10.168
11.36000 16.609
11.38000 24.960
11.40000 21.081
11.42000 23.324
11.44000 24.445
11.46000 19.084
11.48000 6.632
11.50000 11.755
11.52000 12.977
11.54000 11.112
11.56000 22.373
11.58000 15.386
11.60000 21.969
11.62000 23.732
11.64000 17.299
11.66000 22.602
11.68000 25.815
11.70000 30.731
11.72000 25.365
11.74000 22.412
11.76000 25.662
11.78000 30.414
11.80000 23.581
11.82000 22.342
11.84000 15.032
11.86000 12.212
11.88000 14.448
11.90000 17.701
11.92000 17.361
11.94000 11.427
11.96000 11.279
11.98000 12.700
12.00000 14.856
12.02000 13.148
12.04000 14.816
12.06000 10.076
12.08000 11.870
12.10000 18.321
12.12000 18.751
12.14000 21.833
12.16000 22.230
12.18000 23.647
12.20000 15.018
12.22000 22.754
12.24000 21.844
12.26000 25.756
12.28000 34.380
12.30000 26.912
12.32000 17.748
12.34000 13.002
12.36000 16.770
12.38000 20.484
12.40000 19.055
12.42000 22.226
12.44000 29.188
12.46000 26.016
12.48000 22.281
12.50000 15.808
12.52000 14.710
12.54000 9.986
12.56000 12.789
12.58000 19.710
12.60000 21.921
12.62000 31.004
12.64000 27.895
12.66000 17.811
12.68000 16.648
12.70000 13.418
12.72000 14.107
12.74000 19.435
12.76000 18.963
12.78000 15.005
12.80000 24.995
12.82000 24.359
12.84000 21.534
12.86000 22.137
12.88000 29.867
12.90000 16.241
12.92000 13.974
12.94000 23.754
12.96000 21.683
12.98000 16.989
13.00000 27.521
13.02000 22.335
13.04000 15.704
13.06000 15.716
13.08000 18.071
13.10000 23.818
13.12000 21.441
13.14000 17.134
13.16000 19.124
13.18000 26.402
13.20000 24.628
13.22000 24.785
13.24000 25.602
13.26000 12.599
13.28000 8.314
13.30000 20.300
13.32000 21.937
13.34000 18.375
13.36000 20.949
13.38000 21.363
13.40000 15.541
13.42000 8.129
13.44000 17.049
13.46000 25.318
13.48000 16.930
13.50000 14.257
13.52000 14.315
13.54000 15.364
13.56000 24.394
13.58000 22.900
13.60000 17.312
13.62000 19.269
13.64000 13.642
13.66000 17.384
13.68000 23.582
13.70000 17.980
13.72000 9.188
13.74000 23.266
13.76000 30.186
13.78000 20.831
13.80000 19.890
13.82000 18.481
13.84000 20.583
13.86000 11.454
13.88000 13.639
13.90000 18.538
13.92000 9.710
13.94000 8.001
13.96000 16.214
13.98000 12.605
14.00000 17.929
14.02000 14.994
14.04000 7.391
14.06000 12.316
14.08000 12.809
14.10000 16.919
14.12000 22.059
14.14000 15.332
14.16000 13.030
14.18000 18.049
14.20000 18.732
14.22000 17.630
14.24000 14.087
14.26000 12.867
14.28000 12.153
14.30000 12.978
14.32000 9.350
14.34000 14.187
14.36000 13.818
14.38000 16.905
14.40000 12.796
14.42000 21.310
14.44000 20.084
14.46000 15.259
14.48000 12.813
14.50000 17.110
14.52000 19.247
14.54000 9.605
14.56000 10.075
14.58000 7.913
14.60000 0.408
14.62000 9.710
14.64000 7.035
14.66000 0.720
14.68000 11.416
14.70000 9.132
14.72000 9.441
14.74000 21.401
14.76000 21.402
14.78000 12.254
14.80000 13.089
14.82000 17.394
14.84000 13.263
14.86000 6.169
14.88000 7.466
14.90000 8.601
14.92000 13.149
14.94000 15.921
14.96000 18.025
14.98000 4.811
15.00000 -4.444
15.02000 0.122
15.04000 15.971
15.06000 14.171
15.08000 16.045
15.10000 17.144
15.12000 18.224
15.14000 26.030
15.16000 20.188
15.18000 16.669
15.20000 20.933
15.22000 11.890
15.24000 2.964
15.26000 6.557
15.28000 8.889
15.30000 19.694
15.32000 19.177
15.34000 18.310
15.36000 17.081
15.38000 15.960
15.40000 7.461
15.42000 0.867
15.44000 2.704
15.46000 6.328
15.48000 9.784
15.50000 4.326
15.52000 11.311
15.54000 2.215
15.56000 7.090
15.58000 7.718
15.60000 16.020
15.62000 11.855
15.64000 -0.337
15.66000 5.132
15.68000 18.050
15.70000 15.109
15.72000 6.607
15.74000 6.188
15.76000 18.452
15.78000 19.601
15.80000 15.260
15.82000 10.225
15.84000 8.383
15.86000 6.726
15.88000 5.126
15.90000 13.565
15.92000 6.557
15.94000 14.810
15.96000 7.595
15.98000 4.377
16.00000 8.834
16.02000 7.583
16.04000 5.951
16.06000 4.470
16.08000 2.382
16.10000 3.537
16.12000 13.705
16.14000 17.660
16.16000 8.090
16.18000 2.337
16.20000 0.497
16.22000 6.526
16.24000 12.084
16.26000 15.841
16.28000 6.612
16.30000 10.388
16.32000 8.574
16.34000 9.770
16.36000 14.479
16.38000 7.474
16.40000 6.139
16.42000 17.400
16.44000 15.603
16.46000 8.252
16.48000 6.736
16.50000 1.758
16.52000 4.806
16.54000 3.725
16.56000 5.514
16.58000 19.854
16.60000 17.284
16.62000 10.540
16.64000 13.530
16.66000 13.250
16.68000 12.868
16.70000 0.966
16.72000 7.549
16.74000 6.547
16.76000 13.510
16.78000 10.546
16.80000 5.238
16.82000 5.686
16.84000 0.450
16.86000 -0.805
16.88000 4.392
16.90000 -1.950
16.92000 -4.409
16.94000 1.223
16.96000 6.816
16.98000 11.785
17.00000 5.928
17.02000 10.521
17.04000 8.413
17.06000 4.770
17.08000 5.873
17.10000 10.545
17.12000 18.398
17.14000 17.739
17.16000 4.171
17.18000 3.250
17.20000 11.190
17.22000 9.710
17.24000 8.109
17.26000 8.926
17.28000 9.360
17.30000 5.291
17.32000 5.733
17.34000 11.366
17.36000 18.415
17.38000 22.484
17.40000 15.701
17.42000 9.933
17.44000 8.520
17.46000 11.671
17.48000 12.687
17.50000 9.031
17.52000 9.463
17.54000 7.260
17.56000 7.435
17.58000 -3.124
17.60000 1.972
17.62000 9.019
17.64000 3.922
17.66000 0.715
17.68000 7.232
17.70000 9.704
17.72000 5.636
17.74000 0.800
17.76000 0.449
17.78000 3.554
17.80000 3.366
17.82000 -0.557
17.84000 7.478
17.86000 4.560
17.88000 6.130
17.90000 6.187
17.92000 -0.471
17.94000 4.231
17.96000 1.189
17.98000 5.033
18.00000 4.937
18.02000 4.024
18.04000 9.323
18.06000 2.625
18.08000 -1.446
18.10000 5.262
18.12000 10.003
18.14000 4.170
18.16000 7.532
18.18000 16.227
18.20000 15.976
18.22000 7.207
18.24000 11.514
18.26000 6.094
18.28000 -4.327
18.30000 -1.788
18.32000 6.903
18.34000 10.393
18.36000 3.907
18.38000 1.682
18.40000 0.772
18.42000 3.103
18.44000 9.199
18.46000 10.302
18.48000 11.660
18.50000 8.779
18.52000 3.356
18.54000 5.474
18.56000 8.160
18.58000 10.167
18.60000 5.051
18.62000 6.002
18.64000 5.731
18.66000 4.364
18.68000 2.894
18.70000 10.984
18.72000 10.495
18.74000 5.566
18.76000 3.351
18.78000 1.943
18.80000 5.185
18.82000 3.077
18.84000 1.405
18.86000 4.403
18.88000 8.189
18.90000 11.710
18.92000 8.130
18.94000 14.406
18.96000 15.278
18.98000 11.648
19.00000 12.607
19.02000 11.717
19.04000 4.320
19.06000 6.405
19.08000 4.924
19.10000 5.728
19.12000 5.531
19.14000 5.676
19.16000 6.516
19.18000 6.881
19.20000 9.178
19.22000 9.711
19.24000 8.612
19.26000 8.252
19.28000 12.304
19.30000 10.865
19.32000 7.620
19.34000 6.978
19.36000 7.393
19.38000 8.767
19.40000 4.248
19.42000 10.965
19.44000 9.973
19.46000 9.957
19.48000 6.564
19.50000 2.630
19.52000 1.741
19.54000 9.797
19.56000 2.882
19.58000 2.378
19.60000 3.692
19.62000 4.096
19.64000 4.787
19.66000 10.610
19.68000 12.370
19.70000 6.113
19.72000 8.258
19.74000 9.518
19.76000 6.054
19.78000 5.790
19.80000 1.619
19.82000 -2.465
19.84000 -3.119
19.86000 4.496
19.88000 10.413
19.90000 7.488
19.92000 10.316
19.94000 10.610
19.96000 5.286
19.98000 7.460
20.00000 8.135
20.02000 7.382
20.04000 6.905
20.06000 6.031
20.08000 9.308
20.10000 13.588
20.12000 6.840
20.14000 4.223
20.16000 4.226
20.18000 1.592
20.20000 0.573
20.22000 -4.200
20.24000 3.972
20.26000 12.938
20.28000 10.503
20.30000 10.430
20.32000 9.103
20.34000 3.093
20.36000 6.503
20.38000 3.149
20.40000 7.228
20.42000 6.377
20.44000 8.870
20.46000 9.754
20.48000 3.449
20.50000 11.493
20.52000 7.737
20.54000 8.910
20.56000 9.813
20.58000 6.938
20.60000 9.540
20.62000 6.489
20.64000 5.997
20.66000 7.098
20.68000 6.957
20.70000 -1.319
20.72000 -4.189
20.74000 2.600
20.76000 7.271
20.78000 12.398
20.80000 12.368
20.82000 5.250
20.84000 1.402
20.86000 4.628
20.88000 9.063
20.90000 13.974
20.92000 9.865
20.94000 6.149
20.96000 5.952
20.98000 4.001
21.00000 5.283
21.02000 8.680
21.04000 8.867
21.06000 7.283
21.08000 1.825
21.10000 -1.840
21.12000 6.152
21.14000 7.800
21.16000 1.152
21.18000 5.263
21.20000 3.067
21.22000 -0.460
21.24000 6.502
21.26000 5.065
21.28000 5.497
21.30000 2.929
21.32000 6.581
21.34000 8.785
21.36000 3.478
21.38000 1.983
21.40000 5.107
21.42000 8.673
21.44000 2.646
21.46000 1.762
21.48000 5.981
21.50000 5.232
21.52000 -1.532
21.54000 0.025
21.56000 6.715
21.58000 7.676
21.60000 2.747
21.62000 2.801
21.64000 7.084
21.66000 8.518
21.68000 2.232
21.70000 -0.017
21.72000 1.901
21.74000 10.275
21.76000 3.787
21.78000 4.046
21.80000 4.242
21.82000 -0.393
21.84000 -2.554
21.86000 2.587
21.88000 1.023
21.90000 0.882
21.92000 7.327
21.94000 3.356
21.96000 7.991
21.98000 7.813
22.00000 8.416
22.02000 4.460
22.04000 5.070
22.06000 0.846
22.08000 0.236
22.10000 3.783
22.12000 4.413
22.14000 0.555
22.16000 1.915
22.18000 2.721
22.20000 4.185
22.22000 3.100
22.24000 3.298
22.26000 -1.235
22.28000 -4.148
22.30000 3.236
22.32000 3.122
22.34000 0.333
22.36000 5.990
22.38000 8.002
22.40000 6.077
22.42000 2.691
22.44000 0.166
22.46000 9.351
22.48000 9.409
22.50000 5.369
22.52000 3.107
22.54000 2.484
22.56000 8.590
22.58000 10.015
22.60000 7.776
22.62000 2.672
22.64000 4.575
22.66000 0.839
22.68000 -1.669
22.70000 -1.716
22.72000 1.748
22.74000 0.796
22.76000 4.950
22.78000 5.340
22.80000 7.938
22.82000 3.228
22.84000 -2.124
22.86000 2.961
22.88000 6.315
22.90000 5.618
22.92000 6.979
22.94000 6.955
22.96000 4.976
22.98000 4.985
23.00000 4.149
23.02000 -0.214
23.04000 -1.649
23.06000 1.770
23.08000 2.566
23.10000 0.414
23.12000 5.820
23.14000 -1.296
23.16000 -2.445
23.18000 1.996
23.20000 5.593
23.22000 2.549
23.24000 0.183
23.26000 4.194
23.28000 -1.724
23.30000 4.201
23.32000 6.959
23.34000 1.825
23.36000 -2.386
23.38000 4.179
23.40000 -0.032
23.42000 0.598
23.44000 2.721
23.46000 7.271
23.48000 2.917
23.50000 0.509
23.52000 0.362
23.54000 1.813
23.56000 8.611
23.58000 5.858
23.60000 3.134
23.62000 4.067
23.64000 6.083
23.66000 8.723
23.68000 4.213
23.70000 7.710
23.72000 8.907
23.74000 4.823
23.76000 -0.633
23.78000 1.315
23.80000 1.751
23.82000 3.483
23.84000 5.252
23.86000 6.831
23.88000 9.709
23.90000 5.043
23.92000 2.627
23.94000 4.367
23.96000 4.311
23.98000 5.022
24.00000 1.552
24.02000 -3.124
24.04000 -4.033
24.06000 -1.342
24.08000 1.586
24.10000 1.054
24.12000 0.004
24.14000 -2.575
24.16000 -0.609
24.18000 3.703
24.20000 0.776
24.22000 -4.014
24.24000 2.217
24.26000 4.902
24.28000 5.625
24.30000 6.038
24.32000 11.337
24.34000 12.986
24.36000 4.989
24.38000 3.088
24.40000 4.176
24.42000 3.764
24.44000 2.633
24.46000 6.966
24.48000 8.745
24.50000 10.596
24.52000 6.482
24.54000 4.149
24.56000 6.432
24.58000 2.582
24.60000 2.979
24.62000 4.110
24.64000 1.064
24.66000 -2.734
24.68000 3.967
24.70000 4.110
24.72000 3.348
24.74000 5.246
24.76000 2.536
24.78000 -1.213
24.80000 3.099
24.82000 1.653
24.84000 -2.614
24.86000 1.383
24.88000 1.529
24.90000 3.790
24.92000 3.729
24.94000 2.940
24.96000 7.165
24.98000 -0.039
25.00000 1.160
25.02000 1.673
25.04000 -3.987
25.06000 6.280
25.08000 8.231
25.10000 4.088
25.12000 -0.682
25.14000 0.487
25.16000 0.542
25.18000 5.260
25.20000 6.164
25.22000 5.768
25.24000 -1.442
25.26000 0.231
25.28000 4.430
25.30000 1.740
25.32000 -2.228
25.34000 -0.573
25.36000 -1.067
25.38000 3.030
25.40000 1.644
25.42000 1.771
25.44000 3.169
25.46000 1.139
25.48000 10.937
25.50000 6.097
25.52000 5.607
25.54000 7.876
25.56000 8.224
25.58000 3.957
25.60000 0.827
25.62000 3.191
25.64000 4.984
25.66000 7.357
25.68000 3.768
25.70000 1.868
25.72000 -2.273
25.74000 -0.243
25.76000 2.570
25.78000 1.453
25.80000 4.742
25.82000 8.098
25.84000 4.171
25.86000 5.660
25.88000 10.425
25.90000 4.016
25.92000 1.993
25.94000 -2.949
25.96000 3.564
25.98000 6.973
26.00000 5.149
26.02000 2.007
26.04000 -2.543
26.06000 -3.911
26.08000 2.256
26.10000 3.287
26.12000 4.490
26.14000 2.047
26.16000 2.071
26.18000 5.595
26.20000 8.658
26.22000 9.924
26.24000 4.777
26.26000 5.802
26.28000 5.840
26.30000 7.336
26.32000 2.683
26.34000 4.892
26.36000 4.667
26.38000 0.821
26.40000 0.970
26.42000 0.500
26.44000 3.984
26.46000 6.450
26.48000 9.604
26.50000 4.846
26.52000 2.053
26.54000 0.850
26.56000 3.328
26.58000 2.487
26.60000 3.815
26.62000 2.792
26.64000 3.984
26.66000 3.532
26.68000 0.124
26.70000 4.782
26.72000 3.549
26.74000 3.632
26.76000 5.122
26.78000 6.955
26.80000 5.113
26.82000 1.373
26.84000 1.737
26.86000 1.195
26.88000 3.764
26.90000 6.197
26.92000 6.956
26.94000 1.222
26.96000 3.908
26.98000 8.593
27.00000 6.301
27.02000 7.756
27.04000 7.187
27.06000 0.772
27.08000 6.435
27.10000 3.503
27.12000 3.980
27.14000 3.580
27.16000 2.661
27.18000 -0.230
27.20000 4.785
27.22000 10.527
27.24000 9.139
27.26000 7.428
27.28000 5.926
27.30000 -0.610
27.32000 -3.863
27.34000 0.758
27.36000 5.389
27.38000 8.148
27.40000 6.025
27.42000 4.161
27.44000 1.849
27.46000 -0.828
27.48000 0.688
27.50000 4.336
27.52000 7.687
27.54000 6.019
27.56000 5.717
27.58000 2.987
27.60000 4.778
27.62000 5.242
27.64000 3.956
27.66000 -0.897
27.68000 4.759
27.70000 1.889
27.72000 -0.204
27.74000 -1.120
27.76000 1.940
27.78000 2.052
27.80000 4.251
27.82000 0.299
27.84000 6.279
27.86000 5.035
27.88000 1.548
27.90000 1.099
27.92000 4.776
27.94000 5.821
27.96000 4.974
27.98000 5.686
28.00000 2.538
28.02000 -2.469
28.04000 5.098
28.06000 9.432
28.08000 4.747
28.10000 6.237
28.12000 5.479
28.14000 5.743
28.16000 1.550
28.18000 1.430
28.20000 -1.976
28.22000 -1.756
28.24000 1.243
28.26000 3.691
28.28000 -1.640
28.30000 -2.556
28.32000 -3.831
28.34000 -1.203
28.36000 1.319
28.38000 3.441
28.40000 2.844
28.42000 3.736
28.44000 1.785
28.46000 3.879
28.48000 8.990
28.50000 8.526
28.52000 3.901
28.54000 1.526
28.56000 2.012
28.58000 -2.642
28.60000 0.107
28.62000 2.323
28.64000 1.366
28.66000 1.824
28.68000 -0.111
28.70000 -1.352
28.72000 1.137
28.74000 -1.686
28.76000 2.417
28.78000 -0.109
28.80000 2.084
28.82000 -2.356
28.84000 -1.993
28.86000 -0.603
28.88000 -2.892
28.90000 2.097
28.92000 4.327
28.94000 -1.494
28.96000 -1.808
28.98000 1.694
29.00000 1.536
29.02000 -3.788
29.04000 -0.195
29.06000 5.333
29.08000 4.233
29.10000 3.011
29.12000 -2.459
29.14000 -1.355
29.16000 0.193
29.18000 -0.613
29.20000 -3.750
29.22000 -3.774
29.24000 -0.587
29.26000 3.965
29.28000 -0.124
29.30000 -3.575
29.32000 1.022
29.34000 2.849
29.36000 1.552
29.38000 2.910
29.40000 2.688
29.42000 2.786
29.44000 2.086
29.46000 0.599
29.48000 1.485
29.50000 -1.961
29.52000 -0.159
29.54000 -0.065
29.56000 0.561
29.58000 0.613
29.60000 3.671
29.62000 2.030
29.64000 7.127
29.66000 5.314
29.68000 0.648
29.70000 3.970
29.72000 2.574
29.74000 2.971
29.76000 8.701
29.78000 6.712
29.80000 2.584
29.82000 0.334
29.84000 1.586
29.86000 2.936
29.88000 3.393
29.90000 5.848
29.92000 3.058
29.94000 5.371
29.96000 -1.012
29.98000 -2.072
30.00000 -3.737
30.02000 -1.221
30.04000 -2.947
30.06000 -2.676
30.08000 2.115
30.10000 3.074
30.12000 3.466
30.14000 4.471
30.16000 1.820
30.18000 1.882
30.20000 -0.097
30.22000 -0.011
30.24000 4.926
30.26000 1.720
30.28000 1.053
30.30000 -2.750
30.32000 -2.983
30.34000 -0.887
30.36000 -2.751
30.38000 1.129
30.40000 -1.214
30.42000 2.363
30.44000 5.638
30.46000 7.762
30.48000 4.301
30.50000 3.279
30.52000 1.778
30.54000 1.558
30.56000 1.907
30.58000 4.681
30.60000 0.632
30.62000 4.532
30.64000 8.879
30.66000 2.973
30.68000 -0.088
30.70000 0.546
30.72000 2.161
30.74000 2.816
30.76000 6.311
30.78000 6.315
30.80000 4.389
30.82000 -0.012
30.84000 3.409
30.86000 7.642
30.88000 3.824
30.90000 5.441
30.92000 5.187
30.94000 1.285
30.96000 -3.679
30.98000 -0.783
31.00000 -1.206
31.02000 3.856
31.04000 7.117
31.06000 9.963
31.08000 11.638
31.10000 7.520
31.12000 5.642
31.14000 4.366
31.16000 -1.105
31.18000 0.244
31.20000 3.341
31.22000 1.368
31.24000 2.356
31.26000 0.156
31.28000 4.496
31.30000 1.661
31.32000 0.913
31.34000 -0.397
31.36000 -3.667
31.38000 1.800
31.40000 1.436
31.42000 3.333
31.44000 2.615
31.46000 4.422
31.48000 0.333
31.50000 4.634
31.52000 6.880
31.54000 11.223
31.56000 6.679
31.58000 0.637
31.60000 3.719
31.62000 2.268
31.64000 6.054
31.66000 2.930
31.68000 3.669
31.70000 -0.811
31.72000 5.590
31.74000 3.873
31.76000 2.954
31.78000 1.745
31.80000 6.040
31.82000 8.268
31.84000 7.753
31.86000 4.591
31.88000 5.710
31.90000 2.042
31.92000 2.605
31.94000 -0.226
31.96000 -1.728
31.98000 -2.289
32.00000 1.709
32.02000 4.279
32.04000 -1.692
32.06000 -3.662
32.08000 -0.660
32.10000 -2.152
32.12000 0.137
32.14000 2.216
32.16000 0.909
32.18000 0.056
32.20000 6.266
32.22000 3.119
32.24000 -1.898
32.26000 0.748
32.28000 1.689
32.30000 1.526
32.32000 1.462
32.34000 2.204
32.36000 1.003
32.38000 -3.555
32.40000 0.785
32.42000 3.175
32.44000 1.686
32.46000 -0.393
32.48000 -0.324
32.50000 2.462
32.52000 2.132
32.54000 0.382
32.56000 -0.709
32.58000 -0.253
32.60000 -0.971
32.62000 4.685
32.64000 7.781
32.66000 4.218
32.68000 -0.018
32.70000 -0.890
32.72000 -0.165
32.74000 -0.217
32.76000 2.540
32.78000 4.013
32.80000 2.332
32.82000 1.930
32.84000 -0.355
32.86000 0.300
32.88000 2.757
32.90000 2.008
32.92000 -0.283
32.94000 -3.264
32.96000 -2.446
32.98000 -3.173
33.00000 1.269
33.02000 -1.457
33.04000 -3.626
33.06000 -2.133
33.08000 0.703
33.10000 1.975
33.12000 5.398
33.14000 2.919
33.16000 -1.668
33.18000 2.988
33.20000 7.298
33.22000 9.009
33.24000 5.992
33.26000 4.453
33.28000 1.380
33.30000 2.430
33.32000 -0.129
33.34000 1.047
33.36000 4.322
33.38000 4.234
33.40000 6.726
33.42000 4.678
33.44000 3.295
33.46000 5.625
33.48000 5.340
33.50000 5.306
33.52000 9.063
33.54000 5.790
33.56000 1.145
33.58000 1.090
33.60000 -3.588
33.62000 2.804
33.64000 6.649
33.66000 4.219
33.68000 1.911
33.70000 3.920
33.72000 10.312
33.74000 5.787
33.76000 3.598
33.78000 5.045
33.80000 5.622
33.82000 5.095
33.84000 4.793
33.86000 1.369
33.88000 4.372
33.90000 5.970
33.92000 3.063
33.94000 3.892
33.96000 4.843
33.98000 0.262
34.00000 -3.054
34.02000 1.262
34.04000 5.967
34.06000 6.054
34.08000 6.352
34.10000 3.430
34.12000 6.848
34.14000 10.821
34.16000 6.457
34.18000 2.711
34.20000 2.265
34.22000 3.092
34.24000 2.521
34.26000 0.323
34.28000 5.157
34.30000 6.707
34.32000 5.583
34.34000 0.931
34.36000 4.108
34.38000 5.548
34.40000 6.587
34.42000 3.923
34.44000 6.786
34.46000 6.258
34.48000 3.720
34.50000 6.291
34.52000 4.019
34.54000 -0.592
34.56000 1.646
34.58000 2.356
34.60000 0.953
34.62000 0.088
34.64000 1.214
34.66000 3.242
34.68000 -1.130
34.70000 0.893
34.72000 3.821
34.74000 6.272
34.76000 4.273
34.78000 1.888
34.80000 5.487
34.82000 3.037
34.84000 -3.524
34.86000 0.175
34.88000 1.576
34.90000 3.756
34.92000 2.220
34.94000 -1.176
34.96000 -0.949
34.98000 1.045
35.00000 -0.862
35.02000 -2.664
35.04000 0.364
35.06000 3.087
35.08000 -0.008
35.10000 -2.981
35.12000 -2.560
35.14000 1.620
35.16000 3.321
35.18000 -1.725
35.20000 0.344
35.22000 0.748
35.24000 -3.575
35.26000 -0.971
35.28000 1.473
35.30000 2.259
35.32000 4.357
35.34000 -1.384
35.36000 0.413
35.38000 3.050
35.40000 5.175
35.42000 5.391
35.44000 4.035
35.46000 1.267
35.48000 -3.578
35.50000 0.834
35.52000 -1.626
35.54000 -1.217
35.56000 -3.137
35.58000 -0.366
35.60000 3.387
35.62000 2.504
35.64000 1.726
35.66000 2.815
35.68000 0.993
35.70000 1.838
35.72000 0.244
35.74000 3.665
35.76000 7.278
35.78000 2.680
35.80000 0.587
35.82000 0.968
35.84000 2.372
35.86000 4.628
35.88000 0.824
35.90000 0.236
35.92000 7.328
35.94000 6.298
35.96000 3.254
35.98000 8.122
36.00000 5.267
36.02000 -1.652
36.04000 5.389
36.06000 12.584
36.08000 5.525
36.10000 8.407
36.12000 6.297
36.14000 2.948
36.16000 4.078
36.18000 4.177
36.20000 1.720
36.22000 2.615
36.24000 3.278
36.26000 -3.594
36.28000 -3.154
36.30000 -0.041
36.32000 2.000
36.34000 0.719
36.36000 6.314
36.38000 8.982
36.40000 3.776
36.42000 -0.148
36.44000 -2.680
36.46000 -1.151
36.48000 1.292
36.50000 5.872
36.52000 4.881
36.54000 7.084
36.56000 6.161
36.58000 5.174
36.60000 2.081
36.62000 2.269
36.64000 5.422
36.66000 1.166
36.68000 4.970
36.70000 8.926
36.72000 4.302
36.74000 2.387
36.76000 3.507
36.78000 7.112
36.80000 4.627
36.82000 1.130
36.84000 6.465
36.86000 2.709
36.88000 0.215
36.90000 1.569
36.92000 6.921
36.94000 5.984
36.96000 -1.649
36.98000 -3.589
37.00000 1.010
37.02000 3.009
37.04000 4.560
37.06000 3.197
37.08000 5.908
37.10000 5.824
37.12000 2.637
37.14000 0.939
37.16000 1.939
37.18000 1.150
37.20000 1.326
37.22000 0.913
37.24000 2.838
37.26000 2.991
37.28000 3.770
37.30000 0.936
37.32000 -0.595
37.34000 3.382
37.36000 3.538
37.38000 6.062
37.40000 6.902
37.42000 8.597
37.44000 3.240
37.46000 -1.472
37.48000 -3.209
37.50000 -1.151
37.52000 5.079
37.54000 4.465
37.56000 5.008
37.58000 7.562
37.60000 8.454
37.62000 4.912
37.64000 1.123
37.66000 0.117
37.68000 0.591
37.70000 3.399
37.72000 4.871
37.74000 6.925
37.76000 5.628
37.78000 7.586
37.80000 8.683
37.82000 7.779
37.84000 3.085
37.86000 6.031
37.88000 2.256
37.90000 2.837
37.92000 5.217
37.94000 5.642
37.96000 11.104
37.98000 7.160
38.00000 6.372
38.02000 7.761
38.04000 5.629
38.06000 10.521
38.08000 10.772
38.10000 16.383
38.12000 14.035
38.14000 10.961
38.16000 10.852
38.18000 12.190
38.20000 9.783
38.22000 14.412
38.24000 12.813
38.26000 11.069
38.28000 14.516
38.30000 12.372
38.32000 13.626
38.34000 16.371
38.36000 16.609
38.38000 15.066
38.40000 15.657
38.42000 20.432
38.44000 20.914
38.46000 21.086
38.48000 20.630
38.50000 17.797
38.52000 20.852
38.54000 21.700
38.56000 20.820
38.58000 23.752
38.60000 23.028
38.62000 22.267
38.64000 21.687
38.66000 26.406
38.68000 31.942
38.70000 29.891
38.72000 32.334
38.74000 30.266
38.76000 31.043
38.78000 36.497
38.80000 30.256
38.82000 28.434
38.84000 28.626
38.86000 31.161
38.88000 40.573
38.90000 32.571
38.92000 29.609
38.94000 36.101
38.96000 40.559
38.98000 43.375
39.00000 41.704
39.02000 46.953
39.04000 47.924
39.06000 52.988
39.08000 50.987
39.10000 50.789
39.12000 53.641
39.14000 57.567
39.16000 63.039
39.18000 64.475
39.20000 68.854
39.22000 74.645
39.24000 72.828
39.26000 70.468
39.28000 75.403
39.30000 78.702
39.32000 78.535
39.34000 78.885
39.36000 85.611
39.38000 90.083
39.40000 96.497
39.42000 99.648
39.44000 107.481
39.46000 109.044
39.48000 112.490
39.50000 120.125
39.52000 122.773
39.54000 126.624
39.56000 138.266
39.58000 145.290
39.60000 154.213
39.62000 159.424
39.64000 168.991
39.66000 171.875
39.68000 178.977
39.70000 182.773
39.72000 197.687
39.74000 207.919
39.76000 213.859
39.78000 224.736
39.80000 238.152
39.82000 243.951
39.84000 258.891
39.86000 270.379
39.88000 287.877
39.90000 298.348
39.92000 312.038
39.94000 331.397
39.96000 345.830
39.98000 350.326
40.00000 362.951
40.02000 386.500
40.04000 420.032
40.06000 431.881
40.08000 452.065
40.10000 462.357
40.12000 470.051
40.14000 491.085
40.16000 497.579
40.18000 511.024
40.20000 530.053
40.22000 544.894
40.24000 563.675
40.26000 584.400
40.28000 603.002
40.30000 608.788
40.32000 616.284
40.34000 619.664
40.36000 624.156
40.38000 637.749
40.40000 647.225
40.42000 653.259
40.44000 657.945
40.46000 656.792
40.48000 641.162
40.50000 628.889
40.52000 631.323
40.54000 626.463
40.56000 614.993
40.58000 607.474
40.60000 589.072
40.62000 586.893
40.64000 576.219
40.66000 561.015
40.68000 538.887
40.70000 522.600
40.72000 510.005
40.74000 502.598
40.76000 476.587
40.78000 459.974
40.80000 445.731
40.82000 420.816
40.84000 401.261
40.86000 387.385
40.88000 374.822
40.90000 357.594
40.92000 338.916
40.94000 335.529
40.96000 317.805
40.98000 292.492
41.00000 278.624
41.02000 275.424
41.04000 254.980
41.06000 237.223
41.08000 219.318
41.10000 213.092
41.12000 201.294
41.14000 196.606
41.16000 188.242
41.18000 168.421
41.20000 160.307
41.22000 156.015
41.24000 145.663
41.26000 140.204
41.28000 136.513
41.30000 125.043
41.32000 121.043
41.34000 115.072
41.36000 109.467
41.38000 102.265
41.40000 92.036
41.42000 88.911
41.44000 88.034
41.46000 87.467
41.48000 83.884
41.50000 77.827
41.52000 72.479
41.54000 65.382
41.56000 60.146
41.58000 56.504
41.60000 50.911
41.62000 51.814
41.64000 55.358
41.66000 53.928
41.68000 48.173
41.70000 47.759
41.72000 44.409
41.74000 42.121
41.76000 37.124
41.78000 36.462
41.80000 36.279
41.82000 36.711
41.84000 33.061
41.86000 29.649
41.88000 26.564
41.90000 29.727
41.92000 28.905
41.94000 26.582
41.96000 24.446
41.98000 20.733
42.00000 20.447
42.02000 22.112
42.04000 17.402
42.06000 19.067
42.08000 15.250
42.10000 17.038
42.12000 12.021
42.14000 11.176
42.16000 18.531
42.18000 14.657
42.20000 13.542
42.22000 12.292
42.24000 11.124
42.26000 11.533
42.28000 5.034
42.30000 6.943
42.32000 8.868
42.34000 7.474
42.36000 7.019
42.38000 7.771
42.40000 6.595
42.42000 5.959
42.44000 9.091
42.46000 11.547
42.48000 3.975
42.50000 3.054
42.52000 4.596
42.54000 6.813
42.56000 6.362
42.58000 0.833
42.60000 1.599
42.62000 1.993
42.64000 7.999
42.66000 5.916
42.68000 2.022
42.70000 0.123
42.72000 1.068
42.74000 4.933
42.76000 3.970
42.78000 2.384
42.80000 4.296
42.82000 5.536
42.84000 3.798
42.86000 0.775
42.88000 1.333
42.90000 3.795
42.92000 4.069
42.94000 2.558
42.96000 0.932
42.98000 1.301
43.00000 3.404
43.02000 -0.574
43.04000 -3.390
43.06000 2.046
43.08000 0.383
43.10000 0.086
43.12000 2.146
43.14000 2.188
43.16000 1.704
43.18000 2.310
43.20000 -3.593
43.22000 -0.186
43.24000 2.975
43.26000 6.716
43.28000 3.133
43.30000 3.858
43.32000 3.872
43.34000 6.251
43.36000 6.961
43.38000 2.150
43.40000 2.578
43.42000 2.268
43.44000 0.667
43.46000 5.479
43.48000 6.267
43.50000 1.682
43.52000 1.096
43.54000 1.403
43.56000 2.205
43.58000 0.556
43.60000 0.546
43.62000 1.418
43.64000 4.676
43.66000 4.708
43.68000 1.076
43.70000 3.673
43.72000 -1.892
43.74000 -3.513
43.76000 -2.850
43.78000 2.791
43.80000 -0.991
43.82000 -0.775
43.84000 2.063
43.86000 -1.660
43.88000 -2.302
43.90000 4.953
43.92000 5.282
43.94000 2.547
43.96000 3.119
43.98000 5.373
44.00000 5.197
44.02000 4.749
44.04000 0.833
44.06000 -0.986
44.08000 1.386
44.10000 2.490
44.12000 1.058
44.14000 3.414
44.16000 2.462
44.18000 -0.023
44.20000 -1.044
44.22000 3.503
44.24000 6.282
44.26000 2.793
44.28000 -0.132
44.30000 -0.985
44.32000 2.538
44.34000 3.894
44.36000 1.514
44.38000 0.467
44.40000 1.757
44.42000 -0.399
44.44000 0.544
44.46000 4.540
44.48000 -3.502
44.50000 -1.719
44.52000 4.987
44.54000 6.759
44.56000 8.389
44.58000 4.357
44.60000 4.453
44.62000 7.970
44.64000 11.294
44.66000 8.484
44.68000 3.611
44.70000 2.721
44.72000 -0.427
44.74000 -2.771
44.76000 2.932
44.78000 7.655
44.80000 7.564
44.82000 5.996
44.84000 6.324
44.86000 1.896
44.88000 0.636
44.90000 1.242
44.92000 4.922
44.94000 4.197
44.96000 8.058
44.98000 7.213
45.00000 8.326
45.02000 9.104
45.04000 11.989
45.06000 12.574
45.08000 4.078
45.10000 3.865
45.12000 4.141
45.14000 1.029
45.16000 5.408
45.18000 13.105
45.20000 7.900
45.22000 4.530
45.24000 0.551
45.26000 4.368
45.28000 5.261
45.30000 7.561
45.32000 9.854
45.34000 14.745
45.36000 12.833
45.38000 9.410
45.40000 9.310
45.42000 12.033
45.44000 8.896
45.46000 8.535
45.48000 8.191
45.50000 11.741
45.52000 14.383
45.54000 16.645
45.56000 15.249
45.58000 7.423
45.60000 12.366
45.62000 16.217
45.64000 21.283
45.66000 17.693
45.68000 16.340
45.70000 17.131
45.72000 23.796
45.74000 20.306
45.76000 18.125
45.78000 28.761
45.80000 26.435
45.82000 26.863
45.84000 24.726
45.86000 25.174
45.88000 27.698
45.90000 26.997
45.92000 34.568
45.94000 27.681
45.96000 27.994
45.98000 33.113
46.00000 36.390
46.02000 37.641
46.04000 36.890
46.06000 39.748
46.08000 38.111
46.10000 37.432
46.12000 34.712
46.14000 38.560
46.16000 41.406
46.18000 47.688
46.20000 52.638
46.22000 49.216
46.24000 44.644
46.26000 42.842
46.28000 39.637
46.30000 44.164
46.32000 46.012
46.34000 50.436
46.36000 56.714
46.38000 54.452
46.40000 54.531
46.42000 58.176
46.44000 57.776
46.46000 62.023
46.48000 60.132
46.50000 64.060
46.52000 66.951
46.54000 67.441
46.56000 71.911
46.58000 74.844
46.60000 65.981
46.62000 62.360
46.64000 71.012
46.66000 69.926
46.68000 72.011
46.70000 72.589
46.72000 72.866
46.74000 75.523
46.76000 74.250
46.78000 74.291
46.80000 77.590
46.82000 76.599
46.84000 77.417
46.86000 78.678
46.88000 81.337
46.90000 85.545
46.92000 86.274
46.94000 80.909
46.96000 80.312
46.98000 81.575
47.00000 89.606
47.02000 84.811
47.04000 82.954
47.06000 81.678
47.08000 83.118
47.10000 82.232
47.12000 76.354
47.14000 71.636
47.16000 81.955
47.18000 78.168
47.20000 77.278
47.22000 83.622
47.24000 82.727
47.26000 77.540
47.28000 75.934
47.30000 70.815
47.32000 71.931
47.34000 75.570
47.36000 71.435
47.38000 71.000
47.40000 80.146
47.42000 77.635
47.44000 70.417
47.46000 63.601
47.48000 57.758
47.50000 60.057
47.52000 55.745
47.54000 55.028
47.56000 59.803
47.58000 59.419
47.60000 61.342
47.62000 59.238
47.64000 52.898
47.66000 51.565
47.68000 45.392
47.70000 43.096
47.72000 46.281
47.74000 46.145
47.76000 42.207
47.78000 44.310
47.80000 42.962
47.82000 38.127
47.84000 32.090
47.86000 33.262
47.88000 30.776
47.90000 30.187
47.92000 33.442
47.94000 32.619
47.96000 31.458
47.98000 33.943
48.00000 26.862
48.02000 29.101
48.04000 31.091
48.06000 24.343
48.08000 18.026
48.10000 20.824
48.12000 24.235
48.14000 22.130
48.16000 23.771
48.18000 22.286
48.20000 18.186
48.22000 19.537
48.24000 14.832
48.26000 12.916
48.28000 12.714
48.30000 13.212
48.32000 9.036
48.34000 11.048
48.36000 10.166
48.38000 13.493
48.40000 15.304
48.42000 13.647
48.44000 10.751
48.46000 8.752
48.48000 11.806
48.50000 14.838
48.52000 9.094
48.54000 6.116
48.56000 6.384
48.58000 5.883
48.60000 5.039
48.62000 9.316
48.64000 2.432
48.66000 3.324
48.68000 4.039
48.70000 6.879
48.72000 15.688
48.74000 11.497
48.76000 5.120
48.78000 4.069
48.80000 6.231
48.82000 4.804
48.84000 4.238
48.86000 6.686
48.88000 6.135
48.90000 6.832
48.92000 2.362
48.94000 -0.780
48.96000 1.972
48.98000 3.144
49.00000 4.382
49.02000 6.148
49.04000 3.567
49.06000 6.787
49.08000 13.759
49.10000 11.560
49.12000 2.514
49.14000 -3.141
49.16000 1.480
49.18000 2.366
49.20000 -0.757
49.22000 2.054
49.24000 7.648
49.26000 4.953
49.28000 8.088
49.30000 4.605
49.32000 2.300
49.34000 2.462
49.36000 1.918
49.38000 4.205
49.40000 1.927
49.42000 8.479
49.44000 8.507
49.46000 7.487
49.48000 4.604
49.50000 8.654
49.52000 4.431
49.54000 2.801
49.56000 -1.547
49.58000 4.580
49.60000 9.896
49.62000 8.188
49.64000 4.607
49.66000 5.788
49.68000 5.668
49.70000 9.641
49.72000 9.407
49.74000 6.762
49.76000 9.806
49.78000 7.039
49.80000 5.135
49.82000 6.369
49.84000 6.860
49.86000 0.078
49.88000 -1.484
49.90000 4.982
49.92000 7.502
49.94000 10.330
49.96000 3.483
49.98000 6.387
50.00000 10.652
50.02000 7.186
50.04000 8.479
50.06000 1.613
50.08000 3.869
50.10000 1.670
50.12000 -0.675
50.14000 -3.028
50.16000 -0.782
50.18000 5.395
50.20000 4.246
50.22000 1.184
50.24000 1.201
50.26000 2.010
50.28000 2.616
50.30000 2.674
50.32000 3.866
50.34000 4.681
50.36000 -2.159
50.38000 2.238
50.40000 2.674
50.42000 2.972
50.44000 7.093
50.46000 12.454
50.48000 17.813
50.50000 4.191
50.52000 1.566
50.54000 3.461
50.56000 0.374
50.58000 5.392
50.60000 6.845
50.62000 5.581
50.64000 2.406
50.66000 -0.374
50.68000 -0.403
50.70000 2.810
50.72000 7.552
50.74000 4.542
50.76000 -0.069
50.78000 0.967
50.80000 4.848
50.82000 3.457
50.84000 -3.003
50.86000 2.744
50.88000 6.415
50.90000 4.011
50.92000 4.404
50.94000 7.816
50.96000 6.357
50.98000 9.951
51.00000 4.987
51.02000 6.086
51.04000 2.356
51.06000 6.159
51.08000 4.834
51.10000 1.203
51.12000 4.199
51.14000 6.317
51.16000 8.813
51.18000 7.185
51.20000 10.031
51.22000 7.796
51.24000 5.518
51.26000 1.838
51.28000 3.660
51.30000 5.260
51.32000 3.404
51.34000 -0.114
51.36000 5.390
51.38000 5.169
51.40000 2.981
51.42000 3.835
51.44000 7.975
51.46000 6.491
51.48000 6.096
51.50000 7.337
51.52000 4.390
51.54000 4.292
51.56000 6.144
51.58000 6.234
51.60000 4.153
51.62000 5.760
51.64000 5.483
51.66000 3.246
51.68000 2.343
51.70000 1.660
51.72000 2.978
51.74000 6.034
51.76000 8.882
51.78000 7.524
51.80000 5.167
51.82000 6.307
51.84000 2.545
51.86000 1.577
51.88000 3.008
51.90000 1.179
51.92000 -2.963
51.94000 1.709
51.96000 5.866
51.98000 1.179
52.00000 3.592
52.02000 5.523
52.04000 1.286
52.06000 2.430
52.08000 6.088
52.10000 1.818
52.12000 0.322
52.14000 -0.343
52.16000 -1.601
52.18000 1.341
52.20000 3.359
52.22000 0.774
52.24000 4.009
52.26000 8.909
52.28000 5.563
52.30000 0.183
52.32000 1.487
52.34000 3.002
52.36000 -2.185
52.38000 -0.739
52.40000 5.497
52.42000 2.676
52.44000 -1.727
52.46000 -2.432
52.48000 2.042
52.50000 4.853
52.52000 5.518
52.54000 5.366
52.56000 5.052
52.58000 4.501
52.60000 8.199
52.62000 5.423
52.64000 -0.951
52.66000 3.687
52.68000 4.114
52.70000 2.924
52.72000 2.578
52.74000 7.516
52.76000 5.667
52.78000 4.775
52.80000 1.641
52.82000 0.276
52.84000 -2.929
52.86000 -2.124
52.88000 -1.842
52.90000 1.498
52.92000 2.183
52.94000 2.264
52.96000 5.240
52.98000 -0.514
53.00000 -1.415
53.02000 3.533
53.04000 4.996
53.06000 5.564
53.08000 3.950
53.10000 8.072
53.12000 5.813
53.14000 6.888
53.16000 2.054
53.18000 4.421
53.20000 3.963
53.22000 4.749
53.24000 8.990
53.26000 3.908
53.28000 4.034
53.30000 2.704
53.32000 5.309
53.34000 7.813
53.36000 4.698
53.38000 5.333
53.40000 2.104
53.42000 -2.934
53.44000 -0.869
53.46000 5.267
53.48000 5.774
53.50000 3.438
53.52000 4.124
53.54000 3.142
53.56000 3.247
53.58000 0.392
53.60000 -0.269
53.62000 1.798
53.64000 8.750
53.66000 1.604
53.68000 6.864
53.70000 9.803
53.72000 9.977
53.74000 3.919
53.76000 -1.067
53.78000 -2.433
53.80000 7.416
53.82000 2.752
53.84000 0.684
53.86000 2.959
53.88000 0.392
53.90000 0.472
53.92000 1.769
53.94000 -0.730
53.96000 -0.122
53.98000 1.529
54.00000 2.205
54.02000 1.103
54.04000 -0.778
54.06000 1.888
54.08000 0.137
54.10000 1.605
54.12000 6.097
54.14000 5.890
54.16000 -0.375
54.18000 -0.322
54.20000 1.024
54.22000 -1.379
54.24000 -1.035
54.26000 -0.696
54.28000 3.930
54.30000 4.138
54.32000 3.089
54.34000 1.802
54.36000 0.135
54.38000 2.148
54.40000 2.217
54.42000 -0.228
54.44000 0.483
54.46000 0.330
54.48000 0.831
54.50000 -2.908
54.52000 -1.273
54.54000 4.131
54.56000 5.534
54.58000 2.097
54.60000 -0.605
54.62000 -1.552
54.64000 6.627
54.66000 -2.685
54.68000 -2.327
54.70000 0.785
54.72000 0.963
54.74000 2.209
54.76000 3.401
54.78000 1.628
54.80000 2.215
54.82000 1.870
54.84000 1.056
54.86000 6.737
54.88000 6.664
54.90000 0.416
54.92000 -2.883
54.94000 -1.855
54.96000 -0.380
54.98000 0.833
55.00000 4.721
55.02000 3.784
55.04000 2.840
55.06000 0.839
55.08000 3.651
55.10000 9.514
55.12000 6.930
55.14000 0.738
55.16000 1.051
55.18000 4.882
55.20000 1.857
55.22000 2.525
55.24000 5.008
55.26000 0.918
55.28000 1.114
55.30000 4.231
55.32000 -2.076
55.34000 3.135
55.36000 4.691
55.38000 5.027
55.40000 4.731
55.42000 3.248
55.44000 -1.094
55.46000 6.488
55.48000 7.085
55.50000 3.250
55.52000 1.532
55.54000 2.260
55.56000 2.576
55.58000 8.428
55.60000 7.554
55.62000 0.943
55.64000 1.819
55.66000 5.283
55.68000 5.130
55.70000 7.127
55.72000 3.973
55.74000 4.867
55.76000 5.500
55.78000 4.440
55.80000 2.310
55.82000 4.680
55.84000 4.685
55.86000 5.974
55.88000 4.480
55.90000 3.004
55.92000 3.723
55.94000 7.185
55.96000 2.390
55.98000 8.137
56.00000 9.622
56.02000 5.877
56.04000 -0.185
56.06000 4.486
56.08000 5.147
56.10000 2.396
56.12000 3.340
56.14000 6.886
56.16000 7.109
56.18000 3.753
56.20000 0.264
56.22000 3.089
56.24000 -2.801
56.26000 -0.372
56.28000 0.675
56.30000 1.611
56.32000 3.581
56.34000 8.286
56.36000 6.338
56.38000 3.587
56.40000 -1.489
56.42000 0.991
56.44000 3.936
56.46000 1.880
56.48000 2.745
56.50000 5.399
56.52000 5.560
56.54000 5.624
56.56000 5.252
56.58000 2.885
56.60000 5.294
56.62000 3.864
56.64000 2.973
56.66000 3.019
56.68000 6.358
56.70000 6.206
56.72000 6.103
56.74000 2.763
56.76000 5.231
56.78000 4.934
56.80000 2.960
56.82000 -0.365
56.84000 6.186
56.86000 5.880
56.88000 2.678
56.90000 4.431
56.92000 5.427
56.94000 2.878
56.96000 2.100
56.98000 -0.519
57.00000 -0.706
57.02000 5.760
57.04000 0.698
57.06000 -0.563
57.08000 0.952
57.10000 1.830
57.12000 3.975
57.14000 6.198
57.16000 9.864
57.18000 6.090
57.20000 3.027
57.22000 3.848
57.24000 4.964
57.26000 3.466
57.28000 4.447
57.30000 2.916
57.32000 4.884
57.34000 3.375
57.36000 1.005
57.38000 6.157
57.40000 2.792
57.42000 1.564
57.44000 2.482
57.46000 7.832
57.48000 1.654
57.50000 0.316
57.52000 2.004
57.54000 4.319
57.56000 1.253
57.58000 7.072
57.60000 6.968
57.62000 5.988
57.64000 2.534
57.66000 1.591
57.68000 3.776
57.70000 6.154
57.72000 2.688
57.74000 2.082
57.76000 0.999
57.78000 -0.190
57.80000 3.384
57.82000 4.915
57.84000 5.203
57.86000 9.574
57.88000 6.138
57.90000 0.581
57.92000 2.657
57.94000 1.591
57.96000 3.165
57.98000 4.445
58.00000 2.979
58.02000 -2.769
58.04000 0.707
58.06000 2.442
58.08000 1.953
58.10000 7.274
58.12000 5.334
58.14000 5.149
58.16000 2.787
58.18000 5.094
58.20000 6.269
58.22000 0.329
58.24000 0.010
58.26000 0.913
58.28000 0.364
58.30000 0.813
58.32000 2.416
58.34000 5.278
58.36000 4.586
58.38000 2.123
58.40000 0.860
58.42000 2.752
58.44000 3.192
58.46000 2.006
58.48000 7.242
58.50000 2.690
58.52000 1.852
58.54000 4.679
58.56000 3.399
58.58000 0.296
58.60000 0.234
58.62000 -2.754
58.64000 0.610
58.66000 5.907
58.68000 6.106
58.70000 7.734
58.72000 8.784
58.74000 5.538
58.76000 6.803
58.78000 4.923
58.80000 -0.812
58.82000 0.945
58.84000 -2.419
58.86000 -0.236
58.88000 -0.328
58.90000 2.796
58.92000 -1.405
58.94000 2.405
58.96000 1.655
58.98000 3.301
59.00000 8.821
59.02000 5.345
59.04000 5.891
59.06000 1.282
59.08000 -2.744
59.10000 -0.282
59.12000 4.145
59.14000 -0.742
59.16000 0.348
59.18000 -1.794
59.20000 -0.534
59.22000 3.577
59.24000 2.148
59.26000 3.299
59.28000 7.885
59.30000 7.071
59.32000 0.587
59.34000 2.366
59.36000 2.217
59.38000 0.760
59.40000 -0.245
59.42000 1.642
59.44000 1.389
59.46000 3.163
59.48000 4.408
59.50000 4.054
59.52000 8.605
59.54000 3.592
59.56000 2.492
59.58000 0.112
59.60000 0.266
59.62000 4.350
59.64000 7.101
59.66000 5.512
59.68000 0.424
59.70000 2.493
59.72000 10.298
59.74000 9.434
59.76000 7.928
59.78000 10.984
59.80000 9.230
59.82000 3.928
59.84000 -0.877
59.86000 -2.095
59.88000 -1.738
59.90000 3.046
59.92000 3.778
59.94000 6.366
59.96000 7.193
59.98000 6.257
60.00000 7.171
60.02000 2.595
60.04000 3.072
60.06000 3.019
60.08000 6.249
60.10000 5.392
60.12000 0.648
60.14000 1.348
60.16000 8.182
60.18000 6.850
60.20000 5.574
60.22000 4.523
60.24000 2.896
60.26000 4.948
60.28000 -2.678
60.30000 -1.913
60.32000 3.982
60.34000 2.444
60.36000 3.182
60.38000 7.516
60.40000 2.406
60.42000 1.035
60.44000 5.835
60.46000 7.001
60.48000 10.381
60.50000 7.071
60.52000 3.300
60.54000 6.596
60.56000 7.244
60.58000 9.872
60.60000 4.268
60.62000 4.794
60.64000 0.710
60.66000 3.524
60.68000 3.723
60.70000 5.464
60.72000 6.232
60.74000 5.593
60.76000 5.241
60.78000 2.820
60.80000 4.014
60.82000 4.859
60.84000 6.117
60.86000 3.964
60.88000 -0.863
60.90000 0.646
60.92000 2.759
60.94000 2.066
60.96000 1.009
60.98000 2.725
61.00000 1.214
61.02000 1.151
61.04000 3.537
61.06000 1.374
61.08000 1.460
61.10000 1.906
61.12000 2.865
61.14000 3.389
61.16000 1.637
61.18000 3.589
61.20000 3.886
61.22000 -0.125
61.24000 2.164
61.26000 4.444
61.28000 4.405
61.30000 -0.655
61.32000 -1.247
61.34000 1.373
61.36000 3.420
61.38000 1.908
61.40000 5.477
61.42000 1.458
61.44000 -2.654
61.46000 1.159
61.48000 5.689
61.50000 5.993
61.52000 1.774
61.54000 2.437
61.56000 1.675
61.58000 1.722
61.60000 0.715
61.62000 2.633
61.64000 3.666
61.66000 3.822
61.68000 -0.728
61.70000 1.770
61.72000 3.779
61.74000 9.879
61.76000 10.536
61.78000 1.433
61.80000 0.673
61.82000 6.302
61.84000 3.035
61.86000 3.383
61.88000 6.339
61.90000 7.763
61.92000 6.804
61.94000 0.110
61.96000 0.558
61.98000 3.224
62.00000 2.812
62.02000 1.472
62.04000 1.980
62.06000 2.216
62.08000 3.311
62.10000 -1.307
62.12000 -0.272
62.14000 2.572
62.16000 2.793
62.18000 4.284
62.20000 6.343
62.22000 5.633
62.24000 2.065
62.26000 2.158
62.28000 -0.602
62.30000 0.435
62.32000 -2.630
62.34000 -0.697
62.36000 1.798
62.38000 1.975
62.40000 3.678
62.42000 2.260
62.44000 5.271
62.46000 3.416
62.48000 3.395
62.50000 3.743
62.52000 0.446
62.54000 2.423
62.56000 8.433
62.58000 7.789
62.60000 4.214
62.62000 1.911
62.64000 -1.270
62.66000 3.514
62.68000 4.427
62.70000 1.231
62.72000 2.996
62.74000 -0.371
62.76000 0.206
62.78000 5.656
62.80000 2.789
62.82000 1.999
62.84000 3.007
62.86000 3.475
62.88000 1.304
62.90000 0.611
62.92000 1.634
62.94000 3.079
62.96000 3.691
62.98000 5.162
63.00000 5.344
63.02000 1.901
63.04000 -2.145
63.06000 -0.110
63.08000 5.361
63.10000 7.785
63.12000 2.263
63.14000 0.733
63.16000 3.900
63.18000 4.601
63.20000 2.720
63.22000 1.020
63.24000 3.316
63.26000 2.064
63.28000 3.415
63.30000 2.787
63.32000 4.900
63.34000 4.015
63.36000 4.827
63.38000 3.342
63.40000 2.677
63.42000 2.927
63.44000 3.888
63.46000 4.634
63.48000 1.646
63.50000 2.747
63.52000 2.019
63.54000 3.888
63.56000 3.793
63.58000 3.861
63.60000 1.299
63.62000 1.856
63.64000 5.510
63.66000 6.006
63.68000 3.290
63.70000 0.152
63.72000 0.323
63.74000 -1.111
63.76000 4.103
63.78000 3.967
63.80000 0.945
63.82000 -2.607
63.84000 1.429
63.86000 6.147
63.88000 4.939
63.90000 3.209
63.92000 4.665
63.94000 3.980
63.96000 7.605
63.98000 3.968
64.00000 4.166
64.02000 1.897
64.04000 0.252
64.06000 2.547
64.08000 1.046
64.10000 3.376
64.12000 7.138
64.14000 3.970
64.16000 4.232
64.18000 1.486
64.20000 1.598
64.22000 2.476
64.24000 3.862
64.26000 2.303
64.28000 1.795
64.30000 0.530
64.32000 5.473
64.34000 5.683
64.36000 4.345
64.38000 3.805
64.40000 4.512
64.42000 1.453
64.44000 2.756
64.46000 5.067
64.48000 4.624
64.50000 3.295
64.52000 0.034
64.54000 0.044
64.56000 5.656
64.58000 2.834
64.60000 1.733
64.62000 1.061
64.64000 5.191
64.66000 4.083
64.68000 2.290
64.70000 2.933
64.72000 0.336
64.74000 1.119
64.76000 3.355
64.78000 2.470
64.80000 2.369
64.82000 3.281
64.84000 -2.080
64.86000 -1.556
64.88000 0.771
64.90000 0.200
64.92000 0.266
64.94000 0.062
64.96000 3.629
64.98000 2.000
65.00000 1.214
65.02000 1.358
65.04000 3.308
65.06000 2.093
65.08000 6.170
65.10000 4.195
65.12000 -1.395
65.14000 0.977
65.16000 1.525
65.18000 0.388
65.20000 3.181
65.22000 0.079
65.24000 -0.430
65.26000 1.855
65.28000 3.001
65.30000 1.002
65.32000 -0.088
65.34000 2.564
65.36000 1.534
65.38000 3.100
65.40000 4.542
65.42000 -0.300
65.44000 -0.530
65.46000 0.935
65.48000 -1.609
65.50000 1.085
65.52000 4.290
65.54000 5.487
65.56000 5.426
65.58000 2.228
65.60000 -2.011
65.62000 -2.693
65.64000 -0.735
65.66000 -0.105
65.68000 2.818
65.70000 -0.366
65.72000 0.780
65.74000 2.458
65.76000 4.666
65.78000 1.574
65.80000 -1.135
65.82000 0.163
65.84000 1.869
65.86000 1.690
65.88000 0.475
65.90000 3.971
65.92000 0.763
65.94000 -0.098
65.96000 -1.037
65.98000 -0.766
66.00000 -1.181
66.02000 2.914
66.04000 1.697
66.06000 1.242
66.08000 5.395
66.10000 5.887
66.12000 2.826
66.14000 -0.157
66.16000 -0.368
66.18000 0.819
66.20000 0.604
66.22000 1.046
66.24000 0.128
66.26000 0.708
66.28000 2.543
66.30000 2.197
66.32000 -0.163
66.34000 -0.400
66.36000 -0.463
66.38000 2.791
66.40000 2.433
66.42000 -1.434
66.44000 -2.101
66.46000 3.270
66.48000 2.614
66.50000 5.061
66.52000 -0.088
66.54000 -1.256
66.56000 -2.694
66.58000 3.675
66.60000 5.169
66.62000 4.731
66.64000 3.148
66.66000 4.071
66.68000 4.303
66.70000 7.305
66.72000 3.832
66.74000 2.733
66.76000 0.785
66.78000 3.998
66.80000 3.570
66.82000 4.114
66.84000 2.363
66.86000 5.119
66.88000 8.152
66.90000 3.560
66.92000 1.708
66.94000 3.725
66.96000 5.148
66.98000 2.558
67.00000 4.463
67.02000 7.368
67.04000 5.607
67.06000 6.689
67.08000 3.154
67.10000 0.300
67.12000 0.195
67.14000 3.971
67.16000 4.605
67.18000 4.864
67.20000 5.592
67.22000 3.208
67.24000 2.228
67.26000 6.158
67.28000 5.973
67.30000 5.213
67.32000 1.493
67.34000 3.107
67.36000 4.165
67.38000 1.817
67.40000 5.956
67.42000 8.327
67.44000 3.498
67.46000 7.465
67.48000 10.604
67.50000 9.787
67.52000 4.778
67.54000 6.000
67.56000 11.282
67.58000 12.725
67.60000 10.814
67.62000 7.187
67.64000 5.759
67.66000 4.127
67.68000 7.949
67.70000 3.842
67.72000 8.785
67.74000 10.902
67.76000 8.850
67.78000 9.070
67.80000 7.179
67.82000 7.635
67.84000 13.924
67.86000 14.940
67.88000 13.773
67.90000 12.958
67.92000 11.907
67.94000 15.407
67.96000 15.130
67.98000 15.591
68.00000 14.257
68.02000 12.631
68.04000 15.006
68.06000 14.347
68.08000 13.735
68.10000 15.198
68.12000 17.599
68.14000 16.541
68.16000 20.600
68.18000 20.814
68.20000 17.876
68.22000 18.769
68.24000 22.823
68.26000 24.139
68.28000 24.283
68.30000 22.592
68.32000 19.636
68.34000 22.880
68.36000 27.341
68.38000 26.623
68.40000 28.488
68.42000 24.388
68.44000 23.103
68.46000 27.041
68.48000 29.408
68.50000 27.670
68.52000 24.135
68.54000 25.219
68.56000 29.976
68.58000 30.463
68.60000 25.698
68.62000 31.749
68.64000 30.788
68.66000 30.569
68.68000 28.957
68.70000 26.116
68.72000 25.586
68.74000 24.085
68.76000 23.042
68.78000 22.677
68.80000 25.036
68.82000 27.328
68.84000 26.544
68.86000 25.043
68.88000 29.121
68.90000 27.664
68.92000 27.092
68.94000 23.676
68.96000 26.977
68.98000 25.888
69.00000 17.176
69.02000 19.913
69.04000 21.345
69.06000 21.257
69.08000 19.605
69.10000 18.364
69.12000 15.534
69.14000 18.370
69.16000 19.078
69.18000 19.096
69.20000 21.268
69.22000 17.617
69.24000 18.879
69.26000 17.863
69.28000 14.223
69.30000 17.510
69.32000 18.347
69.34000 16.612
69.36000 14.573
69.38000 15.665
69.40000 14.640
69.42000 14.311
69.44000 13.918
69.46000 13.236
69.48000 10.001
69.50000 12.679
69.52000 14.922
69.54000 14.665
69.56000 6.971
69.58000 11.554
69.60000 10.638
69.62000 11.068
69.64000 9.132
69.66000 6.191
69.68000 5.227
69.70000 2.720
69.72000 8.920
69.74000 5.962
69.76000 6.508
69.78000 9.381
69.80000 7.235
69.82000 5.694
69.84000 3.031
69.86000 0.555
69.88000 0.204
69.90000 1.359
69.92000 -0.850
69.94000 3.882
69.96000 5.859
69.98000 8.166
70.00000 3.533
70.02000 2.405
70.04000 2.428
70.06000 7.061
70.08000 8.151
70.10000 7.540
70.12000 2.056
70.14000 2.807
70.16000 2.914
70.18000 0.112
70.20000 1.583
70.22000 7.062
70.24000 8.429
70.26000 5.508
70.28000 2.701
70.30000 7.300
70.32000 5.600
70.34000 2.393
70.36000 1.690
70.38000 3.441
70.40000 2.832
70.42000 -1.088
70.44000 4.639
70.46000 2.162
70.48000 -0.293
70.50000 5.332
70.52000 9.903
70.54000 7.105
70.56000 6.281
70.58000 5.057
70.60000 -2.606
70.62000 -0.214
70.64000 -2.603
70.66000 1.727
70.68000 3.377
70.70000 -1.573
70.72000 -0.831
70.74000 2.687
70.76000 2.616
70.78000 0.990
70.80000 0.609
70.82000 -1.704
70.84000 2.402
70.86000 2.943
70.88000 2.472
70.90000 1.377
70.92000 1.162
70.94000 0.385
70.96000 0.270
70.98000 -1.258
71.00000 1.059
71.02000 4.710
71.04000 8.171
71.06000 3.944
71.08000 2.611
71.10000 0.340
71.12000 4.033
71.14000 1.932
71.16000 -0.859
71.18000 7.112
71.20000 6.083
71.22000 1.778
71.24000 2.266
71.26000 5.340
71.28000 3.939
71.30000 1.031
71.32000 3.271
71.34000 2.932
71.36000 4.267
71.38000 2.534
71.40000 -1.533
71.42000 3.102
71.44000 0.224
71.46000 2.390
71.48000 4.197
71.50000 6.305
71.52000 3.127
71.54000 5.674
71.56000 5.086
71.58000 4.991
71.60000 2.597
71.62000 5.691
71.64000 8.478
71.66000 -0.213
71.68000 3.701
71.70000 10.867
71.72000 5.557
71.74000 3.797
71.76000 4.039
71.78000 1.550
71.80000 0.543
71.82000 -2.488
71.84000 -0.531
71.86000 3.238
71.88000 2.566
71.90000 5.364
71.92000 7.049
71.94000 6.749
71.96000 5.373
71.98000 6.496
72.00000 4.486
72.02000 6.819
72.04000 9.220
72.06000 5.436
72.08000 -0.342
72.10000 -0.313
72.12000 0.636
72.14000 0.467
72.16000 -0.620
72.18000 -0.613
72.20000 5.221
72.22000 6.207
72.24000 4.710
72.26000 -1.906
72.28000 0.110
72.30000 2.505
72.32000 2.336
72.34000 2.992
72.36000 1.196
72.38000 4.644
72.40000 1.531
72.42000 -0.175
72.44000 4.835
72.46000 5.576
72.48000 5.758
72.50000 5.484
72.52000 5.647
72.54000 0.873
72.56000 -2.146
72.58000 -2.463
72.60000 1.434
72.62000 5.773
72.64000 8.544
72.66000 4.881
72.68000 3.000
72.70000 4.860
72.72000 8.376
72.74000 6.577
72.76000 1.109
72.78000 -2.455
72.80000 2.068
72.82000 6.451
72.84000 4.354
72.86000 2.611
72.88000 4.791
72.90000 3.092
72.92000 2.917
72.94000 2.679
72.96000 2.794
72.98000 2.260
73.00000 4.694
73.02000 2.897
73.04000 2.895
73.06000 6.135
73.08000 5.991
73.10000 6.045
73.12000 4.867
73.14000 3.539
73.16000 4.967
73.18000 3.332
73.20000 1.757
73.22000 1.496
73.24000 5.214
73.26000 4.209
73.28000 0.669
73.30000 0.955
73.32000 2.941
73.34000 5.793
73.36000 6.020
73.38000 3.190
73.40000 4.096
73.42000 3.941
73.44000 4.819
73.46000 3.933
73.48000 2.264
73.50000 6.979
73.52000 1.940
73.54000 2.906
73.56000 3.211
73.58000 3.604
73.60000 10.828
73.62000 7.402
73.64000 2.169
73.66000 0.576
73.68000 3.156
73.70000 6.010
73.72000 2.089
73.74000 -2.444
73.76000 2.650
73.78000 4.696
73.80000 4.550
73.82000 3.964
73.84000 8.352
73.86000 5.546
73.88000 3.306
73.90000 2.097
73.92000 1.899
73.94000 1.432
73.96000 0.856
73.98000 0.662
74.00000 -1.882
74.02000 -0.555
74.04000 -1.342
74.06000 3.945
74.08000 2.243
74.10000 5.694
74.12000 7.242
74.14000 6.372
74.16000 4.954
74.18000 3.996
74.20000 1.602
74.22000 0.153
74.24000 3.920
74.26000 5.112
74.28000 2.777
74.30000 -0.221
74.32000 1.028
74.34000 4.076
74.36000 6.429
74.38000 4.410
74.40000 -0.317
74.42000 0.669
74.44000 1.819
74.46000 4.131
74.48000 3.797
74.50000 2.550
74.52000 1.611
74.54000 4.661
74.56000 4.933
74.58000 4.444
74.60000 6.450
74.62000 5.699
74.64000 3.175
74.66000 3.614
74.68000 2.792
74.70000 1.794
74.72000 4.664
74.74000 5.883
74.76000 3.395
74.78000 3.139
74.80000 2.390
74.82000 -0.110
74.84000 0.935
74.86000 2.488
74.88000 2.939
74.90000 1.559
74.92000 1.114
74.94000 -1.234
74.96000 -2.446
74.98000 1.135
75.00000 3.306
75.02000 3.665
75.04000 4.465
75.06000 4.980
75.08000 6.116
75.10000 3.821
75.12000 2.378
75.14000 3.493
75.16000 3.267
75.18000 5.005
75.20000 5.899
75.22000 2.341
75.24000 -0.868
75.26000 2.741
75.28000 -1.674
75.30000 1.103
75.32000 1.557
75.34000 1.203
75.36000 5.535
75.38000 6.516
75.40000 6.278
75.42000 1.955
75.44000 3.403
75.46000 5.766
75.48000 7.982
75.50000 5.367
75.52000 5.143
75.54000 1.897
75.56000 3.627
75.58000 4.809
75.60000 6.819
75.62000 8.470
75.64000 5.649
75.66000 4.322
75.68000 3.028
75.70000 3.391
75.72000 4.830
75.74000 -2.413
75.76000 2.419
75.78000 3.578
75.80000 3.862
75.82000 0.528
75.84000 4.350
75.86000 11.702
75.88000 10.673
75.90000 10.908
75.92000 8.877
75.94000 10.817
75.96000 8.156
75.98000 3.931
76.00000 4.802
76.02000 4.072
76.04000 5.901
76.06000 4.515
76.08000 4.050
76.10000 7.340
76.12000 6.342
76.14000 0.929
76.16000 2.796
76.18000 4.685
76.20000 2.432
76.22000 4.525
76.24000 9.495
76.26000 11.529
76.28000 6.074
76.30000 5.753
76.32000 7.076
76.34000 7.821
76.36000 7.488
76.38000 4.608
76.40000 7.775
76.42000 3.712
76.44000 5.733
76.46000 3.427
76.48000 3.501
76.50000 -2.430
76.52000 3.151
76.54000 7.241
76.56000 6.609
76.58000 9.108
76.60000 6.993
76.62000 2.194
76.64000 1.515
76.66000 1.808
76.68000 7.700
76.70000 3.978
76.72000 3.411
76.74000 5.653
76.76000 -1.142
76.78000 3.390
76.80000 8.022
76.82000 6.614
76.84000 3.811
76.86000 3.311
76.88000 3.692
76.90000 0.932
76.92000 1.859
76.94000 5.490
76.96000 6.699
76.98000 10.491
77.00000 5.222
77.02000 8.733
77.04000 4.328
77.06000 7.657
77.08000 4.185
77.10000 0.115
77.12000 4.225
77.14000 12.648
77.16000 10.915
77.18000 3.781
77.20000 1.511
77.22000 2.661
77.24000 7.547
77.26000 2.808
77.28000 2.950
77.30000 2.640
77.32000 -0.023
77.34000 1.498
77.36000 4.226
77.38000 2.125
77.40000 2.641
77.42000 6.841
77.44000 2.099
77.46000 1.290
77.48000 1.954
77.50000 1.770
77.52000 5.224
77.54000 4.263
77.56000 7.142
77.58000 11.269
77.60000 5.117
77.62000 2.121
77.64000 -0.980
77.66000 1.453
77.68000 2.365
77.70000 4.762
77.72000 3.564
77.74000 3.171
77.76000 0.124
77.78000 -2.308
77.80000 1.412
77.82000 3.722
77.84000 2.478
77.86000 3.543
77.88000 0.331
77.90000 0.396
77.92000 3.091
77.94000 -0.304
77.96000 -0.228
77.98000 0.729
78.00000 0.314
78.02000 5.493
78.04000 2.299
78.06000 7.333
78.08000 5.822
78.10000 6.298
78.12000 1.387
78.14000 9.268
78.16000 3.939
78.18000 -2.489
78.20000 2.642
78.22000 4.855
78.24000 3.370
78.26000 6.115
78.28000 4.340
78.30000 0.018
78.32000 2.152
78.34000 4.262
78.36000 1.630
78.38000 1.522
78.40000 -0.810
78.42000 1.838
78.44000 3.763
78.46000 0.945
78.48000 -0.053
78.50000 -1.899
78.52000 3.121
78.54000 4.773
78.56000 0.417
78.58000 1.900
78.60000 0.421
78.62000 -0.201
78.64000 1.261
78.66000 4.043
78.68000 5.734
78.70000 6.531
78.72000 8.889
78.74000 4.602
78.76000 1.753
78.78000 0.237
78.80000 4.967
78.82000 0.992
78.84000 4.129
78.86000 3.138
78.88000 3.263
78.90000 2.875
78.92000 3.010
78.94000 6.116
78.96000 2.891
78.98000 3.254
79.00000 -1.807
79.02000 -1.292
79.04000 -2.139
79.06000 3.865
79.08000 2.883
79.10000 -1.710
79.12000 -2.523
79.14000 -0.316
79.16000 3.756
79.18000 5.753
79.20000 7.029
79.22000 5.504
79.24000 2.724
79.26000 2.263
79.28000 4.586
79.30000 2.055
79.32000 5.568
79.34000 5.833
79.36000 7.159
79.38000 -2.523
79.40000 0.657
79.42000 2.826
79.44000 1.083
79.46000 1.762
79.48000 0.129
79.50000 2.807
79.52000 5.757
79.54000 5.642
79.56000 4.753
79.58000 6.425
79.60000 6.856
79.62000 7.610
79.64000 8.101
79.66000 3.947
79.68000 8.839
79.70000 8.695
79.72000 6.573
79.74000 3.381
79.76000 5.288
79.78000 5.457
79.80000 6.369
79.82000 -2.541
79.84000 2.522
79.86000 2.254
79.88000 4.359
79.90000 -0.531
79.92000 -1.456
79.94000 -0.439
79.96000 6.238
79.98000 2.513
80.00000 0.707
80.02000 5.351
80.04000 0.317
80.06000 0.075
80.08000 2.677
80.10000 3.129
80.12000 6.774
80.14000 5.205
80.16000 1.789
80.18000 -0.241
80.20000 0.005
80.22000 2.356
80.24000 6.361
80.26000 2.304
80.28000 0.882
80.30000 -0.065
80.32000 -0.113
80.34000 -0.387
80.36000 1.215
80.38000 5.501
80.40000 -0.371
80.42000 1.137
80.44000 1.444
80.46000 -0.105
80.48000 -1.973
80.50000 -0.835
80.52000 -2.628
80.54000 0.199
80.56000 0.914
80.58000 -1.367
80.60000 1.472
80.62000 8.280
80.64000 1.039
80.66000 -0.495
80.68000 -2.319
80.70000 7.083
80.72000 2.859
80.74000 -1.933
80.76000 2.587
80.78000 -0.184
80.80000 1.357
80.82000 2.837
80.84000 0.558
80.86000 0.313
80.88000 -0.703
80.90000 0.276
80.92000 5.655
80.94000 5.484
80.96000 2.579
80.98000 -0.396
81.00000 2.460
81.02000 -0.080
81.04000 0.188
81.06000 -2.679
81.08000 -1.546
81.10000 1.104
81.12000 -1.061
81.14000 -0.210
81.16000 -1.383
81.18000 2.178
81.20000 1.920
81.22000 3.146
81.24000 7.266
81.26000 3.583
81.28000 1.663
81.30000 2.044
81.32000 -0.990
81.34000 3.403
81.36000 4.988
81.38000 6.125
81.40000 4.023
81.42000 -0.392
81.44000 -0.060
81.46000 2.389
81.48000 5.809
81.50000 2.276
81.52000 6.379
81.54000 9.685
81.56000 10.234
81.58000 4.582
81.60000 9.245
81.62000 5.502
81.64000 1.593
81.66000 1.191
81.68000 9.504
81.70000 10.689
81.72000 5.462
81.74000 8.259
81.76000 2.461
81.78000 4.167
81.80000 6.497
81.82000 10.299
81.84000 9.118
81.86000 13.152
81.88000 11.273
81.90000 9.027
81.92000 10.133
81.94000 6.976
81.96000 7.179
81.98000 9.944
82.00000 5.370
82.02000 8.294
82.04000 8.361
82.06000 12.504
82.08000 12.265
82.10000 18.001
82.12000 16.148
82.14000 11.333
82.16000 14.161
82.18000 14.604
82.20000 14.586
82.22000 14.660
82.24000 12.605
82.26000 14.664
82.28000 18.948
82.30000 14.988
82.32000 15.507
82.34000 20.460
82.36000 19.766
82.38000 19.809
82.40000 23.529
82.42000 23.246
82.44000 12.450
82.46000 13.399
82.48000 15.669
82.50000 14.849
82.52000 16.203
82.54000 11.711
82.56000 12.238
82.58000 19.182
82.60000 16.404
82.62000 18.448
82.64000 21.371
82.66000 21.223
82.68000 20.450
82.70000 17.601
82.72000 21.500
82.74000 23.396
82.76000 20.266
82.78000 15.040
82.80000 17.451
82.82000 17.423
82.84000 24.141
82.86000 22.309
82.88000 26.839
82.90000 22.903
82.92000 20.187
82.94000 22.183
82.96000 24.301
82.98000 28.876
83.00000 31.147
83.02000 24.911
83.04000 18.643
83.06000 24.524
83.08000 22.880
83.10000 24.017
83.12000 20.673
83.14000 21.739
83.16000 21.829
83.18000 22.658
83.20000 26.776
83.22000 30.135
83.24000 25.904
83.26000 21.616
83.28000 28.171
83.30000 30.064
83.32000 21.046
83.34000 21.418
83.36000 20.828
83.38000 27.199
83.40000 24.907
83.42000 18.291
83.44000 21.810
83.46000 21.179
83.48000 20.677
83.50000 19.391
83.52000 20.574
83.54000 17.442
83.56000 16.883
83.58000 18.639
83.60000 17.128
83.62000 17.945
83.64000 16.591
83.66000 14.260
83.68000 14.735
83.70000 14.673
83.72000 15.352
83.74000 14.476
83.76000 16.863
83.78000 20.594
83.80000 18.017
83.82000 11.242
83.84000 10.590
83.86000 11.043
83.88000 11.751
83.90000 9.944
83.92000 11.370
83.94000 11.407
83.96000 8.888
83.98000 12.507
84.00000 11.760
84.02000 13.372
84.04000 6.237
84.06000 10.335
84.08000 9.201
84.10000 8.913
84.12000 8.155
84.14000 3.599
84.16000 5.340
84.18000 7.284
84.20000 3.535
84.22000 8.245
84.24000 7.235
84.26000 5.702
84.28000 8.691
84.30000 10.182
84.32000 9.835
84.34000 4.480
84.36000 2.697
84.38000 4.222
84.40000 6.310
84.42000 6.210
84.44000 6.173
84.46000 3.902
84.48000 5.629
84.50000 0.564
84.52000 -0.485
84.54000 3.532
84.56000 8.408
84.58000 1.855
84.60000 -0.457
84.62000 3.949
84.64000 4.939
84.66000 0.247
84.68000 -2.650
84.70000 -1.683
84.72000 3.948
84.74000 6.431
84.76000 4.596
84.78000 5.263
84.80000 0.926
84.82000 1.017
84.84000 -1.972
84.86000 -0.073
84.88000 4.582
84.90000 1.876
84.92000 3.419
84.94000 1.655
84.96000 0.853
84.98000 6.664
85.00000 6.545
85.02000 -0.903
85.04000 2.732
85.06000 -0.908
85.08000 -1.562
85.10000 1.238
85.12000 0.200
85.14000 1.094
85.16000 -2.593
85.18000 -2.404
85.20000 3.600
85.22000 6.327
85.24000 1.936
85.26000 1.296
85.28000 4.195
85.30000 0.521
85.32000 -2.574
85.34000 3.510
85.36000 4.633
85.38000 -0.022
85.40000 -1.755
85.42000 2.847
85.44000 3.366
85.46000 -0.172
85.48000 -1.043
85.50000 2.685
85.52000 -1.688
85.54000 0.785
85.56000 1.593
85.58000 0.955
85.60000 1.136
85.62000 2.643
85.64000 -1.804
85.66000 0.270
85.68000 1.770
85.70000 1.531
85.72000 -2.590
85.74000 3.313
85.76000 5.812
85.78000 0.776
85.80000 -1.452
85.82000 0.891
85.84000 3.578
85.86000 2.699
85.88000 3.889
85.90000 2.165
85.92000 0.825
85.94000 0.132
85.96000 0.457
85.98000 2.119
86.00000 -1.482
86.02000 4.133
86.04000 4.396
86.06000 1.348
86.08000 3.747
86.10000 2.207
86.12000 -1.134
86.14000 4.315
86.16000 9.445
86.18000 9.347
86.20000 4.427
86.22000 4.270
86.24000 3.581
86.26000 -1.248
86.28000 -2.604
86.30000 2.471
86.32000 10.341
86.34000 8.336
86.36000 2.801
86.38000 3.215
86.40000 4.367
86.42000 3.922
86.44000 3.702
86.46000 2.792
86.48000 9.121
86.50000 5.726
86.52000 3.395
86.54000 6.691
86.56000 6.684
86.58000 4.632
86.60000 4.202
86.62000 9.114
86.64000 10.076
86.66000 7.956
86.68000 6.462
86.70000 10.729
86.72000 11.203
86.74000 13.243
86.76000 13.851
86.78000 12.368
86.80000 14.585
86.82000 10.351
86.84000 12.086
86.86000 14.084
86.88000 16.820
86.90000 17.902
86.92000 14.812
86.94000 17.312
86.96000 15.653
86.98000 17.535
87.00000 16.061
87.02000 16.683
87.04000 12.302
87.06000 13.207
87.08000 19.318
87.10000 18.848
87.12000 21.033
87.14000 23.689
87.16000 22.543
87.18000 20.725
87.20000 22.764
87.22000 23.610
87.24000 26.203
87.26000 25.554
87.28000 31.796
87.30000 26.454
87.32000 19.172
87.34000 23.881
87.36000 27.584
87.38000 27.970
87.40000 27.109
87.42000 26.168
87.44000 23.776
87.46000 21.598
87.48000 31.314
87.50000 26.395
87.52000 23.683
87.54000 28.241
87.56000 26.640
87.58000 25.949
87.60000 25.267
87.62000 22.423
87.64000 16.901
87.66000 20.062
87.68000 18.120
87.70000 17.094
87.72000 20.001
87.74000 19.253
87.76000 27.169
87.78000 27.113
87.80000 23.235
87.82000 22.834
87.84000 20.408
87.86000 19.999
87.88000 17.781
87.90000 19.448
87.92000 20.377
87.94000 18.095
87.96000 24.311
87.98000 22.107
88.00000 19.297
88.02000 11.850
88.04000 12.279
88.06000 15.699
88.08000 19.372
88.10000 18.421
88.12000 17.143
88.14000 15.312
88.16000 17.798
88.18000 16.426
88.20000 11.947
88.22000 14.459
88.24000 13.039
88.26000 12.007
88.28000 13.078
88.30000 15.099
88.32000 11.027
88.34000 7.319
88.36000 13.771
88.38000 17.205
88.40000 14.625
88.42000 9.328
88.44000 7.883
88.46000 11.622
88.48000 9.900
88.50000 11.440
88.52000 11.336
88.54000 9.114
88.56000 8.943
88.58000 4.090
88.60000 4.525
88.62000 8.290
88.64000 6.967
88.66000 6.781
88.68000 7.123
88.70000 2.757
88.72000 5.284
88.74000 8.883
88.76000 6.458
88.78000 6.156
88.80000 5.571
88.82000 3.653
88.84000 0.033
88.86000 5.360
88.88000 7.038
88.90000 4.031
88.92000 1.859
88.94000 8.676
88.96000 4.078
88.98000 -2.453
89.00000 -0.750
89.02000 -0.960
89.04000 -1.098
89.06000 1.710
89.08000 1.921
89.10000 0.468
89.12000 1.106
89.14000 6.538
89.16000 6.248
89.18000 2.724
89.20000 8.029
89.22000 2.699
89.24000 1.886
89.26000 4.151
89.28000 7.259
89.30000 5.389
89.32000 1.284
89.34000 -0.794
89.36000 -0.204
89.38000 0.178
89.40000 -0.762
89.42000 0.997
89.44000 2.152
89.46000 2.049
89.48000 0.481
89.50000 5.994
89.52000 6.730
89.54000 -0.108
89.56000 6.751
89.58000 5.417
89.60000 -1.055
89.62000 -1.111
89.64000 2.893
89.66000 1.326
89.68000 -0.223
89.70000 1.191
89.72000 3.465
89.74000 3.030
89.76000 5.033
89.78000 7.053
89.80000 3.890
89.82000 3.404
89.84000 5.960
89.86000 1.247
89.88000 -0.716
89.90000 -2.338
89.92000 0.227
89.94000 2.729
89.96000 5.369
89.98000 3.880
90.00000 4.632
90.02000 6.379
90.04000 3.849
90.06000 2.026
90.08000 -0.497
90.10000 3.575
90.12000 2.732
90.14000 -2.324
90.16000 3.923
90.18000 2.343
90.20000 4.085
90.22000 4.443
90.24000 3.419
90.26000 2.872
90.28000 5.367
90.30000 4.284
90.32000 1.858
90.34000 1.003
90.36000 3.868
90.38000 4.778
90.40000 5.013
90.42000 2.341
90.44000 3.326
90.46000 4.964
90.48000 0.681
90.50000 2.845
90.52000 2.807
90.54000 1.590
90.56000 5.059
90.58000 3.587
90.60000 2.910
90.62000 1.643
90.64000 3.263
90.66000 4.261
90.68000 5.967
90.70000 -0.483
90.72000 -1.662
90.74000 1.581
90.76000 -0.582
90.78000 -0.365
90.80000 4.622
90.82000 5.816
90.84000 1.214
90.86000 1.361
90.88000 0.547
90.90000 0.161
90.92000 6.471
90.94000 3.773
90.96000 3.724
90.98000 2.874
91.00000 3.034
91.02000 2.986
91.04000 3.002
91.06000 5.392
91.08000 3.441
91.10000 1.871
91.12000 1.843
91.14000 3.762
91.16000 4.262
91.18000 4.563
91.20000 4.587
91.22000 0.498
91.24000 4.554
91.26000 5.609
91.28000 -2.331
91.30000 -0.457
91.32000 2.802
91.34000 8.849
91.36000 8.654
91.38000 4.052
91.40000 7.203
91.42000 2.931
91.44000 4.152
91.46000 7.152
91.48000 5.934
91.50000 5.239
91.52000 4.770
91.54000 1.616
91.56000 3.138
91.58000 3.614
91.60000 3.610
91.62000 1.363
91.64000 2.941
91.66000 4.742
91.68000 3.675
91.70000 6.502
91.72000 9.961
91.74000 8.173
91.76000 9.015
91.78000 2.365
91.80000 2.265
91.82000 2.961
91.84000 5.332
91.86000 2.861
91.88000 6.742
91.90000 5.543
91.92000 4.144
91.94000 0.628
91.96000 0.626
91.98000 -0.365
92.00000 1.274
92.02000 1.753
92.04000 -2.287
92.06000 3.844
92.08000 9.596
92.10000 12.056
92.12000 10.315
92.14000 15.693
92.16000 10.900
92.18000 9.634
92.20000 0.841
92.22000 3.617
92.24000 7.832
92.26000 4.327
92.28000 4.463
92.30000 9.798
92.32000 6.916
92.34000 4.645
92.36000 6.258
92.38000 5.885
92.40000 6.722
92.42000 1.752
92.44000 -0.289
92.46000 -0.563
92.48000 4.196
92.50000 9.634
92.52000 6.475
92.54000 2.514
92.56000 5.276
92.58000 3.815
92.60000 2.713
92.62000 5.857
92.64000 0.882
92.66000 4.756
92.68000 4.279
92.70000 6.598
92.72000 6.848
92.74000 6.625
92.76000 7.746
92.78000 6.775
92.80000 1.459
92.82000 2.630
92.84000 2.933
92.86000 4.767
92.88000 4.591
92.90000 3.236
92.92000 8.789
92.94000 8.496
92.96000 3.764
92.98000 4.370
93.00000 -0.893
93.02000 0.346
93.04000 3.312
93.06000 2.778
93.08000 2.262
93.10000 1.714
93.12000 8.007
93.14000 1.797
93.16000 3.457
93.18000 3.921
93.20000 -1.366
93.22000 5.960
93.24000 2.305
93.26000 -0.248
93.28000 3.047
93.30000 4.579
93.32000 4.718
93.34000 5.683
93.36000 3.279
93.38000 3.167
93.40000 3.523
93.42000 8.111
93.44000 11.646
93.46000 8.622
93.48000 3.091
93.50000 3.778
93.52000 -2.305
93.54000 0.719
93.56000 8.986
93.58000 8.599
93.60000 3.238
93.62000 2.522
93.64000 7.279
93.66000 5.668
93.68000 2.279
93.70000 1.765
93.72000 2.451
93.74000 4.680
93.76000 6.962
93.78000 4.627
93.80000 4.841
93.82000 4.616
93.84000 9.202
93.86000 7.856
93.88000 1.589
93.90000 -0.586
93.92000 -0.696
93.94000 4.632
93.96000 9.746
93.98000 9.833
94.00000 6.238
94.02000 3.936
94.04000 3.474
94.06000 6.052
94.08000 4.564
94.10000 -2.033
94.12000 3.382
94.14000 6.241
94.16000 2.625
94.18000 0.143
94.20000 7.119
94.22000 9.785
94.24000 7.834
94.26000 4.212
94.28000 4.279
94.30000 7.751
94.32000 10.053
94.34000 5.737
94.36000 4.908
94.38000 4.875
94.40000 8.130
94.42000 6.193
94.44000 3.706
94.46000 -2.312
94.48000 -0.740
94.50000 5.194
94.52000 8.720
94.54000 11.355
94.56000 7.833
94.58000 5.673
94.60000 2.355
94.62000 4.040
94.64000 5.731
94.66000 7.567
94.68000 7.898
94.70000 6.344
94.72000 8.303
94.74000 7.852
94.76000 8.518
94.78000 4.290
94.80000 1.113
94.82000 5.301
94.84000 10.052
94.86000 3.877
94.88000 7.437
94.90000 10.172
94.92000 6.141
94.94000 6.638
94.96000 10.764
94.98000 9.747
95.00000 10.316
95.02000 5.554
95.04000 2.124
95.06000 3.218
95.08000 3.806
95.10000 6.055
95.12000 5.807
95.14000 6.331
95.16000 4.518
95.18000 6.693
95.20000 6.347
95.22000 7.675
95.24000 0.100
95.26000 0.923
95.28000 3.596
95.30000 4.060
95.32000 0.131
95.34000 2.577
95.36000 4.079
95.38000 -0.084
95.40000 -1.494
95.42000 -0.873
95.44000 4.641
95.46000 6.057
95.48000 4.521
95.50000 2.422
95.52000 5.876
95.54000 8.080
95.56000 7.756
95.58000 1.757
95.60000 -1.151
95.62000 2.396
95.64000 2.100
95.66000 2.539
95.68000 0.205
95.70000 4.073
95.72000 3.139
95.74000 -0.721
95.76000 4.794
95.78000 6.555
95.80000 2.681
95.82000 6.149
95.84000 1.809
95.86000 3.639
95.88000 7.421
95.90000 7.241
95.92000 3.356
95.94000 -1.318
95.96000 -2.331
95.98000 5.105
96.00000 7.972
96.02000 5.620
96.04000 12.306
96.06000 7.910
96.08000 6.515
96.10000 3.684
96.12000 3.822
96.14000 -0.326
96.16000 0.606
96.18000 4.752
96.20000 1.521
96.22000 3.363
96.24000 1.239
96.26000 6.982
96.28000 4.911
96.30000 11.878
96.32000 7.798
96.34000 2.321
96.36000 6.955
96.38000 6.406
96.40000 4.231
96.42000 4.454
96.44000 0.143
96.46000 6.641
96.48000 6.523
96.50000 5.571
96.52000 11.752
96.54000 7.767
96.56000 6.649
96.58000 8.531
96.60000 4.982
96.62000 2.110
96.64000 -2.315
96.66000 -1.762
96.68000 1.870
96.70000 7.238
96.72000 3.864
96.74000 1.736
96.76000 6.968
96.78000 8.692
96.80000 3.975
96.82000 6.801
96.84000 1.758
96.86000 1.895
96.88000 7.027
96.90000 8.542
96.92000 6.259
96.94000 5.464
96.96000 5.246
96.98000 3.068
97.00000 3.317
97.02000 12.623
97.04000 4.357
97.06000 3.805
97.08000 8.628
97.10000 5.428
97.12000 4.179
97.14000 4.450
97.16000 8.062
97.18000 -0.312
97.20000 5.684
97.22000 5.972
97.24000 7.432
97.26000 0.510
97.28000 1.739
97.30000 -2.319
97.32000 1.623
97.34000 6.273
97.36000 3.958
97.38000 0.370
97.40000 0.553
97.42000 8.542
97.44000 7.524
97.46000 1.483
97.48000 5.031
97.50000 2.891
97.52000 4.506
97.54000 7.250
97.56000 3.368
97.58000 1.275
97.60000 0.791
97.62000 4.860
97.64000 1.042
97.66000 -0.637
97.68000 8.516
97.70000 8.178
97.72000 11.767
97.74000 13.416
97.76000 8.878
97.78000 6.577
97.80000 6.897
97.82000 1.885
97.84000 8.112
97.86000 8.303
97.88000 7.431
97.90000 7.131
97.92000 7.191
97.94000 6.408
97.96000 14.280
97.98000 11.069
98.00000 10.959
98.02000 12.306
98.04000 3.887
98.06000 3.471
98.08000 6.538
98.10000 9.505
98.12000 2.190
98.14000 1.295
98.16000 8.796
98.18000 11.243
98.20000 10.554
98.22000 -2.910
98.24000 1.033
98.26000 8.265
98.28000 3.990
98.30000 -3.567
98.32000 8.247
98.34000 12.537
98.36000 7.403
98.38000 7.578
98.40000 13.620
98.42000 12.844
98.44000 10.198
98.46000 0.063
98.48000 8.437
98.50000 6.783
98.52000 6.651
98.54000 7.354
98.56000 9.073
98.58000 3.518
98.60000 2.022
98.62000 1.707
98.64000 0.032
98.66000 1.558
98.68000 7.260
98.70000 -2.239
98.72000 2.523
98.74000 6.216
98.76000 8.144
98.78000 20.648
98.80000 13.202
98.82000 14.229
98.84000 8.370
98.86000 5.760
98.88000 -0.168
98.90000 1.672
98.92000 4.967
98.94000 1.817
98.96000 5.918
98.98000 3.010
99.00000 3.561
99.02000 11.082
99.04000 9.099
99.06000 8.978
99.08000 12.263
99.10000 -0.996
99.12000 13.048
99.14000 12.312
99.16000 2.158
99.18000 4.562
99.20000 8.386
99.22000 10.428
99.24000 20.201
99.26000 6.132
99.28000 13.195
99.30000 14.879
99.32000 13.470
99.34000 9.081
99.36000 7.863
99.38000 2.749
99.40000 14.260
99.42000 10.487
99.44000 7.810
99.46000 4.970
99.48000 9.417
99.50000 15.855
99.52000 11.264
99.54000 20.355
99.56000 6.357
99.58000 7.544
99.60000 18.847
99.62000 14.590
99.64000 25.656
99.66000 14.355
99.68000 -0.434
99.70000 -2.190
99.72000 5.820
99.74000 5.639
99.76000 4.294
99.78000 -1.004
99.80000 11.377
99.82000 6.566
99.84000 2.800
99.86000 2.222
99.88000 1.043
99.90000 -0.441
99.92000 -2.431
99.94000 -0.247
99.96000 -2.482
99.98000 0.000
