'Id: "0011388" Comment: "Integrate frame 0011388_Au-Ir-Rh_Rh-rich_XRD-Mapping-336-0000.gfrmwith cursor Wedge Cursor #5" Operator: "B?rgel" Anode: "Cu" Wavelength: "1.5406" Scantype: "2Theta (TwoTheta)" TimePerStep: "1" X: "-9" Y: "45" Z: "5.95" 
10.00000 0.000
10.02000 -1.287
10.04000 -4.454
10.06000 1.407
10.08000 12.788
10.10000 24.909
10.12000 26.109
10.14000 10.765
10.16000 24.618
10.18000 16.858
10.20000 7.014
10.22000 7.034
10.24000 12.695
10.26000 24.326
10.28000 14.555
10.30000 3.213
10.32000 7.507
10.34000 16.297
10.36000 30.011
10.38000 17.708
10.40000 13.950
10.42000 27.705
10.44000 28.107
10.46000 40.253
10.48000 24.687
10.50000 5.464
10.52000 -4.393
10.54000 14.521
10.56000 15.220
10.58000 15.266
10.60000 29.373
10.62000 34.898
10.64000 26.233
10.66000 12.395
10.68000 15.879
10.70000 12.484
10.72000 21.400
10.74000 19.700
10.76000 25.299
10.78000 21.954
10.80000 27.862
10.82000 16.736
10.84000 13.046
10.86000 11.846
10.88000 3.851
10.90000 20.968
10.92000 25.343
10.94000 36.452
10.96000 21.262
10.98000 23.282
11.00000 10.845
11.02000 5.661
11.04000 20.148
11.06000 25.193
11.08000 20.699
11.10000 20.711
11.12000 20.739
11.14000 22.911
11.16000 21.690
11.18000 13.973
11.20000 20.022
11.22000 23.394
11.24000 27.954
11.26000 24.941
11.28000 22.727
11.30000 13.745
11.32000 19.325
11.34000 29.403
11.36000 22.185
11.38000 17.391
11.40000 24.156
11.42000 23.989
11.44000 24.268
11.46000 28.239
11.48000 16.936
11.50000 20.748
11.52000 20.522
11.54000 16.000
11.56000 15.401
11.58000 13.411
11.60000 8.182
11.62000 18.268
11.64000 22.213
11.66000 21.155
11.68000 21.932
11.70000 18.555
11.72000 20.371
11.74000 24.716
11.76000 6.469
11.78000 3.733
11.80000 5.505
11.82000 14.034
11.84000 27.170
11.86000 20.462
11.88000 23.956
11.90000 18.499
11.92000 19.718
11.94000 10.315
11.96000 11.050
11.98000 20.690
12.00000 14.878
12.02000 13.451
12.04000 13.084
12.06000 5.236
12.08000 6.947
12.10000 12.892
12.12000 4.360
12.14000 -4.493
12.16000 11.809
12.18000 11.866
12.20000 14.871
12.22000 17.333
12.24000 32.044
12.26000 26.905
12.28000 17.766
12.30000 22.303
12.32000 19.859
12.34000 18.742
12.36000 20.132
12.38000 22.024
12.40000 19.552
12.42000 22.063
12.44000 27.151
12.46000 20.373
12.48000 14.987
12.50000 21.622
12.52000 22.516
12.54000 13.397
12.56000 12.995
12.58000 18.685
12.60000 22.192
12.62000 16.927
12.64000 16.605
12.66000 2.357
12.68000 12.925
12.70000 13.045
12.72000 5.716
12.74000 3.329
12.76000 7.096
12.78000 12.222
12.80000 9.538
12.82000 16.931
12.84000 25.042
12.86000 14.341
12.88000 9.175
12.90000 16.109
12.92000 6.478
12.94000 5.053
12.96000 0.138
12.98000 -4.502
13.00000 11.613
13.02000 17.530
13.04000 14.383
13.06000 9.951
13.08000 12.220
13.10000 12.231
13.12000 16.551
13.14000 16.342
13.16000 6.222
13.18000 10.112
13.20000 9.165
13.22000 8.087
13.24000 12.595
13.26000 3.657
13.28000 15.828
13.30000 17.182
13.32000 19.522
13.34000 22.198
13.36000 10.833
13.38000 15.443
13.40000 18.429
13.42000 14.008
13.44000 13.799
13.46000 4.628
13.48000 9.246
13.50000 7.457
13.52000 23.376
13.54000 16.602
13.56000 18.998
13.58000 17.893
13.60000 11.808
13.62000 14.382
13.64000 13.323
13.66000 8.255
13.68000 3.496
13.70000 10.816
13.72000 19.297
13.74000 13.710
13.76000 6.220
13.78000 7.658
13.80000 6.131
13.82000 11.208
13.84000 13.409
13.86000 3.286
13.88000 0.100
13.90000 2.977
13.92000 5.333
13.94000 11.745
13.96000 8.919
13.98000 10.331
14.00000 6.220
14.02000 12.427
14.04000 14.176
14.06000 9.757
14.08000 10.547
14.10000 14.992
14.12000 8.959
14.14000 4.444
14.16000 0.753
14.18000 -3.609
14.20000 8.011
14.22000 4.563
14.24000 7.042
14.26000 7.612
14.28000 2.930
14.30000 7.458
14.32000 15.386
14.34000 14.448
14.36000 11.879
14.38000 12.233
14.40000 5.935
14.42000 3.095
14.44000 10.698
14.46000 19.155
14.48000 12.538
14.50000 12.508
14.52000 5.384
14.54000 9.201
14.56000 5.460
14.58000 -0.072
14.60000 7.298
14.62000 11.981
14.64000 9.873
14.66000 6.472
14.68000 14.896
14.70000 9.471
14.72000 2.559
14.74000 8.355
14.76000 9.345
14.78000 1.177
14.80000 8.269
14.82000 11.520
14.84000 14.351
14.86000 10.211
14.88000 11.994
14.90000 9.142
14.92000 9.722
14.94000 3.937
14.96000 -1.451
14.98000 15.377
15.00000 17.283
15.02000 16.655
15.04000 10.573
15.06000 9.902
15.08000 7.044
15.10000 2.069
15.12000 8.631
15.14000 6.702
15.16000 1.515
15.18000 3.229
15.20000 7.641
15.22000 0.836
15.24000 -4.500
15.26000 1.164
15.28000 4.363
15.30000 10.531
15.32000 12.327
15.34000 9.174
15.36000 6.028
15.38000 13.070
15.40000 15.196
15.42000 11.075
15.44000 12.960
15.46000 10.369
15.48000 8.378
15.50000 2.593
15.52000 4.623
15.54000 2.868
15.56000 9.109
15.58000 9.981
15.60000 12.500
15.62000 8.780
15.64000 10.181
15.66000 23.580
15.68000 16.472
15.70000 7.623
15.72000 7.591
15.74000 11.251
15.76000 7.256
15.78000 0.223
15.80000 10.360
15.82000 14.631
15.84000 14.890
15.86000 11.463
15.88000 10.631
15.90000 13.658
15.92000 11.951
15.94000 7.285
15.96000 2.223
15.98000 10.852
16.00000 7.050
16.02000 0.173
16.04000 3.883
16.06000 8.738
16.08000 16.848
16.10000 11.880
16.12000 7.135
16.14000 8.006
16.16000 12.737
16.18000 2.874
16.20000 -4.447
16.22000 3.561
16.24000 3.476
16.26000 -1.108
16.28000 -3.831
16.30000 -1.155
16.32000 9.742
16.34000 10.856
16.36000 2.997
16.38000 9.200
16.40000 9.918
16.42000 2.173
16.44000 4.607
16.46000 9.784
16.48000 -0.832
16.50000 2.735
16.52000 8.302
16.54000 5.484
16.56000 5.340
16.58000 4.316
16.60000 -4.394
16.62000 -4.430
16.64000 6.407
16.66000 12.749
16.68000 15.195
16.70000 17.094
16.72000 14.072
16.74000 20.017
16.76000 11.271
16.78000 7.352
16.80000 8.196
16.82000 9.781
16.84000 10.449
16.86000 2.369
16.88000 7.850
16.90000 10.471
16.92000 11.288
16.94000 11.587
16.96000 8.108
16.98000 10.142
17.00000 2.941
17.02000 5.348
17.04000 12.729
17.06000 13.004
17.08000 2.021
17.10000 -1.345
17.12000 1.624
17.14000 4.742
17.16000 14.504
17.18000 15.739
17.20000 5.010
17.22000 4.377
17.24000 13.155
17.26000 14.419
17.28000 0.677
17.30000 0.239
17.32000 -1.160
17.34000 -1.408
17.36000 4.696
17.38000 16.566
17.40000 10.743
17.42000 8.514
17.44000 13.702
17.46000 10.083
17.48000 9.715
17.50000 7.253
17.52000 4.226
17.54000 7.345
17.56000 12.203
17.58000 11.119
17.60000 10.568
17.62000 9.519
17.64000 4.032
17.66000 8.796
17.68000 12.163
17.70000 7.486
17.72000 8.398
17.74000 7.742
17.76000 6.304
17.78000 4.947
17.80000 4.645
17.82000 4.243
17.84000 3.378
17.86000 2.898
17.88000 12.951
17.90000 17.614
17.92000 8.348
17.94000 5.951
17.96000 11.633
17.98000 11.859
18.00000 5.990
18.02000 4.914
18.04000 6.877
18.06000 3.556
18.08000 2.120
18.10000 6.131
18.12000 11.629
18.14000 12.190
18.16000 17.312
18.18000 20.729
18.20000 10.497
18.22000 4.145
18.24000 5.148
18.26000 -4.331
18.28000 -2.532
18.30000 -0.233
18.32000 5.391
18.34000 -0.469
18.36000 1.090
18.38000 8.352
18.40000 6.953
18.42000 1.301
18.44000 -0.189
18.46000 1.550
18.48000 4.400
18.50000 6.614
18.52000 4.094
18.54000 7.232
18.56000 15.901
18.58000 6.140
18.60000 -0.654
18.62000 1.452
18.64000 -1.227
18.66000 -4.324
18.68000 3.836
18.70000 2.062
18.72000 6.996
18.74000 8.391
18.76000 8.640
18.78000 2.355
18.80000 5.696
18.82000 10.331
18.84000 9.415
18.86000 13.181
18.88000 2.229
18.90000 -0.701
18.92000 4.637
18.94000 3.398
18.96000 0.319
18.98000 -2.360
19.00000 6.963
19.02000 5.963
19.04000 2.319
19.06000 1.305
19.08000 4.459
19.10000 6.829
19.12000 7.547
19.14000 9.342
19.16000 4.436
19.18000 0.104
19.20000 8.362
19.22000 8.110
19.24000 5.491
19.26000 3.181
19.28000 3.237
19.30000 1.205
19.32000 5.891
19.34000 5.264
19.36000 7.084
19.38000 6.603
19.40000 9.897
19.42000 5.640
19.44000 1.154
19.46000 2.070
19.48000 3.958
19.50000 3.485
19.52000 7.511
19.54000 2.487
19.56000 7.812
19.58000 10.848
19.60000 1.418
19.62000 2.613
19.64000 8.311
19.66000 5.847
19.68000 6.866
19.70000 4.895
19.72000 5.337
19.74000 3.891
19.76000 0.609
19.78000 6.310
19.80000 5.620
19.82000 2.470
19.84000 -4.271
19.86000 -2.232
19.88000 4.947
19.90000 12.614
19.92000 11.120
19.94000 6.025
19.96000 4.541
19.98000 3.020
20.00000 9.131
20.02000 5.153
20.04000 3.622
20.06000 2.521
20.08000 2.321
20.10000 10.462
20.12000 5.392
20.14000 0.361
20.16000 1.766
20.18000 3.152
20.20000 5.380
20.22000 15.473
20.24000 14.922
20.26000 5.032
20.28000 6.034
20.30000 11.592
20.32000 1.714
20.34000 2.728
20.36000 -3.194
20.38000 -0.711
20.40000 5.556
20.42000 7.649
20.44000 5.579
20.46000 9.991
20.48000 16.588
20.50000 6.605
20.52000 6.379
20.54000 1.056
20.56000 2.344
20.58000 7.038
20.60000 3.451
20.62000 6.625
20.64000 8.047
20.66000 5.106
20.68000 6.638
20.70000 1.123
20.72000 2.309
20.74000 9.073
20.76000 5.768
20.78000 7.489
20.80000 13.456
20.82000 9.662
20.84000 6.266
20.86000 11.265
20.88000 6.792
20.90000 4.772
20.92000 -1.797
20.94000 3.728
20.96000 5.855
20.98000 3.696
21.00000 0.690
21.02000 7.343
21.04000 9.790
21.06000 11.032
21.08000 7.716
21.10000 5.985
21.12000 7.495
21.14000 7.292
21.16000 10.202
21.18000 4.200
21.20000 -1.809
21.22000 -4.182
21.24000 -1.465
21.26000 2.528
21.28000 4.625
21.30000 1.272
21.32000 5.355
21.34000 8.347
21.36000 8.032
21.38000 5.893
21.40000 7.345
21.42000 4.146
21.44000 7.279
21.46000 2.745
21.48000 1.364
21.50000 7.947
21.52000 12.984
21.54000 11.408
21.56000 11.821
21.58000 1.999
21.60000 4.369
21.62000 5.280
21.64000 6.929
21.66000 9.392
21.68000 8.903
21.70000 13.412
21.72000 9.690
21.74000 5.580
21.76000 11.726
21.78000 3.879
21.80000 -0.531
21.82000 -2.173
21.84000 1.171
21.86000 5.617
21.88000 2.314
21.90000 3.840
21.92000 7.147
21.94000 6.076
21.96000 9.021
21.98000 6.988
22.00000 2.417
22.02000 1.712
22.04000 -0.471
22.06000 -1.130
22.08000 -0.007
22.10000 6.747
22.12000 11.044
22.14000 12.064
22.16000 7.191
22.18000 -1.550
22.20000 0.327
22.22000 5.385
22.24000 4.828
22.26000 -1.740
22.28000 6.463
22.30000 0.782
22.32000 -3.273
22.34000 1.424
22.36000 4.592
22.38000 8.487
22.40000 4.040
22.42000 -0.118
22.44000 -0.725
22.46000 5.698
22.48000 5.727
22.50000 2.610
22.52000 1.566
22.54000 5.154
22.56000 3.795
22.58000 4.653
22.60000 1.989
22.62000 -3.274
22.64000 -2.360
22.66000 0.914
22.68000 2.404
22.70000 3.668
22.72000 2.499
22.74000 3.916
22.76000 9.950
22.78000 9.863
22.80000 4.736
22.82000 7.579
22.84000 9.964
22.86000 9.079
22.88000 0.044
22.90000 1.738
22.92000 6.669
22.94000 3.509
22.96000 -0.638
22.98000 -2.849
23.00000 2.637
23.02000 5.469
23.04000 4.493
23.06000 0.856
23.08000 2.944
23.10000 2.701
23.12000 -0.683
23.14000 2.562
23.16000 12.302
23.18000 14.082
23.20000 4.500
23.22000 -4.076
23.24000 1.102
23.26000 1.111
23.28000 0.714
23.30000 2.620
23.32000 12.622
23.34000 10.628
23.36000 6.054
23.38000 11.165
23.40000 8.589
23.42000 5.964
23.44000 3.439
23.46000 4.162
23.48000 2.090
23.50000 2.752
23.52000 7.574
23.54000 0.856
23.56000 0.324
23.58000 3.331
23.60000 8.350
23.62000 5.347
23.64000 4.404
23.66000 1.894
23.68000 4.999
23.70000 1.217
23.72000 6.008
23.74000 9.535
23.76000 6.625
23.78000 2.279
23.80000 9.765
23.82000 9.796
23.84000 5.160
23.86000 9.754
23.88000 4.994
23.90000 7.520
23.92000 3.031
23.94000 2.909
23.96000 3.175
23.98000 7.120
24.00000 5.291
24.02000 3.518
24.04000 -3.201
24.06000 -3.404
24.08000 -1.824
24.10000 -4.025
24.12000 -1.768
24.14000 7.811
24.16000 6.170
24.18000 6.577
24.20000 0.584
24.22000 0.126
24.24000 1.887
24.26000 3.961
24.28000 -2.120
24.30000 5.565
24.32000 2.593
24.34000 5.617
24.36000 -0.559
24.38000 1.340
24.40000 2.654
24.42000 5.256
24.44000 2.003
24.46000 6.498
24.48000 -0.726
24.50000 -0.688
24.52000 -2.045
24.54000 -1.814
24.56000 3.517
24.58000 5.952
24.60000 2.278
24.62000 1.748
24.64000 -1.028
24.66000 2.931
24.68000 7.662
24.70000 12.019
24.72000 1.529
24.74000 3.142
24.76000 4.451
24.78000 2.558
24.80000 -1.093
24.82000 -0.127
24.84000 -1.990
24.86000 -0.815
24.88000 -0.998
24.90000 6.561
24.92000 8.425
24.94000 7.041
24.96000 1.617
24.98000 1.403
25.00000 6.355
25.02000 3.070
25.04000 -3.106
25.06000 0.272
25.08000 3.257
25.10000 1.190
25.12000 -1.878
25.14000 -2.038
25.16000 1.236
25.18000 4.286
25.20000 0.585
25.22000 2.740
25.24000 6.095
25.26000 7.485
25.28000 6.743
25.30000 -0.942
25.32000 -3.988
25.34000 -3.971
25.36000 4.584
25.38000 6.288
25.40000 3.556
25.42000 4.670
25.44000 7.554
25.46000 1.533
25.48000 -2.133
25.50000 -3.719
25.52000 -3.975
25.54000 -1.536
25.56000 3.560
25.58000 4.416
25.60000 3.360
25.62000 4.632
25.64000 3.861
25.66000 1.104
25.68000 2.345
25.70000 0.967
25.72000 -3.966
25.74000 2.198
25.76000 6.143
25.78000 6.309
25.80000 4.276
25.82000 2.304
25.84000 3.657
25.86000 6.465
25.88000 5.353
25.90000 0.337
25.92000 -2.629
25.94000 -1.124
25.96000 3.140
25.98000 3.625
26.00000 5.077
26.02000 4.896
26.04000 -0.816
26.06000 -3.950
26.08000 -2.943
26.10000 3.049
26.12000 0.563
26.14000 0.151
26.16000 2.969
26.18000 1.266
26.20000 0.617
26.22000 2.363
26.24000 -0.155
26.26000 1.605
26.28000 6.449
26.30000 8.996
26.32000 9.609
26.34000 3.327
26.36000 -3.932
26.38000 -0.071
26.40000 -1.344
26.42000 -2.142
26.44000 2.549
26.46000 10.561
26.48000 8.739
26.50000 8.435
26.52000 8.232
26.54000 -0.607
26.56000 -1.954
26.58000 2.935
26.60000 4.084
26.62000 -0.149
26.64000 0.136
26.66000 6.080
26.68000 4.290
26.70000 1.012
26.72000 0.025
26.74000 1.935
26.76000 3.884
26.78000 4.418
26.80000 6.107
26.82000 3.638
26.84000 5.979
26.86000 0.640
26.88000 -1.088
26.90000 1.194
26.92000 3.394
26.94000 0.599
26.96000 4.436
26.98000 3.146
27.00000 0.900
27.02000 1.854
27.04000 -0.867
27.06000 -2.176
27.08000 1.867
27.10000 4.031
27.12000 5.247
27.14000 7.263
27.16000 1.694
27.18000 -2.133
27.20000 1.237
27.22000 2.322
27.24000 8.204
27.26000 9.415
27.28000 5.691
27.30000 3.368
27.32000 4.193
27.34000 -1.068
27.36000 2.353
27.38000 5.880
27.40000 6.762
27.42000 5.943
27.44000 4.303
27.46000 6.170
27.48000 8.554
27.50000 6.159
27.52000 8.725
27.54000 6.402
27.56000 8.591
27.58000 7.843
27.60000 8.033
27.62000 4.237
27.64000 0.654
27.66000 4.416
27.68000 5.072
27.70000 10.251
27.72000 8.291
27.74000 5.972
27.76000 4.516
27.78000 4.546
27.80000 3.744
27.82000 1.815
27.84000 1.689
27.86000 -3.826
27.88000 -0.220
27.90000 6.294
27.92000 12.383
27.94000 13.424
27.96000 6.358
27.98000 -1.077
28.00000 2.201
28.02000 9.924
28.04000 10.017
28.06000 4.286
28.08000 -0.076
28.10000 0.935
28.12000 6.745
28.14000 5.885
28.16000 1.581
28.18000 7.024
28.20000 10.670
28.22000 7.899
28.24000 5.971
28.26000 5.900
28.28000 3.190
28.30000 1.151
28.32000 1.296
28.34000 -3.088
28.36000 -2.568
28.38000 0.993
28.40000 1.891
28.42000 4.948
28.44000 8.638
28.46000 9.201
28.48000 8.979
28.50000 4.367
28.52000 1.748
28.54000 1.361
28.56000 4.474
28.58000 6.319
28.60000 6.797
28.62000 6.123
28.64000 4.011
28.66000 2.593
28.68000 -1.368
28.70000 -2.622
28.72000 -3.797
28.74000 1.405
28.76000 3.018
28.78000 3.329
28.80000 -0.198
28.82000 -1.957
28.84000 0.980
28.86000 5.659
28.88000 10.529
28.90000 7.969
28.92000 7.996
28.94000 9.442
28.96000 7.132
28.98000 2.486
29.00000 4.313
29.02000 3.539
29.04000 4.486
29.06000 3.263
29.08000 5.598
29.10000 8.835
29.12000 2.379
29.14000 -0.754
29.16000 -1.794
29.18000 3.529
29.20000 4.435
29.22000 7.040
29.24000 5.597
29.26000 1.893
29.28000 0.472
29.30000 4.930
29.32000 5.511
29.34000 6.757
29.36000 8.466
29.38000 2.698
29.40000 -2.309
29.42000 -3.765
29.44000 3.526
29.46000 2.849
29.48000 -2.103
29.50000 -2.666
29.52000 0.640
29.54000 0.153
29.56000 4.576
29.58000 3.630
29.60000 1.280
29.62000 1.810
29.64000 1.861
29.66000 0.099
29.68000 1.984
29.70000 2.843
29.72000 6.257
29.74000 7.593
29.76000 10.740
29.78000 6.101
29.80000 1.835
29.82000 8.611
29.84000 4.788
29.86000 5.824
29.88000 6.981
29.90000 1.874
29.92000 6.368
29.94000 5.148
29.96000 -0.113
29.98000 -3.743
30.00000 -0.668
30.02000 2.204
30.04000 3.632
30.06000 3.219
30.08000 -1.907
30.10000 1.256
30.12000 0.855
30.14000 1.516
30.16000 2.213
30.18000 1.622
30.20000 -0.053
30.22000 5.982
30.24000 8.014
30.26000 7.543
30.28000 3.557
30.30000 -0.506
30.32000 -2.604
30.34000 -0.761
30.36000 -0.127
30.38000 0.334
30.40000 2.093
30.42000 1.149
30.44000 0.573
30.46000 2.621
30.48000 3.703
30.50000 0.867
30.52000 2.820
30.54000 -1.729
30.56000 -0.676
30.58000 4.384
30.60000 2.258
30.62000 1.046
30.64000 2.925
30.66000 1.155
30.68000 -1.707
30.70000 1.615
30.72000 -0.689
30.74000 3.641
30.76000 6.777
30.78000 2.196
30.80000 1.058
30.82000 0.264
30.84000 4.574
30.86000 0.887
30.88000 3.618
30.90000 -1.897
30.92000 0.936
30.94000 4.097
30.96000 1.788
30.98000 1.602
31.00000 3.878
31.02000 3.709
31.04000 5.203
31.06000 0.628
31.08000 4.377
31.10000 5.336
31.12000 5.731
31.14000 4.452
31.16000 2.539
31.18000 -3.706
31.20000 -2.848
31.22000 1.044
31.24000 5.863
31.26000 6.250
31.28000 5.365
31.30000 0.452
31.32000 3.823
31.34000 4.681
31.36000 7.546
31.38000 5.168
31.40000 5.593
31.42000 4.704
31.44000 -1.024
31.46000 2.521
31.48000 -2.219
31.50000 2.670
31.52000 3.465
31.54000 1.134
31.56000 1.989
31.58000 -1.631
31.60000 -3.687
31.62000 1.882
31.64000 3.227
31.66000 7.265
31.68000 6.796
31.70000 6.223
31.72000 6.403
31.74000 7.933
31.76000 3.450
31.78000 8.397
31.80000 1.806
31.82000 3.077
31.84000 -1.446
31.86000 -1.590
31.88000 4.202
31.90000 0.515
31.92000 -0.753
31.94000 5.897
31.96000 4.858
31.98000 4.864
32.00000 3.503
32.02000 0.132
32.04000 -3.674
32.06000 -2.958
32.08000 0.099
32.10000 -1.347
32.12000 -1.685
32.14000 1.444
32.16000 -2.049
32.18000 -1.571
32.20000 -0.511
32.22000 -0.220
32.24000 -0.574
32.26000 -0.458
32.28000 -1.190
32.30000 1.806
32.32000 2.471
32.34000 1.627
32.36000 4.414
32.38000 6.755
32.40000 -1.066
32.42000 0.793
32.44000 1.251
32.46000 6.468
32.48000 -1.522
32.50000 -1.100
32.52000 3.446
32.54000 5.497
32.56000 2.867
32.58000 -3.650
32.60000 -0.902
32.62000 3.755
32.64000 2.078
32.66000 5.487
32.68000 6.397
32.70000 3.322
32.72000 6.700
32.74000 2.367
32.76000 -3.652
32.78000 2.364
32.80000 2.163
32.82000 1.500
32.84000 1.571
32.86000 4.888
32.88000 2.793
32.90000 -0.172
32.92000 3.842
32.94000 3.497
32.96000 -0.241
32.98000 5.237
33.00000 5.935
33.02000 5.166
33.04000 4.122
33.06000 3.636
33.08000 3.573
33.10000 -0.848
33.12000 2.107
33.14000 7.228
33.16000 0.444
33.18000 -3.663
33.20000 -0.967
33.22000 2.187
33.24000 0.346
33.26000 2.452
33.28000 -0.395
33.30000 0.902
33.32000 1.366
33.34000 1.632
33.36000 4.764
33.38000 1.178
33.40000 4.194
33.42000 4.799
33.44000 2.872
33.46000 1.406
33.48000 2.643
33.50000 0.990
33.52000 0.386
33.54000 -0.031
33.56000 -0.411
33.58000 -1.575
33.60000 0.359
33.62000 3.842
33.64000 5.584
33.66000 2.629
33.68000 -0.126
33.70000 0.220
33.72000 2.232
33.74000 4.400
33.76000 5.415
33.78000 7.544
33.80000 4.622
33.82000 3.122
33.84000 7.892
33.86000 8.425
33.88000 -2.216
33.90000 -3.124
33.92000 3.185
33.94000 2.260
33.96000 3.082
33.98000 3.763
34.00000 0.860
34.02000 2.500
34.04000 4.699
34.06000 0.364
34.08000 3.901
34.10000 6.235
34.12000 3.265
34.14000 0.841
34.16000 2.864
34.18000 -0.597
34.20000 1.030
34.22000 6.427
34.24000 6.074
34.26000 0.721
34.28000 3.085
34.30000 5.379
34.32000 3.065
34.34000 3.938
34.36000 4.662
34.38000 4.324
34.40000 5.987
34.42000 5.281
34.44000 -0.275
34.46000 0.004
34.48000 0.359
34.50000 0.327
34.52000 0.657
34.54000 -0.682
34.56000 -1.778
34.58000 -3.629
34.60000 0.189
34.62000 4.117
34.64000 5.662
34.66000 2.326
34.68000 1.859
34.70000 4.091
34.72000 3.522
34.74000 5.272
34.76000 2.575
34.78000 2.734
34.80000 3.019
34.82000 2.499
34.84000 1.990
34.86000 -2.251
34.88000 0.834
34.90000 3.614
34.92000 2.708
34.94000 0.664
34.96000 -2.070
34.98000 1.686
35.00000 4.457
35.02000 0.764
35.04000 -1.946
35.06000 1.640
35.08000 0.689
35.10000 -0.623
35.12000 0.427
35.14000 -1.729
35.16000 -0.877
35.18000 0.558
35.20000 1.276
35.22000 -0.776
35.24000 -0.476
35.26000 0.038
35.28000 4.750
35.30000 4.897
35.32000 3.772
35.34000 3.229
35.36000 -0.698
35.38000 -3.010
35.40000 0.413
35.42000 -2.352
35.44000 -2.596
35.46000 5.702
35.48000 7.499
35.50000 5.308
35.52000 8.490
35.54000 0.528
35.56000 -3.647
35.58000 -0.695
35.60000 2.630
35.62000 2.551
35.64000 4.677
35.66000 4.135
35.68000 -0.329
35.70000 2.383
35.72000 2.826
35.74000 1.854
35.76000 1.405
35.78000 -1.185
35.80000 -2.105
35.82000 4.561
35.84000 2.854
35.86000 6.456
35.88000 2.550
35.90000 0.569
35.92000 -1.090
35.94000 -3.146
35.96000 -2.328
35.98000 2.025
36.00000 -2.022
36.02000 -1.245
36.04000 0.474
36.06000 -0.164
36.08000 -3.179
36.10000 2.515
36.12000 5.232
36.14000 1.537
36.16000 3.523
36.18000 2.556
36.20000 1.572
36.22000 1.083
36.24000 3.256
36.26000 2.428
36.28000 3.024
36.30000 -3.688
36.32000 1.739
36.34000 3.755
36.36000 2.535
36.38000 4.583
36.40000 4.891
36.42000 1.774
36.44000 -0.482
36.46000 -3.706
36.48000 -1.326
36.50000 3.160
36.52000 0.423
36.54000 -2.291
36.56000 -1.862
36.58000 -0.533
36.60000 2.648
36.62000 2.250
36.64000 0.448
36.66000 -2.678
36.68000 -3.731
36.70000 -1.549
36.72000 -2.564
36.74000 -2.310
36.76000 0.714
36.78000 -3.005
36.80000 -1.209
36.82000 4.967
36.84000 4.570
36.86000 -1.091
36.88000 0.938
36.90000 1.177
36.92000 4.626
36.94000 5.809
36.96000 -2.665
36.98000 -3.692
37.00000 0.111
37.02000 0.630
37.04000 3.169
37.06000 4.734
37.08000 2.287
37.10000 -3.785
37.12000 -0.659
37.14000 -1.066
37.16000 2.927
37.18000 2.678
37.20000 2.079
37.22000 -2.602
37.24000 1.132
37.26000 1.671
37.28000 -0.714
37.30000 -0.694
37.32000 -2.029
37.34000 -2.507
37.36000 0.802
37.38000 -0.237
37.40000 3.999
37.42000 4.083
37.44000 0.668
37.46000 0.294
37.48000 0.737
37.50000 2.790
37.52000 0.376
37.54000 7.669
37.56000 10.576
37.58000 11.907
37.60000 9.441
37.62000 6.764
37.64000 4.549
37.66000 8.213
37.68000 13.765
37.70000 8.298
37.72000 8.108
37.74000 9.059
37.76000 6.984
37.78000 7.641
37.80000 4.779
37.82000 8.467
37.84000 15.319
37.86000 13.129
37.88000 9.467
37.90000 10.360
37.92000 11.901
37.94000 12.829
37.96000 10.448
37.98000 7.707
38.00000 11.584
38.02000 15.998
38.04000 18.266
38.06000 15.766
38.08000 19.508
38.10000 25.133
38.12000 24.936
38.14000 26.274
38.16000 27.359
38.18000 22.777
38.20000 25.164
38.22000 28.598
38.24000 27.749
38.26000 25.886
38.28000 29.799
38.30000 31.951
38.32000 33.668
38.34000 33.798
38.36000 36.370
38.38000 35.015
38.40000 36.159
38.42000 39.753
38.44000 43.141
38.46000 43.661
38.48000 43.010
38.50000 42.916
38.52000 46.527
38.54000 50.630
38.56000 48.718
38.58000 48.892
38.60000 52.975
38.62000 58.310
38.64000 66.551
38.66000 62.182
38.68000 66.153
38.70000 70.223
38.72000 70.816
38.74000 74.994
38.76000 73.900
38.78000 79.215
38.80000 84.522
38.82000 87.594
38.84000 88.176
38.86000 87.016
38.88000 95.870
38.90000 107.214
38.92000 108.381
38.94000 109.771
38.96000 113.091
38.98000 117.667
39.00000 131.250
39.02000 138.542
39.04000 142.398
39.06000 144.436
39.08000 148.872
39.10000 154.740
39.12000 166.078
39.14000 168.256
39.16000 178.067
39.18000 188.607
39.20000 199.979
39.22000 204.804
39.24000 213.272
39.26000 221.342
39.28000 234.834
39.30000 248.522
39.32000 264.948
39.34000 284.870
39.36000 283.712
39.38000 294.107
39.40000 311.887
39.42000 325.609
39.44000 338.002
39.46000 356.698
39.48000 382.595
39.50000 401.731
39.52000 415.311
39.54000 435.343
39.56000 464.444
39.58000 480.234
39.60000 502.257
39.62000 532.106
39.64000 545.145
39.66000 566.654
39.68000 586.640
39.70000 616.604
39.72000 648.480
39.74000 676.379
39.76000 695.299
39.78000 709.816
39.80000 727.628
39.82000 759.186
39.84000 780.211
39.86000 802.428
39.88000 822.202
39.90000 842.678
39.92000 849.617
39.94000 840.286
39.96000 848.588
39.98000 861.754
40.00000 859.715
40.02000 876.879
40.04000 880.747
40.06000 876.598
40.08000 877.714
40.10000 873.508
40.12000 860.171
40.14000 833.772
40.16000 796.730
40.18000 784.976
40.20000 769.428
40.22000 751.266
40.24000 748.557
40.26000 725.335
40.28000 700.224
40.30000 673.295
40.32000 647.549
40.34000 623.462
40.36000 593.635
40.38000 560.911
40.40000 541.436
40.42000 507.802
40.44000 483.900
40.46000 462.007
40.48000 439.090
40.50000 411.880
40.52000 387.168
40.54000 362.906
40.56000 342.316
40.58000 326.655
40.60000 309.096
40.62000 291.347
40.64000 276.066
40.66000 259.889
40.68000 244.886
40.70000 226.979
40.72000 209.299
40.74000 201.806
40.76000 189.987
40.78000 177.756
40.80000 165.420
40.82000 155.492
40.84000 148.917
40.86000 136.186
40.88000 126.827
40.90000 117.764
40.92000 110.431
40.94000 109.279
40.96000 100.559
40.98000 97.315
41.00000 87.651
41.02000 86.941
41.04000 83.226
41.06000 73.003
41.08000 73.425
41.10000 67.372
41.12000 63.608
41.14000 62.444
41.16000 61.807
41.18000 52.448
41.20000 51.584
41.22000 49.307
41.24000 42.019
41.26000 39.994
41.28000 38.962
41.30000 36.766
41.32000 37.921
41.34000 32.368
41.36000 28.959
41.38000 28.250
41.40000 28.539
41.42000 24.559
41.44000 28.591
41.46000 30.328
41.48000 25.618
41.50000 23.425
41.52000 23.810
41.54000 20.091
41.56000 21.385
41.58000 19.877
41.60000 14.482
41.62000 16.041
41.64000 19.005
41.66000 18.636
41.68000 16.607
41.70000 12.841
41.72000 11.547
41.74000 4.409
41.76000 3.900
41.78000 3.949
41.80000 8.448
41.82000 7.827
41.84000 3.070
41.86000 4.543
41.88000 3.400
41.90000 3.037
41.92000 4.685
41.94000 6.450
41.96000 5.490
41.98000 8.599
42.00000 7.509
42.02000 6.019
42.04000 1.297
42.06000 -0.327
42.08000 4.087
42.10000 0.736
42.12000 3.105
42.14000 8.011
42.16000 5.660
42.18000 -1.018
42.20000 -0.570
42.22000 1.571
42.24000 8.808
42.26000 6.622
42.28000 2.220
42.30000 3.801
42.32000 -0.323
42.34000 2.947
42.36000 0.856
42.38000 1.057
42.40000 0.999
42.42000 -2.287
42.44000 -3.686
42.46000 -3.683
42.48000 6.895
42.50000 5.527
42.52000 7.805
42.54000 4.891
42.56000 3.196
42.58000 4.477
42.60000 2.567
42.62000 3.574
42.64000 1.775
42.66000 1.128
42.68000 0.419
42.70000 3.675
42.72000 2.037
42.74000 0.620
42.76000 -2.429
42.78000 -1.489
42.80000 3.719
42.82000 2.594
42.84000 0.248
42.86000 1.565
42.88000 1.831
42.90000 3.859
42.92000 5.281
42.94000 4.161
42.96000 1.505
42.98000 -0.384
43.00000 -0.373
43.02000 4.060
43.04000 2.551
43.06000 5.234
43.08000 4.172
43.10000 -3.591
43.12000 -0.292
43.14000 2.873
43.16000 0.592
43.18000 0.300
43.20000 2.544
43.22000 1.116
43.24000 0.248
43.26000 2.234
43.28000 -0.163
43.30000 5.568
43.32000 6.952
43.34000 8.263
43.36000 6.522
43.38000 6.715
43.40000 4.994
43.42000 3.335
43.44000 1.782
43.46000 -1.258
43.48000 4.186
43.50000 3.547
43.52000 6.824
43.54000 6.227
43.56000 4.146
43.58000 7.502
43.60000 4.545
43.62000 -1.536
43.64000 3.359
43.66000 6.384
43.68000 4.116
43.70000 2.956
43.72000 3.516
43.74000 5.540
43.76000 1.939
43.78000 -0.624
43.80000 7.251
43.82000 6.061
43.84000 6.034
43.86000 1.477
43.88000 0.497
43.90000 1.701
43.92000 -3.575
43.94000 1.395
43.96000 7.410
43.98000 4.999
44.00000 7.508
44.02000 7.181
44.04000 7.004
44.06000 10.209
44.08000 9.557
44.10000 2.695
44.12000 4.533
44.14000 2.907
44.16000 0.292
44.18000 -0.394
44.20000 -3.082
44.22000 -2.454
44.24000 3.637
44.26000 -2.820
44.28000 -1.561
44.30000 2.408
44.32000 4.775
44.34000 -1.098
44.36000 -2.252
44.38000 2.377
44.40000 6.365
44.42000 4.269
44.44000 3.055
44.46000 9.207
44.48000 0.591
44.50000 -3.575
44.52000 5.196
44.54000 9.744
44.56000 6.744
44.58000 5.965
44.60000 10.989
44.62000 12.054
44.64000 13.821
44.66000 11.608
44.68000 8.475
44.70000 6.458
44.72000 3.912
44.74000 5.260
44.76000 7.482
44.78000 12.863
44.80000 10.121
44.82000 9.112
44.84000 10.885
44.86000 10.097
44.88000 8.318
44.90000 1.679
44.92000 1.510
44.94000 10.251
44.96000 14.838
44.98000 10.347
45.00000 12.122
45.02000 18.948
45.04000 15.259
45.06000 14.645
45.08000 18.610
45.10000 17.134
45.12000 16.784
45.14000 13.975
45.16000 20.668
45.18000 15.337
45.20000 15.170
45.22000 15.801
45.24000 22.100
45.26000 22.290
45.28000 17.336
45.30000 15.552
45.32000 21.339
45.34000 26.269
45.36000 24.509
45.38000 26.069
45.40000 25.319
45.42000 24.784
45.44000 28.170
45.46000 25.723
45.48000 19.626
45.50000 25.025
45.52000 34.282
45.54000 33.460
45.56000 27.456
45.58000 32.426
45.60000 35.170
45.62000 37.484
45.64000 34.678
45.66000 36.087
45.68000 42.339
45.70000 39.919
45.72000 35.343
45.74000 38.485
45.76000 43.088
45.78000 43.233
45.80000 46.443
45.82000 47.931
45.84000 48.333
45.86000 48.755
45.88000 52.476
45.90000 59.588
45.92000 55.430
45.94000 51.030
45.96000 60.116
45.98000 59.159
46.00000 60.538
46.02000 59.477
46.04000 59.815
46.06000 62.662
46.08000 68.932
46.10000 71.643
46.12000 70.518
46.14000 68.136
46.16000 65.606
46.18000 69.357
46.20000 73.400
46.22000 67.448
46.24000 72.153
46.26000 74.956
46.28000 70.368
46.30000 74.053
46.32000 78.132
46.34000 77.538
46.36000 75.136
46.38000 78.158
46.40000 81.519
46.42000 85.260
46.44000 83.940
46.46000 80.712
46.48000 86.277
46.50000 93.185
46.52000 93.297
46.54000 89.131
46.56000 91.768
46.58000 88.428
46.60000 86.458
46.62000 87.359
46.64000 90.777
46.66000 89.102
46.68000 83.981
46.70000 83.972
46.72000 86.507
46.74000 82.034
46.76000 82.560
46.78000 84.034
46.80000 86.115
46.82000 75.933
46.84000 76.400
46.86000 75.413
46.88000 72.935
46.90000 78.279
46.92000 76.425
46.94000 73.591
46.96000 74.410
46.98000 69.082
47.00000 69.481
47.02000 72.070
47.04000 66.547
47.06000 64.564
47.08000 59.411
47.10000 60.100
47.12000 58.427
47.14000 59.738
47.16000 54.212
47.18000 49.662
47.20000 47.942
47.22000 47.105
47.24000 50.276
47.26000 44.558
47.28000 42.317
47.30000 41.553
47.32000 38.284
47.34000 41.230
47.36000 39.874
47.38000 40.316
47.40000 33.163
47.42000 33.881
47.44000 34.405
47.46000 37.136
47.48000 34.398
47.50000 30.422
47.52000 35.770
47.54000 35.242
47.56000 22.171
47.58000 15.098
47.60000 20.582
47.62000 19.782
47.64000 16.209
47.66000 24.072
47.68000 24.009
47.70000 22.052
47.72000 17.091
47.74000 15.971
47.76000 13.609
47.78000 8.653
47.80000 6.430
47.82000 9.379
47.84000 6.852
47.86000 12.763
47.88000 11.595
47.90000 13.145
47.92000 10.619
47.94000 11.746
47.96000 10.991
47.98000 10.721
48.00000 8.238
48.02000 12.952
48.04000 13.542
48.06000 9.789
48.08000 7.521
48.10000 8.714
48.12000 9.574
48.14000 5.206
48.16000 2.517
48.18000 5.492
48.20000 5.948
48.22000 5.834
48.24000 5.390
48.26000 7.569
48.28000 6.621
48.30000 9.684
48.32000 6.624
48.34000 5.296
48.36000 4.528
48.38000 4.421
48.40000 2.715
48.42000 0.304
48.44000 6.781
48.46000 2.586
48.48000 4.916
48.50000 9.552
48.52000 6.349
48.54000 -3.283
48.56000 4.601
48.58000 8.252
48.60000 5.879
48.62000 1.414
48.64000 1.767
48.66000 7.061
48.68000 10.351
48.70000 4.379
48.72000 3.409
48.74000 0.581
48.76000 1.261
48.78000 4.389
48.80000 8.900
48.82000 4.297
48.84000 4.058
48.86000 8.312
48.88000 16.404
48.90000 9.385
48.92000 3.976
48.94000 6.055
48.96000 2.176
48.98000 -3.192
49.00000 1.740
49.02000 7.004
49.04000 3.365
49.06000 12.265
49.08000 5.560
49.10000 3.504
49.12000 1.775
49.14000 3.168
49.16000 8.636
49.18000 -2.227
49.20000 0.366
49.22000 3.757
49.24000 8.623
49.26000 9.743
49.28000 8.134
49.30000 11.352
49.32000 14.634
49.34000 13.444
49.36000 3.804
49.38000 2.769
49.40000 8.196
49.42000 7.184
49.44000 5.503
49.46000 6.147
49.48000 6.813
49.50000 -3.157
49.52000 2.813
49.54000 3.043
49.56000 4.593
49.58000 12.073
49.60000 11.145
49.62000 1.446
49.64000 1.857
49.66000 4.807
49.68000 2.309
49.70000 6.215
49.72000 6.343
49.74000 9.841
49.76000 11.446
49.78000 6.401
49.80000 1.618
49.82000 3.367
49.84000 6.572
49.86000 9.863
49.88000 9.007
49.90000 9.228
49.92000 5.105
49.94000 10.825
49.96000 7.182
49.98000 3.076
50.00000 7.953
50.02000 5.090
50.04000 1.496
50.06000 3.807
50.08000 2.083
50.10000 6.609
50.12000 7.006
50.14000 3.455
50.16000 -0.418
50.18000 2.411
50.20000 1.714
50.22000 5.178
50.24000 4.900
50.26000 1.729
50.28000 -3.125
50.30000 2.494
50.32000 5.946
50.34000 8.242
50.36000 4.056
50.38000 -2.163
50.40000 4.560
50.42000 7.477
50.44000 7.844
50.46000 5.939
50.48000 5.530
50.50000 1.919
50.52000 8.215
50.54000 5.473
50.56000 7.649
50.58000 12.300
50.60000 4.324
50.62000 1.992
50.64000 2.609
50.66000 2.940
50.68000 10.058
50.70000 4.021
50.72000 4.563
50.74000 3.465
50.76000 0.644
50.78000 5.304
50.80000 8.209
50.82000 6.013
50.84000 -1.680
50.86000 1.825
50.88000 0.799
50.90000 -2.372
50.92000 5.034
50.94000 0.700
50.96000 5.369
50.98000 10.950
51.00000 2.814
51.02000 -1.562
51.04000 0.019
51.06000 1.615
51.08000 -0.539
51.10000 -0.022
51.12000 0.261
51.14000 1.996
51.16000 3.346
51.18000 2.153
51.20000 3.030
51.22000 6.791
51.24000 5.653
51.26000 0.341
51.28000 -0.451
51.30000 2.892
51.32000 9.143
51.34000 8.644
51.36000 3.857
51.38000 1.516
51.40000 1.467
51.42000 2.994
51.44000 10.789
51.46000 3.795
51.48000 -1.344
51.50000 -1.878
51.52000 5.513
51.54000 9.175
51.56000 6.448
51.58000 4.586
51.60000 6.568
51.62000 9.945
51.64000 5.291
51.66000 5.020
51.68000 4.030
51.70000 3.279
51.72000 4.297
51.74000 3.808
51.76000 0.585
51.78000 1.106
51.80000 2.933
51.82000 2.361
51.84000 1.327
51.86000 4.960
51.88000 7.403
51.90000 2.655
51.92000 1.170
51.94000 3.106
51.96000 8.358
51.98000 4.769
52.00000 8.372
52.02000 6.042
52.04000 4.098
52.06000 3.161
52.08000 4.881
52.10000 8.535
52.12000 1.806
52.14000 -3.053
52.16000 3.040
52.18000 7.641
52.20000 9.953
52.22000 12.623
52.24000 9.236
52.26000 5.405
52.28000 1.403
52.30000 2.225
52.32000 2.357
52.34000 5.058
52.36000 7.634
52.38000 5.899
52.40000 1.798
52.42000 3.164
52.44000 6.557
52.46000 7.296
52.48000 4.375
52.50000 2.970
52.52000 4.264
52.54000 2.874
52.56000 1.895
52.58000 4.339
52.60000 -0.747
52.62000 2.752
52.64000 8.423
52.66000 3.626
52.68000 -0.161
52.70000 1.066
52.72000 3.037
52.74000 6.219
52.76000 5.100
52.78000 4.488
52.80000 -0.205
52.82000 -2.889
52.84000 -3.035
52.86000 3.730
52.88000 5.214
52.90000 4.129
52.92000 2.018
52.94000 -1.542
52.96000 2.677
52.98000 -0.345
53.00000 0.139
53.02000 7.956
53.04000 4.218
53.06000 6.055
53.08000 7.530
53.10000 3.015
53.12000 -0.035
53.14000 -0.409
53.16000 -1.808
53.18000 5.847
53.20000 6.397
53.22000 3.930
53.24000 3.007
53.26000 1.802
53.28000 1.521
53.30000 3.835
53.32000 3.927
53.34000 1.159
53.36000 1.624
53.38000 3.042
53.40000 1.835
53.42000 -0.922
53.44000 1.988
53.46000 0.371
53.48000 0.198
53.50000 1.165
53.52000 1.873
53.54000 1.317
53.56000 2.626
53.58000 2.837
53.60000 0.206
53.62000 1.288
53.64000 3.207
53.66000 5.496
53.68000 3.743
53.70000 -1.815
53.72000 -1.594
53.74000 0.481
53.76000 1.943
53.78000 6.171
53.80000 7.105
53.82000 4.515
53.84000 5.122
53.86000 1.482
53.88000 -3.042
53.90000 -1.677
53.92000 -0.104
53.94000 2.910
53.96000 3.837
53.98000 2.288
54.00000 -0.008
54.02000 4.469
54.04000 1.853
54.06000 0.819
54.08000 1.400
54.10000 -1.314
54.12000 3.904
54.14000 -1.527
54.16000 -1.804
54.18000 2.059
54.20000 1.518
54.22000 7.211
54.24000 4.774
54.26000 0.849
54.28000 0.873
54.30000 0.126
54.32000 -1.089
54.34000 -2.923
54.36000 -3.023
54.38000 0.837
54.40000 0.840
54.42000 -1.823
54.44000 1.781
54.46000 3.570
54.48000 0.424
54.50000 -2.028
54.52000 -0.487
54.54000 -1.858
54.56000 1.737
54.58000 -1.309
54.60000 -1.203
54.62000 1.160
54.64000 6.456
54.66000 2.969
54.68000 -1.951
54.70000 -2.070
54.72000 5.142
54.74000 8.280
54.76000 0.057
54.78000 0.106
54.80000 3.946
54.82000 5.958
54.84000 3.843
54.86000 4.136
54.88000 0.492
54.90000 1.956
54.92000 3.134
54.94000 6.396
54.96000 2.877
54.98000 0.500
55.00000 0.849
55.02000 3.697
55.04000 3.961
55.06000 1.768
55.08000 3.831
55.10000 8.905
55.12000 7.783
55.14000 5.412
55.16000 6.961
55.18000 1.949
55.20000 -3.001
55.22000 1.210
55.24000 2.688
55.26000 -1.529
55.28000 6.078
55.30000 2.761
55.32000 1.741
55.34000 2.078
55.36000 2.181
55.38000 -1.304
55.40000 -2.387
55.42000 -0.900
55.44000 -1.120
55.46000 1.313
55.48000 4.612
55.50000 6.147
55.52000 5.944
55.54000 2.690
55.56000 1.925
55.58000 4.019
55.60000 2.259
55.62000 1.917
55.64000 0.748
55.66000 7.578
55.68000 8.151
55.70000 3.071
55.72000 5.858
55.74000 5.777
55.76000 0.073
55.78000 6.261
55.80000 2.164
55.82000 -0.595
55.84000 2.320
55.86000 2.679
55.88000 6.855
55.90000 6.258
55.92000 9.269
55.94000 6.128
55.96000 3.694
55.98000 5.358
56.00000 3.525
56.02000 3.138
56.04000 7.464
56.06000 6.080
56.08000 8.579
56.10000 8.009
56.12000 5.697
56.14000 2.433
56.16000 -1.534
56.18000 0.597
56.20000 3.176
56.22000 7.573
56.24000 4.913
56.26000 3.610
56.28000 7.876
56.30000 6.600
56.32000 7.436
56.34000 3.678
56.36000 -2.913
56.38000 0.474
56.40000 2.027
56.42000 4.058
56.44000 7.925
56.46000 1.596
56.48000 1.907
56.50000 4.962
56.52000 5.204
56.54000 2.394
56.56000 7.050
56.58000 5.176
56.60000 11.336
56.62000 8.680
56.64000 -0.483
56.66000 2.839
56.68000 9.250
56.70000 6.061
56.72000 5.724
56.74000 3.642
56.76000 4.137
56.78000 5.808
56.80000 6.626
56.82000 4.488
56.84000 6.771
56.86000 7.550
56.88000 10.065
56.90000 2.019
56.92000 -1.851
56.94000 6.707
56.96000 6.311
56.98000 5.974
57.00000 3.503
57.02000 3.218
57.04000 7.241
57.06000 4.735
57.08000 1.430
57.10000 5.080
57.12000 6.857
57.14000 8.534
57.16000 0.835
57.18000 4.925
57.20000 5.749
57.22000 6.020
57.24000 7.659
57.26000 5.741
57.28000 5.607
57.30000 0.112
57.32000 1.554
57.34000 5.965
57.36000 6.127
57.38000 5.617
57.40000 4.498
57.42000 5.739
57.44000 4.278
57.46000 2.021
57.48000 3.772
57.50000 2.323
57.52000 3.363
57.54000 5.312
57.56000 5.088
57.58000 5.362
57.60000 1.123
57.62000 2.700
57.64000 5.135
57.66000 7.863
57.68000 3.087
57.70000 5.036
57.72000 7.654
57.74000 2.122
57.76000 -0.171
57.78000 0.811
57.80000 5.725
57.82000 3.781
57.84000 -0.418
57.86000 -2.862
57.88000 0.054
57.90000 3.079
57.92000 5.223
57.94000 5.483
57.96000 4.086
57.98000 5.076
58.00000 5.057
58.02000 2.642
58.04000 2.347
58.06000 -1.492
58.08000 2.895
58.10000 7.594
58.12000 8.178
58.14000 3.053
58.16000 3.791
58.18000 7.658
58.20000 3.501
58.22000 4.080
58.24000 6.419
58.26000 5.777
58.28000 7.812
58.30000 9.786
58.32000 11.406
58.34000 7.535
58.36000 5.413
58.38000 6.294
58.40000 8.949
58.42000 4.410
58.44000 2.501
58.46000 5.892
58.48000 8.285
58.50000 5.774
58.52000 3.303
58.54000 3.667
58.56000 7.424
58.58000 6.582
58.60000 7.591
58.62000 8.251
58.64000 6.177
58.66000 3.206
58.68000 -1.543
58.70000 4.481
58.72000 1.210
58.74000 4.686
58.76000 3.892
58.78000 0.235
58.80000 1.750
58.82000 3.836
58.84000 4.294
58.86000 8.000
58.88000 6.109
58.90000 1.965
58.92000 2.286
58.94000 5.164
58.96000 3.163
58.98000 1.904
59.00000 2.221
59.02000 3.814
59.04000 -0.396
59.06000 0.896
59.08000 -2.831
59.10000 -0.415
59.12000 0.253
59.14000 3.543
59.16000 3.220
59.18000 1.534
59.20000 2.332
59.22000 2.237
59.24000 2.586
59.26000 3.830
59.28000 7.954
59.30000 7.606
59.32000 7.541
59.34000 7.572
59.36000 9.565
59.38000 7.971
59.40000 8.527
59.42000 2.757
59.44000 3.674
59.46000 1.749
59.48000 2.028
59.50000 1.940
59.52000 -1.439
59.54000 -2.509
59.56000 0.390
59.58000 -0.987
59.60000 -0.198
59.62000 3.500
59.64000 3.248
59.66000 3.966
59.68000 3.339
59.70000 5.525
59.72000 9.475
59.74000 7.797
59.76000 4.546
59.78000 7.516
59.80000 3.030
59.82000 -2.826
59.84000 0.316
59.86000 2.263
59.88000 7.335
59.90000 4.229
59.92000 3.000
59.94000 -0.740
59.96000 3.315
59.98000 2.844
60.00000 5.833
60.02000 1.305
60.04000 2.918
60.06000 6.170
60.08000 1.441
60.10000 1.739
60.12000 3.154
60.14000 4.054
60.16000 1.911
60.18000 1.030
60.20000 0.549
60.22000 4.486
60.24000 2.207
60.26000 -1.379
60.28000 -2.810
60.30000 2.589
60.32000 3.885
60.34000 4.404
60.36000 -0.876
60.38000 -1.554
60.40000 0.599
60.42000 0.694
60.44000 4.199
60.46000 6.621
60.48000 2.749
60.50000 3.582
60.52000 4.356
60.54000 2.901
60.56000 1.818
60.58000 -1.666
60.60000 1.608
60.62000 1.533
60.64000 1.727
60.66000 3.182
60.68000 5.145
60.70000 1.919
60.72000 7.217
60.74000 12.733
60.76000 9.631
60.78000 6.049
60.80000 3.538
60.82000 -2.127
60.84000 -2.022
60.86000 -2.288
60.88000 -1.690
60.90000 1.450
60.92000 3.312
60.94000 7.680
60.96000 7.031
60.98000 0.781
61.00000 2.554
61.02000 1.740
61.04000 2.477
61.06000 -0.061
61.08000 -0.800
61.10000 -0.937
61.12000 1.128
61.14000 0.463
61.16000 -0.511
61.18000 6.028
61.20000 9.885
61.22000 6.811
61.24000 9.671
61.26000 7.493
61.28000 3.365
61.30000 5.637
61.32000 6.599
61.34000 7.757
61.36000 4.633
61.38000 -1.907
61.40000 -2.750
61.42000 0.291
61.44000 8.319
61.46000 6.303
61.48000 4.421
61.50000 2.842
61.52000 1.106
61.54000 4.035
61.56000 3.371
61.58000 2.808
61.60000 0.558
61.62000 1.488
61.64000 4.767
61.66000 8.803
61.68000 9.250
61.70000 6.147
61.72000 2.314
61.74000 6.119
61.76000 4.824
61.78000 7.247
61.80000 8.211
61.82000 5.430
61.84000 9.834
61.86000 3.093
61.88000 1.976
61.90000 6.711
61.92000 4.353
61.94000 2.394
61.96000 5.793
61.98000 5.309
62.00000 5.339
62.02000 4.725
62.04000 7.988
62.06000 6.119
62.08000 7.026
62.10000 4.552
62.12000 3.746
62.14000 7.315
62.16000 2.666
62.18000 4.741
62.20000 2.047
62.22000 3.468
62.24000 4.127
62.26000 8.552
62.28000 5.463
62.30000 2.682
62.32000 -1.544
62.34000 0.717
62.36000 3.132
62.38000 0.175
62.40000 -2.725
62.42000 0.442
62.44000 4.578
62.46000 3.177
62.48000 1.697
62.50000 0.978
62.52000 4.552
62.54000 2.007
62.56000 1.359
62.58000 3.572
62.60000 6.980
62.62000 5.674
62.64000 3.423
62.66000 2.173
62.68000 3.612
62.70000 1.632
62.72000 6.022
62.74000 7.007
62.76000 3.933
62.78000 6.607
62.80000 5.487
62.82000 3.174
62.84000 0.805
62.86000 5.601
62.88000 1.473
62.90000 1.348
62.92000 2.164
62.94000 3.170
62.96000 5.661
62.98000 3.370
63.00000 3.101
63.02000 2.284
63.04000 0.189
63.06000 -1.281
63.08000 -2.746
63.10000 3.080
63.12000 5.643
63.14000 7.441
63.16000 3.635
63.18000 4.361
63.20000 2.930
63.22000 2.057
63.24000 2.508
63.26000 1.100
63.28000 0.051
63.30000 0.933
63.32000 2.196
63.34000 1.757
63.36000 5.802
63.38000 6.314
63.40000 5.984
63.42000 3.165
63.44000 4.822
63.46000 1.750
63.48000 2.927
63.50000 -2.520
63.52000 0.426
63.54000 -0.337
63.56000 3.704
63.58000 5.631
63.60000 3.834
63.62000 -1.151
63.64000 -0.701
63.66000 -1.680
63.68000 -0.918
63.70000 0.136
63.72000 7.555
63.74000 4.765
63.76000 4.437
63.78000 6.772
63.80000 4.996
63.82000 0.116
63.84000 2.534
63.86000 5.199
63.88000 0.062
63.90000 -2.764
63.92000 -0.748
63.94000 3.856
63.96000 2.483
63.98000 -0.258
64.00000 -0.050
64.02000 2.096
64.04000 6.732
64.06000 1.517
64.08000 3.362
64.10000 2.349
64.12000 5.501
64.14000 2.851
64.16000 3.652
64.18000 1.953
64.20000 1.332
64.22000 4.844
64.24000 6.891
64.26000 3.469
64.28000 0.469
64.30000 4.489
64.32000 3.090
64.34000 4.575
64.36000 4.004
64.38000 3.492
64.40000 2.513
64.42000 2.718
64.44000 2.750
64.46000 3.300
64.48000 2.763
64.50000 0.070
64.52000 2.991
64.54000 1.759
64.56000 3.129
64.58000 4.213
64.60000 3.658
64.62000 0.607
64.64000 -2.772
64.66000 2.544
64.68000 4.694
64.70000 0.865
64.72000 0.902
64.74000 0.349
64.76000 2.105
64.78000 0.764
64.80000 2.311
64.82000 3.451
64.84000 1.604
64.86000 2.646
64.88000 2.560
64.90000 6.641
64.92000 7.066
64.94000 4.963
64.96000 9.185
64.98000 5.702
65.00000 3.136
65.02000 3.553
65.04000 2.542
65.06000 4.543
65.08000 2.417
65.10000 4.871
65.12000 3.863
65.14000 4.857
65.16000 4.160
65.18000 3.594
65.20000 1.340
65.22000 3.712
65.24000 5.181
65.26000 6.752
65.28000 5.230
65.30000 0.987
65.32000 2.408
65.34000 3.343
65.36000 5.911
65.38000 -2.797
65.40000 0.843
65.42000 1.905
65.44000 2.842
65.46000 0.158
65.48000 2.518
65.50000 3.654
65.52000 3.347
65.54000 0.288
65.56000 -2.798
65.58000 0.156
65.60000 0.012
65.62000 3.703
65.64000 4.335
65.66000 2.402
65.68000 2.402
65.70000 7.059
65.72000 3.990
65.74000 3.418
65.76000 1.918
65.78000 1.321
65.80000 0.593
65.82000 1.398
65.84000 0.696
65.86000 4.983
65.88000 6.068
65.90000 0.153
65.92000 -1.906
65.94000 1.442
65.96000 5.742
65.98000 1.586
66.00000 -0.138
66.02000 4.683
66.04000 7.492
66.06000 1.772
66.08000 -0.795
66.10000 3.794
66.12000 7.039
66.14000 4.732
66.16000 4.341
66.18000 4.310
66.20000 3.260
66.22000 0.917
66.24000 3.814
66.26000 7.580
66.28000 4.346
66.30000 3.979
66.32000 5.608
66.34000 2.361
66.36000 -1.301
66.38000 0.835
66.40000 4.573
66.42000 8.319
66.44000 9.360
66.46000 8.495
66.48000 7.981
66.50000 6.757
66.52000 7.581
66.54000 6.967
66.56000 5.827
66.58000 7.199
66.60000 5.777
66.62000 4.331
66.64000 8.926
66.66000 6.452
66.68000 5.235
66.70000 8.885
66.72000 9.361
66.74000 10.280
66.76000 10.289
66.78000 10.492
66.80000 12.566
66.82000 11.092
66.84000 10.350
66.86000 6.193
66.88000 8.164
66.90000 8.168
66.92000 9.123
66.94000 10.188
66.96000 11.514
66.98000 11.305
67.00000 6.546
67.02000 8.913
67.04000 15.774
67.06000 15.277
67.08000 17.328
67.10000 7.885
67.12000 4.507
67.14000 10.301
67.16000 12.431
67.18000 13.111
67.20000 16.456
67.22000 15.427
67.24000 14.866
67.26000 11.196
67.28000 11.716
67.30000 16.802
67.32000 21.705
67.34000 20.820
67.36000 22.063
67.38000 17.890
67.40000 12.316
67.42000 13.607
67.44000 15.543
67.46000 18.536
67.48000 19.727
67.50000 20.439
67.52000 23.090
67.54000 20.328
67.56000 20.988
67.58000 17.025
67.60000 18.444
67.62000 18.019
67.64000 18.721
67.66000 24.621
67.68000 22.775
67.70000 16.549
67.72000 22.757
67.74000 31.662
67.76000 31.187
67.78000 29.631
67.80000 31.504
67.82000 29.642
67.84000 29.779
67.86000 28.992
67.88000 25.858
67.90000 20.340
67.92000 20.776
67.94000 21.496
67.96000 24.298
67.98000 24.152
68.00000 24.965
68.02000 23.212
68.04000 19.270
68.06000 24.108
68.08000 20.499
68.10000 21.260
68.12000 32.487
68.14000 27.766
68.16000 23.052
68.18000 24.133
68.20000 21.188
68.22000 25.445
68.24000 23.099
68.26000 27.187
68.28000 29.176
68.30000 29.714
68.32000 22.882
68.34000 17.480
68.36000 23.837
68.38000 26.256
68.40000 22.915
68.42000 19.550
68.44000 18.898
68.46000 17.095
68.48000 20.912
68.50000 24.157
68.52000 20.784
68.54000 20.928
68.56000 17.018
68.58000 12.574
68.60000 10.379
68.62000 11.702
68.64000 19.546
68.66000 20.988
68.68000 19.489
68.70000 14.247
68.72000 13.421
68.74000 11.261
68.76000 11.160
68.78000 9.191
68.80000 8.216
68.82000 10.387
68.84000 11.976
68.86000 13.904
68.88000 9.043
68.90000 11.595
68.92000 12.318
68.94000 7.306
68.96000 7.080
68.98000 6.424
69.00000 9.732
69.02000 11.794
69.04000 13.390
69.06000 9.692
69.08000 9.381
69.10000 4.932
69.12000 7.601
69.14000 6.122
69.16000 5.304
69.18000 5.754
69.20000 7.585
69.22000 4.078
69.24000 5.043
69.26000 5.912
69.28000 2.142
69.30000 1.479
69.32000 0.833
69.34000 4.016
69.36000 3.617
69.38000 2.358
69.40000 5.251
69.42000 3.251
69.44000 3.464
69.46000 2.509
69.48000 4.420
69.50000 9.572
69.52000 5.773
69.54000 1.844
69.56000 4.611
69.58000 7.880
69.60000 9.148
69.62000 10.849
69.64000 14.780
69.66000 6.000
69.68000 0.370
69.70000 1.397
69.72000 0.133
69.74000 -2.685
69.76000 -0.829
69.78000 4.387
69.80000 7.369
69.82000 6.444
69.84000 4.707
69.86000 4.936
69.88000 5.062
69.90000 4.849
69.92000 9.336
69.94000 7.197
69.96000 4.864
69.98000 0.760
70.00000 2.253
70.02000 5.065
70.04000 3.331
70.06000 -2.662
70.08000 4.849
70.10000 4.403
70.12000 1.039
70.14000 2.117
70.16000 3.865
70.18000 3.418
70.20000 -0.721
70.22000 -0.498
70.24000 1.340
70.26000 2.533
70.28000 2.621
70.30000 5.970
70.32000 7.529
70.34000 8.525
70.36000 10.031
70.38000 3.077
70.40000 2.839
70.42000 7.969
70.44000 6.072
70.46000 6.593
70.48000 1.341
70.50000 2.243
70.52000 4.416
70.54000 5.221
70.56000 8.167
70.58000 3.776
70.60000 2.432
70.62000 5.400
70.64000 4.570
70.66000 3.850
70.68000 5.196
70.70000 0.962
70.72000 4.608
70.74000 3.287
70.76000 2.655
70.78000 4.268
70.80000 2.618
70.82000 1.219
70.84000 2.345
70.86000 4.424
70.88000 2.978
70.90000 4.153
70.92000 3.296
70.94000 0.887
70.96000 6.034
70.98000 7.716
71.00000 5.610
71.02000 2.649
71.04000 5.330
71.06000 5.902
71.08000 3.655
71.10000 1.436
71.12000 -0.556
71.14000 -0.288
71.16000 4.314
71.18000 8.744
71.20000 7.904
71.22000 7.060
71.24000 10.741
71.26000 10.476
71.28000 4.410
71.30000 2.930
71.32000 3.283
71.34000 6.499
71.36000 7.441
71.38000 2.039
71.40000 4.641
71.42000 7.651
71.44000 4.418
71.46000 -2.571
71.48000 3.177
71.50000 4.957
71.52000 2.604
71.54000 0.674
71.56000 3.936
71.58000 7.187
71.60000 5.327
71.62000 3.727
71.64000 4.750
71.66000 8.739
71.68000 10.728
71.70000 5.576
71.72000 4.691
71.74000 4.445
71.76000 5.589
71.78000 3.606
71.80000 0.764
71.82000 1.711
71.84000 6.136
71.86000 3.947
71.88000 7.163
71.90000 7.914
71.92000 4.837
71.94000 6.128
71.96000 5.981
71.98000 7.905
72.00000 7.599
72.02000 7.144
72.04000 6.881
72.06000 3.663
72.08000 1.576
72.10000 2.400
72.12000 2.170
72.14000 -0.452
72.16000 0.457
72.18000 8.277
72.20000 5.007
72.22000 -1.332
72.24000 5.172
72.26000 0.183
72.28000 -1.481
72.30000 -0.821
72.32000 6.699
72.34000 4.908
72.36000 0.114
72.38000 -1.456
72.40000 4.942
72.42000 9.434
72.44000 4.635
72.46000 3.514
72.48000 -0.900
72.50000 -2.584
72.52000 -1.702
72.54000 2.409
72.56000 2.501
72.58000 3.176
72.60000 0.199
72.62000 1.262
72.64000 -1.012
72.66000 2.332
72.68000 -0.074
72.70000 5.623
72.72000 5.347
72.74000 3.442
72.76000 4.685
72.78000 -0.411
72.80000 5.017
72.82000 4.288
72.84000 5.943
72.86000 9.001
72.88000 8.547
72.90000 3.328
72.92000 3.587
72.94000 5.859
72.96000 5.269
72.98000 0.030
73.00000 -2.575
73.02000 -0.410
73.04000 3.198
73.06000 0.586
73.08000 0.634
73.10000 4.308
73.12000 4.294
73.14000 1.644
73.16000 1.270
73.18000 6.488
73.20000 1.040
73.22000 -0.764
73.24000 2.252
73.26000 6.162
73.28000 4.323
73.30000 -2.565
73.32000 3.239
73.34000 4.062
73.36000 8.148
73.38000 6.029
73.40000 1.259
73.42000 4.527
73.44000 1.405
73.46000 2.220
73.48000 4.143
73.50000 1.541
73.52000 -1.212
73.54000 0.254
73.56000 6.413
73.58000 4.913
73.60000 -0.354
73.62000 -2.326
73.64000 -2.561
73.66000 0.144
73.68000 1.920
73.70000 5.285
73.72000 3.493
73.74000 3.322
73.76000 6.259
73.78000 0.110
73.80000 0.147
73.82000 3.874
73.84000 3.543
73.86000 4.986
73.88000 2.551
73.90000 2.942
73.92000 3.129
73.94000 1.995
73.96000 0.125
73.98000 1.394
74.00000 3.946
74.02000 4.284
74.04000 2.119
74.06000 0.475
74.08000 5.333
74.10000 4.001
74.12000 2.619
74.14000 -1.136
74.16000 -1.283
74.18000 0.042
74.20000 0.899
74.22000 0.507
74.24000 0.174
74.26000 -2.571
74.28000 1.502
74.30000 0.706
74.32000 2.415
74.34000 -0.738
74.36000 0.215
74.38000 0.483
74.40000 1.484
74.42000 2.468
74.44000 3.081
74.46000 5.867
74.48000 1.587
74.50000 2.962
74.52000 3.572
74.54000 5.742
74.56000 6.877
74.58000 4.527
74.60000 3.999
74.62000 7.408
74.64000 3.759
74.66000 1.607
74.68000 1.316
74.70000 4.731
74.72000 0.506
74.74000 -1.918
74.76000 -0.233
74.78000 0.244
74.80000 -2.097
74.82000 -2.567
74.84000 0.901
74.86000 5.269
74.88000 5.455
74.90000 2.231
74.92000 -2.357
74.94000 2.225
74.96000 5.650
74.98000 4.164
75.00000 5.055
75.02000 4.772
75.04000 3.757
75.06000 5.912
75.08000 4.690
75.10000 0.296
75.12000 -0.948
75.14000 3.222
75.16000 5.992
75.18000 3.786
75.20000 4.643
75.22000 9.937
75.24000 5.468
75.26000 1.741
75.28000 6.409
75.30000 0.941
75.32000 -1.883
75.34000 3.601
75.36000 6.361
75.38000 1.837
75.40000 6.303
75.42000 1.870
75.44000 3.331
75.46000 5.148
75.48000 1.580
75.50000 4.503
75.52000 3.951
75.54000 7.964
75.56000 11.290
75.58000 9.404
75.60000 6.212
75.62000 0.465
75.64000 -0.856
75.66000 0.177
75.68000 2.009
75.70000 0.511
75.72000 5.556
75.74000 4.353
75.76000 3.018
75.78000 1.585
75.80000 1.736
75.82000 -1.517
75.84000 -1.384
75.86000 -2.567
75.88000 -0.440
75.90000 6.307
75.92000 3.952
75.94000 3.142
75.96000 9.111
75.98000 2.767
76.00000 0.119
76.02000 1.724
76.04000 5.205
76.06000 4.283
76.08000 5.163
76.10000 3.318
76.12000 4.869
76.14000 3.199
76.16000 2.011
76.18000 0.876
76.20000 2.824
76.22000 -0.256
76.24000 3.753
76.26000 3.630
76.28000 -1.604
76.30000 -0.263
76.32000 -1.597
76.34000 -2.098
76.36000 5.432
76.38000 5.132
76.40000 5.273
76.42000 1.037
76.44000 -1.544
76.46000 -2.590
76.48000 -0.603
76.50000 5.833
76.52000 7.425
76.54000 7.411
76.56000 4.289
76.58000 0.768
76.60000 0.653
76.62000 2.001
76.64000 -0.191
76.66000 1.210
76.68000 -1.130
76.70000 -0.097
76.72000 5.051
76.74000 2.777
76.76000 -1.713
76.78000 2.164
76.80000 4.884
76.82000 8.466
76.84000 5.130
76.86000 -1.000
76.88000 -0.920
76.90000 0.173
76.92000 6.601
76.94000 4.597
76.96000 1.241
76.98000 4.026
77.00000 4.500
77.02000 3.207
77.04000 4.019
77.06000 5.212
77.08000 -0.969
77.10000 1.597
77.12000 -2.591
77.14000 0.955
77.16000 5.844
77.18000 4.467
77.20000 2.538
77.22000 4.964
77.24000 6.826
77.26000 2.451
77.28000 4.682
77.30000 2.408
77.32000 2.662
77.34000 0.613
77.36000 -2.163
77.38000 -1.479
77.40000 0.360
77.42000 1.674
77.44000 0.988
77.46000 3.029
77.48000 0.901
77.50000 5.334
77.52000 7.757
77.54000 4.423
77.56000 6.317
77.58000 2.008
77.60000 -0.463
77.62000 2.859
77.64000 6.364
77.66000 8.080
77.68000 6.440
77.70000 5.010
77.72000 8.029
77.74000 9.016
77.76000 4.857
77.78000 2.228
77.80000 7.095
77.82000 5.324
77.84000 4.294
77.86000 4.564
77.88000 6.829
77.90000 7.495
77.92000 7.245
77.94000 10.866
77.96000 10.680
77.98000 9.650
78.00000 8.755
78.02000 7.544
78.04000 4.000
78.06000 1.362
78.08000 0.634
78.10000 -2.585
78.12000 1.255
78.14000 3.254
78.16000 2.077
78.18000 2.923
78.20000 8.348
78.22000 9.666
78.24000 3.365
78.26000 4.868
78.28000 4.579
78.30000 4.456
78.32000 4.673
78.34000 4.702
78.36000 6.714
78.38000 4.886
78.40000 6.664
78.42000 3.805
78.44000 2.881
78.46000 3.493
78.48000 4.851
78.50000 2.988
78.52000 5.386
78.54000 10.517
78.56000 12.345
78.58000 9.799
78.60000 4.475
78.62000 3.403
78.64000 7.891
78.66000 10.747
78.68000 7.707
78.70000 7.125
78.72000 15.530
78.74000 12.845
78.76000 9.555
78.78000 5.283
78.80000 2.510
78.82000 6.748
78.84000 7.920
78.86000 4.790
78.88000 8.208
78.90000 7.421
78.92000 4.256
78.94000 7.307
78.96000 3.525
78.98000 3.027
79.00000 8.443
79.02000 5.448
79.04000 -0.199
79.06000 7.519
79.08000 10.469
79.10000 12.846
79.12000 12.709
79.14000 12.577
79.16000 10.616
79.18000 6.201
79.20000 5.406
79.22000 5.985
79.24000 10.315
79.26000 8.494
79.28000 1.752
79.30000 -2.637
79.32000 0.737
79.34000 5.414
79.36000 2.293
79.38000 3.378
79.40000 8.254
79.42000 10.110
79.44000 13.083
79.46000 13.965
79.48000 6.328
79.50000 5.419
79.52000 4.600
79.54000 3.893
79.56000 9.030
79.58000 10.378
79.60000 3.820
79.62000 4.580
79.64000 5.684
79.66000 4.364
79.68000 4.130
79.70000 5.603
79.72000 9.789
79.74000 5.876
79.76000 3.410
79.78000 4.595
79.80000 7.831
79.82000 6.777
79.84000 4.017
79.86000 4.177
79.88000 5.596
79.90000 5.555
79.92000 5.383
79.94000 6.512
79.96000 -0.805
79.98000 4.843
80.00000 5.637
80.02000 5.330
80.04000 7.909
80.06000 4.976
80.08000 0.903
80.10000 0.005
80.12000 -1.263
80.14000 -2.082
80.16000 -0.437
80.18000 3.647
80.20000 1.462
80.22000 -0.959
80.24000 7.634
80.26000 5.142
80.28000 6.487
80.30000 6.654
80.32000 1.398
80.34000 3.765
80.36000 3.073
80.38000 7.767
80.40000 3.441
80.42000 6.742
80.44000 9.251
80.46000 5.659
80.48000 6.635
80.50000 9.960
80.52000 11.955
80.54000 8.197
80.56000 1.028
80.58000 6.935
80.60000 12.321
80.62000 9.885
80.64000 6.914
80.66000 4.684
80.68000 11.729
80.70000 9.031
80.72000 10.440
80.74000 11.307
80.76000 5.607
80.78000 11.789
80.80000 11.096
80.82000 8.036
80.84000 7.328
80.86000 9.575
80.88000 4.873
80.90000 5.707
80.92000 14.028
80.94000 14.166
80.96000 10.923
80.98000 9.755
81.00000 10.876
81.02000 10.717
81.04000 8.509
81.06000 8.209
81.08000 14.285
81.10000 12.975
81.12000 12.167
81.14000 10.260
81.16000 11.602
81.18000 12.534
81.20000 15.966
81.22000 19.563
81.24000 18.531
81.26000 18.334
81.28000 17.368
81.30000 18.727
81.32000 20.108
81.34000 12.633
81.36000 12.404
81.38000 21.495
81.40000 24.816
81.42000 18.362
81.44000 21.798
81.46000 18.583
81.48000 18.588
81.50000 17.723
81.52000 21.150
81.54000 21.170
81.56000 17.547
81.58000 19.472
81.60000 23.244
81.62000 22.552
81.64000 25.352
81.66000 28.178
81.68000 24.091
81.70000 22.086
81.72000 21.147
81.74000 21.895
81.76000 26.613
81.78000 30.708
81.80000 28.653
81.82000 23.233
81.84000 24.651
81.86000 27.740
81.88000 32.760
81.90000 30.418
81.92000 20.408
81.94000 23.710
81.96000 24.384
81.98000 26.572
82.00000 24.727
82.02000 25.855
82.04000 20.284
82.06000 16.314
82.08000 22.627
82.10000 32.906
82.12000 29.750
82.14000 23.873
82.16000 21.218
82.18000 23.406
82.20000 29.337
82.22000 26.691
82.24000 18.670
82.26000 24.787
82.28000 21.618
82.30000 14.226
82.32000 20.208
82.34000 21.570
82.36000 21.478
82.38000 28.864
82.40000 23.522
82.42000 23.938
82.44000 18.417
82.46000 19.467
82.48000 19.578
82.50000 18.560
82.52000 23.323
82.54000 23.615
82.56000 18.809
82.58000 20.826
82.60000 22.243
82.62000 18.277
82.64000 10.689
82.66000 14.654
82.68000 22.608
82.70000 18.728
82.72000 23.419
82.74000 23.284
82.76000 23.333
82.78000 26.863
82.80000 20.311
82.82000 15.504
82.84000 20.049
82.86000 12.298
82.88000 18.067
82.90000 18.429
82.92000 15.945
82.94000 12.774
82.96000 12.350
82.98000 15.607
83.00000 10.799
83.02000 12.532
83.04000 10.368
83.06000 14.947
83.08000 13.106
83.10000 12.350
83.12000 11.363
83.14000 10.070
83.16000 15.062
83.18000 11.625
83.20000 12.331
83.22000 8.751
83.24000 7.958
83.26000 6.542
83.28000 1.996
83.30000 3.509
83.32000 13.447
83.34000 10.897
83.36000 11.518
83.38000 10.433
83.40000 5.680
83.42000 3.368
83.44000 7.099
83.46000 2.384
83.48000 1.645
83.50000 6.239
83.52000 14.329
83.54000 10.059
83.56000 7.101
83.58000 5.130
83.60000 7.230
83.62000 10.327
83.64000 10.407
83.66000 6.213
83.68000 0.903
83.70000 -0.070
83.72000 2.978
83.74000 5.967
83.76000 3.838
83.78000 -1.075
83.80000 -2.803
83.82000 3.244
83.84000 5.433
83.86000 6.567
83.88000 6.703
83.90000 3.032
83.92000 0.727
83.94000 1.779
83.96000 3.927
83.98000 9.404
84.00000 8.739
84.02000 7.975
84.04000 8.300
84.06000 3.204
84.08000 4.692
84.10000 -1.122
84.12000 0.564
84.14000 0.015
84.16000 1.731
84.18000 -2.519
84.20000 1.791
84.22000 0.601
84.24000 0.827
84.26000 6.410
84.28000 0.261
84.30000 1.244
84.32000 4.420
84.34000 5.012
84.36000 3.373
84.38000 0.926
84.40000 0.408
84.42000 1.746
84.44000 1.258
84.46000 -0.059
84.48000 0.091
84.50000 -2.785
84.52000 1.723
84.54000 3.129
84.56000 5.128
84.58000 9.946
84.60000 2.802
84.62000 1.332
84.64000 9.334
84.66000 3.604
84.68000 2.060
84.70000 1.787
84.72000 -0.396
84.74000 3.198
84.76000 7.792
84.78000 3.329
84.80000 5.969
84.82000 2.182
84.84000 9.398
84.86000 5.505
84.88000 1.964
84.90000 7.031
84.92000 6.799
84.94000 4.494
84.96000 1.421
84.98000 8.994
85.00000 10.946
85.02000 8.648
85.04000 10.422
85.06000 6.479
85.08000 4.077
85.10000 3.030
85.12000 6.156
85.14000 11.148
85.16000 8.177
85.18000 7.077
85.20000 13.658
85.22000 12.709
85.24000 9.935
85.26000 13.716
85.28000 15.292
85.30000 14.491
85.32000 12.995
85.34000 21.455
85.36000 18.764
85.38000 16.260
85.40000 19.957
85.42000 18.732
85.44000 15.500
85.46000 20.319
85.48000 20.386
85.50000 22.698
85.52000 22.425
85.54000 19.672
85.56000 17.534
85.58000 26.886
85.60000 27.598
85.62000 25.572
85.64000 27.886
85.66000 34.622
85.68000 29.692
85.70000 25.709
85.72000 26.467
85.74000 29.342
85.76000 28.082
85.78000 34.263
85.80000 39.491
85.82000 30.397
85.84000 32.334
85.86000 32.751
85.88000 27.575
85.90000 30.936
85.92000 37.744
85.94000 41.092
85.96000 43.256
85.98000 38.887
86.00000 42.433
86.02000 47.217
86.04000 41.788
86.06000 42.806
86.08000 43.468
86.10000 39.769
86.12000 39.604
86.14000 44.125
86.16000 47.173
86.18000 46.030
86.20000 50.158
86.22000 49.947
86.24000 51.097
86.26000 55.199
86.28000 54.861
86.30000 50.679
86.32000 54.193
86.34000 53.777
86.36000 46.395
86.38000 46.317
86.40000 57.453
86.42000 57.799
86.44000 58.469
86.46000 57.349
86.48000 55.420
86.50000 52.595
86.52000 53.038
86.54000 51.865
86.56000 44.569
86.58000 42.647
86.60000 48.635
86.62000 47.019
86.64000 44.429
86.66000 50.118
86.68000 44.897
86.70000 45.393
86.72000 47.601
86.74000 49.394
86.76000 51.024
86.78000 47.632
86.80000 40.099
86.82000 35.150
86.84000 37.407
86.86000 43.330
86.88000 42.613
86.90000 43.136
86.92000 46.354
86.94000 43.734
86.96000 32.965
86.98000 28.511
87.00000 34.066
87.02000 37.551
87.04000 33.148
87.06000 33.628
87.08000 28.692
87.10000 29.760
87.12000 28.643
87.14000 25.520
87.16000 24.153
87.18000 22.138
87.20000 18.135
87.22000 26.356
87.24000 23.013
87.26000 13.526
87.28000 22.220
87.30000 25.793
87.32000 23.354
87.34000 21.896
87.36000 17.263
87.38000 15.524
87.40000 16.974
87.42000 18.837
87.44000 24.124
87.46000 14.337
87.48000 14.864
87.50000 16.239
87.52000 11.424
87.54000 14.678
87.56000 15.225
87.58000 8.171
87.60000 9.104
87.62000 13.538
87.64000 15.007
87.66000 7.912
87.68000 6.276
87.70000 6.109
87.72000 6.211
87.74000 12.553
87.76000 9.961
87.78000 7.894
87.80000 7.433
87.82000 6.228
87.84000 4.754
87.86000 9.710
87.88000 10.482
87.90000 2.615
87.92000 4.523
87.94000 2.997
87.96000 4.130
87.98000 -1.230
88.00000 -2.575
88.02000 2.858
88.04000 6.895
88.06000 7.814
88.08000 11.005
88.10000 4.183
88.12000 0.368
88.14000 -1.456
88.16000 1.680
88.18000 7.927
88.20000 1.818
88.22000 3.346
88.24000 7.222
88.26000 8.186
88.28000 5.461
88.30000 6.101
88.32000 7.566
88.34000 8.301
88.36000 0.284
88.38000 2.258
88.40000 0.965
88.42000 -1.735
88.44000 -2.492
88.46000 3.463
88.48000 0.875
88.50000 -0.967
88.52000 2.770
88.54000 5.732
88.56000 6.510
88.58000 -0.107
88.60000 0.010
88.62000 2.800
88.64000 7.688
88.66000 9.521
88.68000 4.063
88.70000 6.025
88.72000 4.209
88.74000 8.563
88.76000 6.903
88.78000 -0.638
88.80000 5.060
88.82000 2.946
88.84000 2.897
88.86000 11.354
88.88000 10.790
88.90000 3.608
88.92000 -0.311
88.94000 3.815
88.96000 4.581
88.98000 4.733
89.00000 4.474
89.02000 5.157
89.04000 -0.988
89.06000 -2.449
89.08000 5.706
89.10000 3.902
89.12000 -0.867
89.14000 2.417
89.16000 4.635
89.18000 8.413
89.20000 2.591
89.22000 -1.114
89.24000 4.038
89.26000 7.416
89.28000 2.131
89.30000 -0.799
89.32000 9.826
89.34000 1.358
89.36000 2.868
89.38000 0.540
89.40000 0.821
89.42000 3.696
89.44000 5.184
89.46000 5.152
89.48000 7.135
89.50000 4.486
89.52000 3.000
89.54000 2.103
89.56000 2.294
89.58000 2.977
89.60000 -1.677
89.62000 3.845
89.64000 4.553
89.66000 5.357
89.68000 6.405
89.70000 8.382
89.72000 10.846
89.74000 6.525
89.76000 2.448
89.78000 9.768
89.80000 3.400
89.82000 0.605
89.84000 -0.166
89.86000 4.754
89.88000 1.452
89.90000 2.703
89.92000 5.505
89.94000 10.549
89.96000 10.513
89.98000 8.786
90.00000 8.481
90.02000 8.306
90.04000 7.862
90.06000 6.426
90.08000 4.739
90.10000 5.709
90.12000 5.457
90.14000 6.825
90.16000 3.442
90.18000 3.455
90.20000 5.630
90.22000 4.063
90.24000 3.756
90.26000 2.738
90.28000 3.341
90.30000 1.837
90.32000 4.029
90.34000 3.221
90.36000 1.200
90.38000 6.248
90.40000 6.427
90.42000 5.936
90.44000 4.502
90.46000 4.218
90.48000 7.302
90.50000 7.191
90.52000 3.382
90.54000 -2.351
90.56000 0.987
90.58000 3.276
90.60000 8.349
90.62000 9.256
90.64000 7.797
90.66000 5.475
90.68000 7.121
90.70000 3.288
90.72000 5.931
90.74000 3.605
90.76000 4.740
90.78000 1.498
90.80000 2.885
90.82000 6.062
90.84000 2.364
90.86000 4.318
90.88000 7.353
90.90000 12.553
90.92000 7.891
90.94000 7.721
90.96000 5.864
90.98000 5.373
91.00000 -0.584
91.02000 2.294
91.04000 7.754
91.06000 6.440
91.08000 8.185
91.10000 10.778
91.12000 7.916
91.14000 1.884
91.16000 2.595
91.18000 6.808
91.20000 9.047
91.22000 3.524
91.24000 2.635
91.26000 7.075
91.28000 4.238
91.30000 1.315
91.32000 -0.331
91.34000 3.198
91.36000 6.657
91.38000 6.619
91.40000 4.873
91.42000 6.325
91.44000 5.850
91.46000 1.836
91.48000 3.236
91.50000 7.637
91.52000 4.662
91.54000 5.940
91.56000 6.154
91.58000 7.131
91.60000 -1.887
91.62000 4.516
91.64000 7.571
91.66000 4.893
91.68000 -0.515
91.70000 -1.242
91.72000 1.584
91.74000 3.335
91.76000 3.741
91.78000 8.590
91.80000 6.565
91.82000 1.545
91.84000 7.142
91.86000 8.426
91.88000 4.624
91.90000 6.860
91.92000 4.076
91.94000 5.406
91.96000 4.835
91.98000 4.620
92.00000 4.716
92.02000 4.338
92.04000 5.090
92.06000 4.491
92.08000 5.666
92.10000 -2.367
92.12000 6.088
92.14000 11.378
92.16000 4.998
92.18000 11.243
92.20000 18.697
92.22000 18.523
92.24000 15.667
92.26000 12.053
92.28000 12.577
92.30000 6.292
92.32000 1.960
92.34000 -2.488
92.36000 10.471
92.38000 16.262
92.40000 13.086
92.42000 7.854
92.44000 10.432
92.46000 11.667
92.48000 6.409
92.50000 1.966
92.52000 7.466
92.54000 5.094
92.56000 6.607
92.58000 11.698
92.60000 6.489
92.62000 7.605
92.64000 7.911
92.66000 10.420
92.68000 6.192
92.70000 2.121
92.72000 2.036
92.74000 4.698
92.76000 7.672
92.78000 3.671
92.80000 -1.117
92.82000 3.786
92.84000 3.874
92.86000 3.372
92.88000 0.980
92.90000 4.492
92.92000 4.259
92.94000 9.467
92.96000 9.320
92.98000 7.709
93.00000 4.666
93.02000 4.684
93.04000 4.042
93.06000 1.124
93.08000 -2.397
93.10000 0.919
93.12000 9.500
93.14000 9.076
93.16000 6.669
93.18000 8.834
93.20000 6.882
93.22000 6.286
93.24000 8.147
93.26000 4.975
93.28000 5.950
93.30000 8.810
93.32000 6.470
93.34000 6.095
93.36000 1.636
93.38000 3.586
93.40000 1.594
93.42000 -1.789
93.44000 4.345
93.46000 3.978
93.48000 5.915
93.50000 8.271
93.52000 4.564
93.54000 7.328
93.56000 5.432
93.58000 7.074
93.60000 5.437
93.62000 5.537
93.64000 6.924
93.66000 8.744
93.68000 6.070
93.70000 3.015
93.72000 4.605
93.74000 1.927
93.76000 -2.401
93.78000 7.113
93.80000 3.007
93.82000 2.129
93.84000 -1.162
93.86000 0.283
93.88000 1.229
93.90000 1.190
93.92000 0.171
93.94000 -1.556
93.96000 10.730
93.98000 11.669
94.00000 2.631
94.02000 1.599
94.04000 5.747
94.06000 7.702
94.08000 2.795
94.10000 5.307
94.12000 7.152
94.14000 6.871
94.16000 4.757
94.18000 5.020
94.20000 4.501
94.22000 8.905
94.24000 7.199
94.26000 5.794
94.28000 8.697
94.30000 5.393
94.32000 4.340
94.34000 9.079
94.36000 8.631
94.38000 1.280
94.40000 -0.736
94.42000 3.469
94.44000 -0.711
94.46000 2.156
94.48000 0.012
94.50000 4.733
94.52000 9.038
94.54000 9.238
94.56000 4.565
94.58000 5.158
94.60000 6.821
94.62000 7.396
94.64000 6.952
94.66000 5.550
94.68000 -1.075
94.70000 -0.159
94.72000 1.221
94.74000 2.456
94.76000 1.884
94.78000 -0.793
94.80000 7.382
94.82000 8.378
94.84000 4.820
94.86000 4.924
94.88000 6.280
94.90000 6.505
94.92000 9.482
94.94000 8.217
94.96000 1.228
94.98000 9.157
95.00000 9.400
95.02000 5.195
95.04000 -0.461
95.06000 8.242
95.08000 5.987
95.10000 -1.235
95.12000 -1.115
95.14000 1.901
95.16000 2.392
95.18000 6.745
95.20000 9.961
95.22000 4.286
95.24000 -2.444
95.26000 -0.292
95.28000 4.727
95.30000 5.847
95.32000 4.758
95.34000 0.711
95.36000 -1.490
95.38000 2.601
95.40000 0.338
95.42000 0.932
95.44000 4.960
95.46000 3.907
95.48000 7.557
95.50000 1.876
95.52000 -1.204
95.54000 0.148
95.56000 -1.318
95.58000 1.535
95.60000 1.857
95.62000 2.855
95.64000 4.823
95.66000 10.277
95.68000 4.913
95.70000 4.781
95.72000 -1.635
95.74000 2.594
95.76000 7.488
95.78000 4.667
95.80000 2.749
95.82000 -0.025
95.84000 11.840
95.86000 17.029
95.88000 11.542
95.90000 7.416
95.92000 2.286
95.94000 -1.730
95.96000 -2.423
95.98000 0.986
96.00000 -1.480
96.02000 -1.086
96.04000 4.059
96.06000 6.886
96.08000 4.904
96.10000 5.972
96.12000 1.731
96.14000 7.082
96.16000 6.566
96.18000 2.250
96.20000 3.170
96.22000 6.744
96.24000 10.237
96.26000 -2.413
96.28000 1.368
96.30000 -0.046
96.32000 4.655
96.34000 5.945
96.36000 11.478
96.38000 4.255
96.40000 -2.330
96.42000 5.066
96.44000 7.792
96.46000 8.722
96.48000 5.505
96.50000 9.122
96.52000 6.923
96.54000 6.754
96.56000 7.822
96.58000 5.311
96.60000 11.551
96.62000 8.773
96.64000 12.321
96.66000 5.389
96.68000 3.517
96.70000 5.922
96.72000 9.393
96.74000 10.102
96.76000 12.584
96.78000 6.416
96.80000 2.074
96.82000 3.623
96.84000 7.367
96.86000 7.702
96.88000 6.594
96.90000 2.197
96.92000 11.728
96.94000 11.470
96.96000 8.806
96.98000 -2.401
97.00000 0.305
97.02000 5.814
97.04000 1.558
97.06000 4.152
97.08000 5.190
97.10000 3.932
97.12000 4.339
97.14000 4.961
97.16000 7.749
97.18000 12.508
97.20000 8.953
97.22000 2.911
97.24000 7.295
97.26000 8.161
97.28000 5.854
97.30000 4.440
97.32000 1.709
97.34000 8.518
97.36000 6.046
97.38000 6.115
97.40000 4.206
97.42000 10.321
97.44000 15.121
97.46000 11.279
97.48000 7.864
97.50000 5.284
97.52000 12.432
97.54000 15.565
97.56000 7.247
97.58000 8.931
97.60000 7.136
97.62000 2.740
97.64000 6.950
97.66000 10.725
97.68000 1.620
97.70000 1.882
97.72000 3.585
97.74000 3.272
97.76000 5.729
97.78000 8.326
97.80000 3.208
97.82000 9.917
97.84000 20.860
97.86000 10.441
97.88000 2.152
97.90000 5.093
97.92000 9.328
97.94000 3.028
97.96000 3.043
97.98000 4.916
98.00000 10.044
98.02000 5.710
98.04000 7.374
98.06000 8.151
98.08000 4.737
98.10000 -2.348
98.12000 0.904
98.14000 3.784
98.16000 14.997
98.18000 6.619
98.20000 0.272
98.22000 5.647
98.24000 8.330
98.26000 -1.391
98.28000 1.045
98.30000 1.464
98.32000 2.974
98.34000 10.341
98.36000 6.870
98.38000 1.209
98.40000 0.224
98.42000 10.601
98.44000 12.829
98.46000 14.218
98.48000 14.318
98.50000 6.027
98.52000 5.422
98.54000 6.325
98.56000 16.447
98.58000 8.790
98.60000 8.327
98.62000 10.558
98.64000 4.033
98.66000 12.945
98.68000 9.190
98.70000 7.039
98.72000 9.454
98.74000 6.758
98.76000 7.854
98.78000 0.961
98.80000 6.960
98.82000 7.047
98.84000 3.010
98.86000 10.222
98.88000 1.358
98.90000 7.057
98.92000 5.775
98.94000 4.960
98.96000 7.061
98.98000 -2.351
99.00000 1.897
99.02000 13.500
99.04000 9.875
99.06000 3.567
99.08000 2.544
99.10000 5.409
99.12000 13.739
99.14000 14.134
99.16000 1.505
99.18000 5.516
99.20000 1.229
99.22000 1.479
99.24000 3.803
99.26000 4.123
99.28000 3.919
99.30000 4.656
99.32000 15.211
99.34000 10.051
99.36000 4.653
99.38000 3.565
99.40000 -2.348
99.42000 2.617
99.44000 15.339
99.46000 7.783
99.48000 0.459
99.50000 -2.353
99.52000 2.731
99.54000 5.702
99.56000 4.406
99.58000 13.980
99.60000 1.852
99.62000 3.144
99.64000 2.708
99.66000 3.637
99.68000 8.718
99.70000 13.006
99.72000 13.950
99.74000 -0.664
99.76000 9.136
99.78000 10.621
99.80000 11.384
99.82000 24.891
99.84000 14.536
99.86000 4.866
99.88000 -2.499
99.90000 2.542
99.92000 0.925
99.94000 -1.152
99.96000 -2.726
99.98000 0.000
