'Id: "0011388" Comment: "Integrate frame 0011388_Au-Ir-Rh_Rh-rich_XRD-Mapping-279-0000.gfrmwith cursor Wedge Cursor #5" Operator: "B?rgel" Anode: "Cu" Wavelength: "1.5406" Scantype: "2Theta (TwoTheta)" TimePerStep: "1" X: "-36" Y: "27" Z: "5.95" 
10.00000 0.000
10.02000 -4.504
10.04000 8.564
10.06000 26.525
10.08000 8.119
10.10000 20.693
10.12000 28.807
10.14000 23.920
10.16000 17.577
10.18000 18.179
10.20000 7.293
10.22000 10.833
10.24000 14.321
10.26000 31.896
10.28000 35.626
10.30000 24.611
10.32000 16.261
10.34000 10.477
10.36000 22.171
10.38000 25.263
10.40000 22.836
10.42000 18.171
10.44000 26.482
10.46000 23.919
10.48000 10.373
10.50000 9.496
10.52000 -4.433
10.54000 -0.255
10.56000 18.869
10.58000 24.979
10.60000 21.450
10.62000 18.481
10.64000 25.506
10.66000 13.033
10.68000 14.262
10.70000 25.534
10.72000 18.409
10.74000 13.892
10.76000 26.235
10.78000 29.652
10.80000 39.698
10.82000 27.906
10.84000 7.844
10.86000 11.964
10.88000 30.033
10.90000 32.247
10.92000 29.817
10.94000 18.397
10.96000 17.855
10.98000 14.517
11.00000 14.195
11.02000 27.115
11.04000 25.728
11.06000 20.375
11.08000 12.497
11.10000 9.339
11.12000 16.302
11.14000 8.401
11.16000 9.120
11.18000 4.441
11.20000 21.131
11.22000 7.682
11.24000 17.322
11.26000 24.587
11.28000 12.612
11.30000 13.053
11.32000 0.332
11.34000 0.104
11.36000 9.887
11.38000 12.951
11.40000 2.213
11.42000 10.410
11.44000 3.970
11.46000 8.711
11.48000 -0.051
11.50000 -1.363
11.52000 5.676
11.54000 18.836
11.56000 20.827
11.58000 11.803
11.60000 13.399
11.62000 15.066
11.64000 22.392
11.66000 18.283
11.68000 14.629
11.70000 14.144
11.72000 15.768
11.74000 13.733
11.76000 7.601
11.78000 15.329
11.80000 11.902
11.82000 14.042
11.84000 8.732
11.86000 16.422
11.88000 11.114
11.90000 3.539
11.92000 -3.244
11.94000 2.720
11.96000 14.815
11.98000 15.860
12.00000 9.064
12.02000 5.573
12.04000 13.451
12.06000 6.801
12.08000 -0.217
12.10000 23.497
12.12000 26.255
12.14000 19.340
12.16000 16.497
12.18000 18.539
12.20000 8.298
12.22000 16.191
12.24000 22.512
12.26000 15.082
12.28000 12.473
12.30000 15.645
12.32000 23.102
12.34000 23.069
12.36000 12.508
12.38000 4.401
12.40000 5.000
12.42000 10.172
12.44000 14.334
12.46000 5.084
12.48000 4.183
12.50000 15.203
12.52000 18.188
12.54000 20.654
12.56000 16.368
12.58000 21.670
12.60000 15.159
12.62000 8.710
12.64000 11.667
12.66000 13.749
12.68000 12.758
12.70000 2.359
12.72000 -4.516
12.74000 6.286
12.76000 11.043
12.78000 12.969
12.80000 12.853
12.82000 4.988
12.84000 0.654
12.86000 8.844
12.88000 17.187
12.90000 14.225
12.92000 9.156
12.94000 -2.451
12.96000 4.121
12.98000 15.819
13.00000 10.461
13.02000 17.058
13.04000 15.468
13.06000 15.399
13.08000 10.306
13.10000 17.685
13.12000 23.790
13.14000 19.183
13.16000 11.379
13.18000 9.148
13.20000 5.856
13.22000 12.549
13.24000 3.044
13.26000 3.728
13.28000 10.412
13.30000 8.710
13.32000 1.164
13.34000 5.707
13.36000 10.407
13.38000 6.589
13.40000 6.091
13.42000 9.956
13.44000 11.645
13.46000 6.883
13.48000 15.777
13.50000 8.152
13.52000 1.182
13.54000 15.763
13.56000 12.384
13.58000 9.287
13.60000 4.004
13.62000 7.782
13.64000 0.914
13.66000 -2.149
13.68000 9.300
13.70000 13.787
13.72000 1.256
13.74000 7.557
13.76000 16.984
13.78000 13.851
13.80000 18.481
13.82000 14.194
13.84000 10.856
13.86000 9.021
13.88000 8.276
13.90000 4.685
13.92000 14.303
13.94000 12.855
13.96000 12.412
13.98000 3.944
14.00000 4.166
14.02000 2.013
14.04000 10.030
14.06000 6.195
14.08000 5.983
14.10000 9.581
14.12000 11.200
14.14000 9.721
14.16000 3.203
14.18000 13.204
14.20000 13.341
14.22000 10.560
14.24000 14.194
14.26000 18.067
14.28000 12.165
14.30000 5.456
14.32000 9.042
14.34000 10.274
14.36000 6.025
14.38000 6.483
14.40000 3.867
14.42000 2.788
14.44000 7.823
14.46000 2.074
14.48000 6.424
14.50000 11.222
14.52000 11.343
14.54000 -0.139
14.56000 -4.496
14.58000 6.411
14.60000 10.076
14.62000 10.649
14.64000 7.192
14.66000 3.693
14.68000 1.233
14.70000 7.340
14.72000 16.184
14.74000 1.835
14.76000 1.494
14.78000 5.696
14.80000 12.612
14.82000 11.970
14.84000 4.004
14.86000 6.252
14.88000 6.011
14.90000 10.775
14.92000 14.471
14.94000 10.951
14.96000 -3.683
14.98000 1.562
15.00000 11.379
15.02000 6.277
15.04000 1.753
15.06000 8.981
15.08000 18.923
15.10000 9.748
15.12000 6.118
15.14000 3.626
15.16000 4.879
15.18000 0.156
15.20000 8.916
15.22000 24.263
15.24000 19.740
15.26000 3.321
15.28000 7.275
15.30000 8.595
15.32000 6.560
15.34000 0.947
15.36000 6.698
15.38000 -2.735
15.40000 0.579
15.42000 8.983
15.44000 11.373
15.46000 7.882
15.48000 3.232
15.50000 -3.490
15.52000 1.235
15.54000 8.395
15.56000 7.908
15.58000 15.691
15.60000 6.489
15.62000 4.585
15.64000 6.333
15.66000 11.160
15.68000 11.758
15.70000 3.501
15.72000 7.005
15.74000 10.195
15.76000 9.851
15.78000 11.331
15.80000 7.554
15.82000 4.931
15.84000 2.031
15.86000 8.667
15.88000 8.019
15.90000 5.121
15.92000 8.462
15.94000 6.925
15.96000 6.715
15.98000 5.603
16.00000 -2.285
16.02000 -2.553
16.04000 3.253
16.06000 1.561
16.08000 2.088
16.10000 11.169
16.12000 8.236
16.14000 7.460
16.16000 11.501
16.18000 8.876
16.20000 4.620
16.22000 14.662
16.24000 16.247
16.26000 9.184
16.28000 8.061
16.30000 -0.779
16.32000 -4.415
16.34000 8.650
16.36000 13.316
16.38000 9.084
16.40000 0.218
16.42000 -1.566
16.44000 3.186
16.46000 8.764
16.48000 10.621
16.50000 5.434
16.52000 2.587
16.54000 10.902
16.56000 18.902
16.58000 19.558
16.60000 10.748
16.62000 14.616
16.64000 6.716
16.66000 7.035
16.68000 15.721
16.70000 14.899
16.72000 9.344
16.74000 6.281
16.76000 8.177
16.78000 10.747
16.80000 3.960
16.82000 3.512
16.84000 12.381
16.86000 9.310
16.88000 5.165
16.90000 7.536
16.92000 7.435
16.94000 6.074
16.96000 7.827
16.98000 15.336
17.00000 9.154
17.02000 4.202
17.04000 5.983
17.06000 8.627
17.08000 7.840
17.10000 -0.229
17.12000 7.287
17.14000 10.775
17.16000 1.336
17.18000 3.120
17.20000 9.605
17.22000 9.503
17.24000 5.264
17.26000 4.213
17.28000 2.375
17.30000 -0.084
17.32000 9.663
17.34000 5.262
17.36000 4.925
17.38000 10.612
17.40000 11.782
17.42000 7.725
17.44000 3.292
17.46000 6.811
17.48000 4.550
17.50000 1.342
17.52000 5.416
17.54000 7.135
17.56000 8.048
17.58000 8.972
17.60000 10.840
17.62000 6.929
17.64000 4.940
17.66000 7.749
17.68000 14.890
17.70000 7.227
17.72000 6.052
17.74000 4.836
17.76000 1.243
17.78000 -1.241
17.80000 -2.479
17.82000 -1.863
17.84000 2.432
17.86000 2.089
17.88000 3.702
17.90000 -0.286
17.92000 -2.058
17.94000 -2.039
17.96000 3.170
17.98000 5.279
18.00000 1.834
18.02000 5.087
18.04000 4.760
18.06000 7.354
18.08000 6.422
18.10000 -1.419
18.12000 1.809
18.14000 1.112
18.16000 2.412
18.18000 4.015
18.20000 1.352
18.22000 1.450
18.24000 1.450
18.26000 7.076
18.28000 7.266
18.30000 2.319
18.32000 0.970
18.34000 6.228
18.36000 0.462
18.38000 -0.806
18.40000 5.338
18.42000 0.202
18.44000 -1.264
18.46000 6.725
18.48000 4.579
18.50000 3.156
18.52000 9.371
18.54000 5.330
18.56000 3.669
18.58000 6.868
18.60000 5.062
18.62000 -1.637
18.64000 -1.295
18.66000 -0.347
18.68000 5.873
18.70000 1.401
18.72000 -1.313
18.74000 2.762
18.76000 2.501
18.78000 0.238
18.80000 7.138
18.82000 1.578
18.84000 3.393
18.86000 4.467
18.88000 1.367
18.90000 4.779
18.92000 8.614
18.94000 12.144
18.96000 9.794
18.98000 13.359
19.00000 10.011
19.02000 7.913
19.04000 5.201
19.06000 2.108
19.08000 3.339
19.10000 0.717
19.12000 1.375
19.14000 5.621
19.16000 14.485
19.18000 16.957
19.20000 17.105
19.22000 13.438
19.24000 15.999
19.26000 15.222
19.28000 5.416
19.30000 4.712
19.32000 4.268
19.34000 -4.257
19.36000 1.979
19.38000 14.717
19.40000 10.410
19.42000 7.385
19.44000 5.507
19.46000 9.633
19.48000 10.228
19.50000 8.348
19.52000 10.331
19.54000 10.524
19.56000 6.602
19.58000 11.845
19.60000 7.775
19.62000 3.777
19.64000 4.966
19.66000 4.923
19.68000 -2.802
19.70000 2.218
19.72000 4.073
19.74000 0.594
19.76000 0.558
19.78000 4.636
19.80000 4.646
19.82000 9.378
19.84000 4.623
19.86000 13.260
19.88000 5.615
19.90000 10.151
19.92000 14.150
19.94000 8.885
19.96000 13.117
19.98000 4.777
20.00000 3.029
20.02000 5.158
20.04000 10.168
20.06000 13.838
20.08000 10.153
20.10000 3.791
20.12000 7.210
20.14000 4.781
20.16000 4.124
20.18000 6.531
20.20000 9.049
20.22000 13.669
20.24000 14.925
20.26000 10.133
20.28000 1.238
20.30000 6.696
20.32000 8.875
20.34000 7.025
20.36000 6.225
20.38000 2.599
20.40000 10.227
20.42000 11.205
20.44000 17.129
20.46000 7.199
20.48000 5.675
20.50000 6.881
20.52000 6.808
20.54000 4.350
20.56000 1.821
20.58000 6.157
20.60000 6.488
20.62000 9.286
20.64000 7.456
20.66000 6.794
20.68000 6.036
20.70000 8.063
20.72000 9.320
20.74000 12.095
20.76000 11.646
20.78000 19.157
20.80000 7.576
20.82000 -0.028
20.84000 3.783
20.86000 8.417
20.88000 9.484
20.90000 3.979
20.92000 0.836
20.94000 -4.152
20.96000 5.484
20.98000 15.761
21.00000 12.044
21.02000 1.725
21.04000 3.384
21.06000 4.183
21.08000 3.172
21.10000 6.027
21.12000 7.273
21.14000 3.360
21.16000 5.843
21.18000 7.466
21.20000 7.769
21.22000 6.319
21.24000 11.458
21.26000 6.195
21.28000 1.375
21.30000 3.663
21.32000 0.069
21.34000 -4.154
21.36000 7.935
21.38000 8.624
21.40000 2.589
21.42000 1.042
21.44000 5.174
21.46000 5.685
21.48000 4.097
21.50000 9.316
21.52000 5.790
21.54000 6.319
21.56000 8.406
21.58000 8.332
21.60000 12.533
21.62000 10.181
21.64000 0.936
21.66000 0.472
21.68000 -2.788
21.70000 10.825
21.72000 8.715
21.74000 7.376
21.76000 -0.168
21.78000 -3.048
21.80000 -2.999
21.82000 0.459
21.84000 5.915
21.86000 10.491
21.88000 6.372
21.90000 3.337
21.92000 9.214
21.94000 5.965
21.96000 3.278
21.98000 -2.213
22.00000 -3.111
22.02000 0.168
22.04000 -2.167
22.06000 -1.509
22.08000 0.223
22.10000 4.727
22.12000 7.885
22.14000 3.737
22.16000 6.102
22.18000 -0.193
22.20000 1.016
22.22000 1.928
22.24000 2.201
22.26000 -1.668
22.28000 4.175
22.30000 3.007
22.32000 0.320
22.34000 0.050
22.36000 2.340
22.38000 3.425
22.40000 2.471
22.42000 1.935
22.44000 1.425
22.46000 6.512
22.48000 6.268
22.50000 4.921
22.52000 5.531
22.54000 4.767
22.56000 5.982
22.58000 6.837
22.60000 -2.522
22.62000 -2.556
22.64000 1.317
22.66000 -1.315
22.68000 1.638
22.70000 3.380
22.72000 0.448
22.74000 9.649
22.76000 12.551
22.78000 -1.578
22.80000 -1.650
22.82000 5.163
22.84000 5.876
22.86000 2.700
22.88000 1.347
22.90000 0.373
22.92000 -0.649
22.94000 -4.088
22.96000 -0.961
22.98000 2.028
23.00000 -0.594
23.02000 1.115
23.04000 3.049
23.06000 9.400
23.08000 0.969
23.10000 0.923
23.12000 0.381
23.14000 3.248
23.16000 8.143
23.18000 13.812
23.20000 7.311
23.22000 6.236
23.24000 7.450
23.26000 10.461
23.28000 5.922
23.30000 3.076
23.32000 2.840
23.34000 6.365
23.36000 6.215
23.38000 6.452
23.40000 2.374
23.42000 1.852
23.44000 2.833
23.46000 4.917
23.48000 6.736
23.50000 2.902
23.52000 5.926
23.54000 5.783
23.56000 7.824
23.58000 6.115
23.60000 2.487
23.62000 1.934
23.64000 7.769
23.66000 3.896
23.68000 3.608
23.70000 1.909
23.72000 3.555
23.74000 5.332
23.76000 1.676
23.78000 -4.054
23.80000 -1.767
23.82000 0.997
23.84000 2.047
23.86000 4.584
23.88000 2.043
23.90000 -0.981
23.92000 3.558
23.94000 7.456
23.96000 4.070
23.98000 6.136
24.00000 2.897
24.02000 -1.399
24.04000 1.474
24.06000 3.065
24.08000 7.169
24.10000 1.222
24.12000 1.702
24.14000 -1.217
24.16000 4.085
24.18000 2.945
24.20000 1.302
24.22000 0.256
24.24000 3.961
24.26000 2.357
24.28000 -1.487
24.30000 6.735
24.32000 6.711
24.34000 5.762
24.36000 2.184
24.38000 0.425
24.40000 -1.197
24.42000 1.348
24.44000 -3.515
24.46000 -4.020
24.48000 1.763
24.50000 4.087
24.52000 5.998
24.54000 2.807
24.56000 2.933
24.58000 7.346
24.60000 10.869
24.62000 3.607
24.64000 3.154
24.66000 -0.225
24.68000 1.744
24.70000 0.942
24.72000 -2.630
24.74000 -4.000
24.76000 5.465
24.78000 9.468
24.80000 -0.289
24.82000 1.658
24.84000 1.626
24.86000 5.268
24.88000 1.955
24.90000 3.207
24.92000 -0.246
24.94000 -0.871
24.96000 -1.094
24.98000 0.172
25.00000 0.580
25.02000 -0.817
25.04000 -0.648
25.06000 0.134
25.08000 3.694
25.10000 5.433
25.12000 -0.800
25.14000 0.489
25.16000 7.972
25.18000 10.888
25.20000 0.911
25.22000 -1.275
25.24000 0.350
25.26000 2.444
25.28000 4.078
25.30000 2.229
25.32000 -0.453
25.34000 0.735
25.36000 0.981
25.38000 0.302
25.40000 -0.253
25.42000 6.167
25.44000 4.450
25.46000 -3.683
25.48000 5.077
25.50000 3.646
25.52000 -2.664
25.54000 0.254
25.56000 2.154
25.58000 -3.708
25.60000 -3.925
25.62000 5.163
25.64000 6.955
25.66000 1.857
25.68000 1.960
25.70000 2.482
25.72000 0.605
25.74000 -3.127
25.76000 -0.079
25.78000 -3.940
25.80000 0.762
25.82000 8.513
25.84000 3.033
25.86000 3.101
25.88000 4.076
25.90000 2.378
25.92000 0.936
25.94000 -1.191
25.96000 1.417
25.98000 2.845
26.00000 0.203
26.02000 -0.293
26.04000 5.969
26.06000 7.384
26.08000 -0.484
26.10000 2.370
26.12000 2.530
26.14000 1.812
26.16000 -0.120
26.18000 7.207
26.20000 6.747
26.22000 6.281
26.24000 7.964
26.26000 8.145
26.28000 6.026
26.30000 2.201
26.32000 0.856
26.34000 -1.039
26.36000 -0.852
26.38000 2.862
26.40000 6.374
26.42000 3.415
26.44000 1.142
26.46000 -1.145
26.48000 1.346
26.50000 3.577
26.52000 -2.184
26.54000 3.413
26.56000 5.543
26.58000 4.972
26.60000 9.412
26.62000 4.259
26.64000 3.013
26.66000 3.973
26.68000 -1.359
26.70000 0.063
26.72000 1.239
26.74000 -1.012
26.76000 -3.880
26.78000 2.653
26.80000 8.369
26.82000 3.357
26.84000 4.184
26.86000 9.982
26.88000 4.343
26.90000 4.625
26.92000 -1.933
26.94000 1.419
26.96000 4.874
26.98000 4.067
27.00000 8.231
27.02000 3.158
27.04000 0.417
27.06000 1.538
27.08000 1.302
27.10000 -3.126
27.12000 -3.850
27.14000 1.408
27.16000 3.864
27.18000 6.196
27.20000 8.469
27.22000 1.896
27.24000 1.846
27.26000 3.868
27.28000 6.896
27.30000 4.447
27.32000 5.904
27.34000 3.490
27.36000 4.268
27.38000 7.231
27.40000 9.566
27.42000 9.424
27.44000 3.777
27.46000 2.154
27.48000 0.673
27.50000 5.039
27.52000 2.510
27.54000 1.146
27.56000 3.669
27.58000 0.730
27.60000 -0.385
27.62000 2.306
27.64000 2.760
27.66000 8.277
27.68000 5.749
27.70000 7.077
27.72000 10.605
27.74000 3.502
27.76000 -0.976
27.78000 -0.730
27.80000 5.047
27.82000 6.005
27.84000 0.691
27.86000 -1.894
27.88000 0.631
27.90000 2.065
27.92000 5.616
27.94000 5.128
27.96000 1.941
27.98000 3.836
28.00000 1.750
28.02000 3.568
28.04000 4.139
28.06000 3.577
28.08000 5.348
28.10000 10.812
28.12000 9.776
28.14000 7.497
28.16000 4.517
28.18000 9.016
28.20000 10.513
28.22000 3.904
28.24000 -1.981
28.26000 -3.777
28.28000 -2.086
28.30000 5.901
28.32000 5.497
28.34000 6.591
28.36000 5.686
28.38000 4.240
28.40000 8.800
28.42000 7.273
28.44000 4.553
28.46000 10.859
28.48000 12.530
28.50000 6.554
28.52000 4.606
28.54000 -0.014
28.56000 -0.087
28.58000 2.221
28.60000 2.820
28.62000 2.134
28.64000 4.549
28.66000 -0.108
28.68000 1.806
28.70000 2.653
28.72000 2.635
28.74000 2.027
28.76000 2.185
28.78000 3.266
28.80000 5.147
28.82000 6.331
28.84000 0.869
28.86000 5.324
28.88000 6.238
28.90000 0.182
28.92000 2.584
28.94000 1.224
28.96000 1.813
28.98000 6.185
29.00000 11.231
29.02000 9.042
29.04000 2.833
29.06000 2.534
29.08000 3.606
29.10000 1.184
29.12000 -1.069
29.14000 0.654
29.16000 3.432
29.18000 9.102
29.20000 4.425
29.22000 0.664
29.24000 -0.330
29.26000 3.649
29.28000 8.245
29.30000 7.489
29.32000 4.873
29.34000 12.101
29.36000 6.452
29.38000 -0.438
29.40000 -1.651
29.42000 -3.331
29.44000 -3.304
29.46000 0.921
29.48000 3.976
29.50000 8.347
29.52000 3.012
29.54000 -0.996
29.56000 -2.042
29.58000 -2.033
29.60000 -3.725
29.62000 -1.964
29.64000 2.309
29.66000 2.172
29.68000 5.712
29.70000 2.861
29.72000 0.699
29.74000 2.203
29.76000 -1.117
29.78000 6.059
29.80000 6.505
29.82000 1.751
29.84000 0.565
29.86000 2.144
29.88000 -1.487
29.90000 2.491
29.92000 3.425
29.94000 5.635
29.96000 8.527
29.98000 2.730
30.00000 0.903
30.02000 2.166
30.04000 3.786
30.06000 -1.249
30.08000 -2.167
30.10000 1.137
30.12000 5.532
30.14000 1.941
30.16000 2.303
30.18000 7.448
30.20000 -1.793
30.22000 -3.438
30.24000 -3.715
30.26000 -2.135
30.28000 1.109
30.30000 5.342
30.32000 4.500
30.34000 2.669
30.36000 2.068
30.38000 -0.641
30.40000 0.942
30.42000 6.050
30.44000 4.626
30.46000 1.446
30.48000 -1.328
30.50000 1.474
30.52000 1.268
30.54000 2.368
30.56000 3.541
30.58000 3.089
30.60000 2.587
30.62000 1.408
30.64000 1.638
30.66000 2.203
30.68000 2.756
30.70000 4.608
30.72000 5.200
30.74000 0.294
30.76000 1.721
30.78000 4.685
30.80000 2.655
30.82000 5.784
30.84000 5.844
30.86000 7.798
30.88000 5.340
30.90000 6.797
30.92000 5.278
30.94000 3.102
30.96000 4.054
30.98000 1.136
31.00000 -3.676
31.02000 -1.740
31.04000 2.320
31.06000 1.928
31.08000 2.077
31.10000 2.609
31.12000 2.581
31.14000 -0.452
31.16000 3.418
31.18000 3.015
31.20000 2.930
31.22000 1.522
31.24000 4.300
31.26000 7.922
31.28000 0.646
31.30000 -0.779
31.32000 4.491
31.34000 4.957
31.36000 11.223
31.38000 6.517
31.40000 5.232
31.42000 4.355
31.44000 7.327
31.46000 2.076
31.48000 1.808
31.50000 2.500
31.52000 -3.197
31.54000 -3.644
31.56000 5.063
31.58000 1.159
31.60000 -0.217
31.62000 0.492
31.64000 1.702
31.66000 0.844
31.68000 1.683
31.70000 -0.212
31.72000 -1.307
31.74000 0.158
31.76000 5.570
31.78000 4.745
31.80000 0.843
31.82000 4.087
31.84000 2.170
31.86000 2.674
31.88000 4.438
31.90000 10.217
31.92000 7.604
31.94000 5.651
31.96000 4.563
31.98000 6.641
32.00000 3.486
32.02000 1.219
32.04000 5.238
32.06000 9.349
32.08000 5.680
32.10000 0.473
32.12000 6.291
32.14000 5.617
32.16000 0.062
32.18000 3.159
32.20000 5.028
32.22000 3.725
32.24000 -1.769
32.26000 -0.367
32.28000 4.528
32.30000 6.000
32.32000 2.586
32.34000 -1.323
32.36000 5.962
32.38000 2.792
32.40000 1.554
32.42000 3.112
32.44000 5.741
32.46000 2.446
32.48000 6.889
32.50000 5.671
32.52000 4.302
32.54000 -3.604
32.56000 1.113
32.58000 0.673
32.60000 -3.600
32.62000 -3.003
32.64000 -0.337
32.66000 6.260
32.68000 2.271
32.70000 7.458
32.72000 4.088
32.74000 2.590
32.76000 -0.566
32.78000 2.664
32.80000 1.847
32.82000 4.285
32.84000 2.449
32.86000 -0.519
32.88000 -1.009
32.90000 0.126
32.92000 4.593
32.94000 3.430
32.96000 2.184
32.98000 2.671
33.00000 1.099
33.02000 0.760
33.04000 -3.371
33.06000 -1.599
33.08000 -2.861
33.10000 0.347
33.12000 3.862
33.14000 3.302
33.16000 0.182
33.18000 -3.608
33.20000 1.786
33.22000 6.742
33.24000 5.867
33.26000 0.707
33.28000 0.972
33.30000 3.037
33.32000 4.812
33.34000 11.897
33.36000 8.928
33.38000 6.518
33.40000 6.454
33.42000 -0.101
33.44000 0.689
33.46000 2.240
33.48000 4.117
33.50000 8.740
33.52000 10.251
33.54000 6.048
33.56000 3.836
33.58000 -2.298
33.60000 0.755
33.62000 3.467
33.64000 0.284
33.66000 3.257
33.68000 4.433
33.70000 7.711
33.72000 9.086
33.74000 6.466
33.76000 3.482
33.78000 5.525
33.80000 -1.924
33.82000 -3.283
33.84000 5.250
33.86000 2.150
33.88000 2.129
33.90000 3.180
33.92000 0.368
33.94000 -0.184
33.96000 0.506
33.98000 2.738
34.00000 5.891
34.02000 6.246
34.04000 7.666
34.06000 3.294
34.08000 3.810
34.10000 5.748
34.12000 4.271
34.14000 3.002
34.16000 7.744
34.18000 8.006
34.20000 2.534
34.22000 0.211
34.24000 1.300
34.26000 2.272
34.28000 3.425
34.30000 -0.998
34.32000 1.034
34.34000 7.729
34.36000 5.557
34.38000 7.915
34.40000 7.716
34.42000 4.192
34.44000 0.277
34.46000 4.090
34.48000 2.696
34.50000 1.061
34.52000 2.803
34.54000 6.593
34.56000 7.164
34.58000 10.137
34.60000 10.981
34.62000 6.098
34.64000 4.285
34.66000 4.915
34.68000 4.383
34.70000 0.589
34.72000 2.558
34.74000 2.188
34.76000 7.413
34.78000 9.066
34.80000 5.772
34.82000 -0.972
34.84000 5.018
34.86000 5.558
34.88000 3.991
34.90000 2.540
34.92000 6.099
34.94000 7.931
34.96000 9.876
34.98000 5.014
35.00000 -0.308
35.02000 -3.549
35.04000 0.521
35.06000 0.382
35.08000 3.541
35.10000 5.125
35.12000 7.837
35.14000 4.559
35.16000 4.517
35.18000 5.733
35.20000 2.500
35.22000 3.672
35.24000 5.215
35.26000 6.936
35.28000 8.298
35.30000 7.440
35.32000 3.201
35.34000 5.073
35.36000 1.527
35.38000 -1.506
35.40000 1.891
35.42000 3.398
35.44000 8.140
35.46000 3.601
35.48000 0.497
35.50000 2.273
35.52000 2.314
35.54000 6.028
35.56000 5.845
35.58000 4.805
35.60000 6.756
35.62000 5.105
35.64000 4.791
35.66000 13.242
35.68000 7.453
35.70000 1.987
35.72000 -1.947
35.74000 2.635
35.76000 1.467
35.78000 -0.492
35.80000 2.641
35.82000 5.946
35.84000 7.996
35.86000 1.483
35.88000 1.968
35.90000 1.993
35.92000 5.869
35.94000 1.692
35.96000 0.724
35.98000 1.959
36.00000 4.411
36.02000 10.467
36.04000 8.619
36.06000 2.521
36.08000 -2.120
36.10000 -3.594
36.12000 2.951
36.14000 6.953
36.16000 3.513
36.18000 3.572
36.20000 9.094
36.22000 6.072
36.24000 0.273
36.26000 5.391
36.28000 7.502
36.30000 5.064
36.32000 3.657
36.34000 5.928
36.36000 1.101
36.38000 4.881
36.40000 7.597
36.42000 4.708
36.44000 1.230
36.46000 -0.727
36.48000 1.108
36.50000 6.577
36.52000 2.008
36.54000 1.348
36.56000 2.363
36.58000 1.542
36.60000 2.582
36.62000 5.761
36.64000 3.625
36.66000 2.624
36.68000 2.674
36.70000 3.017
36.72000 2.296
36.74000 1.461
36.76000 0.327
36.78000 -1.897
36.80000 -0.959
36.82000 -1.969
36.84000 -3.662
36.86000 0.430
36.88000 1.695
36.90000 2.007
36.92000 0.733
36.94000 -0.036
36.96000 -1.027
36.98000 0.390
37.00000 0.048
37.02000 2.267
37.04000 1.970
37.06000 3.438
37.08000 5.362
37.10000 4.610
37.12000 8.729
37.14000 8.272
37.16000 4.899
37.18000 1.443
37.20000 4.294
37.22000 7.861
37.24000 7.974
37.26000 7.420
37.28000 3.664
37.30000 4.388
37.32000 7.255
37.34000 8.972
37.36000 3.502
37.38000 3.771
37.40000 4.345
37.42000 7.938
37.44000 10.865
37.46000 5.789
37.48000 8.230
37.50000 5.978
37.52000 1.821
37.54000 6.250
37.56000 9.602
37.58000 11.245
37.60000 14.763
37.62000 12.704
37.64000 13.087
37.66000 16.339
37.68000 11.190
37.70000 10.248
37.72000 12.917
37.74000 14.938
37.76000 7.389
37.78000 9.841
37.80000 18.319
37.82000 13.111
37.84000 13.159
37.86000 15.338
37.88000 19.132
37.90000 19.953
37.92000 18.049
37.94000 17.618
37.96000 20.253
37.98000 22.461
38.00000 26.635
38.02000 24.115
38.04000 20.925
38.06000 17.606
38.08000 20.012
38.10000 23.989
38.12000 24.898
38.14000 27.364
38.16000 27.423
38.18000 28.258
38.20000 33.354
38.22000 32.591
38.24000 30.372
38.26000 35.213
38.28000 32.949
38.30000 33.507
38.32000 36.855
38.34000 38.957
38.36000 42.134
38.38000 40.288
38.40000 36.898
38.42000 40.442
38.44000 45.808
38.46000 50.498
38.48000 51.235
38.50000 52.647
38.52000 54.463
38.54000 54.976
38.56000 56.542
38.58000 60.469
38.60000 64.364
38.62000 64.576
38.64000 70.429
38.66000 74.678
38.68000 71.981
38.70000 70.250
38.72000 73.416
38.74000 79.646
38.76000 84.495
38.78000 83.946
38.80000 85.909
38.82000 92.770
38.84000 96.110
38.86000 97.393
38.88000 106.001
38.90000 107.755
38.92000 118.846
38.94000 123.676
38.96000 129.872
38.98000 128.475
39.00000 131.382
39.02000 144.152
39.04000 150.601
39.06000 160.707
39.08000 162.351
39.10000 166.200
39.12000 180.053
39.14000 185.223
39.16000 193.576
39.18000 195.936
39.20000 208.186
39.22000 228.442
39.24000 243.426
39.26000 244.714
39.28000 249.713
39.30000 264.486
39.32000 282.934
39.34000 293.085
39.36000 313.467
39.38000 330.047
39.40000 352.817
39.42000 367.813
39.44000 384.596
39.46000 401.802
39.48000 412.000
39.50000 435.613
39.52000 458.062
39.54000 479.021
39.56000 504.849
39.58000 529.989
39.60000 551.538
39.62000 572.602
39.64000 593.094
39.66000 612.953
39.68000 632.730
39.70000 662.910
39.72000 702.104
39.74000 724.036
39.76000 735.126
39.78000 741.268
39.80000 761.387
39.82000 776.201
39.84000 787.560
39.86000 814.264
39.88000 832.403
39.90000 849.939
39.92000 852.225
39.94000 849.880
39.96000 844.851
39.98000 837.868
40.00000 831.552
40.02000 829.745
40.04000 817.945
40.06000 811.829
40.08000 804.694
40.10000 796.292
40.12000 769.174
40.14000 750.253
40.16000 724.817
40.18000 695.794
40.20000 669.746
40.22000 654.724
40.24000 633.861
40.26000 611.613
40.28000 593.341
40.30000 563.343
40.32000 530.714
40.34000 500.851
40.36000 473.881
40.38000 458.907
40.40000 432.659
40.42000 417.268
40.44000 389.638
40.46000 365.986
40.48000 341.254
40.50000 326.892
40.52000 306.403
40.54000 294.976
40.56000 273.685
40.58000 259.659
40.60000 239.833
40.62000 223.713
40.64000 209.407
40.66000 196.240
40.68000 195.027
40.70000 178.407
40.72000 165.075
40.74000 157.454
40.76000 148.801
40.78000 139.591
40.80000 130.226
40.82000 119.006
40.84000 119.325
40.86000 108.589
40.88000 101.461
40.90000 89.906
40.92000 88.035
40.94000 84.256
40.96000 78.784
40.98000 76.714
41.00000 73.947
41.02000 66.272
41.04000 58.296
41.06000 55.812
41.08000 55.764
41.10000 53.711
41.12000 52.166
41.14000 50.065
41.16000 45.709
41.18000 42.581
41.20000 44.203
41.22000 37.763
41.24000 36.104
41.26000 38.001
41.28000 33.714
41.30000 31.026
41.32000 31.125
41.34000 27.422
41.36000 21.620
41.38000 26.922
41.40000 23.758
41.42000 17.867
41.44000 19.890
41.46000 16.314
41.48000 23.554
41.50000 24.944
41.52000 21.108
41.54000 14.527
41.56000 10.042
41.58000 14.331
41.60000 14.871
41.62000 14.409
41.64000 10.393
41.66000 9.902
41.68000 7.645
41.70000 6.684
41.72000 8.641
41.74000 7.147
41.76000 7.309
41.78000 8.110
41.80000 7.050
41.82000 6.964
41.84000 4.017
41.86000 6.283
41.88000 2.182
41.90000 -0.701
41.92000 4.421
41.94000 7.813
41.96000 3.325
41.98000 1.808
42.00000 4.175
42.02000 7.621
42.04000 5.503
42.06000 2.706
42.08000 6.349
42.10000 2.069
42.12000 3.837
42.14000 2.273
42.16000 -0.056
42.18000 2.553
42.20000 2.800
42.22000 0.579
42.24000 -0.090
42.26000 5.101
42.28000 6.561
42.30000 4.450
42.32000 3.182
42.34000 5.200
42.36000 3.002
42.38000 -0.800
42.40000 -0.772
42.42000 5.032
42.44000 -1.503
42.46000 -3.653
42.48000 -0.849
42.50000 2.278
42.52000 4.552
42.54000 -0.084
42.56000 -3.253
42.58000 -1.353
42.60000 -0.068
42.62000 -2.530
42.64000 -2.423
42.66000 2.378
42.68000 4.507
42.70000 3.259
42.72000 3.430
42.74000 -2.133
42.76000 -2.522
42.78000 0.301
42.80000 2.736
42.82000 -0.768
42.84000 -1.819
42.86000 0.023
42.88000 -0.777
42.90000 1.038
42.92000 2.915
42.94000 3.503
42.96000 -2.318
42.98000 -0.648
43.00000 3.024
43.02000 4.266
43.04000 1.065
43.06000 1.368
43.08000 0.838
43.10000 0.541
43.12000 2.628
43.14000 2.837
43.16000 3.089
43.18000 -1.438
43.20000 1.729
43.22000 5.058
43.24000 1.402
43.26000 3.109
43.28000 6.072
43.30000 2.905
43.32000 -1.108
43.34000 -0.078
43.36000 -3.557
43.38000 1.389
43.40000 7.906
43.42000 5.163
43.44000 3.129
43.46000 5.890
43.48000 5.374
43.50000 -1.038
43.52000 -2.506
43.54000 -1.566
43.56000 1.120
43.58000 2.622
43.60000 1.927
43.62000 -0.888
43.64000 -1.661
43.66000 1.561
43.68000 2.057
43.70000 0.351
43.72000 1.959
43.74000 -1.304
43.76000 -1.005
43.78000 5.464
43.80000 3.070
43.82000 4.243
43.84000 4.287
43.86000 3.159
43.88000 0.576
43.90000 -0.392
43.92000 1.245
43.94000 -2.248
43.96000 -1.163
43.98000 -0.316
44.00000 2.758
44.02000 4.258
44.04000 2.165
44.06000 -2.682
44.08000 -3.574
44.10000 -1.510
44.12000 -1.649
44.14000 -2.958
44.16000 1.295
44.18000 -0.747
44.20000 3.722
44.22000 1.150
44.24000 1.923
44.26000 1.334
44.28000 -2.665
44.30000 -0.683
44.32000 1.515
44.34000 -0.448
44.36000 1.993
44.38000 4.604
44.40000 3.226
44.42000 2.265
44.44000 3.777
44.46000 5.710
44.48000 -1.627
44.50000 -1.637
44.52000 -3.005
44.54000 1.341
44.56000 2.263
44.58000 0.327
44.60000 -0.834
44.62000 -1.587
44.64000 2.092
44.66000 1.679
44.68000 0.001
44.70000 3.092
44.72000 2.091
44.74000 6.293
44.76000 4.696
44.78000 5.612
44.80000 8.135
44.82000 5.929
44.84000 4.965
44.86000 9.221
44.88000 11.245
44.90000 11.550
44.92000 4.005
44.94000 2.058
44.96000 5.090
44.98000 7.346
45.00000 7.788
45.02000 3.376
45.04000 7.583
45.06000 9.824
45.08000 6.614
45.10000 5.902
45.12000 8.322
45.14000 13.077
45.16000 13.176
45.18000 12.318
45.20000 16.362
45.22000 19.237
45.24000 19.370
45.26000 22.593
45.28000 16.099
45.30000 24.158
45.32000 20.133
45.34000 15.764
45.36000 16.983
45.38000 17.687
45.40000 26.759
45.42000 20.493
45.44000 11.801
45.46000 22.283
45.48000 23.296
45.50000 20.592
45.52000 23.821
45.54000 22.019
45.56000 21.500
45.58000 29.242
45.60000 27.447
45.62000 32.576
45.64000 33.760
45.66000 40.758
45.68000 38.267
45.70000 35.241
45.72000 32.681
45.74000 32.299
45.76000 29.049
45.78000 29.456
45.80000 40.819
45.82000 40.819
45.84000 37.396
45.86000 39.337
45.88000 40.915
45.90000 45.892
45.92000 50.818
45.94000 49.032
45.96000 43.943
45.98000 45.928
46.00000 47.395
46.02000 52.937
46.04000 56.924
46.06000 51.399
46.08000 60.081
46.10000 59.584
46.12000 61.210
46.14000 63.029
46.16000 67.609
46.18000 62.538
46.20000 59.574
46.22000 68.698
46.24000 71.112
46.26000 69.542
46.28000 69.430
46.30000 69.875
46.32000 70.918
46.34000 71.415
46.36000 76.375
46.38000 74.431
46.40000 78.140
46.42000 74.477
46.44000 72.685
46.46000 68.759
46.48000 74.746
46.50000 77.624
46.52000 84.134
46.54000 85.747
46.56000 77.578
46.58000 78.908
46.60000 79.688
46.62000 85.409
46.64000 80.991
46.66000 72.947
46.68000 68.754
46.70000 70.000
46.72000 69.350
46.74000 71.103
46.76000 70.964
46.78000 71.820
46.80000 68.849
46.82000 65.869
46.84000 69.643
46.86000 68.134
46.88000 58.757
46.90000 62.893
46.92000 67.473
46.94000 65.848
46.96000 55.470
46.98000 50.240
47.00000 55.458
47.02000 58.362
47.04000 51.889
47.06000 44.993
47.08000 45.754
47.10000 54.335
47.12000 48.329
47.14000 43.100
47.16000 43.386
47.18000 45.122
47.20000 39.061
47.22000 30.477
47.24000 27.891
47.26000 34.916
47.28000 34.131
47.30000 28.725
47.32000 28.619
47.34000 23.654
47.36000 26.476
47.38000 29.618
47.40000 23.994
47.42000 24.996
47.44000 28.811
47.46000 23.858
47.48000 20.310
47.50000 19.415
47.52000 18.977
47.54000 18.328
47.56000 20.751
47.58000 9.912
47.60000 6.348
47.62000 5.287
47.64000 4.830
47.66000 8.216
47.68000 7.986
47.70000 9.219
47.72000 6.877
47.74000 11.417
47.76000 8.047
47.78000 4.847
47.80000 5.270
47.82000 3.721
47.84000 11.546
47.86000 3.370
47.88000 2.846
47.90000 4.537
47.92000 3.871
47.94000 2.770
47.96000 7.835
47.98000 14.144
48.00000 10.946
48.02000 11.396
48.04000 6.463
48.06000 2.570
48.08000 2.086
48.10000 -2.753
48.12000 1.235
48.14000 5.001
48.16000 4.658
48.18000 1.567
48.20000 -1.276
48.22000 2.424
48.24000 4.999
48.26000 4.225
48.28000 4.348
48.30000 5.465
48.32000 1.539
48.34000 1.442
48.36000 1.282
48.38000 2.407
48.40000 2.384
48.42000 4.381
48.44000 6.436
48.46000 6.913
48.48000 6.918
48.50000 1.490
48.52000 -0.483
48.54000 2.207
48.56000 2.645
48.58000 1.974
48.60000 5.200
48.62000 4.271
48.64000 5.016
48.66000 9.294
48.68000 6.400
48.70000 5.651
48.72000 5.548
48.74000 -2.021
48.76000 -3.225
48.78000 2.008
48.80000 9.294
48.82000 8.419
48.84000 7.335
48.86000 0.187
48.88000 -2.538
48.90000 4.611
48.92000 0.914
48.94000 3.922
48.96000 4.303
48.98000 3.543
49.00000 2.833
49.02000 1.409
49.04000 6.227
49.06000 6.912
49.08000 5.596
49.10000 -1.855
49.12000 5.185
49.14000 7.633
49.16000 -0.403
49.18000 1.420
49.20000 -2.421
49.22000 -3.186
49.24000 -1.512
49.26000 0.753
49.28000 5.443
49.30000 3.073
49.32000 8.620
49.34000 4.298
49.36000 1.788
49.38000 6.040
49.40000 9.766
49.42000 4.397
49.44000 2.616
49.46000 1.117
49.48000 1.488
49.50000 4.228
49.52000 6.674
49.54000 6.455
49.56000 0.345
49.58000 4.699
49.60000 7.263
49.62000 4.576
49.64000 3.679
49.66000 0.784
49.68000 2.528
49.70000 10.308
49.72000 3.203
49.74000 6.082
49.76000 1.535
49.78000 8.711
49.80000 8.472
49.82000 7.288
49.84000 5.761
49.86000 6.684
49.88000 10.094
49.90000 4.277
49.92000 1.987
49.94000 4.621
49.96000 7.099
49.98000 8.218
50.00000 5.993
50.02000 12.465
50.04000 12.286
50.06000 7.831
50.08000 3.797
50.10000 0.606
50.12000 3.635
50.14000 0.752
50.16000 2.419
50.18000 5.156
50.20000 2.991
50.22000 4.073
50.24000 3.029
50.26000 -3.089
50.28000 -0.639
50.30000 3.929
50.32000 3.025
50.34000 6.646
50.36000 11.070
50.38000 9.117
50.40000 4.503
50.42000 2.080
50.44000 -0.401
50.46000 3.656
50.48000 0.424
50.50000 1.318
50.52000 4.648
50.54000 2.390
50.56000 0.569
50.58000 1.661
50.60000 6.614
50.62000 4.795
50.64000 1.610
50.66000 -0.818
50.68000 -0.480
50.70000 9.168
50.72000 5.733
50.74000 7.836
50.76000 0.765
50.78000 -0.339
50.80000 1.545
50.82000 2.635
50.84000 2.034
50.86000 3.760
50.88000 3.179
50.90000 0.807
50.92000 3.466
50.94000 1.274
50.96000 -3.084
50.98000 0.465
51.00000 5.880
51.02000 5.539
51.04000 3.336
51.06000 5.216
51.08000 7.722
51.10000 6.884
51.12000 4.545
51.14000 3.629
51.16000 2.040
51.18000 4.367
51.20000 4.457
51.22000 8.843
51.24000 0.677
51.26000 2.353
51.28000 -1.745
51.30000 5.012
51.32000 6.034
51.34000 0.326
51.36000 1.356
51.38000 0.538
51.40000 0.107
51.42000 1.128
51.44000 2.213
51.46000 2.495
51.48000 7.167
51.50000 5.389
51.52000 5.721
51.54000 3.055
51.56000 5.175
51.58000 2.588
51.60000 4.584
51.62000 8.520
51.64000 2.407
51.66000 2.036
51.68000 3.896
51.70000 4.674
51.72000 1.418
51.74000 -0.011
51.76000 2.296
51.78000 1.847
51.80000 2.480
51.82000 4.650
51.84000 4.372
51.86000 0.370
51.88000 -1.208
51.90000 3.830
51.92000 8.724
51.94000 2.276
51.96000 0.391
51.98000 3.623
52.00000 9.119
52.02000 6.924
52.04000 5.179
52.06000 0.776
52.08000 4.342
52.10000 -1.585
52.12000 -2.140
52.14000 -3.035
52.16000 2.857
52.18000 -1.952
52.20000 2.871
52.22000 3.842
52.24000 6.086
52.26000 2.610
52.28000 4.271
52.30000 -0.161
52.32000 2.897
52.34000 7.004
52.36000 6.330
52.38000 5.150
52.40000 3.447
52.42000 10.466
52.44000 7.749
52.46000 7.188
52.48000 8.169
52.50000 2.501
52.52000 -0.389
52.54000 2.224
52.56000 1.038
52.58000 0.923
52.60000 1.967
52.62000 7.604
52.64000 8.282
52.66000 7.319
52.68000 8.870
52.70000 6.109
52.72000 8.786
52.74000 5.495
52.76000 6.435
52.78000 8.985
52.80000 5.758
52.82000 -2.712
52.84000 -2.990
52.86000 4.139
52.88000 5.976
52.90000 5.784
52.92000 8.723
52.94000 8.830
52.96000 6.941
52.98000 8.321
53.00000 4.395
53.02000 2.347
53.04000 7.158
53.06000 8.258
53.08000 11.770
53.10000 5.788
53.12000 2.169
53.14000 5.616
53.16000 2.985
53.18000 2.386
53.20000 7.786
53.22000 6.731
53.24000 10.509
53.26000 9.360
53.28000 5.424
53.30000 5.745
53.32000 6.052
53.34000 3.756
53.36000 5.749
53.38000 8.735
53.40000 4.278
53.42000 6.548
53.44000 5.109
53.46000 4.840
53.48000 7.623
53.50000 9.566
53.52000 8.969
53.54000 10.150
53.56000 5.540
53.58000 4.162
53.60000 2.981
53.62000 5.258
53.64000 8.859
53.66000 0.131
53.68000 5.150
53.70000 7.377
53.72000 3.864
53.74000 1.730
53.76000 1.514
53.78000 5.715
53.80000 6.587
53.82000 9.200
53.84000 9.659
53.86000 3.400
53.88000 6.081
53.90000 3.845
53.92000 -0.160
53.94000 3.032
53.96000 4.916
53.98000 9.163
54.00000 4.866
54.02000 8.574
54.04000 2.833
54.06000 -2.938
54.08000 0.322
54.10000 8.622
54.12000 5.124
54.14000 2.069
54.16000 5.003
54.18000 9.935
54.20000 6.928
54.22000 11.784
54.24000 5.715
54.26000 -0.806
54.28000 -2.379
54.30000 3.547
54.32000 10.163
54.34000 5.262
54.36000 2.119
54.38000 2.107
54.40000 2.520
54.42000 5.660
54.44000 7.360
54.46000 6.421
54.48000 8.926
54.50000 9.779
54.52000 8.682
54.54000 6.629
54.56000 2.809
54.58000 6.493
54.60000 5.694
54.62000 7.470
54.64000 8.979
54.66000 8.893
54.68000 6.481
54.70000 -0.349
54.72000 0.199
54.74000 4.210
54.76000 6.019
54.78000 8.422
54.80000 6.862
54.82000 7.909
54.84000 1.284
54.86000 4.910
54.88000 6.087
54.90000 0.636
54.92000 4.644
54.94000 3.457
54.96000 4.591
54.98000 7.989
55.00000 -0.643
55.02000 0.106
55.04000 5.793
55.06000 6.400
55.08000 6.759
55.10000 7.758
55.12000 3.914
55.14000 6.924
55.16000 7.964
55.18000 8.081
55.20000 10.519
55.22000 10.370
55.24000 8.961
55.26000 6.406
55.28000 5.885
55.30000 0.504
55.32000 2.141
55.34000 8.237
55.36000 10.045
55.38000 10.101
55.40000 5.852
55.42000 5.844
55.44000 7.783
55.46000 5.116
55.48000 4.196
55.50000 6.022
55.52000 5.469
55.54000 8.335
55.56000 5.905
55.58000 7.702
55.60000 6.743
55.62000 10.788
55.64000 10.173
55.66000 4.334
55.68000 3.877
55.70000 5.223
55.72000 3.044
55.74000 -2.874
55.76000 -1.374
55.78000 4.572
55.80000 9.682
55.82000 12.510
55.84000 12.423
55.86000 8.571
55.88000 1.782
55.90000 0.111
55.92000 4.151
55.94000 4.548
55.96000 8.031
55.98000 9.019
56.00000 10.071
56.02000 10.359
56.04000 11.915
56.06000 13.043
56.08000 10.444
56.10000 6.377
56.12000 9.686
56.14000 11.112
56.16000 3.277
56.18000 2.231
56.20000 7.135
56.22000 9.531
56.24000 7.544
56.26000 8.099
56.28000 10.840
56.30000 7.748
56.32000 7.184
56.34000 5.857
56.36000 5.888
56.38000 5.315
56.40000 5.651
56.42000 2.044
56.44000 2.723
56.46000 5.444
56.48000 6.301
56.50000 8.151
56.52000 7.949
56.54000 4.890
56.56000 6.025
56.58000 4.513
56.60000 6.899
56.62000 12.500
56.64000 12.443
56.66000 6.430
56.68000 7.610
56.70000 12.887
56.72000 7.029
56.74000 7.784
56.76000 11.720
56.78000 12.493
56.80000 10.508
56.82000 10.682
56.84000 10.263
56.86000 5.641
56.88000 2.685
56.90000 -2.838
56.92000 5.696
56.94000 5.847
56.96000 3.788
56.98000 9.196
57.00000 11.697
57.02000 10.581
57.04000 8.670
57.06000 4.215
57.08000 6.668
57.10000 7.357
57.12000 6.576
57.14000 7.831
57.16000 10.263
57.18000 8.228
57.20000 10.446
57.22000 4.963
57.24000 7.517
57.26000 6.583
57.28000 7.283
57.30000 9.741
57.32000 5.611
57.34000 4.761
57.36000 6.006
57.38000 7.618
57.40000 7.059
57.42000 4.319
57.44000 11.233
57.46000 6.277
57.48000 1.845
57.50000 -0.879
57.52000 5.719
57.54000 4.792
57.56000 3.059
57.58000 2.874
57.60000 5.455
57.62000 7.029
57.64000 6.900
57.66000 4.408
57.68000 3.385
57.70000 2.978
57.72000 3.686
57.74000 4.228
57.76000 4.534
57.78000 3.230
57.80000 3.086
57.82000 4.403
57.84000 7.770
57.86000 5.040
57.88000 -2.856
57.90000 2.170
57.92000 0.892
57.94000 4.249
57.96000 2.719
57.98000 2.640
58.00000 -0.523
58.02000 0.063
58.04000 6.418
58.06000 2.540
58.08000 5.052
58.10000 1.469
58.12000 1.347
58.14000 6.480
58.16000 4.132
58.18000 2.989
58.20000 3.193
58.22000 1.652
58.24000 0.046
58.26000 -0.687
58.28000 1.516
58.30000 1.127
58.32000 3.611
58.34000 1.265
58.36000 2.638
58.38000 5.468
58.40000 5.796
58.42000 4.987
58.44000 1.535
58.46000 2.163
58.48000 1.621
58.50000 2.865
58.52000 7.034
58.54000 3.787
58.56000 2.717
58.58000 6.018
58.60000 7.048
58.62000 8.271
58.64000 6.426
58.66000 0.663
58.68000 1.447
58.70000 -0.377
58.72000 5.443
58.74000 10.959
58.76000 4.910
58.78000 3.179
58.80000 2.264
58.82000 5.994
58.84000 5.584
58.86000 1.837
58.88000 0.324
58.90000 1.255
58.92000 3.469
58.94000 6.204
58.96000 2.928
58.98000 2.357
59.00000 2.178
59.02000 3.231
59.04000 5.723
59.06000 5.071
59.08000 8.184
59.10000 6.060
59.12000 2.087
59.14000 0.779
59.16000 7.898
59.18000 6.590
59.20000 5.445
59.22000 0.334
59.24000 5.928
59.26000 5.014
59.28000 5.188
59.30000 6.041
59.32000 -1.189
59.34000 -1.200
59.36000 -2.802
59.38000 0.291
59.40000 5.865
59.42000 2.606
59.44000 5.898
59.46000 9.757
59.48000 3.908
59.50000 1.500
59.52000 4.697
59.54000 6.240
59.56000 5.922
59.58000 5.889
59.60000 7.121
59.62000 7.434
59.64000 5.942
59.66000 2.205
59.68000 2.682
59.70000 2.863
59.72000 2.579
59.74000 7.173
59.76000 6.580
59.78000 6.430
59.80000 5.954
59.82000 3.397
59.84000 1.599
59.86000 6.442
59.88000 10.584
59.90000 4.433
59.92000 9.408
59.94000 5.710
59.96000 -2.766
59.98000 7.555
60.00000 10.055
60.02000 6.572
60.04000 4.091
60.06000 3.301
60.08000 6.293
60.10000 5.069
60.12000 3.677
60.14000 4.103
60.16000 2.789
60.18000 8.752
60.20000 1.836
60.22000 1.858
60.24000 7.392
60.26000 5.112
60.28000 6.818
60.30000 4.679
60.32000 7.916
60.34000 4.012
60.36000 7.424
60.38000 3.261
60.40000 0.830
60.42000 2.647
60.44000 2.794
60.46000 4.633
60.48000 3.911
60.50000 5.725
60.52000 9.050
60.54000 4.520
60.56000 -0.141
60.58000 3.732
60.60000 5.608
60.62000 5.039
60.64000 0.707
60.66000 0.875
60.68000 2.831
60.70000 7.027
60.72000 5.121
60.74000 3.505
60.76000 5.542
60.78000 4.564
60.80000 -1.040
60.82000 -1.619
60.84000 1.968
60.86000 -0.795
60.88000 1.254
60.90000 1.145
60.92000 1.800
60.94000 3.575
60.96000 3.737
60.98000 3.029
61.00000 3.243
61.02000 -2.757
61.04000 -0.503
61.06000 3.653
61.08000 3.921
61.10000 7.866
61.12000 7.531
61.14000 5.770
61.16000 0.911
61.18000 3.270
61.20000 4.642
61.22000 6.594
61.24000 8.897
61.26000 0.476
61.28000 -1.074
61.30000 0.862
61.32000 2.351
61.34000 -0.917
61.36000 3.529
61.38000 0.385
61.40000 3.562
61.42000 2.737
61.44000 -2.735
61.46000 -1.772
61.48000 2.570
61.50000 3.922
61.52000 2.949
61.54000 -0.587
61.56000 3.190
61.58000 11.969
61.60000 6.080
61.62000 1.632
61.64000 4.275
61.66000 5.393
61.68000 0.521
61.70000 -1.408
61.72000 1.718
61.74000 3.342
61.76000 0.989
61.78000 2.877
61.80000 -0.460
61.82000 0.676
61.84000 3.600
61.86000 4.367
61.88000 -0.026
61.90000 5.007
61.92000 4.777
61.94000 1.452
61.96000 -0.961
61.98000 1.487
62.00000 4.728
62.02000 5.702
62.04000 0.778
62.06000 3.548
62.08000 2.591
62.10000 2.232
62.12000 5.759
62.14000 4.660
62.16000 2.598
62.18000 4.872
62.20000 5.243
62.22000 1.726
62.24000 3.728
62.26000 5.590
62.28000 0.770
62.30000 -1.332
62.32000 2.142
62.34000 4.859
62.36000 5.815
62.38000 -1.191
62.40000 -2.729
62.42000 0.338
62.44000 0.825
62.46000 0.492
62.48000 2.306
62.50000 6.172
62.52000 4.549
62.54000 2.820
62.56000 6.592
62.58000 2.802
62.60000 1.726
62.62000 1.189
62.64000 2.789
62.66000 1.342
62.68000 1.158
62.70000 1.475
62.72000 7.888
62.74000 7.283
62.76000 0.378
62.78000 -0.139
62.80000 2.049
62.82000 3.842
62.84000 1.710
62.86000 -0.703
62.88000 1.657
62.90000 3.644
62.92000 1.362
62.94000 0.869
62.96000 3.237
62.98000 3.219
63.00000 5.093
63.02000 8.344
63.04000 6.412
63.06000 1.212
63.08000 4.270
63.10000 5.645
63.12000 5.113
63.14000 2.028
63.16000 2.492
63.18000 4.448
63.20000 1.753
63.22000 -2.696
63.24000 -0.056
63.26000 3.656
63.28000 1.752
63.30000 3.408
63.32000 5.642
63.34000 4.974
63.36000 5.443
63.38000 6.622
63.40000 7.004
63.42000 -0.367
63.44000 -1.247
63.46000 2.729
63.48000 4.100
63.50000 8.387
63.52000 1.588
63.54000 -2.690
63.56000 1.932
63.58000 2.162
63.60000 0.672
63.62000 3.055
63.64000 2.057
63.66000 2.342
63.68000 3.600
63.70000 2.780
63.72000 3.543
63.74000 7.303
63.76000 7.939
63.78000 3.658
63.80000 0.280
63.82000 3.007
63.84000 6.493
63.86000 4.064
63.88000 -1.032
63.90000 0.586
63.92000 0.074
63.94000 1.615
63.96000 6.255
63.98000 3.526
64.00000 4.169
64.02000 4.034
64.04000 6.350
64.06000 9.217
64.08000 4.259
64.10000 -2.727
64.12000 1.380
64.14000 5.633
64.16000 2.700
64.18000 2.399
64.20000 2.234
64.22000 3.340
64.24000 1.672
64.26000 -0.578
64.28000 2.299
64.30000 5.614
64.32000 2.469
64.34000 -2.740
64.36000 3.229
64.38000 3.353
64.40000 0.449
64.42000 5.837
64.44000 7.489
64.46000 3.811
64.48000 1.020
64.50000 3.080
64.52000 6.122
64.54000 3.170
64.56000 0.917
64.58000 2.461
64.60000 2.886
64.62000 4.010
64.64000 0.283
64.66000 -0.176
64.68000 3.682
64.70000 4.698
64.72000 3.039
64.74000 -0.601
64.76000 -0.316
64.78000 2.653
64.80000 -0.457
64.82000 3.748
64.84000 1.702
64.86000 2.952
64.88000 5.648
64.90000 1.441
64.92000 1.845
64.94000 3.336
64.96000 3.927
64.98000 2.754
65.00000 -1.791
65.02000 0.903
65.04000 -1.550
65.06000 -2.281
65.08000 0.767
65.10000 1.635
65.12000 4.046
65.14000 2.132
65.16000 4.200
65.18000 5.627
65.20000 4.580
65.22000 2.334
65.24000 1.022
65.26000 0.554
65.28000 4.346
65.30000 4.201
65.32000 3.667
65.34000 3.238
65.36000 5.184
65.38000 3.288
65.40000 -2.777
65.42000 0.508
65.44000 1.500
65.46000 3.070
65.48000 2.414
65.50000 2.166
65.52000 2.076
65.54000 -0.660
65.56000 -0.966
65.58000 1.092
65.60000 4.468
65.62000 8.285
65.64000 6.854
65.66000 3.784
65.68000 -2.786
65.70000 1.858
65.72000 1.019
65.74000 4.313
65.76000 4.958
65.78000 2.350
65.80000 3.752
65.82000 4.224
65.84000 3.288
65.86000 4.212
65.88000 0.615
65.90000 -0.070
65.92000 2.732
65.94000 3.641
65.96000 1.051
65.98000 0.571
66.00000 2.412
66.02000 4.592
66.04000 2.165
66.06000 3.086
66.08000 3.446
66.10000 4.823
66.12000 0.909
66.14000 -2.113
66.16000 -0.178
66.18000 7.091
66.20000 4.033
66.22000 0.879
66.24000 0.003
66.26000 -0.335
66.28000 5.523
66.30000 9.285
66.32000 4.846
66.34000 -0.232
66.36000 4.196
66.38000 4.960
66.40000 0.608
66.42000 1.315
66.44000 4.758
66.46000 6.114
66.48000 5.198
66.50000 3.450
66.52000 6.637
66.54000 4.027
66.56000 3.896
66.58000 4.500
66.60000 6.792
66.62000 5.204
66.64000 6.610
66.66000 5.956
66.68000 5.199
66.70000 7.499
66.72000 5.598
66.74000 4.113
66.76000 10.817
66.78000 9.823
66.80000 5.389
66.82000 9.761
66.84000 10.157
66.86000 6.032
66.88000 6.885
66.90000 7.665
66.92000 7.616
66.94000 10.003
66.96000 11.268
66.98000 9.042
67.00000 12.212
67.02000 9.496
67.04000 9.995
67.06000 7.149
67.08000 9.916
67.10000 12.948
67.12000 11.172
67.14000 13.423
67.16000 13.963
67.18000 13.447
67.20000 13.615
67.22000 14.888
67.24000 14.958
67.26000 15.014
67.28000 17.233
67.30000 15.911
67.32000 18.323
67.34000 18.506
67.36000 15.010
67.38000 17.559
67.40000 23.969
67.42000 18.681
67.44000 17.685
67.46000 18.144
67.48000 16.999
67.50000 18.658
67.52000 21.724
67.54000 19.340
67.56000 23.206
67.58000 21.576
67.60000 17.454
67.62000 19.356
67.64000 22.686
67.66000 20.412
67.68000 23.284
67.70000 24.802
67.72000 24.653
67.74000 20.762
67.76000 20.791
67.78000 24.484
67.80000 21.433
67.82000 21.954
67.84000 27.700
67.86000 22.826
67.88000 21.851
67.90000 22.480
67.92000 23.113
67.94000 26.378
67.96000 28.873
67.98000 24.168
68.00000 20.124
68.02000 20.116
68.04000 18.459
68.06000 22.114
68.08000 21.461
68.10000 26.895
68.12000 20.319
68.14000 21.378
68.16000 25.974
68.18000 21.403
68.20000 22.926
68.22000 19.835
68.24000 19.382
68.26000 14.807
68.28000 20.601
68.30000 19.298
68.32000 14.752
68.34000 15.997
68.36000 19.502
68.38000 13.178
68.40000 11.092
68.42000 13.756
68.44000 11.472
68.46000 9.815
68.48000 12.290
68.50000 13.546
68.52000 11.439
68.54000 14.159
68.56000 12.434
68.58000 10.423
68.60000 8.951
68.62000 10.309
68.64000 9.238
68.66000 8.963
68.68000 9.223
68.70000 8.925
68.72000 9.544
68.74000 11.774
68.76000 12.925
68.78000 7.741
68.80000 3.019
68.82000 4.603
68.84000 3.075
68.86000 3.048
68.88000 2.090
68.90000 5.934
68.92000 8.540
68.94000 6.654
68.96000 6.170
68.98000 5.565
69.00000 4.432
69.02000 8.821
69.04000 8.295
69.06000 13.529
69.08000 10.072
69.10000 5.970
69.12000 0.252
69.14000 0.810
69.16000 4.270
69.18000 6.534
69.20000 4.290
69.22000 5.378
69.24000 6.073
69.26000 6.042
69.28000 3.375
69.30000 2.644
69.32000 4.842
69.34000 4.482
69.36000 2.523
69.38000 2.044
69.40000 -1.150
69.42000 1.139
69.44000 5.451
69.46000 3.102
69.48000 2.587
69.50000 4.478
69.52000 0.764
69.54000 -0.990
69.56000 2.052
69.58000 3.756
69.60000 5.545
69.62000 6.534
69.64000 4.438
69.66000 -0.950
69.68000 -2.645
69.70000 -1.761
69.72000 5.059
69.74000 4.786
69.76000 3.823
69.78000 7.556
69.80000 4.172
69.82000 7.495
69.84000 6.194
69.86000 0.965
69.88000 0.342
69.90000 2.504
69.92000 0.374
69.94000 0.492
69.96000 6.319
69.98000 1.488
70.00000 0.388
70.02000 3.121
70.04000 2.711
70.06000 5.803
70.08000 6.221
70.10000 3.677
70.12000 3.821
70.14000 4.727
70.16000 5.750
70.18000 1.928
70.20000 2.391
70.22000 8.618
70.24000 6.058
70.26000 3.084
70.28000 6.994
70.30000 6.880
70.32000 5.021
70.34000 6.822
70.36000 6.973
70.38000 1.640
70.40000 -2.603
70.42000 -1.119
70.44000 2.213
70.46000 2.372
70.48000 0.234
70.50000 4.350
70.52000 6.498
70.54000 1.792
70.56000 4.583
70.58000 7.320
70.60000 7.720
70.62000 5.924
70.64000 2.176
70.66000 0.448
70.68000 3.514
70.70000 -2.603
70.72000 2.419
70.74000 5.619
70.76000 4.173
70.78000 2.463
70.80000 1.962
70.82000 1.514
70.84000 -2.605
70.86000 1.120
70.88000 1.643
70.90000 2.256
70.92000 2.707
70.94000 7.901
70.96000 9.945
70.98000 8.093
71.00000 3.324
71.02000 -1.534
71.04000 1.054
71.06000 3.516
71.08000 6.419
71.10000 4.669
71.12000 3.165
71.14000 3.064
71.16000 4.193
71.18000 6.719
71.20000 3.990
71.22000 3.864
71.24000 0.927
71.26000 4.713
71.28000 3.494
71.30000 4.067
71.32000 4.194
71.34000 6.571
71.36000 5.059
71.38000 4.656
71.40000 6.074
71.42000 3.895
71.44000 4.038
71.46000 3.392
71.48000 2.240
71.50000 -2.598
71.52000 -0.499
71.54000 2.634
71.56000 0.039
71.58000 -0.497
71.60000 3.132
71.62000 3.309
71.64000 3.299
71.66000 1.476
71.68000 0.543
71.70000 -0.455
71.72000 -2.593
71.74000 2.277
71.76000 8.449
71.78000 5.046
71.80000 -0.306
71.82000 1.362
71.84000 6.260
71.86000 4.957
71.88000 4.090
71.90000 1.950
71.92000 -1.868
71.94000 3.714
71.96000 5.632
71.98000 4.174
72.00000 4.316
72.02000 4.044
72.04000 1.827
72.06000 1.138
72.08000 1.975
72.10000 0.387
72.12000 2.496
72.14000 5.747
72.16000 9.352
72.18000 5.474
72.20000 6.384
72.22000 3.633
72.24000 2.447
72.26000 -2.568
72.28000 2.725
72.30000 5.084
72.32000 5.250
72.34000 6.277
72.36000 3.555
72.38000 1.005
72.40000 7.102
72.42000 3.929
72.44000 0.968
72.46000 3.428
72.48000 -2.565
72.50000 1.232
72.52000 0.962
72.54000 4.139
72.56000 3.736
72.58000 -0.263
72.60000 4.709
72.62000 3.283
72.64000 2.718
72.66000 3.414
72.68000 2.724
72.70000 -0.343
72.72000 1.232
72.74000 0.978
72.76000 4.045
72.78000 8.415
72.80000 5.579
72.82000 2.311
72.84000 -0.152
72.86000 3.413
72.88000 6.680
72.90000 4.308
72.92000 -0.256
72.94000 3.634
72.96000 4.732
72.98000 0.185
73.00000 2.882
73.02000 0.901
73.04000 2.153
73.06000 11.359
73.08000 10.640
73.10000 1.074
73.12000 1.155
73.14000 8.298
73.16000 2.455
73.18000 2.253
73.20000 -1.527
73.22000 0.834
73.24000 2.379
73.26000 4.720
73.28000 8.327
73.30000 4.611
73.32000 0.953
73.34000 2.767
73.36000 4.801
73.38000 6.955
73.40000 4.918
73.42000 3.175
73.44000 2.423
73.46000 5.669
73.48000 8.858
73.50000 10.454
73.52000 5.414
73.54000 10.205
73.56000 10.649
73.58000 7.917
73.60000 6.134
73.62000 5.879
73.64000 4.944
73.66000 7.097
73.68000 2.878
73.70000 2.003
73.72000 4.177
73.74000 1.565
73.76000 6.621
73.78000 6.457
73.80000 5.073
73.82000 1.845
73.84000 4.559
73.86000 4.897
73.88000 6.913
73.90000 5.074
73.92000 5.377
73.94000 12.507
73.96000 8.883
73.98000 3.080
74.00000 2.970
74.02000 -2.460
74.04000 5.815
74.06000 10.458
74.08000 8.203
74.10000 6.631
74.12000 5.856
74.14000 9.346
74.16000 11.803
74.18000 8.208
74.20000 7.856
74.22000 10.384
74.24000 8.841
74.26000 6.520
74.28000 4.065
74.30000 2.424
74.32000 5.983
74.34000 9.331
74.36000 10.088
74.38000 9.316
74.40000 6.484
74.42000 8.324
74.44000 7.351
74.46000 5.275
74.48000 4.428
74.50000 11.452
74.52000 12.535
74.54000 3.804
74.56000 1.747
74.58000 1.339
74.60000 5.819
74.62000 5.249
74.64000 7.718
74.66000 8.694
74.68000 9.321
74.70000 9.182
74.72000 6.685
74.74000 4.489
74.76000 3.882
74.78000 4.805
74.80000 5.057
74.82000 6.391
74.84000 4.591
74.86000 5.298
74.88000 3.912
74.90000 13.127
74.92000 12.074
74.94000 8.731
74.96000 11.472
74.98000 10.808
75.00000 6.839
75.02000 8.155
75.04000 4.336
75.06000 5.824
75.08000 7.888
75.10000 8.420
75.12000 9.788
75.14000 10.473
75.16000 8.566
75.18000 5.930
75.20000 3.171
75.22000 5.971
75.24000 9.915
75.26000 11.266
75.28000 12.694
75.30000 12.066
75.32000 10.325
75.34000 8.363
75.36000 8.177
75.38000 4.138
75.40000 7.993
75.42000 11.384
75.44000 6.158
75.46000 6.987
75.48000 6.559
75.50000 0.138
75.52000 0.550
75.54000 6.879
75.56000 1.854
75.58000 -2.460
75.60000 -0.534
75.62000 5.128
75.64000 13.255
75.66000 9.550
75.68000 9.790
75.70000 8.133
75.72000 7.781
75.74000 8.528
75.76000 4.673
75.78000 0.489
75.80000 5.416
75.82000 4.569
75.84000 3.973
75.86000 4.390
75.88000 5.638
75.90000 6.429
75.92000 7.230
75.94000 13.106
75.96000 8.655
75.98000 5.865
76.00000 2.751
76.02000 -0.377
76.04000 3.241
76.06000 8.671
76.08000 13.749
76.10000 10.161
76.12000 8.149
76.14000 4.754
76.16000 3.937
76.18000 4.371
76.20000 5.882
76.22000 1.126
76.24000 2.310
76.26000 2.883
76.28000 3.426
76.30000 0.648
76.32000 3.304
76.34000 3.293
76.36000 1.555
76.38000 3.705
76.40000 -2.529
76.42000 1.487
76.44000 9.462
76.46000 6.562
76.48000 4.826
76.50000 1.849
76.52000 -0.046
76.54000 3.176
76.56000 8.302
76.58000 4.316
76.60000 -1.485
76.62000 1.063
76.64000 6.509
76.66000 10.733
76.68000 7.641
76.70000 5.358
76.72000 4.564
76.74000 6.106
76.76000 0.746
76.78000 1.302
76.80000 5.608
76.82000 3.145
76.84000 2.722
76.86000 5.446
76.88000 4.324
76.90000 2.352
76.92000 5.102
76.94000 5.090
76.96000 3.176
76.98000 4.508
77.00000 4.032
77.02000 4.623
77.04000 8.023
77.06000 4.896
77.08000 1.806
77.10000 3.519
77.12000 6.781
77.14000 6.691
77.16000 6.475
77.18000 8.458
77.20000 8.427
77.22000 7.347
77.24000 1.441
77.26000 1.098
77.28000 1.141
77.30000 3.411
77.32000 4.332
77.34000 1.260
77.36000 4.260
77.38000 4.339
77.40000 8.515
77.42000 7.607
77.44000 0.114
77.46000 3.329
77.48000 2.937
77.50000 3.217
77.52000 5.821
77.54000 3.099
77.56000 2.713
77.58000 5.599
77.60000 4.260
77.62000 6.220
77.64000 2.453
77.66000 5.686
77.68000 4.400
77.70000 2.938
77.72000 3.029
77.74000 5.579
77.76000 -0.300
77.78000 -2.297
77.80000 -2.550
77.82000 1.580
77.84000 8.160
77.86000 10.997
77.88000 8.471
77.90000 4.109
77.92000 3.871
77.94000 3.933
77.96000 1.435
77.98000 2.471
78.00000 8.211
78.02000 13.661
78.04000 4.471
78.06000 -0.432
78.08000 0.017
78.10000 4.605
78.12000 4.072
78.14000 9.763
78.16000 6.673
78.18000 0.084
78.20000 2.019
78.22000 5.645
78.24000 1.990
78.26000 6.295
78.28000 4.578
78.30000 6.574
78.32000 7.517
78.34000 7.664
78.36000 5.723
78.38000 7.727
78.40000 4.840
78.42000 7.460
78.44000 2.331
78.46000 -2.587
78.48000 -0.096
78.50000 0.258
78.52000 2.316
78.54000 1.431
78.56000 3.998
78.58000 5.611
78.60000 4.243
78.62000 3.254
78.64000 1.717
78.66000 1.225
78.68000 6.049
78.70000 9.058
78.72000 5.929
78.74000 3.534
78.76000 9.266
78.78000 8.137
78.80000 12.734
78.82000 4.859
78.84000 7.001
78.86000 3.956
78.88000 2.258
78.90000 8.668
78.92000 8.413
78.94000 8.104
78.96000 7.904
78.98000 5.444
79.00000 1.811
79.02000 7.702
79.04000 6.353
79.06000 -0.489
79.08000 6.166
79.10000 2.177
79.12000 3.121
79.14000 4.028
79.16000 -0.223
79.18000 4.762
79.20000 10.657
79.22000 6.455
79.24000 4.005
79.26000 4.133
79.28000 3.732
79.30000 4.972
79.32000 8.560
79.34000 5.783
79.36000 2.000
79.38000 9.164
79.40000 5.659
79.42000 3.590
79.44000 8.453
79.46000 7.343
79.48000 5.825
79.50000 5.879
79.52000 7.655
79.54000 7.993
79.56000 8.210
79.58000 2.490
79.60000 3.084
79.62000 6.563
79.64000 4.583
79.66000 3.531
79.68000 3.319
79.70000 -2.675
79.72000 1.902
79.74000 5.180
79.76000 10.094
79.78000 4.998
79.80000 5.177
79.82000 7.292
79.84000 6.935
79.86000 8.111
79.88000 12.499
79.90000 6.136
79.92000 6.459
79.94000 5.764
79.96000 5.804
79.98000 8.654
80.00000 9.268
80.02000 2.981
80.04000 3.971
80.06000 7.792
80.08000 7.473
80.10000 9.963
80.12000 8.840
80.14000 9.120
80.16000 -0.634
80.18000 0.584
80.20000 2.152
80.22000 4.285
80.24000 5.864
80.26000 9.194
80.28000 10.120
80.30000 7.336
80.32000 7.413
80.34000 4.574
80.36000 6.182
80.38000 7.110
80.40000 6.583
80.42000 6.624
80.44000 8.268
80.46000 8.764
80.48000 5.540
80.50000 5.542
80.52000 9.190
80.54000 5.457
80.56000 8.262
80.58000 9.054
80.60000 6.446
80.62000 9.799
80.64000 9.906
80.66000 4.878
80.68000 0.642
80.70000 11.185
80.72000 15.720
80.74000 10.593
80.76000 3.547
80.78000 3.631
80.80000 12.087
80.82000 17.204
80.84000 15.073
80.86000 11.439
80.88000 11.332
80.90000 12.008
80.92000 18.979
80.94000 13.239
80.96000 8.692
80.98000 11.857
81.00000 8.950
81.02000 12.301
81.04000 18.031
81.06000 13.761
81.08000 15.413
81.10000 19.568
81.12000 17.013
81.14000 12.089
81.16000 9.083
81.18000 9.844
81.20000 11.537
81.22000 17.435
81.24000 17.384
81.26000 20.547
81.28000 14.437
81.30000 20.167
81.32000 16.816
81.34000 16.784
81.36000 11.442
81.38000 20.993
81.40000 23.087
81.42000 21.281
81.44000 16.370
81.46000 17.188
81.48000 19.062
81.50000 18.615
81.52000 21.458
81.54000 22.558
81.56000 23.713
81.58000 21.532
81.60000 25.651
81.62000 21.639
81.64000 24.363
81.66000 27.427
81.68000 21.378
81.70000 23.580
81.72000 22.001
81.74000 28.480
81.76000 22.143
81.78000 23.637
81.80000 28.233
81.82000 26.295
81.84000 33.007
81.86000 32.810
81.88000 31.388
81.90000 29.739
81.92000 26.919
81.94000 24.643
81.96000 32.600
81.98000 25.358
82.00000 19.746
82.02000 22.418
82.04000 26.631
82.06000 23.674
82.08000 22.133
82.10000 16.180
82.12000 15.960
82.14000 21.116
82.16000 24.291
82.18000 20.502
82.20000 16.880
82.22000 15.504
82.24000 14.032
82.26000 15.215
82.28000 13.919
82.30000 19.099
82.32000 21.293
82.34000 23.184
82.36000 17.151
82.38000 18.520
82.40000 18.614
82.42000 16.728
82.44000 14.838
82.46000 14.545
82.48000 19.697
82.50000 17.479
82.52000 17.018
82.54000 19.470
82.56000 13.821
82.58000 13.703
82.60000 15.173
82.62000 19.484
82.64000 11.824
82.66000 11.010
82.68000 13.698
82.70000 12.864
82.72000 7.796
82.74000 13.167
82.76000 14.830
82.78000 10.876
82.80000 9.108
82.82000 8.157
82.84000 10.183
82.86000 6.441
82.88000 5.944
82.90000 7.920
82.92000 10.239
82.94000 9.403
82.96000 8.442
82.98000 10.664
83.00000 3.293
83.02000 1.272
83.04000 5.515
83.06000 6.783
83.08000 5.971
83.10000 10.177
83.12000 6.168
83.14000 1.531
83.16000 1.390
83.18000 6.385
83.20000 -1.047
83.22000 2.983
83.24000 6.577
83.26000 3.619
83.28000 -0.683
83.30000 -1.189
83.32000 2.833
83.34000 -0.712
83.36000 0.283
83.38000 3.500
83.40000 7.671
83.42000 5.606
83.44000 6.948
83.46000 5.745
83.48000 7.667
83.50000 9.404
83.52000 9.809
83.54000 6.702
83.56000 5.889
83.58000 3.495
83.60000 4.210
83.62000 -0.539
83.64000 2.248
83.66000 3.162
83.68000 2.234
83.70000 1.725
83.72000 -2.036
83.74000 2.267
83.76000 3.684
83.78000 5.405
83.80000 6.911
83.82000 3.894
83.84000 2.777
83.86000 5.444
83.88000 6.116
83.90000 1.753
83.92000 4.942
83.94000 7.825
83.96000 4.235
83.98000 -2.745
84.00000 2.951
84.02000 5.946
84.04000 8.334
84.06000 4.920
84.08000 9.504
84.10000 2.966
84.12000 1.237
84.14000 7.063
84.16000 5.660
84.18000 1.807
84.20000 5.486
84.22000 8.377
84.24000 1.269
84.26000 2.116
84.28000 9.310
84.30000 7.411
84.32000 3.034
84.34000 5.698
84.36000 8.363
84.38000 5.626
84.40000 8.853
84.42000 5.756
84.44000 1.083
84.46000 1.422
84.48000 5.223
84.50000 10.477
84.52000 3.804
84.54000 5.899
84.56000 2.831
84.58000 4.209
84.60000 1.202
84.62000 2.542
84.64000 0.553
84.66000 3.509
84.68000 5.011
84.70000 0.864
84.72000 4.510
84.74000 8.585
84.76000 8.930
84.78000 8.426
84.80000 4.626
84.82000 5.742
84.84000 6.440
84.86000 8.177
84.88000 4.680
84.90000 4.246
84.92000 8.022
84.94000 16.196
84.96000 13.058
84.98000 11.385
85.00000 15.048
85.02000 13.639
85.04000 9.508
85.06000 5.026
85.08000 16.984
85.10000 21.330
85.12000 16.427
85.14000 15.424
85.16000 15.902
85.18000 13.677
85.20000 17.741
85.22000 18.016
85.24000 20.874
85.26000 20.609
85.28000 18.570
85.30000 19.490
85.32000 25.339
85.34000 20.932
85.36000 18.979
85.38000 18.493
85.40000 27.934
85.42000 23.520
85.44000 22.945
85.46000 23.215
85.48000 25.051
85.50000 26.130
85.52000 27.017
85.54000 36.459
85.56000 34.192
85.58000 33.370
85.60000 31.710
85.62000 26.997
85.64000 35.021
85.66000 37.138
85.68000 41.030
85.70000 36.773
85.72000 40.410
85.74000 36.589
85.76000 40.445
85.78000 45.520
85.80000 43.536
85.82000 44.604
85.84000 52.495
85.86000 51.931
85.88000 48.540
85.90000 46.336
85.92000 47.981
85.94000 47.536
85.96000 49.500
85.98000 49.817
86.00000 50.538
86.02000 50.652
86.04000 49.204
86.06000 44.822
86.08000 44.123
86.10000 48.996
86.12000 44.844
86.14000 43.538
86.16000 49.776
86.18000 55.456
86.20000 48.088
86.22000 47.644
86.24000 49.194
86.26000 50.679
86.28000 51.707
86.30000 44.824
86.32000 45.902
86.34000 46.766
86.36000 48.068
86.38000 45.005
86.40000 41.562
86.42000 40.331
86.44000 42.755
86.46000 44.679
86.48000 42.346
86.50000 36.324
86.52000 39.802
86.54000 38.383
86.56000 38.911
86.58000 41.874
86.60000 41.809
86.62000 38.695
86.64000 31.162
86.66000 29.989
86.68000 30.933
86.70000 34.011
86.72000 37.427
86.74000 35.453
86.76000 31.850
86.78000 28.726
86.80000 30.893
86.82000 23.330
86.84000 22.122
86.86000 26.701
86.88000 30.718
86.90000 32.219
86.92000 25.094
86.94000 21.975
86.96000 16.023
86.98000 25.613
87.00000 19.769
87.02000 15.069
87.04000 17.615
87.06000 8.222
87.08000 13.607
87.10000 17.019
87.12000 17.021
87.14000 16.266
87.16000 15.381
87.18000 9.698
87.20000 6.180
87.22000 10.233
87.24000 11.015
87.26000 12.157
87.28000 9.854
87.30000 7.022
87.32000 6.062
87.34000 6.846
87.36000 10.126
87.38000 7.790
87.40000 11.637
87.42000 10.099
87.44000 10.742
87.46000 13.164
87.48000 14.055
87.50000 12.688
87.52000 -0.979
87.54000 4.218
87.56000 4.763
87.58000 3.449
87.60000 8.886
87.62000 6.023
87.64000 -1.006
87.66000 -0.332
87.68000 -0.216
87.70000 4.368
87.72000 -0.022
87.74000 -0.967
87.76000 2.909
87.78000 2.525
87.80000 2.472
87.82000 4.694
87.84000 11.238
87.86000 8.157
87.88000 -0.310
87.90000 2.200
87.92000 3.453
87.94000 4.953
87.96000 2.468
87.98000 3.168
88.00000 -2.121
88.02000 1.234
88.04000 3.442
88.06000 1.410
88.08000 -1.975
88.10000 0.465
88.12000 -2.532
88.14000 0.916
88.16000 -1.429
88.18000 5.283
88.20000 2.232
88.22000 2.775
88.24000 0.973
88.26000 3.276
88.28000 1.238
88.30000 2.273
88.32000 1.448
88.34000 -0.526
88.36000 -0.346
88.38000 0.367
88.40000 4.575
88.42000 3.583
88.44000 -2.460
88.46000 1.815
88.48000 0.247
88.50000 1.963
88.52000 6.992
88.54000 9.085
88.56000 -1.195
88.58000 -0.607
88.60000 2.406
88.62000 7.662
88.64000 8.860
88.66000 6.875
88.68000 5.191
88.70000 1.030
88.72000 -2.411
88.74000 1.656
88.76000 6.500
88.78000 6.439
88.80000 6.885
88.82000 2.713
88.84000 6.742
88.86000 8.170
88.88000 4.214
88.90000 4.658
88.92000 5.172
88.94000 7.520
88.96000 12.532
88.98000 6.246
89.00000 -0.614
89.02000 4.607
89.04000 5.201
89.06000 4.758
89.08000 4.901
89.10000 0.206
89.12000 8.102
89.14000 3.937
89.16000 -0.505
89.18000 2.510
89.20000 7.541
89.22000 4.495
89.24000 9.048
89.26000 8.887
89.28000 8.520
89.30000 6.224
89.32000 9.178
89.34000 2.593
89.36000 4.737
89.38000 1.397
89.40000 -1.349
89.42000 0.532
89.44000 7.315
89.46000 11.628
89.48000 3.952
89.50000 3.147
89.52000 6.460
89.54000 4.857
89.56000 11.184
89.58000 6.721
89.60000 4.254
89.62000 0.747
89.64000 1.508
89.66000 0.468
89.68000 -2.368
89.70000 3.135
89.72000 7.501
89.74000 4.610
89.76000 6.417
89.78000 2.329
89.80000 4.544
89.82000 7.022
89.84000 4.812
89.86000 4.799
89.88000 2.539
89.90000 3.585
89.92000 2.447
89.94000 5.037
89.96000 2.151
89.98000 0.210
90.00000 1.981
90.02000 0.593
90.04000 -2.236
90.06000 2.932
90.08000 11.089
90.10000 6.761
90.12000 6.064
90.14000 1.990
90.16000 3.204
90.18000 1.862
90.20000 -1.571
90.22000 -1.228
90.24000 5.178
90.26000 8.458
90.28000 2.147
90.30000 4.082
90.32000 5.547
90.34000 2.045
90.36000 0.422
90.38000 -0.138
90.40000 4.147
90.42000 3.124
90.44000 4.030
90.46000 4.704
90.48000 4.575
90.50000 -0.247
90.52000 0.762
90.54000 -1.485
90.56000 0.711
90.58000 3.910
90.60000 8.539
90.62000 4.412
90.64000 3.790
90.66000 6.334
90.68000 4.422
90.70000 -0.273
90.72000 -2.397
90.74000 1.633
90.76000 2.586
90.78000 2.924
90.80000 7.148
90.82000 7.342
90.84000 5.957
90.86000 3.182
90.88000 4.054
90.90000 5.266
90.92000 -0.176
90.94000 4.890
90.96000 2.432
90.98000 3.651
91.00000 3.520
91.02000 3.318
91.04000 5.185
91.06000 5.147
91.08000 0.080
91.10000 -2.400
91.12000 0.000
91.14000 3.357
91.16000 5.139
91.18000 6.950
91.20000 7.220
91.22000 2.842
91.24000 2.459
91.26000 8.847
91.28000 1.179
91.30000 2.274
91.32000 4.351
91.34000 4.533
91.36000 7.020
91.38000 6.480
91.40000 6.360
91.42000 6.704
91.44000 1.840
91.46000 1.023
91.48000 0.556
91.50000 7.432
91.52000 9.450
91.54000 7.555
91.56000 10.122
91.58000 8.117
91.60000 2.972
91.62000 -0.494
91.64000 -2.388
91.66000 0.936
91.68000 4.321
91.70000 5.217
91.72000 6.121
91.74000 3.297
91.76000 6.362
91.78000 6.036
91.80000 0.368
91.82000 3.128
91.84000 5.739
91.86000 6.396
91.88000 2.045
91.90000 1.930
91.92000 -0.506
91.94000 -0.344
91.96000 8.828
91.98000 8.010
92.00000 2.876
92.02000 4.109
92.04000 0.903
92.06000 5.056
92.08000 2.647
92.10000 3.455
92.12000 8.425
92.14000 3.620
92.16000 1.788
92.18000 5.231
92.20000 3.599
92.22000 10.540
92.24000 3.104
92.26000 2.120
92.28000 7.085
92.30000 4.590
92.32000 2.313
92.34000 4.771
92.36000 8.460
92.38000 10.897
92.40000 10.455
92.42000 3.396
92.44000 5.294
92.46000 6.658
92.48000 6.957
92.50000 3.740
92.52000 0.631
92.54000 1.827
92.56000 7.494
92.58000 6.919
92.60000 3.869
92.62000 4.928
92.64000 5.602
92.66000 8.462
92.68000 6.803
92.70000 3.980
92.72000 7.059
92.74000 12.300
92.76000 17.192
92.78000 12.866
92.80000 5.528
92.82000 3.304
92.84000 2.038
92.86000 -2.360
92.88000 4.325
92.90000 6.898
92.92000 6.886
92.94000 3.571
92.96000 2.079
92.98000 0.534
93.00000 7.486
93.02000 8.677
93.04000 8.333
93.06000 4.285
93.08000 9.798
93.10000 5.809
93.12000 3.847
93.14000 4.252
93.16000 6.521
93.18000 8.518
93.20000 10.496
93.22000 6.880
93.24000 4.432
93.26000 5.136
93.28000 5.210
93.30000 3.081
93.32000 -2.380
93.34000 3.136
93.36000 6.058
93.38000 6.819
93.40000 -0.570
93.42000 0.957
93.44000 0.110
93.46000 8.151
93.48000 9.476
93.50000 3.478
93.52000 2.043
93.54000 7.341
93.56000 10.779
93.58000 4.132
93.60000 -0.498
93.62000 5.126
93.64000 5.328
93.66000 3.410
93.68000 4.916
93.70000 -1.330
93.72000 2.328
93.74000 4.128
93.76000 5.405
93.78000 5.958
93.80000 3.170
93.82000 -0.711
93.84000 2.424
93.86000 1.459
93.88000 -1.163
93.90000 0.433
93.92000 4.359
93.94000 1.424
93.96000 7.068
93.98000 7.981
94.00000 6.105
94.02000 5.057
94.04000 8.394
94.06000 7.999
94.08000 2.512
94.10000 6.353
94.12000 13.099
94.14000 4.943
94.16000 -0.397
94.18000 -2.392
94.20000 -1.953
94.22000 -1.253
94.24000 1.168
94.26000 1.023
94.28000 1.128
94.30000 7.628
94.32000 3.762
94.34000 4.296
94.36000 4.066
94.38000 0.045
94.40000 3.335
94.42000 3.508
94.44000 1.066
94.46000 1.810
94.48000 5.090
94.50000 3.133
94.52000 5.878
94.54000 4.263
94.56000 4.397
94.58000 8.498
94.60000 8.438
94.62000 2.002
94.64000 6.937
94.66000 11.012
94.68000 9.677
94.70000 6.825
94.72000 3.513
94.74000 10.031
94.76000 5.135
94.78000 5.076
94.80000 8.324
94.82000 6.289
94.84000 3.146
94.86000 1.122
94.88000 5.180
94.90000 7.067
94.92000 6.359
94.94000 5.381
94.96000 6.726
94.98000 2.058
95.00000 5.579
95.02000 1.592
95.04000 2.766
95.06000 3.768
95.08000 4.669
95.10000 3.105
95.12000 5.499
95.14000 3.998
95.16000 -0.165
95.18000 -2.426
95.20000 -0.146
95.22000 7.763
95.24000 3.593
95.26000 4.051
95.28000 -0.353
95.30000 3.287
95.32000 4.793
95.34000 3.701
95.36000 1.416
95.38000 2.899
95.40000 2.923
95.42000 -0.392
95.44000 3.828
95.46000 12.441
95.48000 6.300
95.50000 -0.870
95.52000 3.742
95.54000 11.168
95.56000 7.461
95.58000 11.976
95.60000 9.558
95.62000 4.336
95.64000 1.692
95.66000 0.750
95.68000 8.069
95.70000 15.543
95.72000 9.179
95.74000 2.262
95.76000 0.361
95.78000 -2.443
95.80000 -0.124
95.82000 0.071
95.84000 1.153
95.86000 0.100
95.88000 6.688
95.90000 1.456
95.92000 2.532
95.94000 6.470
95.96000 7.889
95.98000 5.938
96.00000 13.736
96.02000 13.175
96.04000 7.443
96.06000 6.557
96.08000 4.733
96.10000 2.302
96.12000 0.766
96.14000 0.306
96.16000 4.510
96.18000 9.576
96.20000 4.968
96.22000 -2.457
96.24000 1.441
96.26000 -2.451
96.28000 4.217
96.30000 0.103
96.32000 -1.203
96.34000 3.635
96.36000 6.882
96.38000 1.196
96.40000 10.838
96.42000 2.886
96.44000 1.988
96.46000 1.333
96.48000 1.568
96.50000 8.195
96.52000 9.032
96.54000 1.214
96.56000 1.998
96.58000 6.043
96.60000 7.878
96.62000 2.000
96.64000 2.033
96.66000 -0.255
96.68000 0.955
96.70000 7.173
96.72000 6.392
96.74000 5.613
96.76000 -2.343
96.78000 3.428
96.80000 8.017
96.82000 0.798
96.84000 -0.037
96.86000 6.668
96.88000 4.992
96.90000 -1.498
96.92000 3.100
96.94000 9.120
96.96000 10.307
96.98000 3.928
97.00000 6.579
97.02000 8.184
97.04000 2.451
97.06000 3.785
97.08000 4.060
97.10000 3.329
97.12000 8.464
97.14000 7.968
97.16000 5.494
97.18000 2.753
97.20000 2.964
97.22000 0.543
97.24000 -0.422
97.26000 4.336
97.28000 8.459
97.30000 2.026
97.32000 1.750
97.34000 4.783
97.36000 -0.390
97.38000 4.816
97.40000 7.895
97.42000 3.127
97.44000 5.009
97.46000 7.328
97.48000 -0.080
97.50000 4.488
97.52000 6.111
97.54000 3.775
97.56000 6.762
97.58000 9.677
97.60000 9.644
97.62000 11.004
97.64000 9.165
97.66000 3.885
97.68000 5.508
97.70000 4.426
97.72000 11.058
97.74000 6.297
97.76000 4.994
97.78000 7.437
97.80000 9.416
97.82000 15.588
97.84000 11.865
97.86000 8.870
97.88000 -3.699
97.90000 7.523
97.92000 16.026
97.94000 7.849
97.96000 5.367
97.98000 7.110
98.00000 13.272
98.02000 12.473
98.04000 14.937
98.06000 9.891
98.08000 4.637
98.10000 10.003
98.12000 10.325
98.14000 9.735
98.16000 9.493
98.18000 6.829
98.20000 7.745
98.22000 7.953
98.24000 1.605
98.26000 -2.320
98.28000 8.738
98.30000 3.891
98.32000 14.256
98.34000 4.348
98.36000 7.354
98.38000 3.986
98.40000 6.064
98.42000 11.248
98.44000 3.505
98.46000 4.911
98.48000 11.205
98.50000 11.333
98.52000 12.670
98.54000 4.280
98.56000 10.319
98.58000 3.852
98.60000 4.913
98.62000 2.756
98.64000 3.349
98.66000 8.194
98.68000 22.060
98.70000 17.569
98.72000 2.377
98.74000 4.396
98.76000 2.077
98.78000 12.906
98.80000 13.407
98.82000 15.333
98.84000 7.557
98.86000 0.423
98.88000 -1.429
98.90000 3.864
98.92000 4.392
98.94000 11.198
98.96000 16.585
98.98000 7.248
99.00000 10.385
99.02000 1.713
99.04000 5.497
99.06000 8.675
99.08000 4.981
99.10000 -1.006
99.12000 13.656
99.14000 6.237
99.16000 4.039
99.18000 8.367
99.20000 14.476
99.22000 9.682
99.24000 12.589
99.26000 6.041
99.28000 4.178
99.30000 11.220
99.32000 8.317
99.34000 2.475
99.36000 -0.313
99.38000 -2.337
99.40000 2.210
99.42000 10.219
99.44000 12.220
99.46000 8.546
99.48000 8.369
99.50000 3.229
99.52000 3.452
99.54000 5.946
99.56000 -2.358
99.58000 2.568
99.60000 12.024
99.62000 24.059
99.64000 17.698
99.66000 7.015
99.68000 6.343
99.70000 1.253
99.72000 4.402
99.74000 6.244
99.76000 15.091
99.78000 12.967
99.80000 11.486
99.82000 5.870
99.84000 9.508
99.86000 6.215
99.88000 -2.459
99.90000 0.829
99.92000 3.820
99.94000 -2.572
99.96000 4.488
99.98000 0.000
