'Id: "0011389" Comment: "Integrate frame 0011389_Au-Ir-Rh_Au-Rich_XRD_Mapping-008-0000.gfrmwith cursor Wedge Cursor #5" Operator: "B?rgel" Anode: "Cu" Wavelength: "1.5406" Scantype: "2Theta (TwoTheta)" TimePerStep: "1" X: "13.5" Y: "-40.5" Z: "5.95" 
10.00000 0.000
10.02000 -4.360
10.04000 -1.047
10.06000 4.405
10.08000 -4.319
10.10000 4.586
10.12000 1.740
10.14000 -2.695
10.16000 10.662
10.18000 8.672
10.20000 4.069
10.22000 3.137
10.24000 8.084
10.26000 5.738
10.28000 -2.992
10.30000 2.061
10.32000 -4.261
10.34000 -4.029
10.36000 10.958
10.38000 8.672
10.40000 -0.265
10.42000 2.802
10.44000 7.267
10.46000 8.025
10.48000 11.204
10.50000 -3.283
10.52000 -4.252
10.54000 11.397
10.56000 3.924
10.58000 9.550
10.60000 10.562
10.62000 10.248
10.64000 8.316
10.66000 5.774
10.68000 4.983
10.70000 3.840
10.72000 -3.747
10.74000 5.061
10.76000 13.015
10.78000 17.745
10.80000 18.895
10.82000 4.003
10.84000 3.916
10.86000 5.483
10.88000 11.220
10.90000 11.724
10.92000 13.211
10.94000 16.236
10.96000 19.117
10.98000 25.122
11.00000 19.718
11.02000 16.980
11.04000 16.189
11.06000 21.256
11.08000 24.441
11.10000 15.688
11.12000 17.588
11.14000 22.132
11.16000 9.605
11.18000 -4.247
11.20000 7.958
11.22000 18.934
11.24000 19.839
11.26000 19.253
11.28000 16.133
11.30000 20.600
11.32000 16.062
11.34000 18.767
11.36000 11.657
11.38000 9.856
11.40000 9.401
11.42000 5.257
11.44000 3.046
11.46000 8.814
11.48000 7.836
11.50000 11.749
11.52000 3.370
11.54000 12.513
11.56000 12.559
11.58000 6.907
11.60000 13.274
11.62000 15.944
11.64000 10.581
11.66000 5.281
11.68000 -3.869
11.70000 2.522
11.72000 9.877
11.74000 11.980
11.76000 13.600
11.78000 23.629
11.80000 13.136
11.82000 7.087
11.84000 11.566
11.86000 26.581
11.88000 16.315
11.90000 9.600
11.92000 6.364
11.94000 15.125
11.96000 20.508
11.98000 18.052
12.00000 16.922
12.02000 20.547
12.04000 22.089
12.06000 15.066
12.08000 10.483
12.10000 16.898
12.12000 14.380
12.14000 7.575
12.16000 2.368
12.18000 9.300
12.20000 13.615
12.22000 16.943
12.24000 21.393
12.26000 10.711
12.28000 14.234
12.30000 12.485
12.32000 3.799
12.34000 5.617
12.36000 18.759
12.38000 10.423
12.40000 12.298
12.42000 13.695
12.44000 20.498
12.46000 12.171
12.48000 16.214
12.50000 15.830
12.52000 15.912
12.54000 13.054
12.56000 6.133
12.58000 11.944
12.60000 11.653
12.62000 15.893
12.64000 23.494
12.66000 18.210
12.68000 6.073
12.70000 4.520
12.72000 8.467
12.74000 6.654
12.76000 6.867
12.78000 16.211
12.80000 14.385
12.82000 10.299
12.84000 16.174
12.86000 16.209
12.88000 10.779
12.90000 12.536
12.92000 12.125
12.94000 17.901
12.96000 9.787
12.98000 12.062
13.00000 9.388
13.02000 10.353
13.04000 16.087
13.06000 11.712
13.08000 15.938
13.10000 13.773
13.12000 6.111
13.14000 8.500
13.16000 14.418
13.18000 8.650
13.20000 14.377
13.22000 19.340
13.24000 16.153
13.26000 15.004
13.28000 20.531
13.30000 29.229
13.32000 27.970
13.34000 12.365
13.36000 10.771
13.38000 14.914
13.40000 11.507
13.42000 9.096
13.44000 5.040
13.46000 0.223
13.48000 11.277
13.50000 7.175
13.52000 -0.662
13.54000 8.174
13.56000 18.452
13.58000 16.929
13.60000 -0.051
13.62000 -0.142
13.64000 13.734
13.66000 14.096
13.68000 9.750
13.70000 12.213
13.72000 5.474
13.74000 7.813
13.76000 7.335
13.78000 7.356
13.80000 5.565
13.82000 6.328
13.84000 3.680
13.86000 12.103
13.88000 13.427
13.90000 10.558
13.92000 11.014
13.94000 9.375
13.96000 8.532
13.98000 3.324
14.00000 3.882
14.02000 10.633
14.04000 8.184
14.06000 5.629
14.08000 5.792
14.10000 12.369
14.12000 7.551
14.14000 6.778
14.16000 4.937
14.18000 1.500
14.20000 6.078
14.22000 2.151
14.24000 11.045
14.26000 7.956
14.28000 11.390
14.30000 6.043
14.32000 2.808
14.34000 12.214
14.36000 6.356
14.38000 9.627
14.40000 6.014
14.42000 0.560
14.44000 8.251
14.46000 6.858
14.48000 1.725
14.50000 -2.947
14.52000 -3.037
14.54000 -4.113
14.56000 9.678
14.58000 17.279
14.60000 17.080
14.62000 13.731
14.64000 8.057
14.66000 11.932
14.68000 12.232
14.70000 7.460
14.72000 12.346
14.74000 15.425
14.76000 6.541
14.78000 1.439
14.80000 7.263
14.82000 9.344
14.84000 6.315
14.86000 4.489
14.88000 10.002
14.90000 12.221
14.92000 10.979
14.94000 11.323
14.96000 10.144
14.98000 9.572
15.00000 15.253
15.02000 10.177
15.04000 8.210
15.06000 6.227
15.08000 5.757
15.10000 5.945
15.12000 6.815
15.14000 -1.382
15.16000 -1.752
15.18000 8.285
15.20000 4.761
15.22000 8.808
15.24000 4.815
15.26000 7.186
15.28000 12.180
15.30000 7.642
15.32000 3.541
15.34000 5.593
15.36000 6.242
15.38000 4.742
15.40000 5.591
15.42000 1.064
15.44000 2.106
15.46000 5.821
15.48000 5.043
15.50000 7.882
15.52000 3.853
15.54000 -1.309
15.56000 -4.423
15.58000 -1.745
15.60000 5.752
15.62000 8.261
15.64000 7.303
15.66000 6.795
15.68000 8.700
15.70000 10.422
15.72000 10.814
15.74000 8.657
15.76000 7.818
15.78000 2.670
15.80000 9.314
15.82000 6.190
15.84000 2.123
15.86000 3.034
15.88000 5.075
15.90000 10.012
15.92000 6.672
15.94000 -2.015
15.96000 0.633
15.98000 -2.918
16.00000 -1.094
16.02000 4.151
16.04000 10.846
16.06000 12.590
16.08000 11.580
16.10000 10.242
16.12000 12.638
16.14000 7.519
16.16000 -4.352
16.18000 -4.392
16.20000 7.173
16.22000 6.585
16.24000 3.686
16.26000 14.572
16.28000 8.651
16.30000 2.075
16.32000 8.156
16.34000 7.441
16.36000 2.236
16.38000 1.597
16.40000 0.474
16.42000 4.846
16.44000 4.030
16.46000 3.393
16.48000 15.142
16.50000 10.707
16.52000 5.045
16.54000 9.779
16.56000 10.277
16.58000 13.293
16.60000 17.063
16.62000 9.813
16.64000 -0.580
16.66000 5.620
16.68000 7.718
16.70000 -3.054
16.72000 -1.599
16.74000 7.971
16.76000 9.844
16.78000 7.826
16.80000 13.709
16.82000 11.106
16.84000 6.134
16.86000 13.171
16.88000 7.709
16.90000 -4.354
16.92000 4.086
16.94000 6.028
16.96000 9.051
16.98000 8.446
17.00000 7.864
17.02000 14.252
17.04000 13.730
17.06000 2.513
17.08000 4.621
17.10000 1.293
17.12000 0.353
17.14000 1.927
17.16000 8.052
17.18000 8.960
17.20000 13.240
17.22000 8.837
17.24000 4.854
17.26000 5.462
17.28000 2.740
17.30000 4.466
17.32000 7.587
17.34000 11.762
17.36000 15.937
17.38000 18.740
17.40000 17.232
17.42000 15.946
17.44000 13.990
17.46000 11.602
17.48000 4.505
17.50000 9.417
17.52000 5.786
17.54000 2.126
17.56000 5.312
17.58000 4.555
17.60000 3.197
17.62000 -0.627
17.64000 6.034
17.66000 9.127
17.68000 10.194
17.70000 6.979
17.72000 0.016
17.74000 4.405
17.76000 0.614
17.78000 5.800
17.80000 7.113
17.82000 3.941
17.84000 4.302
17.86000 -0.700
17.88000 -2.068
17.90000 2.607
17.92000 8.350
17.94000 -0.963
17.96000 0.790
17.98000 2.919
18.00000 0.703
18.02000 1.750
18.04000 3.254
18.06000 1.181
18.08000 -0.067
18.10000 -2.091
18.12000 3.802
18.14000 5.343
18.16000 4.656
18.18000 -0.271
18.20000 1.199
18.22000 2.926
18.24000 9.852
18.26000 7.616
18.28000 9.292
18.30000 10.097
18.32000 4.372
18.34000 0.984
18.36000 6.880
18.38000 6.314
18.40000 4.885
18.42000 3.622
18.44000 10.226
18.46000 15.155
18.48000 10.501
18.50000 -1.200
18.52000 -4.248
18.54000 2.493
18.56000 4.195
18.58000 1.056
18.60000 4.071
18.62000 5.772
18.64000 3.938
18.66000 8.486
18.68000 10.887
18.70000 7.487
18.72000 7.708
18.74000 2.802
18.76000 -0.513
18.78000 9.312
18.80000 12.717
18.82000 5.450
18.84000 4.793
18.86000 7.414
18.88000 7.577
18.90000 7.153
18.92000 11.761
18.94000 14.339
18.96000 5.895
18.98000 6.824
19.00000 7.973
19.02000 8.644
19.04000 11.235
19.06000 12.228
19.08000 8.735
19.10000 1.136
19.12000 5.059
19.14000 5.665
19.16000 7.148
19.18000 3.920
19.20000 0.723
19.22000 7.673
19.24000 9.390
19.26000 7.485
19.28000 4.042
19.30000 3.446
19.32000 10.405
19.34000 13.027
19.36000 12.778
19.38000 13.117
19.40000 9.957
19.42000 3.825
19.44000 11.122
19.46000 3.687
19.48000 -4.146
19.50000 1.830
19.52000 14.232
19.54000 16.492
19.56000 10.835
19.58000 6.970
19.60000 6.789
19.62000 4.672
19.64000 3.945
19.66000 6.436
19.68000 11.699
19.70000 10.491
19.72000 7.392
19.74000 6.494
19.76000 12.790
19.78000 13.447
19.80000 8.685
19.82000 4.771
19.84000 7.918
19.86000 13.904
19.88000 11.184
19.90000 7.458
19.92000 3.701
19.94000 0.737
19.96000 3.868
19.98000 8.587
20.00000 6.990
20.02000 12.065
20.04000 11.336
20.06000 11.148
20.08000 10.287
20.10000 13.800
20.12000 15.806
20.14000 8.173
20.16000 8.517
20.18000 10.437
20.20000 12.176
20.22000 10.365
20.24000 10.317
20.26000 6.788
20.28000 3.922
20.30000 1.815
20.32000 8.817
20.34000 6.691
20.36000 9.875
20.38000 7.485
20.40000 0.771
20.42000 -4.078
20.44000 4.636
20.46000 16.757
20.48000 17.754
20.50000 14.371
20.52000 13.348
20.54000 9.474
20.56000 9.935
20.58000 8.787
20.60000 11.161
20.62000 10.188
20.64000 7.049
20.66000 7.295
20.68000 12.305
20.70000 11.773
20.72000 12.264
20.74000 17.316
20.76000 13.464
20.78000 13.526
20.80000 8.655
20.82000 8.387
20.84000 10.862
20.86000 15.831
20.88000 13.384
20.90000 4.958
20.92000 2.791
20.94000 12.714
20.96000 12.239
20.98000 8.086
21.00000 8.482
21.02000 6.756
21.04000 6.577
21.06000 13.595
21.08000 8.086
21.10000 3.607
21.12000 5.877
21.14000 11.133
21.16000 8.535
21.18000 8.495
21.20000 10.592
21.22000 12.375
21.24000 9.355
21.26000 0.485
21.28000 2.442
21.30000 2.108
21.32000 -4.033
21.34000 5.523
21.36000 4.224
21.38000 3.228
21.40000 6.744
21.42000 2.754
21.44000 12.736
21.46000 11.644
21.48000 7.714
21.50000 4.841
21.52000 5.670
21.54000 4.068
21.56000 1.904
21.58000 2.240
21.60000 8.256
21.62000 11.289
21.64000 3.013
21.66000 -2.949
21.68000 0.127
21.70000 9.490
21.72000 14.111
21.74000 13.985
21.76000 13.481
21.78000 9.891
21.80000 4.555
21.82000 3.025
21.84000 2.056
21.86000 12.573
21.88000 14.303
21.90000 7.573
21.92000 6.523
21.94000 5.552
21.96000 4.382
21.98000 0.882
22.00000 0.424
22.02000 9.640
22.04000 6.599
22.06000 7.915
22.08000 11.728
22.10000 21.515
22.12000 17.934
22.14000 14.208
22.16000 14.306
22.18000 5.836
22.20000 4.851
22.22000 10.478
22.24000 4.408
22.26000 2.664
22.28000 7.366
22.30000 4.530
22.32000 3.618
22.34000 1.650
22.36000 3.108
22.38000 6.021
22.40000 2.142
22.42000 5.882
22.44000 6.887
22.46000 7.515
22.48000 4.658
22.50000 4.105
22.52000 4.284
22.54000 5.513
22.56000 12.731
22.58000 3.504
22.60000 1.069
22.62000 8.559
22.64000 7.624
22.66000 5.865
22.68000 9.791
22.70000 11.289
22.72000 6.868
22.74000 6.928
22.76000 9.804
22.78000 10.692
22.80000 7.225
22.82000 7.672
22.84000 10.537
22.86000 10.025
22.88000 9.769
22.90000 4.085
22.92000 -0.498
22.94000 2.114
22.96000 11.172
22.98000 8.874
23.00000 6.456
23.02000 6.962
23.04000 9.156
23.06000 11.861
23.08000 10.108
23.10000 9.687
23.12000 10.495
23.14000 2.999
23.16000 1.033
23.18000 3.480
23.20000 6.820
23.22000 11.393
23.24000 6.693
23.26000 0.193
23.28000 -0.838
23.30000 -0.307
23.32000 5.466
23.34000 6.325
23.36000 7.488
23.38000 7.463
23.40000 2.261
23.42000 5.644
23.44000 6.262
23.46000 6.896
23.48000 9.124
23.50000 4.630
23.52000 7.768
23.54000 10.327
23.56000 -1.882
23.58000 -3.294
23.60000 3.915
23.62000 5.520
23.64000 3.856
23.66000 -3.918
23.68000 3.812
23.70000 7.308
23.72000 7.678
23.74000 8.204
23.76000 3.532
23.78000 -3.527
23.80000 -0.774
23.82000 3.044
23.84000 5.053
23.86000 6.037
23.88000 2.706
23.90000 6.378
23.92000 6.775
23.94000 5.970
23.96000 3.779
23.98000 3.299
24.00000 2.740
24.02000 6.782
24.04000 9.350
24.06000 6.789
24.08000 0.537
24.10000 3.051
24.12000 3.864
24.14000 9.369
24.16000 13.521
24.18000 11.407
24.20000 3.871
24.22000 3.610
24.24000 9.758
24.26000 8.243
24.28000 4.040
24.30000 2.309
24.32000 3.596
24.34000 -0.558
24.36000 -0.141
24.38000 6.303
24.40000 7.828
24.42000 8.326
24.44000 10.201
24.46000 4.339
24.48000 1.756
24.50000 0.259
24.52000 2.111
24.54000 3.776
24.56000 0.482
24.58000 1.615
24.60000 3.510
24.62000 5.095
24.64000 1.705
24.66000 5.840
24.68000 6.927
24.70000 0.354
24.72000 -3.890
24.74000 1.557
24.76000 2.762
24.78000 2.029
24.80000 -0.624
24.82000 2.262
24.84000 5.127
24.86000 3.385
24.88000 7.823
24.90000 9.265
24.92000 2.631
24.94000 0.545
24.96000 -0.571
24.98000 4.315
25.00000 8.515
25.02000 6.286
25.04000 3.754
25.06000 1.612
25.08000 3.774
25.10000 5.135
25.12000 5.044
25.14000 7.475
25.16000 3.026
25.18000 0.532
25.20000 4.254
25.22000 9.265
25.24000 8.553
25.26000 1.261
25.28000 5.353
25.30000 6.630
25.32000 7.291
25.34000 8.253
25.36000 5.283
25.38000 5.759
25.40000 11.080
25.42000 10.826
25.44000 8.224
25.46000 3.385
25.48000 -3.855
25.50000 1.480
25.52000 7.989
25.54000 9.134
25.56000 9.815
25.58000 6.407
25.60000 8.276
25.62000 10.780
25.64000 8.836
25.66000 4.005
25.68000 -2.046
25.70000 0.240
25.72000 -0.626
25.74000 -0.098
25.76000 0.881
25.78000 2.782
25.80000 5.034
25.82000 9.004
25.84000 4.613
25.86000 -0.808
25.88000 2.012
25.90000 0.234
25.92000 -1.892
25.94000 3.012
25.96000 2.545
25.98000 0.447
26.00000 2.035
26.02000 5.941
26.04000 5.806
26.06000 10.335
26.08000 8.080
26.10000 -1.043
26.12000 -3.821
26.14000 2.981
26.16000 9.933
26.18000 9.531
26.20000 5.985
26.22000 -1.409
26.24000 -3.814
26.26000 2.197
26.28000 4.999
26.30000 3.881
26.32000 0.625
26.34000 3.933
26.36000 6.916
26.38000 4.132
26.40000 6.741
26.42000 8.939
26.44000 8.289
26.46000 4.778
26.48000 5.273
26.50000 3.197
26.52000 3.429
26.54000 7.722
26.56000 1.956
26.58000 2.322
26.60000 2.903
26.62000 3.712
26.64000 -2.158
26.66000 -2.212
26.68000 3.111
26.70000 -1.556
26.72000 1.644
26.74000 2.355
26.76000 1.351
26.78000 -1.846
26.80000 6.448
26.82000 6.401
26.84000 2.312
26.86000 0.399
26.88000 4.967
26.90000 4.851
26.92000 0.709
26.94000 -0.737
26.96000 0.904
26.98000 -3.794
27.00000 3.046
27.02000 4.857
27.04000 -1.568
27.06000 -3.644
27.08000 1.747
27.10000 -1.151
27.12000 -2.559
27.14000 0.679
27.16000 -3.136
27.18000 0.776
27.20000 1.039
27.22000 3.310
27.24000 4.433
27.26000 5.349
27.28000 5.139
27.30000 3.636
27.32000 1.626
27.34000 7.580
27.36000 8.067
27.38000 5.827
27.40000 2.285
27.42000 5.437
27.44000 5.236
27.46000 3.170
27.48000 4.636
27.50000 2.779
27.52000 -0.516
27.54000 -0.130
27.56000 0.200
27.58000 -3.764
27.60000 1.049
27.62000 7.118
27.64000 9.218
27.66000 10.448
27.68000 10.564
27.70000 6.845
27.72000 3.233
27.74000 4.072
27.76000 5.854
27.78000 4.296
27.80000 3.029
27.82000 1.911
27.84000 0.543
27.86000 3.811
27.88000 3.653
27.90000 3.215
27.92000 6.495
27.94000 0.423
27.96000 -1.962
27.98000 2.606
28.00000 3.558
28.02000 8.916
28.04000 3.498
28.06000 5.257
28.08000 7.814
28.10000 9.147
28.12000 9.148
28.14000 6.111
28.16000 1.824
28.18000 1.520
28.20000 2.687
28.22000 -1.185
28.24000 -0.832
28.26000 -0.375
28.28000 4.316
28.30000 7.081
28.32000 4.802
28.34000 5.869
28.36000 6.249
28.38000 2.963
28.40000 2.451
28.42000 3.241
28.44000 8.663
28.46000 9.680
28.48000 8.573
28.50000 7.313
28.52000 3.826
28.54000 5.667
28.56000 3.905
28.58000 3.587
28.60000 3.264
28.62000 4.982
28.64000 3.113
28.66000 4.348
28.68000 4.518
28.70000 2.375
28.72000 3.133
28.74000 5.783
28.76000 8.339
28.78000 6.435
28.80000 6.819
28.82000 5.153
28.84000 2.124
28.86000 7.298
28.88000 9.992
28.90000 8.747
28.92000 6.076
28.94000 4.729
28.96000 3.958
28.98000 3.086
29.00000 4.254
29.02000 3.425
29.04000 8.292
29.06000 9.038
29.08000 4.954
29.10000 3.328
29.12000 8.027
29.14000 5.386
29.16000 4.462
29.18000 1.699
29.20000 -3.648
29.22000 0.997
29.24000 3.342
29.26000 5.491
29.28000 6.032
29.30000 3.670
29.32000 9.221
29.34000 8.605
29.36000 6.132
29.38000 10.324
29.40000 10.853
29.42000 6.601
29.44000 3.560
29.46000 5.075
29.48000 3.424
29.50000 4.251
29.52000 5.783
29.54000 4.816
29.56000 5.347
29.58000 4.675
29.60000 3.446
29.62000 -0.068
29.64000 0.144
29.66000 4.140
29.68000 3.100
29.70000 1.195
29.72000 3.554
29.74000 5.809
29.76000 -0.459
29.78000 -1.190
29.80000 2.299
29.82000 4.096
29.84000 4.334
29.86000 5.986
29.88000 2.956
29.90000 4.749
29.92000 5.380
29.94000 1.043
29.96000 2.083
29.98000 4.741
30.00000 3.836
30.02000 -1.390
30.04000 3.533
30.06000 8.071
30.08000 7.365
30.10000 3.759
30.12000 -0.598
30.14000 -3.638
30.16000 3.465
30.18000 1.811
30.20000 0.883
30.22000 4.036
30.24000 2.157
30.26000 10.061
30.28000 10.652
30.30000 2.932
30.32000 1.551
30.34000 0.183
30.36000 4.639
30.38000 3.829
30.40000 1.392
30.42000 5.348
30.44000 3.939
30.46000 3.417
30.48000 7.600
30.50000 6.993
30.52000 4.913
30.54000 0.811
30.56000 4.253
30.58000 5.822
30.60000 0.620
30.62000 2.816
30.64000 1.982
30.66000 1.821
30.68000 -0.433
30.70000 -2.564
30.72000 -0.350
30.74000 4.284
30.76000 3.187
30.78000 6.803
30.80000 8.837
30.82000 0.995
30.84000 -0.556
30.86000 5.484
30.88000 10.734
30.90000 3.031
30.92000 3.408
30.94000 5.713
30.96000 5.444
30.98000 1.746
31.00000 0.989
31.02000 5.802
31.04000 2.454
31.06000 1.299
31.08000 2.486
31.10000 0.219
31.12000 -1.139
31.14000 4.606
31.16000 1.429
31.18000 1.733
31.20000 4.883
31.22000 4.543
31.24000 3.884
31.26000 5.170
31.28000 4.439
31.30000 8.367
31.32000 2.184
31.34000 -0.262
31.36000 -3.598
31.38000 1.290
31.40000 1.782
31.42000 6.352
31.44000 9.712
31.46000 4.728
31.48000 1.502
31.50000 0.334
31.52000 0.646
31.54000 5.061
31.56000 6.106
31.58000 1.026
31.60000 0.153
31.62000 -1.738
31.64000 0.491
31.66000 3.915
31.68000 2.127
31.70000 3.646
31.72000 5.709
31.74000 8.620
31.76000 5.455
31.78000 1.783
31.80000 2.448
31.82000 -2.381
31.84000 -2.066
31.86000 1.221
31.88000 0.341
31.90000 1.002
31.92000 -0.374
31.94000 2.727
31.96000 0.237
31.98000 2.370
32.00000 -0.005
32.02000 0.906
32.04000 0.246
32.06000 -1.197
32.08000 -3.576
32.10000 1.486
32.12000 1.032
32.14000 0.182
32.16000 -1.127
32.18000 -0.033
32.20000 -1.018
32.22000 0.946
32.24000 -0.093
32.26000 -0.640
32.28000 1.879
32.30000 1.789
32.32000 -0.885
32.34000 -1.060
32.36000 0.609
32.38000 2.737
32.40000 1.777
32.42000 -0.102
32.44000 0.224
32.46000 0.382
32.48000 -2.715
32.50000 -2.569
32.52000 -2.214
32.54000 2.739
32.56000 7.416
32.58000 3.901
32.60000 -0.434
32.62000 0.794
32.64000 -1.737
32.66000 0.812
32.68000 4.718
32.70000 4.431
32.72000 1.840
32.74000 -0.123
32.76000 1.485
32.78000 2.758
32.80000 2.770
32.82000 2.487
32.84000 -2.072
32.86000 2.395
32.88000 2.443
32.90000 0.000
32.92000 5.735
32.94000 -0.474
32.96000 -0.143
32.98000 -1.364
33.00000 4.367
33.02000 2.727
33.04000 -3.529
33.06000 -2.344
33.08000 1.140
33.10000 9.268
33.12000 6.856
33.14000 5.105
33.16000 1.341
33.18000 1.539
33.20000 6.591
33.22000 5.262
33.24000 6.504
33.26000 2.763
33.28000 -0.713
33.30000 -0.132
33.32000 3.884
33.34000 -0.345
33.36000 2.402
33.38000 3.940
33.40000 3.932
33.42000 4.965
33.44000 4.040
33.46000 5.515
33.48000 0.898
33.50000 3.105
33.52000 5.977
33.54000 4.164
33.56000 2.899
33.58000 4.789
33.60000 1.143
33.62000 6.976
33.64000 5.508
33.66000 2.434
33.68000 6.046
33.70000 2.871
33.72000 1.156
33.74000 4.175
33.76000 1.896
33.78000 2.301
33.80000 -3.381
33.82000 -1.083
33.84000 0.560
33.86000 0.970
33.88000 -3.168
33.90000 1.275
33.92000 -0.023
33.94000 3.100
33.96000 5.558
33.98000 0.374
34.00000 2.127
34.02000 4.071
34.04000 7.423
34.06000 9.152
34.08000 5.170
34.10000 -3.278
34.12000 1.799
34.14000 1.893
34.16000 0.629
34.18000 5.765
34.20000 4.789
34.22000 3.191
34.24000 2.029
34.26000 -1.015
34.28000 -0.257
34.30000 2.065
34.32000 8.230
34.34000 8.365
34.36000 8.092
34.38000 1.794
34.40000 3.086
34.42000 0.937
34.44000 -0.854
34.46000 0.112
34.48000 0.014
34.50000 5.342
34.52000 5.516
34.54000 3.711
34.56000 -2.339
34.58000 -2.028
34.60000 0.069
34.62000 0.097
34.64000 1.423
34.66000 4.199
34.68000 -1.237
34.70000 0.357
34.72000 0.328
34.74000 0.910
34.76000 2.609
34.78000 5.657
34.80000 2.710
34.82000 -1.969
34.84000 -1.183
34.86000 -1.430
34.88000 3.101
34.90000 4.396
34.92000 3.857
34.94000 -0.695
34.96000 -0.806
34.98000 0.318
35.00000 1.472
35.02000 1.590
35.04000 5.779
35.06000 1.058
35.08000 5.812
35.10000 3.205
35.12000 -0.687
35.14000 4.268
35.16000 2.686
35.18000 1.110
35.20000 10.701
35.22000 4.978
35.24000 -0.071
35.26000 -3.469
35.28000 1.307
35.30000 6.023
35.32000 1.174
35.34000 1.946
35.36000 4.373
35.38000 4.477
35.40000 2.750
35.42000 6.954
35.44000 0.272
35.46000 1.878
35.48000 5.356
35.50000 4.184
35.52000 0.598
35.54000 0.695
35.56000 1.559
35.58000 0.580
35.60000 2.036
35.62000 1.707
35.64000 0.965
35.66000 3.763
35.68000 0.308
35.70000 3.116
35.72000 3.545
35.74000 3.188
35.76000 3.651
35.78000 3.869
35.80000 4.353
35.82000 7.284
35.84000 4.841
35.86000 2.883
35.88000 0.114
35.90000 0.553
35.92000 2.665
35.94000 6.719
35.96000 1.256
35.98000 2.585
36.00000 4.513
36.02000 7.195
36.04000 10.633
36.06000 7.644
36.08000 0.903
36.10000 -2.143
36.12000 0.520
36.14000 3.659
36.16000 5.414
36.18000 5.911
36.20000 3.752
36.22000 10.642
36.24000 8.549
36.26000 1.915
36.28000 0.915
36.30000 2.839
36.32000 6.663
36.34000 5.218
36.36000 7.828
36.38000 8.478
36.40000 7.885
36.42000 0.027
36.44000 -3.466
36.46000 5.025
36.48000 3.699
36.50000 2.155
36.52000 1.183
36.54000 4.108
36.56000 3.202
36.58000 3.525
36.60000 6.610
36.62000 11.209
36.64000 9.799
36.66000 7.263
36.68000 1.946
36.70000 1.235
36.72000 3.001
36.74000 -0.040
36.76000 7.722
36.78000 8.906
36.80000 8.554
36.82000 4.179
36.84000 2.668
36.86000 -0.123
36.88000 0.596
36.90000 1.397
36.92000 5.490
36.94000 5.504
36.96000 5.857
36.98000 -0.305
37.00000 1.931
37.02000 1.867
37.04000 8.628
37.06000 5.918
37.08000 -0.217
37.10000 -0.440
37.12000 3.946
37.14000 2.613
37.16000 3.048
37.18000 2.476
37.20000 2.198
37.22000 1.394
37.24000 0.709
37.26000 -2.321
37.28000 -2.970
37.30000 -2.778
37.32000 2.852
37.34000 2.937
37.36000 -2.525
37.38000 -3.569
37.40000 1.727
37.42000 7.593
37.44000 7.751
37.46000 6.531
37.48000 2.990
37.50000 3.536
37.52000 2.900
37.54000 3.457
37.56000 3.705
37.58000 5.702
37.60000 5.293
37.62000 7.039
37.64000 6.633
37.66000 4.605
37.68000 4.298
37.70000 4.609
37.72000 6.780
37.74000 1.643
37.76000 -0.052
37.78000 5.245
37.80000 9.912
37.82000 5.729
37.84000 6.737
37.86000 7.730
37.88000 4.562
37.90000 1.771
37.92000 6.750
37.94000 8.002
37.96000 6.594
37.98000 5.258
38.00000 4.136
38.02000 13.433
38.04000 17.505
38.06000 12.167
38.08000 9.002
38.10000 12.464
38.12000 14.774
38.14000 13.837
38.16000 12.328
38.18000 16.924
38.20000 13.310
38.22000 17.962
38.24000 16.452
38.26000 16.395
38.28000 14.739
38.30000 17.883
38.32000 19.476
38.34000 17.911
38.36000 17.706
38.38000 13.857
38.40000 16.366
38.42000 21.564
38.44000 24.455
38.46000 26.129
38.48000 25.617
38.50000 29.650
38.52000 28.282
38.54000 32.782
38.56000 32.841
38.58000 31.929
38.60000 29.511
38.62000 24.430
38.64000 27.001
38.66000 31.653
38.68000 33.130
38.70000 35.128
38.72000 36.886
38.74000 37.814
38.76000 42.313
38.78000 41.147
38.80000 45.528
38.82000 45.249
38.84000 47.155
38.86000 48.949
38.88000 48.561
38.90000 55.051
38.92000 54.324
38.94000 58.654
38.96000 62.110
38.98000 63.704
39.00000 71.366
39.02000 69.681
39.04000 65.672
39.06000 71.825
39.08000 80.252
39.10000 82.635
39.12000 87.157
39.14000 89.270
39.16000 94.363
39.18000 99.762
39.20000 107.947
39.22000 110.328
39.24000 110.076
39.26000 116.625
39.28000 128.741
39.30000 133.304
39.32000 140.327
39.34000 149.867
39.36000 154.355
39.38000 165.824
39.40000 180.729
39.42000 192.189
39.44000 207.751
39.46000 211.540
39.48000 219.821
39.50000 231.197
39.52000 248.561
39.54000 266.009
39.56000 278.162
39.58000 289.795
39.60000 313.952
39.62000 329.561
39.64000 346.317
39.66000 362.143
39.68000 372.698
39.70000 405.204
39.72000 433.432
39.74000 447.914
39.76000 464.110
39.78000 479.579
39.80000 506.348
39.82000 529.515
39.84000 554.002
39.86000 561.197
39.88000 584.594
39.90000 599.982
39.92000 598.904
39.94000 603.471
39.96000 615.544
39.98000 632.295
40.00000 647.867
40.02000 646.624
40.04000 637.706
40.06000 623.870
40.08000 625.789
40.10000 618.282
40.12000 615.991
40.14000 604.684
40.16000 590.756
40.18000 584.850
40.20000 577.330
40.22000 567.121
40.24000 543.232
40.26000 520.720
40.28000 500.833
40.30000 480.346
40.32000 457.904
40.34000 441.329
40.36000 418.515
40.38000 396.894
40.40000 372.850
40.42000 361.817
40.44000 347.492
40.46000 328.485
40.48000 315.727
40.50000 296.167
40.52000 271.227
40.54000 252.904
40.56000 240.570
40.58000 226.328
40.60000 211.755
40.62000 199.932
40.64000 185.372
40.66000 172.026
40.68000 163.380
40.70000 159.611
40.72000 145.673
40.74000 140.658
40.76000 129.992
40.78000 121.179
40.80000 116.574
40.82000 109.147
40.84000 100.721
40.86000 96.335
40.88000 95.346
40.90000 86.014
40.92000 80.495
40.94000 74.556
40.96000 69.932
40.98000 63.777
41.00000 65.183
41.02000 66.338
41.04000 58.853
41.06000 52.852
41.08000 49.497
41.10000 43.720
41.12000 41.285
41.14000 41.289
41.16000 40.592
41.18000 39.814
41.20000 38.408
41.22000 36.079
41.24000 35.856
41.26000 33.237
41.28000 29.385
41.30000 29.834
41.32000 29.243
41.34000 28.397
41.36000 26.340
41.38000 24.568
41.40000 21.983
41.42000 15.592
41.44000 18.751
41.46000 16.344
41.48000 16.333
41.50000 17.110
41.52000 16.333
41.54000 15.568
41.56000 13.831
41.58000 9.674
41.60000 9.508
41.62000 12.093
41.64000 7.853
41.66000 7.930
41.68000 8.102
41.70000 5.816
41.72000 6.641
41.74000 6.402
41.76000 7.491
41.78000 8.279
41.80000 5.883
41.82000 2.598
41.84000 3.134
41.86000 6.994
41.88000 4.953
41.90000 2.771
41.92000 2.460
41.94000 5.171
41.96000 4.120
41.98000 6.245
42.00000 6.435
42.02000 2.102
42.04000 2.583
42.06000 4.114
42.08000 5.430
42.10000 4.195
42.12000 5.400
42.14000 3.977
42.16000 1.142
42.18000 2.305
42.20000 -1.183
42.22000 -0.443
42.24000 0.827
42.26000 3.641
42.28000 2.305
42.30000 1.376
42.32000 2.113
42.34000 0.540
42.36000 1.322
42.38000 1.135
42.40000 0.251
42.42000 1.973
42.44000 -1.651
42.46000 0.015
42.48000 -1.907
42.50000 -0.171
42.52000 1.074
42.54000 1.180
42.56000 -1.255
42.58000 -0.344
42.60000 -3.182
42.62000 -3.201
42.64000 -3.352
42.66000 -3.137
42.68000 -2.527
42.70000 -0.485
42.72000 -2.832
42.74000 -1.054
42.76000 0.225
42.78000 -0.079
42.80000 0.357
42.82000 0.227
42.84000 1.322
42.86000 3.097
42.88000 0.085
42.90000 1.893
42.92000 0.997
42.94000 1.061
42.96000 1.754
42.98000 1.834
43.00000 -2.584
43.02000 -1.556
43.04000 -0.292
43.06000 -1.814
43.08000 1.860
43.10000 4.303
43.12000 2.231
43.14000 3.786
43.16000 4.447
43.18000 3.934
43.20000 0.841
43.22000 3.709
43.24000 3.940
43.26000 0.934
43.28000 -0.735
43.30000 4.608
43.32000 5.862
43.34000 4.273
43.36000 -0.793
43.38000 1.461
43.40000 -3.201
43.42000 1.646
43.44000 4.568
43.46000 2.329
43.48000 4.414
43.50000 2.927
43.52000 4.011
43.54000 1.683
43.56000 1.491
43.58000 -1.168
43.60000 -0.079
43.62000 1.375
43.64000 4.526
43.66000 4.752
43.68000 2.863
43.70000 3.745
43.72000 5.227
43.74000 2.935
43.76000 1.180
43.78000 5.000
43.80000 6.837
43.82000 7.779
43.84000 8.135
43.86000 2.627
43.88000 -1.512
43.90000 -3.145
43.92000 -0.818
43.94000 2.989
43.96000 1.670
43.98000 0.966
44.00000 3.457
44.02000 -1.278
44.04000 -0.235
44.06000 3.566
44.08000 3.026
44.10000 3.334
44.12000 1.249
44.14000 1.209
44.16000 2.227
44.18000 0.875
44.20000 3.300
44.22000 3.667
44.24000 5.449
44.26000 3.749
44.28000 5.047
44.30000 2.483
44.32000 0.944
44.34000 0.547
44.36000 1.593
44.38000 2.861
44.40000 1.970
44.42000 -0.674
44.44000 -0.554
44.46000 -0.146
44.48000 -0.175
44.50000 0.066
44.52000 1.589
44.54000 3.236
44.56000 4.749
44.58000 3.719
44.60000 -1.090
44.62000 -1.776
44.64000 1.341
44.66000 1.425
44.68000 -0.740
44.70000 -1.192
44.72000 0.555
44.74000 0.295
44.76000 1.400
44.78000 -2.634
44.80000 -1.536
44.82000 -0.333
44.84000 3.649
44.86000 1.531
44.88000 1.300
44.90000 -1.307
44.92000 -3.160
44.94000 -0.332
44.96000 1.495
44.98000 3.780
45.00000 0.575
45.02000 0.058
45.04000 1.003
45.06000 3.612
45.08000 3.717
45.10000 6.312
45.12000 4.563
45.14000 -0.598
45.16000 3.013
45.18000 6.676
45.20000 4.215
45.22000 2.891
45.24000 2.412
45.26000 5.322
45.28000 6.992
45.30000 7.910
45.32000 7.941
45.34000 5.986
45.36000 5.659
45.38000 3.961
45.40000 3.832
45.42000 5.570
45.44000 7.039
45.46000 9.096
45.48000 7.474
45.50000 8.729
45.52000 8.890
45.54000 9.590
45.56000 8.638
45.58000 10.313
45.60000 10.202
45.62000 9.505
45.64000 10.083
45.66000 8.457
45.68000 12.529
45.70000 11.237
45.72000 13.226
45.74000 12.620
45.76000 12.044
45.78000 17.103
45.80000 15.594
45.82000 18.717
45.84000 18.962
45.86000 20.693
45.88000 22.538
45.90000 26.344
45.92000 20.576
45.94000 23.270
45.96000 21.787
45.98000 20.713
46.00000 22.074
46.02000 26.470
46.04000 32.325
46.06000 30.860
46.08000 33.883
46.10000 35.584
46.12000 32.551
46.14000 35.540
46.16000 42.237
46.18000 40.058
46.20000 43.451
46.22000 48.636
46.24000 44.567
46.26000 41.664
46.28000 45.903
46.30000 45.435
46.32000 46.730
46.34000 48.210
46.36000 49.142
46.38000 50.989
46.40000 56.870
46.42000 56.534
46.44000 55.143
46.46000 59.549
46.48000 64.186
46.50000 61.836
46.52000 61.732
46.54000 64.003
46.56000 64.329
46.58000 69.052
46.60000 71.774
46.62000 77.301
46.64000 72.336
46.66000 67.442
46.68000 71.104
46.70000 72.890
46.72000 67.943
46.74000 69.089
46.76000 75.180
46.78000 74.536
46.80000 68.308
46.82000 71.989
46.84000 70.247
46.86000 67.076
46.88000 69.985
46.90000 67.326
46.92000 67.487
46.94000 68.596
46.96000 60.432
46.98000 57.262
47.00000 53.159
47.02000 53.240
47.04000 54.733
47.06000 53.008
47.08000 49.894
47.10000 45.400
47.12000 43.292
47.14000 46.298
47.16000 43.640
47.18000 40.975
47.20000 43.241
47.22000 42.686
47.24000 41.286
47.26000 37.025
47.28000 28.091
47.30000 30.705
47.32000 30.140
47.34000 29.064
47.36000 28.525
47.38000 29.053
47.40000 28.134
47.42000 29.270
47.44000 28.621
47.46000 20.141
47.48000 20.565
47.50000 23.594
47.52000 22.973
47.54000 20.219
47.56000 19.341
47.58000 13.814
47.60000 16.266
47.62000 15.606
47.64000 12.745
47.66000 10.925
47.68000 13.520
47.70000 12.549
47.72000 5.324
47.74000 4.993
47.76000 5.831
47.78000 4.008
47.80000 9.748
47.82000 11.159
47.84000 7.166
47.86000 5.970
47.88000 6.523
47.90000 5.420
47.92000 5.302
47.94000 5.410
47.96000 3.237
47.98000 2.358
48.00000 5.811
48.02000 3.424
48.04000 -0.254
48.06000 0.252
48.08000 2.919
48.10000 3.194
48.12000 1.015
48.14000 2.507
48.16000 -1.092
48.18000 -1.679
48.20000 -2.050
48.22000 -0.020
48.24000 1.027
48.26000 0.247
48.28000 1.274
48.30000 0.476
48.32000 0.591
48.34000 0.569
48.36000 1.783
48.38000 -0.351
48.40000 -1.226
48.42000 -2.796
48.44000 -2.447
48.46000 1.730
48.48000 1.158
48.50000 1.268
48.52000 3.283
48.54000 3.117
48.56000 1.487
48.58000 -0.343
48.60000 0.540
48.62000 0.064
48.64000 4.305
48.66000 3.127
48.68000 -1.383
48.70000 -2.047
48.72000 -1.861
48.74000 -0.218
48.76000 0.673
48.78000 4.990
48.80000 3.009
48.82000 -0.514
48.84000 -1.929
48.86000 -2.756
48.88000 3.456
48.90000 4.174
48.92000 -0.326
48.94000 1.978
48.96000 -0.302
48.98000 -0.190
49.00000 1.059
49.02000 -1.639
49.04000 -1.876
49.06000 -0.851
49.08000 3.146
49.10000 1.123
49.12000 -1.394
49.14000 -1.392
49.16000 0.348
49.18000 3.351
49.20000 0.130
49.22000 -1.110
49.24000 -0.691
49.26000 0.503
49.28000 5.122
49.30000 4.640
49.32000 0.389
49.34000 2.262
49.36000 -1.451
49.38000 2.392
49.40000 -0.553
49.42000 3.144
49.44000 0.031
49.46000 -0.721
49.48000 -0.825
49.50000 1.738
49.52000 4.264
49.54000 3.425
49.56000 2.536
49.58000 0.243
49.60000 2.059
49.62000 2.995
49.64000 3.386
49.66000 -0.234
49.68000 -2.225
49.70000 -0.274
49.72000 2.628
49.74000 2.613
49.76000 -1.724
49.78000 0.269
49.80000 -2.649
49.82000 0.219
49.84000 4.746
49.86000 3.715
49.88000 1.042
49.90000 -2.110
49.92000 0.344
49.94000 2.434
49.96000 4.377
49.98000 2.429
50.00000 1.595
50.02000 3.713
50.04000 3.558
50.06000 1.457
50.08000 1.216
50.10000 2.675
50.12000 -2.618
50.14000 -0.336
50.16000 2.602
50.18000 1.714
50.20000 1.661
50.22000 -2.121
50.24000 2.044
50.26000 6.493
50.28000 5.698
50.30000 1.775
50.32000 5.074
50.34000 4.085
50.36000 -0.975
50.38000 -1.097
50.40000 6.496
50.42000 7.681
50.44000 8.962
50.46000 8.221
50.48000 3.145
50.50000 -0.218
50.52000 0.029
50.54000 4.383
50.56000 4.498
50.58000 2.903
50.60000 3.894
50.62000 5.448
50.64000 7.181
50.66000 1.217
50.68000 -2.573
50.70000 -1.359
50.72000 1.049
50.74000 4.632
50.76000 7.169
50.78000 2.219
50.80000 2.426
50.82000 3.213
50.84000 2.512
50.86000 4.048
50.88000 4.953
50.90000 5.563
50.92000 5.359
50.94000 3.624
50.96000 3.588
50.98000 1.632
51.00000 5.022
51.02000 6.838
51.04000 -1.313
51.06000 1.738
51.08000 9.552
51.10000 4.931
51.12000 1.893
51.14000 -0.357
51.16000 1.544
51.18000 -2.537
51.20000 -0.790
51.22000 0.563
51.24000 1.623
51.26000 -1.902
51.28000 2.844
51.30000 8.864
51.32000 3.071
51.34000 0.649
51.36000 1.691
51.38000 0.636
51.40000 0.967
51.42000 0.594
51.44000 3.479
51.46000 2.527
51.48000 3.792
51.50000 2.347
51.52000 0.641
51.54000 1.957
51.56000 1.151
51.58000 1.786
51.60000 3.726
51.62000 2.330
51.64000 5.352
51.66000 1.998
51.68000 -0.477
51.70000 -0.194
51.72000 3.432
51.74000 3.598
51.76000 1.644
51.78000 -0.701
51.80000 1.943
51.82000 1.713
51.84000 1.826
51.86000 6.649
51.88000 0.220
51.90000 -2.368
51.92000 1.420
51.94000 4.807
51.96000 5.475
51.98000 -0.690
52.00000 1.426
52.02000 1.617
52.04000 4.013
52.06000 1.506
52.08000 2.754
52.10000 -0.458
52.12000 -1.688
52.14000 -2.548
52.16000 -1.134
52.18000 5.134
52.20000 7.801
52.22000 8.227
52.24000 6.887
52.26000 3.138
52.28000 0.862
52.30000 -0.242
52.32000 1.207
52.34000 2.888
52.36000 0.422
52.38000 1.679
52.40000 4.190
52.42000 6.862
52.44000 -0.897
52.46000 -0.929
52.48000 4.086
52.50000 0.381
52.52000 1.091
52.54000 1.994
52.56000 0.134
52.58000 -0.193
52.60000 1.750
52.62000 2.613
52.64000 4.935
52.66000 2.140
52.68000 2.040
52.70000 3.723
52.72000 4.396
52.74000 4.328
52.76000 1.701
52.78000 0.271
52.80000 -1.206
52.82000 2.889
52.84000 -0.170
52.86000 2.656
52.88000 5.318
52.90000 0.019
52.92000 6.541
52.94000 6.838
52.96000 3.093
52.98000 0.743
53.00000 -0.247
53.02000 1.703
53.04000 6.097
53.06000 3.609
53.08000 -1.032
53.10000 0.821
53.12000 1.400
53.14000 4.875
53.16000 6.735
53.18000 4.799
53.20000 0.321
53.22000 0.281
53.24000 -0.323
53.26000 -0.634
53.28000 2.556
53.30000 3.271
53.32000 2.320
53.34000 -0.606
53.36000 2.156
53.38000 4.435
53.40000 6.094
53.42000 3.787
53.44000 2.602
53.46000 0.841
53.48000 0.583
53.50000 3.189
53.52000 2.775
53.54000 4.590
53.56000 4.424
53.58000 2.811
53.60000 3.104
53.62000 5.489
53.64000 4.158
53.66000 2.176
53.68000 -0.256
53.70000 4.018
53.72000 8.894
53.74000 7.057
53.76000 6.323
53.78000 6.032
53.80000 6.258
53.82000 2.542
53.84000 -2.474
53.86000 3.299
53.88000 7.519
53.90000 5.511
53.92000 4.331
53.94000 1.417
53.96000 3.660
53.98000 1.737
54.00000 2.099
54.02000 2.360
54.04000 1.797
54.06000 1.175
54.08000 2.756
54.10000 1.753
54.12000 3.569
54.14000 3.022
54.16000 1.664
54.18000 2.769
54.20000 0.915
54.22000 2.003
54.24000 2.813
54.26000 2.360
54.28000 2.416
54.30000 1.211
54.32000 -0.936
54.34000 5.784
54.36000 3.058
54.38000 0.098
54.40000 3.039
54.42000 1.491
54.44000 2.910
54.46000 3.539
54.48000 0.295
54.50000 1.182
54.52000 3.374
54.54000 1.165
54.56000 3.220
54.58000 6.416
54.60000 3.780
54.62000 2.968
54.64000 4.858
54.66000 0.819
54.68000 -2.115
54.70000 1.295
54.72000 -0.159
54.74000 2.258
54.76000 1.302
54.78000 -1.127
54.80000 1.873
54.82000 2.963
54.84000 2.607
54.86000 3.297
54.88000 -0.522
54.90000 2.740
54.92000 3.457
54.94000 0.383
54.96000 -2.022
54.98000 -2.183
55.00000 -1.106
55.02000 1.268
55.04000 1.023
55.06000 2.124
55.08000 2.660
55.10000 3.071
55.12000 3.143
55.14000 6.140
55.16000 4.080
55.18000 4.468
55.20000 -0.084
55.22000 0.539
55.24000 1.323
55.26000 -0.279
55.28000 -0.089
55.30000 1.942
55.32000 0.110
55.34000 -2.503
55.36000 3.041
55.38000 2.075
55.40000 2.614
55.42000 2.619
55.44000 0.786
55.46000 1.322
55.48000 1.980
55.50000 1.266
55.52000 -0.346
55.54000 1.267
55.56000 0.903
55.58000 3.188
55.60000 3.447
55.62000 -1.636
55.64000 -2.495
55.66000 1.574
55.68000 2.296
55.70000 1.649
55.72000 -0.022
55.74000 -0.239
55.76000 2.118
55.78000 1.260
55.80000 4.462
55.82000 3.939
55.84000 3.334
55.86000 0.576
55.88000 3.075
55.90000 2.331
55.92000 1.570
55.94000 3.860
55.96000 3.019
55.98000 -2.000
56.00000 0.723
56.02000 1.638
56.04000 5.334
56.06000 2.723
56.08000 2.040
56.10000 0.360
56.12000 -2.493
56.14000 0.639
56.16000 4.725
56.18000 -1.527
56.20000 0.262
56.22000 1.545
56.24000 3.725
56.26000 1.431
56.28000 1.893
56.30000 0.059
56.32000 -0.991
56.34000 1.022
56.36000 0.093
56.38000 2.307
56.40000 0.365
56.42000 1.555
56.44000 -0.181
56.46000 1.098
56.48000 2.489
56.50000 0.301
56.52000 2.560
56.54000 0.540
56.56000 -0.006
56.58000 0.889
56.60000 -0.035
56.62000 -2.479
56.64000 1.127
56.66000 0.811
56.68000 3.705
56.70000 1.697
56.72000 1.651
56.74000 0.229
56.76000 3.427
56.78000 0.322
56.80000 0.389
56.82000 0.339
56.84000 -0.027
56.86000 -1.955
56.88000 0.269
56.90000 2.331
56.92000 5.900
56.94000 2.374
56.96000 4.659
56.98000 -2.462
57.00000 2.049
57.02000 3.879
57.04000 2.337
57.06000 0.146
57.08000 -0.647
57.10000 1.311
57.12000 0.829
57.14000 0.855
57.16000 0.750
57.18000 -2.119
57.20000 1.334
57.22000 2.680
57.24000 4.980
57.26000 3.037
57.28000 -1.001
57.30000 0.385
57.32000 1.384
57.34000 0.296
57.36000 -0.876
57.38000 0.169
57.40000 2.024
57.42000 6.760
57.44000 2.966
57.46000 4.419
57.48000 2.517
57.50000 2.730
57.52000 4.081
57.54000 1.692
57.56000 -1.430
57.58000 -1.860
57.60000 1.029
57.62000 3.976
57.64000 1.801
57.66000 3.280
57.68000 2.070
57.70000 0.040
57.72000 1.577
57.74000 5.384
57.76000 0.587
57.78000 1.625
57.80000 -1.928
57.82000 -1.133
57.84000 2.412
57.86000 4.012
57.88000 0.376
57.90000 2.642
57.92000 3.919
57.94000 4.225
57.96000 0.584
57.98000 -0.680
58.00000 0.809
58.02000 7.029
58.04000 7.511
58.06000 1.757
58.08000 1.427
58.10000 -2.389
58.12000 -2.076
58.14000 1.111
58.16000 1.730
58.18000 1.863
58.20000 3.269
58.22000 1.587
58.24000 1.405
58.26000 0.428
58.28000 -0.438
58.30000 5.991
58.32000 6.178
58.34000 2.704
58.36000 0.626
58.38000 -1.384
58.40000 3.486
58.42000 3.251
58.44000 5.279
58.46000 3.212
58.48000 0.742
58.50000 1.923
58.52000 1.485
58.54000 3.115
58.56000 2.719
58.58000 1.528
58.60000 5.546
58.62000 4.248
58.64000 0.771
58.66000 2.120
58.68000 1.444
58.70000 2.884
58.72000 2.509
58.74000 3.353
58.76000 2.884
58.78000 2.340
58.80000 2.725
58.82000 2.215
58.84000 -1.864
58.86000 2.669
58.88000 2.575
58.90000 4.011
58.92000 6.245
58.94000 4.733
58.96000 2.900
58.98000 1.206
59.00000 1.083
59.02000 0.087
59.04000 1.719
59.06000 6.135
59.08000 5.092
59.10000 1.309
59.12000 1.913
59.14000 -0.483
59.16000 -0.047
59.18000 1.127
59.20000 1.791
59.22000 0.559
59.24000 -1.204
59.26000 -0.719
59.28000 0.620
59.30000 3.542
59.32000 3.566
59.34000 6.005
59.36000 3.781
59.38000 2.760
59.40000 -1.912
59.42000 -2.347
59.44000 1.237
59.46000 1.833
59.48000 3.368
59.50000 4.719
59.52000 5.101
59.54000 2.517
59.56000 6.835
59.58000 3.938
59.60000 2.483
59.62000 -1.319
59.64000 -0.809
59.66000 2.712
59.68000 3.661
59.70000 2.707
59.72000 6.076
59.74000 1.686
59.76000 0.270
59.78000 1.602
59.80000 3.743
59.82000 4.085
59.84000 2.052
59.86000 0.400
59.88000 5.311
59.90000 5.107
59.92000 3.004
59.94000 -2.326
59.96000 0.386
59.98000 3.093
60.00000 6.588
60.02000 6.058
60.04000 7.826
60.06000 1.144
60.08000 2.660
60.10000 -0.454
60.12000 0.309
60.14000 3.573
60.16000 4.435
60.18000 3.241
60.20000 1.329
60.22000 0.555
60.24000 1.633
60.26000 0.434
60.28000 3.857
60.30000 3.117
60.32000 -0.057
60.34000 -0.925
60.36000 1.472
60.38000 3.991
60.40000 3.432
60.42000 2.723
60.44000 1.120
60.46000 2.173
60.48000 1.486
60.50000 1.332
60.52000 2.877
60.54000 2.564
60.56000 5.139
60.58000 7.839
60.60000 2.833
60.62000 2.228
60.64000 4.086
60.66000 2.849
60.68000 2.519
60.70000 1.510
60.72000 0.301
60.74000 0.532
60.76000 -1.571
60.78000 -0.498
60.80000 1.737
60.82000 3.708
60.84000 4.354
60.86000 4.117
60.88000 2.945
60.90000 -0.083
60.92000 -0.141
60.94000 2.557
60.96000 5.182
60.98000 1.854
61.00000 2.557
61.02000 1.223
61.04000 2.607
61.06000 7.172
61.08000 4.834
61.10000 1.652
61.12000 0.089
61.14000 -1.488
61.16000 -0.690
61.18000 4.099
61.20000 3.939
61.22000 4.049
61.24000 2.265
61.26000 3.911
61.28000 4.272
61.30000 2.845
61.32000 4.741
61.34000 9.616
61.36000 1.527
61.38000 4.519
61.40000 1.623
61.42000 1.133
61.44000 -2.258
61.46000 0.758
61.48000 2.526
61.50000 1.288
61.52000 0.523
61.54000 1.029
61.56000 1.577
61.58000 3.157
61.60000 3.323
61.62000 -0.370
61.64000 1.086
61.66000 3.324
61.68000 5.053
61.70000 4.712
61.72000 5.878
61.74000 6.499
61.76000 2.188
61.78000 0.878
61.80000 -0.278
61.82000 -1.733
61.84000 2.172
61.86000 2.219
61.88000 1.630
61.90000 1.986
61.92000 -0.436
61.94000 1.808
61.96000 -0.894
61.98000 0.407
62.00000 0.367
62.02000 1.720
62.04000 1.780
62.06000 2.053
62.08000 3.738
62.10000 5.165
62.12000 3.477
62.14000 2.511
62.16000 4.224
62.18000 3.835
62.20000 2.005
62.22000 1.558
62.24000 2.126
62.26000 2.588
62.28000 0.934
62.30000 0.577
62.32000 -0.536
62.34000 0.861
62.36000 0.374
62.38000 0.067
62.40000 -0.860
62.42000 -0.847
62.44000 1.387
62.46000 3.469
62.48000 2.654
62.50000 3.935
62.52000 5.033
62.54000 6.634
62.56000 5.378
62.58000 0.380
62.60000 1.458
62.62000 -1.330
62.64000 -1.118
62.66000 1.229
62.68000 -0.974
62.70000 3.924
62.72000 2.560
62.74000 2.004
62.76000 0.714
62.78000 0.218
62.80000 1.742
62.82000 3.310
62.84000 1.147
62.86000 1.891
62.88000 4.148
62.90000 2.675
62.92000 -0.754
62.94000 1.042
62.96000 3.538
62.98000 1.059
63.00000 0.170
63.02000 1.919
63.04000 -0.235
63.06000 -0.168
63.08000 1.402
63.10000 -2.265
63.12000 -1.361
63.14000 -0.202
63.16000 2.290
63.18000 1.978
63.20000 1.417
63.22000 -0.001
63.24000 -0.619
63.26000 -1.089
63.28000 -0.568
63.30000 -1.040
63.32000 1.380
63.34000 1.088
63.36000 1.269
63.38000 -0.188
63.40000 -0.189
63.42000 1.732
63.44000 -1.600
63.46000 -0.027
63.48000 1.330
63.50000 -0.083
63.52000 2.967
63.54000 6.064
63.56000 5.827
63.58000 4.683
63.60000 0.517
63.62000 -0.664
63.64000 0.432
63.66000 -1.193
63.68000 0.850
63.70000 0.333
63.72000 -1.536
63.74000 0.850
63.76000 3.001
63.78000 3.543
63.80000 1.051
63.82000 1.484
63.84000 1.384
63.86000 2.525
63.88000 -0.034
63.90000 -2.281
63.92000 0.815
63.94000 2.060
63.96000 0.139
63.98000 2.497
64.00000 2.937
64.02000 1.462
64.04000 0.806
64.06000 0.392
64.08000 0.497
64.10000 3.316
64.12000 4.785
64.14000 0.569
64.16000 -1.997
64.18000 -0.326
64.20000 4.409
64.22000 3.436
64.24000 2.052
64.26000 0.018
64.28000 1.464
64.30000 0.473
64.32000 0.512
64.34000 -0.034
64.36000 -0.502
64.38000 1.610
64.40000 -0.662
64.42000 -0.930
64.44000 0.865
64.46000 1.031
64.48000 -1.373
64.50000 -0.653
64.52000 -0.205
64.54000 -0.360
64.56000 -2.106
64.58000 -1.562
64.60000 0.723
64.62000 2.725
64.64000 -0.766
64.66000 0.236
64.68000 2.642
64.70000 2.497
64.72000 7.005
64.74000 3.710
64.76000 0.655
64.78000 -2.313
64.80000 -0.796
64.82000 -1.183
64.84000 -0.862
64.86000 -2.084
64.88000 -1.034
64.90000 1.903
64.92000 0.978
64.94000 -0.926
64.96000 1.082
64.98000 1.583
65.00000 0.496
65.02000 1.408
65.04000 0.169
65.06000 -1.275
65.08000 -1.962
65.10000 1.065
65.12000 4.674
65.14000 3.477
65.16000 1.754
65.18000 2.427
65.20000 1.505
65.22000 0.881
65.24000 1.917
65.26000 1.403
65.28000 3.451
65.30000 1.942
65.32000 -1.180
65.34000 -2.314
65.36000 -0.026
65.38000 2.775
65.40000 1.103
65.42000 -0.596
65.44000 -0.844
65.46000 2.300
65.48000 -2.171
65.50000 -1.708
65.52000 1.138
65.54000 0.059
65.56000 1.931
65.58000 1.079
65.60000 1.602
65.62000 2.230
65.64000 1.021
65.66000 0.192
65.68000 0.754
65.70000 -1.064
65.72000 -0.624
65.74000 -0.792
65.76000 1.185
65.78000 2.280
65.80000 1.601
65.82000 0.486
65.84000 -2.323
65.86000 -0.488
65.88000 0.235
65.90000 -1.505
65.92000 -0.009
65.94000 2.416
65.96000 1.304
65.98000 3.258
66.00000 1.682
66.02000 4.904
66.04000 4.907
66.06000 0.581
66.08000 0.861
66.10000 0.565
66.12000 0.368
66.14000 -0.072
66.16000 0.058
66.18000 -0.612
66.20000 0.403
66.22000 2.893
66.24000 4.880
66.26000 4.829
66.28000 2.948
66.30000 3.322
66.32000 4.732
66.34000 1.989
66.36000 2.529
66.38000 1.564
66.40000 0.908
66.42000 -2.314
66.44000 2.295
66.46000 -1.788
66.48000 -2.316
66.50000 0.276
66.52000 2.553
66.54000 1.459
66.56000 2.864
66.58000 1.538
66.60000 -0.546
66.62000 1.443
66.64000 0.684
66.66000 3.212
66.68000 4.043
66.70000 4.879
66.72000 4.468
66.74000 1.872
66.76000 0.098
66.78000 1.672
66.80000 3.466
66.82000 2.979
66.84000 2.392
66.86000 3.568
66.88000 5.987
66.90000 5.230
66.92000 1.680
66.94000 1.025
66.96000 2.953
66.98000 2.991
67.00000 5.040
67.02000 1.222
67.04000 -0.075
67.06000 -0.744
67.08000 2.940
67.10000 4.035
67.12000 0.047
67.14000 3.615
67.16000 4.700
67.18000 3.983
67.20000 4.603
67.22000 3.838
67.24000 4.963
67.26000 4.830
67.28000 6.210
67.30000 3.179
67.32000 4.686
67.34000 7.780
67.36000 7.937
67.38000 6.621
67.40000 8.469
67.42000 7.557
67.44000 8.837
67.46000 6.354
67.48000 9.806
67.50000 9.993
67.52000 8.459
67.54000 8.810
67.56000 11.291
67.58000 10.479
67.60000 12.073
67.62000 12.188
67.64000 15.306
67.66000 14.093
67.68000 12.753
67.70000 15.052
67.72000 12.208
67.74000 11.923
67.76000 15.717
67.78000 13.213
67.80000 12.521
67.82000 11.899
67.84000 16.662
67.86000 15.938
67.88000 18.933
67.90000 18.855
67.92000 20.280
67.94000 16.621
67.96000 19.219
67.98000 19.871
68.00000 14.909
68.02000 17.920
68.04000 20.470
68.06000 17.770
68.08000 19.237
68.10000 19.113
68.12000 19.141
68.14000 19.999
68.16000 20.357
68.18000 23.343
68.20000 19.154
68.22000 17.268
68.24000 15.644
68.26000 15.931
68.28000 18.804
68.30000 18.767
68.32000 20.906
68.34000 20.966
68.36000 17.518
68.38000 16.350
68.40000 13.470
68.42000 11.899
68.44000 14.278
68.46000 16.163
68.48000 16.730
68.50000 18.614
68.52000 14.767
68.54000 12.398
68.56000 12.533
68.58000 10.800
68.60000 8.760
68.62000 8.615
68.64000 8.679
68.66000 11.164
68.68000 11.102
68.70000 6.291
68.72000 3.999
68.74000 7.493
68.76000 8.626
68.78000 6.851
68.80000 6.799
68.82000 5.655
68.84000 5.594
68.86000 6.732
68.88000 2.690
68.90000 2.930
68.92000 3.128
68.94000 6.405
68.96000 3.743
68.98000 2.361
69.00000 5.180
69.02000 3.514
69.04000 1.203
69.06000 3.438
69.08000 4.267
69.10000 2.012
69.12000 1.031
69.14000 2.981
69.16000 3.369
69.18000 2.706
69.20000 -0.990
69.22000 -1.791
69.24000 -0.702
69.26000 0.457
69.28000 -0.028
69.30000 0.597
69.32000 -1.944
69.34000 1.730
69.36000 2.242
69.38000 1.030
69.40000 2.299
69.42000 1.177
69.44000 1.549
69.46000 -0.170
69.48000 -0.663
69.50000 1.215
69.52000 2.234
69.54000 3.975
69.56000 1.791
69.58000 3.485
69.60000 4.746
69.62000 1.108
69.64000 0.657
69.66000 2.391
69.68000 -0.989
69.70000 0.671
69.72000 -2.228
69.74000 0.715
69.76000 -0.313
69.78000 5.040
69.80000 5.252
69.82000 1.558
69.84000 3.573
69.86000 0.040
69.88000 -1.152
69.90000 -0.925
69.92000 -0.602
69.94000 2.784
69.96000 2.849
69.98000 2.870
70.00000 0.981
70.02000 -0.434
70.04000 0.073
70.06000 1.779
70.08000 -2.207
70.10000 -2.205
70.12000 1.258
70.14000 2.378
70.16000 -1.000
70.18000 0.257
70.20000 1.850
70.22000 -0.056
70.24000 -2.196
70.26000 -1.952
70.28000 -1.481
70.30000 2.153
70.32000 1.627
70.34000 3.746
70.36000 6.079
70.38000 1.366
70.40000 -0.401
70.42000 -0.259
70.44000 1.770
70.46000 -0.420
70.48000 -1.484
70.50000 1.632
70.52000 1.475
70.54000 -0.201
70.56000 0.928
70.58000 1.952
70.60000 2.882
70.62000 3.915
70.64000 2.743
70.66000 2.545
70.68000 0.049
70.70000 0.970
70.72000 4.978
70.74000 5.321
70.76000 3.357
70.78000 1.593
70.80000 4.388
70.82000 2.622
70.84000 4.148
70.86000 3.523
70.88000 2.690
70.90000 1.903
70.92000 3.536
70.94000 2.335
70.96000 3.617
70.98000 1.344
71.00000 2.703
71.02000 6.570
71.04000 6.435
71.06000 8.006
71.08000 3.102
71.10000 1.149
71.12000 0.875
71.14000 -0.102
71.16000 -2.132
71.18000 2.764
71.20000 2.393
71.22000 1.388
71.24000 2.073
71.26000 2.771
71.28000 4.795
71.30000 5.343
71.32000 2.214
71.34000 -0.049
71.36000 -1.531
71.38000 3.008
71.40000 0.531
71.42000 1.380
71.44000 3.262
71.46000 2.099
71.48000 2.442
71.50000 6.365
71.52000 4.127
71.54000 1.014
71.56000 -0.046
71.58000 0.650
71.60000 -0.738
71.62000 2.786
71.64000 2.061
71.66000 -0.521
71.68000 -0.267
71.70000 0.963
71.72000 -0.051
71.74000 1.152
71.76000 -2.059
71.78000 0.964
71.80000 0.831
71.82000 -1.004
71.84000 -0.130
71.86000 -0.492
71.88000 -2.151
71.90000 4.568
71.92000 0.219
71.94000 -1.225
71.96000 1.864
71.98000 1.532
72.00000 3.133
72.02000 4.225
72.04000 1.167
72.06000 -1.235
72.08000 -0.606
72.10000 -1.522
72.12000 0.888
72.14000 1.003
72.16000 3.277
72.18000 2.975
72.20000 4.040
72.22000 2.489
72.24000 0.457
72.26000 0.565
72.28000 -1.522
72.30000 0.414
72.32000 -0.151
72.34000 2.050
72.36000 3.022
72.38000 2.230
72.40000 -1.683
72.42000 1.216
72.44000 1.431
72.46000 -1.818
72.48000 1.482
72.50000 2.473
72.52000 4.452
72.54000 5.584
72.56000 1.680
72.58000 -1.978
72.60000 -1.247
72.62000 -1.064
72.64000 0.241
72.66000 -0.759
72.68000 0.038
72.70000 1.590
72.72000 5.141
72.74000 2.502
72.76000 -0.577
72.78000 0.013
72.80000 1.466
72.82000 1.559
72.84000 0.304
72.86000 -2.114
72.88000 -0.149
72.90000 -1.004
72.92000 -0.279
72.94000 1.395
72.96000 -0.017
72.98000 1.642
73.00000 -0.656
73.02000 1.204
73.04000 0.053
73.06000 1.302
73.08000 4.519
73.10000 4.855
73.12000 2.604
73.14000 -1.351
73.16000 0.151
73.18000 2.752
73.20000 5.159
73.22000 3.987
73.24000 2.398
73.26000 0.350
73.28000 -0.933
73.30000 -1.722
73.32000 1.498
73.34000 1.526
73.36000 -2.072
73.38000 1.318
73.40000 0.553
73.42000 1.469
73.44000 5.839
73.46000 3.465
73.48000 5.068
73.50000 4.752
73.52000 3.072
73.54000 2.641
73.56000 5.545
73.58000 1.359
73.60000 0.987
73.62000 -0.549
73.64000 -0.834
73.66000 4.100
73.68000 1.676
73.70000 -1.670
73.72000 -1.610
73.74000 1.481
73.76000 3.317
73.78000 2.259
73.80000 2.390
73.82000 4.403
73.84000 3.391
73.86000 3.778
73.88000 7.911
73.90000 2.909
73.92000 2.105
73.94000 3.874
73.96000 2.560
73.98000 1.210
74.00000 4.186
74.02000 4.075
74.04000 4.812
74.06000 7.429
74.08000 6.144
74.10000 5.015
74.12000 1.291
74.14000 -2.072
74.16000 1.159
74.18000 1.889
74.20000 2.913
74.22000 0.776
74.24000 2.479
74.26000 0.415
74.28000 -0.759
74.30000 -0.478
74.32000 3.520
74.34000 4.245
74.36000 3.396
74.38000 2.557
74.40000 4.653
74.42000 6.822
74.44000 2.554
74.46000 7.276
74.48000 8.250
74.50000 6.067
74.52000 4.147
74.54000 3.714
74.56000 5.047
74.58000 3.562
74.60000 0.517
74.62000 0.338
74.64000 3.572
74.66000 5.104
74.68000 5.761
74.70000 2.954
74.72000 5.900
74.74000 6.857
74.76000 7.636
74.78000 7.298
74.80000 3.756
74.82000 0.998
74.84000 3.659
74.86000 4.827
74.88000 4.844
74.90000 2.302
74.92000 3.378
74.94000 3.342
74.96000 -2.045
74.98000 -1.754
75.00000 3.364
75.02000 4.588
75.04000 4.996
75.06000 5.903
75.08000 6.794
75.10000 6.405
75.12000 4.038
75.14000 5.557
75.16000 3.522
75.18000 4.276
75.20000 3.785
75.22000 2.408
75.24000 4.832
75.26000 0.703
75.28000 -0.203
75.30000 4.553
75.32000 3.595
75.34000 2.453
75.36000 4.562
75.38000 5.737
75.40000 1.005
75.42000 -1.100
75.44000 1.393
75.46000 2.798
75.48000 4.316
75.50000 4.497
75.52000 6.976
75.54000 3.299
75.56000 1.202
75.58000 4.636
75.60000 5.111
75.62000 1.985
75.64000 1.511
75.66000 2.641
75.68000 0.236
75.70000 2.076
75.72000 3.613
75.74000 2.583
75.76000 2.567
75.78000 0.710
75.80000 -1.815
75.82000 4.272
75.84000 0.803
75.86000 -0.324
75.88000 2.751
75.90000 1.381
75.92000 -1.123
75.94000 2.841
75.96000 2.436
75.98000 2.332
76.00000 0.517
76.02000 3.589
76.04000 3.552
76.06000 6.994
76.08000 6.728
76.10000 2.516
76.12000 -2.095
76.14000 1.397
76.16000 1.832
76.18000 2.793
76.20000 1.693
76.22000 -0.796
76.24000 0.671
76.26000 -2.102
76.28000 2.245
76.30000 2.715
76.32000 4.798
76.34000 1.648
76.36000 1.128
76.38000 0.537
76.40000 3.129
76.42000 3.434
76.44000 5.086
76.46000 8.441
76.48000 6.826
76.50000 2.678
76.52000 -0.263
76.54000 -0.810
76.56000 -0.559
76.58000 1.503
76.60000 3.094
76.62000 5.154
76.64000 5.559
76.66000 0.458
76.68000 1.567
76.70000 -0.035
76.72000 4.601
76.74000 1.265
76.76000 -2.008
76.78000 1.266
76.80000 4.290
76.82000 5.828
76.84000 6.874
76.86000 4.782
76.88000 6.311
76.90000 8.282
76.92000 3.616
76.94000 4.712
76.96000 3.312
76.98000 0.675
77.00000 0.452
77.02000 5.228
77.04000 5.110
77.06000 0.820
77.08000 4.501
77.10000 1.484
77.12000 4.392
77.14000 3.885
77.16000 3.525
77.18000 3.143
77.20000 2.432
77.22000 1.839
77.24000 -0.194
77.26000 -2.110
77.28000 -0.283
77.30000 1.523
77.32000 2.206
77.34000 2.071
77.36000 0.096
77.38000 2.843
77.40000 1.609
77.42000 3.029
77.44000 3.400
77.46000 4.024
77.48000 -1.371
77.50000 2.392
77.52000 4.356
77.54000 5.138
77.56000 4.936
77.58000 4.353
77.60000 6.977
77.62000 6.731
77.64000 3.023
77.66000 0.019
77.68000 -1.305
77.70000 -2.108
77.72000 1.093
77.74000 1.342
77.76000 1.739
77.78000 3.242
77.80000 6.404
77.82000 3.787
77.84000 2.461
77.86000 5.258
77.88000 6.707
77.90000 2.802
77.92000 -0.103
77.94000 1.219
77.96000 2.865
77.98000 1.787
78.00000 -1.335
78.02000 -1.636
78.04000 -0.734
78.06000 4.073
78.08000 2.276
78.10000 3.656
78.12000 1.347
78.14000 1.749
78.16000 0.526
78.18000 4.559
78.20000 0.430
78.22000 -1.274
78.24000 1.475
78.26000 -0.355
78.28000 1.229
78.30000 2.769
78.32000 6.406
78.34000 5.386
78.36000 2.093
78.38000 -2.038
78.40000 -1.525
78.42000 0.746
78.44000 -0.073
78.46000 -0.095
78.48000 1.163
78.50000 2.624
78.52000 4.539
78.54000 3.713
78.56000 0.288
78.58000 -0.898
78.60000 -1.563
78.62000 -0.872
78.64000 -1.062
78.66000 -1.334
78.68000 -2.183
78.70000 0.837
78.72000 2.811
78.74000 1.387
78.76000 -0.761
78.78000 1.702
78.80000 2.420
78.82000 2.011
78.84000 1.034
78.86000 2.796
78.88000 2.696
78.90000 6.551
78.92000 2.933
78.94000 1.320
78.96000 0.766
78.98000 1.668
79.00000 1.113
79.02000 -0.206
79.04000 4.553
79.06000 3.710
79.08000 -0.054
79.10000 4.318
79.12000 2.925
79.14000 1.864
79.16000 1.813
79.18000 -0.879
79.20000 0.729
79.22000 0.435
79.24000 0.727
79.26000 2.107
79.28000 1.902
79.30000 -0.311
79.32000 0.135
79.34000 1.746
79.36000 3.324
79.38000 3.433
79.40000 0.967
79.42000 1.079
79.44000 -0.117
79.46000 2.028
79.48000 -0.899
79.50000 0.703
79.52000 1.905
79.54000 2.760
79.56000 2.087
79.58000 1.957
79.60000 1.051
79.62000 4.045
79.64000 3.960
79.66000 3.959
79.68000 4.654
79.70000 0.909
79.72000 -2.167
79.74000 -2.203
79.76000 -0.756
79.78000 0.673
79.80000 2.202
79.82000 0.542
79.84000 -2.022
79.86000 0.329
79.88000 -1.616
79.90000 2.472
79.92000 4.279
79.94000 1.464
79.96000 -1.152
79.98000 5.347
80.00000 1.587
80.02000 -0.140
80.04000 2.195
80.06000 4.448
80.08000 5.838
80.10000 1.608
80.12000 0.084
80.14000 1.364
80.16000 4.133
80.18000 2.326
80.20000 2.765
80.22000 3.849
80.24000 4.957
80.26000 1.044
80.28000 -1.391
80.30000 -1.689
80.32000 -2.271
80.34000 -0.052
80.36000 1.254
80.38000 3.201
80.40000 3.152
80.42000 -1.133
80.44000 2.158
80.46000 -1.145
80.48000 0.762
80.50000 5.014
80.52000 3.218
80.54000 4.676
80.56000 4.676
80.58000 1.705
80.60000 3.739
80.62000 0.919
80.64000 -0.694
80.66000 3.662
80.68000 5.069
80.70000 4.413
80.72000 5.173
80.74000 -0.015
80.76000 -0.492
80.78000 4.567
80.80000 3.745
80.82000 1.285
80.84000 6.291
80.86000 7.052
80.88000 4.355
80.90000 6.715
80.92000 10.449
80.94000 4.979
80.96000 2.918
80.98000 0.474
81.00000 3.564
81.02000 7.253
81.04000 5.989
81.06000 5.951
81.08000 3.374
81.10000 2.480
81.12000 5.016
81.14000 6.550
81.16000 6.977
81.18000 8.189
81.20000 8.918
81.22000 10.811
81.24000 10.261
81.26000 7.117
81.28000 10.616
81.30000 15.314
81.32000 13.600
81.34000 11.943
81.36000 9.399
81.38000 11.723
81.40000 11.706
81.42000 10.202
81.44000 9.207
81.46000 12.062
81.48000 14.885
81.50000 15.404
81.52000 17.208
81.54000 17.904
81.56000 19.219
81.58000 19.333
81.60000 16.016
81.62000 13.074
81.64000 15.571
81.66000 19.985
81.68000 22.368
81.70000 25.245
81.72000 18.707
81.74000 18.398
81.76000 18.853
81.78000 19.137
81.80000 17.171
81.82000 17.052
81.84000 22.452
81.86000 25.764
81.88000 28.444
81.90000 28.469
81.92000 24.064
81.94000 25.961
81.96000 29.994
81.98000 28.223
82.00000 26.760
82.02000 24.711
82.04000 26.030
82.06000 31.178
82.08000 32.052
82.10000 28.541
82.12000 27.178
82.14000 24.184
82.16000 23.843
82.18000 27.609
82.20000 24.384
82.22000 25.693
82.24000 23.285
82.26000 26.571
82.28000 29.993
82.30000 29.932
82.32000 32.712
82.34000 32.710
82.36000 35.252
82.38000 28.390
82.40000 26.554
82.42000 26.385
82.44000 25.192
82.46000 24.057
82.48000 25.570
82.50000 23.871
82.52000 20.342
82.54000 20.455
82.56000 19.307
82.58000 21.916
82.60000 22.119
82.62000 21.524
82.64000 22.641
82.66000 18.032
82.68000 14.909
82.70000 14.189
82.72000 17.690
82.74000 20.085
82.76000 19.820
82.78000 19.303
82.80000 19.207
82.82000 12.662
82.84000 15.907
82.86000 13.159
82.88000 12.616
82.90000 14.388
82.92000 10.504
82.94000 12.700
82.96000 12.436
82.98000 15.958
83.00000 14.422
83.02000 14.200
83.04000 10.513
83.06000 10.544
83.08000 10.886
83.10000 13.587
83.12000 12.639
83.14000 8.939
83.16000 10.630
83.18000 9.021
83.20000 5.125
83.22000 5.588
83.24000 9.458
83.26000 11.116
83.28000 8.030
83.30000 7.860
83.32000 3.622
83.34000 2.736
83.36000 1.860
83.38000 2.155
83.40000 4.198
83.42000 7.220
83.44000 10.174
83.46000 9.930
83.48000 5.779
83.50000 5.580
83.52000 3.566
83.54000 5.139
83.56000 0.043
83.58000 -2.247
83.60000 2.214
83.62000 1.111
83.64000 -1.612
83.66000 -0.381
83.68000 1.105
83.70000 1.281
83.72000 2.898
83.74000 4.752
83.76000 3.872
83.78000 6.351
83.80000 8.039
83.82000 3.342
83.84000 -2.211
83.86000 0.374
83.88000 2.328
83.90000 1.134
83.92000 -1.032
83.94000 1.399
83.96000 3.875
83.98000 4.534
84.00000 4.644
84.02000 3.077
84.04000 4.045
84.06000 1.461
84.08000 0.400
84.10000 -0.934
84.12000 2.571
84.14000 5.380
84.16000 5.115
84.18000 2.494
84.20000 3.790
84.22000 2.910
84.24000 0.738
84.26000 0.281
84.28000 0.041
84.30000 1.835
84.32000 3.544
84.34000 0.369
84.36000 2.934
84.38000 5.364
84.40000 1.742
84.42000 2.284
84.44000 3.398
84.46000 2.675
84.48000 -2.211
84.50000 -0.063
84.52000 1.547
84.54000 4.935
84.56000 3.463
84.58000 4.524
84.60000 6.027
84.62000 5.721
84.64000 4.907
84.66000 3.354
84.68000 2.211
84.70000 1.492
84.72000 3.817
84.74000 3.735
84.76000 1.565
84.78000 0.885
84.80000 0.949
84.82000 0.623
84.84000 2.871
84.86000 1.843
84.88000 2.794
84.90000 1.853
84.92000 0.355
84.94000 2.976
84.96000 0.333
84.98000 2.622
85.00000 1.031
85.02000 -0.688
85.04000 -1.216
85.06000 -0.718
85.08000 0.784
85.10000 7.059
85.12000 2.713
85.14000 -1.895
85.16000 0.101
85.18000 -0.597
85.20000 4.029
85.22000 1.607
85.24000 -2.244
85.26000 -0.329
85.28000 0.780
85.30000 4.715
85.32000 5.071
85.34000 4.033
85.36000 1.424
85.38000 0.120
85.40000 3.348
85.42000 4.302
85.44000 5.555
85.46000 4.273
85.48000 2.355
85.50000 4.528
85.52000 8.758
85.54000 11.623
85.56000 9.076
85.58000 3.968
85.60000 5.662
85.62000 5.079
85.64000 4.469
85.66000 9.056
85.68000 10.416
85.70000 10.600
85.72000 11.223
85.74000 9.811
85.76000 7.437
85.78000 5.699
85.80000 8.651
85.82000 6.029
85.84000 7.562
85.86000 11.645
85.88000 12.271
85.90000 12.954
85.92000 12.521
85.94000 14.960
85.96000 14.709
85.98000 14.222
86.00000 14.627
86.02000 18.133
86.04000 14.685
86.06000 13.282
86.08000 13.713
86.10000 16.195
86.12000 19.188
86.14000 15.236
86.16000 18.327
86.18000 19.433
86.20000 15.614
86.22000 17.969
86.24000 19.853
86.26000 18.808
86.28000 19.081
86.30000 16.140
86.32000 16.078
86.34000 16.266
86.36000 18.940
86.38000 23.493
86.40000 19.738
86.42000 18.194
86.44000 21.956
86.46000 15.473
86.48000 20.158
86.50000 22.712
86.52000 18.581
86.54000 17.794
86.56000 18.980
86.58000 17.033
86.60000 14.546
86.62000 11.546
86.64000 13.398
86.66000 14.274
86.68000 11.531
86.70000 11.656
86.72000 13.714
86.74000 13.328
86.76000 14.444
86.78000 16.847
86.80000 11.656
86.82000 9.399
86.84000 15.716
86.86000 15.514
86.88000 13.975
86.90000 11.395
86.92000 11.606
86.94000 12.577
86.96000 8.671
86.98000 6.169
87.00000 11.141
87.02000 10.075
87.04000 7.414
87.06000 7.631
87.08000 7.568
87.10000 4.994
87.12000 6.009
87.14000 5.200
87.16000 4.282
87.18000 5.554
87.20000 5.250
87.22000 3.121
87.24000 3.584
87.26000 4.952
87.28000 5.179
87.30000 3.633
87.32000 0.880
87.34000 2.593
87.36000 3.285
87.38000 3.832
87.40000 7.708
87.42000 11.208
87.44000 1.858
87.46000 1.636
87.48000 2.401
87.50000 2.452
87.52000 3.477
87.54000 -0.485
87.56000 0.027
87.58000 0.657
87.60000 0.465
87.62000 -2.105
87.64000 -0.563
87.66000 -0.936
87.68000 -0.652
87.70000 0.819
87.72000 1.828
87.74000 2.518
87.76000 -1.036
87.78000 0.793
87.80000 2.313
87.82000 1.075
87.84000 0.737
87.86000 1.185
87.88000 1.786
87.90000 2.335
87.92000 1.578
87.94000 -0.021
87.96000 3.106
87.98000 3.042
88.00000 2.779
88.02000 1.503
88.04000 -2.046
88.06000 -1.103
88.08000 -1.722
88.10000 0.027
88.12000 2.446
88.14000 6.788
88.16000 3.583
88.18000 -0.834
88.20000 5.446
88.22000 4.299
88.24000 1.689
88.26000 1.250
88.28000 2.050
88.30000 -0.191
88.32000 1.728
88.34000 4.471
88.36000 3.122
88.38000 2.169
88.40000 3.209
88.42000 2.260
88.44000 2.802
88.46000 4.493
88.48000 1.190
88.50000 0.453
88.52000 1.054
88.54000 -0.763
88.56000 -0.059
88.58000 3.330
88.60000 4.779
88.62000 3.488
88.64000 -0.380
88.66000 2.596
88.68000 4.873
88.70000 3.076
88.72000 3.550
88.74000 4.953
88.76000 1.992
88.78000 2.312
88.80000 3.173
88.82000 -0.093
88.84000 -1.973
88.86000 -1.971
88.88000 1.518
88.90000 4.370
88.92000 1.466
88.94000 1.219
88.96000 -1.220
88.98000 0.700
89.00000 2.642
89.02000 3.934
89.04000 3.893
89.06000 4.097
89.08000 -1.360
89.10000 -1.965
89.12000 0.167
89.14000 3.513
89.16000 1.855
89.18000 0.377
89.20000 5.990
89.22000 3.963
89.24000 0.799
89.26000 0.031
89.28000 0.953
89.30000 0.256
89.32000 2.815
89.34000 3.975
89.36000 4.004
89.38000 0.822
89.40000 -0.872
89.42000 3.943
89.44000 2.474
89.46000 0.474
89.48000 1.797
89.50000 5.045
89.52000 6.029
89.54000 4.212
89.56000 1.962
89.58000 4.301
89.60000 3.789
89.62000 2.560
89.64000 3.478
89.66000 1.073
89.68000 0.224
89.70000 -1.985
89.72000 -1.514
89.74000 -0.007
89.76000 -1.460
89.78000 0.562
89.80000 1.187
89.82000 1.021
89.84000 -0.692
89.86000 1.060
89.88000 0.795
89.90000 4.586
89.92000 5.467
89.94000 4.062
89.96000 3.277
89.98000 2.940
90.00000 2.788
90.02000 2.835
90.04000 1.153
90.06000 0.293
90.08000 5.537
90.10000 5.634
90.12000 4.231
90.14000 2.569
90.16000 0.098
90.18000 7.165
90.20000 3.010
90.22000 -1.472
90.24000 1.050
90.26000 6.215
90.28000 3.100
90.30000 2.357
90.32000 5.141
90.34000 2.995
90.36000 2.494
90.38000 3.626
90.40000 3.549
90.42000 1.615
90.44000 1.367
90.46000 1.902
90.48000 1.955
90.50000 0.583
90.52000 0.854
90.54000 1.172
90.56000 -0.158
90.58000 -1.879
90.60000 -0.065
90.62000 -1.963
90.64000 1.730
90.66000 9.074
90.68000 9.599
90.70000 2.367
90.72000 0.145
90.74000 -0.320
90.76000 2.031
90.78000 1.861
90.80000 4.989
90.82000 6.500
90.84000 1.718
90.86000 2.678
90.88000 6.220
90.90000 3.234
90.92000 5.849
90.94000 3.073
90.96000 1.629
90.98000 1.431
91.00000 4.523
91.02000 0.516
91.04000 0.393
91.06000 0.550
91.08000 -0.680
91.10000 3.484
91.12000 3.185
91.14000 1.107
91.16000 3.644
91.18000 5.791
91.20000 5.298
91.22000 6.012
91.24000 2.589
91.26000 1.452
91.28000 2.034
91.30000 3.653
91.32000 2.653
91.34000 0.483
91.36000 1.544
91.38000 -0.034
91.40000 0.098
91.42000 1.984
91.44000 2.918
91.46000 1.544
91.48000 4.438
91.50000 0.677
91.52000 -0.622
91.54000 0.902
91.56000 2.610
91.58000 1.856
91.60000 -1.012
91.62000 -1.287
91.64000 -1.973
91.66000 -1.089
91.68000 0.266
91.70000 2.460
91.72000 3.462
91.74000 2.442
91.76000 5.582
91.78000 6.506
91.80000 1.914
91.82000 -0.886
91.84000 -0.520
91.86000 4.152
91.88000 3.526
91.90000 1.386
91.92000 1.869
91.94000 2.133
91.96000 1.292
91.98000 3.432
92.00000 3.721
92.02000 -1.166
92.04000 1.454
92.06000 1.394
92.08000 2.038
92.10000 6.112
92.12000 4.617
92.14000 6.692
92.16000 -0.062
92.18000 2.141
92.20000 2.129
92.22000 3.113
92.24000 7.346
92.26000 5.241
92.28000 1.794
92.30000 4.172
92.32000 4.807
92.34000 5.508
92.36000 5.667
92.38000 2.171
92.40000 3.063
92.42000 2.013
92.44000 -0.348
92.46000 2.774
92.48000 6.211
92.50000 8.328
92.52000 3.040
92.54000 5.795
92.56000 5.344
92.58000 1.989
92.60000 -1.964
92.62000 -1.336
92.64000 2.554
92.66000 5.395
92.68000 3.015
92.70000 0.999
92.72000 5.095
92.74000 5.748
92.76000 2.676
92.78000 2.051
92.80000 2.090
92.82000 4.683
92.84000 6.869
92.86000 7.537
92.88000 3.907
92.90000 3.107
92.92000 2.515
92.94000 5.772
92.96000 3.641
92.98000 0.937
93.00000 3.716
93.02000 6.619
93.04000 5.447
93.06000 6.036
93.08000 3.813
93.10000 7.526
93.12000 3.273
93.14000 2.122
93.16000 0.173
93.18000 3.884
93.20000 3.562
93.22000 6.540
93.24000 7.133
93.26000 9.604
93.28000 6.534
93.30000 3.799
93.32000 -1.974
93.34000 1.656
93.36000 1.785
93.38000 0.574
93.40000 6.660
93.42000 6.081
93.44000 6.816
93.46000 1.705
93.48000 1.160
93.50000 6.925
93.52000 6.633
93.54000 4.054
93.56000 3.778
93.58000 2.139
93.60000 2.305
93.62000 2.784
93.64000 4.816
93.66000 4.941
93.68000 1.690
93.70000 3.633
93.72000 5.960
93.74000 4.911
93.76000 3.738
93.78000 3.661
93.80000 -1.778
93.82000 -0.897
93.84000 -0.109
93.86000 1.332
93.88000 4.645
93.90000 4.987
93.92000 5.289
93.94000 4.227
93.96000 5.550
93.98000 5.541
94.00000 4.285
94.02000 2.462
94.04000 3.685
94.06000 3.793
94.08000 1.971
94.10000 4.339
94.12000 3.028
94.14000 -0.855
94.16000 1.902
94.18000 5.229
94.20000 7.173
94.22000 7.138
94.24000 2.016
94.26000 1.852
94.28000 2.560
94.30000 1.341
94.32000 2.352
94.34000 4.551
94.36000 -1.283
94.38000 1.696
94.40000 4.967
94.42000 0.599
94.44000 -2.017
94.46000 -0.081
94.48000 1.354
94.50000 -1.145
94.52000 -0.223
94.54000 4.680
94.56000 1.922
94.58000 3.866
94.60000 2.050
94.62000 1.842
94.64000 7.119
94.66000 4.623
94.68000 3.007
94.70000 2.364
94.72000 2.425
94.74000 3.250
94.76000 2.817
94.78000 2.941
94.80000 3.894
94.82000 4.560
94.84000 9.600
94.86000 7.257
94.88000 4.704
94.90000 6.667
94.92000 3.769
94.94000 5.333
94.96000 7.395
94.98000 5.997
95.00000 3.527
95.02000 0.226
95.04000 3.560
95.06000 1.870
95.08000 -0.801
95.10000 1.937
95.12000 2.389
95.14000 5.626
95.16000 6.398
95.18000 3.964
95.20000 6.071
95.22000 3.855
95.24000 4.921
95.26000 3.997
95.28000 4.714
95.30000 8.829
95.32000 7.708
95.34000 3.136
95.36000 4.319
95.38000 4.028
95.40000 5.402
95.42000 4.675
95.44000 4.839
95.46000 1.611
95.48000 2.519
95.50000 8.929
95.52000 5.754
95.54000 2.862
95.56000 3.024
95.58000 4.118
95.60000 6.059
95.62000 7.503
95.64000 4.910
95.66000 3.291
95.68000 2.486
95.70000 0.266
95.72000 1.520
95.74000 4.619
95.76000 1.219
95.78000 5.253
95.80000 8.016
95.82000 7.344
95.84000 3.422
95.86000 6.541
95.88000 7.575
95.90000 11.797
95.92000 10.174
95.94000 8.376
95.96000 6.184
95.98000 -1.984
96.00000 -1.838
96.02000 0.251
96.04000 5.696
96.06000 1.660
96.08000 4.943
96.10000 4.142
96.12000 5.975
96.14000 5.565
96.16000 3.636
96.18000 6.485
96.20000 4.491
96.22000 2.805
96.24000 3.027
96.26000 2.714
96.28000 7.525
96.30000 6.825
96.32000 5.143
96.34000 4.818
96.36000 1.218
96.38000 1.646
96.40000 -0.569
96.42000 0.350
96.44000 0.221
96.46000 4.921
96.48000 5.152
96.50000 -0.911
96.52000 0.199
96.54000 2.719
96.56000 9.808
96.58000 7.114
96.60000 9.383
96.62000 4.014
96.64000 0.124
96.66000 2.619
96.68000 6.011
96.70000 6.270
96.72000 11.281
96.74000 11.897
96.76000 8.241
96.78000 5.013
96.80000 1.754
96.82000 0.681
96.84000 3.414
96.86000 9.250
96.88000 5.552
96.90000 -2.020
96.92000 -1.565
96.94000 2.986
96.96000 7.571
96.98000 4.935
97.00000 5.458
97.02000 5.987
97.04000 6.832
97.06000 6.441
97.08000 3.514
97.10000 1.447
97.12000 0.479
97.14000 0.317
97.16000 -0.113
97.18000 2.000
97.20000 4.539
97.22000 4.185
97.24000 4.085
97.26000 3.664
97.28000 1.128
97.30000 -1.129
97.32000 -0.059
97.34000 2.360
97.36000 0.315
97.38000 6.089
97.40000 7.489
97.42000 1.871
97.44000 -0.647
97.46000 -2.006
97.48000 0.528
97.50000 1.335
97.52000 1.834
97.54000 6.377
97.56000 8.715
97.58000 2.407
97.60000 3.072
97.62000 13.447
97.64000 6.593
97.66000 2.930
97.68000 5.586
97.70000 4.924
97.72000 4.950
97.74000 2.815
97.76000 3.977
97.78000 7.712
97.80000 7.807
97.82000 4.067
97.84000 7.659
97.86000 5.869
97.88000 2.072
97.90000 0.885
97.92000 7.240
97.94000 8.163
97.96000 1.718
97.98000 5.781
98.00000 7.719
98.02000 6.955
98.04000 10.236
98.06000 11.642
98.08000 10.676
98.10000 10.614
98.12000 9.681
98.14000 7.108
98.16000 6.814
98.18000 9.976
98.20000 2.072
98.22000 3.519
98.24000 5.387
98.26000 1.371
98.28000 3.071
98.30000 5.917
98.32000 6.391
98.34000 -1.954
98.36000 0.304
98.38000 4.246
98.40000 5.329
98.42000 4.309
98.44000 6.532
98.46000 10.825
98.48000 3.732
98.50000 3.911
98.52000 9.887
98.54000 3.072
98.56000 4.698
98.58000 3.148
98.60000 6.269
98.62000 8.015
98.64000 3.181
98.66000 3.345
98.68000 1.619
98.70000 5.460
98.72000 5.738
98.74000 13.149
98.76000 11.933
98.78000 3.559
98.80000 7.291
98.82000 4.317
98.84000 4.722
98.86000 7.893
98.88000 10.087
98.90000 8.091
98.92000 7.889
98.94000 6.577
98.96000 0.936
98.98000 -1.839
99.00000 4.338
99.02000 -1.942
99.04000 2.205
99.06000 4.556
99.08000 8.700
99.10000 5.579
99.12000 5.111
99.14000 1.924
99.16000 7.181
99.18000 4.121
99.20000 7.232
99.22000 9.925
99.24000 10.784
99.26000 3.902
99.28000 8.192
99.30000 6.235
99.32000 10.595
99.34000 0.587
99.36000 -0.069
99.38000 2.677
99.40000 5.754
99.42000 2.906
99.44000 8.119
99.46000 8.640
99.48000 3.704
99.50000 3.406
99.52000 5.466
99.54000 1.608
99.56000 4.857
99.58000 15.292
99.60000 12.337
99.62000 9.119
99.64000 7.671
99.66000 6.987
99.68000 8.928
99.70000 7.346
99.72000 9.791
99.74000 13.543
99.76000 8.612
99.78000 14.975
99.80000 11.193
99.82000 18.129
99.84000 24.160
99.86000 21.711
99.88000 17.287
99.90000 19.544
99.92000 15.530
99.94000 17.906
99.96000 10.963
99.98000 0.000
