'Id: "0011389" Comment: "Integrate frame 0011389_Au-Ir-Rh_Au-Rich_XRD_Mapping-107-0000.gfrmwith cursor Wedge Cursor #5" Operator: "B?rgel" Anode: "Cu" Wavelength: "1.5406" Scantype: "2Theta (TwoTheta)" TimePerStep: "1" X: "13.5" Y: "-13.5" Z: "5.95" 
10.00000 0.000
10.02000 2.921
10.04000 -1.180
10.06000 0.864
10.08000 -3.917
10.10000 8.808
10.12000 2.871
10.14000 0.175
10.16000 7.531
10.18000 16.248
10.20000 5.039
10.22000 8.210
10.24000 8.672
10.26000 3.615
10.28000 13.041
10.30000 17.669
10.32000 12.501
10.34000 6.464
10.36000 8.642
10.38000 14.055
10.40000 -1.517
10.42000 10.806
10.44000 12.578
10.46000 2.291
10.48000 3.401
10.50000 2.142
10.52000 0.250
10.54000 11.631
10.56000 5.684
10.58000 2.139
10.60000 8.738
10.62000 10.408
10.64000 14.539
10.66000 8.955
10.68000 -4.023
10.70000 -3.866
10.72000 -1.532
10.74000 8.437
10.76000 10.378
10.78000 4.259
10.80000 10.600
10.82000 19.648
10.84000 11.245
10.86000 12.788
10.88000 7.953
10.90000 19.300
10.92000 16.608
10.94000 7.345
10.96000 21.194
10.98000 8.568
11.00000 5.799
11.02000 27.033
11.04000 16.344
11.06000 13.910
11.08000 24.830
11.10000 21.597
11.12000 9.475
11.14000 14.403
11.16000 3.472
11.18000 -3.530
11.20000 9.057
11.22000 24.139
11.24000 30.098
11.26000 15.514
11.28000 21.437
11.30000 20.347
11.32000 26.441
11.34000 21.607
11.36000 15.693
11.38000 22.616
11.40000 23.878
11.42000 28.620
11.44000 21.874
11.46000 17.307
11.48000 17.387
11.50000 12.492
11.52000 25.093
11.54000 22.503
11.56000 12.295
11.58000 5.313
11.60000 7.339
11.62000 14.456
11.64000 15.986
11.66000 5.444
11.68000 2.990
11.70000 6.388
11.72000 11.532
11.74000 9.732
11.76000 6.811
11.78000 9.327
11.80000 4.136
11.82000 13.431
11.84000 20.685
11.86000 10.784
11.88000 12.287
11.90000 13.040
11.92000 16.113
11.94000 16.422
11.96000 4.025
11.98000 7.521
12.00000 17.954
12.02000 23.558
12.04000 17.650
12.06000 24.278
12.08000 12.099
12.10000 12.516
12.12000 23.189
12.14000 19.645
12.16000 14.895
12.18000 15.704
12.20000 21.795
12.22000 12.731
12.24000 13.175
12.26000 8.080
12.28000 8.602
12.30000 15.122
12.32000 8.092
12.34000 -0.624
12.36000 3.417
12.38000 14.764
12.40000 20.776
12.42000 13.182
12.44000 15.266
12.46000 17.360
12.48000 23.614
12.50000 19.230
12.52000 0.699
12.54000 14.983
12.56000 29.318
12.58000 22.081
12.60000 27.217
12.62000 29.526
12.64000 30.820
12.66000 20.180
12.68000 8.693
12.70000 8.943
12.72000 24.757
12.74000 25.896
12.76000 25.771
12.78000 20.993
12.80000 9.244
12.82000 19.655
12.84000 24.676
12.86000 16.272
12.88000 12.079
12.90000 12.022
12.92000 19.719
12.94000 23.592
12.96000 17.242
12.98000 19.240
13.00000 21.303
13.02000 24.792
13.04000 17.931
13.06000 9.045
13.08000 14.595
13.10000 19.380
13.12000 23.001
13.14000 26.144
13.16000 29.139
13.18000 16.196
13.20000 11.552
13.22000 14.144
13.24000 25.120
13.26000 30.893
13.28000 19.285
13.30000 3.502
13.32000 12.153
13.34000 19.144
13.36000 12.250
13.38000 17.644
13.40000 13.324
13.42000 9.921
13.44000 10.961
13.46000 6.322
13.48000 8.529
13.50000 11.006
13.52000 13.041
13.54000 20.592
13.56000 15.257
13.58000 25.004
13.60000 13.186
13.62000 1.921
13.64000 7.914
13.66000 11.948
13.68000 8.339
13.70000 13.116
13.72000 14.126
13.74000 10.892
13.76000 18.899
13.78000 30.325
13.80000 15.717
13.82000 12.366
13.84000 16.436
13.86000 8.125
13.88000 12.510
13.90000 11.510
13.92000 17.310
13.94000 14.333
13.96000 17.775
13.98000 20.138
14.00000 17.057
14.02000 20.855
14.04000 11.766
14.06000 8.462
14.08000 18.600
14.10000 15.204
14.12000 13.803
14.14000 16.168
14.16000 26.244
14.18000 26.369
14.20000 18.216
14.22000 12.846
14.24000 3.857
14.26000 16.977
14.28000 12.222
14.30000 3.959
14.32000 4.494
14.34000 12.691
14.36000 4.218
14.38000 2.784
14.40000 11.861
14.42000 11.189
14.44000 7.712
14.46000 -3.205
14.48000 9.175
14.50000 16.277
14.52000 12.372
14.54000 13.156
14.56000 11.381
14.58000 6.388
14.60000 7.237
14.62000 9.036
14.64000 11.046
14.66000 16.287
14.68000 9.833
14.70000 7.215
14.72000 10.610
14.74000 19.402
14.76000 12.244
14.78000 8.168
14.80000 12.515
14.82000 11.894
14.84000 12.624
14.86000 6.594
14.88000 10.984
14.90000 11.597
14.92000 9.615
14.94000 12.212
14.96000 7.450
14.98000 5.653
15.00000 8.184
15.02000 5.446
15.04000 4.723
15.06000 1.997
15.08000 15.348
15.10000 20.400
15.12000 17.724
15.14000 14.946
15.16000 6.813
15.18000 10.195
15.20000 11.193
15.22000 14.572
15.24000 17.950
15.26000 13.222
15.28000 17.610
15.30000 15.525
15.32000 14.182
15.34000 17.278
15.36000 6.573
15.38000 8.357
15.40000 9.991
15.42000 7.761
15.44000 4.688
15.46000 9.924
15.48000 14.893
15.50000 8.234
15.52000 10.324
15.54000 10.415
15.56000 7.568
15.58000 12.071
15.60000 10.452
15.62000 12.579
15.64000 6.076
15.66000 11.616
15.68000 19.732
15.70000 16.585
15.72000 15.993
15.74000 10.594
15.76000 6.081
15.78000 0.474
15.80000 -4.405
15.82000 1.589
15.84000 8.638
15.86000 11.706
15.88000 7.493
15.90000 4.401
15.92000 10.660
15.94000 23.237
15.96000 13.024
15.98000 -1.750
16.00000 -0.308
16.02000 6.322
16.04000 14.150
16.06000 9.673
16.08000 5.473
16.10000 3.834
16.12000 11.786
16.14000 18.417
16.16000 7.154
16.18000 6.996
16.20000 14.130
16.22000 11.489
16.24000 17.816
16.26000 21.491
16.28000 7.578
16.30000 -3.100
16.32000 6.913
16.34000 5.705
16.36000 3.120
16.38000 4.350
16.40000 9.313
16.42000 10.805
16.44000 18.746
16.46000 17.038
16.48000 16.280
16.50000 6.455
16.52000 4.463
16.54000 2.815
16.56000 6.217
16.58000 5.652
16.60000 0.519
16.62000 2.727
16.64000 4.382
16.66000 6.142
16.68000 13.196
16.70000 9.165
16.72000 11.631
16.74000 17.315
16.76000 11.684
16.78000 7.536
16.80000 10.665
16.82000 3.422
16.84000 1.939
16.86000 5.262
16.88000 10.022
16.90000 10.871
16.92000 10.127
16.94000 10.768
16.96000 13.415
16.98000 9.315
17.00000 7.274
17.02000 2.360
17.04000 8.072
17.06000 4.343
17.08000 0.665
17.10000 -4.346
17.12000 -0.229
17.14000 6.277
17.16000 5.528
17.18000 14.328
17.20000 11.579
17.22000 0.938
17.24000 1.349
17.26000 10.451
17.28000 10.808
17.30000 10.211
17.32000 14.984
17.34000 13.287
17.36000 12.897
17.38000 15.554
17.40000 13.247
17.42000 17.644
17.44000 14.363
17.46000 7.998
17.48000 7.736
17.50000 7.672
17.52000 5.609
17.54000 6.199
17.56000 9.781
17.58000 9.023
17.60000 9.766
17.62000 7.969
17.64000 6.887
17.66000 18.352
17.68000 14.158
17.70000 7.392
17.72000 12.068
17.74000 6.047
17.76000 6.122
17.78000 12.373
17.80000 9.001
17.82000 9.114
17.84000 12.907
17.86000 14.063
17.88000 5.032
17.90000 9.572
17.92000 13.199
17.94000 10.408
17.96000 0.007
17.98000 7.107
18.00000 1.291
18.02000 -1.093
18.04000 11.540
18.06000 7.448
18.08000 0.829
18.10000 -3.362
18.12000 -0.535
18.14000 -2.740
18.16000 -4.317
18.18000 2.299
18.20000 3.878
18.22000 1.697
18.24000 12.890
18.26000 10.156
18.28000 13.067
18.30000 3.548
18.32000 -2.109
18.34000 7.597
18.36000 5.228
18.38000 1.186
18.40000 11.674
18.42000 18.236
18.44000 3.532
18.46000 2.440
18.48000 1.282
18.50000 3.021
18.52000 8.818
18.54000 8.150
18.56000 1.984
18.58000 3.339
18.60000 1.529
18.62000 6.535
18.64000 11.191
18.66000 14.444
18.68000 15.554
18.70000 14.430
18.72000 6.152
18.74000 4.237
18.76000 4.091
18.78000 2.257
18.80000 2.983
18.82000 2.185
18.84000 -0.564
18.86000 6.192
18.88000 8.475
18.90000 4.551
18.92000 8.472
18.94000 10.748
18.96000 9.912
18.98000 6.541
19.00000 7.980
19.02000 2.645
19.04000 10.246
19.06000 7.292
19.08000 1.976
19.10000 1.402
19.12000 4.401
19.14000 1.136
19.16000 -3.514
19.18000 -4.269
19.20000 -1.214
19.22000 6.023
19.24000 6.537
19.26000 8.973
19.28000 9.185
19.30000 8.250
19.32000 10.397
19.34000 3.038
19.36000 4.444
19.38000 7.166
19.40000 9.179
19.42000 5.526
19.44000 1.666
19.46000 -4.255
19.48000 -2.695
19.50000 2.951
19.52000 2.455
19.54000 1.557
19.56000 5.986
19.58000 6.704
19.60000 5.026
19.62000 7.105
19.64000 5.271
19.66000 1.770
19.68000 5.111
19.70000 11.994
19.72000 1.337
19.74000 7.238
19.76000 7.186
19.78000 4.809
19.80000 11.193
19.82000 6.556
19.84000 6.491
19.86000 3.568
19.88000 4.623
19.90000 4.330
19.92000 3.598
19.94000 2.368
19.96000 -0.064
19.98000 -3.698
20.00000 -1.575
20.02000 3.169
20.04000 9.032
20.06000 6.463
20.08000 2.787
20.10000 5.331
20.12000 3.877
20.14000 -3.916
20.16000 5.259
20.18000 15.722
20.20000 5.889
20.22000 5.253
20.24000 12.342
20.26000 5.972
20.28000 4.734
20.30000 4.276
20.32000 1.026
20.34000 0.354
20.36000 1.613
20.38000 2.004
20.40000 8.190
20.42000 11.371
20.44000 8.941
20.46000 0.660
20.48000 1.773
20.50000 6.310
20.52000 10.872
20.54000 4.623
20.56000 3.677
20.58000 5.673
20.60000 5.083
20.62000 9.039
20.64000 5.110
20.66000 7.310
20.68000 5.089
20.70000 -4.176
20.72000 0.696
20.74000 6.661
20.76000 8.633
20.78000 5.870
20.80000 6.566
20.82000 6.889
20.84000 1.731
20.86000 0.028
20.88000 -1.033
20.90000 4.967
20.92000 3.384
20.94000 5.507
20.96000 3.081
20.98000 -0.094
21.00000 3.114
21.02000 8.883
21.04000 2.133
21.06000 0.228
21.08000 2.557
21.10000 2.804
21.12000 0.970
21.14000 5.295
21.16000 6.561
21.18000 7.589
21.20000 12.392
21.22000 4.894
21.24000 2.777
21.26000 1.018
21.28000 7.276
21.30000 8.554
21.32000 5.310
21.34000 -1.325
21.36000 -2.151
21.38000 5.832
21.40000 9.574
21.42000 5.350
21.44000 -0.455
21.46000 0.533
21.48000 1.688
21.50000 7.305
21.52000 7.156
21.54000 6.020
21.56000 3.299
21.58000 2.829
21.60000 1.333
21.62000 4.558
21.64000 -0.795
21.66000 1.414
21.68000 -1.107
21.70000 2.853
21.72000 8.485
21.74000 7.055
21.76000 9.186
21.78000 8.214
21.80000 4.361
21.82000 -3.234
21.84000 3.573
21.86000 6.421
21.88000 -0.713
21.90000 0.429
21.92000 1.838
21.94000 0.586
21.96000 -0.630
21.98000 7.929
22.00000 15.953
22.02000 12.336
22.04000 6.696
22.06000 2.402
22.08000 3.203
22.10000 4.137
22.12000 7.050
22.14000 9.956
22.16000 5.381
22.18000 7.242
22.20000 11.720
22.22000 4.850
22.24000 -0.014
22.26000 5.640
22.28000 4.538
22.30000 6.593
22.32000 3.106
22.34000 -4.087
22.36000 1.882
22.38000 5.674
22.40000 6.030
22.42000 8.803
22.44000 9.116
22.46000 2.946
22.48000 -2.508
22.50000 -0.258
22.52000 4.017
22.54000 6.712
22.56000 1.197
22.58000 -0.154
22.60000 3.292
22.62000 8.305
22.64000 10.681
22.66000 5.964
22.68000 3.860
22.70000 1.441
22.72000 -2.421
22.74000 6.100
22.76000 5.806
22.78000 8.213
22.80000 5.057
22.82000 7.649
22.84000 4.495
22.86000 -4.058
22.88000 0.257
22.90000 4.616
22.92000 8.082
22.94000 12.921
22.96000 12.683
22.98000 6.579
23.00000 4.537
23.02000 4.858
23.04000 2.723
23.06000 5.692
23.08000 6.718
23.10000 8.794
23.12000 1.324
23.14000 2.395
23.16000 3.288
23.18000 1.792
23.20000 5.197
23.22000 3.725
23.24000 6.504
23.26000 5.793
23.28000 6.491
23.30000 3.456
23.32000 0.937
23.34000 -0.211
23.36000 0.498
23.38000 4.315
23.40000 9.298
23.42000 5.948
23.44000 3.368
23.46000 6.004
23.48000 5.230
23.50000 -1.518
23.52000 -1.291
23.54000 -2.143
23.56000 4.807
23.58000 6.782
23.60000 1.982
23.62000 -0.877
23.64000 2.691
23.66000 1.628
23.68000 5.359
23.70000 6.335
23.72000 4.010
23.74000 0.262
23.76000 -2.590
23.78000 2.357
23.80000 7.877
23.82000 8.141
23.84000 3.398
23.86000 6.217
23.88000 3.208
23.90000 4.778
23.92000 7.507
23.94000 7.615
23.96000 4.717
23.98000 3.381
24.00000 2.059
24.02000 0.993
24.04000 -1.511
24.06000 2.864
24.08000 3.982
24.10000 -1.250
24.12000 -3.989
24.14000 -3.402
24.16000 -2.868
24.18000 3.242
24.20000 8.509
24.22000 6.999
24.24000 5.613
24.26000 6.696
24.28000 11.946
24.30000 12.285
24.32000 5.340
24.34000 3.696
24.36000 -0.978
24.38000 4.993
24.40000 4.403
24.42000 5.774
24.44000 3.387
24.46000 -0.583
24.48000 -3.965
24.50000 -0.269
24.52000 -0.704
24.54000 5.584
24.56000 4.906
24.58000 4.338
24.60000 0.967
24.62000 2.993
24.64000 1.737
24.66000 2.216
24.68000 6.924
24.70000 4.836
24.72000 7.692
24.74000 8.617
24.76000 5.712
24.78000 -3.081
24.80000 -2.388
24.82000 0.022
24.84000 -1.671
24.86000 -3.843
24.88000 -3.947
24.90000 -1.578
24.92000 -0.654
24.94000 5.235
24.96000 7.055
24.98000 2.379
25.00000 4.181
25.02000 0.633
25.04000 -0.861
25.06000 2.993
25.08000 7.300
25.10000 2.783
25.12000 5.950
25.14000 5.047
25.16000 2.160
25.18000 4.712
25.20000 5.975
25.22000 6.647
25.24000 4.416
25.26000 -0.087
25.28000 -1.702
25.30000 -1.868
25.32000 0.938
25.34000 2.948
25.36000 -2.577
25.38000 2.171
25.40000 4.794
25.42000 4.444
25.44000 6.141
25.46000 1.997
25.48000 7.351
25.50000 13.275
25.52000 10.889
25.54000 8.154
25.56000 0.148
25.58000 2.887
25.60000 2.293
25.62000 -0.974
25.64000 0.106
25.66000 6.727
25.68000 -1.108
25.70000 1.580
25.72000 6.027
25.74000 6.692
25.76000 2.587
25.78000 0.746
25.80000 6.181
25.82000 4.547
25.84000 6.479
25.86000 6.794
25.88000 6.990
25.90000 6.959
25.92000 1.662
25.94000 0.448
25.96000 4.635
25.98000 6.855
26.00000 5.656
26.02000 4.694
26.04000 5.420
26.06000 4.425
26.08000 6.075
26.10000 2.291
26.12000 0.424
26.14000 -2.731
26.16000 3.006
26.18000 5.781
26.20000 4.986
26.22000 4.020
26.24000 4.906
26.26000 2.120
26.28000 3.068
26.30000 6.298
26.32000 3.631
26.34000 -0.111
26.36000 2.520
26.38000 1.376
26.40000 2.579
26.42000 4.440
26.44000 5.450
26.46000 1.538
26.48000 7.687
26.50000 4.747
26.52000 4.703
26.54000 1.465
26.56000 3.409
26.58000 5.437
26.60000 5.376
26.62000 2.211
26.64000 3.229
26.66000 3.505
26.68000 16.140
26.70000 8.330
26.72000 -3.833
26.74000 -3.611
26.76000 3.313
26.78000 5.366
26.80000 6.976
26.82000 6.425
26.84000 4.554
26.86000 1.814
26.88000 2.965
26.90000 9.309
26.92000 10.902
26.94000 6.438
26.96000 7.691
26.98000 8.748
27.00000 8.145
27.02000 8.100
27.04000 7.791
27.06000 6.861
27.08000 4.538
27.10000 0.210
27.12000 6.719
27.14000 5.016
27.16000 1.418
27.18000 2.750
27.20000 0.802
27.22000 4.262
27.24000 3.760
27.26000 5.885
27.28000 2.499
27.30000 0.785
27.32000 5.063
27.34000 4.782
27.36000 0.675
27.38000 6.408
27.40000 7.138
27.42000 4.855
27.44000 5.200
27.46000 3.118
27.48000 6.203
27.50000 10.326
27.52000 7.215
27.54000 6.839
27.56000 9.445
27.58000 6.119
27.60000 3.588
27.62000 3.298
27.64000 -1.089
27.66000 -2.034
27.68000 1.396
27.70000 6.634
27.72000 4.485
27.74000 0.498
27.76000 1.787
27.78000 6.471
27.80000 4.571
27.82000 4.485
27.84000 5.655
27.86000 3.276
27.88000 4.579
27.90000 8.553
27.92000 1.530
27.94000 1.091
27.96000 4.221
27.98000 3.074
28.00000 2.560
28.02000 3.715
28.04000 9.284
28.06000 11.708
28.08000 4.398
28.10000 2.963
28.12000 3.951
28.14000 2.018
28.16000 5.810
28.18000 6.074
28.20000 2.766
28.22000 4.149
28.24000 2.668
28.26000 3.503
28.28000 3.267
28.30000 1.118
28.32000 1.190
28.34000 5.067
28.36000 6.674
28.38000 5.410
28.40000 3.259
28.42000 4.741
28.44000 5.856
28.46000 3.472
28.48000 4.122
28.50000 3.092
28.52000 3.686
28.54000 0.439
28.56000 -3.746
28.58000 4.200
28.60000 2.517
28.62000 -0.388
28.64000 7.922
28.66000 9.538
28.68000 5.591
28.70000 9.336
28.72000 8.485
28.74000 6.011
28.76000 4.891
28.78000 5.142
28.80000 7.397
28.82000 12.381
28.84000 3.724
28.86000 5.614
28.88000 3.714
28.90000 2.289
28.92000 -2.930
28.94000 1.546
28.96000 3.592
28.98000 1.686
29.00000 2.245
29.02000 4.354
29.04000 7.236
29.06000 8.710
29.08000 9.766
29.10000 9.658
29.12000 7.932
29.14000 3.653
29.16000 -0.549
29.18000 3.138
29.20000 6.585
29.22000 4.276
29.24000 3.326
29.26000 7.715
29.28000 9.045
29.30000 7.750
29.32000 2.347
29.34000 3.733
29.36000 4.797
29.38000 8.899
29.40000 7.883
29.42000 7.239
29.44000 14.790
29.46000 4.394
29.48000 1.956
29.50000 2.984
29.52000 7.475
29.54000 10.519
29.56000 12.155
29.58000 10.359
29.60000 6.785
29.62000 7.918
29.64000 3.773
29.66000 2.715
29.68000 2.894
29.70000 6.197
29.72000 4.886
29.74000 5.609
29.76000 8.729
29.78000 6.383
29.80000 6.020
29.82000 3.636
29.84000 6.635
29.86000 4.449
29.88000 5.230
29.90000 4.483
29.92000 4.891
29.94000 -0.144
29.96000 -3.661
29.98000 -2.051
30.00000 4.883
30.02000 7.598
30.04000 4.609
30.06000 1.382
30.08000 3.603
30.10000 6.041
30.12000 7.786
30.14000 5.084
30.16000 2.903
30.18000 2.305
30.20000 1.442
30.22000 5.173
30.24000 8.449
30.26000 2.112
30.28000 -1.615
30.30000 4.951
30.32000 4.361
30.34000 4.255
30.36000 5.057
30.38000 1.865
30.40000 6.234
30.42000 5.864
30.44000 6.114
30.46000 1.476
30.48000 2.097
30.50000 4.143
30.52000 4.950
30.54000 4.811
30.56000 3.286
30.58000 3.388
30.60000 -0.140
30.62000 5.508
30.64000 7.134
30.66000 6.571
30.68000 5.713
30.70000 2.092
30.72000 1.153
30.74000 1.390
30.76000 0.085
30.78000 4.411
30.80000 6.880
30.82000 2.216
30.84000 2.569
30.86000 1.140
30.88000 1.737
30.90000 4.662
30.92000 1.579
30.94000 -2.067
30.96000 4.402
30.98000 3.089
31.00000 0.172
31.02000 -0.806
31.04000 6.434
31.06000 13.557
31.08000 9.176
31.10000 0.731
31.12000 5.400
31.14000 2.620
31.16000 -2.953
31.18000 2.074
31.20000 0.913
31.22000 6.482
31.24000 3.275
31.26000 0.573
31.28000 4.467
31.30000 -0.832
31.32000 -3.233
31.34000 -0.818
31.36000 -1.148
31.38000 1.447
31.40000 -0.561
31.42000 -1.875
31.44000 -2.189
31.46000 -0.486
31.48000 4.918
31.50000 1.848
31.52000 -3.649
31.54000 -2.878
31.56000 -1.849
31.58000 0.519
31.60000 0.410
31.62000 0.952
31.64000 2.035
31.66000 -0.965
31.68000 -3.639
31.70000 -1.276
31.72000 2.152
31.74000 3.629
31.76000 0.463
31.78000 -0.263
31.80000 2.007
31.82000 1.719
31.84000 2.919
31.86000 6.196
31.88000 5.386
31.90000 2.055
31.92000 3.357
31.94000 6.804
31.96000 6.233
31.98000 2.255
32.00000 0.344
32.02000 1.883
32.04000 2.937
32.06000 1.391
32.08000 -1.084
32.10000 -3.625
32.12000 -0.918
32.14000 0.216
32.16000 -1.724
32.18000 -0.058
32.20000 5.234
32.22000 3.772
32.24000 -0.664
32.26000 -2.317
32.28000 -1.193
32.30000 0.291
32.32000 -0.603
32.34000 4.199
32.36000 4.719
32.38000 4.095
32.40000 2.590
32.42000 -0.199
32.44000 2.483
32.46000 -1.098
32.48000 3.914
32.50000 1.923
32.52000 -0.146
32.54000 3.241
32.56000 6.184
32.58000 7.033
32.60000 -2.378
32.62000 -0.678
32.64000 -0.631
32.66000 4.209
32.68000 1.428
32.70000 5.245
32.72000 3.960
32.74000 1.857
32.76000 -0.526
32.78000 1.402
32.80000 2.202
32.82000 2.260
32.84000 1.994
32.86000 3.687
32.88000 3.172
32.90000 1.553
32.92000 2.043
32.94000 -3.566
32.96000 2.386
32.98000 2.771
33.00000 1.305
33.02000 -1.261
33.04000 -1.859
33.06000 4.685
33.08000 4.813
33.10000 4.212
33.12000 2.268
33.14000 1.735
33.16000 7.589
33.18000 5.989
33.20000 4.916
33.22000 9.521
33.24000 9.826
33.26000 5.424
33.28000 6.908
33.30000 7.828
33.32000 1.961
33.34000 -0.247
33.36000 0.170
33.38000 1.216
33.40000 6.608
33.42000 2.945
33.44000 2.292
33.46000 5.329
33.48000 10.570
33.50000 9.902
33.52000 7.280
33.54000 5.510
33.56000 6.101
33.58000 4.308
33.60000 10.392
33.62000 8.236
33.64000 8.455
33.66000 5.406
33.68000 6.126
33.70000 3.514
33.72000 -1.662
33.74000 5.321
33.76000 9.904
33.78000 6.715
33.80000 5.934
33.82000 3.791
33.84000 3.389
33.86000 5.705
33.88000 2.033
33.90000 -1.018
33.92000 0.747
33.94000 0.974
33.96000 -0.870
33.98000 0.250
34.00000 5.595
34.02000 5.079
34.04000 6.246
34.06000 4.116
34.08000 5.908
34.10000 5.610
34.12000 3.986
34.14000 -0.066
34.16000 3.882
34.18000 4.710
34.20000 6.069
34.22000 3.333
34.24000 5.768
34.26000 3.198
34.28000 1.919
34.30000 3.253
34.32000 0.466
34.34000 3.012
34.36000 0.242
34.38000 4.098
34.40000 13.115
34.42000 10.129
34.44000 5.216
34.46000 4.253
34.48000 3.196
34.50000 4.017
34.52000 4.467
34.54000 3.187
34.56000 4.559
34.58000 -0.517
34.60000 3.501
34.62000 8.819
34.64000 11.207
34.66000 11.469
34.68000 5.485
34.70000 7.741
34.72000 9.234
34.74000 3.127
34.76000 1.004
34.78000 -0.835
34.80000 5.847
34.82000 7.872
34.84000 7.553
34.86000 -1.879
34.88000 1.783
34.90000 3.522
34.92000 4.108
34.94000 3.896
34.96000 0.758
34.98000 -0.086
35.00000 0.687
35.02000 5.245
35.04000 1.369
35.06000 1.439
35.08000 3.010
35.10000 -0.134
35.12000 -3.538
35.14000 1.267
35.16000 2.878
35.18000 2.325
35.20000 -3.535
35.22000 -0.693
35.24000 0.543
35.26000 2.816
35.28000 4.052
35.30000 2.075
35.32000 -0.351
35.34000 3.558
35.36000 2.117
35.38000 4.298
35.40000 4.196
35.42000 4.169
35.44000 0.500
35.46000 0.095
35.48000 -0.943
35.50000 5.150
35.52000 10.950
35.54000 3.220
35.56000 3.259
35.58000 4.980
35.60000 2.756
35.62000 4.713
35.64000 4.619
35.66000 -1.305
35.68000 -1.984
35.70000 2.708
35.72000 1.725
35.74000 2.901
35.76000 -2.430
35.78000 0.342
35.80000 3.476
35.82000 3.067
35.84000 -1.733
35.86000 0.674
35.88000 5.786
35.90000 5.680
35.92000 -0.304
35.94000 0.920
35.96000 -0.131
35.98000 -0.916
36.00000 -2.284
36.02000 -1.762
36.04000 -2.594
36.06000 2.656
36.08000 2.813
36.10000 2.336
36.12000 6.246
36.14000 8.240
36.16000 2.244
36.18000 -3.072
36.20000 -1.030
36.22000 2.820
36.24000 6.079
36.26000 0.921
36.28000 3.203
36.30000 2.893
36.32000 0.044
36.34000 -0.380
36.36000 5.387
36.38000 5.205
36.40000 1.627
36.42000 0.481
36.44000 -3.592
36.46000 -2.841
36.48000 3.057
36.50000 6.013
36.52000 2.186
36.54000 1.688
36.56000 2.778
36.58000 6.167
36.60000 7.638
36.62000 3.639
36.64000 2.618
36.66000 0.027
36.68000 0.724
36.70000 0.555
36.72000 2.570
36.74000 2.634
36.76000 3.891
36.78000 -0.072
36.80000 -0.290
36.82000 5.747
36.84000 5.111
36.86000 2.875
36.88000 2.493
36.90000 1.015
36.92000 0.805
36.94000 -0.973
36.96000 0.953
36.98000 7.916
37.00000 8.885
37.02000 3.924
37.04000 0.455
37.06000 -1.146
37.08000 3.618
37.10000 4.825
37.12000 7.250
37.14000 5.210
37.16000 5.070
37.18000 4.477
37.20000 2.738
37.22000 1.980
37.24000 3.952
37.26000 8.825
37.28000 5.029
37.30000 -1.523
37.32000 -1.281
37.34000 3.922
37.36000 4.047
37.38000 6.363
37.40000 2.033
37.42000 2.536
37.44000 2.024
37.46000 9.123
37.48000 4.152
37.50000 6.648
37.52000 8.811
37.54000 13.595
37.56000 10.046
37.58000 10.863
37.60000 9.353
37.62000 5.889
37.64000 10.123
37.66000 11.557
37.68000 15.738
37.70000 16.058
37.72000 15.919
37.74000 12.161
37.76000 14.545
37.78000 16.430
37.80000 18.864
37.82000 17.386
37.84000 15.399
37.86000 15.565
37.88000 16.101
37.90000 17.414
37.92000 15.348
37.94000 18.849
37.96000 22.019
37.98000 18.522
38.00000 21.120
38.02000 28.901
38.04000 29.632
38.06000 27.974
38.08000 23.496
38.10000 24.385
38.12000 24.364
38.14000 22.699
38.16000 28.807
38.18000 32.554
38.20000 30.629
38.22000 31.413
38.24000 34.787
38.26000 40.657
38.28000 35.722
38.30000 33.806
38.32000 35.984
38.34000 35.038
38.36000 42.223
38.38000 42.092
38.40000 39.525
38.42000 38.200
38.44000 42.561
38.46000 45.050
38.48000 45.017
38.50000 40.459
38.52000 48.900
38.54000 53.202
38.56000 57.408
38.58000 60.807
38.60000 63.021
38.62000 63.962
38.64000 67.883
38.66000 69.259
38.68000 75.300
38.70000 76.368
38.72000 78.765
38.74000 84.210
38.76000 83.192
38.78000 88.954
38.80000 95.704
38.82000 101.743
38.84000 101.182
38.86000 102.561
38.88000 109.907
38.90000 120.141
38.92000 122.167
38.94000 132.545
38.96000 141.430
38.98000 143.907
39.00000 154.277
39.02000 164.875
39.04000 182.657
39.06000 190.018
39.08000 190.128
39.10000 200.480
39.12000 218.299
39.14000 233.675
39.16000 241.877
39.18000 255.225
39.20000 276.447
39.22000 291.128
39.24000 305.705
39.26000 321.764
39.28000 341.720
39.30000 356.855
39.32000 372.280
39.34000 394.611
39.36000 413.646
39.38000 439.820
39.40000 471.742
39.42000 487.373
39.44000 504.268
39.46000 527.885
39.48000 547.090
39.50000 558.692
39.52000 569.190
39.54000 589.127
39.56000 604.601
39.58000 620.135
39.60000 646.100
39.62000 651.920
39.64000 650.629
39.66000 636.983
39.68000 651.280
39.70000 660.888
39.72000 654.660
39.74000 649.137
39.76000 637.000
39.78000 629.778
39.80000 618.059
39.82000 592.133
39.84000 587.266
39.86000 577.785
39.88000 562.266
39.90000 537.103
39.92000 516.434
39.94000 497.578
39.96000 474.263
39.98000 456.281
40.00000 432.164
40.02000 404.747
40.04000 388.431
40.06000 371.248
40.08000 345.466
40.10000 327.355
40.12000 316.572
40.14000 300.202
40.16000 275.815
40.18000 261.963
40.20000 246.964
40.22000 237.028
40.24000 213.893
40.26000 199.660
40.28000 190.196
40.30000 180.455
40.32000 164.489
40.34000 160.405
40.36000 145.347
40.38000 137.761
40.40000 129.837
40.42000 122.839
40.44000 117.943
40.46000 109.878
40.48000 99.339
40.50000 90.725
40.52000 86.997
40.54000 85.834
40.56000 75.779
40.58000 70.031
40.60000 70.212
40.62000 66.615
40.64000 63.625
40.66000 61.451
40.68000 55.849
40.70000 49.381
40.72000 46.355
40.74000 40.224
40.76000 41.926
40.78000 45.702
40.80000 45.267
40.82000 40.231
40.84000 35.859
40.86000 32.553
40.88000 29.584
40.90000 26.332
40.92000 22.897
40.94000 28.275
40.96000 30.510
40.98000 29.645
41.00000 26.171
41.02000 23.370
41.04000 18.247
41.06000 14.267
41.08000 16.355
41.10000 17.610
41.12000 17.136
41.14000 15.177
41.16000 15.407
41.18000 16.267
41.20000 16.573
41.22000 15.159
41.24000 9.763
41.26000 12.632
41.28000 9.391
41.30000 7.739
41.32000 5.963
41.34000 5.459
41.36000 10.490
41.38000 8.275
41.40000 6.845
41.42000 8.295
41.44000 8.014
41.46000 5.013
41.48000 8.539
41.50000 4.701
41.52000 8.637
41.54000 7.278
41.56000 6.907
41.58000 5.478
41.60000 6.170
41.62000 3.057
41.64000 0.907
41.66000 3.866
41.68000 3.548
41.70000 7.229
41.72000 4.766
41.74000 6.264
41.76000 4.425
41.78000 3.565
41.80000 1.928
41.82000 0.140
41.84000 3.511
41.86000 3.950
41.88000 3.932
41.90000 6.661
41.92000 4.947
41.94000 0.649
41.96000 0.392
41.98000 0.113
42.00000 2.764
42.02000 4.977
42.04000 3.705
42.06000 3.588
42.08000 3.109
42.10000 4.980
42.12000 0.273
42.14000 4.478
42.16000 6.652
42.18000 4.295
42.20000 4.535
42.22000 4.811
42.24000 -3.332
42.26000 -0.386
42.28000 0.961
42.30000 2.055
42.32000 3.328
42.34000 2.124
42.36000 1.813
42.38000 0.019
42.40000 2.993
42.42000 2.111
42.44000 5.602
42.46000 4.699
42.48000 0.968
42.50000 2.607
42.52000 2.060
42.54000 -3.275
42.56000 0.453
42.58000 3.717
42.60000 3.647
42.62000 -2.181
42.64000 2.458
42.66000 3.237
42.68000 4.558
42.70000 5.296
42.72000 2.166
42.74000 -0.660
42.76000 0.040
42.78000 1.594
42.80000 2.421
42.82000 1.411
42.84000 0.641
42.86000 -0.037
42.88000 0.833
42.90000 -0.940
42.92000 0.939
42.94000 3.796
42.96000 5.426
42.98000 1.656
43.00000 -0.354
43.02000 -0.212
43.04000 0.469
43.06000 -0.320
43.08000 0.811
43.10000 -0.623
43.12000 0.264
43.14000 1.628
43.16000 4.836
43.18000 3.289
43.20000 2.151
43.22000 2.689
43.24000 -3.199
43.26000 -1.476
43.28000 0.516
43.30000 4.754
43.32000 3.830
43.34000 2.052
43.36000 -1.058
43.38000 -2.878
43.40000 -2.861
43.42000 -1.548
43.44000 4.866
43.46000 3.592
43.48000 -0.195
43.50000 -1.294
43.52000 -2.873
43.54000 -2.989
43.56000 -3.176
43.58000 -2.971
43.60000 -1.443
43.62000 1.355
43.64000 -1.740
43.66000 1.674
43.68000 2.217
43.70000 -2.226
43.72000 0.586
43.74000 0.237
43.76000 1.801
43.78000 2.333
43.80000 4.040
43.82000 7.093
43.84000 3.618
43.86000 -0.366
43.88000 2.658
43.90000 6.299
43.92000 4.172
43.94000 0.265
43.96000 -1.504
43.98000 -2.441
44.00000 -3.017
44.02000 1.394
44.04000 3.206
44.06000 2.297
44.08000 -0.855
44.10000 -3.152
44.12000 0.011
44.14000 3.453
44.16000 1.619
44.18000 -1.600
44.20000 -1.720
44.22000 1.333
44.24000 -0.468
44.26000 -1.935
44.28000 -1.120
44.30000 -0.262
44.32000 -2.976
44.34000 -2.101
44.36000 2.726
44.38000 0.445
44.40000 -1.427
44.42000 -3.133
44.44000 0.831
44.46000 1.180
44.48000 3.713
44.50000 0.891
44.52000 4.714
44.54000 3.354
44.56000 3.236
44.58000 3.204
44.60000 0.267
44.62000 -0.920
44.64000 3.222
44.66000 2.404
44.68000 0.840
44.70000 0.681
44.72000 2.056
44.74000 0.666
44.76000 3.399
44.78000 5.035
44.80000 4.236
44.82000 3.124
44.84000 1.518
44.86000 1.963
44.88000 2.272
44.90000 0.407
44.92000 1.110
44.94000 3.438
44.96000 5.856
44.98000 5.888
45.00000 4.442
45.02000 4.262
45.04000 10.108
45.06000 10.647
45.08000 7.698
45.10000 5.640
45.12000 4.530
45.14000 4.348
45.16000 4.230
45.18000 7.166
45.20000 10.755
45.22000 9.846
45.24000 8.902
45.26000 6.408
45.28000 8.725
45.30000 11.391
45.32000 9.853
45.34000 11.997
45.36000 11.371
45.38000 11.522
45.40000 15.200
45.42000 14.413
45.44000 13.072
45.46000 17.787
45.48000 16.318
45.50000 14.555
45.52000 19.741
45.54000 23.084
45.56000 23.492
45.58000 24.482
45.60000 19.764
45.62000 17.928
45.64000 19.534
45.66000 23.207
45.68000 24.374
45.70000 24.586
45.72000 26.381
45.74000 27.694
45.76000 29.471
45.78000 33.692
45.80000 40.071
45.82000 37.133
45.84000 39.505
45.86000 39.188
45.88000 38.555
45.90000 34.393
45.92000 38.564
45.94000 44.464
45.96000 44.766
45.98000 47.670
46.00000 48.311
46.02000 53.342
46.04000 57.676
46.06000 51.331
46.08000 48.344
46.10000 54.132
46.12000 55.365
46.14000 59.825
46.16000 57.253
46.18000 61.128
46.20000 60.799
46.22000 63.212
46.24000 62.366
46.26000 61.619
46.28000 61.595
46.30000 62.504
46.32000 64.310
46.34000 65.756
46.36000 62.187
46.38000 66.972
46.40000 66.376
46.42000 65.659
46.44000 64.456
46.46000 64.635
46.48000 61.204
46.50000 65.360
46.52000 66.821
46.54000 61.662
46.56000 57.863
46.58000 58.227
46.60000 59.884
46.62000 61.448
46.64000 53.733
46.66000 50.749
46.68000 50.481
46.70000 52.398
46.72000 48.737
46.74000 47.392
46.76000 49.230
46.78000 43.098
46.80000 42.269
46.82000 44.716
46.84000 35.495
46.86000 36.099
46.88000 40.543
46.90000 37.795
46.92000 36.478
46.94000 32.904
46.96000 28.520
46.98000 26.550
47.00000 24.969
47.02000 23.234
47.04000 23.911
47.06000 23.257
47.08000 20.512
47.10000 19.414
47.12000 19.215
47.14000 16.136
47.16000 11.852
47.18000 11.957
47.20000 17.438
47.22000 15.556
47.24000 15.493
47.26000 11.218
47.28000 5.319
47.30000 3.848
47.32000 5.234
47.34000 8.837
47.36000 10.440
47.38000 6.644
47.40000 3.565
47.42000 5.405
47.44000 5.697
47.46000 9.697
47.48000 8.992
47.50000 7.979
47.52000 12.905
47.54000 12.066
47.56000 9.947
47.58000 5.431
47.60000 2.191
47.62000 3.842
47.64000 7.008
47.66000 5.547
47.68000 3.403
47.70000 0.702
47.72000 2.885
47.74000 2.792
47.76000 4.091
47.78000 3.045
47.80000 3.771
47.82000 -0.290
47.84000 0.761
47.86000 4.993
47.88000 1.093
47.90000 -2.768
47.92000 -0.891
47.94000 -2.133
47.96000 -0.963
47.98000 1.344
48.00000 -1.450
48.02000 -1.627
48.04000 -0.163
48.06000 0.711
48.08000 2.016
48.10000 2.484
48.12000 1.247
48.14000 -0.088
48.16000 3.944
48.18000 1.425
48.20000 0.183
48.22000 -0.958
48.24000 3.426
48.26000 1.549
48.28000 1.304
48.30000 0.926
48.32000 -1.508
48.34000 0.106
48.36000 -0.443
48.38000 2.446
48.40000 1.224
48.42000 -0.797
48.44000 1.009
48.46000 0.489
48.48000 0.094
48.50000 -0.633
48.52000 0.951
48.54000 2.557
48.56000 0.322
48.58000 5.834
48.60000 1.086
48.62000 0.063
48.64000 -2.691
48.66000 -0.831
48.68000 -0.836
48.70000 1.566
48.72000 -1.455
48.74000 0.289
48.76000 2.990
48.78000 -1.014
48.80000 0.339
48.82000 -0.625
48.84000 0.679
48.86000 -1.664
48.88000 -2.441
48.90000 -1.465
48.92000 2.662
48.94000 4.739
48.96000 1.849
48.98000 2.721
49.00000 1.547
49.02000 2.758
49.04000 1.123
49.06000 2.956
49.08000 1.142
49.10000 2.048
49.12000 4.015
49.14000 -0.158
49.16000 -1.037
49.18000 3.573
49.20000 2.058
49.22000 0.710
49.24000 3.007
49.26000 -1.537
49.28000 2.540
49.30000 6.974
49.32000 4.172
49.34000 -2.606
49.36000 1.304
49.38000 2.847
49.40000 3.801
49.42000 -0.800
49.44000 2.943
49.46000 0.483
49.48000 4.289
49.50000 6.129
49.52000 3.109
49.54000 -2.601
49.56000 -1.567
49.58000 0.451
49.60000 1.166
49.62000 -0.119
49.64000 -1.827
49.66000 1.225
49.68000 -0.359
49.70000 1.468
49.72000 1.600
49.74000 2.402
49.76000 3.227
49.78000 4.183
49.80000 1.412
49.82000 -0.399
49.84000 -0.302
49.86000 -0.040
49.88000 -0.861
49.90000 0.221
49.92000 -2.207
49.94000 -2.596
49.96000 0.257
49.98000 -1.262
50.00000 -2.024
50.02000 1.003
50.04000 0.374
50.06000 2.439
50.08000 3.153
50.10000 4.358
50.12000 6.567
50.14000 5.640
50.16000 0.686
50.18000 0.503
50.20000 2.754
50.22000 1.856
50.24000 -0.096
50.26000 1.429
50.28000 1.761
50.30000 0.127
50.32000 -0.056
50.34000 -2.581
50.36000 -0.566
50.38000 0.600
50.40000 1.670
50.42000 2.037
50.44000 5.542
50.46000 4.215
50.48000 3.139
50.50000 1.667
50.52000 -0.038
50.54000 -0.644
50.56000 1.278
50.58000 1.452
50.60000 -0.994
50.62000 -2.570
50.64000 -0.793
50.66000 0.406
50.68000 4.472
50.70000 1.662
50.72000 -1.282
50.74000 1.158
50.76000 3.326
50.78000 0.967
50.80000 1.774
50.82000 -0.909
50.84000 0.099
50.86000 0.471
50.88000 1.892
50.90000 0.350
50.92000 0.170
50.94000 5.414
50.96000 6.194
50.98000 3.452
51.00000 1.814
51.02000 -1.564
51.04000 -2.563
51.06000 -0.834
51.08000 1.123
51.10000 1.909
51.12000 4.888
51.14000 2.317
51.16000 0.356
51.18000 -1.323
51.20000 0.023
51.22000 -1.145
51.24000 0.103
51.26000 2.419
51.28000 3.204
51.30000 3.406
51.32000 1.784
51.34000 2.656
51.36000 1.455
51.38000 1.776
51.40000 0.328
51.42000 0.295
51.44000 2.126
51.46000 1.400
51.48000 0.023
51.50000 -1.924
51.52000 0.638
51.54000 0.513
51.56000 -1.050
51.58000 -0.869
51.60000 0.860
51.62000 2.474
51.64000 2.550
51.66000 1.535
51.68000 -1.718
51.70000 0.784
51.72000 0.407
51.74000 2.473
51.76000 1.302
51.78000 -0.690
51.80000 2.252
51.82000 0.566
51.84000 -0.524
51.86000 -1.243
51.88000 0.346
51.90000 2.623
51.92000 -2.215
51.94000 0.702
51.96000 -0.208
51.98000 1.344
52.00000 0.472
52.02000 -2.468
52.04000 -1.984
52.06000 -1.248
52.08000 -1.949
52.10000 1.596
52.12000 3.294
52.14000 -0.712
52.16000 -1.595
52.18000 -2.532
52.20000 1.079
52.22000 0.126
52.24000 0.902
52.26000 -1.438
52.28000 2.516
52.30000 -0.943
52.32000 1.617
52.34000 2.389
52.36000 2.615
52.38000 -0.659
52.40000 2.060
52.42000 2.696
52.44000 5.834
52.46000 4.323
52.48000 3.055
52.50000 1.268
52.52000 2.374
52.54000 -0.159
52.56000 -1.859
52.58000 0.837
52.60000 1.412
52.62000 2.467
52.64000 5.731
52.66000 3.656
52.68000 5.253
52.70000 3.435
52.72000 3.012
52.74000 3.235
52.76000 3.049
52.78000 1.582
52.80000 1.094
52.82000 1.630
52.84000 2.330
52.86000 1.359
52.88000 -0.498
52.90000 0.641
52.92000 -0.124
52.94000 -2.273
52.96000 0.829
52.98000 2.722
53.00000 3.790
53.02000 3.468
53.04000 -0.257
53.06000 1.505
53.08000 -1.188
53.10000 -0.662
53.12000 2.234
53.14000 2.318
53.16000 3.071
53.18000 4.158
53.20000 4.672
53.22000 2.425
53.24000 3.468
53.26000 1.270
53.28000 -2.466
53.30000 1.333
53.32000 1.598
53.34000 1.836
53.36000 1.598
53.38000 3.300
53.40000 4.748
53.42000 3.082
53.44000 0.683
53.46000 2.693
53.48000 3.023
53.50000 2.235
53.52000 0.770
53.54000 2.588
53.56000 4.012
53.58000 2.776
53.60000 3.398
53.62000 1.356
53.64000 4.258
53.66000 3.136
53.68000 2.458
53.70000 2.495
53.72000 0.814
53.74000 4.648
53.76000 -0.832
53.78000 2.550
53.80000 5.373
53.82000 2.344
53.84000 1.317
53.86000 3.967
53.88000 1.844
53.90000 3.349
53.92000 2.048
53.94000 0.836
53.96000 5.376
53.98000 6.327
54.00000 5.706
54.02000 1.843
54.04000 4.805
54.06000 5.973
54.08000 7.445
54.10000 3.677
54.12000 1.376
54.14000 3.202
54.16000 0.129
54.18000 1.483
54.20000 3.852
54.22000 7.392
54.24000 5.296
54.26000 4.940
54.28000 6.698
54.30000 5.058
54.32000 5.382
54.34000 5.960
54.36000 2.684
54.38000 -2.440
54.40000 0.520
54.42000 4.053
54.44000 6.699
54.46000 2.048
54.48000 2.459
54.50000 2.097
54.52000 2.439
54.54000 1.627
54.56000 1.847
54.58000 5.052
54.60000 1.096
54.62000 2.919
54.64000 3.945
54.66000 3.454
54.68000 0.327
54.70000 0.563
54.72000 -0.694
54.74000 1.110
54.76000 1.563
54.78000 0.220
54.80000 0.683
54.82000 -1.444
54.84000 -0.414
54.86000 -0.223
54.88000 -1.474
54.90000 2.195
54.92000 0.848
54.94000 3.023
54.96000 4.254
54.98000 2.398
55.00000 1.354
55.02000 1.884
55.04000 2.214
55.06000 -1.723
55.08000 -1.493
55.10000 3.034
55.12000 0.690
55.14000 -0.204
55.16000 0.064
55.18000 0.646
55.20000 2.699
55.22000 5.048
55.24000 3.231
55.26000 0.070
55.28000 -0.802
55.30000 0.287
55.32000 -2.420
55.34000 -1.337
55.36000 3.951
55.38000 2.283
55.40000 1.662
55.42000 3.614
55.44000 2.292
55.46000 3.140
55.48000 2.409
55.50000 0.520
55.52000 -1.075
55.54000 0.331
55.56000 1.594
55.58000 3.823
55.60000 4.488
55.62000 4.969
55.64000 3.071
55.66000 5.386
55.68000 3.825
55.70000 0.874
55.72000 1.396
55.74000 0.104
55.76000 0.113
55.78000 -1.532
55.80000 -0.131
55.82000 4.905
55.84000 5.872
55.86000 4.048
55.88000 2.697
55.90000 1.484
55.92000 3.596
55.94000 5.320
55.96000 0.656
55.98000 0.064
56.00000 -0.728
56.02000 1.544
56.04000 1.620
56.06000 1.197
56.08000 4.885
56.10000 2.478
56.12000 2.427
56.14000 -0.494
56.16000 -1.831
56.18000 -0.733
56.20000 3.071
56.22000 1.369
56.24000 2.321
56.26000 2.291
56.28000 2.586
56.30000 4.000
56.32000 1.296
56.34000 2.514
56.36000 -1.730
56.38000 -0.356
56.40000 2.583
56.42000 4.285
56.44000 2.392
56.46000 -0.905
56.48000 0.449
56.50000 3.602
56.52000 2.207
56.54000 4.096
56.56000 3.523
56.58000 2.288
56.60000 -1.642
56.62000 -1.153
56.64000 -0.959
56.66000 -2.411
56.68000 -0.006
56.70000 0.908
56.72000 -0.890
56.74000 -0.610
56.76000 0.642
56.78000 -0.720
56.80000 -0.801
56.82000 -0.760
56.84000 0.804
56.86000 0.488
56.88000 1.903
56.90000 4.012
56.92000 4.602
56.94000 5.945
56.96000 0.034
56.98000 0.119
57.00000 1.619
57.02000 -1.277
57.04000 -0.046
57.06000 2.016
57.08000 0.988
57.10000 1.094
57.12000 -1.012
57.14000 0.284
57.16000 0.981
57.18000 0.632
57.20000 1.560
57.22000 1.811
57.24000 2.885
57.26000 3.092
57.28000 2.439
57.30000 2.332
57.32000 -2.325
57.34000 1.449
57.36000 2.952
57.38000 -0.684
57.40000 4.591
57.42000 4.865
57.44000 0.300
57.46000 -2.379
57.48000 1.121
57.50000 1.697
57.52000 2.373
57.54000 -0.106
57.56000 -0.322
57.58000 3.372
57.60000 2.526
57.62000 3.030
57.64000 2.802
57.66000 0.979
57.68000 0.823
57.70000 4.599
57.72000 5.128
57.74000 5.267
57.76000 0.725
57.78000 2.354
57.80000 4.984
57.82000 7.150
57.84000 2.616
57.86000 1.243
57.88000 0.600
57.90000 1.356
57.92000 1.767
57.94000 0.235
57.96000 1.958
57.98000 1.717
58.00000 1.494
58.02000 2.861
58.04000 2.971
58.06000 -1.214
58.08000 -1.280
58.10000 -0.418
58.12000 -0.118
58.14000 2.583
58.16000 2.320
58.18000 1.393
58.20000 0.322
58.22000 0.882
58.24000 0.009
58.26000 1.869
58.28000 6.395
58.30000 6.764
58.32000 3.883
58.34000 0.074
58.36000 3.535
58.38000 6.446
58.40000 4.946
58.42000 4.504
58.44000 0.292
58.46000 2.049
58.48000 3.988
58.50000 5.204
58.52000 -0.660
58.54000 -0.569
58.56000 -1.190
58.58000 -2.324
58.60000 -2.238
58.62000 1.977
58.64000 7.306
58.66000 7.063
58.68000 2.466
58.70000 2.336
58.72000 1.698
58.74000 0.995
58.76000 0.913
58.78000 0.693
58.80000 0.555
58.82000 2.376
58.84000 0.653
58.86000 0.002
58.88000 1.966
58.90000 1.905
58.92000 3.248
58.94000 1.878
58.96000 1.890
58.98000 1.098
59.00000 1.833
59.02000 3.746
59.04000 0.222
59.06000 2.469
59.08000 4.629
59.10000 1.665
59.12000 2.300
59.14000 3.037
59.16000 2.927
59.18000 0.407
59.20000 1.247
59.22000 5.940
59.24000 6.488
59.26000 2.161
59.28000 -2.309
59.30000 -0.761
59.32000 0.975
59.34000 5.949
59.36000 5.334
59.38000 5.362
59.40000 6.102
59.42000 1.768
59.44000 -0.266
59.46000 -0.006
59.48000 1.656
59.50000 1.361
59.52000 4.147
59.54000 3.913
59.56000 6.304
59.58000 6.013
59.60000 6.428
59.62000 2.250
59.64000 1.678
59.66000 2.572
59.68000 -0.925
59.70000 1.677
59.72000 0.073
59.74000 -0.440
59.76000 2.641
59.78000 1.220
59.80000 1.049
59.82000 2.565
59.84000 0.762
59.86000 -1.403
59.88000 -1.828
59.90000 -2.196
59.92000 0.925
59.94000 0.129
59.96000 -1.279
59.98000 -2.095
60.00000 0.837
60.02000 0.177
60.04000 2.295
60.06000 2.507
60.08000 2.818
60.10000 2.127
60.12000 -0.371
60.14000 0.091
60.16000 3.683
60.18000 1.833
60.20000 0.476
60.22000 2.027
60.24000 1.887
60.26000 3.762
60.28000 2.344
60.30000 1.518
60.32000 1.328
60.34000 0.513
60.36000 -0.044
60.38000 1.885
60.40000 3.796
60.42000 4.668
60.44000 3.908
60.46000 1.799
60.48000 -0.709
60.50000 -2.273
60.52000 2.296
60.54000 2.384
60.56000 4.338
60.58000 3.643
60.60000 2.915
60.62000 2.498
60.64000 1.756
60.66000 2.431
60.68000 0.225
60.70000 2.060
60.72000 3.487
60.74000 5.353
60.76000 1.337
60.78000 1.627
60.80000 4.111
60.82000 3.234
60.84000 2.067
60.86000 1.186
60.88000 1.979
60.90000 2.917
60.92000 2.085
60.94000 2.402
60.96000 3.219
60.98000 5.160
61.00000 2.190
61.02000 2.999
61.04000 2.122
61.06000 -2.264
61.08000 1.047
61.10000 0.277
61.12000 7.231
61.14000 6.554
61.16000 3.818
61.18000 1.641
61.20000 2.840
61.22000 3.593
61.24000 3.486
61.26000 4.629
61.28000 3.142
61.30000 3.565
61.32000 2.373
61.34000 1.577
61.36000 1.002
61.38000 0.082
61.40000 0.984
61.42000 -0.063
61.44000 0.193
61.46000 -2.255
61.48000 2.161
61.50000 1.393
61.52000 -0.827
61.54000 0.563
61.56000 3.042
61.58000 3.284
61.60000 1.800
61.62000 0.068
61.64000 3.588
61.66000 1.073
61.68000 1.772
61.70000 2.714
61.72000 5.030
61.74000 3.832
61.76000 2.005
61.78000 5.264
61.80000 2.311
61.82000 1.655
61.84000 2.591
61.86000 2.997
61.88000 -0.444
61.90000 0.347
61.92000 1.653
61.94000 1.309
61.96000 -0.361
61.98000 1.762
62.00000 2.070
62.02000 -0.280
62.04000 -1.593
62.06000 1.417
62.08000 -1.097
62.10000 -0.830
62.12000 -0.003
62.14000 0.066
62.16000 -0.619
62.18000 -0.894
62.20000 1.780
62.22000 0.720
62.24000 1.103
62.26000 -0.840
62.28000 1.479
62.30000 1.918
62.32000 2.520
62.34000 1.889
62.36000 2.853
62.38000 1.783
62.40000 0.670
62.42000 1.544
62.44000 1.891
62.46000 2.826
62.48000 5.108
62.50000 1.859
62.52000 0.261
62.54000 2.593
62.56000 0.470
62.58000 -0.086
62.60000 0.912
62.62000 2.214
62.64000 3.192
62.66000 3.670
62.68000 0.857
62.70000 0.384
62.72000 3.210
62.74000 2.666
62.76000 0.286
62.78000 3.423
62.80000 3.527
62.82000 3.910
62.84000 2.338
62.86000 2.635
62.88000 1.752
62.90000 1.883
62.92000 3.993
62.94000 1.840
62.96000 -2.118
62.98000 2.456
63.00000 3.189
63.02000 2.706
63.04000 1.551
63.06000 -0.360
63.08000 1.888
63.10000 3.432
63.12000 1.791
63.14000 2.366
63.16000 1.683
63.18000 -2.190
63.20000 -0.230
63.22000 3.514
63.24000 3.756
63.26000 3.518
63.28000 6.891
63.30000 6.588
63.32000 2.392
63.34000 1.915
63.36000 3.299
63.38000 1.124
63.40000 3.179
63.42000 0.538
63.44000 0.821
63.46000 3.966
63.48000 1.875
63.50000 0.900
63.52000 0.186
63.54000 1.303
63.56000 2.285
63.58000 0.857
63.60000 0.776
63.62000 1.549
63.64000 2.188
63.66000 2.561
63.68000 4.296
63.70000 3.106
63.72000 0.489
63.74000 0.992
63.76000 1.705
63.78000 0.300
63.80000 5.146
63.82000 1.159
63.84000 -1.874
63.86000 -1.889
63.88000 -1.525
63.90000 0.626
63.92000 0.213
63.94000 3.760
63.96000 1.032
63.98000 1.943
64.00000 2.314
64.02000 -1.178
64.04000 -0.186
64.06000 -0.435
64.08000 0.140
64.10000 1.548
64.12000 1.824
64.14000 2.556
64.16000 1.115
64.18000 0.247
64.20000 1.190
64.22000 -0.368
64.24000 0.451
64.26000 0.538
64.28000 1.052
64.30000 -0.512
64.32000 -1.122
64.34000 3.725
64.36000 3.863
64.38000 3.690
64.40000 2.301
64.42000 3.879
64.44000 2.635
64.46000 1.903
64.48000 4.801
64.50000 3.376
64.52000 -0.412
64.54000 -1.357
64.56000 1.433
64.58000 -0.182
64.60000 -2.217
64.62000 -2.216
64.64000 0.031
64.66000 0.120
64.68000 0.812
64.70000 2.183
64.72000 1.889
64.74000 1.518
64.76000 -1.292
64.78000 1.271
64.80000 1.274
64.82000 2.776
64.84000 2.610
64.86000 2.844
64.88000 2.791
64.90000 -1.156
64.92000 -2.212
64.94000 0.666
64.96000 3.179
64.98000 3.190
65.00000 1.528
65.02000 1.808
65.04000 2.110
65.06000 0.900
65.08000 -0.229
65.10000 -0.724
65.12000 0.440
65.14000 2.589
65.16000 1.666
65.18000 0.767
65.20000 0.839
65.22000 1.739
65.24000 0.693
65.26000 -0.211
65.28000 -0.772
65.30000 1.712
65.32000 2.769
65.34000 2.530
65.36000 -0.878
65.38000 -0.976
65.40000 -0.062
65.42000 -1.182
65.44000 0.232
65.46000 -0.729
65.48000 0.143
65.50000 -0.786
65.52000 -0.402
65.54000 -1.104
65.56000 -0.421
65.58000 -1.337
65.60000 1.271
65.62000 1.491
65.64000 3.179
65.66000 2.959
65.68000 1.991
65.70000 1.004
65.72000 -0.520
65.74000 3.726
65.76000 3.929
65.78000 0.540
65.80000 -0.705
65.82000 -2.196
65.84000 -0.176
65.86000 0.974
65.88000 3.091
65.90000 3.758
65.92000 3.420
65.94000 3.928
65.96000 1.391
65.98000 0.952
66.00000 2.054
66.02000 4.533
66.04000 1.387
66.06000 1.604
66.08000 2.647
66.10000 0.356
66.12000 0.755
66.14000 2.505
66.16000 1.628
66.18000 0.103
66.20000 -0.260
66.22000 1.396
66.24000 1.853
66.26000 -0.130
66.28000 0.110
66.30000 1.573
66.32000 0.646
66.34000 2.642
66.36000 2.406
66.38000 2.431
66.40000 2.653
66.42000 0.581
66.44000 1.291
66.46000 1.052
66.48000 3.723
66.50000 4.071
66.52000 3.584
66.54000 0.084
66.56000 1.908
66.58000 2.227
66.60000 2.898
66.62000 4.210
66.64000 2.737
66.66000 2.223
66.68000 -1.224
66.70000 3.119
66.72000 6.927
66.74000 5.120
66.76000 3.831
66.78000 3.565
66.80000 3.833
66.82000 7.846
66.84000 5.698
66.86000 4.563
66.88000 5.818
66.90000 5.579
66.92000 5.238
66.94000 4.128
66.96000 7.693
66.98000 6.503
67.00000 7.981
67.02000 5.638
67.04000 5.634
67.06000 6.396
67.08000 7.117
67.10000 6.477
67.12000 6.098
67.14000 9.209
67.16000 7.293
67.18000 7.961
67.20000 9.345
67.22000 9.911
67.24000 10.354
67.26000 10.748
67.28000 10.083
67.30000 13.299
67.32000 14.453
67.34000 12.812
67.36000 11.746
67.38000 11.265
67.40000 10.429
67.42000 10.656
67.44000 8.420
67.46000 8.482
67.48000 9.840
67.50000 12.668
67.52000 12.199
67.54000 13.736
67.56000 14.350
67.58000 14.034
67.60000 12.196
67.62000 11.002
67.64000 11.708
67.66000 11.757
67.68000 9.508
67.70000 11.097
67.72000 15.472
67.74000 15.661
67.76000 10.787
67.78000 11.019
67.80000 11.490
67.82000 9.498
67.84000 4.508
67.86000 7.345
67.88000 8.695
67.90000 10.743
67.92000 10.768
67.94000 8.669
67.96000 9.497
67.98000 8.795
68.00000 6.140
68.02000 5.567
68.04000 6.082
68.06000 7.142
68.08000 7.502
68.10000 4.749
68.12000 5.192
68.14000 4.311
68.16000 2.406
68.18000 3.651
68.20000 5.656
68.22000 7.126
68.24000 5.177
68.26000 4.048
68.28000 3.793
68.30000 4.382
68.32000 3.982
68.34000 2.403
68.36000 2.909
68.38000 4.785
68.40000 2.624
68.42000 -1.066
68.44000 -1.499
68.46000 -2.104
68.48000 -0.368
68.50000 0.227
68.52000 -1.920
68.54000 -0.517
68.56000 -0.689
68.58000 -0.400
68.60000 -0.358
68.62000 0.652
68.64000 0.613
68.66000 -1.201
68.68000 0.032
68.70000 -0.700
68.72000 -1.310
68.74000 -1.515
68.76000 0.959
68.78000 1.227
68.80000 2.704
68.82000 3.221
68.84000 0.631
68.86000 -0.878
68.88000 0.061
68.90000 2.086
68.92000 1.562
68.94000 2.095
68.96000 0.715
68.98000 1.588
69.00000 2.205
69.02000 -0.436
69.04000 -2.095
69.06000 0.516
69.08000 2.680
69.10000 1.069
69.12000 -2.085
69.14000 -0.527
69.16000 0.018
69.18000 0.073
69.20000 -0.251
69.22000 0.360
69.24000 0.211
69.26000 -0.775
69.28000 0.507
69.30000 1.054
69.32000 -0.794
69.34000 -0.729
69.36000 -1.001
69.38000 -1.874
69.40000 -0.913
69.42000 -2.076
69.44000 -1.457
69.46000 1.146
69.48000 0.005
69.50000 2.408
69.52000 0.705
69.54000 -0.314
69.56000 -0.296
69.58000 1.662
69.60000 0.889
69.62000 -0.451
69.64000 -1.317
69.66000 -1.838
69.68000 -0.868
69.70000 1.227
69.72000 1.662
69.74000 3.037
69.76000 1.086
69.78000 0.507
69.80000 0.928
69.82000 2.539
69.84000 -1.955
69.86000 -2.072
69.88000 -0.209
69.90000 1.359
69.92000 -1.200
69.94000 -1.377
69.96000 0.899
69.98000 0.315
70.00000 0.897
70.02000 1.609
70.04000 3.871
70.06000 0.413
70.08000 -0.025
70.10000 -1.678
70.12000 -0.288
70.14000 1.828
70.16000 0.400
70.18000 -0.780
70.20000 0.584
70.22000 1.336
70.24000 0.906
70.26000 0.564
70.28000 0.220
70.30000 1.260
70.32000 3.350
70.34000 1.506
70.36000 1.669
70.38000 1.013
70.40000 -0.066
70.42000 -1.272
70.44000 -0.832
70.46000 -1.662
70.48000 -1.632
70.50000 -1.499
70.52000 1.229
70.54000 0.106
70.56000 -0.280
70.58000 -0.553
70.60000 -2.042
70.62000 -1.772
70.64000 -1.319
70.66000 1.716
70.68000 4.331
70.70000 3.988
70.72000 1.756
70.74000 0.307
70.76000 -0.733
70.78000 1.954
70.80000 0.560
70.82000 -0.189
70.84000 0.736
70.86000 0.468
70.88000 -0.873
70.90000 1.516
70.92000 0.728
70.94000 2.999
70.96000 3.436
70.98000 -1.392
71.00000 -0.932
71.02000 2.109
71.04000 -0.479
71.06000 -0.339
71.08000 2.819
71.10000 1.683
71.12000 0.151
71.14000 0.041
71.16000 -1.628
71.18000 0.917
71.20000 1.139
71.22000 1.446
71.24000 0.117
71.26000 1.622
71.28000 -0.524
71.30000 -0.877
71.32000 0.294
71.34000 -2.008
71.36000 -0.774
71.38000 2.172
71.40000 2.409
71.42000 0.200
71.44000 -1.099
71.46000 -1.358
71.48000 0.089
71.50000 1.196
71.52000 -0.737
71.54000 0.384
71.56000 -0.373
71.58000 1.247
71.60000 0.669
71.62000 -1.901
71.64000 0.114
71.66000 0.728
71.68000 0.007
71.70000 -1.951
71.72000 -0.441
71.74000 2.145
71.76000 2.850
71.78000 1.720
71.80000 -0.008
71.82000 2.487
71.84000 2.570
71.86000 0.825
71.88000 2.686
71.90000 1.340
71.92000 0.581
71.94000 -0.224
71.96000 -1.521
71.98000 -1.362
72.00000 -0.629
72.02000 -0.794
72.04000 0.292
72.06000 -1.984
72.08000 -1.021
72.10000 0.809
72.12000 0.644
72.14000 -1.907
72.16000 -0.076
72.18000 0.814
72.20000 1.374
72.22000 2.510
72.24000 2.084
72.26000 0.089
72.28000 0.470
72.30000 1.403
72.32000 -0.885
72.34000 -1.965
72.36000 0.665
72.38000 -0.994
72.40000 -0.584
72.42000 -0.551
72.44000 -0.328
72.46000 0.524
72.48000 0.517
72.50000 1.985
72.52000 2.076
72.54000 -1.138
72.56000 0.121
72.58000 0.780
72.60000 3.204
72.62000 1.860
72.64000 -1.642
72.66000 -1.096
72.68000 1.024
72.70000 1.500
72.72000 1.322
72.74000 -1.369
72.76000 -0.298
72.78000 0.278
72.80000 -0.680
72.82000 -0.793
72.84000 -0.891
72.86000 -1.939
72.88000 2.445
72.90000 3.079
72.92000 0.509
72.94000 -0.968
72.96000 -1.327
72.98000 -0.391
73.00000 2.306
73.02000 1.925
73.04000 -0.749
73.06000 2.178
73.08000 2.077
73.10000 2.626
73.12000 3.317
73.14000 3.124
73.16000 1.436
73.18000 2.153
73.20000 0.874
73.22000 0.505
73.24000 2.286
73.26000 0.906
73.28000 1.016
73.30000 0.318
73.32000 0.564
73.34000 3.186
73.36000 2.306
73.38000 1.832
73.40000 0.579
73.42000 0.055
73.44000 0.302
73.46000 -1.647
73.48000 1.682
73.50000 0.858
73.52000 0.751
73.54000 1.680
73.56000 0.487
73.58000 -0.582
73.60000 -1.749
73.62000 0.292
73.64000 2.172
73.66000 -1.239
73.68000 -0.630
73.70000 2.594
73.72000 1.054
73.74000 0.401
73.76000 1.774
73.78000 4.862
73.80000 5.143
73.82000 2.927
73.84000 0.301
73.86000 2.845
73.88000 0.948
73.90000 -1.898
73.92000 -1.661
73.94000 1.487
73.96000 1.244
73.98000 4.037
74.00000 0.413
74.02000 -1.232
74.04000 -1.902
74.06000 -0.408
74.08000 3.050
74.10000 2.288
74.12000 2.814
74.14000 1.872
74.16000 2.341
74.18000 1.659
74.20000 -0.115
74.22000 -1.213
74.24000 2.908
74.26000 2.857
74.28000 1.980
74.30000 0.765
74.32000 1.879
74.34000 3.157
74.36000 5.028
74.38000 0.052
74.40000 -1.021
74.42000 2.985
74.44000 3.057
74.46000 0.759
74.48000 -1.157
74.50000 0.641
74.52000 1.308
74.54000 -0.297
74.56000 0.756
74.58000 1.460
74.60000 3.332
74.62000 0.735
74.64000 1.570
74.66000 2.250
74.68000 3.449
74.70000 1.956
74.72000 0.551
74.74000 -1.897
74.76000 1.467
74.78000 1.867
74.80000 1.439
74.82000 2.427
74.84000 3.837
74.86000 2.127
74.88000 -0.692
74.90000 0.024
74.92000 2.777
74.94000 1.711
74.96000 0.854
74.98000 1.224
75.00000 3.484
75.02000 3.216
75.04000 3.066
75.06000 2.107
75.08000 5.652
75.10000 3.941
75.12000 0.739
75.14000 1.862
75.16000 0.837
75.18000 -0.151
75.20000 0.534
75.22000 3.055
75.24000 1.095
75.26000 1.370
75.28000 -1.086
75.30000 4.036
75.32000 1.632
75.34000 2.158
75.36000 2.987
75.38000 1.638
75.40000 -0.113
75.42000 2.010
75.44000 3.850
75.46000 1.832
75.48000 -0.144
75.50000 -0.898
75.52000 2.874
75.54000 3.659
75.56000 5.214
75.58000 5.418
75.60000 2.019
75.62000 2.649
75.64000 2.211
75.66000 -0.145
75.68000 1.307
75.70000 3.867
75.72000 2.224
75.74000 1.295
75.76000 3.547
75.78000 2.460
75.80000 3.404
75.82000 1.319
75.84000 0.243
75.86000 -0.305
75.88000 0.667
75.90000 4.302
75.92000 4.177
75.94000 0.301
75.96000 -1.903
75.98000 -0.437
76.00000 0.379
76.02000 2.198
76.04000 2.372
76.06000 0.633
76.08000 1.176
76.10000 1.314
76.12000 3.229
76.14000 3.545
76.16000 3.900
76.18000 2.912
76.20000 6.348
76.22000 4.457
76.24000 1.823
76.26000 -1.797
76.28000 0.220
76.30000 -0.876
76.32000 1.069
76.34000 -0.668
76.36000 1.673
76.38000 2.582
76.40000 0.983
76.42000 2.935
76.44000 3.279
76.46000 2.028
76.48000 1.577
76.50000 2.393
76.52000 1.028
76.54000 2.145
76.56000 3.100
76.58000 -0.836
76.60000 -0.688
76.62000 2.443
76.64000 1.531
76.66000 1.304
76.68000 0.538
76.70000 -1.685
76.72000 0.377
76.74000 -0.715
76.76000 -0.445
76.78000 0.229
76.80000 2.139
76.82000 4.602
76.84000 2.753
76.86000 1.260
76.88000 0.392
76.90000 0.440
76.92000 -0.505
76.94000 1.085
76.96000 -1.026
76.98000 0.960
77.00000 -0.657
77.02000 -1.667
77.04000 0.200
77.06000 -0.407
77.08000 4.659
77.10000 1.607
77.12000 1.191
77.14000 2.372
77.16000 3.744
77.18000 4.001
77.20000 3.951
77.22000 2.736
77.24000 1.330
77.26000 1.939
77.28000 3.614
77.30000 2.727
77.32000 3.138
77.34000 1.330
77.36000 0.759
77.38000 2.751
77.40000 1.420
77.42000 -1.930
77.44000 -1.065
77.46000 3.629
77.48000 6.720
77.50000 6.350
77.52000 4.862
77.54000 1.448
77.56000 2.759
77.58000 4.652
77.60000 3.263
77.62000 1.462
77.64000 0.267
77.66000 3.345
77.68000 3.396
77.70000 0.366
77.72000 0.746
77.74000 0.679
77.76000 2.731
77.78000 4.371
77.80000 4.145
77.82000 4.809
77.84000 2.935
77.86000 2.032
77.88000 4.806
77.90000 5.745
77.92000 3.840
77.94000 0.041
77.96000 1.254
77.98000 1.484
78.00000 2.618
78.02000 3.354
78.04000 3.382
78.06000 3.591
78.08000 2.268
78.10000 4.043
78.12000 3.778
78.14000 3.509
78.16000 4.088
78.18000 2.242
78.20000 -1.919
78.22000 0.674
78.24000 4.289
78.26000 6.244
78.28000 4.235
78.30000 3.473
78.32000 3.621
78.34000 4.545
78.36000 4.363
78.38000 4.959
78.40000 3.862
78.42000 4.235
78.44000 2.773
78.46000 4.296
78.48000 3.457
78.50000 2.218
78.52000 0.367
78.54000 1.986
78.56000 0.360
78.58000 0.102
78.60000 3.817
78.62000 4.597
78.64000 4.175
78.66000 4.423
78.68000 6.175
78.70000 6.100
78.72000 5.815
78.74000 4.488
78.76000 1.495
78.78000 0.903
78.80000 4.860
78.82000 3.357
78.84000 0.909
78.86000 2.209
78.88000 2.171
78.90000 2.378
78.92000 3.265
78.94000 3.040
78.96000 0.190
78.98000 -1.994
79.00000 1.331
79.02000 2.574
79.04000 1.855
79.06000 3.354
79.08000 1.924
79.10000 1.006
79.12000 -1.419
79.14000 3.193
79.16000 3.020
79.18000 3.307
79.20000 5.746
79.22000 1.291
79.24000 -0.553
79.26000 -0.126
79.28000 1.674
79.30000 -0.050
79.32000 1.281
79.34000 0.512
79.36000 1.154
79.38000 -0.409
79.40000 -0.696
79.42000 1.484
79.44000 4.733
79.46000 4.481
79.48000 2.155
79.50000 0.961
79.52000 3.012
79.54000 0.910
79.56000 0.669
79.58000 2.997
79.60000 3.114
79.62000 0.282
79.64000 0.348
79.66000 1.249
79.68000 -1.474
79.70000 -2.040
79.72000 1.255
79.74000 2.535
79.76000 2.610
79.78000 6.162
79.80000 2.435
79.82000 1.311
79.84000 0.944
79.86000 1.631
79.88000 1.257
79.90000 1.739
79.92000 1.941
79.94000 -0.503
79.96000 1.913
79.98000 1.497
80.00000 4.716
80.02000 6.410
80.04000 3.431
80.06000 3.725
80.08000 0.182
80.10000 2.265
80.12000 5.041
80.14000 1.314
80.16000 3.201
80.18000 3.984
80.20000 6.542
80.22000 5.970
80.24000 2.953
80.26000 4.298
80.28000 1.902
80.30000 1.216
80.32000 2.479
80.34000 2.710
80.36000 5.067
80.38000 5.216
80.40000 4.411
80.42000 5.673
80.44000 6.785
80.46000 8.448
80.48000 3.630
80.50000 1.812
80.52000 3.204
80.54000 7.821
80.56000 7.542
80.58000 7.016
80.60000 6.101
80.62000 8.882
80.64000 7.221
80.66000 9.221
80.68000 6.737
80.70000 8.609
80.72000 10.199
80.74000 9.565
80.76000 5.774
80.78000 6.556
80.80000 6.762
80.82000 7.654
80.84000 11.002
80.86000 11.946
80.88000 12.149
80.90000 13.242
80.92000 16.205
80.94000 16.206
80.96000 12.042
80.98000 14.197
81.00000 13.267
81.02000 14.319
81.04000 17.665
81.06000 18.027
81.08000 17.115
81.10000 15.926
81.12000 16.680
81.14000 16.487
81.16000 16.582
81.18000 17.350
81.20000 18.783
81.22000 20.133
81.24000 18.578
81.26000 16.881
81.28000 19.961
81.30000 23.092
81.32000 20.132
81.34000 17.539
81.36000 18.165
81.38000 22.041
81.40000 21.989
81.42000 21.710
81.44000 18.959
81.46000 17.756
81.48000 20.026
81.50000 23.466
81.52000 20.437
81.54000 19.225
81.56000 16.607
81.58000 19.205
81.60000 17.664
81.62000 19.436
81.64000 20.487
81.66000 18.158
81.68000 20.577
81.70000 15.935
81.72000 16.803
81.74000 19.256
81.76000 17.296
81.78000 19.319
81.80000 16.425
81.82000 16.835
81.84000 16.799
81.86000 17.739
81.88000 12.132
81.90000 11.347
81.92000 10.632
81.94000 10.533
81.96000 14.280
81.98000 13.603
82.00000 12.607
82.02000 13.780
82.04000 9.246
82.06000 9.331
82.08000 14.021
82.10000 14.045
82.12000 11.914
82.14000 9.488
82.16000 8.383
82.18000 9.384
82.20000 5.181
82.22000 6.222
82.24000 8.135
82.26000 7.646
82.28000 8.689
82.30000 7.326
82.32000 5.192
82.34000 8.520
82.36000 8.662
82.38000 5.294
82.40000 4.184
82.42000 6.497
82.44000 7.910
82.46000 4.230
82.48000 7.240
82.50000 7.487
82.52000 5.066
82.54000 -2.043
82.56000 -1.047
82.58000 3.212
82.60000 4.655
82.62000 0.149
82.64000 0.167
82.66000 4.899
82.68000 4.938
82.70000 2.947
82.72000 3.385
82.74000 6.013
82.76000 4.487
82.78000 4.121
82.80000 0.912
82.82000 1.735
82.84000 4.347
82.86000 4.493
82.88000 5.975
82.90000 4.730
82.92000 0.571
82.94000 0.770
82.96000 5.402
82.98000 4.801
83.00000 1.719
83.02000 2.608
83.04000 3.023
83.06000 -1.166
83.08000 -1.099
83.10000 -2.058
83.12000 -0.095
83.14000 -1.118
83.16000 0.916
83.18000 1.146
83.20000 1.810
83.22000 3.776
83.24000 4.698
83.26000 4.035
83.28000 3.979
83.30000 2.811
83.32000 0.564
83.34000 -1.172
83.36000 -1.271
83.38000 -0.538
83.40000 0.320
83.42000 1.410
83.44000 -1.061
83.46000 2.629
83.48000 4.694
83.50000 2.241
83.52000 -1.457
83.54000 0.036
83.56000 0.056
83.58000 0.063
83.60000 -0.090
83.62000 0.246
83.64000 -0.175
83.66000 1.380
83.68000 0.406
83.70000 0.950
83.72000 0.831
83.74000 0.177
83.76000 2.268
83.78000 -0.306
83.80000 0.899
83.82000 1.095
83.84000 1.650
83.86000 0.676
83.88000 0.642
83.90000 1.724
83.92000 1.449
83.94000 1.224
83.96000 -0.611
83.98000 1.680
84.00000 0.527
84.02000 3.390
84.04000 1.357
84.06000 1.245
84.08000 0.257
84.10000 2.769
84.12000 2.674
84.14000 0.967
84.16000 -0.078
84.18000 0.348
84.20000 1.151
84.22000 0.830
84.24000 1.164
84.26000 2.694
84.28000 1.101
84.30000 1.371
84.32000 3.113
84.34000 2.546
84.36000 5.599
84.38000 0.575
84.40000 1.645
84.42000 -0.477
84.44000 -2.124
84.46000 3.230
84.48000 7.078
84.50000 5.833
84.52000 5.045
84.54000 5.131
84.56000 4.753
84.58000 3.795
84.60000 2.894
84.62000 2.284
84.64000 2.935
84.66000 7.114
84.68000 7.432
84.70000 6.567
84.72000 8.386
84.74000 9.617
84.76000 8.421
84.78000 6.220
84.80000 5.863
84.82000 7.935
84.84000 9.411
84.86000 5.239
84.88000 9.149
84.90000 9.809
84.92000 13.136
84.94000 13.022
84.96000 14.744
84.98000 12.913
85.00000 12.085
85.02000 12.254
85.04000 13.768
85.06000 13.311
85.08000 10.614
85.10000 13.034
85.12000 14.632
85.14000 13.384
85.16000 14.279
85.18000 13.058
85.20000 15.760
85.22000 15.001
85.24000 14.006
85.26000 15.924
85.28000 14.406
85.30000 14.122
85.32000 16.506
85.34000 16.755
85.36000 17.075
85.38000 14.375
85.40000 12.471
85.42000 15.262
85.44000 16.918
85.46000 16.940
85.48000 17.378
85.50000 18.214
85.52000 23.938
85.54000 18.761
85.56000 16.324
85.58000 16.497
85.60000 16.046
85.62000 13.898
85.64000 16.284
85.66000 17.224
85.68000 15.207
85.70000 19.446
85.72000 18.247
85.74000 16.075
85.76000 16.937
85.78000 17.248
85.80000 17.522
85.82000 15.798
85.84000 13.095
85.86000 12.746
85.88000 12.906
85.90000 13.609
85.92000 14.484
85.94000 13.687
85.96000 17.369
85.98000 9.419
86.00000 7.449
86.02000 9.803
86.04000 12.500
86.06000 12.142
86.08000 11.729
86.10000 10.070
86.12000 11.211
86.14000 11.821
86.16000 8.404
86.18000 7.071
86.20000 5.156
86.22000 4.959
86.24000 3.325
86.26000 3.571
86.28000 3.033
86.30000 3.336
86.32000 2.810
86.34000 0.834
86.36000 3.350
86.38000 4.315
86.40000 2.146
86.42000 1.922
86.44000 2.321
86.46000 4.929
86.48000 2.210
86.50000 3.287
86.52000 1.398
86.54000 0.706
86.56000 0.009
86.58000 -0.550
86.60000 -1.980
86.62000 -1.519
86.64000 5.100
86.66000 2.449
86.68000 2.241
86.70000 1.321
86.72000 1.405
86.74000 3.976
86.76000 5.200
86.78000 2.219
86.80000 4.949
86.82000 1.727
86.84000 -1.940
86.86000 -0.784
86.88000 2.066
86.90000 2.527
86.92000 2.969
86.94000 1.799
86.96000 1.354
86.98000 2.176
87.00000 1.784
87.02000 1.087
87.04000 2.611
87.06000 4.712
87.08000 1.601
87.10000 0.070
87.12000 2.139
87.14000 2.363
87.16000 0.097
87.18000 0.325
87.20000 2.099
87.22000 0.551
87.24000 -0.904
87.26000 -1.407
87.28000 -1.755
87.30000 -0.223
87.32000 1.142
87.34000 6.378
87.36000 5.621
87.38000 3.279
87.40000 5.080
87.42000 3.059
87.44000 0.934
87.46000 2.245
87.48000 2.402
87.50000 6.813
87.52000 6.481
87.54000 3.398
87.56000 4.706
87.58000 4.859
87.60000 2.585
87.62000 1.521
87.64000 2.534
87.66000 4.727
87.68000 1.333
87.70000 -1.774
87.72000 -1.791
87.74000 2.271
87.76000 2.369
87.78000 1.816
87.80000 5.053
87.82000 5.464
87.84000 2.359
87.86000 2.271
87.88000 3.920
87.90000 4.885
87.92000 1.657
87.94000 2.105
87.96000 1.798
87.98000 0.719
88.00000 2.734
88.02000 1.732
88.04000 1.545
88.06000 1.729
88.08000 1.393
88.10000 1.802
88.12000 2.603
88.14000 1.567
88.16000 1.328
88.18000 -0.288
88.20000 1.055
88.22000 3.442
88.24000 0.884
88.26000 -1.801
88.28000 3.252
88.30000 2.244
88.32000 0.907
88.34000 1.182
88.36000 -0.185
88.38000 1.991
88.40000 1.966
88.42000 0.288
88.44000 3.467
88.46000 -0.303
88.48000 1.797
88.50000 1.004
88.52000 4.075
88.54000 4.196
88.56000 1.508
88.58000 3.106
88.60000 1.729
88.62000 4.273
88.64000 4.093
88.66000 0.692
88.68000 0.013
88.70000 0.980
88.72000 0.645
88.74000 0.424
88.76000 1.857
88.78000 -0.026
88.80000 1.433
88.82000 1.167
88.84000 -0.649
88.86000 3.446
88.88000 5.745
88.90000 4.212
88.92000 3.801
88.94000 1.068
88.96000 2.123
88.98000 1.402
89.00000 -1.615
89.02000 0.111
89.04000 1.096
89.06000 -1.619
89.08000 0.991
89.10000 0.628
89.12000 -0.125
89.14000 -1.797
89.16000 2.456
89.18000 2.761
89.20000 4.266
89.22000 1.265
89.24000 2.880
89.26000 0.858
89.28000 0.649
89.30000 2.274
89.32000 4.073
89.34000 4.034
89.36000 3.704
89.38000 3.467
89.40000 3.215
89.42000 3.978
89.44000 1.505
89.46000 4.577
89.48000 4.168
89.50000 2.376
89.52000 3.388
89.54000 6.137
89.56000 6.624
89.58000 2.715
89.60000 0.118
89.62000 3.176
89.64000 5.470
89.66000 2.814
89.68000 1.869
89.70000 2.772
89.72000 0.788
89.74000 2.217
89.76000 3.831
89.78000 -0.092
89.80000 -0.524
89.82000 1.071
89.84000 -1.017
89.86000 -1.790
89.88000 1.615
89.90000 2.620
89.92000 2.521
89.94000 1.402
89.96000 0.094
89.98000 0.732
90.00000 3.447
90.02000 3.037
90.04000 1.129
90.06000 1.803
90.08000 0.218
90.10000 3.389
90.12000 1.320
90.14000 0.748
90.16000 1.858
90.18000 4.197
90.20000 5.329
90.22000 1.420
90.24000 1.879
90.26000 0.683
90.28000 2.201
90.30000 0.280
90.32000 1.700
90.34000 2.254
90.36000 2.319
90.38000 1.534
90.40000 1.510
90.42000 3.783
90.44000 3.826
90.46000 2.979
90.48000 2.373
90.50000 0.084
90.52000 1.863
90.54000 3.612
90.56000 3.223
90.58000 2.331
90.60000 0.112
90.62000 0.190
90.64000 -1.788
90.66000 1.993
90.68000 5.787
90.70000 4.488
90.72000 0.758
90.74000 3.090
90.76000 5.183
90.78000 2.152
90.80000 1.724
90.82000 2.452
90.84000 0.092
90.86000 2.005
90.88000 0.490
90.90000 -1.800
90.92000 -1.041
90.94000 -0.041
90.96000 1.953
90.98000 3.814
91.00000 5.505
91.02000 1.167
91.04000 1.251
91.06000 -0.212
91.08000 -0.069
91.10000 1.655
91.12000 3.751
91.14000 3.353
91.16000 1.403
91.18000 2.178
91.20000 4.285
91.22000 3.359
91.24000 0.477
91.26000 -0.083
91.28000 2.694
91.30000 0.784
91.32000 -1.302
91.34000 0.307
91.36000 -0.348
91.38000 0.872
91.40000 1.735
91.42000 1.238
91.44000 0.494
91.46000 1.640
91.48000 0.305
91.50000 -1.452
91.52000 0.566
91.54000 0.666
91.56000 0.710
91.58000 -0.128
91.60000 -0.640
91.62000 -0.327
91.64000 -0.379
91.66000 1.876
91.68000 0.918
91.70000 -1.553
91.72000 0.197
91.74000 -0.450
91.76000 -0.158
91.78000 -1.823
91.80000 -1.806
91.82000 1.648
91.84000 3.931
91.86000 2.952
91.88000 -1.255
91.90000 -0.216
91.92000 3.009
91.94000 1.867
91.96000 3.334
91.98000 2.522
92.00000 0.478
92.02000 2.096
92.04000 2.580
92.06000 0.155
92.08000 0.153
92.10000 2.035
92.12000 1.854
92.14000 0.346
92.16000 3.040
92.18000 0.796
92.20000 2.309
92.22000 0.001
92.24000 1.622
92.26000 1.430
92.28000 1.304
92.30000 0.989
92.32000 4.074
92.34000 3.636
92.36000 3.793
92.38000 5.026
92.40000 2.380
92.42000 2.706
92.44000 1.894
92.46000 1.960
92.48000 1.520
92.50000 0.696
92.52000 0.826
92.54000 1.786
92.56000 1.281
92.58000 2.198
92.60000 1.357
92.62000 -0.847
92.64000 -1.200
92.66000 2.123
92.68000 3.424
92.70000 2.118
92.72000 0.229
92.74000 -1.797
92.76000 -1.209
92.78000 3.727
92.80000 4.064
92.82000 3.985
92.84000 4.116
92.86000 4.339
92.88000 2.409
92.90000 1.147
92.92000 1.194
92.94000 0.935
92.96000 4.353
92.98000 3.985
93.00000 2.260
93.02000 3.706
93.04000 2.979
93.06000 1.437
93.08000 2.839
93.10000 1.859
93.12000 3.026
93.14000 1.495
93.16000 -1.821
93.18000 -1.623
93.20000 1.929
93.22000 4.344
93.24000 5.933
93.26000 4.919
93.28000 1.511
93.30000 0.719
93.32000 1.843
93.34000 2.049
93.36000 2.592
93.38000 0.987
93.40000 0.637
93.42000 -0.181
93.44000 -1.283
93.46000 1.111
93.48000 4.289
93.50000 0.303
93.52000 0.408
93.54000 -1.064
93.56000 -0.230
93.58000 1.923
93.60000 2.313
93.62000 2.267
93.64000 0.802
93.66000 1.599
93.68000 0.260
93.70000 -0.365
93.72000 -0.401
93.74000 1.812
93.76000 2.551
93.78000 1.194
93.80000 -1.807
93.82000 -1.724
93.84000 -1.374
93.86000 -1.838
93.88000 0.905
93.90000 3.484
93.92000 3.192
93.94000 2.042
93.96000 -0.118
93.98000 -1.088
94.00000 0.168
94.02000 -0.695
94.04000 -0.277
94.06000 -1.392
94.08000 -1.207
94.10000 -1.404
94.12000 0.282
94.14000 2.256
94.16000 1.691
94.18000 3.103
94.20000 2.714
94.22000 0.533
94.24000 -1.387
94.26000 1.674
94.28000 3.877
94.30000 3.719
94.32000 3.707
94.34000 1.446
94.36000 0.511
94.38000 -0.418
94.40000 -0.176
94.42000 -0.396
94.44000 0.583
94.46000 0.491
94.48000 1.773
94.50000 3.409
94.52000 3.588
94.54000 4.781
94.56000 5.526
94.58000 3.715
94.60000 0.150
94.62000 2.110
94.64000 4.330
94.66000 3.314
94.68000 -1.525
94.70000 -1.734
94.72000 -1.836
94.74000 1.113
94.76000 0.634
94.78000 -1.771
94.80000 -0.986
94.82000 1.099
94.84000 4.370
94.86000 4.570
94.88000 4.503
94.90000 0.385
94.92000 0.239
94.94000 0.990
94.96000 2.846
94.98000 3.319
95.00000 4.688
95.02000 4.203
95.04000 3.201
95.06000 2.018
95.08000 3.188
95.10000 6.608
95.12000 4.634
95.14000 4.346
95.16000 2.998
95.18000 -1.836
95.20000 -0.312
95.22000 0.197
95.24000 0.423
95.26000 2.853
95.28000 2.899
95.30000 2.514
95.32000 -0.074
95.34000 3.238
95.36000 3.916
95.38000 3.966
95.40000 3.265
95.42000 2.251
95.44000 3.826
95.46000 1.457
95.48000 0.466
95.50000 4.043
95.52000 2.848
95.54000 5.152
95.56000 4.145
95.58000 1.222
95.60000 2.882
95.62000 3.697
95.64000 2.464
95.66000 1.465
95.68000 3.372
95.70000 4.986
95.72000 4.789
95.74000 1.666
95.76000 -0.245
95.78000 -0.430
95.80000 -0.281
95.82000 2.814
95.84000 3.803
95.86000 3.211
95.88000 3.620
95.90000 4.218
95.92000 3.764
95.94000 0.812
95.96000 1.115
95.98000 4.442
96.00000 5.080
96.02000 5.110
96.04000 3.025
96.06000 -0.084
96.08000 3.135
96.10000 5.472
96.12000 5.193
96.14000 -0.418
96.16000 -1.775
96.18000 5.078
96.20000 3.829
96.22000 4.168
96.24000 6.167
96.26000 2.763
96.28000 2.463
96.30000 3.234
96.32000 2.525
96.34000 3.224
96.36000 2.450
96.38000 1.651
96.40000 3.225
96.42000 2.486
96.44000 3.311
96.46000 4.410
96.48000 -0.199
96.50000 0.854
96.52000 6.395
96.54000 3.536
96.56000 5.563
96.58000 5.074
96.60000 3.434
96.62000 6.801
96.64000 5.834
96.66000 3.804
96.68000 5.486
96.70000 9.104
96.72000 6.797
96.74000 7.245
96.76000 4.493
96.78000 3.751
96.80000 4.264
96.82000 3.380
96.84000 2.681
96.86000 5.513
96.88000 9.033
96.90000 6.360
96.92000 0.701
96.94000 -0.316
96.96000 0.376
96.98000 1.300
97.00000 3.766
97.02000 1.109
97.04000 2.443
97.06000 -0.023
97.08000 3.809
97.10000 3.361
97.12000 5.196
97.14000 7.780
97.16000 1.951
97.18000 -1.137
97.20000 -0.243
97.22000 -0.668
97.24000 0.004
97.26000 3.824
97.28000 2.058
97.30000 4.410
97.32000 1.595
97.34000 1.116
97.36000 -0.039
97.38000 5.091
97.40000 5.373
97.42000 3.308
97.44000 4.422
97.46000 5.048
97.48000 5.231
97.50000 3.089
97.52000 5.904
97.54000 6.212
97.56000 3.236
97.58000 6.103
97.60000 3.376
97.62000 6.856
97.64000 5.970
97.66000 7.145
97.68000 3.129
97.70000 4.785
97.72000 3.008
97.74000 3.663
97.76000 4.093
97.78000 4.445
97.80000 2.065
97.82000 3.652
97.84000 3.531
97.86000 5.519
97.88000 8.324
97.90000 0.183
97.92000 -1.749
97.94000 2.265
97.96000 6.281
97.98000 1.681
98.00000 4.415
98.02000 -0.606
98.04000 4.129
98.06000 1.634
98.08000 2.495
98.10000 6.051
98.12000 5.416
98.14000 3.500
98.16000 2.036
98.18000 5.894
98.20000 9.909
98.22000 4.967
98.24000 -1.349
98.26000 2.007
98.28000 4.666
98.30000 6.424
98.32000 2.520
98.34000 5.651
98.36000 4.604
98.38000 4.944
98.40000 6.184
98.42000 6.204
98.44000 4.934
98.46000 3.786
98.48000 11.939
98.50000 0.585
98.52000 1.257
98.54000 3.125
98.56000 -0.936
98.58000 1.941
98.60000 2.583
98.62000 4.210
98.64000 3.347
98.66000 3.456
98.68000 5.734
98.70000 3.689
98.72000 6.394
98.74000 9.175
98.76000 9.804
98.78000 8.675
98.80000 2.754
98.82000 -0.218
98.84000 4.113
98.86000 5.765
98.88000 5.755
98.90000 4.216
98.92000 9.101
98.94000 9.012
98.96000 1.593
98.98000 -1.750
99.00000 2.312
99.02000 2.453
99.04000 -0.688
99.06000 3.379
99.08000 5.662
99.10000 1.762
99.12000 2.110
99.14000 2.528
99.16000 4.041
99.18000 4.927
99.20000 2.904
99.22000 -0.415
99.24000 0.640
99.26000 0.621
99.28000 4.988
99.30000 6.404
99.32000 3.594
99.34000 -0.292
99.36000 0.715
99.38000 5.391
99.40000 3.756
99.42000 4.487
99.44000 6.298
99.46000 7.003
99.48000 3.302
99.50000 3.605
99.52000 -0.875
99.54000 4.837
99.56000 1.002
99.58000 7.657
99.60000 4.740
99.62000 3.745
99.64000 2.362
99.66000 4.832
99.68000 4.421
99.70000 -0.115
99.72000 2.337
99.74000 8.609
99.76000 3.581
99.78000 1.890
99.80000 9.767
99.82000 8.543
99.84000 4.034
99.86000 2.014
99.88000 -1.744
99.90000 2.140
99.92000 1.452
99.94000 2.348
99.96000 1.681
99.98000 0.000
