'Id: "0011388" Comment: "Integrate frame 0011388_Au-Ir-Rh_Rh-rich_XRD-Mapping-138-0000.gfrmwith cursor Wedge Cursor #5" Operator: "B?rgel" Anode: "Cu" Wavelength: "1.5406" Scantype: "2Theta (TwoTheta)" TimePerStep: "1" X: "-36" Y: "-4.5" Z: "5.95" 
10.00000 0.000
10.02000 -11.830
10.04000 7.095
10.06000 11.340
10.08000 21.858
10.10000 -2.795
10.12000 11.285
10.14000 13.986
10.16000 3.907
10.18000 -1.619
10.20000 -4.484
10.22000 14.840
10.24000 17.118
10.26000 -1.653
10.28000 3.511
10.30000 24.212
10.32000 23.641
10.34000 23.857
10.36000 0.836
10.38000 2.194
10.40000 -4.466
10.42000 11.477
10.44000 13.761
10.46000 14.998
10.48000 14.968
10.50000 13.908
10.52000 4.697
10.54000 3.650
10.56000 14.077
10.58000 9.986
10.60000 6.722
10.62000 22.368
10.64000 24.066
10.66000 25.637
10.68000 12.744
10.70000 -2.514
10.72000 18.062
10.74000 28.885
10.76000 27.534
10.78000 17.833
10.80000 14.436
10.82000 11.263
10.84000 9.455
10.86000 18.218
10.88000 12.963
10.90000 4.276
10.92000 6.963
10.94000 0.161
10.96000 25.427
10.98000 19.721
11.00000 27.269
11.02000 13.295
11.04000 16.052
11.06000 14.100
11.08000 9.773
11.10000 19.093
11.12000 28.774
11.14000 19.197
11.16000 -3.318
11.18000 -4.426
11.20000 8.672
11.22000 7.014
11.24000 5.068
11.26000 21.416
11.28000 31.838
11.30000 13.684
11.32000 5.336
11.34000 4.584
11.36000 10.962
11.38000 21.194
11.40000 24.623
11.42000 16.565
11.44000 13.829
11.46000 10.627
11.48000 12.485
11.50000 2.233
11.52000 4.623
11.54000 1.538
11.56000 13.895
11.58000 18.049
11.60000 18.770
11.62000 18.563
11.64000 14.302
11.66000 0.967
11.68000 13.758
11.70000 21.349
11.72000 18.679
11.74000 4.570
11.76000 8.177
11.78000 15.394
11.80000 6.861
11.82000 17.936
11.84000 24.682
11.86000 21.904
11.88000 7.501
11.90000 3.210
11.92000 2.636
11.94000 1.634
11.96000 10.769
11.98000 15.616
12.00000 11.300
12.02000 12.341
12.04000 11.379
12.06000 9.217
12.08000 10.203
12.10000 14.768
12.12000 22.560
12.14000 14.093
12.16000 9.203
12.18000 14.181
12.20000 12.534
12.22000 0.530
12.24000 6.351
12.26000 13.686
12.28000 18.686
12.30000 15.182
12.32000 17.980
12.34000 19.928
12.36000 13.130
12.38000 19.082
12.40000 25.255
12.42000 12.872
12.44000 11.438
12.46000 -1.982
12.48000 -0.321
12.50000 2.093
12.52000 10.755
12.54000 1.975
12.56000 -1.491
12.58000 3.076
12.60000 9.728
12.62000 4.879
12.64000 6.211
12.66000 8.236
12.68000 23.684
12.70000 6.209
12.72000 6.653
12.74000 17.966
12.76000 16.933
12.78000 4.801
12.80000 4.719
12.82000 12.237
12.84000 6.668
12.86000 9.425
12.88000 11.562
12.90000 8.414
12.92000 4.238
12.94000 7.075
12.96000 16.741
12.98000 19.817
13.00000 14.825
13.02000 19.324
13.04000 13.260
13.06000 15.714
13.08000 12.125
13.10000 11.274
13.12000 5.255
13.14000 4.769
13.16000 -1.880
13.18000 1.914
13.20000 11.346
13.22000 5.944
13.24000 4.859
13.26000 4.950
13.28000 7.763
13.30000 12.423
13.32000 3.807
13.34000 5.959
13.36000 5.908
13.38000 13.108
13.40000 14.983
13.42000 8.448
13.44000 0.409
13.46000 8.152
13.48000 0.665
13.50000 4.707
13.52000 5.968
13.54000 5.696
13.56000 0.873
13.58000 4.674
13.60000 7.477
13.62000 10.267
13.64000 4.691
13.66000 7.312
13.68000 11.520
13.70000 17.114
13.72000 1.280
13.74000 4.711
13.76000 11.856
13.78000 10.593
13.80000 7.271
13.82000 3.578
13.84000 10.172
13.86000 15.419
13.88000 15.148
13.90000 4.506
13.92000 -0.453
13.94000 6.071
13.96000 6.824
13.98000 5.089
14.00000 4.212
14.02000 6.603
14.04000 16.550
14.06000 20.590
14.08000 2.765
14.10000 6.036
14.12000 9.339
14.14000 9.613
14.16000 8.849
14.18000 12.342
14.20000 0.258
14.22000 -4.487
14.24000 -4.471
14.26000 3.129
14.28000 6.873
14.30000 7.794
14.32000 12.575
14.34000 16.514
14.36000 4.362
14.38000 4.202
14.40000 8.249
14.42000 8.083
14.44000 5.588
14.46000 13.841
14.48000 17.218
14.50000 11.736
14.52000 8.811
14.54000 14.053
14.56000 7.231
14.58000 -0.003
14.60000 -3.251
14.62000 2.267
14.64000 6.870
14.66000 1.108
14.68000 2.266
14.70000 11.293
14.72000 14.381
14.74000 9.852
14.76000 4.817
14.78000 5.993
14.80000 6.884
14.82000 8.639
14.84000 3.561
14.86000 8.126
14.88000 7.707
14.90000 9.983
14.92000 9.522
14.94000 12.078
14.96000 11.534
14.98000 11.494
15.00000 -0.377
15.02000 6.426
15.04000 3.566
15.06000 -2.815
15.08000 -2.523
15.10000 1.156
15.12000 1.103
15.14000 6.066
15.16000 5.446
15.18000 8.335
15.20000 12.828
15.22000 8.038
15.24000 -4.433
15.26000 2.934
15.28000 6.450
15.30000 8.047
15.32000 9.154
15.34000 11.756
15.36000 12.126
15.38000 16.349
15.40000 15.224
15.42000 6.321
15.44000 9.523
15.46000 9.132
15.48000 6.392
15.50000 3.737
15.52000 2.634
15.54000 6.315
15.56000 1.647
15.58000 3.428
15.60000 18.057
15.62000 19.110
15.64000 10.228
15.66000 11.351
15.68000 10.964
15.70000 3.610
15.72000 6.480
15.74000 10.418
15.76000 8.980
15.78000 4.867
15.80000 7.117
15.82000 9.365
15.84000 10.156
15.86000 5.765
15.88000 6.606
15.90000 9.506
15.92000 12.855
15.94000 11.502
15.96000 8.241
15.98000 6.473
16.00000 7.918
16.02000 1.353
16.04000 -4.398
16.06000 2.578
16.08000 7.111
16.10000 9.753
16.12000 4.158
16.14000 7.369
16.16000 11.541
16.18000 3.353
16.20000 2.016
16.22000 9.212
16.24000 6.717
16.26000 3.804
16.28000 3.253
16.30000 -1.519
16.32000 9.454
16.34000 11.349
16.36000 8.806
16.38000 5.129
16.40000 0.655
16.42000 -1.085
16.44000 9.270
16.46000 8.895
16.48000 6.570
16.50000 0.569
16.52000 -1.583
16.54000 2.288
16.56000 4.988
16.58000 6.516
16.60000 -1.357
16.62000 -3.876
16.64000 -0.153
16.66000 1.760
16.68000 10.476
16.70000 8.910
16.72000 7.059
16.74000 8.412
16.76000 9.599
16.78000 6.298
16.80000 -2.798
16.82000 2.620
16.84000 5.574
16.86000 4.463
16.88000 0.800
16.90000 0.272
16.92000 -4.377
16.94000 -0.350
16.96000 5.104
16.98000 9.170
17.00000 7.877
17.02000 12.574
17.04000 8.878
17.06000 9.511
17.08000 3.693
17.10000 -0.244
17.12000 1.217
17.14000 -2.134
17.16000 3.767
17.18000 17.261
17.20000 12.732
17.22000 10.390
17.24000 15.503
17.26000 18.892
17.28000 17.281
17.30000 8.829
17.32000 7.484
17.34000 6.328
17.36000 18.744
17.38000 16.539
17.40000 9.073
17.42000 10.505
17.44000 10.409
17.46000 6.500
17.48000 9.196
17.50000 8.872
17.52000 7.151
17.54000 6.726
17.56000 4.933
17.58000 2.254
17.60000 7.966
17.62000 0.917
17.64000 0.935
17.66000 1.802
17.68000 0.566
17.70000 0.705
17.72000 3.514
17.74000 -0.168
17.76000 -2.624
17.78000 -0.208
17.80000 4.151
17.82000 7.704
17.84000 5.302
17.86000 2.070
17.88000 2.903
17.90000 7.676
17.92000 4.627
17.94000 3.914
17.96000 5.593
17.98000 3.152
18.00000 4.343
18.02000 2.944
18.04000 2.355
18.06000 0.942
18.08000 -1.137
18.10000 0.931
18.12000 -0.177
18.14000 7.484
18.16000 1.122
18.18000 1.369
18.20000 1.728
18.22000 1.657
18.24000 3.843
18.26000 3.418
18.28000 3.845
18.30000 2.451
18.32000 7.043
18.34000 7.149
18.36000 6.339
18.38000 10.469
18.40000 10.424
18.42000 12.506
18.44000 8.355
18.46000 4.567
18.48000 1.732
18.50000 6.233
18.52000 9.000
18.54000 0.464
18.56000 -3.790
18.58000 -3.794
18.60000 -4.289
18.62000 3.922
18.64000 8.525
18.66000 5.814
18.68000 3.105
18.70000 1.096
18.72000 4.904
18.74000 2.316
18.76000 4.311
18.78000 8.221
18.80000 6.709
18.82000 10.923
18.84000 6.013
18.86000 12.898
18.88000 11.011
18.90000 8.385
18.92000 5.102
18.94000 6.249
18.96000 2.896
18.98000 2.564
19.00000 0.170
19.02000 -3.508
19.04000 -2.098
19.06000 3.500
19.08000 1.087
19.10000 10.657
19.12000 8.043
19.14000 -3.774
19.16000 4.517
19.18000 9.599
19.20000 4.887
19.22000 3.316
19.24000 -1.333
19.26000 -3.641
19.28000 4.598
19.30000 1.663
19.32000 -2.561
19.34000 -4.247
19.36000 0.394
19.38000 5.882
19.40000 3.904
19.42000 8.093
19.44000 5.468
19.46000 5.855
19.48000 8.379
19.50000 16.899
19.52000 11.942
19.54000 12.673
19.56000 10.499
19.58000 2.948
19.60000 0.513
19.62000 2.331
19.64000 5.511
19.66000 5.136
19.68000 5.508
19.70000 3.344
19.72000 2.747
19.74000 6.400
19.76000 7.438
19.78000 -2.149
19.80000 -2.312
19.82000 -3.359
19.84000 -2.999
19.86000 0.765
19.88000 1.421
19.90000 -0.774
19.92000 -0.107
19.94000 4.476
19.96000 5.159
19.98000 2.906
20.00000 6.818
20.02000 4.128
20.04000 1.657
20.06000 1.084
20.08000 7.925
20.10000 10.473
20.12000 1.346
20.14000 0.659
20.16000 6.667
20.18000 3.275
20.20000 4.550
20.22000 5.588
20.24000 1.029
20.26000 0.818
20.28000 5.466
20.30000 5.567
20.32000 3.770
20.34000 -4.195
20.36000 3.746
20.38000 5.536
20.40000 1.989
20.42000 0.818
20.44000 -2.441
20.46000 1.797
20.48000 0.455
20.50000 6.008
20.52000 9.288
20.54000 7.663
20.56000 1.989
20.58000 6.029
20.60000 10.616
20.62000 8.794
20.64000 8.756
20.66000 4.470
20.68000 8.609
20.70000 7.000
20.72000 7.403
20.74000 0.008
20.76000 -0.356
20.78000 5.044
20.80000 3.677
20.82000 2.520
20.84000 1.047
20.86000 4.584
20.88000 3.832
20.90000 2.283
20.92000 5.137
20.94000 -4.148
20.96000 1.844
20.98000 11.443
21.00000 7.102
21.02000 -1.302
21.04000 4.618
21.06000 12.760
21.08000 11.411
21.10000 6.737
21.12000 4.549
21.14000 9.850
21.16000 12.137
21.18000 5.389
21.20000 3.660
21.22000 4.755
21.24000 -0.846
21.26000 -0.905
21.28000 7.071
21.30000 7.791
21.32000 14.362
21.34000 9.469
21.36000 6.008
21.38000 4.583
21.40000 4.461
21.42000 3.146
21.44000 4.373
21.46000 3.233
21.48000 1.007
21.50000 9.124
21.52000 4.475
21.54000 1.776
21.56000 3.073
21.58000 2.339
21.60000 4.799
21.62000 4.680
21.64000 6.087
21.66000 4.677
21.68000 1.453
21.70000 4.246
21.72000 4.003
21.74000 4.210
21.76000 8.953
21.78000 5.580
21.80000 3.734
21.82000 4.711
21.84000 5.878
21.86000 4.050
21.88000 7.338
21.90000 7.283
21.92000 6.971
21.94000 3.826
21.96000 14.604
21.98000 8.478
22.00000 6.767
22.02000 2.474
22.04000 -1.050
22.06000 -2.020
22.08000 0.627
22.10000 8.810
22.12000 6.914
22.14000 6.419
22.16000 5.524
22.18000 -0.260
22.20000 2.657
22.22000 7.203
22.24000 6.114
22.26000 -2.536
22.28000 3.693
22.30000 5.843
22.32000 5.364
22.34000 6.691
22.36000 3.621
22.38000 -2.170
22.40000 6.276
22.42000 7.248
22.44000 8.776
22.46000 4.381
22.48000 8.463
22.50000 7.636
22.52000 -0.797
22.54000 -4.062
22.56000 -3.021
22.58000 -2.416
22.60000 2.159
22.62000 7.522
22.64000 3.981
22.66000 7.418
22.68000 7.334
22.70000 9.443
22.72000 8.416
22.74000 6.745
22.76000 9.635
22.78000 6.721
22.80000 5.083
22.82000 3.762
22.84000 2.356
22.86000 0.139
22.88000 5.058
22.90000 6.963
22.92000 5.244
22.94000 4.947
22.96000 -1.590
22.98000 2.472
23.00000 7.518
23.02000 5.871
23.04000 7.396
23.06000 8.003
23.08000 5.899
23.10000 11.057
23.12000 5.344
23.14000 2.125
23.16000 3.929
23.18000 3.262
23.20000 0.529
23.22000 -0.296
23.24000 6.307
23.26000 10.604
23.28000 4.761
23.30000 -0.332
23.32000 1.901
23.34000 7.924
23.36000 -1.852
23.38000 1.238
23.40000 2.714
23.42000 4.459
23.44000 1.877
23.46000 0.055
23.48000 1.772
23.50000 1.272
23.52000 2.505
23.54000 3.860
23.56000 5.299
23.58000 3.854
23.60000 5.729
23.62000 4.697
23.64000 2.624
23.66000 2.497
23.68000 0.954
23.70000 -4.002
23.72000 -3.758
23.74000 2.104
23.76000 5.076
23.78000 6.220
23.80000 6.078
23.82000 6.896
23.84000 -1.342
23.86000 1.974
23.88000 9.243
23.90000 4.205
23.92000 4.436
23.94000 3.480
23.96000 3.046
23.98000 4.775
24.00000 6.803
24.02000 11.020
24.04000 6.365
24.06000 11.417
24.08000 8.254
24.10000 0.089
24.12000 6.486
24.14000 3.174
24.16000 0.368
24.18000 -0.551
24.20000 3.207
24.22000 3.418
24.24000 -3.978
24.26000 -0.013
24.28000 6.757
24.30000 8.610
24.32000 13.127
24.34000 7.813
24.36000 6.706
24.38000 3.458
24.40000 3.758
24.42000 -2.521
24.44000 3.232
24.46000 5.897
24.48000 0.432
24.50000 -2.317
24.52000 -2.302
24.54000 4.206
24.56000 3.563
24.58000 0.056
24.60000 4.731
24.62000 0.379
24.64000 6.656
24.66000 9.656
24.68000 4.770
24.70000 2.448
24.72000 5.888
24.74000 7.349
24.76000 8.028
24.78000 8.132
24.80000 7.623
24.82000 8.522
24.84000 7.573
24.86000 7.911
24.88000 7.919
24.90000 4.132
24.92000 0.254
24.94000 4.675
24.96000 0.833
24.98000 -3.925
25.00000 -3.827
25.02000 -1.172
25.04000 -1.376
25.06000 2.294
25.08000 -2.458
25.10000 1.158
25.12000 7.302
25.14000 8.189
25.16000 4.191
25.18000 4.990
25.20000 3.563
25.22000 3.531
25.24000 2.705
25.26000 7.278
25.28000 11.740
25.30000 1.254
25.32000 -1.503
25.34000 1.258
25.36000 3.359
25.38000 9.495
25.40000 6.014
25.42000 11.756
25.44000 7.432
25.46000 2.452
25.48000 7.231
25.50000 0.254
25.52000 1.806
25.54000 6.912
25.56000 9.369
25.58000 7.290
25.60000 3.888
25.62000 1.276
25.64000 5.179
25.66000 5.393
25.68000 3.703
25.70000 -3.884
25.72000 1.652
25.74000 7.714
25.76000 2.125
25.78000 -2.675
25.80000 -0.730
25.82000 3.965
25.84000 1.326
25.86000 3.391
25.88000 1.915
25.90000 7.290
25.92000 12.394
25.94000 8.384
25.96000 2.459
25.98000 3.062
26.00000 7.275
26.02000 8.285
26.04000 8.402
26.06000 9.902
26.08000 2.168
26.10000 -0.031
26.12000 5.762
26.14000 12.756
26.16000 7.697
26.18000 4.997
26.20000 7.738
26.22000 7.046
26.24000 8.294
26.26000 5.854
26.28000 11.479
26.30000 5.727
26.32000 -3.845
26.34000 1.673
26.36000 4.696
26.38000 3.894
26.40000 5.052
26.42000 6.771
26.44000 3.227
26.46000 7.253
26.48000 9.258
26.50000 6.224
26.52000 5.029
26.54000 5.888
26.56000 5.628
26.58000 6.785
26.60000 7.094
26.62000 7.895
26.64000 8.026
26.66000 3.805
26.68000 4.502
26.70000 2.613
26.72000 6.448
26.74000 2.983
26.76000 -0.989
26.78000 2.647
26.80000 8.593
26.82000 6.828
26.84000 1.872
26.86000 5.627
26.88000 7.043
26.90000 1.157
26.92000 -1.296
26.94000 4.757
26.96000 2.614
26.98000 0.773
27.00000 4.821
27.02000 4.557
27.04000 4.968
27.06000 0.833
27.08000 -3.754
27.10000 5.847
27.12000 5.795
27.14000 6.920
27.16000 10.469
27.18000 0.791
27.20000 -3.579
27.22000 4.149
27.24000 1.876
27.26000 -2.371
27.28000 -2.587
27.30000 -0.091
27.32000 0.698
27.34000 -1.236
27.36000 1.886
27.38000 5.625
27.40000 5.725
27.42000 2.583
27.44000 3.128
27.46000 4.274
27.48000 3.153
27.50000 2.417
27.52000 8.276
27.54000 9.236
27.56000 5.426
27.58000 3.431
27.60000 7.332
27.62000 5.933
27.64000 1.520
27.66000 -0.576
27.68000 7.365
27.70000 7.803
27.72000 6.579
27.74000 7.666
27.76000 8.272
27.78000 5.116
27.80000 0.117
27.82000 3.671
27.84000 5.347
27.86000 6.820
27.88000 5.791
27.90000 4.559
27.92000 2.122
27.94000 0.286
27.96000 0.984
27.98000 -3.772
28.00000 0.495
28.02000 1.505
28.04000 3.872
28.06000 5.420
28.08000 9.017
28.10000 5.196
28.12000 6.448
28.14000 7.645
28.16000 6.429
28.18000 3.978
28.20000 3.779
28.22000 0.559
28.24000 -1.351
28.26000 1.644
28.28000 1.366
28.30000 -2.737
28.32000 3.347
28.34000 -0.354
28.36000 4.707
28.38000 0.176
28.40000 -1.096
28.42000 4.185
28.44000 1.291
28.46000 1.980
28.48000 0.529
28.50000 4.280
28.52000 2.278
28.54000 -1.805
28.56000 -1.245
28.58000 -2.349
28.60000 -1.093
28.62000 7.518
28.64000 10.923
28.66000 4.842
28.68000 -0.167
28.70000 -0.676
28.72000 2.954
28.74000 1.502
28.76000 4.489
28.78000 3.924
28.80000 5.025
28.82000 3.025
28.84000 0.902
28.86000 4.268
28.88000 0.769
28.90000 -0.502
28.92000 1.959
28.94000 1.614
28.96000 -1.527
28.98000 -0.339
29.00000 3.342
29.02000 0.802
29.04000 4.297
29.06000 4.110
29.08000 5.167
29.10000 2.406
29.12000 1.955
29.14000 0.750
29.16000 -1.220
29.18000 4.194
29.20000 2.466
29.22000 4.137
29.24000 1.057
29.26000 0.502
29.28000 5.123
29.30000 2.806
29.32000 -2.763
29.34000 -3.083
29.36000 3.192
29.38000 3.174
29.40000 0.807
29.42000 -2.116
29.44000 0.574
29.46000 5.651
29.48000 4.786
29.50000 -0.064
29.52000 -0.944
29.54000 2.721
29.56000 4.016
29.58000 0.140
29.60000 -1.182
29.62000 -3.059
29.64000 -3.710
29.66000 0.934
29.68000 3.603
29.70000 6.397
29.72000 -1.472
29.74000 -2.577
29.76000 2.101
29.78000 4.673
29.80000 1.670
29.82000 -2.669
29.84000 -0.394
29.86000 4.518
29.88000 5.607
29.90000 4.271
29.92000 4.949
29.94000 5.251
29.96000 1.524
29.98000 0.262
30.00000 0.589
30.02000 -1.633
30.04000 1.108
30.06000 1.026
30.08000 -0.720
30.10000 1.848
30.12000 2.352
30.14000 3.655
30.16000 5.373
30.18000 3.309
30.20000 4.266
30.22000 5.409
30.24000 0.425
30.26000 2.349
30.28000 3.565
30.30000 1.141
30.32000 0.513
30.34000 4.189
30.36000 3.233
30.38000 2.765
30.40000 7.128
30.42000 9.692
30.44000 7.936
30.46000 3.029
30.48000 7.230
30.50000 4.153
30.52000 4.803
30.54000 7.521
30.56000 3.699
30.58000 -3.532
30.60000 -3.643
30.62000 2.920
30.64000 0.794
30.66000 2.542
30.68000 -3.009
30.70000 -3.147
30.72000 -1.560
30.74000 -2.829
30.76000 -0.028
30.78000 -0.374
30.80000 3.000
30.82000 2.013
30.84000 -3.149
30.86000 -1.128
30.88000 4.032
30.90000 5.599
30.92000 -0.188
30.94000 -1.059
30.96000 2.257
30.98000 -0.144
31.00000 -2.505
31.02000 -0.545
31.04000 -0.202
31.06000 0.485
31.08000 5.393
31.10000 5.509
31.12000 1.535
31.14000 1.703
31.16000 -2.304
31.18000 0.938
31.20000 6.723
31.22000 5.546
31.24000 3.046
31.26000 3.069
31.28000 1.223
31.30000 2.236
31.32000 3.620
31.34000 4.876
31.36000 2.556
31.38000 1.077
31.40000 2.888
31.42000 0.289
31.44000 -1.867
31.46000 -2.912
31.48000 4.683
31.50000 2.896
31.52000 3.352
31.54000 1.536
31.56000 4.802
31.58000 3.512
31.60000 0.828
31.62000 0.790
31.64000 -0.768
31.66000 -1.905
31.68000 -3.316
31.70000 -1.838
31.72000 -0.803
31.74000 -2.851
31.76000 -2.837
31.78000 1.679
31.80000 7.504
31.82000 3.032
31.84000 5.371
31.86000 3.150
31.88000 4.474
31.90000 0.153
31.92000 -1.252
31.94000 1.676
31.96000 2.098
31.98000 0.387
32.00000 0.621
32.02000 0.919
32.04000 1.646
32.06000 2.036
32.08000 4.372
32.10000 5.101
32.12000 3.481
32.14000 5.752
32.16000 3.340
32.18000 2.878
32.20000 -0.844
32.22000 -2.488
32.24000 -1.339
32.26000 3.377
32.28000 3.662
32.30000 2.092
32.32000 0.457
32.34000 0.738
32.36000 2.858
32.38000 0.224
32.40000 -0.198
32.42000 0.902
32.44000 0.719
32.46000 1.245
32.48000 5.186
32.50000 6.170
32.52000 1.947
32.54000 3.462
32.56000 2.978
32.58000 3.650
32.60000 3.260
32.62000 2.661
32.64000 5.862
32.66000 7.054
32.68000 5.192
32.70000 0.946
32.72000 -3.547
32.74000 3.094
32.76000 4.269
32.78000 3.366
32.80000 3.763
32.82000 1.045
32.84000 2.578
32.86000 4.971
32.88000 0.957
32.90000 1.209
32.92000 5.350
32.94000 -1.249
32.96000 1.301
32.98000 5.154
33.00000 2.820
33.02000 0.190
33.04000 -1.299
33.06000 0.865
33.08000 -2.442
33.10000 1.080
33.12000 5.448
33.14000 7.910
33.16000 3.833
33.18000 5.184
33.20000 4.398
33.22000 1.307
33.24000 2.389
33.26000 -2.435
33.28000 3.051
33.30000 4.715
33.32000 7.958
33.34000 5.989
33.36000 4.865
33.38000 1.372
33.40000 6.496
33.42000 7.079
33.44000 6.450
33.46000 0.506
33.48000 3.679
33.50000 6.083
33.52000 3.298
33.54000 5.021
33.56000 6.618
33.58000 3.183
33.60000 10.968
33.62000 10.991
33.64000 8.665
33.66000 4.439
33.68000 -1.945
33.70000 0.163
33.72000 -0.284
33.74000 4.397
33.76000 9.024
33.78000 8.370
33.80000 4.278
33.82000 -0.912
33.84000 -2.064
33.86000 4.366
33.88000 5.595
33.90000 0.406
33.92000 1.964
33.94000 6.071
33.96000 1.896
33.98000 3.530
34.00000 5.120
34.02000 5.708
34.04000 4.232
34.06000 1.471
34.08000 1.092
34.10000 4.012
34.12000 3.380
34.14000 -3.537
34.16000 0.204
34.18000 0.225
34.20000 7.162
34.22000 9.001
34.24000 6.495
34.26000 3.507
34.28000 1.063
34.30000 5.233
34.32000 4.905
34.34000 7.258
34.36000 5.632
34.38000 2.012
34.40000 1.644
34.42000 1.399
34.44000 4.191
34.46000 4.746
34.48000 4.598
34.50000 6.362
34.52000 9.801
34.54000 5.732
34.56000 0.326
34.58000 -0.038
34.60000 6.044
34.62000 8.593
34.64000 4.084
34.66000 4.109
34.68000 8.927
34.70000 4.279
34.72000 3.515
34.74000 3.230
34.76000 3.282
34.78000 -0.271
34.80000 -3.509
34.82000 6.764
34.84000 10.709
34.86000 2.999
34.88000 1.963
34.90000 -2.873
34.92000 -0.896
34.94000 0.080
34.96000 2.011
34.98000 -1.677
35.00000 1.236
35.02000 1.270
35.04000 1.648
35.06000 4.832
35.08000 6.617
35.10000 6.730
35.12000 6.111
35.14000 4.228
35.16000 0.144
35.18000 3.082
35.20000 4.756
35.22000 1.974
35.24000 0.937
35.26000 2.785
35.28000 0.767
35.30000 -2.407
35.32000 4.577
35.34000 2.223
35.36000 1.007
35.38000 1.538
35.40000 4.870
35.42000 3.144
35.44000 4.698
35.46000 -0.637
35.48000 -3.498
35.50000 -2.701
35.52000 3.613
35.54000 3.829
35.56000 5.696
35.58000 5.310
35.60000 0.307
35.62000 0.852
35.64000 6.385
35.66000 6.582
35.68000 5.450
35.70000 0.625
35.72000 -0.565
35.74000 2.403
35.76000 5.069
35.78000 5.618
35.80000 6.279
35.82000 1.990
35.84000 1.267
35.86000 0.457
35.88000 4.176
35.90000 3.143
35.92000 5.589
35.94000 4.400
35.96000 2.760
35.98000 -0.712
36.00000 3.810
36.02000 1.730
36.04000 1.207
36.06000 2.536
36.08000 4.916
36.10000 7.391
36.12000 0.121
36.14000 2.641
36.16000 3.592
36.18000 0.572
36.20000 -3.501
36.22000 1.338
36.24000 4.624
36.26000 3.622
36.28000 1.215
36.30000 0.132
36.32000 -0.309
36.34000 0.562
36.36000 -1.202
36.38000 0.250
36.40000 1.965
36.42000 2.242
36.44000 5.368
36.46000 5.487
36.48000 6.753
36.50000 6.206
36.52000 3.129
36.54000 3.666
36.56000 0.889
36.58000 0.663
36.60000 9.231
36.62000 4.730
36.64000 4.578
36.66000 0.996
36.68000 -2.165
36.70000 1.353
36.72000 -1.843
36.74000 2.703
36.76000 0.217
36.78000 2.049
36.80000 0.664
36.82000 1.765
36.84000 4.802
36.86000 3.530
36.88000 2.175
36.90000 5.223
36.92000 8.436
36.94000 8.037
36.96000 3.589
36.98000 1.046
37.00000 0.197
37.02000 8.735
37.04000 6.221
37.06000 4.082
37.08000 2.492
37.10000 2.908
37.12000 0.589
37.14000 1.651
37.16000 4.502
37.18000 4.831
37.20000 -0.619
37.22000 -3.531
37.24000 1.971
37.26000 5.334
37.28000 2.659
37.30000 3.204
37.32000 7.263
37.34000 2.089
37.36000 1.237
37.38000 5.977
37.40000 5.902
37.42000 2.183
37.44000 0.637
37.46000 4.275
37.48000 4.143
37.50000 2.828
37.52000 3.318
37.54000 2.375
37.56000 1.361
37.58000 3.297
37.60000 6.597
37.62000 5.355
37.64000 3.607
37.66000 3.924
37.68000 4.317
37.70000 6.167
37.72000 6.617
37.74000 6.239
37.76000 6.293
37.78000 9.224
37.80000 10.802
37.82000 6.444
37.84000 9.658
37.86000 13.607
37.88000 10.580
37.90000 10.352
37.92000 10.575
37.94000 10.818
37.96000 10.075
37.98000 6.738
38.00000 8.254
38.02000 11.740
38.04000 11.495
38.06000 13.209
38.08000 14.771
38.10000 12.398
38.12000 12.446
38.14000 11.350
38.16000 16.706
38.18000 22.350
38.20000 17.748
38.22000 11.566
38.24000 9.907
38.26000 14.713
38.28000 15.310
38.30000 12.970
38.32000 16.728
38.34000 20.352
38.36000 17.932
38.38000 17.514
38.40000 18.473
38.42000 21.840
38.44000 19.597
38.46000 19.122
38.48000 21.109
38.50000 20.319
38.52000 18.542
38.54000 17.927
38.56000 19.707
38.58000 21.280
38.60000 20.416
38.62000 23.547
38.64000 27.033
38.66000 28.791
38.68000 30.500
38.70000 31.507
38.72000 29.712
38.74000 26.091
38.76000 28.903
38.78000 28.424
38.80000 29.614
38.82000 31.415
38.84000 34.225
38.86000 37.472
38.88000 37.406
38.90000 39.175
38.92000 41.150
38.94000 38.708
38.96000 39.271
38.98000 45.665
39.00000 48.658
39.02000 46.402
39.04000 50.548
39.06000 48.215
39.08000 49.789
39.10000 50.505
39.12000 53.578
39.14000 60.797
39.16000 57.992
39.18000 55.792
39.20000 62.750
39.22000 64.095
39.24000 64.961
39.26000 72.836
39.28000 80.333
39.30000 81.504
39.32000 90.976
39.34000 91.136
39.36000 97.969
39.38000 100.071
39.40000 99.462
39.42000 105.312
39.44000 108.994
39.46000 113.494
39.48000 119.426
39.50000 127.072
39.52000 137.675
39.54000 142.745
39.56000 149.044
39.58000 152.280
39.60000 165.016
39.62000 166.763
39.64000 176.516
39.66000 192.029
39.68000 200.200
39.70000 207.511
39.72000 221.068
39.74000 232.545
39.76000 242.340
39.78000 253.764
39.80000 273.223
39.82000 275.475
39.84000 281.420
39.86000 299.512
39.88000 315.261
39.90000 330.945
39.92000 353.809
39.94000 368.103
39.96000 371.217
39.98000 392.020
40.00000 409.378
40.02000 415.072
40.04000 432.955
40.06000 449.551
40.08000 472.933
40.10000 494.978
40.12000 510.323
40.14000 526.894
40.16000 536.056
40.18000 546.414
40.20000 547.901
40.22000 557.162
40.24000 570.338
40.26000 587.681
40.28000 600.068
40.30000 589.700
40.32000 595.808
40.34000 586.052
40.36000 601.247
40.38000 604.422
40.40000 584.488
40.42000 573.502
40.44000 580.222
40.46000 578.912
40.48000 579.580
40.50000 549.207
40.52000 532.105
40.54000 517.451
40.56000 501.165
40.58000 488.985
40.60000 484.326
40.62000 475.482
40.64000 448.211
40.66000 425.745
40.68000 399.092
40.70000 386.223
40.72000 372.841
40.74000 365.462
40.76000 353.732
40.78000 335.855
40.80000 316.309
40.82000 299.452
40.84000 293.830
40.86000 271.869
40.88000 256.529
40.90000 236.937
40.92000 221.062
40.94000 220.284
40.96000 207.658
40.98000 191.541
41.00000 180.856
41.02000 175.201
41.04000 159.410
41.06000 150.462
41.08000 144.894
41.10000 143.873
41.12000 137.726
41.14000 132.554
41.16000 116.308
41.18000 109.969
41.20000 101.169
41.22000 94.922
41.24000 93.107
41.26000 91.429
41.28000 79.349
41.30000 75.385
41.32000 73.917
41.34000 72.222
41.36000 70.408
41.38000 66.415
41.40000 61.284
41.42000 51.556
41.44000 48.691
41.46000 52.221
41.48000 52.639
41.50000 48.708
41.52000 44.050
41.54000 40.145
41.56000 39.051
41.58000 37.896
41.60000 37.778
41.62000 34.997
41.64000 31.183
41.66000 29.146
41.68000 31.217
41.70000 27.267
41.72000 23.880
41.74000 26.593
41.76000 26.252
41.78000 24.143
41.80000 26.209
41.82000 21.943
41.84000 20.227
41.86000 15.962
41.88000 14.258
41.90000 14.516
41.92000 12.144
41.94000 14.542
41.96000 17.457
41.98000 15.799
42.00000 11.254
42.02000 11.962
42.04000 11.853
42.06000 10.523
42.08000 6.770
42.10000 7.299
42.12000 7.637
42.14000 8.367
42.16000 7.703
42.18000 9.494
42.20000 10.937
42.22000 4.760
42.24000 4.426
42.26000 8.403
42.28000 6.614
42.30000 8.980
42.32000 5.927
42.34000 2.753
42.36000 5.660
42.38000 3.326
42.40000 4.397
42.42000 4.327
42.44000 0.347
42.46000 1.633
42.48000 3.803
42.50000 5.109
42.52000 1.206
42.54000 -2.088
42.56000 -0.370
42.58000 2.763
42.60000 -1.116
42.62000 2.912
42.64000 1.147
42.66000 -1.356
42.68000 3.037
42.70000 4.167
42.72000 0.689
42.74000 3.562
42.76000 6.008
42.78000 2.786
42.80000 -3.265
42.82000 -3.547
42.84000 -2.191
42.86000 4.527
42.88000 1.459
42.90000 -0.949
42.92000 -2.063
42.94000 -2.088
42.96000 -0.237
42.98000 1.789
43.00000 1.200
43.02000 0.247
43.04000 -2.346
43.06000 1.706
43.08000 2.100
43.10000 -3.524
43.12000 -0.147
43.14000 0.048
43.16000 1.646
43.18000 -3.264
43.20000 -2.531
43.22000 4.102
43.24000 1.491
43.26000 2.332
43.28000 -1.406
43.30000 -0.287
43.32000 1.360
43.34000 -0.328
43.36000 0.612
43.38000 -0.608
43.40000 3.865
43.42000 5.619
43.44000 3.383
43.46000 2.616
43.48000 1.996
43.50000 1.358
43.52000 2.819
43.54000 -1.003
43.56000 -2.645
43.58000 3.797
43.60000 1.474
43.62000 -0.874
43.64000 -1.752
43.66000 2.916
43.68000 4.226
43.70000 3.319
43.72000 -1.249
43.74000 -2.749
43.76000 -3.459
43.78000 0.920
43.80000 1.124
43.82000 -2.372
43.84000 -0.786
43.86000 -0.631
43.88000 2.441
43.90000 2.506
43.92000 1.944
43.94000 -1.326
43.96000 -1.134
43.98000 -2.760
44.00000 -1.576
44.02000 -2.231
44.04000 -0.996
44.06000 0.231
44.08000 -0.673
44.10000 0.385
44.12000 2.328
44.14000 -0.881
44.16000 1.136
44.18000 3.206
44.20000 -3.431
44.22000 -0.214
44.24000 4.542
44.26000 2.093
44.28000 2.275
44.30000 1.993
44.32000 2.695
44.34000 4.109
44.36000 1.692
44.38000 2.146
44.40000 3.534
44.42000 4.057
44.44000 -1.330
44.46000 1.502
44.48000 4.955
44.50000 3.672
44.52000 -1.660
44.54000 0.033
44.56000 -1.644
44.58000 2.714
44.60000 4.934
44.62000 3.110
44.64000 2.833
44.66000 0.155
44.68000 6.145
44.70000 3.483
44.72000 0.131
44.74000 2.299
44.76000 3.937
44.78000 1.623
44.80000 1.842
44.82000 0.444
44.84000 2.828
44.86000 5.736
44.88000 2.878
44.90000 1.253
44.92000 3.205
44.94000 4.132
44.96000 1.568
44.98000 0.115
45.00000 4.075
45.02000 4.717
45.04000 1.665
45.06000 3.542
45.08000 8.344
45.10000 10.607
45.12000 6.646
45.14000 4.057
45.16000 5.314
45.18000 10.722
45.20000 9.941
45.22000 10.680
45.24000 11.296
45.26000 10.887
45.28000 7.710
45.30000 12.836
45.32000 13.181
45.34000 12.460
45.36000 9.871
45.38000 10.595
45.40000 9.573
45.42000 12.775
45.44000 11.796
45.46000 8.687
45.48000 10.147
45.50000 12.080
45.52000 16.477
45.54000 14.269
45.56000 18.009
45.58000 19.162
45.60000 19.274
45.62000 15.520
45.64000 14.832
45.66000 15.143
45.68000 22.653
45.70000 25.213
45.72000 23.999
45.74000 23.531
45.76000 20.451
45.78000 22.262
45.80000 24.790
45.82000 27.314
45.84000 22.441
45.86000 26.117
45.88000 29.392
45.90000 29.192
45.92000 29.084
45.94000 27.840
45.96000 31.408
45.98000 31.124
46.00000 37.414
46.02000 37.166
46.04000 36.922
46.06000 40.188
46.08000 40.053
46.10000 48.164
46.12000 47.061
46.14000 44.957
46.16000 41.681
46.18000 42.593
46.20000 46.350
46.22000 48.490
46.24000 49.009
46.26000 54.478
46.28000 57.644
46.30000 59.862
46.32000 60.219
46.34000 59.247
46.36000 63.559
46.38000 61.597
46.40000 60.195
46.42000 60.136
46.44000 62.417
46.46000 64.691
46.48000 68.605
46.50000 67.136
46.52000 70.709
46.54000 76.354
46.56000 79.114
46.58000 79.130
46.60000 81.704
46.62000 79.423
46.64000 80.648
46.66000 78.140
46.68000 81.984
46.70000 90.603
46.72000 88.186
46.74000 86.774
46.76000 90.299
46.78000 93.921
46.80000 93.647
46.82000 97.835
46.84000 91.979
46.86000 93.623
46.88000 93.739
46.90000 96.600
46.92000 85.802
46.94000 92.070
46.96000 95.832
46.98000 92.734
47.00000 92.252
47.02000 94.770
47.04000 96.555
47.06000 90.064
47.08000 90.366
47.10000 94.672
47.12000 84.064
47.14000 83.252
47.16000 80.498
47.18000 79.054
47.20000 80.593
47.22000 81.399
47.24000 76.619
47.26000 82.368
47.28000 80.192
47.30000 72.464
47.32000 68.939
47.34000 69.636
47.36000 70.607
47.38000 72.116
47.40000 69.815
47.42000 62.547
47.44000 67.446
47.46000 71.586
47.48000 61.825
47.50000 53.253
47.52000 54.602
47.54000 52.670
47.56000 50.525
47.58000 54.897
47.60000 52.316
47.62000 46.119
47.64000 37.475
47.66000 38.003
47.68000 48.035
47.70000 42.171
47.72000 40.094
47.74000 31.053
47.76000 37.994
47.78000 38.301
47.80000 37.225
47.82000 35.053
47.84000 34.077
47.86000 32.338
47.88000 34.396
47.90000 34.196
47.92000 29.337
47.94000 30.754
47.96000 32.158
47.98000 25.870
48.00000 22.310
48.02000 24.365
48.04000 23.292
48.06000 20.905
48.08000 24.382
48.10000 21.517
48.12000 18.429
48.14000 18.057
48.16000 19.843
48.18000 20.684
48.20000 12.989
48.22000 8.298
48.24000 13.768
48.26000 17.896
48.28000 13.516
48.30000 12.960
48.32000 9.491
48.34000 9.960
48.36000 10.482
48.38000 7.309
48.40000 3.629
48.42000 7.620
48.44000 11.496
48.46000 8.095
48.48000 7.200
48.50000 10.495
48.52000 8.995
48.54000 10.910
48.56000 8.019
48.58000 5.286
48.60000 9.606
48.62000 10.561
48.64000 8.850
48.66000 10.466
48.68000 4.957
48.70000 4.728
48.72000 4.414
48.74000 6.040
48.76000 5.290
48.78000 1.365
48.80000 -3.067
48.82000 2.463
48.84000 7.084
48.86000 12.694
48.88000 6.767
48.90000 8.462
48.92000 8.485
48.94000 6.014
48.96000 -2.244
48.98000 7.692
49.00000 11.640
49.02000 9.042
49.04000 1.499
49.06000 0.241
49.08000 7.117
49.10000 7.053
49.12000 8.676
49.14000 9.897
49.16000 7.193
49.18000 7.304
49.20000 3.277
49.22000 4.187
49.24000 4.618
49.26000 5.890
49.28000 0.083
49.30000 0.809
49.32000 -1.106
49.34000 4.160
49.36000 6.067
49.38000 4.013
49.40000 2.274
49.42000 -0.255
49.44000 6.309
49.46000 8.149
49.48000 0.548
49.50000 3.350
49.52000 2.511
49.54000 0.248
49.56000 -2.992
49.58000 2.989
49.60000 4.829
49.62000 4.772
49.64000 6.681
49.66000 0.695
49.68000 4.081
49.70000 2.141
49.72000 5.168
49.74000 4.382
49.76000 0.041
49.78000 0.218
49.80000 6.993
49.82000 2.690
49.84000 7.580
49.86000 6.109
49.88000 0.161
49.90000 4.923
49.92000 7.029
49.94000 4.581
49.96000 0.216
49.98000 -0.447
50.00000 -0.920
50.02000 -0.326
50.04000 1.829
50.06000 1.660
50.08000 2.069
50.10000 1.127
50.12000 4.313
50.14000 3.196
50.16000 3.052
50.18000 3.328
50.20000 -0.196
50.22000 3.284
50.24000 4.267
50.26000 1.776
50.28000 -1.279
50.30000 -2.945
50.32000 -1.467
50.34000 1.817
50.36000 -0.254
50.38000 0.475
50.40000 3.479
50.42000 3.561
50.44000 1.217
50.46000 1.426
50.48000 8.546
50.50000 6.784
50.52000 6.651
50.54000 1.916
50.56000 -0.995
50.58000 4.163
50.60000 1.687
50.62000 4.913
50.64000 6.020
50.66000 7.472
50.68000 8.174
50.70000 4.428
50.72000 9.340
50.74000 4.931
50.76000 1.785
50.78000 -1.608
50.80000 -0.491
50.82000 0.590
50.84000 2.523
50.86000 0.273
50.88000 -2.356
50.90000 2.697
50.92000 7.708
50.94000 2.307
50.96000 7.307
50.98000 7.686
51.00000 3.090
51.02000 5.577
51.04000 6.013
51.06000 3.568
51.08000 0.409
51.10000 -2.137
51.12000 -0.625
51.14000 -2.868
51.16000 -1.969
51.18000 3.023
51.20000 7.718
51.22000 7.748
51.24000 8.860
51.26000 5.167
51.28000 8.172
51.30000 5.551
51.32000 2.798
51.34000 5.352
51.36000 5.173
51.38000 5.680
51.40000 7.693
51.42000 7.275
51.44000 5.913
51.46000 9.194
51.48000 3.407
51.50000 3.646
51.52000 4.195
51.54000 -0.106
51.56000 0.757
51.58000 2.178
51.60000 3.350
51.62000 3.236
51.64000 4.412
51.66000 3.330
51.68000 3.102
51.70000 2.084
51.72000 4.032
51.74000 2.204
51.76000 3.197
51.78000 6.054
51.80000 5.256
51.82000 4.006
51.84000 2.936
51.86000 6.039
51.88000 9.303
51.90000 7.830
51.92000 6.686
51.94000 2.585
51.96000 2.418
51.98000 3.889
52.00000 3.102
52.02000 0.948
52.04000 2.032
52.06000 5.081
52.08000 1.606
52.10000 -1.154
52.12000 3.487
52.14000 4.790
52.16000 2.718
52.18000 0.169
52.20000 7.615
52.22000 4.442
52.24000 1.415
52.26000 2.362
52.28000 5.008
52.30000 2.589
52.32000 -2.846
52.34000 5.819
52.36000 6.100
52.38000 4.826
52.40000 7.069
52.42000 6.230
52.44000 6.554
52.46000 1.137
52.48000 -1.512
52.50000 2.047
52.52000 0.636
52.54000 -1.446
52.56000 -1.077
52.58000 6.161
52.60000 3.387
52.62000 2.738
52.64000 2.069
52.66000 5.058
52.68000 2.686
52.70000 0.118
52.72000 0.440
52.74000 0.364
52.76000 3.434
52.78000 1.093
52.80000 0.660
52.82000 0.754
52.84000 0.898
52.86000 3.117
52.88000 4.455
52.90000 0.536
52.92000 0.329
52.94000 -1.796
52.96000 -1.447
52.98000 2.305
53.00000 1.580
53.02000 5.158
53.04000 1.446
53.06000 -1.690
53.08000 -2.814
53.10000 -0.726
53.12000 1.654
53.14000 6.538
53.16000 5.896
53.18000 3.774
53.20000 2.741
53.22000 2.747
53.24000 3.515
53.26000 3.706
53.28000 4.488
53.30000 3.218
53.32000 0.024
53.34000 -0.516
53.36000 -0.167
53.38000 3.153
53.40000 0.758
53.42000 1.000
53.44000 -1.830
53.46000 -0.901
53.48000 2.499
53.50000 0.337
53.52000 3.162
53.54000 7.002
53.56000 1.788
53.58000 5.687
53.60000 4.637
53.62000 1.870
53.64000 1.583
53.66000 2.935
53.68000 3.792
53.70000 3.955
53.72000 4.214
53.74000 2.141
53.76000 3.990
53.78000 2.616
53.80000 1.577
53.82000 1.198
53.84000 2.721
53.86000 3.968
53.88000 0.589
53.90000 1.499
53.92000 0.532
53.94000 2.849
53.96000 2.636
53.98000 -2.788
54.00000 0.554
54.02000 3.994
54.04000 4.967
54.06000 3.241
54.08000 -2.267
54.10000 -0.736
54.12000 1.852
54.14000 5.695
54.16000 0.911
54.18000 1.299
54.20000 1.725
54.22000 4.765
54.24000 3.160
54.26000 2.782
54.28000 0.678
54.30000 2.708
54.32000 4.448
54.34000 4.103
54.36000 2.857
54.38000 4.714
54.40000 0.798
54.42000 2.572
54.44000 8.574
54.46000 6.175
54.48000 6.099
54.50000 4.129
54.52000 6.611
54.54000 2.412
54.56000 5.855
54.58000 11.251
54.60000 10.188
54.62000 6.648
54.64000 2.402
54.66000 -0.913
54.68000 -2.319
54.70000 -2.745
54.72000 4.917
54.74000 2.885
54.76000 0.853
54.78000 4.145
54.80000 3.837
54.82000 0.521
54.84000 3.687
54.86000 4.179
54.88000 4.006
54.90000 1.936
54.92000 -1.201
54.94000 -0.549
54.96000 0.647
54.98000 2.354
55.00000 4.692
55.02000 3.505
55.04000 6.290
55.06000 6.692
55.08000 7.246
55.10000 4.252
55.12000 7.522
55.14000 5.958
55.16000 0.013
55.18000 1.733
55.20000 3.230
55.22000 3.094
55.24000 1.294
55.26000 0.591
55.28000 1.182
55.30000 -0.424
55.32000 3.793
55.34000 5.661
55.36000 4.938
55.38000 1.495
55.40000 1.958
55.42000 3.488
55.44000 3.329
55.46000 5.455
55.48000 2.224
55.50000 -2.743
55.52000 1.067
55.54000 6.127
55.56000 5.719
55.58000 3.928
55.60000 7.911
55.62000 7.581
55.64000 3.430
55.66000 3.492
55.68000 9.040
55.70000 6.578
55.72000 2.769
55.74000 -0.969
55.76000 0.623
55.78000 2.432
55.80000 3.285
55.82000 1.693
55.84000 3.142
55.86000 5.905
55.88000 4.395
55.90000 -2.154
55.92000 -0.457
55.94000 -0.852
55.96000 -0.261
55.98000 1.255
56.00000 3.108
56.02000 0.884
56.04000 6.846
56.06000 3.529
56.08000 -1.571
56.10000 -0.713
56.12000 1.202
56.14000 4.683
56.16000 7.685
56.18000 4.596
56.20000 3.536
56.22000 1.809
56.24000 -2.716
56.26000 -2.476
56.28000 0.567
56.30000 4.501
56.32000 4.055
56.34000 1.510
56.36000 1.282
56.38000 5.274
56.40000 3.062
56.42000 2.683
56.44000 4.004
56.46000 3.182
56.48000 1.653
56.50000 0.190
56.52000 -0.645
56.54000 2.732
56.56000 0.559
56.58000 1.825
56.60000 2.573
56.62000 5.967
56.64000 0.623
56.66000 2.625
56.68000 3.293
56.70000 2.844
56.72000 1.742
56.74000 5.195
56.76000 7.840
56.78000 2.498
56.80000 -2.724
56.82000 0.671
56.84000 8.853
56.86000 4.970
56.88000 2.862
56.90000 0.248
56.92000 0.984
56.94000 1.431
56.96000 3.839
56.98000 0.721
57.00000 -1.227
57.02000 0.127
57.04000 5.610
57.06000 2.610
57.08000 0.069
57.10000 4.288
57.12000 3.095
57.14000 9.049
57.16000 6.717
57.18000 2.088
57.20000 3.163
57.22000 -0.068
57.24000 1.062
57.26000 -1.219
57.28000 1.316
57.30000 6.542
57.32000 5.106
57.34000 1.004
57.36000 3.513
57.38000 4.768
57.40000 3.597
57.42000 3.621
57.44000 2.505
57.46000 5.115
57.48000 1.458
57.50000 3.270
57.52000 1.714
57.54000 3.477
57.56000 4.064
57.58000 2.277
57.60000 1.267
57.62000 2.555
57.64000 2.129
57.66000 3.936
57.68000 3.125
57.70000 6.699
57.72000 2.577
57.74000 -1.174
57.76000 2.298
57.78000 2.559
57.80000 4.602
57.82000 6.402
57.84000 3.653
57.86000 1.490
57.88000 2.100
57.90000 3.337
57.92000 0.087
57.94000 0.740
57.96000 1.450
57.98000 0.761
58.00000 2.688
58.02000 0.727
58.04000 2.787
58.06000 0.380
58.08000 1.031
58.10000 3.411
58.12000 2.781
58.14000 3.601
58.16000 3.250
58.18000 -1.973
58.20000 0.767
58.22000 3.939
58.24000 0.035
58.26000 -2.658
58.28000 1.146
58.30000 0.785
58.32000 5.161
58.34000 6.827
58.36000 1.322
58.38000 -1.152
58.40000 0.053
58.42000 -0.598
58.44000 1.876
58.46000 1.382
58.48000 7.068
58.50000 4.834
58.52000 1.344
58.54000 0.612
58.56000 -2.364
58.58000 3.209
58.60000 1.925
58.62000 4.008
58.64000 3.761
58.66000 2.638
58.68000 -0.514
58.70000 4.152
58.72000 -0.316
58.74000 2.815
58.76000 5.815
58.78000 5.173
58.80000 3.105
58.82000 1.713
58.84000 -1.328
58.86000 1.893
58.88000 6.522
58.90000 5.223
58.92000 2.419
58.94000 -2.611
58.96000 -1.616
58.98000 1.789
59.00000 0.337
59.02000 0.770
59.04000 1.568
59.06000 3.882
59.08000 3.280
59.10000 -0.826
59.12000 3.542
59.14000 4.520
59.16000 2.579
59.18000 2.224
59.20000 4.093
59.22000 1.914
59.24000 1.549
59.26000 1.343
59.28000 -0.330
59.30000 -0.908
59.32000 -2.621
59.34000 2.205
59.36000 6.057
59.38000 3.611
59.40000 0.197
59.42000 -0.697
59.44000 3.337
59.46000 4.952
59.48000 3.052
59.50000 4.642
59.52000 3.458
59.54000 0.158
59.56000 3.174
59.58000 2.468
59.60000 3.232
59.62000 0.673
59.64000 -1.248
59.66000 1.017
59.68000 2.405
59.70000 4.614
59.72000 2.071
59.74000 3.327
59.76000 2.352
59.78000 1.913
59.80000 1.995
59.82000 2.024
59.84000 -0.882
59.86000 -0.522
59.88000 -0.128
59.90000 -2.357
59.92000 2.854
59.94000 5.630
59.96000 3.903
59.98000 3.496
60.00000 1.580
60.02000 2.591
60.04000 2.308
60.06000 2.624
60.08000 1.501
60.10000 0.672
60.12000 1.121
60.14000 3.860
60.16000 3.101
60.18000 3.029
60.20000 6.424
60.22000 2.855
60.24000 0.330
60.26000 2.449
60.28000 3.713
60.30000 4.977
60.32000 5.170
60.34000 1.388
60.36000 0.307
60.38000 0.376
60.40000 2.060
60.42000 3.643
60.44000 -0.888
60.46000 1.819
60.48000 1.194
60.50000 5.744
60.52000 3.956
60.54000 3.016
60.56000 2.440
60.58000 0.174
60.60000 5.572
60.62000 5.692
60.64000 7.461
60.66000 10.776
60.68000 12.478
60.70000 9.336
60.72000 10.676
60.74000 8.238
60.76000 3.830
60.78000 6.543
60.80000 5.115
60.82000 2.229
60.84000 0.153
60.86000 0.726
60.88000 0.588
60.90000 2.922
60.92000 -1.507
60.94000 -2.556
60.96000 0.336
60.98000 7.947
61.00000 5.862
61.02000 2.936
61.04000 2.741
61.06000 2.720
61.08000 1.230
61.10000 1.484
61.12000 2.919
61.14000 4.027
61.16000 4.515
61.18000 1.844
61.20000 2.950
61.22000 3.796
61.24000 6.336
61.26000 7.448
61.28000 4.545
61.30000 7.168
61.32000 10.786
61.34000 4.002
61.36000 1.858
61.38000 2.211
61.40000 2.795
61.42000 -1.867
61.44000 -2.045
61.46000 0.872
61.48000 0.998
61.50000 2.270
61.52000 6.033
61.54000 4.236
61.56000 4.297
61.58000 3.497
61.60000 4.685
61.62000 4.210
61.64000 2.655
61.66000 1.769
61.68000 0.059
61.70000 -1.612
61.72000 -0.836
61.74000 -1.486
61.76000 0.328
61.78000 3.255
61.80000 4.695
61.82000 0.787
61.84000 0.738
61.86000 2.459
61.88000 1.969
61.90000 -1.171
61.92000 0.001
61.94000 1.855
61.96000 3.911
61.98000 -1.020
62.00000 -1.343
62.02000 1.845
62.04000 3.393
62.06000 8.637
62.08000 -0.057
62.10000 -1.330
62.12000 -2.375
62.14000 3.285
62.16000 3.791
62.18000 2.259
62.20000 6.372
62.22000 5.048
62.24000 1.233
62.26000 0.614
62.28000 3.184
62.30000 1.634
62.32000 2.775
62.34000 6.759
62.36000 4.513
62.38000 0.530
62.40000 3.196
62.42000 1.631
62.44000 7.966
62.46000 2.934
62.48000 -2.531
62.50000 2.041
62.52000 4.898
62.54000 1.516
62.56000 1.403
62.58000 2.392
62.60000 4.523
62.62000 -0.062
62.64000 0.899
62.66000 0.714
62.68000 1.089
62.70000 3.993
62.72000 2.094
62.74000 0.781
62.76000 1.623
62.78000 2.529
62.80000 3.470
62.82000 -0.406
62.84000 0.479
62.86000 -0.093
62.88000 0.930
62.90000 2.176
62.92000 0.686
62.94000 2.489
62.96000 -1.039
62.98000 3.685
63.00000 6.215
63.02000 0.927
63.04000 2.106
63.06000 -0.647
63.08000 0.716
63.10000 0.602
63.12000 5.546
63.14000 2.787
63.16000 6.745
63.18000 3.170
63.20000 0.401
63.22000 -2.327
63.24000 -0.099
63.26000 5.303
63.28000 2.806
63.30000 -0.638
63.32000 1.331
63.34000 -0.340
63.36000 -2.562
63.38000 -1.240
63.40000 1.554
63.42000 -2.258
63.44000 -1.178
63.46000 2.542
63.48000 1.750
63.50000 3.475
63.52000 2.354
63.54000 1.937
63.56000 -2.387
63.58000 -0.500
63.60000 0.043
63.62000 -0.198
63.64000 1.846
63.66000 -0.797
63.68000 0.867
63.70000 2.122
63.72000 4.000
63.74000 3.554
63.76000 1.850
63.78000 0.450
63.80000 1.987
63.82000 0.997
63.84000 -0.316
63.86000 1.352
63.88000 3.188
63.90000 1.305
63.92000 1.106
63.94000 -2.131
63.96000 -0.209
63.98000 0.463
64.00000 1.689
64.02000 1.673
64.04000 2.601
64.06000 1.411
64.08000 3.799
64.10000 1.194
64.12000 2.230
64.14000 3.492
64.16000 4.783
64.18000 3.985
64.20000 2.907
64.22000 0.564
64.24000 -0.127
64.26000 -2.553
64.28000 -1.739
64.30000 0.055
64.32000 2.861
64.34000 1.045
64.36000 -0.515
64.38000 0.272
64.40000 -1.186
64.42000 -0.808
64.44000 -0.438
64.46000 -0.739
64.48000 2.025
64.50000 4.423
64.52000 4.501
64.54000 3.585
64.56000 3.329
64.58000 2.347
64.60000 2.173
64.62000 3.808
64.64000 4.253
64.66000 1.810
64.68000 1.777
64.70000 0.019
64.72000 0.789
64.74000 -2.547
64.76000 -1.815
64.78000 3.889
64.80000 1.495
64.82000 0.295
64.84000 1.735
64.86000 4.468
64.88000 5.521
64.90000 3.645
64.92000 3.782
64.94000 0.703
64.96000 3.405
64.98000 1.931
65.00000 4.282
65.02000 3.869
65.04000 3.717
65.06000 2.721
65.08000 0.847
65.10000 1.082
65.12000 0.411
65.14000 0.094
65.16000 -0.364
65.18000 0.427
65.20000 2.203
65.22000 1.831
65.24000 4.258
65.26000 1.132
65.28000 -1.812
65.30000 0.185
65.32000 4.289
65.34000 -0.870
65.36000 2.363
65.38000 1.959
65.40000 1.467
65.42000 0.840
65.44000 3.075
65.46000 2.057
65.48000 2.010
65.50000 5.214
65.52000 5.063
65.54000 0.902
65.56000 0.395
65.58000 2.686
65.60000 1.101
65.62000 2.217
65.64000 2.836
65.66000 2.345
65.68000 3.306
65.70000 3.205
65.72000 0.849
65.74000 1.523
65.76000 -2.549
65.78000 -0.399
65.80000 2.148
65.82000 3.492
65.84000 2.267
65.86000 -2.546
65.88000 2.709
65.90000 3.360
65.92000 -0.253
65.94000 1.954
65.96000 1.639
65.98000 3.232
66.00000 6.272
66.02000 2.114
66.04000 0.457
66.06000 1.682
66.08000 2.943
66.10000 3.972
66.12000 5.174
66.14000 5.761
66.16000 5.686
66.18000 4.165
66.20000 5.431
66.22000 3.626
66.24000 2.212
66.26000 1.090
66.28000 2.586
66.30000 4.147
66.32000 2.327
66.34000 2.050
66.36000 3.941
66.38000 3.719
66.40000 2.375
66.42000 -0.396
66.44000 0.018
66.46000 0.896
66.48000 1.148
66.50000 -1.128
66.52000 0.533
66.54000 -0.493
66.56000 -2.598
66.58000 1.191
66.60000 2.211
66.62000 3.140
66.64000 -0.108
66.66000 1.251
66.68000 2.393
66.70000 2.684
66.72000 2.563
66.74000 1.770
66.76000 -2.366
66.78000 1.329
66.80000 -0.229
66.82000 0.887
66.84000 1.425
66.86000 1.811
66.88000 1.166
66.90000 3.253
66.92000 3.954
66.94000 3.837
66.96000 1.596
66.98000 1.156
67.00000 0.382
67.02000 0.810
67.04000 4.544
67.06000 7.807
67.08000 3.279
67.10000 0.128
67.12000 0.674
67.14000 2.522
67.16000 1.903
67.18000 2.555
67.20000 3.914
67.22000 7.728
67.24000 6.308
67.26000 2.855
67.28000 5.231
67.30000 5.371
67.32000 4.905
67.34000 7.111
67.36000 6.143
67.38000 5.577
67.40000 5.695
67.42000 2.305
67.44000 6.490
67.46000 2.000
67.48000 2.559
67.50000 10.009
67.52000 7.620
67.54000 7.305
67.56000 9.388
67.58000 7.189
67.60000 5.005
67.62000 10.265
67.64000 10.149
67.66000 7.659
67.68000 6.678
67.70000 7.653
67.72000 10.475
67.74000 12.337
67.76000 12.080
67.78000 9.498
67.80000 12.639
67.82000 11.496
67.84000 9.419
67.86000 9.315
67.88000 12.882
67.90000 15.810
67.92000 12.858
67.94000 11.060
67.96000 14.205
67.98000 15.418
68.00000 13.506
68.02000 12.345
68.04000 14.105
68.06000 17.457
68.08000 19.225
68.10000 17.195
68.12000 18.239
68.14000 16.215
68.16000 16.348
68.18000 18.415
68.20000 19.760
68.22000 16.993
68.24000 18.786
68.26000 24.496
68.28000 24.956
68.30000 22.796
68.32000 19.837
68.34000 25.570
68.36000 24.704
68.38000 20.575
68.40000 23.876
68.42000 25.174
68.44000 23.999
68.46000 23.527
68.48000 23.573
68.50000 24.338
68.52000 24.566
68.54000 21.376
68.56000 19.826
68.58000 21.852
68.60000 20.072
68.62000 20.536
68.64000 21.938
68.66000 24.704
68.68000 22.362
68.70000 22.172
68.72000 20.785
68.74000 23.571
68.76000 28.106
68.78000 21.364
68.80000 16.773
68.82000 17.521
68.84000 13.076
68.86000 11.599
68.88000 17.399
68.90000 15.197
68.92000 18.399
68.94000 17.325
68.96000 17.161
68.98000 17.994
69.00000 17.666
69.02000 13.477
69.04000 14.047
69.06000 16.845
69.08000 14.224
69.10000 14.772
69.12000 11.936
69.14000 10.989
69.16000 13.076
69.18000 16.594
69.20000 14.759
69.22000 12.632
69.24000 11.205
69.26000 12.310
69.28000 15.592
69.30000 17.118
69.32000 12.957
69.34000 12.988
69.36000 9.042
69.38000 9.280
69.40000 5.242
69.42000 6.788
69.44000 6.378
69.46000 8.138
69.48000 5.517
69.50000 6.481
69.52000 4.950
69.54000 7.102
69.56000 6.154
69.58000 5.452
69.60000 5.767
69.62000 11.031
69.64000 11.310
69.66000 9.445
69.68000 5.805
69.70000 8.027
69.72000 10.858
69.74000 7.763
69.76000 5.404
69.78000 4.756
69.80000 7.476
69.82000 7.438
69.84000 4.916
69.86000 6.091
69.88000 4.280
69.90000 6.586
69.92000 5.790
69.94000 4.956
69.96000 8.167
69.98000 5.264
70.00000 8.645
70.02000 6.965
70.04000 6.410
70.06000 4.338
70.08000 1.991
70.10000 1.443
70.12000 6.291
70.14000 6.061
70.16000 4.352
70.18000 6.570
70.20000 5.820
70.22000 6.391
70.24000 5.150
70.26000 1.811
70.28000 1.797
70.30000 0.961
70.32000 4.896
70.34000 7.516
70.36000 8.150
70.38000 7.755
70.40000 7.159
70.42000 1.720
70.44000 -2.427
70.46000 2.601
70.48000 5.010
70.50000 2.525
70.52000 6.212
70.54000 7.642
70.56000 7.911
70.58000 6.360
70.60000 2.653
70.62000 -0.011
70.64000 -0.110
70.66000 -0.793
70.68000 5.484
70.70000 5.970
70.72000 4.816
70.74000 4.002
70.76000 3.383
70.78000 4.456
70.80000 1.459
70.82000 2.758
70.84000 1.792
70.86000 3.437
70.88000 6.500
70.90000 2.072
70.92000 2.373
70.94000 3.471
70.96000 3.053
70.98000 2.819
71.00000 3.948
71.02000 5.629
71.04000 3.443
71.06000 4.461
71.08000 6.673
71.10000 0.113
71.12000 0.561
71.14000 2.827
71.16000 5.438
71.18000 1.542
71.20000 0.438
71.22000 3.597
71.24000 3.924
71.26000 1.629
71.28000 1.832
71.30000 0.908
71.32000 4.847
71.34000 3.478
71.36000 3.232
71.38000 3.292
71.40000 1.522
71.42000 2.883
71.44000 3.612
71.46000 6.014
71.48000 7.268
71.50000 6.614
71.52000 5.789
71.54000 -1.784
71.56000 -0.297
71.58000 -0.673
71.60000 0.728
71.62000 1.817
71.64000 -0.336
71.66000 0.144
71.68000 3.972
71.70000 3.258
71.72000 6.126
71.74000 9.246
71.76000 2.731
71.78000 2.232
71.80000 0.621
71.82000 2.966
71.84000 6.255
71.86000 6.132
71.88000 2.698
71.90000 6.740
71.92000 2.808
71.94000 3.319
71.96000 0.806
71.98000 1.955
72.00000 3.989
72.02000 5.787
72.04000 3.593
72.06000 6.104
72.08000 3.855
72.10000 4.890
72.12000 2.041
72.14000 -2.377
72.16000 -0.978
72.18000 5.891
72.20000 5.381
72.22000 2.516
72.24000 3.452
72.26000 6.925
72.28000 4.921
72.30000 4.574
72.32000 6.075
72.34000 7.218
72.36000 2.283
72.38000 0.623
72.40000 2.629
72.42000 5.915
72.44000 6.878
72.46000 3.989
72.48000 4.514
72.50000 4.196
72.52000 0.763
72.54000 -1.559
72.56000 0.954
72.58000 6.748
72.60000 3.909
72.62000 -0.761
72.64000 4.700
72.66000 9.042
72.68000 4.629
72.70000 1.693
72.72000 6.433
72.74000 8.298
72.76000 7.168
72.78000 1.522
72.80000 4.404
72.82000 3.338
72.84000 2.853
72.86000 3.169
72.88000 -0.854
72.90000 -1.571
72.92000 7.518
72.94000 9.388
72.96000 5.028
72.98000 2.019
73.00000 4.181
73.02000 2.965
73.04000 4.006
73.06000 1.723
73.08000 -2.353
73.10000 -1.028
73.12000 2.763
73.14000 1.853
73.16000 5.658
73.18000 3.223
73.20000 -1.111
73.22000 3.881
73.24000 5.412
73.26000 4.713
73.28000 3.208
73.30000 -0.406
73.32000 -0.923
73.34000 7.437
73.36000 9.570
73.38000 4.798
73.40000 3.724
73.42000 3.239
73.44000 5.701
73.46000 6.319
73.48000 2.202
73.50000 2.583
73.52000 1.711
73.54000 2.764
73.56000 2.431
73.58000 0.340
73.60000 1.564
73.62000 4.390
73.64000 4.161
73.66000 4.171
73.68000 4.585
73.70000 4.048
73.72000 0.557
73.74000 -0.650
73.76000 1.108
73.78000 3.280
73.80000 0.933
73.82000 1.988
73.84000 0.429
73.86000 1.163
73.88000 5.275
73.90000 7.660
73.92000 5.177
73.94000 0.610
73.96000 -2.358
73.98000 -1.542
74.00000 0.956
74.02000 5.821
74.04000 3.727
74.06000 4.163
74.08000 3.646
74.10000 -0.573
74.12000 -0.935
74.14000 0.093
74.16000 0.000
74.18000 -1.178
74.20000 5.605
74.22000 2.989
74.24000 1.777
74.26000 3.013
74.28000 6.530
74.30000 3.975
74.32000 8.266
74.34000 9.794
74.36000 10.849
74.38000 6.778
74.40000 3.255
74.42000 -0.816
74.44000 0.236
74.46000 1.897
74.48000 3.647
74.50000 4.573
74.52000 2.653
74.54000 -1.915
74.56000 0.475
74.58000 1.630
74.60000 1.533
74.62000 2.637
74.64000 4.999
74.66000 2.335
74.68000 2.241
74.70000 6.116
74.72000 1.075
74.74000 0.548
74.76000 -2.011
74.78000 0.861
74.80000 -0.822
74.82000 -2.061
74.84000 -2.244
74.86000 -0.016
74.88000 7.620
74.90000 4.395
74.92000 2.333
74.94000 1.605
74.96000 -1.037
74.98000 1.726
75.00000 0.475
75.02000 0.103
75.04000 4.838
75.06000 5.015
75.08000 4.627
75.10000 4.622
75.12000 -0.207
75.14000 -0.046
75.16000 0.828
75.18000 0.380
75.20000 2.317
75.22000 5.427
75.24000 6.986
75.26000 -0.284
75.28000 -2.348
75.30000 -1.834
75.32000 3.862
75.34000 2.879
75.36000 4.683
75.38000 7.710
75.40000 3.224
75.42000 3.375
75.44000 4.162
75.46000 2.076
75.48000 5.689
75.50000 6.266
75.52000 6.654
75.54000 3.894
75.56000 2.163
75.58000 -1.436
75.60000 0.795
75.62000 4.695
75.64000 4.897
75.66000 5.070
75.68000 4.787
75.70000 10.851
75.72000 8.325
75.74000 3.536
75.76000 5.641
75.78000 4.974
75.80000 3.463
75.82000 1.209
75.84000 -0.293
75.86000 2.661
75.88000 7.573
75.90000 3.897
75.92000 2.707
75.94000 2.909
75.96000 3.596
75.98000 6.259
76.00000 5.918
76.02000 6.399
76.04000 3.984
76.06000 5.393
76.08000 4.215
76.10000 2.128
76.12000 1.862
76.14000 3.703
76.16000 5.464
76.18000 3.232
76.20000 3.177
76.22000 7.394
76.24000 9.795
76.26000 8.670
76.28000 3.109
76.30000 0.108
76.32000 -2.355
76.34000 3.565
76.36000 9.267
76.38000 0.974
76.40000 6.027
76.42000 9.392
76.44000 3.581
76.46000 4.279
76.48000 6.292
76.50000 -0.524
76.52000 -1.563
76.54000 1.404
76.56000 -1.093
76.58000 2.984
76.60000 0.450
76.62000 1.921
76.64000 8.321
76.66000 3.913
76.68000 4.425
76.70000 3.178
76.72000 7.566
76.74000 6.968
76.76000 6.659
76.78000 3.750
76.80000 5.324
76.82000 7.999
76.84000 8.049
76.86000 8.557
76.88000 5.303
76.90000 -0.564
76.92000 0.719
76.94000 1.148
76.96000 3.022
76.98000 6.741
77.00000 4.256
77.02000 7.679
77.04000 5.891
77.06000 5.339
77.08000 4.396
77.10000 2.554
77.12000 3.370
77.14000 4.906
77.16000 0.437
77.18000 5.666
77.20000 10.181
77.22000 7.053
77.24000 3.061
77.26000 2.176
77.28000 5.054
77.30000 4.476
77.32000 4.640
77.34000 1.973
77.36000 3.656
77.38000 -0.004
77.40000 -1.172
77.42000 4.717
77.44000 4.027
77.46000 3.812
77.48000 4.133
77.50000 2.301
77.52000 -1.045
77.54000 3.561
77.56000 2.325
77.58000 -2.403
77.60000 -0.497
77.62000 1.363
77.64000 3.452
77.66000 7.117
77.68000 6.299
77.70000 2.469
77.72000 2.408
77.74000 1.974
77.76000 4.902
77.78000 0.241
77.80000 1.455
77.82000 2.675
77.84000 4.824
77.86000 4.699
77.88000 5.969
77.90000 5.374
77.92000 0.100
77.94000 4.730
77.96000 4.585
77.98000 0.777
78.00000 4.370
78.02000 6.400
78.04000 10.868
78.06000 11.008
78.08000 2.239
78.10000 3.246
78.12000 4.981
78.14000 6.137
78.16000 1.441
78.18000 2.489
78.20000 -2.411
78.22000 -1.134
78.24000 0.171
78.26000 0.742
78.28000 5.277
78.30000 3.748
78.32000 2.259
78.34000 -2.409
78.36000 1.807
78.38000 8.214
78.40000 5.977
78.42000 4.436
78.44000 -2.364
78.46000 0.472
78.48000 5.144
78.50000 -0.975
78.52000 0.400
78.54000 2.628
78.56000 4.989
78.58000 1.163
78.60000 3.368
78.62000 -1.902
78.64000 -1.851
78.66000 2.105
78.68000 -2.206
78.70000 -0.637
78.72000 2.001
78.74000 3.555
78.76000 3.526
78.78000 1.587
78.80000 0.833
78.82000 3.316
78.84000 4.199
78.86000 3.062
78.88000 2.734
78.90000 4.453
78.92000 0.231
78.94000 1.899
78.96000 4.082
78.98000 5.835
79.00000 0.191
79.02000 -0.540
79.04000 4.128
79.06000 8.947
79.08000 4.650
79.10000 3.863
79.12000 2.722
79.14000 0.208
79.16000 1.412
79.18000 4.951
79.20000 8.024
79.22000 6.132
79.24000 0.488
79.26000 -2.469
79.28000 5.344
79.30000 3.740
79.32000 2.878
79.34000 5.063
79.36000 4.930
79.38000 7.674
79.40000 6.242
79.42000 2.867
79.44000 2.793
79.46000 3.846
79.48000 4.701
79.50000 2.052
79.52000 -2.478
79.54000 0.876
79.56000 3.897
79.58000 3.557
79.60000 -0.584
79.62000 2.391
79.64000 1.548
79.66000 0.431
79.68000 -2.101
79.70000 -1.149
79.72000 0.059
79.74000 5.522
79.76000 6.959
79.78000 3.368
79.80000 1.677
79.82000 4.402
79.84000 1.651
79.86000 0.417
79.88000 2.962
79.90000 0.879
79.92000 4.188
79.94000 7.216
79.96000 4.803
79.98000 -0.280
80.00000 1.940
80.02000 3.758
80.04000 2.561
80.06000 -1.069
80.08000 0.475
80.10000 1.104
80.12000 2.049
80.14000 -0.141
80.16000 1.433
80.18000 -0.501
80.20000 -2.497
80.22000 -1.405
80.24000 1.976
80.26000 1.876
80.28000 -0.025
80.30000 5.752
80.32000 3.565
80.34000 1.668
80.36000 5.731
80.38000 6.532
80.40000 2.720
80.42000 2.005
80.44000 2.974
80.46000 8.427
80.48000 7.768
80.50000 0.804
80.52000 2.958
80.54000 5.892
80.56000 8.525
80.58000 3.688
80.60000 6.482
80.62000 6.006
80.64000 4.564
80.66000 1.285
80.68000 4.797
80.70000 4.574
80.72000 9.009
80.74000 7.327
80.76000 2.128
80.78000 2.705
80.80000 5.896
80.82000 0.414
80.84000 -0.500
80.86000 0.168
80.88000 2.764
80.90000 2.376
80.92000 3.648
80.94000 3.027
80.96000 2.336
80.98000 4.297
81.00000 1.756
81.02000 0.563
81.04000 -2.594
81.06000 0.416
81.08000 3.712
81.10000 9.387
81.12000 4.339
81.14000 4.326
81.16000 4.016
81.18000 5.903
81.20000 5.625
81.22000 2.400
81.24000 4.073
81.26000 3.109
81.28000 -0.494
81.30000 4.963
81.32000 9.417
81.34000 6.352
81.36000 9.598
81.38000 13.044
81.40000 5.876
81.42000 1.022
81.44000 5.747
81.46000 8.099
81.48000 7.827
81.50000 9.248
81.52000 9.179
81.54000 6.833
81.56000 7.769
81.58000 7.390
81.60000 11.011
81.62000 12.113
81.64000 10.650
81.66000 12.992
81.68000 6.906
81.70000 6.651
81.72000 8.112
81.74000 10.767
81.76000 7.533
81.78000 6.432
81.80000 14.615
81.82000 14.404
81.84000 7.205
81.86000 9.894
81.88000 8.201
81.90000 13.001
81.92000 13.794
81.94000 13.991
81.96000 13.651
81.98000 17.236
82.00000 15.816
82.02000 9.896
82.04000 11.311
82.06000 12.613
82.08000 18.681
82.10000 19.038
82.12000 14.461
82.14000 16.356
82.16000 20.446
82.18000 22.710
82.20000 23.555
82.22000 20.859
82.24000 17.876
82.26000 19.404
82.28000 17.473
82.30000 21.511
82.32000 21.266
82.34000 15.882
82.36000 18.647
82.38000 15.762
82.40000 21.213
82.42000 18.832
82.44000 19.714
82.46000 22.369
82.48000 25.944
82.50000 23.833
82.52000 24.419
82.54000 20.713
82.56000 21.784
82.58000 22.377
82.60000 22.775
82.62000 24.697
82.64000 25.328
82.66000 22.353
82.68000 23.065
82.70000 22.560
82.72000 22.885
82.74000 21.877
82.76000 20.828
82.78000 24.881
82.80000 29.359
82.82000 27.074
82.84000 21.016
82.86000 22.539
82.88000 24.138
82.90000 19.578
82.92000 22.569
82.94000 21.908
82.96000 23.194
82.98000 30.364
83.00000 27.839
83.02000 23.788
83.04000 26.627
83.06000 23.229
83.08000 23.117
83.10000 22.062
83.12000 20.960
83.14000 22.856
83.16000 23.255
83.18000 25.107
83.20000 23.829
83.22000 22.934
83.24000 20.787
83.26000 18.388
83.28000 12.994
83.30000 11.297
83.32000 13.161
83.34000 20.775
83.36000 12.964
83.38000 11.168
83.40000 15.984
83.42000 16.600
83.44000 19.212
83.46000 19.471
83.48000 12.851
83.50000 8.705
83.52000 9.499
83.54000 8.300
83.56000 8.148
83.58000 11.978
83.60000 5.086
83.62000 10.346
83.64000 9.697
83.66000 12.327
83.68000 12.389
83.70000 9.576
83.72000 7.405
83.74000 6.836
83.76000 9.949
83.78000 8.357
83.80000 10.307
83.82000 13.885
83.84000 12.876
83.86000 12.397
83.88000 11.702
83.90000 8.362
83.92000 8.242
83.94000 8.744
83.96000 10.024
83.98000 9.484
84.00000 10.888
84.02000 4.263
84.04000 3.580
84.06000 1.397
84.08000 2.598
84.10000 3.836
84.12000 2.487
84.14000 2.207
84.16000 4.012
84.18000 4.953
84.20000 6.749
84.22000 9.891
84.24000 5.101
84.26000 -0.275
84.28000 1.760
84.30000 4.926
84.32000 1.169
84.34000 2.207
84.36000 3.763
84.38000 1.046
84.40000 0.069
84.42000 6.013
84.44000 4.953
84.46000 1.188
84.48000 3.316
84.50000 4.921
84.52000 -0.393
84.54000 -1.062
84.56000 2.001
84.58000 3.204
84.60000 4.580
84.62000 2.943
84.64000 1.908
84.66000 0.549
84.68000 -1.184
84.70000 0.223
84.72000 2.537
84.74000 6.369
84.76000 4.480
84.78000 2.094
84.80000 1.172
84.82000 0.034
84.84000 2.588
84.86000 1.960
84.88000 3.298
84.90000 2.694
84.92000 2.992
84.94000 3.823
84.96000 5.531
84.98000 6.200
85.00000 4.712
85.02000 2.171
85.04000 0.675
85.06000 5.967
85.08000 4.961
85.10000 3.977
85.12000 -2.420
85.14000 1.501
85.16000 5.183
85.18000 3.802
85.20000 3.491
85.22000 0.582
85.24000 2.835
85.26000 7.066
85.28000 8.309
85.30000 7.465
85.32000 6.013
85.34000 1.588
85.36000 8.314
85.38000 7.024
85.40000 3.248
85.42000 1.728
85.44000 5.338
85.46000 4.466
85.48000 5.396
85.50000 5.311
85.52000 10.490
85.54000 8.130
85.56000 6.055
85.58000 3.885
85.60000 2.057
85.62000 7.277
85.64000 4.314
85.66000 2.157
85.68000 4.341
85.70000 3.809
85.72000 6.965
85.74000 5.249
85.76000 4.503
85.78000 2.957
85.80000 3.745
85.82000 3.993
85.84000 5.540
85.86000 8.863
85.88000 5.902
85.90000 0.634
85.92000 0.239
85.94000 1.141
85.96000 7.955
85.98000 9.719
86.00000 5.821
86.02000 -2.481
86.04000 4.170
86.06000 9.691
86.08000 11.817
86.10000 10.581
86.12000 11.382
86.14000 12.367
86.16000 15.673
86.18000 12.744
86.20000 8.373
86.22000 8.645
86.24000 12.873
86.26000 12.737
86.28000 8.848
86.30000 11.310
86.32000 7.169
86.34000 6.950
86.36000 12.389
86.38000 6.918
86.40000 9.051
86.42000 10.741
86.44000 15.394
86.46000 14.908
86.48000 16.078
86.50000 15.536
86.52000 14.782
86.54000 14.604
86.56000 14.268
86.58000 21.335
86.60000 21.265
86.62000 15.627
86.64000 23.267
86.66000 25.666
86.68000 24.102
86.70000 20.600
86.72000 21.125
86.74000 21.096
86.76000 20.997
86.78000 22.764
86.80000 27.346
86.82000 26.823
86.84000 23.503
86.86000 24.045
86.88000 24.127
86.90000 20.200
86.92000 21.029
86.94000 23.097
86.96000 25.134
86.98000 25.481
87.00000 30.833
87.02000 27.447
87.04000 26.386
87.06000 20.856
87.08000 22.739
87.10000 31.152
87.12000 29.449
87.14000 28.296
87.16000 28.269
87.18000 25.872
87.20000 20.651
87.22000 21.147
87.24000 26.394
87.26000 27.015
87.28000 25.060
87.30000 21.429
87.32000 29.693
87.34000 25.634
87.36000 22.396
87.38000 21.401
87.40000 14.795
87.42000 18.119
87.44000 19.969
87.46000 19.803
87.48000 17.076
87.50000 19.067
87.52000 19.392
87.54000 16.535
87.56000 16.569
87.58000 20.325
87.60000 18.999
87.62000 18.886
87.64000 14.492
87.66000 11.165
87.68000 9.852
87.70000 15.520
87.72000 12.559
87.74000 12.291
87.76000 12.988
87.78000 12.758
87.80000 10.760
87.82000 9.557
87.84000 10.069
87.86000 8.799
87.88000 11.211
87.90000 10.341
87.92000 4.314
87.94000 5.239
87.96000 6.416
87.98000 5.121
88.00000 7.512
88.02000 8.840
88.04000 8.579
88.06000 7.898
88.08000 4.937
88.10000 3.402
88.12000 7.156
88.14000 6.930
88.16000 5.493
88.18000 5.495
88.20000 5.747
88.22000 0.296
88.24000 5.961
88.26000 7.876
88.28000 5.641
88.30000 6.065
88.32000 4.596
88.34000 3.672
88.36000 7.266
88.38000 2.816
88.40000 0.352
88.42000 6.893
88.44000 4.684
88.46000 3.795
88.48000 5.063
88.50000 4.256
88.52000 4.478
88.54000 4.986
88.56000 -2.399
88.58000 -1.243
88.60000 1.328
88.62000 0.235
88.64000 0.207
88.66000 1.109
88.68000 2.955
88.70000 2.572
88.72000 4.948
88.74000 5.701
88.76000 5.674
88.78000 5.830
88.80000 4.683
88.82000 1.117
88.84000 2.462
88.86000 0.480
88.88000 -0.800
88.90000 8.255
88.92000 8.005
88.94000 5.099
88.96000 2.276
88.98000 -1.392
89.00000 1.302
89.02000 0.489
89.04000 3.109
89.06000 -0.339
89.08000 -0.744
89.10000 3.986
89.12000 5.329
89.14000 2.579
89.16000 1.355
89.18000 -0.978
89.20000 0.813
89.22000 1.452
89.24000 2.362
89.26000 1.340
89.28000 2.138
89.30000 4.719
89.32000 1.183
89.34000 -0.725
89.36000 -1.794
89.38000 1.964
89.40000 -2.190
89.42000 -2.287
89.44000 0.706
89.46000 3.337
89.48000 5.004
89.50000 7.229
89.52000 4.299
89.54000 -0.093
89.56000 0.069
89.58000 -0.471
89.60000 1.120
89.62000 2.286
89.64000 -1.345
89.66000 0.859
89.68000 1.847
89.70000 0.964
89.72000 0.889
89.74000 4.289
89.76000 1.911
89.78000 3.541
89.80000 7.111
89.82000 3.308
89.84000 -0.413
89.86000 -2.292
89.88000 -0.421
89.90000 2.786
89.92000 4.082
89.94000 0.601
89.96000 0.478
89.98000 1.078
90.00000 1.488
90.02000 1.518
90.04000 2.711
90.06000 6.807
90.08000 4.776
90.10000 5.151
90.12000 -0.249
90.14000 0.449
90.16000 0.813
90.18000 -0.247
90.20000 5.043
90.22000 5.437
90.24000 0.770
90.26000 0.016
90.28000 0.789
90.30000 -0.736
90.32000 -0.923
90.34000 -0.027
90.36000 2.665
90.38000 5.098
90.40000 4.322
90.42000 5.746
90.44000 4.108
90.46000 0.743
90.48000 1.538
90.50000 5.141
90.52000 0.345
90.54000 -1.750
90.56000 -0.529
90.58000 2.255
90.60000 2.919
90.62000 0.474
90.64000 1.078
90.66000 -1.517
90.68000 0.816
90.70000 -1.294
90.72000 2.710
90.74000 5.502
90.76000 1.529
90.78000 -1.080
90.80000 -2.270
90.82000 -0.108
90.84000 3.338
90.86000 2.703
90.88000 1.876
90.90000 5.110
90.92000 4.452
90.94000 4.006
90.96000 0.374
90.98000 -0.237
91.00000 -1.024
91.02000 3.322
91.04000 4.935
91.06000 0.330
91.08000 2.548
91.10000 8.984
91.12000 3.452
91.14000 -1.454
91.16000 1.788
91.18000 4.082
91.20000 0.386
91.22000 -0.353
91.24000 0.822
91.26000 1.040
91.28000 3.973
91.30000 2.062
91.32000 -0.009
91.34000 1.274
91.36000 3.954
91.38000 4.760
91.40000 7.442
91.42000 9.484
91.44000 4.896
91.46000 3.653
91.48000 6.060
91.50000 1.322
91.52000 1.980
91.54000 4.061
91.56000 -2.276
91.58000 -1.943
91.60000 -1.517
91.62000 2.148
91.64000 2.365
91.66000 2.680
91.68000 8.791
91.70000 10.659
91.72000 5.203
91.74000 2.947
91.76000 2.923
91.78000 3.633
91.80000 4.342
91.82000 3.453
91.84000 2.490
91.86000 4.313
91.88000 2.218
91.90000 4.549
91.92000 1.320
91.94000 5.613
91.96000 4.265
91.98000 1.684
92.00000 0.818
92.02000 4.501
92.04000 3.708
92.06000 1.716
92.08000 -0.430
92.10000 0.736
92.12000 -0.627
92.14000 5.933
92.16000 5.042
92.18000 2.533
92.20000 -0.262
92.22000 5.873
92.24000 3.747
92.26000 -1.606
92.28000 1.983
92.30000 2.298
92.32000 3.524
92.34000 3.585
92.36000 3.877
92.38000 8.062
92.40000 11.714
92.42000 5.836
92.44000 5.038
92.46000 0.978
92.48000 0.630
92.50000 1.802
92.52000 1.522
92.54000 -0.521
92.56000 1.979
92.58000 4.334
92.60000 3.426
92.62000 1.490
92.64000 3.935
92.66000 1.219
92.68000 5.216
92.70000 8.749
92.72000 8.565
92.74000 11.363
92.76000 7.082
92.78000 6.653
92.80000 6.245
92.82000 4.989
92.84000 2.871
92.86000 4.119
92.88000 1.096
92.90000 3.847
92.92000 6.208
92.94000 6.491
92.96000 8.323
92.98000 7.413
93.00000 4.221
93.02000 8.044
93.04000 6.138
93.06000 11.032
93.08000 8.390
93.10000 6.482
93.12000 1.677
93.14000 -2.194
93.16000 0.782
93.18000 2.074
93.20000 1.447
93.22000 6.210
93.24000 7.765
93.26000 8.791
93.28000 10.146
93.30000 8.390
93.32000 4.550
93.34000 6.519
93.36000 8.094
93.38000 -0.189
93.40000 2.108
93.42000 4.706
93.44000 2.515
93.46000 2.908
93.48000 1.069
93.50000 1.075
93.52000 1.565
93.54000 7.157
93.56000 2.486
93.58000 1.509
93.60000 2.718
93.62000 5.044
93.64000 3.151
93.66000 2.659
93.68000 2.206
93.70000 1.756
93.72000 8.474
93.74000 6.053
93.76000 3.877
93.78000 5.691
93.80000 10.785
93.82000 9.136
93.84000 8.743
93.86000 8.747
93.88000 5.007
93.90000 7.275
93.92000 9.626
93.94000 6.908
93.96000 7.317
93.98000 10.087
94.00000 6.490
94.02000 6.746
94.04000 4.802
94.06000 2.972
94.08000 7.364
94.10000 2.207
94.12000 2.552
94.14000 6.616
94.16000 4.676
94.18000 5.423
94.20000 6.765
94.22000 7.439
94.24000 2.722
94.26000 -0.447
94.28000 0.778
94.30000 2.221
94.32000 0.574
94.34000 0.724
94.36000 3.123
94.38000 7.025
94.40000 8.687
94.42000 3.200
94.44000 1.706
94.46000 3.517
94.48000 5.783
94.50000 3.974
94.52000 4.156
94.54000 5.031
94.56000 5.676
94.58000 11.569
94.60000 13.586
94.62000 7.173
94.64000 3.091
94.66000 1.443
94.68000 -2.235
94.70000 2.804
94.72000 4.202
94.74000 4.264
94.76000 7.465
94.78000 4.935
94.80000 3.023
94.82000 -0.095
94.84000 -1.314
94.86000 5.740
94.88000 7.801
94.90000 7.148
94.92000 4.672
94.94000 4.719
94.96000 12.856
94.98000 11.297
95.00000 4.262
95.02000 1.826
95.04000 -0.292
95.06000 3.888
95.08000 5.291
95.10000 7.978
95.12000 5.332
95.14000 2.510
95.16000 3.089
95.18000 0.192
95.20000 3.688
95.22000 5.032
95.24000 0.881
95.26000 5.196
95.28000 9.061
95.30000 6.331
95.32000 1.761
95.34000 3.023
95.36000 4.467
95.38000 7.009
95.40000 6.529
95.42000 5.030
95.44000 -2.052
95.46000 -2.235
95.48000 2.746
95.50000 11.962
95.52000 13.916
95.54000 11.879
95.56000 8.214
95.58000 4.088
95.60000 1.886
95.62000 6.746
95.64000 7.752
95.66000 1.816
95.68000 3.584
95.70000 10.498
95.72000 11.339
95.74000 9.287
95.76000 6.870
95.78000 1.948
95.80000 2.548
95.82000 2.349
95.84000 3.248
95.86000 8.772
95.88000 8.110
95.90000 4.109
95.92000 0.419
95.94000 4.730
95.96000 7.825
95.98000 9.271
96.00000 4.240
96.02000 1.354
96.04000 10.071
96.06000 3.692
96.08000 8.833
96.10000 5.170
96.12000 10.212
96.14000 2.060
96.16000 2.687
96.18000 5.306
96.20000 6.057
96.22000 3.646
96.24000 3.696
96.26000 3.442
96.28000 6.813
96.30000 7.218
96.32000 0.051
96.34000 2.794
96.36000 13.424
96.38000 17.005
96.40000 8.750
96.42000 10.233
96.44000 6.810
96.46000 11.223
96.48000 13.742
96.50000 8.716
96.52000 9.984
96.54000 12.054
96.56000 5.855
96.58000 8.106
96.60000 8.486
96.62000 8.117
96.64000 2.720
96.66000 -2.196
96.68000 5.773
96.70000 10.304
96.72000 13.994
96.74000 11.783
96.76000 8.668
96.78000 3.155
96.80000 3.149
96.82000 4.394
96.84000 3.856
96.86000 5.521
96.88000 2.614
96.90000 7.827
96.92000 8.513
96.94000 4.075
96.96000 9.131
96.98000 5.387
97.00000 5.773
97.02000 8.941
97.04000 15.270
97.06000 9.218
97.08000 3.483
97.10000 7.004
97.12000 9.260
97.14000 3.830
97.16000 3.975
97.18000 7.024
97.20000 12.964
97.22000 14.433
97.24000 7.349
97.26000 7.133
97.28000 4.689
97.30000 -2.196
97.32000 2.553
97.34000 8.473
97.36000 5.336
97.38000 7.220
97.40000 7.357
97.42000 1.945
97.44000 6.857
97.46000 11.080
97.48000 5.890
97.50000 4.424
97.52000 6.308
97.54000 7.349
97.56000 8.144
97.58000 6.952
97.60000 4.561
97.62000 11.010
97.64000 7.711
97.66000 2.543
97.68000 11.821
97.70000 13.852
97.72000 8.743
97.74000 9.483
97.76000 12.337
97.78000 15.689
97.80000 10.924
97.82000 4.643
97.84000 5.807
97.86000 7.099
97.88000 13.297
97.90000 11.262
97.92000 9.665
97.94000 10.302
97.96000 8.478
97.98000 11.551
98.00000 19.802
98.02000 8.271
98.04000 11.600
98.06000 14.865
98.08000 5.415
98.10000 7.166
98.12000 7.956
98.14000 7.441
98.16000 12.677
98.18000 11.984
98.20000 11.573
98.22000 2.486
98.24000 2.957
98.26000 3.646
98.28000 8.983
98.30000 16.206
98.32000 15.688
98.34000 13.335
98.36000 13.931
98.38000 8.920
98.40000 5.381
98.42000 15.609
98.44000 20.180
98.46000 10.500
98.48000 9.956
98.50000 5.874
98.52000 2.520
98.54000 8.411
98.56000 -0.058
98.58000 -2.122
98.60000 5.480
98.62000 6.955
98.64000 14.072
98.66000 13.874
98.68000 11.138
98.70000 7.810
98.72000 5.485
98.74000 -1.381
98.76000 3.223
98.78000 -2.125
98.80000 6.657
98.82000 4.099
98.84000 5.084
98.86000 9.114
98.88000 16.085
98.90000 12.855
98.92000 19.741
98.94000 11.463
98.96000 8.474
98.98000 7.486
99.00000 3.819
99.02000 6.768
99.04000 9.521
99.06000 14.204
99.08000 7.744
99.10000 4.258
99.12000 16.414
99.14000 9.308
99.16000 9.123
99.18000 8.723
99.20000 2.194
99.22000 9.450
99.24000 8.804
99.26000 13.251
99.28000 5.800
99.30000 3.274
99.32000 8.425
99.34000 9.777
99.36000 8.010
99.38000 14.006
99.40000 14.607
99.42000 9.274
99.44000 7.810
99.46000 12.085
99.48000 8.752
99.50000 11.971
99.52000 10.917
99.54000 6.691
99.56000 9.854
99.58000 12.581
99.60000 5.983
99.62000 8.481
99.64000 21.747
99.66000 17.132
99.68000 12.750
99.70000 12.913
99.72000 11.316
99.74000 6.336
99.76000 10.908
99.78000 15.453
99.80000 10.992
99.82000 15.307
99.84000 9.278
99.86000 7.582
99.88000 3.600
99.90000 -2.094
99.92000 -0.003
99.94000 3.781
99.96000 0.638
99.98000 0.000
