'Id: "0011389" Comment: "Integrate frame 0011389_Au-Ir-Rh_Au-Rich_XRD_Mapping-260-0000.gfrmwith cursor Wedge Cursor #5" Operator: "B?rgel" Anode: "Cu" Wavelength: "1.5406" Scantype: "2Theta (TwoTheta)" TimePerStep: "1" X: "-40.5" Y: "22.5" Z: "5.95" 
10.00000 0.000
10.02000 14.310
10.04000 18.030
10.06000 21.618
10.08000 5.603
10.10000 1.531
10.12000 3.644
10.14000 9.541
10.16000 -4.768
10.18000 4.204
10.20000 8.956
10.22000 -2.450
10.24000 5.543
10.26000 -2.615
10.28000 -4.709
10.30000 19.749
10.32000 15.335
10.34000 2.938
10.36000 7.454
10.38000 25.381
10.40000 11.055
10.42000 20.842
10.44000 24.274
10.46000 12.040
10.48000 -4.673
10.50000 2.801
10.52000 3.140
10.54000 10.309
10.56000 8.079
10.58000 15.473
10.60000 4.968
10.62000 6.136
10.64000 22.963
10.66000 13.227
10.68000 14.251
10.70000 15.304
10.72000 9.290
10.74000 19.955
10.76000 10.602
10.78000 8.633
10.80000 17.841
10.82000 16.770
10.84000 3.205
10.86000 -5.719
10.88000 21.411
10.90000 8.926
10.92000 -4.625
10.94000 1.201
10.96000 12.789
10.98000 16.725
11.00000 10.302
11.02000 2.519
11.04000 19.306
11.06000 19.932
11.08000 8.302
11.10000 18.127
11.12000 4.927
11.14000 1.497
11.16000 0.180
11.18000 9.849
11.20000 29.016
11.22000 17.970
11.24000 8.481
11.26000 4.849
11.28000 9.626
11.30000 -3.391
11.32000 5.841
11.34000 14.334
11.36000 18.070
11.38000 10.523
11.40000 11.558
11.42000 23.170
11.44000 14.896
11.46000 16.640
11.48000 8.742
11.50000 11.071
11.52000 13.394
11.54000 16.942
11.56000 -0.762
11.58000 8.586
11.60000 14.179
11.62000 15.724
11.64000 8.980
11.66000 14.938
11.68000 13.418
11.70000 16.479
11.72000 18.513
11.74000 15.091
11.76000 15.344
11.78000 13.912
11.80000 8.333
11.82000 0.752
11.84000 -4.572
11.86000 7.356
11.88000 20.914
11.90000 16.943
11.92000 16.476
11.94000 8.633
11.96000 6.794
11.98000 12.250
12.00000 12.039
12.02000 14.556
12.04000 19.091
12.06000 14.682
12.08000 8.520
12.10000 8.222
12.12000 11.864
12.14000 11.688
12.16000 19.522
12.18000 24.850
12.20000 7.165
12.22000 -4.554
12.24000 5.993
12.26000 15.793
12.28000 24.212
12.30000 14.226
12.32000 8.666
12.34000 17.149
12.36000 25.012
12.38000 17.206
12.40000 4.012
12.42000 1.029
12.44000 13.553
12.46000 7.922
12.48000 5.642
12.50000 8.827
12.52000 5.271
12.54000 18.830
12.56000 22.683
12.58000 11.695
12.60000 6.457
12.62000 13.560
12.64000 20.845
12.66000 29.054
12.68000 21.844
12.70000 17.061
12.72000 19.429
12.74000 21.557
12.76000 17.332
12.78000 12.864
12.80000 19.760
12.82000 20.445
12.84000 15.691
12.86000 12.964
12.88000 13.954
12.90000 3.836
12.92000 12.288
12.94000 -1.645
12.96000 4.441
12.98000 10.934
13.00000 11.728
13.02000 11.651
13.04000 8.492
13.06000 11.782
13.08000 12.002
13.10000 8.094
13.12000 7.816
13.14000 8.499
13.16000 9.578
13.18000 14.305
13.20000 18.645
13.22000 9.441
13.24000 11.774
13.26000 6.641
13.28000 18.673
13.30000 19.435
13.32000 5.107
13.34000 12.727
13.36000 19.969
13.38000 16.821
13.40000 12.693
13.42000 15.208
13.44000 11.763
13.46000 8.920
13.48000 8.023
13.50000 19.014
13.52000 11.511
13.54000 13.883
13.56000 19.268
13.58000 19.924
13.60000 14.659
13.62000 17.131
13.64000 14.776
13.66000 9.280
13.68000 4.675
13.70000 0.406
13.72000 13.145
13.74000 12.680
13.76000 11.305
13.78000 14.555
13.80000 4.964
13.82000 0.096
13.84000 15.819
13.86000 23.410
13.88000 12.950
13.90000 12.292
13.92000 1.242
13.94000 3.755
13.96000 12.836
13.98000 16.353
14.00000 14.609
14.02000 14.576
14.04000 2.666
14.06000 4.768
14.08000 8.899
14.10000 16.441
14.12000 17.435
14.14000 6.793
14.16000 7.985
14.18000 5.764
14.20000 13.459
14.22000 14.721
14.24000 14.728
14.26000 16.945
14.28000 17.959
14.30000 15.460
14.32000 16.309
14.34000 7.520
14.36000 7.055
14.38000 -4.524
14.40000 -0.459
14.42000 4.366
14.44000 5.177
14.46000 12.568
14.48000 10.620
14.50000 4.915
14.52000 13.838
14.54000 13.287
14.56000 24.416
14.58000 25.959
14.60000 10.920
14.62000 13.472
14.64000 17.853
14.66000 18.708
14.68000 16.367
14.70000 4.805
14.72000 8.223
14.74000 4.097
14.76000 10.464
14.78000 8.606
14.80000 8.466
14.82000 12.113
14.84000 11.341
14.86000 4.620
14.88000 1.488
14.90000 7.952
14.92000 9.434
14.94000 4.748
14.96000 12.038
14.98000 9.876
15.00000 23.238
15.02000 16.503
15.04000 7.030
15.06000 7.937
15.08000 10.831
15.10000 7.984
15.12000 1.918
15.14000 6.673
15.16000 9.486
15.18000 15.411
15.20000 13.982
15.22000 15.740
15.24000 7.626
15.26000 10.279
15.28000 11.463
15.30000 10.269
15.32000 0.350
15.34000 -4.475
15.36000 8.047
15.38000 9.024
15.40000 9.809
15.42000 4.882
15.44000 7.606
15.46000 6.998
15.48000 11.749
15.50000 17.549
15.52000 14.964
15.54000 6.752
15.56000 1.493
15.58000 2.104
15.60000 11.146
15.62000 10.109
15.64000 6.199
15.66000 9.780
15.68000 17.227
15.70000 19.186
15.72000 13.188
15.74000 10.953
15.76000 5.320
15.78000 6.313
15.80000 4.631
15.82000 4.743
15.84000 5.308
15.86000 3.984
15.88000 -2.980
15.90000 -3.620
15.92000 7.353
15.94000 7.766
15.96000 8.576
15.98000 12.841
16.00000 3.890
16.02000 2.834
16.04000 10.694
16.06000 5.380
16.08000 6.467
16.10000 10.259
16.12000 15.751
16.14000 7.467
16.16000 5.357
16.18000 9.315
16.20000 3.429
16.22000 3.646
16.24000 7.681
16.26000 12.627
16.28000 12.951
16.30000 13.904
16.32000 1.960
16.34000 2.403
16.36000 7.869
16.38000 14.097
16.40000 10.342
16.42000 -0.018
16.44000 4.159
16.46000 4.998
16.48000 8.970
16.50000 1.577
16.52000 2.844
16.54000 -4.442
16.56000 4.832
16.58000 5.212
16.60000 8.478
16.62000 11.142
16.64000 9.586
16.66000 3.989
16.68000 8.396
16.70000 -0.203
16.72000 1.263
16.74000 9.426
16.76000 15.873
16.78000 11.151
16.80000 13.483
16.82000 8.601
16.84000 3.129
16.86000 -1.057
16.88000 4.147
16.90000 5.463
16.92000 3.547
16.94000 2.166
16.96000 7.431
16.98000 -0.525
17.00000 -0.393
17.02000 3.497
17.04000 7.738
17.06000 1.138
17.08000 -1.914
17.10000 1.480
17.12000 8.251
17.14000 7.779
17.16000 6.749
17.18000 9.352
17.20000 10.879
17.22000 7.804
17.24000 9.300
17.26000 9.289
17.28000 1.491
17.30000 7.401
17.32000 7.098
17.34000 8.736
17.36000 10.636
17.38000 11.422
17.40000 8.061
17.42000 8.526
17.44000 13.226
17.46000 11.164
17.48000 11.373
17.50000 6.227
17.52000 6.109
17.54000 6.297
17.56000 8.282
17.58000 7.466
17.60000 6.226
17.62000 8.459
17.64000 2.244
17.66000 -0.658
17.68000 5.247
17.70000 1.472
17.72000 4.641
17.74000 8.184
17.76000 13.657
17.78000 12.497
17.80000 7.441
17.82000 5.634
17.84000 2.573
17.86000 5.767
17.88000 4.232
17.90000 -0.341
17.92000 4.011
17.94000 3.866
17.96000 -3.280
17.98000 2.549
18.00000 6.075
18.02000 4.309
18.04000 5.107
18.06000 3.644
18.08000 6.578
18.10000 -1.067
18.12000 2.108
18.14000 4.778
18.16000 4.771
18.18000 4.313
18.20000 3.736
18.22000 6.214
18.24000 8.211
18.26000 13.929
18.28000 8.555
18.30000 2.451
18.32000 3.422
18.34000 -4.362
18.36000 5.937
18.38000 11.275
18.40000 4.655
18.42000 1.897
18.44000 3.903
18.46000 2.138
18.48000 -1.209
18.50000 -2.746
18.52000 5.411
18.54000 5.402
18.56000 5.362
18.58000 6.931
18.60000 10.822
18.62000 7.900
18.64000 1.297
18.66000 -0.423
18.68000 -1.467
18.70000 -0.805
18.72000 -0.590
18.74000 -0.264
18.76000 -2.723
18.78000 5.415
18.80000 13.782
18.82000 4.184
18.84000 1.403
18.86000 0.991
18.88000 3.830
18.90000 -4.322
18.92000 -0.098
18.94000 4.136
18.96000 4.867
18.98000 5.487
19.00000 -0.185
19.02000 -0.128
19.04000 6.055
19.06000 2.875
19.08000 -0.619
19.10000 -0.677
19.12000 3.420
19.14000 6.784
19.16000 5.037
19.18000 7.761
19.20000 3.772
19.22000 -3.753
19.24000 2.692
19.26000 6.055
19.28000 7.094
19.30000 10.852
19.32000 8.507
19.34000 3.703
19.36000 -2.055
19.38000 4.272
19.40000 6.057
19.42000 3.296
19.44000 5.964
19.46000 7.554
19.48000 2.988
19.50000 5.591
19.52000 1.975
19.54000 2.943
19.56000 3.504
19.58000 5.450
19.60000 13.359
19.62000 12.299
19.64000 5.480
19.66000 6.343
19.68000 6.711
19.70000 8.103
19.72000 6.033
19.74000 5.208
19.76000 3.123
19.78000 0.459
19.80000 -0.089
19.82000 5.831
19.84000 5.841
19.86000 1.765
19.88000 -1.384
19.90000 0.647
19.92000 10.057
19.94000 8.451
19.96000 7.455
19.98000 7.693
20.00000 3.715
20.02000 6.389
20.04000 -4.258
20.06000 -1.173
20.08000 5.349
20.10000 6.874
20.12000 8.454
20.14000 8.876
20.16000 4.636
20.18000 4.433
20.20000 6.807
20.22000 5.289
20.24000 -2.215
20.26000 4.975
20.28000 5.058
20.30000 4.573
20.32000 1.729
20.34000 2.554
20.36000 1.033
20.38000 4.570
20.40000 6.253
20.42000 -1.478
20.44000 -1.663
20.46000 2.327
20.48000 3.918
20.50000 2.283
20.52000 2.238
20.54000 2.225
20.56000 5.092
20.58000 9.211
20.60000 11.978
20.62000 8.545
20.64000 7.720
20.66000 9.207
20.68000 11.637
20.70000 9.600
20.72000 5.825
20.74000 7.160
20.76000 7.089
20.78000 9.770
20.80000 11.747
20.82000 12.033
20.84000 5.152
20.86000 9.982
20.88000 14.953
20.90000 2.750
20.92000 2.220
20.94000 4.280
20.96000 1.907
20.98000 1.253
21.00000 6.332
21.02000 2.892
21.04000 -0.485
21.06000 -0.014
21.08000 4.065
21.10000 6.427
21.12000 3.079
21.14000 -0.756
21.16000 -4.161
21.18000 4.470
21.20000 5.459
21.22000 2.307
21.24000 -2.766
21.26000 -3.622
21.28000 3.140
21.30000 1.574
21.32000 6.038
21.34000 8.277
21.36000 6.314
21.38000 1.667
21.40000 1.840
21.42000 4.364
21.44000 13.354
21.46000 13.041
21.48000 12.877
21.50000 5.455
21.52000 5.962
21.54000 5.655
21.56000 5.690
21.58000 4.187
21.60000 7.143
21.62000 8.408
21.64000 6.393
21.66000 4.551
21.68000 0.471
21.70000 5.114
21.72000 6.902
21.74000 2.244
21.76000 -0.475
21.78000 -2.363
21.80000 6.431
21.82000 6.255
21.84000 3.328
21.86000 7.396
21.88000 5.193
21.90000 3.769
21.92000 6.240
21.94000 8.803
21.96000 1.589
21.98000 0.076
22.00000 1.267
22.02000 7.915
22.04000 -1.486
22.06000 -2.561
22.08000 -1.820
22.10000 -1.514
22.12000 2.911
22.14000 5.262
22.16000 9.077
22.18000 7.321
22.20000 1.748
22.22000 -1.608
22.24000 5.276
22.26000 1.918
22.28000 2.898
22.30000 2.481
22.32000 -0.644
22.34000 0.922
22.36000 3.705
22.38000 0.813
22.40000 1.103
22.42000 0.047
22.44000 1.858
22.46000 -0.215
22.48000 2.862
22.50000 4.281
22.52000 5.119
22.54000 1.243
22.56000 3.354
22.58000 6.137
22.60000 5.859
22.62000 6.695
22.64000 0.358
22.66000 0.904
22.68000 4.833
22.70000 1.043
22.72000 2.461
22.74000 8.525
22.76000 9.204
22.78000 5.896
22.80000 5.378
22.82000 2.934
22.84000 0.524
22.86000 -2.421
22.88000 -1.828
22.90000 -1.030
22.92000 5.914
22.94000 3.266
22.96000 -0.517
22.98000 -0.676
23.00000 5.959
23.02000 6.698
23.04000 1.630
23.06000 4.169
23.08000 3.722
23.10000 -1.688
23.12000 -4.085
23.14000 0.842
23.16000 3.889
23.18000 5.808
23.20000 4.474
23.22000 -1.655
23.24000 3.891
23.26000 7.896
23.28000 3.334
23.30000 1.576
23.32000 4.523
23.34000 3.040
23.36000 5.819
23.38000 1.382
23.40000 3.729
23.42000 -2.672
23.44000 -1.033
23.46000 5.972
23.48000 2.322
23.50000 0.010
23.52000 -0.179
23.54000 2.629
23.56000 5.262
23.58000 1.767
23.60000 0.453
23.62000 1.296
23.64000 2.489
23.66000 1.596
23.68000 3.542
23.70000 3.126
23.72000 0.240
23.74000 2.391
23.76000 2.746
23.78000 4.449
23.80000 5.880
23.82000 0.956
23.84000 7.307
23.86000 9.950
23.88000 5.724
23.90000 4.302
23.92000 3.026
23.94000 2.694
23.96000 6.796
23.98000 4.121
24.00000 -0.166
24.02000 1.196
24.04000 2.394
24.06000 1.279
24.08000 5.394
24.10000 -0.975
24.12000 -3.888
24.14000 5.156
24.16000 0.796
24.18000 -3.991
24.20000 0.646
24.22000 0.617
24.24000 3.822
24.26000 10.696
24.28000 9.918
24.30000 6.955
24.32000 6.888
24.34000 8.197
24.36000 7.549
24.38000 10.884
24.40000 3.648
24.42000 4.929
24.44000 1.374
24.46000 3.018
24.48000 7.666
24.50000 9.410
24.52000 4.959
24.54000 4.860
24.56000 5.498
24.58000 7.050
24.60000 5.575
24.62000 5.596
24.64000 7.992
24.66000 8.266
24.68000 3.615
24.70000 7.299
24.72000 9.014
24.74000 5.736
24.76000 4.750
24.78000 8.212
24.80000 10.327
24.82000 7.259
24.84000 5.443
24.86000 10.288
24.88000 6.936
24.90000 -2.218
24.92000 -3.956
24.94000 -0.482
24.96000 2.744
24.98000 -1.513
25.00000 -0.743
25.02000 1.401
25.04000 3.623
25.06000 3.951
25.08000 4.655
25.10000 2.559
25.12000 5.588
25.14000 9.205
25.16000 6.564
25.18000 3.507
25.20000 7.631
25.22000 8.161
25.24000 5.475
25.26000 3.158
25.28000 -1.414
25.30000 -3.628
25.32000 2.893
25.34000 2.889
25.36000 0.514
25.38000 4.799
25.40000 6.524
25.42000 9.512
25.44000 10.180
25.46000 9.453
25.48000 6.692
25.50000 4.448
25.52000 -3.228
25.54000 2.861
25.56000 10.201
25.58000 4.369
25.60000 4.169
25.62000 6.914
25.64000 6.922
25.66000 6.732
25.68000 4.008
25.70000 0.116
25.72000 -1.523
25.74000 -3.862
25.76000 -2.043
25.78000 1.129
25.80000 5.450
25.82000 9.535
25.84000 6.414
25.86000 -2.187
25.88000 -0.753
25.90000 3.932
25.92000 3.658
25.94000 4.705
25.96000 6.753
25.98000 5.963
26.00000 -0.059
26.02000 -3.040
26.04000 -3.920
26.06000 0.964
26.08000 2.661
26.10000 6.361
26.12000 10.869
26.14000 6.892
26.16000 1.945
26.18000 -2.650
26.20000 0.257
26.22000 -1.260
26.24000 -0.995
26.26000 3.552
26.28000 5.170
26.30000 3.612
26.32000 3.973
26.34000 2.970
26.36000 3.680
26.38000 6.469
26.40000 6.531
26.42000 4.739
26.44000 -0.646
26.46000 3.185
26.48000 3.112
26.50000 5.184
26.52000 8.922
26.54000 10.102
26.56000 6.032
26.58000 4.556
26.60000 -0.423
26.62000 -2.994
26.64000 0.515
26.66000 -0.734
26.68000 4.431
26.70000 5.507
26.72000 2.772
26.74000 -0.652
26.76000 -0.227
26.78000 -1.898
26.80000 2.633
26.82000 0.577
26.84000 -0.727
26.86000 -1.351
26.88000 -2.001
26.90000 2.012
26.92000 0.972
26.94000 -1.237
26.96000 3.181
26.98000 0.548
27.00000 3.428
27.02000 6.568
27.04000 4.288
27.06000 0.786
27.08000 1.053
27.10000 0.736
27.12000 3.276
27.14000 5.920
27.16000 4.006
27.18000 7.868
27.20000 8.538
27.22000 9.903
27.24000 9.076
27.26000 4.751
27.28000 5.006
27.30000 11.394
27.32000 6.889
27.34000 0.716
27.36000 -0.570
27.38000 2.570
27.40000 4.778
27.42000 4.875
27.44000 2.687
27.46000 1.755
27.48000 6.346
27.50000 4.195
27.52000 6.419
27.54000 2.429
27.56000 7.226
27.58000 5.474
27.60000 -0.881
27.62000 0.910
27.64000 0.770
27.66000 4.814
27.68000 8.313
27.70000 4.732
27.72000 5.472
27.74000 4.031
27.76000 6.594
27.78000 4.952
27.80000 0.951
27.82000 1.797
27.84000 0.287
27.86000 2.096
27.88000 5.581
27.90000 5.202
27.92000 6.573
27.94000 5.075
27.96000 -2.584
27.98000 -3.797
28.00000 6.199
28.02000 8.748
28.04000 9.062
28.06000 7.983
28.08000 4.975
28.10000 0.835
28.12000 0.479
28.14000 1.270
28.16000 4.102
28.18000 8.302
28.20000 5.517
28.22000 -1.494
28.24000 -0.304
28.26000 3.653
28.28000 4.449
28.30000 -1.576
28.32000 -2.967
28.34000 3.627
28.36000 4.368
28.38000 3.539
28.40000 4.306
28.42000 3.689
28.44000 -2.380
28.46000 0.190
28.48000 -0.650
28.50000 1.816
28.52000 4.671
28.54000 4.395
28.56000 4.800
28.58000 3.214
28.60000 3.022
28.62000 3.609
28.64000 -0.502
28.66000 -2.107
28.68000 1.632
28.70000 5.195
28.72000 5.084
28.74000 6.197
28.76000 4.141
28.78000 2.760
28.80000 4.591
28.82000 4.213
28.84000 0.549
28.86000 -1.879
28.88000 3.030
28.90000 4.294
28.92000 2.213
28.94000 2.650
28.96000 2.632
28.98000 3.854
29.00000 0.344
29.02000 2.402
29.04000 3.415
29.06000 1.321
29.08000 -2.267
29.10000 -0.558
29.12000 1.708
29.14000 -0.750
29.16000 -3.775
29.18000 -2.906
29.20000 -2.400
29.22000 -3.681
29.24000 -3.255
29.26000 -0.064
29.28000 -3.368
29.30000 -2.649
29.32000 -0.305
29.34000 2.922
29.36000 3.532
29.38000 4.324
29.40000 2.463
29.42000 -3.765
29.44000 4.180
29.46000 5.513
29.48000 0.843
29.50000 0.432
29.52000 6.650
29.54000 5.373
29.56000 4.663
29.58000 5.684
29.60000 -1.073
29.62000 -1.425
29.64000 3.800
29.66000 5.448
29.68000 4.665
29.70000 4.886
29.72000 -1.948
29.74000 -1.730
29.76000 5.860
29.78000 7.439
29.80000 2.764
29.82000 1.305
29.84000 3.014
29.86000 2.642
29.88000 -2.623
29.90000 -3.513
29.92000 -1.046
29.94000 0.107
29.96000 1.347
29.98000 0.114
30.00000 3.487
30.02000 5.193
30.04000 2.288
30.06000 -0.059
30.08000 0.918
30.10000 4.160
30.12000 7.266
30.14000 5.845
30.16000 2.398
30.18000 0.521
30.20000 1.446
30.22000 4.179
30.24000 4.840
30.26000 0.513
30.28000 0.270
30.30000 -3.720
30.32000 -0.723
30.34000 -3.719
30.36000 -0.617
30.38000 -0.583
30.40000 0.297
30.42000 0.051
30.44000 2.881
30.46000 1.113
30.48000 3.754
30.50000 5.245
30.52000 3.212
30.54000 1.694
30.56000 -0.559
30.58000 2.946
30.60000 1.651
30.62000 2.610
30.64000 1.460
30.66000 1.737
30.68000 3.662
30.70000 8.580
30.72000 7.549
30.74000 3.397
30.76000 -1.211
30.78000 0.890
30.80000 3.247
30.82000 2.637
30.84000 5.554
30.86000 1.425
30.88000 -1.345
30.90000 2.109
30.92000 3.838
30.94000 2.450
30.96000 2.723
30.98000 2.751
31.00000 0.897
31.02000 2.620
31.04000 4.991
31.06000 5.357
31.08000 2.101
31.10000 2.298
31.12000 -0.211
31.14000 -3.676
31.16000 -2.162
31.18000 1.230
31.20000 1.677
31.22000 2.002
31.24000 3.233
31.26000 0.537
31.28000 -0.342
31.30000 4.313
31.32000 -1.436
31.34000 -0.610
31.36000 -0.649
31.38000 1.717
31.40000 4.571
31.42000 6.178
31.44000 2.231
31.46000 2.595
31.48000 7.730
31.50000 8.203
31.52000 6.620
31.54000 3.172
31.56000 1.408
31.58000 1.096
31.60000 -0.885
31.62000 7.471
31.64000 7.685
31.66000 7.024
31.68000 8.329
31.70000 9.136
31.72000 8.379
31.74000 4.915
31.76000 3.042
31.78000 1.747
31.80000 3.058
31.82000 -3.649
31.84000 3.636
31.86000 8.121
31.88000 5.894
31.90000 -0.574
31.92000 -0.528
31.94000 4.233
31.96000 3.504
31.98000 6.008
32.00000 8.155
32.02000 5.041
32.04000 2.077
32.06000 4.069
32.08000 6.167
32.10000 7.482
32.12000 7.147
32.14000 4.600
32.16000 2.062
32.18000 -1.209
32.20000 -0.327
32.22000 -0.719
32.24000 7.706
32.26000 8.909
32.28000 3.757
32.30000 3.168
32.32000 4.188
32.34000 0.870
32.36000 1.041
32.38000 5.596
32.40000 6.907
32.42000 3.230
32.44000 4.528
32.46000 3.328
32.48000 3.890
32.50000 0.390
32.52000 -1.781
32.54000 0.987
32.56000 2.787
32.58000 6.851
32.60000 4.205
32.62000 3.206
32.64000 5.723
32.66000 2.804
32.68000 -1.332
32.70000 4.111
32.72000 11.206
32.74000 6.300
32.76000 2.439
32.78000 2.473
32.80000 6.538
32.82000 6.204
32.84000 1.846
32.86000 1.498
32.88000 7.145
32.90000 0.881
32.92000 -0.758
32.94000 -3.067
32.96000 1.787
32.98000 5.235
33.00000 0.641
33.02000 -0.615
33.04000 -3.613
33.06000 -1.548
33.08000 -0.432
33.10000 2.645
33.12000 -0.434
33.14000 4.494
33.16000 2.020
33.18000 2.507
33.20000 8.701
33.22000 5.501
33.24000 4.165
33.26000 0.939
33.28000 -0.594
33.30000 4.914
33.32000 9.493
33.34000 5.824
33.36000 6.991
33.38000 6.573
33.40000 1.701
33.42000 5.026
33.44000 4.166
33.46000 1.386
33.48000 6.400
33.50000 6.337
33.52000 5.479
33.54000 -0.135
33.56000 4.419
33.58000 3.972
33.60000 8.630
33.62000 5.689
33.64000 6.692
33.66000 2.612
33.68000 2.012
33.70000 2.484
33.72000 8.604
33.74000 6.308
33.76000 0.099
33.78000 2.849
33.80000 7.221
33.82000 5.931
33.84000 7.004
33.86000 6.631
33.88000 2.500
33.90000 2.695
33.92000 2.968
33.94000 10.536
33.96000 7.653
33.98000 3.037
34.00000 4.429
34.02000 5.622
34.04000 7.986
34.06000 9.535
34.08000 7.801
34.10000 3.107
34.12000 3.415
34.14000 -0.495
34.16000 -2.873
34.18000 3.335
34.20000 2.000
34.22000 5.036
34.24000 3.384
34.26000 0.582
34.28000 1.766
34.30000 5.692
34.32000 1.274
34.34000 5.622
34.36000 0.037
34.38000 7.230
34.40000 8.057
34.42000 1.333
34.44000 0.104
34.46000 4.289
34.48000 3.876
34.50000 -0.524
34.52000 -1.541
34.54000 3.426
34.56000 3.077
34.58000 3.923
34.60000 1.651
34.62000 0.096
34.64000 2.671
34.66000 3.600
34.68000 0.716
34.70000 5.324
34.72000 5.708
34.74000 3.946
34.76000 3.794
34.78000 2.212
34.80000 1.285
34.82000 3.473
34.84000 5.697
34.86000 11.183
34.88000 2.783
34.90000 1.851
34.92000 5.554
34.94000 5.068
34.96000 3.743
34.98000 -3.591
35.00000 1.108
35.02000 6.128
35.04000 6.346
35.06000 7.380
35.08000 3.298
35.10000 2.798
35.12000 4.020
35.14000 2.088
35.16000 6.418
35.18000 3.516
35.20000 2.537
35.22000 3.286
35.24000 5.580
35.26000 5.735
35.28000 5.491
35.30000 2.785
35.32000 3.375
35.34000 3.898
35.36000 2.509
35.38000 -0.752
35.40000 -0.731
35.42000 -1.349
35.44000 2.525
35.46000 2.682
35.48000 2.800
35.50000 2.290
35.52000 -0.407
35.54000 3.322
35.56000 2.791
35.58000 8.197
35.60000 2.423
35.62000 4.253
35.64000 4.672
35.66000 7.588
35.68000 7.470
35.70000 -1.080
35.72000 -0.048
35.74000 0.894
35.76000 3.647
35.78000 1.450
35.80000 -0.453
35.82000 4.483
35.84000 0.807
35.86000 2.312
35.88000 2.705
35.90000 3.584
35.92000 -0.067
35.94000 3.281
35.96000 1.456
35.98000 -3.553
36.00000 -1.782
36.02000 -0.647
36.04000 1.724
36.06000 1.353
36.08000 1.248
36.10000 1.954
36.12000 1.628
36.14000 -3.534
36.16000 -3.499
36.18000 0.885
36.20000 -3.682
36.22000 -0.160
36.24000 4.543
36.26000 5.139
36.28000 5.457
36.30000 5.501
36.32000 5.596
36.34000 4.130
36.36000 4.996
36.38000 11.508
36.40000 5.746
36.42000 1.801
36.44000 4.887
36.46000 3.014
36.48000 5.579
36.50000 11.524
36.52000 9.431
36.54000 8.054
36.56000 3.971
36.58000 5.882
36.60000 5.738
36.62000 4.946
36.64000 8.769
36.66000 8.114
36.68000 7.633
36.70000 7.934
36.72000 5.272
36.74000 7.161
36.76000 5.371
36.78000 7.063
36.80000 6.049
36.82000 6.804
36.84000 7.476
36.86000 11.939
36.88000 12.041
36.90000 11.876
36.92000 13.791
36.94000 13.121
36.96000 10.459
36.98000 11.539
37.00000 13.961
37.02000 12.298
37.04000 12.857
37.06000 11.979
37.08000 12.067
37.10000 13.215
37.12000 12.026
37.14000 13.488
37.16000 18.212
37.18000 21.536
37.20000 18.778
37.22000 17.515
37.24000 13.895
37.26000 17.711
37.28000 18.883
37.30000 18.523
37.32000 22.274
37.34000 26.576
37.36000 26.492
37.38000 24.649
37.40000 23.766
37.42000 23.756
37.44000 27.228
37.46000 24.190
37.48000 24.675
37.50000 24.879
37.52000 23.144
37.54000 25.558
37.56000 24.447
37.58000 23.414
37.60000 31.022
37.62000 36.647
37.64000 35.120
37.66000 32.727
37.68000 32.145
37.70000 36.106
37.72000 38.106
37.74000 38.237
37.76000 40.712
37.78000 42.741
37.80000 45.247
37.82000 44.583
37.84000 45.630
37.86000 46.446
37.88000 51.410
37.90000 52.437
37.92000 55.947
37.94000 60.136
37.96000 57.027
37.98000 55.225
38.00000 58.315
38.02000 58.599
38.04000 64.484
38.06000 62.270
38.08000 64.302
38.10000 72.801
38.12000 76.702
38.14000 80.105
38.16000 84.233
38.18000 84.743
38.20000 95.366
38.22000 100.918
38.24000 104.897
38.26000 104.803
38.28000 107.703
38.30000 116.265
38.32000 125.422
38.34000 135.384
38.36000 140.921
38.38000 152.334
38.40000 169.365
38.42000 180.152
38.44000 187.029
38.46000 200.592
38.48000 222.068
38.50000 236.134
38.52000 252.562
38.54000 263.845
38.56000 280.000
38.58000 294.889
38.60000 311.243
38.62000 318.088
38.64000 333.327
38.66000 355.444
38.68000 370.195
38.70000 382.336
38.72000 386.591
38.74000 378.713
38.76000 385.079
38.78000 393.834
38.80000 400.881
38.82000 399.974
38.84000 400.562
38.86000 395.772
38.88000 383.111
38.90000 372.759
38.92000 363.829
38.94000 356.840
38.96000 352.703
38.98000 339.656
39.00000 325.098
39.02000 305.037
39.04000 293.408
39.06000 279.766
39.08000 257.503
39.10000 243.915
39.12000 226.256
39.14000 214.161
39.16000 201.299
39.18000 184.367
39.20000 184.699
39.22000 171.373
39.24000 152.838
39.26000 143.435
39.28000 137.242
39.30000 134.156
39.32000 125.060
39.34000 123.422
39.36000 112.175
39.38000 106.705
39.40000 97.994
39.42000 92.876
39.44000 84.000
39.46000 73.376
39.48000 75.798
39.50000 71.043
39.52000 70.648
39.54000 71.495
39.56000 72.018
39.58000 67.404
39.60000 58.646
39.62000 55.933
39.64000 55.200
39.66000 55.161
39.68000 53.057
39.70000 43.263
39.72000 45.845
39.74000 46.264
39.76000 38.093
39.78000 35.974
39.80000 37.814
39.82000 42.589
39.84000 33.554
39.86000 30.951
39.88000 32.277
39.90000 30.923
39.92000 31.123
39.94000 29.017
39.96000 28.306
39.98000 31.697
40.00000 24.946
40.02000 21.538
40.04000 23.460
40.06000 25.750
40.08000 24.949
40.10000 24.272
40.12000 22.377
40.14000 26.931
40.16000 22.382
40.18000 21.143
40.20000 22.607
40.22000 22.923
40.24000 22.005
40.26000 20.282
40.28000 20.719
40.30000 22.278
40.32000 17.792
40.34000 15.520
40.36000 16.031
40.38000 17.218
40.40000 17.396
40.42000 17.226
40.44000 19.190
40.46000 20.167
40.48000 16.176
40.50000 10.508
40.52000 7.924
40.54000 10.647
40.56000 14.697
40.58000 11.010
40.60000 9.823
40.62000 9.120
40.64000 10.468
40.66000 10.663
40.68000 12.223
40.70000 9.565
40.72000 3.960
40.74000 6.258
40.76000 8.087
40.78000 7.647
40.80000 12.162
40.82000 12.138
40.84000 10.564
40.86000 12.157
40.88000 12.112
40.90000 5.344
40.92000 8.007
40.94000 6.755
40.96000 9.619
40.98000 7.683
41.00000 3.193
41.02000 4.193
41.04000 4.722
41.06000 5.543
41.08000 2.103
41.10000 1.629
41.12000 6.067
41.14000 8.324
41.16000 8.763
41.18000 5.965
41.20000 3.249
41.22000 1.606
41.24000 0.905
41.26000 3.028
41.28000 7.667
41.30000 7.090
41.32000 5.629
41.34000 7.066
41.36000 6.413
41.38000 6.200
41.40000 4.036
41.42000 1.514
41.44000 0.307
41.46000 1.745
41.48000 4.865
41.50000 4.860
41.52000 3.606
41.54000 5.273
41.56000 3.806
41.58000 1.928
41.60000 2.054
41.62000 3.122
41.64000 3.840
41.66000 4.345
41.68000 1.518
41.70000 1.817
41.72000 0.716
41.74000 -0.992
41.76000 -3.469
41.78000 -1.947
41.80000 2.822
41.82000 1.586
41.84000 -2.165
41.86000 1.291
41.88000 7.050
41.90000 5.652
41.92000 7.016
41.94000 9.225
41.96000 3.683
41.98000 0.984
42.00000 2.018
42.02000 5.534
42.04000 3.490
42.06000 3.754
42.08000 3.439
42.10000 2.499
42.12000 1.689
42.14000 0.684
42.16000 -0.686
42.18000 -3.413
42.20000 1.946
42.22000 6.973
42.24000 3.365
42.26000 0.656
42.28000 4.605
42.30000 4.581
42.32000 2.092
42.34000 1.436
42.36000 -0.908
42.38000 2.625
42.40000 2.345
42.42000 2.072
42.44000 -0.506
42.46000 -1.080
42.48000 -0.672
42.50000 3.324
42.52000 2.688
42.54000 2.610
42.56000 -0.777
42.58000 0.494
42.60000 3.048
42.62000 4.894
42.64000 2.001
42.66000 2.388
42.68000 -3.087
42.70000 -0.302
42.72000 1.017
42.74000 2.481
42.76000 0.857
42.78000 1.067
42.80000 3.509
42.82000 -1.727
42.84000 0.797
42.86000 1.767
42.88000 0.810
42.90000 2.425
42.92000 -1.591
42.94000 -0.415
42.96000 -1.209
42.98000 1.044
43.00000 -0.790
43.02000 6.196
43.04000 6.990
43.06000 5.196
43.08000 3.450
43.10000 0.812
43.12000 2.143
43.14000 -1.320
43.16000 -0.247
43.18000 -2.427
43.20000 -1.726
43.22000 1.872
43.24000 0.105
43.26000 -2.886
43.28000 -3.329
43.30000 1.679
43.32000 5.673
43.34000 4.663
43.36000 1.923
43.38000 3.525
43.40000 1.304
43.42000 -0.197
43.44000 -1.926
43.46000 -3.323
43.48000 2.126
43.50000 4.740
43.52000 2.026
43.54000 1.630
43.56000 4.231
43.58000 3.955
43.60000 5.132
43.62000 1.336
43.64000 1.888
43.66000 3.848
43.68000 3.731
43.70000 2.277
43.72000 3.292
43.74000 7.319
43.76000 6.544
43.78000 5.019
43.80000 5.728
43.82000 3.426
43.84000 2.826
43.86000 3.022
43.88000 3.560
43.90000 4.062
43.92000 5.786
43.94000 8.875
43.96000 8.183
43.98000 4.064
44.00000 6.288
44.02000 11.329
44.04000 6.640
44.06000 7.461
44.08000 11.049
44.10000 9.787
44.12000 12.861
44.14000 12.154
44.16000 7.869
44.18000 11.910
44.20000 10.787
44.22000 13.892
44.24000 11.921
44.26000 11.375
44.28000 13.355
44.30000 16.685
44.32000 17.096
44.34000 18.764
44.36000 21.223
44.38000 19.880
44.40000 18.549
44.42000 23.289
44.44000 27.219
44.46000 28.554
44.48000 32.772
44.50000 31.562
44.52000 29.755
44.54000 30.932
44.56000 27.879
44.58000 27.634
44.60000 31.681
44.62000 38.701
44.64000 42.484
44.66000 41.465
44.68000 42.575
44.70000 45.326
44.72000 52.425
44.74000 52.701
44.76000 57.448
44.78000 59.437
44.80000 61.079
44.82000 67.560
44.84000 72.128
44.86000 75.682
44.88000 77.832
44.90000 77.063
44.92000 80.300
44.94000 81.644
44.96000 87.789
44.98000 93.588
45.00000 93.512
45.02000 90.142
45.04000 93.390
45.06000 100.814
45.08000 104.544
45.10000 102.227
45.12000 96.926
45.14000 95.330
45.16000 95.646
45.18000 97.247
45.20000 94.384
45.22000 100.018
45.24000 97.363
45.26000 94.132
45.28000 93.289
45.30000 85.980
45.32000 86.925
45.34000 85.463
45.36000 84.867
45.38000 82.487
45.40000 79.283
45.42000 76.087
45.44000 73.415
45.46000 71.047
45.48000 67.861
45.50000 64.093
45.52000 58.670
45.54000 59.103
45.56000 59.315
45.58000 57.422
45.60000 55.227
45.62000 46.865
45.64000 43.821
45.66000 41.762
45.68000 35.788
45.70000 34.012
45.72000 36.096
45.74000 34.185
45.76000 31.185
45.78000 27.199
45.80000 26.874
45.82000 25.170
45.84000 23.308
45.86000 22.180
45.88000 20.249
45.90000 17.586
45.92000 14.232
45.94000 14.181
45.96000 18.738
45.98000 16.720
46.00000 9.852
46.02000 10.185
46.04000 9.082
46.06000 12.573
46.08000 12.876
46.10000 9.492
46.12000 5.857
46.14000 5.547
46.16000 5.416
46.18000 2.870
46.20000 8.266
46.22000 6.000
46.24000 10.046
46.26000 7.261
46.28000 2.891
46.30000 3.032
46.32000 3.845
46.34000 4.579
46.36000 5.122
46.38000 1.724
46.40000 2.642
46.42000 4.208
46.44000 3.401
46.46000 0.974
46.48000 2.496
46.50000 3.033
46.52000 2.027
46.54000 1.093
46.56000 0.190
46.58000 2.618
46.60000 3.977
46.62000 2.890
46.64000 2.046
46.66000 5.621
46.68000 2.635
46.70000 0.668
46.72000 4.561
46.74000 1.235
46.76000 -0.754
46.78000 -0.305
46.80000 -1.681
46.82000 -0.785
46.84000 -2.908
46.86000 -0.728
46.88000 1.797
46.90000 -2.943
46.92000 0.611
46.94000 0.953
46.96000 -0.078
46.98000 3.194
47.00000 2.657
47.02000 3.044
47.04000 6.582
47.06000 4.967
47.08000 1.738
47.10000 0.817
47.12000 3.455
47.14000 2.195
47.16000 1.104
47.18000 1.182
47.20000 -2.528
47.22000 -0.280
47.24000 3.038
47.26000 2.263
47.28000 1.849
47.30000 3.564
47.32000 5.456
47.34000 4.241
47.36000 5.354
47.38000 4.557
47.40000 5.123
47.42000 5.494
47.44000 5.222
47.46000 3.826
47.48000 0.349
47.50000 -2.856
47.52000 -0.384
47.54000 0.645
47.56000 2.347
47.58000 3.598
47.60000 6.705
47.62000 6.204
47.64000 6.050
47.66000 5.249
47.68000 1.154
47.70000 -2.829
47.72000 1.919
47.74000 7.912
47.76000 4.549
47.78000 3.686
47.80000 5.908
47.82000 7.574
47.84000 3.627
47.86000 2.607
47.88000 -0.298
47.90000 1.335
47.92000 5.722
47.94000 3.239
47.96000 0.590
47.98000 4.126
48.00000 6.437
48.02000 4.325
48.04000 4.404
48.06000 5.934
48.08000 5.228
48.10000 6.786
48.12000 6.119
48.14000 1.569
48.16000 2.747
48.18000 -0.816
48.20000 2.530
48.22000 4.844
48.24000 6.937
48.26000 8.399
48.28000 7.068
48.30000 8.649
48.32000 4.964
48.34000 2.332
48.36000 5.051
48.38000 6.778
48.40000 2.987
48.42000 2.098
48.44000 -0.545
48.46000 -0.369
48.48000 6.107
48.50000 5.036
48.52000 10.015
48.54000 5.134
48.56000 2.319
48.58000 0.105
48.60000 -1.642
48.62000 -2.332
48.64000 1.641
48.66000 0.340
48.68000 -0.254
48.70000 1.785
48.72000 0.095
48.74000 -2.777
48.76000 3.230
48.78000 4.196
48.80000 2.486
48.82000 3.962
48.84000 0.673
48.86000 0.435
48.88000 0.857
48.90000 0.651
48.92000 -0.888
48.94000 4.887
48.96000 7.242
48.98000 5.369
49.00000 2.421
49.02000 1.019
49.04000 1.874
49.06000 0.918
49.08000 -0.494
49.10000 -2.755
49.12000 5.180
49.14000 9.535
49.16000 2.635
49.18000 1.318
49.20000 3.471
49.22000 2.526
49.24000 4.954
49.26000 5.477
49.28000 3.574
49.30000 2.969
49.32000 3.463
49.34000 3.876
49.36000 5.460
49.38000 3.764
49.40000 5.771
49.42000 3.403
49.44000 -1.980
49.46000 1.370
49.48000 3.809
49.50000 5.191
49.52000 1.993
49.54000 3.118
49.56000 2.356
49.58000 2.604
49.60000 -0.571
49.62000 -2.634
49.64000 -2.094
49.66000 0.515
49.68000 -0.973
49.70000 2.795
49.72000 2.315
49.74000 2.631
49.76000 3.477
49.78000 0.610
49.80000 0.861
49.82000 0.911
49.84000 2.440
49.86000 -0.956
49.88000 0.438
49.90000 2.767
49.92000 5.764
49.94000 9.986
49.96000 5.290
49.98000 -0.773
50.00000 0.841
50.02000 1.371
50.04000 0.145
50.06000 -1.108
50.08000 -2.713
50.10000 1.198
50.12000 4.245
50.14000 4.475
50.16000 8.406
50.18000 7.466
50.20000 1.779
50.22000 -1.027
50.24000 -1.997
50.26000 0.187
50.28000 -0.287
50.30000 1.613
50.32000 5.049
50.34000 6.734
50.36000 3.737
50.38000 2.917
50.40000 -2.050
50.42000 -2.055
50.44000 -1.469
50.46000 6.596
50.48000 6.071
50.50000 3.397
50.52000 1.572
50.54000 1.445
50.56000 1.908
50.58000 5.018
50.60000 4.275
50.62000 1.320
50.64000 1.680
50.66000 2.909
50.68000 -1.977
50.70000 -0.348
50.72000 1.367
50.74000 0.263
50.76000 0.891
50.78000 2.735
50.80000 2.815
50.82000 1.382
50.84000 0.827
50.86000 1.866
50.88000 -0.463
50.90000 -1.190
50.92000 -0.248
50.94000 5.012
50.96000 5.226
50.98000 1.638
51.00000 -2.402
51.02000 -0.338
51.04000 -1.463
51.06000 1.056
51.08000 -2.075
51.10000 -0.372
51.12000 -2.697
51.14000 2.088
51.16000 3.799
51.18000 0.862
51.20000 -1.626
51.22000 1.788
51.24000 -2.101
51.26000 -0.106
51.28000 2.075
51.30000 1.406
51.32000 1.358
51.34000 -0.346
51.36000 -0.414
51.38000 1.368
51.40000 1.733
51.42000 1.293
51.44000 2.429
51.46000 3.710
51.48000 1.771
51.50000 -0.271
51.52000 0.467
51.54000 -0.534
51.56000 0.988
51.58000 2.425
51.60000 6.887
51.62000 3.928
51.64000 0.765
51.66000 6.944
51.68000 7.065
51.70000 6.893
51.72000 5.984
51.74000 2.039
51.76000 0.414
51.78000 1.448
51.80000 0.840
51.82000 -1.032
51.84000 -1.483
51.86000 -0.244
51.88000 -0.763
51.90000 -1.853
51.92000 3.278
51.94000 3.691
51.96000 1.247
51.98000 1.652
52.00000 5.156
52.02000 1.917
52.04000 -1.875
52.06000 -2.670
52.08000 2.195
52.10000 0.029
52.12000 -1.366
52.14000 -1.838
52.16000 2.755
52.18000 4.054
52.20000 0.289
52.22000 -0.085
52.24000 3.755
52.26000 2.982
52.28000 2.670
52.30000 1.946
52.32000 3.065
52.34000 5.298
52.36000 7.573
52.38000 3.217
52.40000 -1.315
52.42000 -2.451
52.44000 0.982
52.46000 -2.271
52.48000 -1.889
52.50000 -0.295
52.52000 1.279
52.54000 2.245
52.56000 5.476
52.58000 1.662
52.60000 1.020
52.62000 -0.730
52.64000 2.073
52.66000 2.806
52.68000 4.862
52.70000 3.160
52.72000 2.903
52.74000 0.319
52.76000 3.702
52.78000 5.338
52.80000 2.192
52.82000 2.240
52.84000 3.699
52.86000 0.939
52.88000 1.175
52.90000 -2.647
52.92000 -1.015
52.94000 1.423
52.96000 5.302
52.98000 3.635
53.00000 1.159
53.02000 0.065
53.04000 5.814
53.06000 3.748
53.08000 1.694
53.10000 0.452
53.12000 4.824
53.14000 6.679
53.16000 2.224
53.18000 -1.000
53.20000 0.288
53.22000 3.060
53.24000 1.567
53.26000 -0.426
53.28000 -2.646
53.30000 -0.475
53.32000 2.266
53.34000 -1.241
53.36000 -2.183
53.38000 0.618
53.40000 -1.910
53.42000 2.013
53.44000 2.977
53.46000 0.675
53.48000 -0.918
53.50000 2.202
53.52000 -0.210
53.54000 -0.446
53.56000 -0.479
53.58000 -1.864
53.60000 1.296
53.62000 0.565
53.64000 1.756
53.66000 6.335
53.68000 4.999
53.70000 0.696
53.72000 -2.468
53.74000 -0.827
53.76000 -2.645
53.78000 -0.734
53.80000 1.382
53.82000 3.206
53.84000 3.116
53.86000 2.174
53.88000 1.975
53.90000 0.050
53.92000 1.246
53.94000 3.016
53.96000 5.140
53.98000 4.277
54.00000 7.668
54.02000 3.762
54.04000 0.072
54.06000 -0.345
54.08000 -1.577
54.10000 -0.793
54.12000 0.062
54.14000 2.445
54.16000 0.175
54.18000 -2.038
54.20000 1.871
54.22000 4.589
54.24000 1.107
54.26000 1.687
54.28000 0.603
54.30000 -0.405
54.32000 -1.526
54.34000 0.166
54.36000 -0.399
54.38000 0.642
54.40000 1.146
54.42000 3.089
54.44000 -0.340
54.46000 -2.625
54.48000 0.157
54.50000 0.748
54.52000 -0.285
54.54000 1.491
54.56000 2.515
54.58000 2.331
54.60000 -0.395
54.62000 -1.609
54.64000 -1.036
54.66000 0.946
54.68000 3.205
54.70000 4.549
54.72000 5.717
54.74000 5.770
54.76000 3.573
54.78000 2.010
54.80000 5.746
54.82000 6.498
54.84000 -1.590
54.86000 -2.603
54.88000 0.906
54.90000 2.763
54.92000 1.955
54.94000 2.118
54.96000 1.598
54.98000 2.936
55.00000 6.481
55.02000 5.820
55.04000 4.431
55.06000 1.990
55.08000 4.322
55.10000 5.572
55.12000 4.871
55.14000 2.077
55.16000 0.017
55.18000 3.796
55.20000 9.008
55.22000 3.405
55.24000 -0.185
55.26000 2.605
55.28000 0.360
55.30000 -0.877
55.32000 0.036
55.34000 -1.065
55.36000 2.622
55.38000 0.321
55.40000 1.059
55.42000 5.742
55.44000 5.617
55.46000 3.765
55.48000 2.165
55.50000 -1.516
55.52000 -1.556
55.54000 -0.470
55.56000 1.979
55.58000 3.837
55.60000 -0.530
55.62000 1.201
55.64000 -2.594
55.66000 -1.478
55.68000 5.058
55.70000 -1.338
55.72000 -1.564
55.74000 5.242
55.76000 5.500
55.78000 3.104
55.80000 0.303
55.82000 4.275
55.84000 0.555
55.86000 -0.894
55.88000 1.425
55.90000 1.348
55.92000 -0.024
55.94000 3.023
55.96000 7.664
55.98000 3.408
56.00000 -1.759
56.02000 0.626
56.04000 0.226
56.06000 1.338
56.08000 3.171
56.10000 1.699
56.12000 4.426
56.14000 2.736
56.16000 1.659
56.18000 3.628
56.20000 2.853
56.22000 -0.189
56.24000 -1.498
56.26000 -0.693
56.28000 1.678
56.30000 1.362
56.32000 0.155
56.34000 -0.306
56.36000 0.056
56.38000 -0.626
56.40000 3.621
56.42000 1.631
56.44000 2.570
56.46000 3.372
56.48000 4.051
56.50000 7.445
56.52000 3.232
56.54000 -0.307
56.56000 2.028
56.58000 4.276
56.60000 0.093
56.62000 -2.570
56.64000 -1.017
56.66000 4.017
56.68000 2.990
56.70000 3.758
56.72000 6.364
56.74000 6.335
56.76000 3.684
56.78000 0.605
56.80000 -0.540
56.82000 3.503
56.84000 4.234
56.86000 2.526
56.88000 -0.218
56.90000 3.731
56.92000 5.027
56.94000 -1.673
56.96000 -1.431
56.98000 0.015
57.00000 2.298
57.02000 1.610
57.04000 -1.140
57.06000 2.311
57.08000 3.106
57.10000 2.854
57.12000 1.423
57.14000 3.208
57.16000 4.531
57.18000 3.386
57.20000 0.422
57.22000 0.340
57.24000 1.033
57.26000 1.745
57.28000 1.192
57.30000 1.640
57.32000 2.213
57.34000 0.280
57.36000 -0.728
57.38000 1.017
57.40000 1.846
57.42000 4.421
57.44000 3.984
57.46000 -0.773
57.48000 3.345
57.50000 4.812
57.52000 2.174
57.54000 2.794
57.56000 5.913
57.58000 3.291
57.60000 2.207
57.62000 1.490
57.64000 0.513
57.66000 -0.217
57.68000 -0.496
57.70000 -2.432
57.72000 -1.941
57.74000 1.960
57.76000 0.273
57.78000 0.236
57.80000 1.823
57.82000 -0.833
57.84000 -0.058
57.86000 0.781
57.88000 -1.918
57.90000 0.960
57.92000 2.688
57.94000 1.231
57.96000 3.740
57.98000 1.179
58.00000 4.984
58.02000 4.521
58.04000 1.422
58.06000 -1.011
58.08000 -0.738
58.10000 2.795
58.12000 1.828
58.14000 -0.096
58.16000 -2.487
58.18000 -1.410
58.20000 3.321
58.22000 3.406
58.24000 5.012
58.26000 4.917
58.28000 7.004
58.30000 4.300
58.32000 2.813
58.34000 2.218
58.36000 1.245
58.38000 4.777
58.40000 4.472
58.42000 -0.475
58.44000 5.262
58.46000 5.022
58.48000 0.534
58.50000 -2.160
58.52000 -0.145
58.54000 2.167
58.56000 5.245
58.58000 4.840
58.60000 5.149
58.62000 7.737
58.64000 4.983
58.66000 0.291
58.68000 -2.452
58.70000 5.387
58.72000 5.179
58.74000 3.414
58.76000 -2.277
58.78000 1.018
58.80000 2.058
58.82000 0.681
58.84000 0.701
58.86000 0.914
58.88000 0.623
58.90000 3.002
58.92000 2.439
58.94000 6.125
58.96000 4.619
58.98000 2.586
59.00000 2.681
59.02000 3.269
59.04000 3.779
59.06000 5.519
59.08000 3.024
59.10000 3.831
59.12000 6.054
59.14000 4.213
59.16000 7.196
59.18000 1.449
59.20000 1.119
59.22000 -0.085
59.24000 1.907
59.26000 6.392
59.28000 6.148
59.30000 4.589
59.32000 7.142
59.34000 4.758
59.36000 0.823
59.38000 3.291
59.40000 1.227
59.42000 4.069
59.44000 2.772
59.46000 0.657
59.48000 1.751
59.50000 6.764
59.52000 3.059
59.54000 0.564
59.56000 0.702
59.58000 0.329
59.60000 -2.128
59.62000 0.897
59.64000 -0.149
59.66000 -1.833
59.68000 4.774
59.70000 2.438
59.72000 2.069
59.74000 -0.033
59.76000 -0.030
59.78000 -1.366
59.80000 1.383
59.82000 5.725
59.84000 3.369
59.86000 -0.897
59.88000 1.723
59.90000 0.118
59.92000 3.867
59.94000 -0.504
59.96000 1.380
59.98000 2.220
60.00000 -0.938
60.02000 2.715
60.04000 4.886
60.06000 4.707
60.08000 0.622
60.10000 2.243
60.12000 9.274
60.14000 10.589
60.16000 10.561
60.18000 4.693
60.20000 2.001
60.22000 2.608
60.24000 5.318
60.26000 7.651
60.28000 2.649
60.30000 -2.389
60.32000 -1.982
60.34000 1.711
60.36000 5.147
60.38000 4.336
60.40000 5.797
60.42000 4.526
60.44000 4.413
60.46000 3.621
60.48000 3.181
60.50000 4.596
60.52000 8.203
60.54000 4.984
60.56000 3.691
60.58000 0.312
60.60000 -0.048
60.62000 -0.409
60.64000 2.736
60.66000 1.701
60.68000 2.174
60.70000 0.885
60.72000 2.457
60.74000 5.659
60.76000 1.793
60.78000 -1.405
60.80000 -1.367
60.82000 -0.653
60.84000 0.109
60.86000 -1.398
60.88000 2.710
60.90000 0.124
60.92000 0.558
60.94000 2.677
60.96000 3.265
60.98000 3.197
61.00000 1.262
61.02000 -1.446
61.04000 1.138
61.06000 3.138
61.08000 0.369
61.10000 3.533
61.12000 1.640
61.14000 1.444
61.16000 -1.851
61.18000 -2.385
61.20000 -0.915
61.22000 5.841
61.24000 4.925
61.26000 0.551
61.28000 -0.627
61.30000 -1.297
61.32000 2.945
61.34000 5.339
61.36000 1.747
61.38000 1.512
61.40000 2.842
61.42000 2.867
61.44000 2.195
61.46000 1.106
61.48000 3.282
61.50000 2.127
61.52000 0.448
61.54000 2.322
61.56000 0.371
61.58000 -1.354
61.60000 -0.879
61.62000 1.465
61.64000 -0.171
61.66000 -0.636
61.68000 0.762
61.70000 -0.059
61.72000 2.748
61.74000 -2.372
61.76000 0.710
61.78000 3.347
61.80000 0.004
61.82000 -0.383
61.84000 0.085
61.86000 0.606
61.88000 4.174
61.90000 1.874
61.92000 1.238
61.94000 3.054
61.96000 2.517
61.98000 -0.618
62.00000 -1.522
62.02000 0.831
62.04000 5.435
62.06000 4.032
62.08000 2.941
62.10000 6.410
62.12000 -0.243
62.14000 2.851
62.16000 5.982
62.18000 4.327
62.20000 2.241
62.22000 3.929
62.24000 3.436
62.26000 1.884
62.28000 3.315
62.30000 5.118
62.32000 7.123
62.34000 2.001
62.36000 2.821
62.38000 3.676
62.40000 2.533
62.42000 4.733
62.44000 0.689
62.46000 0.561
62.48000 2.022
62.50000 3.434
62.52000 2.286
62.54000 0.048
62.56000 2.017
62.58000 1.877
62.60000 1.331
62.62000 -0.989
62.64000 0.240
62.66000 0.991
62.68000 2.106
62.70000 -0.182
62.72000 1.153
62.74000 2.299
62.76000 -1.737
62.78000 -1.048
62.80000 -0.204
62.82000 -1.624
62.84000 0.622
62.86000 5.317
62.88000 4.675
62.90000 0.193
62.92000 -1.555
62.94000 0.711
62.96000 2.287
62.98000 3.626
63.00000 2.449
63.02000 -2.337
63.04000 -2.337
63.06000 2.694
63.08000 0.419
63.10000 -1.215
63.12000 4.243
63.14000 2.917
63.16000 2.561
63.18000 3.725
63.20000 0.076
63.22000 2.192
63.24000 3.778
63.26000 2.342
63.28000 5.189
63.30000 1.733
63.32000 1.576
63.34000 3.308
63.36000 5.070
63.38000 0.358
63.40000 -1.740
63.42000 1.339
63.44000 3.027
63.46000 6.283
63.48000 3.807
63.50000 4.037
63.52000 3.230
63.54000 2.755
63.56000 -0.115
63.58000 3.041
63.60000 0.988
63.62000 1.801
63.64000 2.782
63.66000 3.621
63.68000 3.534
63.70000 -0.416
63.72000 0.253
63.74000 -0.570
63.76000 -0.098
63.78000 0.836
63.80000 1.432
63.82000 -1.753
63.84000 -1.856
63.86000 -0.592
63.88000 0.788
63.90000 0.844
63.92000 0.913
63.94000 1.920
63.96000 2.388
63.98000 1.999
64.00000 3.922
64.02000 6.505
64.04000 2.570
64.06000 0.593
64.08000 2.980
64.10000 2.396
64.12000 -1.119
64.14000 -2.332
64.16000 1.514
64.18000 2.377
64.20000 3.974
64.22000 6.119
64.24000 3.227
64.26000 -0.350
64.28000 3.158
64.30000 4.941
64.32000 1.568
64.34000 3.789
64.36000 3.142
64.38000 2.260
64.40000 1.295
64.42000 -0.264
64.44000 2.100
64.46000 1.251
64.48000 2.815
64.50000 3.818
64.52000 3.391
64.54000 0.582
64.56000 5.510
64.58000 7.510
64.60000 5.064
64.62000 2.561
64.64000 -0.554
64.66000 -2.075
64.68000 -2.336
64.70000 -0.490
64.72000 1.913
64.74000 0.568
64.76000 3.449
64.78000 4.187
64.80000 4.809
64.82000 6.216
64.84000 2.479
64.86000 4.158
64.88000 6.327
64.90000 7.955
64.92000 4.599
64.94000 4.204
64.96000 4.510
64.98000 1.872
65.00000 2.020
65.02000 4.135
65.04000 3.410
65.06000 3.775
65.08000 3.219
65.10000 4.230
65.12000 2.781
65.14000 2.959
65.16000 4.569
65.18000 3.390
65.20000 4.291
65.22000 6.712
65.24000 8.731
65.26000 7.074
65.28000 5.895
65.30000 5.699
65.32000 5.407
65.34000 3.046
65.36000 2.142
65.38000 5.334
65.40000 5.010
65.42000 2.732
65.44000 2.112
65.46000 0.822
65.48000 0.303
65.50000 2.473
65.52000 3.375
65.54000 3.249
65.56000 7.044
65.58000 4.995
65.60000 4.082
65.62000 4.298
65.64000 4.913
65.66000 5.747
65.68000 4.066
65.70000 5.997
65.72000 8.198
65.74000 7.026
65.76000 6.462
65.78000 2.655
65.80000 2.382
65.82000 5.244
65.84000 5.810
65.86000 4.430
65.88000 3.696
65.90000 6.450
65.92000 9.914
65.94000 10.255
65.96000 6.952
65.98000 5.991
66.00000 6.068
66.02000 5.238
66.04000 2.819
66.06000 4.697
66.08000 6.080
66.10000 4.766
66.12000 3.650
66.14000 2.445
66.16000 3.372
66.18000 5.004
66.20000 4.462
66.22000 3.285
66.24000 1.889
66.26000 3.231
66.28000 2.415
66.30000 3.946
66.32000 4.785
66.34000 1.626
66.36000 1.983
66.38000 2.024
66.40000 3.763
66.42000 3.435
66.44000 4.004
66.46000 0.257
66.48000 3.281
66.50000 1.937
66.52000 1.820
66.54000 1.312
66.56000 1.799
66.58000 2.016
66.60000 0.085
66.62000 -0.119
66.64000 -0.510
66.66000 1.639
66.68000 1.505
66.70000 0.206
66.72000 2.889
66.74000 1.768
66.76000 1.210
66.78000 2.095
66.80000 0.832
66.82000 -0.546
66.84000 1.256
66.86000 0.981
66.88000 0.046
66.90000 0.348
66.92000 -0.474
66.94000 -2.295
66.96000 1.317
66.98000 -0.710
67.00000 -2.293
67.02000 -1.037
67.04000 0.436
67.06000 1.357
67.08000 3.010
67.10000 1.023
67.12000 1.894
67.14000 2.011
67.16000 -0.909
67.18000 3.005
67.20000 0.632
67.22000 -0.699
67.24000 -0.139
67.26000 0.116
67.28000 -1.704
67.30000 -1.571
67.32000 -1.384
67.34000 0.018
67.36000 -0.753
67.38000 -1.098
67.40000 0.393
67.42000 2.296
67.44000 1.551
67.46000 2.726
67.48000 2.586
67.50000 0.845
67.52000 -1.792
67.54000 0.356
67.56000 0.273
67.58000 1.075
67.60000 0.479
67.62000 -0.883
67.64000 -0.121
67.66000 0.887
67.68000 -0.379
67.70000 2.230
67.72000 0.840
67.74000 1.149
67.76000 -1.716
67.78000 0.076
67.80000 -1.415
67.82000 -2.255
67.84000 1.721
67.86000 1.878
67.88000 1.618
67.90000 2.220
67.92000 0.672
67.94000 -0.052
67.96000 1.560
67.98000 1.121
68.00000 2.339
68.02000 -0.565
68.04000 -2.246
68.06000 -1.864
68.08000 -0.579
68.10000 -0.846
68.12000 -0.497
68.14000 2.168
68.16000 3.438
68.18000 0.720
68.20000 -0.095
68.22000 0.295
68.24000 -0.545
68.26000 -0.895
68.28000 -0.503
68.30000 -0.686
68.32000 1.185
68.34000 2.552
68.36000 1.556
68.38000 -0.731
68.40000 -0.259
68.42000 2.889
68.44000 3.376
68.46000 1.737
68.48000 2.247
68.50000 4.938
68.52000 2.658
68.54000 0.554
68.56000 -0.783
68.58000 0.187
68.60000 1.220
68.62000 -1.951
68.64000 -1.371
68.66000 -0.595
68.68000 -1.082
68.70000 -1.286
68.72000 -0.140
68.74000 0.010
68.76000 1.101
68.78000 0.103
68.80000 -1.010
68.82000 0.450
68.84000 2.969
68.86000 2.999
68.88000 -0.014
68.90000 -0.491
68.92000 3.029
68.94000 1.429
68.96000 0.931
68.98000 3.585
69.00000 3.515
69.02000 1.977
69.04000 1.190
69.06000 1.973
69.08000 2.251
69.10000 3.017
69.12000 1.229
69.14000 0.083
69.16000 2.159
69.18000 3.567
69.20000 1.632
69.22000 -2.185
69.24000 0.042
69.26000 -0.635
69.28000 -0.053
69.30000 1.079
69.32000 -0.129
69.34000 0.503
69.36000 -0.736
69.38000 0.879
69.40000 3.040
69.42000 1.018
69.44000 -0.036
69.46000 1.775
69.48000 -1.241
69.50000 -0.667
69.52000 1.950
69.54000 2.096
69.56000 0.487
69.58000 -0.919
69.60000 1.575
69.62000 1.359
69.64000 0.185
69.66000 2.825
69.68000 1.862
69.70000 3.163
69.72000 2.831
69.74000 3.047
69.76000 5.198
69.78000 5.982
69.80000 3.419
69.82000 1.186
69.84000 1.383
69.86000 3.141
69.88000 1.811
69.90000 2.061
69.92000 3.984
69.94000 5.460
69.96000 2.590
69.98000 -2.137
70.00000 -0.660
70.02000 3.152
70.04000 2.159
70.06000 0.555
70.08000 0.275
70.10000 1.544
70.12000 0.850
70.14000 3.504
70.16000 4.926
70.18000 3.526
70.20000 3.580
70.22000 3.469
70.24000 3.934
70.26000 1.654
70.28000 3.272
70.30000 3.453
70.32000 2.499
70.34000 -0.087
70.36000 2.079
70.38000 1.771
70.40000 -0.174
70.42000 2.489
70.44000 1.492
70.46000 0.651
70.48000 2.535
70.50000 -0.521
70.52000 -0.523
70.54000 0.351
70.56000 0.840
70.58000 1.910
70.60000 -1.030
70.62000 -0.986
70.64000 0.672
70.66000 -0.840
70.68000 -0.623
70.70000 4.119
70.72000 1.770
70.74000 0.642
70.76000 3.871
70.78000 1.592
70.80000 0.406
70.82000 -0.342
70.84000 -0.645
70.86000 -0.616
70.88000 -2.061
70.90000 -0.429
70.92000 -2.145
70.94000 -0.481
70.96000 -1.221
70.98000 0.430
71.00000 2.040
71.02000 2.767
71.04000 -2.142
71.06000 -1.769
71.08000 -0.198
71.10000 2.269
71.12000 2.517
71.14000 1.810
71.16000 0.036
71.18000 0.458
71.20000 4.262
71.22000 3.370
71.24000 0.491
71.26000 0.670
71.28000 0.545
71.30000 0.723
71.32000 2.957
71.34000 4.221
71.36000 -0.120
71.38000 1.746
71.40000 2.135
71.42000 3.456
71.44000 5.530
71.46000 4.406
71.48000 1.613
71.50000 0.950
71.52000 0.806
71.54000 2.689
71.56000 3.316
71.58000 2.792
71.60000 -1.297
71.62000 -0.642
71.64000 0.893
71.66000 -0.423
71.68000 0.257
71.70000 -0.507
71.72000 -0.169
71.74000 2.203
71.76000 2.280
71.78000 0.390
71.80000 -0.673
71.82000 0.801
71.84000 -0.486
71.86000 -0.043
71.88000 -1.810
71.90000 -2.113
71.92000 -1.463
71.94000 -0.223
71.96000 -0.554
71.98000 0.066
72.00000 2.303
72.02000 0.267
72.04000 -1.839
72.06000 -0.602
72.08000 3.421
72.10000 3.571
72.12000 2.722
72.14000 0.744
72.16000 0.264
72.18000 -0.713
72.20000 1.744
72.22000 0.824
72.24000 2.954
72.26000 1.836
72.28000 1.187
72.30000 1.622
72.32000 -0.932
72.34000 0.501
72.36000 1.680
72.38000 1.055
72.40000 -0.035
72.42000 -2.082
72.44000 -0.528
72.46000 -0.176
72.48000 1.832
72.50000 1.254
72.52000 1.701
72.54000 0.976
72.56000 -0.022
72.58000 -1.738
72.60000 0.523
72.62000 2.221
72.64000 0.473
72.66000 0.367
72.68000 1.207
72.70000 -0.277
72.72000 2.187
72.74000 2.870
72.76000 0.388
72.78000 -0.807
72.80000 0.746
72.82000 1.660
72.84000 1.228
72.86000 1.423
72.88000 -0.007
72.90000 2.613
72.92000 2.667
72.94000 -0.457
72.96000 2.417
72.98000 5.286
73.00000 1.464
73.02000 1.687
73.04000 3.603
73.06000 -0.445
73.08000 1.390
73.10000 3.962
73.12000 1.868
73.14000 3.690
73.16000 5.552
73.18000 2.357
73.20000 0.633
73.22000 2.656
73.24000 3.810
73.26000 2.120
73.28000 3.422
73.30000 0.967
73.32000 2.666
73.34000 1.007
73.36000 -2.051
73.38000 1.613
73.40000 1.383
73.42000 1.910
73.44000 1.949
73.46000 -0.407
73.48000 2.061
73.50000 3.171
73.52000 3.165
73.54000 1.120
73.56000 2.366
73.58000 0.952
73.60000 -0.879
73.62000 0.496
73.64000 -0.350
73.66000 0.987
73.68000 4.536
73.70000 3.634
73.72000 2.511
73.74000 3.264
73.76000 3.078
73.78000 4.079
73.80000 4.446
73.82000 1.654
73.84000 1.326
73.86000 1.237
73.88000 0.146
73.90000 2.021
73.92000 0.397
73.94000 3.029
73.96000 2.973
73.98000 0.509
74.00000 0.192
74.02000 -0.118
74.04000 1.706
74.06000 3.413
74.08000 2.791
74.10000 3.086
74.12000 2.632
74.14000 1.304
74.16000 2.147
74.18000 5.395
74.20000 5.036
74.22000 2.728
74.24000 0.231
74.26000 0.430
74.28000 1.428
74.30000 0.315
74.32000 -0.143
74.34000 -2.053
74.36000 -1.296
74.38000 0.251
74.40000 -0.319
74.42000 0.818
74.44000 -1.092
74.46000 0.741
74.48000 3.594
74.50000 4.405
74.52000 3.594
74.54000 3.946
74.56000 4.045
74.58000 3.260
74.60000 2.460
74.62000 3.371
74.64000 5.154
74.66000 4.659
74.68000 0.765
74.70000 0.723
74.72000 0.622
74.74000 3.484
74.76000 2.276
74.78000 0.639
74.80000 3.222
74.82000 2.224
74.84000 -1.385
74.86000 -1.705
74.88000 0.720
74.90000 0.055
74.92000 0.983
74.94000 2.729
74.96000 2.533
74.98000 4.439
75.00000 6.317
75.02000 3.310
75.04000 -0.652
75.06000 0.754
75.08000 1.547
75.10000 0.787
75.12000 -1.301
75.14000 0.350
75.16000 3.885
75.18000 5.236
75.20000 1.064
75.22000 -0.891
75.24000 -2.058
75.26000 4.038
75.28000 4.493
75.30000 0.323
75.32000 1.845
75.34000 1.794
75.36000 2.654
75.38000 2.033
75.40000 0.302
75.42000 0.243
75.44000 -1.527
75.46000 -1.937
75.48000 2.474
75.50000 3.017
75.52000 2.453
75.54000 3.342
75.56000 2.329
75.58000 2.833
75.60000 1.427
75.62000 5.356
75.64000 4.505
75.66000 0.220
75.68000 4.121
75.70000 2.379
75.72000 4.083
75.74000 1.249
75.76000 -2.062
75.78000 4.221
75.80000 4.332
75.82000 -0.683
75.84000 -0.603
75.86000 4.400
75.88000 3.616
75.90000 -0.378
75.92000 1.773
75.94000 5.191
75.96000 2.600
75.98000 2.604
76.00000 4.926
76.02000 5.028
76.04000 4.977
76.06000 5.036
76.08000 4.405
76.10000 2.344
76.12000 0.642
76.14000 0.878
76.16000 0.942
76.18000 0.709
76.20000 0.678
76.22000 3.574
76.24000 3.267
76.26000 2.209
76.28000 0.837
76.30000 4.360
76.32000 2.902
76.34000 0.895
76.36000 3.934
76.38000 4.397
76.40000 0.729
76.42000 1.519
76.44000 2.230
76.46000 0.738
76.48000 -0.876
76.50000 2.250
76.52000 3.757
76.54000 4.672
76.56000 3.500
76.58000 4.142
76.60000 1.317
76.62000 -2.108
76.64000 1.719
76.66000 3.140
76.68000 2.698
76.70000 5.752
76.72000 -0.955
76.74000 -0.679
76.76000 0.252
76.78000 0.456
76.80000 -1.253
76.82000 -1.845
76.84000 -1.141
76.86000 0.057
76.88000 1.756
76.90000 -0.544
76.92000 0.146
76.94000 0.372
76.96000 0.875
76.98000 2.024
77.00000 1.649
77.02000 4.063
77.04000 1.682
77.06000 0.940
77.08000 1.718
77.10000 4.248
77.12000 0.793
77.14000 -1.482
77.16000 -0.398
77.18000 1.395
77.20000 2.289
77.22000 -1.608
77.24000 1.276
77.26000 2.256
77.28000 1.782
77.30000 1.012
77.32000 0.236
77.34000 3.200
77.36000 5.319
77.38000 4.263
77.40000 3.559
77.42000 4.283
77.44000 4.181
77.46000 7.691
77.48000 4.000
77.50000 3.199
77.52000 4.207
77.54000 1.650
77.56000 0.811
77.58000 -1.109
77.60000 -2.220
77.62000 -0.545
77.64000 1.920
77.66000 2.435
77.68000 3.476
77.70000 4.063
77.72000 0.928
77.74000 -2.044
77.76000 -2.232
77.78000 1.785
77.80000 0.344
77.82000 2.504
77.84000 1.722
77.86000 -0.013
77.88000 2.164
77.90000 6.834
77.92000 3.883
77.94000 -1.732
77.96000 1.611
77.98000 3.964
78.00000 4.453
78.02000 4.831
78.04000 5.094
78.06000 6.004
78.08000 6.095
78.10000 5.593
78.12000 3.016
78.14000 -0.423
78.16000 1.689
78.18000 7.894
78.20000 6.212
78.22000 4.413
78.24000 4.804
78.26000 1.576
78.28000 3.712
78.30000 5.999
78.32000 8.349
78.34000 9.399
78.36000 8.747
78.38000 9.580
78.40000 14.699
78.42000 14.783
78.44000 14.831
78.46000 13.692
78.48000 10.811
78.50000 10.848
78.52000 16.130
78.54000 15.590
78.56000 12.452
78.58000 13.397
78.60000 17.243
78.62000 18.835
78.64000 19.221
78.66000 17.385
78.68000 18.123
78.70000 20.353
78.72000 24.652
78.74000 24.218
78.76000 23.505
78.78000 20.375
78.80000 19.935
78.82000 24.064
78.84000 22.889
78.86000 28.549
78.88000 27.632
78.90000 30.050
78.92000 31.535
78.94000 24.503
78.96000 25.180
78.98000 27.551
79.00000 26.662
79.02000 29.975
79.04000 27.131
79.06000 28.248
79.08000 28.522
79.10000 26.816
79.12000 27.421
79.14000 24.619
79.16000 24.790
79.18000 26.186
79.20000 25.892
79.22000 25.764
79.24000 20.500
79.26000 21.692
79.28000 21.012
79.30000 15.729
79.32000 16.962
79.34000 18.180
79.36000 17.693
79.38000 15.339
79.40000 17.619
79.42000 15.342
79.44000 14.389
79.46000 16.847
79.48000 20.422
79.50000 15.069
79.52000 14.624
79.54000 12.743
79.56000 11.219
79.58000 12.619
79.60000 13.332
79.62000 13.123
79.64000 7.423
79.66000 6.894
79.68000 6.306
79.70000 7.859
79.72000 11.909
79.74000 8.594
79.76000 11.694
79.78000 8.887
79.80000 6.010
79.82000 4.937
79.84000 4.916
79.86000 4.875
79.88000 4.969
79.90000 5.558
79.92000 2.959
79.94000 4.981
79.96000 3.017
79.98000 3.879
80.00000 1.626
80.02000 0.954
80.04000 5.020
80.06000 5.592
80.08000 2.449
80.10000 3.839
80.12000 7.814
80.14000 3.770
80.16000 3.950
80.18000 0.479
80.20000 -0.577
80.22000 0.166
80.24000 3.068
80.26000 1.455
80.28000 6.228
80.30000 1.087
80.32000 -1.152
80.34000 0.140
80.36000 0.943
80.38000 -0.815
80.40000 1.232
80.42000 2.804
80.44000 3.643
80.46000 1.341
80.48000 1.584
80.50000 1.284
80.52000 3.121
80.54000 1.514
80.56000 3.520
80.58000 3.243
80.60000 -0.831
80.62000 -2.341
80.64000 0.729
80.66000 4.307
80.68000 0.941
80.70000 0.823
80.72000 1.282
80.74000 2.261
80.76000 8.637
80.78000 3.791
80.80000 -0.952
80.82000 -1.904
80.84000 -1.452
80.86000 4.442
80.88000 3.569
80.90000 2.060
80.92000 3.136
80.94000 1.104
80.96000 -0.226
80.98000 2.082
81.00000 3.054
81.02000 1.459
81.04000 1.028
81.06000 3.028
81.08000 2.492
81.10000 -0.113
81.12000 5.162
81.14000 6.342
81.16000 0.171
81.18000 2.926
81.20000 3.605
81.22000 3.516
81.24000 3.321
81.26000 3.229
81.28000 4.277
81.30000 0.051
81.32000 -0.701
81.34000 2.776
81.36000 3.645
81.38000 6.572
81.40000 3.376
81.42000 0.853
81.44000 3.244
81.46000 2.039
81.48000 2.749
81.50000 7.005
81.52000 11.079
81.54000 10.186
81.56000 8.395
81.58000 7.097
81.60000 7.311
81.62000 7.265
81.64000 4.852
81.66000 7.224
81.68000 11.408
81.70000 9.573
81.72000 9.600
81.74000 3.768
81.76000 3.946
81.78000 9.784
81.80000 11.926
81.82000 9.276
81.84000 6.240
81.86000 10.146
81.88000 12.426
81.90000 7.564
81.92000 8.608
81.94000 13.968
81.96000 13.543
81.98000 13.632
82.00000 15.043
82.02000 11.178
82.04000 15.109
82.06000 16.573
82.08000 17.486
82.10000 19.008
82.12000 22.363
82.14000 21.141
82.16000 20.063
82.18000 20.801
82.20000 22.156
82.22000 24.812
82.24000 27.196
82.26000 28.555
82.28000 26.481
82.30000 26.197
82.32000 23.596
82.34000 26.344
82.36000 32.738
82.38000 34.275
82.40000 36.191
82.42000 33.914
82.44000 34.979
82.46000 41.621
82.48000 39.389
82.50000 41.590
82.52000 42.923
82.54000 44.693
82.56000 46.826
82.58000 49.212
82.60000 49.698
82.62000 56.388
82.64000 55.237
82.66000 56.912
82.68000 58.492
82.70000 63.341
82.72000 64.909
82.74000 66.300
82.76000 68.534
82.78000 78.845
82.80000 78.551
82.82000 80.526
82.84000 82.663
82.86000 93.158
82.88000 95.827
82.90000 93.780
82.92000 101.372
82.94000 104.357
82.96000 99.811
82.98000 103.902
83.00000 104.680
83.02000 103.279
83.04000 104.218
83.06000 104.915
83.08000 107.171
83.10000 107.184
83.12000 107.976
83.14000 109.952
83.16000 114.018
83.18000 109.560
83.20000 111.119
83.22000 111.731
83.24000 113.672
83.26000 109.162
83.28000 107.411
83.30000 106.932
83.32000 107.207
83.34000 96.387
83.36000 96.196
83.38000 97.999
83.40000 95.385
83.42000 95.617
83.44000 90.991
83.46000 85.273
83.48000 81.917
83.50000 83.450
83.52000 81.114
83.54000 74.073
83.56000 66.439
83.58000 59.972
83.60000 60.084
83.62000 61.621
83.64000 58.598
83.66000 61.616
83.68000 60.452
83.70000 55.162
83.72000 51.627
83.74000 49.203
83.76000 46.580
83.78000 43.511
83.80000 42.933
83.82000 36.461
83.84000 34.698
83.86000 32.809
83.88000 28.221
83.90000 22.678
83.92000 25.742
83.94000 28.304
83.96000 25.442
83.98000 26.066
84.00000 24.096
84.02000 22.842
84.04000 20.468
84.06000 19.569
84.08000 18.109
84.10000 18.020
84.12000 17.534
84.14000 14.077
84.16000 13.384
84.18000 12.363
84.20000 11.443
84.22000 14.509
84.24000 12.646
84.26000 15.509
84.28000 11.405
84.30000 13.109
84.32000 11.556
84.34000 9.417
84.36000 4.693
84.38000 5.899
84.40000 5.341
84.42000 8.241
84.44000 4.380
84.46000 2.793
84.48000 4.178
84.50000 6.101
84.52000 4.270
84.54000 8.173
84.56000 3.760
84.58000 3.204
84.60000 8.234
84.62000 3.827
84.64000 2.032
84.66000 6.013
84.68000 2.350
84.70000 2.275
84.72000 2.405
84.74000 5.962
84.76000 5.327
84.78000 4.006
84.80000 0.174
84.82000 3.827
84.84000 2.086
84.86000 -2.137
84.88000 -0.523
84.90000 2.142
84.92000 4.342
84.94000 6.863
84.96000 6.589
84.98000 2.831
85.00000 1.887
85.02000 4.037
85.04000 5.538
85.06000 6.622
85.08000 3.411
85.10000 5.746
85.12000 7.906
85.14000 3.634
85.16000 3.511
85.18000 4.524
85.20000 4.375
85.22000 2.359
85.24000 -0.753
85.26000 -2.072
85.28000 2.768
85.30000 1.243
85.32000 3.381
85.34000 3.430
85.36000 1.911
85.38000 4.647
85.40000 8.716
85.42000 6.538
85.44000 6.275
85.46000 4.061
85.48000 4.897
85.50000 5.184
85.52000 1.900
85.54000 -2.031
85.56000 0.329
85.58000 0.613
85.60000 5.214
85.62000 5.662
85.64000 2.424
85.66000 1.128
85.68000 1.670
85.70000 0.695
85.72000 1.424
85.74000 4.128
85.76000 2.811
85.78000 2.278
85.80000 -0.985
85.82000 1.261
85.84000 4.032
85.86000 0.298
85.88000 1.835
85.90000 1.287
85.92000 1.300
85.94000 6.703
85.96000 4.968
85.98000 4.230
86.00000 0.764
86.02000 -2.009
86.04000 0.285
86.06000 0.838
86.08000 2.664
86.10000 2.455
86.12000 3.909
86.14000 2.996
86.16000 0.971
86.18000 -1.913
86.20000 -0.568
86.22000 -0.613
86.24000 1.148
86.26000 0.727
86.28000 0.137
86.30000 1.612
86.32000 4.092
86.34000 1.670
86.36000 -1.025
86.38000 -0.335
86.40000 0.053
86.42000 1.691
86.44000 1.437
86.46000 0.427
86.48000 -0.058
86.50000 2.658
86.52000 3.543
86.54000 3.881
86.56000 2.578
86.58000 2.845
86.60000 2.456
86.62000 3.953
86.64000 3.165
86.66000 0.192
86.68000 -0.605
86.70000 0.169
86.72000 0.614
86.74000 1.533
86.76000 3.249
86.78000 2.832
86.80000 2.608
86.82000 2.326
86.84000 0.426
86.86000 5.349
86.88000 4.063
86.90000 2.286
86.92000 1.322
86.94000 2.327
86.96000 4.133
86.98000 -1.290
87.00000 -0.833
87.02000 -1.994
87.04000 -0.386
87.06000 4.632
87.08000 2.752
87.10000 2.165
87.12000 2.764
87.14000 4.698
87.16000 0.113
87.18000 0.435
87.20000 1.425
87.22000 -0.306
87.24000 -0.002
87.26000 2.188
87.28000 1.807
87.30000 4.522
87.32000 3.916
87.34000 3.532
87.36000 2.060
87.38000 0.754
87.40000 -0.863
87.42000 1.132
87.44000 0.336
87.46000 -0.162
87.48000 -1.056
87.50000 1.944
87.52000 0.090
87.54000 -0.639
87.56000 -0.650
87.58000 -1.828
87.60000 2.271
87.62000 2.004
87.64000 -0.402
87.66000 2.360
87.68000 -1.049
87.70000 -1.769
87.72000 0.070
87.74000 2.390
87.76000 -0.042
87.78000 -0.550
87.80000 -0.110
87.82000 2.903
87.84000 4.142
87.86000 1.373
87.88000 0.605
87.90000 0.451
87.92000 1.227
87.94000 0.903
87.96000 3.931
87.98000 1.440
88.00000 2.358
88.02000 3.631
88.04000 2.182
88.06000 -1.959
88.08000 -1.102
88.10000 1.722
88.12000 2.266
88.14000 -0.460
88.16000 0.029
88.18000 0.749
88.20000 1.631
88.22000 2.638
88.24000 1.294
88.26000 2.315
88.28000 2.433
88.30000 1.781
88.32000 0.977
88.34000 2.891
88.36000 5.573
88.38000 4.158
88.40000 2.220
88.42000 0.730
88.44000 -0.189
88.46000 1.189
88.48000 -0.105
88.50000 -0.025
88.52000 2.246
88.54000 3.622
88.56000 0.884
88.58000 -1.940
88.60000 0.202
88.62000 1.415
88.64000 4.052
88.66000 3.715
88.68000 2.191
88.70000 3.394
88.72000 0.675
88.74000 0.681
88.76000 3.896
88.78000 1.805
88.80000 3.313
88.82000 6.010
88.84000 5.437
88.86000 3.853
88.88000 4.015
88.90000 1.113
88.92000 0.874
88.94000 1.960
88.96000 0.681
88.98000 2.603
89.00000 4.416
89.02000 2.851
89.04000 2.018
89.06000 1.800
89.08000 0.920
89.10000 5.220
89.12000 5.231
89.14000 -1.899
89.16000 -0.211
89.18000 1.193
89.20000 2.742
89.22000 2.525
89.24000 3.310
89.26000 5.649
89.28000 2.596
89.30000 0.120
89.32000 0.647
89.34000 5.359
89.36000 5.354
89.38000 5.965
89.40000 6.221
89.42000 4.971
89.44000 5.966
89.46000 6.113
89.48000 4.548
89.50000 3.302
89.52000 1.493
89.54000 3.045
89.56000 5.809
89.58000 3.849
89.60000 3.052
89.62000 -1.402
89.64000 -1.861
89.66000 0.527
89.68000 3.816
89.70000 4.459
89.72000 2.514
89.74000 1.717
89.76000 4.179
89.78000 5.705
89.80000 -0.132
89.82000 1.003
89.84000 1.807
89.86000 4.520
89.88000 6.669
89.90000 3.608
89.92000 2.066
89.94000 2.127
89.96000 2.475
89.98000 3.245
90.00000 3.800
90.02000 3.739
90.04000 2.560
90.06000 0.183
90.08000 0.399
90.10000 -0.103
90.12000 2.313
90.14000 4.498
90.16000 5.451
90.18000 4.661
90.20000 1.723
90.22000 1.430
90.24000 0.367
90.26000 2.624
90.28000 2.164
90.30000 0.614
90.32000 0.107
90.34000 0.714
90.36000 -1.382
90.38000 -0.876
90.40000 3.109
90.42000 2.951
90.44000 -0.961
90.46000 -0.706
90.48000 4.008
90.50000 6.571
90.52000 4.802
90.54000 2.050
90.56000 -0.622
90.58000 -0.579
90.60000 1.180
90.62000 1.839
90.64000 2.191
90.66000 2.387
90.68000 -0.371
90.70000 -0.557
90.72000 0.322
90.74000 -1.474
90.76000 -0.265
90.78000 2.550
90.80000 -1.065
90.82000 0.973
90.84000 1.857
90.86000 4.039
90.88000 3.292
90.90000 1.510
90.92000 -0.126
90.94000 1.308
90.96000 1.007
90.98000 -0.256
91.00000 -0.062
91.02000 2.887
91.04000 3.510
91.06000 0.754
91.08000 1.301
91.10000 -0.266
91.12000 2.600
91.14000 2.536
91.16000 2.945
91.18000 4.768
91.20000 4.695
91.22000 -0.896
91.24000 0.841
91.26000 1.617
91.28000 0.078
91.30000 0.925
91.32000 1.724
91.34000 4.151
91.36000 6.474
91.38000 2.971
91.40000 3.147
91.42000 0.404
91.44000 -0.807
91.46000 2.942
91.48000 1.378
91.50000 -1.927
91.52000 2.708
91.54000 -0.314
91.56000 -1.556
91.58000 2.066
91.60000 1.734
91.62000 1.889
91.64000 3.433
91.66000 6.521
91.68000 2.684
91.70000 1.367
91.72000 0.013
91.74000 -1.940
91.76000 -0.534
91.78000 4.579
91.80000 5.822
91.82000 3.102
91.84000 4.199
91.86000 2.402
91.88000 0.429
91.90000 -0.397
91.92000 3.421
91.94000 2.985
91.96000 0.215
91.98000 2.020
92.00000 -1.706
92.02000 1.934
92.04000 2.985
92.06000 5.087
92.08000 2.292
92.10000 -0.433
92.12000 0.796
92.14000 -0.425
92.16000 -0.563
92.18000 2.207
92.20000 -1.305
92.22000 -1.811
92.24000 0.479
92.26000 -0.739
92.28000 -0.112
92.30000 1.069
92.32000 2.128
92.34000 5.682
92.36000 4.912
92.38000 1.097
92.40000 -0.848
92.42000 2.360
92.44000 -0.217
92.46000 -1.327
92.48000 -0.331
92.50000 3.183
92.52000 0.863
92.54000 -1.750
92.56000 0.204
92.58000 3.208
92.60000 2.598
92.62000 4.953
92.64000 0.245
92.66000 -1.919
92.68000 2.391
92.70000 4.201
92.72000 2.158
92.74000 -1.952
92.76000 1.932
92.78000 -0.434
92.80000 -0.779
92.82000 1.682
92.84000 6.303
92.86000 4.826
92.88000 0.782
92.90000 1.955
92.92000 3.985
92.94000 0.376
92.96000 1.028
92.98000 -0.765
93.00000 -1.432
93.02000 -1.611
93.04000 2.455
93.06000 3.230
93.08000 1.509
93.10000 2.981
93.12000 0.042
93.14000 -1.881
93.16000 -0.140
93.18000 1.235
93.20000 2.609
93.22000 -0.011
93.24000 1.576
93.26000 2.815
93.28000 1.972
93.30000 1.303
93.32000 1.004
93.34000 2.534
93.36000 3.812
93.38000 0.523
93.40000 -1.566
93.42000 0.804
93.44000 0.456
93.46000 -1.526
93.48000 2.012
93.50000 3.171
93.52000 3.484
93.54000 3.488
93.56000 1.328
93.58000 -0.999
93.60000 0.081
93.62000 3.180
93.64000 1.853
93.66000 0.452
93.68000 1.416
93.70000 6.778
93.72000 5.714
93.74000 2.179
93.76000 2.578
93.78000 1.135
93.80000 1.126
93.82000 2.847
93.84000 2.919
93.86000 1.494
93.88000 1.734
93.90000 2.394
93.92000 4.087
93.94000 2.762
93.96000 2.910
93.98000 3.997
94.00000 9.968
94.02000 4.337
94.04000 2.106
94.06000 1.314
94.08000 2.519
94.10000 4.589
94.12000 6.357
94.14000 2.945
94.16000 0.343
94.18000 0.533
94.20000 0.965
94.22000 2.200
94.24000 1.743
94.26000 -1.411
94.28000 2.120
94.30000 4.811
94.32000 4.617
94.34000 3.439
94.36000 2.574
94.38000 -1.928
94.40000 1.089
94.42000 1.188
94.44000 3.522
94.46000 1.312
94.48000 1.469
94.50000 0.919
94.52000 1.176
94.54000 2.525
94.56000 4.642
94.58000 6.371
94.60000 6.451
94.62000 7.705
94.64000 3.801
94.66000 2.494
94.68000 5.380
94.70000 3.027
94.72000 6.638
94.74000 4.069
94.76000 3.541
94.78000 0.393
94.80000 -0.417
94.82000 -0.185
94.84000 -0.735
94.86000 3.475
94.88000 0.215
94.90000 1.368
94.92000 3.425
94.94000 2.241
94.96000 0.321
94.98000 1.038
95.00000 5.870
95.02000 3.748
95.04000 1.622
95.06000 3.101
95.08000 1.686
95.10000 -1.962
95.12000 0.109
95.14000 -0.678
95.16000 2.651
95.18000 6.515
95.20000 3.322
95.22000 2.559
95.24000 5.801
95.26000 5.172
95.28000 3.204
95.30000 5.398
95.32000 1.746
95.34000 -0.951
95.36000 0.961
95.38000 -1.456
95.40000 -0.237
95.42000 -1.233
95.44000 -0.550
95.46000 1.489
95.48000 -1.921
95.50000 0.301
95.52000 -0.458
95.54000 4.312
95.56000 3.411
95.58000 3.033
95.60000 2.099
95.62000 3.031
95.64000 2.901
95.66000 5.133
95.68000 2.695
95.70000 1.923
95.72000 0.388
95.74000 -1.636
95.76000 -0.706
95.78000 -0.935
95.80000 3.315
95.82000 2.482
95.84000 2.145
95.86000 2.966
95.88000 1.346
95.90000 0.673
95.92000 -1.980
95.94000 -1.859
95.96000 0.991
95.98000 0.458
96.00000 3.106
96.02000 3.298
96.04000 1.711
96.06000 -0.399
96.08000 -0.717
96.10000 -1.426
96.12000 2.182
96.14000 0.362
96.16000 2.696
96.18000 6.905
96.20000 2.268
96.22000 0.545
96.24000 6.683
96.26000 4.452
96.28000 4.844
96.30000 3.112
96.32000 -0.541
96.34000 0.375
96.36000 1.835
96.38000 1.781
96.40000 4.088
96.42000 2.322
96.44000 1.811
96.46000 1.140
96.48000 3.155
96.50000 2.955
96.52000 -0.398
96.54000 -1.611
96.56000 1.518
96.58000 4.004
96.60000 0.471
96.62000 2.690
96.64000 -0.213
96.66000 0.520
96.68000 2.513
96.70000 0.344
96.72000 1.285
96.74000 2.397
96.76000 4.472
96.78000 0.771
96.80000 1.562
96.82000 0.682
96.84000 1.481
96.86000 -1.952
96.88000 -1.970
96.90000 2.642
96.92000 3.046
96.94000 6.654
96.96000 4.598
96.98000 -0.536
97.00000 2.817
97.02000 4.429
97.04000 5.331
97.06000 3.867
97.08000 3.273
97.10000 -0.011
97.12000 -1.177
97.14000 2.318
97.16000 4.595
97.18000 4.234
97.20000 5.455
97.22000 0.775
97.24000 -0.800
97.26000 -0.005
97.28000 0.736
97.30000 0.246
97.32000 -1.944
97.34000 2.295
97.36000 2.853
97.38000 5.276
97.40000 3.948
97.42000 3.054
97.44000 1.112
97.46000 4.449
97.48000 7.924
97.50000 6.798
97.52000 6.940
97.54000 6.113
97.56000 6.159
97.58000 5.189
97.60000 4.813
97.62000 1.191
97.64000 5.059
97.66000 3.662
97.68000 2.735
97.70000 6.625
97.72000 2.595
97.74000 2.289
97.76000 6.541
97.78000 6.083
97.80000 8.864
97.82000 5.276
97.84000 -0.556
97.86000 2.342
97.88000 3.753
97.90000 2.808
97.92000 0.584
97.94000 3.513
97.96000 2.107
97.98000 5.107
98.00000 2.797
98.02000 3.761
98.04000 8.613
98.06000 3.886
98.08000 2.890
98.10000 4.519
98.12000 2.756
98.14000 2.586
98.16000 2.020
98.18000 -1.577
98.20000 -0.245
98.22000 2.232
98.24000 3.868
98.26000 -1.877
98.28000 4.552
98.30000 6.739
98.32000 4.464
98.34000 3.913
98.36000 6.610
98.38000 5.795
98.40000 4.858
98.42000 5.823
98.44000 8.510
98.46000 6.151
98.48000 2.879
98.50000 5.100
98.52000 3.431
98.54000 5.673
98.56000 8.106
98.58000 5.423
98.60000 6.668
98.62000 3.632
98.64000 2.392
98.66000 4.958
98.68000 6.981
98.70000 6.227
98.72000 4.007
98.74000 2.551
98.76000 6.372
98.78000 6.564
98.80000 10.448
98.82000 7.011
98.84000 7.919
98.86000 4.705
98.88000 7.431
98.90000 9.701
98.92000 8.067
98.94000 1.661
98.96000 5.729
98.98000 8.761
99.00000 11.557
99.02000 7.283
99.04000 3.531
99.06000 8.746
99.08000 5.083
99.10000 -0.501
99.12000 0.546
99.14000 -1.828
99.16000 4.402
99.18000 9.656
99.20000 6.990
99.22000 4.955
99.24000 3.183
99.26000 4.428
99.28000 -1.874
99.30000 5.260
99.32000 9.534
99.34000 12.595
99.36000 7.714
99.38000 3.867
99.40000 8.462
99.42000 7.899
99.44000 1.687
99.46000 -0.700
99.48000 2.469
99.50000 1.052
99.52000 1.961
99.54000 7.623
99.56000 4.878
99.58000 -1.965
99.60000 1.063
99.62000 9.509
99.64000 3.002
99.66000 1.614
99.68000 2.057
99.70000 2.770
99.72000 6.210
99.74000 1.775
99.76000 2.758
99.78000 8.475
99.80000 2.485
99.82000 0.354
99.84000 -0.557
99.86000 0.970
99.88000 4.088
99.90000 3.643
99.92000 1.434
99.94000 4.566
99.96000 -6.067
99.98000 0.000
