'Id: "0011389" Comment: "Integrate frame 0011389_Au-Ir-Rh_Au-Rich_XRD_Mapping-154-0000.gfrmwith cursor Wedge Cursor #5" Operator: "B?rgel" Anode: "Cu" Wavelength: "1.5406" Scantype: "2Theta (TwoTheta)" TimePerStep: "1" X: "36" Y: "-4.5" Z: "5.95" 
10.00000 0.000
10.02000 3.478
10.04000 7.411
10.06000 5.665
10.08000 -3.190
10.10000 -1.192
10.12000 2.866
10.14000 2.427
10.16000 1.195
10.18000 6.134
10.20000 7.588
10.22000 8.573
10.24000 11.989
10.26000 12.051
10.28000 14.414
10.30000 8.222
10.32000 5.551
10.34000 -1.223
10.36000 -1.123
10.38000 10.516
10.40000 17.439
10.42000 17.010
10.44000 24.293
10.46000 19.893
10.48000 16.036
10.50000 16.653
10.52000 -7.873
10.54000 7.484
10.56000 17.376
10.58000 9.702
10.60000 15.436
10.62000 21.003
10.64000 13.187
10.66000 14.836
10.68000 19.995
10.70000 31.826
10.72000 22.481
10.74000 17.506
10.76000 20.406
10.78000 28.225
10.80000 20.455
10.82000 11.810
10.84000 11.667
10.86000 20.307
10.88000 26.719
10.90000 28.604
10.92000 30.802
10.94000 29.310
10.96000 40.097
10.98000 31.056
11.00000 32.721
11.02000 30.993
11.04000 25.837
11.06000 24.604
11.08000 26.670
11.10000 26.669
11.12000 22.398
11.14000 26.877
11.16000 30.336
11.18000 27.726
11.20000 20.428
11.22000 17.691
11.24000 20.571
11.26000 33.064
11.28000 30.126
11.30000 17.898
11.32000 22.166
11.34000 32.129
11.36000 31.435
11.38000 41.744
11.40000 37.286
11.42000 43.793
11.44000 29.700
11.46000 19.614
11.48000 29.139
11.50000 34.707
11.52000 30.755
11.54000 38.805
11.56000 38.625
11.58000 35.832
11.60000 34.418
11.62000 28.128
11.64000 29.286
11.66000 25.077
11.68000 28.557
11.70000 39.663
11.72000 29.242
11.74000 24.078
11.76000 35.762
11.78000 42.509
11.80000 34.302
11.82000 33.505
11.84000 25.340
11.86000 19.546
11.88000 22.042
11.90000 40.016
11.92000 47.912
11.94000 42.123
11.96000 52.398
11.98000 51.001
12.00000 45.733
12.02000 33.840
12.04000 35.243
12.06000 44.565
12.08000 49.903
12.10000 52.414
12.12000 55.925
12.14000 49.343
12.16000 46.275
12.18000 39.668
12.20000 38.026
12.22000 32.533
12.24000 36.111
12.26000 45.211
12.28000 40.478
12.30000 47.558
12.32000 58.549
12.34000 52.322
12.36000 45.943
12.38000 47.101
12.40000 46.540
12.42000 42.994
12.44000 54.533
12.46000 56.182
12.48000 52.213
12.50000 53.244
12.52000 55.764
12.54000 50.659
12.56000 45.463
12.58000 42.789
12.60000 43.634
12.62000 44.724
12.64000 47.568
12.66000 46.568
12.68000 47.852
12.70000 45.132
12.72000 43.919
12.74000 40.383
12.76000 41.234
12.78000 41.645
12.80000 37.100
12.82000 43.876
12.84000 54.598
12.86000 58.298
12.88000 55.623
12.90000 38.269
12.92000 33.491
12.94000 36.778
12.96000 46.605
12.98000 51.843
13.00000 56.776
13.02000 50.071
13.04000 43.427
13.06000 47.702
13.08000 42.940
13.10000 34.904
13.12000 42.314
13.14000 49.010
13.16000 38.105
13.18000 44.174
13.20000 38.186
13.22000 42.000
13.24000 48.877
13.26000 58.282
13.28000 56.509
13.30000 34.887
13.32000 35.365
13.34000 45.970
13.36000 46.681
13.38000 48.978
13.40000 46.326
13.42000 46.613
13.44000 38.682
13.46000 39.486
13.48000 39.232
13.50000 38.106
13.52000 38.440
13.54000 39.429
13.56000 40.139
13.58000 39.761
13.60000 37.020
13.62000 37.372
13.64000 34.965
13.66000 32.719
13.68000 44.002
13.70000 35.475
13.72000 36.848
13.74000 44.502
13.76000 37.903
13.78000 37.088
13.80000 42.860
13.82000 46.059
13.84000 43.337
13.86000 31.039
13.88000 33.273
13.90000 34.109
13.92000 31.949
13.94000 36.164
13.96000 44.277
13.98000 39.688
14.00000 39.118
14.02000 40.917
14.04000 45.231
14.06000 41.711
14.08000 39.642
14.10000 41.453
14.12000 33.397
14.14000 30.715
14.16000 28.567
14.18000 27.511
14.20000 34.013
14.22000 37.157
14.24000 37.444
14.26000 38.872
14.28000 37.245
14.30000 32.351
14.32000 37.361
14.34000 30.690
14.36000 22.008
14.38000 30.567
14.40000 27.554
14.42000 31.092
14.44000 34.014
14.46000 39.171
14.48000 37.374
14.50000 29.957
14.52000 29.323
14.54000 33.854
14.56000 30.773
14.58000 21.661
14.60000 20.959
14.62000 28.459
14.64000 30.308
14.66000 24.972
14.68000 31.605
14.70000 28.245
14.72000 17.733
14.74000 15.675
14.76000 20.700
14.78000 28.046
14.80000 33.811
14.82000 32.071
14.84000 25.636
14.86000 16.731
14.88000 22.097
14.90000 17.757
14.92000 15.250
14.94000 24.603
14.96000 30.287
14.98000 22.196
15.00000 28.750
15.02000 29.320
15.04000 29.445
15.06000 31.375
15.08000 22.871
15.10000 20.522
15.12000 22.264
15.14000 19.420
15.16000 18.999
15.18000 20.459
15.20000 19.848
15.22000 16.161
15.24000 13.933
15.26000 14.029
15.28000 22.446
15.30000 21.245
15.32000 17.477
15.34000 21.269
15.36000 25.842
15.38000 34.285
15.40000 29.155
15.42000 20.662
15.44000 21.820
15.46000 23.479
15.48000 24.010
15.50000 27.016
15.52000 25.196
15.54000 20.253
15.56000 21.741
15.58000 23.096
15.60000 20.623
15.62000 21.719
15.64000 24.787
15.66000 31.279
15.68000 24.096
15.70000 26.065
15.72000 27.386
15.74000 15.561
15.76000 17.152
15.78000 11.372
15.80000 12.435
15.82000 8.209
15.84000 14.685
15.86000 22.500
15.88000 27.388
15.90000 19.232
15.92000 22.694
15.94000 22.096
15.96000 15.441
15.98000 21.895
16.00000 18.718
16.02000 18.860
16.04000 19.877
16.06000 22.370
16.08000 13.715
16.10000 5.135
16.12000 17.483
16.14000 19.578
16.16000 25.055
16.18000 24.892
16.20000 23.013
16.22000 26.238
16.24000 18.156
16.26000 12.855
16.28000 10.686
16.30000 7.847
16.32000 18.405
16.34000 23.628
16.36000 19.874
16.38000 14.476
16.40000 13.189
16.42000 15.856
16.44000 15.216
16.46000 13.086
16.48000 12.539
16.50000 10.635
16.52000 13.066
16.54000 12.326
16.56000 19.919
16.58000 8.871
16.60000 10.182
16.62000 14.536
16.64000 12.623
16.66000 10.947
16.68000 10.786
16.70000 1.966
16.72000 6.767
16.74000 18.803
16.76000 24.735
16.78000 13.187
16.80000 4.206
16.82000 12.430
16.84000 17.834
16.86000 16.490
16.88000 10.281
16.90000 14.991
16.92000 15.013
16.94000 15.910
16.96000 11.908
16.98000 8.482
17.00000 2.948
17.02000 9.292
17.04000 15.460
17.06000 5.993
17.08000 -1.723
17.10000 6.486
17.12000 10.005
17.14000 12.220
17.16000 15.078
17.18000 14.966
17.20000 7.471
17.22000 13.456
17.24000 14.693
17.26000 12.521
17.28000 12.525
17.30000 13.558
17.32000 21.481
17.34000 12.947
17.36000 10.441
17.38000 11.150
17.40000 3.843
17.42000 3.857
17.44000 8.175
17.46000 16.463
17.48000 5.125
17.50000 -1.614
17.52000 5.386
17.54000 7.485
17.56000 6.439
17.58000 7.481
17.60000 11.916
17.62000 12.727
17.64000 14.593
17.66000 15.932
17.68000 8.913
17.70000 -4.347
17.72000 2.785
17.74000 4.753
17.76000 7.256
17.78000 8.532
17.80000 2.169
17.82000 4.322
17.84000 5.555
17.86000 4.743
17.88000 2.915
17.90000 9.001
17.92000 11.046
17.94000 8.534
17.96000 10.705
17.98000 14.457
18.00000 8.212
18.02000 10.896
18.04000 5.776
18.06000 7.052
18.08000 0.728
18.10000 3.499
18.12000 2.570
18.14000 4.600
18.16000 10.670
18.18000 12.983
18.20000 13.020
18.22000 12.160
18.24000 9.247
18.26000 7.668
18.28000 5.749
18.30000 4.397
18.32000 -1.622
18.34000 0.040
18.36000 -0.048
18.38000 5.156
18.40000 6.195
18.42000 10.042
18.44000 12.159
18.46000 4.534
18.48000 10.401
18.50000 14.438
18.52000 10.254
18.54000 12.374
18.56000 0.837
18.58000 -2.532
18.60000 -3.694
18.62000 5.108
18.64000 5.436
18.66000 6.688
18.68000 6.242
18.70000 9.686
18.72000 9.267
18.74000 8.997
18.76000 10.966
18.78000 6.272
18.80000 -4.298
18.82000 -2.923
18.84000 7.626
18.86000 10.768
18.88000 4.875
18.90000 7.295
18.92000 10.994
18.94000 14.472
18.96000 5.242
18.98000 4.468
19.00000 6.286
19.02000 9.009
19.04000 6.746
19.06000 2.599
19.08000 8.159
19.10000 11.337
19.12000 3.636
19.14000 0.953
19.16000 8.441
19.18000 11.423
19.20000 10.518
19.22000 12.258
19.24000 7.424
19.26000 4.977
19.28000 3.151
19.30000 4.188
19.32000 -1.354
19.34000 -4.257
19.36000 -0.671
19.38000 -3.060
19.40000 -3.598
19.42000 0.025
19.44000 0.248
19.46000 0.961
19.48000 0.195
19.50000 6.088
19.52000 1.545
19.54000 2.006
19.56000 6.090
19.58000 1.449
19.60000 6.838
19.62000 2.828
19.64000 -1.230
19.66000 8.242
19.68000 7.733
19.70000 6.695
19.72000 8.679
19.74000 8.575
19.76000 7.744
19.78000 5.143
19.80000 7.371
19.82000 4.927
19.84000 9.370
19.86000 7.537
19.88000 4.714
19.90000 2.475
19.92000 -1.020
19.94000 3.288
19.96000 9.280
19.98000 7.450
20.00000 6.003
20.02000 5.185
20.04000 3.153
20.06000 5.279
20.08000 3.653
20.10000 -1.550
20.12000 -1.162
20.14000 -0.722
20.16000 2.239
20.18000 6.149
20.20000 5.254
20.22000 5.976
20.24000 3.620
20.26000 -2.049
20.28000 -1.657
20.30000 12.817
20.32000 9.689
20.34000 0.695
20.36000 4.571
20.38000 1.959
20.40000 -1.943
20.42000 -1.410
20.44000 6.133
20.46000 6.416
20.48000 -2.932
20.50000 1.898
20.52000 2.868
20.54000 3.388
20.56000 4.873
20.58000 10.108
20.60000 9.874
20.62000 7.607
20.64000 4.825
20.66000 2.195
20.68000 2.508
20.70000 0.352
20.72000 1.428
20.74000 10.897
20.76000 7.367
20.78000 6.872
20.80000 10.377
20.82000 5.888
20.84000 2.744
20.86000 1.941
20.88000 -3.432
20.90000 -1.157
20.92000 -3.225
20.94000 2.638
20.96000 0.768
20.98000 -1.338
21.00000 -1.712
21.02000 5.829
21.04000 7.196
21.06000 4.627
21.08000 -0.384
21.10000 1.134
21.12000 -0.669
21.14000 0.677
21.16000 -1.221
21.18000 -0.041
21.20000 6.301
21.22000 6.135
21.24000 1.907
21.26000 -1.083
21.28000 -4.177
21.30000 -0.168
21.32000 -0.185
21.34000 -3.190
21.36000 3.843
21.38000 9.455
21.40000 7.675
21.42000 9.889
21.44000 3.886
21.46000 3.760
21.48000 5.740
21.50000 5.535
21.52000 1.243
21.54000 -0.282
21.56000 -1.803
21.58000 1.425
21.60000 1.323
21.62000 -2.778
21.64000 1.544
21.66000 2.077
21.68000 0.614
21.70000 -1.443
21.72000 6.543
21.74000 4.308
21.76000 2.082
21.78000 -1.142
21.80000 3.846
21.82000 4.034
21.84000 2.043
21.86000 3.918
21.88000 6.067
21.90000 -0.775
21.92000 3.864
21.94000 2.578
21.96000 7.052
21.98000 7.661
22.00000 8.298
22.02000 4.714
22.04000 4.479
22.06000 7.260
22.08000 3.473
22.10000 -4.120
22.12000 -2.758
22.14000 -3.350
22.16000 0.726
22.18000 -0.611
22.20000 5.814
22.22000 10.489
22.24000 0.516
22.26000 3.702
22.28000 2.654
22.30000 2.976
22.32000 7.078
22.34000 12.790
22.36000 5.880
22.38000 1.033
22.40000 4.737
22.42000 4.490
22.44000 4.596
22.46000 2.429
22.48000 0.752
22.50000 3.187
22.52000 4.321
22.54000 5.518
22.56000 10.597
22.58000 3.258
22.60000 6.256
22.62000 8.086
22.64000 6.218
22.66000 0.147
22.68000 2.287
22.70000 10.101
22.72000 16.060
22.74000 9.540
22.76000 1.594
22.78000 -2.354
22.80000 2.758
22.82000 1.433
22.84000 2.292
22.86000 3.300
22.88000 8.323
22.90000 10.808
22.92000 10.504
22.94000 2.252
22.96000 -3.789
22.98000 -0.527
23.00000 2.455
23.02000 -3.298
23.04000 -4.074
23.06000 -1.223
23.08000 0.381
23.10000 1.304
23.12000 -3.712
23.14000 1.567
23.16000 7.552
23.18000 14.267
23.20000 3.738
23.22000 -0.244
23.24000 2.698
23.26000 2.865
23.28000 0.567
23.30000 -4.056
23.32000 -2.205
23.34000 2.518
23.36000 2.288
23.38000 7.402
23.40000 6.467
23.42000 3.981
23.44000 8.403
23.46000 4.765
23.48000 2.394
23.50000 2.669
23.52000 5.926
23.54000 4.696
23.56000 3.705
23.58000 3.421
23.60000 5.116
23.62000 7.625
23.64000 6.542
23.66000 8.206
23.68000 6.705
23.70000 11.542
23.72000 11.462
23.74000 8.318
23.76000 7.438
23.78000 4.747
23.80000 0.635
23.82000 0.973
23.84000 5.888
23.86000 2.960
23.88000 8.481
23.90000 5.845
23.92000 -0.096
23.94000 2.528
23.96000 0.744
23.98000 2.556
24.00000 8.276
24.02000 0.327
24.04000 -1.188
24.06000 0.687
24.08000 2.327
24.10000 5.093
24.12000 6.835
24.14000 1.951
24.16000 -2.047
24.18000 3.254
24.20000 3.481
24.22000 0.592
24.24000 -4.007
24.26000 0.144
24.28000 7.428
24.30000 7.203
24.32000 1.409
24.34000 0.960
24.36000 1.127
24.38000 0.594
24.40000 4.839
24.42000 10.522
24.44000 11.661
24.46000 6.678
24.48000 0.738
24.50000 4.869
24.52000 6.510
24.54000 0.065
24.56000 4.780
24.58000 5.709
24.60000 0.920
24.62000 11.706
24.64000 10.055
24.66000 2.040
24.68000 6.072
24.70000 8.269
24.72000 5.747
24.74000 3.395
24.76000 3.579
24.78000 3.695
24.80000 6.495
24.82000 4.127
24.84000 5.522
24.86000 2.457
24.88000 1.982
24.90000 -2.940
24.92000 0.366
24.94000 7.563
24.96000 4.809
24.98000 -2.545
25.00000 0.370
25.02000 6.054
25.04000 8.890
25.06000 3.920
25.08000 0.118
25.10000 1.802
25.12000 0.979
25.14000 3.081
25.16000 5.710
25.18000 3.252
25.20000 6.632
25.22000 6.395
25.24000 6.218
25.26000 6.762
25.28000 1.197
25.30000 -0.799
25.32000 -1.866
25.34000 5.435
25.36000 12.662
25.38000 5.710
25.40000 0.582
25.42000 -0.819
25.44000 -3.435
25.46000 -1.074
25.48000 6.501
25.50000 2.444
25.52000 -3.927
25.54000 -3.768
25.56000 -1.141
25.58000 6.995
25.60000 5.514
25.62000 3.238
25.64000 2.809
25.66000 0.843
25.68000 1.881
25.70000 0.566
25.72000 0.100
25.74000 4.652
25.76000 2.327
25.78000 2.389
25.80000 2.120
25.82000 1.341
25.84000 4.647
25.86000 9.244
25.88000 10.758
25.90000 7.893
25.92000 4.396
25.94000 2.394
25.96000 1.725
25.98000 0.504
26.00000 0.389
26.02000 -0.876
26.04000 -0.377
26.06000 2.482
26.08000 4.273
26.10000 4.084
26.12000 -0.530
26.14000 3.379
26.16000 5.745
26.18000 4.463
26.20000 2.758
26.22000 -2.127
26.24000 -3.876
26.26000 1.713
26.28000 7.020
26.30000 4.252
26.32000 -2.164
26.34000 2.879
26.36000 7.809
26.38000 8.328
26.40000 5.346
26.42000 2.806
26.44000 4.631
26.46000 0.028
26.48000 2.203
26.50000 4.746
26.52000 0.531
26.54000 1.604
26.56000 2.771
26.58000 -3.739
26.60000 -2.780
26.62000 3.633
26.64000 4.740
26.66000 -3.890
26.68000 3.126
26.70000 7.066
26.72000 7.690
26.74000 1.818
26.76000 0.305
26.78000 -3.261
26.80000 2.946
26.82000 4.199
26.84000 5.104
26.86000 3.449
26.88000 1.896
26.90000 2.150
26.92000 1.948
26.94000 1.970
26.96000 -1.834
26.98000 -1.731
27.00000 3.854
27.02000 14.691
27.04000 6.720
27.06000 3.413
27.08000 5.019
27.10000 2.281
27.12000 3.951
27.14000 3.547
27.16000 0.602
27.18000 -0.047
27.20000 0.324
27.22000 -1.523
27.24000 -0.145
27.26000 7.242
27.28000 3.145
27.30000 7.511
27.32000 8.846
27.34000 9.819
27.36000 4.892
27.38000 9.790
27.40000 9.804
27.42000 6.122
27.44000 2.543
27.46000 -0.215
27.48000 -1.238
27.50000 -0.607
27.52000 -0.539
27.54000 -3.840
27.56000 -1.492
27.58000 1.699
27.60000 2.066
27.62000 4.600
27.64000 0.515
27.66000 1.805
27.68000 1.495
27.70000 -2.039
27.72000 -3.609
27.74000 -3.186
27.76000 -2.441
27.78000 -1.961
27.80000 2.843
27.82000 2.050
27.84000 0.073
27.86000 -1.257
27.88000 -2.555
27.90000 -1.832
27.92000 1.499
27.94000 2.468
27.96000 -1.063
27.98000 0.763
28.00000 3.581
28.02000 4.533
28.04000 2.466
28.06000 -0.955
28.08000 -1.155
28.10000 3.353
28.12000 1.894
28.14000 -0.979
28.16000 -1.245
28.18000 1.404
28.20000 3.950
28.22000 4.033
28.24000 6.059
28.26000 -0.720
28.28000 -3.806
28.30000 3.666
28.32000 5.720
28.34000 -0.245
28.36000 1.844
28.38000 2.867
28.40000 -2.078
28.42000 -1.072
28.44000 1.877
28.46000 0.356
28.48000 -2.006
28.50000 2.539
28.52000 2.094
28.54000 -0.355
28.56000 2.382
28.58000 -1.610
28.60000 -1.518
28.62000 -1.940
28.64000 -0.726
28.66000 0.630
28.68000 5.723
28.70000 6.369
28.72000 3.244
28.74000 -1.924
28.76000 2.402
28.78000 1.648
28.80000 2.630
28.82000 5.410
28.84000 9.103
28.86000 9.007
28.88000 7.085
28.90000 2.006
28.92000 -1.282
28.94000 -2.893
28.96000 -1.421
28.98000 0.294
29.00000 6.505
29.02000 7.322
29.04000 3.862
29.06000 4.094
29.08000 -0.099
29.10000 2.375
29.12000 -3.764
29.14000 -0.679
29.16000 3.522
29.18000 5.467
29.20000 2.184
29.22000 2.104
29.24000 -3.126
29.26000 -2.044
29.28000 3.924
29.30000 5.084
29.32000 7.011
29.34000 4.600
29.36000 0.025
29.38000 1.479
29.40000 3.592
29.42000 2.908
29.44000 2.518
29.46000 3.102
29.48000 1.407
29.50000 -0.252
29.52000 -2.291
29.54000 -2.940
29.56000 0.949
29.58000 3.177
29.60000 -0.657
29.62000 2.337
29.64000 1.549
29.66000 1.576
29.68000 2.052
29.70000 -1.592
29.72000 -0.482
29.74000 2.280
29.76000 6.439
29.78000 1.373
29.80000 -3.746
29.82000 -3.220
29.84000 1.019
29.86000 2.317
29.88000 1.364
29.90000 2.202
29.92000 4.543
29.94000 5.024
29.96000 3.406
29.98000 0.457
30.00000 -2.305
30.02000 0.605
30.04000 4.250
30.06000 3.979
30.08000 1.898
30.10000 3.973
30.12000 1.423
30.14000 -2.687
30.16000 0.801
30.18000 3.234
30.20000 4.274
30.22000 4.583
30.24000 2.302
30.26000 -2.284
30.28000 -0.643
30.30000 -1.003
30.32000 -2.835
30.34000 -3.409
30.36000 -3.272
30.38000 -2.601
30.40000 0.180
30.42000 1.643
30.44000 0.841
30.46000 1.985
30.48000 4.445
30.50000 7.106
30.52000 1.486
30.54000 3.821
30.56000 3.012
30.58000 4.547
30.60000 5.731
30.62000 3.883
30.64000 1.947
30.66000 -3.524
30.68000 1.662
30.70000 2.694
30.72000 3.271
30.74000 0.278
30.76000 -0.565
30.78000 1.125
30.80000 3.729
30.82000 5.060
30.84000 2.478
30.86000 4.171
30.88000 6.594
30.90000 7.760
30.92000 4.174
30.94000 1.186
30.96000 1.217
30.98000 4.060
31.00000 1.908
31.02000 -3.671
31.04000 4.164
31.06000 0.771
31.08000 -0.674
31.10000 -1.765
31.12000 1.484
31.14000 1.275
31.16000 7.270
31.18000 3.841
31.20000 2.909
31.22000 0.228
31.24000 1.526
31.26000 -0.849
31.28000 -0.170
31.30000 2.276
31.32000 4.814
31.34000 -2.569
31.36000 -2.322
31.38000 2.241
31.40000 3.767
31.42000 4.685
31.44000 4.008
31.46000 5.894
31.48000 8.515
31.50000 1.543
31.52000 -1.245
31.54000 -1.927
31.56000 -1.871
31.58000 8.615
31.60000 8.658
31.62000 3.610
31.64000 4.036
31.66000 3.050
31.68000 -1.062
31.70000 1.361
31.72000 1.803
31.74000 4.404
31.76000 6.724
31.78000 7.257
31.80000 6.817
31.82000 0.912
31.84000 1.777
31.86000 7.979
31.88000 6.063
31.90000 -0.960
31.92000 6.431
31.94000 10.099
31.96000 0.328
31.98000 -3.621
32.00000 -0.352
32.02000 0.169
32.04000 -0.544
32.06000 2.539
32.08000 6.336
32.10000 10.030
32.12000 7.193
32.14000 2.051
32.16000 3.841
32.18000 1.153
32.20000 0.715
32.22000 3.236
32.24000 3.124
32.26000 5.603
32.28000 1.772
32.30000 -1.998
32.32000 1.270
32.34000 4.254
32.36000 6.400
32.38000 6.375
32.40000 1.601
32.42000 -0.897
32.44000 1.221
32.46000 4.085
32.48000 6.097
32.50000 0.021
32.52000 -3.604
32.54000 4.217
32.56000 2.780
32.58000 6.239
32.60000 2.885
32.62000 1.086
32.64000 0.613
32.66000 0.456
32.68000 1.230
32.70000 4.249
32.72000 10.753
32.74000 5.469
32.76000 3.678
32.78000 4.509
32.80000 4.150
32.82000 2.381
32.84000 -0.987
32.86000 1.963
32.88000 5.175
32.90000 3.211
32.92000 0.940
32.94000 0.551
32.96000 3.747
32.98000 5.690
33.00000 5.023
33.02000 3.606
33.04000 3.343
33.06000 6.086
33.08000 2.067
33.10000 -1.729
33.12000 -0.110
33.14000 4.080
33.16000 -0.010
33.18000 -2.732
33.20000 -2.220
33.22000 -0.319
33.24000 1.790
33.26000 4.998
33.28000 5.596
33.30000 0.142
33.32000 3.594
33.34000 3.372
33.36000 4.255
33.38000 -3.619
33.40000 -2.876
33.42000 2.712
33.44000 5.922
33.46000 5.723
33.48000 8.159
33.50000 -1.788
33.52000 1.109
33.54000 6.071
33.56000 3.342
33.58000 -1.623
33.60000 3.900
33.62000 3.020
33.64000 0.068
33.66000 5.097
33.68000 7.116
33.70000 5.047
33.72000 4.898
33.74000 -0.868
33.76000 -0.579
33.78000 3.465
33.80000 6.120
33.82000 4.445
33.84000 8.098
33.86000 12.043
33.88000 3.680
33.90000 2.670
33.92000 7.086
33.94000 5.207
33.96000 1.271
33.98000 0.162
34.00000 -0.459
34.02000 2.964
34.04000 7.142
34.06000 10.610
34.08000 5.672
34.10000 5.526
34.12000 6.897
34.14000 10.433
34.16000 7.316
34.18000 4.991
34.20000 6.336
34.22000 8.035
34.24000 6.440
34.26000 4.760
34.28000 -0.120
34.30000 3.300
34.32000 6.879
34.34000 9.776
34.36000 8.112
34.38000 2.777
34.40000 -0.396
34.42000 -0.341
34.44000 1.243
34.46000 6.364
34.48000 6.601
34.50000 -0.528
34.52000 0.405
34.54000 5.637
34.56000 7.136
34.58000 4.543
34.60000 2.664
34.62000 6.797
34.64000 3.838
34.66000 2.835
34.68000 5.601
34.70000 4.005
34.72000 3.355
34.74000 3.546
34.76000 3.245
34.78000 6.823
34.80000 5.213
34.82000 9.988
34.84000 9.246
34.86000 9.983
34.88000 4.752
34.90000 7.255
34.92000 6.745
34.94000 3.272
34.96000 2.092
34.98000 -3.549
35.00000 -1.332
35.02000 5.245
35.04000 3.363
35.06000 7.011
35.08000 4.271
35.10000 2.484
35.12000 4.988
35.14000 5.273
35.16000 8.076
35.18000 5.176
35.20000 -0.457
35.22000 2.020
35.24000 6.808
35.26000 6.793
35.28000 8.227
35.30000 8.833
35.32000 7.741
35.34000 1.108
35.36000 1.505
35.38000 6.117
35.40000 8.787
35.42000 8.260
35.44000 8.734
35.46000 5.806
35.48000 4.891
35.50000 6.149
35.52000 4.765
35.54000 0.402
35.56000 4.782
35.58000 6.696
35.60000 2.133
35.62000 1.776
35.64000 0.370
35.66000 0.363
35.68000 2.991
35.70000 2.449
35.72000 -1.765
35.74000 0.987
35.76000 6.177
35.78000 5.527
35.80000 4.047
35.82000 5.326
35.84000 4.640
35.86000 6.131
35.88000 5.553
35.90000 2.391
35.92000 6.711
35.94000 9.072
35.96000 8.430
35.98000 2.168
36.00000 0.311
36.02000 -1.501
36.04000 -3.568
36.06000 1.025
36.08000 5.907
36.10000 5.516
36.12000 6.167
36.14000 9.822
36.16000 4.830
36.18000 5.996
36.20000 6.321
36.22000 6.414
36.24000 3.460
36.26000 5.624
36.28000 4.346
36.30000 0.149
36.32000 0.557
36.34000 -0.062
36.36000 -1.445
36.38000 0.430
36.40000 1.713
36.42000 1.918
36.44000 2.166
36.46000 1.662
36.48000 -1.482
36.50000 2.179
36.52000 0.576
36.54000 -0.954
36.56000 2.216
36.58000 -0.472
36.60000 -0.005
36.62000 0.472
36.64000 -3.631
36.66000 1.848
36.68000 2.876
36.70000 0.132
36.72000 2.978
36.74000 8.178
36.76000 5.260
36.78000 2.070
36.80000 1.559
36.82000 -1.997
36.84000 -2.371
36.86000 -1.246
36.88000 -0.506
36.90000 7.749
36.92000 4.286
36.94000 1.623
36.96000 4.761
36.98000 5.228
37.00000 4.902
37.02000 4.728
37.04000 5.953
37.06000 4.323
37.08000 -1.131
37.10000 -1.687
37.12000 3.004
37.14000 2.194
37.16000 4.209
37.18000 4.179
37.20000 2.811
37.22000 5.680
37.24000 1.304
37.26000 4.074
37.28000 -1.056
37.30000 -3.025
37.32000 1.199
37.34000 5.446
37.36000 8.695
37.38000 7.452
37.40000 3.289
37.42000 9.672
37.44000 13.368
37.46000 9.950
37.48000 4.143
37.50000 5.341
37.52000 5.459
37.54000 7.261
37.56000 3.600
37.58000 4.179
37.60000 7.287
37.62000 5.702
37.64000 3.960
37.66000 8.157
37.68000 7.116
37.70000 4.773
37.72000 6.941
37.74000 7.928
37.76000 7.340
37.78000 9.990
37.80000 14.189
37.82000 12.786
37.84000 12.097
37.86000 16.247
37.88000 14.924
37.90000 15.131
37.92000 17.190
37.94000 17.639
37.96000 18.941
37.98000 15.509
38.00000 13.674
38.02000 18.536
38.04000 21.779
38.06000 18.473
38.08000 17.644
38.10000 21.650
38.12000 21.790
38.14000 22.958
38.16000 24.233
38.18000 24.195
38.20000 29.012
38.22000 29.960
38.24000 30.100
38.26000 27.689
38.28000 27.837
38.30000 29.446
38.32000 32.620
38.34000 34.973
38.36000 31.072
38.38000 32.647
38.40000 34.033
38.42000 38.707
38.44000 48.087
38.46000 43.815
38.48000 37.571
38.50000 42.639
38.52000 53.293
38.54000 48.790
38.56000 48.147
38.58000 53.934
38.60000 51.193
38.62000 53.638
38.64000 60.909
38.66000 64.400
38.68000 68.459
38.70000 74.735
38.72000 78.474
38.74000 72.599
38.76000 75.125
38.78000 78.073
38.80000 78.552
38.82000 85.185
38.84000 89.439
38.86000 93.404
38.88000 100.571
38.90000 105.015
38.92000 106.732
38.94000 112.324
38.96000 119.812
38.98000 124.197
39.00000 130.506
39.02000 140.760
39.04000 144.492
39.06000 153.762
39.08000 160.843
39.10000 170.770
39.12000 173.978
39.14000 184.314
39.16000 203.198
39.18000 209.537
39.20000 219.313
39.22000 232.157
39.24000 251.092
39.26000 259.570
39.28000 271.674
39.30000 286.587
39.32000 306.189
39.34000 323.570
39.36000 340.146
39.38000 355.828
39.40000 374.775
39.42000 393.224
39.44000 415.465
39.46000 445.138
39.48000 460.677
39.50000 477.172
39.52000 494.215
39.54000 509.602
39.56000 536.842
39.58000 554.214
39.60000 568.866
39.62000 582.368
39.64000 598.663
39.66000 611.397
39.68000 620.894
39.70000 641.101
39.72000 646.848
39.74000 652.897
39.76000 651.041
39.78000 659.792
39.80000 658.121
39.82000 657.803
39.84000 650.270
39.86000 651.558
39.88000 635.315
39.90000 634.609
39.92000 625.614
39.94000 607.062
39.96000 586.137
39.98000 566.399
40.00000 544.302
40.02000 531.638
40.04000 514.685
40.06000 492.525
40.08000 464.544
40.10000 446.517
40.12000 430.966
40.14000 413.053
40.16000 386.721
40.18000 364.346
40.20000 356.315
40.22000 335.815
40.24000 318.912
40.26000 294.983
40.28000 272.386
40.30000 260.216
40.32000 243.858
40.34000 225.472
40.36000 219.698
40.38000 208.209
40.40000 192.560
40.42000 178.320
40.44000 169.120
40.46000 159.357
40.48000 150.941
40.50000 137.132
40.52000 129.256
40.54000 117.389
40.56000 103.031
40.58000 104.456
40.60000 98.624
40.62000 94.993
40.64000 89.431
40.66000 86.134
40.68000 78.367
40.70000 73.100
40.72000 69.585
40.74000 67.820
40.76000 62.307
40.78000 59.670
40.80000 55.375
40.82000 52.468
40.84000 52.030
40.86000 46.007
40.88000 46.731
40.90000 40.217
40.92000 39.679
40.94000 38.431
40.96000 37.192
40.98000 37.259
41.00000 33.626
41.02000 28.115
41.04000 22.221
41.06000 24.111
41.08000 24.139
41.10000 23.132
41.12000 21.976
41.14000 21.003
41.16000 20.960
41.18000 21.921
41.20000 22.010
41.22000 17.017
41.24000 11.273
41.26000 14.748
41.28000 14.866
41.30000 12.685
41.32000 15.921
41.34000 14.563
41.36000 8.542
41.38000 12.418
41.40000 14.297
41.42000 11.004
41.44000 10.914
41.46000 9.294
41.48000 10.509
41.50000 7.507
41.52000 6.553
41.54000 5.158
41.56000 6.017
41.58000 4.689
41.60000 3.192
41.62000 3.571
41.64000 4.891
41.66000 7.205
41.68000 6.502
41.70000 3.860
41.72000 5.550
41.74000 4.377
41.76000 4.620
41.78000 2.876
41.80000 3.991
41.82000 0.372
41.84000 0.795
41.86000 0.183
41.88000 3.663
41.90000 1.193
41.92000 5.351
41.94000 4.809
41.96000 4.234
41.98000 2.961
42.00000 2.720
42.02000 -0.227
42.04000 -1.027
42.06000 -1.320
42.08000 0.862
42.10000 -0.327
42.12000 1.353
42.14000 1.497
42.16000 5.691
42.18000 2.573
42.20000 0.622
42.22000 2.662
42.24000 2.841
42.26000 -0.621
42.28000 0.243
42.30000 3.881
42.32000 3.702
42.34000 3.983
42.36000 3.781
42.38000 3.559
42.40000 0.479
42.42000 -3.376
42.44000 -0.192
42.46000 0.950
42.48000 -0.824
42.50000 -1.847
42.52000 -2.374
42.54000 -0.783
42.56000 1.162
42.58000 0.518
42.60000 1.201
42.62000 1.519
42.64000 0.770
42.66000 2.136
42.68000 0.711
42.70000 -1.429
42.72000 -0.178
42.74000 -0.939
42.76000 0.117
42.78000 -0.255
42.80000 0.240
42.82000 -0.380
42.84000 2.838
42.86000 -0.634
42.88000 3.579
42.90000 3.052
42.92000 -3.325
42.94000 -2.763
42.96000 1.183
42.98000 0.468
43.00000 -0.955
43.02000 -1.921
43.04000 0.557
43.06000 2.135
43.08000 2.191
43.10000 2.826
43.12000 2.554
43.14000 2.600
43.16000 1.605
43.18000 1.086
43.20000 1.104
43.22000 0.785
43.24000 0.074
43.26000 3.503
43.28000 -2.245
43.30000 -1.621
43.32000 0.153
43.34000 1.000
43.36000 -2.072
43.38000 -3.266
43.40000 -2.243
43.42000 0.633
43.44000 1.106
43.46000 2.581
43.48000 2.876
43.50000 1.660
43.52000 5.396
43.54000 7.461
43.56000 1.253
43.58000 1.509
43.60000 2.544
43.62000 5.444
43.64000 3.629
43.66000 2.549
43.68000 0.601
43.70000 -0.178
43.72000 3.076
43.74000 1.946
43.76000 0.584
43.78000 -3.210
43.80000 -1.029
43.82000 3.772
43.84000 4.614
43.86000 2.735
43.88000 5.290
43.90000 4.767
43.92000 -1.656
43.94000 -1.713
43.96000 -3.196
43.98000 2.044
44.00000 1.599
44.02000 2.212
44.04000 3.445
44.06000 2.678
44.08000 -1.488
44.10000 2.266
44.12000 2.477
44.14000 -0.658
44.16000 -2.790
44.18000 -0.069
44.20000 3.445
44.22000 -0.294
44.24000 1.936
44.26000 4.262
44.28000 0.773
44.30000 2.500
44.32000 3.000
44.34000 1.360
44.36000 2.849
44.38000 -0.855
44.40000 -1.379
44.42000 -1.909
44.44000 0.337
44.46000 1.268
44.48000 0.800
44.50000 -1.397
44.52000 -0.836
44.54000 -2.700
44.56000 -0.316
44.58000 -0.983
44.60000 -3.209
44.62000 -0.736
44.64000 5.517
44.66000 3.563
44.68000 7.262
44.70000 6.413
44.72000 4.489
44.74000 6.385
44.76000 7.021
44.78000 2.450
44.80000 0.964
44.82000 -1.459
44.84000 1.864
44.86000 6.737
44.88000 6.952
44.90000 2.727
44.92000 5.610
44.94000 10.249
44.96000 7.028
44.98000 5.271
45.00000 4.397
45.02000 2.333
45.04000 3.561
45.06000 10.485
45.08000 8.862
45.10000 6.692
45.12000 4.577
45.14000 4.052
45.16000 8.411
45.18000 10.762
45.20000 5.763
45.22000 7.628
45.24000 6.248
45.26000 5.131
45.28000 6.369
45.30000 7.890
45.32000 10.083
45.34000 7.932
45.36000 10.002
45.38000 7.664
45.40000 8.345
45.42000 12.503
45.44000 16.616
45.46000 16.342
45.48000 14.045
45.50000 13.689
45.52000 14.145
45.54000 13.615
45.56000 17.916
45.58000 20.787
45.60000 17.256
45.62000 17.010
45.64000 18.276
45.66000 18.842
45.68000 18.494
45.70000 26.118
45.72000 28.320
45.74000 27.617
45.76000 32.863
45.78000 30.631
45.80000 28.213
45.82000 27.986
45.84000 33.951
45.86000 36.310
45.88000 36.398
45.90000 38.646
45.92000 33.038
45.94000 37.430
45.96000 39.891
45.98000 39.065
46.00000 43.235
46.02000 48.464
46.04000 51.342
46.06000 51.819
46.08000 53.725
46.10000 54.047
46.12000 45.097
46.14000 47.766
46.16000 49.761
46.18000 54.244
46.20000 55.151
46.22000 56.113
46.24000 58.091
46.26000 65.761
46.28000 63.255
46.30000 58.248
46.32000 58.687
46.34000 57.182
46.36000 59.750
46.38000 61.616
46.40000 67.418
46.42000 64.950
46.44000 61.957
46.46000 62.294
46.48000 60.726
46.50000 68.342
46.52000 72.436
46.54000 66.525
46.56000 60.702
46.58000 64.308
46.60000 59.556
46.62000 62.475
46.64000 58.726
46.66000 58.315
46.68000 56.565
46.70000 57.686
46.72000 57.570
46.74000 54.159
46.76000 53.966
46.78000 49.602
46.80000 49.829
46.82000 48.702
46.84000 40.041
46.86000 41.421
46.88000 39.836
46.90000 40.357
46.92000 37.384
46.94000 31.777
46.96000 33.014
46.98000 38.279
47.00000 37.725
47.02000 31.249
47.04000 32.539
47.06000 30.055
47.08000 27.615
47.10000 25.199
47.12000 22.452
47.14000 21.031
47.16000 19.472
47.18000 19.090
47.20000 19.022
47.22000 17.289
47.24000 18.434
47.26000 17.750
47.28000 18.380
47.30000 14.347
47.32000 13.198
47.34000 13.500
47.36000 14.323
47.38000 12.486
47.40000 12.009
47.42000 10.015
47.44000 6.879
47.46000 4.431
47.48000 4.891
47.50000 4.022
47.52000 2.990
47.54000 2.187
47.56000 7.995
47.58000 6.732
47.60000 2.603
47.62000 3.175
47.64000 0.663
47.66000 2.084
47.68000 4.983
47.70000 5.676
47.72000 7.494
47.74000 3.073
47.76000 3.959
47.78000 3.145
47.80000 3.837
47.82000 5.117
47.84000 2.806
47.86000 -2.667
47.88000 1.306
47.90000 3.431
47.92000 2.762
47.94000 -0.694
47.96000 -0.708
47.98000 1.790
48.00000 0.927
48.02000 2.353
48.04000 -0.329
48.06000 -0.194
48.08000 0.982
48.10000 -1.707
48.12000 -2.315
48.14000 1.469
48.16000 3.936
48.18000 6.606
48.20000 -0.039
48.22000 -0.927
48.24000 -2.848
48.26000 -1.999
48.28000 0.535
48.30000 -0.214
48.32000 2.145
48.34000 0.938
48.36000 0.803
48.38000 3.281
48.40000 1.706
48.42000 3.817
48.44000 0.912
48.46000 -0.048
48.48000 0.261
48.50000 4.107
48.52000 2.917
48.54000 1.679
48.56000 0.590
48.58000 -2.775
48.60000 -0.512
48.62000 2.760
48.64000 1.908
48.66000 2.146
48.68000 -0.108
48.70000 1.338
48.72000 4.963
48.74000 5.622
48.76000 7.349
48.78000 6.358
48.80000 4.834
48.82000 3.279
48.84000 5.339
48.86000 1.411
48.88000 1.285
48.90000 3.376
48.92000 1.988
48.94000 2.770
48.96000 -2.750
48.98000 0.505
49.00000 4.278
49.02000 2.319
49.04000 3.865
49.06000 3.057
49.08000 3.940
49.10000 4.485
49.12000 0.300
49.14000 1.164
49.16000 0.915
49.18000 -1.332
49.20000 -1.774
49.22000 -2.333
49.24000 0.366
49.26000 0.873
49.28000 0.839
49.30000 2.056
49.32000 0.899
49.34000 2.109
49.36000 5.715
49.38000 2.231
49.40000 1.611
49.42000 2.953
49.44000 4.908
49.46000 4.314
49.48000 4.899
49.50000 3.829
49.52000 4.355
49.54000 2.738
49.56000 -1.410
49.58000 0.007
49.60000 3.526
49.62000 7.378
49.64000 5.549
49.66000 1.997
49.68000 4.686
49.70000 0.671
49.72000 3.114
49.74000 0.568
49.76000 2.539
49.78000 3.058
49.80000 2.408
49.82000 5.743
49.84000 1.793
49.86000 2.584
49.88000 5.810
49.90000 6.595
49.92000 3.486
49.94000 2.683
49.96000 6.175
49.98000 3.227
50.00000 3.693
50.02000 2.536
50.04000 3.068
50.06000 5.894
50.08000 6.289
50.10000 1.285
50.12000 -2.648
50.14000 4.527
50.16000 7.032
50.18000 2.573
50.20000 1.798
50.22000 2.992
50.24000 4.104
50.26000 3.667
50.28000 6.157
50.30000 2.070
50.32000 0.415
50.34000 1.128
50.36000 3.893
50.38000 8.284
50.40000 3.054
50.42000 -0.158
50.44000 0.733
50.46000 -1.404
50.48000 4.517
50.50000 4.475
50.52000 2.469
50.54000 0.417
50.56000 3.725
50.58000 2.293
50.60000 -0.370
50.62000 1.954
50.64000 5.681
50.66000 3.330
50.68000 -0.899
50.70000 0.698
50.72000 3.587
50.74000 8.002
50.76000 5.325
50.78000 -0.459
50.80000 0.954
50.82000 5.076
50.84000 3.006
50.86000 2.980
50.88000 4.154
50.90000 2.326
50.92000 1.419
50.94000 1.117
50.96000 -0.961
50.98000 5.098
51.00000 1.704
51.02000 1.185
51.04000 -0.260
51.06000 5.367
51.08000 5.065
51.10000 -0.663
51.12000 1.365
51.14000 -2.377
51.16000 -2.320
51.18000 3.877
51.20000 0.302
51.22000 2.793
51.24000 2.951
51.26000 0.641
51.28000 3.385
51.30000 4.099
51.32000 3.409
51.34000 2.878
51.36000 3.797
51.38000 2.265
51.40000 -0.768
51.42000 0.561
51.44000 2.742
51.46000 -0.747
51.48000 -2.650
51.50000 -2.165
51.52000 0.596
51.54000 0.310
51.56000 -1.007
51.58000 -0.388
51.60000 0.498
51.62000 6.385
51.64000 6.884
51.66000 2.311
51.68000 3.131
51.70000 6.310
51.72000 6.891
51.74000 4.451
51.76000 3.794
51.78000 1.173
51.80000 5.211
51.82000 6.046
51.84000 6.216
51.86000 0.516
51.88000 0.643
51.90000 0.494
51.92000 -0.785
51.94000 3.860
51.96000 2.907
51.98000 5.172
52.00000 4.392
52.02000 5.729
52.04000 6.197
52.06000 6.510
52.08000 2.190
52.10000 -2.619
52.12000 -0.279
52.14000 0.435
52.16000 0.536
52.18000 0.336
52.20000 2.803
52.22000 3.953
52.24000 2.102
52.26000 5.371
52.28000 1.683
52.30000 2.086
52.32000 4.080
52.34000 1.683
52.36000 3.953
52.38000 7.995
52.40000 6.769
52.42000 2.910
52.44000 5.117
52.46000 0.253
52.48000 1.207
52.50000 1.197
52.52000 5.948
52.54000 5.135
52.56000 2.761
52.58000 -2.588
52.60000 -0.659
52.62000 1.614
52.64000 -0.602
52.66000 3.119
52.68000 -0.944
52.70000 -0.417
52.72000 -0.135
52.74000 2.434
52.76000 -0.525
52.78000 -2.518
52.80000 0.124
52.82000 3.824
52.84000 5.555
52.86000 0.342
52.88000 -0.702
52.90000 2.808
52.92000 1.186
52.94000 -2.589
52.96000 3.124
52.98000 7.147
53.00000 3.505
53.02000 1.290
53.04000 1.525
53.06000 0.063
53.08000 -2.589
53.10000 0.806
53.12000 3.248
53.14000 5.382
53.16000 5.107
53.18000 1.060
53.20000 0.022
53.22000 1.055
53.24000 3.625
53.26000 3.883
53.28000 -0.293
53.30000 1.086
53.32000 4.931
53.34000 2.336
53.36000 1.779
53.38000 1.844
53.40000 1.768
53.42000 1.000
53.44000 1.293
53.46000 3.443
53.48000 6.200
53.50000 6.385
53.52000 0.863
53.54000 -0.860
53.56000 5.140
53.58000 7.209
53.60000 3.598
53.62000 3.639
53.64000 0.913
53.66000 -2.579
53.68000 0.346
53.70000 2.140
53.72000 1.644
53.74000 0.451
53.76000 3.942
53.78000 3.739
53.80000 3.287
53.82000 -1.081
53.84000 0.400
53.86000 -0.328
53.88000 1.782
53.90000 0.107
53.92000 0.739
53.94000 0.825
53.96000 -1.927
53.98000 0.572
54.00000 -1.061
54.02000 -1.504
54.04000 1.461
54.06000 2.623
54.08000 1.594
54.10000 0.803
54.12000 -0.907
54.14000 2.516
54.16000 2.862
54.18000 0.883
54.20000 1.325
54.22000 0.602
54.24000 5.042
54.26000 3.700
54.28000 1.730
54.30000 -1.256
54.32000 0.171
54.34000 -0.258
54.36000 3.914
54.38000 3.437
54.40000 4.994
54.42000 1.734
54.44000 -0.940
54.46000 0.704
54.48000 1.518
54.50000 2.803
54.52000 3.975
54.54000 4.119
54.56000 4.375
54.58000 7.386
54.60000 5.980
54.62000 2.122
54.64000 -0.904
54.66000 1.527
54.68000 1.059
54.70000 1.544
54.72000 1.455
54.74000 6.823
54.76000 1.862
54.78000 -2.520
54.80000 -0.861
54.82000 2.269
54.84000 4.456
54.86000 1.344
54.88000 1.493
54.90000 -0.021
54.92000 2.161
54.94000 4.092
54.96000 6.311
54.98000 4.635
55.00000 5.239
55.02000 7.812
55.04000 4.984
55.06000 0.230
55.08000 3.452
55.10000 6.007
55.12000 4.406
55.14000 1.968
55.16000 4.236
55.18000 5.337
55.20000 -1.172
55.22000 -1.688
55.24000 0.124
55.26000 2.239
55.28000 1.123
55.30000 0.892
55.32000 -1.856
55.34000 -0.591
55.36000 -0.221
55.38000 -0.139
55.40000 2.296
55.42000 3.471
55.44000 2.085
55.46000 1.687
55.48000 -2.532
55.50000 1.951
55.52000 1.504
55.54000 0.801
55.56000 2.011
55.58000 1.434
55.60000 -0.357
55.62000 4.228
55.64000 -1.915
55.66000 -1.475
55.68000 2.793
55.70000 4.898
55.72000 3.846
55.74000 2.313
55.76000 0.546
55.78000 -0.112
55.80000 -0.988
55.82000 -1.196
55.84000 1.143
55.86000 0.497
55.88000 4.417
55.90000 3.038
55.92000 -1.408
55.94000 0.948
55.96000 -1.607
55.98000 2.066
56.00000 1.144
56.02000 0.391
56.04000 3.732
56.06000 5.970
56.08000 1.171
56.10000 0.753
56.12000 1.949
56.14000 -1.158
56.16000 3.166
56.18000 3.367
56.20000 2.579
56.22000 1.882
56.24000 1.821
56.26000 -1.040
56.28000 2.200
56.30000 2.018
56.32000 3.458
56.34000 1.695
56.36000 0.750
56.38000 2.220
56.40000 4.835
56.42000 5.197
56.44000 8.258
56.46000 6.408
56.48000 2.511
56.50000 5.007
56.52000 0.610
56.54000 3.134
56.56000 3.757
56.58000 4.727
56.60000 6.498
56.62000 -1.461
56.64000 -0.992
56.66000 -1.365
56.68000 1.182
56.70000 4.311
56.72000 7.366
56.74000 1.525
56.76000 -2.492
56.78000 0.654
56.80000 -0.411
56.82000 -1.558
56.84000 1.453
56.86000 1.873
56.88000 -0.101
56.90000 2.622
56.92000 4.086
56.94000 4.335
56.96000 5.442
56.98000 4.176
57.00000 2.032
57.02000 3.186
57.04000 -1.717
57.06000 0.000
57.08000 1.969
57.10000 0.948
57.12000 0.782
57.14000 2.313
57.16000 1.805
57.18000 2.719
57.20000 4.687
57.22000 0.737
57.24000 6.939
57.26000 5.403
57.28000 0.357
57.30000 -2.347
57.32000 0.390
57.34000 1.025
57.36000 4.100
57.38000 3.246
57.40000 3.540
57.42000 5.748
57.44000 5.038
57.46000 -0.512
57.48000 -1.339
57.50000 0.409
57.52000 0.648
57.54000 3.019
57.56000 -2.467
57.58000 -0.961
57.60000 3.810
57.62000 0.784
57.64000 -0.047
57.66000 1.913
57.68000 2.413
57.70000 2.222
57.72000 8.769
57.74000 4.462
57.76000 0.862
57.78000 -0.630
57.80000 6.497
57.82000 5.393
57.84000 -0.211
57.86000 -1.894
57.88000 -2.457
57.90000 0.540
57.92000 1.124
57.94000 8.817
57.96000 7.829
57.98000 2.615
58.00000 1.511
58.02000 3.297
58.04000 3.326
58.06000 7.374
58.08000 4.493
58.10000 5.258
58.12000 3.686
58.14000 4.798
58.16000 1.380
58.18000 3.868
58.20000 3.210
58.22000 2.207
58.24000 1.751
58.26000 0.109
58.28000 2.916
58.30000 3.902
58.32000 5.545
58.34000 2.217
58.36000 -0.445
58.38000 -0.144
58.40000 2.326
58.42000 2.622
58.44000 1.640
58.46000 5.312
58.48000 5.841
58.50000 5.203
58.52000 3.047
58.54000 0.562
58.56000 -0.294
58.58000 -0.452
58.60000 2.531
58.62000 -0.501
58.64000 2.430
58.66000 3.179
58.68000 5.961
58.70000 1.091
58.72000 -2.426
58.74000 0.170
58.76000 3.932
58.78000 6.317
58.80000 5.304
58.82000 2.955
58.84000 -1.742
58.86000 -1.894
58.88000 -0.489
58.90000 2.662
58.92000 1.650
58.94000 -1.716
58.96000 1.310
58.98000 3.090
59.00000 3.031
59.02000 0.589
59.04000 -0.940
59.06000 0.424
59.08000 0.366
59.10000 0.902
59.12000 -0.436
59.14000 2.649
59.16000 3.863
59.18000 5.314
59.20000 6.201
59.22000 2.336
59.24000 0.455
59.26000 -0.211
59.28000 3.983
59.30000 2.709
59.32000 0.057
59.34000 0.288
59.36000 1.480
59.38000 2.413
59.40000 6.303
59.42000 3.332
59.44000 2.704
59.46000 1.570
59.48000 0.530
59.50000 0.885
59.52000 0.887
59.54000 -2.404
59.56000 1.660
59.58000 4.927
59.60000 2.439
59.62000 3.645
59.64000 1.716
59.66000 -0.594
59.68000 0.885
59.70000 5.822
59.72000 1.971
59.74000 -0.657
59.76000 1.365
59.78000 5.939
59.80000 2.450
59.82000 3.216
59.84000 3.412
59.86000 2.524
59.88000 3.423
59.90000 4.287
59.92000 1.281
59.94000 -0.538
59.96000 1.567
59.98000 1.157
60.00000 1.783
60.02000 1.367
60.04000 3.486
60.06000 1.941
60.08000 -0.840
60.10000 0.522
60.12000 2.515
60.14000 2.077
60.16000 3.489
60.18000 0.422
60.20000 4.766
60.22000 6.920
60.24000 3.115
60.26000 1.585
60.28000 1.342
60.30000 3.981
60.32000 3.956
60.34000 0.425
60.36000 0.421
60.38000 -0.539
60.40000 0.593
60.42000 -0.046
60.44000 2.461
60.46000 0.170
60.48000 2.054
60.50000 3.775
60.52000 1.956
60.54000 -0.381
60.56000 -2.405
60.58000 0.253
60.60000 0.924
60.62000 -0.837
60.64000 0.053
60.66000 -2.167
60.68000 1.044
60.70000 1.886
60.72000 3.937
60.74000 4.825
60.76000 1.710
60.78000 0.358
60.80000 -1.462
60.82000 -1.301
60.84000 -2.165
60.86000 0.020
60.88000 0.596
60.90000 -0.431
60.92000 -0.508
60.94000 -1.685
60.96000 0.222
60.98000 3.816
61.00000 -1.045
61.02000 -2.392
61.04000 -0.369
61.06000 0.336
61.08000 0.582
61.10000 0.597
61.12000 -2.331
61.14000 0.384
61.16000 -0.375
61.18000 1.293
61.20000 1.806
61.22000 2.555
61.24000 3.156
61.26000 0.725
61.28000 -0.405
61.30000 3.653
61.32000 3.087
61.34000 2.511
61.36000 1.460
61.38000 4.355
61.40000 7.951
61.42000 2.137
61.44000 -0.189
61.46000 2.274
61.48000 3.332
61.50000 3.473
61.52000 3.554
61.54000 0.130
61.56000 -2.358
61.58000 2.022
61.60000 4.938
61.62000 8.502
61.64000 4.830
61.66000 1.091
61.68000 -1.770
61.70000 -2.247
61.72000 1.025
61.74000 0.112
61.76000 0.436
61.78000 1.369
61.80000 1.398
61.82000 1.582
61.84000 -0.130
61.86000 2.884
61.88000 3.173
61.90000 1.471
61.92000 -0.766
61.94000 -2.348
61.96000 1.072
61.98000 4.389
62.00000 8.756
62.02000 4.378
62.04000 0.710
62.06000 -0.173
62.08000 2.342
62.10000 0.541
62.12000 1.158
62.14000 1.726
62.16000 2.662
62.18000 1.676
62.20000 3.000
62.22000 0.687
62.24000 2.195
62.26000 1.983
62.28000 0.968
62.30000 2.047
62.32000 -0.807
62.34000 -1.619
62.36000 6.213
62.38000 5.684
62.40000 3.386
62.42000 3.725
62.44000 3.597
62.46000 0.334
62.48000 -2.067
62.50000 -1.411
62.52000 -0.258
62.54000 4.393
62.56000 0.092
62.58000 0.031
62.60000 0.769
62.62000 2.195
62.64000 3.820
62.66000 0.958
62.68000 2.299
62.70000 1.252
62.72000 3.100
62.74000 0.719
62.76000 0.429
62.78000 1.961
62.80000 -0.099
62.82000 -2.343
62.84000 0.273
62.86000 0.962
62.88000 4.109
62.90000 2.686
62.92000 3.892
62.94000 1.316
62.96000 2.573
62.98000 1.501
63.00000 0.719
63.02000 2.146
63.04000 4.612
63.06000 1.821
63.08000 1.181
63.10000 -0.014
63.12000 -1.275
63.14000 1.631
63.16000 1.763
63.18000 2.755
63.20000 2.694
63.22000 3.136
63.24000 3.573
63.26000 3.017
63.28000 2.457
63.30000 4.782
63.32000 6.186
63.34000 2.679
63.36000 -0.388
63.38000 4.726
63.40000 6.474
63.42000 3.464
63.44000 -2.340
63.46000 -1.459
63.48000 1.921
63.50000 3.013
63.52000 3.512
63.54000 1.140
63.56000 2.821
63.58000 -1.418
63.60000 -0.909
63.62000 2.952
63.64000 0.770
63.66000 1.839
63.68000 3.118
63.70000 0.211
63.72000 1.518
63.74000 1.485
63.76000 -0.585
63.78000 0.345
63.80000 -1.180
63.82000 -0.162
63.84000 1.626
63.86000 -0.749
63.88000 -1.625
63.90000 -0.710
63.92000 1.115
63.94000 4.693
63.96000 3.986
63.98000 0.633
64.00000 0.352
64.02000 2.918
64.04000 3.762
64.06000 1.619
64.08000 -0.740
64.10000 -0.480
64.12000 2.294
64.14000 1.414
64.16000 2.126
64.18000 2.678
64.20000 0.726
64.22000 1.545
64.24000 2.527
64.26000 -1.099
64.28000 0.035
64.30000 0.444
64.32000 -1.940
64.34000 -0.673
64.36000 0.497
64.38000 -0.797
64.40000 -0.748
64.42000 -1.095
64.44000 -0.066
64.46000 2.583
64.48000 5.384
64.50000 3.009
64.52000 -0.800
64.54000 2.819
64.56000 5.447
64.58000 1.403
64.60000 -2.377
64.62000 4.025
64.64000 -0.215
64.66000 0.621
64.68000 1.100
64.70000 1.256
64.72000 0.412
64.74000 2.084
64.76000 5.610
64.78000 2.693
64.80000 2.667
64.82000 5.179
64.84000 5.114
64.86000 4.126
64.88000 2.233
64.90000 2.791
64.92000 2.457
64.94000 0.598
64.96000 2.182
64.98000 2.514
65.00000 1.122
65.02000 2.195
65.04000 2.399
65.06000 0.472
65.08000 -0.531
65.10000 3.789
65.12000 6.146
65.14000 5.546
65.16000 -0.552
65.18000 -2.049
65.20000 -0.626
65.22000 4.292
65.24000 2.668
65.26000 -0.238
65.28000 0.856
65.30000 -2.372
65.32000 1.016
65.34000 1.125
65.36000 0.820
65.38000 2.579
65.40000 0.260
65.42000 2.282
65.44000 1.991
65.46000 -0.261
65.48000 0.544
65.50000 3.140
65.52000 3.889
65.54000 1.143
65.56000 -0.878
65.58000 -0.915
65.60000 -0.336
65.62000 3.540
65.64000 2.501
65.66000 -0.294
65.68000 0.970
65.70000 2.192
65.72000 0.824
65.74000 1.348
65.76000 2.472
65.78000 -1.563
65.80000 -2.358
65.82000 -1.532
65.84000 -0.016
65.86000 -0.633
65.88000 0.318
65.90000 -0.678
65.92000 0.504
65.94000 -1.077
65.96000 -1.133
65.98000 -1.695
66.00000 1.594
66.02000 5.114
66.04000 0.864
66.06000 -0.645
66.08000 0.851
66.10000 -0.005
66.12000 -0.119
66.14000 -0.379
66.16000 0.399
66.18000 -1.025
66.20000 1.336
66.22000 0.696
66.24000 3.648
66.26000 2.152
66.28000 -0.786
66.30000 4.240
66.32000 2.730
66.34000 1.460
66.36000 -0.522
66.38000 0.297
66.40000 1.279
66.42000 -0.947
66.44000 -0.957
66.46000 1.055
66.48000 -0.266
66.50000 0.329
66.52000 -0.876
66.54000 -1.872
66.56000 4.047
66.58000 2.256
66.60000 0.890
66.62000 1.874
66.64000 1.516
66.66000 0.715
66.68000 -0.235
66.70000 2.648
66.72000 3.603
66.74000 1.133
66.76000 0.554
66.78000 4.741
66.80000 4.819
66.82000 4.085
66.84000 3.837
66.86000 5.455
66.88000 4.375
66.90000 5.482
66.92000 4.096
66.94000 3.604
66.96000 9.091
66.98000 5.572
67.00000 5.231
67.02000 6.418
67.04000 9.341
67.06000 8.750
67.08000 10.440
67.10000 8.292
67.12000 9.947
67.14000 8.220
67.16000 9.959
67.18000 13.481
67.20000 12.965
67.22000 14.971
67.24000 14.925
67.26000 14.391
67.28000 14.895
67.30000 12.108
67.32000 14.695
67.34000 16.122
67.36000 15.501
67.38000 16.408
67.40000 13.971
67.42000 13.474
67.44000 12.174
67.46000 12.148
67.48000 13.316
67.50000 16.440
67.52000 13.596
67.54000 12.757
67.56000 15.448
67.58000 17.241
67.60000 16.828
67.62000 18.018
67.64000 17.950
67.66000 16.505
67.68000 19.305
67.70000 17.909
67.72000 12.844
67.74000 14.696
67.76000 17.046
67.78000 17.022
67.80000 14.513
67.82000 16.539
67.84000 15.663
67.86000 19.016
67.88000 16.152
67.90000 14.898
67.92000 14.620
67.94000 12.972
67.96000 13.287
67.98000 15.077
68.00000 15.825
68.02000 12.352
68.04000 12.929
68.06000 12.959
68.08000 12.966
68.10000 12.067
68.12000 10.289
68.14000 7.469
68.16000 8.540
68.18000 10.628
68.20000 8.922
68.22000 9.412
68.24000 8.199
68.26000 7.155
68.28000 7.786
68.30000 7.094
68.32000 7.295
68.34000 7.463
68.36000 5.301
68.38000 4.001
68.40000 4.207
68.42000 3.917
68.44000 3.579
68.46000 3.863
68.48000 4.120
68.50000 8.215
68.52000 8.387
68.54000 4.103
68.56000 1.899
68.58000 0.784
68.60000 3.780
68.62000 2.731
68.64000 2.242
68.66000 0.282
68.68000 1.682
68.70000 3.231
68.72000 1.448
68.74000 3.202
68.76000 3.809
68.78000 3.077
68.80000 2.683
68.82000 3.224
68.84000 6.794
68.86000 3.305
68.88000 4.102
68.90000 5.339
68.92000 5.170
68.94000 6.660
68.96000 2.549
68.98000 2.292
69.00000 -0.622
69.02000 -2.313
69.04000 1.784
69.06000 1.998
69.08000 3.806
69.10000 4.055
69.12000 5.953
69.14000 4.196
69.16000 4.099
69.18000 5.504
69.20000 7.004
69.22000 5.052
69.24000 1.599
69.26000 0.729
69.28000 0.333
69.30000 1.865
69.32000 4.253
69.34000 4.796
69.36000 3.547
69.38000 2.536
69.40000 2.494
69.42000 0.843
69.44000 -1.010
69.46000 0.729
69.48000 1.436
69.50000 1.621
69.52000 0.765
69.54000 4.054
69.56000 2.595
69.58000 2.433
69.60000 -0.939
69.62000 -0.603
69.64000 0.832
69.66000 3.314
69.68000 -0.045
69.70000 0.742
69.72000 1.954
69.74000 3.235
69.76000 0.987
69.78000 1.573
69.80000 -2.106
69.82000 -0.268
69.84000 1.935
69.86000 3.817
69.88000 -0.169
69.90000 -2.253
69.92000 -0.706
69.94000 -1.629
69.96000 0.410
69.98000 2.331
70.00000 2.231
70.02000 0.376
70.04000 1.009
70.06000 1.240
70.08000 1.295
70.10000 1.580
70.12000 1.593
70.14000 1.703
70.16000 0.364
70.18000 2.396
70.20000 2.327
70.22000 1.362
70.24000 3.679
70.26000 2.411
70.28000 1.753
70.30000 3.366
70.32000 3.187
70.34000 3.634
70.36000 0.433
70.38000 -1.070
70.40000 -0.304
70.42000 4.113
70.44000 0.418
70.46000 -2.241
70.48000 -0.274
70.50000 3.008
70.52000 4.334
70.54000 3.883
70.56000 4.172
70.58000 3.389
70.60000 -1.799
70.62000 -0.237
70.64000 1.168
70.66000 6.380
70.68000 6.185
70.70000 3.677
70.72000 2.159
70.74000 1.901
70.76000 1.434
70.78000 -1.110
70.80000 -0.830
70.82000 2.228
70.84000 1.431
70.86000 1.423
70.88000 3.337
70.90000 1.486
70.92000 2.159
70.94000 2.363
70.96000 2.730
70.98000 -0.157
71.00000 -0.908
71.02000 -0.474
71.04000 1.859
71.06000 3.554
71.08000 3.972
71.10000 0.904
71.12000 2.798
71.14000 1.111
71.16000 -1.359
71.18000 -1.962
71.20000 1.605
71.22000 -1.314
71.24000 3.445
71.26000 4.878
71.28000 1.899
71.30000 -0.781
71.32000 1.146
71.34000 3.754
71.36000 2.957
71.38000 3.654
71.40000 0.663
71.42000 -1.273
71.44000 0.020
71.46000 0.556
71.48000 -0.552
71.50000 1.452
71.52000 1.111
71.54000 2.622
71.56000 3.987
71.58000 3.457
71.60000 5.024
71.62000 5.789
71.64000 2.561
71.66000 0.782
71.68000 0.525
71.70000 0.456
71.72000 -1.572
71.74000 -2.223
71.76000 -1.463
71.78000 1.113
71.80000 1.554
71.82000 0.586
71.84000 1.601
71.86000 2.868
71.88000 0.264
71.90000 -1.125
71.92000 2.277
71.94000 4.563
71.96000 4.098
71.98000 5.213
72.00000 4.323
72.02000 3.039
72.04000 -0.422
72.06000 -0.348
72.08000 -0.061
72.10000 -0.964
72.12000 3.056
72.14000 3.771
72.16000 1.941
72.18000 2.380
72.20000 4.086
72.22000 3.091
72.24000 -1.724
72.26000 2.219
72.28000 3.560
72.30000 1.881
72.32000 0.158
72.34000 1.791
72.36000 3.565
72.38000 6.385
72.40000 4.439
72.42000 4.264
72.44000 3.322
72.46000 4.652
72.48000 -1.109
72.50000 -2.186
72.52000 1.605
72.54000 2.500
72.56000 3.371
72.58000 0.812
72.60000 0.495
72.62000 4.953
72.64000 2.081
72.66000 -0.633
72.68000 2.538
72.70000 -1.163
72.72000 -0.749
72.74000 1.189
72.76000 3.816
72.78000 3.181
72.80000 4.417
72.82000 4.523
72.84000 0.742
72.86000 3.167
72.88000 5.300
72.90000 4.158
72.92000 2.618
72.94000 -0.316
72.96000 0.092
72.98000 2.021
73.00000 4.099
73.02000 1.346
73.04000 5.810
73.06000 2.091
73.08000 0.891
73.10000 1.153
73.12000 4.152
73.14000 1.492
73.16000 0.018
73.18000 -1.597
73.20000 2.005
73.22000 -0.439
73.24000 -0.626
73.26000 0.618
73.28000 6.826
73.30000 4.943
73.32000 3.190
73.34000 3.297
73.36000 2.818
73.38000 3.290
73.40000 1.403
73.42000 0.180
73.44000 0.520
73.46000 2.487
73.48000 2.149
73.50000 0.954
73.52000 -0.517
73.54000 1.632
73.56000 1.872
73.58000 1.955
73.60000 -0.810
73.62000 2.606
73.64000 1.500
73.66000 -0.520
73.68000 -1.301
73.70000 -0.493
73.72000 0.179
73.74000 -0.766
73.76000 -1.562
73.78000 -1.419
73.80000 0.262
73.82000 -0.435
73.84000 -1.637
73.86000 -2.172
73.88000 -1.984
73.90000 2.798
73.92000 4.043
73.94000 1.071
73.96000 -0.154
73.98000 1.227
74.00000 0.369
74.02000 0.627
74.04000 1.061
74.06000 3.256
74.08000 1.456
74.10000 1.526
74.12000 1.693
74.14000 -1.322
74.16000 0.325
74.18000 -0.284
74.20000 -0.597
74.22000 -1.430
74.24000 -1.918
74.26000 -1.023
74.28000 2.571
74.30000 3.574
74.32000 3.716
74.34000 3.764
74.36000 2.291
74.38000 1.655
74.40000 3.837
74.42000 3.782
74.44000 1.934
74.46000 3.097
74.48000 1.428
74.50000 -2.183
74.52000 1.156
74.54000 -0.449
74.56000 3.061
74.58000 2.323
74.60000 -0.427
74.62000 3.583
74.64000 2.432
74.66000 -1.004
74.68000 0.955
74.70000 0.002
74.72000 2.739
74.74000 -0.454
74.76000 0.478
74.78000 0.838
74.80000 1.739
74.82000 3.128
74.84000 5.123
74.86000 2.333
74.88000 1.346
74.90000 -0.849
74.92000 1.995
74.94000 0.675
74.96000 -1.620
74.98000 0.948
75.00000 0.933
75.02000 0.998
75.04000 2.263
75.06000 6.708
75.08000 2.827
75.10000 -0.043
75.12000 -2.059
75.14000 -2.185
75.16000 -0.464
75.18000 2.400
75.20000 4.972
75.22000 4.467
75.24000 2.496
75.26000 4.218
75.28000 2.334
75.30000 3.700
75.32000 -0.251
75.34000 -2.184
75.36000 2.373
75.38000 2.265
75.40000 -1.892
75.42000 -0.636
75.44000 0.449
75.46000 2.528
75.48000 1.993
75.50000 0.398
75.52000 1.006
75.54000 0.259
75.56000 1.735
75.58000 6.594
75.60000 7.226
75.62000 3.457
75.64000 2.918
75.66000 4.121
75.68000 0.164
75.70000 1.862
75.72000 2.747
75.74000 5.059
75.76000 2.746
75.78000 2.205
75.80000 3.784
75.82000 1.776
75.84000 -1.796
75.86000 -2.191
75.88000 -1.104
75.90000 1.848
75.92000 2.758
75.94000 1.719
75.96000 0.616
75.98000 0.262
76.00000 0.967
76.02000 0.711
76.04000 3.859
76.06000 3.352
76.08000 3.760
76.10000 4.636
76.12000 2.386
76.14000 1.555
76.16000 0.941
76.18000 4.703
76.20000 2.264
76.22000 0.966
76.24000 1.787
76.26000 1.936
76.28000 1.417
76.30000 -0.362
76.32000 1.971
76.34000 0.481
76.36000 0.276
76.38000 1.679
76.40000 -0.268
76.42000 -1.529
76.44000 2.259
76.46000 4.034
76.48000 0.743
76.50000 -0.375
76.52000 -2.025
76.54000 2.391
76.56000 4.414
76.58000 1.975
76.60000 2.514
76.62000 1.638
76.64000 0.971
76.66000 4.711
76.68000 2.368
76.70000 -1.467
76.72000 -2.226
76.74000 1.678
76.76000 2.256
76.78000 1.402
76.80000 1.506
76.82000 -0.918
76.84000 0.424
76.86000 1.100
76.88000 1.525
76.90000 4.416
76.92000 1.761
76.94000 1.580
76.96000 -1.876
76.98000 -1.229
77.00000 1.267
77.02000 2.723
77.04000 4.278
77.06000 1.479
77.08000 -2.230
77.10000 1.031
77.12000 0.689
77.14000 1.766
77.16000 2.809
77.18000 3.283
77.20000 2.847
77.22000 1.873
77.24000 5.267
77.26000 5.399
77.28000 4.218
77.30000 4.120
77.32000 0.696
77.34000 -2.172
77.36000 -2.227
77.38000 -0.534
77.40000 2.297
77.42000 1.942
77.44000 2.672
77.46000 0.973
77.48000 -0.218
77.50000 3.127
77.52000 2.093
77.54000 2.168
77.56000 2.613
77.58000 -0.197
77.60000 0.305
77.62000 -2.235
77.64000 2.237
77.66000 4.690
77.68000 3.693
77.70000 4.840
77.72000 2.193
77.74000 0.038
77.76000 0.114
77.78000 -0.568
77.80000 -0.430
77.82000 -2.240
77.84000 2.093
77.86000 3.714
77.88000 2.989
77.90000 -0.442
77.92000 -1.504
77.94000 0.281
77.96000 -2.102
77.98000 -0.255
78.00000 1.994
78.02000 0.403
78.04000 1.394
78.06000 1.377
78.08000 2.545
78.10000 5.348
78.12000 0.275
78.14000 -0.822
78.16000 0.647
78.18000 2.759
78.20000 4.106
78.22000 0.729
78.24000 0.723
78.26000 3.710
78.28000 2.215
78.30000 -1.195
78.32000 1.267
78.34000 0.368
78.36000 -2.250
78.38000 1.013
78.40000 1.374
78.42000 -0.001
78.44000 2.488
78.46000 1.380
78.48000 -1.777
78.50000 1.359
78.52000 2.897
78.54000 1.496
78.56000 0.220
78.58000 0.042
78.60000 0.603
78.62000 0.494
78.64000 -0.043
78.66000 0.771
78.68000 2.851
78.70000 0.883
78.72000 2.942
78.74000 2.278
78.76000 0.945
78.78000 1.670
78.80000 -0.659
78.82000 -0.830
78.84000 2.399
78.86000 0.142
78.88000 -1.044
78.90000 -0.381
78.92000 -0.118
78.94000 3.711
78.96000 2.606
78.98000 1.705
79.00000 -1.133
79.02000 0.265
79.04000 0.902
79.06000 0.792
79.08000 1.339
79.10000 2.133
79.12000 0.275
79.14000 -1.647
79.16000 1.565
79.18000 2.458
79.20000 4.381
79.22000 5.316
79.24000 2.203
79.26000 1.114
79.28000 -0.131
79.30000 -0.331
79.32000 -0.112
79.34000 1.759
79.36000 7.961
79.38000 2.415
79.40000 -0.071
79.42000 1.497
79.44000 -0.349
79.46000 -1.848
79.48000 0.533
79.50000 4.798
79.52000 5.050
79.54000 2.477
79.56000 1.848
79.58000 2.679
79.60000 -2.310
79.62000 0.396
79.64000 3.969
79.66000 5.946
79.68000 4.011
79.70000 -0.149
79.72000 -0.907
79.74000 2.355
79.76000 7.635
79.78000 3.671
79.80000 -0.645
79.82000 -0.201
79.84000 3.789
79.86000 4.626
79.88000 1.445
79.90000 1.595
79.92000 2.236
79.94000 1.894
79.96000 3.729
79.98000 1.851
80.00000 2.247
80.02000 1.072
80.04000 2.600
80.06000 1.757
80.08000 2.588
80.10000 3.086
80.12000 4.692
80.14000 -0.266
80.16000 -0.349
80.18000 3.568
80.20000 5.080
80.22000 1.301
80.24000 4.829
80.26000 5.052
80.28000 1.558
80.30000 0.016
80.32000 2.327
80.34000 6.689
80.36000 6.271
80.38000 9.323
80.40000 7.477
80.42000 3.774
80.44000 0.889
80.46000 7.251
80.48000 5.219
80.50000 4.222
80.52000 0.329
80.54000 2.792
80.56000 5.492
80.58000 4.441
80.60000 5.859
80.62000 9.344
80.64000 6.773
80.66000 6.987
80.68000 5.189
80.70000 6.832
80.72000 6.918
80.74000 7.287
80.76000 8.382
80.78000 7.774
80.80000 8.733
80.82000 12.097
80.84000 11.273
80.86000 6.979
80.88000 7.452
80.90000 11.372
80.92000 9.295
80.94000 13.309
80.96000 11.601
80.98000 9.009
81.00000 9.421
81.02000 14.838
81.04000 18.578
81.06000 18.427
81.08000 15.704
81.10000 22.237
81.12000 18.809
81.14000 13.095
81.16000 15.228
81.18000 18.323
81.20000 16.860
81.22000 15.058
81.24000 17.684
81.26000 21.255
81.28000 19.444
81.30000 17.780
81.32000 19.282
81.34000 23.236
81.36000 18.976
81.38000 18.329
81.40000 24.931
81.42000 24.455
81.44000 24.231
81.46000 25.645
81.48000 22.066
81.50000 21.144
81.52000 27.388
81.54000 26.195
81.56000 26.641
81.58000 30.106
81.60000 27.237
81.62000 21.399
81.64000 23.395
81.66000 27.843
81.68000 23.199
81.70000 24.906
81.72000 24.016
81.74000 22.934
81.76000 23.541
81.78000 18.874
81.80000 17.450
81.82000 21.798
81.84000 23.112
81.86000 18.522
81.88000 22.275
81.90000 23.815
81.92000 22.113
81.94000 21.818
81.96000 18.097
81.98000 20.946
82.00000 20.879
82.02000 21.684
82.04000 20.990
82.06000 18.686
82.08000 14.583
82.10000 16.087
82.12000 18.141
82.14000 25.498
82.16000 20.499
82.18000 13.401
82.20000 15.911
82.22000 16.718
82.24000 18.311
82.26000 15.781
82.28000 16.763
82.30000 16.744
82.32000 12.012
82.34000 11.956
82.36000 12.699
82.38000 14.168
82.40000 11.780
82.42000 9.147
82.44000 11.308
82.46000 8.627
82.48000 8.397
82.50000 7.358
82.52000 6.973
82.54000 7.883
82.56000 6.835
82.58000 9.380
82.60000 12.086
82.62000 13.933
82.64000 13.734
82.66000 8.179
82.68000 3.639
82.70000 5.975
82.72000 10.189
82.74000 6.562
82.76000 2.386
82.78000 7.030
82.80000 5.749
82.82000 2.069
82.84000 5.839
82.86000 4.569
82.88000 5.438
82.90000 4.340
82.92000 4.710
82.94000 3.476
82.96000 2.279
82.98000 4.141
83.00000 6.468
83.02000 5.496
83.04000 2.877
83.06000 2.263
83.08000 1.060
83.10000 2.246
83.12000 3.323
83.14000 7.057
83.16000 5.436
83.18000 2.188
83.20000 3.123
83.22000 5.315
83.24000 3.554
83.26000 -2.341
83.28000 -1.437
83.30000 -0.288
83.32000 3.817
83.34000 5.003
83.36000 5.057
83.38000 3.827
83.40000 -0.662
83.42000 2.858
83.44000 5.126
83.46000 4.808
83.48000 6.912
83.50000 7.581
83.52000 3.121
83.54000 -2.310
83.56000 1.355
83.58000 4.773
83.60000 4.288
83.62000 5.188
83.64000 7.134
83.66000 5.741
83.68000 5.167
83.70000 4.703
83.72000 4.994
83.74000 3.881
83.76000 4.554
83.78000 4.405
83.80000 4.603
83.82000 3.516
83.84000 2.946
83.86000 2.021
83.88000 2.874
83.90000 1.973
83.92000 8.050
83.94000 4.159
83.96000 1.812
83.98000 3.164
84.00000 -0.400
84.02000 0.594
84.04000 3.660
84.06000 5.499
84.08000 3.716
84.10000 4.890
84.12000 2.168
84.14000 -2.350
84.16000 -2.035
84.18000 -1.367
84.20000 0.502
84.22000 3.360
84.24000 4.970
84.26000 2.281
84.28000 -0.577
84.30000 1.613
84.32000 1.927
84.34000 2.138
84.36000 2.254
84.38000 0.326
84.40000 1.345
84.42000 5.269
84.44000 6.885
84.46000 -1.289
84.48000 -1.251
84.50000 4.920
84.52000 3.633
84.54000 3.995
84.56000 2.528
84.58000 2.040
84.60000 1.486
84.62000 2.664
84.64000 2.262
84.66000 2.874
84.68000 2.129
84.70000 5.377
84.72000 7.143
84.74000 6.481
84.76000 5.962
84.78000 3.493
84.80000 4.118
84.82000 5.462
84.84000 8.944
84.86000 9.840
84.88000 7.675
84.90000 6.475
84.92000 4.032
84.94000 2.451
84.96000 3.375
84.98000 12.386
85.00000 8.474
85.02000 9.970
85.04000 9.547
85.06000 4.289
85.08000 6.613
85.10000 8.481
85.12000 9.410
85.14000 8.478
85.16000 11.269
85.18000 10.459
85.20000 10.675
85.22000 12.171
85.24000 14.491
85.26000 15.560
85.28000 14.617
85.30000 15.472
85.32000 19.916
85.34000 22.587
85.36000 17.818
85.38000 17.082
85.40000 19.201
85.42000 23.354
85.44000 19.274
85.46000 15.953
85.48000 15.063
85.50000 13.758
85.52000 18.611
85.54000 20.970
85.56000 21.320
85.58000 17.304
85.60000 17.512
85.62000 17.561
85.64000 18.345
85.66000 18.154
85.68000 20.555
85.70000 22.880
85.72000 24.839
85.74000 22.629
85.76000 21.330
85.78000 18.952
85.80000 18.488
85.82000 21.218
85.84000 22.136
85.86000 18.363
85.88000 20.281
85.90000 19.126
85.92000 15.212
85.94000 21.783
85.96000 22.806
85.98000 21.872
86.00000 22.766
86.02000 23.289
86.04000 18.605
86.06000 18.841
86.08000 21.524
86.10000 17.585
86.12000 16.373
86.14000 14.837
86.16000 12.416
86.18000 14.730
86.20000 15.082
86.22000 12.385
86.24000 13.792
86.26000 13.061
86.28000 12.632
86.30000 14.000
86.32000 15.297
86.34000 11.585
86.36000 12.462
86.38000 11.601
86.40000 10.536
86.42000 8.951
86.44000 13.332
86.46000 11.520
86.48000 10.682
86.50000 6.697
86.52000 4.678
86.54000 1.223
86.56000 4.977
86.58000 6.475
86.60000 5.067
86.62000 5.788
86.64000 7.395
86.66000 7.919
86.68000 6.585
86.70000 6.940
86.72000 5.730
86.74000 6.810
86.76000 3.171
86.78000 5.324
86.80000 2.036
86.82000 4.674
86.84000 5.957
86.86000 2.635
86.88000 -1.785
86.90000 0.411
86.92000 2.124
86.94000 6.625
86.96000 7.246
86.98000 1.949
87.00000 0.781
87.02000 0.513
87.04000 2.427
87.06000 1.356
87.08000 -1.381
87.10000 0.416
87.12000 -0.915
87.14000 0.965
87.16000 3.361
87.18000 3.207
87.20000 3.988
87.22000 1.383
87.24000 -0.539
87.26000 1.183
87.28000 1.375
87.30000 3.663
87.32000 0.998
87.34000 -0.270
87.36000 0.632
87.38000 1.454
87.40000 0.026
87.42000 2.086
87.44000 -1.348
87.46000 -0.985
87.48000 -1.095
87.50000 -1.030
87.52000 2.037
87.54000 3.014
87.56000 3.381
87.58000 1.645
87.60000 -1.610
87.62000 -1.064
87.64000 -2.109
87.66000 -0.716
87.68000 2.427
87.70000 8.179
87.72000 5.705
87.74000 5.788
87.76000 3.791
87.78000 0.015
87.80000 1.563
87.82000 1.169
87.84000 -2.088
87.86000 4.099
87.88000 3.580
87.90000 4.015
87.92000 6.470
87.94000 6.773
87.96000 3.632
87.98000 4.266
88.00000 5.394
88.02000 1.145
88.04000 1.634
88.06000 2.399
88.08000 -0.322
88.10000 1.466
88.12000 3.633
88.14000 -1.026
88.16000 -2.066
88.18000 -0.094
88.20000 1.100
88.22000 0.889
88.24000 1.027
88.26000 -0.042
88.28000 4.062
88.30000 1.361
88.32000 0.866
88.34000 -0.829
88.36000 -0.758
88.38000 -0.684
88.40000 1.700
88.42000 0.271
88.44000 1.143
88.46000 0.859
88.48000 1.366
88.50000 3.442
88.52000 2.371
88.54000 0.383
88.56000 1.140
88.58000 1.711
88.60000 -1.926
88.62000 2.991
88.64000 1.723
88.66000 2.481
88.68000 3.874
88.70000 4.725
88.72000 5.236
88.74000 3.202
88.76000 2.446
88.78000 1.298
88.80000 1.019
88.82000 -0.388
88.84000 2.498
88.86000 1.644
88.88000 2.336
88.90000 -1.694
88.92000 0.149
88.94000 -1.501
88.96000 4.088
88.98000 6.725
89.00000 6.191
89.02000 1.179
89.04000 1.463
89.06000 1.500
89.08000 -0.283
89.10000 2.288
89.12000 -0.090
89.14000 -0.389
89.16000 -1.405
89.18000 -0.547
89.20000 -0.888
89.22000 1.694
89.24000 -1.492
89.26000 0.226
89.28000 -1.424
89.30000 -2.042
89.32000 0.064
89.34000 1.823
89.36000 5.118
89.38000 2.695
89.40000 3.811
89.42000 3.092
89.44000 2.447
89.46000 2.704
89.48000 0.907
89.50000 1.957
89.52000 1.496
89.54000 4.141
89.56000 3.892
89.58000 2.430
89.60000 -2.032
89.62000 -1.077
89.64000 -2.033
89.66000 0.027
89.68000 2.622
89.70000 2.921
89.72000 2.688
89.74000 1.566
89.76000 2.721
89.78000 5.304
89.80000 2.100
89.82000 -1.302
89.84000 -1.518
89.86000 3.267
89.88000 4.651
89.90000 1.062
89.92000 0.757
89.94000 1.085
89.96000 1.306
89.98000 2.484
90.00000 3.677
90.02000 4.045
90.04000 3.738
90.06000 3.125
90.08000 2.245
90.10000 1.141
90.12000 3.146
90.14000 1.068
90.16000 2.556
90.18000 4.224
90.20000 4.638
90.22000 4.478
90.24000 1.600
90.26000 0.942
90.28000 1.102
90.30000 -2.010
90.32000 -2.047
90.34000 -1.288
90.36000 1.290
90.38000 2.326
90.40000 4.302
90.42000 7.044
90.44000 2.364
90.46000 0.211
90.48000 1.643
90.50000 2.237
90.52000 3.675
90.54000 1.499
90.56000 -0.931
90.58000 1.437
90.60000 5.919
90.62000 5.684
90.64000 0.589
90.66000 2.181
90.68000 3.273
90.70000 4.711
90.72000 -1.549
90.74000 -2.037
90.76000 2.086
90.78000 2.917
90.80000 5.287
90.82000 4.039
90.84000 3.945
90.86000 3.134
90.88000 0.298
90.90000 -1.083
90.92000 1.112
90.94000 0.193
90.96000 -1.954
90.98000 2.568
91.00000 5.683
91.02000 -0.163
91.04000 1.527
91.06000 5.890
91.08000 4.233
91.10000 0.914
91.12000 -0.917
91.14000 1.786
91.16000 7.254
91.18000 6.082
91.20000 5.453
91.22000 5.567
91.24000 2.418
91.26000 2.201
91.28000 0.565
91.30000 -0.253
91.32000 0.597
91.34000 -1.262
91.36000 -0.557
91.38000 3.130
91.40000 2.003
91.42000 7.300
91.44000 2.595
91.46000 -0.905
91.48000 0.937
91.50000 3.249
91.52000 0.453
91.54000 1.704
91.56000 1.598
91.58000 2.892
91.60000 0.460
91.62000 0.603
91.64000 0.448
91.66000 6.028
91.68000 2.103
91.70000 -0.478
91.72000 3.389
91.74000 5.126
91.76000 2.167
91.78000 -0.572
91.80000 -2.041
91.82000 3.093
91.84000 1.978
91.86000 0.150
91.88000 3.034
91.90000 4.307
91.92000 3.318
91.94000 -1.605
91.96000 2.126
91.98000 2.331
92.00000 5.766
92.02000 5.215
92.04000 3.293
92.06000 4.847
92.08000 5.496
92.10000 3.841
92.12000 0.236
92.14000 -0.222
92.16000 2.704
92.18000 2.294
92.20000 5.885
92.22000 4.631
92.24000 2.731
92.26000 1.689
92.28000 0.544
92.30000 2.481
92.32000 0.483
92.34000 4.490
92.36000 3.762
92.38000 4.943
92.40000 2.215
92.42000 3.196
92.44000 -2.058
92.46000 3.326
92.48000 2.019
92.50000 0.805
92.52000 2.779
92.54000 2.799
92.56000 1.400
92.58000 1.470
92.60000 4.509
92.62000 2.960
92.64000 3.499
92.66000 3.037
92.68000 3.830
92.70000 0.606
92.72000 4.248
92.74000 7.796
92.76000 6.397
92.78000 1.203
92.80000 2.609
92.82000 2.763
92.84000 3.525
92.86000 -0.221
92.88000 3.802
92.90000 3.490
92.92000 1.751
92.94000 -2.028
92.96000 1.018
92.98000 1.820
93.00000 1.847
93.02000 4.964
93.04000 3.354
93.06000 5.816
93.08000 5.572
93.10000 8.438
93.12000 4.219
93.14000 1.864
93.16000 4.717
93.18000 4.522
93.20000 0.967
93.22000 -0.686
93.24000 1.502
93.26000 -2.060
93.28000 -0.780
93.30000 1.498
93.32000 0.432
93.34000 1.496
93.36000 2.597
93.38000 5.563
93.40000 6.196
93.42000 3.156
93.44000 3.411
93.46000 2.630
93.48000 -1.856
93.50000 0.928
93.52000 5.380
93.54000 5.393
93.56000 4.230
93.58000 -1.006
93.60000 -0.883
93.62000 -1.050
93.64000 4.367
93.66000 4.408
93.68000 6.172
93.70000 2.186
93.72000 2.438
93.74000 2.950
93.76000 0.756
93.78000 2.386
93.80000 0.247
93.82000 1.656
93.84000 1.122
93.86000 3.989
93.88000 2.542
93.90000 -0.557
93.92000 0.877
93.94000 3.923
93.96000 9.209
93.98000 6.946
94.00000 5.503
94.02000 3.633
94.04000 6.088
94.06000 5.103
94.08000 3.075
94.10000 0.576
94.12000 2.314
94.14000 4.406
94.16000 2.283
94.18000 2.404
94.20000 4.337
94.22000 5.593
94.24000 8.873
94.26000 8.987
94.28000 5.398
94.30000 5.298
94.32000 5.101
94.34000 4.385
94.36000 3.785
94.38000 1.501
94.40000 5.130
94.42000 7.321
94.44000 4.627
94.46000 4.877
94.48000 4.880
94.50000 5.464
94.52000 7.455
94.54000 6.864
94.56000 6.955
94.58000 6.956
94.60000 5.458
94.62000 -2.436
94.64000 4.763
94.66000 8.087
94.68000 4.689
94.70000 5.449
94.72000 4.015
94.74000 5.312
94.76000 8.650
94.78000 5.381
94.80000 5.092
94.82000 4.422
94.84000 5.870
94.86000 11.977
94.88000 8.500
94.90000 7.803
94.92000 7.564
94.94000 5.627
94.96000 3.048
94.98000 1.446
95.00000 1.887
95.02000 1.989
95.04000 4.309
95.06000 4.948
95.08000 2.265
95.10000 5.710
95.12000 5.907
95.14000 1.518
95.16000 0.835
95.18000 4.940
95.20000 2.491
95.22000 0.787
95.24000 4.284
95.26000 2.001
95.28000 3.102
95.30000 4.266
95.32000 6.557
95.34000 5.507
95.36000 9.097
95.38000 7.395
95.40000 2.013
95.42000 4.887
95.44000 10.446
95.46000 8.740
95.48000 2.337
95.50000 1.296
95.52000 3.341
95.54000 4.076
95.56000 0.070
95.58000 1.229
95.60000 3.392
95.62000 6.239
95.64000 7.581
95.66000 8.290
95.68000 3.721
95.70000 3.983
95.72000 3.076
95.74000 5.775
95.76000 0.222
95.78000 -1.404
95.80000 0.302
95.82000 4.488
95.84000 5.771
95.86000 5.206
95.88000 3.808
95.90000 4.855
95.92000 3.776
95.94000 4.589
95.96000 2.545
95.98000 2.281
96.00000 -0.938
96.02000 3.192
96.04000 6.474
96.06000 5.283
96.08000 2.004
96.10000 8.590
96.12000 7.509
96.14000 9.602
96.16000 5.498
96.18000 2.274
96.20000 -2.055
96.22000 -0.490
96.24000 4.254
96.26000 6.332
96.28000 4.213
96.30000 4.500
96.32000 3.509
96.34000 6.917
96.36000 2.089
96.38000 5.891
96.40000 7.474
96.42000 5.260
96.44000 7.350
96.46000 4.754
96.48000 6.713
96.50000 5.293
96.52000 3.598
96.54000 7.034
96.56000 7.370
96.58000 5.178
96.60000 -1.212
96.62000 2.117
96.64000 1.185
96.66000 2.824
96.68000 5.911
96.70000 7.598
96.72000 1.414
96.74000 3.328
96.76000 4.931
96.78000 4.156
96.80000 3.757
96.82000 3.214
96.84000 3.518
96.86000 7.005
96.88000 8.159
96.90000 8.364
96.92000 8.977
96.94000 9.318
96.96000 4.538
96.98000 3.047
97.00000 4.982
97.02000 5.032
97.04000 5.588
97.06000 1.507
97.08000 3.633
97.10000 7.061
97.12000 8.516
97.14000 10.318
97.16000 6.101
97.18000 3.314
97.20000 4.394
97.22000 8.260
97.24000 9.414
97.26000 6.657
97.28000 6.666
97.30000 3.396
97.32000 5.904
97.34000 2.350
97.36000 7.597
97.38000 10.987
97.40000 8.335
97.42000 3.878
97.44000 7.430
97.46000 5.080
97.48000 -1.974
97.50000 3.455
97.52000 7.277
97.54000 13.219
97.56000 11.841
97.58000 3.734
97.60000 6.219
97.62000 8.730
97.64000 12.513
97.66000 7.217
97.68000 5.821
97.70000 9.232
97.72000 9.878
97.74000 4.999
97.76000 4.625
97.78000 7.578
97.80000 6.535
97.82000 2.494
97.84000 1.189
97.86000 4.846
97.88000 5.608
97.90000 1.324
97.92000 0.111
97.94000 -0.273
97.96000 1.642
97.98000 3.254
98.00000 3.758
98.02000 6.224
98.04000 11.096
98.06000 8.237
98.08000 4.558
98.10000 3.571
98.12000 7.997
98.14000 4.782
98.16000 2.399
98.18000 0.141
98.20000 0.072
98.22000 6.495
98.24000 4.904
98.26000 4.243
98.28000 6.198
98.30000 0.006
98.32000 1.588
98.34000 9.829
98.36000 5.420
98.38000 1.858
98.40000 -1.817
98.42000 10.176
98.44000 5.669
98.46000 2.416
98.48000 -2.035
98.50000 3.541
98.52000 1.489
98.54000 2.361
98.56000 5.881
98.58000 7.185
98.60000 9.711
98.62000 2.479
98.64000 4.656
98.66000 7.137
98.68000 5.724
98.70000 1.847
98.72000 4.105
98.74000 1.854
98.76000 2.804
98.78000 5.268
98.80000 5.633
98.82000 6.635
98.84000 1.711
98.86000 5.390
98.88000 6.613
98.90000 0.644
98.92000 2.996
98.94000 5.220
98.96000 14.111
98.98000 13.003
99.00000 2.306
99.02000 -0.758
99.04000 3.225
99.06000 2.926
99.08000 4.373
99.10000 6.824
99.12000 1.185
99.14000 4.410
99.16000 -0.137
99.18000 0.406
99.20000 0.818
99.22000 3.367
99.24000 -1.268
99.26000 -2.022
99.28000 6.835
99.30000 8.780
99.32000 8.551
99.34000 16.077
99.36000 13.361
99.38000 9.811
99.40000 3.080
99.42000 5.880
99.44000 1.668
99.46000 2.166
99.48000 -1.297
99.50000 -2.008
99.52000 -0.589
99.54000 3.302
99.56000 4.466
99.58000 4.525
99.60000 2.256
99.62000 10.397
99.64000 6.964
99.66000 8.294
99.68000 8.676
99.70000 3.259
99.72000 9.127
99.74000 6.741
99.76000 5.710
99.78000 3.594
99.80000 4.476
99.82000 -0.319
99.84000 -2.099
99.86000 1.541
99.88000 4.678
99.90000 8.987
99.92000 4.125
99.94000 -2.233
99.96000 5.152
99.98000 0.000
