'Id: "0011389" Comment: "Integrate frame 0011389_Au-Ir-Rh_Au-Rich_XRD_Mapping-314-0000.gfrmwith cursor Wedge Cursor #5" Operator: "B?rgel" Anode: "Cu" Wavelength: "1.5406" Scantype: "2Theta (TwoTheta)" TimePerStep: "1" X: "-13.5" Y: "36" Z: "5.95" 
10.00000 0.000
10.02000 0.059
10.04000 20.746
10.06000 17.508
10.08000 -0.270
10.10000 2.609
10.12000 20.738
10.14000 36.903
10.16000 11.616
10.18000 -4.427
10.20000 3.000
10.22000 14.416
10.24000 31.607
10.26000 33.210
10.28000 14.900
10.30000 8.445
10.32000 20.313
10.34000 11.617
10.36000 -2.610
10.38000 -1.087
10.40000 4.401
10.42000 27.083
10.44000 16.716
10.46000 25.810
10.48000 19.876
10.50000 24.133
10.52000 13.896
10.54000 0.458
10.56000 18.019
10.58000 31.472
10.60000 24.819
10.62000 30.002
10.64000 29.342
10.66000 20.640
10.68000 13.726
10.70000 16.325
10.72000 13.010
10.74000 25.621
10.76000 15.646
10.78000 12.485
10.80000 -2.032
10.82000 10.796
10.84000 14.892
10.86000 17.109
10.88000 11.619
10.90000 6.777
10.92000 2.509
10.94000 19.143
10.96000 16.009
10.98000 20.504
11.00000 11.240
11.02000 7.550
11.04000 16.584
11.06000 15.397
11.08000 24.645
11.10000 29.047
11.12000 27.368
11.14000 11.662
11.16000 -1.350
11.18000 4.998
11.20000 28.006
11.22000 19.169
11.24000 17.210
11.26000 26.973
11.28000 24.092
11.30000 12.698
11.32000 11.126
11.34000 28.810
11.36000 27.673
11.38000 17.890
11.40000 11.958
11.42000 3.366
11.44000 2.518
11.46000 9.637
11.48000 13.133
11.50000 -2.619
11.52000 5.402
11.54000 12.163
11.56000 13.611
11.58000 18.066
11.60000 21.609
11.62000 17.682
11.64000 20.447
11.66000 20.026
11.68000 18.573
11.70000 22.481
11.72000 17.861
11.74000 13.406
11.76000 9.956
11.78000 34.757
11.80000 21.764
11.82000 8.575
11.84000 6.795
11.86000 -3.737
11.88000 9.142
11.90000 20.503
11.92000 25.655
11.94000 27.022
11.96000 11.611
11.98000 -0.146
12.00000 -2.324
12.02000 9.253
12.04000 7.999
12.06000 5.477
12.08000 10.455
12.10000 15.830
12.12000 16.976
12.14000 18.299
12.16000 11.934
12.18000 4.786
12.20000 -4.528
12.22000 0.981
12.24000 9.930
12.26000 19.152
12.28000 6.450
12.30000 5.669
12.32000 3.020
12.34000 3.767
12.36000 6.785
12.38000 5.752
12.40000 9.025
12.42000 13.664
12.44000 20.847
12.46000 11.120
12.48000 2.633
12.50000 12.583
12.52000 19.365
12.54000 22.065
12.56000 8.177
12.58000 5.559
12.60000 15.626
12.62000 22.704
12.64000 23.813
12.66000 14.020
12.68000 4.988
12.70000 10.148
12.72000 17.884
12.74000 13.844
12.76000 14.340
12.78000 15.603
12.80000 20.923
12.82000 2.355
12.84000 10.713
12.86000 15.828
12.88000 20.738
12.90000 20.706
12.92000 13.187
12.94000 12.165
12.96000 5.806
12.98000 13.713
13.00000 19.013
13.02000 14.349
13.04000 16.928
13.06000 19.167
13.08000 7.435
13.10000 -0.332
13.12000 5.675
13.14000 10.946
13.16000 10.574
13.18000 6.983
13.20000 10.115
13.22000 13.873
13.24000 5.358
13.26000 9.313
13.28000 8.375
13.30000 16.422
13.32000 19.761
13.34000 19.676
13.36000 10.866
13.38000 9.013
13.40000 14.613
13.42000 14.764
13.44000 17.370
13.46000 24.472
13.48000 14.446
13.50000 8.788
13.52000 11.174
13.54000 23.484
13.56000 17.233
13.58000 21.031
13.60000 19.666
13.62000 21.257
13.64000 21.481
13.66000 12.973
13.68000 13.422
13.70000 13.602
13.72000 11.729
13.74000 16.550
13.76000 10.718
13.78000 6.328
13.80000 1.881
13.82000 14.690
13.84000 11.591
13.86000 3.941
13.88000 7.595
13.90000 13.351
13.92000 8.943
13.94000 10.166
13.96000 12.869
13.98000 12.347
14.00000 17.360
14.02000 11.033
14.04000 8.981
14.06000 5.205
14.08000 8.845
14.10000 3.699
14.12000 9.526
14.14000 17.386
14.16000 20.991
14.18000 10.583
14.20000 0.494
14.22000 0.917
14.24000 13.426
14.26000 17.787
14.28000 15.611
14.30000 2.138
14.32000 -4.513
14.34000 5.078
14.36000 18.249
14.38000 17.780
14.40000 15.908
14.42000 18.556
14.44000 8.232
14.46000 5.696
14.48000 8.866
14.50000 2.124
14.52000 5.502
14.54000 6.687
14.56000 13.084
14.58000 10.743
14.60000 1.392
14.62000 4.457
14.64000 6.463
14.66000 -1.307
14.68000 9.391
14.70000 12.108
14.72000 8.547
14.74000 10.702
14.76000 6.188
14.78000 5.493
14.80000 5.343
14.82000 0.607
14.84000 5.377
14.86000 5.263
14.88000 6.537
14.90000 11.078
14.92000 11.402
14.94000 15.574
14.96000 17.822
14.98000 8.883
15.00000 12.193
15.02000 11.243
15.04000 6.201
15.06000 7.553
15.08000 8.639
15.10000 3.706
15.12000 12.122
15.14000 12.364
15.16000 7.616
15.18000 13.406
15.20000 11.206
15.22000 4.824
15.24000 2.807
15.26000 14.175
15.28000 19.054
15.30000 13.639
15.32000 14.660
15.34000 12.380
15.36000 6.335
15.38000 8.187
15.40000 13.134
15.42000 15.233
15.44000 11.911
15.46000 5.510
15.48000 9.968
15.50000 9.860
15.52000 11.208
15.54000 4.735
15.56000 7.300
15.58000 10.533
15.60000 10.918
15.62000 14.609
15.64000 6.449
15.66000 4.861
15.68000 15.023
15.70000 3.827
15.72000 6.298
15.74000 7.622
15.76000 7.670
15.78000 8.885
15.80000 5.122
15.82000 2.112
15.84000 8.069
15.86000 6.344
15.88000 6.094
15.90000 10.117
15.92000 12.109
15.94000 12.321
15.96000 13.192
15.98000 17.850
16.00000 8.273
16.02000 6.563
16.04000 20.976
16.06000 15.423
16.08000 7.144
16.10000 22.703
16.12000 11.172
16.14000 9.475
16.16000 2.803
16.18000 10.800
16.20000 9.158
16.22000 14.768
16.24000 15.758
16.26000 13.174
16.28000 10.356
16.30000 7.068
16.32000 6.226
16.34000 8.079
16.36000 11.032
16.38000 12.921
16.40000 13.900
16.42000 9.993
16.44000 8.434
16.46000 9.830
16.48000 4.361
16.50000 7.511
16.52000 11.545
16.54000 12.507
16.56000 12.345
16.58000 14.517
16.60000 12.241
16.62000 5.024
16.64000 10.298
16.66000 12.419
16.68000 17.187
16.70000 10.916
16.72000 13.918
16.74000 10.205
16.76000 7.949
16.78000 2.031
16.80000 8.152
16.82000 5.614
16.84000 8.119
16.86000 11.937
16.88000 18.473
16.90000 14.028
16.92000 15.164
16.94000 12.251
16.96000 9.810
16.98000 9.974
17.00000 14.347
17.02000 15.217
17.04000 11.085
17.06000 7.578
17.08000 8.187
17.10000 5.053
17.12000 11.241
17.14000 16.974
17.16000 15.100
17.18000 15.027
17.20000 14.477
17.22000 19.041
17.24000 13.337
17.26000 8.338
17.28000 8.236
17.30000 14.883
17.32000 14.893
17.34000 16.068
17.36000 16.070
17.38000 8.658
17.40000 6.301
17.42000 14.098
17.44000 20.589
17.46000 23.459
17.48000 15.473
17.50000 17.578
17.52000 11.326
17.54000 5.934
17.56000 16.151
17.58000 9.023
17.60000 11.861
17.62000 10.156
17.64000 11.043
17.66000 14.291
17.68000 16.985
17.70000 13.366
17.72000 16.875
17.74000 16.071
17.76000 20.764
17.78000 20.851
17.80000 13.766
17.82000 5.966
17.84000 16.275
17.86000 18.284
17.88000 17.714
17.90000 18.089
17.92000 12.047
17.94000 7.268
17.96000 12.174
17.98000 11.831
18.00000 9.379
18.02000 9.325
18.04000 5.864
18.06000 -4.266
18.08000 -2.602
18.10000 13.532
18.12000 18.366
18.14000 15.866
18.16000 19.717
18.18000 18.310
18.20000 14.062
18.22000 17.587
18.24000 14.641
18.26000 9.345
18.28000 10.446
18.30000 15.859
18.32000 16.836
18.34000 15.525
18.36000 13.804
18.38000 14.913
18.40000 9.186
18.42000 10.597
18.44000 11.349
18.46000 7.245
18.48000 7.230
18.50000 10.092
18.52000 19.287
18.54000 19.167
18.56000 15.739
18.58000 17.586
18.60000 17.438
18.62000 8.468
18.64000 9.541
18.66000 16.385
18.68000 14.326
18.70000 10.841
18.72000 12.516
18.74000 17.079
18.76000 21.757
18.78000 20.260
18.80000 6.266
18.82000 11.110
18.84000 13.321
18.86000 9.185
18.88000 13.264
18.90000 17.154
18.92000 11.318
18.94000 10.740
18.96000 6.829
18.98000 6.592
19.00000 12.250
19.02000 15.220
19.04000 9.434
19.06000 4.773
19.08000 8.443
19.10000 6.040
19.12000 8.289
19.14000 16.107
19.16000 15.374
19.18000 7.958
19.20000 8.673
19.22000 10.286
19.24000 7.482
19.26000 6.562
19.28000 8.840
19.30000 8.630
19.32000 8.680
19.34000 1.643
19.36000 7.720
19.38000 6.243
19.40000 8.754
19.42000 6.289
19.44000 9.046
19.46000 14.848
19.48000 9.188
19.50000 5.454
19.52000 11.547
19.54000 7.880
19.56000 4.701
19.58000 12.240
19.60000 6.033
19.62000 4.337
19.64000 11.123
19.66000 9.909
19.68000 11.386
19.70000 11.574
19.72000 12.232
19.74000 10.613
19.76000 10.131
19.78000 10.252
19.80000 14.149
19.82000 9.603
19.84000 10.034
19.86000 11.645
19.88000 6.849
19.90000 10.060
19.92000 10.570
19.94000 8.015
19.96000 6.767
19.98000 7.781
20.00000 13.874
20.02000 5.401
20.04000 4.286
20.06000 12.879
20.08000 11.665
20.10000 16.407
20.12000 16.736
20.14000 10.572
20.16000 6.908
20.18000 6.096
20.20000 10.468
20.22000 8.123
20.24000 8.232
20.26000 13.346
20.28000 3.968
20.30000 -4.196
20.32000 2.593
20.34000 6.457
20.36000 1.441
20.38000 -1.350
20.40000 1.362
20.42000 4.912
20.44000 4.662
20.46000 1.284
20.48000 -1.558
20.50000 -2.022
20.52000 -0.231
20.54000 7.507
20.56000 9.043
20.58000 12.398
20.60000 10.829
20.62000 6.720
20.64000 3.997
20.66000 8.314
20.68000 10.769
20.70000 2.727
20.72000 -1.998
20.74000 9.081
20.76000 15.068
20.78000 12.772
20.80000 8.732
20.82000 5.884
20.84000 3.867
20.86000 10.165
20.88000 6.145
20.90000 4.893
20.92000 5.712
20.94000 2.675
20.96000 0.102
20.98000 7.089
21.00000 9.650
21.02000 8.531
21.04000 9.365
21.06000 7.758
21.08000 6.093
21.10000 3.558
21.12000 4.620
21.14000 7.584
21.16000 10.694
21.18000 9.439
21.20000 4.758
21.22000 3.694
21.24000 1.982
21.26000 2.916
21.28000 6.762
21.30000 5.409
21.32000 1.601
21.34000 2.892
21.36000 -1.269
21.38000 4.116
21.40000 3.501
21.42000 4.226
21.44000 7.063
21.46000 3.918
21.48000 3.961
21.50000 7.052
21.52000 7.382
21.54000 4.704
21.56000 7.527
21.58000 4.074
21.60000 -1.082
21.62000 -2.690
21.64000 0.170
21.66000 4.043
21.68000 8.158
21.70000 8.563
21.72000 -1.030
21.74000 -4.167
21.76000 3.083
21.78000 5.379
21.80000 5.663
21.82000 7.688
21.84000 4.882
21.86000 2.565
21.88000 0.742
21.90000 -1.743
21.92000 -3.366
21.94000 1.324
21.96000 -2.197
21.98000 -2.323
22.00000 7.341
22.02000 14.471
22.04000 7.614
22.06000 0.985
22.08000 8.111
22.10000 7.685
22.12000 0.713
22.14000 5.264
22.16000 2.988
22.18000 -4.147
22.20000 -2.562
22.22000 2.060
22.24000 4.525
22.26000 5.305
22.28000 1.967
22.30000 5.746
22.32000 2.557
22.34000 -0.155
22.36000 -3.381
22.38000 -3.321
22.40000 1.353
22.42000 2.689
22.44000 5.361
22.46000 3.990
22.48000 1.939
22.50000 2.757
22.52000 7.962
22.54000 -1.347
22.56000 -2.710
22.58000 0.043
22.60000 2.540
22.62000 2.965
22.64000 5.612
22.66000 8.105
22.68000 0.424
22.70000 -1.073
22.72000 -1.714
22.74000 -2.131
22.76000 6.758
22.78000 7.201
22.80000 1.790
22.82000 -0.238
22.84000 1.739
22.86000 4.540
22.88000 1.520
22.90000 -0.250
22.92000 0.885
22.94000 3.788
22.96000 0.498
22.98000 0.329
23.00000 -2.494
23.02000 0.552
23.04000 1.440
23.06000 1.261
23.08000 6.965
23.10000 6.195
23.12000 4.218
23.14000 8.445
23.16000 7.129
23.18000 3.887
23.20000 -0.399
23.22000 -0.739
23.24000 6.375
23.26000 5.410
23.28000 10.108
23.30000 4.985
23.32000 3.874
23.34000 0.183
23.36000 0.189
23.38000 1.796
23.40000 4.453
23.42000 6.439
23.44000 5.924
23.46000 0.206
23.48000 6.729
23.50000 10.303
23.52000 7.465
23.54000 12.125
23.56000 9.654
23.58000 6.628
23.60000 3.606
23.62000 5.255
23.64000 1.629
23.66000 0.971
23.68000 8.093
23.70000 9.098
23.72000 1.538
23.74000 1.305
23.76000 6.213
23.78000 -0.157
23.80000 5.857
23.82000 7.701
23.84000 2.172
23.86000 6.051
23.88000 6.429
23.90000 -0.395
23.92000 5.724
23.94000 6.979
23.96000 5.471
23.98000 2.512
24.00000 2.357
24.02000 5.278
24.04000 3.997
24.06000 4.620
24.08000 4.197
24.10000 8.198
24.12000 2.313
24.14000 6.143
24.16000 3.455
24.18000 2.353
24.20000 4.821
24.22000 5.494
24.24000 -1.413
24.26000 2.885
24.28000 14.840
24.30000 11.251
24.32000 4.695
24.34000 3.844
24.36000 0.390
24.38000 -1.168
24.40000 -3.966
24.42000 2.491
24.44000 6.148
24.46000 4.719
24.48000 6.004
24.50000 4.752
24.52000 5.989
24.54000 5.791
24.56000 4.301
24.58000 3.745
24.60000 3.916
24.62000 7.876
24.64000 11.445
24.66000 6.097
24.68000 5.922
24.70000 7.259
24.72000 7.559
24.74000 6.086
24.76000 12.342
24.78000 12.836
24.80000 5.259
24.82000 2.442
24.84000 3.993
24.86000 6.185
24.88000 4.796
24.90000 3.834
24.92000 3.976
24.94000 2.720
24.96000 -0.122
24.98000 -3.013
25.00000 -2.060
25.02000 4.021
25.04000 1.911
25.06000 2.942
25.08000 3.954
25.10000 5.241
25.12000 8.463
25.14000 3.834
25.16000 1.292
25.18000 3.178
25.20000 1.765
25.22000 2.147
25.24000 8.047
25.26000 10.412
25.28000 9.247
25.30000 2.701
25.32000 -2.684
25.34000 -2.074
25.36000 3.265
25.38000 3.531
25.40000 9.400
25.42000 10.841
25.44000 9.489
25.46000 3.206
25.48000 0.618
25.50000 2.674
25.52000 5.576
25.54000 5.215
25.56000 2.683
25.58000 3.630
25.60000 8.192
25.62000 5.054
25.64000 9.386
25.66000 5.217
25.68000 2.405
25.70000 0.568
25.72000 6.062
25.74000 1.727
25.76000 2.284
25.78000 1.630
25.80000 7.307
25.82000 6.676
25.84000 4.716
25.86000 7.804
25.88000 7.467
25.90000 4.454
25.92000 3.012
25.94000 0.948
25.96000 3.567
25.98000 2.935
26.00000 3.948
26.02000 3.052
26.04000 3.565
26.06000 8.375
26.08000 4.386
26.10000 1.806
26.12000 5.803
26.14000 5.013
26.16000 2.078
26.18000 2.366
26.20000 2.466
26.22000 3.993
26.24000 3.227
26.26000 8.451
26.28000 8.695
26.30000 6.779
26.32000 0.458
26.34000 6.165
26.36000 6.946
26.38000 5.155
26.40000 10.036
26.42000 12.642
26.44000 11.464
26.46000 10.378
26.48000 7.195
26.50000 2.378
26.52000 -0.829
26.54000 1.212
26.56000 2.147
26.58000 0.893
26.60000 3.948
26.62000 4.061
26.64000 8.251
26.66000 6.091
26.68000 10.154
26.70000 11.735
26.72000 11.127
26.74000 7.610
26.76000 4.585
26.78000 -0.640
26.80000 2.048
26.82000 4.499
26.84000 5.483
26.86000 6.461
26.88000 7.968
26.90000 4.209
26.92000 3.633
26.94000 6.450
26.96000 7.200
26.98000 10.114
27.00000 8.082
27.02000 4.877
27.04000 7.721
27.06000 -3.847
27.08000 1.651
27.10000 7.475
27.12000 3.156
27.14000 -0.672
27.16000 2.080
27.18000 2.955
27.20000 5.312
27.22000 7.921
27.24000 12.281
27.26000 10.002
27.28000 12.188
27.30000 4.686
27.32000 3.802
27.34000 6.842
27.36000 5.552
27.38000 3.811
27.40000 3.576
27.42000 3.444
27.44000 4.868
27.46000 0.492
27.48000 1.435
27.50000 1.332
27.52000 2.233
27.54000 4.386
27.56000 5.985
27.58000 8.424
27.60000 7.113
27.62000 5.122
27.64000 8.133
27.66000 10.682
27.68000 7.940
27.70000 2.847
27.72000 5.254
27.74000 8.551
27.76000 5.733
27.78000 7.885
27.80000 3.919
27.82000 5.589
27.84000 5.179
27.86000 0.500
27.88000 -2.390
27.90000 0.483
27.92000 5.997
27.94000 0.936
27.96000 1.920
27.98000 1.240
28.00000 6.184
28.02000 3.696
28.04000 -1.249
28.06000 2.149
28.08000 4.155
28.10000 4.315
28.12000 5.085
28.14000 1.557
28.16000 0.996
28.18000 3.355
28.20000 5.265
28.22000 5.592
28.24000 -3.157
28.26000 -2.585
28.28000 -3.023
28.30000 -1.757
28.32000 -3.485
28.34000 -1.300
28.36000 3.941
28.38000 0.789
28.40000 0.628
28.42000 0.990
28.44000 1.997
28.46000 -0.383
28.48000 4.431
28.50000 1.921
28.52000 1.767
28.54000 3.979
28.56000 4.363
28.58000 0.781
28.60000 0.755
28.62000 2.940
28.64000 1.371
28.66000 0.349
28.68000 -0.032
28.70000 2.959
28.72000 1.260
28.74000 3.509
28.76000 -0.510
28.78000 3.353
28.80000 9.647
28.82000 3.480
28.84000 1.993
28.86000 1.330
28.88000 2.745
28.90000 0.145
28.92000 3.641
28.94000 5.411
28.96000 4.105
28.98000 1.653
29.00000 1.720
29.02000 1.114
29.04000 0.824
29.06000 3.560
29.08000 4.291
29.10000 5.123
29.12000 2.316
29.14000 0.924
29.16000 1.577
29.18000 -0.135
29.20000 1.726
29.22000 9.790
29.24000 9.502
29.26000 5.402
29.28000 4.170
29.30000 2.125
29.32000 1.455
29.34000 8.923
29.36000 8.671
29.38000 7.558
29.40000 10.610
29.42000 4.012
29.44000 5.142
29.46000 6.572
29.48000 4.764
29.50000 7.826
29.52000 9.319
29.54000 2.520
29.56000 -3.730
29.58000 0.413
29.60000 2.532
29.62000 7.072
29.64000 3.371
29.66000 5.602
29.68000 4.825
29.70000 4.550
29.72000 5.996
29.74000 9.157
29.76000 5.472
29.78000 5.691
29.80000 11.867
29.82000 12.216
29.84000 8.303
29.86000 6.993
29.88000 11.550
29.90000 2.453
29.92000 -0.419
29.94000 3.771
29.96000 8.912
29.98000 3.492
30.00000 5.343
30.02000 6.960
30.04000 6.517
30.06000 3.806
30.08000 4.071
30.10000 3.915
30.12000 1.343
30.14000 1.732
30.16000 8.544
30.18000 7.510
30.20000 5.784
30.22000 5.832
30.24000 1.252
30.26000 1.369
30.28000 1.308
30.30000 4.063
30.32000 6.823
30.34000 5.199
30.36000 2.942
30.38000 4.644
30.40000 -1.332
30.42000 -2.036
30.44000 1.615
30.46000 0.081
30.48000 5.425
30.50000 3.441
30.52000 -1.233
30.54000 -0.590
30.56000 -3.721
30.58000 -1.602
30.60000 -0.005
30.62000 -0.478
30.64000 2.958
30.66000 4.663
30.68000 3.314
30.70000 7.465
30.72000 2.644
30.74000 -3.471
30.76000 -0.921
30.78000 1.484
30.80000 -0.439
30.82000 1.180
30.84000 1.483
30.86000 5.275
30.88000 0.167
30.90000 3.996
30.92000 1.955
30.94000 -0.226
30.96000 0.414
30.98000 0.903
31.00000 1.535
31.02000 2.783
31.04000 3.837
31.06000 2.921
31.08000 3.045
31.10000 2.880
31.12000 3.628
31.14000 5.068
31.16000 -2.782
31.18000 -3.702
31.20000 -1.422
31.22000 -2.571
31.24000 1.937
31.26000 2.472
31.28000 1.087
31.30000 2.203
31.32000 -0.361
31.34000 5.903
31.36000 4.089
31.38000 5.907
31.40000 6.296
31.42000 4.467
31.44000 2.497
31.46000 -0.193
31.48000 -2.279
31.50000 2.566
31.52000 2.587
31.54000 2.442
31.56000 -0.515
31.58000 -2.673
31.60000 -1.069
31.62000 0.963
31.64000 5.524
31.66000 5.479
31.68000 2.808
31.70000 1.553
31.72000 1.783
31.74000 1.334
31.76000 -0.420
31.78000 -1.576
31.80000 -3.682
31.82000 -2.905
31.84000 1.212
31.86000 5.607
31.88000 3.351
31.90000 0.900
31.92000 -1.490
31.94000 -2.507
31.96000 -3.677
31.98000 -3.331
32.00000 -0.787
32.02000 3.513
32.04000 2.621
32.06000 3.637
32.08000 6.775
32.10000 2.206
32.12000 6.163
32.14000 4.278
32.16000 2.812
32.18000 2.903
32.20000 2.453
32.22000 3.207
32.24000 3.613
32.26000 5.577
32.28000 4.433
32.30000 2.861
32.32000 0.327
32.34000 1.464
32.36000 0.902
32.38000 -1.287
32.40000 0.430
32.42000 3.908
32.44000 0.148
32.46000 0.642
32.48000 -0.708
32.50000 -0.460
32.52000 -1.958
32.54000 -1.200
32.56000 1.908
32.58000 7.282
32.60000 6.279
32.62000 5.356
32.64000 9.857
32.66000 6.073
32.68000 5.676
32.70000 7.589
32.72000 4.041
32.74000 2.524
32.76000 4.274
32.78000 8.030
32.80000 4.827
32.82000 1.264
32.84000 -1.063
32.86000 4.006
32.88000 3.948
32.90000 0.715
32.92000 1.742
32.94000 1.684
32.96000 -0.482
32.98000 3.134
33.00000 3.889
33.02000 -1.519
33.04000 3.476
33.06000 -1.239
33.08000 3.759
33.10000 3.697
33.12000 0.254
33.14000 -2.044
33.16000 -3.633
33.18000 -1.775
33.20000 1.717
33.22000 0.371
33.24000 3.782
33.26000 5.354
33.28000 0.801
33.30000 -0.793
33.32000 4.711
33.34000 3.440
33.36000 0.942
33.38000 -2.247
33.40000 0.653
33.42000 1.859
33.44000 0.173
33.46000 -1.028
33.48000 3.101
33.50000 4.969
33.52000 2.129
33.54000 0.958
33.56000 5.182
33.58000 3.725
33.60000 3.001
33.62000 3.815
33.64000 5.080
33.66000 4.517
33.68000 6.471
33.70000 6.577
33.72000 4.656
33.74000 6.378
33.76000 2.889
33.78000 3.273
33.80000 5.457
33.82000 7.528
33.84000 1.515
33.86000 2.253
33.88000 4.365
33.90000 1.101
33.92000 5.198
33.94000 4.488
33.96000 -3.625
33.98000 4.790
34.00000 6.911
34.02000 8.011
34.04000 6.616
34.06000 4.740
34.08000 0.382
34.10000 0.243
34.12000 8.883
34.14000 8.145
34.16000 7.480
34.18000 2.857
34.20000 5.246
34.22000 2.477
34.24000 -1.176
34.26000 2.185
34.28000 5.465
34.30000 4.680
34.32000 3.841
34.34000 4.141
34.36000 7.451
34.38000 6.772
34.40000 8.855
34.42000 2.943
34.44000 0.790
34.46000 5.018
34.48000 4.929
34.50000 4.598
34.52000 8.105
34.54000 4.222
34.56000 3.339
34.58000 4.163
34.60000 2.627
34.62000 -3.289
34.64000 2.113
34.66000 5.935
34.68000 1.561
34.70000 -1.744
34.72000 -0.870
34.74000 -2.802
34.76000 1.319
34.78000 8.205
34.80000 4.409
34.82000 1.144
34.84000 -3.618
34.86000 -2.052
34.88000 3.969
34.90000 6.590
34.92000 3.214
34.94000 0.964
34.96000 4.796
34.98000 2.736
35.00000 3.094
35.02000 5.753
35.04000 2.593
35.06000 4.609
35.08000 7.093
35.10000 3.990
35.12000 4.004
35.14000 3.028
35.16000 2.755
35.18000 -0.220
35.20000 -2.507
35.22000 1.955
35.24000 -1.616
35.26000 0.077
35.28000 -1.965
35.30000 0.331
35.32000 0.695
35.34000 -3.458
35.36000 -3.058
35.38000 -0.935
35.40000 -2.566
35.42000 -3.642
35.44000 1.080
35.46000 2.973
35.48000 -0.746
35.50000 -1.780
35.52000 -2.767
35.54000 2.168
35.56000 -0.264
35.58000 0.704
35.60000 -2.720
35.62000 -2.069
35.64000 -1.046
35.66000 -0.918
35.68000 -1.996
35.70000 -3.005
35.72000 -0.518
35.74000 -0.672
35.76000 0.241
35.78000 -1.884
35.80000 -2.174
35.82000 -0.790
35.84000 0.706
35.86000 4.006
35.88000 1.709
35.90000 1.928
35.92000 -0.207
35.94000 1.310
35.96000 7.072
35.98000 8.165
36.00000 1.590
36.02000 2.477
36.04000 -3.658
36.06000 -1.798
36.08000 2.443
36.10000 2.078
36.12000 -0.268
36.14000 3.080
36.16000 3.229
36.18000 1.442
36.20000 -0.957
36.22000 0.955
36.24000 2.762
36.26000 1.964
36.28000 3.381
36.30000 0.597
36.32000 5.060
36.34000 1.923
36.36000 2.225
36.38000 6.278
36.40000 6.666
36.42000 2.809
36.44000 4.928
36.46000 8.799
36.48000 6.382
36.50000 8.465
36.52000 5.074
36.54000 3.878
36.56000 2.794
36.58000 3.722
36.60000 6.656
36.62000 11.780
36.64000 14.897
36.66000 10.842
36.68000 9.726
36.70000 11.027
36.72000 7.424
36.74000 7.134
36.76000 6.159
36.78000 11.321
36.80000 10.248
36.82000 10.473
36.84000 6.417
36.86000 5.990
36.88000 10.759
36.90000 14.288
36.92000 10.409
36.94000 10.463
36.96000 7.600
36.98000 11.334
37.00000 9.836
37.02000 7.049
37.04000 8.496
37.06000 11.214
37.08000 15.008
37.10000 13.975
37.12000 13.682
37.14000 11.460
37.16000 15.805
37.18000 18.790
37.20000 17.350
37.22000 8.655
37.24000 9.165
37.26000 17.451
37.28000 16.203
37.30000 20.367
37.32000 24.104
37.34000 22.687
37.36000 18.365
37.38000 20.116
37.40000 22.113
37.42000 20.072
37.44000 19.234
37.46000 22.970
37.48000 24.718
37.50000 26.631
37.52000 26.928
37.54000 30.117
37.56000 31.296
37.58000 29.589
37.60000 30.177
37.62000 31.945
37.64000 28.886
37.66000 31.583
37.68000 32.083
37.70000 28.863
37.72000 30.203
37.74000 34.723
37.76000 37.472
37.78000 32.373
37.80000 34.738
37.82000 38.382
37.84000 41.133
37.86000 36.990
37.88000 38.327
37.90000 41.808
37.92000 44.345
37.94000 50.358
37.96000 47.873
37.98000 48.902
38.00000 51.545
38.02000 53.478
38.04000 56.763
38.06000 56.211
38.08000 57.351
38.10000 59.409
38.12000 60.223
38.14000 64.013
38.16000 70.095
38.18000 77.310
38.20000 76.241
38.22000 80.417
38.24000 84.980
38.26000 86.757
38.28000 96.514
38.30000 99.403
38.32000 104.353
38.34000 112.225
38.36000 114.504
38.38000 119.065
38.40000 127.904
38.42000 134.761
38.44000 148.933
38.46000 156.639
38.48000 167.352
38.50000 173.058
38.52000 177.386
38.54000 192.276
38.56000 199.982
38.58000 212.358
38.60000 222.247
38.62000 230.088
38.64000 242.036
38.66000 250.554
38.68000 256.035
38.70000 276.119
38.72000 281.770
38.74000 283.916
38.76000 292.121
38.78000 292.594
38.80000 292.308
38.82000 296.723
38.84000 300.622
38.86000 298.343
38.88000 293.419
38.90000 290.066
38.92000 280.734
38.94000 272.898
38.96000 272.284
38.98000 265.465
39.00000 262.376
39.02000 244.505
39.04000 233.536
39.06000 224.711
39.08000 210.439
39.10000 204.836
39.12000 193.391
39.14000 186.564
39.16000 174.058
39.18000 157.878
39.20000 152.546
39.22000 147.868
39.24000 138.718
39.26000 124.398
39.28000 117.148
39.30000 113.149
39.32000 113.015
39.34000 102.898
39.36000 99.312
39.38000 93.313
39.40000 84.010
39.42000 85.152
39.44000 82.965
39.46000 73.730
39.48000 66.451
39.50000 63.870
39.52000 56.208
39.54000 57.697
39.56000 54.886
39.58000 55.479
39.60000 43.967
39.62000 43.431
39.64000 44.146
39.66000 44.617
39.68000 40.232
39.70000 40.370
39.72000 38.285
39.74000 42.122
39.76000 39.295
39.78000 33.397
39.80000 28.048
39.82000 28.268
39.84000 30.964
39.86000 29.688
39.88000 29.830
39.90000 29.661
39.92000 28.752
39.94000 26.464
39.96000 25.517
39.98000 25.113
40.00000 23.302
40.02000 16.100
40.04000 18.304
40.06000 18.880
40.08000 19.175
40.10000 23.289
40.12000 19.316
40.14000 22.136
40.16000 22.762
40.18000 24.101
40.20000 22.501
40.22000 20.608
40.24000 16.148
40.26000 13.254
40.28000 16.762
40.30000 18.350
40.32000 19.007
40.34000 18.730
40.36000 16.345
40.38000 16.366
40.40000 14.945
40.42000 16.383
40.44000 13.608
40.46000 9.424
40.48000 5.137
40.50000 8.616
40.52000 8.376
40.54000 10.738
40.56000 9.320
40.58000 7.852
40.60000 7.426
40.62000 6.079
40.64000 2.550
40.66000 1.509
40.68000 4.419
40.70000 8.716
40.72000 3.892
40.74000 1.800
40.76000 5.137
40.78000 5.125
40.80000 2.291
40.82000 1.815
40.84000 4.196
40.86000 9.966
40.88000 5.511
40.90000 5.433
40.92000 3.859
40.94000 2.282
40.96000 -0.401
40.98000 4.663
41.00000 8.081
41.02000 7.273
41.04000 5.217
41.06000 2.309
41.08000 3.131
41.10000 3.259
41.12000 2.654
41.14000 3.095
41.16000 5.446
41.18000 3.380
41.20000 3.952
41.22000 4.060
41.24000 1.014
41.26000 1.016
41.28000 4.597
41.30000 4.435
41.32000 2.800
41.34000 1.707
41.36000 3.199
41.38000 5.459
41.40000 -0.937
41.42000 -0.327
41.44000 1.389
41.46000 4.157
41.48000 5.993
41.50000 0.736
41.52000 -0.069
41.54000 1.726
41.56000 0.604
41.58000 -1.856
41.60000 3.659
41.62000 3.424
41.64000 -0.757
41.66000 -1.175
41.68000 -2.978
41.70000 1.318
41.72000 -0.195
41.74000 -0.300
41.76000 -0.034
41.78000 2.589
41.80000 2.432
41.82000 0.249
41.84000 -3.196
41.86000 -3.250
41.88000 -0.526
41.90000 -1.519
41.92000 1.645
41.94000 0.951
41.96000 -1.918
41.98000 -0.477
42.00000 -0.866
42.02000 1.707
42.04000 -0.908
42.06000 -1.935
42.08000 1.729
42.10000 -0.285
42.12000 -0.110
42.14000 0.467
42.16000 3.169
42.18000 4.591
42.20000 2.897
42.22000 -3.408
42.24000 -3.035
42.26000 4.070
42.28000 5.499
42.30000 1.523
42.32000 -2.171
42.34000 -0.145
42.36000 -0.475
42.38000 -1.891
42.40000 -1.620
42.42000 0.736
42.44000 2.206
42.46000 1.925
42.48000 -0.244
42.50000 0.993
42.52000 -0.174
42.54000 -3.256
42.56000 0.112
42.58000 1.902
42.60000 1.127
42.62000 0.037
42.64000 -0.571
42.66000 -2.782
42.68000 -3.365
42.70000 1.002
42.72000 1.940
42.74000 1.750
42.76000 -1.275
42.78000 -2.929
42.80000 0.748
42.82000 -0.198
42.84000 1.346
42.86000 1.659
42.88000 -0.617
42.90000 -0.927
42.92000 0.664
42.94000 4.085
42.96000 3.263
42.98000 1.864
43.00000 -0.174
43.02000 1.931
43.04000 -3.331
43.06000 -2.801
43.08000 0.697
43.10000 2.826
43.12000 5.138
43.14000 1.745
43.16000 -2.177
43.18000 -2.151
43.20000 -1.998
43.22000 -3.314
43.24000 -1.802
43.26000 2.768
43.28000 -0.170
43.30000 -1.093
43.32000 1.022
43.34000 0.156
43.36000 1.939
43.38000 0.266
43.40000 -3.307
43.42000 -1.651
43.44000 0.672
43.46000 -1.264
43.48000 -0.348
43.50000 0.542
43.52000 -1.892
43.54000 1.848
43.56000 1.837
43.58000 3.163
43.60000 4.826
43.62000 1.065
43.64000 1.661
43.66000 5.821
43.68000 7.765
43.70000 4.481
43.72000 3.716
43.74000 3.623
43.76000 3.558
43.78000 2.434
43.80000 9.028
43.82000 5.891
43.84000 1.132
43.86000 3.295
43.88000 3.489
43.90000 5.704
43.92000 3.690
43.94000 5.548
43.96000 4.648
43.98000 6.064
44.00000 5.659
44.02000 7.846
44.04000 7.301
44.06000 8.457
44.08000 5.537
44.10000 7.477
44.12000 8.653
44.14000 8.023
44.16000 8.658
44.18000 9.568
44.20000 9.027
44.22000 9.121
44.24000 10.824
44.26000 10.920
44.28000 8.589
44.30000 12.520
44.32000 13.933
44.34000 16.210
44.36000 15.998
44.38000 17.133
44.40000 17.010
44.42000 20.838
44.44000 18.744
44.46000 19.842
44.48000 18.684
44.50000 24.352
44.52000 28.951
44.54000 29.959
44.56000 34.437
44.58000 38.685
44.60000 36.256
44.62000 39.275
44.64000 39.192
44.66000 40.415
44.68000 48.589
44.70000 51.446
44.72000 46.385
44.74000 45.359
44.76000 51.920
44.78000 62.419
44.80000 61.397
44.82000 64.658
44.84000 66.203
44.86000 68.614
44.88000 79.684
44.90000 84.625
44.92000 89.300
44.94000 88.597
44.96000 89.936
44.98000 91.603
45.00000 98.032
45.02000 105.087
45.04000 104.663
45.06000 110.022
45.08000 111.951
45.10000 121.757
45.12000 118.648
45.14000 112.786
45.16000 113.390
45.18000 118.448
45.20000 122.756
45.22000 123.117
45.24000 121.945
45.26000 117.235
45.28000 111.766
45.30000 114.591
45.32000 116.773
45.34000 113.500
45.36000 109.657
45.38000 103.781
45.40000 101.397
45.42000 99.808
45.44000 98.741
45.46000 92.808
45.48000 85.105
45.50000 85.465
45.52000 83.602
45.54000 78.493
45.56000 74.123
45.58000 66.901
45.60000 61.271
45.62000 62.615
45.64000 63.824
45.66000 59.719
45.68000 56.188
45.70000 56.311
45.72000 51.039
45.74000 49.270
45.76000 43.641
45.78000 39.764
45.80000 33.677
45.82000 29.970
45.84000 30.235
45.86000 29.447
45.88000 28.597
45.90000 23.169
45.92000 21.555
45.94000 23.079
45.96000 22.370
45.98000 26.324
46.00000 25.455
46.02000 20.424
46.04000 17.761
46.06000 11.850
46.08000 13.533
46.10000 19.056
46.12000 20.837
46.14000 13.663
46.16000 12.411
46.18000 9.043
46.20000 9.591
46.22000 6.778
46.24000 5.471
46.26000 6.724
46.28000 6.096
46.30000 8.614
46.32000 8.232
46.34000 9.448
46.36000 4.793
46.38000 4.130
46.40000 3.901
46.42000 5.907
46.44000 3.302
46.46000 5.741
46.48000 6.803
46.50000 3.757
46.52000 3.946
46.54000 -0.499
46.56000 -2.181
46.58000 -2.864
46.60000 -2.557
46.62000 2.345
46.64000 6.539
46.66000 5.858
46.68000 2.899
46.70000 3.422
46.72000 3.515
46.74000 4.028
46.76000 2.825
46.78000 3.499
46.80000 2.188
46.82000 4.635
46.84000 3.466
46.86000 0.867
46.88000 1.389
46.90000 2.470
46.92000 7.196
46.94000 7.304
46.96000 4.411
46.98000 -1.955
47.00000 -2.896
47.02000 0.110
47.04000 -0.516
47.06000 3.828
47.08000 3.810
47.10000 0.991
47.12000 0.728
47.14000 4.474
47.16000 0.310
47.18000 -1.235
47.20000 -1.639
47.22000 -0.726
47.24000 -1.013
47.26000 -1.184
47.28000 0.886
47.30000 1.255
47.32000 0.920
47.34000 2.343
47.36000 1.460
47.38000 -0.441
47.40000 -1.178
47.42000 2.214
47.44000 5.638
47.46000 6.347
47.48000 2.742
47.50000 2.769
47.52000 1.048
47.54000 2.042
47.56000 7.838
47.58000 8.760
47.60000 1.905
47.62000 2.017
47.64000 3.954
47.66000 4.846
47.68000 5.835
47.70000 5.148
47.72000 2.746
47.74000 1.370
47.76000 -1.207
47.78000 -0.622
47.80000 1.935
47.82000 2.190
47.84000 -0.125
47.86000 3.593
47.88000 7.129
47.90000 7.247
47.92000 9.566
47.94000 7.379
47.96000 7.140
47.98000 -0.122
48.00000 3.369
48.02000 4.082
48.04000 2.299
48.06000 4.631
48.08000 2.476
48.10000 3.087
48.12000 3.994
48.14000 2.336
48.16000 5.872
48.18000 7.188
48.20000 1.047
48.22000 1.650
48.24000 4.724
48.26000 7.427
48.28000 6.459
48.30000 -0.257
48.32000 -2.768
48.34000 -0.976
48.36000 -0.660
48.38000 2.545
48.40000 3.799
48.42000 5.051
48.44000 1.981
48.46000 -2.251
48.48000 -2.751
48.50000 -0.014
48.52000 5.220
48.54000 5.774
48.56000 3.893
48.58000 -0.184
48.60000 -2.742
48.62000 -0.236
48.64000 3.362
48.66000 1.983
48.68000 2.739
48.70000 2.251
48.72000 0.495
48.74000 2.648
48.76000 2.918
48.78000 0.097
48.80000 -0.052
48.82000 4.476
48.84000 5.030
48.86000 8.158
48.88000 -0.150
48.90000 -0.200
48.92000 1.159
48.94000 4.358
48.96000 2.896
48.98000 3.042
49.00000 0.726
49.02000 2.673
49.04000 3.876
49.06000 1.836
49.08000 4.142
49.10000 3.496
49.12000 4.107
49.14000 5.789
49.16000 4.106
49.18000 1.838
49.20000 5.357
49.22000 0.871
49.24000 -0.749
49.26000 3.388
49.28000 3.693
49.30000 3.796
49.32000 5.070
49.34000 2.064
49.36000 -1.078
49.38000 -0.069
49.40000 -0.698
49.42000 5.423
49.44000 4.112
49.46000 -0.175
49.48000 5.042
49.50000 4.321
49.52000 2.715
49.54000 4.285
49.56000 -0.262
49.58000 2.102
49.60000 5.018
49.62000 7.215
49.64000 6.568
49.66000 7.207
49.68000 6.851
49.70000 5.923
49.72000 1.578
49.74000 -1.234
49.76000 -2.693
49.78000 -0.869
49.80000 1.644
49.82000 4.883
49.84000 1.427
49.86000 6.934
49.88000 8.077
49.90000 1.415
49.92000 0.362
49.94000 0.896
49.96000 3.769
49.98000 6.686
50.00000 2.762
50.02000 4.246
50.04000 4.959
50.06000 3.570
50.08000 1.791
50.10000 -0.835
50.12000 -2.591
50.14000 -1.245
50.16000 -0.733
50.18000 -1.900
50.20000 1.811
50.22000 6.203
50.24000 2.512
50.26000 1.634
50.28000 0.958
50.30000 -2.129
50.32000 2.106
50.34000 0.683
50.36000 -0.722
50.38000 0.572
50.40000 2.015
50.42000 3.912
50.44000 4.869
50.46000 4.208
50.48000 6.232
50.50000 3.559
50.52000 -2.260
50.54000 -1.326
50.56000 4.600
50.58000 -1.222
50.60000 2.346
50.62000 4.292
50.64000 5.766
50.66000 6.867
50.68000 4.865
50.70000 2.107
50.72000 4.571
50.74000 7.769
50.76000 4.847
50.78000 3.218
50.80000 1.600
50.82000 2.506
50.84000 2.904
50.86000 -1.041
50.88000 -1.249
50.90000 0.370
50.92000 -1.131
50.94000 1.517
50.96000 4.754
50.98000 3.134
51.00000 4.269
51.02000 5.019
51.04000 -0.047
51.06000 -2.268
51.08000 1.381
51.10000 3.930
51.12000 3.589
51.14000 5.194
51.16000 2.989
51.18000 -0.132
51.20000 -0.403
51.22000 -0.563
51.24000 4.720
51.26000 4.684
51.28000 2.700
51.30000 3.288
51.32000 2.196
51.34000 2.639
51.36000 2.672
51.38000 -0.489
51.40000 3.537
51.42000 4.108
51.44000 5.790
51.46000 1.097
51.48000 0.076
51.50000 2.695
51.52000 2.855
51.54000 -1.338
51.56000 -0.438
51.58000 5.416
51.60000 1.498
51.62000 -2.641
51.64000 0.601
51.66000 2.416
51.68000 7.471
51.70000 1.948
51.72000 -1.046
51.74000 1.678
51.76000 1.526
51.78000 2.457
51.80000 5.583
51.82000 2.838
51.84000 2.831
51.86000 5.202
51.88000 4.993
51.90000 2.069
51.92000 0.089
51.94000 0.115
51.96000 3.239
51.98000 1.711
52.00000 4.753
52.02000 4.610
52.04000 4.726
52.06000 4.147
52.08000 5.801
52.10000 4.783
52.12000 2.553
52.14000 -1.569
52.16000 2.098
52.18000 4.922
52.20000 5.875
52.22000 5.208
52.24000 2.678
52.26000 -2.012
52.28000 -2.616
52.30000 0.488
52.32000 2.964
52.34000 7.036
52.36000 3.454
52.38000 3.236
52.40000 4.038
52.42000 0.430
52.44000 0.280
52.46000 5.652
52.48000 8.973
52.50000 3.861
52.52000 -2.606
52.54000 -0.549
52.56000 2.791
52.58000 8.217
52.60000 8.958
52.62000 9.177
52.64000 2.849
52.66000 4.374
52.68000 1.313
52.70000 0.903
52.72000 5.432
52.74000 4.235
52.76000 2.582
52.78000 0.495
52.80000 1.489
52.82000 -0.415
52.84000 -2.598
52.86000 3.213
52.88000 4.780
52.90000 5.394
52.92000 7.342
52.94000 5.156
52.96000 3.647
52.98000 5.371
53.00000 2.552
53.02000 0.044
53.04000 0.360
53.06000 0.413
53.08000 3.859
53.10000 4.173
53.12000 5.115
53.14000 3.867
53.16000 4.238
53.18000 0.596
53.20000 4.636
53.22000 4.563
53.24000 0.306
53.26000 -1.555
53.28000 -1.422
53.30000 2.411
53.32000 6.619
53.34000 2.885
53.36000 3.345
53.38000 3.375
53.40000 3.754
53.42000 0.828
53.44000 0.616
53.46000 0.321
53.48000 1.640
53.50000 -0.744
53.52000 -1.454
53.54000 2.836
53.56000 3.896
53.58000 -0.858
53.60000 -2.522
53.62000 0.719
53.64000 1.470
53.66000 1.942
53.68000 3.358
53.70000 2.353
53.72000 3.811
53.74000 2.690
53.76000 4.142
53.78000 3.195
53.80000 2.915
53.82000 -0.405
53.84000 -0.606
53.86000 1.498
53.88000 0.739
53.90000 2.253
53.92000 4.439
53.94000 5.136
53.96000 4.889
53.98000 4.436
54.00000 3.361
54.02000 2.415
54.04000 0.044
54.06000 2.476
54.08000 8.279
54.10000 1.022
54.12000 -2.596
54.14000 0.733
54.16000 1.027
54.18000 1.919
54.20000 3.224
54.22000 2.120
54.24000 0.260
54.26000 1.961
54.28000 0.885
54.30000 0.037
54.32000 -1.297
54.34000 1.203
54.36000 3.130
54.38000 -0.195
54.40000 -2.304
54.42000 3.399
54.44000 3.216
54.46000 1.367
54.48000 1.329
54.50000 3.315
54.52000 1.232
54.54000 1.920
54.56000 2.348
54.58000 3.240
54.60000 4.346
54.62000 3.713
54.64000 2.908
54.66000 1.566
54.68000 0.297
54.70000 -2.588
54.72000 -0.652
54.74000 3.419
54.76000 0.027
54.78000 3.213
54.80000 3.546
54.82000 5.934
54.84000 5.060
54.86000 -1.929
54.88000 -1.069
54.90000 -1.150
54.92000 1.799
54.94000 0.183
54.96000 1.199
54.98000 -1.337
55.00000 -1.654
55.02000 -0.393
55.04000 0.745
55.06000 -1.882
55.08000 -1.747
55.10000 -2.582
55.12000 0.006
55.14000 -1.374
55.16000 -0.724
55.18000 -1.923
55.20000 -2.242
55.22000 1.398
55.24000 -1.570
55.26000 -1.452
55.28000 4.487
55.30000 5.918
55.32000 -1.425
55.34000 -2.219
55.36000 0.656
55.38000 4.549
55.40000 8.202
55.42000 6.491
55.44000 5.700
55.46000 1.538
55.48000 -1.663
55.50000 -1.616
55.52000 0.239
55.54000 3.479
55.56000 -0.710
55.58000 0.817
55.60000 -1.271
55.62000 -0.053
55.64000 1.140
55.66000 4.215
55.68000 5.734
55.70000 2.444
55.72000 -0.269
55.74000 2.433
55.76000 3.868
55.78000 6.055
55.80000 2.590
55.82000 -2.166
55.84000 1.463
55.86000 3.685
55.88000 -0.190
55.90000 -0.304
55.92000 -1.585
55.94000 1.156
55.96000 5.263
55.98000 4.797
56.00000 2.275
56.02000 2.542
56.04000 9.582
56.06000 3.364
56.08000 -0.274
56.10000 1.422
56.12000 0.076
56.14000 0.822
56.16000 2.808
56.18000 4.407
56.20000 1.463
56.22000 -2.522
56.24000 0.515
56.26000 3.054
56.28000 3.671
56.30000 0.588
56.32000 3.496
56.34000 3.326
56.36000 0.451
56.38000 1.596
56.40000 6.363
56.42000 3.566
56.44000 1.553
56.46000 4.914
56.48000 3.387
56.50000 4.112
56.52000 7.945
56.54000 3.834
56.56000 2.545
56.58000 -1.644
56.60000 -0.875
56.62000 3.911
56.64000 3.893
56.66000 -0.885
56.68000 3.808
56.70000 6.215
56.72000 6.830
56.74000 6.075
56.76000 5.311
56.78000 6.148
56.80000 4.042
56.82000 1.798
56.84000 4.973
56.86000 5.720
56.88000 4.765
56.90000 7.069
56.92000 5.094
56.94000 5.025
56.96000 2.612
56.98000 1.201
57.00000 -0.037
57.02000 0.235
57.04000 1.076
57.06000 1.301
57.08000 -0.111
57.10000 -2.322
57.12000 -0.549
57.14000 0.011
57.16000 4.266
57.18000 4.412
57.20000 6.296
57.22000 5.340
57.24000 0.405
57.26000 -0.941
57.28000 -0.067
57.30000 4.126
57.32000 3.255
57.34000 5.231
57.36000 1.749
57.38000 1.447
57.40000 1.627
57.42000 4.558
57.44000 5.586
57.46000 3.975
57.48000 0.167
57.50000 6.155
57.52000 7.581
57.54000 5.468
57.56000 5.789
57.58000 2.256
57.60000 3.622
57.62000 7.153
57.64000 3.114
57.66000 2.288
57.68000 7.127
57.70000 5.993
57.72000 8.436
57.74000 6.666
57.76000 7.622
57.78000 6.221
57.80000 5.375
57.82000 7.830
57.84000 5.425
57.86000 0.185
57.88000 -2.381
57.90000 2.929
57.92000 6.745
57.94000 10.252
57.96000 6.215
57.98000 5.658
58.00000 7.090
58.02000 3.129
58.04000 7.637
58.06000 9.201
58.08000 3.720
58.10000 6.230
58.12000 6.695
58.14000 5.561
58.16000 6.361
58.18000 8.480
58.20000 6.182
58.22000 6.356
58.24000 5.238
58.26000 4.775
58.28000 6.524
58.30000 4.843
58.32000 4.634
58.34000 2.551
58.36000 1.404
58.38000 1.112
58.40000 0.992
58.42000 6.734
58.44000 9.626
58.46000 2.773
58.48000 4.936
58.50000 7.908
58.52000 5.795
58.54000 3.202
58.56000 2.411
58.58000 0.809
58.60000 0.168
58.62000 1.522
58.64000 2.905
58.66000 1.966
58.68000 2.081
58.70000 2.718
58.72000 6.740
58.74000 5.846
58.76000 1.517
58.78000 3.105
58.80000 0.009
58.82000 2.766
58.84000 5.544
58.86000 4.895
58.88000 3.766
58.90000 1.086
58.92000 0.126
58.94000 1.587
58.96000 3.683
58.98000 2.410
59.00000 3.687
59.02000 3.177
59.04000 1.213
59.06000 -0.982
59.08000 -1.584
59.10000 1.184
59.12000 -0.849
59.14000 0.931
59.16000 3.391
59.18000 2.290
59.20000 3.007
59.22000 5.387
59.24000 6.123
59.26000 1.146
59.28000 2.187
59.30000 1.911
59.32000 7.611
59.34000 0.642
59.36000 -0.837
59.38000 0.940
59.40000 1.930
59.42000 4.984
59.44000 4.626
59.46000 3.609
59.48000 2.990
59.50000 1.701
59.52000 3.083
59.54000 4.345
59.56000 4.368
59.58000 5.091
59.60000 4.282
59.62000 6.239
59.64000 -1.382
59.66000 0.950
59.68000 3.370
59.70000 1.861
59.72000 -0.254
59.74000 -0.762
59.76000 2.942
59.78000 2.464
59.80000 2.732
59.82000 3.365
59.84000 3.225
59.86000 0.905
59.88000 -1.387
59.90000 1.790
59.92000 2.917
59.94000 5.113
59.96000 1.358
59.98000 3.243
60.00000 2.751
60.02000 4.647
60.04000 4.763
60.06000 -0.210
60.08000 0.234
60.10000 3.576
60.12000 5.190
60.14000 5.093
60.16000 5.047
60.18000 1.963
60.20000 3.385
60.22000 3.901
60.24000 4.032
60.26000 4.148
60.28000 0.033
60.30000 -2.373
60.32000 -1.489
60.34000 -1.063
60.36000 0.247
60.38000 -0.474
60.40000 3.147
60.42000 3.724
60.44000 2.654
60.46000 4.219
60.48000 1.239
60.50000 2.134
60.52000 3.211
60.54000 1.000
60.56000 1.671
60.58000 2.649
60.60000 3.230
60.62000 4.989
60.64000 2.687
60.66000 0.024
60.68000 0.423
60.70000 3.567
60.72000 3.059
60.74000 3.542
60.76000 4.697
60.78000 4.223
60.80000 3.045
60.82000 1.427
60.84000 2.056
60.86000 3.588
60.88000 0.661
60.90000 -1.370
60.92000 0.319
60.94000 -2.341
60.96000 -0.775
60.98000 0.485
61.00000 -0.074
61.02000 4.299
61.04000 2.653
61.06000 2.077
61.08000 5.522
61.10000 5.762
61.12000 2.666
61.14000 -0.873
61.16000 2.005
61.18000 4.918
61.20000 4.726
61.22000 1.381
61.24000 1.790
61.26000 2.360
61.28000 1.917
61.30000 1.046
61.32000 3.787
61.34000 7.246
61.36000 5.816
61.38000 5.358
61.40000 5.247
61.42000 3.758
61.44000 4.285
61.46000 2.955
61.48000 2.610
61.50000 4.752
61.52000 3.678
61.54000 3.852
61.56000 3.092
61.58000 4.070
61.60000 2.166
61.62000 -1.175
61.64000 2.724
61.66000 2.294
61.68000 5.492
61.70000 3.931
61.72000 5.767
61.74000 6.712
61.76000 3.176
61.78000 -0.516
61.80000 1.472
61.82000 1.999
61.84000 4.559
61.86000 3.091
61.88000 3.990
61.90000 5.004
61.92000 2.228
61.94000 -0.247
61.96000 0.406
61.98000 2.577
62.00000 1.030
62.02000 -1.519
62.04000 -2.316
62.06000 3.919
62.08000 2.316
62.10000 6.343
62.12000 5.268
62.14000 6.154
62.16000 5.258
62.18000 3.438
62.20000 6.077
62.22000 2.988
62.24000 5.357
62.26000 5.117
62.28000 3.204
62.30000 -0.639
62.32000 0.474
62.34000 2.170
62.36000 0.358
62.38000 -0.650
62.40000 -2.323
62.42000 4.756
62.44000 3.811
62.46000 3.058
62.48000 3.043
62.50000 4.107
62.52000 2.414
62.54000 3.619
62.56000 3.225
62.58000 4.278
62.60000 4.523
62.62000 3.579
62.64000 1.431
62.66000 1.238
62.68000 3.654
62.70000 4.145
62.72000 2.020
62.74000 0.581
62.76000 4.072
62.78000 2.445
62.80000 1.334
62.82000 0.387
62.84000 1.069
62.86000 5.386
62.88000 3.158
62.90000 1.501
62.92000 3.191
62.94000 3.334
62.96000 -2.329
62.98000 -1.674
63.00000 0.960
63.02000 1.098
63.04000 -1.618
63.06000 0.963
63.08000 1.687
63.10000 1.238
63.12000 0.608
63.14000 2.837
63.16000 5.173
63.18000 1.179
63.20000 1.615
63.22000 2.167
63.24000 -1.202
63.26000 1.598
63.28000 2.678
63.30000 4.163
63.32000 0.293
63.34000 -1.459
63.36000 -1.150
63.38000 2.134
63.40000 4.625
63.42000 0.113
63.44000 0.041
63.46000 1.747
63.48000 1.422
63.50000 1.738
63.52000 -0.072
63.54000 -2.195
63.56000 -0.138
63.58000 -0.566
63.60000 0.527
63.62000 0.591
63.64000 0.567
63.66000 3.702
63.68000 3.157
63.70000 0.846
63.72000 -0.131
63.74000 0.377
63.76000 2.382
63.78000 0.048
63.80000 1.835
63.82000 2.087
63.84000 0.046
63.86000 -0.001
63.88000 -0.798
63.90000 1.332
63.92000 0.124
63.94000 0.465
63.96000 0.181
63.98000 2.756
64.00000 4.491
64.02000 -0.051
64.04000 0.690
64.06000 -0.688
64.08000 -0.788
64.10000 -1.328
64.12000 0.664
64.14000 1.516
64.16000 -0.048
64.18000 0.551
64.20000 -0.243
64.22000 0.147
64.24000 -1.522
64.26000 -0.560
64.28000 -0.817
64.30000 1.571
64.32000 2.139
64.34000 0.791
64.36000 -2.337
64.38000 1.004
64.40000 -0.356
64.42000 2.106
64.44000 1.457
64.46000 -1.183
64.48000 0.498
64.50000 0.179
64.52000 2.139
64.54000 1.701
64.56000 1.228
64.58000 1.244
64.60000 1.516
64.62000 2.009
64.64000 2.122
64.66000 4.993
64.68000 2.068
64.70000 1.888
64.72000 3.868
64.74000 1.747
64.76000 2.076
64.78000 2.820
64.80000 1.527
64.82000 1.705
64.84000 -2.339
64.86000 0.327
64.88000 0.679
64.90000 1.548
64.92000 1.083
64.94000 -0.291
64.96000 1.089
64.98000 1.223
65.00000 0.912
65.02000 1.856
65.04000 2.928
65.06000 3.512
65.08000 0.806
65.10000 4.224
65.12000 4.854
65.14000 2.085
65.16000 1.627
65.18000 2.807
65.20000 -0.177
65.22000 -0.248
65.24000 5.788
65.26000 5.760
65.28000 3.421
65.30000 0.123
65.32000 1.654
65.34000 1.183
65.36000 -1.596
65.38000 1.406
65.40000 3.605
65.42000 6.119
65.44000 7.386
65.46000 6.869
65.48000 6.534
65.50000 3.632
65.52000 0.767
65.54000 2.148
65.56000 3.778
65.58000 6.829
65.60000 9.680
65.62000 6.747
65.64000 7.261
65.66000 3.465
65.68000 7.469
65.70000 9.783
65.72000 9.667
65.74000 9.078
65.76000 6.009
65.78000 4.018
65.80000 7.294
65.82000 7.969
65.84000 5.983
65.86000 6.648
65.88000 6.039
65.90000 4.999
65.92000 8.639
65.94000 6.004
65.96000 2.399
65.98000 3.814
66.00000 7.872
66.02000 10.189
66.04000 7.208
66.06000 5.025
66.08000 5.380
66.10000 1.728
66.12000 3.456
66.14000 4.163
66.16000 2.911
66.18000 2.737
66.20000 3.272
66.22000 3.887
66.24000 2.210
66.26000 1.650
66.28000 2.464
66.30000 6.346
66.32000 4.499
66.34000 1.352
66.36000 1.116
66.38000 0.249
66.40000 1.405
66.42000 0.123
66.44000 3.186
66.46000 5.290
66.48000 1.811
66.50000 0.279
66.52000 0.291
66.54000 2.416
66.56000 2.431
66.58000 2.589
66.60000 0.985
66.62000 -0.835
66.64000 -1.810
66.66000 -1.485
66.68000 1.588
66.70000 1.811
66.72000 0.681
66.74000 1.165
66.76000 2.346
66.78000 1.497
66.80000 -1.537
66.82000 0.721
66.84000 3.206
66.86000 3.058
66.88000 4.164
66.90000 3.503
66.92000 3.117
66.94000 3.827
66.96000 1.228
66.98000 1.726
67.00000 -0.942
67.02000 -2.209
67.04000 1.279
67.06000 2.028
67.08000 -0.540
67.10000 -2.249
67.12000 0.915
67.14000 2.990
67.16000 4.534
67.18000 3.556
67.20000 2.993
67.22000 0.730
67.24000 -2.240
67.26000 -1.390
67.28000 0.244
67.30000 3.610
67.32000 2.744
67.34000 4.378
67.36000 2.382
67.38000 3.137
67.40000 4.226
67.42000 1.099
67.44000 1.808
67.46000 2.722
67.48000 -0.917
67.50000 0.032
67.52000 1.771
67.54000 2.935
67.56000 3.519
67.58000 2.586
67.60000 -0.024
67.62000 0.430
67.64000 2.034
67.66000 -1.042
67.68000 0.000
67.70000 2.777
67.72000 -0.120
67.74000 -2.217
67.76000 -0.557
67.78000 0.372
67.80000 0.209
67.82000 1.177
67.84000 2.059
67.86000 4.390
67.88000 2.541
67.90000 -0.489
67.92000 3.523
67.94000 5.408
67.96000 3.290
67.98000 1.122
68.00000 0.335
68.02000 -0.196
68.04000 1.389
68.06000 1.343
68.08000 -0.202
68.10000 2.299
68.12000 1.275
68.14000 2.466
68.16000 1.459
68.18000 0.168
68.20000 0.976
68.22000 0.146
68.24000 2.053
68.26000 3.467
68.28000 0.334
68.30000 -0.131
68.32000 1.606
68.34000 0.779
68.36000 0.287
68.38000 1.085
68.40000 3.409
68.42000 4.680
68.44000 2.962
68.46000 -2.167
68.48000 -1.303
68.50000 0.714
68.52000 3.441
68.54000 3.572
68.56000 2.658
68.58000 3.765
68.60000 3.504
68.62000 2.814
68.64000 3.844
68.66000 5.412
68.68000 6.051
68.70000 3.820
68.72000 0.726
68.74000 1.217
68.76000 4.278
68.78000 2.469
68.80000 0.211
68.82000 -0.895
68.84000 3.070
68.86000 3.337
68.88000 2.119
68.90000 0.232
68.92000 2.108
68.94000 0.658
68.96000 -2.168
68.98000 -1.268
69.00000 -1.749
69.02000 2.519
69.04000 2.062
69.06000 0.283
69.08000 0.963
69.10000 4.611
69.12000 3.204
69.14000 0.032
69.16000 0.381
69.18000 0.214
69.20000 -0.490
69.22000 -1.117
69.24000 1.002
69.26000 -1.483
69.28000 0.878
69.30000 1.108
69.32000 0.049
69.34000 0.952
69.36000 -0.389
69.38000 -0.314
69.40000 -1.681
69.42000 -0.438
69.44000 -0.856
69.46000 -0.184
69.48000 -0.106
69.50000 -0.873
69.52000 0.341
69.54000 0.510
69.56000 0.095
69.58000 0.343
69.60000 -1.738
69.62000 -1.274
69.64000 -0.441
69.66000 -1.759
69.68000 0.441
69.70000 1.670
69.72000 -1.204
69.74000 -0.436
69.76000 1.242
69.78000 -0.059
69.80000 1.454
69.82000 0.799
69.84000 0.293
69.86000 0.896
69.88000 1.200
69.90000 1.594
69.92000 0.749
69.94000 -0.258
69.96000 2.496
69.98000 2.440
70.00000 1.046
70.02000 3.821
70.04000 1.154
70.06000 0.542
70.08000 -0.751
70.10000 1.631
70.12000 0.567
70.14000 -2.156
70.16000 -1.744
70.18000 1.934
70.20000 0.267
70.22000 2.422
70.24000 -1.364
70.26000 -1.169
70.28000 0.831
70.30000 1.388
70.32000 -0.114
70.34000 0.345
70.36000 -0.499
70.38000 -0.452
70.40000 0.804
70.42000 -0.696
70.44000 -0.934
70.46000 2.530
70.48000 1.163
70.50000 -0.765
70.52000 -0.427
70.54000 -0.495
70.56000 1.739
70.58000 1.283
70.60000 -0.638
70.62000 0.407
70.64000 0.350
70.66000 -0.974
70.68000 -1.141
70.70000 0.676
70.72000 1.262
70.74000 1.929
70.76000 0.372
70.78000 0.190
70.80000 2.195
70.82000 1.370
70.84000 1.162
70.86000 -1.855
70.88000 -0.970
70.90000 -1.248
70.92000 0.039
70.94000 1.319
70.96000 0.021
70.98000 -0.666
71.00000 1.037
71.02000 -0.557
71.04000 -2.102
71.06000 -0.110
71.08000 -0.071
71.10000 1.302
71.12000 3.351
71.14000 1.739
71.16000 -0.734
71.18000 -0.855
71.20000 0.169
71.22000 -1.669
71.24000 -0.911
71.26000 2.976
71.28000 4.230
71.30000 2.838
71.32000 2.096
71.34000 3.798
71.36000 3.180
71.38000 0.670
71.40000 0.363
71.42000 1.356
71.44000 1.086
71.46000 0.718
71.48000 1.702
71.50000 3.425
71.52000 1.431
71.54000 0.443
71.56000 2.454
71.58000 1.583
71.60000 2.252
71.62000 2.087
71.64000 -0.083
71.66000 0.823
71.68000 0.678
71.70000 0.590
71.72000 1.422
71.74000 1.795
71.76000 2.829
71.78000 1.420
71.80000 -0.445
71.82000 -1.136
71.84000 0.686
71.86000 1.115
71.88000 0.680
71.90000 1.056
71.92000 2.691
71.94000 0.573
71.96000 -1.478
71.98000 1.602
72.00000 3.889
72.02000 3.523
72.04000 3.854
72.06000 -1.192
72.08000 -1.316
72.10000 1.885
72.12000 5.072
72.14000 3.627
72.16000 1.130
72.18000 1.983
72.20000 2.144
72.22000 0.685
72.24000 0.570
72.26000 3.719
72.28000 2.569
72.30000 0.245
72.32000 -0.650
72.34000 2.726
72.36000 1.853
72.38000 -0.791
72.40000 4.330
72.42000 2.040
72.44000 -1.153
72.46000 0.787
72.48000 0.488
72.50000 1.369
72.52000 2.462
72.54000 4.016
72.56000 3.685
72.58000 1.276
72.60000 -1.912
72.62000 -2.018
72.64000 1.418
72.66000 -0.076
72.68000 0.689
72.70000 3.849
72.72000 4.341
72.74000 5.631
72.76000 3.305
72.78000 2.164
72.80000 0.364
72.82000 2.094
72.84000 2.000
72.86000 2.401
72.88000 3.634
72.90000 3.423
72.92000 4.653
72.94000 3.080
72.96000 5.886
72.98000 1.422
73.00000 0.473
73.02000 -1.336
73.04000 0.031
73.06000 1.959
73.08000 0.037
73.10000 1.310
73.12000 0.387
73.14000 0.326
73.16000 1.940
73.18000 0.222
73.20000 1.828
73.22000 1.909
73.24000 2.898
73.26000 1.212
73.28000 -1.099
73.30000 1.475
73.32000 2.077
73.34000 1.812
73.36000 2.656
73.38000 1.149
73.40000 -0.363
73.42000 3.661
73.44000 3.483
73.46000 1.816
73.48000 1.149
73.50000 2.154
73.52000 5.821
73.54000 2.950
73.56000 -0.379
73.58000 2.462
73.60000 0.155
73.62000 0.330
73.64000 4.232
73.66000 0.295
73.68000 2.041
73.70000 2.254
73.72000 -2.032
73.74000 2.227
73.76000 4.720
73.78000 4.411
73.80000 3.316
73.82000 2.055
73.84000 1.278
73.86000 2.011
73.88000 3.867
73.90000 3.724
73.92000 2.448
73.94000 1.948
73.96000 3.224
73.98000 3.676
74.00000 -1.018
74.02000 -0.250
74.04000 0.288
74.06000 1.379
74.08000 0.987
74.10000 3.969
74.12000 -0.980
74.14000 -1.119
74.16000 3.964
74.18000 -0.047
74.20000 0.795
74.22000 3.319
74.24000 3.221
74.26000 0.347
74.28000 0.928
74.30000 -0.297
74.32000 0.246
74.34000 -0.178
74.36000 -1.881
74.38000 -0.706
74.40000 2.538
74.42000 1.724
74.44000 1.164
74.46000 1.123
74.48000 1.407
74.50000 1.776
74.52000 -2.041
74.54000 0.664
74.56000 2.219
74.58000 1.005
74.60000 -0.557
74.62000 0.872
74.64000 3.174
74.66000 3.838
74.68000 -0.128
74.70000 0.678
74.72000 2.192
74.74000 1.209
74.76000 1.678
74.78000 2.299
74.80000 2.498
74.82000 0.696
74.84000 0.180
74.86000 0.296
74.88000 2.296
74.90000 3.728
74.92000 1.299
74.94000 -0.699
74.96000 3.414
74.98000 2.107
75.00000 4.413
75.02000 4.573
75.04000 4.774
75.06000 6.700
75.08000 5.506
75.10000 -0.213
75.12000 -2.031
75.14000 -1.095
75.16000 3.223
75.18000 4.723
75.20000 5.153
75.22000 3.577
75.24000 2.056
75.26000 -1.762
75.28000 1.297
75.30000 5.017
75.32000 5.941
75.34000 2.218
75.36000 2.147
75.38000 3.558
75.40000 3.069
75.42000 2.605
75.44000 1.016
75.46000 -0.085
75.48000 -1.886
75.50000 2.079
75.52000 0.690
75.54000 -0.776
75.56000 3.902
75.58000 1.475
75.60000 -2.061
75.62000 -0.659
75.64000 -0.184
75.66000 -0.166
75.68000 2.605
75.70000 0.644
75.72000 0.313
75.74000 4.312
75.76000 0.722
75.78000 2.958
75.80000 2.742
75.82000 2.255
75.84000 2.845
75.86000 -1.130
75.88000 -2.066
75.90000 0.552
75.92000 2.151
75.94000 -0.274
75.96000 3.275
75.98000 5.663
76.00000 2.751
76.02000 1.331
76.04000 1.303
76.06000 1.460
76.08000 3.452
76.10000 0.868
76.12000 -0.770
76.14000 -1.486
76.16000 1.056
76.18000 1.360
76.20000 1.948
76.22000 3.446
76.24000 0.519
76.26000 1.263
76.28000 3.368
76.30000 2.468
76.32000 3.804
76.34000 5.466
76.36000 3.495
76.38000 1.079
76.40000 1.224
76.42000 2.263
76.44000 1.559
76.46000 -0.095
76.48000 0.478
76.50000 -0.441
76.52000 -0.448
76.54000 -2.109
76.56000 0.492
76.58000 1.121
76.60000 0.669
76.62000 1.655
76.64000 3.202
76.66000 5.752
76.68000 1.580
76.70000 -2.114
76.72000 2.249
76.74000 -0.654
76.76000 -2.120
76.78000 1.035
76.80000 5.559
76.82000 2.354
76.84000 1.022
76.86000 0.808
76.88000 0.338
76.90000 1.060
76.92000 5.155
76.94000 2.182
76.96000 1.079
76.98000 0.667
77.00000 2.684
77.02000 2.388
77.04000 3.731
77.06000 1.239
77.08000 -1.136
77.10000 -0.382
77.12000 -0.064
77.14000 1.824
77.16000 1.928
77.18000 2.245
77.20000 0.457
77.22000 -0.408
77.24000 3.788
77.26000 4.190
77.28000 2.029
77.30000 2.244
77.32000 1.932
77.34000 2.073
77.36000 -2.172
77.38000 -0.866
77.40000 2.047
77.42000 -0.720
77.44000 1.368
77.46000 0.531
77.48000 0.175
77.50000 -0.322
77.52000 0.912
77.54000 3.505
77.56000 1.057
77.58000 1.720
77.60000 2.239
77.62000 3.528
77.64000 2.812
77.66000 1.659
77.68000 2.863
77.70000 4.001
77.72000 3.356
77.74000 3.923
77.76000 3.982
77.78000 0.932
77.80000 3.138
77.82000 1.996
77.84000 2.736
77.86000 -0.635
77.88000 -1.670
77.90000 -2.233
77.92000 1.903
77.94000 0.023
77.96000 -1.470
77.98000 -0.788
78.00000 1.952
78.02000 2.417
78.04000 1.164
78.06000 3.202
78.08000 5.290
78.10000 4.230
78.12000 5.258
78.14000 3.268
78.16000 0.561
78.18000 1.527
78.20000 2.147
78.22000 4.499
78.24000 3.284
78.26000 4.926
78.28000 6.198
78.30000 6.043
78.32000 5.597
78.34000 4.908
78.36000 5.335
78.38000 6.376
78.40000 6.066
78.42000 10.352
78.44000 10.075
78.46000 10.769
78.48000 10.286
78.50000 11.293
78.52000 11.901
78.54000 8.612
78.56000 8.108
78.58000 10.502
78.60000 13.294
78.62000 16.593
78.64000 14.275
78.66000 16.445
78.68000 18.909
78.70000 22.825
78.72000 21.178
78.74000 19.181
78.76000 20.135
78.78000 18.689
78.80000 19.183
78.82000 18.332
78.84000 19.508
78.86000 23.219
78.88000 30.682
78.90000 31.000
78.92000 26.845
78.94000 24.301
78.96000 24.888
78.98000 23.357
79.00000 30.393
79.02000 29.401
79.04000 30.724
79.06000 31.599
79.08000 34.232
79.10000 35.953
79.12000 31.881
79.14000 32.170
79.16000 30.054
79.18000 30.468
79.20000 31.684
79.22000 33.073
79.24000 30.001
79.26000 30.240
79.28000 29.852
79.30000 26.426
79.32000 27.857
79.34000 24.397
79.36000 25.580
79.38000 21.691
79.40000 17.959
79.42000 20.865
79.44000 23.383
79.46000 22.788
79.48000 20.474
79.50000 19.625
79.52000 19.307
79.54000 22.249
79.56000 17.713
79.58000 18.105
79.60000 18.089
79.62000 16.241
79.64000 16.600
79.66000 12.089
79.68000 10.171
79.70000 10.210
79.72000 11.078
79.74000 8.840
79.76000 10.405
79.78000 10.028
79.80000 7.366
79.82000 7.904
79.84000 6.957
79.86000 8.829
79.88000 6.154
79.90000 9.693
79.92000 9.136
79.94000 6.957
79.96000 5.890
79.98000 3.052
80.00000 2.663
80.02000 4.342
80.04000 5.537
80.06000 6.760
80.08000 4.459
80.10000 2.245
80.12000 1.819
80.14000 6.615
80.16000 6.824
80.18000 4.070
80.20000 1.677
80.22000 5.501
80.24000 3.944
80.26000 2.444
80.28000 1.705
80.30000 3.311
80.32000 1.236
80.34000 -1.820
80.36000 1.313
80.38000 -0.679
80.40000 0.111
80.42000 3.586
80.44000 3.460
80.46000 1.000
80.48000 1.507
80.50000 1.551
80.52000 0.705
80.54000 2.924
80.56000 4.696
80.58000 -1.696
80.60000 -0.747
80.62000 -2.357
80.64000 -0.686
80.66000 1.651
80.68000 0.978
80.70000 0.131
80.72000 0.481
80.74000 2.264
80.76000 0.115
80.78000 4.041
80.80000 3.015
80.82000 3.038
80.84000 1.983
80.86000 1.780
80.88000 -2.251
80.90000 -2.203
80.92000 -1.877
80.94000 -2.358
80.96000 0.805
80.98000 -0.131
81.00000 0.502
81.02000 -1.020
81.04000 -0.012
81.06000 1.278
81.08000 -0.130
81.10000 2.052
81.12000 1.150
81.14000 -0.892
81.16000 -1.073
81.18000 -1.166
81.20000 1.985
81.22000 -1.705
81.24000 -0.401
81.26000 -1.347
81.28000 0.767
81.30000 1.033
81.32000 1.229
81.34000 2.986
81.36000 2.047
81.38000 -0.051
81.40000 -0.595
81.42000 1.919
81.44000 2.223
81.46000 2.620
81.48000 3.068
81.50000 10.858
81.52000 8.125
81.54000 3.709
81.56000 4.327
81.58000 5.034
81.60000 4.638
81.62000 1.708
81.64000 5.910
81.66000 5.087
81.68000 6.782
81.70000 8.452
81.72000 7.858
81.74000 9.662
81.76000 7.209
81.78000 2.248
81.80000 2.029
81.82000 5.771
81.84000 8.567
81.86000 9.822
81.88000 8.184
81.90000 9.235
81.92000 11.512
81.94000 10.005
81.96000 6.801
81.98000 6.732
82.00000 7.333
82.02000 6.513
82.04000 8.938
82.06000 4.507
82.08000 7.374
82.10000 9.884
82.12000 10.444
82.14000 9.590
82.16000 13.590
82.18000 13.203
82.20000 12.306
82.22000 10.383
82.24000 11.557
82.26000 12.328
82.28000 14.202
82.30000 15.425
82.32000 16.779
82.34000 19.109
82.36000 22.670
82.38000 16.835
82.40000 18.168
82.42000 21.710
82.44000 23.241
82.46000 20.596
82.48000 24.658
82.50000 22.904
82.52000 19.703
82.54000 24.725
82.56000 26.803
82.58000 26.566
82.60000 28.147
82.62000 30.867
82.64000 30.928
82.66000 32.575
82.68000 39.781
82.70000 40.400
82.72000 38.818
82.74000 41.475
82.76000 41.777
82.78000 43.161
82.80000 46.886
82.82000 47.765
82.84000 48.922
82.86000 46.961
82.88000 50.275
82.90000 54.711
82.92000 59.827
82.94000 63.076
82.96000 70.717
82.98000 66.122
83.00000 67.992
83.02000 67.864
83.04000 62.336
83.06000 63.078
83.08000 69.816
83.10000 76.085
83.12000 77.522
83.14000 81.071
83.16000 83.911
83.18000 79.249
83.20000 89.055
83.22000 88.718
83.24000 87.748
83.26000 84.342
83.28000 83.419
83.30000 84.879
83.32000 76.775
83.34000 83.759
83.36000 81.658
83.38000 81.873
83.40000 80.678
83.42000 78.690
83.44000 74.595
83.46000 73.718
83.48000 72.981
83.50000 73.930
83.52000 69.215
83.54000 67.923
83.56000 64.798
83.58000 63.825
83.60000 55.702
83.62000 52.591
83.64000 53.465
83.66000 50.580
83.68000 51.583
83.70000 53.306
83.72000 54.585
83.74000 47.339
83.76000 41.481
83.78000 36.965
83.80000 36.554
83.82000 36.316
83.84000 31.776
83.86000 31.863
83.88000 30.710
83.90000 27.600
83.92000 26.040
83.94000 30.302
83.96000 25.694
83.98000 22.077
84.00000 22.168
84.02000 24.990
84.04000 23.237
84.06000 20.524
84.08000 17.565
84.10000 14.441
84.12000 14.331
84.14000 10.309
84.16000 11.479
84.18000 12.384
84.20000 17.493
84.22000 11.608
84.24000 10.774
84.26000 9.981
84.28000 6.148
84.30000 8.243
84.32000 7.534
84.34000 6.011
84.36000 5.888
84.38000 3.267
84.40000 4.584
84.42000 3.519
84.44000 4.315
84.46000 3.668
84.48000 2.397
84.50000 6.135
84.52000 6.979
84.54000 4.621
84.56000 5.545
84.58000 5.653
84.60000 4.887
84.62000 2.800
84.64000 5.337
84.66000 2.959
84.68000 0.471
84.70000 1.368
84.72000 2.164
84.74000 3.489
84.76000 1.336
84.78000 3.011
84.80000 -2.159
84.82000 -0.981
84.84000 1.742
84.86000 0.644
84.88000 0.550
84.90000 0.649
84.92000 -0.341
84.94000 -0.538
84.96000 2.044
84.98000 1.522
85.00000 -0.868
85.02000 -1.899
85.04000 -1.057
85.06000 1.011
85.08000 -0.318
85.10000 0.748
85.12000 -1.789
85.14000 -0.192
85.16000 3.098
85.18000 0.697
85.20000 1.233
85.22000 1.793
85.24000 -2.096
85.26000 -0.408
85.28000 -0.283
85.30000 0.270
85.32000 0.656
85.34000 2.960
85.36000 1.560
85.38000 -1.806
85.40000 -0.565
85.42000 2.213
85.44000 -0.434
85.46000 -1.275
85.48000 -2.079
85.50000 -0.151
85.52000 0.822
85.54000 0.671
85.56000 -0.182
85.58000 0.661
85.60000 3.581
85.62000 3.127
85.64000 -0.565
85.66000 -1.268
85.68000 -1.988
85.70000 0.265
85.72000 2.764
85.74000 2.405
85.76000 1.073
85.78000 -0.293
85.80000 0.609
85.82000 -0.890
85.84000 0.011
85.86000 1.573
85.88000 -0.160
85.90000 0.950
85.92000 -0.672
85.94000 3.830
85.96000 -0.301
85.98000 -0.538
86.00000 -1.872
86.02000 -1.737
86.04000 0.571
86.06000 0.629
86.08000 0.486
86.10000 2.329
86.12000 0.002
86.14000 -0.351
86.16000 -1.196
86.18000 -0.732
86.20000 2.120
86.22000 1.412
86.24000 2.699
86.26000 -0.052
86.28000 0.557
86.30000 1.783
86.32000 2.791
86.34000 -0.262
86.36000 2.457
86.38000 0.435
86.40000 -0.144
86.42000 2.421
86.44000 5.165
86.46000 1.796
86.48000 -0.948
86.50000 -0.722
86.52000 2.149
86.54000 1.899
86.56000 2.894
86.58000 2.931
86.60000 0.685
86.62000 -1.224
86.64000 -1.964
86.66000 0.836
86.68000 -1.276
86.70000 -0.134
86.72000 -0.303
86.74000 0.227
86.76000 0.679
86.78000 2.388
86.80000 3.578
86.82000 0.471
86.84000 1.271
86.86000 2.989
86.88000 2.398
86.90000 2.665
86.92000 3.952
86.94000 2.653
86.96000 -0.188
86.98000 -1.948
87.00000 0.155
87.02000 0.799
87.04000 1.906
87.06000 1.650
87.08000 1.545
87.10000 3.376
87.12000 2.193
87.14000 0.677
87.16000 1.886
87.18000 1.569
87.20000 3.378
87.22000 2.744
87.24000 2.081
87.26000 4.988
87.28000 2.374
87.30000 3.265
87.32000 3.111
87.34000 2.964
87.36000 1.799
87.38000 1.686
87.40000 0.573
87.42000 -1.337
87.44000 0.523
87.46000 1.664
87.48000 -0.007
87.50000 1.026
87.52000 -1.907
87.54000 -0.395
87.56000 0.555
87.58000 0.438
87.60000 3.185
87.62000 4.271
87.64000 4.704
87.66000 2.907
87.68000 3.295
87.70000 0.948
87.72000 1.554
87.74000 1.417
87.76000 1.075
87.78000 3.212
87.80000 3.721
87.82000 -0.335
87.84000 0.736
87.86000 2.935
87.88000 1.587
87.90000 2.534
87.92000 1.471
87.94000 3.649
87.96000 3.224
87.98000 0.742
88.00000 0.268
88.02000 0.960
88.04000 2.070
88.06000 3.280
88.08000 3.171
88.10000 4.759
88.12000 5.483
88.14000 5.159
88.16000 0.501
88.18000 3.717
88.20000 4.941
88.22000 1.456
88.24000 2.354
88.26000 2.479
88.28000 -0.738
88.30000 -1.884
88.32000 -0.253
88.34000 1.971
88.36000 3.607
88.38000 4.467
88.40000 2.783
88.42000 4.496
88.44000 3.401
88.46000 7.286
88.48000 4.327
88.50000 4.146
88.52000 2.956
88.54000 0.856
88.56000 2.744
88.58000 5.222
88.60000 0.460
88.62000 -0.882
88.64000 -0.273
88.66000 2.184
88.68000 5.818
88.70000 3.444
88.72000 2.607
88.74000 0.676
88.76000 -0.959
88.78000 0.336
88.80000 3.588
88.82000 0.279
88.84000 -0.402
88.86000 -0.325
88.88000 1.083
88.90000 1.224
88.92000 0.854
88.94000 3.781
88.96000 1.275
88.98000 1.959
89.00000 2.786
89.02000 3.942
89.04000 1.573
89.06000 1.871
89.08000 4.269
89.10000 3.003
89.12000 1.823
89.14000 -0.317
89.16000 1.926
89.18000 3.104
89.20000 2.247
89.22000 0.381
89.24000 -0.533
89.26000 1.561
89.28000 -0.365
89.30000 0.796
89.32000 2.395
89.34000 0.568
89.36000 3.335
89.38000 2.182
89.40000 1.719
89.42000 1.624
89.44000 -0.817
89.46000 -0.659
89.48000 0.640
89.50000 0.139
89.52000 2.418
89.54000 1.577
89.56000 0.578
89.58000 3.015
89.60000 -1.829
89.62000 2.736
89.64000 1.529
89.66000 3.571
89.68000 -1.394
89.70000 0.381
89.72000 6.921
89.74000 7.099
89.76000 1.596
89.78000 1.465
89.80000 0.734
89.82000 -1.624
89.84000 0.959
89.86000 1.095
89.88000 2.374
89.90000 0.389
89.92000 -1.454
89.94000 1.275
89.96000 2.034
89.98000 1.805
90.00000 0.245
90.02000 -1.896
90.04000 0.225
90.06000 3.249
90.08000 2.286
90.10000 -1.131
90.12000 -0.576
90.14000 2.424
90.16000 3.825
90.18000 3.793
90.20000 3.097
90.22000 1.236
90.24000 1.066
90.26000 3.727
90.28000 3.228
90.30000 2.695
90.32000 2.035
90.34000 1.695
90.36000 1.367
90.38000 1.150
90.40000 0.783
90.42000 1.474
90.44000 0.340
90.46000 2.157
90.48000 2.257
90.50000 3.697
90.52000 3.681
90.54000 1.846
90.56000 1.090
90.58000 1.895
90.60000 1.903
90.62000 2.150
90.64000 0.727
90.66000 2.718
90.68000 1.961
90.70000 -1.879
90.72000 -0.652
90.74000 0.939
90.76000 -0.025
90.78000 0.953
90.80000 1.741
90.82000 2.323
90.84000 2.505
90.86000 0.874
90.88000 4.717
90.90000 4.274
90.92000 1.716
90.94000 2.755
90.96000 1.402
90.98000 2.852
91.00000 2.836
91.02000 6.015
91.04000 4.745
91.06000 -0.839
91.08000 -1.888
91.10000 1.192
91.12000 2.596
91.14000 2.788
91.16000 3.895
91.18000 3.183
91.20000 2.064
91.22000 3.308
91.24000 2.762
91.26000 0.511
91.28000 1.500
91.30000 2.109
91.32000 1.401
91.34000 1.967
91.36000 2.547
91.38000 2.768
91.40000 -0.091
91.42000 0.003
91.44000 1.125
91.46000 0.765
91.48000 1.299
91.50000 2.903
91.52000 0.402
91.54000 2.809
91.56000 0.860
91.58000 1.559
91.60000 4.625
91.62000 0.403
91.64000 0.540
91.66000 6.114
91.68000 6.136
91.70000 3.060
91.72000 4.389
91.74000 2.235
91.76000 1.377
91.78000 1.755
91.80000 3.133
91.82000 4.857
91.84000 4.883
91.86000 4.106
91.88000 1.914
91.90000 -1.632
91.92000 2.880
91.94000 3.038
91.96000 -0.083
91.98000 2.996
92.00000 4.591
92.02000 3.901
92.04000 1.998
92.06000 3.056
92.08000 1.991
92.10000 3.512
92.12000 4.261
92.14000 2.628
92.16000 2.459
92.18000 2.030
92.20000 4.790
92.22000 5.404
92.24000 -0.800
92.26000 -0.746
92.28000 -0.677
92.30000 3.850
92.32000 6.180
92.34000 5.059
92.36000 -1.203
92.38000 2.997
92.40000 2.920
92.42000 1.289
92.44000 0.900
92.46000 2.847
92.48000 4.873
92.50000 3.474
92.52000 6.872
92.54000 6.072
92.56000 4.450
92.58000 2.945
92.60000 2.768
92.62000 3.129
92.64000 1.170
92.66000 1.563
92.68000 3.301
92.70000 2.448
92.72000 -1.880
92.74000 1.978
92.76000 2.790
92.78000 3.787
92.80000 3.599
92.82000 2.451
92.84000 4.407
92.86000 2.418
92.88000 0.066
92.90000 -0.286
92.92000 -0.665
92.94000 1.803
92.96000 -1.134
92.98000 0.162
93.00000 1.747
93.02000 2.382
93.04000 3.859
93.06000 2.678
93.08000 3.204
93.10000 1.948
93.12000 2.929
93.14000 3.997
93.16000 -1.447
93.18000 -1.923
93.20000 1.498
93.22000 0.517
93.24000 0.722
93.26000 1.161
93.28000 3.030
93.30000 -0.399
93.32000 -0.195
93.34000 1.130
93.36000 1.126
93.38000 0.261
93.40000 -0.252
93.42000 0.424
93.44000 2.670
93.46000 3.532
93.48000 4.889
93.50000 4.344
93.52000 1.803
93.54000 2.052
93.56000 0.772
93.58000 -1.484
93.60000 -1.832
93.62000 -1.703
93.64000 0.615
93.66000 5.238
93.68000 6.388
93.70000 2.809
93.72000 3.288
93.74000 3.403
93.76000 5.305
93.78000 0.971
93.80000 0.006
93.82000 2.035
93.84000 -0.096
93.86000 0.982
93.88000 -0.935
93.90000 -1.028
93.92000 -1.029
93.94000 1.917
93.96000 3.076
93.98000 1.408
94.00000 -1.124
94.02000 2.734
94.04000 0.547
94.06000 2.846
94.08000 2.383
94.10000 -0.201
94.12000 2.803
94.14000 3.425
94.16000 5.005
94.18000 -0.460
94.20000 2.679
94.22000 7.325
94.24000 8.738
94.26000 2.146
94.28000 1.514
94.30000 1.294
94.32000 3.871
94.34000 4.972
94.36000 6.204
94.38000 4.408
94.40000 -0.248
94.42000 -0.335
94.44000 4.325
94.46000 5.798
94.48000 5.139
94.50000 1.485
94.52000 3.978
94.54000 5.356
94.56000 2.163
94.58000 0.553
94.60000 0.292
94.62000 0.644
94.64000 3.249
94.66000 3.333
94.68000 2.436
94.70000 5.184
94.72000 2.010
94.74000 4.029
94.76000 2.496
94.78000 3.359
94.80000 -0.594
94.82000 -1.432
94.84000 3.845
94.86000 3.005
94.88000 3.966
94.90000 0.845
94.92000 0.301
94.94000 -0.938
94.96000 -0.950
94.98000 2.431
95.00000 5.360
95.02000 2.109
95.04000 -1.061
95.06000 1.261
95.08000 6.127
95.10000 5.421
95.12000 1.556
95.14000 3.969
95.16000 -1.941
95.18000 0.541
95.20000 5.001
95.22000 2.199
95.24000 2.618
95.26000 4.682
95.28000 2.729
95.30000 -1.612
95.32000 4.274
95.34000 5.430
95.36000 4.305
95.38000 4.202
95.40000 3.261
95.42000 2.887
95.44000 4.186
95.46000 2.473
95.48000 -1.396
95.50000 6.531
95.52000 8.386
95.54000 6.747
95.56000 3.255
95.58000 3.480
95.60000 2.900
95.62000 2.503
95.64000 -0.315
95.66000 2.220
95.68000 4.168
95.70000 2.284
95.72000 2.177
95.74000 5.093
95.76000 0.821
95.78000 3.202
95.80000 4.842
95.82000 2.501
95.84000 3.850
95.86000 5.585
95.88000 3.516
95.90000 2.776
95.92000 1.937
95.94000 3.830
95.96000 3.496
95.98000 4.029
96.00000 5.206
96.02000 1.660
96.04000 0.450
96.06000 -1.918
96.08000 0.457
96.10000 6.688
96.12000 6.104
96.14000 2.217
96.16000 3.674
96.18000 4.674
96.20000 1.675
96.22000 2.785
96.24000 5.625
96.26000 5.726
96.28000 2.131
96.30000 5.344
96.32000 1.447
96.34000 0.842
96.36000 6.099
96.38000 6.306
96.40000 6.422
96.42000 5.537
96.44000 1.269
96.46000 3.048
96.48000 5.952
96.50000 7.450
96.52000 3.500
96.54000 3.081
96.56000 4.366
96.58000 2.719
96.60000 3.502
96.62000 5.391
96.64000 7.636
96.66000 6.534
96.68000 3.610
96.70000 0.405
96.72000 -1.657
96.74000 2.794
96.76000 2.266
96.78000 -0.626
96.80000 4.276
96.82000 5.532
96.84000 4.912
96.86000 3.942
96.88000 7.151
96.90000 4.694
96.92000 1.571
96.94000 -0.597
96.96000 2.189
96.98000 2.866
97.00000 2.118
97.02000 2.038
97.04000 3.224
97.06000 1.459
97.08000 0.436
97.10000 3.057
97.12000 6.536
97.14000 0.796
97.16000 2.836
97.18000 3.926
97.20000 3.802
97.22000 -0.062
97.24000 1.398
97.26000 8.932
97.28000 4.263
97.30000 3.742
97.32000 4.542
97.34000 2.729
97.36000 7.642
97.38000 5.751
97.40000 3.747
97.42000 2.111
97.44000 4.566
97.46000 5.336
97.48000 2.561
97.50000 4.927
97.52000 4.073
97.54000 0.556
97.56000 4.675
97.58000 5.098
97.60000 7.552
97.62000 7.060
97.64000 7.541
97.66000 6.509
97.68000 8.124
97.70000 5.189
97.72000 11.101
97.74000 6.707
97.76000 3.053
97.78000 -1.148
97.80000 1.069
97.82000 3.603
97.84000 0.982
97.86000 4.880
97.88000 9.025
97.90000 6.657
97.92000 3.482
97.94000 2.311
97.96000 5.498
97.98000 5.725
98.00000 0.473
98.02000 2.752
98.04000 4.974
98.06000 10.950
98.08000 7.166
98.10000 8.463
98.12000 5.506
98.14000 2.348
98.16000 9.291
98.18000 9.497
98.20000 6.511
98.22000 7.057
98.24000 5.750
98.26000 3.865
98.28000 -0.610
98.30000 -1.806
98.32000 8.061
98.34000 10.453
98.36000 4.712
98.38000 6.994
98.40000 5.295
98.42000 1.307
98.44000 6.972
98.46000 6.469
98.48000 10.069
98.50000 7.854
98.52000 8.658
98.54000 6.762
98.56000 5.364
98.58000 5.861
98.60000 6.446
98.62000 9.974
98.64000 11.532
98.66000 8.716
98.68000 8.604
98.70000 10.234
98.72000 6.547
98.74000 5.196
98.76000 4.366
98.78000 4.276
98.80000 0.425
98.82000 2.919
98.84000 9.928
98.86000 9.244
98.88000 5.709
98.90000 4.439
98.92000 5.529
98.94000 3.792
98.96000 4.983
98.98000 8.828
99.00000 12.133
99.02000 8.667
99.04000 15.749
99.06000 5.550
99.08000 7.446
99.10000 5.154
99.12000 2.068
99.14000 3.834
99.16000 4.389
99.18000 2.379
99.20000 3.733
99.22000 4.311
99.24000 6.768
99.26000 7.582
99.28000 4.496
99.30000 8.256
99.32000 5.336
99.34000 11.232
99.36000 7.777
99.38000 7.203
99.40000 6.560
99.42000 6.450
99.44000 -0.041
99.46000 0.731
99.48000 -1.836
99.50000 0.420
99.52000 3.170
99.54000 2.443
99.56000 3.063
99.58000 2.293
99.60000 14.431
99.62000 13.662
99.64000 10.837
99.66000 7.665
99.68000 6.077
99.70000 1.848
99.72000 8.048
99.74000 4.442
99.76000 4.293
99.78000 9.317
99.80000 14.314
99.82000 8.198
99.84000 7.388
99.86000 7.075
99.88000 9.716
99.90000 11.120
99.92000 4.673
99.94000 -1.914
99.96000 0.517
99.98000 0.000
