'Id: "0011387" Comment: "Integrate frame 0011387_Au-Ir-Rh_Rh-rich_XRD-Mapping-151-0000.gfrmwith cursor Wedge Cursor #5" Operator: "B?rgel" Anode: "Cu" Wavelength: "1.5406" Scantype: "2Theta (TwoTheta)" TimePerStep: "1" X: "22.5" Y: "-4.5" Z: "5.95" 
10.00000 0.000
10.02000 -3.776
10.04000 6.178
10.06000 4.899
10.08000 4.561
10.10000 -5.928
10.12000 7.332
10.14000 24.024
10.16000 17.133
10.18000 3.028
10.20000 8.990
10.22000 7.900
10.24000 13.311
10.26000 19.237
10.28000 32.261
10.30000 34.724
10.32000 23.443
10.34000 15.806
10.36000 26.224
10.38000 13.500
10.40000 23.478
10.42000 19.004
10.44000 23.963
10.46000 20.433
10.48000 20.064
10.50000 12.898
10.52000 11.405
10.54000 11.651
10.56000 17.005
10.58000 20.763
10.60000 30.576
10.62000 28.668
10.64000 28.798
10.66000 24.033
10.68000 27.368
10.70000 19.125
10.72000 16.182
10.74000 34.593
10.76000 35.825
10.78000 31.116
10.80000 34.048
10.82000 30.501
10.84000 37.538
10.86000 29.156
10.88000 15.512
10.90000 16.280
10.92000 13.005
10.94000 30.878
10.96000 35.658
10.98000 27.028
11.00000 22.685
11.02000 22.178
11.04000 32.167
11.06000 28.013
11.08000 14.758
11.10000 11.964
11.12000 22.652
11.14000 8.679
11.16000 9.704
11.18000 30.116
11.20000 36.756
11.22000 34.119
11.24000 33.551
11.26000 26.203
11.28000 32.688
11.30000 33.449
11.32000 24.284
11.34000 20.869
11.36000 26.998
11.38000 23.582
11.40000 18.859
11.42000 23.336
11.44000 27.800
11.46000 29.968
11.48000 16.330
11.50000 22.361
11.52000 18.646
11.54000 24.506
11.56000 27.098
11.58000 24.061
11.60000 28.382
11.62000 29.317
11.64000 24.587
11.66000 16.614
11.68000 18.546
11.70000 17.912
11.72000 29.275
11.74000 26.909
11.76000 26.188
11.78000 31.737
11.80000 29.742
11.82000 26.644
11.84000 23.131
11.86000 29.165
11.88000 23.661
11.90000 30.184
11.92000 22.406
11.94000 19.270
11.96000 31.960
11.98000 41.523
12.00000 31.581
12.02000 25.907
12.04000 33.399
12.06000 40.176
12.08000 32.221
12.10000 24.698
12.12000 27.298
12.14000 31.647
12.16000 33.761
12.18000 21.389
12.20000 22.526
12.22000 17.142
12.24000 26.523
12.26000 27.141
12.28000 32.801
12.30000 37.313
12.32000 41.049
12.34000 28.373
12.36000 38.631
12.38000 29.091
12.40000 34.234
12.42000 36.476
12.44000 31.448
12.46000 28.475
12.48000 31.053
12.50000 34.906
12.52000 23.501
12.54000 24.256
12.56000 38.371
12.58000 32.126
12.60000 28.685
12.62000 37.954
12.64000 22.282
12.66000 21.798
12.68000 29.878
12.70000 14.772
12.72000 19.896
12.74000 31.080
12.76000 29.445
12.78000 36.596
12.80000 49.257
12.82000 36.106
12.84000 38.676
12.86000 27.805
12.88000 34.341
12.90000 26.143
12.92000 30.761
12.94000 32.809
12.96000 26.285
12.98000 25.185
13.00000 26.212
13.02000 31.368
13.04000 29.368
13.06000 29.692
13.08000 27.813
13.10000 26.928
13.12000 26.930
13.14000 26.667
13.16000 29.126
13.18000 26.894
13.20000 28.137
13.22000 25.323
13.24000 27.440
13.26000 30.421
13.28000 30.324
13.30000 30.474
13.32000 41.771
13.34000 33.751
13.36000 25.626
13.38000 27.385
13.40000 24.837
13.42000 25.084
13.44000 36.628
13.46000 25.611
13.48000 25.668
13.50000 25.566
13.52000 34.300
13.54000 43.727
13.56000 41.445
13.58000 28.356
13.60000 18.249
13.62000 19.385
13.64000 25.185
13.66000 34.181
13.68000 36.712
13.70000 29.499
13.72000 15.938
13.74000 24.715
13.76000 21.649
13.78000 20.164
13.80000 15.505
13.82000 18.979
13.84000 30.419
13.86000 19.036
13.88000 17.896
13.90000 20.672
13.92000 27.216
13.94000 22.577
13.96000 26.508
13.98000 27.867
14.00000 25.322
14.02000 24.078
14.04000 22.210
14.06000 23.226
14.08000 23.592
14.10000 20.716
14.12000 23.618
14.14000 23.296
14.16000 21.758
14.18000 21.208
14.20000 20.143
14.22000 18.063
14.24000 23.614
14.26000 19.743
14.28000 15.688
14.30000 18.131
14.32000 19.682
14.34000 23.549
14.36000 26.333
14.38000 19.793
14.40000 22.136
14.42000 26.394
14.44000 29.117
14.46000 27.675
14.48000 15.277
14.50000 16.262
14.52000 8.605
14.54000 15.156
14.56000 12.855
14.58000 14.453
14.60000 12.485
14.62000 11.072
14.64000 14.699
14.66000 23.948
14.68000 20.073
14.70000 23.199
14.72000 17.684
14.74000 12.316
14.76000 18.353
14.78000 15.612
14.80000 14.480
14.82000 12.092
14.84000 14.168
14.86000 18.856
14.88000 22.028
14.90000 22.521
14.92000 20.746
14.94000 28.866
14.96000 13.558
14.98000 7.640
15.00000 5.393
15.02000 7.383
15.04000 12.322
15.06000 8.742
15.08000 12.590
15.10000 7.258
15.12000 12.027
15.14000 10.204
15.16000 9.475
15.18000 12.515
15.20000 20.584
15.22000 24.222
15.24000 23.886
15.26000 17.501
15.28000 14.416
15.30000 16.567
15.32000 10.684
15.34000 10.031
15.36000 10.279
15.38000 8.640
15.40000 10.801
15.42000 14.964
15.44000 18.093
15.46000 13.710
15.48000 19.132
15.50000 17.531
15.52000 14.159
15.54000 6.292
15.56000 11.588
15.58000 12.450
15.60000 1.420
15.62000 -0.060
15.64000 10.600
15.66000 11.804
15.68000 4.575
15.70000 4.364
15.72000 8.082
15.74000 11.097
15.76000 3.563
15.78000 2.615
15.80000 -0.472
15.82000 3.346
15.84000 8.301
15.86000 14.105
15.88000 10.792
15.90000 13.135
15.92000 10.516
15.94000 6.112
15.96000 8.558
15.98000 3.924
16.00000 4.669
16.02000 9.761
16.04000 11.851
16.06000 9.802
16.08000 1.889
16.10000 2.351
16.12000 9.315
16.14000 10.967
16.16000 4.905
16.18000 9.164
16.20000 9.506
16.22000 7.086
16.24000 6.916
16.26000 4.244
16.28000 -0.781
16.30000 3.576
16.32000 8.895
16.34000 2.033
16.36000 -0.081
16.38000 3.095
16.40000 12.749
16.42000 3.820
16.44000 4.740
16.46000 9.750
16.48000 6.122
16.50000 11.041
16.52000 11.973
16.54000 9.392
16.56000 6.031
16.58000 6.118
16.60000 7.686
16.62000 0.316
16.64000 10.877
16.66000 8.061
16.68000 8.744
16.70000 6.507
16.72000 5.296
16.74000 1.548
16.76000 14.205
16.78000 10.230
16.80000 1.429
16.82000 -1.137
16.84000 6.611
16.86000 9.689
16.88000 11.782
16.90000 11.706
16.92000 12.966
16.94000 3.810
16.96000 -0.198
16.98000 1.760
17.00000 2.434
17.02000 -1.542
17.04000 1.381
17.06000 4.378
17.08000 6.352
17.10000 5.626
17.12000 7.909
17.14000 1.939
17.16000 2.505
17.18000 -1.912
17.20000 6.201
17.22000 5.317
17.24000 3.578
17.26000 5.581
17.28000 10.748
17.30000 7.714
17.32000 13.618
17.34000 4.967
17.36000 1.038
17.38000 1.192
17.40000 8.516
17.42000 7.009
17.44000 4.061
17.46000 -1.131
17.48000 3.003
17.50000 1.258
17.52000 3.372
17.54000 7.459
17.56000 10.378
17.58000 8.686
17.60000 1.942
17.62000 1.604
17.64000 -4.362
17.66000 -2.455
17.68000 2.034
17.70000 0.183
17.72000 3.150
17.74000 3.427
17.76000 1.499
17.78000 6.666
17.80000 3.423
17.82000 1.207
17.84000 6.239
17.86000 8.652
17.88000 9.444
17.90000 0.832
17.92000 -4.352
17.94000 -0.026
17.96000 0.229
17.98000 -0.369
18.00000 3.587
18.02000 2.077
18.04000 6.951
18.06000 5.771
18.08000 -4.056
18.10000 -1.080
18.12000 6.031
18.14000 8.902
18.16000 4.005
18.18000 4.900
18.20000 4.835
18.22000 0.318
18.24000 7.512
18.26000 1.802
18.28000 -3.940
18.30000 0.436
18.32000 -2.272
18.34000 1.268
18.36000 8.224
18.38000 4.567
18.40000 -3.587
18.42000 2.336
18.44000 8.595
18.46000 5.393
18.48000 4.242
18.50000 0.671
18.52000 -0.698
18.54000 -0.900
18.56000 3.261
18.58000 1.853
18.60000 1.438
18.62000 2.852
18.64000 5.287
18.66000 -1.526
18.68000 -2.229
18.70000 7.191
18.72000 4.769
18.74000 2.358
18.76000 4.114
18.78000 6.099
18.80000 5.029
18.82000 4.551
18.84000 6.270
18.86000 5.544
18.88000 3.963
18.90000 2.085
18.92000 7.514
18.94000 6.892
18.96000 2.548
18.98000 -3.266
19.00000 3.697
19.02000 8.391
19.04000 6.031
19.06000 2.100
19.08000 3.716
19.10000 3.768
19.12000 -0.781
19.14000 -1.423
19.16000 -0.323
19.18000 0.310
19.20000 2.011
19.22000 1.768
19.24000 5.322
19.26000 -0.051
19.28000 2.570
19.30000 0.388
19.32000 -1.939
19.34000 -2.121
19.36000 1.719
19.38000 1.877
19.40000 2.688
19.42000 3.200
19.44000 -4.256
19.46000 -3.641
19.48000 4.152
19.50000 -0.665
19.52000 1.302
19.54000 6.435
19.56000 8.399
19.58000 1.315
19.60000 2.790
19.62000 4.437
19.64000 2.980
19.66000 6.323
19.68000 6.814
19.70000 3.789
19.72000 7.357
19.74000 2.444
19.76000 0.924
19.78000 4.897
19.80000 5.104
19.82000 7.321
19.84000 2.910
19.86000 3.424
19.88000 5.152
19.90000 6.044
19.92000 4.617
19.94000 5.340
19.96000 4.286
19.98000 -4.229
20.00000 -2.581
20.02000 1.721
20.04000 0.751
20.06000 -1.031
20.08000 7.195
20.10000 14.928
20.12000 4.046
20.14000 -3.510
20.16000 -3.077
20.18000 -1.620
20.20000 2.730
20.22000 2.417
20.24000 5.336
20.26000 3.254
20.28000 0.115
20.30000 2.279
20.32000 10.586
20.34000 8.329
20.36000 4.903
20.38000 -0.977
20.40000 1.742
20.42000 3.348
20.44000 3.845
20.46000 4.332
20.48000 3.186
20.50000 1.432
20.52000 1.852
20.54000 0.037
20.56000 -1.410
20.58000 0.952
20.60000 5.297
20.62000 8.695
20.64000 3.898
20.66000 6.178
20.68000 2.328
20.70000 3.385
20.72000 1.810
20.74000 2.968
20.76000 1.493
20.78000 4.986
20.80000 6.133
20.82000 2.922
20.84000 3.097
20.86000 8.096
20.88000 10.498
20.90000 6.651
20.92000 2.786
20.94000 1.868
20.96000 0.340
20.98000 -0.315
21.00000 8.541
21.02000 8.589
21.04000 4.684
21.06000 5.173
21.08000 0.018
21.10000 -2.415
21.12000 -4.151
21.14000 1.576
21.16000 2.040
21.18000 4.144
21.20000 4.254
21.22000 8.995
21.24000 5.862
21.26000 0.321
21.28000 5.482
21.30000 7.523
21.32000 7.273
21.34000 9.825
21.36000 7.960
21.38000 4.606
21.40000 2.353
21.42000 4.032
21.44000 4.632
21.46000 6.559
21.48000 7.535
21.50000 1.865
21.52000 3.373
21.54000 11.910
21.56000 7.457
21.58000 1.998
21.60000 10.858
21.62000 12.110
21.64000 8.145
21.66000 7.044
21.68000 9.117
21.70000 9.846
21.72000 5.431
21.74000 2.293
21.76000 -1.808
21.78000 -4.087
21.80000 3.527
21.82000 6.881
21.84000 4.752
21.86000 5.566
21.88000 2.880
21.90000 5.497
21.92000 7.165
21.94000 10.258
21.96000 14.660
21.98000 13.590
22.00000 15.930
22.02000 9.902
22.04000 6.827
22.06000 5.412
22.08000 5.732
22.10000 6.640
22.12000 2.945
22.14000 1.331
22.16000 7.546
22.18000 6.049
22.20000 1.321
22.22000 -0.656
22.24000 -0.270
22.26000 6.011
22.28000 2.744
22.30000 2.032
22.32000 3.508
22.34000 3.019
22.36000 0.407
22.38000 7.575
22.40000 7.657
22.42000 6.493
22.44000 7.510
22.46000 4.468
22.48000 -0.079
22.50000 1.759
22.52000 7.697
22.54000 8.336
22.56000 5.027
22.58000 -1.588
22.60000 4.326
22.62000 4.587
22.64000 2.256
22.66000 2.297
22.68000 7.173
22.70000 4.805
22.72000 0.408
22.74000 4.042
22.76000 3.922
22.78000 2.893
22.80000 -1.815
22.82000 2.714
22.84000 -0.270
22.86000 1.927
22.88000 4.802
22.90000 2.245
22.92000 0.834
22.94000 1.491
22.96000 11.229
22.98000 3.966
23.00000 -2.685
23.02000 1.544
23.04000 2.211
23.06000 1.579
23.08000 4.434
23.10000 1.588
23.12000 5.500
23.14000 4.881
23.16000 2.483
23.18000 2.399
23.20000 2.924
23.22000 7.174
23.24000 1.978
23.26000 0.711
23.28000 -1.055
23.30000 -2.128
23.32000 -1.785
23.34000 5.314
23.36000 5.665
23.38000 6.318
23.40000 7.905
23.42000 3.691
23.44000 3.639
23.46000 9.232
23.48000 5.392
23.50000 6.717
23.52000 0.152
23.54000 1.935
23.56000 3.268
23.58000 -1.027
23.60000 3.141
23.62000 8.102
23.64000 -0.694
23.66000 -1.737
23.68000 1.681
23.70000 0.654
23.72000 2.643
23.74000 2.337
23.76000 0.405
23.78000 1.916
23.80000 1.133
23.82000 -1.806
23.84000 -0.400
23.86000 2.451
23.88000 4.126
23.90000 2.185
23.92000 -0.981
23.94000 2.341
23.96000 1.272
23.98000 4.453
24.00000 6.571
24.02000 0.811
24.04000 1.577
24.06000 0.265
24.08000 -0.415
24.10000 -3.995
24.12000 2.522
24.14000 3.178
24.16000 6.544
24.18000 4.545
24.20000 7.609
24.22000 8.216
24.24000 3.993
24.26000 0.873
24.28000 1.584
24.30000 -0.665
24.32000 -3.977
24.34000 0.051
24.36000 9.097
24.38000 11.397
24.40000 2.839
24.42000 -1.106
24.44000 5.020
24.46000 7.485
24.48000 6.826
24.50000 2.615
24.52000 2.198
24.54000 4.115
24.56000 -0.831
24.58000 3.018
24.60000 -2.579
24.62000 5.983
24.64000 4.031
24.66000 3.708
24.68000 3.037
24.70000 4.063
24.72000 3.088
24.74000 1.449
24.76000 6.745
24.78000 6.883
24.80000 0.244
24.82000 2.236
24.84000 4.572
24.86000 3.240
24.88000 3.821
24.90000 2.193
24.92000 -2.039
24.94000 1.038
24.96000 -3.935
24.98000 -1.061
25.00000 2.009
25.02000 6.091
25.04000 2.767
25.06000 4.318
25.08000 -1.462
25.10000 3.823
25.12000 6.252
25.14000 7.895
25.16000 6.037
25.18000 12.010
25.20000 4.907
25.22000 6.572
25.24000 9.487
25.26000 3.352
25.28000 1.427
25.30000 6.551
25.32000 8.086
25.34000 8.665
25.36000 5.450
25.38000 3.057
25.40000 0.500
25.42000 -0.691
25.44000 -2.239
25.46000 4.875
25.48000 10.589
25.50000 5.230
25.52000 2.535
25.54000 0.530
25.56000 3.028
25.58000 0.173
25.60000 1.130
25.62000 5.500
25.64000 6.128
25.66000 7.177
25.68000 8.322
25.70000 -1.289
25.72000 -3.905
25.74000 1.338
25.76000 -1.362
25.78000 3.183
25.80000 2.854
25.82000 2.009
25.84000 -1.605
25.86000 -1.015
25.88000 2.181
25.90000 0.245
25.92000 0.836
25.94000 4.813
25.96000 0.669
25.98000 4.191
26.00000 3.598
26.02000 2.996
26.04000 6.652
26.06000 4.689
26.08000 4.319
26.10000 6.647
26.12000 2.390
26.14000 6.571
26.16000 4.984
26.18000 6.165
26.20000 6.084
26.22000 0.036
26.24000 3.091
26.26000 5.172
26.28000 1.914
26.30000 2.341
26.32000 5.497
26.34000 9.224
26.36000 9.314
26.38000 16.028
26.40000 14.591
26.42000 8.809
26.44000 -0.210
26.46000 4.050
26.48000 8.106
26.50000 1.243
26.52000 0.010
26.54000 -1.932
26.56000 5.010
26.58000 1.418
26.60000 -1.373
26.62000 2.457
26.64000 3.618
26.66000 6.411
26.68000 5.607
26.70000 3.513
26.72000 -3.857
26.74000 -0.837
26.76000 3.615
26.78000 2.806
26.80000 9.138
26.82000 8.801
26.84000 5.691
26.86000 3.518
26.88000 4.022
26.90000 1.150
26.92000 1.155
26.94000 6.201
26.96000 3.259
26.98000 3.564
27.00000 5.717
27.02000 3.407
27.04000 5.906
27.06000 5.409
27.08000 1.948
27.10000 5.887
27.12000 7.034
27.14000 3.597
27.16000 4.614
27.18000 -0.146
27.20000 -3.827
27.22000 0.652
27.24000 7.217
27.26000 4.399
27.28000 3.689
27.30000 3.526
27.32000 4.674
27.34000 -0.584
27.36000 0.395
27.38000 5.638
27.40000 7.479
27.42000 8.745
27.44000 2.543
27.46000 1.258
27.48000 6.458
27.50000 2.297
27.52000 2.050
27.54000 -2.086
27.56000 -1.596
27.58000 0.117
27.60000 0.928
27.62000 3.201
27.64000 3.110
27.66000 3.830
27.68000 -1.325
27.70000 -1.228
27.72000 4.679
27.74000 3.913
27.76000 3.973
27.78000 5.804
27.80000 5.740
27.82000 2.188
27.84000 -0.611
27.86000 1.701
27.88000 0.392
27.90000 -3.805
27.92000 0.925
27.94000 1.389
27.96000 -0.219
27.98000 -0.520
28.00000 3.928
28.02000 1.222
28.04000 -1.684
28.06000 -0.429
28.08000 -3.798
28.10000 -1.829
28.12000 0.114
28.14000 0.773
28.16000 2.173
28.18000 0.187
28.20000 1.400
28.22000 -0.023
28.24000 2.448
28.26000 1.938
28.28000 0.498
28.30000 6.902
28.32000 5.767
28.34000 4.072
28.36000 3.356
28.38000 -0.887
28.40000 -1.534
28.42000 0.749
28.44000 0.642
28.46000 -1.111
28.48000 -3.240
28.50000 0.391
28.52000 2.005
28.54000 -0.375
28.56000 1.598
28.58000 1.411
28.60000 5.014
28.62000 6.038
28.64000 8.117
28.66000 4.354
28.68000 0.362
28.70000 -3.280
28.72000 -0.493
28.74000 0.292
28.76000 -3.766
28.78000 0.686
28.80000 0.622
28.82000 5.432
28.84000 6.771
28.86000 4.557
28.88000 5.865
28.90000 2.497
28.92000 4.310
28.94000 -2.892
28.96000 -2.569
28.98000 1.612
29.00000 1.561
29.02000 -0.059
29.04000 -1.815
29.06000 -1.855
29.08000 -3.549
29.10000 -2.974
29.12000 -0.184
29.14000 -2.189
29.16000 -3.725
29.18000 0.723
29.20000 -0.328
29.22000 -3.349
29.24000 -3.153
29.26000 -1.909
29.28000 0.558
29.30000 0.442
29.32000 -2.847
29.34000 0.881
29.36000 -0.218
29.38000 0.355
29.40000 5.132
29.42000 4.952
29.44000 0.894
29.46000 -0.023
29.48000 -0.673
29.50000 1.387
29.52000 -0.200
29.54000 3.291
29.56000 3.484
29.58000 0.084
29.60000 1.011
29.62000 2.772
29.64000 -3.718
29.66000 1.472
29.68000 2.891
29.70000 4.447
29.72000 1.217
29.74000 4.400
29.76000 2.579
29.78000 -3.708
29.80000 -1.549
29.82000 -2.778
29.84000 2.802
29.86000 -3.210
29.88000 -3.318
29.90000 0.001
29.92000 0.968
29.94000 2.796
29.96000 6.878
29.98000 6.514
30.00000 5.078
30.02000 5.692
30.04000 2.375
30.06000 1.372
30.08000 0.963
30.10000 3.619
30.12000 4.935
30.14000 4.741
30.16000 4.152
30.18000 -3.311
30.20000 0.852
30.22000 1.216
30.24000 1.593
30.26000 2.803
30.28000 2.620
30.30000 2.347
30.32000 -1.157
30.34000 -0.143
30.36000 5.357
30.38000 3.261
30.40000 0.914
30.42000 -2.416
30.44000 2.596
30.46000 8.414
30.48000 2.949
30.50000 -1.323
30.52000 1.504
30.54000 1.803
30.56000 2.357
30.58000 -0.730
30.60000 -1.914
30.62000 -0.985
30.64000 4.218
30.66000 7.746
30.68000 4.564
30.70000 3.046
30.72000 3.579
30.74000 3.046
30.76000 5.155
30.78000 6.731
30.80000 1.429
30.82000 0.409
30.84000 0.953
30.86000 -3.628
30.88000 -3.301
30.90000 -3.625
30.92000 -2.294
30.94000 3.883
30.96000 5.182
30.98000 7.983
31.00000 4.101
31.02000 6.005
31.04000 6.630
31.06000 7.559
31.08000 7.436
31.10000 3.888
31.12000 -1.192
31.14000 -1.440
31.16000 1.953
31.18000 1.253
31.20000 -1.466
31.22000 -1.810
31.24000 1.960
31.26000 1.803
31.28000 -1.198
31.30000 2.887
31.32000 6.228
31.34000 6.653
31.36000 5.129
31.38000 4.045
31.40000 2.873
31.42000 4.113
31.44000 3.070
31.46000 5.365
31.48000 2.924
31.50000 -0.625
31.52000 1.651
31.54000 2.644
31.56000 -0.306
31.58000 -1.033
31.60000 2.410
31.62000 7.082
31.64000 6.763
31.66000 6.462
31.68000 5.889
31.70000 1.127
31.72000 0.699
31.74000 0.902
31.76000 0.502
31.78000 -0.074
31.80000 2.312
31.82000 5.197
31.84000 2.638
31.86000 0.927
31.88000 1.929
31.90000 1.613
31.92000 3.757
31.94000 2.472
31.96000 -0.796
31.98000 -0.820
32.00000 5.428
32.02000 4.492
32.04000 3.523
32.06000 5.688
32.08000 5.911
32.10000 0.899
32.12000 -0.832
32.14000 1.846
32.16000 1.062
32.18000 6.745
32.20000 -1.491
32.22000 -3.578
32.24000 2.915
32.26000 8.800
32.28000 2.846
32.30000 -3.573
32.32000 0.132
32.34000 3.647
32.36000 3.331
32.38000 -1.452
32.40000 -1.078
32.42000 0.471
32.44000 0.420
32.46000 -0.193
32.48000 4.966
32.50000 3.497
32.52000 1.223
32.54000 2.552
32.56000 0.482
32.58000 1.821
32.60000 3.365
32.62000 1.189
32.64000 -0.641
32.66000 -1.049
32.68000 0.730
32.70000 -1.024
32.72000 2.400
32.74000 5.951
32.76000 2.525
32.78000 0.176
32.80000 2.729
32.82000 -0.284
32.84000 -0.123
32.86000 -0.679
32.88000 1.005
32.90000 4.639
32.92000 1.031
32.94000 1.863
32.96000 3.070
32.98000 -1.174
33.00000 0.308
33.02000 0.911
33.04000 2.682
33.06000 3.586
33.08000 0.201
33.10000 4.542
33.12000 6.730
33.14000 9.582
33.16000 4.421
33.18000 0.786
33.20000 0.051
33.22000 3.965
33.24000 3.573
33.26000 4.452
33.28000 1.346
33.30000 -3.580
33.32000 -0.821
33.34000 -2.726
33.36000 1.170
33.38000 2.092
33.40000 4.137
33.42000 1.949
33.44000 1.905
33.46000 4.599
33.48000 4.601
33.50000 -0.166
33.52000 4.971
33.54000 3.097
33.56000 4.390
33.58000 2.193
33.60000 3.906
33.62000 6.454
33.64000 3.760
33.66000 2.910
33.68000 1.933
33.70000 3.992
33.72000 1.032
33.74000 3.592
33.76000 -0.665
33.78000 3.281
33.80000 6.083
33.82000 4.069
33.84000 5.401
33.86000 2.963
33.88000 3.125
33.90000 -0.976
33.92000 0.056
33.94000 0.535
33.96000 0.621
33.98000 4.428
34.00000 4.179
34.02000 3.365
34.04000 2.201
34.06000 1.610
34.08000 0.111
34.10000 4.050
34.12000 1.831
34.14000 3.885
34.16000 4.910
34.18000 2.719
34.20000 4.335
34.22000 6.580
34.24000 7.311
34.26000 3.663
34.28000 3.140
34.30000 3.681
34.32000 0.812
34.34000 4.924
34.36000 9.330
34.38000 8.441
34.40000 3.667
34.42000 -1.288
34.44000 3.213
34.46000 6.550
34.48000 1.871
34.50000 4.356
34.52000 6.759
34.54000 1.036
34.56000 1.544
34.58000 5.403
34.60000 11.315
34.62000 10.182
34.64000 3.370
34.66000 8.102
34.68000 6.859
34.70000 4.674
34.72000 2.920
34.74000 5.503
34.76000 1.081
34.78000 1.399
34.80000 1.420
34.82000 0.490
34.84000 3.879
34.86000 6.988
34.88000 8.668
34.90000 10.452
34.92000 6.013
34.94000 2.537
34.96000 -3.480
34.98000 -1.585
35.00000 -1.117
35.02000 1.623
35.04000 1.548
35.06000 5.677
35.08000 8.781
35.10000 3.599
35.12000 4.130
35.14000 6.646
35.16000 8.916
35.18000 -0.410
35.20000 -0.720
35.22000 5.572
35.24000 4.690
35.26000 8.941
35.28000 5.841
35.30000 1.831
35.32000 2.438
35.34000 6.067
35.36000 2.886
35.38000 1.535
35.40000 0.461
35.42000 5.061
35.44000 2.219
35.46000 2.889
35.48000 2.404
35.50000 3.056
35.52000 0.143
35.54000 -2.654
35.56000 -1.575
35.58000 2.797
35.60000 4.566
35.62000 2.922
35.64000 3.778
35.66000 2.079
35.68000 2.537
35.70000 2.972
35.72000 -3.009
35.74000 0.644
35.76000 3.427
35.78000 2.549
35.80000 0.355
35.82000 2.557
35.84000 0.129
35.86000 0.175
35.88000 -2.191
35.90000 0.858
35.92000 -1.493
35.94000 4.415
35.96000 6.052
35.98000 2.646
36.00000 2.582
36.02000 -1.698
36.04000 -2.910
36.06000 -3.490
36.08000 0.068
36.10000 3.027
36.12000 3.065
36.14000 0.911
36.16000 -1.929
36.18000 -1.563
36.20000 -0.146
36.22000 -2.042
36.24000 0.931
36.26000 3.348
36.28000 5.974
36.30000 4.847
36.32000 3.640
36.34000 -0.488
36.36000 1.729
36.38000 5.337
36.40000 3.693
36.42000 2.114
36.44000 1.975
36.46000 1.229
36.48000 4.959
36.50000 1.563
36.52000 -1.917
36.54000 -2.642
36.56000 0.347
36.58000 -2.138
36.60000 -1.886
36.62000 -0.860
36.64000 0.365
36.66000 -3.242
36.68000 -1.039
36.70000 1.430
36.72000 1.660
36.74000 6.837
36.76000 1.720
36.78000 -2.880
36.80000 0.392
36.82000 1.538
36.84000 5.073
36.86000 4.412
36.88000 2.647
36.90000 3.104
36.92000 3.655
36.94000 0.786
36.96000 1.830
36.98000 2.072
37.00000 0.381
37.02000 -2.884
37.04000 -3.531
37.06000 1.531
37.08000 2.790
37.10000 -0.195
37.12000 2.393
37.14000 4.844
37.16000 4.892
37.18000 0.325
37.20000 -1.131
37.22000 3.684
37.24000 0.413
37.26000 -1.361
37.28000 0.943
37.30000 -1.741
37.32000 3.158
37.34000 4.634
37.36000 2.341
37.38000 5.536
37.40000 3.687
37.42000 3.223
37.44000 0.264
37.46000 -0.167
37.48000 0.986
37.50000 -0.410
37.52000 2.393
37.54000 -0.738
37.56000 3.586
37.58000 1.192
37.60000 4.828
37.62000 6.820
37.64000 3.349
37.66000 1.166
37.68000 -3.546
37.70000 4.727
37.72000 -0.586
37.74000 0.739
37.76000 4.181
37.78000 5.593
37.80000 8.894
37.82000 6.555
37.84000 7.383
37.86000 8.900
37.88000 8.054
37.90000 9.004
37.92000 9.500
37.94000 5.876
37.96000 7.022
37.98000 4.851
38.00000 7.335
38.02000 9.976
38.04000 6.069
38.06000 5.518
38.08000 6.724
38.10000 13.947
38.12000 11.960
38.14000 10.937
38.16000 12.800
38.18000 10.472
38.20000 11.397
38.22000 12.171
38.24000 14.419
38.26000 10.217
38.28000 7.795
38.30000 14.268
38.32000 14.910
38.34000 15.672
38.36000 17.308
38.38000 17.707
38.40000 11.391
38.42000 15.914
38.44000 16.853
38.46000 16.182
38.48000 18.044
38.50000 19.523
38.52000 22.513
38.54000 19.745
38.56000 18.890
38.58000 19.617
38.60000 21.043
38.62000 26.090
38.64000 22.651
38.66000 20.682
38.68000 17.060
38.70000 23.320
38.72000 25.499
38.74000 24.038
38.76000 20.520
38.78000 19.330
38.80000 20.856
38.82000 22.246
38.84000 20.994
38.86000 25.319
38.88000 28.031
38.90000 26.811
38.92000 33.830
38.94000 35.949
38.96000 35.388
38.98000 37.588
39.00000 32.850
39.02000 30.695
39.04000 32.128
39.06000 36.222
39.08000 33.022
39.10000 33.063
39.12000 38.446
39.14000 38.839
39.16000 41.222
39.18000 40.389
39.20000 43.840
39.22000 45.286
39.24000 45.060
39.26000 49.493
39.28000 52.505
39.30000 54.381
39.32000 60.005
39.34000 62.839
39.36000 59.115
39.38000 56.979
39.40000 59.731
39.42000 64.652
39.44000 68.527
39.46000 73.433
39.48000 76.221
39.50000 77.561
39.52000 84.355
39.54000 80.822
39.56000 88.241
39.58000 98.540
39.60000 100.248
39.62000 103.604
39.64000 111.792
39.66000 114.963
39.68000 124.903
39.70000 133.318
39.72000 141.014
39.74000 142.249
39.76000 147.202
39.78000 161.107
39.80000 174.812
39.82000 182.654
39.84000 192.713
39.86000 198.256
39.88000 219.124
39.90000 231.058
39.92000 243.308
39.94000 254.735
39.96000 262.706
39.98000 276.519
40.00000 293.901
40.02000 314.223
40.04000 335.170
40.06000 348.863
40.08000 370.575
40.10000 392.382
40.12000 413.979
40.14000 432.020
40.16000 451.805
40.18000 472.117
40.20000 503.485
40.22000 518.573
40.24000 537.398
40.26000 561.120
40.28000 586.248
40.30000 596.305
40.32000 609.388
40.34000 629.840
40.36000 642.395
40.38000 650.608
40.40000 659.094
40.42000 667.445
40.44000 682.910
40.46000 678.492
40.48000 669.572
40.50000 674.670
40.52000 670.605
40.54000 660.657
40.56000 644.335
40.58000 638.307
40.60000 632.218
40.62000 617.207
40.64000 607.892
40.66000 593.301
40.68000 571.616
40.70000 555.437
40.72000 539.719
40.74000 527.396
40.76000 506.956
40.78000 488.726
40.80000 467.692
40.82000 453.184
40.84000 429.487
40.86000 401.975
40.88000 375.009
40.90000 357.754
40.92000 339.955
40.94000 326.563
40.96000 313.695
40.98000 305.138
41.00000 286.068
41.02000 266.080
41.04000 256.602
41.06000 246.006
41.08000 228.127
41.10000 218.827
41.12000 206.152
41.14000 200.085
41.16000 190.368
41.18000 175.415
41.20000 167.116
41.22000 158.421
41.24000 148.605
41.26000 135.983
41.28000 129.758
41.30000 120.248
41.32000 120.205
41.34000 116.658
41.36000 112.794
41.38000 106.525
41.40000 104.102
41.42000 94.723
41.44000 92.589
41.46000 86.748
41.48000 82.289
41.50000 80.100
41.52000 69.668
41.54000 65.395
41.56000 69.964
41.58000 63.731
41.60000 58.885
41.62000 54.650
41.64000 50.835
41.66000 50.046
41.68000 49.897
41.70000 48.901
41.72000 49.436
41.74000 48.230
41.76000 40.370
41.78000 40.256
41.80000 41.961
41.82000 39.756
41.84000 31.378
41.86000 29.039
41.88000 25.478
41.90000 23.693
41.92000 25.146
41.94000 27.917
41.96000 24.065
41.98000 28.596
42.00000 24.199
42.02000 25.552
42.04000 28.117
42.06000 19.199
42.08000 20.753
42.10000 19.176
42.12000 18.614
42.14000 20.727
42.16000 23.692
42.18000 19.254
42.20000 17.953
42.22000 18.902
42.24000 17.894
42.26000 12.928
42.28000 11.756
42.30000 10.318
42.32000 8.166
42.34000 7.019
42.36000 7.901
42.38000 6.438
42.40000 7.785
42.42000 11.149
42.44000 9.762
42.46000 10.353
42.48000 11.495
42.50000 13.033
42.52000 13.385
42.54000 3.632
42.56000 5.609
42.58000 5.899
42.60000 1.669
42.62000 5.081
42.64000 4.054
42.66000 0.623
42.68000 1.488
42.70000 3.181
42.72000 3.520
42.74000 5.177
42.76000 2.084
42.78000 3.043
42.80000 2.581
42.82000 2.242
42.84000 2.618
42.86000 2.017
42.88000 2.901
42.90000 3.656
42.92000 1.532
42.94000 -0.216
42.96000 -3.309
42.98000 1.126
43.00000 3.620
43.02000 1.014
43.04000 1.349
43.06000 3.507
43.08000 1.148
43.10000 2.539
43.12000 1.955
43.14000 1.889
43.16000 -2.261
43.18000 -3.043
43.20000 -3.005
43.22000 -0.013
43.24000 0.171
43.26000 -2.943
43.28000 -3.243
43.30000 0.167
43.32000 1.528
43.34000 -1.572
43.36000 0.578
43.38000 -1.246
43.40000 -0.510
43.42000 -2.600
43.44000 1.533
43.46000 1.097
43.48000 -3.427
43.50000 -0.757
43.52000 -1.366
43.54000 0.245
43.56000 1.672
43.58000 3.666
43.60000 4.296
43.62000 2.338
43.64000 2.933
43.66000 0.549
43.68000 1.329
43.70000 1.031
43.72000 1.655
43.74000 -0.048
43.76000 -0.249
43.78000 5.130
43.80000 1.482
43.82000 -1.729
43.84000 0.802
43.86000 0.913
43.88000 1.778
43.90000 -0.550
43.92000 -0.149
43.94000 2.548
43.96000 0.537
43.98000 5.446
44.00000 4.515
44.02000 1.775
44.04000 -1.502
44.06000 -2.003
44.08000 3.869
44.10000 1.274
44.12000 -0.462
44.14000 -3.361
44.16000 -2.941
44.18000 -0.460
44.20000 -1.429
44.22000 -3.355
44.24000 -2.601
44.26000 -1.164
44.28000 -1.831
44.30000 -0.161
44.32000 2.396
44.34000 -0.080
44.36000 1.764
44.38000 0.679
44.40000 -2.875
44.42000 -3.134
44.44000 -0.793
44.46000 1.256
44.48000 -0.833
44.50000 -1.937
44.52000 -2.672
44.54000 -3.332
44.56000 -0.033
44.58000 1.087
44.60000 2.091
44.62000 -0.360
44.64000 1.229
44.66000 0.354
44.68000 -1.191
44.70000 1.467
44.72000 1.985
44.74000 1.543
44.76000 -0.740
44.78000 -1.273
44.80000 0.461
44.82000 4.843
44.84000 4.461
44.86000 3.084
44.88000 -0.636
44.90000 1.400
44.92000 2.115
44.94000 3.340
44.96000 0.317
44.98000 -3.323
45.00000 1.109
45.02000 3.678
45.04000 -0.800
45.06000 1.616
45.08000 4.417
45.10000 6.233
45.12000 7.199
45.14000 5.961
45.16000 7.322
45.18000 8.022
45.20000 5.304
45.22000 2.549
45.24000 0.197
45.26000 7.084
45.28000 6.347
45.30000 8.655
45.32000 8.686
45.34000 1.364
45.36000 1.242
45.38000 4.973
45.40000 3.723
45.42000 6.251
45.44000 5.672
45.46000 6.358
45.48000 7.527
45.50000 9.132
45.52000 13.507
45.54000 9.591
45.56000 7.650
45.58000 7.425
45.60000 5.122
45.62000 5.679
45.64000 8.838
45.66000 11.803
45.68000 14.814
45.70000 10.728
45.72000 12.065
45.74000 14.990
45.76000 17.334
45.78000 12.632
45.80000 14.774
45.82000 13.004
45.84000 13.445
45.86000 13.933
45.88000 15.033
45.90000 15.490
45.92000 14.713
45.94000 14.325
45.96000 16.023
45.98000 19.159
46.00000 23.398
46.02000 23.042
46.04000 22.946
46.06000 24.070
46.08000 22.968
46.10000 25.162
46.12000 26.484
46.14000 30.105
46.16000 33.963
46.18000 35.838
46.20000 33.315
46.22000 31.815
46.24000 31.356
46.26000 39.461
46.28000 43.307
46.30000 45.098
46.32000 46.314
46.34000 38.835
46.36000 45.106
46.38000 47.228
46.40000 46.136
46.42000 47.584
46.44000 53.989
46.46000 53.892
46.48000 55.000
46.50000 63.019
46.52000 63.097
46.54000 63.975
46.56000 64.372
46.58000 64.974
46.60000 64.583
46.62000 71.543
46.64000 74.809
46.66000 78.631
46.68000 76.425
46.70000 81.848
46.72000 82.930
46.74000 84.004
46.76000 92.868
46.78000 93.695
46.80000 89.131
46.82000 90.571
46.84000 93.594
46.86000 95.552
46.88000 98.392
46.90000 101.672
46.92000 100.819
46.94000 103.180
46.96000 110.269
46.98000 109.713
47.00000 110.246
47.02000 112.262
47.04000 118.288
47.06000 113.745
47.08000 110.427
47.10000 104.499
47.12000 110.038
47.14000 109.179
47.16000 106.836
47.18000 107.312
47.20000 112.071
47.22000 109.229
47.24000 106.413
47.26000 98.274
47.28000 99.063
47.30000 97.986
47.32000 101.357
47.34000 99.743
47.36000 96.213
47.38000 94.697
47.40000 89.384
47.42000 91.524
47.44000 83.840
47.46000 82.478
47.48000 75.946
47.50000 77.404
47.52000 84.294
47.54000 83.199
47.56000 77.345
47.58000 72.581
47.60000 64.244
47.62000 68.950
47.64000 70.960
47.66000 64.018
47.68000 58.704
47.70000 55.909
47.72000 53.778
47.74000 50.197
47.76000 43.072
47.78000 48.842
47.80000 49.685
47.82000 43.772
47.84000 42.688
47.86000 40.614
47.88000 40.179
47.90000 40.998
47.92000 36.802
47.94000 32.634
47.96000 27.996
47.98000 26.935
48.00000 29.229
48.02000 24.088
48.04000 16.577
48.06000 21.806
48.08000 24.587
48.10000 23.146
48.12000 21.868
48.14000 14.369
48.16000 18.993
48.18000 20.483
48.20000 14.642
48.22000 18.849
48.24000 19.439
48.26000 14.404
48.28000 12.838
48.30000 14.256
48.32000 13.334
48.34000 13.153
48.36000 14.418
48.38000 10.251
48.40000 10.165
48.42000 8.007
48.44000 8.985
48.46000 10.217
48.48000 5.733
48.50000 9.299
48.52000 10.237
48.54000 7.093
48.56000 3.967
48.58000 4.709
48.60000 8.179
48.62000 3.467
48.64000 1.793
48.66000 5.015
48.68000 4.658
48.70000 6.050
48.72000 4.771
48.74000 6.442
48.76000 5.088
48.78000 5.458
48.80000 5.185
48.82000 4.428
48.84000 5.140
48.86000 6.234
48.88000 6.019
48.90000 4.568
48.92000 5.733
48.94000 9.001
48.96000 6.360
48.98000 7.136
49.00000 4.614
49.02000 -2.877
49.04000 1.404
49.06000 8.512
49.08000 9.165
49.10000 7.415
49.12000 8.288
49.14000 9.974
49.16000 6.670
49.18000 6.937
49.20000 7.079
49.22000 1.470
49.24000 2.627
49.26000 6.771
49.28000 7.878
49.30000 8.909
49.32000 7.996
49.34000 2.306
49.36000 6.873
49.38000 6.121
49.40000 3.866
49.42000 4.818
49.44000 5.006
49.46000 10.799
49.48000 7.435
49.50000 6.378
49.52000 7.312
49.54000 6.817
49.56000 -2.802
49.58000 -1.554
49.60000 -1.375
49.62000 3.119
49.64000 1.076
49.66000 2.173
49.68000 2.249
49.70000 0.357
49.72000 -0.363
49.74000 1.353
49.76000 2.395
49.78000 3.888
49.80000 4.291
49.82000 3.829
49.84000 1.862
49.86000 3.256
49.88000 3.810
49.90000 6.395
49.92000 6.634
49.94000 1.727
49.96000 -0.979
49.98000 -2.150
50.00000 3.199
50.02000 6.626
50.04000 4.307
50.06000 5.570
50.08000 2.196
50.10000 2.687
50.12000 4.925
50.14000 6.224
50.16000 2.928
50.18000 2.230
50.20000 5.419
50.22000 4.758
50.24000 2.088
50.26000 4.754
50.28000 2.560
50.30000 1.452
50.32000 1.659
50.34000 3.343
50.36000 5.078
50.38000 2.344
50.40000 1.616
50.42000 4.878
50.44000 4.785
50.46000 0.207
50.48000 -2.020
50.50000 -0.058
50.52000 -0.443
50.54000 4.854
50.56000 4.844
50.58000 0.480
50.60000 -2.733
50.62000 2.278
50.64000 7.183
50.66000 6.544
50.68000 3.173
50.70000 1.765
50.72000 0.873
50.74000 4.508
50.76000 5.206
50.78000 6.058
50.80000 5.893
50.82000 3.479
50.84000 2.433
50.86000 2.625
50.88000 3.104
50.90000 3.777
50.92000 6.738
50.94000 3.661
50.96000 0.633
50.98000 4.876
51.00000 3.782
51.02000 4.364
51.04000 3.279
51.06000 3.496
51.08000 2.612
51.10000 2.907
51.12000 3.176
51.14000 -2.668
51.16000 0.692
51.18000 3.368
51.20000 3.230
51.22000 3.700
51.24000 5.956
51.26000 4.894
51.28000 5.609
51.30000 4.582
51.32000 4.669
51.34000 0.692
51.36000 0.569
51.38000 1.804
51.40000 -0.146
51.42000 2.632
51.44000 2.696
51.46000 2.758
51.48000 1.373
51.50000 5.956
51.52000 6.129
51.54000 1.596
51.56000 3.022
51.58000 4.255
51.60000 2.049
51.62000 0.805
51.64000 3.877
51.66000 5.344
51.68000 1.683
51.70000 1.956
51.72000 3.026
51.74000 1.762
51.76000 4.183
51.78000 4.929
51.80000 3.820
51.82000 4.324
51.84000 5.688
51.86000 2.936
51.88000 5.600
51.90000 5.345
51.92000 8.518
51.94000 12.641
51.96000 8.078
51.98000 5.253
52.00000 0.933
52.02000 1.345
52.04000 3.011
52.06000 10.748
52.08000 6.169
52.10000 1.613
52.12000 -0.541
52.14000 1.535
52.16000 3.114
52.18000 8.725
52.20000 6.121
52.22000 3.158
52.24000 -0.058
52.26000 -1.180
52.28000 -2.410
52.30000 -0.896
52.32000 2.393
52.34000 5.684
52.36000 3.424
52.38000 4.136
52.40000 3.003
52.42000 -0.725
52.44000 -0.530
52.46000 -2.474
52.48000 -1.123
52.50000 -0.797
52.52000 -2.634
52.54000 3.159
52.56000 3.172
52.58000 2.343
52.60000 3.554
52.62000 5.850
52.64000 0.838
52.66000 3.402
52.68000 1.988
52.70000 0.580
52.72000 1.402
52.74000 2.884
52.76000 1.478
52.78000 2.080
52.80000 0.092
52.82000 6.442
52.84000 3.542
52.86000 1.050
52.88000 3.235
52.90000 0.776
52.92000 1.959
52.94000 2.526
52.96000 3.991
52.98000 -0.975
53.00000 2.957
53.02000 3.983
53.04000 4.533
53.06000 4.307
53.08000 3.564
53.10000 2.851
53.12000 2.165
53.14000 2.964
53.16000 4.157
53.18000 0.346
53.20000 -0.791
53.22000 1.870
53.24000 -2.482
53.26000 1.792
53.28000 -2.632
53.30000 -1.730
53.32000 2.162
53.34000 2.560
53.36000 1.418
53.38000 3.708
53.40000 -1.488
53.42000 -0.464
53.44000 2.725
53.46000 3.593
53.48000 2.610
53.50000 0.696
53.52000 2.794
53.54000 -2.624
53.56000 0.450
53.58000 3.409
53.60000 2.181
53.62000 0.787
53.64000 -0.549
53.66000 0.571
53.68000 -1.804
53.70000 -1.515
53.72000 1.117
53.74000 3.890
53.76000 -0.584
53.78000 1.271
53.80000 0.897
53.82000 -0.043
53.84000 1.907
53.86000 1.817
53.88000 -1.959
53.90000 0.032
53.92000 7.372
53.94000 1.875
53.96000 -2.436
53.98000 1.658
54.00000 4.401
54.02000 4.987
54.04000 -0.565
54.06000 0.374
54.08000 2.754
54.10000 1.395
54.12000 2.289
54.14000 1.243
54.16000 0.657
54.18000 0.114
54.20000 2.488
54.22000 -1.019
54.24000 0.726
54.26000 0.555
54.28000 4.035
54.30000 -0.768
54.32000 0.510
54.34000 -0.417
54.36000 2.691
54.38000 3.059
54.40000 3.232
54.42000 4.401
54.44000 0.709
54.46000 0.480
54.48000 -0.558
54.50000 0.381
54.52000 3.886
54.54000 2.858
54.56000 2.535
54.58000 -0.316
54.60000 0.699
54.62000 3.439
54.64000 2.691
54.66000 2.623
54.68000 4.511
54.70000 1.884
54.72000 2.561
54.74000 3.009
54.76000 4.496
54.78000 2.573
54.80000 4.823
54.82000 1.276
54.84000 -0.947
54.86000 2.037
54.88000 4.953
54.90000 6.188
54.92000 4.382
54.94000 5.067
54.96000 5.906
54.98000 3.311
55.00000 6.119
55.02000 2.067
55.04000 0.211
55.06000 -2.545
55.08000 1.667
55.10000 4.444
55.12000 7.321
55.14000 3.876
55.16000 2.541
55.18000 5.246
55.20000 1.652
55.22000 2.916
55.24000 7.427
55.26000 9.351
55.28000 5.417
55.30000 3.742
55.32000 4.145
55.34000 7.713
55.36000 4.019
55.38000 1.592
55.40000 2.259
55.42000 5.910
55.44000 6.260
55.46000 3.962
55.48000 3.400
55.50000 4.159
55.52000 3.564
55.54000 9.806
55.56000 4.539
55.58000 0.029
55.60000 1.588
55.62000 1.065
55.64000 -0.322
55.66000 -0.894
55.68000 -0.727
55.70000 1.528
55.72000 6.349
55.74000 3.012
55.76000 4.491
55.78000 4.452
55.80000 3.390
55.82000 3.575
55.84000 2.491
55.86000 5.392
55.88000 2.892
55.90000 1.859
55.92000 3.503
55.94000 1.760
55.96000 1.075
55.98000 0.053
56.00000 -0.655
56.02000 -0.794
56.04000 0.578
56.06000 -1.485
56.08000 -1.123
56.10000 -2.543
56.12000 0.353
56.14000 1.223
56.16000 -0.306
56.18000 1.852
56.20000 2.262
56.22000 2.676
56.24000 -1.513
56.26000 -1.825
56.28000 4.940
56.30000 4.855
56.32000 0.600
56.34000 0.443
56.36000 3.219
56.38000 0.655
56.40000 -1.902
56.42000 -0.423
56.44000 2.745
56.46000 0.779
56.48000 -2.031
56.50000 2.504
56.52000 4.009
56.54000 1.206
56.56000 -1.265
56.58000 1.413
56.60000 2.292
56.62000 2.443
56.64000 -1.947
56.66000 2.494
56.68000 2.401
56.70000 3.558
56.72000 1.899
56.74000 0.904
56.76000 5.170
56.78000 4.955
56.80000 5.512
56.82000 4.512
56.84000 3.638
56.86000 0.974
56.88000 2.894
56.90000 3.864
56.92000 2.000
56.94000 1.238
56.96000 5.000
56.98000 4.320
57.00000 4.083
57.02000 6.571
57.04000 8.426
57.06000 4.802
57.08000 0.673
57.10000 -0.858
57.12000 -0.098
57.14000 -2.501
57.16000 1.237
57.18000 4.766
57.20000 5.491
57.22000 5.041
57.24000 1.192
57.26000 -0.976
57.28000 -1.491
57.30000 0.325
57.32000 3.917
57.34000 4.936
57.36000 0.782
57.38000 5.044
57.40000 2.148
57.42000 0.186
57.44000 2.958
57.46000 2.136
57.48000 2.339
57.50000 0.310
57.52000 -2.495
57.54000 -0.422
57.56000 -0.020
57.58000 1.712
57.60000 4.731
57.62000 1.034
57.64000 -0.426
57.66000 2.814
57.68000 7.062
57.70000 2.296
57.72000 -1.048
57.74000 -2.493
57.76000 0.045
57.78000 1.971
57.80000 1.172
57.82000 3.339
57.84000 2.786
57.86000 0.115
57.88000 2.635
57.90000 4.821
57.92000 1.302
57.94000 0.945
57.96000 1.740
57.98000 7.005
58.00000 3.871
58.02000 0.781
58.04000 -0.709
58.06000 -0.646
58.08000 1.807
58.10000 3.644
58.12000 4.044
58.14000 3.137
58.16000 2.147
58.18000 3.266
58.20000 6.982
58.22000 4.911
58.24000 -1.599
58.26000 -1.615
58.28000 -0.169
58.30000 -0.060
58.32000 0.622
58.34000 3.660
58.36000 2.971
58.38000 1.542
58.40000 4.702
58.42000 6.692
58.44000 1.979
58.46000 4.842
58.48000 4.394
58.50000 2.900
58.52000 2.912
58.54000 -0.669
58.56000 4.709
58.58000 2.709
58.60000 2.139
58.62000 0.219
58.64000 4.284
58.66000 4.428
58.68000 -1.777
58.70000 -0.445
58.72000 -0.561
58.74000 0.420
58.76000 2.194
58.78000 0.277
58.80000 3.452
58.82000 3.976
58.84000 3.852
58.86000 2.485
58.88000 1.204
58.90000 2.894
58.92000 3.118
58.94000 0.649
58.96000 4.051
58.98000 4.608
59.00000 2.217
59.02000 2.053
59.04000 5.430
59.06000 2.221
59.08000 2.566
59.10000 5.894
59.12000 6.049
59.14000 1.184
59.16000 0.829
59.18000 1.664
59.20000 2.238
59.22000 -2.422
59.24000 -0.375
59.26000 3.952
59.28000 4.941
59.30000 6.737
59.32000 5.660
59.34000 3.813
59.36000 2.522
59.38000 2.149
59.40000 3.633
59.42000 3.509
59.44000 2.995
59.46000 1.020
59.48000 4.780
59.50000 2.915
59.52000 5.057
59.54000 4.660
59.56000 -0.265
59.58000 1.878
59.60000 4.327
59.62000 3.542
59.64000 1.113
59.66000 1.765
59.68000 2.625
59.70000 3.388
59.72000 1.533
59.74000 -0.933
59.76000 -0.695
59.78000 1.306
59.80000 4.060
59.82000 7.424
59.84000 7.397
59.86000 4.871
59.88000 5.983
59.90000 10.789
59.92000 8.113
59.94000 5.513
59.96000 3.529
59.98000 1.890
60.00000 0.006
60.02000 2.562
60.04000 1.401
60.06000 2.578
60.08000 7.381
60.10000 5.371
60.12000 3.509
60.14000 7.985
60.16000 4.862
60.18000 3.756
60.20000 1.205
60.22000 4.223
60.24000 3.324
60.26000 4.482
60.28000 2.244
60.30000 5.728
60.32000 4.088
60.34000 1.243
60.36000 1.946
60.38000 3.383
60.40000 5.217
60.42000 5.047
60.44000 2.946
60.46000 4.677
60.48000 3.556
60.50000 5.012
60.52000 3.005
60.54000 -0.291
60.56000 1.996
60.58000 1.111
60.60000 1.287
60.62000 0.466
60.64000 0.671
60.66000 5.530
60.68000 1.391
60.70000 -2.366
60.72000 2.361
60.74000 6.022
60.76000 5.696
60.78000 7.930
60.80000 5.748
60.82000 5.340
60.84000 10.266
60.86000 9.031
60.88000 5.656
60.90000 -0.663
60.92000 -0.273
60.94000 -0.887
60.96000 4.344
60.98000 8.545
61.00000 4.292
61.02000 1.815
61.04000 3.434
61.06000 4.902
61.08000 2.901
61.10000 2.461
61.12000 1.191
61.14000 0.319
61.16000 1.891
61.18000 1.499
61.20000 0.563
61.22000 -0.089
61.24000 -0.114
61.26000 1.118
61.28000 1.225
61.30000 0.177
61.32000 -1.200
61.34000 0.305
61.36000 2.532
61.38000 3.632
61.40000 0.734
61.42000 -0.463
61.44000 -0.590
61.46000 -0.987
61.48000 -1.017
61.50000 -1.603
61.52000 -2.374
61.54000 -1.947
61.56000 1.496
61.58000 2.436
61.60000 3.454
61.62000 -1.514
61.64000 0.483
61.66000 2.025
61.68000 3.710
61.70000 2.718
61.72000 -0.015
61.74000 -2.407
61.76000 -2.230
61.78000 1.054
61.80000 0.991
61.82000 -1.275
61.84000 3.764
61.86000 5.193
61.88000 3.778
61.90000 1.325
61.92000 -0.212
61.94000 0.249
61.96000 0.332
61.98000 1.594
62.00000 0.129
62.02000 -1.207
62.04000 -1.427
62.06000 2.514
62.08000 0.188
62.10000 3.234
62.12000 3.303
62.14000 2.278
62.16000 0.249
62.18000 -0.746
62.20000 -1.165
62.22000 0.620
62.24000 1.678
62.26000 2.842
62.28000 2.841
62.30000 0.545
62.32000 -0.039
62.34000 2.802
62.36000 4.084
62.38000 1.079
62.40000 1.116
62.42000 0.748
62.44000 -1.054
62.46000 0.446
62.48000 0.049
62.50000 1.413
62.52000 1.374
62.54000 -0.450
62.56000 -2.386
62.58000 0.006
62.60000 -0.386
62.62000 0.942
62.64000 0.551
62.66000 -1.783
62.68000 2.967
62.70000 5.505
62.72000 0.200
62.74000 -2.333
62.76000 -1.205
62.78000 0.806
62.80000 3.095
62.82000 2.678
62.84000 0.391
62.86000 2.189
62.88000 1.532
62.90000 1.861
62.92000 2.653
62.94000 4.513
62.96000 0.127
62.98000 -2.387
63.00000 -1.302
63.02000 -1.009
63.04000 1.971
63.06000 3.444
63.08000 0.951
63.10000 -1.920
63.12000 0.702
63.14000 5.526
63.16000 4.747
63.18000 1.154
63.20000 1.736
63.22000 2.715
63.24000 3.063
63.26000 3.799
63.28000 -0.104
63.30000 2.002
63.32000 1.742
63.34000 1.011
63.36000 3.698
63.38000 1.541
63.40000 -0.940
63.42000 2.946
63.44000 3.621
63.46000 2.854
63.48000 1.686
63.50000 -0.694
63.52000 0.741
63.54000 2.518
63.56000 2.716
63.58000 2.751
63.60000 3.424
63.62000 1.544
63.64000 -2.361
63.66000 -1.252
63.68000 1.339
63.70000 1.490
63.72000 0.250
63.74000 1.636
63.76000 1.811
63.78000 2.781
63.80000 2.572
63.82000 1.667
63.84000 2.086
63.86000 5.053
63.88000 2.829
63.90000 2.007
63.92000 -0.311
63.94000 -2.378
63.96000 -0.872
63.98000 0.140
64.00000 2.710
64.02000 0.217
64.04000 -0.494
64.06000 2.715
64.08000 0.511
64.10000 1.117
64.12000 0.850
64.14000 0.878
64.16000 3.603
64.18000 3.769
64.20000 -1.690
64.22000 0.387
64.24000 -0.429
64.26000 1.744
64.28000 1.895
64.30000 2.681
64.32000 3.246
64.34000 0.690
64.36000 1.789
64.38000 3.070
64.40000 -0.355
64.42000 -0.325
64.44000 -1.277
64.46000 -0.585
64.48000 1.079
64.50000 0.241
64.52000 2.430
64.54000 -0.989
64.56000 0.553
64.58000 -0.332
64.60000 2.130
64.62000 1.976
64.64000 -1.166
64.66000 1.897
64.68000 0.018
64.70000 -0.212
64.72000 1.551
64.74000 2.663
64.76000 0.978
64.78000 3.804
64.80000 1.051
64.82000 -2.392
64.84000 -1.503
64.86000 0.397
64.88000 1.396
64.90000 1.700
64.92000 -0.857
64.94000 -0.625
64.96000 -1.976
64.98000 -0.804
65.00000 -1.059
65.02000 1.298
65.04000 -1.699
65.06000 -2.395
65.08000 -0.781
65.10000 2.766
65.12000 1.881
65.14000 -0.427
65.16000 -1.899
65.18000 -1.473
65.20000 0.613
65.22000 4.352
65.24000 4.294
65.26000 5.658
65.28000 2.115
65.30000 -0.284
65.32000 1.347
65.34000 -0.428
65.36000 -0.888
65.38000 0.140
65.40000 0.352
65.42000 -0.305
65.44000 -1.102
65.46000 1.206
65.48000 0.594
65.50000 -1.727
65.52000 1.901
65.54000 1.301
65.56000 1.766
65.58000 2.538
65.60000 1.567
65.62000 2.275
65.64000 0.207
65.66000 0.184
65.68000 -1.609
65.70000 0.601
65.72000 1.698
65.74000 3.242
65.76000 2.219
65.78000 0.907
65.80000 2.991
65.82000 4.382
65.84000 3.263
65.86000 1.826
65.88000 -0.723
65.90000 -2.372
65.92000 -1.071
65.94000 -1.148
65.96000 0.869
65.98000 3.500
66.00000 2.949
66.02000 2.185
66.04000 0.578
66.06000 0.312
66.08000 0.177
66.10000 -1.892
66.12000 -2.377
66.14000 0.046
66.16000 0.770
66.18000 0.632
66.20000 3.173
66.22000 2.508
66.24000 5.419
66.26000 2.806
66.28000 2.582
66.30000 2.281
66.32000 -0.377
66.34000 -0.881
66.36000 1.869
66.38000 7.087
66.40000 1.168
66.42000 1.243
66.44000 0.552
66.46000 -1.718
66.48000 1.699
66.50000 3.949
66.52000 5.275
66.54000 0.947
66.56000 -0.749
66.58000 -1.887
66.60000 -1.163
66.62000 -0.455
66.64000 0.241
66.66000 -0.994
66.68000 -0.550
66.70000 -1.506
66.72000 2.778
66.74000 2.598
66.76000 1.297
66.78000 0.202
66.80000 0.518
66.82000 0.450
66.84000 -2.421
66.86000 -2.291
66.88000 -1.233
66.90000 -1.146
66.92000 -0.019
66.94000 -0.576
66.96000 1.087
66.98000 2.353
67.00000 3.809
67.02000 2.237
67.04000 -0.225
67.06000 1.659
67.08000 2.292
67.10000 1.521
67.12000 0.236
67.14000 0.352
67.16000 -1.594
67.18000 1.569
67.20000 -2.127
67.22000 0.609
67.24000 1.761
67.26000 1.392
67.28000 0.528
67.30000 1.214
67.32000 -2.041
67.34000 -2.467
67.36000 0.223
67.38000 1.352
67.40000 0.068
67.42000 -1.109
67.44000 2.912
67.46000 1.183
67.48000 -0.237
67.50000 1.198
67.52000 1.917
67.54000 1.619
67.56000 -0.775
67.58000 -1.283
67.60000 0.154
67.62000 -0.034
67.64000 0.174
67.66000 0.755
67.68000 -0.632
67.70000 1.230
67.72000 3.026
67.74000 3.104
67.76000 3.290
67.78000 3.046
67.80000 1.129
67.82000 0.568
67.84000 -0.843
67.86000 -2.200
67.88000 6.031
67.90000 5.125
67.92000 5.341
67.94000 4.658
67.96000 3.833
67.98000 1.795
68.00000 6.639
68.02000 7.836
68.04000 8.228
68.06000 7.561
68.08000 7.216
68.10000 6.065
68.12000 9.166
68.14000 11.133
68.16000 8.986
68.18000 11.363
68.20000 11.589
68.22000 12.170
68.24000 12.226
68.26000 13.913
68.28000 15.825
68.30000 15.015
68.32000 17.489
68.34000 19.024
68.36000 20.524
68.38000 19.592
68.40000 18.046
68.42000 19.197
68.44000 21.344
68.46000 24.161
68.48000 23.894
68.50000 21.259
68.52000 20.028
68.54000 23.470
68.56000 23.492
68.58000 19.886
68.60000 25.092
68.62000 31.302
68.64000 29.458
68.66000 30.081
68.68000 31.724
68.70000 30.768
68.72000 29.927
68.74000 28.905
68.76000 24.459
68.78000 25.624
68.80000 29.412
68.82000 26.825
68.84000 29.162
68.86000 25.128
68.88000 25.584
68.90000 28.726
68.92000 30.880
68.94000 27.229
68.96000 24.723
68.98000 26.684
69.00000 26.347
69.02000 27.288
69.04000 28.211
69.06000 25.012
69.08000 25.785
69.10000 25.355
69.12000 24.811
69.14000 22.122
69.16000 21.115
69.18000 20.232
69.20000 19.695
69.22000 18.978
69.24000 15.489
69.26000 19.543
69.28000 17.926
69.30000 15.675
69.32000 14.880
69.34000 16.843
69.36000 19.437
69.38000 17.781
69.40000 14.468
69.42000 11.893
69.44000 16.350
69.46000 17.271
69.48000 13.160
69.50000 10.335
69.52000 13.007
69.54000 12.379
69.56000 11.446
69.58000 14.239
69.60000 12.487
69.62000 11.544
69.64000 9.047
69.66000 7.386
69.68000 7.988
69.70000 5.564
69.72000 6.329
69.74000 6.307
69.76000 6.746
69.78000 4.921
69.80000 3.315
69.82000 2.554
69.84000 4.996
69.86000 4.469
69.88000 3.490
69.90000 4.017
69.92000 5.134
69.94000 8.326
69.96000 4.876
69.98000 3.205
70.00000 4.398
70.02000 2.672
70.04000 2.923
70.06000 0.389
70.08000 -0.656
70.10000 0.085
70.12000 -2.396
70.14000 0.726
70.16000 4.481
70.18000 5.341
70.20000 0.938
70.22000 0.133
70.24000 -2.128
70.26000 -0.718
70.28000 0.895
70.30000 2.206
70.32000 0.368
70.34000 0.074
70.36000 3.590
70.38000 2.551
70.40000 1.205
70.42000 -0.962
70.44000 -1.631
70.46000 -0.262
70.48000 -0.829
70.50000 2.886
70.52000 2.286
70.54000 -2.359
70.56000 1.311
70.58000 2.769
70.60000 -1.331
70.62000 2.428
70.64000 0.518
70.66000 0.529
70.68000 2.891
70.70000 -0.640
70.72000 -0.934
70.74000 0.790
70.76000 -0.766
70.78000 0.884
70.80000 3.068
70.82000 3.165
70.84000 3.568
70.86000 1.226
70.88000 -0.749
70.90000 0.286
70.92000 3.055
70.94000 1.803
70.96000 0.369
70.98000 -2.327
71.00000 -1.455
71.02000 0.768
71.04000 -0.990
71.06000 2.974
71.08000 0.223
71.10000 -0.271
71.12000 -2.105
71.14000 0.783
71.16000 1.652
71.18000 2.142
71.20000 5.497
71.22000 0.128
71.24000 1.106
71.26000 -2.154
71.28000 -2.139
71.30000 -1.262
71.32000 -1.578
71.34000 1.466
71.36000 -1.258
71.38000 -0.276
71.40000 -2.303
71.42000 -1.706
71.44000 1.298
71.46000 0.289
71.48000 -0.281
71.50000 -0.400
71.52000 0.134
71.54000 -0.827
71.56000 -1.366
71.58000 0.639
71.60000 -0.070
71.62000 2.535
71.64000 3.877
71.66000 1.858
71.68000 -0.715
71.70000 1.059
71.72000 -1.825
71.74000 2.728
71.76000 6.255
71.78000 4.253
71.80000 -0.970
71.82000 0.332
71.84000 -0.358
71.86000 1.646
71.88000 2.157
71.90000 -0.369
71.92000 -1.959
71.94000 1.660
71.96000 2.006
71.98000 -0.968
72.00000 0.685
72.02000 1.801
72.04000 2.107
72.06000 -2.277
72.08000 -2.073
72.10000 1.495
72.12000 4.465
72.14000 2.747
72.16000 2.118
72.18000 7.094
72.20000 3.609
72.22000 3.322
72.24000 0.779
72.26000 -0.309
72.28000 0.240
72.30000 2.403
72.32000 4.678
72.34000 7.726
72.36000 5.648
72.38000 2.536
72.40000 6.425
72.42000 2.796
72.44000 0.894
72.46000 0.597
72.48000 3.132
72.50000 -0.150
72.52000 0.593
72.54000 4.772
72.56000 3.616
72.58000 0.266
72.60000 -0.664
72.62000 0.110
72.64000 -0.551
72.66000 1.275
72.68000 1.596
72.70000 -0.434
72.72000 -0.812
72.74000 -2.219
72.76000 -1.173
72.78000 1.735
72.80000 3.489
72.82000 6.181
72.84000 3.696
72.86000 2.351
72.88000 2.061
72.90000 1.648
72.92000 1.879
72.94000 2.830
72.96000 2.121
72.98000 1.078
73.00000 1.615
73.02000 6.193
73.04000 1.055
73.06000 0.731
73.08000 -2.194
73.10000 -2.013
73.12000 1.352
73.14000 2.112
73.16000 4.231
73.18000 0.009
73.20000 3.125
73.22000 4.043
73.24000 4.504
73.26000 4.111
73.28000 4.065
73.30000 4.286
73.32000 3.673
73.34000 4.368
73.36000 3.073
73.38000 3.953
73.40000 2.666
73.42000 0.910
73.44000 3.354
73.46000 3.289
73.48000 2.963
73.50000 1.725
73.52000 1.273
73.54000 -0.728
73.56000 -0.717
73.58000 0.476
73.60000 3.086
73.62000 4.304
73.64000 3.071
73.66000 -0.939
73.68000 -0.959
73.70000 0.670
73.72000 1.040
73.74000 4.979
73.76000 8.510
73.78000 4.108
73.80000 0.976
73.82000 -0.434
73.84000 4.991
73.86000 1.968
73.88000 -0.672
73.90000 3.513
73.92000 0.773
73.94000 1.363
73.96000 3.073
73.98000 1.543
74.00000 2.399
74.02000 4.583
74.04000 4.198
74.06000 3.529
74.08000 2.073
74.10000 1.350
74.12000 2.315
74.14000 5.775
74.16000 4.454
74.18000 0.570
74.20000 -0.475
74.22000 -0.347
74.24000 -0.258
74.26000 1.172
74.28000 4.096
74.30000 1.075
74.32000 -1.167
74.34000 1.452
74.36000 1.620
74.38000 6.075
74.40000 1.038
74.42000 3.710
74.44000 5.352
74.46000 0.761
74.48000 3.691
74.50000 4.522
74.52000 -0.440
74.54000 -0.505
74.56000 -2.175
74.58000 0.382
74.60000 4.321
74.62000 8.602
74.64000 2.404
74.66000 0.643
74.68000 1.713
74.70000 3.184
74.72000 3.131
74.74000 5.311
74.76000 5.218
74.78000 3.580
74.80000 -0.402
74.82000 -1.384
74.84000 3.055
74.86000 7.025
74.88000 2.891
74.90000 1.094
74.92000 2.252
74.94000 3.147
74.96000 1.962
74.98000 4.388
75.00000 6.381
75.02000 3.223
75.04000 0.345
75.06000 2.180
75.08000 -0.434
75.10000 -0.403
75.12000 1.750
75.14000 2.525
75.16000 1.377
75.18000 2.193
75.20000 0.024
75.22000 -0.181
75.24000 -0.017
75.26000 3.721
75.28000 0.046
75.30000 -1.239
75.32000 -0.456
75.34000 -0.137
75.36000 2.319
75.38000 4.261
75.40000 2.836
75.42000 1.659
75.44000 0.701
75.46000 1.362
75.48000 2.374
75.50000 3.482
75.52000 7.120
75.54000 3.547
75.56000 -0.805
75.58000 -0.751
75.60000 3.591
75.62000 4.407
75.64000 0.272
75.66000 -0.566
75.68000 0.290
75.70000 0.438
75.72000 2.077
75.74000 -0.077
75.76000 -2.225
75.78000 -0.314
75.80000 -0.720
75.82000 -0.444
75.84000 -1.996
75.86000 2.188
75.88000 3.990
75.90000 7.036
75.92000 3.714
75.94000 -1.906
75.96000 -0.001
75.98000 4.348
76.00000 -2.109
76.02000 -0.873
76.04000 2.032
76.06000 5.814
76.08000 4.508
76.10000 4.946
76.12000 2.042
76.14000 4.530
76.16000 2.340
76.18000 1.868
76.20000 0.587
76.22000 2.895
76.24000 4.302
76.26000 0.315
76.28000 1.345
76.30000 -1.726
76.32000 3.583
76.34000 3.186
76.36000 3.599
76.38000 2.225
76.40000 -0.595
76.42000 -2.249
76.44000 1.654
76.46000 2.832
76.48000 2.306
76.50000 -0.205
76.52000 -1.504
76.54000 -1.111
76.56000 0.080
76.58000 -1.887
76.60000 -2.250
76.62000 1.352
76.64000 1.499
76.66000 2.151
76.68000 -2.250
76.70000 -0.739
76.72000 -0.207
76.74000 3.959
76.76000 2.586
76.78000 -1.451
76.80000 0.646
76.82000 5.256
76.84000 2.170
76.86000 1.098
76.88000 3.609
76.90000 1.766
76.92000 1.413
76.94000 0.169
76.96000 0.700
76.98000 2.477
77.00000 3.799
77.02000 0.485
77.04000 -0.203
77.06000 2.026
77.08000 -0.945
77.10000 1.875
77.12000 3.124
77.14000 1.669
77.16000 0.226
77.18000 1.814
77.20000 2.767
77.22000 -1.907
77.24000 -1.583
77.26000 3.642
77.28000 3.353
77.30000 0.884
77.32000 -0.530
77.34000 -0.795
77.36000 -0.279
77.38000 -1.369
77.40000 -0.591
77.42000 -1.513
77.44000 -1.272
77.46000 -1.830
77.48000 -2.226
77.50000 -2.009
77.52000 1.441
77.54000 4.235
77.56000 1.332
77.58000 -0.493
77.60000 -0.883
77.62000 -0.943
77.64000 -1.865
77.66000 3.737
77.68000 5.289
77.70000 2.459
77.72000 -2.235
77.74000 -1.280
77.76000 -1.186
77.78000 3.621
77.80000 4.743
77.82000 3.138
77.84000 0.908
77.86000 0.843
77.88000 0.614
77.90000 1.356
77.92000 2.958
77.94000 -0.911
77.96000 -0.463
77.98000 0.801
78.00000 2.978
78.02000 1.364
78.04000 2.009
78.06000 2.984
78.08000 4.882
78.10000 3.304
78.12000 1.502
78.14000 1.656
78.16000 1.087
78.18000 -1.279
78.20000 1.632
78.22000 4.076
78.24000 4.132
78.26000 3.005
78.28000 3.111
78.30000 4.534
78.32000 5.632
78.34000 1.776
78.36000 -0.202
78.38000 -1.965
78.40000 -0.197
78.42000 0.698
78.44000 2.661
78.46000 0.930
78.48000 0.219
78.50000 4.504
78.52000 1.969
78.54000 1.544
78.56000 0.817
78.58000 4.997
78.60000 4.425
78.62000 4.787
78.64000 4.895
78.66000 1.572
78.68000 -2.237
78.70000 2.281
78.72000 5.702
78.74000 4.565
78.76000 0.125
78.78000 0.208
78.80000 1.845
78.82000 5.407
78.84000 1.867
78.86000 -0.438
78.88000 -1.604
78.90000 -0.231
78.92000 -1.031
78.94000 2.819
78.96000 -0.826
78.98000 -2.242
79.00000 1.330
79.02000 -0.356
79.04000 0.747
79.06000 1.072
79.08000 6.295
79.10000 6.109
79.12000 2.884
79.14000 4.949
79.16000 1.745
79.18000 -1.445
79.20000 3.328
79.22000 6.024
79.24000 3.687
79.26000 1.901
79.28000 1.941
79.30000 0.115
79.32000 -2.256
79.34000 3.992
79.36000 2.690
79.38000 3.037
79.40000 2.854
79.42000 0.916
79.44000 3.138
79.46000 3.853
79.48000 0.819
79.50000 0.037
79.52000 0.591
79.54000 2.478
79.56000 1.466
79.58000 2.523
79.60000 1.393
79.62000 0.556
79.64000 -1.683
79.66000 2.191
79.68000 2.588
79.70000 0.843
79.72000 2.041
79.74000 5.263
79.76000 3.928
79.78000 2.869
79.80000 3.663
79.82000 0.871
79.84000 3.936
79.86000 2.794
79.88000 1.239
79.90000 -2.275
79.92000 -1.538
79.94000 2.535
79.96000 4.029
79.98000 2.623
80.00000 0.920
80.02000 -1.073
80.04000 2.913
80.06000 3.913
80.08000 1.216
80.10000 4.247
80.12000 1.729
80.14000 -0.387
80.16000 -0.367
80.18000 0.083
80.20000 -0.221
80.22000 2.331
80.24000 1.934
80.26000 2.737
80.28000 4.830
80.30000 2.472
80.32000 0.591
80.34000 2.492
80.36000 5.095
80.38000 0.302
80.40000 1.159
80.42000 -0.410
80.44000 0.976
80.46000 -0.927
80.48000 1.235
80.50000 4.380
80.52000 2.931
80.54000 0.103
80.56000 0.933
80.58000 2.113
80.60000 2.029
80.62000 -0.137
80.64000 -2.299
80.66000 2.212
80.68000 4.360
80.70000 4.980
80.72000 2.277
80.74000 0.027
80.76000 1.035
80.78000 2.401
80.80000 2.269
80.82000 0.179
80.84000 1.248
80.86000 -1.226
80.88000 -1.663
80.90000 -1.812
80.92000 1.148
80.94000 4.358
80.96000 -0.262
80.98000 2.652
81.00000 5.086
81.02000 0.005
81.04000 -1.063
81.06000 4.921
81.08000 4.107
81.10000 -0.950
81.12000 -2.362
81.14000 0.182
81.16000 2.360
81.18000 3.185
81.20000 3.372
81.22000 -0.553
81.24000 0.943
81.26000 0.354
81.28000 -0.755
81.30000 -0.428
81.32000 -0.074
81.34000 -1.242
81.36000 2.243
81.38000 4.843
81.40000 0.894
81.42000 3.544
81.44000 4.184
81.46000 4.254
81.48000 6.291
81.50000 5.510
81.52000 3.560
81.54000 5.496
81.56000 3.653
81.58000 1.536
81.60000 1.231
81.62000 4.742
81.64000 2.315
81.66000 3.200
81.68000 5.475
81.70000 6.875
81.72000 2.031
81.74000 1.404
81.76000 2.444
81.78000 1.714
81.80000 0.977
81.82000 1.649
81.84000 -0.123
81.86000 3.663
81.88000 5.474
81.90000 5.819
81.92000 1.620
81.94000 4.465
81.96000 5.258
81.98000 7.532
82.00000 8.614
82.02000 13.771
82.04000 10.164
82.06000 12.856
82.08000 12.037
82.10000 8.391
82.12000 11.586
82.14000 15.583
82.16000 11.879
82.18000 10.265
82.20000 10.190
82.22000 8.270
82.24000 10.148
82.26000 12.679
82.28000 13.620
82.30000 14.240
82.32000 17.216
82.34000 17.380
82.36000 14.113
82.38000 14.758
82.40000 15.381
82.42000 18.087
82.44000 21.671
82.46000 18.488
82.48000 21.356
82.50000 28.908
82.52000 23.004
82.54000 20.253
82.56000 22.533
82.58000 22.780
82.60000 28.333
82.62000 34.863
82.64000 32.413
82.66000 33.111
82.68000 28.990
82.70000 24.973
82.72000 31.112
82.74000 29.751
82.76000 28.483
82.78000 23.783
82.80000 28.032
82.82000 32.757
82.84000 35.689
82.86000 29.928
82.88000 33.275
82.90000 31.649
82.92000 35.317
82.94000 36.321
82.96000 38.723
82.98000 41.163
83.00000 42.993
83.02000 47.809
83.04000 46.075
83.06000 37.343
83.08000 32.847
83.10000 36.812
83.12000 43.640
83.14000 43.014
83.16000 38.878
83.18000 38.385
83.20000 33.833
83.22000 34.624
83.24000 39.878
83.26000 39.432
83.28000 38.638
83.30000 39.684
83.32000 37.664
83.34000 34.172
83.36000 37.362
83.38000 36.295
83.40000 34.195
83.42000 39.866
83.44000 35.534
83.46000 34.295
83.48000 32.120
83.50000 31.091
83.52000 34.634
83.54000 30.405
83.56000 27.895
83.58000 27.933
83.60000 19.943
83.62000 22.572
83.64000 20.193
83.66000 18.195
83.68000 25.896
83.70000 28.470
83.72000 25.724
83.74000 24.697
83.76000 21.878
83.78000 18.976
83.80000 20.307
83.82000 20.171
83.84000 18.993
83.86000 16.289
83.88000 15.322
83.90000 18.632
83.92000 12.541
83.94000 14.269
83.96000 15.534
83.98000 13.063
84.00000 10.264
84.02000 9.820
84.04000 7.656
84.06000 9.398
84.08000 11.764
84.10000 9.458
84.12000 12.622
84.14000 11.865
84.16000 12.455
84.18000 9.105
84.20000 8.219
84.22000 7.073
84.24000 4.881
84.26000 1.024
84.28000 4.689
84.30000 7.202
84.32000 7.493
84.34000 7.010
84.36000 7.621
84.38000 6.554
84.40000 3.963
84.42000 3.992
84.44000 3.565
84.46000 6.311
84.48000 4.040
84.50000 6.017
84.52000 -0.018
84.54000 -0.216
84.56000 6.927
84.58000 7.935
84.60000 5.578
84.62000 2.887
84.64000 3.186
84.66000 -1.295
84.68000 -0.680
84.70000 2.735
84.72000 2.161
84.74000 1.721
84.76000 -1.974
84.78000 -0.108
84.80000 -2.205
84.82000 -1.760
84.84000 0.516
84.86000 3.084
84.88000 5.145
84.90000 4.837
84.92000 4.656
84.94000 5.224
84.96000 2.178
84.98000 4.052
85.00000 5.421
85.02000 0.402
85.04000 -2.299
85.06000 -1.249
85.08000 0.241
85.10000 4.474
85.12000 2.635
85.14000 4.897
85.16000 5.619
85.18000 1.641
85.20000 2.137
85.22000 2.307
85.24000 4.196
85.26000 3.716
85.28000 2.499
85.30000 0.849
85.32000 1.515
85.34000 2.381
85.36000 2.812
85.38000 0.882
85.40000 4.836
85.42000 2.734
85.44000 2.837
85.46000 3.476
85.48000 2.748
85.50000 -2.251
85.52000 2.571
85.54000 5.816
85.56000 8.098
85.58000 7.411
85.60000 5.354
85.62000 1.555
85.64000 1.024
85.66000 1.074
85.68000 2.488
85.70000 0.814
85.72000 1.872
85.74000 -0.166
85.76000 -0.767
85.78000 2.698
85.80000 1.448
85.82000 1.740
85.84000 1.544
85.86000 2.850
85.88000 1.718
85.90000 3.835
85.92000 2.607
85.94000 4.769
85.96000 2.191
85.98000 3.889
86.00000 3.868
86.02000 4.120
86.04000 5.229
86.06000 2.506
86.08000 -0.263
86.10000 2.566
86.12000 1.780
86.14000 4.477
86.16000 3.435
86.18000 2.705
86.20000 0.990
86.22000 2.126
86.24000 2.818
86.26000 3.998
86.28000 5.350
86.30000 7.919
86.32000 3.094
86.34000 -1.376
86.36000 0.218
86.38000 2.407
86.40000 3.641
86.42000 4.162
86.44000 2.182
86.46000 1.414
86.48000 1.310
86.50000 3.234
86.52000 3.298
86.54000 1.940
86.56000 0.823
86.58000 -0.520
86.60000 4.109
86.62000 7.319
86.64000 6.089
86.66000 8.119
86.68000 3.409
86.70000 1.926
86.72000 2.465
86.74000 3.522
86.76000 5.001
86.78000 5.319
86.80000 4.683
86.82000 5.808
86.84000 7.886
86.86000 2.841
86.88000 3.543
86.90000 8.186
86.92000 8.487
86.94000 6.338
86.96000 8.278
86.98000 13.316
87.00000 12.150
87.02000 9.482
87.04000 10.794
87.06000 10.361
87.08000 12.823
87.10000 9.715
87.12000 15.976
87.14000 18.383
87.16000 15.674
87.18000 15.963
87.20000 13.505
87.22000 8.105
87.24000 9.736
87.26000 14.966
87.28000 18.475
87.30000 22.067
87.32000 22.148
87.34000 21.696
87.36000 22.893
87.38000 25.247
87.40000 25.337
87.42000 23.018
87.44000 20.866
87.46000 23.746
87.48000 16.434
87.50000 14.821
87.52000 21.853
87.54000 25.228
87.56000 20.623
87.58000 22.422
87.60000 21.223
87.62000 20.953
87.64000 23.836
87.66000 21.130
87.68000 23.675
87.70000 25.015
87.72000 22.437
87.74000 20.354
87.76000 21.721
87.78000 20.304
87.80000 18.207
87.82000 17.977
87.84000 15.846
87.86000 15.151
87.88000 18.861
87.90000 19.502
87.92000 11.142
87.94000 10.088
87.96000 18.496
87.98000 18.840
88.00000 12.392
88.02000 6.918
88.04000 12.529
88.06000 13.320
88.08000 14.265
88.10000 16.351
88.12000 12.254
88.14000 10.102
88.16000 11.045
88.18000 10.378
88.20000 10.869
88.22000 3.953
88.24000 5.610
88.26000 4.741
88.28000 6.585
88.30000 7.733
88.32000 9.315
88.34000 5.279
88.36000 3.200
88.38000 5.959
88.40000 7.872
88.42000 6.543
88.44000 4.731
88.46000 5.272
88.48000 6.221
88.50000 8.162
88.52000 4.635
88.54000 4.583
88.56000 4.425
88.58000 6.121
88.60000 6.495
88.62000 6.479
88.64000 2.541
88.66000 0.766
88.68000 -2.232
88.70000 -0.006
88.72000 1.649
88.74000 5.133
88.76000 5.243
88.78000 3.074
88.80000 -0.425
88.82000 4.019
88.84000 7.388
88.86000 5.989
88.88000 0.849
88.90000 2.211
88.92000 -0.921
88.94000 -0.677
88.96000 0.802
88.98000 3.959
89.00000 2.797
89.02000 1.618
89.04000 0.794
89.06000 1.900
89.08000 -1.849
89.10000 0.939
89.12000 -0.720
89.14000 0.398
89.16000 2.239
89.18000 2.419
89.20000 3.586
89.22000 4.434
89.24000 7.391
89.26000 6.726
89.28000 5.160
89.30000 1.855
89.32000 -2.139
89.34000 2.061
89.36000 8.224
89.38000 1.775
89.40000 -0.325
89.42000 1.314
89.44000 -1.008
89.46000 -1.655
89.48000 3.851
89.50000 2.211
89.52000 5.732
89.54000 10.172
89.56000 6.504
89.58000 1.610
89.60000 -1.386
89.62000 6.638
89.64000 3.784
89.66000 2.363
89.68000 2.923
89.70000 -0.186
89.72000 2.454
89.74000 5.262
89.76000 4.183
89.78000 -1.853
89.80000 -2.103
89.82000 -1.008
89.84000 0.447
89.86000 -0.363
89.88000 6.500
89.90000 4.248
89.92000 2.514
89.94000 3.606
89.96000 5.346
89.98000 5.244
90.00000 4.662
90.02000 2.754
90.04000 2.328
90.06000 6.260
90.08000 6.844
90.10000 7.632
90.12000 6.229
90.14000 -2.087
90.16000 0.392
90.18000 0.454
90.20000 1.735
90.22000 2.894
90.24000 0.077
90.26000 1.021
90.28000 7.886
90.30000 5.917
90.32000 3.028
90.34000 0.342
90.36000 2.482
90.38000 1.782
90.40000 5.857
90.42000 3.561
90.44000 3.302
90.46000 6.396
90.48000 3.982
90.50000 4.021
90.52000 4.956
90.54000 6.300
90.56000 5.312
90.58000 5.280
90.60000 4.906
90.62000 0.829
90.64000 0.076
90.66000 5.138
90.68000 5.168
90.70000 4.528
90.72000 1.837
90.74000 1.532
90.76000 5.815
90.78000 9.880
90.80000 5.092
90.82000 2.304
90.84000 0.550
90.86000 1.140
90.88000 2.660
90.90000 -2.057
90.92000 0.999
90.94000 3.051
90.96000 5.144
90.98000 7.002
91.00000 1.730
91.02000 2.676
91.04000 5.337
91.06000 5.978
91.08000 3.368
91.10000 8.368
91.12000 7.410
91.14000 5.482
91.16000 9.770
91.18000 8.982
91.20000 7.320
91.22000 1.881
91.24000 3.226
91.26000 7.715
91.28000 7.049
91.30000 7.009
91.32000 6.562
91.34000 5.654
91.36000 4.887
91.38000 5.706
91.40000 6.318
91.42000 8.103
91.44000 6.355
91.46000 0.929
91.48000 4.018
91.50000 2.988
91.52000 7.171
91.54000 2.637
91.56000 3.696
91.58000 2.637
91.60000 3.999
91.62000 2.623
91.64000 3.426
91.66000 3.511
91.68000 2.776
91.70000 4.406
91.72000 4.461
91.74000 2.619
91.76000 0.755
91.78000 -0.790
91.80000 3.199
91.82000 2.424
91.84000 3.276
91.86000 3.418
91.88000 -2.045
91.90000 0.503
91.92000 4.062
91.94000 3.990
91.96000 7.754
91.98000 7.712
92.00000 9.634
92.02000 8.194
92.04000 4.786
92.06000 5.447
92.08000 7.800
92.10000 6.362
92.12000 3.099
92.14000 8.852
92.16000 5.019
92.18000 10.584
92.20000 5.358
92.22000 2.978
92.24000 0.600
92.26000 0.770
92.28000 4.741
92.30000 0.280
92.32000 2.592
92.34000 4.629
92.36000 6.840
92.38000 4.395
92.40000 5.795
92.42000 5.403
92.44000 7.031
92.46000 6.400
92.48000 8.708
92.50000 12.166
92.52000 10.242
92.54000 8.830
92.56000 6.299
92.58000 8.009
92.60000 6.492
92.62000 2.620
92.64000 4.121
92.66000 6.397
92.68000 10.812
92.70000 7.766
92.72000 7.249
92.74000 2.371
92.76000 -2.042
92.78000 4.443
92.80000 3.995
92.82000 3.396
92.84000 6.661
92.86000 7.093
92.88000 3.763
92.90000 0.618
92.92000 4.712
92.94000 5.474
92.96000 3.442
92.98000 3.111
93.00000 4.927
93.02000 4.009
93.04000 -2.056
93.06000 2.745
93.08000 -0.361
93.10000 3.411
93.12000 2.535
93.14000 3.759
93.16000 4.129
93.18000 -1.162
93.20000 -0.102
93.22000 4.762
93.24000 4.747
93.26000 4.931
93.28000 0.874
93.30000 5.737
93.32000 4.356
93.34000 4.041
93.36000 1.808
93.38000 2.103
93.40000 2.661
93.42000 3.743
93.44000 4.733
93.46000 6.719
93.48000 3.885
93.50000 2.610
93.52000 3.216
93.54000 5.191
93.56000 3.047
93.58000 4.818
93.60000 4.757
93.62000 1.798
93.64000 0.038
93.66000 -0.749
93.68000 2.013
93.70000 4.002
93.72000 4.763
93.74000 5.000
93.76000 4.505
93.78000 6.985
93.80000 4.322
93.82000 1.100
93.84000 0.172
93.86000 1.437
93.88000 0.940
93.90000 2.457
93.92000 2.346
93.94000 2.268
93.96000 3.586
93.98000 5.998
94.00000 1.225
94.02000 1.617
94.04000 3.588
94.06000 2.703
94.08000 0.255
94.10000 1.716
94.12000 2.746
94.14000 -1.196
94.16000 -1.637
94.18000 1.043
94.20000 6.430
94.22000 6.237
94.24000 4.831
94.26000 4.109
94.28000 2.087
94.30000 2.214
94.32000 1.058
94.34000 3.044
94.36000 1.673
94.38000 1.965
94.40000 0.843
94.42000 0.802
94.44000 1.537
94.46000 1.218
94.48000 0.004
94.50000 -2.137
94.52000 -0.039
94.54000 1.292
94.56000 -0.064
94.58000 -1.370
94.60000 1.276
94.62000 0.004
94.64000 -0.902
94.66000 -1.359
94.68000 -2.097
94.70000 0.887
94.72000 1.452
94.74000 -1.125
94.76000 3.204
94.78000 0.700
94.80000 0.223
94.82000 -0.972
94.84000 1.271
94.86000 4.296
94.88000 2.803
94.90000 4.091
94.92000 3.027
94.94000 5.113
94.96000 2.180
94.98000 0.183
95.00000 -1.348
95.02000 -1.525
95.04000 0.583
95.06000 1.128
95.08000 4.267
95.10000 3.874
95.12000 -0.853
95.14000 4.639
95.16000 3.291
95.18000 5.969
95.20000 4.914
95.22000 -0.925
95.24000 -0.975
95.26000 2.643
95.28000 3.432
95.30000 6.886
95.32000 3.450
95.34000 1.199
95.36000 2.720
95.38000 1.519
95.40000 0.105
95.42000 1.395
95.44000 4.787
95.46000 5.193
95.48000 7.429
95.50000 8.696
95.52000 3.713
95.54000 0.563
95.56000 0.529
95.58000 2.159
95.60000 5.325
95.62000 3.277
95.64000 3.996
95.66000 7.019
95.68000 2.767
95.70000 2.788
95.72000 1.299
95.74000 2.208
95.76000 6.751
95.78000 6.256
95.80000 4.412
95.82000 2.880
95.84000 7.017
95.86000 5.392
95.88000 7.475
95.90000 4.985
95.92000 4.832
95.94000 4.864
95.96000 2.666
95.98000 4.295
96.00000 5.460
96.02000 6.598
96.04000 11.483
96.06000 7.154
96.08000 0.885
96.10000 -0.383
96.12000 5.602
96.14000 7.780
96.16000 4.150
96.18000 2.693
96.20000 4.268
96.22000 3.095
96.24000 0.316
96.26000 2.742
96.28000 4.671
96.30000 4.693
96.32000 5.725
96.34000 2.744
96.36000 -0.541
96.38000 7.568
96.40000 5.957
96.42000 4.519
96.44000 3.561
96.46000 6.759
96.48000 5.517
96.50000 -2.048
96.52000 4.451
96.54000 12.269
96.56000 7.295
96.58000 9.456
96.60000 11.055
96.62000 7.689
96.64000 4.909
96.66000 4.321
96.68000 1.893
96.70000 6.245
96.72000 9.689
96.74000 5.225
96.76000 1.737
96.78000 2.471
96.80000 -0.450
96.82000 1.623
96.84000 -0.593
96.86000 6.234
96.88000 10.392
96.90000 10.492
96.92000 7.157
96.94000 3.353
96.96000 5.206
96.98000 7.558
97.00000 7.800
97.02000 5.972
97.04000 2.587
97.06000 8.196
97.08000 8.017
97.10000 -0.041
97.12000 0.475
97.14000 0.356
97.16000 2.867
97.18000 8.393
97.20000 5.810
97.22000 9.108
97.24000 1.101
97.26000 3.548
97.28000 9.774
97.30000 -0.877
97.32000 -2.059
97.34000 7.280
97.36000 9.432
97.38000 5.019
97.40000 5.255
97.42000 1.386
97.44000 -1.224
97.46000 -0.771
97.48000 1.961
97.50000 2.682
97.52000 6.708
97.54000 5.554
97.56000 0.864
97.58000 4.179
97.60000 6.351
97.62000 9.714
97.64000 4.107
97.66000 1.988
97.68000 2.989
97.70000 -2.069
97.72000 3.027
97.74000 6.044
97.76000 4.595
97.78000 5.073
97.80000 3.981
97.82000 6.164
97.84000 9.942
97.86000 6.174
97.88000 7.038
97.90000 2.020
97.92000 2.703
97.94000 5.360
97.96000 3.780
97.98000 0.395
98.00000 2.004
98.02000 4.202
98.04000 4.594
98.06000 3.644
98.08000 1.843
98.10000 -2.068
98.12000 -1.707
98.14000 4.648
98.16000 -0.193
98.18000 -0.022
98.20000 6.080
98.22000 6.848
98.24000 2.977
98.26000 4.015
98.28000 3.584
98.30000 2.597
98.32000 4.539
98.34000 1.887
98.36000 0.931
98.38000 -0.945
98.40000 -1.614
98.42000 -0.759
98.44000 2.924
98.46000 2.180
98.48000 0.549
98.50000 5.473
98.52000 3.366
98.54000 6.161
98.56000 4.662
98.58000 1.608
98.60000 3.622
98.62000 6.439
98.64000 2.247
98.66000 7.988
98.68000 1.236
98.70000 -0.306
98.72000 2.041
98.74000 4.926
98.76000 4.126
98.78000 2.575
98.80000 6.217
98.82000 7.335
98.84000 3.177
98.86000 4.805
98.88000 6.186
98.90000 6.552
98.92000 11.863
98.94000 6.904
98.96000 7.576
98.98000 2.375
99.00000 1.598
99.02000 2.794
99.04000 5.710
99.06000 -2.035
99.08000 2.148
99.10000 8.410
99.12000 1.067
99.14000 2.333
99.16000 8.292
99.18000 9.088
99.20000 6.258
99.22000 6.213
99.24000 4.466
99.26000 3.724
99.28000 7.781
99.30000 8.610
99.32000 17.550
99.34000 7.382
99.36000 -0.057
99.38000 3.291
99.40000 10.480
99.42000 10.790
99.44000 6.210
99.46000 4.164
99.48000 6.639
99.50000 8.113
99.52000 5.789
99.54000 10.470
99.56000 6.545
99.58000 -3.428
99.60000 2.732
99.62000 12.566
99.64000 15.314
99.66000 12.200
99.68000 1.213
99.70000 0.896
99.72000 -1.064
99.74000 1.444
99.76000 0.918
99.78000 0.744
99.80000 1.084
99.82000 4.672
99.84000 -1.428
99.86000 4.319
99.88000 -2.264
99.90000 1.491
99.92000 2.296
99.94000 2.979
99.96000 1.346
99.98000 0.000
