'Id: "0011389" Comment: "Integrate frame 0011389_Au-Ir-Rh_Au-Rich_XRD_Mapping-109-0000.gfrmwith cursor Wedge Cursor #5" Operator: "B?rgel" Anode: "Cu" Wavelength: "1.5406" Scantype: "2Theta (TwoTheta)" TimePerStep: "1" X: "22.5" Y: "-13.5" Z: "5.95" 
10.00000 0.000
10.02000 5.974
10.04000 -1.415
10.06000 -3.556
10.08000 2.029
10.10000 2.482
10.12000 6.573
10.14000 2.236
10.16000 4.915
10.18000 9.441
10.20000 19.584
10.22000 14.905
10.24000 23.356
10.26000 21.748
10.28000 12.967
10.30000 18.844
10.32000 11.086
10.34000 6.520
10.36000 24.093
10.38000 17.250
10.40000 25.994
10.42000 23.850
10.44000 18.648
10.46000 18.326
10.48000 12.404
10.50000 3.005
10.52000 -0.166
10.54000 17.393
10.56000 20.522
10.58000 21.918
10.60000 15.588
10.62000 27.873
10.64000 20.062
10.66000 23.283
10.68000 22.883
10.70000 20.757
10.72000 22.752
10.74000 33.020
10.76000 36.066
10.78000 25.747
10.80000 27.986
10.82000 29.621
10.84000 22.515
10.86000 23.038
10.88000 21.815
10.90000 18.496
10.92000 29.886
10.94000 32.104
10.96000 28.438
10.98000 29.065
11.00000 26.554
11.02000 27.916
11.04000 32.773
11.06000 28.464
11.08000 20.286
11.10000 27.136
11.12000 22.613
11.14000 22.688
11.16000 22.255
11.18000 22.236
11.20000 30.991
11.22000 36.812
11.24000 17.747
11.26000 17.733
11.28000 27.251
11.30000 27.748
11.32000 29.111
11.34000 32.108
11.36000 31.601
11.38000 30.599
11.40000 12.248
11.42000 24.568
11.44000 42.171
11.46000 33.653
11.48000 29.899
11.50000 17.960
11.52000 19.854
11.54000 23.855
11.56000 36.750
11.58000 33.158
11.60000 23.089
11.62000 32.447
11.64000 24.991
11.66000 23.459
11.68000 29.447
11.70000 31.166
11.72000 29.901
11.74000 22.875
11.76000 19.873
11.78000 26.557
11.80000 26.046
11.82000 32.629
11.84000 23.310
11.86000 26.171
11.88000 26.236
11.90000 25.291
11.92000 35.707
11.94000 33.159
11.96000 42.622
11.98000 37.354
12.00000 23.461
12.02000 13.430
12.04000 26.563
12.06000 33.169
12.08000 36.337
12.10000 40.551
12.12000 51.121
12.14000 37.016
12.16000 26.713
12.18000 28.050
12.20000 38.555
12.22000 29.123
12.24000 25.668
12.26000 28.406
12.28000 26.002
12.30000 22.300
12.32000 34.544
12.34000 25.033
12.36000 13.193
12.38000 25.738
12.40000 39.144
12.42000 45.247
12.44000 32.537
12.46000 31.697
12.48000 31.448
12.50000 24.941
12.52000 26.988
12.54000 33.843
12.56000 39.068
12.58000 32.807
12.60000 30.348
12.62000 36.410
12.64000 30.309
12.66000 41.946
12.68000 39.512
12.70000 30.299
12.72000 30.359
12.74000 30.657
12.76000 23.427
12.78000 18.319
12.80000 21.784
12.82000 30.576
12.84000 28.449
12.86000 20.354
12.88000 26.569
12.90000 28.717
12.92000 34.895
12.94000 36.867
12.96000 35.100
12.98000 37.115
13.00000 35.565
13.02000 30.191
13.04000 33.558
13.06000 38.672
13.08000 29.158
13.10000 22.460
13.12000 27.093
13.14000 33.813
13.16000 35.175
13.18000 35.323
13.20000 51.409
13.22000 44.017
13.24000 32.854
13.26000 29.140
13.28000 26.351
13.30000 36.006
13.32000 26.157
13.34000 18.838
13.36000 26.854
13.38000 32.785
13.40000 37.178
13.42000 37.307
13.44000 28.110
13.46000 24.987
13.48000 29.119
13.50000 24.976
13.52000 29.973
13.54000 33.052
13.56000 37.421
13.58000 27.710
13.60000 18.615
13.62000 23.135
13.64000 31.598
13.66000 23.999
13.68000 31.718
13.70000 23.157
13.72000 14.674
13.74000 17.269
13.76000 30.317
13.78000 34.960
13.80000 25.639
13.82000 21.046
13.84000 28.338
13.86000 36.676
13.88000 34.563
13.90000 25.029
13.92000 17.005
13.94000 24.335
13.96000 20.990
13.98000 18.736
14.00000 18.667
14.02000 28.381
14.04000 25.269
14.06000 18.301
14.08000 20.258
14.10000 12.366
14.12000 10.558
14.14000 28.019
14.16000 28.126
14.18000 15.760
14.20000 24.975
14.22000 13.924
14.24000 8.871
14.26000 21.411
14.28000 24.042
14.30000 18.338
14.32000 20.660
14.34000 25.930
14.36000 24.640
14.38000 19.100
14.40000 22.953
14.42000 23.677
14.44000 12.569
14.46000 12.962
14.48000 14.187
14.50000 11.102
14.52000 19.065
14.54000 16.398
14.56000 19.984
14.58000 25.445
14.60000 20.482
14.62000 14.378
14.64000 14.044
14.66000 10.988
14.68000 23.747
14.70000 37.858
14.72000 23.705
14.74000 10.165
14.76000 7.886
14.78000 15.319
14.80000 7.753
14.82000 11.477
14.84000 15.689
14.86000 18.794
14.88000 11.779
14.90000 14.817
14.92000 19.531
14.94000 24.380
14.96000 22.023
14.98000 14.549
15.00000 16.615
15.02000 20.837
15.04000 16.508
15.06000 10.459
15.08000 12.155
15.10000 14.114
15.12000 18.300
15.14000 25.199
15.16000 15.564
15.18000 2.934
15.20000 15.717
15.22000 12.783
15.24000 13.618
15.26000 20.916
15.28000 13.534
15.30000 11.195
15.32000 9.515
15.34000 10.641
15.36000 18.195
15.38000 14.675
15.40000 10.433
15.42000 13.279
15.44000 16.540
15.46000 17.353
15.48000 14.835
15.50000 19.405
15.52000 21.348
15.54000 11.440
15.56000 13.056
15.58000 10.442
15.60000 14.403
15.62000 19.940
15.64000 20.507
15.66000 11.508
15.68000 13.882
15.70000 8.131
15.72000 5.638
15.74000 8.060
15.76000 15.054
15.78000 14.208
15.80000 10.101
15.82000 9.092
15.84000 5.986
15.86000 3.808
15.88000 9.564
15.90000 14.665
15.92000 6.459
15.94000 6.747
15.96000 11.048
15.98000 15.155
16.00000 11.946
16.02000 8.000
16.04000 13.145
16.06000 9.893
16.08000 16.476
16.10000 17.965
16.12000 8.333
16.14000 9.037
16.16000 11.475
16.18000 14.170
16.20000 12.444
16.22000 9.402
16.24000 10.770
16.26000 12.800
16.28000 13.647
16.30000 10.232
16.32000 2.996
16.34000 1.834
16.36000 4.019
16.38000 6.313
16.40000 9.414
16.42000 8.262
16.44000 4.287
16.46000 5.192
16.48000 6.649
16.50000 10.453
16.52000 5.503
16.54000 -1.557
16.56000 5.624
16.58000 7.584
16.60000 10.642
16.62000 11.640
16.64000 6.732
16.66000 11.817
16.68000 9.182
16.70000 7.248
16.72000 7.783
16.74000 12.324
16.76000 -1.305
16.78000 -4.389
16.80000 7.109
16.82000 9.711
16.84000 5.206
16.86000 8.933
16.88000 7.176
16.90000 7.832
16.92000 9.265
16.94000 13.682
16.96000 12.830
16.98000 1.629
17.00000 1.557
17.02000 14.840
17.04000 19.012
17.06000 11.617
17.08000 7.238
17.10000 6.424
17.12000 9.265
17.14000 7.584
17.16000 6.192
17.18000 10.773
17.20000 18.007
17.22000 16.926
17.24000 9.642
17.26000 6.664
17.28000 8.116
17.30000 8.235
17.32000 9.254
17.34000 3.764
17.36000 4.314
17.38000 11.051
17.40000 9.578
17.42000 6.741
17.44000 2.001
17.46000 -1.513
17.48000 7.640
17.50000 5.639
17.52000 5.296
17.54000 3.325
17.56000 1.295
17.58000 5.138
17.60000 0.858
17.62000 1.620
17.64000 3.824
17.66000 -0.110
17.68000 3.186
17.70000 8.673
17.72000 7.185
17.74000 3.702
17.76000 0.037
17.78000 -2.118
17.80000 0.041
17.82000 3.575
17.84000 2.456
17.86000 2.822
17.88000 5.545
17.90000 6.412
17.92000 3.577
17.94000 5.454
17.96000 2.576
17.98000 4.079
18.00000 9.490
18.02000 6.222
18.04000 7.483
18.06000 3.267
18.08000 3.336
18.10000 0.394
18.12000 2.858
18.14000 -0.081
18.16000 -4.340
18.18000 5.858
18.20000 3.976
18.22000 3.197
18.24000 -1.364
18.26000 -0.053
18.28000 7.235
18.30000 6.276
18.32000 3.140
18.34000 -0.979
18.36000 3.692
18.38000 1.175
18.40000 1.876
18.42000 9.057
18.44000 5.070
18.46000 5.975
18.48000 -2.135
18.50000 2.147
18.52000 3.095
18.54000 4.920
18.56000 -0.671
18.58000 -1.437
18.60000 0.035
18.62000 -1.152
18.64000 -1.451
18.66000 5.664
18.68000 6.801
18.70000 7.326
18.72000 3.359
18.74000 5.468
18.76000 9.693
18.78000 8.631
18.80000 3.429
18.82000 -1.885
18.84000 -1.464
18.86000 5.971
18.88000 9.984
18.90000 8.884
18.92000 9.044
18.94000 9.007
18.96000 2.230
18.98000 2.187
19.00000 2.686
19.02000 3.303
19.04000 4.379
19.06000 6.749
19.08000 4.572
19.10000 -0.811
19.12000 -2.738
19.14000 3.256
19.16000 2.589
19.18000 0.996
19.20000 -1.320
19.22000 2.897
19.24000 5.551
19.26000 -2.936
19.28000 -4.294
19.30000 -1.952
19.32000 0.676
19.34000 2.353
19.36000 -3.345
19.38000 -0.577
19.40000 -1.298
19.42000 10.170
19.44000 7.907
19.46000 8.854
19.48000 10.191
19.50000 7.694
19.52000 1.553
19.54000 -0.758
19.56000 7.037
19.58000 5.414
19.60000 0.672
19.62000 2.715
19.64000 2.872
19.66000 2.845
19.68000 -0.611
19.70000 -1.255
19.72000 -0.032
19.74000 2.353
19.76000 -1.183
19.78000 4.423
19.80000 0.279
19.82000 -2.063
19.84000 -1.329
19.86000 -3.458
19.88000 3.545
19.90000 6.686
19.92000 4.537
19.94000 4.577
19.96000 3.937
19.98000 -0.382
20.00000 2.583
20.02000 2.464
20.04000 -3.021
20.06000 -3.031
20.08000 -1.688
20.10000 7.913
20.12000 7.514
20.14000 1.147
20.16000 9.720
20.18000 12.188
20.20000 5.323
20.22000 -4.218
20.24000 1.831
20.26000 6.297
20.28000 -1.082
20.30000 3.960
20.32000 8.537
20.34000 11.576
20.36000 5.810
20.38000 -0.393
20.40000 2.260
20.42000 7.117
20.44000 9.165
20.46000 6.777
20.48000 3.908
20.50000 6.448
20.52000 3.755
20.54000 -0.725
20.56000 -1.235
20.58000 -0.804
20.60000 0.557
20.62000 1.932
20.64000 4.739
20.66000 8.710
20.68000 6.504
20.70000 2.617
20.72000 0.764
20.74000 -0.340
20.76000 5.342
20.78000 -1.641
20.80000 -1.069
20.82000 4.606
20.84000 5.403
20.86000 8.749
20.88000 4.257
20.90000 0.881
20.92000 7.217
20.94000 5.983
20.96000 7.665
20.98000 5.414
21.00000 -0.125
21.02000 -0.291
21.04000 2.065
21.06000 2.243
21.08000 2.814
21.10000 -1.207
21.12000 -0.210
21.14000 7.089
21.16000 11.916
21.18000 3.444
21.20000 -1.372
21.22000 -2.228
21.24000 2.433
21.26000 6.636
21.28000 2.770
21.30000 -0.936
21.32000 1.857
21.34000 1.108
21.36000 -1.163
21.38000 -2.271
21.40000 0.755
21.42000 1.977
21.44000 1.363
21.46000 7.805
21.48000 2.904
21.50000 1.436
21.52000 1.420
21.54000 2.299
21.56000 0.205
21.58000 3.296
21.60000 8.783
21.62000 6.523
21.64000 10.533
21.66000 10.184
21.68000 0.705
21.70000 2.816
21.72000 4.430
21.74000 -4.142
21.76000 -0.979
21.78000 5.574
21.80000 -0.395
21.82000 -1.200
21.84000 -1.304
21.86000 -1.332
21.88000 -4.134
21.90000 -0.718
21.92000 -0.480
21.94000 -1.868
21.96000 -3.279
21.98000 1.341
22.00000 -1.664
22.02000 -1.310
22.04000 3.032
22.06000 6.075
22.08000 1.896
22.10000 7.450
22.12000 3.311
22.14000 5.575
22.16000 12.763
22.18000 8.608
22.20000 3.859
22.22000 3.909
22.24000 1.349
22.26000 2.262
22.28000 1.382
22.30000 -2.660
22.32000 -0.136
22.34000 7.664
22.36000 2.544
22.38000 8.712
22.40000 5.607
22.42000 4.554
22.44000 3.250
22.46000 5.673
22.48000 12.748
22.50000 7.658
22.52000 3.974
22.54000 4.035
22.56000 6.590
22.58000 2.471
22.60000 7.693
22.62000 2.261
22.64000 8.130
22.66000 7.017
22.68000 4.010
22.70000 8.734
22.72000 8.482
22.74000 3.227
22.76000 4.584
22.78000 0.741
22.80000 -1.293
22.82000 0.447
22.84000 5.714
22.86000 4.613
22.88000 5.452
22.90000 3.289
22.92000 8.590
22.94000 2.889
22.96000 3.895
22.98000 7.048
23.00000 2.823
23.02000 -4.055
23.04000 4.189
23.06000 7.043
23.08000 3.332
23.10000 3.832
23.12000 6.069
23.14000 2.806
23.16000 7.542
23.18000 5.590
23.20000 4.531
23.22000 3.180
23.24000 0.798
23.26000 2.077
23.28000 3.814
23.30000 1.637
23.32000 -1.256
23.34000 2.105
23.36000 -2.131
23.38000 8.748
23.40000 7.039
23.42000 4.437
23.44000 5.844
23.46000 0.552
23.48000 2.837
23.50000 1.058
23.52000 -0.442
23.54000 2.743
23.56000 3.869
23.58000 2.507
23.60000 4.578
23.62000 2.028
23.64000 -0.434
23.66000 -4.035
23.68000 -3.171
23.70000 1.134
23.72000 4.627
23.74000 4.392
23.76000 2.279
23.78000 1.620
23.80000 -1.887
23.82000 0.167
23.84000 2.212
23.86000 -2.912
23.88000 -0.432
23.90000 2.513
23.92000 -0.053
23.94000 2.420
23.96000 3.006
23.98000 -1.518
24.00000 -3.748
24.02000 -4.016
24.04000 -0.534
24.06000 5.369
24.08000 10.956
24.10000 12.165
24.12000 5.474
24.14000 3.453
24.16000 0.740
24.18000 3.758
24.20000 6.272
24.22000 6.473
24.24000 4.876
24.26000 4.292
24.28000 0.240
24.30000 4.194
24.32000 7.606
24.34000 5.664
24.36000 -1.644
24.38000 -0.821
24.40000 7.938
24.42000 4.181
24.44000 -3.994
24.46000 1.567
24.48000 0.674
24.50000 1.459
24.52000 4.078
24.54000 0.928
24.56000 3.319
24.58000 3.674
24.60000 4.802
24.62000 3.541
24.64000 4.532
24.66000 0.930
24.68000 2.668
24.70000 4.337
24.72000 2.498
24.74000 -1.759
24.76000 4.994
24.78000 4.018
24.80000 4.865
24.82000 6.237
24.84000 6.828
24.86000 4.320
24.88000 -0.384
24.90000 3.499
24.92000 1.767
24.94000 1.765
24.96000 7.962
24.98000 11.235
25.00000 5.386
25.02000 8.386
25.04000 7.727
25.06000 2.641
25.08000 -0.963
25.10000 0.082
25.12000 2.947
25.14000 -3.385
25.16000 -0.976
25.18000 6.222
25.20000 5.758
25.22000 7.568
25.24000 1.458
25.26000 1.387
25.28000 2.723
25.30000 1.527
25.32000 0.583
25.34000 -0.409
25.36000 5.810
25.38000 8.341
25.40000 3.142
25.42000 3.413
25.44000 4.563
25.46000 12.235
25.48000 6.861
25.50000 5.041
25.52000 5.790
25.54000 5.407
25.56000 6.989
25.58000 2.567
25.60000 8.671
25.62000 11.882
25.64000 13.583
25.66000 7.481
25.68000 9.830
25.70000 7.471
25.72000 12.952
25.74000 9.816
25.76000 7.186
25.78000 6.863
25.80000 6.161
25.82000 2.980
25.84000 -3.867
25.86000 -0.370
25.88000 6.647
25.90000 8.205
25.92000 5.853
25.94000 5.017
25.96000 5.945
25.98000 1.467
26.00000 11.163
26.02000 9.310
26.04000 3.629
26.06000 7.891
26.08000 9.424
26.10000 5.155
26.12000 6.169
26.14000 9.429
26.16000 9.789
26.18000 7.562
26.20000 9.713
26.22000 9.463
26.24000 9.297
26.26000 6.853
26.28000 1.243
26.30000 3.444
26.32000 8.010
26.34000 2.676
26.36000 0.333
26.38000 3.542
26.40000 3.913
26.42000 2.570
26.44000 4.825
26.46000 6.041
26.48000 2.763
26.50000 1.293
26.52000 4.457
26.54000 0.308
26.56000 2.108
26.58000 3.150
26.60000 1.698
26.62000 0.557
26.64000 3.657
26.66000 -1.509
26.68000 2.686
26.70000 2.146
26.72000 2.680
26.74000 2.533
26.76000 2.774
26.78000 2.289
26.80000 -0.067
26.82000 -0.653
26.84000 1.602
26.86000 8.617
26.88000 6.273
26.90000 3.191
26.92000 2.130
26.94000 -0.501
26.96000 -3.861
26.98000 2.865
27.00000 5.590
27.02000 8.350
27.04000 5.531
27.06000 4.092
27.08000 3.827
27.10000 4.820
27.12000 4.110
27.14000 -0.488
27.16000 1.605
27.18000 -0.545
27.20000 2.358
27.22000 4.494
27.24000 5.593
27.26000 4.355
27.28000 2.614
27.30000 2.969
27.32000 3.835
27.34000 3.657
27.36000 3.579
27.38000 7.009
27.40000 7.125
27.42000 2.465
27.44000 1.131
27.46000 -0.830
27.48000 0.065
27.50000 1.319
27.52000 1.706
27.54000 0.657
27.56000 2.518
27.58000 2.754
27.60000 5.387
27.62000 9.298
27.64000 5.705
27.66000 0.079
27.68000 1.512
27.70000 4.858
27.72000 -0.644
27.74000 3.967
27.76000 0.602
27.78000 -2.242
27.80000 3.023
27.82000 1.904
27.84000 6.663
27.86000 5.753
27.88000 0.813
27.90000 3.213
27.92000 4.701
27.94000 5.594
27.96000 10.632
27.98000 8.519
28.00000 3.140
28.02000 9.949
28.04000 5.074
28.06000 -0.218
28.08000 3.623
28.10000 7.002
28.12000 6.004
28.14000 5.769
28.16000 8.752
28.18000 2.021
28.20000 1.987
28.22000 -3.786
28.24000 -1.161
28.26000 4.499
28.28000 4.151
28.30000 -0.215
28.32000 -0.012
28.34000 -0.014
28.36000 0.975
28.38000 3.158
28.40000 3.396
28.42000 3.675
28.44000 -2.369
28.46000 0.954
28.48000 2.743
28.50000 0.528
28.52000 3.029
28.54000 5.025
28.56000 6.930
28.58000 5.043
28.60000 5.471
28.62000 3.382
28.64000 0.123
28.66000 -3.749
28.68000 -0.482
28.70000 4.461
28.72000 8.829
28.74000 2.937
28.76000 2.848
28.78000 9.613
28.80000 5.548
28.82000 6.333
28.84000 3.441
28.86000 1.667
28.88000 3.795
28.90000 4.449
28.92000 4.451
28.94000 4.794
28.96000 5.653
28.98000 3.840
29.00000 2.853
29.02000 5.786
29.04000 2.968
29.06000 3.573
29.08000 4.156
29.10000 2.307
29.12000 0.748
29.14000 5.546
29.16000 5.623
29.18000 6.981
29.20000 5.866
29.22000 7.750
29.24000 7.984
29.26000 4.300
29.28000 0.349
29.30000 -0.732
29.32000 1.541
29.34000 0.196
29.36000 1.894
29.38000 2.863
29.40000 11.046
29.42000 11.527
29.44000 8.775
29.46000 4.360
29.48000 2.458
29.50000 -3.729
29.52000 0.611
29.54000 1.676
29.56000 -3.102
29.58000 -2.008
29.60000 2.128
29.62000 2.150
29.64000 1.075
29.66000 0.924
29.68000 -1.008
29.70000 0.337
29.72000 6.453
29.74000 6.595
29.76000 5.332
29.78000 6.573
29.80000 7.439
29.82000 2.755
29.84000 0.670
29.86000 4.231
29.88000 1.692
29.90000 1.629
29.92000 5.913
29.94000 6.191
29.96000 3.018
29.98000 1.581
30.00000 4.290
30.02000 3.439
30.04000 -0.640
30.06000 -0.265
30.08000 -3.608
30.10000 2.808
30.12000 2.793
30.14000 5.107
30.16000 9.643
30.18000 3.498
30.20000 -3.697
30.22000 1.645
30.24000 1.503
30.26000 6.473
30.28000 2.948
30.30000 -1.256
30.32000 -0.496
30.34000 5.007
30.36000 8.656
30.38000 8.071
30.40000 2.284
30.42000 -0.741
30.44000 3.890
30.46000 5.782
30.48000 6.177
30.50000 2.656
30.52000 2.105
30.54000 0.653
30.56000 -2.183
30.58000 0.887
30.60000 4.765
30.62000 4.819
30.64000 7.100
30.66000 4.856
30.68000 5.610
30.70000 4.491
30.72000 3.720
30.74000 2.773
30.76000 8.265
30.78000 1.038
30.80000 0.959
30.82000 1.909
30.84000 4.610
30.86000 1.155
30.88000 2.482
30.90000 2.593
30.92000 3.513
30.94000 3.932
30.96000 6.815
30.98000 6.470
31.00000 4.633
31.02000 3.322
31.04000 3.389
31.06000 -2.561
31.08000 -0.062
31.10000 -0.763
31.12000 3.035
31.14000 1.853
31.16000 -0.486
31.18000 2.358
31.20000 6.028
31.22000 5.318
31.24000 2.687
31.26000 1.067
31.28000 2.826
31.30000 3.381
31.32000 -2.352
31.34000 -3.629
31.36000 0.318
31.38000 4.824
31.40000 6.952
31.42000 4.073
31.44000 9.639
31.46000 9.105
31.48000 3.526
31.50000 6.507
31.52000 7.772
31.54000 4.094
31.56000 1.545
31.58000 1.555
31.60000 0.417
31.62000 7.557
31.64000 5.361
31.66000 2.582
31.68000 3.983
31.70000 1.047
31.72000 2.278
31.74000 2.197
31.76000 0.869
31.78000 0.731
31.80000 3.523
31.82000 3.598
31.84000 8.051
31.86000 2.636
31.88000 6.598
31.90000 3.744
31.92000 2.075
31.94000 5.769
31.96000 4.989
31.98000 1.508
32.00000 -1.114
32.02000 1.759
32.04000 5.532
32.06000 5.749
32.08000 4.848
32.10000 4.016
32.12000 1.323
32.14000 3.204
32.16000 -2.274
32.18000 -2.428
32.20000 -2.184
32.22000 2.517
32.24000 2.003
32.26000 2.992
32.28000 0.942
32.30000 1.958
32.32000 4.716
32.34000 3.004
32.36000 5.642
32.38000 0.798
32.40000 1.592
32.42000 6.874
32.44000 5.495
32.46000 6.101
32.48000 7.014
32.50000 8.452
32.52000 3.736
32.54000 0.196
32.56000 2.939
32.58000 6.820
32.60000 4.365
32.62000 -0.668
32.64000 -3.083
32.66000 4.270
32.68000 4.550
32.70000 4.823
32.72000 2.990
32.74000 4.829
32.76000 1.492
32.78000 -2.647
32.80000 -0.377
32.82000 4.999
32.84000 0.912
32.86000 1.326
32.88000 1.400
32.90000 2.064
32.92000 1.630
32.94000 0.562
32.96000 8.852
32.98000 8.008
33.00000 6.591
33.02000 7.191
33.04000 2.267
33.06000 3.050
33.08000 6.355
33.10000 7.426
33.12000 6.611
33.14000 6.050
33.16000 2.957
33.18000 8.522
33.20000 5.997
33.22000 6.327
33.24000 9.086
33.26000 4.151
33.28000 -3.534
33.30000 3.686
33.32000 9.810
33.34000 8.969
33.36000 3.405
33.38000 6.920
33.40000 11.076
33.42000 9.558
33.44000 6.631
33.46000 5.562
33.48000 7.669
33.50000 8.361
33.52000 6.973
33.54000 4.867
33.56000 5.369
33.58000 4.596
33.60000 8.137
33.62000 10.452
33.64000 7.164
33.66000 6.103
33.68000 9.318
33.70000 5.502
33.72000 10.591
33.74000 10.846
33.76000 8.503
33.78000 5.547
33.80000 6.099
33.82000 6.370
33.84000 12.000
33.86000 13.701
33.88000 8.151
33.90000 5.053
33.92000 3.246
33.94000 -0.177
33.96000 2.760
33.98000 13.363
34.00000 6.492
34.02000 4.202
34.04000 3.065
34.06000 5.712
34.08000 8.588
34.10000 10.348
34.12000 7.025
34.14000 4.477
34.16000 5.825
34.18000 1.543
34.20000 1.608
34.22000 1.766
34.24000 2.742
34.26000 6.594
34.28000 11.384
34.30000 5.252
34.32000 5.705
34.34000 8.996
34.36000 5.976
34.38000 2.583
34.40000 4.230
34.42000 6.208
34.44000 5.908
34.46000 3.452
34.48000 4.198
34.50000 5.473
34.52000 2.913
34.54000 0.485
34.56000 3.214
34.58000 -0.120
34.60000 3.463
34.62000 4.133
34.64000 0.233
34.66000 4.817
34.68000 3.620
34.70000 1.174
34.72000 4.828
34.74000 1.094
34.76000 2.268
34.78000 2.139
34.80000 0.020
34.82000 0.478
34.84000 5.210
34.86000 4.824
34.88000 6.431
34.90000 -0.321
34.92000 1.880
34.94000 4.536
34.96000 1.396
34.98000 -2.477
35.00000 -1.127
35.02000 1.319
35.04000 0.995
35.06000 3.957
35.08000 0.134
35.10000 -1.919
35.12000 -1.834
35.14000 -3.565
35.16000 -1.682
35.18000 1.559
35.20000 3.039
35.22000 3.468
35.24000 1.649
35.26000 3.341
35.28000 -0.068
35.30000 0.001
35.32000 1.875
35.34000 3.227
35.36000 8.010
35.38000 4.307
35.40000 3.123
35.42000 3.691
35.44000 5.604
35.46000 5.349
35.48000 5.907
35.50000 2.087
35.52000 0.042
35.54000 -2.862
35.56000 -3.571
35.58000 -2.232
35.60000 -2.574
35.62000 -1.209
35.64000 -0.001
35.66000 6.653
35.68000 1.833
35.70000 -0.615
35.72000 0.905
35.74000 2.774
35.76000 6.516
35.78000 4.970
35.80000 7.680
35.82000 3.111
35.84000 -0.662
35.86000 1.885
35.88000 0.777
35.90000 4.603
35.92000 -0.961
35.94000 0.665
35.96000 1.923
35.98000 -2.268
36.00000 2.616
36.02000 -0.452
36.04000 -0.449
36.06000 5.493
36.08000 5.090
36.10000 3.485
36.12000 -3.329
36.14000 0.424
36.16000 0.968
36.18000 -0.400
36.20000 3.077
36.22000 3.832
36.24000 0.324
36.26000 1.889
36.28000 2.449
36.30000 0.623
36.32000 -3.586
36.34000 0.186
36.36000 9.020
36.38000 10.551
36.40000 5.445
36.42000 -2.631
36.44000 1.452
36.46000 4.720
36.48000 7.335
36.50000 6.247
36.52000 2.825
36.54000 -1.949
36.56000 -0.448
36.58000 3.498
36.60000 3.856
36.62000 7.400
36.64000 9.832
36.66000 8.783
36.68000 3.373
36.70000 1.318
36.72000 -3.599
36.74000 0.088
36.76000 2.630
36.78000 7.876
36.80000 3.972
36.82000 2.190
36.84000 2.890
36.86000 -2.152
36.88000 1.070
36.90000 3.816
36.92000 9.510
36.94000 4.322
36.96000 3.067
36.98000 2.279
37.00000 3.237
37.02000 5.515
37.04000 5.050
37.06000 2.139
37.08000 2.621
37.10000 3.103
37.12000 3.494
37.14000 8.576
37.16000 5.035
37.18000 1.234
37.20000 0.342
37.22000 -0.639
37.24000 7.736
37.26000 10.610
37.28000 8.357
37.30000 4.354
37.32000 6.979
37.34000 2.294
37.36000 4.929
37.38000 4.936
37.40000 4.813
37.42000 7.609
37.44000 10.571
37.46000 10.781
37.48000 6.822
37.50000 2.188
37.52000 6.378
37.54000 8.362
37.56000 9.832
37.58000 12.320
37.60000 14.177
37.62000 13.712
37.64000 7.777
37.66000 9.150
37.68000 11.716
37.70000 13.038
37.72000 16.218
37.74000 14.709
37.76000 13.721
37.78000 14.509
37.80000 11.285
37.82000 13.719
37.84000 18.677
37.86000 17.573
37.88000 16.698
37.90000 18.818
37.92000 19.860
37.94000 20.729
37.96000 15.960
37.98000 17.867
38.00000 23.011
38.02000 24.595
38.04000 24.388
38.06000 23.617
38.08000 20.825
38.10000 19.152
38.12000 22.406
38.14000 28.110
38.16000 30.271
38.18000 28.081
38.20000 30.042
38.22000 30.095
38.24000 30.907
38.26000 33.406
38.28000 38.207
38.30000 38.492
38.32000 32.851
38.34000 29.010
38.36000 32.733
38.38000 31.097
38.40000 33.093
38.42000 37.482
38.44000 42.395
38.46000 43.144
38.48000 39.897
38.50000 45.899
38.52000 48.297
38.54000 49.126
38.56000 48.848
38.58000 52.585
38.60000 54.170
38.62000 56.669
38.64000 59.031
38.66000 62.519
38.68000 63.149
38.70000 69.218
38.72000 71.060
38.74000 73.685
38.76000 74.923
38.78000 78.097
38.80000 83.272
38.82000 83.311
38.84000 90.073
38.86000 97.976
38.88000 100.580
38.90000 102.389
38.92000 109.105
38.94000 118.954
38.96000 128.201
38.98000 127.153
39.00000 136.533
39.02000 141.826
39.04000 150.950
39.06000 164.315
39.08000 163.891
39.10000 170.287
39.12000 180.652
39.14000 199.094
39.16000 204.064
39.18000 218.896
39.20000 233.157
39.22000 248.715
39.24000 257.604
39.26000 276.143
39.28000 293.479
39.30000 299.966
39.32000 320.194
39.34000 331.438
39.36000 351.697
39.38000 374.121
39.40000 394.579
39.42000 410.266
39.44000 434.525
39.46000 451.981
39.48000 481.498
39.50000 501.515
39.52000 519.918
39.54000 535.126
39.56000 557.110
39.58000 568.538
39.60000 581.505
39.62000 593.061
39.64000 606.668
39.66000 624.921
39.68000 632.328
39.70000 642.842
39.72000 648.402
39.74000 654.218
39.76000 654.047
39.78000 653.140
39.80000 647.366
39.82000 637.428
39.84000 633.308
39.86000 618.049
39.88000 608.091
39.90000 597.326
39.92000 580.837
39.94000 564.934
39.96000 545.625
39.98000 526.646
40.00000 505.422
40.02000 477.165
40.04000 474.902
40.06000 457.968
40.08000 435.946
40.10000 405.375
40.12000 386.302
40.14000 368.773
40.16000 342.536
40.18000 325.393
40.20000 313.769
40.22000 287.922
40.24000 277.015
40.26000 262.494
40.28000 237.284
40.30000 227.054
40.32000 213.112
40.34000 198.807
40.36000 181.600
40.38000 175.581
40.40000 169.495
40.42000 157.015
40.44000 152.781
40.46000 139.270
40.48000 128.685
40.50000 127.622
40.52000 117.579
40.54000 107.270
40.56000 101.448
40.58000 98.484
40.60000 92.249
40.62000 87.755
40.64000 77.394
40.66000 71.617
40.68000 69.191
40.70000 63.213
40.72000 60.064
40.74000 57.858
40.76000 58.527
40.78000 54.936
40.80000 50.903
40.82000 49.448
40.84000 46.174
40.86000 45.063
40.88000 39.398
40.90000 35.736
40.92000 35.179
40.94000 34.770
40.96000 30.959
40.98000 25.587
41.00000 23.923
41.02000 24.539
41.04000 28.527
41.06000 25.887
41.08000 25.446
41.10000 26.256
41.12000 21.531
41.14000 16.913
41.16000 14.327
41.18000 16.571
41.20000 19.262
41.22000 15.667
41.24000 12.137
41.26000 12.899
41.28000 13.016
41.30000 11.806
41.32000 14.140
41.34000 12.985
41.36000 18.841
41.38000 17.188
41.40000 11.126
41.42000 7.031
41.44000 4.950
41.46000 4.999
41.48000 6.258
41.50000 3.381
41.52000 8.743
41.54000 9.319
41.56000 4.304
41.58000 2.013
41.60000 8.416
41.62000 6.313
41.64000 4.738
41.66000 4.693
41.68000 2.084
41.70000 0.981
41.72000 3.826
41.74000 5.043
41.76000 7.433
41.78000 9.984
41.80000 1.459
41.82000 -0.841
41.84000 0.350
41.86000 1.422
41.88000 0.598
41.90000 -0.568
41.92000 1.440
41.94000 4.340
41.96000 2.850
41.98000 -1.378
42.00000 -3.423
42.02000 -1.883
42.04000 1.483
42.06000 -0.454
42.08000 -0.488
42.10000 0.000
42.12000 1.886
42.14000 0.384
42.16000 -2.092
42.18000 1.361
42.20000 0.063
42.22000 -0.656
42.24000 -2.006
42.26000 -3.048
42.28000 -1.550
42.30000 -0.450
42.32000 -3.099
42.34000 -0.481
42.36000 1.216
42.38000 1.266
42.40000 -1.301
42.42000 -3.248
42.44000 -1.147
42.46000 -0.590
42.48000 3.554
42.50000 2.142
42.52000 -1.289
42.54000 -0.834
42.56000 -0.202
42.58000 3.263
42.60000 1.443
42.62000 -0.915
42.64000 -0.006
42.66000 2.163
42.68000 0.431
42.70000 -2.599
42.72000 -3.059
42.74000 1.003
42.76000 0.746
42.78000 -1.025
42.80000 1.680
42.82000 0.268
42.84000 0.140
42.86000 0.118
42.88000 0.750
42.90000 0.461
42.92000 -3.119
42.94000 0.519
42.96000 5.779
42.98000 0.593
43.00000 -2.873
43.02000 -3.269
43.04000 -1.682
43.06000 -2.305
43.08000 -3.259
43.10000 -2.746
43.12000 -2.881
43.14000 0.770
43.16000 -0.019
43.18000 0.072
43.20000 0.531
43.22000 3.395
43.24000 1.677
43.26000 1.764
43.28000 -0.671
43.30000 -3.013
43.32000 1.375
43.34000 -1.763
43.36000 1.098
43.38000 1.301
43.40000 -0.651
43.42000 -0.122
43.44000 -2.357
43.46000 -1.090
43.48000 -1.845
43.50000 -0.524
43.52000 -2.131
43.54000 -0.836
43.56000 -0.590
43.58000 0.538
43.60000 -0.327
43.62000 3.051
43.64000 7.391
43.66000 3.427
43.68000 1.977
43.70000 0.712
43.72000 -0.718
43.74000 4.256
43.76000 0.137
43.78000 -0.282
43.80000 4.392
43.82000 2.566
43.84000 -3.179
43.86000 -2.383
43.88000 -1.244
43.90000 -1.800
43.92000 1.366
43.94000 4.584
43.96000 3.441
43.98000 2.669
44.00000 0.441
44.02000 1.003
44.04000 1.981
44.06000 2.489
44.08000 0.099
44.10000 -3.167
44.12000 -1.595
44.14000 1.549
44.16000 -1.648
44.18000 0.326
44.20000 1.093
44.22000 0.014
44.24000 2.927
44.26000 6.391
44.28000 3.512
44.30000 -0.078
44.32000 3.173
44.34000 3.264
44.36000 1.919
44.38000 4.994
44.40000 -0.485
44.42000 0.483
44.44000 1.465
44.46000 1.297
44.48000 0.885
44.50000 2.949
44.52000 1.954
44.54000 -1.564
44.56000 1.337
44.58000 0.134
44.60000 2.715
44.62000 0.363
44.64000 -1.758
44.66000 -0.223
44.68000 -2.032
44.70000 2.314
44.72000 1.227
44.74000 1.300
44.76000 2.337
44.78000 0.623
44.80000 -3.166
44.82000 1.753
44.84000 3.337
44.86000 0.981
44.88000 3.563
44.90000 7.794
44.92000 5.212
44.94000 3.172
44.96000 4.233
44.98000 3.506
45.00000 -0.196
45.02000 3.913
45.04000 5.301
45.06000 2.128
45.08000 0.960
45.10000 1.971
45.12000 8.230
45.14000 4.464
45.16000 6.912
45.18000 7.064
45.20000 7.689
45.22000 7.465
45.24000 8.379
45.26000 7.144
45.28000 11.136
45.30000 10.170
45.32000 8.444
45.34000 14.156
45.36000 11.745
45.38000 10.653
45.40000 10.936
45.42000 12.034
45.44000 9.978
45.46000 11.922
45.48000 13.124
45.50000 12.239
45.52000 13.850
45.54000 21.537
45.56000 20.250
45.58000 15.754
45.60000 16.935
45.62000 22.306
45.64000 20.972
45.66000 22.996
45.68000 22.721
45.70000 21.143
45.72000 22.879
45.74000 24.779
45.76000 24.728
45.78000 25.322
45.80000 31.464
45.82000 28.700
45.84000 30.358
45.86000 33.175
45.88000 33.729
45.90000 32.600
45.92000 39.542
45.94000 39.821
45.96000 37.401
45.98000 41.554
46.00000 44.172
46.02000 49.032
46.04000 47.423
46.06000 45.117
46.08000 49.648
46.10000 50.729
46.12000 52.802
46.14000 51.920
46.16000 54.413
46.18000 55.226
46.20000 59.513
46.22000 58.242
46.24000 56.342
46.26000 57.362
46.28000 58.760
46.30000 66.060
46.32000 65.373
46.34000 62.444
46.36000 62.774
46.38000 61.795
46.40000 63.841
46.42000 67.743
46.44000 68.931
46.46000 69.463
46.48000 62.439
46.50000 65.859
46.52000 63.730
46.54000 60.857
46.56000 61.948
46.58000 61.075
46.60000 62.205
46.62000 61.244
46.64000 59.865
46.66000 58.202
46.68000 53.522
46.70000 50.826
46.72000 54.800
46.74000 54.538
46.76000 54.853
46.78000 47.757
46.80000 49.578
46.82000 44.348
46.84000 44.556
46.86000 38.834
46.88000 39.666
46.90000 35.999
46.92000 34.898
46.94000 35.477
46.96000 36.720
46.98000 33.344
47.00000 32.618
47.02000 32.876
47.04000 31.218
47.06000 25.435
47.08000 23.644
47.10000 23.828
47.12000 23.417
47.14000 23.665
47.16000 23.705
47.18000 19.807
47.20000 16.299
47.22000 16.578
47.24000 13.298
47.26000 13.586
47.28000 14.354
47.30000 9.073
47.32000 10.721
47.34000 17.606
47.36000 17.088
47.38000 12.146
47.40000 8.906
47.42000 10.045
47.44000 11.533
47.46000 8.275
47.48000 5.270
47.50000 4.553
47.52000 4.831
47.54000 4.230
47.56000 4.180
47.58000 2.784
47.60000 2.814
47.62000 8.310
47.64000 2.214
47.66000 2.054
47.68000 -0.076
47.70000 2.750
47.72000 3.857
47.74000 4.618
47.76000 3.684
47.78000 3.815
47.80000 3.449
47.82000 2.931
47.84000 6.782
47.86000 2.052
47.88000 5.317
47.90000 7.271
47.92000 3.765
47.94000 0.633
47.96000 4.247
47.98000 3.161
48.00000 -1.344
48.02000 1.885
48.04000 3.837
48.06000 5.049
48.08000 3.820
48.10000 1.072
48.12000 1.124
48.14000 1.792
48.16000 -0.349
48.18000 1.427
48.20000 4.592
48.22000 2.262
48.24000 2.586
48.26000 -0.546
48.28000 -1.106
48.30000 -1.278
48.32000 3.905
48.34000 4.501
48.36000 2.903
48.38000 -0.980
48.40000 -2.725
48.42000 2.180
48.44000 7.446
48.46000 4.038
48.48000 1.312
48.50000 4.138
48.52000 2.162
48.54000 -0.749
48.56000 0.537
48.58000 1.806
48.60000 5.947
48.62000 5.250
48.64000 7.108
48.66000 4.134
48.68000 1.054
48.70000 5.249
48.72000 7.370
48.74000 4.104
48.76000 2.648
48.78000 4.009
48.80000 2.211
48.82000 1.307
48.84000 6.698
48.86000 7.975
48.88000 3.396
48.90000 6.323
48.92000 4.318
48.94000 -0.130
48.96000 3.483
48.98000 1.795
49.00000 0.964
49.02000 4.091
49.04000 0.439
49.06000 4.239
49.08000 5.027
49.10000 -1.347
49.12000 0.075
49.14000 4.451
49.16000 4.953
49.18000 4.548
49.20000 4.337
49.22000 -2.651
49.24000 -0.369
49.26000 2.847
49.28000 1.354
49.30000 2.841
49.32000 3.706
49.34000 6.894
49.36000 7.342
49.38000 6.433
49.40000 3.238
49.42000 3.421
49.44000 2.032
49.46000 1.754
49.48000 3.583
49.50000 3.647
49.52000 2.296
49.54000 0.109
49.56000 2.116
49.58000 2.930
49.60000 1.768
49.62000 4.203
49.64000 6.291
49.66000 1.792
49.68000 3.412
49.70000 3.513
49.72000 4.571
49.74000 6.413
49.76000 1.248
49.78000 4.726
49.80000 5.037
49.82000 3.340
49.84000 5.384
49.86000 3.551
49.88000 3.137
49.90000 2.540
49.92000 2.658
49.94000 0.423
49.96000 0.371
49.98000 -0.796
50.00000 -0.304
50.02000 -0.831
50.04000 0.999
50.06000 -1.655
50.08000 -1.963
50.10000 1.423
50.12000 4.716
50.14000 2.738
50.16000 0.384
50.18000 -2.086
50.20000 -0.070
50.22000 5.185
50.24000 4.511
50.26000 2.541
50.28000 0.594
50.30000 1.113
50.32000 2.754
50.34000 2.431
50.36000 4.701
50.38000 3.468
50.40000 7.240
50.42000 2.529
50.44000 -2.586
50.46000 -1.020
50.48000 4.436
50.50000 5.802
50.52000 2.786
50.54000 3.061
50.56000 3.366
50.58000 4.763
50.60000 7.429
50.62000 2.151
50.64000 1.183
50.66000 0.849
50.68000 2.134
50.70000 5.906
50.72000 1.330
50.74000 -1.651
50.76000 -0.807
50.78000 4.177
50.80000 5.209
50.82000 3.879
50.84000 1.638
50.86000 -0.119
50.88000 1.377
50.90000 0.150
50.92000 -2.575
50.94000 1.487
50.96000 1.318
50.98000 -1.326
51.00000 3.352
51.02000 3.671
51.04000 2.875
51.06000 -0.467
51.08000 -1.480
51.10000 2.956
51.12000 1.325
51.14000 3.340
51.16000 -0.276
51.18000 1.450
51.20000 3.036
51.22000 3.607
51.24000 3.585
51.26000 -0.436
51.28000 5.324
51.30000 8.915
51.32000 4.844
51.34000 0.352
51.36000 1.587
51.38000 2.339
51.40000 0.030
51.42000 0.343
51.44000 -0.161
51.46000 -2.483
51.48000 0.889
51.50000 1.841
51.52000 -0.761
51.54000 1.782
51.56000 0.873
51.58000 0.909
51.60000 3.713
51.62000 3.262
51.64000 -2.073
51.66000 0.621
51.68000 2.231
51.70000 -1.243
51.72000 1.883
51.74000 -0.175
51.76000 1.582
51.78000 3.848
51.80000 0.508
51.82000 4.339
51.84000 3.929
51.86000 -1.445
51.88000 0.362
51.90000 1.745
51.92000 3.314
51.94000 0.430
51.96000 0.330
51.98000 2.231
52.00000 2.206
52.02000 1.235
52.04000 -1.380
52.06000 1.848
52.08000 2.886
52.10000 -0.484
52.12000 1.594
52.14000 4.290
52.16000 1.033
52.18000 0.317
52.20000 0.672
52.22000 2.115
52.24000 -0.095
52.26000 -0.740
52.28000 1.542
52.30000 -1.293
52.32000 -0.689
52.34000 -1.313
52.36000 1.149
52.38000 0.714
52.40000 -0.620
52.42000 -2.011
52.44000 -0.567
52.46000 0.350
52.48000 4.092
52.50000 5.855
52.52000 1.929
52.54000 -2.556
52.56000 -1.496
52.58000 3.792
52.60000 5.054
52.62000 4.346
52.64000 2.234
52.66000 1.291
52.68000 1.180
52.70000 -0.760
52.72000 0.072
52.74000 -0.627
52.76000 0.192
52.78000 2.890
52.80000 2.002
52.82000 0.519
52.84000 -0.705
52.86000 4.470
52.88000 4.545
52.90000 4.548
52.92000 5.049
52.94000 0.184
52.96000 1.370
52.98000 3.688
53.00000 2.438
53.02000 4.542
53.04000 3.743
53.06000 2.758
53.08000 1.419
53.10000 0.615
53.12000 1.979
53.14000 2.469
53.16000 5.839
53.18000 2.976
53.20000 4.014
53.22000 3.273
53.24000 -0.754
53.26000 0.938
53.28000 2.277
53.30000 0.182
53.32000 0.255
53.34000 2.349
53.36000 0.099
53.38000 -0.798
53.40000 3.324
53.42000 0.204
53.44000 2.531
53.46000 6.045
53.48000 5.151
53.50000 4.370
53.52000 -0.222
53.54000 -0.041
53.56000 -2.502
53.58000 2.760
53.60000 5.432
53.62000 1.648
53.64000 -0.880
53.66000 -1.082
53.68000 0.405
53.70000 0.806
53.72000 0.935
53.74000 2.553
53.76000 3.983
53.78000 1.562
53.80000 4.372
53.82000 7.528
53.84000 7.144
53.86000 5.029
53.88000 -0.276
53.90000 -0.520
53.92000 -0.421
53.94000 0.753
53.96000 -0.062
53.98000 4.043
54.00000 -1.205
54.02000 0.139
54.04000 4.853
54.06000 4.445
54.08000 3.349
54.10000 1.829
54.12000 -0.810
54.14000 -0.234
54.16000 -1.036
54.18000 1.198
54.20000 4.038
54.22000 0.816
54.24000 -0.571
54.26000 -1.805
54.28000 -2.045
54.30000 4.972
54.32000 3.965
54.34000 5.479
54.36000 4.751
54.38000 1.387
54.40000 1.540
54.42000 2.879
54.44000 3.674
54.46000 5.819
54.48000 0.294
54.50000 -0.357
54.52000 2.468
54.54000 6.140
54.56000 5.455
54.58000 3.610
54.60000 6.668
54.62000 5.106
54.64000 4.554
54.66000 4.305
54.68000 3.411
54.70000 2.572
54.72000 2.586
54.74000 0.515
54.76000 0.424
54.78000 -0.459
54.80000 3.448
54.82000 5.395
54.84000 6.582
54.86000 4.567
54.88000 4.457
54.90000 7.268
54.92000 3.767
54.94000 1.487
54.96000 6.916
54.98000 8.717
55.00000 4.534
55.02000 1.801
55.04000 5.827
55.06000 4.337
55.08000 1.699
55.10000 -2.435
55.12000 2.918
55.14000 4.896
55.16000 6.411
55.18000 5.698
55.20000 5.520
55.22000 5.902
55.24000 4.950
55.26000 0.250
55.28000 0.837
55.30000 4.307
55.32000 5.645
55.34000 5.557
55.36000 1.997
55.38000 0.128
55.40000 -1.293
55.42000 1.628
55.44000 4.408
55.46000 5.927
55.48000 4.989
55.50000 4.919
55.52000 5.260
55.54000 3.337
55.56000 0.041
55.58000 0.139
55.60000 3.545
55.62000 3.279
55.64000 4.338
55.66000 6.793
55.68000 3.638
55.70000 3.177
55.72000 2.788
55.74000 1.976
55.76000 2.239
55.78000 3.394
55.80000 1.629
55.82000 3.825
55.84000 2.426
55.86000 1.393
55.88000 2.675
55.90000 3.674
55.92000 1.778
55.94000 4.053
55.96000 -0.141
55.98000 -1.776
56.00000 1.193
56.02000 2.245
56.04000 1.351
56.06000 3.117
56.08000 1.915
56.10000 0.753
56.12000 -1.060
56.14000 1.759
56.16000 1.837
56.18000 1.504
56.20000 1.386
56.22000 2.898
56.24000 1.803
56.26000 -1.978
56.28000 1.435
56.30000 -1.994
56.32000 -2.444
56.34000 -0.552
56.36000 -0.292
56.38000 1.308
56.40000 0.272
56.42000 -0.097
56.44000 0.215
56.46000 1.572
56.48000 3.886
56.50000 2.549
56.52000 1.024
56.54000 -0.285
56.56000 0.403
56.58000 2.287
56.60000 2.972
56.62000 3.275
56.64000 0.336
56.66000 3.337
56.68000 3.504
56.70000 1.849
56.72000 0.017
56.74000 0.250
56.76000 1.324
56.78000 1.254
56.80000 2.906
56.82000 4.216
56.84000 2.255
56.86000 5.250
56.88000 3.484
56.90000 1.949
56.92000 3.717
56.94000 2.637
56.96000 1.496
56.98000 1.975
57.00000 2.648
57.02000 -0.293
57.04000 -1.313
57.06000 -0.396
57.08000 5.070
57.10000 3.582
57.12000 4.419
57.14000 1.776
57.16000 -2.419
57.18000 2.012
57.20000 2.344
57.22000 3.820
57.24000 1.394
57.26000 -1.261
57.28000 0.902
57.30000 2.192
57.32000 2.879
57.34000 2.899
57.36000 4.651
57.38000 3.013
57.40000 -1.094
57.42000 -0.155
57.44000 4.030
57.46000 0.605
57.48000 1.314
57.50000 -1.000
57.52000 1.823
57.54000 3.921
57.56000 2.592
57.58000 0.586
57.60000 1.212
57.62000 1.831
57.64000 3.260
57.66000 2.596
57.68000 -0.694
57.70000 0.933
57.72000 3.204
57.74000 1.238
57.76000 -0.423
57.78000 -0.448
57.80000 0.841
57.82000 3.147
57.84000 5.750
57.86000 2.051
57.88000 5.677
57.90000 4.176
57.92000 0.190
57.94000 -0.129
57.96000 5.135
57.98000 4.934
58.00000 4.666
58.02000 2.450
58.04000 -0.021
58.06000 4.067
58.08000 2.385
58.10000 1.863
58.12000 0.126
58.14000 -2.400
58.16000 2.316
58.18000 1.064
58.20000 0.467
58.22000 4.552
58.24000 3.027
58.26000 1.101
58.28000 3.410
58.30000 5.467
58.32000 2.744
58.34000 -0.691
58.36000 -0.312
58.38000 2.556
58.40000 1.602
58.42000 0.606
58.44000 0.166
58.46000 -0.236
58.48000 -2.012
58.50000 -2.378
58.52000 -0.294
58.54000 3.219
58.56000 4.116
58.58000 4.693
58.60000 2.167
58.62000 2.499
58.64000 0.723
58.66000 1.521
58.68000 1.959
58.70000 2.973
58.72000 2.882
58.74000 4.086
58.76000 7.797
58.78000 2.398
58.80000 -2.115
58.82000 -2.212
58.84000 -0.005
58.86000 0.574
58.88000 2.745
58.90000 6.621
58.92000 4.019
58.94000 5.714
58.96000 1.579
58.98000 -0.326
59.00000 1.671
59.02000 -0.900
59.04000 1.322
59.06000 -1.385
59.08000 -1.115
59.10000 -0.560
59.12000 -0.534
59.14000 -0.068
59.16000 -2.187
59.18000 0.118
59.20000 1.118
59.22000 4.374
59.24000 4.058
59.26000 4.584
59.28000 4.521
59.30000 3.212
59.32000 0.283
59.34000 0.872
59.36000 3.948
59.38000 5.924
59.40000 1.993
59.42000 3.168
59.44000 2.718
59.46000 1.077
59.48000 1.401
59.50000 -2.367
59.52000 -0.468
59.54000 2.774
59.56000 3.243
59.58000 -0.426
59.60000 3.057
59.62000 -1.403
59.64000 2.579
59.66000 4.657
59.68000 3.283
59.70000 2.727
59.72000 -0.603
59.74000 -0.809
59.76000 3.159
59.78000 4.518
59.80000 3.248
59.82000 1.127
59.84000 3.264
59.86000 3.869
59.88000 1.728
59.90000 0.337
59.92000 5.263
59.94000 2.184
59.96000 -0.574
59.98000 -0.182
60.00000 1.952
60.02000 0.086
60.04000 -0.355
60.06000 4.897
60.08000 2.422
60.10000 0.919
60.12000 0.767
60.14000 -2.066
60.16000 0.141
60.18000 2.101
60.20000 1.069
60.22000 -1.008
60.24000 -0.463
60.26000 0.792
60.28000 2.151
60.30000 2.719
60.32000 3.005
60.34000 1.253
60.36000 2.699
60.38000 1.044
60.40000 1.495
60.42000 2.531
60.44000 1.307
60.46000 4.493
60.48000 2.558
60.50000 3.760
60.52000 2.646
60.54000 1.858
60.56000 3.781
60.58000 1.164
60.60000 1.044
60.62000 0.838
60.64000 2.346
60.66000 4.170
60.68000 4.927
60.70000 4.610
60.72000 2.887
60.74000 0.270
60.76000 1.829
60.78000 4.912
60.80000 3.447
60.82000 4.374
60.84000 -0.323
60.86000 1.097
60.88000 4.272
60.90000 5.239
60.92000 3.634
60.94000 4.672
60.96000 0.354
60.98000 -2.280
61.00000 0.716
61.02000 2.570
61.04000 1.865
61.06000 4.850
61.08000 5.179
61.10000 5.783
61.12000 2.762
61.14000 4.296
61.16000 3.807
61.18000 1.902
61.20000 6.396
61.22000 6.342
61.24000 5.869
61.26000 8.310
61.28000 8.196
61.30000 4.840
61.32000 3.139
61.34000 4.455
61.36000 1.659
61.38000 0.587
61.40000 1.141
61.42000 2.182
61.44000 2.953
61.46000 4.346
61.48000 3.131
61.50000 3.254
61.52000 3.537
61.54000 2.226
61.56000 1.389
61.58000 3.618
61.60000 5.594
61.62000 2.492
61.64000 4.608
61.66000 4.229
61.68000 2.366
61.70000 1.717
61.72000 3.210
61.74000 1.578
61.76000 -0.905
61.78000 3.105
61.80000 3.104
61.82000 2.669
61.84000 0.697
61.86000 2.445
61.88000 3.389
61.90000 2.699
61.92000 4.672
61.94000 3.868
61.96000 3.777
61.98000 1.591
62.00000 -0.157
62.02000 4.811
62.04000 5.441
62.06000 2.934
62.08000 2.038
62.10000 0.465
62.12000 1.192
62.14000 -2.286
62.16000 0.210
62.18000 -1.221
62.20000 1.181
62.22000 1.510
62.24000 3.131
62.26000 3.887
62.28000 3.028
62.30000 -0.186
62.32000 1.487
62.34000 4.486
62.36000 3.457
62.38000 4.930
62.40000 3.965
62.42000 1.609
62.44000 5.902
62.46000 4.903
62.48000 2.745
62.50000 7.814
62.52000 5.554
62.54000 1.661
62.56000 0.424
62.58000 3.348
62.60000 3.730
62.62000 4.210
62.64000 3.305
62.66000 3.878
62.68000 2.913
62.70000 0.948
62.72000 0.572
62.74000 1.694
62.76000 4.298
62.78000 4.390
62.80000 3.086
62.82000 2.559
62.84000 2.494
62.86000 1.992
62.88000 3.589
62.90000 1.117
62.92000 -2.259
62.94000 3.982
62.96000 6.507
62.98000 5.545
63.00000 4.543
63.02000 4.642
63.04000 4.389
63.06000 5.756
63.08000 6.271
63.10000 1.899
63.12000 -0.417
63.14000 1.160
63.16000 1.238
63.18000 0.453
63.20000 2.166
63.22000 0.221
63.24000 2.149
63.26000 2.148
63.28000 1.389
63.30000 -0.765
63.32000 -0.662
63.34000 2.127
63.36000 5.356
63.38000 4.226
63.40000 3.479
63.42000 0.399
63.44000 1.238
63.46000 -0.700
63.48000 -0.909
63.50000 2.017
63.52000 0.824
63.54000 3.245
63.56000 -1.926
63.58000 0.224
63.60000 3.619
63.62000 4.813
63.64000 0.396
63.66000 0.158
63.68000 -2.295
63.70000 -1.017
63.72000 -0.171
63.74000 2.062
63.76000 2.995
63.78000 -2.055
63.80000 -1.636
63.82000 1.156
63.84000 -1.320
63.86000 0.197
63.88000 2.795
63.90000 2.635
63.92000 2.683
63.94000 2.545
63.96000 -0.356
63.98000 2.190
64.00000 -0.475
64.02000 0.220
64.04000 0.243
64.06000 2.895
64.08000 2.017
64.10000 -0.095
64.12000 2.497
64.14000 1.643
64.16000 2.155
64.18000 -0.766
64.20000 1.035
64.22000 2.256
64.24000 2.591
64.26000 2.302
64.28000 -0.291
64.30000 3.875
64.32000 3.415
64.34000 1.604
64.36000 1.311
64.38000 -0.606
64.40000 2.806
64.42000 5.174
64.44000 4.185
64.46000 4.015
64.48000 5.394
64.50000 4.547
64.52000 6.593
64.54000 6.630
64.56000 4.778
64.58000 5.446
64.60000 2.847
64.62000 0.582
64.64000 -0.468
64.66000 0.460
64.68000 0.799
64.70000 3.142
64.72000 3.268
64.74000 1.288
64.76000 -2.043
64.78000 -2.295
64.80000 -0.422
64.82000 -1.034
64.84000 -0.180
64.86000 1.463
64.88000 -0.448
64.90000 -0.581
64.92000 1.084
64.94000 3.617
64.96000 3.451
64.98000 4.621
65.00000 0.784
65.02000 1.033
65.04000 -0.310
65.06000 0.687
65.08000 3.227
65.10000 2.084
65.12000 -0.832
65.14000 -2.326
65.16000 1.437
65.18000 2.666
65.20000 -1.033
65.22000 -1.304
65.24000 2.813
65.26000 1.833
65.28000 1.484
65.30000 1.913
65.32000 -1.323
65.34000 0.072
65.36000 0.992
65.38000 0.377
65.40000 0.049
65.42000 2.124
65.44000 1.053
65.46000 2.908
65.48000 3.226
65.50000 3.761
65.52000 5.512
65.54000 0.326
65.56000 -2.187
65.58000 -2.220
65.60000 -2.121
65.62000 0.947
65.64000 -0.839
65.66000 -2.256
65.68000 -2.361
65.70000 0.020
65.72000 -1.594
65.74000 -1.890
65.76000 -0.034
65.78000 -1.002
65.80000 -1.657
65.82000 -1.123
65.84000 0.894
65.86000 -0.277
65.88000 0.247
65.90000 2.920
65.92000 0.327
65.94000 -2.287
65.96000 -1.917
65.98000 0.223
66.00000 -2.128
66.02000 -1.920
66.04000 0.557
66.06000 -0.700
66.08000 -1.378
66.10000 -0.542
66.12000 -0.297
66.14000 0.156
66.16000 1.289
66.18000 2.643
66.20000 1.082
66.22000 -1.349
66.24000 -2.377
66.26000 -0.346
66.28000 0.117
66.30000 2.852
66.32000 3.597
66.34000 1.010
66.36000 0.155
66.38000 -0.661
66.40000 -0.193
66.42000 1.992
66.44000 3.180
66.46000 2.910
66.48000 0.282
66.50000 -1.975
66.52000 -0.504
66.54000 1.027
66.56000 2.975
66.58000 -0.163
66.60000 1.282
66.62000 2.469
66.64000 4.109
66.66000 4.570
66.68000 1.455
66.70000 2.376
66.72000 1.241
66.74000 1.536
66.76000 0.984
66.78000 3.243
66.80000 2.439
66.82000 4.142
66.84000 5.297
66.86000 3.915
66.88000 2.068
66.90000 4.879
66.92000 7.418
66.94000 8.343
66.96000 9.879
66.98000 6.833
67.00000 4.172
67.02000 5.849
67.04000 8.981
67.06000 9.226
67.08000 9.304
67.10000 11.425
67.12000 10.644
67.14000 9.154
67.16000 8.474
67.18000 12.147
67.20000 11.770
67.22000 10.896
67.24000 11.369
67.26000 11.223
67.28000 11.196
67.30000 11.441
67.32000 13.861
67.34000 12.772
67.36000 14.152
67.38000 13.944
67.40000 14.671
67.42000 11.384
67.44000 11.138
67.46000 14.146
67.48000 13.866
67.50000 11.201
67.52000 13.650
67.54000 9.964
67.56000 12.781
67.58000 15.553
67.60000 13.899
67.62000 13.772
67.64000 17.796
67.66000 20.176
67.68000 16.538
67.70000 14.688
67.72000 13.891
67.74000 14.634
67.76000 16.542
67.78000 12.542
67.80000 11.018
67.82000 9.965
67.84000 13.005
67.86000 11.231
67.88000 12.050
67.90000 12.564
67.92000 9.917
67.94000 10.693
67.96000 11.234
67.98000 14.256
68.00000 10.804
68.02000 10.518
68.04000 8.993
68.06000 10.404
68.08000 10.848
68.10000 9.948
68.12000 5.808
68.14000 5.689
68.16000 5.832
68.18000 6.725
68.20000 4.928
68.22000 4.574
68.24000 7.090
68.26000 6.820
68.28000 7.666
68.30000 7.554
68.32000 6.836
68.34000 6.091
68.36000 3.883
68.38000 1.325
68.40000 3.059
68.42000 4.780
68.44000 2.009
68.46000 0.748
68.48000 0.293
68.50000 -1.139
68.52000 1.277
68.54000 2.864
68.56000 -0.116
68.58000 0.424
68.60000 0.267
68.62000 0.793
68.64000 -0.144
68.66000 1.271
68.68000 -0.260
68.70000 1.485
68.72000 0.920
68.74000 -1.555
68.76000 0.695
68.78000 -0.588
68.80000 1.525
68.82000 2.336
68.84000 0.315
68.86000 2.165
68.88000 0.013
68.90000 3.044
68.92000 2.963
68.94000 1.788
68.96000 1.651
68.98000 -0.821
69.00000 -0.750
69.02000 -1.663
69.04000 0.756
69.06000 1.056
69.08000 0.376
69.10000 0.607
69.12000 0.122
69.14000 -2.275
69.16000 -1.236
69.18000 1.037
69.20000 3.914
69.22000 1.444
69.24000 -0.601
69.26000 0.753
69.28000 3.409
69.30000 0.816
69.32000 1.283
69.34000 0.762
69.36000 1.634
69.38000 0.895
69.40000 0.209
69.42000 -0.312
69.44000 1.840
69.46000 3.682
69.48000 3.345
69.50000 2.591
69.52000 1.714
69.54000 1.691
69.56000 3.141
69.58000 1.413
69.60000 2.135
69.62000 5.091
69.64000 4.693
69.66000 0.261
69.68000 2.178
69.70000 3.664
69.72000 4.340
69.74000 4.382
69.76000 2.194
69.78000 2.541
69.80000 -1.830
69.82000 -2.189
69.84000 1.938
69.86000 1.745
69.88000 2.561
69.90000 2.845
69.92000 1.792
69.94000 3.414
69.96000 2.536
69.98000 2.582
70.00000 -0.407
70.02000 -0.287
70.04000 4.104
70.06000 4.842
70.08000 0.497
70.10000 1.150
70.12000 4.176
70.14000 5.735
70.16000 1.822
70.18000 2.305
70.20000 1.867
70.22000 -0.744
70.24000 0.639
70.26000 2.513
70.28000 2.969
70.30000 1.648
70.32000 5.374
70.34000 4.522
70.36000 2.032
70.38000 3.063
70.40000 0.333
70.42000 1.174
70.44000 2.711
70.46000 5.308
70.48000 5.473
70.50000 3.766
70.52000 0.784
70.54000 3.329
70.56000 2.577
70.58000 1.425
70.60000 0.729
70.62000 -0.326
70.64000 -0.457
70.66000 3.076
70.68000 0.590
70.70000 2.018
70.72000 1.018
70.74000 2.781
70.76000 2.718
70.78000 -1.361
70.80000 -0.748
70.82000 -1.105
70.84000 -2.115
70.86000 -0.312
70.88000 2.616
70.90000 4.615
70.92000 4.328
70.94000 3.917
70.96000 4.191
70.98000 -0.288
71.00000 -0.336
71.02000 3.879
71.04000 6.145
71.06000 4.900
71.08000 5.451
71.10000 3.481
71.12000 7.531
71.14000 7.260
71.16000 3.133
71.18000 1.162
71.20000 -1.445
71.22000 0.948
71.24000 1.288
71.26000 2.121
71.28000 1.801
71.30000 2.044
71.32000 1.272
71.34000 3.585
71.36000 1.570
71.38000 3.832
71.40000 4.052
71.42000 3.919
71.44000 1.213
71.46000 0.892
71.48000 4.962
71.50000 2.735
71.52000 2.096
71.54000 -2.142
71.56000 -0.029
71.58000 3.189
71.60000 2.626
71.62000 0.979
71.64000 3.217
71.66000 3.085
71.68000 3.276
71.70000 2.881
71.72000 7.093
71.74000 4.845
71.76000 1.252
71.78000 1.390
71.80000 7.215
71.82000 6.113
71.84000 5.289
71.86000 6.038
71.88000 3.143
71.90000 0.532
71.92000 -0.098
71.94000 -0.646
71.96000 -0.319
71.98000 1.065
72.00000 1.069
72.02000 3.119
72.04000 1.775
72.06000 2.277
72.08000 2.255
72.10000 3.031
72.12000 4.539
72.14000 3.263
72.16000 1.842
72.18000 2.663
72.20000 2.713
72.22000 1.008
72.24000 0.618
72.26000 3.471
72.28000 -0.098
72.30000 0.208
72.32000 3.947
72.34000 5.893
72.36000 3.227
72.38000 2.897
72.40000 0.565
72.42000 2.638
72.44000 2.825
72.46000 3.313
72.48000 5.441
72.50000 3.840
72.52000 3.130
72.54000 0.495
72.56000 1.126
72.58000 -2.132
72.60000 2.017
72.62000 2.192
72.64000 3.333
72.66000 4.209
72.68000 2.230
72.70000 0.458
72.72000 2.837
72.74000 1.108
72.76000 2.063
72.78000 6.583
72.80000 8.092
72.82000 9.316
72.84000 2.131
72.86000 -0.135
72.88000 -0.480
72.90000 3.877
72.92000 2.155
72.94000 1.278
72.96000 1.922
72.98000 3.156
73.00000 2.140
73.02000 1.702
73.04000 0.251
73.06000 -0.632
73.08000 -0.533
73.10000 1.791
73.12000 2.731
73.14000 6.861
73.16000 5.593
73.18000 2.289
73.20000 1.810
73.22000 2.275
73.24000 0.666
73.26000 2.349
73.28000 -0.067
73.30000 -2.129
73.32000 1.400
73.34000 1.863
73.36000 -0.505
73.38000 2.782
73.40000 1.124
73.42000 3.435
73.44000 2.338
73.46000 0.603
73.48000 -0.367
73.50000 3.415
73.52000 6.227
73.54000 2.969
73.56000 2.270
73.58000 4.999
73.60000 6.535
73.62000 6.056
73.64000 2.759
73.66000 6.343
73.68000 2.016
73.70000 0.215
73.72000 -0.764
73.74000 0.189
73.76000 4.293
73.78000 3.333
73.80000 0.843
73.82000 1.246
73.84000 0.818
73.86000 0.967
73.88000 -0.477
73.90000 2.744
73.92000 4.776
73.94000 -0.253
73.96000 2.331
73.98000 5.059
74.00000 7.498
74.02000 4.238
74.04000 0.890
74.06000 -2.097
74.08000 0.035
74.10000 1.876
74.12000 3.942
74.14000 5.577
74.16000 2.567
74.18000 3.006
74.20000 -1.351
74.22000 2.490
74.24000 4.837
74.26000 4.221
74.28000 3.344
74.30000 1.564
74.32000 5.469
74.34000 3.358
74.36000 3.146
74.38000 2.360
74.40000 1.854
74.42000 5.231
74.44000 4.739
74.46000 6.492
74.48000 5.531
74.50000 1.907
74.52000 2.450
74.54000 6.673
74.56000 1.717
74.58000 1.121
74.60000 8.249
74.62000 7.807
74.64000 4.160
74.66000 -2.111
74.68000 0.800
74.70000 4.940
74.72000 4.031
74.74000 4.671
74.76000 2.269
74.78000 0.752
74.80000 -0.043
74.82000 -0.556
74.84000 0.794
74.86000 1.771
74.88000 0.238
74.90000 0.646
74.92000 2.163
74.94000 0.179
74.96000 2.418
74.98000 3.007
75.00000 2.146
75.02000 0.558
75.04000 -1.933
75.06000 -1.693
75.08000 0.391
75.10000 1.114
75.12000 2.520
75.14000 1.556
75.16000 0.318
75.18000 3.805
75.20000 5.033
75.22000 3.129
75.24000 1.301
75.26000 5.859
75.28000 4.228
75.30000 5.761
75.32000 7.187
75.34000 2.405
75.36000 4.275
75.38000 3.420
75.40000 1.666
75.42000 -0.672
75.44000 0.019
75.46000 1.605
75.48000 0.947
75.50000 0.514
75.52000 0.470
75.54000 -2.141
75.56000 -1.795
75.58000 -0.606
75.60000 -0.667
75.62000 -0.881
75.64000 -0.551
75.66000 1.111
75.68000 5.908
75.70000 4.147
75.72000 3.100
75.74000 2.599
75.76000 -0.942
75.78000 2.718
75.80000 3.392
75.82000 -0.681
75.84000 0.551
75.86000 -1.520
75.88000 -1.930
75.90000 0.436
75.92000 2.805
75.94000 2.049
75.96000 4.018
75.98000 -0.287
76.00000 -0.369
76.02000 2.321
76.04000 3.531
76.06000 2.335
76.08000 1.756
76.10000 4.663
76.12000 1.909
76.14000 2.022
76.16000 2.040
76.18000 0.235
76.20000 1.384
76.22000 0.829
76.24000 0.611
76.26000 1.168
76.28000 -2.173
76.30000 2.696
76.32000 2.177
76.34000 0.734
76.36000 1.195
76.38000 3.143
76.40000 3.004
76.42000 5.249
76.44000 1.929
76.46000 0.339
76.48000 2.501
76.50000 1.435
76.52000 1.073
76.54000 1.908
76.56000 2.653
76.58000 1.098
76.60000 -2.115
76.62000 1.802
76.64000 3.673
76.66000 -0.262
76.68000 1.506
76.70000 1.857
76.72000 3.056
76.74000 1.454
76.76000 1.402
76.78000 1.611
76.80000 -0.244
76.82000 3.745
76.84000 4.737
76.86000 2.894
76.88000 2.891
76.90000 1.931
76.92000 1.652
76.94000 2.672
76.96000 3.606
76.98000 3.739
77.00000 4.083
77.02000 2.608
77.04000 3.276
77.06000 3.570
77.08000 0.793
77.10000 2.174
77.12000 0.907
77.14000 2.322
77.16000 2.741
77.18000 3.626
77.20000 2.479
77.22000 -0.443
77.24000 0.994
77.26000 -2.150
77.28000 1.568
77.30000 1.483
77.32000 4.266
77.34000 3.572
77.36000 5.064
77.38000 2.523
77.40000 0.329
77.42000 -0.776
77.44000 1.664
77.46000 2.228
77.48000 4.007
77.50000 -0.672
77.52000 0.174
77.54000 -1.454
77.56000 1.856
77.58000 2.495
77.60000 3.504
77.62000 0.465
77.64000 3.842
77.66000 1.425
77.68000 -1.720
77.70000 3.329
77.72000 2.436
77.74000 4.699
77.76000 5.887
77.78000 -1.476
77.80000 1.185
77.82000 2.388
77.84000 0.084
77.86000 0.403
77.88000 1.082
77.90000 0.386
77.92000 1.028
77.94000 2.369
77.96000 2.278
77.98000 2.316
78.00000 -0.070
78.02000 4.356
78.04000 5.184
78.06000 4.652
78.08000 2.688
78.10000 -0.691
78.12000 1.635
78.14000 -0.988
78.16000 1.712
78.18000 1.317
78.20000 3.129
78.22000 5.478
78.24000 3.654
78.26000 0.686
78.28000 1.445
78.30000 -2.021
78.32000 0.875
78.34000 4.574
78.36000 4.863
78.38000 5.483
78.40000 9.477
78.42000 8.257
78.44000 4.059
78.46000 0.991
78.48000 0.467
78.50000 5.088
78.52000 3.233
78.54000 1.768
78.56000 3.770
78.58000 3.167
78.60000 0.549
78.62000 0.855
78.64000 -1.194
78.66000 0.914
78.68000 1.674
78.70000 2.222
78.72000 2.964
78.74000 7.158
78.76000 5.969
78.78000 6.231
78.80000 2.798
78.82000 2.305
78.84000 2.295
78.86000 -2.198
78.88000 -0.749
78.90000 5.253
78.92000 1.589
78.94000 -2.202
78.96000 -2.204
78.98000 0.225
79.00000 1.800
79.02000 -0.877
79.04000 2.378
79.06000 -0.850
79.08000 -0.350
79.10000 -0.567
79.12000 1.316
79.14000 0.574
79.16000 0.909
79.18000 0.817
79.20000 0.470
79.22000 2.192
79.24000 5.388
79.26000 5.433
79.28000 3.676
79.30000 1.007
79.32000 0.451
79.34000 -2.244
79.36000 -0.315
79.38000 1.310
79.40000 1.789
79.42000 2.379
79.44000 5.643
79.46000 6.075
79.48000 5.137
79.50000 0.829
79.52000 0.387
79.54000 2.066
79.56000 -1.608
79.58000 -0.974
79.60000 -0.190
79.62000 0.481
79.64000 1.156
79.66000 1.990
79.68000 3.018
79.70000 1.619
79.72000 4.660
79.74000 5.364
79.76000 0.586
79.78000 -0.373
79.80000 0.463
79.82000 -0.271
79.84000 -1.617
79.86000 -2.280
79.88000 3.460
79.90000 2.878
79.92000 10.278
79.94000 6.505
79.96000 2.787
79.98000 0.074
80.00000 2.742
80.02000 2.594
80.04000 -0.253
80.06000 -0.560
80.08000 -2.297
80.10000 -1.504
80.12000 1.995
80.14000 5.707
80.16000 4.621
80.18000 4.952
80.20000 11.995
80.22000 7.468
80.24000 8.467
80.26000 6.724
80.28000 7.277
80.30000 5.541
80.32000 6.414
80.34000 6.390
80.36000 6.080
80.38000 5.701
80.40000 3.365
80.42000 4.519
80.44000 5.024
80.46000 5.054
80.48000 2.846
80.50000 2.831
80.52000 9.359
80.54000 12.655
80.56000 9.872
80.58000 12.424
80.60000 9.599
80.62000 4.030
80.64000 9.251
80.66000 11.806
80.68000 11.093
80.70000 9.179
80.72000 13.228
80.74000 13.143
80.76000 10.856
80.78000 10.334
80.80000 10.129
80.82000 11.441
80.84000 12.544
80.86000 13.642
80.88000 14.698
80.90000 18.342
80.92000 10.423
80.94000 8.899
80.96000 7.893
80.98000 9.763
81.00000 15.061
81.02000 14.901
81.04000 12.425
81.06000 17.401
81.08000 19.539
81.10000 19.276
81.12000 22.839
81.14000 23.399
81.16000 22.298
81.18000 16.892
81.20000 17.193
81.22000 19.769
81.24000 20.850
81.26000 19.923
81.28000 20.121
81.30000 20.604
81.32000 23.307
81.34000 22.896
81.36000 23.894
81.38000 20.160
81.40000 18.589
81.42000 24.992
81.44000 23.734
81.46000 19.683
81.48000 17.773
81.50000 24.853
81.52000 22.125
81.54000 16.124
81.56000 20.304
81.58000 19.748
81.60000 23.930
81.62000 22.113
81.64000 21.470
81.66000 20.429
81.68000 23.787
81.70000 22.582
81.72000 21.799
81.74000 23.252
81.76000 21.353
81.78000 25.047
81.80000 22.814
81.82000 22.250
81.84000 22.027
81.86000 24.762
81.88000 21.564
81.90000 19.333
81.92000 20.365
81.94000 22.895
81.96000 22.899
81.98000 20.792
82.00000 14.360
82.02000 15.829
82.04000 17.022
82.06000 14.375
82.08000 16.785
82.10000 17.262
82.12000 19.119
82.14000 16.656
82.16000 11.384
82.18000 14.059
82.20000 16.014
82.22000 10.389
82.24000 12.627
82.26000 13.385
82.28000 11.871
82.30000 14.001
82.32000 15.028
82.34000 9.138
82.36000 10.312
82.38000 9.491
82.40000 8.506
82.42000 10.040
82.44000 7.955
82.46000 8.745
82.48000 9.111
82.50000 9.829
82.52000 11.873
82.54000 9.718
82.56000 7.248
82.58000 7.025
82.60000 5.781
82.62000 6.820
82.64000 3.928
82.66000 3.752
82.68000 5.082
82.70000 1.980
82.72000 0.897
82.74000 0.040
82.76000 3.634
82.78000 5.504
82.80000 1.923
82.82000 1.838
82.84000 4.131
82.86000 -1.672
82.88000 -1.283
82.90000 3.679
82.92000 4.245
82.94000 2.540
82.96000 2.350
82.98000 4.143
83.00000 2.634
83.02000 0.434
83.04000 -0.086
83.06000 -2.327
83.08000 3.775
83.10000 8.959
83.12000 1.570
83.14000 1.217
83.16000 5.956
83.18000 4.146
83.20000 1.476
83.22000 -1.870
83.24000 -1.441
83.26000 3.246
83.28000 5.251
83.30000 5.504
83.32000 0.002
83.34000 -1.055
83.36000 2.296
83.38000 -0.427
83.40000 -2.301
83.42000 -0.426
83.44000 -1.179
83.46000 2.000
83.48000 2.438
83.50000 3.300
83.52000 5.097
83.54000 3.595
83.56000 2.377
83.58000 -0.406
83.60000 1.032
83.62000 3.622
83.64000 3.013
83.66000 4.630
83.68000 3.322
83.70000 1.820
83.72000 2.922
83.74000 4.445
83.76000 3.879
83.78000 0.992
83.80000 3.765
83.82000 2.478
83.84000 0.262
83.86000 -2.266
83.88000 0.102
83.90000 4.339
83.92000 3.563
83.94000 4.636
83.96000 4.728
83.98000 6.845
84.00000 5.797
84.02000 3.196
84.04000 2.538
84.06000 3.490
84.08000 7.963
84.10000 6.212
84.12000 2.793
84.14000 3.760
84.16000 2.883
84.18000 1.657
84.20000 -0.263
84.22000 1.480
84.24000 2.447
84.26000 1.885
84.28000 4.195
84.30000 2.752
84.32000 1.423
84.34000 0.384
84.36000 4.864
84.38000 -0.764
84.40000 1.670
84.42000 2.611
84.44000 -0.350
84.46000 3.259
84.48000 5.373
84.50000 8.171
84.52000 6.435
84.54000 4.689
84.56000 8.797
84.58000 8.338
84.60000 9.204
84.62000 7.678
84.64000 6.118
84.66000 5.618
84.68000 7.019
84.70000 7.801
84.72000 8.537
84.74000 9.451
84.76000 9.933
84.78000 10.031
84.80000 14.124
84.82000 11.752
84.84000 11.398
84.86000 12.014
84.88000 9.948
84.90000 12.918
84.92000 14.078
84.94000 10.312
84.96000 13.853
84.98000 9.623
85.00000 7.716
85.02000 8.366
85.04000 13.018
85.06000 17.043
85.08000 15.426
85.10000 16.935
85.12000 17.355
85.14000 20.456
85.16000 18.918
85.18000 15.726
85.20000 17.513
85.22000 17.009
85.24000 13.450
85.26000 15.200
85.28000 16.698
85.30000 22.736
85.32000 27.239
85.34000 22.596
85.36000 19.302
85.38000 19.712
85.40000 24.078
85.42000 22.983
85.44000 23.316
85.46000 22.049
85.48000 21.481
85.50000 21.928
85.52000 20.875
85.54000 18.698
85.56000 23.100
85.58000 22.020
85.60000 21.518
85.62000 19.777
85.64000 22.297
85.66000 25.130
85.68000 19.951
85.70000 23.399
85.72000 27.407
85.74000 23.695
85.76000 23.662
85.78000 20.276
85.80000 23.537
85.82000 22.911
85.84000 23.914
85.86000 25.187
85.88000 23.363
85.90000 22.262
85.92000 18.560
85.94000 24.705
85.96000 23.672
85.98000 16.774
86.00000 15.924
86.02000 22.590
86.04000 20.600
86.06000 18.393
86.08000 19.898
86.10000 14.200
86.12000 15.238
86.14000 16.181
86.16000 14.322
86.18000 16.753
86.20000 16.900
86.22000 17.749
86.24000 18.468
86.26000 14.977
86.28000 14.880
86.30000 13.393
86.32000 16.201
86.34000 13.734
86.36000 13.658
86.38000 12.021
86.40000 10.662
86.42000 10.093
86.44000 9.450
86.46000 9.752
86.48000 9.781
86.50000 13.299
86.52000 10.943
86.54000 9.990
86.56000 10.083
86.58000 10.246
86.60000 8.390
86.62000 7.718
86.64000 9.927
86.66000 11.964
86.68000 10.933
86.70000 6.722
86.72000 8.855
86.74000 9.695
86.76000 10.583
86.78000 7.293
86.80000 3.165
86.82000 2.675
86.84000 4.811
86.86000 4.060
86.88000 4.915
86.90000 1.772
86.92000 -0.727
86.94000 -0.157
86.96000 1.884
86.98000 3.829
87.00000 4.691
87.02000 7.717
87.04000 4.957
87.06000 2.572
87.08000 4.050
87.10000 6.111
87.12000 1.575
87.14000 -2.088
87.16000 1.915
87.18000 6.078
87.20000 1.659
87.22000 -0.966
87.24000 0.226
87.26000 2.458
87.28000 4.572
87.30000 1.841
87.32000 2.266
87.34000 0.535
87.36000 0.434
87.38000 4.226
87.40000 5.233
87.42000 3.009
87.44000 2.154
87.46000 3.218
87.48000 2.305
87.50000 6.620
87.52000 3.825
87.54000 3.278
87.56000 4.681
87.58000 1.957
87.60000 2.394
87.62000 -0.431
87.64000 0.664
87.66000 0.859
87.68000 0.837
87.70000 4.143
87.72000 4.293
87.74000 0.485
87.76000 7.128
87.78000 5.260
87.80000 4.331
87.82000 5.733
87.84000 4.050
87.86000 6.104
87.88000 4.909
87.90000 4.892
87.92000 2.337
87.94000 3.299
87.96000 4.979
87.98000 5.531
88.00000 1.962
88.02000 4.216
88.04000 4.594
88.06000 4.012
88.08000 3.266
88.10000 7.336
88.12000 6.840
88.14000 10.242
88.16000 6.833
88.18000 7.381
88.20000 7.167
88.22000 2.788
88.24000 -1.963
88.26000 3.669
88.28000 6.140
88.30000 10.055
88.32000 7.477
88.34000 6.165
88.36000 0.294
88.38000 4.360
88.40000 3.061
88.42000 -0.933
88.44000 3.014
88.46000 4.529
88.48000 5.131
88.50000 2.211
88.52000 2.760
88.54000 6.449
88.56000 9.895
88.58000 5.711
88.60000 3.432
88.62000 4.371
88.64000 1.858
88.66000 5.726
88.68000 3.419
88.70000 5.792
88.72000 1.543
88.74000 0.113
88.76000 1.470
88.78000 0.722
88.80000 1.290
88.82000 -1.749
88.84000 1.613
88.86000 4.869
88.88000 0.614
88.90000 0.849
88.92000 2.838
88.94000 2.735
88.96000 3.370
88.98000 4.565
89.00000 3.656
89.02000 2.699
89.04000 2.784
89.06000 3.188
89.08000 4.703
89.10000 8.023
89.12000 2.791
89.14000 4.761
89.16000 4.904
89.18000 4.163
89.20000 4.527
89.22000 6.151
89.24000 7.461
89.26000 5.214
89.28000 2.691
89.30000 2.886
89.32000 4.409
89.34000 4.760
89.36000 4.831
89.38000 1.565
89.40000 0.940
89.42000 0.230
89.44000 1.755
89.46000 3.153
89.48000 0.761
89.50000 1.774
89.52000 1.151
89.54000 -1.999
89.56000 1.772
89.58000 4.565
89.60000 2.220
89.62000 6.994
89.64000 3.011
89.66000 3.712
89.68000 5.864
89.70000 2.670
89.72000 2.460
89.74000 1.506
89.76000 1.820
89.78000 2.529
89.80000 2.541
89.82000 1.506
89.84000 0.170
89.86000 5.234
89.88000 4.307
89.90000 3.578
89.92000 0.818
89.94000 -1.962
89.96000 2.162
89.98000 1.622
90.00000 -0.978
90.02000 -0.001
90.04000 -0.085
90.06000 0.958
90.08000 0.915
90.10000 1.076
90.12000 1.744
90.14000 4.294
90.16000 0.291
90.18000 -0.923
90.20000 -0.429
90.22000 -0.944
90.24000 -0.106
90.26000 4.250
90.28000 3.413
90.30000 0.384
90.32000 -1.801
90.34000 0.963
90.36000 1.625
90.38000 -1.728
90.40000 1.496
90.42000 0.349
90.44000 1.839
90.46000 -0.130
90.48000 3.154
90.50000 -0.406
90.52000 -0.602
90.54000 -0.306
90.56000 -1.706
90.58000 0.783
90.60000 0.567
90.62000 1.102
90.64000 4.543
90.66000 -0.668
90.68000 2.227
90.70000 0.222
90.72000 1.762
90.74000 1.169
90.76000 -2.035
90.78000 2.023
90.80000 0.849
90.82000 -1.262
90.84000 -1.139
90.86000 -0.621
90.88000 -1.527
90.90000 -0.641
90.92000 2.190
90.94000 5.733
90.96000 5.518
90.98000 3.365
91.00000 2.031
91.02000 0.531
91.04000 1.570
91.06000 -1.368
91.08000 -2.032
91.10000 0.257
91.12000 2.066
91.14000 1.314
91.16000 -1.638
91.18000 -0.123
91.20000 0.857
91.22000 -0.430
91.24000 3.682
91.26000 2.856
91.28000 1.952
91.30000 3.340
91.32000 -0.118
91.34000 -1.067
91.36000 3.588
91.38000 7.453
91.40000 5.901
91.42000 1.427
91.44000 -0.529
91.46000 -0.660
91.48000 1.960
91.50000 3.587
91.52000 -0.708
91.54000 1.208
91.56000 2.739
91.58000 0.894
91.60000 3.475
91.62000 2.841
91.64000 3.839
91.66000 6.187
91.68000 5.088
91.70000 4.082
91.72000 1.098
91.74000 -2.004
91.76000 0.209
91.78000 1.469
91.80000 -0.254
91.82000 1.996
91.84000 0.091
91.86000 2.239
91.88000 1.332
91.90000 -1.546
91.92000 -1.870
91.94000 0.755
91.96000 -0.853
91.98000 -1.249
92.00000 2.970
92.02000 4.274
92.04000 1.858
92.06000 2.285
92.08000 2.006
92.10000 0.033
92.12000 -0.849
92.14000 0.911
92.16000 2.758
92.18000 2.661
92.20000 0.987
92.22000 3.749
92.24000 2.182
92.26000 -1.988
92.28000 0.415
92.30000 0.946
92.32000 4.782
92.34000 6.626
92.36000 9.676
92.38000 5.225
92.40000 1.842
92.42000 3.366
92.44000 6.189
92.46000 4.068
92.48000 3.590
92.50000 2.421
92.52000 4.711
92.54000 4.964
92.56000 3.050
92.58000 3.278
92.60000 4.574
92.62000 0.240
92.64000 -2.012
92.66000 -0.497
92.68000 3.669
92.70000 5.541
92.72000 2.897
92.74000 -1.481
92.76000 1.234
92.78000 0.887
92.80000 3.293
92.82000 1.919
92.84000 7.896
92.86000 6.678
92.88000 5.187
92.90000 1.546
92.92000 0.522
92.94000 2.429
92.96000 5.653
92.98000 4.454
93.00000 1.313
93.02000 2.231
93.04000 3.182
93.06000 -0.038
93.08000 -0.185
93.10000 -0.269
93.12000 4.178
93.14000 1.674
93.16000 -0.251
93.18000 -0.424
93.20000 -0.235
93.22000 1.349
93.24000 3.873
93.26000 4.582
93.28000 0.320
93.30000 -0.635
93.32000 0.567
93.34000 0.312
93.36000 0.689
93.38000 4.329
93.40000 1.687
93.42000 2.644
93.44000 1.021
93.46000 0.246
93.48000 0.472
93.50000 3.684
93.52000 7.441
93.54000 3.736
93.56000 6.226
93.58000 6.739
93.60000 1.847
93.62000 5.168
93.64000 3.209
93.66000 -0.193
93.68000 1.491
93.70000 7.547
93.72000 8.126
93.74000 4.453
93.76000 4.002
93.78000 3.405
93.80000 5.522
93.82000 4.902
93.84000 1.250
93.86000 0.281
93.88000 0.733
93.90000 3.297
93.92000 4.512
93.94000 1.039
93.96000 2.758
93.98000 3.580
94.00000 4.236
94.02000 -0.880
94.04000 3.748
94.06000 3.818
94.08000 3.405
94.10000 2.962
94.12000 -2.025
94.14000 -1.866
94.16000 -0.717
94.18000 2.261
94.20000 1.987
94.22000 1.732
94.24000 1.961
94.26000 3.943
94.28000 5.112
94.30000 4.639
94.32000 2.409
94.34000 0.336
94.36000 1.179
94.38000 1.566
94.40000 0.357
94.42000 3.869
94.44000 2.193
94.46000 1.453
94.48000 2.632
94.50000 3.850
94.52000 0.160
94.54000 0.043
94.56000 4.119
94.58000 6.718
94.60000 3.484
94.62000 2.198
94.64000 2.604
94.66000 2.913
94.68000 6.226
94.70000 2.917
94.72000 -0.711
94.74000 -1.413
94.76000 2.406
94.78000 4.140
94.80000 0.569
94.82000 0.086
94.84000 3.118
94.86000 4.305
94.88000 0.337
94.90000 2.483
94.92000 3.823
94.94000 2.600
94.96000 0.464
94.98000 0.626
95.00000 2.747
95.02000 6.609
95.04000 7.308
95.06000 3.139
95.08000 -1.470
95.10000 4.370
95.12000 -0.927
95.14000 1.218
95.16000 1.585
95.18000 4.194
95.20000 6.589
95.22000 6.491
95.24000 7.990
95.26000 3.292
95.28000 -2.041
95.30000 2.194
95.32000 0.509
95.34000 2.067
95.36000 2.125
95.38000 2.882
95.40000 2.646
95.42000 0.826
95.44000 1.141
95.46000 0.714
95.48000 1.416
95.50000 5.299
95.52000 6.163
95.54000 3.006
95.56000 0.347
95.58000 4.357
95.60000 4.877
95.62000 6.592
95.64000 2.884
95.66000 3.981
95.68000 7.871
95.70000 5.618
95.72000 1.375
95.74000 5.179
95.76000 3.288
95.78000 2.533
95.80000 3.935
95.82000 2.766
95.84000 2.267
95.86000 4.962
95.88000 2.786
95.90000 2.156
95.92000 1.826
95.94000 -0.054
95.96000 0.888
95.98000 3.473
96.00000 3.864
96.02000 6.864
96.04000 5.786
96.06000 3.835
96.08000 -0.344
96.10000 1.020
96.12000 -2.037
96.14000 -1.300
96.16000 1.818
96.18000 3.276
96.20000 0.424
96.22000 2.026
96.24000 3.936
96.26000 0.995
96.28000 6.271
96.30000 3.899
96.32000 -0.636
96.34000 2.365
96.36000 0.716
96.38000 4.314
96.40000 7.739
96.42000 6.289
96.44000 5.558
96.46000 4.109
96.48000 2.614
96.50000 3.831
96.52000 6.715
96.54000 6.398
96.56000 1.491
96.58000 1.296
96.60000 4.794
96.62000 4.170
96.64000 2.014
96.66000 6.058
96.68000 6.722
96.70000 0.940
96.72000 4.435
96.74000 5.549
96.76000 8.633
96.78000 6.826
96.80000 4.450
96.82000 2.656
96.84000 4.602
96.86000 2.126
96.88000 0.545
96.90000 3.554
96.92000 7.288
96.94000 1.549
96.96000 3.685
96.98000 2.765
97.00000 3.197
97.02000 4.133
97.04000 0.030
97.06000 3.879
97.08000 2.350
97.10000 1.256
97.12000 7.361
97.14000 6.624
97.16000 5.026
97.18000 2.470
97.20000 3.622
97.22000 4.486
97.24000 4.411
97.26000 3.316
97.28000 2.848
97.30000 2.001
97.32000 0.731
97.34000 3.186
97.36000 5.407
97.38000 4.373
97.40000 0.660
97.42000 1.033
97.44000 1.016
97.46000 3.441
97.48000 4.853
97.50000 2.362
97.52000 1.166
97.54000 4.491
97.56000 5.719
97.58000 4.759
97.60000 6.128
97.62000 4.424
97.64000 2.612
97.66000 0.926
97.68000 4.820
97.70000 9.627
97.72000 10.929
97.74000 6.415
97.76000 6.345
97.78000 9.924
97.80000 5.947
97.82000 8.342
97.84000 9.950
97.86000 9.847
97.88000 4.076
97.90000 2.078
97.92000 5.121
97.94000 0.959
97.96000 -1.958
97.98000 6.486
98.00000 12.180
98.02000 11.674
98.04000 10.766
98.06000 4.673
98.08000 1.976
98.10000 3.522
98.12000 3.629
98.14000 2.146
98.16000 4.105
98.18000 8.941
98.20000 11.221
98.22000 5.700
98.24000 0.259
98.26000 3.120
98.28000 10.670
98.30000 9.564
98.32000 6.506
98.34000 11.880
98.36000 2.637
98.38000 -0.790
98.40000 0.743
98.42000 2.465
98.44000 7.857
98.46000 5.384
98.48000 1.893
98.50000 9.977
98.52000 13.798
98.54000 10.059
98.56000 3.178
98.58000 0.017
98.60000 4.154
98.62000 4.424
98.64000 12.145
98.66000 9.068
98.68000 8.717
98.70000 6.341
98.72000 8.366
98.74000 5.260
98.76000 -1.392
98.78000 -1.936
98.80000 3.144
98.82000 3.160
98.84000 4.561
98.86000 7.267
98.88000 12.659
98.90000 11.655
98.92000 1.680
98.94000 2.197
98.96000 4.782
98.98000 3.442
99.00000 2.674
99.02000 4.680
99.04000 5.831
99.06000 2.227
99.08000 11.486
99.10000 8.268
99.12000 11.939
99.14000 6.106
99.16000 7.965
99.18000 2.727
99.20000 1.538
99.22000 3.813
99.24000 6.661
99.26000 -0.389
99.28000 5.964
99.30000 1.229
99.32000 1.394
99.34000 3.069
99.36000 6.881
99.38000 6.241
99.40000 0.248
99.42000 3.267
99.44000 5.217
99.46000 0.049
99.48000 -1.982
99.50000 1.726
99.52000 10.431
99.54000 -0.462
99.56000 0.251
99.58000 10.890
99.60000 11.664
99.62000 10.636
99.64000 10.193
99.66000 7.939
99.68000 1.615
99.70000 2.179
99.72000 2.067
99.74000 8.631
99.76000 11.481
99.78000 6.169
99.80000 2.601
99.82000 7.645
99.84000 6.947
99.86000 7.441
99.88000 3.753
99.90000 3.762
99.92000 12.052
99.94000 -5.281
99.96000 -2.097
99.98000 0.000
