'Id: "0011388" Comment: "Integrate frame 0011388_Au-Ir-Rh_Rh-rich_XRD-Mapping-110-0000.gfrmwith cursor Wedge Cursor #5" Operator: "B?rgel" Anode: "Cu" Wavelength: "1.5406" Scantype: "2Theta (TwoTheta)" TimePerStep: "1" X: "27" Y: "-13.5" Z: "5.95" 
10.00000 0.000
10.02000 9.374
10.04000 19.320
10.06000 8.367
10.08000 3.554
10.10000 2.790
10.12000 13.269
10.14000 19.472
10.16000 16.736
10.18000 5.817
10.20000 15.874
10.22000 19.517
10.24000 17.362
10.26000 9.630
10.28000 14.171
10.30000 21.735
10.32000 4.398
10.34000 6.292
10.36000 13.160
10.38000 17.744
10.40000 14.160
10.42000 8.711
10.44000 12.918
10.46000 2.691
10.48000 15.893
10.50000 15.656
10.52000 14.696
10.54000 20.071
10.56000 20.236
10.58000 31.692
10.60000 25.648
10.62000 15.044
10.64000 12.538
10.66000 14.201
10.68000 23.895
10.70000 17.465
10.72000 28.330
10.74000 40.128
10.76000 28.156
10.78000 26.949
10.80000 30.505
10.82000 15.104
10.84000 19.579
10.86000 23.308
10.88000 18.356
10.90000 13.680
10.92000 11.750
10.94000 18.323
10.96000 28.421
10.98000 28.443
11.00000 19.869
11.02000 32.529
11.04000 24.377
11.06000 23.476
11.08000 26.768
11.10000 21.367
11.12000 16.522
11.14000 24.060
11.16000 22.466
11.18000 26.237
11.20000 28.518
11.22000 13.963
11.24000 24.105
11.26000 19.294
11.28000 30.051
11.30000 31.273
11.32000 18.714
11.34000 14.567
11.36000 8.443
11.38000 21.593
11.40000 35.764
11.42000 34.798
11.44000 27.509
11.46000 15.694
11.48000 23.885
11.50000 21.160
11.52000 17.503
11.54000 23.812
11.56000 31.191
11.58000 35.144
11.60000 28.115
11.62000 23.624
11.64000 32.335
11.66000 36.172
11.68000 31.658
11.70000 28.331
11.72000 31.407
11.74000 37.366
11.76000 34.289
11.78000 30.879
11.80000 33.614
11.82000 39.692
11.84000 30.548
11.86000 26.736
11.88000 28.326
11.90000 29.765
11.92000 34.973
11.94000 26.640
11.96000 31.052
11.98000 36.761
12.00000 40.298
12.02000 46.740
12.04000 40.012
12.06000 31.587
12.08000 30.545
12.10000 30.283
12.12000 26.484
12.14000 19.188
12.16000 29.723
12.18000 31.467
12.20000 37.684
12.22000 36.126
12.24000 43.134
12.26000 40.899
12.28000 26.620
12.30000 23.819
12.32000 23.243
12.34000 41.540
12.36000 46.599
12.38000 36.384
12.40000 36.976
12.42000 34.111
12.44000 41.748
12.46000 29.550
12.48000 22.456
12.50000 29.898
12.52000 29.240
12.54000 22.337
12.56000 26.535
12.58000 38.138
12.60000 28.507
12.62000 36.111
12.64000 34.501
12.66000 34.244
12.68000 27.293
12.70000 30.151
12.72000 29.179
12.74000 38.648
12.76000 31.016
12.78000 32.503
12.80000 32.574
12.82000 30.895
12.84000 35.594
12.86000 35.444
12.88000 29.790
12.90000 35.522
12.92000 25.269
12.94000 26.429
12.96000 34.209
12.98000 34.493
13.00000 24.021
13.02000 25.445
13.04000 27.470
13.06000 40.401
13.08000 40.940
13.10000 30.317
13.12000 22.400
13.14000 36.988
13.16000 39.262
13.18000 37.898
13.20000 33.374
13.22000 40.627
13.24000 47.856
13.26000 36.859
13.28000 33.802
13.30000 25.754
13.32000 29.502
13.34000 33.700
13.36000 29.191
13.38000 36.255
13.40000 28.966
13.42000 26.556
13.44000 32.185
13.46000 30.018
13.48000 23.370
13.50000 26.113
13.52000 34.352
13.54000 37.692
13.56000 47.236
13.58000 35.855
13.60000 26.413
13.62000 35.719
13.64000 32.171
13.66000 27.088
13.68000 30.488
13.70000 36.756
13.72000 36.736
13.74000 33.455
13.76000 28.133
13.78000 31.313
13.80000 27.466
13.82000 34.698
13.84000 40.261
13.86000 32.805
13.88000 41.070
13.90000 31.406
13.92000 27.842
13.94000 22.628
13.96000 22.202
13.98000 22.842
14.00000 10.997
14.02000 23.759
14.04000 32.609
14.06000 22.801
14.08000 16.032
14.10000 25.898
14.12000 23.458
14.14000 27.666
14.16000 35.242
14.18000 24.946
14.20000 23.575
14.22000 26.049
14.24000 24.133
14.26000 27.177
14.28000 37.549
14.30000 32.219
14.32000 19.537
14.34000 17.490
14.36000 18.970
14.38000 24.186
14.40000 23.882
14.42000 32.896
14.44000 25.213
14.46000 18.982
14.48000 22.332
14.50000 12.760
14.52000 11.450
14.54000 19.661
14.56000 15.982
14.58000 11.027
14.60000 16.578
14.62000 32.486
14.64000 30.061
14.66000 23.370
14.68000 19.437
14.70000 24.890
14.72000 21.399
14.74000 11.131
14.76000 17.326
14.78000 19.848
14.80000 21.014
14.82000 12.730
14.84000 17.071
14.86000 17.621
14.88000 25.784
14.90000 32.341
14.92000 30.586
14.94000 31.035
14.96000 32.353
14.98000 29.887
15.00000 32.719
15.02000 26.459
15.04000 16.656
15.06000 14.054
15.08000 19.560
15.10000 26.597
15.12000 31.166
15.14000 23.108
15.16000 19.159
15.18000 25.641
15.20000 19.550
15.22000 18.299
15.24000 12.384
15.26000 13.930
15.28000 18.733
15.30000 19.619
15.32000 16.573
15.34000 9.547
15.36000 13.915
15.38000 13.114
15.40000 18.796
15.42000 21.029
15.44000 19.912
15.46000 21.251
15.48000 17.758
15.50000 13.282
15.52000 22.475
15.54000 16.890
15.56000 17.339
15.58000 15.701
15.60000 15.206
15.62000 15.413
15.64000 10.467
15.66000 10.490
15.68000 9.000
15.70000 12.366
15.72000 10.437
15.74000 10.877
15.76000 12.198
15.78000 17.943
15.80000 19.729
15.82000 20.796
15.84000 15.513
15.86000 18.801
15.88000 15.319
15.90000 8.889
15.92000 10.858
15.94000 9.119
15.96000 4.107
15.98000 17.624
16.00000 19.084
16.02000 24.174
16.04000 18.004
16.06000 4.966
16.08000 8.654
16.10000 11.117
16.12000 4.834
16.14000 14.707
16.16000 13.020
16.18000 13.425
16.20000 10.099
16.22000 10.873
16.24000 14.181
16.26000 14.543
16.28000 18.666
16.30000 16.857
16.32000 14.837
16.34000 10.590
16.36000 8.198
16.38000 12.418
16.40000 10.487
16.42000 18.487
16.44000 9.399
16.46000 1.557
16.48000 6.570
16.50000 14.805
16.52000 8.300
16.54000 6.183
16.56000 10.122
16.58000 11.790
16.60000 4.025
16.62000 -1.710
16.64000 4.993
16.66000 7.645
16.68000 7.329
16.70000 12.421
16.72000 9.000
16.74000 5.148
16.76000 7.717
16.78000 3.511
16.80000 9.335
16.82000 12.203
16.84000 9.668
16.86000 5.706
16.88000 6.617
16.90000 5.917
16.92000 5.424
16.94000 3.147
16.96000 11.277
16.98000 11.988
17.00000 13.277
17.02000 10.663
17.04000 4.996
17.06000 3.611
17.08000 9.243
17.10000 8.289
17.12000 7.471
17.14000 16.418
17.16000 16.447
17.18000 9.828
17.20000 7.573
17.22000 16.733
17.24000 8.914
17.26000 9.905
17.28000 17.226
17.30000 8.522
17.32000 9.312
17.34000 13.650
17.36000 13.928
17.38000 9.932
17.40000 8.326
17.42000 12.233
17.44000 13.349
17.46000 3.606
17.48000 1.747
17.50000 3.646
17.52000 12.473
17.54000 12.629
17.56000 0.292
17.58000 0.570
17.60000 2.784
17.62000 6.266
17.64000 7.539
17.66000 12.001
17.68000 18.725
17.70000 14.757
17.72000 9.071
17.74000 -1.962
17.76000 0.128
17.78000 2.853
17.80000 4.830
17.82000 1.274
17.84000 8.665
17.86000 1.336
17.88000 6.071
17.90000 8.238
17.92000 5.170
17.94000 3.651
17.96000 0.111
17.98000 6.789
18.00000 7.541
18.02000 5.953
18.04000 3.466
18.06000 2.211
18.08000 1.998
18.10000 4.549
18.12000 4.569
18.14000 7.700
18.16000 6.770
18.18000 5.239
18.20000 4.348
18.22000 0.542
18.24000 5.729
18.26000 6.282
18.28000 4.179
18.30000 8.261
18.32000 -1.332
18.34000 -1.031
18.36000 2.020
18.38000 6.770
18.40000 13.558
18.42000 7.380
18.44000 -2.173
18.46000 5.792
18.48000 10.837
18.50000 12.907
18.52000 7.407
18.54000 14.241
18.56000 6.641
18.58000 2.054
18.60000 7.543
18.62000 9.004
18.64000 5.768
18.66000 14.017
18.68000 8.729
18.70000 18.015
18.72000 14.599
18.74000 6.088
18.76000 11.593
18.78000 6.000
18.80000 -0.138
18.82000 9.900
18.84000 14.464
18.86000 14.737
18.88000 6.348
18.90000 -4.248
18.92000 -0.603
18.94000 14.139
18.96000 5.097
18.98000 3.488
19.00000 -0.536
19.02000 -0.410
19.04000 6.382
19.06000 9.139
19.08000 5.723
19.10000 -0.303
19.12000 -2.474
19.14000 -0.145
19.16000 10.269
19.18000 12.025
19.20000 10.001
19.22000 5.143
19.24000 6.560
19.26000 13.290
19.28000 9.287
19.30000 12.749
19.32000 14.654
19.34000 13.036
19.36000 8.856
19.38000 5.579
19.40000 5.812
19.42000 6.785
19.44000 9.167
19.46000 10.091
19.48000 13.331
19.50000 6.183
19.52000 1.425
19.54000 8.702
19.56000 14.520
19.58000 6.338
19.60000 6.175
19.62000 5.976
19.64000 6.599
19.66000 9.006
19.68000 3.830
19.70000 3.207
19.72000 6.187
19.74000 5.651
19.76000 9.454
19.78000 7.243
19.80000 -0.620
19.82000 3.860
19.84000 5.706
19.86000 5.751
19.88000 10.907
19.90000 6.926
19.92000 7.918
19.94000 8.272
19.96000 6.715
19.98000 4.365
20.00000 -1.067
20.02000 3.820
20.04000 11.187
20.06000 10.674
20.08000 11.027
20.10000 11.696
20.12000 2.765
20.14000 7.581
20.16000 14.274
20.18000 7.570
20.20000 -4.144
20.22000 1.770
20.24000 5.829
20.26000 7.364
20.28000 1.329
20.30000 2.850
20.32000 11.623
20.34000 6.907
20.36000 8.291
20.38000 10.287
20.40000 8.420
20.42000 3.783
20.44000 6.509
20.46000 1.749
20.48000 7.371
20.50000 2.077
20.52000 3.229
20.54000 10.368
20.56000 12.702
20.58000 14.075
20.60000 9.163
20.62000 13.270
20.64000 14.282
20.66000 11.175
20.68000 8.734
20.70000 11.126
20.72000 2.333
20.74000 6.620
20.76000 7.594
20.78000 12.488
20.80000 9.125
20.82000 6.017
20.84000 5.388
20.86000 3.664
20.88000 7.309
20.90000 7.636
20.92000 6.455
20.94000 6.349
20.96000 6.788
20.98000 7.896
21.00000 6.807
21.02000 6.510
21.04000 8.442
21.06000 6.685
21.08000 10.290
21.10000 9.410
21.12000 15.404
21.14000 10.045
21.16000 3.744
21.18000 4.978
21.20000 3.265
21.22000 6.873
21.24000 15.130
21.26000 8.995
21.28000 5.381
21.30000 6.096
21.32000 -0.854
21.34000 0.710
21.36000 6.561
21.38000 5.504
21.40000 -0.804
21.42000 -0.434
21.44000 6.188
21.46000 6.598
21.48000 9.524
21.50000 17.405
21.52000 15.312
21.54000 7.584
21.56000 2.996
21.58000 -1.378
21.60000 0.827
21.62000 7.875
21.64000 7.994
21.66000 2.040
21.68000 3.401
21.70000 7.984
21.72000 4.767
21.74000 6.954
21.76000 12.027
21.78000 12.901
21.80000 1.417
21.82000 6.859
21.84000 10.621
21.86000 15.347
21.88000 2.984
21.90000 3.433
21.92000 5.628
21.94000 5.442
21.96000 2.695
21.98000 0.786
22.00000 1.481
22.02000 4.834
22.04000 3.505
22.06000 4.280
22.08000 11.893
22.10000 10.238
22.12000 -0.586
22.14000 3.999
22.16000 11.359
22.18000 5.113
22.20000 -1.511
22.22000 -0.050
22.24000 6.505
22.26000 4.511
22.28000 7.459
22.30000 3.963
22.32000 0.454
22.34000 6.120
22.36000 10.850
22.38000 9.363
22.40000 9.117
22.42000 0.194
22.44000 -0.635
22.46000 -4.075
22.48000 -0.770
22.50000 -1.954
22.52000 4.545
22.54000 9.512
22.56000 1.312
22.58000 8.908
22.60000 9.562
22.62000 6.590
22.64000 10.698
22.66000 9.960
22.68000 3.317
22.70000 2.331
22.72000 -3.244
22.74000 -1.112
22.76000 1.103
22.78000 3.675
22.80000 -0.325
22.82000 3.159
22.84000 2.076
22.86000 4.444
22.88000 5.180
22.90000 0.495
22.92000 5.621
22.94000 3.732
22.96000 6.382
22.98000 1.469
23.00000 1.015
23.02000 3.128
23.04000 4.404
23.06000 5.743
23.08000 6.254
23.10000 8.481
23.12000 12.293
23.14000 11.553
23.16000 10.005
23.18000 8.650
23.20000 4.014
23.22000 1.904
23.24000 8.437
23.26000 5.144
23.28000 3.941
23.30000 3.832
23.32000 2.659
23.34000 1.351
23.36000 1.559
23.38000 -1.641
23.40000 -4.043
23.42000 0.751
23.44000 3.302
23.46000 7.345
23.48000 1.507
23.50000 8.945
23.52000 8.951
23.54000 7.577
23.56000 4.617
23.58000 1.621
23.60000 5.211
23.62000 12.055
23.64000 8.174
23.66000 0.552
23.68000 2.483
23.70000 3.212
23.72000 2.483
23.74000 -0.548
23.76000 -1.762
23.78000 2.814
23.80000 6.290
23.82000 7.726
23.84000 11.274
23.86000 7.710
23.88000 5.216
23.90000 6.213
23.92000 5.096
23.94000 3.990
23.96000 4.180
23.98000 3.161
24.00000 3.447
24.02000 -0.133
24.04000 -4.000
24.06000 -2.803
24.08000 -0.779
24.10000 3.660
24.12000 0.883
24.14000 -0.314
24.16000 2.935
24.18000 2.060
24.20000 2.631
24.22000 1.795
24.24000 1.227
24.26000 7.609
24.28000 4.411
24.30000 1.415
24.32000 1.937
24.34000 1.965
24.36000 4.719
24.38000 5.106
24.40000 6.147
24.42000 1.165
24.44000 5.668
24.46000 5.429
24.48000 -0.859
24.50000 4.655
24.52000 8.094
24.54000 5.208
24.56000 5.113
24.58000 5.310
24.60000 1.074
24.62000 7.216
24.64000 7.054
24.66000 -2.109
24.68000 3.801
24.70000 7.875
24.72000 4.223
24.74000 2.074
24.76000 0.593
24.78000 1.258
24.80000 3.280
24.82000 8.087
24.84000 9.992
24.86000 7.426
24.88000 4.214
24.90000 4.487
24.92000 7.877
24.94000 10.459
24.96000 7.996
24.98000 8.310
25.00000 7.119
25.02000 11.325
25.04000 10.848
25.06000 9.458
25.08000 9.561
25.10000 9.910
25.12000 8.139
25.14000 5.208
25.16000 7.940
25.18000 4.326
25.20000 2.031
25.22000 5.718
25.24000 5.213
25.26000 5.235
25.28000 8.601
25.30000 11.761
25.32000 7.262
25.34000 7.092
25.36000 6.567
25.38000 0.399
25.40000 -3.868
25.42000 0.263
25.44000 1.970
25.46000 2.738
25.48000 10.525
25.50000 10.253
25.52000 10.998
25.54000 10.273
25.56000 13.667
25.58000 14.304
25.60000 10.224
25.62000 6.243
25.64000 9.069
25.66000 8.843
25.68000 9.955
25.70000 4.477
25.72000 1.542
25.74000 4.466
25.76000 5.081
25.78000 8.504
25.80000 7.438
25.82000 6.390
25.84000 6.390
25.86000 12.291
25.88000 10.707
25.90000 5.946
25.92000 6.784
25.94000 9.451
25.96000 11.776
25.98000 6.701
26.00000 9.315
26.02000 7.925
26.04000 3.620
26.06000 7.382
26.08000 7.574
26.10000 7.768
26.12000 -2.258
26.14000 -0.136
26.16000 5.014
26.18000 2.439
26.20000 4.414
26.22000 1.757
26.24000 6.100
26.26000 7.113
26.28000 6.401
26.30000 5.705
26.32000 -0.812
26.34000 3.652
26.36000 4.754
26.38000 3.917
26.40000 13.516
26.42000 5.378
26.44000 3.594
26.46000 8.773
26.48000 0.575
26.50000 -1.549
26.52000 -1.047
26.54000 -0.591
26.56000 -0.817
26.58000 4.755
26.60000 6.839
26.62000 8.960
26.64000 -1.709
26.66000 1.072
26.68000 2.745
26.70000 -3.194
26.72000 -0.157
26.74000 2.510
26.76000 -0.614
26.78000 1.995
26.80000 6.473
26.82000 5.789
26.84000 1.255
26.86000 4.018
26.88000 0.762
26.90000 1.886
26.92000 4.027
26.94000 4.901
26.96000 6.673
26.98000 1.307
27.00000 1.080
27.02000 2.852
27.04000 5.408
27.06000 -0.101
27.08000 -3.713
27.10000 3.443
27.12000 -0.475
27.14000 -1.291
27.16000 1.510
27.18000 -3.675
27.20000 -1.457
27.22000 -0.265
27.24000 0.559
27.26000 3.097
27.28000 1.696
27.30000 5.381
27.32000 5.749
27.34000 5.952
27.36000 1.289
27.38000 0.210
27.40000 8.910
27.42000 3.948
27.44000 0.676
27.46000 3.660
27.48000 5.069
27.50000 4.404
27.52000 0.081
27.54000 1.922
27.56000 7.940
27.58000 4.767
27.60000 3.672
27.62000 6.228
27.64000 -1.961
27.66000 1.192
27.68000 7.851
27.70000 2.740
27.72000 0.216
27.74000 6.429
27.76000 6.886
27.78000 9.665
27.80000 4.194
27.82000 -0.205
27.84000 5.540
27.86000 2.925
27.88000 0.295
27.90000 -2.307
27.92000 -0.042
27.94000 6.295
27.96000 6.334
27.98000 0.586
28.00000 -3.773
28.02000 -1.091
28.04000 0.271
28.06000 3.411
28.08000 5.119
28.10000 0.409
28.12000 1.532
28.14000 6.943
28.16000 3.681
28.18000 -0.710
28.20000 -0.603
28.22000 1.989
28.24000 4.053
28.26000 3.564
28.28000 3.794
28.30000 7.894
28.32000 5.667
28.34000 5.008
28.36000 4.114
28.38000 2.081
28.40000 5.042
28.42000 -1.500
28.44000 -3.684
28.46000 0.905
28.48000 1.972
28.50000 0.772
28.52000 -3.748
28.54000 0.274
28.56000 -0.477
28.58000 3.378
28.60000 4.905
28.62000 2.434
28.64000 4.496
28.66000 5.889
28.68000 4.794
28.70000 1.009
28.72000 -0.125
28.74000 1.928
28.76000 6.146
28.78000 6.648
28.80000 1.725
28.82000 -0.577
28.84000 1.370
28.86000 7.365
28.88000 11.270
28.90000 7.586
28.92000 4.901
28.94000 1.926
28.96000 1.431
28.98000 1.973
29.00000 1.917
29.02000 6.504
29.04000 3.476
29.06000 10.082
29.08000 4.627
29.10000 3.214
29.12000 7.280
29.14000 5.137
29.16000 4.491
29.18000 3.031
29.20000 0.220
29.22000 2.423
29.24000 1.245
29.26000 1.827
29.28000 6.973
29.30000 1.322
29.32000 3.150
29.34000 6.528
29.36000 2.880
29.38000 5.610
29.40000 4.261
29.42000 1.350
29.44000 0.243
29.46000 5.757
29.48000 4.804
29.50000 -0.808
29.52000 -2.077
29.54000 0.038
29.56000 -0.360
29.58000 3.285
29.60000 3.344
29.62000 2.899
29.64000 0.346
29.66000 1.381
29.68000 5.763
29.70000 1.504
29.72000 1.057
29.74000 4.624
29.76000 4.244
29.78000 5.536
29.80000 7.645
29.82000 9.080
29.84000 6.537
29.86000 5.524
29.88000 2.973
29.90000 5.483
29.92000 7.293
29.94000 5.142
29.96000 7.489
29.98000 6.124
30.00000 7.200
30.02000 5.444
30.04000 5.859
30.06000 6.997
30.08000 5.374
30.10000 5.364
30.12000 5.990
30.14000 -0.149
30.16000 -3.651
30.18000 0.033
30.20000 6.905
30.22000 3.875
30.24000 7.189
30.26000 5.988
30.28000 5.471
30.30000 4.817
30.32000 -1.624
30.34000 3.244
30.36000 3.879
30.38000 0.313
30.40000 -0.928
30.42000 0.747
30.44000 -1.874
30.46000 5.011
30.48000 3.564
30.50000 1.011
30.52000 0.924
30.54000 5.193
30.56000 4.366
30.58000 0.462
30.60000 0.485
30.62000 -2.128
30.64000 -2.697
30.66000 0.422
30.68000 3.374
30.70000 3.868
30.72000 2.650
30.74000 4.023
30.76000 5.319
30.78000 3.401
30.80000 2.164
30.82000 9.346
30.84000 8.113
30.86000 3.721
30.88000 0.685
30.90000 1.017
30.92000 4.794
30.94000 5.078
30.96000 -1.108
30.98000 -0.694
31.00000 -0.358
31.02000 2.360
31.04000 2.307
31.06000 2.860
31.08000 -0.338
31.10000 -3.041
31.12000 -0.180
31.14000 3.374
31.16000 7.405
31.18000 4.437
31.20000 2.098
31.22000 2.410
31.24000 1.911
31.26000 0.736
31.28000 -2.477
31.30000 -1.589
31.32000 -1.345
31.34000 0.718
31.36000 2.630
31.38000 4.490
31.40000 7.898
31.42000 7.261
31.44000 7.035
31.46000 3.103
31.48000 4.025
31.50000 4.012
31.52000 3.398
31.54000 7.469
31.56000 7.576
31.58000 3.340
31.60000 2.966
31.62000 3.439
31.64000 2.727
31.66000 4.487
31.68000 5.719
31.70000 6.026
31.72000 6.950
31.74000 6.773
31.76000 6.428
31.78000 4.585
31.80000 0.654
31.82000 4.097
31.84000 6.193
31.86000 5.149
31.88000 2.063
31.90000 1.897
31.92000 2.333
31.94000 7.512
31.96000 3.327
31.98000 5.316
32.00000 5.082
32.02000 5.264
32.04000 5.664
32.06000 -1.587
32.08000 0.377
32.10000 5.435
32.12000 7.045
32.14000 3.002
32.16000 2.202
32.18000 2.078
32.20000 -0.547
32.22000 -1.751
32.24000 4.353
32.26000 4.772
32.28000 5.021
32.30000 0.630
32.32000 -3.577
32.34000 3.655
32.36000 1.354
32.38000 0.500
32.40000 2.747
32.42000 7.299
32.44000 7.905
32.46000 7.162
32.48000 5.305
32.50000 2.341
32.52000 4.806
32.54000 5.797
32.56000 2.007
32.58000 4.754
32.60000 4.632
32.62000 2.068
32.64000 5.976
32.66000 2.552
32.68000 4.202
32.70000 0.707
32.72000 -0.909
32.74000 0.859
32.76000 0.135
32.78000 3.960
32.80000 4.865
32.82000 2.305
32.84000 0.354
32.86000 1.100
32.88000 0.888
32.90000 -1.733
32.92000 0.611
32.94000 0.192
32.96000 -1.011
32.98000 1.119
33.00000 -0.809
33.02000 1.560
33.04000 3.564
33.06000 3.355
33.08000 1.659
33.10000 5.082
33.12000 9.280
33.14000 7.519
33.16000 6.314
33.18000 2.776
33.20000 0.607
33.22000 0.128
33.24000 3.932
33.26000 4.005
33.28000 6.057
33.30000 7.651
33.32000 6.231
33.34000 7.888
33.36000 1.341
33.38000 5.249
33.40000 3.936
33.42000 3.441
33.44000 4.303
33.46000 6.145
33.48000 4.220
33.50000 3.874
33.52000 2.864
33.54000 -2.602
33.56000 1.064
33.58000 2.456
33.60000 5.793
33.62000 6.664
33.64000 0.818
33.66000 3.240
33.68000 4.474
33.70000 7.323
33.72000 7.973
33.74000 5.134
33.76000 5.191
33.78000 4.987
33.80000 1.348
33.82000 0.721
33.84000 2.785
33.86000 8.184
33.88000 5.498
33.90000 4.859
33.92000 3.301
33.94000 0.726
33.96000 -1.948
33.98000 -3.537
34.00000 -1.777
34.02000 3.135
34.04000 7.487
34.06000 5.307
34.08000 8.572
34.10000 7.065
34.12000 0.252
34.14000 8.280
34.16000 11.988
34.18000 4.125
34.20000 4.583
34.22000 4.476
34.24000 3.980
34.26000 4.018
34.28000 3.740
34.30000 -0.590
34.32000 3.305
34.34000 5.705
34.36000 4.285
34.38000 2.921
34.40000 -0.410
34.42000 -1.768
34.44000 -0.026
34.46000 1.554
34.48000 3.785
34.50000 3.776
34.52000 4.129
34.54000 2.083
34.56000 3.931
34.58000 1.760
34.60000 -0.141
34.62000 -3.540
34.64000 -0.026
34.66000 1.714
34.68000 2.335
34.70000 1.317
34.72000 -0.084
34.74000 7.111
34.76000 2.845
34.78000 1.793
34.80000 -1.544
34.82000 -2.216
34.84000 0.567
34.86000 0.584
34.88000 7.003
34.90000 3.981
34.92000 -0.982
34.94000 0.927
34.96000 3.994
34.98000 1.839
35.00000 -2.999
35.02000 0.486
35.04000 2.769
35.06000 3.341
35.08000 -0.503
35.10000 -3.430
35.12000 1.805
35.14000 2.927
35.16000 3.840
35.18000 -1.505
35.20000 1.970
35.22000 5.773
35.24000 3.384
35.26000 -1.944
35.28000 -3.523
35.30000 -0.571
35.32000 0.997
35.34000 2.236
35.36000 2.296
35.38000 -3.090
35.40000 -2.077
35.42000 1.144
35.44000 7.297
35.46000 2.056
35.48000 5.307
35.50000 3.187
35.52000 0.460
35.54000 2.926
35.56000 1.470
35.58000 -3.128
35.60000 -2.124
35.62000 3.798
35.64000 4.764
35.66000 1.839
35.68000 -2.092
35.70000 -1.320
35.72000 -0.577
35.74000 3.675
35.76000 7.607
35.78000 7.086
35.80000 6.060
35.82000 3.443
35.84000 -0.489
35.86000 -3.492
35.88000 2.305
35.90000 4.274
35.92000 -1.031
35.94000 2.545
35.96000 2.207
35.98000 4.945
36.00000 3.575
36.02000 3.001
36.04000 2.427
36.06000 2.198
36.08000 2.241
36.10000 -1.583
36.12000 -3.128
36.14000 -2.683
36.16000 2.448
36.18000 5.311
36.20000 1.374
36.22000 3.237
36.24000 -0.914
36.26000 -0.471
36.28000 -0.505
36.30000 -0.969
36.32000 -1.034
36.34000 -0.701
36.36000 -1.336
36.38000 -0.957
36.40000 5.256
36.42000 2.484
36.44000 -0.436
36.46000 5.916
36.48000 6.532
36.50000 3.710
36.52000 -0.165
36.54000 0.330
36.56000 4.134
36.58000 2.636
36.60000 2.443
36.62000 2.092
36.64000 2.196
36.66000 2.732
36.68000 4.100
36.70000 5.193
36.72000 3.057
36.74000 -1.612
36.76000 4.318
36.78000 3.544
36.80000 2.460
36.82000 3.656
36.84000 2.007
36.86000 1.139
36.88000 -0.969
36.90000 -2.263
36.92000 -0.631
36.94000 -3.530
36.96000 -0.597
36.98000 -2.154
37.00000 -0.417
37.02000 4.302
37.04000 1.630
37.06000 1.158
37.08000 -2.105
37.10000 0.631
37.12000 7.260
37.14000 0.718
37.16000 1.209
37.18000 1.703
37.20000 -0.355
37.22000 -1.719
37.24000 -3.010
37.26000 0.200
37.28000 1.843
37.30000 -0.780
37.32000 1.931
37.34000 1.863
37.36000 0.143
37.38000 0.995
37.40000 -2.011
37.42000 1.874
37.44000 6.128
37.46000 3.558
37.48000 5.294
37.50000 8.513
37.52000 5.041
37.54000 2.433
37.56000 0.767
37.58000 4.796
37.60000 4.059
37.62000 -0.468
37.64000 -3.547
37.66000 1.583
37.68000 7.115
37.70000 2.236
37.72000 4.022
37.74000 4.599
37.76000 6.352
37.78000 6.907
37.80000 2.280
37.82000 2.355
37.84000 7.117
37.86000 9.947
37.88000 11.103
37.90000 7.165
37.92000 3.115
37.94000 10.024
37.96000 10.129
37.98000 4.251
38.00000 4.999
38.02000 4.504
38.04000 3.499
38.06000 9.958
38.08000 6.680
38.10000 5.303
38.12000 10.813
38.14000 13.282
38.16000 12.546
38.18000 9.994
38.20000 9.729
38.22000 8.203
38.24000 8.097
38.26000 12.419
38.28000 11.856
38.30000 11.505
38.32000 9.853
38.34000 12.642
38.36000 13.617
38.38000 11.229
38.40000 15.472
38.42000 15.082
38.44000 11.656
38.46000 18.994
38.48000 15.989
38.50000 8.792
38.52000 10.381
38.54000 14.804
38.56000 16.436
38.58000 16.353
38.60000 20.849
38.62000 19.064
38.64000 17.248
38.66000 21.451
38.68000 21.065
38.70000 21.492
38.72000 22.311
38.74000 22.085
38.76000 21.405
38.78000 16.742
38.80000 15.024
38.82000 24.423
38.84000 27.527
38.86000 28.080
38.88000 23.560
38.90000 20.050
38.92000 23.253
38.94000 24.296
38.96000 26.100
38.98000 23.763
39.00000 23.241
39.02000 27.946
39.04000 28.901
39.06000 30.993
39.08000 32.467
39.10000 25.671
39.12000 28.310
39.14000 37.349
39.16000 37.704
39.18000 31.385
39.20000 34.629
39.22000 37.324
39.24000 32.307
39.26000 33.045
39.28000 39.156
39.30000 38.593
39.32000 43.077
39.34000 43.992
39.36000 41.938
39.38000 47.411
39.40000 49.519
39.42000 49.927
39.44000 49.025
39.46000 53.255
39.48000 60.989
39.50000 60.414
39.52000 59.964
39.54000 61.552
39.56000 66.593
39.58000 69.091
39.60000 76.642
39.62000 78.239
39.64000 77.455
39.66000 79.294
39.68000 81.581
39.70000 85.290
39.72000 86.474
39.74000 99.019
39.76000 102.394
39.78000 107.497
39.80000 106.843
39.82000 110.026
39.84000 120.957
39.86000 128.265
39.88000 135.407
39.90000 136.859
39.92000 142.116
39.94000 145.092
39.96000 163.181
39.98000 171.388
40.00000 171.260
40.02000 180.440
40.04000 187.922
40.06000 197.823
40.08000 213.444
40.10000 220.753
40.12000 228.921
40.14000 243.612
40.16000 255.194
40.18000 260.659
40.20000 271.846
40.22000 288.843
40.24000 301.384
40.26000 315.395
40.28000 321.422
40.30000 333.746
40.32000 352.542
40.34000 364.343
40.36000 383.315
40.38000 399.719
40.40000 412.237
40.42000 425.781
40.44000 435.515
40.46000 449.998
40.48000 468.598
40.50000 487.585
40.52000 496.275
40.54000 512.654
40.56000 526.985
40.58000 538.399
40.60000 533.829
40.62000 550.650
40.64000 557.089
40.66000 563.021
40.68000 568.866
40.70000 569.116
40.72000 566.287
40.74000 579.373
40.76000 577.428
40.78000 571.823
40.80000 574.206
40.82000 565.884
40.84000 553.629
40.86000 548.981
40.88000 531.059
40.90000 525.413
40.92000 508.921
40.94000 491.616
40.96000 491.840
40.98000 478.966
41.00000 462.239
41.02000 448.560
41.04000 434.928
41.06000 415.619
41.08000 408.713
41.10000 395.946
41.12000 375.247
41.14000 356.953
41.16000 346.577
41.18000 344.819
41.20000 323.705
41.22000 291.266
41.24000 276.688
41.26000 274.306
41.28000 268.201
41.30000 251.455
41.32000 231.900
41.34000 228.642
41.36000 216.646
41.38000 207.960
41.40000 194.468
41.42000 185.869
41.44000 178.767
41.46000 170.800
41.48000 156.745
41.50000 147.525
41.52000 134.717
41.54000 129.912
41.56000 122.307
41.58000 112.464
41.60000 115.028
41.62000 107.222
41.64000 100.273
41.66000 97.028
41.68000 86.934
41.70000 86.118
41.72000 80.539
41.74000 78.943
41.76000 71.377
41.78000 71.954
41.80000 68.553
41.82000 57.492
41.84000 61.952
41.86000 60.605
41.88000 56.286
41.90000 54.371
41.92000 52.182
41.94000 46.084
41.96000 46.312
41.98000 44.301
42.00000 44.626
42.02000 45.785
42.04000 38.575
42.06000 39.762
42.08000 38.428
42.10000 33.179
42.12000 30.430
42.14000 30.919
42.16000 29.583
42.18000 28.643
42.20000 26.381
42.22000 26.929
42.24000 21.947
42.26000 21.976
42.28000 24.350
42.30000 20.417
42.32000 19.005
42.34000 23.460
42.36000 15.946
42.38000 17.286
42.40000 17.117
42.42000 15.400
42.44000 14.262
42.46000 9.961
42.48000 11.903
42.50000 11.987
42.52000 10.559
42.54000 5.335
42.56000 10.082
42.58000 16.253
42.60000 13.006
42.62000 11.832
42.64000 7.949
42.66000 8.253
42.68000 4.277
42.70000 6.549
42.72000 4.527
42.74000 5.589
42.76000 7.467
42.78000 3.496
42.80000 7.367
42.82000 6.026
42.84000 4.988
42.86000 4.288
42.88000 2.076
42.90000 1.052
42.92000 0.630
42.94000 1.792
42.96000 -0.051
42.98000 5.510
43.00000 8.942
43.02000 1.375
43.04000 0.270
43.06000 6.055
43.08000 7.967
43.10000 6.444
43.12000 2.758
43.14000 2.417
43.16000 2.686
43.18000 0.170
43.20000 -0.418
43.22000 -0.734
43.24000 5.341
43.26000 4.018
43.28000 1.707
43.30000 -2.691
43.32000 -1.024
43.34000 2.086
43.36000 2.752
43.38000 3.031
43.40000 3.809
43.42000 3.678
43.44000 -0.144
43.46000 1.109
43.48000 -2.102
43.50000 -1.791
43.52000 0.459
43.54000 1.262
43.56000 3.041
43.58000 3.588
43.60000 1.634
43.62000 7.186
43.64000 9.736
43.66000 8.741
43.68000 6.807
43.70000 8.272
43.72000 0.436
43.74000 -0.856
43.76000 -2.163
43.78000 2.540
43.80000 2.074
43.82000 -3.500
43.84000 -0.560
43.86000 -0.740
43.88000 0.964
43.90000 0.370
43.92000 1.993
43.94000 -1.081
43.96000 -1.186
43.98000 3.026
44.00000 3.380
44.02000 3.409
44.04000 6.159
44.06000 5.371
44.08000 -2.525
44.10000 -2.736
44.12000 1.109
44.14000 2.110
44.16000 -0.650
44.18000 -1.255
44.20000 -2.632
44.22000 0.639
44.24000 -1.625
44.26000 -2.206
44.28000 -1.703
44.30000 -2.285
44.32000 -3.482
44.34000 -1.007
44.36000 -0.449
44.38000 0.197
44.40000 -0.829
44.42000 -2.888
44.44000 -0.939
44.46000 0.077
44.48000 0.166
44.50000 -1.996
44.52000 -2.872
44.54000 -3.280
44.56000 -1.399
44.58000 2.257
44.60000 -0.896
44.62000 1.391
44.64000 1.027
44.66000 2.733
44.68000 -3.117
44.70000 -3.086
44.72000 2.758
44.74000 -2.114
44.76000 1.380
44.78000 -0.549
44.80000 -2.557
44.82000 -2.244
44.84000 -0.125
44.86000 0.956
44.88000 -0.714
44.90000 -2.165
44.92000 -1.268
44.94000 0.717
44.96000 -3.494
44.98000 -0.146
45.00000 6.695
45.02000 6.914
45.04000 1.580
45.06000 0.137
45.08000 0.798
45.10000 1.396
45.12000 -2.840
45.14000 -3.006
45.16000 -1.268
45.18000 1.326
45.20000 2.509
45.22000 4.373
45.24000 4.704
45.26000 2.166
45.28000 -1.645
45.30000 3.937
45.32000 8.075
45.34000 4.849
45.36000 4.178
45.38000 -3.493
45.40000 2.312
45.42000 1.266
45.44000 3.506
45.46000 1.559
45.48000 0.335
45.50000 2.129
45.52000 3.896
45.54000 4.364
45.56000 4.117
45.58000 8.324
45.60000 11.470
45.62000 4.735
45.64000 7.252
45.66000 10.545
45.68000 8.458
45.70000 6.823
45.72000 11.342
45.74000 3.269
45.76000 4.896
45.78000 4.613
45.80000 8.811
45.82000 9.283
45.84000 10.763
45.86000 12.139
45.88000 12.824
45.90000 12.638
45.92000 13.768
45.94000 9.220
45.96000 7.614
45.98000 12.535
46.00000 16.503
46.02000 18.789
46.04000 21.890
46.06000 15.230
46.08000 16.109
46.10000 20.415
46.12000 16.324
46.14000 11.444
46.16000 18.634
46.18000 20.807
46.20000 20.238
46.22000 22.075
46.24000 22.586
46.26000 24.428
46.28000 20.726
46.30000 23.428
46.32000 26.148
46.34000 24.187
46.36000 20.829
46.38000 28.946
46.40000 34.161
46.42000 26.017
46.44000 27.003
46.46000 29.388
46.48000 30.931
46.50000 36.745
46.52000 36.912
46.54000 30.063
46.56000 33.588
46.58000 37.220
46.60000 42.248
46.62000 44.414
46.64000 45.586
46.66000 44.661
46.68000 46.024
46.70000 48.963
46.72000 42.569
46.74000 48.395
46.76000 46.260
46.78000 49.286
46.80000 51.705
46.82000 52.395
46.84000 49.596
46.86000 60.250
46.88000 59.795
46.90000 52.618
46.92000 53.509
46.94000 58.715
46.96000 55.980
46.98000 62.291
47.00000 58.008
47.02000 61.334
47.04000 64.232
47.06000 62.242
47.08000 60.048
47.10000 68.129
47.12000 72.237
47.14000 66.773
47.16000 57.214
47.18000 62.577
47.20000 70.745
47.22000 72.947
47.24000 69.370
47.26000 63.443
47.28000 63.817
47.30000 61.830
47.32000 67.995
47.34000 69.888
47.36000 76.873
47.38000 66.847
47.40000 61.536
47.42000 60.649
47.44000 68.756
47.46000 60.968
47.48000 58.049
47.50000 65.973
47.52000 63.755
47.54000 58.576
47.56000 55.341
47.58000 60.098
47.60000 62.047
47.62000 60.175
47.64000 58.600
47.66000 58.814
47.68000 50.514
47.70000 50.219
47.72000 55.317
47.74000 57.561
47.76000 53.399
47.78000 50.126
47.80000 49.483
47.82000 46.529
47.84000 38.021
47.86000 40.746
47.88000 38.185
47.90000 40.662
47.92000 39.767
47.94000 39.409
47.96000 39.568
47.98000 35.834
48.00000 35.275
48.02000 35.279
48.04000 33.829
48.06000 26.636
48.08000 21.781
48.10000 30.922
48.12000 25.108
48.14000 22.365
48.16000 19.658
48.18000 18.409
48.20000 24.922
48.22000 23.111
48.24000 16.467
48.26000 13.080
48.28000 19.139
48.30000 18.084
48.32000 18.676
48.34000 15.699
48.36000 17.946
48.38000 17.361
48.40000 17.899
48.42000 16.135
48.44000 7.859
48.46000 11.191
48.48000 8.979
48.50000 9.273
48.52000 7.256
48.54000 9.990
48.56000 7.967
48.58000 8.742
48.60000 7.401
48.62000 9.681
48.64000 8.206
48.66000 6.314
48.68000 3.811
48.70000 5.649
48.72000 6.292
48.74000 8.511
48.76000 8.057
48.78000 2.547
48.80000 3.185
48.82000 2.195
48.84000 1.688
48.86000 5.487
48.88000 0.389
48.90000 3.527
48.92000 11.231
48.94000 12.030
48.96000 4.715
48.98000 3.388
49.00000 1.434
49.02000 -1.278
49.04000 -3.180
49.06000 1.817
49.08000 7.730
49.10000 0.971
49.12000 5.186
49.14000 1.749
49.16000 1.055
49.18000 0.164
49.20000 0.420
49.22000 1.179
49.24000 3.111
49.26000 -1.160
49.28000 0.658
49.30000 3.208
49.32000 0.718
49.34000 -3.129
49.36000 -2.805
49.38000 0.810
49.40000 1.793
49.42000 1.651
49.44000 2.293
49.46000 -0.643
49.48000 0.322
49.50000 0.624
49.52000 -2.996
49.54000 0.869
49.56000 6.002
49.58000 -2.369
49.60000 -1.877
49.62000 8.638
49.64000 4.836
49.66000 2.108
49.68000 2.207
49.70000 0.046
49.72000 -2.852
49.74000 0.243
49.76000 -2.597
49.78000 -3.054
49.80000 -0.719
49.82000 1.908
49.84000 5.115
49.86000 2.978
49.88000 4.944
49.90000 1.278
49.92000 1.730
49.94000 4.302
49.96000 3.989
49.98000 3.557
50.00000 1.159
50.02000 -1.295
50.04000 -1.548
50.06000 0.993
50.08000 2.371
50.10000 -0.417
50.12000 -0.329
50.14000 -1.039
50.16000 -1.473
50.18000 2.183
50.20000 2.290
50.22000 -3.011
50.24000 0.843
50.26000 8.076
50.28000 7.812
50.30000 10.099
50.32000 6.019
50.34000 3.758
50.36000 5.118
50.38000 3.125
50.40000 1.138
50.42000 5.698
50.44000 6.414
50.46000 4.614
50.48000 2.048
50.50000 -0.132
50.52000 0.228
50.54000 3.347
50.56000 8.296
50.58000 3.529
50.60000 5.686
50.62000 6.623
50.64000 8.539
50.66000 5.630
50.68000 0.320
50.70000 -2.727
50.72000 -2.040
50.74000 1.738
50.76000 0.694
50.78000 -2.707
50.80000 -2.914
50.82000 -0.368
50.84000 -2.466
50.86000 0.136
50.88000 -2.364
50.90000 0.808
50.92000 2.563
50.94000 3.531
50.96000 6.936
50.98000 3.762
51.00000 1.735
51.02000 3.529
51.04000 3.797
51.06000 0.702
51.08000 -1.149
51.10000 6.186
51.12000 8.887
51.14000 11.335
51.16000 6.366
51.18000 0.716
51.20000 -2.956
51.22000 -0.246
51.24000 3.984
51.26000 3.627
51.28000 10.512
51.30000 7.778
51.32000 8.981
51.34000 1.986
51.36000 0.787
51.38000 0.555
51.40000 1.037
51.42000 3.065
51.44000 4.515
51.46000 2.554
51.48000 0.668
51.50000 4.274
51.52000 3.424
51.54000 1.786
51.56000 -0.668
51.58000 -0.733
51.60000 -2.602
51.62000 1.076
51.64000 5.044
51.66000 8.524
51.68000 6.591
51.70000 0.060
51.72000 1.498
51.74000 3.595
51.76000 0.158
51.78000 0.439
51.80000 -2.932
51.82000 -1.558
51.84000 4.967
51.86000 2.782
51.88000 -0.105
51.90000 -0.485
51.92000 -1.158
51.94000 2.992
51.96000 -0.537
51.98000 0.629
52.00000 3.947
52.02000 4.686
52.04000 6.340
52.06000 -1.335
52.08000 -0.422
52.10000 2.431
52.12000 7.011
52.14000 -0.922
52.16000 4.823
52.18000 2.523
52.20000 2.040
52.22000 5.794
52.24000 13.907
52.26000 13.343
52.28000 9.313
52.30000 8.028
52.32000 -0.699
52.34000 3.173
52.36000 8.022
52.38000 4.605
52.40000 5.204
52.42000 4.989
52.44000 1.700
52.46000 0.356
52.48000 3.588
52.50000 2.204
52.52000 -2.883
52.54000 -1.637
52.56000 0.277
52.58000 2.586
52.60000 1.731
52.62000 3.730
52.64000 6.499
52.66000 7.116
52.68000 8.448
52.70000 6.563
52.72000 6.547
52.74000 4.128
52.76000 4.817
52.78000 2.439
52.80000 2.065
52.82000 3.277
52.84000 7.157
52.86000 5.071
52.88000 1.954
52.90000 5.582
52.92000 7.954
52.94000 8.925
52.96000 7.178
52.98000 6.399
53.00000 4.495
53.02000 -1.149
53.04000 3.334
53.06000 4.615
53.08000 5.455
53.10000 3.593
53.12000 4.073
53.14000 5.805
53.16000 3.549
53.18000 -2.864
53.20000 -1.042
53.22000 0.093
53.24000 4.543
53.26000 2.745
53.28000 3.807
53.30000 3.909
53.32000 5.700
53.34000 8.470
53.36000 6.217
53.38000 1.328
53.40000 5.006
53.42000 4.732
53.44000 2.767
53.46000 -2.236
53.48000 -2.339
53.50000 0.512
53.52000 0.060
53.54000 -1.687
53.56000 -0.099
53.58000 3.662
53.60000 -0.480
53.62000 -2.485
53.64000 -0.638
53.66000 1.953
53.68000 6.684
53.70000 3.492
53.72000 4.716
53.74000 9.404
53.76000 7.953
53.78000 6.895
53.80000 7.040
53.82000 0.380
53.84000 -2.424
53.86000 -1.397
53.88000 3.648
53.90000 0.380
53.92000 0.244
53.94000 6.879
53.96000 7.060
53.98000 4.752
54.00000 3.251
54.02000 1.181
54.04000 4.865
54.06000 5.609
54.08000 5.241
54.10000 5.836
54.12000 6.660
54.14000 6.345
54.16000 4.107
54.18000 1.241
54.20000 4.380
54.22000 3.657
54.24000 6.487
54.26000 5.516
54.28000 1.929
54.30000 -1.245
54.32000 1.112
54.34000 -0.933
54.36000 -2.829
54.38000 0.094
54.40000 1.728
54.42000 4.239
54.44000 5.337
54.46000 3.850
54.48000 -0.230
54.50000 4.233
54.52000 5.001
54.54000 5.135
54.56000 6.029
54.58000 4.425
54.60000 3.669
54.62000 6.795
54.64000 2.218
54.66000 -0.908
54.68000 2.046
54.70000 -2.751
54.72000 3.380
54.74000 4.837
54.76000 0.781
54.78000 5.286
54.80000 2.694
54.82000 2.992
54.84000 2.540
54.86000 4.193
54.88000 0.506
54.90000 -0.024
54.92000 3.843
54.94000 6.812
54.96000 2.077
54.98000 -2.835
55.00000 0.922
55.02000 4.953
55.04000 4.721
55.06000 4.311
55.08000 6.665
55.10000 -0.180
55.12000 2.860
55.14000 3.650
55.16000 4.391
55.18000 4.713
55.20000 1.962
55.22000 4.069
55.24000 2.001
55.26000 4.834
55.28000 6.409
55.30000 2.411
55.32000 -2.035
55.34000 1.852
55.36000 3.526
55.38000 2.895
55.40000 2.962
55.42000 6.707
55.44000 0.582
55.46000 -1.242
55.48000 0.969
55.50000 2.073
55.52000 -1.824
55.54000 -1.447
55.56000 1.077
55.58000 0.474
55.60000 1.348
55.62000 -1.841
55.64000 2.041
55.66000 1.894
55.68000 -0.092
55.70000 -1.105
55.72000 0.247
55.74000 2.975
55.76000 0.241
55.78000 2.223
55.80000 1.128
55.82000 0.715
55.84000 1.293
55.86000 3.588
55.88000 4.439
55.90000 4.618
55.92000 5.070
55.94000 6.309
55.96000 5.125
55.98000 3.153
56.00000 5.557
56.02000 8.254
56.04000 5.171
56.06000 -0.942
56.08000 -2.798
56.10000 2.726
56.12000 1.515
56.14000 2.854
56.16000 3.689
56.18000 3.640
56.20000 4.359
56.22000 3.739
56.24000 4.197
56.26000 2.268
56.28000 5.391
56.30000 2.869
56.32000 7.986
56.34000 4.716
56.36000 1.691
56.38000 -0.110
56.40000 0.791
56.42000 3.965
56.44000 1.135
56.46000 2.446
56.48000 3.095
56.50000 3.900
56.52000 5.586
56.54000 4.350
56.56000 2.107
56.58000 -1.673
56.60000 1.416
56.62000 1.658
56.64000 6.161
56.66000 6.733
56.68000 2.520
56.70000 3.696
56.72000 3.834
56.74000 1.630
56.76000 1.597
56.78000 1.134
56.80000 0.327
56.82000 4.968
56.84000 2.124
56.86000 3.319
56.88000 3.715
56.90000 4.799
56.92000 1.665
56.94000 -1.439
56.96000 0.060
56.98000 3.850
57.00000 0.204
57.02000 0.366
57.04000 2.225
57.06000 0.960
57.08000 1.034
57.10000 8.417
57.12000 6.452
57.14000 5.126
57.16000 2.370
57.18000 4.908
57.20000 1.426
57.22000 3.235
57.24000 2.915
57.26000 5.642
57.28000 7.974
57.30000 3.948
57.32000 3.975
57.34000 7.800
57.36000 1.726
57.38000 -2.726
57.40000 1.667
57.42000 0.508
57.44000 0.230
57.46000 2.477
57.48000 2.543
57.50000 5.221
57.52000 6.743
57.54000 3.058
57.56000 5.765
57.58000 4.027
57.60000 4.072
57.62000 6.142
57.64000 5.363
57.66000 2.561
57.68000 3.417
57.70000 5.104
57.72000 4.416
57.74000 3.236
57.76000 9.012
57.78000 5.583
57.80000 3.790
57.82000 3.781
57.84000 3.055
57.86000 0.915
57.88000 2.161
57.90000 5.362
57.92000 5.623
57.94000 4.527
57.96000 4.082
57.98000 0.230
58.00000 6.089
58.02000 1.050
58.04000 2.055
58.06000 4.031
58.08000 3.584
58.10000 5.771
58.12000 0.609
58.14000 -0.097
58.16000 1.853
58.18000 3.780
58.20000 1.001
58.22000 -1.235
58.24000 7.156
58.26000 10.127
58.28000 8.613
58.30000 6.411
58.32000 4.996
58.34000 3.191
58.36000 5.605
58.38000 11.662
58.40000 11.354
58.42000 9.300
58.44000 3.942
58.46000 1.617
58.48000 2.607
58.50000 11.229
58.52000 8.180
58.54000 9.735
58.56000 8.204
58.58000 8.819
58.60000 2.091
58.62000 2.837
58.64000 0.765
58.66000 8.701
58.68000 9.544
58.70000 5.078
58.72000 3.774
58.74000 3.162
58.76000 5.333
58.78000 11.808
58.80000 6.659
58.82000 5.195
58.84000 3.943
58.86000 6.967
58.88000 7.819
58.90000 11.408
58.92000 6.331
58.94000 -2.619
58.96000 3.124
58.98000 9.197
59.00000 12.700
59.02000 4.711
59.04000 2.121
59.06000 2.397
59.08000 7.838
59.10000 7.427
59.12000 3.682
59.14000 5.267
59.16000 4.345
59.18000 2.802
59.20000 3.034
59.22000 1.452
59.24000 3.433
59.26000 5.798
59.28000 6.501
59.30000 2.040
59.32000 5.604
59.34000 8.678
59.36000 9.184
59.38000 7.459
59.40000 6.153
59.42000 5.535
59.44000 1.900
59.46000 -1.443
59.48000 2.730
59.50000 1.358
59.52000 2.279
59.54000 5.640
59.56000 5.178
59.58000 7.873
59.60000 7.996
59.62000 6.072
59.64000 2.743
59.66000 1.453
59.68000 2.204
59.70000 3.321
59.72000 4.696
59.74000 3.493
59.76000 1.135
59.78000 3.348
59.80000 5.387
59.82000 2.270
59.84000 6.267
59.86000 9.262
59.88000 7.540
59.90000 6.229
59.92000 2.681
59.94000 1.303
59.96000 4.522
59.98000 5.561
60.00000 6.519
60.02000 5.335
60.04000 6.362
60.06000 5.117
60.08000 5.816
60.10000 4.141
60.12000 -1.550
60.14000 6.048
60.16000 5.481
60.18000 2.178
60.20000 4.149
60.22000 7.492
60.24000 8.258
60.26000 4.368
60.28000 4.971
60.30000 2.909
60.32000 4.167
60.34000 2.115
60.36000 -0.575
60.38000 -1.508
60.40000 3.023
60.42000 5.598
60.44000 6.346
60.46000 3.935
60.48000 1.200
60.50000 -1.100
60.52000 -1.226
60.54000 -0.872
60.56000 -1.157
60.58000 -0.703
60.60000 -0.097
60.62000 0.516
60.64000 -0.773
60.66000 2.636
60.68000 -0.098
60.70000 3.409
60.72000 4.919
60.74000 3.907
60.76000 3.482
60.78000 5.878
60.80000 3.400
60.82000 4.182
60.84000 2.683
60.86000 -0.423
60.88000 -1.108
60.90000 -2.641
60.92000 1.914
60.94000 2.403
60.96000 -1.341
60.98000 0.080
61.00000 -0.007
61.02000 2.456
61.04000 2.390
61.06000 3.303
61.08000 2.336
61.10000 -2.540
61.12000 -1.030
61.14000 -1.964
61.16000 0.815
61.18000 -1.225
61.20000 1.086
61.22000 1.449
61.24000 3.338
61.26000 -1.965
61.28000 -2.452
61.30000 -1.711
61.32000 -2.253
61.34000 1.955
61.36000 0.812
61.38000 0.024
61.40000 0.285
61.42000 -0.297
61.44000 -1.199
61.46000 -1.272
61.48000 -0.673
61.50000 1.139
61.52000 0.358
61.54000 0.585
61.56000 -0.174
61.58000 -1.729
61.60000 2.862
61.62000 7.146
61.64000 5.312
61.66000 4.795
61.68000 2.482
61.70000 4.995
61.72000 6.509
61.74000 1.195
61.76000 -0.457
61.78000 4.432
61.80000 5.954
61.82000 5.970
61.84000 1.582
61.86000 -2.616
61.88000 3.354
61.90000 3.989
61.92000 2.197
61.94000 -0.042
61.96000 -0.736
61.98000 0.470
62.00000 3.567
62.02000 0.931
62.04000 3.118
62.06000 0.711
62.08000 4.889
62.10000 6.495
62.12000 2.762
62.14000 0.130
62.16000 0.925
62.18000 1.625
62.20000 0.340
62.22000 3.716
62.24000 5.593
62.26000 4.010
62.28000 3.587
62.30000 0.544
62.32000 3.185
62.34000 4.698
62.36000 0.892
62.38000 0.332
62.40000 -2.585
62.42000 -0.138
62.44000 0.019
62.46000 -0.560
62.48000 -0.073
62.50000 -1.610
62.52000 -0.621
62.54000 3.046
62.56000 3.779
62.58000 3.592
62.60000 1.664
62.62000 2.516
62.64000 0.652
62.66000 4.279
62.68000 5.675
62.70000 3.416
62.72000 3.966
62.74000 2.506
62.76000 -2.567
62.78000 2.329
62.80000 6.634
62.82000 4.309
62.84000 0.235
62.86000 1.121
62.88000 1.262
62.90000 2.994
62.92000 2.460
62.94000 4.244
62.96000 0.635
62.98000 -2.563
63.00000 1.979
63.02000 5.412
63.04000 0.195
63.06000 0.170
63.08000 4.993
63.10000 4.468
63.12000 2.978
63.14000 4.058
63.16000 2.693
63.18000 -0.821
63.20000 0.762
63.22000 0.818
63.24000 -0.538
63.26000 1.819
63.28000 0.616
63.30000 5.005
63.32000 7.510
63.34000 6.687
63.36000 3.326
63.38000 2.711
63.40000 1.888
63.42000 -2.265
63.44000 -2.178
63.46000 -0.173
63.48000 0.081
63.50000 -0.033
63.52000 1.994
63.54000 2.999
63.56000 -0.496
63.58000 -0.699
63.60000 -0.549
63.62000 4.777
63.64000 2.558
63.66000 1.414
63.68000 2.103
63.70000 5.189
63.72000 5.698
63.74000 2.027
63.76000 3.957
63.78000 2.351
63.80000 0.438
63.82000 6.292
63.84000 2.496
63.86000 3.784
63.88000 1.347
63.90000 0.546
63.92000 4.602
63.94000 6.372
63.96000 -0.306
63.98000 3.753
64.00000 4.103
64.02000 5.247
64.04000 3.317
64.06000 2.546
64.08000 1.198
64.10000 1.846
64.12000 0.364
64.14000 4.095
64.16000 6.600
64.18000 3.608
64.20000 1.183
64.22000 2.182
64.24000 3.860
64.26000 3.885
64.28000 2.469
64.30000 3.888
64.32000 3.189
64.34000 5.086
64.36000 4.064
64.38000 4.059
64.40000 4.718
64.42000 10.877
64.44000 8.735
64.46000 5.563
64.48000 4.737
64.50000 5.070
64.52000 4.048
64.54000 6.472
64.56000 6.446
64.58000 1.990
64.60000 2.236
64.62000 4.543
64.64000 1.887
64.66000 3.898
64.68000 3.717
64.70000 4.346
64.72000 5.086
64.74000 -0.990
64.76000 -2.484
64.78000 4.112
64.80000 2.936
64.82000 6.293
64.84000 5.256
64.86000 5.630
64.88000 2.942
64.90000 5.081
64.92000 4.426
64.94000 3.459
64.96000 4.489
64.98000 6.606
65.00000 6.651
65.02000 1.739
65.04000 6.088
65.06000 6.963
65.08000 6.509
65.10000 7.128
65.12000 6.652
65.14000 4.773
65.16000 5.214
65.18000 3.962
65.20000 5.647
65.22000 8.476
65.24000 9.521
65.26000 4.939
65.28000 3.804
65.30000 3.727
65.32000 4.050
65.34000 4.684
65.36000 4.464
65.38000 1.226
65.40000 -0.258
65.42000 2.800
65.44000 4.319
65.46000 4.839
65.48000 6.453
65.50000 4.676
65.52000 5.625
65.54000 3.054
65.56000 2.285
65.58000 3.468
65.60000 1.110
65.62000 3.166
65.64000 1.609
65.66000 3.096
65.68000 1.647
65.70000 1.001
65.72000 3.240
65.74000 3.403
65.76000 1.231
65.78000 -0.126
65.80000 -0.591
65.82000 3.332
65.84000 6.746
65.86000 3.294
65.88000 -0.951
65.90000 4.807
65.92000 8.973
65.94000 5.538
65.96000 2.194
65.98000 3.781
66.00000 3.889
66.02000 2.784
66.04000 0.071
66.06000 2.365
66.08000 -1.204
66.10000 0.119
66.12000 0.753
66.14000 -1.982
66.16000 -0.773
66.18000 0.809
66.20000 -0.470
66.22000 -0.170
66.24000 2.790
66.26000 5.186
66.28000 5.043
66.30000 3.312
66.32000 1.328
66.34000 2.583
66.36000 3.601
66.38000 2.817
66.40000 3.173
66.42000 5.903
66.44000 6.679
66.46000 8.127
66.48000 4.236
66.50000 6.077
66.52000 8.787
66.54000 7.111
66.56000 5.301
66.58000 2.410
66.60000 0.149
66.62000 -0.812
66.64000 3.355
66.66000 0.984
66.68000 -2.488
66.70000 1.122
66.72000 5.833
66.74000 7.004
66.76000 5.697
66.78000 3.988
66.80000 3.357
66.82000 8.050
66.84000 6.879
66.86000 5.077
66.88000 1.983
66.90000 -1.389
66.92000 -2.153
66.94000 2.393
66.96000 4.852
66.98000 1.572
67.00000 1.021
67.02000 2.233
67.04000 3.356
67.06000 0.767
67.08000 3.672
67.10000 2.188
67.12000 0.015
67.14000 1.387
67.16000 1.104
67.18000 1.006
67.20000 3.404
67.22000 1.286
67.24000 2.462
67.26000 -0.797
67.28000 1.656
67.30000 1.595
67.32000 1.715
67.34000 3.970
67.36000 1.986
67.38000 1.699
67.40000 0.244
67.42000 -0.367
67.44000 -1.846
67.46000 -0.892
67.48000 3.809
67.50000 3.786
67.52000 2.052
67.54000 -2.551
67.56000 0.312
67.58000 2.085
67.60000 2.369
67.62000 4.632
67.64000 5.530
67.66000 1.303
67.68000 2.085
67.70000 2.064
67.72000 -1.607
67.74000 -1.396
67.76000 2.990
67.78000 1.931
67.80000 5.376
67.82000 5.013
67.84000 2.545
67.86000 2.139
67.88000 0.710
67.90000 2.000
67.92000 -1.092
67.94000 -0.423
67.96000 1.188
67.98000 0.615
68.00000 3.114
68.02000 1.406
68.04000 3.683
68.06000 3.966
68.08000 4.541
68.10000 5.929
68.12000 5.636
68.14000 3.126
68.16000 7.780
68.18000 10.471
68.20000 8.237
68.22000 6.454
68.24000 5.195
68.26000 4.426
68.28000 8.386
68.30000 5.429
68.32000 5.021
68.34000 8.638
68.36000 9.128
68.38000 7.262
68.40000 4.628
68.42000 4.373
68.44000 7.254
68.46000 8.059
68.48000 11.406
68.50000 11.814
68.52000 9.458
68.54000 9.877
68.56000 9.246
68.58000 10.960
68.60000 13.929
68.62000 12.452
68.64000 12.260
68.66000 12.279
68.68000 14.148
68.70000 13.905
68.72000 13.829
68.74000 16.476
68.76000 14.610
68.78000 14.372
68.80000 16.462
68.82000 18.073
68.84000 18.244
68.86000 20.179
68.88000 15.861
68.90000 18.357
68.92000 19.618
68.94000 17.965
68.96000 16.851
68.98000 19.417
69.00000 22.900
69.02000 22.110
69.04000 19.756
69.06000 21.529
69.08000 25.255
69.10000 25.359
69.12000 21.533
69.14000 21.736
69.16000 21.506
69.18000 22.987
69.20000 24.224
69.22000 24.722
69.24000 23.563
69.26000 21.963
69.28000 21.582
69.30000 17.950
69.32000 15.609
69.34000 12.905
69.36000 15.090
69.38000 18.348
69.40000 18.947
69.42000 18.243
69.44000 18.960
69.46000 18.422
69.48000 15.471
69.50000 17.920
69.52000 16.208
69.54000 17.907
69.56000 17.681
69.58000 18.203
69.60000 13.433
69.62000 13.161
69.64000 13.376
69.66000 16.544
69.68000 15.519
69.70000 16.229
69.72000 11.191
69.74000 9.289
69.76000 9.038
69.78000 12.856
69.80000 8.544
69.82000 9.631
69.84000 9.247
69.86000 9.894
69.88000 12.896
69.90000 11.586
69.92000 7.321
69.94000 5.818
69.96000 8.147
69.98000 7.386
70.00000 8.427
70.02000 4.976
70.04000 2.255
70.06000 2.516
70.08000 0.593
70.10000 4.569
70.12000 4.656
70.14000 6.790
70.16000 6.449
70.18000 6.146
70.20000 2.647
70.22000 1.819
70.24000 5.185
70.26000 5.439
70.28000 1.473
70.30000 1.048
70.32000 1.853
70.34000 3.956
70.36000 1.080
70.38000 0.457
70.40000 2.216
70.42000 4.481
70.44000 4.131
70.46000 4.137
70.48000 3.890
70.50000 7.154
70.52000 5.931
70.54000 3.429
70.56000 3.274
70.58000 2.506
70.60000 0.211
70.62000 -0.559
70.64000 3.771
70.66000 3.759
70.68000 1.120
70.70000 0.627
70.72000 3.026
70.74000 3.006
70.76000 3.456
70.78000 2.307
70.80000 2.839
70.82000 2.446
70.84000 0.907
70.86000 2.710
70.88000 0.638
70.90000 0.201
70.92000 0.265
70.94000 3.937
70.96000 7.019
70.98000 5.630
71.00000 -0.323
71.02000 -2.363
71.04000 0.908
71.06000 4.230
71.08000 1.830
71.10000 -0.129
71.12000 0.137
71.14000 2.785
71.16000 4.017
71.18000 3.586
71.20000 0.189
71.22000 -2.340
71.24000 -1.429
71.26000 2.251
71.28000 4.933
71.30000 5.186
71.32000 3.612
71.34000 3.864
71.36000 -1.578
71.38000 0.867
71.40000 4.837
71.42000 1.632
71.44000 2.252
71.46000 5.175
71.48000 6.089
71.50000 4.189
71.52000 -0.075
71.54000 0.811
71.56000 -1.313
71.58000 -1.563
71.60000 0.311
71.62000 4.031
71.64000 4.407
71.66000 1.192
71.68000 1.354
71.70000 -1.288
71.72000 0.256
71.74000 0.986
71.76000 2.455
71.78000 0.612
71.80000 -2.281
71.82000 1.709
71.84000 0.974
71.86000 -0.181
71.88000 -0.107
71.90000 0.468
71.92000 1.176
71.94000 4.982
71.96000 -0.160
71.98000 -1.848
72.00000 0.121
72.02000 -0.328
72.04000 1.441
72.06000 0.449
72.08000 4.721
72.10000 2.425
72.12000 0.541
72.14000 0.581
72.16000 -1.596
72.18000 0.101
72.20000 2.650
72.22000 1.310
72.24000 0.755
72.26000 0.325
72.28000 0.057
72.30000 4.484
72.32000 4.482
72.34000 3.536
72.36000 4.778
72.38000 3.760
72.40000 1.245
72.42000 1.243
72.44000 5.453
72.46000 4.774
72.48000 1.577
72.50000 0.257
72.52000 -0.120
72.54000 2.217
72.56000 3.831
72.58000 3.315
72.60000 -0.905
72.62000 2.463
72.64000 3.300
72.66000 2.439
72.68000 2.314
72.70000 1.675
72.72000 5.025
72.74000 2.449
72.76000 4.950
72.78000 2.730
72.80000 0.466
72.82000 3.098
72.84000 2.185
72.86000 3.091
72.88000 4.050
72.90000 2.478
72.92000 1.056
72.94000 -0.774
72.96000 0.040
72.98000 0.308
73.00000 2.308
73.02000 3.703
73.04000 -0.955
73.06000 1.156
73.08000 4.929
73.10000 7.822
73.12000 6.561
73.14000 1.479
73.16000 -2.202
73.18000 1.423
73.20000 3.760
73.22000 7.813
73.24000 8.021
73.26000 5.825
73.28000 2.528
73.30000 3.648
73.32000 3.795
73.34000 4.870
73.36000 2.403
73.38000 3.343
73.40000 4.913
73.42000 6.629
73.44000 5.607
73.46000 4.762
73.48000 4.783
73.50000 4.559
73.52000 3.359
73.54000 0.551
73.56000 0.700
73.58000 4.189
73.60000 2.374
73.62000 3.129
73.64000 1.165
73.66000 -2.099
73.68000 -1.602
73.70000 2.160
73.72000 0.810
73.74000 1.799
73.76000 2.895
73.78000 3.241
73.80000 1.867
73.82000 0.855
73.84000 1.121
73.86000 1.291
73.88000 -0.289
73.90000 1.100
73.92000 -1.405
73.94000 0.539
73.96000 0.548
73.98000 1.985
74.00000 1.399
74.02000 2.626
74.04000 2.222
74.06000 2.099
74.08000 2.157
74.10000 1.226
74.12000 3.156
74.14000 6.986
74.16000 4.721
74.18000 1.512
74.20000 2.419
74.22000 3.529
74.24000 3.252
74.26000 -0.631
74.28000 0.850
74.30000 1.294
74.32000 3.755
74.34000 6.714
74.36000 2.379
74.38000 1.346
74.40000 -0.494
74.42000 4.196
74.44000 5.976
74.46000 5.402
74.48000 3.359
74.50000 1.806
74.52000 1.286
74.54000 1.623
74.56000 0.422
74.58000 5.111
74.60000 6.706
74.62000 2.205
74.64000 0.500
74.66000 2.351
74.68000 0.186
74.70000 1.368
74.72000 5.682
74.74000 4.909
74.76000 4.097
74.78000 1.373
74.80000 0.592
74.82000 4.126
74.84000 3.144
74.86000 5.050
74.88000 2.448
74.90000 0.478
74.92000 -0.749
74.94000 -2.162
74.96000 0.000
74.98000 -1.108
75.00000 3.583
75.02000 7.067
75.04000 5.816
75.06000 4.258
75.08000 2.071
75.10000 3.870
75.12000 2.716
75.14000 2.159
75.16000 -1.575
75.18000 3.674
75.20000 4.009
75.22000 5.455
75.24000 6.523
75.26000 6.399
75.28000 3.308
75.30000 2.721
75.32000 -0.535
75.34000 5.072
75.36000 5.290
75.38000 3.830
75.40000 4.799
75.42000 4.208
75.44000 0.283
75.46000 2.350
75.48000 4.219
75.50000 1.564
75.52000 3.558
75.54000 1.469
75.56000 3.346
75.58000 3.169
75.60000 3.513
75.62000 1.656
75.64000 2.194
75.66000 3.570
75.68000 4.984
75.70000 2.718
75.72000 6.454
75.74000 2.897
75.76000 0.418
75.78000 3.305
75.80000 4.478
75.82000 4.785
75.84000 4.616
75.86000 3.040
75.88000 0.788
75.90000 4.729
75.92000 5.511
75.94000 3.154
75.96000 2.687
75.98000 0.950
76.00000 -0.958
76.02000 0.475
76.04000 -1.048
76.06000 -2.177
76.08000 0.651
76.10000 4.627
76.12000 6.510
76.14000 5.536
76.16000 4.283
76.18000 7.393
76.20000 4.209
76.22000 1.540
76.24000 4.049
76.26000 4.241
76.28000 3.255
76.30000 3.042
76.32000 0.132
76.34000 1.014
76.36000 3.314
76.38000 5.367
76.40000 8.147
76.42000 7.192
76.44000 3.987
76.46000 3.842
76.48000 4.762
76.50000 5.736
76.52000 6.304
76.54000 4.734
76.56000 3.567
76.58000 2.330
76.60000 1.937
76.62000 6.748
76.64000 9.290
76.66000 4.983
76.68000 2.522
76.70000 -1.134
76.72000 1.104
76.74000 1.078
76.76000 3.498
76.78000 5.317
76.80000 6.476
76.82000 9.311
76.84000 7.716
76.86000 10.069
76.88000 4.312
76.90000 0.202
76.92000 2.588
76.94000 3.968
76.96000 -2.147
76.98000 2.753
77.00000 6.849
77.02000 6.657
77.04000 4.372
77.06000 5.750
77.08000 4.660
77.10000 1.406
77.12000 2.163
77.14000 4.479
77.16000 4.423
77.18000 3.965
77.20000 6.379
77.22000 3.758
77.24000 0.429
77.26000 2.006
77.28000 3.047
77.30000 2.079
77.32000 2.908
77.34000 5.423
77.36000 3.285
77.38000 3.203
77.40000 8.466
77.42000 8.378
77.44000 4.957
77.46000 3.918
77.48000 5.514
77.50000 3.586
77.52000 -1.684
77.54000 1.175
77.56000 4.719
77.58000 7.599
77.60000 1.729
77.62000 -1.641
77.64000 0.921
77.66000 1.063
77.68000 1.551
77.70000 3.004
77.72000 2.937
77.74000 5.440
77.76000 7.289
77.78000 6.663
77.80000 4.432
77.82000 5.063
77.84000 2.058
77.86000 5.527
77.88000 5.009
77.90000 4.452
77.92000 3.812
77.94000 3.128
77.96000 3.275
77.98000 2.371
78.00000 4.711
78.02000 7.169
78.04000 8.223
78.06000 8.191
78.08000 6.347
78.10000 4.067
78.12000 3.753
78.14000 4.391
78.16000 4.202
78.18000 3.315
78.20000 2.061
78.22000 -2.180
78.24000 1.789
78.26000 8.404
78.28000 4.058
78.30000 4.369
78.32000 6.768
78.34000 9.420
78.36000 9.259
78.38000 4.390
78.40000 6.400
78.42000 3.566
78.44000 2.090
78.46000 2.724
78.48000 6.052
78.50000 5.891
78.52000 2.645
78.54000 4.743
78.56000 2.719
78.58000 2.842
78.60000 2.496
78.62000 6.337
78.64000 6.658
78.66000 7.378
78.68000 4.518
78.70000 1.006
78.72000 2.368
78.74000 5.163
78.76000 4.346
78.78000 3.325
78.80000 3.860
78.82000 2.585
78.84000 4.812
78.86000 0.407
78.88000 -0.132
78.90000 0.479
78.92000 1.816
78.94000 1.762
78.96000 3.633
78.98000 2.044
79.00000 -2.201
79.02000 -0.888
79.04000 4.663
79.06000 4.647
79.08000 0.398
79.10000 1.644
79.12000 0.433
79.14000 4.249
79.16000 2.583
79.18000 10.457
79.20000 7.646
79.22000 3.678
79.24000 5.598
79.26000 5.585
79.28000 5.445
79.30000 5.073
79.32000 1.609
79.34000 1.944
79.36000 2.780
79.38000 2.169
79.40000 1.424
79.42000 0.694
79.44000 0.174
79.46000 1.606
79.48000 4.525
79.50000 6.232
79.52000 3.555
79.54000 4.467
79.56000 7.554
79.58000 4.848
79.60000 4.654
79.62000 5.448
79.64000 3.224
79.66000 1.284
79.68000 5.001
79.70000 6.398
79.72000 3.563
79.74000 0.770
79.76000 3.375
79.78000 5.025
79.80000 2.697
79.82000 -0.135
79.84000 6.026
79.86000 8.434
79.88000 5.692
79.90000 -0.070
79.92000 1.323
79.94000 6.817
79.96000 6.377
79.98000 6.465
80.00000 2.701
80.02000 2.219
80.04000 4.761
80.06000 1.638
80.08000 0.660
80.10000 1.087
80.12000 4.735
80.14000 6.241
80.16000 5.638
80.18000 3.701
80.20000 3.481
80.22000 6.080
80.24000 5.990
80.26000 6.795
80.28000 -0.185
80.30000 -2.250
80.32000 -0.292
80.34000 2.735
80.36000 0.965
80.38000 -0.211
80.40000 0.984
80.42000 4.164
80.44000 2.757
80.46000 2.391
80.48000 5.593
80.50000 5.061
80.52000 5.124
80.54000 2.745
80.56000 4.181
80.58000 -0.848
80.60000 1.904
80.62000 2.123
80.64000 5.548
80.66000 6.824
80.68000 7.601
80.70000 -0.701
80.72000 -1.507
80.74000 0.052
80.76000 1.870
80.78000 4.310
80.80000 5.243
80.82000 1.625
80.84000 3.543
80.86000 4.174
80.88000 2.144
80.90000 -0.488
80.92000 2.697
80.94000 3.181
80.96000 2.192
80.98000 -0.552
81.00000 -0.486
81.02000 2.007
81.04000 4.382
81.06000 4.489
81.08000 1.157
81.10000 3.619
81.12000 4.719
81.14000 7.207
81.16000 9.122
81.18000 5.170
81.20000 0.247
81.22000 -2.291
81.24000 2.238
81.26000 -0.099
81.28000 4.000
81.30000 5.444
81.32000 4.708
81.34000 4.351
81.36000 5.888
81.38000 6.279
81.40000 7.459
81.42000 4.972
81.44000 1.764
81.46000 3.511
81.48000 3.242
81.50000 -0.735
81.52000 1.856
81.54000 2.629
81.56000 4.302
81.58000 6.059
81.60000 5.195
81.62000 4.767
81.64000 6.695
81.66000 0.739
81.68000 -0.300
81.70000 -0.026
81.72000 2.208
81.74000 2.293
81.76000 2.038
81.78000 2.426
81.80000 -0.173
81.82000 -0.799
81.84000 2.517
81.86000 4.420
81.88000 8.232
81.90000 0.977
81.92000 0.847
81.94000 2.551
81.96000 6.836
81.98000 7.730
82.00000 4.657
82.02000 4.028
82.04000 3.548
82.06000 5.659
82.08000 3.364
82.10000 5.247
82.12000 3.546
82.14000 3.416
82.16000 -1.510
82.18000 0.425
82.20000 3.882
82.22000 -1.686
82.24000 -2.033
82.26000 1.917
82.28000 4.800
82.30000 4.530
82.32000 7.219
82.34000 6.657
82.36000 6.945
82.38000 7.990
82.40000 5.799
82.42000 9.012
82.44000 3.686
82.46000 3.208
82.48000 4.128
82.50000 4.957
82.52000 8.335
82.54000 8.585
82.56000 10.728
82.58000 6.296
82.60000 4.809
82.62000 5.774
82.64000 5.045
82.66000 6.414
82.68000 9.231
82.70000 5.760
82.72000 5.085
82.74000 5.118
82.76000 7.295
82.78000 11.939
82.80000 10.464
82.82000 8.100
82.84000 10.098
82.86000 11.917
82.88000 11.656
82.90000 7.267
82.92000 9.686
82.94000 9.188
82.96000 10.273
82.98000 10.391
83.00000 16.174
83.02000 18.686
83.04000 14.989
83.06000 12.066
83.08000 11.786
83.10000 13.505
83.12000 10.600
83.14000 15.148
83.16000 16.355
83.18000 13.516
83.20000 18.191
83.22000 21.042
83.24000 17.969
83.26000 16.014
83.28000 17.292
83.30000 15.724
83.32000 22.656
83.34000 16.260
83.36000 14.533
83.38000 17.665
83.40000 19.733
83.42000 21.938
83.44000 20.799
83.46000 18.530
83.48000 20.921
83.50000 20.771
83.52000 19.620
83.54000 20.320
83.56000 17.736
83.58000 18.636
83.60000 22.561
83.62000 22.391
83.64000 13.545
83.66000 10.777
83.68000 16.795
83.70000 18.571
83.72000 15.190
83.74000 16.549
83.76000 16.247
83.78000 16.408
83.80000 18.875
83.82000 17.958
83.84000 20.974
83.86000 24.229
83.88000 17.522
83.90000 17.064
83.92000 16.089
83.94000 15.884
83.96000 17.951
83.98000 18.492
84.00000 21.203
84.02000 18.998
84.04000 17.589
84.06000 16.040
84.08000 16.476
84.10000 14.357
84.12000 16.240
84.14000 14.297
84.16000 10.150
84.18000 9.654
84.20000 14.829
84.22000 14.062
84.24000 14.158
84.26000 10.317
84.28000 4.626
84.30000 7.445
84.32000 10.283
84.34000 12.176
84.36000 10.996
84.38000 6.457
84.40000 2.351
84.42000 5.097
84.44000 8.407
84.46000 8.365
84.48000 5.980
84.50000 7.165
84.52000 10.389
84.54000 11.969
84.56000 8.555
84.58000 8.345
84.60000 10.115
84.62000 8.961
84.64000 7.106
84.66000 6.547
84.68000 7.634
84.70000 9.395
84.72000 7.552
84.74000 7.643
84.76000 7.937
84.78000 3.600
84.80000 0.998
84.82000 3.324
84.84000 6.207
84.86000 3.911
84.88000 1.598
84.90000 5.788
84.92000 5.240
84.94000 6.984
84.96000 2.891
84.98000 0.627
85.00000 2.509
85.02000 4.054
85.04000 5.607
85.06000 4.444
85.08000 4.568
85.10000 2.290
85.12000 3.656
85.14000 6.447
85.16000 3.766
85.18000 4.734
85.20000 -2.336
85.22000 2.172
85.24000 5.698
85.26000 2.795
85.28000 0.196
85.30000 2.481
85.32000 4.278
85.34000 1.526
85.36000 -0.940
85.38000 -1.008
85.40000 -1.525
85.42000 3.370
85.44000 4.961
85.46000 4.693
85.48000 2.645
85.50000 0.331
85.52000 -2.316
85.54000 0.323
85.56000 4.758
85.58000 5.015
85.60000 -1.329
85.62000 1.996
85.64000 1.834
85.66000 1.004
85.68000 3.284
85.70000 3.532
85.72000 0.644
85.74000 1.156
85.76000 1.854
85.78000 -0.274
85.80000 0.896
85.82000 -0.262
85.84000 -2.248
85.86000 -0.608
85.88000 -1.943
85.90000 -2.249
85.92000 -1.203
85.94000 0.639
85.96000 3.594
85.98000 4.290
86.00000 2.123
86.02000 1.325
86.04000 -2.300
86.06000 -1.244
86.08000 2.658
86.10000 -0.354
86.12000 -1.630
86.14000 -0.718
86.16000 2.741
86.18000 0.918
86.20000 1.634
86.22000 0.235
86.24000 -2.197
86.26000 -2.293
86.28000 -2.191
86.30000 2.087
86.32000 1.331
86.34000 1.592
86.36000 2.716
86.38000 -0.332
86.40000 -1.126
86.42000 1.659
86.44000 1.101
86.46000 3.237
86.48000 5.474
86.50000 -1.173
86.52000 -2.314
86.54000 -1.971
86.56000 1.031
86.58000 3.119
86.60000 4.257
86.62000 2.210
86.64000 3.139
86.66000 0.617
86.68000 0.569
86.70000 2.725
86.72000 0.305
86.74000 2.447
86.76000 2.176
86.78000 -0.825
86.80000 -2.185
86.82000 -2.013
86.84000 2.349
86.86000 4.237
86.88000 6.373
86.90000 6.778
86.92000 4.405
86.94000 0.451
86.96000 0.232
86.98000 6.662
87.00000 5.688
87.02000 1.145
87.04000 2.062
87.06000 2.438
87.08000 5.685
87.10000 5.748
87.12000 5.130
87.14000 5.462
87.16000 1.834
87.18000 3.437
87.20000 3.272
87.22000 5.198
87.24000 4.740
87.26000 6.731
87.28000 7.082
87.30000 3.517
87.32000 4.974
87.34000 7.456
87.36000 7.204
87.38000 6.064
87.40000 5.307
87.42000 7.729
87.44000 12.296
87.46000 6.929
87.48000 2.500
87.50000 7.138
87.52000 13.800
87.54000 7.942
87.56000 8.410
87.58000 8.614
87.60000 7.425
87.62000 8.334
87.64000 9.676
87.66000 7.762
87.68000 10.017
87.70000 12.016
87.72000 15.887
87.74000 9.559
87.76000 11.244
87.78000 15.052
87.80000 11.198
87.82000 16.156
87.84000 17.233
87.86000 17.977
87.88000 17.847
87.90000 16.514
87.92000 13.107
87.94000 13.369
87.96000 16.115
87.98000 13.408
88.00000 12.184
88.02000 16.390
88.04000 20.374
88.06000 18.525
88.08000 11.884
88.10000 14.154
88.12000 15.802
88.14000 16.778
88.16000 19.499
88.18000 18.432
88.20000 17.036
88.22000 17.869
88.24000 12.261
88.26000 15.098
88.28000 16.989
88.30000 12.865
88.32000 12.533
88.34000 13.626
88.36000 14.849
88.38000 11.510
88.40000 10.796
88.42000 9.657
88.44000 11.294
88.46000 15.056
88.48000 15.893
88.50000 17.671
88.52000 16.667
88.54000 14.319
88.56000 12.986
88.58000 14.942
88.60000 16.502
88.62000 17.503
88.64000 11.471
88.66000 13.478
88.68000 15.652
88.70000 11.117
88.72000 8.116
88.74000 7.046
88.76000 10.184
88.78000 11.759
88.80000 8.186
88.82000 7.527
88.84000 8.399
88.86000 12.908
88.88000 12.502
88.90000 11.682
88.92000 6.359
88.94000 4.713
88.96000 6.493
88.98000 8.545
89.00000 9.932
89.02000 12.002
89.04000 10.069
89.06000 5.965
89.08000 7.250
89.10000 8.148
89.12000 4.202
89.14000 8.097
89.16000 5.770
89.18000 7.386
89.20000 2.856
89.22000 2.549
89.24000 1.074
89.26000 5.119
89.28000 4.024
89.30000 2.509
89.32000 4.022
89.34000 6.282
89.36000 5.265
89.38000 2.380
89.40000 -0.171
89.42000 0.075
89.44000 3.047
89.46000 6.253
89.48000 4.665
89.50000 3.510
89.52000 8.017
89.54000 4.846
89.56000 3.052
89.58000 6.006
89.60000 7.935
89.62000 5.086
89.64000 -0.735
89.66000 -2.220
89.68000 -0.033
89.70000 -0.898
89.72000 0.832
89.74000 2.244
89.76000 4.731
89.78000 1.864
89.80000 5.933
89.82000 1.916
89.84000 1.217
89.86000 2.273
89.88000 2.840
89.90000 7.028
89.92000 7.515
89.94000 2.427
89.96000 -1.863
89.98000 -1.151
90.00000 3.319
90.02000 4.012
90.04000 0.287
90.06000 1.204
90.08000 4.417
90.10000 0.530
90.12000 4.009
90.14000 9.525
90.16000 6.428
90.18000 2.022
90.20000 2.578
90.22000 3.251
90.24000 3.987
90.26000 3.094
90.28000 5.833
90.30000 8.197
90.32000 2.109
90.34000 4.752
90.36000 5.397
90.38000 -2.090
90.40000 -1.919
90.42000 -1.543
90.44000 -0.450
90.46000 -0.310
90.48000 4.255
90.50000 3.242
90.52000 4.606
90.54000 7.689
90.56000 7.153
90.58000 5.399
90.60000 4.585
90.62000 5.798
90.64000 3.945
90.66000 1.365
90.68000 1.904
90.70000 -0.210
90.72000 3.033
90.74000 0.647
90.76000 5.972
90.78000 8.273
90.80000 4.887
90.82000 1.141
90.84000 3.379
90.86000 6.640
90.88000 1.676
90.90000 0.319
90.92000 0.169
90.94000 1.457
90.96000 2.745
90.98000 1.216
91.00000 2.494
91.02000 2.545
91.04000 -0.310
91.06000 2.627
91.08000 1.888
91.10000 -0.138
91.12000 -0.329
91.14000 -1.132
91.16000 -1.581
91.18000 1.809
91.20000 2.720
91.22000 4.587
91.24000 2.855
91.26000 0.952
91.28000 4.684
91.30000 3.168
91.32000 -2.111
91.34000 0.821
91.36000 2.990
91.38000 2.669
91.40000 5.292
91.42000 3.480
91.44000 3.516
91.46000 3.248
91.48000 0.434
91.50000 1.109
91.52000 1.810
91.54000 5.132
91.56000 4.918
91.58000 6.319
91.60000 5.505
91.62000 4.655
91.64000 4.682
91.66000 4.934
91.68000 3.003
91.70000 2.326
91.72000 4.035
91.74000 -0.470
91.76000 -0.453
91.78000 1.985
91.80000 1.359
91.82000 -0.687
91.84000 -0.056
91.86000 0.885
91.88000 0.627
91.90000 0.889
91.92000 -0.324
91.94000 -0.973
91.96000 -2.103
91.98000 2.781
92.00000 4.639
92.02000 3.969
92.04000 3.922
92.06000 2.739
92.08000 1.295
92.10000 3.540
92.12000 5.457
92.14000 3.329
92.16000 4.017
92.18000 2.835
92.20000 0.111
92.22000 -2.103
92.24000 -0.929
92.26000 4.262
92.28000 3.314
92.30000 2.195
92.32000 -0.187
92.34000 -0.320
92.36000 3.205
92.38000 4.969
92.40000 2.659
92.42000 -1.325
92.44000 -0.188
92.46000 -2.111
92.48000 1.958
92.50000 2.617
92.52000 1.433
92.54000 0.367
92.56000 3.559
92.58000 4.655
92.60000 5.189
92.62000 3.557
92.64000 2.664
92.66000 2.097
92.68000 0.914
92.70000 1.956
92.72000 0.174
92.74000 0.354
92.76000 2.650
92.78000 1.795
92.80000 1.620
92.82000 3.917
92.84000 0.614
92.86000 -1.539
92.88000 3.193
92.90000 3.927
92.92000 6.928
92.94000 3.908
92.96000 3.048
92.98000 2.576
93.00000 3.204
93.02000 3.808
93.04000 0.439
93.06000 0.648
93.08000 2.813
93.10000 1.746
93.12000 -0.866
93.14000 -1.762
93.16000 -0.542
93.18000 0.106
93.20000 2.357
93.22000 -0.007
93.24000 0.252
93.26000 1.449
93.28000 0.524
93.30000 1.417
93.32000 3.358
93.34000 1.331
93.36000 7.390
93.38000 1.546
93.40000 -1.263
93.42000 -2.042
93.44000 2.025
93.46000 5.988
93.48000 6.143
93.50000 2.688
93.52000 0.280
93.54000 -0.347
93.56000 3.991
93.58000 0.093
93.60000 -2.123
93.62000 0.342
93.64000 2.634
93.66000 0.520
93.68000 -0.333
93.70000 0.121
93.72000 2.288
93.74000 4.024
93.76000 5.306
93.78000 3.679
93.80000 3.397
93.82000 4.641
93.84000 2.778
93.86000 0.065
93.88000 -0.096
93.90000 0.499
93.92000 1.643
93.94000 -0.759
93.96000 0.419
93.98000 2.866
94.00000 2.620
94.02000 1.656
94.04000 -1.925
94.06000 4.328
94.08000 3.997
94.10000 5.048
94.12000 5.476
94.14000 1.957
94.16000 -0.651
94.18000 2.764
94.20000 5.567
94.22000 5.691
94.24000 7.186
94.26000 0.284
94.28000 2.253
94.30000 0.404
94.32000 1.613
94.34000 4.781
94.36000 1.489
94.38000 1.794
94.40000 8.461
94.42000 7.087
94.44000 0.077
94.46000 1.218
94.48000 4.831
94.50000 4.598
94.52000 1.280
94.54000 -1.266
94.56000 0.607
94.58000 3.910
94.60000 1.483
94.62000 5.689
94.64000 11.012
94.66000 4.668
94.68000 3.527
94.70000 5.414
94.72000 6.287
94.74000 7.205
94.76000 1.565
94.78000 -1.276
94.80000 -2.085
94.82000 5.203
94.84000 6.146
94.86000 0.981
94.88000 3.650
94.90000 3.739
94.92000 4.214
94.94000 5.511
94.96000 4.669
94.98000 5.333
95.00000 4.823
95.02000 6.921
95.04000 4.653
95.06000 1.001
95.08000 -2.081
95.10000 1.048
95.12000 5.025
95.14000 8.903
95.16000 7.507
95.18000 4.449
95.20000 8.592
95.22000 3.728
95.24000 -1.046
95.26000 1.655
95.28000 3.790
95.30000 6.036
95.32000 4.370
95.34000 6.876
95.36000 9.339
95.38000 6.249
95.40000 3.435
95.42000 4.314
95.44000 5.882
95.46000 12.377
95.48000 8.277
95.50000 5.500
95.52000 3.000
95.54000 -2.061
95.56000 1.355
95.58000 3.979
95.60000 7.202
95.62000 2.181
95.64000 3.158
95.66000 5.110
95.68000 4.361
95.70000 3.812
95.72000 5.369
95.74000 8.786
95.76000 6.517
95.78000 6.060
95.80000 1.541
95.82000 3.286
95.84000 2.725
95.86000 0.107
95.88000 -1.266
95.90000 3.939
95.92000 4.395
95.94000 4.293
95.96000 3.862
95.98000 2.182
96.00000 1.456
96.02000 3.516
96.04000 7.519
96.06000 5.855
96.08000 6.517
96.10000 2.621
96.12000 -0.587
96.14000 0.888
96.16000 5.325
96.18000 5.963
96.20000 6.502
96.22000 4.312
96.24000 1.317
96.26000 0.752
96.28000 5.382
96.30000 -1.127
96.32000 0.194
96.34000 0.129
96.36000 1.533
96.38000 2.718
96.40000 8.754
96.42000 5.730
96.44000 2.847
96.46000 5.039
96.48000 3.885
96.50000 0.050
96.52000 -2.081
96.54000 3.124
96.56000 7.982
96.58000 6.340
96.60000 7.568
96.62000 3.610
96.64000 4.814
96.66000 5.749
96.68000 4.193
96.70000 6.094
96.72000 11.521
96.74000 9.059
96.76000 8.047
96.78000 4.421
96.80000 4.884
96.82000 0.540
96.84000 2.538
96.86000 5.323
96.88000 2.375
96.90000 1.542
96.92000 4.718
96.94000 3.906
96.96000 4.633
96.98000 -1.526
97.00000 -1.338
97.02000 2.187
97.04000 6.619
97.06000 4.364
97.08000 2.277
97.10000 -0.097
97.12000 0.822
97.14000 -1.451
97.16000 0.188
97.18000 4.898
97.20000 1.123
97.22000 0.131
97.24000 4.244
97.26000 -1.938
97.28000 1.074
97.30000 6.814
97.32000 2.483
97.34000 2.214
97.36000 3.513
97.38000 6.176
97.40000 6.459
97.42000 4.278
97.44000 3.316
97.46000 -0.886
97.48000 -1.865
97.50000 2.745
97.52000 9.348
97.54000 4.866
97.56000 5.198
97.58000 1.265
97.60000 -1.156
97.62000 -0.533
97.64000 1.110
97.66000 1.570
97.68000 0.541
97.70000 -1.460
97.72000 2.614
97.74000 1.165
97.76000 -1.137
97.78000 9.952
97.80000 7.303
97.82000 5.039
97.84000 9.064
97.86000 6.538
97.88000 6.411
97.90000 -1.984
97.92000 4.122
97.94000 0.516
97.96000 1.948
97.98000 2.282
98.00000 5.032
98.02000 7.891
98.04000 0.565
98.06000 1.278
98.08000 3.175
98.10000 2.350
98.12000 2.494
98.14000 0.847
98.16000 5.809
98.18000 4.580
98.20000 3.501
98.22000 2.376
98.24000 0.585
98.26000 1.004
98.28000 5.228
98.30000 9.580
98.32000 6.846
98.34000 3.982
98.36000 5.658
98.38000 3.424
98.40000 0.238
98.42000 2.173
98.44000 2.829
98.46000 2.220
98.48000 2.329
98.50000 5.309
98.52000 10.559
98.54000 13.614
98.56000 11.680
98.58000 3.712
98.60000 -1.012
98.62000 5.223
98.64000 8.534
98.66000 9.823
98.68000 12.278
98.70000 2.381
98.72000 -1.974
98.74000 2.185
98.76000 7.379
98.78000 11.294
98.80000 8.523
98.82000 8.148
98.84000 9.975
98.86000 2.401
98.88000 1.364
98.90000 3.350
98.92000 5.613
98.94000 6.899
98.96000 7.948
98.98000 7.083
99.00000 6.626
99.02000 12.201
99.04000 7.881
99.06000 6.589
99.08000 0.572
99.10000 -0.011
99.12000 3.236
99.14000 6.260
99.16000 5.243
99.18000 3.238
99.20000 7.008
99.22000 4.030
99.24000 4.109
99.26000 -2.003
99.28000 -0.910
99.30000 0.424
99.32000 2.454
99.34000 3.229
99.36000 -0.352
99.38000 -0.754
99.40000 0.397
99.42000 -2.064
99.44000 1.894
99.46000 6.096
99.48000 2.801
99.50000 4.452
99.52000 3.620
99.54000 1.256
99.56000 3.892
99.58000 0.389
99.60000 3.821
99.62000 6.961
99.64000 3.379
99.66000 5.277
99.68000 3.904
99.70000 2.453
99.72000 2.424
99.74000 2.241
99.76000 5.946
99.78000 1.769
99.80000 5.109
99.82000 12.377
99.84000 2.652
99.86000 2.132
99.88000 7.781
99.90000 0.577
99.92000 -0.816
99.94000 3.539
99.96000 -2.130
99.98000 0.000
