'Id: "0011388" Comment: "Integrate frame 0011388_Au-Ir-Rh_Rh-rich_XRD-Mapping-276-0000.gfrmwith cursor Wedge Cursor #5" Operator: "B?rgel" Anode: "Cu" Wavelength: "1.5406" Scantype: "2Theta (TwoTheta)" TimePerStep: "1" X: "31.5" Y: "22.5" Z: "5.95" 
10.00000 0.000
10.02000 7.691
10.04000 5.031
10.06000 1.825
10.08000 14.965
10.10000 10.862
10.12000 5.041
10.14000 -4.013
10.16000 8.816
10.18000 18.626
10.20000 22.071
10.22000 24.869
10.24000 25.932
10.26000 15.443
10.28000 12.231
10.30000 25.137
10.32000 28.468
10.34000 17.235
10.36000 13.748
10.38000 22.853
10.40000 23.941
10.42000 25.593
10.44000 22.079
10.46000 21.285
10.48000 18.431
10.50000 24.387
10.52000 4.352
10.54000 11.434
10.56000 0.097
10.58000 10.109
10.60000 23.056
10.62000 39.070
10.64000 28.106
10.66000 19.035
10.68000 31.767
10.70000 20.995
10.72000 16.334
10.74000 26.544
10.76000 24.086
10.78000 13.918
10.80000 22.892
10.82000 25.074
10.84000 20.556
10.86000 28.948
10.88000 27.094
10.90000 37.539
10.92000 13.256
10.94000 16.668
10.96000 32.594
10.98000 14.571
11.00000 21.862
11.02000 25.045
11.04000 20.292
11.06000 21.131
11.08000 25.669
11.10000 35.046
11.12000 34.572
11.14000 28.175
11.16000 24.111
11.18000 22.035
11.20000 21.171
11.22000 16.822
11.24000 29.195
11.26000 28.279
11.28000 23.100
11.30000 23.323
11.32000 29.662
11.34000 26.329
11.36000 30.559
11.38000 35.309
11.40000 24.507
11.42000 22.333
11.44000 28.632
11.46000 18.663
11.48000 22.251
11.50000 28.851
11.52000 37.114
11.54000 32.543
11.56000 29.093
11.58000 32.655
11.60000 44.643
11.62000 27.016
11.64000 27.225
11.66000 27.406
11.68000 37.095
11.70000 40.625
11.72000 32.760
11.74000 32.945
11.76000 34.094
11.78000 28.003
11.80000 25.671
11.82000 27.322
11.84000 27.147
11.86000 19.228
11.88000 19.348
11.90000 33.000
11.92000 41.288
11.94000 34.536
11.96000 33.347
11.98000 32.907
12.00000 31.847
12.02000 33.344
12.04000 36.540
12.06000 32.989
12.08000 28.844
12.10000 40.492
12.12000 39.088
12.14000 28.866
12.16000 23.613
12.18000 34.052
12.20000 26.962
12.22000 29.073
12.24000 30.527
12.26000 27.366
12.28000 24.345
12.30000 31.704
12.32000 37.848
12.34000 37.176
12.36000 36.303
12.38000 24.743
12.40000 30.165
12.42000 28.451
12.44000 34.553
12.46000 43.016
12.48000 38.525
12.50000 38.716
12.52000 33.636
12.54000 23.972
12.56000 25.792
12.58000 30.118
12.60000 39.422
12.62000 32.732
12.64000 37.268
12.66000 30.190
12.68000 29.952
12.70000 31.374
12.72000 34.659
12.74000 34.327
12.76000 44.434
12.78000 42.562
12.80000 33.769
12.82000 40.290
12.84000 38.180
12.86000 35.558
12.88000 36.078
12.90000 35.157
12.92000 29.567
12.94000 37.340
12.96000 43.565
12.98000 39.540
13.00000 38.266
13.02000 33.646
13.04000 32.354
13.06000 27.880
13.08000 27.741
13.10000 22.440
13.12000 31.216
13.14000 37.227
13.16000 42.079
13.18000 44.112
13.20000 41.233
13.22000 35.601
13.24000 34.261
13.26000 34.215
13.28000 18.475
13.30000 26.914
13.32000 27.306
13.34000 30.869
13.36000 55.153
13.38000 44.599
13.40000 26.480
13.42000 32.781
13.44000 32.926
13.46000 36.286
13.48000 25.718
13.50000 28.258
13.52000 28.031
13.54000 33.401
13.56000 35.391
13.58000 31.550
13.60000 30.255
13.62000 30.779
13.64000 28.651
13.66000 32.585
13.68000 34.690
13.70000 38.761
13.72000 29.557
13.74000 32.555
13.76000 31.255
13.78000 30.640
13.80000 23.737
13.82000 26.911
13.84000 28.656
13.86000 22.484
13.88000 26.631
13.90000 22.045
13.92000 22.393
13.94000 32.792
13.96000 28.766
13.98000 27.945
14.00000 20.706
14.02000 23.462
14.04000 32.862
14.06000 28.635
14.08000 30.518
14.10000 35.055
14.12000 32.730
14.14000 23.720
14.16000 26.606
14.18000 25.181
14.20000 30.152
14.22000 27.821
14.24000 33.244
14.26000 32.896
14.28000 25.498
14.30000 27.107
14.32000 34.987
14.34000 34.045
14.36000 24.431
14.38000 28.830
14.40000 22.793
14.42000 20.931
14.44000 17.866
14.46000 18.990
14.48000 16.168
14.50000 15.411
14.52000 13.138
14.54000 8.804
14.56000 14.659
14.58000 20.995
14.60000 15.404
14.62000 9.220
14.64000 15.419
14.66000 20.327
14.68000 11.595
14.70000 16.201
14.72000 18.422
14.74000 20.447
14.76000 25.670
14.78000 29.041
14.80000 29.465
14.82000 22.965
14.84000 20.540
14.86000 16.483
14.88000 26.823
14.90000 29.149
14.92000 20.528
14.94000 20.931
14.96000 16.672
14.98000 13.396
15.00000 27.074
15.02000 18.367
15.04000 15.486
15.06000 16.096
15.08000 23.678
15.10000 18.972
15.12000 17.766
15.14000 9.496
15.16000 13.266
15.18000 18.208
15.20000 12.898
15.22000 17.085
15.24000 18.787
15.26000 27.550
15.28000 19.331
15.30000 13.775
15.32000 18.111
15.34000 18.133
15.36000 20.076
15.38000 18.239
15.40000 9.789
15.42000 6.107
15.44000 9.164
15.46000 15.762
15.48000 11.507
15.50000 6.084
15.52000 14.882
15.54000 14.333
15.56000 8.025
15.58000 1.529
15.60000 9.989
15.62000 9.036
15.64000 4.215
15.66000 6.453
15.68000 6.605
15.70000 13.265
15.72000 21.075
15.74000 24.886
15.76000 17.258
15.78000 22.646
15.80000 22.131
15.82000 20.014
15.84000 8.222
15.86000 6.086
15.88000 11.998
15.90000 14.934
15.92000 14.764
15.94000 12.568
15.96000 5.580
15.98000 11.903
16.00000 13.911
16.02000 1.271
16.04000 -1.792
16.06000 3.760
16.08000 -1.210
16.10000 12.194
16.12000 6.460
16.14000 6.462
16.16000 -2.634
16.18000 3.003
16.20000 3.854
16.22000 2.688
16.24000 7.369
16.26000 6.952
16.28000 9.562
16.30000 9.534
16.32000 15.678
16.34000 15.537
16.36000 12.731
16.38000 10.917
16.40000 3.185
16.42000 5.352
16.44000 5.003
16.46000 3.694
16.48000 6.913
16.50000 15.247
16.52000 12.020
16.54000 7.450
16.56000 12.468
16.58000 15.305
16.60000 12.315
16.62000 10.050
16.64000 2.960
16.66000 1.137
16.68000 2.066
16.70000 13.862
16.72000 17.614
16.74000 13.941
16.76000 6.228
16.78000 5.251
16.80000 9.058
16.82000 11.451
16.84000 4.591
16.86000 12.815
16.88000 13.897
16.90000 3.348
16.92000 6.306
16.94000 16.747
16.96000 12.789
16.98000 9.023
17.00000 4.502
17.02000 6.598
17.04000 16.085
17.06000 11.910
17.08000 7.989
17.10000 0.714
17.12000 -4.407
17.14000 1.709
17.16000 2.426
17.18000 2.362
17.20000 9.288
17.22000 18.189
17.24000 13.149
17.26000 4.072
17.28000 2.955
17.30000 9.404
17.32000 11.028
17.34000 -0.018
17.36000 0.671
17.38000 12.248
17.40000 9.924
17.42000 5.144
17.44000 9.429
17.46000 9.843
17.48000 5.818
17.50000 16.343
17.52000 10.307
17.54000 7.892
17.56000 8.995
17.58000 6.898
17.60000 2.326
17.62000 4.610
17.64000 1.834
17.66000 -0.721
17.68000 6.694
17.70000 3.461
17.72000 12.525
17.74000 12.102
17.76000 15.943
17.78000 11.886
17.80000 4.171
17.82000 3.977
17.84000 0.849
17.86000 4.345
17.88000 0.722
17.90000 -0.371
17.92000 -3.069
17.94000 1.597
17.96000 8.962
17.98000 6.614
18.00000 2.906
18.02000 9.007
18.04000 9.401
18.06000 5.947
18.08000 9.941
18.10000 14.839
18.12000 1.725
18.14000 5.042
18.16000 10.766
18.18000 9.470
18.20000 5.302
18.22000 -2.696
18.24000 0.039
18.26000 5.620
18.28000 6.595
18.30000 2.653
18.32000 7.750
18.34000 4.678
18.36000 1.018
18.38000 1.016
18.40000 0.071
18.42000 7.249
18.44000 -2.454
18.46000 -1.519
18.48000 6.441
18.50000 -0.444
18.52000 -4.164
18.54000 -1.654
18.56000 1.722
18.58000 4.197
18.60000 5.552
18.62000 3.528
18.64000 4.317
18.66000 3.298
18.68000 3.636
18.70000 -2.617
18.72000 -4.322
18.74000 2.200
18.76000 1.181
18.78000 7.145
18.80000 13.805
18.82000 9.406
18.84000 4.780
18.86000 9.803
18.88000 7.837
18.90000 6.733
18.92000 5.125
18.94000 8.117
18.96000 4.286
18.98000 2.364
19.00000 1.767
19.02000 3.636
19.04000 7.613
19.06000 8.862
19.08000 4.349
19.10000 3.436
19.12000 -0.048
19.14000 3.042
19.16000 9.295
19.18000 1.817
19.20000 1.736
19.22000 7.680
19.24000 7.913
19.26000 10.652
19.28000 8.807
19.30000 0.045
19.32000 0.116
19.34000 2.341
19.36000 0.851
19.38000 10.282
19.40000 10.230
19.42000 4.338
19.44000 1.023
19.46000 4.981
19.48000 2.009
19.50000 6.250
19.52000 8.767
19.54000 9.883
19.56000 11.718
19.58000 4.320
19.60000 5.260
19.62000 4.403
19.64000 7.919
19.66000 6.368
19.68000 2.395
19.70000 1.329
19.72000 9.993
19.74000 3.560
19.76000 2.486
19.78000 3.742
19.80000 6.801
19.82000 -0.093
19.84000 4.195
19.86000 6.311
19.88000 7.584
19.90000 0.490
19.92000 2.201
19.94000 4.131
19.96000 5.372
19.98000 8.594
20.00000 -0.303
20.02000 -0.580
20.04000 -4.251
20.06000 -2.394
20.08000 0.774
20.10000 3.168
20.12000 5.673
20.14000 10.633
20.16000 5.367
20.18000 -3.260
20.20000 4.760
20.22000 10.780
20.24000 7.800
20.26000 5.648
20.28000 10.240
20.30000 9.379
20.32000 4.603
20.34000 7.931
20.36000 7.225
20.38000 6.541
20.40000 6.046
20.42000 0.478
20.44000 0.477
20.46000 0.542
20.48000 -1.718
20.50000 -2.450
20.52000 5.442
20.54000 10.411
20.56000 1.495
20.58000 0.878
20.60000 2.811
20.62000 4.976
20.64000 3.324
20.66000 0.566
20.68000 9.246
20.70000 3.819
20.72000 -4.226
20.74000 -2.887
20.76000 -2.487
20.78000 4.958
20.80000 6.181
20.82000 6.513
20.84000 4.071
20.86000 -0.209
20.88000 2.214
20.90000 1.621
20.92000 -0.701
20.94000 0.999
20.96000 2.964
20.98000 3.861
21.00000 3.278
21.02000 4.015
21.04000 5.632
21.06000 8.923
21.08000 8.485
21.10000 6.094
21.12000 6.160
21.14000 6.258
21.16000 5.300
21.18000 4.254
21.20000 3.455
21.22000 10.428
21.24000 8.918
21.26000 5.808
21.28000 3.258
21.30000 6.214
21.32000 3.516
21.34000 4.326
21.36000 2.046
21.38000 0.658
21.40000 0.301
21.42000 6.209
21.44000 5.287
21.46000 1.860
21.48000 -0.853
21.50000 1.055
21.52000 7.922
21.54000 6.693
21.56000 -0.027
21.58000 -4.170
21.60000 3.503
21.62000 4.649
21.64000 7.326
21.66000 7.278
21.68000 9.935
21.70000 1.864
21.72000 0.829
21.74000 0.768
21.76000 4.692
21.78000 11.766
21.80000 9.636
21.82000 7.532
21.84000 5.021
21.86000 7.951
21.88000 4.504
21.90000 4.688
21.92000 4.942
21.94000 10.041
21.96000 9.494
21.98000 7.662
22.00000 2.802
22.02000 1.054
22.04000 3.663
22.06000 1.983
22.08000 2.425
22.10000 1.862
22.12000 0.085
22.14000 4.291
22.16000 2.864
22.18000 7.767
22.20000 3.458
22.22000 -0.858
22.24000 0.964
22.26000 -0.583
22.28000 -1.543
22.30000 -4.125
22.32000 -0.670
22.34000 5.006
22.36000 12.227
22.38000 9.042
22.40000 2.173
22.42000 -1.601
22.44000 2.541
22.46000 3.843
22.48000 6.290
22.50000 5.010
22.52000 1.065
22.54000 4.858
22.56000 4.814
22.58000 4.167
22.60000 6.001
22.62000 3.638
22.64000 -0.747
22.66000 -1.638
22.68000 -0.739
22.70000 1.073
22.72000 10.515
22.74000 7.221
22.76000 5.401
22.78000 4.951
22.80000 8.417
22.82000 3.083
22.84000 3.969
22.86000 1.376
22.88000 6.263
22.90000 11.354
22.92000 7.691
22.94000 3.134
22.96000 -1.235
22.98000 1.141
23.00000 5.969
23.02000 4.134
23.04000 3.387
23.06000 6.882
23.08000 8.697
23.10000 6.352
23.12000 3.675
23.14000 3.278
23.16000 1.180
23.18000 2.077
23.20000 3.089
23.22000 2.561
23.24000 6.482
23.26000 10.555
23.28000 7.241
23.30000 -2.866
23.32000 0.905
23.34000 -2.181
23.36000 -1.219
23.38000 3.209
23.40000 10.005
23.42000 8.253
23.44000 1.329
23.46000 -4.059
23.48000 4.034
23.50000 7.716
23.52000 7.841
23.54000 11.160
23.56000 2.883
23.58000 3.845
23.60000 0.006
23.62000 -4.048
23.64000 -3.877
23.66000 8.725
23.68000 13.901
23.70000 9.192
23.72000 7.453
23.74000 4.713
23.76000 -4.045
23.78000 -2.880
23.80000 5.963
23.82000 8.317
23.84000 -1.263
23.86000 1.791
23.88000 3.663
23.90000 9.683
23.92000 9.972
23.94000 7.271
23.96000 3.257
23.98000 4.803
24.00000 2.672
24.02000 6.717
24.04000 1.569
24.06000 1.142
24.08000 5.258
24.10000 3.629
24.12000 8.157
24.14000 8.404
24.16000 1.269
24.18000 -0.589
24.20000 -0.829
24.22000 2.310
24.24000 1.412
24.26000 -2.746
24.28000 -4.018
24.30000 -0.754
24.32000 -1.373
24.34000 1.490
24.36000 0.371
24.38000 3.066
24.40000 8.005
24.42000 7.171
24.44000 7.478
24.46000 7.927
24.48000 5.955
24.50000 1.263
24.52000 -3.061
24.54000 -2.360
24.56000 -2.623
24.58000 1.446
24.60000 4.256
24.62000 5.534
24.64000 6.368
24.66000 -3.215
24.68000 -1.023
24.70000 1.843
24.72000 -3.698
24.74000 -4.017
24.76000 4.171
24.78000 3.853
24.80000 1.164
24.82000 1.879
24.84000 -0.383
24.86000 -0.126
24.88000 2.721
24.90000 1.148
24.92000 -2.498
24.94000 -0.272
24.96000 -4.015
24.98000 2.898
25.00000 0.282
25.02000 1.400
25.04000 0.607
25.06000 -1.221
25.08000 0.665
25.10000 3.568
25.12000 4.496
25.14000 4.329
25.16000 3.810
25.18000 4.101
25.20000 4.305
25.22000 0.827
25.24000 2.961
25.26000 1.601
25.28000 -1.338
25.30000 4.497
25.32000 5.175
25.34000 2.154
25.36000 -3.676
25.38000 -3.419
25.40000 -0.461
25.42000 1.245
25.44000 -2.178
25.46000 0.205
25.48000 -0.443
25.50000 -0.981
25.52000 3.568
25.54000 0.983
25.56000 4.103
25.58000 0.200
25.60000 3.844
25.62000 5.135
25.64000 7.322
25.66000 7.270
25.68000 2.547
25.70000 2.169
25.72000 1.777
25.74000 -0.589
25.76000 1.974
25.78000 -0.297
25.80000 1.061
25.82000 1.137
25.84000 -3.033
25.86000 -0.255
25.88000 5.773
25.90000 2.079
25.92000 -3.267
25.94000 -0.047
25.96000 1.791
25.98000 -2.763
26.00000 6.253
26.02000 6.854
26.04000 -2.666
26.06000 -1.737
26.08000 2.832
26.10000 -0.579
26.12000 0.872
26.14000 0.539
26.16000 -0.994
26.18000 -0.272
26.20000 0.629
26.22000 -1.033
26.24000 2.816
26.26000 5.732
26.28000 2.748
26.30000 -3.474
26.32000 4.724
26.34000 3.775
26.36000 -2.958
26.38000 -2.286
26.40000 2.066
26.42000 7.823
26.44000 5.098
26.46000 6.159
26.48000 3.673
26.50000 5.344
26.52000 9.213
26.54000 7.450
26.56000 4.069
26.58000 5.937
26.60000 9.280
26.62000 9.879
26.64000 3.473
26.66000 0.788
26.68000 3.679
26.70000 8.926
26.72000 8.038
26.74000 0.442
26.76000 1.269
26.78000 3.765
26.80000 1.046
26.82000 -3.869
26.84000 -0.804
26.86000 5.834
26.88000 0.094
26.90000 2.346
26.92000 2.869
26.94000 3.023
26.96000 4.119
26.98000 8.739
27.00000 3.641
27.02000 2.520
27.04000 3.783
27.06000 8.931
27.08000 5.389
27.10000 -0.983
27.12000 -1.369
27.14000 4.047
27.16000 4.557
27.18000 7.665
27.20000 5.130
27.22000 4.001
27.24000 0.331
27.26000 1.967
27.28000 3.045
27.30000 1.719
27.32000 0.823
27.34000 2.741
27.36000 6.297
27.38000 4.759
27.40000 -0.378
27.42000 4.865
27.44000 5.960
27.46000 0.946
27.48000 1.027
27.50000 0.575
27.52000 5.841
27.54000 1.368
27.56000 2.842
27.58000 2.155
27.60000 1.965
27.62000 2.659
27.64000 0.052
27.66000 2.733
27.68000 5.666
27.70000 6.456
27.72000 6.288
27.74000 5.918
27.76000 1.556
27.78000 1.148
27.80000 2.029
27.82000 0.480
27.84000 -0.594
27.86000 0.651
27.88000 7.126
27.90000 2.073
27.92000 -1.899
27.94000 3.405
27.96000 2.099
27.98000 3.301
28.00000 3.433
28.02000 2.623
28.04000 6.655
28.06000 6.297
28.08000 4.338
28.10000 3.542
28.12000 -3.814
28.14000 0.919
28.16000 6.461
28.18000 3.549
28.20000 5.019
28.22000 2.688
28.24000 0.492
28.26000 3.901
28.28000 4.197
28.30000 3.311
28.32000 4.201
28.34000 4.958
28.36000 4.964
28.38000 -0.996
28.40000 -3.659
28.42000 -3.793
28.44000 0.512
28.46000 5.382
28.48000 5.046
28.50000 0.813
28.52000 -1.444
28.54000 2.739
28.56000 5.545
28.58000 11.454
28.60000 10.187
28.62000 9.740
28.64000 11.578
28.66000 8.196
28.68000 6.683
28.70000 2.860
28.72000 2.743
28.74000 5.001
28.76000 4.874
28.78000 7.755
28.80000 3.868
28.82000 -0.072
28.84000 1.713
28.86000 1.609
28.88000 0.388
28.90000 -2.861
28.92000 0.523
28.94000 0.672
28.96000 4.625
28.98000 1.156
29.00000 3.536
29.02000 4.509
29.04000 0.950
29.06000 4.694
29.08000 2.398
29.10000 3.983
29.12000 -1.371
29.14000 -0.538
29.16000 -1.715
29.18000 -0.683
29.20000 -0.681
29.22000 4.464
29.24000 1.483
29.26000 2.265
29.28000 3.896
29.30000 3.598
29.32000 5.180
29.34000 1.630
29.36000 -3.514
29.38000 0.104
29.40000 4.227
29.42000 -3.130
29.44000 -0.649
29.46000 1.510
29.48000 -1.485
29.50000 2.836
29.52000 3.989
29.54000 2.729
29.56000 1.995
29.58000 5.153
29.60000 2.564
29.62000 -3.763
29.64000 -2.503
29.66000 -0.908
29.68000 0.229
29.70000 2.759
29.72000 -1.609
29.74000 1.494
29.76000 -2.737
29.78000 -3.754
29.80000 -0.843
29.82000 5.134
29.84000 4.072
29.86000 2.071
29.88000 3.942
29.90000 6.196
29.92000 5.693
29.94000 3.912
29.96000 8.430
29.98000 5.069
30.00000 4.876
30.02000 3.414
30.04000 3.727
30.06000 -0.465
30.08000 -3.743
30.10000 -2.865
30.12000 -2.734
30.14000 -0.359
30.16000 0.739
30.18000 1.838
30.20000 -0.116
30.22000 0.699
30.24000 1.670
30.26000 2.889
30.28000 0.835
30.30000 3.231
30.32000 1.444
30.34000 4.725
30.36000 2.100
30.38000 2.040
30.40000 0.951
30.42000 -1.207
30.44000 2.022
30.46000 2.487
30.48000 0.675
30.50000 -2.580
30.52000 -3.246
30.54000 -1.190
30.56000 -1.193
30.58000 0.009
30.60000 2.727
30.62000 0.672
30.64000 2.991
30.66000 3.737
30.68000 1.298
30.70000 3.238
30.72000 5.110
30.74000 6.630
30.76000 2.912
30.78000 1.049
30.80000 1.332
30.82000 -3.719
30.84000 -0.037
30.86000 8.786
30.88000 4.737
30.90000 4.365
30.92000 6.875
30.94000 6.750
30.96000 1.104
30.98000 2.816
31.00000 2.712
31.02000 1.309
31.04000 4.709
31.06000 8.409
31.08000 5.471
31.10000 3.707
31.12000 4.139
31.14000 -2.178
31.16000 1.361
31.18000 3.827
31.20000 10.213
31.22000 10.643
31.24000 5.575
31.26000 3.217
31.28000 3.524
31.30000 -3.671
31.32000 3.318
31.34000 6.835
31.36000 5.143
31.38000 -0.343
31.40000 0.999
31.42000 1.725
31.44000 3.709
31.46000 0.552
31.48000 2.484
31.50000 0.184
31.52000 0.184
31.54000 2.510
31.56000 2.528
31.58000 -3.672
31.60000 0.130
31.62000 5.627
31.64000 6.665
31.66000 5.084
31.68000 -0.659
31.70000 4.353
31.72000 0.843
31.74000 1.541
31.76000 4.735
31.78000 -0.260
31.80000 0.273
31.82000 2.637
31.84000 -0.958
31.86000 -3.650
31.88000 0.054
31.90000 1.339
31.92000 2.889
31.94000 2.767
31.96000 2.055
31.98000 1.999
32.00000 3.540
32.02000 -0.319
32.04000 3.818
32.06000 0.183
32.08000 -2.277
32.10000 -0.240
32.12000 2.443
32.14000 5.427
32.16000 2.360
32.18000 -1.024
32.20000 3.529
32.22000 3.025
32.24000 0.961
32.26000 3.555
32.28000 2.507
32.30000 -1.636
32.32000 4.051
32.34000 1.662
32.36000 -0.023
32.38000 0.597
32.40000 2.504
32.42000 -1.467
32.44000 -0.464
32.46000 -0.047
32.48000 -1.844
32.50000 -2.006
32.52000 -2.914
32.54000 0.512
32.56000 1.289
32.58000 1.009
32.60000 -1.728
32.62000 -2.671
32.64000 0.824
32.66000 -1.179
32.68000 1.920
32.70000 1.778
32.72000 1.659
32.74000 8.230
32.76000 3.869
32.78000 0.088
32.80000 0.260
32.82000 -2.113
32.84000 -3.638
32.86000 3.276
32.88000 0.442
32.90000 -0.104
32.92000 5.112
32.94000 0.354
32.96000 -1.068
32.98000 0.769
33.00000 4.910
33.02000 5.171
33.04000 -0.674
33.06000 -3.509
33.08000 -0.434
33.10000 -3.203
33.12000 0.175
33.14000 1.239
33.16000 1.442
33.18000 1.046
33.20000 2.452
33.22000 0.947
33.24000 0.623
33.26000 -1.675
33.28000 0.827
33.30000 1.938
33.32000 5.188
33.34000 6.992
33.36000 0.916
33.38000 5.252
33.40000 4.123
33.42000 2.209
33.44000 4.782
33.46000 -0.139
33.48000 -1.993
33.50000 1.057
33.52000 1.273
33.54000 -2.797
33.56000 -3.459
33.58000 -0.866
33.60000 -1.100
33.62000 2.589
33.64000 4.085
33.66000 -1.777
33.68000 -2.462
33.70000 2.615
33.72000 3.209
33.74000 4.518
33.76000 2.213
33.78000 1.232
33.80000 3.059
33.82000 2.634
33.84000 0.909
33.86000 3.226
33.88000 1.764
33.90000 0.496
33.92000 1.000
33.94000 2.280
33.96000 1.007
33.98000 1.262
34.00000 -0.696
34.02000 -0.661
34.04000 2.529
34.06000 0.810
34.08000 -2.427
34.10000 -0.481
34.12000 -0.449
34.14000 7.213
34.16000 4.671
34.18000 5.056
34.20000 2.003
34.22000 3.404
34.24000 3.279
34.26000 0.624
34.28000 2.541
34.30000 2.646
34.32000 1.268
34.34000 4.484
34.36000 3.850
34.38000 4.318
34.40000 0.892
34.42000 -1.471
34.44000 -1.056
34.46000 0.453
34.48000 2.045
34.50000 1.288
34.52000 5.234
34.54000 -1.121
34.56000 0.587
34.58000 3.261
34.60000 5.559
34.62000 -2.902
34.64000 1.205
34.66000 3.869
34.68000 7.686
34.70000 1.988
34.72000 1.470
34.74000 3.546
34.76000 0.301
34.78000 -0.185
34.80000 2.406
34.82000 0.460
34.84000 -1.266
34.86000 -3.586
34.88000 3.979
34.90000 0.027
34.92000 0.105
34.94000 1.477
34.96000 4.196
34.98000 0.725
35.00000 7.831
35.02000 2.229
35.04000 -0.228
35.06000 4.277
35.08000 6.472
35.10000 4.239
35.12000 0.405
35.14000 2.172
35.16000 3.255
35.18000 1.631
35.20000 1.088
35.22000 0.375
35.24000 1.290
35.26000 3.246
35.28000 2.244
35.30000 0.806
35.32000 -3.561
35.34000 -1.294
35.36000 2.013
35.38000 0.674
35.40000 2.200
35.42000 -0.940
35.44000 2.355
35.46000 6.921
35.48000 3.796
35.50000 2.252
35.52000 -1.888
35.54000 -2.510
35.56000 2.426
35.58000 1.206
35.60000 1.000
35.62000 2.652
35.64000 2.080
35.66000 -3.505
35.68000 -2.582
35.70000 -1.022
35.72000 5.061
35.74000 6.266
35.76000 3.768
35.78000 4.303
35.80000 -0.432
35.82000 1.828
35.84000 2.858
35.86000 1.976
35.88000 -0.994
35.90000 -2.545
35.92000 3.507
35.94000 7.472
35.96000 9.923
35.98000 6.744
36.00000 4.245
36.02000 1.409
36.04000 1.233
36.06000 1.048
36.08000 2.801
36.10000 2.122
36.12000 0.983
36.14000 4.980
36.16000 3.306
36.18000 1.555
36.20000 3.645
36.22000 0.517
36.24000 -2.680
36.26000 -2.148
36.28000 -3.573
36.30000 -2.762
36.32000 -1.040
36.34000 0.664
36.36000 -2.196
36.38000 -2.136
36.40000 4.167
36.42000 5.506
36.44000 8.651
36.46000 3.439
36.48000 3.065
36.50000 5.349
36.52000 5.859
36.54000 5.393
36.56000 2.669
36.58000 8.996
36.60000 5.483
36.62000 -0.293
36.64000 -1.197
36.66000 1.628
36.68000 2.578
36.70000 0.512
36.72000 -1.298
36.74000 5.249
36.76000 7.964
36.78000 0.201
36.80000 -1.809
36.82000 -3.608
36.84000 2.863
36.86000 2.234
36.88000 3.779
36.90000 2.727
36.92000 2.735
36.94000 0.868
36.96000 3.458
36.98000 2.502
37.00000 -1.983
37.02000 -1.956
37.04000 -1.372
37.06000 0.142
37.08000 -0.690
37.10000 -1.919
37.12000 -3.572
37.14000 0.582
37.16000 3.629
37.18000 1.239
37.20000 -0.279
37.22000 0.117
37.24000 -2.864
37.26000 -3.068
37.28000 0.870
37.30000 2.016
37.32000 1.530
37.34000 0.536
37.36000 -1.301
37.38000 2.101
37.40000 0.825
37.42000 -0.715
37.44000 -0.978
37.46000 -1.982
37.48000 3.479
37.50000 -0.596
37.52000 -2.984
37.54000 -2.228
37.56000 1.993
37.58000 0.467
37.60000 -0.733
37.62000 6.460
37.64000 4.592
37.66000 4.452
37.68000 0.488
37.70000 2.125
37.72000 -3.039
37.74000 -3.683
37.76000 6.384
37.78000 6.938
37.80000 6.185
37.82000 4.118
37.84000 7.226
37.86000 8.032
37.88000 8.366
37.90000 6.429
37.92000 7.524
37.94000 8.397
37.96000 9.932
37.98000 12.853
38.00000 10.485
38.02000 11.123
38.04000 10.900
38.06000 9.957
38.08000 7.803
38.10000 6.616
38.12000 8.224
38.14000 9.549
38.16000 10.961
38.18000 11.129
38.20000 11.559
38.22000 9.872
38.24000 15.610
38.26000 12.835
38.28000 12.671
38.30000 13.255
38.32000 17.498
38.34000 18.484
38.36000 15.551
38.38000 17.347
38.40000 15.553
38.42000 17.892
38.44000 21.338
38.46000 15.035
38.48000 14.020
38.50000 19.427
38.52000 17.725
38.54000 19.592
38.56000 21.895
38.58000 26.553
38.60000 26.060
38.62000 23.859
38.64000 20.559
38.66000 20.486
38.68000 16.389
38.70000 25.434
38.72000 23.603
38.74000 24.395
38.76000 24.811
38.78000 24.740
38.80000 24.009
38.82000 20.868
38.84000 24.410
38.86000 27.973
38.88000 32.276
38.90000 33.947
38.92000 34.867
38.94000 32.959
38.96000 38.886
38.98000 39.105
39.00000 32.813
39.02000 32.363
39.04000 33.503
39.06000 39.626
39.08000 46.131
39.10000 40.570
39.12000 45.883
39.14000 44.827
39.16000 45.642
39.18000 49.900
39.20000 44.189
39.22000 50.751
39.24000 53.000
39.26000 60.296
39.28000 62.426
39.30000 60.232
39.32000 59.042
39.34000 62.523
39.36000 69.751
39.38000 66.781
39.40000 70.159
39.42000 71.409
39.44000 72.840
39.46000 78.562
39.48000 84.308
39.50000 85.457
39.52000 92.537
39.54000 95.922
39.56000 99.934
39.58000 102.991
39.60000 104.554
39.62000 102.837
39.64000 112.679
39.66000 122.985
39.68000 125.725
39.70000 138.354
39.72000 142.665
39.74000 144.632
39.76000 154.564
39.78000 165.138
39.80000 171.042
39.82000 178.250
39.84000 181.742
39.86000 195.676
39.88000 206.114
39.90000 214.464
39.92000 225.225
39.94000 231.782
39.96000 242.765
39.98000 252.182
40.00000 263.732
40.02000 280.867
40.04000 301.306
40.06000 318.526
40.08000 333.912
40.10000 346.760
40.12000 357.688
40.14000 370.995
40.16000 392.294
40.18000 411.911
40.20000 428.605
40.22000 437.112
40.24000 461.825
40.26000 488.314
40.28000 514.186
40.30000 532.395
40.32000 543.602
40.34000 562.958
40.36000 574.100
40.38000 593.528
40.40000 617.852
40.42000 626.386
40.44000 639.822
40.46000 660.932
40.48000 667.782
40.50000 678.219
40.52000 693.035
40.54000 702.596
40.56000 714.480
40.58000 721.363
40.60000 722.161
40.62000 722.394
40.64000 732.910
40.66000 724.467
40.68000 701.330
40.70000 693.883
40.72000 687.403
40.74000 693.825
40.76000 685.093
40.78000 671.453
40.80000 649.221
40.82000 638.406
40.84000 614.403
40.86000 596.717
40.88000 584.689
40.90000 567.983
40.92000 543.338
40.94000 509.208
40.96000 487.082
40.98000 479.564
41.00000 461.832
41.02000 442.852
41.04000 421.150
41.06000 407.185
41.08000 386.494
41.10000 368.022
41.12000 345.701
41.14000 331.155
41.16000 321.102
41.18000 299.627
41.20000 285.860
41.22000 275.734
41.24000 254.288
41.26000 239.813
41.28000 232.421
41.30000 219.389
41.32000 209.475
41.34000 198.712
41.36000 187.167
41.38000 179.646
41.40000 163.648
41.42000 150.012
41.44000 152.726
41.46000 145.097
41.48000 139.456
41.50000 128.052
41.52000 117.129
41.54000 115.432
41.56000 109.522
41.58000 101.827
41.60000 94.459
41.62000 94.751
41.64000 95.992
41.66000 89.464
41.68000 86.064
41.70000 76.228
41.72000 70.792
41.74000 69.340
41.76000 64.891
41.78000 62.556
41.80000 56.692
41.82000 55.709
41.84000 58.220
41.86000 49.181
41.88000 41.185
41.90000 44.217
41.92000 40.639
41.94000 42.978
41.96000 42.766
41.98000 36.445
42.00000 31.971
42.02000 32.344
42.04000 34.482
42.06000 30.578
42.08000 27.149
42.10000 27.922
42.12000 23.907
42.14000 25.680
42.16000 24.674
42.18000 21.334
42.20000 21.231
42.22000 23.467
42.24000 21.517
42.26000 18.651
42.28000 16.338
42.30000 19.912
42.32000 19.869
42.34000 15.749
42.36000 11.200
42.38000 9.119
42.40000 9.951
42.42000 10.777
42.44000 4.406
42.46000 3.856
42.48000 10.879
42.50000 10.438
42.52000 9.697
42.54000 9.150
42.56000 7.485
42.58000 6.587
42.60000 10.666
42.62000 8.512
42.64000 1.054
42.66000 2.034
42.68000 3.159
42.70000 -0.166
42.72000 0.502
42.74000 4.105
42.76000 5.432
42.78000 7.688
42.80000 7.370
42.82000 2.857
42.84000 -2.501
42.86000 1.721
42.88000 -3.358
42.90000 1.489
42.92000 -0.789
42.94000 -1.006
42.96000 1.495
42.98000 4.770
43.00000 3.571
43.02000 3.875
43.04000 4.223
43.06000 -0.842
43.08000 2.150
43.10000 1.139
43.12000 1.346
43.14000 0.597
43.16000 2.590
43.18000 -0.323
43.20000 -1.477
43.22000 3.430
43.24000 0.908
43.26000 1.004
43.28000 3.083
43.30000 3.891
43.32000 0.617
43.34000 -2.226
43.36000 0.965
43.38000 0.133
43.40000 -1.289
43.42000 1.515
43.44000 1.425
43.46000 -3.349
43.48000 -0.138
43.50000 -2.901
43.52000 -3.634
43.54000 -0.032
43.56000 -1.240
43.58000 1.272
43.60000 2.279
43.62000 -2.293
43.64000 0.085
43.66000 3.278
43.68000 -2.885
43.70000 -3.188
43.72000 -0.710
43.74000 -3.456
43.76000 2.087
43.78000 3.221
43.80000 0.478
43.82000 1.266
43.84000 -3.109
43.86000 -3.050
43.88000 -3.426
43.90000 -0.495
43.92000 -1.852
43.94000 -3.455
43.96000 -2.592
43.98000 -1.421
44.00000 1.811
44.02000 4.181
44.04000 1.391
44.06000 -1.340
44.08000 0.084
44.10000 2.104
44.12000 3.075
44.14000 0.333
44.16000 -3.576
44.18000 -0.826
44.20000 0.948
44.22000 2.508
44.24000 4.667
44.26000 7.521
44.28000 4.179
44.30000 2.429
44.32000 -2.783
44.34000 0.571
44.36000 1.053
44.38000 2.852
44.40000 2.786
44.42000 -3.571
44.44000 0.961
44.46000 5.053
44.48000 -0.418
44.50000 1.623
44.52000 7.165
44.54000 3.037
44.56000 -0.299
44.58000 3.294
44.60000 3.683
44.62000 0.252
44.64000 -0.961
44.66000 1.426
44.68000 5.530
44.70000 1.765
44.72000 2.888
44.74000 2.422
44.76000 2.770
44.78000 -0.977
44.80000 -0.267
44.82000 5.307
44.84000 5.251
44.86000 5.515
44.88000 -0.190
44.90000 -3.560
44.92000 0.447
44.94000 -1.675
44.96000 6.001
44.98000 4.209
45.00000 2.989
45.02000 3.601
45.04000 3.304
45.06000 5.287
45.08000 2.170
45.10000 2.515
45.12000 1.864
45.14000 4.255
45.16000 5.890
45.18000 1.342
45.20000 6.945
45.22000 2.991
45.24000 3.371
45.26000 8.000
45.28000 8.564
45.30000 5.511
45.32000 9.435
45.34000 10.985
45.36000 2.900
45.38000 1.956
45.40000 5.064
45.42000 2.571
45.44000 4.643
45.46000 2.380
45.48000 2.338
45.50000 4.239
45.52000 6.384
45.54000 6.988
45.56000 10.254
45.58000 10.318
45.60000 0.799
45.62000 7.240
45.64000 11.280
45.66000 8.728
45.68000 7.444
45.70000 14.462
45.72000 13.248
45.74000 16.575
45.76000 18.410
45.78000 24.223
45.80000 17.226
45.82000 12.296
45.84000 11.399
45.86000 16.011
45.88000 18.786
45.90000 11.752
45.92000 10.909
45.94000 18.194
45.96000 19.645
45.98000 19.975
46.00000 21.766
46.02000 22.568
46.04000 20.427
46.06000 17.851
46.08000 21.120
46.10000 25.179
46.12000 17.920
46.14000 20.622
46.16000 28.593
46.18000 31.560
46.20000 35.576
46.22000 38.065
46.24000 31.533
46.26000 31.296
46.28000 34.869
46.30000 37.059
46.32000 37.079
46.34000 38.211
46.36000 43.049
46.38000 36.230
46.40000 38.040
46.42000 35.587
46.44000 39.893
46.46000 41.334
46.48000 42.998
46.50000 46.049
46.52000 41.516
46.54000 44.840
46.56000 46.273
46.58000 45.041
46.60000 50.236
46.62000 50.993
46.64000 56.657
46.66000 55.100
46.68000 59.355
46.70000 62.587
46.72000 64.159
46.74000 63.729
46.76000 58.924
46.78000 65.877
46.80000 64.008
46.82000 59.916
46.84000 64.008
46.86000 64.726
46.88000 67.371
46.90000 70.276
46.92000 72.100
46.94000 63.974
46.96000 70.083
46.98000 71.240
47.00000 75.722
47.02000 83.402
47.04000 85.300
47.06000 81.525
47.08000 71.567
47.10000 71.783
47.12000 75.978
47.14000 76.475
47.16000 73.426
47.18000 76.534
47.20000 75.789
47.22000 82.863
47.24000 91.778
47.26000 83.474
47.28000 76.949
47.30000 79.120
47.32000 82.259
47.34000 82.736
47.36000 84.991
47.38000 84.558
47.40000 75.894
47.42000 70.367
47.44000 69.802
47.46000 70.572
47.48000 65.282
47.50000 63.475
47.52000 62.864
47.54000 62.487
47.56000 69.450
47.58000 74.017
47.60000 68.688
47.62000 62.295
47.64000 60.939
47.66000 56.617
47.68000 57.230
47.70000 55.996
47.72000 50.689
47.74000 56.787
47.76000 52.419
47.78000 48.439
47.80000 52.638
47.82000 53.044
47.84000 47.956
47.86000 44.938
47.88000 39.782
47.90000 35.927
47.92000 39.546
47.94000 40.601
47.96000 41.917
47.98000 34.728
48.00000 30.818
48.02000 35.621
48.04000 25.371
48.06000 16.719
48.08000 27.139
48.10000 29.809
48.12000 31.470
48.14000 24.642
48.16000 28.745
48.18000 22.466
48.20000 16.883
48.22000 15.375
48.24000 17.273
48.26000 17.328
48.28000 16.709
48.30000 15.766
48.32000 17.377
48.34000 21.356
48.36000 12.289
48.38000 10.152
48.40000 14.702
48.42000 9.930
48.44000 10.859
48.46000 11.146
48.48000 12.772
48.50000 15.095
48.52000 12.803
48.54000 7.806
48.56000 6.721
48.58000 7.671
48.60000 10.450
48.62000 10.237
48.64000 11.290
48.66000 8.950
48.68000 11.810
48.70000 7.954
48.72000 7.726
48.74000 13.201
48.76000 11.139
48.78000 6.361
48.80000 2.118
48.82000 6.877
48.84000 9.964
48.86000 13.692
48.88000 16.140
48.90000 9.015
48.92000 7.698
48.94000 12.549
48.96000 7.081
48.98000 1.072
49.00000 -3.224
49.02000 2.888
49.04000 4.232
49.06000 0.184
49.08000 1.237
49.10000 9.541
49.12000 1.415
49.14000 1.070
49.16000 1.381
49.18000 3.255
49.20000 2.449
49.22000 2.706
49.24000 3.790
49.26000 2.774
49.28000 3.728
49.30000 2.007
49.32000 0.208
49.34000 2.538
49.36000 2.538
49.38000 4.458
49.40000 3.382
49.42000 3.866
49.44000 5.614
49.46000 10.004
49.48000 11.890
49.50000 4.529
49.52000 7.492
49.54000 -0.637
49.56000 -0.854
49.58000 4.502
49.60000 6.014
49.62000 4.129
49.64000 4.129
49.66000 4.904
49.68000 7.239
49.70000 7.640
49.72000 7.518
49.74000 2.180
49.76000 2.306
49.78000 2.095
49.80000 -0.540
49.82000 4.987
49.84000 12.073
49.86000 10.782
49.88000 1.759
49.90000 1.761
49.92000 0.324
49.94000 3.881
49.96000 3.946
49.98000 4.860
50.00000 11.463
50.02000 5.701
50.04000 3.411
50.06000 3.297
50.08000 1.399
50.10000 0.128
50.12000 0.869
50.14000 5.482
50.16000 2.764
50.18000 2.957
50.20000 7.354
50.22000 4.621
50.24000 6.422
50.26000 2.148
50.28000 -3.068
50.30000 1.917
50.32000 3.162
50.34000 3.563
50.36000 5.258
50.38000 3.111
50.40000 4.145
50.42000 5.473
50.44000 4.927
50.46000 6.197
50.48000 8.940
50.50000 -0.875
50.52000 0.640
50.54000 4.076
50.56000 4.129
50.58000 6.205
50.60000 8.061
50.62000 6.075
50.64000 6.138
50.66000 9.116
50.68000 7.313
50.70000 5.166
50.72000 9.133
50.74000 8.974
50.76000 4.012
50.78000 -3.051
50.80000 0.651
50.82000 -3.050
50.84000 1.187
50.86000 1.198
50.88000 3.318
50.90000 1.289
50.92000 1.740
50.94000 6.619
50.96000 2.887
50.98000 8.468
51.00000 4.930
51.02000 -3.045
51.04000 -1.589
51.06000 -0.396
51.08000 4.790
51.10000 10.959
51.12000 7.924
51.14000 4.192
51.16000 1.492
51.18000 0.191
51.20000 2.179
51.22000 1.277
51.24000 1.393
51.26000 4.485
51.28000 8.631
51.30000 12.199
51.32000 8.171
51.34000 0.909
51.36000 3.475
51.38000 5.915
51.40000 4.632
51.42000 5.095
51.44000 5.112
51.46000 8.346
51.48000 4.174
51.50000 1.836
51.52000 5.975
51.54000 3.720
51.56000 0.101
51.58000 3.271
51.60000 2.823
51.62000 -0.275
51.64000 -1.574
51.66000 -0.855
51.68000 0.848
51.70000 8.608
51.72000 4.723
51.74000 1.206
51.76000 -2.677
51.78000 3.845
51.80000 2.162
51.82000 -2.742
51.84000 3.888
51.86000 4.321
51.88000 1.666
51.90000 4.340
51.92000 5.127
51.94000 2.398
51.96000 -1.054
51.98000 4.520
52.00000 2.783
52.02000 0.841
52.04000 0.015
52.06000 -0.070
52.08000 4.360
52.10000 5.682
52.12000 8.523
52.14000 0.235
52.16000 0.603
52.18000 6.491
52.20000 9.279
52.22000 9.603
52.24000 3.694
52.26000 3.073
52.28000 3.154
52.30000 5.663
52.32000 2.242
52.34000 5.759
52.36000 4.700
52.38000 3.846
52.40000 4.092
52.42000 3.280
52.44000 5.419
52.46000 0.394
52.48000 1.611
52.50000 5.069
52.52000 3.352
52.54000 5.705
52.56000 8.620
52.58000 7.634
52.60000 2.096
52.62000 0.623
52.64000 -0.157
52.66000 3.780
52.68000 3.387
52.70000 6.020
52.72000 4.280
52.74000 3.662
52.76000 4.164
52.78000 -0.480
52.80000 -2.942
52.82000 -1.475
52.84000 3.330
52.86000 3.897
52.88000 3.950
52.90000 4.075
52.92000 2.498
52.94000 3.854
52.96000 5.811
52.98000 5.468
53.00000 0.273
53.02000 3.063
53.04000 4.866
53.06000 2.868
53.08000 -0.087
53.10000 1.461
53.12000 1.418
53.14000 11.641
53.16000 12.832
53.18000 7.463
53.20000 2.704
53.22000 0.470
53.24000 3.686
53.26000 2.136
53.28000 5.441
53.30000 6.253
53.32000 6.793
53.34000 6.446
53.36000 6.659
53.38000 2.247
53.40000 -2.943
53.42000 0.432
53.44000 3.951
53.46000 5.662
53.48000 5.096
53.50000 5.415
53.52000 0.409
53.54000 -0.684
53.56000 7.400
53.58000 3.686
53.60000 3.674
53.62000 2.368
53.64000 1.941
53.66000 3.909
53.68000 7.766
53.70000 4.115
53.72000 2.930
53.74000 4.845
53.76000 4.272
53.78000 2.192
53.80000 10.052
53.82000 8.316
53.84000 7.845
53.86000 7.665
53.88000 0.584
53.90000 3.100
53.92000 8.851
53.94000 6.878
53.96000 1.612
53.98000 3.980
54.00000 5.246
54.02000 5.204
54.04000 0.975
54.06000 4.318
54.08000 2.452
54.10000 2.117
54.12000 0.596
54.14000 0.010
54.16000 1.687
54.18000 4.918
54.20000 6.137
54.22000 4.741
54.24000 3.494
54.26000 6.479
54.28000 6.926
54.30000 1.366
54.32000 1.605
54.34000 2.695
54.36000 2.142
54.38000 0.497
54.40000 5.019
54.42000 3.603
54.44000 5.135
54.46000 0.452
54.48000 1.985
54.50000 3.069
54.52000 5.862
54.54000 3.090
54.56000 5.893
54.58000 5.070
54.60000 4.344
54.62000 4.277
54.64000 7.953
54.66000 8.581
54.68000 8.157
54.70000 2.462
54.72000 3.242
54.74000 2.254
54.76000 2.667
54.78000 5.023
54.80000 2.160
54.82000 -2.901
54.84000 -0.755
54.86000 2.179
54.88000 3.848
54.90000 2.251
54.92000 2.754
54.94000 3.254
54.96000 5.236
54.98000 6.609
55.00000 7.545
55.02000 5.760
55.04000 6.004
55.06000 4.514
55.08000 2.128
55.10000 4.076
55.12000 6.804
55.14000 6.572
55.16000 0.462
55.18000 2.342
55.20000 -0.309
55.22000 -0.541
55.24000 -2.690
55.26000 -0.415
55.28000 -1.369
55.30000 5.291
55.32000 7.274
55.34000 1.095
55.36000 4.851
55.38000 8.224
55.40000 5.577
55.42000 6.978
55.44000 7.756
55.46000 2.677
55.48000 -0.228
55.50000 -1.870
55.52000 -0.428
55.54000 3.352
55.56000 4.269
55.58000 7.393
55.60000 2.859
55.62000 1.854
55.64000 2.276
55.66000 4.308
55.68000 0.488
55.70000 5.597
55.72000 5.217
55.74000 4.972
55.76000 4.522
55.78000 0.981
55.80000 1.499
55.82000 2.264
55.84000 -0.573
55.86000 -1.513
55.88000 6.082
55.90000 7.863
55.92000 2.673
55.94000 1.067
55.96000 1.064
55.98000 -0.229
56.00000 -0.385
56.02000 2.403
56.04000 3.793
56.06000 1.426
56.08000 1.496
56.10000 2.771
56.12000 2.620
56.14000 7.782
56.16000 4.412
56.18000 4.221
56.20000 7.725
56.22000 1.117
56.24000 -2.894
56.26000 5.577
56.28000 12.478
56.30000 4.083
56.32000 6.092
56.34000 7.872
56.36000 2.040
56.38000 0.534
56.40000 2.410
56.42000 3.881
56.44000 9.355
56.46000 7.577
56.48000 4.423
56.50000 1.898
56.52000 5.351
56.54000 3.928
56.56000 5.009
56.58000 4.349
56.60000 3.792
56.62000 1.620
56.64000 3.683
56.66000 4.730
56.68000 1.254
56.70000 4.311
56.72000 7.678
56.74000 6.919
56.76000 3.751
56.78000 7.814
56.80000 9.440
56.82000 6.854
56.84000 0.121
56.86000 1.766
56.88000 3.548
56.90000 4.195
56.92000 2.958
56.94000 -0.105
56.96000 -0.910
56.98000 -2.461
57.00000 -0.621
57.02000 3.929
57.04000 1.688
57.06000 1.033
57.08000 2.384
57.10000 2.837
57.12000 0.301
57.14000 3.712
57.16000 1.908
57.18000 7.883
57.20000 4.948
57.22000 2.743
57.24000 2.817
57.26000 -0.450
57.28000 1.487
57.30000 -2.748
57.32000 -2.364
57.34000 0.839
57.36000 5.072
57.38000 11.690
57.40000 11.669
57.42000 7.766
57.44000 1.262
57.46000 1.442
57.48000 0.733
57.50000 10.928
57.52000 16.324
57.54000 10.617
57.56000 7.864
57.58000 7.800
57.60000 4.924
57.62000 3.165
57.64000 5.154
57.66000 4.830
57.68000 5.326
57.70000 -2.824
57.72000 0.432
57.74000 5.476
57.76000 1.730
57.78000 -0.642
57.80000 0.380
57.82000 0.769
57.84000 6.643
57.86000 3.691
57.88000 3.369
57.90000 6.780
57.92000 8.646
57.94000 7.582
57.96000 8.125
57.98000 6.450
58.00000 3.359
58.02000 5.947
58.04000 3.488
58.06000 7.176
58.08000 8.520
58.10000 5.932
58.12000 7.055
58.14000 11.272
58.16000 5.625
58.18000 6.679
58.20000 6.452
58.22000 5.471
58.24000 3.893
58.26000 8.865
58.28000 5.352
58.30000 1.943
58.32000 2.938
58.34000 3.021
58.36000 -2.758
58.38000 0.889
58.40000 2.767
58.42000 1.741
58.44000 6.272
58.46000 8.377
58.48000 4.050
58.50000 4.730
58.52000 9.651
58.54000 6.445
58.56000 1.533
58.58000 6.574
58.60000 3.180
58.62000 1.329
58.64000 1.749
58.66000 7.182
58.68000 6.840
58.70000 3.202
58.72000 11.324
58.74000 8.229
58.76000 4.882
58.78000 6.934
58.80000 7.010
58.82000 4.321
58.84000 8.637
58.86000 9.717
58.88000 10.706
58.90000 8.688
58.92000 6.339
58.94000 4.371
58.96000 8.410
58.98000 1.141
59.00000 1.821
59.02000 3.631
59.04000 4.833
59.06000 5.473
59.08000 5.998
59.10000 2.602
59.12000 -1.710
59.14000 -2.264
59.16000 3.455
59.18000 4.510
59.20000 1.066
59.22000 1.474
59.24000 -1.038
59.26000 -0.549
59.28000 1.141
59.30000 2.834
59.32000 5.932
59.34000 3.851
59.36000 6.625
59.38000 11.876
59.40000 7.140
59.42000 7.431
59.44000 7.365
59.46000 6.312
59.48000 2.441
59.50000 4.924
59.52000 8.992
59.54000 6.871
59.56000 6.844
59.58000 4.009
59.60000 3.917
59.62000 -0.792
59.64000 -0.957
59.66000 0.198
59.68000 2.405
59.70000 0.893
59.72000 3.523
59.74000 0.045
59.76000 1.367
59.78000 6.453
59.80000 10.091
59.82000 4.622
59.84000 3.956
59.86000 0.859
59.88000 1.786
59.90000 1.765
59.92000 3.867
59.94000 0.156
59.96000 0.241
59.98000 3.821
60.00000 1.732
60.02000 1.721
60.04000 1.505
60.06000 1.869
60.08000 2.355
60.10000 5.374
60.12000 1.644
60.14000 0.949
60.16000 2.237
60.18000 -0.184
60.20000 0.230
60.22000 6.206
60.24000 8.886
60.26000 2.952
60.28000 2.542
60.30000 5.452
60.32000 8.103
60.34000 4.319
60.36000 7.628
60.38000 1.508
60.40000 -2.727
60.42000 -0.393
60.44000 2.273
60.46000 4.996
60.48000 7.482
60.50000 7.955
60.52000 3.442
60.54000 0.013
60.56000 3.505
60.58000 4.903
60.60000 0.049
60.62000 2.466
60.64000 3.699
60.66000 5.400
60.68000 7.497
60.70000 2.583
60.72000 -1.225
60.74000 -2.719
60.76000 0.589
60.78000 4.333
60.80000 -1.420
60.82000 0.167
60.84000 0.373
60.86000 -0.452
60.88000 -2.538
60.90000 3.448
60.92000 4.772
60.94000 4.885
60.96000 5.395
60.98000 3.977
61.00000 0.764
61.02000 2.514
61.04000 1.928
61.06000 3.204
61.08000 3.458
61.10000 5.811
61.12000 5.547
61.14000 7.995
61.16000 7.153
61.18000 7.263
61.20000 4.576
61.22000 -2.154
61.24000 -0.842
61.26000 5.511
61.28000 6.672
61.30000 5.039
61.32000 4.700
61.34000 7.294
61.36000 11.093
61.38000 2.725
61.40000 3.273
61.42000 0.632
61.44000 -2.688
61.46000 -2.209
61.48000 -0.789
61.50000 -1.435
61.52000 3.068
61.54000 4.663
61.56000 3.379
61.58000 4.068
61.60000 1.799
61.62000 7.762
61.64000 4.164
61.66000 3.904
61.68000 6.726
61.70000 1.612
61.72000 -2.672
61.74000 0.516
61.76000 2.585
61.78000 3.094
61.80000 3.818
61.82000 8.806
61.84000 6.179
61.86000 4.093
61.88000 4.432
61.90000 2.744
61.92000 1.762
61.94000 1.617
61.96000 2.487
61.98000 7.127
62.00000 4.896
62.02000 3.797
62.04000 3.407
62.06000 3.951
62.08000 1.112
62.10000 2.842
62.12000 4.322
62.14000 3.473
62.16000 3.467
62.18000 3.568
62.20000 3.260
62.22000 2.009
62.24000 1.636
62.26000 -0.473
62.28000 1.269
62.30000 6.594
62.32000 12.074
62.34000 10.170
62.36000 4.302
62.38000 1.941
62.40000 -0.455
62.42000 -2.394
62.44000 -2.018
62.46000 -1.173
62.48000 2.024
62.50000 4.329
62.52000 8.848
62.54000 6.741
62.56000 3.374
62.58000 -0.502
62.60000 -2.665
62.62000 4.252
62.64000 5.492
62.66000 5.839
62.68000 6.564
62.70000 4.666
62.72000 4.383
62.74000 3.686
62.76000 5.477
62.78000 2.327
62.80000 -0.647
62.82000 0.410
62.84000 3.227
62.86000 2.688
62.88000 3.402
62.90000 6.056
62.92000 8.040
62.94000 6.015
62.96000 5.043
62.98000 4.728
63.00000 3.705
63.02000 3.855
63.04000 2.287
63.06000 1.034
63.08000 1.441
63.10000 5.874
63.12000 10.918
63.14000 6.054
63.16000 5.588
63.18000 7.280
63.20000 4.774
63.22000 -2.665
63.24000 3.924
63.26000 6.168
63.28000 6.904
63.30000 2.373
63.32000 0.066
63.34000 2.818
63.36000 -1.100
63.38000 3.179
63.40000 10.205
63.42000 6.412
63.44000 6.278
63.46000 6.863
63.48000 7.402
63.50000 4.514
63.52000 2.041
63.54000 0.880
63.56000 3.478
63.58000 2.908
63.60000 3.262
63.62000 0.510
63.64000 1.612
63.66000 2.998
63.68000 6.097
63.70000 4.438
63.72000 5.920
63.74000 3.040
63.76000 -0.180
63.78000 -0.778
63.80000 3.023
63.82000 0.679
63.84000 3.090
63.86000 6.121
63.88000 5.939
63.90000 2.029
63.92000 1.315
63.94000 -2.355
63.96000 4.019
63.98000 6.549
64.00000 2.411
64.02000 4.159
64.04000 5.812
64.06000 3.392
64.08000 1.321
64.10000 2.621
64.12000 2.762
64.14000 1.239
64.16000 3.469
64.18000 1.886
64.20000 0.412
64.22000 5.580
64.24000 4.063
64.26000 0.071
64.28000 2.073
64.30000 0.479
64.32000 -2.595
64.34000 -2.700
64.36000 0.618
64.38000 1.392
64.40000 -1.377
64.42000 0.927
64.44000 2.901
64.46000 2.242
64.48000 2.234
64.50000 1.424
64.52000 0.207
64.54000 -1.294
64.56000 -1.096
64.58000 -0.559
64.60000 3.505
64.62000 3.178
64.64000 2.153
64.66000 -1.229
64.68000 3.215
64.70000 3.806
64.72000 1.895
64.74000 1.863
64.76000 2.172
64.78000 4.278
64.80000 2.596
64.82000 1.674
64.84000 0.714
64.86000 2.244
64.88000 4.874
64.90000 5.044
64.92000 -1.375
64.94000 -2.332
64.96000 0.584
64.98000 2.757
65.00000 -0.183
65.02000 -2.706
65.04000 1.709
65.06000 3.603
65.08000 2.974
65.10000 -0.184
65.12000 1.345
65.14000 1.179
65.16000 -2.197
65.18000 -1.652
65.20000 -1.575
65.22000 -1.579
65.24000 -0.938
65.26000 6.095
65.28000 6.182
65.30000 3.572
65.32000 0.368
65.34000 -1.316
65.36000 -1.048
65.38000 -1.577
65.40000 0.578
65.42000 1.634
65.44000 4.721
65.46000 6.604
65.48000 2.323
65.50000 3.015
65.52000 4.921
65.54000 5.613
65.56000 1.766
65.58000 2.123
65.60000 0.461
65.62000 1.948
65.64000 2.163
65.66000 -0.391
65.68000 -0.029
65.70000 3.520
65.72000 1.737
65.74000 0.641
65.76000 -1.478
65.78000 -2.709
65.80000 -0.216
65.82000 -1.025
65.84000 2.014
65.86000 2.172
65.88000 -0.034
65.90000 0.467
65.92000 4.465
65.94000 2.251
65.96000 -0.186
65.98000 0.145
66.00000 1.630
66.02000 0.966
66.04000 -1.806
66.06000 -1.884
66.08000 -1.034
66.10000 -2.033
66.12000 -2.604
66.14000 -1.377
66.16000 2.080
66.18000 0.621
66.20000 3.547
66.22000 4.107
66.24000 2.034
66.26000 3.327
66.28000 2.716
66.30000 1.482
66.32000 2.357
66.34000 -0.506
66.36000 -1.238
66.38000 0.864
66.40000 1.221
66.42000 0.569
66.44000 -1.240
66.46000 2.331
66.48000 5.346
66.50000 5.525
66.52000 4.063
66.54000 4.080
66.56000 0.189
66.58000 2.097
66.60000 3.955
66.62000 2.328
66.64000 -1.797
66.66000 -2.597
66.68000 1.116
66.70000 -2.730
66.72000 -1.807
66.74000 4.102
66.76000 2.157
66.78000 2.403
66.80000 5.658
66.82000 2.755
66.84000 1.419
66.86000 -1.426
66.88000 2.838
66.90000 1.240
66.92000 4.595
66.94000 0.836
66.96000 -0.970
66.98000 -0.012
67.00000 2.410
67.02000 4.647
67.04000 -0.241
67.06000 -0.914
67.08000 -1.152
67.10000 1.320
67.12000 1.677
67.14000 3.538
67.16000 -0.165
67.18000 -0.445
67.20000 1.762
67.22000 2.054
67.24000 4.127
67.26000 3.386
67.28000 0.095
67.30000 -0.561
67.32000 -2.768
67.34000 0.596
67.36000 0.692
67.38000 -0.070
67.40000 4.167
67.42000 4.796
67.44000 6.474
67.46000 1.901
67.48000 4.101
67.50000 4.413
67.52000 0.861
67.54000 0.537
67.56000 -1.222
67.58000 -0.253
67.60000 1.770
67.62000 4.813
67.64000 5.701
67.66000 2.481
67.68000 1.040
67.70000 -0.435
67.72000 2.025
67.74000 6.368
67.76000 2.270
67.78000 4.303
67.80000 7.800
67.82000 6.907
67.84000 6.620
67.86000 7.267
67.88000 5.372
67.90000 4.408
67.92000 3.700
67.94000 5.517
67.96000 4.486
67.98000 5.000
68.00000 7.223
68.02000 3.966
68.04000 7.742
68.06000 9.416
68.08000 7.063
68.10000 7.529
68.12000 12.355
68.14000 13.525
68.16000 10.004
68.18000 10.653
68.20000 11.679
68.22000 14.903
68.24000 18.525
68.26000 16.181
68.28000 17.180
68.30000 17.333
68.32000 13.244
68.34000 13.426
68.36000 15.306
68.38000 16.265
68.40000 14.358
68.42000 13.409
68.44000 19.328
68.46000 23.957
68.48000 28.943
68.50000 24.117
68.52000 19.389
68.54000 21.368
68.56000 24.822
68.58000 26.701
68.60000 24.749
68.62000 21.562
68.64000 22.168
68.66000 22.130
68.68000 25.866
68.70000 26.027
68.72000 30.351
68.74000 31.062
68.76000 28.559
68.78000 28.935
68.80000 30.671
68.82000 28.416
68.84000 24.675
68.86000 27.845
68.88000 28.264
68.90000 29.451
68.92000 30.357
68.94000 30.960
68.96000 32.105
68.98000 32.649
69.00000 29.946
69.02000 32.490
69.04000 34.062
69.06000 34.842
69.08000 35.288
69.10000 30.565
69.12000 27.492
69.14000 32.414
69.16000 29.290
69.18000 32.369
69.20000 34.371
69.22000 33.052
69.24000 30.031
69.26000 26.633
69.28000 25.014
69.30000 27.240
69.32000 25.808
69.34000 29.769
69.36000 27.897
69.38000 25.246
69.40000 28.340
69.42000 31.736
69.44000 29.982
69.46000 23.169
69.48000 21.613
69.50000 22.286
69.52000 20.716
69.54000 22.239
69.56000 21.061
69.58000 19.791
69.60000 18.297
69.62000 17.792
69.64000 19.817
69.66000 18.891
69.68000 19.505
69.70000 17.680
69.72000 18.452
69.74000 18.462
69.76000 15.562
69.78000 12.676
69.80000 11.404
69.82000 14.845
69.84000 15.996
69.86000 16.834
69.88000 10.542
69.90000 9.142
69.92000 8.701
69.94000 13.900
69.96000 13.618
69.98000 10.606
70.00000 10.540
70.02000 7.065
70.04000 7.327
70.06000 2.530
70.08000 5.075
70.10000 6.020
70.12000 2.275
70.14000 0.880
70.16000 1.567
70.18000 1.581
70.20000 0.930
70.22000 7.661
70.24000 7.687
70.26000 4.237
70.28000 4.685
70.30000 8.106
70.32000 5.312
70.34000 4.885
70.36000 0.455
70.38000 6.170
70.40000 2.789
70.42000 -1.973
70.44000 -1.367
70.46000 0.104
70.48000 0.981
70.50000 6.507
70.52000 4.232
70.54000 4.922
70.56000 3.490
70.58000 5.833
70.60000 6.997
70.62000 2.694
70.64000 0.027
70.66000 7.002
70.68000 5.893
70.70000 4.848
70.72000 3.758
70.74000 0.453
70.76000 -0.476
70.78000 2.477
70.80000 1.745
70.82000 0.018
70.84000 0.618
70.86000 2.826
70.88000 3.144
70.90000 5.608
70.92000 2.946
70.94000 1.655
70.96000 5.066
70.98000 3.659
71.00000 2.173
71.02000 3.428
71.04000 4.939
71.06000 6.299
71.08000 5.088
71.10000 8.986
71.12000 4.841
71.14000 4.220
71.16000 0.594
71.18000 -0.118
71.20000 3.391
71.22000 3.270
71.24000 3.188
71.26000 2.617
71.28000 2.809
71.30000 1.976
71.32000 2.468
71.34000 0.672
71.36000 2.409
71.38000 2.324
71.40000 8.402
71.42000 10.939
71.44000 5.259
71.46000 -2.539
71.48000 1.895
71.50000 0.007
71.52000 -0.480
71.54000 2.908
71.56000 3.504
71.58000 4.444
71.60000 4.426
71.62000 5.024
71.64000 7.182
71.66000 4.155
71.68000 3.543
71.70000 6.435
71.72000 4.781
71.74000 4.341
71.76000 5.859
71.78000 3.654
71.80000 0.286
71.82000 0.102
71.84000 -0.146
71.86000 2.582
71.88000 2.883
71.90000 8.746
71.92000 7.917
71.94000 4.574
71.96000 0.989
71.98000 1.236
72.00000 2.864
72.02000 4.607
72.04000 5.642
72.06000 2.174
72.08000 4.683
72.10000 5.697
72.12000 4.911
72.14000 5.870
72.16000 9.214
72.18000 3.555
72.20000 1.705
72.22000 6.242
72.24000 4.248
72.26000 3.829
72.28000 4.544
72.30000 -1.035
72.32000 2.682
72.34000 1.357
72.36000 2.606
72.38000 3.023
72.40000 0.550
72.42000 5.250
72.44000 10.616
72.46000 9.119
72.48000 5.014
72.50000 3.037
72.52000 6.270
72.54000 8.986
72.56000 7.646
72.58000 5.910
72.60000 5.969
72.62000 9.034
72.64000 5.298
72.66000 1.600
72.68000 4.519
72.70000 4.454
72.72000 -2.473
72.74000 1.445
72.76000 7.482
72.78000 6.816
72.80000 8.190
72.82000 8.464
72.84000 3.697
72.86000 8.090
72.88000 4.747
72.90000 0.531
72.92000 3.141
72.94000 3.021
72.96000 1.892
72.98000 -0.403
73.00000 2.149
73.02000 4.461
73.04000 5.225
73.06000 2.158
73.08000 -0.250
73.10000 4.810
73.12000 2.617
73.14000 -0.008
73.16000 1.913
73.18000 1.323
73.20000 5.269
73.22000 1.391
73.24000 1.822
73.26000 1.068
73.28000 2.549
73.30000 3.102
73.32000 2.655
73.34000 -1.381
73.36000 4.377
73.38000 10.479
73.40000 8.569
73.42000 5.118
73.44000 8.825
73.46000 10.783
73.48000 10.276
73.50000 3.433
73.52000 0.803
73.54000 -2.191
73.56000 -0.113
73.58000 4.454
73.60000 0.249
73.62000 3.301
73.64000 2.258
73.66000 4.892
73.68000 -2.476
73.70000 -0.866
73.72000 0.098
73.74000 1.509
73.76000 5.050
73.78000 6.453
73.80000 3.781
73.82000 5.679
73.84000 6.157
73.86000 6.655
73.88000 5.533
73.90000 4.627
73.92000 2.898
73.94000 0.781
73.96000 1.740
73.98000 1.619
74.00000 2.463
74.02000 -1.954
74.04000 0.788
74.06000 4.125
74.08000 1.375
74.10000 1.045
74.12000 3.963
74.14000 7.897
74.16000 7.228
74.18000 6.361
74.20000 7.978
74.22000 3.401
74.24000 1.957
74.26000 6.083
74.28000 6.295
74.30000 6.135
74.32000 6.363
74.34000 7.069
74.36000 5.389
74.38000 6.799
74.40000 8.196
74.42000 -1.891
74.44000 -0.164
74.46000 5.317
74.48000 6.539
74.50000 6.140
74.52000 3.367
74.54000 0.885
74.56000 3.022
74.58000 1.474
74.60000 0.215
74.62000 -2.464
74.64000 -0.327
74.66000 2.886
74.68000 2.145
74.70000 1.431
74.72000 0.979
74.74000 1.735
74.76000 6.487
74.78000 4.623
74.80000 5.116
74.82000 0.380
74.84000 -0.510
74.86000 3.767
74.88000 3.504
74.90000 2.500
74.92000 2.131
74.94000 0.027
74.96000 5.221
74.98000 1.826
75.00000 4.354
75.02000 5.713
75.04000 7.580
75.06000 6.073
75.08000 6.342
75.10000 3.861
75.12000 4.498
75.14000 2.856
75.16000 3.668
75.18000 6.496
75.20000 2.319
75.22000 1.928
75.24000 10.503
75.26000 7.050
75.28000 3.306
75.30000 3.439
75.32000 -0.163
75.34000 6.218
75.36000 0.864
75.38000 0.365
75.40000 -2.048
75.42000 3.020
75.44000 3.473
75.46000 1.378
75.48000 -0.085
75.50000 -0.174
75.52000 -0.179
75.54000 3.951
75.56000 7.651
75.58000 5.906
75.60000 2.666
75.62000 0.946
75.64000 9.515
75.66000 7.829
75.68000 5.445
75.70000 5.489
75.72000 4.226
75.74000 1.242
75.76000 7.175
75.78000 5.054
75.80000 8.243
75.82000 9.334
75.84000 2.844
75.86000 4.176
75.88000 4.950
75.90000 1.426
75.92000 1.488
75.94000 2.175
75.96000 3.252
75.98000 2.272
76.00000 7.003
76.02000 2.089
76.04000 4.655
76.06000 5.994
76.08000 8.679
76.10000 3.825
76.12000 1.633
76.14000 7.450
76.16000 12.664
76.18000 8.489
76.20000 5.626
76.22000 7.140
76.24000 -2.445
76.26000 0.050
76.28000 4.275
76.30000 6.718
76.32000 5.599
76.34000 5.562
76.36000 5.292
76.38000 7.661
76.40000 10.695
76.42000 10.134
76.44000 11.343
76.46000 10.073
76.48000 8.407
76.50000 5.073
76.52000 6.001
76.54000 1.685
76.56000 4.049
76.58000 7.798
76.60000 5.067
76.62000 2.820
76.64000 3.045
76.66000 4.070
76.68000 5.774
76.70000 3.841
76.72000 3.770
76.74000 2.367
76.76000 0.262
76.78000 4.707
76.80000 8.998
76.82000 3.135
76.84000 -0.930
76.86000 4.435
76.88000 11.274
76.90000 5.713
76.92000 6.360
76.94000 6.616
76.96000 -0.924
76.98000 0.547
77.00000 2.479
77.02000 3.568
77.04000 3.842
77.06000 2.546
77.08000 1.602
77.10000 1.118
77.12000 4.785
77.14000 3.734
77.16000 0.881
77.18000 -1.004
77.20000 3.260
77.22000 4.073
77.24000 2.859
77.26000 3.713
77.28000 4.680
77.30000 8.098
77.32000 5.810
77.34000 0.412
77.36000 1.595
77.38000 1.121
77.40000 -1.463
77.42000 5.179
77.44000 2.688
77.46000 0.491
77.48000 1.474
77.50000 2.553
77.52000 3.559
77.54000 11.079
77.56000 11.678
77.58000 7.113
77.60000 3.589
77.62000 -0.080
77.64000 3.968
77.66000 -1.246
77.68000 -1.395
77.70000 -0.293
77.72000 3.076
77.74000 1.138
77.76000 7.192
77.78000 5.256
77.80000 4.457
77.82000 8.031
77.84000 5.001
77.86000 2.054
77.88000 3.672
77.90000 6.804
77.92000 1.925
77.94000 -1.528
77.96000 1.321
77.98000 3.844
78.00000 4.680
78.02000 6.733
78.04000 5.231
78.06000 -1.066
78.08000 -1.197
78.10000 3.219
78.12000 3.310
78.14000 3.930
78.16000 5.530
78.18000 5.566
78.20000 3.115
78.22000 6.820
78.24000 6.501
78.26000 4.970
78.28000 2.346
78.30000 0.081
78.32000 -2.472
78.34000 3.735
78.36000 9.125
78.38000 9.140
78.40000 4.315
78.42000 4.112
78.44000 6.621
78.46000 10.629
78.48000 9.843
78.50000 5.800
78.52000 1.934
78.54000 1.029
78.56000 5.122
78.58000 4.300
78.60000 7.244
78.62000 7.058
78.64000 5.133
78.66000 6.955
78.68000 3.419
78.70000 0.217
78.72000 3.638
78.74000 7.285
78.76000 5.899
78.78000 5.478
78.80000 7.182
78.82000 1.401
78.84000 2.100
78.86000 6.911
78.88000 6.469
78.90000 -0.881
78.92000 2.269
78.94000 4.456
78.96000 3.166
78.98000 2.098
79.00000 0.397
79.02000 0.745
79.04000 4.219
79.06000 3.599
79.08000 2.359
79.10000 1.292
79.12000 3.022
79.14000 2.754
79.16000 0.085
79.18000 2.736
79.20000 4.378
79.22000 4.363
79.24000 7.388
79.26000 7.381
79.28000 4.524
79.30000 2.262
79.32000 3.645
79.34000 6.641
79.36000 7.130
79.38000 7.236
79.40000 5.690
79.42000 9.319
79.44000 3.536
79.46000 -1.019
79.48000 -1.780
79.50000 -1.709
79.52000 -0.462
79.54000 -2.508
79.56000 -0.398
79.58000 -2.450
79.60000 -1.661
79.62000 4.432
79.64000 6.057
79.66000 2.158
79.68000 6.695
79.70000 2.497
79.72000 3.075
79.74000 5.752
79.76000 8.462
79.78000 2.198
79.80000 -0.059
79.82000 5.506
79.84000 1.693
79.86000 -2.105
79.88000 1.517
79.90000 2.206
79.92000 4.784
79.94000 7.210
79.96000 -1.147
79.98000 4.522
80.00000 7.240
80.02000 12.068
80.04000 6.768
80.06000 6.671
80.08000 5.570
80.10000 7.502
80.12000 2.426
80.14000 -2.071
80.16000 0.990
80.18000 4.408
80.20000 2.830
80.22000 -0.141
80.24000 -2.557
80.26000 1.494
80.28000 4.150
80.30000 3.065
80.32000 2.678
80.34000 1.850
80.36000 6.008
80.38000 3.887
80.40000 8.483
80.42000 8.901
80.44000 4.043
80.46000 1.203
80.48000 2.635
80.50000 -1.228
80.52000 -0.763
80.54000 5.706
80.56000 7.624
80.58000 5.942
80.60000 3.121
80.62000 3.239
80.64000 3.436
80.66000 3.541
80.68000 2.336
80.70000 -0.013
80.72000 -0.023
80.74000 2.538
80.76000 1.852
80.78000 1.912
80.80000 3.475
80.82000 1.572
80.84000 1.857
80.86000 7.880
80.88000 3.095
80.90000 0.080
80.92000 4.305
80.94000 7.043
80.96000 4.842
80.98000 -2.609
81.00000 4.228
81.02000 0.177
81.04000 -1.401
81.06000 0.900
81.08000 -2.558
81.10000 0.648
81.12000 1.417
81.14000 2.631
81.16000 3.408
81.18000 9.138
81.20000 9.544
81.22000 11.340
81.24000 5.471
81.26000 1.137
81.28000 5.838
81.30000 5.275
81.32000 3.431
81.34000 4.591
81.36000 0.064
81.38000 -2.662
81.40000 1.925
81.42000 0.958
81.44000 4.169
81.46000 4.210
81.48000 8.979
81.50000 5.985
81.52000 4.368
81.54000 7.658
81.56000 11.305
81.58000 2.456
81.60000 4.389
81.62000 5.582
81.64000 4.134
81.66000 4.555
81.68000 -0.731
81.70000 -1.747
81.72000 2.845
81.74000 5.932
81.76000 3.998
81.78000 1.490
81.80000 6.576
81.82000 4.606
81.84000 3.812
81.86000 2.830
81.88000 8.507
81.90000 6.123
81.92000 10.607
81.94000 9.598
81.96000 10.634
81.98000 7.532
82.00000 4.777
82.02000 6.188
82.04000 6.062
82.06000 7.263
82.08000 9.072
82.10000 4.515
82.12000 6.446
82.14000 10.085
82.16000 5.233
82.18000 9.378
82.20000 9.119
82.22000 6.553
82.24000 8.365
82.26000 11.117
82.28000 11.929
82.30000 7.252
82.32000 7.604
82.34000 10.048
82.36000 13.094
82.38000 12.191
82.40000 10.387
82.42000 17.489
82.44000 15.398
82.46000 9.649
82.48000 12.078
82.50000 14.250
82.52000 10.173
82.54000 10.798
82.56000 9.765
82.58000 13.371
82.60000 15.837
82.62000 20.433
82.64000 19.996
82.66000 17.414
82.68000 18.353
82.70000 22.546
82.72000 24.313
82.74000 14.521
82.76000 15.599
82.78000 14.849
82.80000 15.625
82.82000 21.539
82.84000 20.865
82.86000 18.162
82.88000 14.748
82.90000 20.782
82.92000 26.605
82.94000 21.539
82.96000 20.865
82.98000 18.776
83.00000 20.547
83.02000 18.185
83.04000 16.676
83.06000 21.293
83.08000 20.649
83.10000 26.360
83.12000 26.684
83.14000 32.831
83.16000 31.711
83.18000 34.297
83.20000 24.295
83.22000 23.209
83.24000 23.703
83.26000 33.179
83.28000 29.458
83.30000 21.800
83.32000 31.205
83.34000 31.417
83.36000 31.502
83.38000 26.709
83.40000 36.472
83.42000 28.372
83.44000 26.866
83.46000 28.449
83.48000 31.040
83.50000 34.275
83.52000 31.377
83.54000 27.997
83.56000 36.466
83.58000 35.584
83.60000 28.779
83.62000 30.475
83.64000 27.886
83.66000 32.553
83.68000 35.530
83.70000 30.588
83.72000 27.852
83.74000 33.486
83.76000 25.200
83.78000 25.462
83.80000 31.319
83.82000 33.436
83.84000 30.028
83.86000 31.202
83.88000 28.467
83.90000 28.367
83.92000 24.287
83.94000 20.310
83.96000 22.444
83.98000 20.272
84.00000 21.343
84.02000 26.579
84.04000 25.156
84.06000 18.151
84.08000 13.619
84.10000 14.454
84.12000 15.400
84.14000 15.829
84.16000 15.618
84.18000 16.089
84.20000 16.792
84.22000 14.593
84.24000 11.004
84.26000 16.225
84.28000 17.891
84.30000 15.072
84.32000 10.476
84.34000 5.315
84.36000 17.276
84.38000 15.369
84.40000 12.888
84.42000 7.645
84.44000 8.727
84.46000 7.958
84.48000 4.762
84.50000 6.231
84.52000 8.877
84.54000 15.160
84.56000 11.815
84.58000 11.418
84.60000 9.703
84.62000 4.447
84.64000 4.199
84.66000 7.742
84.68000 12.474
84.70000 9.820
84.72000 8.323
84.74000 7.979
84.76000 7.117
84.78000 6.471
84.80000 11.449
84.82000 10.357
84.84000 9.843
84.86000 9.276
84.88000 9.873
84.90000 10.598
84.92000 4.008
84.94000 3.454
84.96000 3.710
84.98000 6.524
85.00000 -1.276
85.02000 -0.037
85.04000 -0.058
85.06000 0.938
85.08000 4.418
85.10000 3.061
85.12000 2.847
85.14000 3.007
85.16000 3.551
85.18000 -0.740
85.20000 3.272
85.22000 9.047
85.24000 4.227
85.26000 3.351
85.28000 1.379
85.30000 6.014
85.32000 10.878
85.34000 5.639
85.36000 1.603
85.38000 0.830
85.40000 4.408
85.42000 6.431
85.44000 4.567
85.46000 5.124
85.48000 1.086
85.50000 0.277
85.52000 0.158
85.54000 1.426
85.56000 1.292
85.58000 -2.344
85.60000 5.946
85.62000 5.899
85.64000 1.088
85.66000 2.230
85.68000 1.716
85.70000 3.571
85.72000 7.000
85.74000 4.106
85.76000 1.435
85.78000 -2.567
85.80000 1.522
85.82000 3.598
85.84000 4.186
85.86000 4.393
85.88000 5.592
85.90000 5.114
85.92000 1.323
85.94000 3.405
85.96000 2.130
85.98000 5.009
86.00000 3.852
86.02000 6.062
86.04000 3.513
86.06000 2.072
86.08000 2.158
86.10000 8.318
86.12000 3.472
86.14000 3.181
86.16000 7.509
86.18000 0.500
86.20000 0.621
86.22000 2.019
86.24000 1.742
86.26000 -2.325
86.28000 0.730
86.30000 4.412
86.32000 2.778
86.34000 4.278
86.36000 4.898
86.38000 8.863
86.40000 3.283
86.42000 1.429
86.44000 4.922
86.46000 2.107
86.48000 1.382
86.50000 5.330
86.52000 6.439
86.54000 2.130
86.56000 1.326
86.58000 0.937
86.60000 2.620
86.62000 2.438
86.64000 -1.060
86.66000 2.280
86.68000 4.159
86.70000 7.210
86.72000 8.591
86.74000 8.555
86.76000 8.192
86.78000 10.560
86.80000 7.925
86.82000 4.754
86.84000 8.454
86.86000 9.954
86.88000 8.341
86.90000 4.141
86.92000 4.941
86.94000 12.288
86.96000 15.963
86.98000 10.891
87.00000 8.081
87.02000 8.787
87.04000 10.153
87.06000 11.057
87.08000 10.885
87.10000 13.087
87.12000 12.647
87.14000 9.737
87.16000 13.739
87.18000 16.262
87.20000 14.062
87.22000 15.614
87.24000 14.478
87.26000 13.960
87.28000 13.892
87.30000 12.791
87.32000 16.082
87.34000 13.517
87.36000 23.201
87.38000 23.414
87.40000 19.808
87.42000 16.418
87.44000 16.528
87.46000 16.058
87.48000 20.174
87.50000 21.339
87.52000 25.254
87.54000 21.680
87.56000 23.826
87.58000 28.976
87.60000 25.931
87.62000 23.054
87.64000 31.615
87.66000 28.266
87.68000 27.675
87.70000 30.434
87.72000 29.366
87.74000 28.328
87.76000 24.974
87.78000 27.652
87.80000 25.963
87.82000 23.991
87.84000 24.983
87.86000 29.476
87.88000 26.477
87.90000 26.227
87.92000 28.860
87.94000 33.254
87.96000 29.009
87.98000 28.661
88.00000 30.688
88.02000 25.775
88.04000 23.328
88.06000 21.183
88.08000 23.263
88.10000 32.039
88.12000 24.218
88.14000 28.667
88.16000 31.813
88.18000 37.075
88.20000 35.319
88.22000 28.926
88.24000 23.934
88.26000 26.692
88.28000 30.946
88.30000 32.123
88.32000 26.302
88.34000 23.983
88.36000 24.581
88.38000 25.685
88.40000 29.049
88.42000 27.689
88.44000 26.586
88.46000 26.553
88.48000 18.264
88.50000 16.278
88.52000 23.724
88.54000 24.419
88.56000 20.870
88.58000 23.218
88.60000 18.389
88.62000 15.924
88.64000 17.008
88.66000 21.448
88.68000 19.561
88.70000 11.932
88.72000 9.246
88.74000 8.540
88.76000 9.131
88.78000 10.593
88.80000 12.175
88.82000 11.025
88.84000 9.200
88.86000 13.297
88.88000 12.731
88.90000 10.649
88.92000 6.355
88.94000 8.631
88.96000 13.566
88.98000 13.740
89.00000 10.456
89.02000 6.065
89.04000 5.479
89.06000 10.927
89.08000 10.523
89.10000 11.352
89.12000 8.877
89.14000 9.087
89.16000 9.087
89.18000 9.035
89.20000 6.879
89.22000 8.259
89.24000 4.843
89.26000 2.663
89.28000 2.759
89.30000 4.388
89.32000 4.870
89.34000 3.783
89.36000 5.861
89.38000 10.694
89.40000 12.549
89.42000 9.766
89.44000 5.570
89.46000 2.701
89.48000 2.240
89.50000 4.090
89.52000 -2.064
89.54000 -2.454
89.56000 2.585
89.58000 6.210
89.60000 5.364
89.62000 6.524
89.64000 6.791
89.66000 10.986
89.68000 4.280
89.70000 1.445
89.72000 3.027
89.74000 2.551
89.76000 4.553
89.78000 6.479
89.80000 11.348
89.82000 4.185
89.84000 4.408
89.86000 0.150
89.88000 -2.434
89.90000 -1.059
89.92000 -1.312
89.94000 -2.431
89.96000 0.714
89.98000 6.467
90.00000 6.387
90.02000 5.079
90.04000 4.927
90.06000 0.851
90.08000 3.358
90.10000 -0.921
90.12000 1.683
90.14000 6.387
90.16000 8.688
90.18000 0.409
90.20000 5.679
90.22000 0.042
90.24000 4.653
90.26000 3.799
90.28000 7.416
90.30000 5.797
90.32000 8.437
90.34000 14.336
90.36000 8.274
90.38000 7.061
90.40000 6.282
90.42000 3.015
90.44000 6.707
90.46000 8.646
90.48000 7.356
90.50000 -0.144
90.52000 2.908
90.54000 4.576
90.56000 4.432
90.58000 3.493
90.60000 -1.743
90.62000 0.575
90.64000 1.866
90.66000 -2.368
90.68000 2.585
90.70000 4.022
90.72000 1.983
90.74000 -0.121
90.76000 -2.055
90.78000 4.056
90.80000 7.693
90.82000 4.288
90.84000 3.968
90.86000 4.844
90.88000 4.123
90.90000 2.705
90.92000 -1.919
90.94000 -0.940
90.96000 0.984
90.98000 1.752
91.00000 -1.632
91.02000 1.955
91.04000 1.307
91.06000 -0.560
91.08000 -0.677
91.10000 1.057
91.12000 3.196
91.14000 6.856
91.16000 4.014
91.18000 3.982
91.20000 5.732
91.22000 0.277
91.24000 3.086
91.26000 5.198
91.28000 -0.492
91.30000 0.835
91.32000 9.732
91.34000 6.344
91.36000 5.961
91.38000 5.232
91.40000 2.924
91.42000 -0.558
91.44000 -2.367
91.46000 0.129
91.48000 4.449
91.50000 -1.312
91.52000 1.510
91.54000 -0.379
91.56000 -0.514
91.58000 2.796
91.60000 2.026
91.62000 3.263
91.64000 6.255
91.66000 3.391
91.68000 2.411
91.70000 2.899
91.72000 4.351
91.74000 5.421
91.76000 3.498
91.78000 5.662
91.80000 5.986
91.82000 9.662
91.84000 3.497
91.86000 5.729
91.88000 9.558
91.90000 2.051
91.92000 4.047
91.94000 1.870
91.96000 -1.932
91.98000 5.955
92.00000 11.189
92.02000 6.321
92.04000 0.181
92.06000 2.566
92.08000 4.291
92.10000 4.426
92.12000 0.177
92.14000 0.817
92.16000 -1.388
92.18000 -0.555
92.20000 7.200
92.22000 1.757
92.24000 5.289
92.26000 6.211
92.28000 7.785
92.30000 3.977
92.32000 3.356
92.34000 4.790
92.36000 9.409
92.38000 9.835
92.40000 7.199
92.42000 -3.768
92.44000 4.534
92.46000 3.855
92.48000 1.032
92.50000 3.754
92.52000 4.225
92.54000 4.408
92.56000 3.568
92.58000 3.568
92.60000 5.665
92.62000 3.975
92.64000 2.994
92.66000 -0.761
92.68000 -1.271
92.70000 6.207
92.72000 9.263
92.74000 10.893
92.76000 12.619
92.78000 6.670
92.80000 5.647
92.82000 7.519
92.84000 7.240
92.86000 1.515
92.88000 1.094
92.90000 7.735
92.92000 8.671
92.94000 8.500
92.96000 3.999
92.98000 3.276
93.00000 2.552
93.02000 6.428
93.04000 -0.554
93.06000 4.704
93.08000 7.171
93.10000 11.135
93.12000 10.516
93.14000 3.522
93.16000 -1.506
93.18000 -2.319
93.20000 0.063
93.22000 4.153
93.24000 11.209
93.26000 5.122
93.28000 0.471
93.30000 6.679
93.32000 9.658
93.34000 2.958
93.36000 0.265
93.38000 1.307
93.40000 0.388
93.42000 0.886
93.44000 2.308
93.46000 6.548
93.48000 4.295
93.50000 -0.582
93.52000 6.994
93.54000 9.415
93.56000 7.435
93.58000 4.529
93.60000 3.342
93.62000 2.937
93.64000 9.931
93.66000 10.217
93.68000 4.632
93.70000 -0.217
93.72000 3.012
93.74000 4.801
93.76000 1.791
93.78000 2.254
93.80000 7.591
93.82000 6.846
93.84000 7.790
93.86000 4.727
93.88000 -0.629
93.90000 -0.071
93.92000 8.208
93.94000 12.926
93.96000 3.419
93.98000 4.633
94.00000 7.475
94.02000 4.150
94.04000 2.929
94.06000 2.682
94.08000 3.635
94.10000 5.226
94.12000 6.702
94.14000 3.512
94.16000 -2.332
94.18000 4.735
94.20000 5.677
94.22000 3.564
94.24000 3.535
94.26000 5.846
94.28000 5.728
94.30000 7.603
94.32000 7.537
94.34000 4.448
94.36000 6.448
94.38000 7.327
94.40000 5.737
94.42000 5.035
94.44000 8.540
94.46000 5.638
94.48000 4.496
94.50000 6.161
94.52000 6.382
94.54000 8.488
94.56000 13.543
94.58000 14.127
94.60000 6.051
94.62000 11.161
94.64000 3.558
94.66000 4.563
94.68000 11.696
94.70000 6.797
94.72000 3.761
94.74000 2.097
94.76000 7.430
94.78000 8.032
94.80000 6.070
94.82000 6.885
94.84000 6.244
94.86000 6.812
94.88000 5.951
94.90000 5.509
94.92000 5.771
94.94000 4.332
94.96000 1.463
94.98000 3.085
95.00000 5.390
95.02000 10.317
95.04000 11.088
95.06000 7.560
95.08000 4.590
95.10000 7.325
95.12000 5.489
95.14000 -2.316
95.16000 -0.845
95.18000 3.487
95.20000 7.751
95.22000 8.760
95.24000 5.281
95.26000 6.161
95.28000 4.531
95.30000 8.106
95.32000 6.844
95.34000 4.112
95.36000 5.741
95.38000 9.307
95.40000 11.575
95.42000 12.181
95.44000 9.737
95.46000 7.794
95.48000 5.551
95.50000 5.385
95.52000 4.617
95.54000 8.651
95.56000 8.375
95.58000 4.252
95.60000 2.869
95.62000 6.154
95.64000 5.733
95.66000 5.732
95.68000 7.299
95.70000 6.983
95.72000 7.421
95.74000 6.583
95.76000 6.331
95.78000 12.144
95.80000 6.979
95.82000 7.222
95.84000 6.318
95.86000 1.768
95.88000 3.390
95.90000 3.328
95.92000 10.266
95.94000 10.275
95.96000 3.774
95.98000 2.383
96.00000 0.070
96.02000 7.140
96.04000 4.316
96.06000 1.446
96.08000 5.415
96.10000 7.068
96.12000 1.239
96.14000 1.228
96.16000 6.284
96.18000 2.588
96.20000 6.551
96.22000 3.214
96.24000 4.480
96.26000 9.113
96.28000 3.060
96.30000 1.421
96.32000 4.259
96.34000 5.112
96.36000 3.529
96.38000 10.329
96.40000 13.478
96.42000 8.151
96.44000 4.911
96.46000 3.611
96.48000 2.183
96.50000 3.546
96.52000 -0.533
96.54000 0.665
96.56000 12.066
96.58000 8.525
96.60000 3.242
96.62000 -0.166
96.64000 2.485
96.66000 -1.991
96.68000 4.633
96.70000 10.550
96.72000 8.977
96.74000 6.602
96.76000 8.197
96.78000 5.942
96.80000 3.638
96.82000 8.843
96.84000 6.824
96.86000 11.816
96.88000 14.830
96.90000 12.136
96.92000 10.417
96.94000 7.180
96.96000 2.505
96.98000 5.661
97.00000 5.527
97.02000 10.402
97.04000 8.949
97.06000 5.297
97.08000 7.535
97.10000 8.167
97.12000 -0.343
97.14000 5.524
97.16000 13.037
97.18000 3.230
97.20000 -2.296
97.22000 8.008
97.24000 12.035
97.26000 9.705
97.28000 5.492
97.30000 8.175
97.32000 2.281
97.34000 2.431
97.36000 2.411
97.38000 3.299
97.40000 11.132
97.42000 3.828
97.44000 3.984
97.46000 10.273
97.48000 8.335
97.50000 8.776
97.52000 11.364
97.54000 7.979
97.56000 5.174
97.58000 8.602
97.60000 7.169
97.62000 5.410
97.64000 6.353
97.66000 9.527
97.68000 7.206
97.70000 6.709
97.72000 5.418
97.74000 -1.960
97.76000 6.427
97.78000 9.206
97.80000 1.903
97.82000 7.573
97.84000 4.568
97.86000 6.412
97.88000 11.361
97.90000 9.909
97.92000 9.120
97.94000 7.985
97.96000 4.116
97.98000 3.552
98.00000 1.795
98.02000 0.628
98.04000 16.189
98.06000 13.615
98.08000 6.344
98.10000 1.687
98.12000 -2.328
98.14000 -2.243
98.16000 -0.403
98.18000 7.917
98.20000 10.304
98.22000 15.977
98.24000 6.157
98.26000 0.387
98.28000 6.200
98.30000 0.883
98.32000 4.442
98.34000 3.828
98.36000 2.056
98.38000 1.391
98.40000 8.206
98.42000 17.624
98.44000 7.487
98.46000 4.907
98.48000 2.209
98.50000 8.664
98.52000 8.967
98.54000 6.153
98.56000 1.099
98.58000 -2.321
98.60000 5.176
98.62000 -3.659
98.64000 7.387
98.66000 9.104
98.68000 -0.938
98.70000 1.821
98.72000 6.480
98.74000 9.652
98.76000 19.676
98.78000 5.317
98.80000 7.910
98.82000 4.831
98.84000 -0.253
98.86000 3.013
98.88000 3.308
98.90000 5.768
98.92000 6.313
98.94000 7.334
98.96000 13.617
98.98000 11.851
99.00000 7.557
99.02000 2.749
99.04000 4.417
99.06000 3.819
99.08000 3.599
99.10000 4.782
99.12000 11.556
99.14000 5.114
99.16000 -0.980
99.18000 2.965
99.20000 4.180
99.22000 2.232
99.24000 5.147
99.26000 12.126
99.28000 10.814
99.30000 12.628
99.32000 6.275
99.34000 2.051
99.36000 9.378
99.38000 4.445
99.40000 12.459
99.42000 12.993
99.44000 1.749
99.46000 10.358
99.48000 14.329
99.50000 1.354
99.52000 5.197
99.54000 6.976
99.56000 11.092
99.58000 4.071
99.60000 8.206
99.62000 12.427
99.64000 16.237
99.66000 6.926
99.68000 5.282
99.70000 2.840
99.72000 0.814
99.74000 -0.856
99.76000 -4.674
99.78000 11.998
99.80000 23.821
99.82000 23.734
99.84000 12.501
99.86000 24.174
99.88000 5.442
99.90000 -7.159
99.92000 1.356
99.94000 1.806
99.96000 0.792
99.98000 0.000
