'Id: "0011388" Comment: "Integrate frame 0011388_Au-Ir-Rh_Rh-rich_XRD-Mapping-224-0000.gfrmwith cursor Wedge Cursor #5" Operator: "B?rgel" Anode: "Cu" Wavelength: "1.5406" Scantype: "2Theta (TwoTheta)" TimePerStep: "1" X: "-27" Y: "13.5" Z: "5.95" 
10.00000 0.000
10.02000 7.959
10.04000 -4.521
10.06000 2.127
10.08000 -3.698
10.10000 -2.026
10.12000 17.549
10.14000 11.019
10.16000 -4.450
10.18000 -1.165
10.20000 2.004
10.22000 8.818
10.24000 20.204
10.26000 12.232
10.28000 27.889
10.30000 15.294
10.32000 9.767
10.34000 20.178
10.36000 0.933
10.38000 2.060
10.40000 -1.564
10.42000 16.557
10.44000 20.375
10.46000 16.428
10.48000 -2.291
10.50000 0.428
10.52000 11.565
10.54000 1.373
10.56000 6.271
10.58000 13.933
10.60000 3.606
10.62000 3.543
10.64000 9.984
10.66000 18.538
10.68000 13.629
10.70000 5.535
10.72000 7.757
10.74000 6.610
10.76000 3.992
10.78000 2.387
10.80000 16.831
10.82000 15.294
10.84000 0.881
10.86000 18.682
10.88000 13.164
10.90000 12.273
10.92000 15.384
10.94000 21.575
10.96000 4.902
10.98000 -2.599
11.00000 12.124
11.02000 12.664
11.04000 23.616
11.06000 16.647
11.08000 7.891
11.10000 11.414
11.12000 9.953
11.14000 24.533
11.16000 9.387
11.18000 -2.830
11.20000 2.060
11.22000 8.868
11.24000 16.279
11.26000 18.955
11.28000 23.520
11.30000 26.757
11.32000 18.272
11.34000 8.349
11.36000 4.124
11.38000 6.523
11.40000 11.299
11.42000 20.350
11.44000 22.508
11.46000 17.411
11.48000 17.537
11.50000 13.231
11.52000 6.425
11.54000 13.194
11.56000 23.153
11.58000 14.547
11.60000 6.536
11.62000 9.947
11.64000 14.584
11.66000 16.155
11.68000 7.483
11.70000 9.135
11.72000 13.148
11.74000 13.073
11.76000 21.314
11.78000 13.795
11.80000 11.498
11.82000 16.774
11.84000 5.936
11.86000 6.715
11.88000 4.360
11.90000 16.535
11.92000 11.991
11.94000 4.143
11.96000 8.382
11.98000 8.627
12.00000 9.030
12.02000 3.767
12.04000 7.207
12.06000 13.247
12.08000 5.790
12.10000 7.092
12.12000 5.321
12.14000 12.799
12.16000 18.149
12.18000 12.022
12.20000 12.831
12.22000 5.565
12.24000 20.509
12.26000 4.791
12.28000 -4.455
12.30000 3.365
12.32000 7.763
12.34000 19.186
12.36000 27.115
12.38000 5.157
12.40000 7.400
12.42000 12.419
12.44000 8.984
12.46000 16.744
12.48000 16.846
12.50000 14.494
12.52000 11.068
12.54000 9.800
12.56000 10.873
12.58000 16.806
12.60000 13.689
12.62000 15.728
12.64000 17.564
12.66000 17.290
12.68000 16.509
12.70000 7.818
12.72000 11.324
12.74000 16.067
12.76000 18.091
12.78000 9.240
12.80000 15.816
12.82000 14.146
12.84000 8.832
12.86000 16.608
12.88000 5.262
12.90000 13.458
12.92000 12.833
12.94000 12.196
12.96000 15.055
12.98000 10.701
13.00000 9.284
13.02000 13.148
13.04000 15.765
13.06000 16.504
13.08000 14.925
13.10000 13.339
13.12000 14.576
13.14000 6.672
13.16000 10.243
13.18000 13.304
13.20000 17.115
13.22000 23.424
13.24000 13.349
13.26000 5.603
13.28000 1.596
13.30000 8.062
13.32000 20.113
13.34000 23.115
13.36000 30.367
13.38000 12.694
13.40000 10.538
13.42000 13.375
13.44000 8.640
13.46000 1.918
13.48000 -4.055
13.50000 10.828
13.52000 17.191
13.54000 11.525
13.56000 14.009
13.58000 17.614
13.60000 9.471
13.62000 10.427
13.64000 9.822
13.66000 13.161
13.68000 16.194
13.70000 20.440
13.72000 17.591
13.74000 7.749
13.76000 5.141
13.78000 8.586
13.80000 2.395
13.82000 7.959
13.84000 6.171
13.86000 4.423
13.88000 0.265
13.90000 8.023
13.92000 10.326
13.94000 17.190
13.96000 18.030
13.98000 5.073
14.00000 5.974
14.02000 7.534
14.04000 2.736
14.06000 9.288
14.08000 22.065
14.10000 12.248
14.12000 11.523
14.14000 11.718
14.16000 12.718
14.18000 8.347
14.20000 10.955
14.22000 8.807
14.24000 14.058
14.26000 8.649
14.28000 6.057
14.30000 4.265
14.32000 4.864
14.34000 -4.476
14.36000 -4.035
14.38000 7.908
14.40000 9.978
14.42000 14.085
14.44000 21.196
14.46000 15.361
14.48000 10.095
14.50000 14.291
14.52000 9.848
14.54000 4.855
14.56000 6.274
14.58000 15.624
14.60000 9.694
14.62000 6.603
14.64000 0.537
14.66000 7.732
14.68000 7.827
14.70000 14.073
14.72000 2.584
14.74000 -2.561
14.76000 -0.015
14.78000 3.547
14.80000 7.102
14.82000 11.364
14.84000 12.497
14.86000 11.686
14.88000 9.984
14.90000 -1.507
14.92000 -1.477
14.94000 10.538
14.96000 11.180
14.98000 15.174
15.00000 11.941
15.02000 14.711
15.04000 15.848
15.06000 8.112
15.08000 6.331
15.10000 3.321
15.12000 8.152
15.14000 2.387
15.16000 1.387
15.18000 3.749
15.20000 5.138
15.22000 6.875
15.24000 6.713
15.26000 11.425
15.28000 4.456
15.30000 3.973
15.32000 0.684
15.34000 4.345
15.36000 13.821
15.38000 14.914
15.40000 12.365
15.42000 11.437
15.44000 9.733
15.46000 3.791
15.48000 2.093
15.50000 4.826
15.52000 0.906
15.54000 5.120
15.56000 14.079
15.58000 8.944
15.60000 5.180
15.62000 1.711
15.64000 1.287
15.66000 3.061
15.68000 3.419
15.70000 3.810
15.72000 -4.251
15.74000 1.026
15.76000 6.268
15.78000 4.676
15.80000 -0.175
15.82000 2.847
15.84000 -0.047
15.86000 6.691
15.88000 9.461
15.90000 5.424
15.92000 3.416
15.94000 -1.633
15.96000 2.167
15.98000 8.148
16.00000 0.980
16.02000 0.114
16.04000 -1.154
16.06000 3.662
16.08000 10.235
16.10000 4.543
16.12000 -3.896
16.14000 -0.336
16.16000 4.439
16.18000 5.160
16.20000 7.414
16.22000 3.503
16.24000 4.588
16.26000 4.317
16.28000 0.218
16.30000 -2.344
16.32000 0.074
16.34000 5.156
16.36000 6.654
16.38000 5.745
16.40000 6.942
16.42000 8.227
16.44000 11.173
16.46000 11.725
16.48000 5.730
16.50000 5.737
16.52000 9.844
16.54000 7.949
16.56000 7.693
16.58000 6.633
16.60000 8.287
16.62000 6.795
16.64000 0.619
16.66000 2.935
16.68000 9.070
16.70000 8.489
16.72000 8.360
16.74000 4.059
16.76000 8.277
16.78000 15.811
16.80000 7.623
16.82000 2.105
16.84000 1.661
16.86000 3.084
16.88000 2.056
16.90000 1.837
16.92000 6.057
16.94000 -2.591
16.96000 -4.412
16.98000 3.476
17.00000 11.882
17.02000 6.181
17.04000 -2.183
17.06000 1.218
17.08000 3.492
17.10000 0.956
17.12000 -0.033
17.14000 3.075
17.16000 2.695
17.18000 4.859
17.20000 7.050
17.22000 -0.970
17.24000 -0.455
17.26000 8.551
17.28000 4.774
17.30000 -2.003
17.32000 2.734
17.34000 -0.049
17.36000 -0.958
17.38000 5.369
17.40000 10.875
17.42000 13.555
17.44000 12.769
17.46000 9.189
17.48000 6.619
17.50000 8.788
17.52000 5.683
17.54000 7.240
17.56000 4.530
17.58000 -3.869
17.60000 3.874
17.62000 4.295
17.64000 0.629
17.66000 -4.373
17.68000 4.796
17.70000 4.266
17.72000 4.558
17.74000 -0.693
17.76000 0.418
17.78000 1.964
17.80000 0.289
17.82000 -3.263
17.84000 -0.055
17.86000 2.915
17.88000 4.629
17.90000 6.438
17.92000 6.400
17.94000 10.321
17.96000 6.261
17.98000 4.411
18.00000 4.915
18.02000 0.591
18.04000 4.952
18.06000 10.977
18.08000 8.329
18.10000 1.419
18.12000 7.234
18.14000 5.882
18.16000 -3.158
18.18000 -2.219
18.20000 0.786
18.22000 -0.083
18.24000 -2.786
18.26000 2.154
18.28000 9.776
18.30000 13.222
18.32000 14.639
18.34000 8.880
18.36000 6.217
18.38000 3.766
18.40000 0.322
18.42000 2.972
18.44000 5.747
18.46000 3.812
18.48000 -1.929
18.50000 1.353
18.52000 6.212
18.54000 10.477
18.56000 8.952
18.58000 4.714
18.60000 0.187
18.62000 -2.546
18.64000 -0.886
18.66000 1.443
18.68000 -1.711
18.70000 -0.507
18.72000 3.875
18.74000 -4.329
18.76000 -2.924
18.78000 -1.492
18.80000 6.314
18.82000 8.962
18.84000 14.321
18.86000 9.057
18.88000 6.114
18.90000 5.225
18.92000 5.139
18.94000 3.500
18.96000 3.900
18.98000 2.557
19.00000 7.901
19.02000 6.340
19.04000 4.575
19.06000 -0.864
19.08000 2.731
19.10000 3.194
19.12000 4.798
19.14000 10.105
19.16000 5.290
19.18000 5.801
19.20000 12.540
19.22000 13.731
19.24000 0.529
19.26000 0.009
19.28000 5.399
19.30000 -3.154
19.32000 -2.232
19.34000 3.077
19.36000 3.374
19.38000 4.333
19.40000 0.549
19.42000 1.179
19.44000 3.961
19.46000 -0.887
19.48000 -0.304
19.50000 4.549
19.52000 5.877
19.54000 4.306
19.56000 1.639
19.58000 3.257
19.60000 -1.361
19.62000 -2.741
19.64000 -4.259
19.66000 0.485
19.68000 2.325
19.70000 1.439
19.72000 0.685
19.74000 5.035
19.76000 9.024
19.78000 4.561
19.80000 0.632
19.82000 1.760
19.84000 1.658
19.86000 4.229
19.88000 6.729
19.90000 1.650
19.92000 4.764
19.94000 4.948
19.96000 -0.906
19.98000 -2.004
20.00000 -2.184
20.02000 3.325
20.04000 3.242
20.06000 0.525
20.08000 8.646
20.10000 12.731
20.12000 8.336
20.14000 2.963
20.16000 4.042
20.18000 8.583
20.20000 4.683
20.22000 -1.299
20.24000 2.150
20.26000 -0.374
20.28000 7.436
20.30000 2.086
20.32000 2.683
20.34000 -2.593
20.36000 5.425
20.38000 0.588
20.40000 -1.843
20.42000 2.439
20.44000 2.200
20.46000 -1.919
20.48000 5.951
20.50000 3.909
20.52000 -3.048
20.54000 -1.083
20.56000 -0.844
20.58000 -1.247
20.60000 0.478
20.62000 4.779
20.64000 7.041
20.66000 6.253
20.68000 10.766
20.70000 2.022
20.72000 -1.462
20.74000 -2.633
20.76000 -4.180
20.78000 -2.821
20.80000 3.870
20.82000 4.227
20.84000 4.909
20.86000 1.556
20.88000 5.078
20.90000 4.239
20.92000 5.161
20.94000 0.731
20.96000 -3.605
20.98000 -1.066
21.00000 5.546
21.02000 4.624
21.04000 2.225
21.06000 3.426
21.08000 10.226
21.10000 7.474
21.12000 10.513
21.14000 11.805
21.16000 6.695
21.18000 4.266
21.20000 8.611
21.22000 11.756
21.24000 11.278
21.26000 10.298
21.28000 9.617
21.30000 16.559
21.32000 10.972
21.34000 2.483
21.36000 0.412
21.38000 6.035
21.40000 5.749
21.42000 5.899
21.44000 7.877
21.46000 8.881
21.48000 8.766
21.50000 6.828
21.52000 12.584
21.54000 10.515
21.56000 10.813
21.58000 12.457
21.60000 13.015
21.62000 5.122
21.64000 3.530
21.66000 7.076
21.68000 12.013
21.70000 11.234
21.72000 6.035
21.74000 -4.080
21.76000 2.266
21.78000 10.222
21.80000 7.372
21.82000 10.971
21.84000 16.798
21.86000 15.297
21.88000 12.501
21.90000 12.555
21.92000 10.222
21.94000 7.727
21.96000 4.467
21.98000 8.052
22.00000 0.524
22.02000 1.146
22.04000 10.245
22.06000 12.016
22.08000 12.345
22.10000 0.635
22.12000 -4.076
22.14000 -1.894
22.16000 8.134
22.18000 9.734
22.20000 7.702
22.22000 6.982
22.24000 8.832
22.26000 7.887
22.28000 0.777
22.30000 7.177
22.32000 11.936
22.34000 7.084
22.36000 7.363
22.38000 8.024
22.40000 4.233
22.42000 7.351
22.44000 11.967
22.46000 13.431
22.48000 5.829
22.50000 -0.594
22.52000 4.670
22.54000 5.254
22.56000 6.746
22.58000 3.376
22.60000 7.669
22.62000 7.055
22.64000 9.110
22.66000 4.143
22.68000 0.465
22.70000 0.916
22.72000 2.267
22.74000 5.800
22.76000 6.475
22.78000 8.500
22.80000 6.028
22.82000 8.781
22.84000 5.386
22.86000 2.597
22.88000 4.505
22.90000 1.407
22.92000 3.659
22.94000 7.548
22.96000 1.633
22.98000 7.076
23.00000 0.055
23.02000 3.563
23.04000 7.473
23.06000 5.352
23.08000 4.923
23.10000 1.027
23.12000 -0.475
23.14000 2.105
23.16000 4.476
23.18000 -4.007
23.20000 -4.074
23.22000 0.838
23.24000 4.437
23.26000 3.340
23.28000 2.347
23.30000 7.794
23.32000 6.753
23.34000 5.559
23.36000 2.903
23.38000 4.900
23.40000 3.539
23.42000 3.602
23.44000 7.978
23.46000 6.228
23.48000 2.510
23.50000 1.565
23.52000 -1.533
23.54000 0.610
23.56000 5.914
23.58000 5.105
23.60000 5.527
23.62000 4.081
23.64000 6.129
23.66000 5.584
23.68000 5.166
23.70000 1.235
23.72000 1.713
23.74000 1.686
23.76000 0.670
23.78000 -0.279
23.80000 5.220
23.82000 4.089
23.84000 3.076
23.86000 7.232
23.88000 9.775
23.90000 11.367
23.92000 2.660
23.94000 -1.965
23.96000 2.400
23.98000 1.172
24.00000 2.852
24.02000 -0.196
24.04000 -2.603
24.06000 1.708
24.08000 1.466
24.10000 3.066
24.12000 2.688
24.14000 1.185
24.16000 1.870
24.18000 1.258
24.20000 6.311
24.22000 6.802
24.24000 4.807
24.26000 1.156
24.28000 -1.926
24.30000 -0.478
24.32000 1.990
24.34000 7.347
24.36000 -2.225
24.38000 2.078
24.40000 5.626
24.42000 4.611
24.44000 3.978
24.46000 2.662
24.48000 -0.414
24.50000 0.580
24.52000 2.470
24.54000 0.714
24.56000 -2.279
24.58000 5.198
24.60000 1.948
24.62000 4.134
24.64000 2.782
24.66000 -3.990
24.68000 -1.127
24.70000 4.942
24.72000 6.217
24.74000 7.237
24.76000 2.592
24.78000 3.937
24.80000 0.964
24.82000 1.301
24.84000 3.850
24.86000 0.411
24.88000 -0.689
24.90000 0.098
24.92000 -0.131
24.94000 4.471
24.96000 5.091
24.98000 4.076
25.00000 10.759
25.02000 5.145
25.04000 -0.401
25.06000 1.810
25.08000 -3.759
25.10000 -2.698
25.12000 -3.973
25.14000 -1.766
25.16000 -3.433
25.18000 1.599
25.20000 3.590
25.22000 -1.668
25.24000 2.667
25.26000 2.970
25.28000 0.534
25.30000 -0.039
25.32000 -0.506
25.34000 3.753
25.36000 0.109
25.38000 3.551
25.40000 -0.947
25.42000 -3.531
25.44000 -1.748
25.46000 -1.044
25.48000 -2.053
25.50000 -0.461
25.52000 -1.275
25.54000 -1.454
25.56000 -3.965
25.58000 -0.507
25.60000 0.789
25.62000 1.468
25.64000 3.198
25.66000 0.250
25.68000 0.663
25.70000 0.857
25.72000 -2.572
25.74000 3.135
25.76000 5.445
25.78000 -2.294
25.80000 -1.942
25.82000 5.017
25.84000 4.007
25.86000 0.581
25.88000 -0.272
25.90000 4.152
25.92000 3.146
25.94000 0.986
25.96000 1.604
25.98000 1.155
26.00000 1.725
26.02000 5.192
26.04000 2.537
26.06000 2.743
26.08000 2.362
26.10000 3.520
26.12000 3.648
26.14000 1.098
26.16000 -2.685
26.18000 -2.444
26.20000 -3.067
26.22000 -0.913
26.24000 -2.335
26.26000 4.680
26.28000 4.550
26.30000 1.086
26.32000 -0.332
26.34000 -1.722
26.36000 -2.821
26.38000 3.331
26.40000 2.709
26.42000 -0.135
26.44000 -1.210
26.46000 -1.612
26.48000 -3.169
26.50000 -1.541
26.52000 0.677
26.54000 0.811
26.56000 -3.917
26.58000 -0.971
26.60000 2.985
26.62000 4.184
26.64000 4.503
26.66000 4.449
26.68000 0.646
26.70000 -0.499
26.72000 -1.230
26.74000 -3.096
26.76000 2.303
26.78000 -1.155
26.80000 3.040
26.82000 4.942
26.84000 3.080
26.86000 1.894
26.88000 1.120
26.90000 -0.098
26.92000 -3.899
26.94000 0.910
26.96000 3.070
26.98000 0.413
27.00000 0.557
27.02000 2.971
27.04000 3.280
27.06000 0.870
27.08000 -0.081
27.10000 2.444
27.12000 2.073
27.14000 1.783
27.16000 -0.897
27.18000 -0.570
27.20000 1.212
27.22000 2.867
27.24000 6.351
27.26000 8.053
27.28000 5.189
27.30000 2.461
27.32000 -1.676
27.34000 -0.388
27.36000 1.295
27.38000 2.597
27.40000 0.193
27.42000 -0.750
27.44000 -3.584
27.46000 -2.610
27.48000 0.892
27.50000 3.866
27.52000 0.863
27.54000 -0.727
27.56000 -3.044
27.58000 -1.885
27.60000 1.400
27.62000 2.089
27.64000 6.455
27.66000 -1.153
27.68000 -2.769
27.70000 -3.607
27.72000 -1.507
27.74000 0.174
27.76000 -1.759
27.78000 -1.593
27.80000 -1.418
27.82000 -3.832
27.84000 -0.043
27.86000 2.730
27.88000 3.215
27.90000 2.261
27.92000 3.229
27.94000 -0.950
27.96000 3.264
27.98000 1.164
28.00000 5.938
28.02000 1.480
28.04000 1.960
28.06000 7.427
28.08000 7.348
28.10000 5.612
28.12000 8.833
28.14000 3.100
28.16000 -3.798
28.18000 0.978
28.20000 4.535
28.22000 -2.244
28.24000 -0.873
28.26000 4.241
28.28000 0.786
28.30000 -0.690
28.32000 1.014
28.34000 0.485
28.36000 -0.879
28.38000 -1.786
28.40000 -1.601
28.42000 3.794
28.44000 5.053
28.46000 5.756
28.48000 5.209
28.50000 3.282
28.52000 4.197
28.54000 0.268
28.56000 -3.642
28.58000 -2.282
28.60000 0.237
28.62000 3.417
28.64000 4.286
28.66000 0.844
28.68000 0.934
28.70000 4.266
28.72000 -1.111
28.74000 0.181
28.76000 -1.877
28.78000 0.993
28.80000 3.840
28.82000 6.288
28.84000 3.147
28.86000 2.371
28.88000 5.208
28.90000 4.194
28.92000 3.261
28.94000 1.663
28.96000 2.629
28.98000 1.546
29.00000 3.195
29.02000 1.933
29.04000 2.884
29.06000 3.299
29.08000 4.158
29.10000 4.059
29.12000 5.954
29.14000 3.268
29.16000 4.695
29.18000 -0.780
29.20000 3.311
29.22000 3.481
29.24000 -0.242
29.26000 -0.023
29.28000 2.026
29.30000 3.561
29.32000 9.431
29.34000 5.886
29.36000 4.485
29.38000 0.912
29.40000 -0.804
29.42000 3.074
29.44000 2.866
29.46000 0.542
29.48000 2.179
29.50000 7.866
29.52000 7.365
29.54000 4.357
29.56000 4.021
29.58000 0.947
29.60000 3.212
29.62000 7.614
29.64000 7.674
29.66000 5.910
29.68000 3.797
29.70000 6.465
29.72000 7.469
29.74000 4.479
29.76000 2.050
29.78000 -3.689
29.80000 -2.601
29.82000 5.525
29.84000 7.346
29.86000 5.514
29.88000 9.429
29.90000 8.320
29.92000 1.829
29.94000 1.040
29.96000 6.548
29.98000 7.517
30.00000 11.563
30.02000 9.647
30.04000 4.246
30.06000 14.514
30.08000 12.501
30.10000 10.867
30.12000 4.841
30.14000 6.277
30.16000 6.776
30.18000 11.559
30.20000 12.020
30.22000 11.833
30.24000 10.610
30.26000 3.244
30.28000 -1.575
30.30000 3.450
30.32000 6.810
30.34000 3.214
30.36000 0.395
30.38000 6.692
30.40000 6.365
30.42000 8.037
30.44000 4.555
30.46000 2.051
30.48000 6.468
30.50000 7.387
30.52000 3.931
30.54000 -0.288
30.56000 2.175
30.58000 4.185
30.60000 0.336
30.62000 5.740
30.64000 5.329
30.66000 4.904
30.68000 7.916
30.70000 5.104
30.72000 3.165
30.74000 4.383
30.76000 6.276
30.78000 5.459
30.80000 4.631
30.82000 5.397
30.84000 1.588
30.86000 5.961
30.88000 11.237
30.90000 6.830
30.92000 6.061
30.94000 3.363
30.96000 4.830
30.98000 9.006
31.00000 10.389
31.02000 8.279
31.04000 7.856
31.06000 5.866
31.08000 7.063
31.10000 3.582
31.12000 -3.622
31.14000 -0.976
31.16000 5.930
31.18000 6.185
31.20000 4.953
31.22000 0.946
31.24000 3.364
31.26000 4.517
31.28000 1.394
31.30000 3.662
31.32000 5.019
31.34000 7.985
31.36000 12.460
31.38000 9.391
31.40000 7.742
31.42000 3.462
31.44000 4.645
31.46000 1.252
31.48000 -1.306
31.50000 -0.322
31.52000 -1.561
31.54000 -0.872
31.56000 5.241
31.58000 4.919
31.60000 4.243
31.62000 3.360
31.64000 -0.653
31.66000 0.883
31.68000 0.890
31.70000 0.085
31.72000 2.564
31.74000 4.669
31.76000 5.837
31.78000 7.093
31.80000 3.639
31.82000 3.808
31.84000 6.425
31.86000 10.761
31.88000 6.199
31.90000 3.881
31.92000 6.998
31.94000 4.895
31.96000 4.132
31.98000 7.716
32.00000 4.932
32.02000 2.819
32.04000 4.745
32.06000 2.259
32.08000 4.382
32.10000 5.857
32.12000 0.879
32.14000 -0.453
32.16000 3.452
32.18000 6.764
32.20000 7.732
32.22000 4.408
32.24000 5.387
32.26000 1.305
32.28000 -3.606
32.30000 -0.753
32.32000 5.579
32.34000 3.844
32.36000 5.013
32.38000 3.653
32.40000 8.795
32.42000 9.016
32.44000 7.310
32.46000 5.528
32.48000 6.256
32.50000 3.700
32.52000 3.086
32.54000 4.523
32.56000 7.392
32.58000 -0.301
32.60000 -2.729
32.62000 4.254
32.64000 5.346
32.66000 2.024
32.68000 0.523
32.70000 3.184
32.72000 5.485
32.74000 5.549
32.76000 3.690
32.78000 3.287
32.80000 3.237
32.82000 3.638
32.84000 -1.656
32.86000 -3.413
32.88000 0.927
32.90000 0.757
32.92000 -1.735
32.94000 -2.156
32.96000 -0.660
32.98000 -1.215
33.00000 -0.639
33.02000 -1.000
33.04000 3.882
33.06000 5.804
33.08000 3.333
33.10000 0.920
33.12000 0.853
33.14000 0.876
33.16000 -0.766
33.18000 0.468
33.20000 -0.407
33.22000 -1.635
33.24000 -1.716
33.26000 1.556
33.28000 5.065
33.30000 3.007
33.32000 7.289
33.34000 5.166
33.36000 2.999
33.38000 2.803
33.40000 5.597
33.42000 1.564
33.44000 -3.581
33.46000 -3.018
33.48000 4.313
33.50000 4.255
33.52000 3.094
33.54000 4.054
33.56000 2.939
33.58000 3.587
33.60000 4.407
33.62000 2.255
33.64000 3.835
33.66000 6.648
33.68000 5.743
33.70000 1.701
33.72000 6.247
33.74000 3.002
33.76000 0.563
33.78000 -2.657
33.80000 -0.273
33.82000 -1.699
33.84000 3.934
33.86000 7.733
33.88000 7.421
33.90000 5.406
33.92000 2.399
33.94000 5.206
33.96000 7.122
33.98000 0.493
34.00000 0.229
34.02000 1.323
34.04000 3.492
34.06000 0.407
34.08000 1.011
34.10000 2.927
34.12000 0.892
34.14000 -2.667
34.16000 -0.655
34.18000 2.939
34.20000 7.250
34.22000 5.957
34.24000 1.816
34.26000 1.658
34.28000 4.330
34.30000 3.425
34.32000 4.167
34.34000 7.442
34.36000 6.839
34.38000 6.189
34.40000 5.937
34.42000 2.020
34.44000 7.101
34.46000 8.875
34.48000 12.569
34.50000 10.818
34.52000 7.290
34.54000 5.039
34.56000 -0.437
34.58000 -3.534
34.60000 3.951
34.62000 6.566
34.64000 4.389
34.66000 1.883
34.68000 5.447
34.70000 4.679
34.72000 6.027
34.74000 7.385
34.76000 5.905
34.78000 5.626
34.80000 5.463
34.82000 8.109
34.84000 3.643
34.86000 2.529
34.88000 1.183
34.90000 4.232
34.92000 6.754
34.94000 6.029
34.96000 0.635
34.98000 -0.132
35.00000 2.474
35.02000 9.471
35.04000 5.982
35.06000 11.218
35.08000 10.007
35.10000 5.137
35.12000 3.691
35.14000 6.096
35.16000 3.080
35.18000 1.985
35.20000 2.441
35.22000 4.288
35.24000 3.916
35.26000 3.968
35.28000 4.154
35.30000 4.943
35.32000 3.474
35.34000 3.839
35.36000 6.371
35.38000 6.684
35.40000 4.246
35.42000 -1.675
35.44000 0.243
35.46000 4.391
35.48000 4.060
35.50000 4.109
35.52000 6.072
35.54000 5.870
35.56000 6.011
35.58000 2.647
35.60000 3.006
35.62000 4.933
35.64000 8.865
35.66000 4.653
35.68000 5.138
35.70000 7.893
35.72000 7.514
35.74000 1.471
35.76000 3.366
35.78000 3.267
35.80000 -3.517
35.82000 -3.498
35.84000 2.989
35.86000 6.874
35.88000 6.503
35.90000 5.540
35.92000 3.958
35.94000 5.552
35.96000 3.111
35.98000 -2.211
36.00000 5.090
36.02000 7.012
36.04000 2.787
36.06000 1.159
36.08000 3.077
36.10000 3.444
36.12000 -0.254
36.14000 -1.181
36.16000 2.648
36.18000 2.655
36.20000 5.060
36.22000 7.231
36.24000 4.210
36.26000 0.198
36.28000 0.549
36.30000 -1.617
36.32000 0.719
36.34000 3.969
36.36000 0.948
36.38000 -0.646
36.40000 2.999
36.42000 3.209
36.44000 6.823
36.46000 3.489
36.48000 2.613
36.50000 3.090
36.52000 3.579
36.54000 4.961
36.56000 2.670
36.58000 -3.600
36.60000 -2.937
36.62000 -0.424
36.64000 1.940
36.66000 -2.656
36.68000 -0.422
36.70000 4.796
36.72000 4.811
36.74000 1.933
36.76000 -1.236
36.78000 0.128
36.80000 2.322
36.82000 3.302
36.84000 0.832
36.86000 -2.847
36.88000 -3.370
36.90000 -3.544
36.92000 -0.550
36.94000 -1.504
36.96000 2.915
36.98000 -0.369
37.00000 -0.960
37.02000 4.538
37.04000 2.714
37.06000 0.493
37.08000 1.125
37.10000 0.882
37.12000 -1.097
37.14000 -2.043
37.16000 -1.454
37.18000 0.463
37.20000 -2.865
37.22000 0.818
37.24000 1.568
37.26000 1.373
37.28000 -0.576
37.30000 1.211
37.32000 0.060
37.34000 -1.336
37.36000 0.094
37.38000 2.573
37.40000 -1.974
37.42000 -2.481
37.44000 -2.227
37.46000 -3.708
37.48000 1.040
37.50000 3.515
37.52000 1.219
37.54000 0.479
37.56000 0.352
37.58000 3.056
37.60000 9.163
37.62000 6.219
37.64000 2.049
37.66000 1.200
37.68000 2.521
37.70000 4.604
37.72000 2.454
37.74000 1.461
37.76000 2.389
37.78000 2.111
37.80000 -2.154
37.82000 3.483
37.84000 13.570
37.86000 10.079
37.88000 2.748
37.90000 4.481
37.92000 10.018
37.94000 12.570
37.96000 10.950
37.98000 8.103
38.00000 12.439
38.02000 16.855
38.04000 9.990
38.06000 8.486
38.08000 9.720
38.10000 11.794
38.12000 11.892
38.14000 15.594
38.16000 10.412
38.18000 9.408
38.20000 13.204
38.22000 14.788
38.24000 19.429
38.26000 18.262
38.28000 14.613
38.30000 18.392
38.32000 17.487
38.34000 18.269
38.36000 24.551
38.38000 23.738
38.40000 20.996
38.42000 18.874
38.44000 21.232
38.46000 26.738
38.48000 35.213
38.50000 31.936
38.52000 29.485
38.54000 28.141
38.56000 34.654
38.58000 29.815
38.60000 31.268
38.62000 31.446
38.64000 34.073
38.66000 31.966
38.68000 36.038
38.70000 42.128
38.72000 43.789
38.74000 45.565
38.76000 41.530
38.78000 42.295
38.80000 44.250
38.82000 44.548
38.84000 48.518
38.86000 49.417
38.88000 54.660
38.90000 58.263
38.92000 61.680
38.94000 59.169
38.96000 65.590
38.98000 70.516
39.00000 65.514
39.02000 70.376
39.04000 76.502
39.06000 86.208
39.08000 83.123
39.10000 82.313
39.12000 86.349
39.14000 97.503
39.16000 100.318
39.18000 102.739
39.20000 115.504
39.22000 114.370
39.24000 111.594
39.26000 123.622
39.28000 126.110
39.30000 133.084
39.32000 137.660
39.34000 141.826
39.36000 155.719
39.38000 159.764
39.40000 167.208
39.42000 172.878
39.44000 178.094
39.46000 187.397
39.48000 193.732
39.50000 208.242
39.52000 216.148
39.54000 235.070
39.56000 245.290
39.58000 256.658
39.60000 269.226
39.62000 279.669
39.64000 293.860
39.66000 302.022
39.68000 322.498
39.70000 338.694
39.72000 354.050
39.74000 375.171
39.76000 392.613
39.78000 409.375
39.80000 414.842
39.82000 423.800
39.84000 448.236
39.86000 469.377
39.88000 491.043
39.90000 498.822
39.92000 507.892
39.94000 523.454
39.96000 541.621
39.98000 558.285
40.00000 569.119
40.02000 587.531
40.04000 598.726
40.06000 612.047
40.08000 617.107
40.10000 619.738
40.12000 626.846
40.14000 640.719
40.16000 632.543
40.18000 637.268
40.20000 642.184
40.22000 650.502
40.24000 653.672
40.26000 654.508
40.28000 637.985
40.30000 621.029
40.32000 598.508
40.34000 594.488
40.36000 582.432
40.38000 563.723
40.40000 554.050
40.42000 547.852
40.44000 533.790
40.46000 510.066
40.48000 489.249
40.50000 476.205
40.52000 450.540
40.54000 427.516
40.56000 405.841
40.58000 393.211
40.60000 383.814
40.62000 364.964
40.64000 342.568
40.66000 334.180
40.68000 308.789
40.70000 295.583
40.72000 274.982
40.74000 257.657
40.76000 254.820
40.78000 243.709
40.80000 227.954
40.82000 217.028
40.84000 209.455
40.86000 193.429
40.88000 181.999
40.90000 168.136
40.92000 151.115
40.94000 146.612
40.96000 140.174
40.98000 132.611
41.00000 123.922
41.02000 125.701
41.04000 118.114
41.06000 107.974
41.08000 96.463
41.10000 90.351
41.12000 86.860
41.14000 79.054
41.16000 80.008
41.18000 82.037
41.20000 72.800
41.22000 71.351
41.24000 63.327
41.26000 62.012
41.28000 62.945
41.30000 55.094
41.32000 49.423
41.34000 45.032
41.36000 42.426
41.38000 40.044
41.40000 39.853
41.42000 39.105
41.44000 37.126
41.46000 33.208
41.48000 35.876
41.50000 34.689
41.52000 31.614
41.54000 30.675
41.56000 26.891
41.58000 24.989
41.60000 21.444
41.62000 19.955
41.64000 18.937
41.66000 21.241
41.68000 21.903
41.70000 20.138
41.72000 16.663
41.74000 14.316
41.76000 12.972
41.78000 11.422
41.80000 19.216
41.82000 15.578
41.84000 14.626
41.86000 15.982
41.88000 11.834
41.90000 11.910
41.92000 12.605
41.94000 9.264
41.96000 6.445
41.98000 7.343
42.00000 5.740
42.02000 3.306
42.04000 7.591
42.06000 12.954
42.08000 7.928
42.10000 2.765
42.12000 5.151
42.14000 7.918
42.16000 2.583
42.18000 0.401
42.20000 0.704
42.22000 2.100
42.24000 6.880
42.26000 5.367
42.28000 -0.752
42.30000 2.375
42.32000 0.339
42.34000 2.270
42.36000 -0.575
42.38000 4.285
42.40000 3.693
42.42000 -1.413
42.44000 -0.022
42.46000 0.064
42.48000 0.583
42.50000 9.031
42.52000 10.892
42.54000 6.471
42.56000 -1.050
42.58000 -3.189
42.60000 0.469
42.62000 -0.570
42.64000 3.876
42.66000 5.581
42.68000 1.918
42.70000 -2.672
42.72000 4.156
42.74000 1.974
42.76000 -0.128
42.78000 5.020
42.80000 5.170
42.82000 8.184
42.84000 2.288
42.86000 -3.558
42.88000 -1.271
42.90000 2.520
42.92000 3.421
42.94000 -0.493
42.96000 2.150
42.98000 6.419
43.00000 5.554
43.02000 1.344
43.04000 1.710
43.06000 0.248
43.08000 3.346
43.10000 1.133
43.12000 0.199
43.14000 -0.043
43.16000 5.712
43.18000 5.003
43.20000 3.265
43.22000 5.909
43.24000 0.883
43.26000 2.844
43.28000 6.100
43.30000 0.994
43.32000 -0.546
43.34000 0.500
43.36000 -0.202
43.38000 0.043
43.40000 -2.805
43.42000 0.499
43.44000 -0.260
43.46000 0.679
43.48000 -3.509
43.50000 -0.766
43.52000 -0.967
43.54000 -3.509
43.56000 -1.157
43.58000 -0.782
43.60000 4.910
43.62000 3.323
43.64000 3.014
43.66000 -0.346
43.68000 -2.097
43.70000 -3.279
43.72000 -1.190
43.74000 3.323
43.76000 -1.837
43.78000 -1.872
43.80000 4.451
43.82000 -0.911
43.84000 -0.338
43.86000 3.426
43.88000 3.756
43.90000 1.436
43.92000 -1.299
43.94000 -2.626
43.96000 -3.173
43.98000 -1.392
44.00000 1.328
44.02000 -2.026
44.04000 3.424
44.06000 6.228
44.08000 13.845
44.10000 10.973
44.12000 8.380
44.14000 5.762
44.16000 0.845
44.18000 -1.542
44.20000 -0.861
44.22000 -1.189
44.24000 0.785
44.26000 2.354
44.28000 0.983
44.30000 2.711
44.32000 4.899
44.34000 1.397
44.36000 -2.481
44.38000 -2.449
44.40000 -3.509
44.42000 -1.965
44.44000 -0.372
44.46000 2.102
44.48000 3.700
44.50000 6.264
44.52000 7.630
44.54000 2.596
44.56000 1.974
44.58000 5.226
44.60000 5.711
44.62000 1.704
44.64000 4.464
44.66000 0.999
44.68000 3.298
44.70000 0.536
44.72000 3.321
44.74000 8.533
44.76000 4.367
44.78000 5.559
44.80000 6.375
44.82000 4.815
44.84000 1.848
44.86000 0.863
44.88000 4.734
44.90000 4.312
44.92000 1.379
44.94000 6.023
44.96000 5.092
44.98000 7.161
45.00000 6.227
45.02000 6.036
45.04000 5.236
45.06000 6.439
45.08000 8.530
45.10000 8.139
45.12000 6.447
45.14000 7.555
45.16000 9.212
45.18000 12.118
45.20000 12.644
45.22000 10.583
45.24000 11.620
45.26000 9.670
45.28000 9.857
45.30000 8.401
45.32000 11.819
45.34000 10.980
45.36000 14.647
45.38000 15.651
45.40000 19.666
45.42000 25.382
45.44000 20.588
45.46000 15.279
45.48000 15.503
45.50000 16.803
45.52000 20.042
45.54000 22.690
45.56000 28.949
45.58000 28.579
45.60000 27.068
45.62000 23.194
45.64000 27.137
45.66000 30.487
45.68000 22.934
45.70000 29.667
45.72000 33.717
45.74000 34.479
45.76000 33.200
45.78000 35.822
45.80000 39.119
45.82000 30.333
45.84000 32.900
45.86000 39.211
45.88000 41.153
45.90000 36.459
45.92000 37.495
45.94000 36.766
45.96000 39.795
45.98000 40.853
46.00000 45.141
46.02000 49.111
46.04000 46.082
46.06000 46.192
46.08000 44.743
46.10000 43.577
46.12000 50.055
46.14000 55.736
46.16000 60.028
46.18000 58.796
46.20000 60.135
46.22000 59.399
46.24000 64.491
46.26000 65.535
46.28000 63.251
46.30000 65.713
46.32000 65.327
46.34000 62.802
46.36000 73.276
46.38000 68.031
46.40000 65.357
46.42000 68.005
46.44000 75.185
46.46000 73.194
46.48000 76.054
46.50000 75.133
46.52000 77.525
46.54000 83.496
46.56000 84.114
46.58000 85.059
46.60000 81.866
46.62000 81.054
46.64000 79.409
46.66000 86.708
46.68000 84.476
46.70000 77.982
46.72000 85.777
46.74000 84.616
46.76000 87.891
46.78000 87.143
46.80000 87.352
46.82000 85.563
46.84000 83.782
46.86000 83.773
46.88000 85.323
46.90000 79.641
46.92000 85.123
46.94000 80.936
46.96000 78.472
46.98000 82.319
47.00000 83.135
47.02000 81.725
47.04000 76.334
47.06000 69.265
47.08000 67.561
47.10000 71.270
47.12000 75.722
47.14000 71.793
47.16000 64.684
47.18000 67.402
47.20000 71.612
47.22000 65.181
47.24000 65.376
47.26000 62.296
47.28000 54.619
47.30000 53.209
47.32000 56.955
47.34000 47.717
47.36000 48.255
47.38000 49.059
47.40000 51.489
47.42000 45.248
47.44000 42.321
47.46000 41.080
47.48000 48.774
47.50000 44.065
47.52000 35.904
47.54000 35.105
47.56000 40.276
47.58000 41.700
47.60000 37.925
47.62000 32.258
47.64000 25.387
47.66000 31.087
47.68000 33.705
47.70000 26.344
47.72000 22.270
47.74000 20.561
47.76000 22.304
47.78000 21.335
47.80000 22.646
47.82000 23.690
47.84000 18.183
47.86000 16.371
47.88000 19.164
47.90000 18.159
47.92000 17.050
47.94000 15.743
47.96000 18.268
47.98000 19.038
48.00000 12.735
48.02000 19.768
48.04000 12.080
48.06000 1.649
48.08000 0.830
48.10000 4.360
48.12000 16.876
48.14000 10.229
48.16000 7.797
48.18000 8.288
48.20000 13.212
48.22000 8.238
48.24000 5.490
48.26000 2.539
48.28000 5.845
48.30000 3.955
48.32000 -0.060
48.34000 7.488
48.36000 4.698
48.38000 3.637
48.40000 4.398
48.42000 5.990
48.44000 4.236
48.46000 0.323
48.48000 7.207
48.50000 4.321
48.52000 3.715
48.54000 4.544
48.56000 5.250
48.58000 3.080
48.60000 5.774
48.62000 7.828
48.64000 3.480
48.66000 1.619
48.68000 2.457
48.70000 -3.177
48.72000 -1.202
48.74000 4.432
48.76000 6.618
48.78000 8.350
48.80000 0.572
48.82000 1.868
48.84000 3.962
48.86000 4.045
48.88000 1.838
48.90000 1.070
48.92000 0.478
48.94000 -1.181
48.96000 -0.223
48.98000 0.978
49.00000 7.579
49.02000 0.296
49.04000 0.415
49.06000 0.799
49.08000 4.575
49.10000 1.838
49.12000 0.838
49.14000 3.341
49.16000 7.289
49.18000 5.626
49.20000 3.483
49.22000 6.362
49.24000 3.053
49.26000 -0.829
49.28000 0.533
49.30000 6.695
49.32000 8.030
49.34000 7.861
49.36000 -2.809
49.38000 0.343
49.40000 2.295
49.42000 5.866
49.44000 2.686
49.46000 1.663
49.48000 1.348
49.50000 -0.175
49.52000 1.081
49.54000 5.428
49.56000 2.632
49.58000 -3.047
49.60000 1.165
49.62000 3.260
49.64000 1.964
49.66000 1.857
49.68000 2.909
49.70000 2.255
49.72000 5.293
49.74000 5.290
49.76000 0.421
49.78000 2.081
49.80000 0.231
49.82000 1.362
49.84000 2.681
49.86000 4.549
49.88000 4.831
49.90000 7.970
49.92000 3.849
49.94000 2.613
49.96000 2.126
49.98000 -0.529
50.00000 -3.018
50.02000 -1.744
50.04000 6.595
50.06000 3.459
50.08000 1.313
50.10000 3.186
50.12000 1.892
50.14000 4.568
50.16000 2.654
50.18000 1.434
50.20000 5.659
50.22000 0.794
50.24000 -3.018
50.26000 0.862
50.28000 3.537
50.30000 -1.510
50.32000 0.817
50.34000 1.884
50.36000 0.403
50.38000 1.542
50.40000 0.906
50.42000 -0.068
50.44000 1.578
50.46000 3.742
50.48000 6.600
50.50000 4.882
50.52000 5.703
50.54000 12.699
50.56000 6.239
50.58000 3.031
50.60000 3.481
50.62000 4.486
50.64000 5.584
50.66000 2.816
50.68000 3.770
50.70000 4.825
50.72000 1.106
50.74000 -2.147
50.76000 4.555
50.78000 1.842
50.80000 1.785
50.82000 2.385
50.84000 -0.088
50.86000 6.136
50.88000 3.664
50.90000 1.952
50.92000 2.920
50.94000 -1.181
50.96000 2.062
50.98000 8.956
51.00000 12.122
51.02000 6.691
51.04000 2.344
51.06000 3.835
51.08000 2.497
51.10000 5.076
51.12000 7.926
51.14000 5.625
51.16000 6.482
51.18000 6.635
51.20000 3.144
51.22000 4.711
51.24000 3.839
51.26000 0.298
51.28000 -0.930
51.30000 4.706
51.32000 -0.200
51.34000 -2.654
51.36000 2.330
51.38000 6.850
51.40000 8.606
51.42000 2.977
51.44000 5.196
51.46000 0.610
51.48000 3.032
51.50000 5.460
51.52000 2.771
51.54000 -2.680
51.56000 2.269
51.58000 3.155
51.60000 -1.061
51.62000 6.744
51.64000 6.687
51.66000 5.035
51.68000 1.997
51.70000 7.695
51.72000 6.051
51.74000 -1.877
51.76000 -2.945
51.78000 2.321
51.80000 3.066
51.82000 1.157
51.84000 -0.212
51.86000 2.170
51.88000 -0.814
51.90000 0.782
51.92000 3.397
51.94000 5.722
51.96000 5.174
51.98000 6.275
52.00000 9.528
52.02000 8.113
52.04000 4.140
52.06000 -0.038
52.08000 1.861
52.10000 1.535
52.12000 0.991
52.14000 4.471
52.16000 6.234
52.18000 8.554
52.20000 3.465
52.22000 1.771
52.24000 0.532
52.26000 2.725
52.28000 3.924
52.30000 7.373
52.32000 6.412
52.34000 10.064
52.36000 10.201
52.38000 8.193
52.40000 9.758
52.42000 3.657
52.44000 2.781
52.46000 -0.418
52.48000 2.602
52.50000 5.550
52.52000 3.368
52.54000 0.662
52.56000 1.350
52.58000 8.181
52.60000 8.400
52.62000 5.392
52.64000 0.991
52.66000 -0.050
52.68000 0.773
52.70000 -1.326
52.72000 2.362
52.74000 8.083
52.76000 5.891
52.78000 2.075
52.80000 -2.889
52.82000 -0.944
52.84000 0.284
52.86000 5.583
52.88000 6.200
52.90000 5.443
52.92000 7.403
52.94000 5.549
52.96000 3.892
52.98000 6.970
53.00000 8.482
53.02000 9.142
53.04000 4.856
53.06000 3.149
53.08000 3.928
53.10000 6.332
53.12000 4.106
53.14000 1.757
53.16000 4.432
53.18000 3.307
53.20000 -0.524
53.22000 3.501
53.24000 4.443
53.26000 1.520
53.28000 -1.066
53.30000 1.837
53.32000 5.039
53.34000 1.038
53.36000 0.464
53.38000 -2.888
53.40000 2.237
53.42000 0.950
53.44000 0.767
53.46000 6.676
53.48000 6.823
53.50000 8.102
53.52000 8.042
53.54000 3.377
53.56000 -1.091
53.58000 -1.320
53.60000 7.092
53.62000 12.112
53.64000 9.462
53.66000 10.902
53.68000 10.084
53.70000 11.795
53.72000 8.533
53.74000 5.835
53.76000 2.966
53.78000 4.591
53.80000 3.922
53.82000 2.496
53.84000 4.207
53.86000 4.728
53.88000 4.742
53.90000 2.885
53.92000 4.210
53.94000 8.598
53.96000 5.864
53.98000 2.104
54.00000 3.679
54.02000 -0.167
54.04000 4.047
54.06000 7.481
54.08000 2.928
54.10000 1.284
54.12000 2.580
54.14000 6.027
54.16000 7.805
54.18000 7.312
54.20000 2.598
54.22000 0.804
54.24000 0.435
54.26000 3.627
54.28000 5.149
54.30000 3.650
54.32000 6.069
54.34000 5.714
54.36000 1.760
54.38000 -1.547
54.40000 2.637
54.42000 3.238
54.44000 4.958
54.46000 4.152
54.48000 0.111
54.50000 1.814
54.52000 4.856
54.54000 5.006
54.56000 3.674
54.58000 1.429
54.60000 1.698
54.62000 6.735
54.64000 6.996
54.66000 3.715
54.68000 3.944
54.70000 3.312
54.72000 2.820
54.74000 2.809
54.76000 5.530
54.78000 7.520
54.80000 6.914
54.82000 7.691
54.84000 8.632
54.86000 4.817
54.88000 2.126
54.90000 1.844
54.92000 3.188
54.94000 6.294
54.96000 4.517
54.98000 3.023
55.00000 5.361
55.02000 7.472
55.04000 7.041
55.06000 9.133
55.08000 6.253
55.10000 5.470
55.12000 6.613
55.14000 2.439
55.16000 -2.801
55.18000 3.632
55.20000 6.070
55.22000 6.198
55.24000 7.941
55.26000 9.723
55.28000 7.938
55.30000 9.708
55.32000 6.019
55.34000 -0.437
55.36000 1.028
55.38000 0.228
55.40000 6.022
55.42000 4.339
55.44000 4.988
55.46000 5.927
55.48000 8.556
55.50000 9.304
55.52000 5.753
55.54000 2.153
55.56000 5.638
55.58000 4.768
55.60000 2.108
55.62000 0.516
55.64000 1.699
55.66000 3.779
55.68000 6.279
55.70000 7.827
55.72000 11.422
55.74000 5.154
55.76000 4.661
55.78000 4.422
55.80000 5.613
55.82000 3.065
55.84000 6.089
55.86000 3.914
55.88000 4.578
55.90000 7.798
55.92000 2.257
55.94000 3.713
55.96000 3.687
55.98000 8.892
56.00000 2.680
56.02000 4.422
56.04000 2.075
56.06000 5.784
56.08000 4.878
56.10000 3.548
56.12000 1.559
56.14000 3.476
56.16000 6.411
56.18000 7.315
56.20000 2.670
56.22000 2.456
56.24000 1.570
56.26000 3.850
56.28000 4.116
56.30000 -2.823
56.32000 -0.560
56.34000 -0.397
56.36000 5.084
56.38000 8.099
56.40000 6.202
56.42000 0.414
56.44000 1.793
56.46000 1.060
56.48000 2.233
56.50000 0.834
56.52000 2.613
56.54000 2.365
56.56000 1.567
56.58000 4.824
56.60000 2.497
56.62000 1.143
56.64000 0.976
56.66000 2.600
56.68000 1.768
56.70000 1.783
56.72000 4.635
56.74000 0.309
56.76000 0.519
56.78000 -2.046
56.80000 -2.819
56.82000 7.614
56.84000 6.078
56.86000 1.839
56.88000 5.429
56.90000 4.518
56.92000 0.442
56.94000 5.066
56.96000 7.262
56.98000 1.495
57.00000 -1.596
57.02000 -1.880
57.04000 -0.269
57.06000 1.177
57.08000 -0.176
57.10000 -2.530
57.12000 -2.738
57.14000 2.400
57.16000 1.289
57.18000 -0.845
57.20000 -0.389
57.22000 5.562
57.24000 7.226
57.26000 2.027
57.28000 1.898
57.30000 2.039
57.32000 5.173
57.34000 4.915
57.36000 4.476
57.38000 3.760
57.40000 -1.647
57.42000 -2.565
57.44000 -0.058
57.46000 -1.520
57.48000 -2.803
57.50000 3.347
57.52000 6.760
57.54000 4.501
57.56000 -0.098
57.58000 0.845
57.60000 4.225
57.62000 2.485
57.64000 -2.683
57.66000 1.667
57.68000 3.156
57.70000 1.318
57.72000 3.474
57.74000 4.186
57.76000 0.737
57.78000 2.831
57.80000 3.258
57.82000 0.189
57.84000 1.394
57.86000 1.713
57.88000 -0.466
57.90000 1.791
57.92000 4.040
57.94000 1.947
57.96000 2.312
57.98000 3.822
58.00000 2.118
58.02000 -0.527
58.04000 2.696
58.06000 0.654
58.08000 0.966
58.10000 0.816
58.12000 2.515
58.14000 -1.709
58.16000 2.583
58.18000 8.102
58.20000 11.527
58.22000 8.976
58.24000 3.558
58.26000 -1.178
58.28000 -0.471
58.30000 3.110
58.32000 3.450
58.34000 1.880
58.36000 0.291
58.38000 -0.285
58.40000 0.600
58.42000 3.016
58.44000 5.802
58.46000 -0.775
58.48000 -2.746
58.50000 0.200
58.52000 2.479
58.54000 0.872
58.56000 -2.447
58.58000 0.399
58.60000 1.617
58.62000 9.465
58.64000 1.983
58.66000 2.928
58.68000 1.972
58.70000 1.118
58.72000 1.563
58.74000 1.183
58.76000 -0.547
58.78000 2.463
58.80000 2.286
58.82000 5.353
58.84000 7.565
58.86000 7.645
58.88000 3.742
58.90000 2.478
58.92000 0.170
58.94000 -1.118
58.96000 3.099
58.98000 4.498
59.00000 -1.376
59.02000 -2.288
59.04000 3.995
59.06000 0.969
59.08000 0.468
59.10000 3.662
59.12000 7.413
59.14000 4.736
59.16000 7.390
59.18000 3.013
59.20000 5.486
59.22000 3.893
59.24000 5.037
59.26000 1.160
59.28000 -1.611
59.30000 -2.533
59.32000 -2.405
59.34000 7.041
59.36000 9.415
59.38000 0.337
59.40000 2.299
59.42000 3.336
59.44000 4.922
59.46000 4.898
59.48000 0.815
59.50000 2.598
59.52000 4.106
59.54000 1.106
59.56000 3.311
59.58000 8.048
59.60000 1.661
59.62000 2.155
59.64000 2.454
59.66000 -1.699
59.68000 -0.427
59.70000 3.852
59.72000 3.861
59.74000 0.949
59.76000 1.373
59.78000 -0.822
59.80000 -0.882
59.82000 7.314
59.84000 7.191
59.86000 4.712
59.88000 3.779
59.90000 3.978
59.92000 7.340
59.94000 7.923
59.96000 1.291
59.98000 4.627
60.00000 6.587
60.02000 4.821
60.04000 6.235
60.06000 4.522
60.08000 4.249
60.10000 1.057
60.12000 7.233
60.14000 7.014
60.16000 8.119
60.18000 1.070
60.20000 -2.661
60.22000 2.392
60.24000 3.381
60.26000 1.257
60.28000 2.515
60.30000 1.726
60.32000 4.556
60.34000 1.521
60.36000 3.398
60.38000 4.774
60.40000 6.529
60.42000 5.224
60.44000 3.371
60.46000 3.226
60.48000 1.572
60.50000 3.588
60.52000 -0.418
60.54000 -0.072
60.56000 5.998
60.58000 3.880
60.60000 3.473
60.62000 4.698
60.64000 4.018
60.66000 5.194
60.68000 8.992
60.70000 3.894
60.72000 8.992
60.74000 9.818
60.76000 7.238
60.78000 2.263
60.80000 4.102
60.82000 4.347
60.84000 1.090
60.86000 3.780
60.88000 2.453
60.90000 -1.007
60.92000 -0.242
60.94000 4.070
60.96000 7.277
60.98000 8.706
61.00000 4.352
61.02000 5.075
61.04000 1.737
61.06000 0.435
61.08000 5.505
61.10000 7.642
61.12000 5.970
61.14000 6.290
61.16000 -0.123
61.18000 0.327
61.20000 1.387
61.22000 2.969
61.24000 5.919
61.26000 1.500
61.28000 4.637
61.30000 3.691
61.32000 9.333
61.34000 2.682
61.36000 0.906
61.38000 6.182
61.40000 9.809
61.42000 4.926
61.44000 1.991
61.46000 3.429
61.48000 5.984
61.50000 1.591
61.52000 -2.205
61.54000 1.463
61.56000 1.750
61.58000 2.087
61.60000 -0.084
61.62000 2.844
61.64000 4.189
61.66000 6.161
61.68000 5.277
61.70000 5.230
61.72000 2.200
61.74000 -2.606
61.76000 0.236
61.78000 9.219
61.80000 8.936
61.82000 5.191
61.84000 5.728
61.86000 5.188
61.88000 3.249
61.90000 5.023
61.92000 8.062
61.94000 5.000
61.96000 4.629
61.98000 4.012
62.00000 6.634
62.02000 6.018
62.04000 8.588
62.06000 2.323
62.08000 2.006
62.10000 6.761
62.12000 3.978
62.14000 0.490
62.16000 0.829
62.18000 4.486
62.20000 0.598
62.22000 6.602
62.24000 4.894
62.26000 1.050
62.28000 3.346
62.30000 0.537
62.32000 0.338
62.34000 4.151
62.36000 2.370
62.38000 6.274
62.40000 10.069
62.42000 5.186
62.44000 3.206
62.46000 2.033
62.48000 2.076
62.50000 0.558
62.52000 0.489
62.54000 3.176
62.56000 -0.309
62.58000 1.597
62.60000 3.604
62.62000 6.351
62.64000 3.660
62.66000 0.376
62.68000 1.127
62.70000 0.613
62.72000 0.704
62.74000 1.692
62.76000 -0.707
62.78000 -0.725
62.80000 2.579
62.82000 0.432
62.84000 4.472
62.86000 1.452
62.88000 1.099
62.90000 2.704
62.92000 4.685
62.94000 5.878
62.96000 2.935
62.98000 -2.608
63.00000 -0.371
63.02000 9.084
63.04000 5.022
63.06000 4.789
63.08000 4.427
63.10000 7.757
63.12000 5.660
63.14000 3.389
63.16000 3.318
63.18000 4.272
63.20000 3.792
63.22000 1.359
63.24000 3.709
63.26000 0.431
63.28000 1.221
63.30000 2.220
63.32000 2.448
63.34000 1.515
63.36000 3.369
63.38000 9.738
63.40000 5.328
63.42000 3.677
63.44000 3.260
63.46000 4.132
63.48000 -0.989
63.50000 2.981
63.52000 2.469
63.54000 1.785
63.56000 3.430
63.58000 2.368
63.60000 4.130
63.62000 0.898
63.64000 4.442
63.66000 3.972
63.68000 3.606
63.70000 2.460
63.72000 -0.736
63.74000 0.616
63.76000 -0.118
63.78000 -0.537
63.80000 -0.860
63.82000 2.806
63.84000 0.633
63.86000 2.892
63.88000 3.802
63.90000 3.959
63.92000 2.016
63.94000 1.230
63.96000 1.422
63.98000 0.852
64.00000 2.946
64.02000 3.913
64.04000 1.272
64.06000 3.515
64.08000 5.696
64.10000 4.587
64.12000 2.454
64.14000 4.677
64.16000 5.405
64.18000 2.072
64.20000 -0.086
64.22000 0.385
64.24000 0.543
64.26000 3.079
64.28000 0.735
64.30000 -2.619
64.32000 0.017
64.34000 -0.603
64.36000 -0.420
64.38000 2.894
64.40000 4.199
64.42000 6.629
64.44000 0.901
64.46000 -2.321
64.48000 0.285
64.50000 5.261
64.52000 2.166
64.54000 1.554
64.56000 -0.007
64.58000 3.581
64.60000 3.334
64.62000 3.760
64.64000 6.914
64.66000 0.801
64.68000 2.822
64.70000 1.878
64.72000 1.627
64.74000 2.895
64.76000 3.392
64.78000 5.156
64.80000 3.828
64.82000 2.140
64.84000 4.114
64.86000 6.834
64.88000 5.556
64.90000 1.909
64.92000 2.059
64.94000 3.994
64.96000 1.648
64.98000 0.499
65.00000 -0.084
65.02000 3.564
65.04000 6.448
65.06000 2.315
65.08000 1.836
65.10000 3.563
65.12000 0.786
65.14000 -0.329
65.16000 2.840
65.18000 6.409
65.20000 4.130
65.22000 1.099
65.24000 4.727
65.26000 2.730
65.28000 3.816
65.30000 0.424
65.32000 -2.638
65.34000 -2.375
65.36000 0.857
65.38000 4.559
65.40000 4.773
65.42000 2.110
65.44000 -0.995
65.46000 0.761
65.48000 2.946
65.50000 -1.712
65.52000 -0.093
65.54000 -1.723
65.56000 -1.723
65.58000 -0.060
65.60000 -0.429
65.62000 0.537
65.64000 2.541
65.66000 1.650
65.68000 4.601
65.70000 2.223
65.72000 2.481
65.74000 0.258
65.76000 2.967
65.78000 1.876
65.80000 1.464
65.82000 4.803
65.84000 3.329
65.86000 8.308
65.88000 6.287
65.90000 2.478
65.92000 -2.678
65.94000 -0.765
65.96000 0.740
65.98000 1.523
66.00000 1.678
66.02000 1.084
66.04000 0.067
66.06000 0.824
66.08000 1.995
66.10000 0.557
66.12000 2.536
66.14000 0.862
66.16000 0.555
66.18000 0.816
66.20000 2.392
66.22000 1.565
66.24000 4.061
66.26000 5.207
66.28000 5.967
66.30000 2.480
66.32000 -0.588
66.34000 0.000
66.36000 1.308
66.38000 3.788
66.40000 3.915
66.42000 6.902
66.44000 4.137
66.46000 -0.344
66.48000 4.782
66.50000 6.438
66.52000 1.018
66.54000 1.643
66.56000 1.688
66.58000 1.056
66.60000 4.124
66.62000 9.026
66.64000 7.239
66.66000 2.012
66.68000 3.183
66.70000 0.647
66.72000 2.431
66.74000 6.555
66.76000 5.033
66.78000 1.908
66.80000 5.913
66.82000 7.371
66.84000 1.926
66.86000 0.022
66.88000 6.098
66.90000 4.752
66.92000 4.953
66.94000 4.679
66.96000 6.561
66.98000 2.148
67.00000 2.436
67.02000 5.532
67.04000 6.699
67.06000 5.435
67.08000 7.102
67.10000 4.427
67.12000 3.498
67.14000 2.885
67.16000 -0.273
67.18000 -0.549
67.20000 2.379
67.22000 3.576
67.24000 5.872
67.26000 5.646
67.28000 12.591
67.30000 7.538
67.32000 12.488
67.34000 10.150
67.36000 10.892
67.38000 4.626
67.40000 4.579
67.42000 7.557
67.44000 8.552
67.46000 5.829
67.48000 7.577
67.50000 9.415
67.52000 10.436
67.54000 13.227
67.56000 9.333
67.58000 16.255
67.60000 18.344
67.62000 15.993
67.64000 13.126
67.66000 7.306
67.68000 9.922
67.70000 14.717
67.72000 14.745
67.74000 16.913
67.76000 14.071
67.78000 15.975
67.80000 17.356
67.82000 14.529
67.84000 15.819
67.86000 13.949
67.88000 9.753
67.90000 6.858
67.92000 16.878
67.94000 18.799
67.96000 18.327
67.98000 17.085
68.00000 23.131
68.02000 24.816
68.04000 22.627
68.06000 21.763
68.08000 18.962
68.10000 22.762
68.12000 20.861
68.14000 21.952
68.16000 18.976
68.18000 19.632
68.20000 24.121
68.22000 24.668
68.24000 20.074
68.26000 21.221
68.28000 23.316
68.30000 25.893
68.32000 24.127
68.34000 22.144
68.36000 20.795
68.38000 23.372
68.40000 25.097
68.42000 22.905
68.44000 17.298
68.46000 21.055
68.48000 21.711
68.50000 19.923
68.52000 17.261
68.54000 18.313
68.56000 19.670
68.58000 20.027
68.60000 18.354
68.62000 21.775
68.64000 25.299
68.66000 18.525
68.68000 18.564
68.70000 20.232
68.72000 15.389
68.74000 19.302
68.76000 15.489
68.78000 14.092
68.80000 15.526
68.82000 16.009
68.84000 9.366
68.86000 7.555
68.88000 11.972
68.90000 13.156
68.92000 13.387
68.94000 11.453
68.96000 9.513
68.98000 9.493
69.00000 6.761
69.02000 4.568
69.04000 6.003
69.06000 8.105
69.08000 10.980
69.10000 11.148
69.12000 8.576
69.14000 8.422
69.16000 12.565
69.18000 7.861
69.20000 4.199
69.22000 3.787
69.24000 6.271
69.26000 7.710
69.28000 9.716
69.30000 7.415
69.32000 4.947
69.34000 3.923
69.36000 5.261
69.38000 7.079
69.40000 2.443
69.42000 2.110
69.44000 4.033
69.46000 5.757
69.48000 5.795
69.50000 1.514
69.52000 3.685
69.54000 4.809
69.56000 4.067
69.58000 -0.167
69.60000 2.413
69.62000 0.214
69.64000 -1.805
69.66000 -1.990
69.68000 2.219
69.70000 -0.214
69.72000 0.326
69.74000 3.199
69.76000 0.069
69.78000 4.261
69.80000 3.504
69.82000 2.228
69.84000 0.228
69.86000 0.940
69.88000 0.752
69.90000 -0.343
69.92000 4.774
69.94000 3.841
69.96000 2.248
69.98000 3.770
70.00000 -0.505
70.02000 -1.531
70.04000 0.551
70.06000 2.253
70.08000 -1.340
70.10000 -0.980
70.12000 4.014
70.14000 1.956
70.16000 0.816
70.18000 1.905
70.20000 -2.584
70.22000 -1.230
70.24000 2.390
70.26000 4.218
70.28000 -0.076
70.30000 3.035
70.32000 4.197
70.34000 2.236
70.36000 -2.384
70.38000 0.557
70.40000 6.283
70.42000 4.727
70.44000 4.968
70.46000 0.690
70.48000 2.314
70.50000 3.540
70.52000 -0.444
70.54000 -2.369
70.56000 -2.562
70.58000 3.924
70.60000 5.721
70.62000 4.893
70.64000 4.269
70.66000 -0.482
70.68000 0.899
70.70000 4.739
70.72000 3.151
70.74000 2.214
70.76000 1.498
70.78000 2.342
70.80000 2.864
70.82000 -0.044
70.84000 3.693
70.86000 0.624
70.88000 0.274
70.90000 -2.174
70.92000 -0.631
70.94000 5.861
70.96000 7.962
70.98000 1.782
71.00000 -2.528
71.02000 0.474
71.04000 0.667
71.06000 1.351
71.08000 0.217
71.10000 0.220
71.12000 2.408
71.14000 0.210
71.16000 2.613
71.18000 1.623
71.20000 3.435
71.22000 4.740
71.24000 3.910
71.26000 1.764
71.28000 2.370
71.30000 1.508
71.32000 0.117
71.34000 -0.522
71.36000 -0.100
71.38000 0.949
71.40000 3.628
71.42000 0.841
71.44000 -2.519
71.46000 -1.637
71.48000 -1.332
71.50000 0.488
71.52000 1.559
71.54000 0.442
71.56000 -1.434
71.58000 0.562
71.60000 3.439
71.62000 2.681
71.64000 3.487
71.66000 4.926
71.68000 5.656
71.70000 3.121
71.72000 2.881
71.74000 1.427
71.76000 0.161
71.78000 1.063
71.80000 2.645
71.82000 6.807
71.84000 6.733
71.86000 2.991
71.88000 4.170
71.90000 3.780
71.92000 -1.087
71.94000 0.393
71.96000 -0.432
71.98000 0.246
72.00000 -0.876
72.02000 1.757
72.04000 3.910
72.06000 -2.261
72.08000 -0.304
72.10000 -1.163
72.12000 2.055
72.14000 1.521
72.16000 5.362
72.18000 4.803
72.20000 6.886
72.22000 5.160
72.24000 3.601
72.26000 1.770
72.28000 0.359
72.30000 0.312
72.32000 4.618
72.34000 9.067
72.36000 6.056
72.38000 3.426
72.40000 6.159
72.42000 3.700
72.44000 1.014
72.46000 1.898
72.48000 2.841
72.50000 -0.814
72.52000 -2.449
72.54000 2.674
72.56000 5.104
72.58000 1.951
72.60000 -1.009
72.62000 0.360
72.64000 2.568
72.66000 1.588
72.68000 -1.213
72.70000 2.638
72.72000 5.642
72.74000 2.687
72.76000 3.609
72.78000 1.645
72.80000 0.706
72.82000 -0.489
72.84000 -1.470
72.86000 -0.226
72.88000 2.531
72.90000 1.401
72.92000 1.686
72.94000 1.640
72.96000 -1.823
72.98000 -2.007
73.00000 0.343
73.02000 2.788
73.04000 1.595
73.06000 4.270
73.08000 6.746
73.10000 7.272
73.12000 7.940
73.14000 5.349
73.16000 7.933
73.18000 1.152
73.20000 1.137
73.22000 1.492
73.24000 3.356
73.26000 2.094
73.28000 0.779
73.30000 1.007
73.32000 2.241
73.34000 1.138
73.36000 0.832
73.38000 1.216
73.40000 2.009
73.42000 6.635
73.44000 5.657
73.46000 8.410
73.48000 1.420
73.50000 1.849
73.52000 -0.700
73.54000 1.634
73.56000 -0.083
73.58000 -1.488
73.60000 3.195
73.62000 2.715
73.64000 -0.362
73.66000 -0.312
73.68000 -0.879
73.70000 -0.209
73.72000 -2.460
73.74000 -1.615
73.76000 6.379
73.78000 5.492
73.80000 7.771
73.82000 6.092
73.84000 0.160
73.86000 1.738
73.88000 3.164
73.90000 4.088
73.92000 2.999
73.94000 6.744
73.96000 6.722
73.98000 -0.899
74.00000 -0.677
74.02000 1.996
74.04000 -2.451
74.06000 -2.376
74.08000 0.795
74.10000 -0.664
74.12000 1.205
74.14000 0.411
74.16000 6.973
74.18000 7.522
74.20000 2.960
74.22000 0.583
74.24000 2.985
74.26000 5.002
74.28000 3.970
74.30000 1.736
74.32000 -1.466
74.34000 2.808
74.36000 1.257
74.38000 -2.352
74.40000 0.512
74.42000 3.651
74.44000 -0.474
74.46000 0.837
74.48000 1.589
74.50000 -0.590
74.52000 -0.429
74.54000 -0.829
74.56000 4.622
74.58000 2.728
74.60000 0.918
74.62000 5.947
74.64000 6.958
74.66000 6.863
74.68000 4.625
74.70000 -1.582
74.72000 -1.980
74.74000 2.179
74.76000 5.283
74.78000 5.378
74.80000 2.270
74.82000 2.770
74.84000 -1.503
74.86000 0.524
74.88000 2.811
74.90000 -2.422
74.92000 1.494
74.94000 2.662
74.96000 1.323
74.98000 2.419
75.00000 7.489
75.02000 8.053
75.04000 6.598
75.06000 3.728
75.08000 3.061
75.10000 1.050
75.12000 -0.797
75.14000 -1.252
75.16000 -2.420
75.18000 -1.919
75.20000 1.305
75.22000 1.064
75.24000 3.755
75.26000 8.316
75.28000 8.537
75.30000 10.595
75.32000 9.525
75.34000 6.573
75.36000 6.514
75.38000 1.952
75.40000 4.095
75.42000 5.986
75.44000 6.435
75.46000 2.454
75.48000 2.059
75.50000 7.229
75.52000 4.766
75.54000 3.566
75.56000 3.354
75.58000 4.875
75.60000 2.538
75.62000 4.330
75.64000 5.556
75.66000 1.978
75.68000 0.161
75.70000 3.152
75.72000 -2.417
75.74000 3.811
75.76000 4.228
75.78000 7.139
75.80000 6.438
75.82000 -2.292
75.84000 0.798
75.86000 7.409
75.88000 4.473
75.90000 5.537
75.92000 8.634
75.94000 9.536
75.96000 7.702
75.98000 5.223
76.00000 7.487
76.02000 5.722
76.04000 1.461
76.06000 -2.433
76.08000 3.248
76.10000 4.595
76.12000 4.986
76.14000 4.419
76.16000 3.962
76.18000 2.966
76.20000 0.302
76.22000 5.057
76.24000 7.164
76.26000 10.595
76.28000 9.057
76.30000 9.083
76.32000 4.630
76.34000 2.300
76.36000 3.843
76.38000 7.198
76.40000 8.464
76.42000 3.448
76.44000 9.369
76.46000 9.371
76.48000 6.552
76.50000 3.178
76.52000 -1.047
76.54000 2.534
76.56000 4.455
76.58000 7.708
76.60000 1.481
76.62000 -1.820
76.64000 3.982
76.66000 4.619
76.68000 4.806
76.70000 3.029
76.72000 5.095
76.74000 2.315
76.76000 4.123
76.78000 4.951
76.80000 3.302
76.82000 2.414
76.84000 5.786
76.86000 1.414
76.88000 -2.458
76.90000 1.985
76.92000 3.429
76.94000 3.792
76.96000 3.530
76.98000 2.400
77.00000 4.106
77.02000 4.662
77.04000 2.678
77.06000 4.824
77.08000 5.590
77.10000 0.586
77.12000 -2.459
77.14000 3.237
77.16000 3.848
77.18000 2.020
77.20000 4.570
77.22000 0.645
77.24000 6.286
77.26000 2.869
77.28000 1.546
77.30000 3.246
77.32000 3.957
77.34000 0.896
77.36000 4.229
77.38000 5.186
77.40000 1.719
77.42000 4.156
77.44000 2.767
77.46000 4.263
77.48000 1.823
77.50000 4.018
77.52000 5.255
77.54000 4.050
77.56000 1.890
77.58000 0.763
77.60000 2.294
77.62000 4.588
77.64000 6.106
77.66000 3.851
77.68000 3.629
77.70000 3.270
77.72000 4.081
77.74000 5.825
77.76000 -0.755
77.78000 3.173
77.80000 7.970
77.82000 4.242
77.84000 2.314
77.86000 4.037
77.88000 2.891
77.90000 2.663
77.92000 -1.539
77.94000 0.184
77.96000 1.691
77.98000 -2.485
78.00000 1.724
78.02000 3.383
78.04000 1.694
78.06000 1.910
78.08000 8.409
78.10000 7.294
78.12000 4.246
78.14000 2.395
78.16000 1.552
78.18000 0.936
78.20000 3.324
78.22000 7.686
78.24000 3.228
78.26000 3.386
78.28000 2.933
78.30000 -2.135
78.32000 1.242
78.34000 1.729
78.36000 0.833
78.38000 2.223
78.40000 2.853
78.42000 3.552
78.44000 -1.372
78.46000 -1.627
78.48000 2.547
78.50000 3.885
78.52000 5.979
78.54000 6.152
78.56000 4.149
78.58000 2.272
78.60000 -0.045
78.62000 0.754
78.64000 3.334
78.66000 4.895
78.68000 4.622
78.70000 4.603
78.72000 7.373
78.74000 8.576
78.76000 7.774
78.78000 0.399
78.80000 -0.339
78.82000 4.835
78.84000 3.165
78.86000 6.686
78.88000 0.898
78.90000 -0.928
78.92000 3.184
78.94000 3.758
78.96000 0.137
78.98000 -2.542
79.00000 1.843
79.02000 3.472
79.04000 0.696
79.06000 -0.552
79.08000 2.718
79.10000 6.859
79.12000 3.063
79.14000 3.042
79.16000 -0.126
79.18000 1.586
79.20000 3.797
79.22000 0.313
79.24000 -1.320
79.26000 2.402
79.28000 3.096
79.30000 3.523
79.32000 2.788
79.34000 4.221
79.36000 5.027
79.38000 6.252
79.40000 7.758
79.42000 4.421
79.44000 5.238
79.46000 3.218
79.48000 2.240
79.50000 1.187
79.52000 1.451
79.54000 0.404
79.56000 3.872
79.58000 9.301
79.60000 11.297
79.62000 11.755
79.64000 7.455
79.66000 3.120
79.68000 3.330
79.70000 4.443
79.72000 5.394
79.74000 7.044
79.76000 5.600
79.78000 6.846
79.80000 1.355
79.82000 -0.417
79.84000 -2.545
79.86000 4.330
79.88000 -0.439
79.90000 3.850
79.92000 6.327
79.94000 0.212
79.96000 -2.546
79.98000 4.414
80.00000 11.125
80.02000 9.840
80.04000 8.293
80.06000 10.098
80.08000 5.627
80.10000 3.706
80.12000 0.462
80.14000 -0.517
80.16000 -0.547
80.18000 5.843
80.20000 8.722
80.22000 9.418
80.24000 8.974
80.26000 5.567
80.28000 4.299
80.30000 5.766
80.32000 5.598
80.34000 4.741
80.36000 6.146
80.38000 5.524
80.40000 4.693
80.42000 6.824
80.44000 -0.891
80.46000 0.261
80.48000 2.099
80.50000 5.231
80.52000 2.840
80.54000 2.742
80.56000 8.657
80.58000 11.737
80.60000 8.022
80.62000 9.550
80.64000 12.897
80.66000 8.692
80.68000 6.313
80.70000 9.874
80.72000 5.717
80.74000 3.251
80.76000 3.135
80.78000 5.582
80.80000 2.013
80.82000 3.755
80.84000 7.963
80.86000 13.133
80.88000 13.596
80.90000 10.613
80.92000 10.666
80.94000 12.477
80.96000 13.763
80.98000 7.317
81.00000 5.113
81.02000 8.807
81.04000 16.220
81.06000 14.351
81.08000 10.483
81.10000 9.023
81.12000 11.095
81.14000 12.471
81.16000 12.380
81.18000 14.459
81.20000 14.453
81.22000 16.370
81.24000 7.758
81.26000 12.609
81.28000 11.187
81.30000 15.202
81.32000 16.361
81.34000 14.471
81.36000 8.504
81.38000 14.807
81.40000 17.719
81.42000 15.106
81.44000 14.556
81.46000 16.211
81.48000 11.609
81.50000 13.542
81.52000 14.904
81.54000 21.569
81.56000 26.473
81.58000 25.688
81.60000 23.910
81.62000 18.385
81.64000 8.994
81.66000 16.686
81.68000 19.051
81.70000 22.815
81.72000 20.592
81.74000 15.906
81.76000 17.626
81.78000 19.057
81.80000 26.091
81.82000 21.677
81.84000 18.935
81.86000 19.814
81.88000 22.276
81.90000 19.952
81.92000 19.166
81.94000 22.471
81.96000 23.952
81.98000 27.369
82.00000 21.607
82.02000 27.111
82.04000 22.321
82.06000 24.167
82.08000 27.943
82.10000 23.772
82.12000 25.812
82.14000 28.163
82.16000 27.598
82.18000 30.088
82.20000 27.105
82.22000 23.834
82.24000 24.390
82.26000 21.742
82.28000 18.934
82.30000 21.776
82.32000 20.139
82.34000 21.967
82.36000 29.585
82.38000 26.495
82.40000 26.745
82.42000 23.090
82.44000 20.628
82.46000 24.954
82.48000 22.100
82.50000 21.556
82.52000 24.497
82.54000 27.923
82.56000 31.786
82.58000 25.304
82.60000 27.533
82.62000 28.556
82.64000 28.328
82.66000 26.074
82.68000 26.048
82.70000 30.252
82.72000 29.133
82.74000 24.322
82.76000 22.676
82.78000 26.485
82.80000 23.605
82.82000 23.514
82.84000 25.665
82.86000 24.197
82.88000 18.606
82.90000 16.800
82.92000 16.417
82.94000 19.015
82.96000 17.295
82.98000 15.927
83.00000 18.998
83.02000 17.601
83.04000 13.677
83.06000 15.971
83.08000 18.383
83.10000 21.607
83.12000 19.194
83.14000 18.645
83.16000 23.982
83.18000 20.052
83.20000 13.566
83.22000 13.749
83.24000 13.670
83.26000 10.765
83.28000 15.178
83.30000 14.842
83.32000 15.604
83.34000 16.521
83.36000 13.744
83.38000 12.623
83.40000 9.112
83.42000 8.230
83.44000 12.466
83.46000 8.845
83.48000 12.920
83.50000 12.425
83.52000 14.712
83.54000 17.296
83.56000 19.082
83.58000 14.637
83.60000 4.423
83.62000 8.708
83.64000 12.100
83.66000 10.893
83.68000 11.549
83.70000 9.930
83.72000 9.205
83.74000 9.436
83.76000 3.390
83.78000 -2.578
83.80000 2.307
83.82000 1.281
83.84000 4.824
83.86000 6.914
83.88000 4.989
83.90000 3.805
83.92000 7.782
83.94000 5.083
83.96000 9.504
83.98000 10.327
84.00000 7.901
84.02000 3.795
84.04000 3.644
84.06000 11.288
84.08000 10.510
84.10000 5.304
84.12000 6.063
84.14000 3.857
84.16000 3.415
84.18000 5.152
84.20000 8.367
84.22000 12.697
84.24000 11.916
84.26000 7.269
84.28000 3.123
84.30000 4.190
84.32000 6.388
84.34000 1.858
84.36000 3.285
84.38000 2.490
84.40000 1.403
84.42000 0.430
84.44000 0.782
84.46000 1.901
84.48000 3.663
84.50000 4.101
84.52000 1.168
84.54000 -2.583
84.56000 -1.431
84.58000 6.116
84.60000 3.766
84.62000 1.569
84.64000 -0.554
84.66000 0.442
84.68000 2.349
84.70000 1.690
84.72000 3.484
84.74000 0.434
84.76000 -2.547
84.78000 3.566
84.80000 6.316
84.82000 0.438
84.84000 3.368
84.86000 3.825
84.88000 3.303
84.90000 4.618
84.92000 -0.235
84.94000 2.757
84.96000 0.826
84.98000 1.308
85.00000 1.900
85.02000 0.363
85.04000 -2.611
85.06000 -2.429
85.08000 3.201
85.10000 2.094
85.12000 0.956
85.14000 2.044
85.16000 0.734
85.18000 4.352
85.20000 4.219
85.22000 4.568
85.24000 2.620
85.26000 2.288
85.28000 1.050
85.30000 1.594
85.32000 1.348
85.34000 3.906
85.36000 4.474
85.38000 3.510
85.40000 3.183
85.42000 0.931
85.44000 3.001
85.46000 8.052
85.48000 7.135
85.50000 5.111
85.52000 5.764
85.54000 5.349
85.56000 6.065
85.58000 0.020
85.60000 1.097
85.62000 3.001
85.64000 7.264
85.66000 5.497
85.68000 3.652
85.70000 3.780
85.72000 5.348
85.74000 9.026
85.76000 6.720
85.78000 6.516
85.80000 6.950
85.82000 7.741
85.84000 7.287
85.86000 6.079
85.88000 10.612
85.90000 18.103
85.92000 16.641
85.94000 14.521
85.96000 7.855
85.98000 8.522
86.00000 12.461
86.02000 17.327
86.04000 16.424
86.06000 14.090
86.08000 14.519
86.10000 13.060
86.12000 13.576
86.14000 12.085
86.16000 6.868
86.18000 16.123
86.20000 16.338
86.22000 20.604
86.24000 22.173
86.26000 23.343
86.28000 22.398
86.30000 21.121
86.32000 23.284
86.34000 24.657
86.36000 21.700
86.38000 19.641
86.40000 20.612
86.42000 19.494
86.44000 22.793
86.46000 23.357
86.48000 27.767
86.50000 24.123
86.52000 20.529
86.54000 23.299
86.56000 27.923
86.58000 25.083
86.60000 25.330
86.62000 26.609
86.64000 25.241
86.66000 31.725
86.68000 23.457
86.70000 20.338
86.72000 21.594
86.74000 27.695
86.76000 28.646
86.78000 24.320
86.80000 27.284
86.82000 23.668
86.84000 17.220
86.86000 24.079
86.88000 22.139
86.90000 27.175
86.92000 24.837
86.94000 26.979
86.96000 28.370
86.98000 27.610
87.00000 23.979
87.02000 19.911
87.04000 16.927
87.06000 24.001
87.08000 15.546
87.10000 12.674
87.12000 21.397
87.14000 22.859
87.16000 26.063
87.18000 24.962
87.20000 22.830
87.22000 23.683
87.24000 21.175
87.26000 14.661
87.28000 18.526
87.30000 17.839
87.32000 20.292
87.34000 18.214
87.36000 12.829
87.38000 11.270
87.40000 11.267
87.42000 17.713
87.44000 14.594
87.46000 11.915
87.48000 14.551
87.50000 15.534
87.52000 16.401
87.54000 16.016
87.56000 15.390
87.58000 14.822
87.60000 11.240
87.62000 6.595
87.64000 12.021
87.66000 15.932
87.68000 10.864
87.70000 5.311
87.72000 7.390
87.74000 16.005
87.76000 9.963
87.78000 6.077
87.80000 8.013
87.82000 4.198
87.84000 4.442
87.86000 4.317
87.88000 6.114
87.90000 7.015
87.92000 8.172
87.94000 7.666
87.96000 4.023
87.98000 7.538
88.00000 6.705
88.02000 6.380
88.04000 6.043
88.06000 6.672
88.08000 3.225
88.10000 1.313
88.12000 0.230
88.14000 7.858
88.16000 6.836
88.18000 3.800
88.20000 6.426
88.22000 7.093
88.24000 5.349
88.26000 2.754
88.28000 3.707
88.30000 2.290
88.32000 2.143
88.34000 6.658
88.36000 3.818
88.38000 2.877
88.40000 7.221
88.42000 8.181
88.44000 5.474
88.46000 9.003
88.48000 6.444
88.50000 1.743
88.52000 -0.595
88.54000 4.399
88.56000 1.588
88.58000 2.688
88.60000 -2.378
88.62000 0.596
88.64000 -0.406
88.66000 5.391
88.68000 0.015
88.70000 2.063
88.72000 5.190
88.74000 3.059
88.76000 6.071
88.78000 3.660
88.80000 4.279
88.82000 1.310
88.84000 -1.294
88.86000 0.604
88.88000 -2.028
88.90000 4.255
88.92000 0.595
88.94000 -0.164
88.96000 0.038
88.98000 0.760
89.00000 3.780
89.02000 -2.361
89.04000 -0.485
89.06000 4.263
89.08000 6.444
89.10000 8.610
89.12000 2.199
89.14000 7.047
89.16000 4.859
89.18000 3.902
89.20000 -0.106
89.22000 0.194
89.24000 2.569
89.26000 3.290
89.28000 1.300
89.30000 3.601
89.32000 2.185
89.34000 1.691
89.36000 4.296
89.38000 6.997
89.40000 6.602
89.42000 4.141
89.44000 0.952
89.46000 0.146
89.48000 1.777
89.50000 2.468
89.52000 1.186
89.54000 2.080
89.56000 2.675
89.58000 0.514
89.60000 0.523
89.62000 9.571
89.64000 3.050
89.66000 4.072
89.68000 6.847
89.70000 2.579
89.72000 0.473
89.74000 5.265
89.76000 4.406
89.78000 1.374
89.80000 4.278
89.82000 3.644
89.84000 -0.916
89.86000 3.430
89.88000 2.923
89.90000 4.519
89.92000 2.301
89.94000 3.441
89.96000 5.354
89.98000 7.418
90.00000 7.406
90.02000 5.046
90.04000 2.491
90.06000 1.180
90.08000 2.718
90.10000 6.332
90.12000 4.188
90.14000 1.516
90.16000 4.752
90.18000 5.755
90.20000 2.855
90.22000 -2.282
90.24000 1.111
90.26000 5.610
90.28000 6.752
90.30000 7.238
90.32000 5.947
90.34000 3.564
90.36000 4.202
90.38000 8.224
90.40000 6.510
90.42000 2.717
90.44000 -0.326
90.46000 -0.021
90.48000 4.826
90.50000 2.925
90.52000 4.044
90.54000 4.301
90.56000 3.405
90.58000 2.096
90.60000 0.615
90.62000 1.512
90.64000 9.048
90.66000 6.391
90.68000 6.277
90.70000 5.405
90.72000 1.881
90.74000 5.167
90.76000 2.266
90.78000 3.961
90.80000 5.107
90.82000 4.392
90.84000 2.187
90.86000 4.185
90.88000 5.668
90.90000 5.093
90.92000 6.691
90.94000 3.007
90.96000 0.613
90.98000 -0.686
91.00000 4.871
91.02000 1.419
91.04000 -2.306
91.06000 3.136
91.08000 2.665
91.10000 0.860
91.12000 5.869
91.14000 1.258
91.16000 6.680
91.18000 7.031
91.20000 3.760
91.22000 3.559
91.24000 4.031
91.26000 1.755
91.28000 4.233
91.30000 7.047
91.32000 5.008
91.34000 1.635
91.36000 6.470
91.38000 8.375
91.40000 4.721
91.42000 1.840
91.44000 -0.708
91.46000 -2.247
91.48000 -2.302
91.50000 5.020
91.52000 6.053
91.54000 9.328
91.56000 5.533
91.58000 7.612
91.60000 5.380
91.62000 5.324
91.64000 7.876
91.66000 3.681
91.68000 2.700
91.70000 6.253
91.72000 2.531
91.74000 0.765
91.76000 4.835
91.78000 1.145
91.80000 -0.182
91.82000 2.690
91.84000 1.759
91.86000 6.340
91.88000 2.204
91.90000 6.028
91.92000 2.250
91.94000 1.110
91.96000 4.198
91.98000 1.195
92.00000 -0.215
92.02000 5.795
92.04000 5.192
92.06000 2.617
92.08000 0.252
92.10000 8.399
92.12000 3.727
92.14000 5.954
92.16000 3.474
92.18000 6.836
92.20000 10.349
92.22000 4.168
92.24000 -0.652
92.26000 -2.293
92.28000 -0.255
92.30000 5.951
92.32000 13.813
92.34000 9.578
92.36000 5.489
92.38000 3.247
92.40000 6.446
92.42000 3.634
92.44000 0.618
92.46000 4.395
92.48000 -1.600
92.50000 0.836
92.52000 1.347
92.54000 7.564
92.56000 6.054
92.58000 -1.758
92.60000 4.017
92.62000 3.629
92.64000 3.893
92.66000 7.796
92.68000 12.520
92.70000 14.092
92.72000 14.699
92.74000 8.250
92.76000 2.920
92.78000 4.417
92.80000 5.036
92.82000 5.430
92.84000 0.041
92.86000 -0.696
92.88000 1.055
92.90000 -2.291
92.92000 -1.456
92.94000 5.921
92.96000 6.850
92.98000 3.023
93.00000 0.831
93.02000 3.889
93.04000 7.567
93.06000 5.841
93.08000 8.781
93.10000 7.060
93.12000 1.803
93.14000 0.421
93.16000 6.382
93.18000 2.407
93.20000 4.506
93.22000 2.911
93.24000 0.862
93.26000 3.716
93.28000 2.828
93.30000 4.991
93.32000 6.174
93.34000 4.618
93.36000 -0.432
93.38000 -0.135
93.40000 1.327
93.42000 7.371
93.44000 4.152
93.46000 2.102
93.48000 -2.321
93.50000 -2.141
93.52000 2.751
93.54000 2.096
93.56000 2.597
93.58000 3.057
93.60000 4.376
93.62000 4.839
93.64000 5.135
93.66000 2.170
93.68000 10.026
93.70000 11.689
93.72000 8.329
93.74000 5.611
93.76000 9.150
93.78000 4.807
93.80000 2.644
93.82000 5.545
93.84000 9.485
93.86000 5.019
93.88000 2.718
93.90000 0.216
93.92000 0.633
93.94000 -0.115
93.96000 2.541
93.98000 8.836
94.00000 5.188
94.02000 1.034
94.04000 1.626
94.06000 1.452
94.08000 0.801
94.10000 -1.080
94.12000 1.060
94.14000 3.267
94.16000 4.873
94.18000 1.773
94.20000 1.285
94.22000 6.354
94.24000 5.704
94.26000 7.723
94.28000 5.475
94.30000 3.723
94.32000 1.774
94.34000 2.550
94.36000 2.939
94.38000 0.105
94.40000 1.721
94.42000 7.096
94.44000 13.131
94.46000 10.575
94.48000 8.283
94.50000 9.819
94.52000 8.045
94.54000 -0.472
94.56000 0.821
94.58000 2.269
94.60000 6.666
94.62000 5.620
94.64000 -0.362
94.66000 3.221
94.68000 6.457
94.70000 4.531
94.72000 3.979
94.74000 3.359
94.76000 0.357
94.78000 0.690
94.80000 1.750
94.82000 2.605
94.84000 6.117
94.86000 7.271
94.88000 6.941
94.90000 6.515
94.92000 3.340
94.94000 4.906
94.96000 5.415
94.98000 -0.245
95.00000 2.805
95.02000 6.193
95.04000 6.224
95.06000 9.075
95.08000 10.573
95.10000 7.464
95.12000 8.927
95.14000 8.883
95.16000 8.519
95.18000 8.494
95.20000 5.346
95.22000 1.271
95.24000 -1.768
95.26000 5.059
95.28000 5.487
95.30000 -2.306
95.32000 0.771
95.34000 6.899
95.36000 6.445
95.38000 7.658
95.40000 7.629
95.42000 6.851
95.44000 6.973
95.46000 2.792
95.48000 4.672
95.50000 9.763
95.52000 11.008
95.54000 5.900
95.56000 2.008
95.58000 4.430
95.60000 -0.523
95.62000 -2.315
95.64000 -1.319
95.66000 0.836
95.68000 4.443
95.70000 8.213
95.72000 4.461
95.74000 8.704
95.76000 8.328
95.78000 7.227
95.80000 3.888
95.82000 6.046
95.84000 2.625
95.86000 -0.303
95.88000 4.069
95.90000 2.457
95.92000 3.999
95.94000 7.407
95.96000 7.997
95.98000 2.700
96.00000 0.776
96.02000 6.077
96.04000 6.888
96.06000 4.997
96.08000 4.586
96.10000 -0.906
96.12000 -1.706
96.14000 7.479
96.16000 8.569
96.18000 3.248
96.20000 7.420
96.22000 2.910
96.24000 2.532
96.26000 1.382
96.28000 2.899
96.30000 2.644
96.32000 4.017
96.34000 5.493
96.36000 4.228
96.38000 3.705
96.40000 2.997
96.42000 1.533
96.44000 4.366
96.46000 10.486
96.48000 8.559
96.50000 5.976
96.52000 13.359
96.54000 11.948
96.56000 9.456
96.58000 8.369
96.60000 0.909
96.62000 3.064
96.64000 2.776
96.66000 7.878
96.68000 7.676
96.70000 8.789
96.72000 8.499
96.74000 9.034
96.76000 6.540
96.78000 4.439
96.80000 3.978
96.82000 4.674
96.84000 3.057
96.86000 4.163
96.88000 3.003
96.90000 9.112
96.92000 7.778
96.94000 4.417
96.96000 1.538
96.98000 3.386
97.00000 5.580
97.02000 7.696
97.04000 11.538
97.06000 9.421
97.08000 8.078
97.10000 1.535
97.12000 1.329
97.14000 -0.252
97.16000 2.663
97.18000 2.706
97.20000 3.697
97.22000 0.610
97.24000 7.324
97.26000 11.979
97.28000 6.047
97.30000 0.452
97.32000 -2.219
97.34000 1.051
97.36000 6.749
97.38000 4.289
97.40000 3.573
97.42000 5.386
97.44000 4.100
97.46000 0.692
97.48000 2.801
97.50000 8.760
97.52000 7.860
97.54000 8.135
97.56000 13.386
97.58000 14.037
97.60000 6.503
97.62000 4.014
97.64000 0.988
97.66000 9.210
97.68000 10.118
97.70000 11.967
97.72000 9.246
97.74000 8.790
97.76000 6.147
97.78000 9.243
97.80000 9.646
97.82000 6.953
97.84000 5.523
97.86000 9.971
97.88000 15.044
97.90000 11.785
97.92000 11.301
97.94000 10.103
97.96000 7.631
97.98000 4.219
98.00000 -2.207
98.02000 1.069
98.04000 5.092
98.06000 9.290
98.08000 14.186
98.10000 11.409
98.12000 11.316
98.14000 11.954
98.16000 7.276
98.18000 10.826
98.20000 6.449
98.22000 18.734
98.24000 10.534
98.26000 13.479
98.28000 10.946
98.30000 14.337
98.32000 15.617
98.34000 15.455
98.36000 10.538
98.38000 9.397
98.40000 9.550
98.42000 9.102
98.44000 3.317
98.46000 -0.284
98.48000 -2.229
98.50000 6.194
98.52000 3.664
98.54000 8.273
98.56000 8.581
98.58000 11.155
98.60000 5.401
98.62000 10.529
98.64000 13.247
98.66000 16.669
98.68000 14.531
98.70000 9.549
98.72000 2.643
98.74000 -1.788
98.76000 1.158
98.78000 4.586
98.80000 9.321
98.82000 10.590
98.84000 0.142
98.86000 4.181
98.88000 4.175
98.90000 6.502
98.92000 6.299
98.94000 9.182
98.96000 12.347
98.98000 5.404
99.00000 -0.116
99.02000 2.992
99.04000 5.187
99.06000 9.242
99.08000 6.326
99.10000 2.270
99.12000 2.437
99.14000 2.055
99.16000 1.603
99.18000 9.431
99.20000 14.862
99.22000 9.115
99.24000 12.078
99.26000 8.951
99.28000 0.700
99.30000 2.161
99.32000 4.905
99.34000 10.242
99.36000 8.929
99.38000 4.729
99.40000 1.492
99.42000 2.837
99.44000 18.691
99.46000 5.446
99.48000 5.163
99.50000 6.975
99.52000 -0.336
99.54000 4.622
99.56000 10.208
99.58000 3.781
99.60000 9.800
99.62000 11.233
99.64000 12.896
99.66000 2.482
99.68000 -0.909
99.70000 -2.266
99.72000 6.421
99.74000 6.690
99.76000 7.132
99.78000 8.019
99.80000 19.169
99.82000 16.308
99.84000 8.490
99.86000 1.870
99.88000 -0.642
99.90000 -2.830
99.92000 8.397
99.94000 10.683
99.96000 1.413
99.98000 0.000
