'Id: "0011389" Comment: "Integrate frame 0011389_Au-Ir-Rh_Au-Rich_XRD_Mapping-334-0000.gfrmwith cursor Wedge Cursor #5" Operator: "B?rgel" Anode: "Cu" Wavelength: "1.5406" Scantype: "2Theta (TwoTheta)" TimePerStep: "1" X: "22.5" Y: "40.5" Z: "5.95" 
10.00000 0.000
10.02000 1.883
10.04000 -4.157
10.06000 -3.834
10.08000 -3.684
10.10000 -0.444
10.12000 9.469
10.14000 7.920
10.16000 10.051
10.18000 13.004
10.20000 5.810
10.22000 -4.105
10.24000 8.808
10.26000 3.571
10.28000 16.335
10.30000 15.666
10.32000 8.623
10.34000 4.306
10.36000 11.157
10.38000 4.821
10.40000 5.386
10.42000 14.618
10.44000 9.941
10.46000 2.344
10.48000 0.891
10.50000 12.673
10.52000 -4.012
10.54000 -4.148
10.56000 21.680
10.58000 13.918
10.60000 12.593
10.62000 17.982
10.64000 5.482
10.66000 8.145
10.68000 10.281
10.70000 -0.779
10.72000 6.727
10.74000 16.897
10.76000 7.510
10.78000 18.050
10.80000 13.670
10.82000 4.666
10.84000 10.939
10.86000 7.158
10.88000 9.988
10.90000 22.821
10.92000 19.263
10.94000 8.499
10.96000 19.098
10.98000 17.034
11.00000 7.376
11.02000 12.927
11.04000 21.867
11.06000 28.062
11.08000 29.742
11.10000 16.917
11.12000 12.962
11.14000 11.405
11.16000 11.917
11.18000 21.372
11.20000 16.630
11.22000 14.485
11.24000 23.409
11.26000 20.675
11.28000 25.793
11.30000 26.339
11.32000 21.034
11.34000 17.989
11.36000 25.128
11.38000 23.710
11.40000 23.017
11.42000 28.586
11.44000 18.373
11.46000 18.542
11.48000 10.689
11.50000 17.972
11.52000 23.612
11.54000 25.257
11.56000 20.100
11.58000 13.702
11.60000 20.454
11.62000 26.099
11.64000 15.381
11.66000 8.895
11.68000 11.302
11.70000 15.703
11.72000 23.227
11.74000 20.205
11.76000 14.938
11.78000 19.280
11.80000 22.246
11.82000 9.484
11.84000 8.400
11.86000 15.521
11.88000 26.290
11.90000 35.547
11.92000 26.898
11.94000 24.848
11.96000 28.565
11.98000 21.991
12.00000 17.288
12.02000 13.744
12.04000 19.346
12.06000 16.173
12.08000 16.523
12.10000 18.976
12.12000 18.491
12.14000 22.570
12.16000 20.292
12.18000 23.050
12.20000 21.283
12.22000 19.369
12.24000 24.979
12.26000 18.979
12.28000 12.128
12.30000 9.065
12.32000 6.934
12.34000 12.791
12.36000 23.479
12.38000 24.283
12.40000 26.508
12.42000 29.322
12.44000 34.119
12.46000 27.854
12.48000 21.918
12.50000 16.427
12.52000 26.963
12.54000 35.237
12.56000 27.090
12.58000 20.480
12.60000 14.632
12.62000 15.681
12.64000 21.882
12.66000 28.317
12.68000 26.284
12.70000 31.646
12.72000 28.315
12.74000 27.479
12.76000 26.275
12.78000 23.600
12.80000 12.469
12.82000 14.012
12.84000 17.610
12.86000 30.661
12.88000 17.071
12.90000 4.910
12.92000 12.452
12.94000 22.783
12.96000 26.848
12.98000 26.333
13.00000 30.759
13.02000 23.477
13.04000 22.633
13.06000 29.123
13.08000 20.259
13.10000 11.021
13.12000 9.947
13.14000 18.670
13.16000 18.602
13.18000 17.984
13.20000 21.410
13.22000 28.404
13.24000 22.632
13.26000 16.024
13.28000 16.558
13.30000 22.030
13.32000 29.084
13.34000 41.339
13.36000 27.732
13.38000 7.577
13.40000 6.270
13.42000 13.877
13.44000 12.552
13.46000 18.929
13.48000 16.326
13.50000 12.635
13.52000 16.203
13.54000 19.309
13.56000 22.223
13.58000 27.224
13.60000 19.094
13.62000 17.642
13.64000 14.910
13.66000 18.500
13.68000 19.505
13.70000 19.882
13.72000 20.704
13.74000 25.573
13.76000 16.224
13.78000 20.889
13.80000 18.267
13.82000 22.285
13.84000 21.512
13.86000 22.295
13.88000 30.034
13.90000 23.314
13.92000 17.793
13.94000 16.364
13.96000 18.870
13.98000 14.479
14.00000 18.559
14.02000 27.439
14.04000 19.099
14.06000 13.040
14.08000 16.229
14.10000 22.821
14.12000 20.668
14.14000 28.776
14.16000 22.657
14.18000 16.557
14.20000 15.162
14.22000 10.000
14.24000 15.636
14.26000 23.931
14.28000 19.071
14.30000 12.507
14.32000 16.094
14.34000 20.959
14.36000 26.258
14.38000 17.244
14.40000 23.118
14.42000 28.845
14.44000 21.533
14.46000 12.038
14.48000 19.891
14.50000 23.734
14.52000 18.462
14.54000 13.898
14.56000 9.592
14.58000 13.866
14.60000 13.610
14.62000 9.089
14.64000 18.021
14.66000 18.411
14.68000 15.166
14.70000 16.730
14.72000 14.815
14.74000 16.337
14.76000 15.025
14.78000 7.025
14.80000 5.615
14.82000 10.973
14.84000 12.205
14.86000 5.223
14.88000 11.160
14.90000 12.453
14.92000 20.360
14.94000 14.212
14.96000 4.464
14.98000 14.051
15.00000 18.660
15.02000 7.326
15.04000 6.184
15.06000 5.400
15.08000 13.333
15.10000 13.318
15.12000 21.146
15.14000 15.561
15.16000 8.331
15.18000 15.371
15.20000 26.678
15.22000 20.255
15.24000 17.688
15.26000 16.279
15.28000 21.189
15.30000 21.207
15.32000 9.996
15.34000 10.753
15.36000 13.333
15.38000 23.560
15.40000 25.498
15.42000 15.596
15.44000 10.654
15.46000 9.025
15.48000 15.630
15.50000 19.399
15.52000 26.900
15.54000 18.151
15.56000 13.894
15.58000 16.314
15.60000 22.233
15.62000 18.763
15.64000 19.310
15.66000 19.594
15.68000 15.896
15.70000 15.990
15.72000 13.270
15.74000 16.817
15.76000 14.217
15.78000 16.392
15.80000 18.811
15.82000 9.928
15.84000 6.417
15.86000 6.475
15.88000 4.906
15.90000 9.251
15.92000 10.575
15.94000 6.821
15.96000 21.003
15.98000 21.987
16.00000 15.843
16.02000 16.159
16.04000 19.687
16.06000 24.165
16.08000 10.836
16.10000 8.757
16.12000 14.443
16.14000 18.081
16.16000 15.107
16.18000 3.398
16.20000 11.052
16.22000 21.007
16.24000 18.384
16.26000 13.927
16.28000 6.140
16.30000 12.341
16.32000 11.905
16.34000 7.886
16.36000 9.039
16.38000 9.878
16.40000 11.704
16.42000 3.483
16.44000 9.793
16.46000 16.955
16.48000 15.816
16.50000 16.264
16.52000 16.172
16.54000 10.394
16.56000 3.267
16.58000 2.376
16.60000 -4.404
16.62000 6.074
16.64000 12.224
16.66000 15.084
16.68000 17.952
16.70000 15.857
16.72000 11.063
16.74000 15.945
16.76000 10.694
16.78000 11.166
16.80000 8.942
16.82000 12.834
16.84000 12.508
16.86000 4.783
16.88000 14.969
16.90000 15.537
16.92000 6.896
16.94000 1.655
16.96000 3.639
16.98000 10.572
17.00000 16.223
17.02000 8.509
17.04000 4.417
17.06000 10.680
17.08000 16.041
17.10000 17.595
17.12000 10.514
17.14000 13.158
17.16000 17.269
17.18000 15.647
17.20000 15.606
17.22000 12.118
17.24000 10.130
17.26000 8.250
17.28000 11.837
17.30000 10.261
17.32000 7.660
17.34000 9.079
17.36000 5.139
17.38000 7.142
17.40000 5.831
17.42000 8.894
17.44000 9.598
17.46000 4.785
17.48000 10.827
17.50000 14.044
17.52000 14.898
17.54000 14.025
17.56000 0.750
17.58000 6.230
17.60000 16.400
17.62000 12.383
17.64000 14.238
17.66000 12.505
17.68000 11.717
17.70000 7.854
17.72000 7.722
17.74000 9.749
17.76000 11.891
17.78000 6.334
17.80000 8.638
17.82000 6.488
17.84000 -1.039
17.86000 6.250
17.88000 10.066
17.90000 9.894
17.92000 4.083
17.94000 1.732
17.96000 4.220
17.98000 9.689
18.00000 8.062
18.02000 -2.032
18.04000 4.346
18.06000 6.005
18.08000 5.758
18.10000 9.637
18.12000 17.636
18.14000 7.303
18.16000 5.721
18.18000 3.427
18.20000 2.854
18.22000 5.266
18.24000 8.611
18.26000 13.751
18.28000 17.031
18.30000 14.282
18.32000 8.718
18.34000 5.118
18.36000 0.835
18.38000 4.146
18.40000 8.526
18.42000 10.408
18.44000 8.550
18.46000 -0.964
18.48000 -3.398
18.50000 1.363
18.52000 0.085
18.54000 -1.155
18.56000 -2.203
18.58000 10.606
18.60000 12.992
18.62000 1.282
18.64000 4.169
18.66000 9.760
18.68000 12.141
18.70000 3.526
18.72000 6.517
18.74000 3.270
18.76000 4.098
18.78000 0.059
18.80000 1.944
18.82000 1.688
18.84000 5.859
18.86000 6.160
18.88000 -4.323
18.90000 9.494
18.92000 18.793
18.94000 10.681
18.96000 2.112
18.98000 5.265
19.00000 7.782
19.02000 1.016
19.04000 7.543
19.06000 11.523
19.08000 5.217
19.10000 0.955
19.12000 4.536
19.14000 2.703
19.16000 0.802
19.18000 8.246
19.20000 11.611
19.22000 7.231
19.24000 5.026
19.26000 1.126
19.28000 0.551
19.30000 3.429
19.32000 -2.263
19.34000 1.411
19.36000 4.188
19.38000 5.256
19.40000 10.795
19.42000 9.840
19.44000 5.335
19.46000 9.411
19.48000 7.530
19.50000 1.662
19.52000 7.593
19.54000 2.538
19.56000 -0.013
19.58000 6.061
19.60000 5.292
19.62000 -2.107
19.64000 6.196
19.66000 7.845
19.68000 8.141
19.70000 8.490
19.72000 1.960
19.74000 -4.269
19.76000 0.052
19.78000 3.058
19.80000 4.549
19.82000 2.483
19.84000 2.479
19.86000 3.486
19.88000 1.962
19.90000 -1.025
19.92000 4.387
19.94000 1.585
19.96000 1.866
19.98000 4.452
20.00000 7.435
20.02000 8.664
20.04000 3.497
20.06000 6.134
20.08000 7.344
20.10000 12.223
20.12000 7.900
20.14000 10.148
20.16000 8.292
20.18000 8.602
20.20000 8.902
20.22000 6.520
20.24000 7.948
20.26000 6.329
20.28000 9.861
20.30000 8.646
20.32000 1.866
20.34000 0.892
20.36000 4.262
20.38000 8.174
20.40000 8.782
20.42000 8.696
20.44000 7.918
20.46000 6.013
20.48000 5.460
20.50000 5.205
20.52000 -0.260
20.54000 6.535
20.56000 8.084
20.58000 2.780
20.60000 3.616
20.62000 7.233
20.64000 6.312
20.66000 1.962
20.68000 -0.571
20.70000 3.393
20.72000 8.563
20.74000 1.903
20.76000 -0.804
20.78000 0.119
20.80000 4.147
20.82000 9.417
20.84000 4.378
20.86000 6.875
20.88000 10.476
20.90000 2.726
20.92000 1.409
20.94000 7.870
20.96000 6.775
20.98000 13.502
21.00000 5.835
21.02000 -4.202
21.04000 -2.125
21.06000 0.704
21.08000 2.387
21.10000 -1.171
21.12000 1.291
21.14000 3.982
21.16000 7.063
21.18000 7.127
21.20000 7.249
21.22000 10.900
21.24000 6.495
21.26000 4.412
21.28000 7.739
21.30000 9.230
21.32000 5.248
21.34000 -4.179
21.36000 -0.929
21.38000 6.275
21.40000 7.665
21.42000 4.598
21.44000 0.299
21.46000 7.698
21.48000 10.658
21.50000 3.177
21.52000 7.560
21.54000 9.687
21.56000 -2.025
21.58000 -1.537
21.60000 5.541
21.62000 3.699
21.64000 5.874
21.66000 7.799
21.68000 5.540
21.70000 4.592
21.72000 9.744
21.74000 7.113
21.76000 2.818
21.78000 2.947
21.80000 4.993
21.82000 2.718
21.84000 3.537
21.86000 5.046
21.88000 3.467
21.90000 0.356
21.92000 2.249
21.94000 5.341
21.96000 9.955
21.98000 5.443
22.00000 7.276
22.02000 5.814
22.04000 10.395
22.06000 8.533
22.08000 8.540
22.10000 3.521
22.12000 4.371
22.14000 4.538
22.16000 7.380
22.18000 5.663
22.20000 5.017
22.22000 8.035
22.24000 5.118
22.26000 4.450
22.28000 6.376
22.30000 -0.109
22.32000 -3.597
22.34000 -3.948
22.36000 -4.158
22.38000 -0.368
22.40000 4.834
22.42000 -1.121
22.44000 -0.849
22.46000 7.153
22.48000 3.174
22.50000 1.000
22.52000 8.227
22.54000 7.165
22.56000 6.413
22.58000 4.124
22.60000 1.117
22.62000 0.153
22.64000 5.827
22.66000 9.768
22.68000 4.519
22.70000 0.828
22.72000 -2.343
22.74000 5.059
22.76000 7.664
22.78000 8.699
22.80000 3.408
22.82000 -1.817
22.84000 -3.602
22.86000 -0.530
22.88000 1.283
22.90000 2.124
22.92000 4.383
22.94000 1.670
22.96000 0.597
22.98000 -0.273
23.00000 -3.598
23.02000 -0.841
23.04000 1.436
23.06000 3.012
23.08000 5.139
23.10000 0.751
23.12000 -2.250
23.14000 -3.491
23.16000 4.468
23.18000 5.051
23.20000 -0.376
23.22000 0.539
23.24000 2.259
23.26000 5.238
23.28000 4.975
23.30000 5.720
23.32000 1.286
23.34000 -0.716
23.36000 1.209
23.38000 4.117
23.40000 10.615
23.42000 7.288
23.44000 -2.873
23.46000 -0.586
23.48000 2.749
23.50000 4.585
23.52000 4.842
23.54000 -2.700
23.56000 1.473
23.58000 3.586
23.60000 -3.158
23.62000 -4.083
23.64000 -0.681
23.66000 3.019
23.68000 3.431
23.70000 1.987
23.72000 1.380
23.74000 5.120
23.76000 6.194
23.78000 6.663
23.80000 7.425
23.82000 3.836
23.84000 2.562
23.86000 2.058
23.88000 -1.045
23.90000 4.059
23.92000 8.364
23.94000 9.052
23.96000 1.687
23.98000 -1.288
24.00000 1.364
24.02000 -0.859
24.04000 -1.753
24.06000 4.897
24.08000 5.305
24.10000 1.758
24.12000 -1.880
24.14000 -1.713
24.16000 -2.009
24.18000 0.101
24.20000 1.981
24.22000 2.264
24.24000 5.988
24.26000 6.959
24.28000 8.701
24.30000 6.201
24.32000 7.959
24.34000 3.747
24.36000 2.701
24.38000 3.125
24.40000 2.088
24.42000 7.769
24.44000 6.185
24.46000 3.423
24.48000 3.042
24.50000 3.964
24.52000 0.831
24.54000 2.722
24.56000 -1.381
24.58000 1.544
24.60000 2.393
24.62000 7.391
24.64000 3.360
24.66000 -1.402
24.68000 3.505
24.70000 7.747
24.72000 2.962
24.74000 -0.228
24.76000 -0.039
24.78000 1.035
24.80000 0.699
24.82000 -1.988
24.84000 -1.522
24.86000 1.923
24.88000 11.206
24.90000 8.411
24.92000 4.211
24.94000 3.297
24.96000 -1.635
24.98000 -0.127
25.00000 7.306
25.02000 2.082
25.04000 1.696
25.06000 0.597
25.08000 -0.169
25.10000 0.215
25.12000 1.613
25.14000 2.487
25.16000 1.872
25.18000 -2.873
25.20000 7.838
25.22000 10.688
25.24000 6.256
25.26000 2.320
25.28000 -3.990
25.30000 1.135
25.32000 7.816
25.34000 6.526
25.36000 -3.984
25.38000 -2.786
25.40000 1.137
25.42000 1.260
25.44000 6.527
25.46000 5.011
25.48000 0.543
25.50000 4.082
25.52000 5.281
25.54000 4.038
25.56000 7.452
25.58000 7.586
25.60000 3.478
25.62000 -0.518
25.64000 1.388
25.66000 1.200
25.68000 2.777
25.70000 5.326
25.72000 4.124
25.74000 5.060
25.76000 4.781
25.78000 3.475
25.80000 3.899
25.82000 2.391
25.84000 -3.187
25.86000 -0.931
25.88000 0.548
25.90000 -1.049
25.92000 -2.112
25.94000 1.831
25.96000 0.764
25.98000 3.447
26.00000 5.656
26.02000 -0.052
26.04000 -3.060
26.06000 -1.275
26.08000 1.747
26.10000 6.546
26.12000 9.082
26.14000 9.370
26.16000 5.904
26.18000 3.193
26.20000 5.132
26.22000 3.878
26.24000 -0.980
26.26000 -1.098
26.28000 0.151
26.30000 -3.927
26.32000 3.138
26.34000 5.508
26.36000 6.249
26.38000 6.382
26.40000 6.791
26.42000 0.922
26.44000 -3.847
26.46000 -1.976
26.48000 2.681
26.50000 6.330
26.52000 5.476
26.54000 9.450
26.56000 9.098
26.58000 7.609
26.60000 4.458
26.62000 6.040
26.64000 1.263
26.66000 0.609
26.68000 4.809
26.70000 5.155
26.72000 4.067
26.74000 4.067
26.76000 3.401
26.78000 0.580
26.80000 5.072
26.82000 2.125
26.84000 4.146
26.86000 4.566
26.88000 2.691
26.90000 3.108
26.92000 2.645
26.94000 2.987
26.96000 -1.301
26.98000 -2.566
27.00000 3.243
27.02000 5.173
27.04000 8.143
27.06000 5.038
27.08000 5.022
27.10000 6.982
27.12000 5.346
27.14000 1.688
27.16000 1.198
27.18000 3.009
27.20000 3.852
27.22000 2.597
27.24000 7.290
27.26000 6.742
27.28000 -2.259
27.30000 0.095
27.32000 0.552
27.34000 2.706
27.36000 6.118
27.38000 10.329
27.40000 7.226
27.42000 3.248
27.44000 1.689
27.46000 7.208
27.48000 7.710
27.50000 1.506
27.52000 9.134
27.54000 5.464
27.56000 3.731
27.58000 6.618
27.60000 4.905
27.62000 -0.710
27.64000 0.088
27.66000 9.075
27.68000 9.103
27.70000 5.452
27.72000 2.184
27.74000 4.658
27.76000 7.394
27.78000 2.765
27.80000 4.811
27.82000 5.975
27.84000 0.064
27.86000 -0.961
27.88000 0.569
27.90000 2.032
27.92000 5.151
27.94000 1.032
27.96000 5.652
27.98000 11.564
28.00000 9.811
28.02000 5.936
28.04000 3.391
28.06000 7.112
28.08000 5.221
28.10000 8.959
28.12000 3.866
28.14000 2.221
28.16000 4.072
28.18000 7.874
28.20000 11.672
28.22000 3.769
28.24000 -1.584
28.26000 -3.816
28.28000 1.729
28.30000 7.959
28.32000 7.094
28.34000 5.533
28.36000 6.722
28.38000 0.916
28.40000 4.018
28.42000 4.808
28.44000 0.895
28.46000 3.761
28.48000 4.475
28.50000 1.758
28.52000 0.738
28.54000 2.911
28.56000 -3.341
28.58000 -3.636
28.60000 5.781
28.62000 8.059
28.64000 5.416
28.66000 4.512
28.68000 5.609
28.70000 4.140
28.72000 5.120
28.74000 0.361
28.76000 -0.214
28.78000 4.264
28.80000 8.803
28.82000 5.655
28.84000 6.471
28.86000 7.598
28.88000 10.329
28.90000 2.216
28.92000 -2.290
28.94000 -2.155
28.96000 4.361
28.98000 6.356
29.00000 6.715
29.02000 3.967
29.04000 2.913
29.06000 4.986
29.08000 4.794
29.10000 0.091
29.12000 0.225
29.14000 0.409
29.16000 -0.874
29.18000 1.945
29.20000 0.524
29.22000 2.083
29.24000 4.677
29.26000 6.770
29.28000 2.113
29.30000 1.920
29.32000 5.179
29.34000 10.676
29.36000 3.512
29.38000 2.057
29.40000 3.735
29.42000 -1.951
29.44000 -2.345
29.46000 1.426
29.48000 6.432
29.50000 5.550
29.52000 9.251
29.54000 8.214
29.56000 3.134
29.58000 6.287
29.60000 6.581
29.62000 7.239
29.64000 4.432
29.66000 1.126
29.68000 2.102
29.70000 2.423
29.72000 2.828
29.74000 6.217
29.76000 3.748
29.78000 4.489
29.80000 2.569
29.82000 7.334
29.84000 1.635
29.86000 1.677
29.88000 3.384
29.90000 5.826
29.92000 3.018
29.94000 3.747
29.96000 2.072
29.98000 3.262
30.00000 1.030
30.02000 0.125
30.04000 0.354
30.06000 1.211
30.08000 4.443
30.10000 3.596
30.12000 4.388
30.14000 4.620
30.16000 7.362
30.18000 9.825
30.20000 5.944
30.22000 -0.066
30.24000 0.664
30.26000 -2.306
30.28000 -1.233
30.30000 2.684
30.32000 4.240
30.34000 5.664
30.36000 4.438
30.38000 10.447
30.40000 10.386
30.42000 7.516
30.44000 10.509
30.46000 11.567
30.48000 9.387
30.50000 2.040
30.52000 -0.300
30.54000 6.689
30.56000 9.006
30.58000 8.622
30.60000 3.942
30.62000 2.288
30.64000 6.253
30.66000 9.447
30.68000 5.158
30.70000 4.969
30.72000 5.972
30.74000 10.995
30.76000 8.292
30.78000 6.154
30.80000 3.966
30.82000 6.297
30.84000 6.985
30.86000 7.954
30.88000 7.460
30.90000 5.355
30.92000 7.957
30.94000 9.651
30.96000 11.147
30.98000 3.971
31.00000 1.341
31.02000 0.261
31.04000 -3.656
31.06000 2.342
31.08000 11.659
31.10000 8.807
31.12000 9.947
31.14000 2.056
31.16000 5.440
31.18000 8.966
31.20000 10.636
31.22000 11.592
31.24000 9.122
31.26000 11.198
31.28000 10.330
31.30000 7.186
31.32000 2.504
31.34000 2.528
31.36000 7.489
31.38000 12.965
31.40000 9.943
31.42000 8.869
31.44000 3.836
31.46000 -2.361
31.48000 0.788
31.50000 1.511
31.52000 3.546
31.54000 8.222
31.56000 10.900
31.58000 6.528
31.60000 7.401
31.62000 4.750
31.64000 1.389
31.66000 3.541
31.68000 5.325
31.70000 6.412
31.72000 7.211
31.74000 4.906
31.76000 3.768
31.78000 5.312
31.80000 3.150
31.82000 7.729
31.84000 11.197
31.86000 6.469
31.88000 4.172
31.90000 1.863
31.92000 1.242
31.94000 2.421
31.96000 1.216
31.98000 0.841
32.00000 1.561
32.02000 4.430
32.04000 10.372
32.06000 11.197
32.08000 7.042
32.10000 5.637
32.12000 6.972
32.14000 7.263
32.16000 9.977
32.18000 7.209
32.20000 8.747
32.22000 10.345
32.24000 6.653
32.26000 5.654
32.28000 7.702
32.30000 5.730
32.32000 3.723
32.34000 6.299
32.36000 7.471
32.38000 3.086
32.40000 -1.442
32.42000 6.087
32.44000 4.397
32.46000 3.458
32.48000 6.708
32.50000 4.878
32.52000 4.248
32.54000 8.179
32.56000 2.605
32.58000 1.859
32.60000 6.805
32.62000 8.305
32.64000 9.461
32.66000 2.944
32.68000 1.987
32.70000 6.515
32.72000 9.589
32.74000 12.677
32.76000 4.082
32.78000 0.710
32.80000 -3.640
32.82000 3.019
32.84000 6.519
32.86000 4.799
32.88000 0.954
32.90000 3.538
32.92000 2.177
32.94000 3.586
32.96000 9.463
32.98000 4.706
33.00000 5.536
33.02000 3.086
33.04000 5.769
33.06000 0.434
33.08000 -1.801
33.10000 2.072
33.12000 6.419
33.14000 8.660
33.16000 5.214
33.18000 5.873
33.20000 3.350
33.22000 5.999
33.24000 -0.491
33.26000 -2.263
33.28000 3.351
33.30000 9.346
33.32000 5.475
33.34000 0.598
33.36000 1.428
33.38000 2.994
33.40000 1.806
33.42000 3.065
33.44000 0.962
33.46000 -0.302
33.48000 6.121
33.50000 7.630
33.52000 6.318
33.54000 1.870
33.56000 -0.460
33.58000 1.117
33.60000 5.424
33.62000 2.677
33.64000 3.267
33.66000 5.396
33.68000 4.983
33.70000 1.454
33.72000 3.897
33.74000 1.533
33.76000 2.678
33.78000 4.223
33.80000 7.091
33.82000 8.110
33.84000 3.335
33.86000 1.429
33.88000 2.809
33.90000 6.601
33.92000 7.675
33.94000 -0.229
33.96000 -3.652
33.98000 4.966
34.00000 7.778
34.02000 8.662
34.04000 11.225
34.06000 8.027
34.08000 6.386
34.10000 5.428
34.12000 5.682
34.14000 1.745
34.16000 3.336
34.18000 5.560
34.20000 9.182
34.22000 3.747
34.24000 -0.969
34.26000 1.222
34.28000 2.163
34.30000 4.612
34.32000 7.724
34.34000 6.708
34.36000 1.294
34.38000 0.101
34.40000 3.139
34.42000 2.353
34.44000 1.008
34.46000 3.801
34.48000 8.129
34.50000 9.856
34.52000 9.442
34.54000 9.084
34.56000 9.890
34.58000 7.271
34.60000 2.544
34.62000 1.741
34.64000 1.399
34.66000 -0.189
34.68000 0.461
34.70000 7.691
34.72000 8.071
34.74000 6.603
34.76000 2.244
34.78000 -3.642
34.80000 -0.796
34.82000 0.961
34.84000 2.776
34.86000 2.695
34.88000 4.320
34.90000 3.044
34.92000 -0.599
34.94000 -0.019
34.96000 4.401
34.98000 4.839
35.00000 0.236
35.02000 1.837
35.04000 -3.645
35.06000 -0.238
35.08000 0.376
35.10000 4.085
35.12000 7.087
35.14000 3.577
35.16000 -0.310
35.18000 -2.950
35.20000 1.011
35.22000 0.202
35.24000 -0.940
35.26000 4.825
35.28000 5.210
35.30000 6.241
35.32000 5.791
35.34000 5.310
35.36000 4.469
35.38000 -0.411
35.40000 4.156
35.42000 3.892
35.44000 1.873
35.46000 3.925
35.48000 1.156
35.50000 -1.281
35.52000 -3.657
35.54000 -0.256
35.56000 8.647
35.58000 3.697
35.60000 -2.768
35.62000 4.169
35.64000 0.317
35.66000 0.916
35.68000 4.855
35.70000 3.552
35.72000 -0.828
35.74000 0.078
35.76000 2.343
35.78000 5.110
35.80000 6.356
35.82000 3.674
35.84000 -1.862
35.86000 4.690
35.88000 3.456
35.90000 -0.201
35.92000 2.708
35.94000 3.412
35.96000 2.522
35.98000 6.320
36.00000 8.095
36.02000 6.419
36.04000 12.240
36.06000 9.585
36.08000 8.187
36.10000 6.000
36.12000 4.017
36.14000 1.652
36.16000 0.453
36.18000 7.253
36.20000 8.841
36.22000 7.366
36.24000 2.274
36.26000 -0.105
36.28000 -2.149
36.30000 -2.866
36.32000 -3.657
36.34000 0.397
36.36000 4.590
36.38000 7.965
36.40000 6.226
36.42000 5.833
36.44000 6.989
36.46000 9.176
36.48000 5.846
36.50000 7.608
36.52000 7.036
36.54000 5.583
36.56000 9.671
36.58000 7.374
36.60000 5.512
36.62000 11.853
36.64000 12.076
36.66000 8.620
36.68000 5.972
36.70000 6.604
36.72000 5.728
36.74000 7.268
36.76000 9.568
36.78000 12.284
36.80000 13.850
36.82000 12.837
36.84000 7.485
36.86000 4.033
36.88000 7.694
36.90000 10.808
36.92000 10.753
36.94000 8.120
36.96000 9.593
36.98000 12.744
37.00000 14.933
37.02000 13.390
37.04000 12.519
37.06000 16.013
37.08000 10.183
37.10000 9.350
37.12000 11.364
37.14000 9.259
37.16000 11.200
37.18000 7.926
37.20000 10.608
37.22000 15.875
37.24000 15.809
37.26000 19.308
37.28000 18.310
37.30000 15.119
37.32000 12.880
37.34000 14.247
37.36000 13.738
37.38000 17.303
37.40000 16.483
37.42000 14.152
37.44000 16.698
37.46000 21.643
37.48000 22.129
37.50000 22.328
37.52000 25.414
37.54000 23.629
37.56000 20.574
37.58000 18.354
37.60000 18.582
37.62000 24.618
37.64000 25.514
37.66000 24.501
37.68000 25.155
37.70000 20.888
37.72000 27.707
37.74000 30.078
37.76000 28.964
37.78000 32.144
37.80000 30.727
37.82000 35.013
37.84000 35.246
37.86000 36.756
37.88000 35.263
37.90000 36.068
37.92000 31.914
37.94000 34.882
37.96000 38.364
37.98000 39.507
38.00000 42.426
38.02000 38.252
38.04000 39.822
38.06000 44.419
38.08000 45.750
38.10000 49.588
38.12000 46.670
38.14000 47.089
38.16000 44.252
38.18000 50.846
38.20000 51.899
38.22000 53.724
38.24000 55.303
38.26000 55.139
38.28000 59.626
38.30000 62.904
38.32000 60.206
38.34000 66.774
38.36000 66.420
38.38000 68.925
38.40000 69.702
38.42000 73.199
38.44000 77.634
38.46000 78.701
38.48000 86.052
38.50000 91.086
38.52000 93.617
38.54000 99.544
38.56000 98.143
38.58000 104.603
38.60000 114.438
38.62000 117.388
38.64000 122.798
38.66000 132.928
38.68000 137.205
38.70000 142.785
38.72000 150.712
38.74000 156.790
38.76000 164.537
38.78000 172.870
38.80000 185.851
38.82000 196.044
38.84000 210.499
38.86000 219.371
38.88000 223.895
38.90000 238.500
38.92000 246.574
38.94000 253.196
38.96000 268.722
38.98000 277.837
39.00000 283.542
39.02000 290.450
39.04000 307.233
39.06000 321.271
39.08000 324.063
39.10000 326.180
39.12000 328.314
39.14000 332.333
39.16000 337.705
39.18000 340.430
39.20000 343.571
39.22000 336.674
39.24000 337.336
39.26000 328.576
39.28000 315.850
39.30000 305.491
39.32000 300.254
39.34000 293.101
39.36000 278.570
39.38000 269.515
39.40000 263.965
39.42000 246.671
39.44000 237.125
39.46000 234.857
39.48000 218.333
39.50000 201.854
39.52000 192.316
39.54000 183.844
39.56000 176.262
39.58000 165.778
39.60000 152.062
39.62000 143.637
39.64000 133.460
39.66000 125.646
39.68000 117.672
39.70000 115.452
39.72000 111.737
39.74000 104.341
39.76000 95.666
39.78000 88.180
39.80000 86.316
39.82000 78.676
39.84000 79.416
39.86000 75.359
39.88000 70.017
39.90000 70.243
39.92000 63.744
39.94000 51.800
39.96000 46.608
39.98000 52.916
40.00000 56.561
40.02000 51.186
40.04000 47.458
40.06000 43.336
40.08000 44.479
40.10000 45.994
40.12000 35.056
40.14000 31.624
40.16000 33.257
40.18000 32.766
40.20000 33.007
40.22000 30.939
40.24000 32.093
40.26000 32.519
40.28000 29.590
40.30000 28.065
40.32000 23.170
40.34000 22.231
40.36000 25.445
40.38000 21.802
40.40000 20.672
40.42000 21.773
40.44000 21.801
40.46000 21.669
40.48000 19.991
40.50000 14.235
40.52000 14.723
40.54000 7.741
40.56000 10.073
40.58000 13.196
40.60000 16.647
40.62000 14.735
40.64000 14.370
40.66000 10.996
40.68000 11.875
40.70000 10.833
40.72000 10.241
40.74000 6.483
40.76000 8.598
40.78000 9.121
40.80000 6.795
40.82000 6.597
40.84000 6.809
40.86000 8.912
40.88000 9.876
40.90000 8.765
40.92000 7.804
40.94000 6.258
40.96000 11.723
40.98000 7.735
41.00000 8.486
41.02000 4.014
41.04000 4.321
41.06000 4.569
41.08000 4.614
41.10000 2.666
41.12000 3.700
41.14000 5.497
41.16000 3.115
41.18000 5.862
41.20000 7.954
41.22000 9.710
41.24000 8.116
41.26000 3.387
41.28000 2.523
41.30000 5.229
41.32000 7.687
41.34000 4.844
41.36000 0.306
41.38000 1.242
41.40000 2.438
41.42000 4.742
41.44000 4.109
41.46000 1.102
41.48000 1.135
41.50000 1.944
41.52000 3.697
41.54000 1.218
41.56000 0.724
41.58000 0.304
41.60000 -0.141
41.62000 0.929
41.64000 0.336
41.66000 0.770
41.68000 1.380
41.70000 -1.054
41.72000 1.906
41.74000 0.109
41.76000 -1.749
41.78000 -3.213
41.80000 -0.862
41.82000 3.469
41.84000 5.239
41.86000 4.897
41.88000 3.180
41.90000 4.572
41.92000 2.815
41.94000 1.352
41.96000 0.370
41.98000 1.750
42.00000 2.042
42.02000 -0.841
42.04000 1.904
42.06000 1.414
42.08000 -3.372
42.10000 1.568
42.12000 2.596
42.14000 3.447
42.16000 2.617
42.18000 0.424
42.20000 0.176
42.22000 0.961
42.24000 2.490
42.26000 4.473
42.28000 3.894
42.30000 4.752
42.32000 3.315
42.34000 -0.022
42.36000 1.476
42.38000 -0.593
42.40000 2.159
42.42000 4.317
42.44000 2.026
42.46000 -2.169
42.48000 -3.322
42.50000 0.125
42.52000 0.022
42.54000 4.316
42.56000 3.841
42.58000 4.159
42.60000 1.400
42.62000 -0.523
42.64000 1.039
42.66000 2.235
42.68000 0.845
42.70000 4.668
42.72000 4.672
42.74000 2.276
42.76000 0.514
42.78000 -1.095
42.80000 -0.154
42.82000 -2.555
42.84000 -3.285
42.86000 -1.226
42.88000 0.900
42.90000 2.524
42.92000 4.203
42.94000 1.437
42.96000 -1.609
42.98000 1.456
43.00000 2.291
43.02000 3.222
43.04000 -0.534
43.06000 -2.386
43.08000 0.282
43.10000 0.283
43.12000 -3.262
43.14000 -1.633
43.16000 0.459
43.18000 2.529
43.20000 3.309
43.22000 -0.837
43.24000 1.773
43.26000 2.629
43.28000 0.872
43.30000 0.655
43.32000 -0.814
43.34000 0.782
43.36000 0.505
43.38000 1.519
43.40000 3.559
43.42000 4.336
43.44000 -0.803
43.46000 -0.891
43.48000 2.599
43.50000 4.200
43.52000 2.233
43.54000 0.120
43.56000 1.840
43.58000 1.974
43.60000 -0.117
43.62000 0.072
43.64000 0.681
43.66000 1.032
43.68000 0.651
43.70000 0.880
43.72000 0.094
43.74000 2.685
43.76000 -3.222
43.78000 -1.921
43.80000 0.587
43.82000 2.188
43.84000 4.298
43.86000 3.941
43.88000 3.139
43.90000 3.634
43.92000 5.058
43.94000 5.196
43.96000 5.839
43.98000 7.599
44.00000 4.526
44.02000 2.449
44.04000 1.268
44.06000 1.027
44.08000 1.910
44.10000 2.569
44.12000 4.198
44.14000 4.270
44.16000 3.603
44.18000 0.872
44.20000 1.730
44.22000 3.165
44.24000 3.924
44.26000 4.724
44.28000 4.704
44.30000 4.184
44.32000 3.969
44.34000 4.922
44.36000 6.362
44.38000 9.026
44.40000 7.763
44.42000 7.367
44.44000 12.007
44.46000 9.134
44.48000 5.374
44.50000 12.784
44.52000 12.882
44.54000 8.515
44.56000 5.597
44.58000 9.143
44.60000 8.803
44.62000 7.023
44.64000 8.998
44.66000 12.757
44.68000 14.902
44.70000 12.024
44.72000 7.588
44.74000 15.857
44.76000 15.985
44.78000 15.538
44.80000 14.103
44.82000 17.218
44.84000 16.288
44.86000 20.365
44.88000 19.973
44.90000 19.594
44.92000 19.515
44.94000 20.986
44.96000 19.743
44.98000 22.743
45.00000 26.697
45.02000 29.843
45.04000 27.307
45.06000 29.312
45.08000 33.832
45.10000 33.164
45.12000 31.763
45.14000 33.587
45.16000 40.589
45.18000 45.462
45.20000 44.962
45.22000 45.920
45.24000 49.157
45.26000 50.763
45.28000 50.074
45.30000 52.470
45.32000 51.243
45.34000 56.315
45.36000 62.417
45.38000 69.575
45.40000 73.438
45.42000 73.684
45.44000 73.253
45.46000 78.306
45.48000 80.655
45.50000 80.095
45.52000 82.119
45.54000 82.444
45.56000 84.124
45.58000 87.535
45.60000 93.699
45.62000 96.139
45.64000 96.636
45.66000 101.035
45.68000 100.748
45.70000 97.970
45.72000 99.088
45.74000 98.094
45.76000 98.064
45.78000 100.311
45.80000 100.733
45.82000 102.817
45.84000 99.699
45.86000 101.846
45.88000 96.922
45.90000 99.836
45.92000 97.031
45.94000 94.952
45.96000 93.700
45.98000 89.730
46.00000 86.085
46.02000 85.175
46.04000 82.126
46.06000 75.955
46.08000 75.261
46.10000 74.276
46.12000 68.925
46.14000 67.049
46.16000 65.830
46.18000 60.713
46.20000 59.440
46.22000 63.397
46.24000 52.404
46.26000 44.087
46.28000 47.765
46.30000 47.495
46.32000 43.910
46.34000 42.275
46.36000 43.244
46.38000 40.006
46.40000 34.737
46.42000 31.085
46.44000 29.689
46.46000 31.078
46.48000 21.776
46.50000 19.209
46.52000 22.511
46.54000 21.770
46.56000 21.510
46.58000 21.959
46.60000 17.364
46.62000 15.182
46.64000 17.955
46.66000 14.045
46.68000 7.752
46.70000 7.888
46.72000 6.385
46.74000 7.774
46.76000 10.036
46.78000 8.159
46.80000 9.610
46.82000 8.053
46.84000 5.214
46.86000 4.352
46.88000 4.747
46.90000 4.705
46.92000 4.225
46.94000 4.542
46.96000 1.889
46.98000 3.002
47.00000 7.365
47.02000 4.257
47.04000 4.269
47.06000 4.947
47.08000 3.511
47.10000 3.271
47.12000 3.871
47.14000 6.370
47.16000 0.100
47.18000 -2.890
47.20000 2.324
47.22000 4.522
47.24000 1.273
47.26000 1.360
47.28000 2.629
47.30000 1.882
47.32000 0.570
47.34000 -1.670
47.36000 0.618
47.38000 1.029
47.40000 0.023
47.42000 6.554
47.44000 3.599
47.46000 0.285
47.48000 -0.250
47.50000 0.696
47.52000 0.111
47.54000 1.941
47.56000 -2.823
47.58000 1.347
47.60000 2.250
47.62000 -1.036
47.64000 4.043
47.66000 4.112
47.68000 4.467
47.70000 2.374
47.72000 4.687
47.74000 4.789
47.76000 2.569
47.78000 2.700
47.80000 0.041
47.82000 3.617
47.84000 8.911
47.86000 4.681
47.88000 3.902
47.90000 -0.532
47.92000 1.074
47.94000 1.779
47.96000 3.024
47.98000 0.844
48.00000 2.450
48.02000 -0.770
48.04000 1.556
48.06000 -1.201
48.08000 -0.916
48.10000 0.943
48.12000 3.127
48.14000 2.949
48.16000 2.389
48.18000 4.367
48.20000 -2.734
48.22000 0.017
48.24000 0.964
48.26000 -0.185
48.28000 2.514
48.30000 2.159
48.32000 1.107
48.34000 5.703
48.36000 2.636
48.38000 -2.636
48.40000 -1.129
48.42000 0.348
48.44000 0.027
48.46000 2.236
48.48000 0.290
48.50000 3.588
48.52000 5.176
48.54000 6.158
48.56000 7.550
48.58000 5.293
48.60000 2.337
48.62000 1.367
48.64000 0.227
48.66000 4.743
48.68000 6.268
48.70000 8.199
48.72000 7.860
48.74000 3.775
48.76000 -1.307
48.78000 1.647
48.80000 3.496
48.82000 2.166
48.84000 1.834
48.86000 1.436
48.88000 3.629
48.90000 3.766
48.92000 1.521
48.94000 0.590
48.96000 2.157
48.98000 5.738
49.00000 1.816
49.02000 1.331
49.04000 3.786
49.06000 2.822
49.08000 2.148
49.10000 5.382
49.12000 6.902
49.14000 5.380
49.16000 5.762
49.18000 4.962
49.20000 4.351
49.22000 2.306
49.24000 -0.069
49.26000 -2.630
49.28000 0.254
49.30000 0.046
49.32000 3.149
49.34000 2.523
49.36000 0.652
49.38000 4.310
49.40000 4.076
49.42000 5.067
49.44000 9.324
49.46000 7.609
49.48000 -0.734
49.50000 -1.480
49.52000 0.801
49.54000 -0.270
49.56000 2.806
49.58000 4.673
49.60000 1.266
49.62000 -1.286
49.64000 1.485
49.66000 6.659
49.68000 5.157
49.70000 0.682
49.72000 5.097
49.74000 9.595
49.76000 3.211
49.78000 1.259
49.80000 5.519
49.82000 2.968
49.84000 1.146
49.86000 2.161
49.88000 -1.814
49.90000 -0.951
49.92000 1.791
49.94000 -0.762
49.96000 -1.337
49.98000 3.211
50.00000 6.438
50.02000 2.112
50.04000 -2.630
50.06000 -0.355
50.08000 2.686
50.10000 -0.325
50.12000 -0.031
50.14000 0.608
50.16000 1.177
50.18000 2.359
50.20000 0.157
50.22000 -0.036
50.24000 2.096
50.26000 -1.699
50.28000 -0.598
50.30000 2.281
50.32000 5.493
50.34000 4.134
50.36000 3.493
50.38000 -0.090
50.40000 1.311
50.42000 6.744
50.44000 5.607
50.46000 1.005
50.48000 2.016
50.50000 2.595
50.52000 1.182
50.54000 -2.544
50.56000 -1.429
50.58000 3.626
50.60000 4.502
50.62000 2.132
50.64000 2.712
50.66000 -2.156
50.68000 -2.620
50.70000 -0.118
50.72000 0.916
50.74000 -0.243
50.76000 5.648
50.78000 4.489
50.80000 1.807
50.82000 1.082
50.84000 0.853
50.86000 0.845
50.88000 0.252
50.90000 2.171
50.92000 5.635
50.94000 2.886
50.96000 3.268
50.98000 4.467
51.00000 7.022
51.02000 2.057
51.04000 0.438
51.06000 1.276
51.08000 -1.276
51.10000 -0.207
51.12000 1.895
51.14000 0.085
51.16000 0.132
51.18000 0.143
51.20000 -2.026
51.22000 -1.508
51.24000 5.308
51.26000 4.791
51.28000 -1.879
51.30000 -1.760
51.32000 -1.770
51.34000 1.022
51.36000 -0.060
51.38000 0.434
51.40000 0.844
51.42000 0.360
51.44000 -0.392
51.46000 0.280
51.48000 -0.953
51.50000 0.901
51.52000 1.184
51.54000 2.847
51.56000 -0.520
51.58000 -0.404
51.60000 -0.454
51.62000 -0.643
51.64000 1.014
51.66000 1.943
51.68000 5.588
51.70000 -0.094
51.72000 -1.306
51.74000 -2.580
51.76000 -0.166
51.78000 3.002
51.80000 5.205
51.82000 0.822
51.84000 2.111
51.86000 -1.318
51.88000 0.969
51.90000 1.401
51.92000 0.510
51.94000 3.779
51.96000 3.145
51.98000 3.927
52.00000 0.853
52.02000 1.237
52.04000 4.571
52.06000 4.892
52.08000 -0.189
52.10000 -2.140
52.12000 -0.849
52.14000 1.056
52.16000 0.826
52.18000 2.437
52.20000 5.963
52.22000 4.038
52.24000 0.623
52.26000 2.993
52.28000 2.483
52.30000 4.345
52.32000 4.805
52.34000 0.209
52.36000 0.992
52.38000 0.526
52.40000 0.793
52.42000 4.623
52.44000 6.137
52.46000 6.337
52.48000 4.013
52.50000 2.641
52.52000 2.781
52.54000 5.897
52.56000 5.909
52.58000 0.690
52.60000 1.674
52.62000 6.568
52.64000 3.344
52.66000 -2.538
52.68000 -1.949
52.70000 -0.702
52.72000 2.288
52.74000 1.337
52.76000 2.372
52.78000 -0.117
52.80000 0.686
52.82000 4.278
52.84000 4.302
52.86000 3.458
52.88000 2.218
52.90000 0.647
52.92000 2.211
52.94000 3.886
52.96000 5.779
52.98000 5.024
53.00000 3.289
53.02000 3.363
53.04000 5.024
53.06000 3.965
53.08000 2.554
53.10000 2.199
53.12000 -1.314
53.14000 -0.313
53.16000 1.161
53.18000 2.340
53.20000 -1.423
53.22000 0.559
53.24000 3.792
53.26000 4.673
53.28000 2.291
53.30000 3.976
53.32000 4.099
53.34000 3.826
53.36000 3.290
53.38000 0.699
53.40000 -1.012
53.42000 -1.212
53.44000 0.025
53.46000 4.682
53.48000 7.026
53.50000 7.049
53.52000 3.392
53.54000 3.542
53.56000 3.058
53.58000 3.339
53.60000 2.983
53.62000 -2.035
53.64000 0.860
53.66000 2.047
53.68000 -1.245
53.70000 1.994
53.72000 0.347
53.74000 0.237
53.76000 3.567
53.78000 2.583
53.80000 1.930
53.82000 2.864
53.84000 5.299
53.86000 6.704
53.88000 4.773
53.90000 3.455
53.92000 3.423
53.94000 5.405
53.96000 4.188
53.98000 4.334
54.00000 4.836
54.02000 0.886
54.04000 2.297
54.06000 2.096
54.08000 -2.426
54.10000 0.314
54.12000 3.848
54.14000 3.054
54.16000 2.996
54.18000 4.736
54.20000 0.566
54.22000 1.428
54.24000 3.464
54.26000 3.110
54.28000 0.017
54.30000 2.260
54.32000 3.412
54.34000 2.620
54.36000 0.072
54.38000 1.003
54.40000 -0.349
54.42000 -2.482
54.44000 0.562
54.46000 5.601
54.48000 7.057
54.50000 8.133
54.52000 5.959
54.54000 5.755
54.56000 6.615
54.58000 7.223
54.60000 3.950
54.62000 8.454
54.64000 4.584
54.66000 6.823
54.68000 2.402
54.70000 1.158
54.72000 4.411
54.74000 5.024
54.76000 7.034
54.78000 1.867
54.80000 -1.225
54.82000 2.688
54.84000 0.139
54.86000 3.716
54.88000 3.005
54.90000 -2.236
54.92000 -0.250
54.94000 1.172
54.96000 3.886
54.98000 -0.164
55.00000 1.298
55.02000 2.575
55.04000 0.655
55.06000 1.558
55.08000 1.815
55.10000 -0.236
55.12000 0.078
55.14000 -0.626
55.16000 1.819
55.18000 2.397
55.20000 1.270
55.22000 0.372
55.24000 2.466
55.26000 1.092
55.28000 4.353
55.30000 2.198
55.32000 2.199
55.34000 -0.142
55.36000 2.223
55.38000 2.610
55.40000 2.395
55.42000 1.258
55.44000 0.553
55.46000 1.981
55.48000 1.077
55.50000 -1.191
55.52000 -1.035
55.54000 1.082
55.56000 2.252
55.58000 -0.356
55.60000 0.564
55.62000 0.823
55.64000 4.379
55.66000 2.900
55.68000 2.656
55.70000 6.750
55.72000 5.923
55.74000 -2.480
55.76000 1.084
55.78000 -1.813
55.80000 -1.234
55.82000 0.888
55.84000 -0.417
55.86000 -2.471
55.88000 0.515
55.90000 0.683
55.92000 4.546
55.94000 4.155
55.96000 4.821
55.98000 0.554
56.00000 2.247
56.02000 5.171
56.04000 5.303
56.06000 3.741
56.08000 2.220
56.10000 3.406
56.12000 1.084
56.14000 0.296
56.16000 -1.035
56.18000 2.339
56.20000 4.830
56.22000 1.479
56.24000 4.088
56.26000 2.237
56.28000 2.163
56.30000 0.621
56.32000 -0.689
56.34000 -1.706
56.36000 -1.428
56.38000 -0.774
56.40000 0.644
56.42000 1.965
56.44000 3.310
56.46000 5.387
56.48000 4.411
56.50000 4.630
56.52000 3.199
56.54000 2.830
56.56000 0.692
56.58000 1.730
56.60000 1.531
56.62000 0.937
56.64000 -2.446
56.66000 -2.303
56.68000 -0.670
56.70000 0.940
56.72000 0.779
56.74000 0.739
56.76000 0.804
56.78000 2.678
56.80000 0.314
56.82000 5.639
56.84000 4.899
56.86000 2.790
56.88000 -1.037
56.90000 3.574
56.92000 0.811
56.94000 -1.219
56.96000 0.913
56.98000 2.333
57.00000 1.678
57.02000 6.896
57.04000 7.930
57.06000 3.003
57.08000 7.646
57.10000 5.211
57.12000 2.383
57.14000 -0.655
57.16000 -2.431
57.18000 0.279
57.20000 6.307
57.22000 4.492
57.24000 6.091
57.26000 4.503
57.28000 3.093
57.30000 6.293
57.32000 3.427
57.34000 -0.554
57.36000 2.478
57.38000 1.841
57.40000 1.817
57.42000 -0.763
57.44000 -1.537
57.46000 1.430
57.48000 1.955
57.50000 -1.703
57.52000 3.584
57.54000 3.950
57.56000 3.465
57.58000 -0.109
57.60000 -1.480
57.62000 -1.961
57.64000 0.858
57.66000 5.916
57.68000 6.689
57.70000 4.931
57.72000 0.829
57.74000 0.351
57.76000 0.888
57.78000 1.050
57.80000 3.343
57.82000 2.606
57.84000 1.399
57.86000 -0.182
57.88000 0.340
57.90000 1.472
57.92000 1.013
57.94000 1.347
57.96000 1.672
57.98000 5.678
58.00000 4.081
58.02000 -1.202
58.04000 2.261
58.06000 -0.704
58.08000 -1.434
58.10000 -1.049
58.12000 -1.374
58.14000 4.024
58.16000 5.700
58.18000 4.546
58.20000 0.810
58.22000 0.374
58.24000 -2.408
58.26000 -0.166
58.28000 1.850
58.30000 1.024
58.32000 0.856
58.34000 0.048
58.36000 2.314
58.38000 2.913
58.40000 -0.748
58.42000 0.274
58.44000 1.262
58.46000 0.625
58.48000 0.235
58.50000 2.063
58.52000 5.186
58.54000 -0.153
58.56000 -0.178
58.58000 -1.421
58.60000 -2.115
58.62000 1.441
58.64000 1.190
58.66000 2.337
58.68000 4.503
58.70000 -0.585
58.72000 -0.222
58.74000 4.402
58.76000 3.270
58.78000 4.131
58.80000 1.685
58.82000 -0.030
58.84000 -1.225
58.86000 0.147
58.88000 0.340
58.90000 1.125
58.92000 -1.811
58.94000 -1.377
58.96000 1.802
58.98000 2.466
59.00000 1.139
59.02000 3.301
59.04000 0.035
59.06000 -0.073
59.08000 -2.376
59.10000 1.942
59.12000 0.014
59.14000 1.090
59.16000 -0.173
59.18000 -0.186
59.20000 2.543
59.22000 2.585
59.24000 1.870
59.26000 -0.521
59.28000 -0.605
59.30000 1.237
59.32000 2.902
59.34000 5.714
59.36000 5.681
59.38000 3.518
59.40000 5.278
59.42000 2.919
59.44000 1.612
59.46000 -2.361
59.48000 -0.430
59.50000 2.057
59.52000 0.494
59.54000 1.406
59.56000 0.963
59.58000 1.613
59.60000 -0.222
59.62000 0.205
59.64000 -1.908
59.66000 2.468
59.68000 6.084
59.70000 4.472
59.72000 0.619
59.74000 3.392
59.76000 4.262
59.78000 2.363
59.80000 3.619
59.82000 6.714
59.84000 5.909
59.86000 0.801
59.88000 -0.502
59.90000 3.230
59.92000 2.264
59.94000 4.156
59.96000 2.413
59.98000 -0.041
60.00000 -2.359
60.02000 0.800
60.04000 1.500
60.06000 2.137
60.08000 -0.713
60.10000 -2.297
60.12000 -1.734
60.14000 0.831
60.16000 0.681
60.18000 -0.857
60.20000 -0.977
60.22000 2.709
60.24000 3.441
60.26000 3.048
60.28000 1.754
60.30000 0.550
60.32000 -0.666
60.34000 0.924
60.36000 0.174
60.38000 1.658
60.40000 -0.455
60.42000 0.952
60.44000 0.457
60.46000 0.494
60.48000 -0.086
60.50000 3.864
60.52000 1.702
60.54000 -1.700
60.56000 -1.776
60.58000 1.318
60.60000 1.769
60.62000 0.918
60.64000 4.355
60.66000 4.629
60.68000 0.388
60.70000 0.532
60.72000 3.190
60.74000 2.074
60.76000 2.336
60.78000 5.233
60.80000 2.779
60.82000 2.746
60.84000 2.691
60.86000 1.139
60.88000 0.680
60.90000 2.071
60.92000 1.373
60.94000 -0.777
60.96000 0.668
60.98000 2.425
61.00000 1.994
61.02000 0.887
61.04000 2.318
61.06000 5.056
61.08000 6.143
61.10000 5.447
61.12000 5.148
61.14000 4.381
61.16000 -0.364
61.18000 -0.966
61.20000 -2.185
61.22000 4.485
61.24000 3.514
61.26000 0.316
61.28000 1.480
61.30000 1.688
61.32000 3.544
61.34000 3.816
61.36000 3.592
61.38000 5.947
61.40000 2.717
61.42000 3.939
61.44000 0.283
61.46000 -2.275
61.48000 -1.098
61.50000 1.019
61.52000 0.943
61.54000 2.947
61.56000 2.815
61.58000 3.441
61.60000 2.861
61.62000 2.698
61.64000 2.289
61.66000 1.460
61.68000 3.882
61.70000 1.471
61.72000 -0.156
61.74000 -0.350
61.76000 3.778
61.78000 1.083
61.80000 3.077
61.82000 3.007
61.84000 3.897
61.86000 1.297
61.88000 0.449
61.90000 -0.123
61.92000 0.807
61.94000 4.739
61.96000 4.913
61.98000 4.591
62.00000 3.999
62.02000 4.072
62.04000 2.086
62.06000 0.376
62.08000 -1.406
62.10000 -1.954
62.12000 1.488
62.14000 4.000
62.16000 3.028
62.18000 1.704
62.20000 0.551
62.22000 1.535
62.24000 -0.594
62.26000 0.348
62.28000 2.317
62.30000 -1.171
62.32000 2.058
62.34000 1.504
62.36000 0.556
62.38000 2.611
62.40000 -0.743
62.42000 -0.746
62.44000 0.558
62.46000 1.267
62.48000 0.179
62.50000 0.002
62.52000 -2.294
62.54000 -1.707
62.56000 -0.660
62.58000 4.714
62.60000 2.154
62.62000 -1.415
62.64000 -0.200
62.66000 1.853
62.68000 0.870
62.70000 1.382
62.72000 1.446
62.74000 3.605
62.76000 6.152
62.78000 2.606
62.80000 2.102
62.82000 -1.110
62.84000 1.470
62.86000 4.031
62.88000 2.080
62.90000 0.578
62.92000 2.093
62.94000 3.931
62.96000 1.015
62.98000 2.948
63.00000 4.420
63.02000 4.876
63.04000 -0.023
63.06000 -2.251
63.08000 -0.516
63.10000 0.244
63.12000 0.128
63.14000 2.705
63.16000 0.117
63.18000 3.258
63.20000 3.788
63.22000 1.744
63.24000 1.460
63.26000 -1.121
63.28000 -1.037
63.30000 -1.260
63.32000 -2.233
63.34000 -0.372
63.36000 -0.309
63.38000 0.517
63.40000 2.660
63.42000 1.149
63.44000 -0.706
63.46000 0.794
63.48000 -2.254
63.50000 4.772
63.52000 4.927
63.54000 1.957
63.56000 -0.218
63.58000 -1.208
63.60000 -1.840
63.62000 1.252
63.64000 1.144
63.66000 2.317
63.68000 -0.840
63.70000 -1.719
63.72000 -1.005
63.74000 1.934
63.76000 1.851
63.78000 2.180
63.80000 2.616
63.82000 1.783
63.84000 0.998
63.86000 0.881
63.88000 2.089
63.90000 3.018
63.92000 1.125
63.94000 3.808
63.96000 1.821
63.98000 2.712
64.00000 1.730
64.02000 4.514
64.04000 4.773
64.06000 0.560
64.08000 2.284
64.10000 1.822
64.12000 0.927
64.14000 1.261
64.16000 2.345
64.18000 0.984
64.20000 -0.699
64.22000 0.001
64.24000 0.092
64.26000 -2.260
64.28000 2.871
64.30000 -0.368
64.32000 1.869
64.34000 2.417
64.36000 -0.115
64.38000 3.765
64.40000 4.670
64.42000 3.368
64.44000 1.661
64.46000 2.001
64.48000 1.502
64.50000 0.967
64.52000 1.162
64.54000 -0.095
64.56000 1.643
64.58000 3.273
64.60000 -0.054
64.62000 -1.852
64.64000 -0.316
64.66000 2.134
64.68000 3.441
64.70000 0.621
64.72000 1.237
64.74000 1.334
64.76000 2.944
64.78000 3.752
64.80000 2.536
64.82000 0.549
64.84000 -0.323
64.86000 -2.259
64.88000 -0.386
64.90000 6.091
64.92000 3.995
64.94000 2.288
64.96000 2.162
64.98000 0.794
65.00000 0.291
65.02000 -0.386
65.04000 1.551
65.06000 1.810
65.08000 4.156
65.10000 3.670
65.12000 -0.635
65.14000 1.633
65.16000 4.193
65.18000 0.894
65.20000 0.765
65.22000 2.645
65.24000 2.653
65.26000 3.251
65.28000 4.454
65.30000 3.805
65.32000 2.146
65.34000 1.306
65.36000 1.212
65.38000 2.471
65.40000 3.231
65.42000 3.318
65.44000 2.055
65.46000 2.357
65.48000 3.620
65.50000 5.029
65.52000 0.431
65.54000 -0.727
65.56000 0.627
65.58000 -2.254
65.60000 1.757
65.62000 2.165
65.64000 2.187
65.66000 2.390
65.68000 0.154
65.70000 1.315
65.72000 0.732
65.74000 1.905
65.76000 3.266
65.78000 3.836
65.80000 2.387
65.82000 2.913
65.84000 2.269
65.86000 3.310
65.88000 4.519
65.90000 2.816
65.92000 2.260
65.94000 1.537
65.96000 2.458
65.98000 5.302
66.00000 3.826
66.02000 3.571
66.04000 4.281
66.06000 4.746
66.08000 4.462
66.10000 4.552
66.12000 3.448
66.14000 7.175
66.16000 8.747
66.18000 6.426
66.20000 5.869
66.22000 5.811
66.24000 9.741
66.26000 10.025
66.28000 9.224
66.30000 8.784
66.32000 10.072
66.34000 5.798
66.36000 4.299
66.38000 6.164
66.40000 8.013
66.42000 7.185
66.44000 6.755
66.46000 9.325
66.48000 7.348
66.50000 9.105
66.52000 12.380
66.54000 10.759
66.56000 11.055
66.58000 8.434
66.60000 7.904
66.62000 8.374
66.64000 8.907
66.66000 7.519
66.68000 7.792
66.70000 10.170
66.72000 9.339
66.74000 7.925
66.76000 8.064
66.78000 7.211
66.80000 6.983
66.82000 9.702
66.84000 8.517
66.86000 10.156
66.88000 7.964
66.90000 5.847
66.92000 4.796
66.94000 6.293
66.96000 5.954
66.98000 7.081
67.00000 7.521
67.02000 5.941
67.04000 7.952
67.06000 5.227
67.08000 3.745
67.10000 4.804
67.12000 3.851
67.14000 2.754
67.16000 3.529
67.18000 3.373
67.20000 3.561
67.22000 6.146
67.24000 5.990
67.26000 2.907
67.28000 1.633
67.30000 0.585
67.32000 -1.244
67.34000 -2.214
67.36000 3.008
67.38000 5.528
67.40000 4.092
67.42000 1.824
67.44000 -0.206
67.46000 -0.602
67.48000 -0.009
67.50000 1.780
67.52000 1.039
67.54000 2.994
67.56000 1.594
67.58000 -1.027
67.60000 0.437
67.62000 -0.672
67.64000 -0.879
67.66000 -0.379
67.68000 0.781
67.70000 0.948
67.72000 -0.673
67.74000 1.043
67.76000 2.392
67.78000 1.557
67.80000 1.433
67.82000 3.235
67.84000 1.252
67.86000 0.942
67.88000 -1.065
67.90000 0.149
67.92000 -0.238
67.94000 -2.170
67.96000 0.975
67.98000 5.489
68.00000 4.404
68.02000 -0.756
68.04000 0.412
68.06000 1.588
68.08000 0.937
68.10000 -0.935
68.12000 0.739
68.14000 1.109
68.16000 3.550
68.18000 5.955
68.20000 3.427
68.22000 2.393
68.24000 0.813
68.26000 -0.634
68.28000 -0.157
68.30000 0.733
68.32000 1.941
68.34000 1.712
68.36000 1.143
68.38000 -0.527
68.40000 -0.769
68.42000 1.987
68.44000 0.038
68.46000 0.061
68.48000 0.059
68.50000 1.394
68.52000 2.639
68.54000 1.235
68.56000 -0.417
68.58000 -0.016
68.60000 0.738
68.62000 -1.588
68.64000 2.649
68.66000 2.748
68.68000 1.943
68.70000 2.618
68.72000 1.305
68.74000 2.775
68.76000 0.120
68.78000 -0.552
68.80000 -2.107
68.82000 -1.191
68.84000 0.726
68.86000 0.969
68.88000 1.354
68.90000 2.132
68.92000 0.965
68.94000 1.701
68.96000 2.062
68.98000 2.885
69.00000 4.422
69.02000 3.195
69.04000 2.049
69.06000 2.633
69.08000 4.684
69.10000 4.043
69.12000 1.993
69.14000 -0.829
69.16000 -1.967
69.18000 -0.090
69.20000 3.067
69.22000 4.408
69.24000 0.469
69.26000 1.545
69.28000 2.998
69.30000 -0.924
69.32000 -0.006
69.34000 2.282
69.36000 1.448
69.38000 1.612
69.40000 1.241
69.42000 0.323
69.44000 -0.853
69.46000 0.300
69.48000 1.142
69.50000 1.011
69.52000 -0.390
69.54000 0.252
69.56000 -0.308
69.58000 0.522
69.60000 1.895
69.62000 3.582
69.64000 3.652
69.66000 2.017
69.68000 -1.195
69.70000 0.983
69.72000 1.036
69.74000 0.438
69.76000 -0.961
69.78000 -0.244
69.80000 1.720
69.82000 1.634
69.84000 1.962
69.86000 1.232
69.88000 -0.705
69.90000 0.234
69.92000 -0.814
69.94000 -1.183
69.96000 0.831
69.98000 0.014
70.00000 -0.787
70.02000 1.550
70.04000 -0.056
70.06000 2.365
70.08000 0.710
70.10000 1.694
70.12000 3.327
70.14000 3.392
70.16000 2.515
70.18000 1.454
70.20000 0.895
70.22000 4.415
70.24000 0.477
70.26000 1.662
70.28000 0.407
70.30000 -2.059
70.32000 2.513
70.34000 2.349
70.36000 4.500
70.38000 2.394
70.40000 2.893
70.42000 2.393
70.44000 0.397
70.46000 -0.927
70.48000 -0.711
70.50000 0.249
70.52000 0.535
70.54000 -0.729
70.56000 -2.052
70.58000 -1.460
70.60000 2.366
70.62000 2.623
70.64000 -0.366
70.66000 0.712
70.68000 1.624
70.70000 1.023
70.72000 0.380
70.74000 -1.654
70.76000 -0.978
70.78000 -1.723
70.80000 0.763
70.82000 -1.142
70.84000 -0.878
70.86000 2.127
70.88000 3.305
70.90000 2.428
70.92000 2.295
70.94000 2.481
70.96000 2.730
70.98000 -1.190
71.00000 -1.166
71.02000 3.178
71.04000 3.730
71.06000 0.574
71.08000 1.520
71.10000 1.036
71.12000 0.039
71.14000 1.894
71.16000 -0.181
71.18000 1.229
71.20000 -0.318
71.22000 -1.327
71.24000 -0.158
71.26000 3.243
71.28000 2.682
71.30000 1.466
71.32000 1.660
71.34000 1.426
71.36000 -0.727
71.38000 0.332
71.40000 2.481
71.42000 2.415
71.44000 2.951
71.46000 1.383
71.48000 2.084
71.50000 4.529
71.52000 3.231
71.54000 0.881
71.56000 0.591
71.58000 0.553
71.60000 1.989
71.62000 3.476
71.64000 2.242
71.66000 1.023
71.68000 -0.078
71.70000 1.337
71.72000 2.241
71.74000 2.717
71.76000 3.161
71.78000 6.549
71.80000 3.548
71.82000 -0.266
71.84000 1.735
71.86000 1.894
71.88000 2.706
71.90000 3.521
71.92000 -0.017
71.94000 -2.010
71.96000 -0.724
71.98000 1.134
72.00000 2.757
72.02000 -0.066
72.04000 -1.236
72.06000 4.436
72.08000 5.503
72.10000 2.901
72.12000 -0.575
72.14000 0.864
72.16000 -0.595
72.18000 1.502
72.20000 0.487
72.22000 0.828
72.24000 0.752
72.26000 1.720
72.28000 -0.750
72.30000 2.071
72.32000 6.170
72.34000 4.406
72.36000 -0.046
72.38000 -1.569
72.40000 -0.339
72.42000 3.388
72.44000 1.539
72.46000 0.837
72.48000 -0.983
72.50000 1.740
72.52000 2.562
72.54000 0.057
72.56000 -0.686
72.58000 0.065
72.60000 -0.749
72.62000 2.254
72.64000 1.783
72.66000 -0.297
72.68000 0.050
72.70000 0.368
72.72000 1.232
72.74000 1.713
72.76000 0.738
72.78000 3.395
72.80000 3.248
72.82000 0.690
72.84000 -0.554
72.86000 0.457
72.88000 1.222
72.90000 2.669
72.92000 0.817
72.94000 -0.668
72.96000 0.625
72.98000 -0.251
73.00000 -1.998
73.02000 -1.867
73.04000 -1.774
73.06000 -1.021
73.08000 1.457
73.10000 1.915
73.12000 0.090
73.14000 -1.002
73.16000 1.219
73.18000 3.066
73.20000 3.553
73.22000 2.589
73.24000 4.011
73.26000 0.854
73.28000 1.583
73.30000 3.164
73.32000 3.239
73.34000 0.489
73.36000 -1.142
73.38000 -0.623
73.40000 -1.384
73.42000 0.846
73.44000 0.930
73.46000 -0.678
73.48000 1.609
73.50000 1.000
73.52000 3.066
73.54000 4.541
73.56000 5.206
73.58000 6.354
73.60000 3.271
73.62000 2.184
73.64000 1.871
73.66000 4.660
73.68000 2.784
73.70000 1.142
73.72000 -1.964
73.74000 -1.369
73.76000 0.938
73.78000 3.485
73.80000 3.117
73.82000 0.359
73.84000 -1.965
73.86000 0.518
73.88000 3.476
73.90000 5.563
73.92000 1.025
73.94000 0.506
73.96000 1.139
73.98000 0.380
74.00000 0.219
74.02000 -0.490
74.04000 -1.169
74.06000 -0.739
74.08000 0.271
74.10000 1.633
74.12000 1.770
74.14000 2.352
74.16000 2.341
74.18000 2.916
74.20000 2.351
74.22000 2.881
74.24000 1.153
74.26000 -1.962
74.28000 2.517
74.30000 3.392
74.32000 2.159
74.34000 3.666
74.36000 1.617
74.38000 0.572
74.40000 3.529
74.42000 3.740
74.44000 2.057
74.46000 4.038
74.48000 3.921
74.50000 1.788
74.52000 0.814
74.54000 1.690
74.56000 0.539
74.58000 2.223
74.60000 1.994
74.62000 1.775
74.64000 3.775
74.66000 1.176
74.68000 2.083
74.70000 -1.080
74.72000 -1.019
74.74000 0.574
74.76000 -0.458
74.78000 0.792
74.80000 -0.752
74.82000 2.242
74.84000 2.940
74.86000 1.647
74.88000 2.689
74.90000 3.208
74.92000 4.568
74.94000 4.511
74.96000 4.736
74.98000 2.780
75.00000 5.017
75.02000 0.024
75.04000 -0.059
75.06000 3.066
75.08000 4.138
75.10000 1.579
75.12000 -1.961
75.14000 4.022
75.16000 5.622
75.18000 6.061
75.20000 1.806
75.22000 2.004
75.24000 1.244
75.26000 2.862
75.28000 2.463
75.30000 2.401
75.32000 2.037
75.34000 0.732
75.36000 1.775
75.38000 4.024
75.40000 6.128
75.42000 5.319
75.44000 5.032
75.46000 1.824
75.48000 0.309
75.50000 0.082
75.52000 1.512
75.54000 -0.414
75.56000 2.039
75.58000 1.925
75.60000 3.690
75.62000 5.609
75.64000 4.319
75.66000 2.666
75.68000 2.687
75.70000 1.219
75.72000 -1.979
75.74000 0.202
75.76000 2.426
75.78000 3.329
75.80000 3.350
75.82000 2.611
75.84000 0.972
75.86000 0.218
75.88000 2.763
75.90000 3.874
75.92000 5.012
75.94000 6.626
75.96000 3.616
75.98000 -0.180
76.00000 1.272
76.02000 3.161
76.04000 0.312
76.06000 -0.483
76.08000 -0.765
76.10000 0.887
76.12000 2.877
76.14000 2.309
76.16000 2.257
76.18000 1.222
76.20000 0.987
76.22000 2.822
76.24000 4.914
76.26000 5.348
76.28000 4.440
76.30000 5.419
76.32000 4.831
76.34000 3.686
76.36000 1.511
76.38000 3.165
76.40000 1.528
76.42000 -1.999
76.44000 -0.680
76.46000 4.447
76.48000 1.733
76.50000 1.232
76.52000 1.307
76.54000 2.556
76.56000 0.960
76.58000 -0.190
76.60000 0.732
76.62000 1.592
76.64000 1.976
76.66000 0.988
76.68000 -2.012
76.70000 -1.054
76.72000 2.341
76.74000 1.706
76.76000 -0.164
76.78000 1.446
76.80000 2.291
76.82000 4.757
76.84000 1.610
76.86000 3.871
76.88000 0.558
76.90000 2.246
76.92000 -0.156
76.94000 -1.115
76.96000 0.666
76.98000 3.910
77.00000 4.359
77.02000 1.953
77.04000 2.386
77.06000 2.355
77.08000 1.599
77.10000 1.018
77.12000 1.747
77.14000 0.807
77.16000 1.592
77.18000 1.155
77.20000 0.487
77.22000 1.534
77.24000 4.092
77.26000 1.331
77.28000 0.443
77.30000 1.650
77.32000 -0.457
77.34000 -0.910
77.36000 0.649
77.38000 0.642
77.40000 0.734
77.42000 0.113
77.44000 1.669
77.46000 1.867
77.48000 0.492
77.50000 1.067
77.52000 2.278
77.54000 0.721
77.56000 -0.550
77.58000 -2.074
77.60000 -1.964
77.62000 1.011
77.64000 3.113
77.66000 0.066
77.68000 1.784
77.70000 1.831
77.72000 2.417
77.74000 1.555
77.76000 2.406
77.78000 1.196
77.80000 1.437
77.82000 4.002
77.84000 1.918
77.86000 2.474
77.88000 2.811
77.90000 -0.486
77.92000 0.212
77.94000 1.569
77.96000 2.899
77.98000 2.514
78.00000 1.576
78.02000 -2.085
78.04000 -0.744
78.06000 2.227
78.08000 0.370
78.10000 -1.416
78.12000 1.503
78.14000 3.447
78.16000 4.057
78.18000 1.999
78.20000 0.731
78.22000 1.437
78.24000 -0.798
78.26000 -0.012
78.28000 3.735
78.30000 0.810
78.32000 -0.955
78.34000 0.998
78.36000 1.438
78.38000 3.697
78.40000 3.352
78.42000 2.877
78.44000 4.348
78.46000 2.138
78.48000 2.643
78.50000 3.929
78.52000 1.929
78.54000 0.973
78.56000 -0.122
78.58000 2.784
78.60000 0.002
78.62000 -2.117
78.64000 0.007
78.66000 1.757
78.68000 1.770
78.70000 3.720
78.72000 4.230
78.74000 1.604
78.76000 -1.156
78.78000 3.480
78.80000 4.675
78.82000 3.469
78.84000 1.879
78.86000 3.123
78.88000 5.586
78.90000 7.849
78.92000 9.236
78.94000 7.433
78.96000 2.244
78.98000 2.425
79.00000 2.314
79.02000 4.505
79.04000 5.457
79.06000 2.097
79.08000 3.345
79.10000 5.320
79.12000 3.061
79.14000 1.311
79.16000 4.395
79.18000 1.857
79.20000 6.440
79.22000 6.374
79.24000 7.755
79.26000 7.405
79.28000 8.229
79.30000 8.886
79.32000 7.627
79.34000 5.332
79.36000 5.602
79.38000 7.552
79.40000 8.742
79.42000 10.494
79.44000 11.515
79.46000 8.616
79.48000 10.496
79.50000 12.148
79.52000 8.913
79.54000 10.870
79.56000 14.135
79.58000 16.506
79.60000 15.066
79.62000 11.075
79.64000 14.676
79.66000 12.878
79.68000 17.844
79.70000 16.895
79.72000 12.524
79.74000 14.740
79.76000 16.049
79.78000 16.151
79.80000 16.265
79.82000 21.870
79.84000 20.180
79.86000 20.492
79.88000 22.006
79.90000 21.467
79.92000 22.614
79.94000 22.834
79.96000 23.860
79.98000 27.109
80.00000 28.509
80.02000 29.002
80.04000 27.334
80.06000 24.828
80.08000 24.118
80.10000 27.255
80.12000 23.329
80.14000 25.270
80.16000 26.420
80.18000 24.845
80.20000 26.395
80.22000 23.573
80.24000 25.830
80.26000 25.712
80.28000 24.367
80.30000 26.569
80.32000 28.962
80.34000 25.738
80.36000 25.261
80.38000 25.045
80.40000 27.766
80.42000 27.008
80.44000 28.351
80.46000 25.533
80.48000 25.372
80.50000 27.261
80.52000 24.786
80.54000 23.170
80.56000 22.073
80.58000 22.078
80.60000 23.242
80.62000 24.517
80.64000 21.803
80.66000 20.676
80.68000 26.406
80.70000 21.435
80.72000 21.002
80.74000 19.859
80.76000 17.071
80.78000 17.299
80.80000 16.145
80.82000 15.126
80.84000 16.961
80.86000 15.581
80.88000 13.533
80.90000 12.321
80.92000 12.099
80.94000 10.225
80.96000 9.476
80.98000 9.854
81.00000 9.119
81.02000 7.412
81.04000 8.434
81.06000 8.123
81.08000 4.747
81.10000 3.525
81.12000 4.973
81.14000 9.426
81.16000 12.368
81.18000 9.171
81.20000 7.998
81.22000 7.702
81.24000 4.455
81.26000 3.112
81.28000 6.073
81.30000 5.364
81.32000 6.275
81.34000 6.466
81.36000 5.104
81.38000 3.662
81.40000 4.195
81.42000 6.089
81.44000 6.293
81.46000 0.027
81.48000 -2.259
81.50000 0.046
81.52000 3.666
81.54000 4.948
81.56000 3.595
81.58000 0.381
81.60000 2.030
81.62000 -0.214
81.64000 -0.868
81.66000 3.701
81.68000 1.686
81.70000 1.227
81.72000 -1.231
81.74000 -0.904
81.76000 -1.964
81.78000 -0.562
81.80000 -0.162
81.82000 -1.392
81.84000 -1.028
81.86000 -1.113
81.88000 -0.656
81.90000 0.937
81.92000 0.645
81.94000 -0.197
81.96000 -0.789
81.98000 -2.270
82.00000 -2.281
82.02000 -1.708
82.04000 -2.232
82.06000 0.569
82.08000 -0.927
82.10000 -0.913
82.12000 -1.114
82.14000 -0.188
82.16000 1.156
82.18000 -0.811
82.20000 0.569
82.22000 0.088
82.24000 -0.809
82.26000 -0.670
82.28000 -1.914
82.30000 -0.045
82.32000 2.433
82.34000 2.206
82.36000 0.124
82.38000 0.775
82.40000 2.226
82.42000 -1.179
82.44000 -0.403
82.46000 -0.084
82.48000 0.405
82.50000 2.086
82.52000 2.522
82.54000 2.929
82.56000 -2.259
82.58000 1.817
82.60000 4.020
82.62000 1.214
82.64000 -0.206
82.66000 -2.292
82.68000 -1.775
82.70000 -1.719
82.72000 -1.461
82.74000 1.385
82.76000 2.966
82.78000 2.877
82.80000 1.110
82.82000 0.996
82.84000 0.231
82.86000 -0.855
82.88000 4.933
82.90000 3.835
82.92000 3.771
82.94000 0.584
82.96000 1.737
82.98000 0.565
83.00000 1.876
83.02000 0.386
83.04000 2.983
83.06000 3.369
83.08000 2.068
83.10000 4.408
83.12000 5.076
83.14000 8.317
83.16000 8.236
83.18000 4.893
83.20000 7.430
83.22000 5.506
83.24000 4.923
83.26000 9.706
83.28000 12.859
83.30000 11.047
83.32000 11.155
83.34000 8.717
83.36000 8.778
83.38000 4.996
83.40000 9.767
83.42000 11.639
83.44000 10.252
83.46000 13.188
83.48000 13.709
83.50000 12.052
83.52000 12.707
83.54000 15.573
83.56000 18.591
83.58000 19.488
83.60000 17.652
83.62000 16.485
83.64000 17.273
83.66000 19.795
83.68000 24.356
83.70000 21.709
83.72000 19.460
83.74000 20.125
83.76000 20.582
83.78000 24.477
83.80000 28.199
83.82000 26.960
83.84000 29.619
83.86000 29.779
83.88000 33.411
83.90000 30.506
83.92000 31.012
83.94000 30.655
83.96000 29.208
83.98000 31.855
84.00000 33.045
84.02000 33.487
84.04000 31.743
84.06000 33.862
84.08000 34.460
84.10000 32.651
84.12000 38.793
84.14000 33.454
84.16000 35.310
84.18000 35.997
84.20000 34.479
84.22000 34.379
84.24000 37.927
84.26000 35.537
84.28000 34.926
84.30000 37.279
84.32000 36.108
84.34000 33.425
84.36000 35.346
84.38000 35.011
84.40000 37.330
84.42000 31.324
84.44000 28.454
84.46000 32.696
84.48000 32.406
84.50000 29.797
84.52000 26.357
84.54000 27.446
84.56000 25.764
84.58000 28.473
84.60000 27.438
84.62000 22.283
84.64000 21.854
84.66000 21.146
84.68000 19.857
84.70000 19.202
84.72000 18.597
84.74000 13.349
84.76000 16.291
84.78000 16.068
84.80000 17.532
84.82000 13.100
84.84000 15.449
84.86000 18.725
84.88000 12.887
84.90000 12.794
84.92000 11.755
84.94000 10.321
84.96000 9.118
84.98000 8.364
85.00000 5.382
85.02000 4.108
85.04000 7.070
85.06000 5.985
85.08000 6.049
85.10000 8.986
85.12000 6.510
85.14000 3.539
85.16000 1.065
85.18000 1.915
85.20000 8.840
85.22000 6.139
85.24000 4.194
85.26000 7.199
85.28000 8.529
85.30000 5.240
85.32000 2.045
85.34000 -0.030
85.36000 -2.060
85.38000 1.436
85.40000 4.426
85.42000 5.109
85.44000 2.460
85.46000 2.362
85.48000 2.643
85.50000 0.914
85.52000 1.154
85.54000 3.352
85.56000 0.660
85.58000 3.459
85.60000 2.279
85.62000 2.434
85.64000 1.434
85.66000 -0.285
85.68000 0.447
85.70000 0.255
85.72000 -0.144
85.74000 1.431
85.76000 1.782
85.78000 1.362
85.80000 2.950
85.82000 2.651
85.84000 -0.939
85.86000 0.777
85.88000 1.976
85.90000 -1.984
85.92000 0.808
85.94000 2.483
85.96000 -0.152
85.98000 -0.045
86.00000 2.441
86.02000 1.392
86.04000 1.336
86.06000 1.383
86.08000 -0.567
86.10000 2.229
86.12000 4.659
86.14000 3.922
86.16000 1.752
86.18000 -0.863
86.20000 -1.555
86.22000 1.542
86.24000 3.586
86.26000 0.708
86.28000 -0.938
86.30000 1.364
86.32000 1.604
86.34000 -0.537
86.36000 -1.953
86.38000 0.586
86.40000 4.651
86.42000 2.469
86.44000 2.657
86.46000 1.224
86.48000 -0.292
86.50000 -1.232
86.52000 0.815
86.54000 -0.715
86.56000 -0.187
86.58000 0.016
86.60000 -1.446
86.62000 -0.768
86.64000 -0.511
86.66000 0.232
86.68000 2.217
86.70000 2.326
86.72000 -1.089
86.74000 -0.167
86.76000 -0.818
86.78000 0.126
86.80000 2.238
86.82000 1.877
86.84000 -1.906
86.86000 1.621
86.88000 2.177
86.90000 -0.778
86.92000 -0.166
86.94000 0.591
86.96000 2.330
86.98000 -0.039
87.00000 -1.625
87.02000 -0.906
87.04000 0.383
87.06000 4.339
87.08000 3.440
87.10000 3.216
87.12000 -0.035
87.14000 1.321
87.16000 2.058
87.18000 4.495
87.20000 6.112
87.22000 2.409
87.24000 4.028
87.26000 3.957
87.28000 2.728
87.30000 2.020
87.32000 1.948
87.34000 2.712
87.36000 4.334
87.38000 3.423
87.40000 -0.465
87.42000 2.279
87.44000 0.400
87.46000 -1.840
87.48000 -0.351
87.50000 2.224
87.52000 2.993
87.54000 1.417
87.56000 2.904
87.58000 2.261
87.60000 1.364
87.62000 3.768
87.64000 5.115
87.66000 5.249
87.68000 5.899
87.70000 5.756
87.72000 3.227
87.74000 1.215
87.76000 -1.043
87.78000 -0.171
87.80000 1.020
87.82000 2.067
87.84000 2.938
87.86000 1.990
87.88000 2.104
87.90000 2.800
87.92000 4.139
87.94000 5.973
87.96000 3.479
87.98000 2.478
88.00000 3.413
88.02000 2.148
88.04000 -0.979
88.06000 1.528
88.08000 2.729
88.10000 2.370
88.12000 0.583
88.14000 1.378
88.16000 0.437
88.18000 -0.171
88.20000 2.135
88.22000 2.908
88.24000 -1.179
88.26000 -0.780
88.28000 -0.669
88.30000 0.610
88.32000 2.859
88.34000 2.398
88.36000 0.907
88.38000 -1.259
88.40000 1.350
88.42000 3.193
88.44000 4.126
88.46000 3.740
88.48000 3.746
88.50000 1.021
88.52000 4.243
88.54000 3.274
88.56000 4.316
88.58000 2.824
88.60000 1.692
88.62000 5.162
88.64000 1.972
88.66000 -1.829
88.68000 0.490
88.70000 1.559
88.72000 2.994
88.74000 3.751
88.76000 2.215
88.78000 1.761
88.80000 0.557
88.82000 -0.336
88.84000 3.192
88.86000 3.241
88.88000 2.841
88.90000 2.873
88.92000 2.684
88.94000 2.967
88.96000 3.329
88.98000 2.643
89.00000 4.258
89.02000 6.185
89.04000 5.712
89.06000 4.962
89.08000 2.529
89.10000 1.316
89.12000 1.925
89.14000 1.629
89.16000 -0.582
89.18000 -0.444
89.20000 1.043
89.22000 1.479
89.24000 1.087
89.26000 1.079
89.28000 -0.283
89.30000 0.241
89.32000 4.578
89.34000 3.704
89.36000 1.778
89.38000 2.969
89.40000 1.960
89.42000 2.035
89.44000 -0.489
89.46000 -1.824
89.48000 -0.662
89.50000 -0.454
89.52000 0.974
89.54000 2.837
89.56000 3.375
89.58000 3.368
89.60000 2.249
89.62000 0.417
89.64000 -0.696
89.66000 1.942
89.68000 1.720
89.70000 4.695
89.72000 4.082
89.74000 1.153
89.76000 -1.828
89.78000 -0.245
89.80000 3.792
89.82000 2.188
89.84000 3.551
89.86000 -1.015
89.88000 1.016
89.90000 1.510
89.92000 0.571
89.94000 0.983
89.96000 0.627
89.98000 1.124
90.00000 1.512
90.02000 -0.579
90.04000 -0.764
90.06000 2.847
90.08000 2.182
90.10000 3.798
90.12000 0.952
90.14000 1.642
90.16000 1.562
90.18000 1.318
90.20000 0.654
90.22000 4.134
90.24000 3.537
90.26000 0.690
90.28000 0.870
90.30000 1.120
90.32000 1.417
90.34000 2.381
90.36000 -0.116
90.38000 -0.642
90.40000 -0.556
90.42000 -0.636
90.44000 0.001
90.46000 1.831
90.48000 1.962
90.50000 2.418
90.52000 -1.841
90.54000 -0.763
90.56000 0.108
90.58000 2.755
90.60000 2.608
90.62000 1.994
90.64000 1.919
90.66000 0.523
90.68000 -0.252
90.70000 0.946
90.72000 3.085
90.74000 3.340
90.76000 1.244
90.78000 3.052
90.80000 2.302
90.82000 3.977
90.84000 5.670
90.86000 3.184
90.88000 -0.271
90.90000 0.448
90.92000 2.253
90.94000 -0.451
90.96000 -0.548
90.98000 3.647
91.00000 1.675
91.02000 -1.833
91.04000 1.581
91.06000 3.123
91.08000 3.388
91.10000 2.785
91.12000 2.456
91.14000 0.041
91.16000 3.708
91.18000 0.684
91.20000 2.722
91.22000 2.008
91.24000 -0.248
91.26000 0.730
91.28000 5.109
91.30000 5.684
91.32000 2.486
91.34000 1.791
91.36000 1.206
91.38000 -1.279
91.40000 1.376
91.42000 2.045
91.44000 4.390
91.46000 2.664
91.48000 2.344
91.50000 2.298
91.52000 0.970
91.54000 4.876
91.56000 3.287
91.58000 0.241
91.60000 3.101
91.62000 4.969
91.64000 2.927
91.66000 4.228
91.68000 4.713
91.70000 3.923
91.72000 1.548
91.74000 -0.280
91.76000 1.752
91.78000 -1.849
91.80000 -0.007
91.82000 5.300
91.84000 4.278
91.86000 1.466
91.88000 0.985
91.90000 1.144
91.92000 0.232
91.94000 -1.851
91.96000 -0.847
91.98000 1.591
92.00000 1.516
92.02000 1.558
92.04000 5.118
92.06000 -0.163
92.08000 3.449
92.10000 2.980
92.12000 1.285
92.14000 1.207
92.16000 5.607
92.18000 4.490
92.20000 2.770
92.22000 3.627
92.24000 4.042
92.26000 2.011
92.28000 -0.482
92.30000 0.073
92.32000 1.168
92.34000 3.303
92.36000 4.799
92.38000 0.757
92.40000 0.999
92.42000 3.435
92.44000 1.873
92.46000 1.990
92.48000 3.120
92.50000 0.944
92.52000 -0.484
92.54000 0.942
92.56000 1.842
92.58000 1.141
92.60000 0.675
92.62000 -0.660
92.64000 2.873
92.66000 1.946
92.68000 3.010
92.70000 1.962
92.72000 1.963
92.74000 2.426
92.76000 -0.149
92.78000 -0.475
92.80000 1.893
92.82000 1.894
92.84000 4.440
92.86000 3.101
92.88000 2.358
92.90000 4.020
92.92000 2.568
92.94000 3.596
92.96000 0.583
92.98000 -0.315
93.00000 -0.056
93.02000 -0.043
93.04000 -0.559
93.06000 0.393
93.08000 3.922
93.10000 1.251
93.12000 -0.442
93.14000 -0.141
93.16000 1.688
93.18000 -0.677
93.20000 -1.856
93.22000 0.632
93.24000 2.623
93.26000 1.807
93.28000 2.545
93.30000 4.067
93.32000 3.671
93.34000 2.028
93.36000 4.124
93.38000 1.030
93.40000 1.770
93.42000 1.395
93.44000 4.289
93.46000 5.388
93.48000 2.310
93.50000 0.538
93.52000 0.124
93.54000 0.352
93.56000 2.977
93.58000 1.707
93.60000 3.434
93.62000 5.495
93.64000 5.038
93.66000 6.014
93.68000 5.910
93.70000 2.856
93.72000 -0.817
93.74000 -1.849
93.76000 2.500
93.78000 3.630
93.80000 3.311
93.82000 3.759
93.84000 3.806
93.86000 2.043
93.88000 0.088
93.90000 2.914
93.92000 4.144
93.94000 2.239
93.96000 3.719
93.98000 3.593
94.00000 -0.366
94.02000 -0.149
94.04000 4.681
94.06000 2.428
94.08000 -0.848
94.10000 1.145
94.12000 4.280
94.14000 2.777
94.16000 1.562
94.18000 1.105
94.20000 -0.598
94.22000 0.013
94.24000 2.576
94.26000 5.678
94.28000 2.500
94.30000 3.652
94.32000 7.370
94.34000 8.602
94.36000 6.432
94.38000 1.672
94.40000 0.708
94.42000 -0.246
94.44000 0.609
94.46000 4.688
94.48000 3.647
94.50000 4.647
94.52000 3.684
94.54000 2.602
94.56000 3.575
94.58000 2.631
94.60000 4.546
94.62000 2.416
94.64000 0.655
94.66000 1.221
94.68000 2.809
94.70000 -0.570
94.72000 -1.789
94.74000 -0.053
94.76000 3.964
94.78000 5.191
94.80000 3.515
94.82000 1.285
94.84000 2.392
94.86000 2.406
94.88000 -1.320
94.90000 -0.165
94.92000 1.496
94.94000 2.491
94.96000 2.968
94.98000 1.787
95.00000 2.196
95.02000 1.490
95.04000 -0.926
95.06000 1.493
95.08000 2.234
95.10000 2.011
95.12000 2.825
95.14000 2.228
95.16000 -1.779
95.18000 -1.869
95.20000 1.204
95.22000 2.065
95.24000 3.837
95.26000 1.559
95.28000 0.135
95.30000 -0.231
95.32000 4.318
95.34000 4.367
95.36000 5.574
95.38000 4.224
95.40000 3.940
95.42000 3.419
95.44000 3.400
95.46000 3.053
95.48000 3.686
95.50000 3.417
95.52000 -0.699
95.54000 2.780
95.56000 2.737
95.58000 -0.078
95.60000 -1.501
95.62000 2.367
95.64000 2.996
95.66000 3.172
95.68000 4.432
95.70000 5.245
95.72000 3.281
95.74000 2.177
95.76000 4.159
95.78000 2.605
95.80000 0.308
95.82000 0.926
95.84000 3.782
95.86000 4.341
95.88000 3.112
95.90000 -0.162
95.92000 0.182
95.94000 1.146
95.96000 -1.863
95.98000 0.018
96.00000 2.233
96.02000 1.678
96.04000 3.628
96.06000 4.125
96.08000 4.941
96.10000 3.635
96.12000 2.001
96.14000 3.057
96.16000 3.904
96.18000 -1.862
96.20000 1.511
96.22000 3.378
96.24000 -0.544
96.26000 -1.741
96.28000 0.751
96.30000 5.773
96.32000 2.815
96.34000 1.523
96.36000 4.710
96.38000 5.012
96.40000 2.994
96.42000 0.414
96.44000 4.097
96.46000 6.429
96.48000 2.877
96.50000 3.551
96.52000 3.309
96.54000 3.326
96.56000 4.055
96.58000 1.323
96.60000 4.725
96.62000 1.294
96.64000 3.032
96.66000 -0.976
96.68000 3.687
96.70000 3.191
96.72000 2.695
96.74000 1.381
96.76000 3.635
96.78000 1.492
96.80000 1.166
96.82000 4.633
96.84000 5.205
96.86000 5.149
96.88000 1.832
96.90000 2.884
96.92000 4.001
96.94000 4.038
96.96000 4.592
96.98000 5.814
97.00000 4.340
97.02000 2.552
97.04000 3.925
97.06000 6.756
97.08000 7.357
97.10000 4.952
97.12000 2.798
97.14000 0.545
97.16000 1.482
97.18000 5.411
97.20000 8.542
97.22000 8.083
97.24000 7.909
97.26000 6.279
97.28000 1.510
97.30000 2.757
97.32000 5.303
97.34000 5.692
97.36000 7.175
97.38000 7.756
97.40000 7.018
97.42000 2.031
97.44000 0.340
97.46000 0.769
97.48000 -1.800
97.50000 4.821
97.52000 8.289
97.54000 7.604
97.56000 6.088
97.58000 5.321
97.60000 2.870
97.62000 6.501
97.64000 6.237
97.66000 4.098
97.68000 3.988
97.70000 3.278
97.72000 4.418
97.74000 2.642
97.76000 5.806
97.78000 9.681
97.80000 6.829
97.82000 4.680
97.84000 2.585
97.86000 2.576
97.88000 3.711
97.90000 4.789
97.92000 3.542
97.94000 1.256
97.96000 3.276
97.98000 5.311
98.00000 1.141
98.02000 0.310
98.04000 3.992
98.06000 4.578
98.08000 2.073
98.10000 -0.554
98.12000 0.797
98.14000 0.966
98.16000 4.164
98.18000 3.737
98.20000 4.588
98.22000 4.031
98.24000 1.526
98.26000 -1.204
98.28000 1.036
98.30000 6.853
98.32000 6.454
98.34000 5.049
98.36000 5.190
98.38000 0.254
98.40000 4.865
98.42000 5.169
98.44000 4.001
98.46000 3.712
98.48000 4.982
98.50000 8.621
98.52000 2.794
98.54000 -1.270
98.56000 -0.650
98.58000 -0.082
98.60000 4.927
98.62000 2.689
98.64000 3.341
98.66000 6.057
98.68000 5.286
98.70000 7.836
98.72000 2.606
98.74000 3.164
98.76000 1.422
98.78000 6.111
98.80000 0.414
98.82000 2.934
98.84000 4.541
98.86000 3.653
98.88000 -0.314
98.90000 0.152
98.92000 4.172
98.94000 8.732
98.96000 3.306
98.98000 2.674
99.00000 1.344
99.02000 2.473
99.04000 2.935
99.06000 5.583
99.08000 3.208
99.10000 3.159
99.12000 2.575
99.14000 1.926
99.16000 4.572
99.18000 11.083
99.20000 2.540
99.22000 1.724
99.24000 3.683
99.26000 1.037
99.28000 2.901
99.30000 4.591
99.32000 3.702
99.34000 4.660
99.36000 7.518
99.38000 5.003
99.40000 5.326
99.42000 8.800
99.44000 7.136
99.46000 4.991
99.48000 7.701
99.50000 9.827
99.52000 7.613
99.54000 -0.690
99.56000 -1.796
99.58000 3.151
99.60000 9.157
99.62000 4.040
99.64000 7.504
99.66000 9.003
99.68000 8.075
99.70000 3.198
99.72000 13.710
99.74000 13.789
99.76000 13.430
99.78000 4.390
99.80000 6.664
99.82000 16.200
99.84000 11.656
99.86000 8.289
99.88000 -1.887
99.90000 1.362
99.92000 3.612
99.94000 7.099
99.96000 5.513
99.98000 0.000
