'Id: "0011388" Comment: "Integrate frame 0011388_Au-Ir-Rh_Rh-rich_XRD-Mapping-145-0000.gfrmwith cursor Wedge Cursor #5" Operator: "B?rgel" Anode: "Cu" Wavelength: "1.5406" Scantype: "2Theta (TwoTheta)" TimePerStep: "1" X: "-4.5" Y: "-4.5" Z: "5.95" 
10.00000 0.000
10.02000 13.635
10.04000 9.132
10.06000 7.631
10.08000 13.585
10.10000 8.771
10.12000 10.759
10.14000 -4.203
10.16000 -3.334
10.18000 9.673
10.20000 0.250
10.22000 8.779
10.24000 1.105
10.26000 -3.323
10.28000 -2.022
10.30000 2.686
10.32000 6.126
10.34000 15.644
10.36000 17.766
10.38000 0.931
10.40000 5.985
10.42000 10.621
10.44000 1.044
10.46000 -1.330
10.48000 9.319
10.50000 6.032
10.52000 11.196
10.54000 12.704
10.56000 9.366
10.58000 7.579
10.60000 -4.243
10.62000 -1.368
10.64000 8.786
10.66000 8.214
10.68000 2.992
10.70000 8.956
10.72000 10.497
10.74000 16.108
10.76000 15.496
10.78000 11.633
10.80000 2.582
10.82000 10.945
10.84000 11.174
10.86000 4.371
10.88000 7.301
10.90000 6.315
10.92000 7.086
10.94000 7.236
10.96000 2.984
10.98000 -3.141
11.00000 -3.297
11.02000 -1.946
11.04000 0.726
11.06000 9.252
11.08000 15.153
11.10000 25.723
11.12000 13.108
11.14000 23.671
11.16000 21.382
11.18000 11.704
11.20000 10.950
11.22000 2.245
11.24000 6.550
11.26000 10.854
11.28000 -2.541
11.30000 6.497
11.32000 5.577
11.34000 7.837
11.36000 11.975
11.38000 12.549
11.40000 2.389
11.42000 9.396
11.44000 12.874
11.46000 6.493
11.48000 8.425
11.50000 14.752
11.52000 4.821
11.54000 8.333
11.56000 15.938
11.58000 10.829
11.60000 10.318
11.62000 6.072
11.64000 12.791
11.66000 8.333
11.68000 3.877
11.70000 12.804
11.72000 15.435
11.74000 12.057
11.76000 6.240
11.78000 -2.663
11.80000 -4.333
11.82000 6.090
11.84000 2.094
11.86000 10.765
11.88000 14.267
11.90000 13.442
11.92000 12.225
11.94000 24.840
11.96000 16.724
11.98000 10.413
12.00000 17.942
12.02000 8.476
12.04000 10.359
12.06000 13.571
12.08000 8.308
12.10000 5.163
12.12000 7.703
12.14000 16.134
12.16000 25.465
12.18000 16.111
12.20000 -3.791
12.22000 2.556
12.24000 12.171
12.26000 25.851
12.28000 19.539
12.30000 14.835
12.32000 12.218
12.34000 13.513
12.36000 16.865
12.38000 9.874
12.40000 9.072
12.42000 11.490
12.44000 7.516
12.46000 8.814
12.48000 12.058
12.50000 4.685
12.52000 8.675
12.54000 17.634
12.56000 11.708
12.58000 5.789
12.60000 6.238
12.62000 3.762
12.64000 17.805
12.66000 19.520
12.68000 19.866
12.70000 17.575
12.72000 23.997
12.74000 23.591
12.76000 15.652
12.78000 8.641
12.80000 6.738
12.82000 14.202
12.84000 6.577
12.86000 11.746
12.88000 15.791
12.90000 7.356
12.92000 8.902
12.94000 20.980
12.96000 19.653
12.98000 13.008
13.00000 10.528
13.02000 13.520
13.04000 11.189
13.06000 8.562
13.08000 8.861
13.10000 2.518
13.12000 8.645
13.14000 13.867
13.16000 8.647
13.18000 3.687
13.20000 8.075
13.22000 14.674
13.24000 11.325
13.26000 21.593
13.28000 20.036
13.30000 14.737
13.32000 8.615
13.34000 16.073
13.36000 20.668
13.38000 5.991
13.40000 1.210
13.42000 15.279
13.44000 13.459
13.46000 8.352
13.48000 3.390
13.50000 7.430
13.52000 10.374
13.54000 16.498
13.56000 9.494
13.58000 9.660
13.60000 2.528
13.62000 -0.826
13.64000 -0.820
13.66000 5.591
13.68000 16.136
13.70000 11.782
13.72000 9.415
13.74000 18.292
13.76000 8.576
13.78000 3.193
13.80000 -4.432
13.82000 11.535
13.84000 17.162
13.86000 19.779
13.88000 9.807
13.90000 14.809
13.92000 14.330
13.94000 15.967
13.96000 17.083
13.98000 15.244
14.00000 12.542
14.02000 11.062
14.04000 9.483
14.06000 9.836
14.08000 3.368
14.10000 -0.383
14.12000 7.707
14.14000 5.899
14.16000 14.470
14.18000 2.783
14.20000 12.317
14.22000 24.824
14.24000 24.029
14.26000 14.821
14.28000 8.129
14.30000 9.565
14.32000 16.080
14.34000 18.243
14.36000 17.853
14.38000 10.484
14.40000 11.388
14.42000 16.908
14.44000 12.041
14.46000 8.635
14.48000 11.655
14.50000 7.196
14.52000 8.389
14.54000 7.289
14.56000 14.654
14.58000 18.128
14.60000 12.320
14.62000 11.639
14.64000 2.769
14.66000 3.348
14.68000 -1.936
14.70000 7.799
14.72000 17.946
14.74000 18.952
14.76000 7.591
14.78000 14.281
14.80000 9.650
14.82000 8.881
14.84000 10.228
14.86000 7.612
14.88000 12.632
14.90000 18.291
14.92000 15.193
14.94000 8.659
14.96000 15.725
14.98000 12.719
15.00000 9.721
15.02000 7.661
15.04000 6.848
15.06000 15.146
15.08000 13.631
15.10000 5.268
15.12000 11.742
15.14000 13.014
15.16000 9.101
15.18000 8.770
15.20000 8.078
15.22000 13.525
15.24000 9.259
15.26000 -1.946
15.28000 -2.281
15.30000 6.298
15.32000 6.595
15.34000 4.414
15.36000 8.734
15.38000 20.396
15.40000 12.616
15.42000 4.588
15.44000 -4.415
15.46000 4.622
15.48000 8.994
15.50000 4.343
15.52000 2.021
15.54000 6.360
15.56000 9.447
15.58000 11.035
15.60000 2.744
15.62000 6.700
15.64000 9.959
15.66000 10.593
15.68000 14.460
15.70000 6.344
15.72000 7.507
15.74000 -1.308
15.76000 5.831
15.78000 5.316
15.80000 2.579
15.82000 7.611
15.84000 6.443
15.86000 4.909
15.88000 14.576
15.90000 16.404
15.92000 11.342
15.94000 11.172
15.96000 13.262
15.98000 8.823
16.00000 12.238
16.02000 11.298
16.04000 10.710
16.06000 3.909
16.08000 -1.099
16.10000 9.889
16.12000 14.198
16.14000 7.573
16.16000 5.408
16.18000 7.292
16.20000 9.984
16.22000 6.072
16.24000 8.192
16.26000 7.952
16.28000 6.706
16.30000 4.785
16.32000 5.050
16.34000 2.063
16.36000 0.942
16.38000 3.503
16.40000 4.952
16.42000 7.289
16.44000 12.208
16.46000 5.915
16.48000 5.845
16.50000 5.968
16.52000 5.396
16.54000 5.526
16.56000 4.271
16.58000 0.206
16.60000 -0.661
16.62000 2.505
16.64000 2.084
16.66000 -0.702
16.68000 3.571
16.70000 7.901
16.72000 7.911
16.74000 11.059
16.76000 8.337
16.78000 9.714
16.80000 2.293
16.82000 8.434
16.84000 10.140
16.86000 7.390
16.88000 6.670
16.90000 8.168
16.92000 10.247
16.94000 6.987
16.96000 1.623
16.98000 6.567
17.00000 -2.900
17.02000 3.523
17.04000 5.549
17.06000 8.969
17.08000 6.824
17.10000 4.866
17.12000 7.194
17.14000 7.581
17.16000 1.772
17.18000 4.304
17.20000 -0.729
17.22000 2.188
17.24000 4.668
17.26000 -4.375
17.28000 -0.157
17.30000 8.189
17.32000 6.788
17.34000 -1.118
17.36000 6.198
17.38000 2.634
17.40000 1.087
17.42000 1.639
17.44000 6.329
17.46000 1.454
17.48000 8.956
17.50000 8.803
17.52000 6.996
17.54000 8.572
17.56000 4.471
17.58000 -2.862
17.60000 2.930
17.62000 8.924
17.64000 4.832
17.66000 0.334
17.68000 -0.865
17.70000 1.880
17.72000 -2.452
17.74000 3.929
17.76000 7.553
17.78000 4.638
17.80000 2.700
17.82000 -1.247
17.84000 -1.621
17.86000 -2.846
17.88000 -3.080
17.90000 2.257
17.92000 6.731
17.94000 9.249
17.96000 4.183
17.98000 4.811
18.00000 7.599
18.02000 2.112
18.04000 -2.817
18.06000 0.272
18.08000 -1.051
18.10000 -2.921
18.12000 0.282
18.14000 -4.145
18.16000 -1.409
18.18000 1.222
18.20000 2.952
18.22000 1.403
18.24000 1.435
18.26000 6.676
18.28000 0.389
18.30000 8.268
18.32000 2.536
18.34000 4.840
18.36000 -0.429
18.38000 -0.084
18.40000 4.573
18.42000 4.955
18.44000 8.748
18.46000 11.180
18.48000 11.375
18.50000 8.146
18.52000 7.005
18.54000 5.322
18.56000 8.127
18.58000 6.006
18.60000 -1.958
18.62000 6.981
18.64000 15.570
18.66000 9.343
18.68000 2.333
18.70000 4.982
18.72000 3.454
18.74000 1.410
18.76000 2.805
18.78000 2.648
18.80000 4.803
18.82000 4.885
18.84000 1.322
18.86000 0.179
18.88000 -0.301
18.90000 -4.293
18.92000 1.057
18.94000 8.663
18.96000 6.336
18.98000 1.962
19.00000 0.426
19.02000 5.523
19.04000 4.591
19.06000 3.768
19.08000 1.351
19.10000 0.517
19.12000 -2.309
19.14000 1.457
19.16000 -2.318
19.18000 -2.555
19.20000 -1.313
19.22000 0.705
19.24000 0.417
19.26000 -0.712
19.28000 -0.613
19.30000 1.011
19.32000 5.706
19.34000 7.017
19.36000 -0.248
19.38000 -2.861
19.40000 -0.595
19.42000 14.266
19.44000 7.288
19.46000 -0.985
19.48000 4.585
19.50000 3.610
19.52000 2.749
19.54000 -0.852
19.56000 1.747
19.58000 11.646
19.60000 10.939
19.62000 6.011
19.64000 6.283
19.66000 3.462
19.68000 9.362
19.70000 4.766
19.72000 0.844
19.74000 3.193
19.76000 5.513
19.78000 11.397
19.80000 4.059
19.82000 2.089
19.84000 6.764
19.86000 7.788
19.88000 2.511
19.90000 7.111
19.92000 9.643
19.94000 7.727
19.96000 3.335
19.98000 9.296
20.00000 10.860
20.02000 9.785
20.04000 10.967
20.06000 10.215
20.08000 2.328
20.10000 2.011
20.12000 8.780
20.14000 -0.091
20.16000 -4.179
20.18000 4.638
20.20000 10.501
20.22000 11.828
20.24000 11.846
20.26000 12.939
20.28000 7.166
20.30000 3.750
20.32000 7.620
20.34000 13.513
20.36000 11.640
20.38000 9.246
20.40000 2.532
20.42000 8.445
20.44000 6.099
20.46000 4.108
20.48000 11.444
20.50000 10.736
20.52000 8.990
20.54000 4.858
20.56000 6.142
20.58000 8.321
20.60000 2.020
20.62000 -0.571
20.64000 4.437
20.66000 7.052
20.68000 12.188
20.70000 3.722
20.72000 2.800
20.74000 5.111
20.76000 3.051
20.78000 5.149
20.80000 5.522
20.82000 6.720
20.84000 0.462
20.86000 7.497
20.88000 7.439
20.90000 5.727
20.92000 2.926
20.94000 7.079
20.96000 6.483
20.98000 6.583
21.00000 2.638
21.02000 2.045
21.04000 5.264
21.06000 7.154
21.08000 9.497
21.10000 6.565
21.12000 7.945
21.14000 4.076
21.16000 3.944
21.18000 1.715
21.20000 -1.261
21.22000 -3.465
21.24000 -4.087
21.26000 -0.070
21.28000 3.320
21.30000 4.421
21.32000 5.067
21.34000 2.174
21.36000 4.237
21.38000 2.151
21.40000 2.046
21.42000 5.818
21.44000 3.274
21.46000 3.949
21.48000 3.437
21.50000 5.600
21.52000 5.474
21.54000 0.058
21.56000 -1.431
21.58000 6.688
21.60000 9.665
21.62000 -0.516
21.64000 4.648
21.66000 4.629
21.68000 2.389
21.70000 2.663
21.72000 7.221
21.74000 10.680
21.76000 -4.139
21.78000 -2.091
21.80000 3.284
21.82000 4.105
21.84000 -0.871
21.86000 1.170
21.88000 2.322
21.90000 0.983
21.92000 6.866
21.94000 1.201
21.96000 -0.554
21.98000 -0.234
22.00000 3.561
22.02000 -0.259
22.04000 6.913
22.06000 6.432
22.08000 5.589
22.10000 0.710
22.12000 7.607
22.14000 11.059
22.16000 10.531
22.18000 0.409
22.20000 4.422
22.22000 3.875
22.24000 -0.470
22.26000 -1.648
22.28000 2.973
22.30000 4.324
22.32000 1.091
22.34000 1.661
22.36000 -1.458
22.38000 -2.178
22.40000 0.463
22.42000 3.799
22.44000 -3.300
22.46000 -0.559
22.48000 -3.041
22.50000 -1.756
22.52000 0.582
22.54000 -2.152
22.56000 1.155
22.58000 2.570
22.60000 1.015
22.62000 -0.835
22.64000 -1.411
22.66000 2.795
22.68000 1.308
22.70000 2.772
22.72000 0.953
22.74000 4.147
22.76000 3.530
22.78000 -3.485
22.80000 -4.083
22.82000 -3.155
22.84000 1.948
22.86000 3.766
22.88000 2.523
22.90000 2.107
22.92000 8.423
22.94000 3.150
22.96000 4.504
22.98000 -0.019
23.00000 0.956
23.02000 7.189
23.04000 5.328
23.06000 8.773
23.08000 7.283
23.10000 -2.902
23.12000 7.284
23.14000 12.165
23.16000 12.843
23.18000 13.853
23.20000 5.093
23.22000 -3.556
23.24000 -2.348
23.26000 -0.039
23.28000 -1.576
23.30000 -1.969
23.32000 -1.693
23.34000 1.150
23.36000 4.865
23.38000 7.423
23.40000 0.091
23.42000 -3.187
23.44000 -1.792
23.46000 4.954
23.48000 5.676
23.50000 9.819
23.52000 7.674
23.54000 5.037
23.56000 7.827
23.58000 10.642
23.60000 8.054
23.62000 8.346
23.64000 4.883
23.66000 4.955
23.68000 11.372
23.70000 5.903
23.72000 2.651
23.74000 -4.009
23.76000 -1.325
23.78000 6.068
23.80000 8.637
23.82000 10.723
23.84000 5.442
23.86000 2.860
23.88000 4.753
23.90000 2.992
23.92000 7.368
23.94000 13.176
23.96000 8.671
23.98000 5.940
24.00000 5.947
24.02000 -0.322
24.04000 10.149
24.06000 10.006
24.08000 2.824
24.10000 5.446
24.12000 6.159
24.14000 4.051
24.16000 2.203
24.18000 1.232
24.20000 3.053
24.22000 5.174
24.24000 1.272
24.26000 -1.374
24.28000 1.169
24.30000 1.452
24.32000 5.192
24.34000 5.918
24.36000 4.905
24.38000 4.920
24.40000 -0.180
24.42000 -3.964
24.44000 4.619
24.46000 6.260
24.48000 5.797
24.50000 4.094
24.52000 2.647
24.54000 4.253
24.56000 4.605
24.58000 6.999
24.60000 5.551
24.62000 12.295
24.64000 10.169
24.66000 4.047
24.68000 3.777
24.70000 5.063
24.72000 5.142
24.74000 2.842
24.76000 5.818
24.78000 0.086
24.80000 -0.110
24.82000 2.888
24.84000 5.691
24.86000 5.958
24.88000 7.298
24.90000 5.944
24.92000 0.043
24.94000 -0.595
24.96000 5.475
24.98000 3.433
25.00000 6.398
25.02000 8.513
25.04000 4.433
25.06000 -0.356
25.08000 1.608
25.10000 1.237
25.12000 -2.746
25.14000 2.862
25.16000 4.978
25.18000 0.219
25.20000 -1.721
25.22000 0.017
25.24000 6.778
25.26000 8.750
25.28000 4.120
25.30000 5.220
25.32000 9.477
25.34000 5.358
25.36000 -0.869
25.38000 -1.291
25.40000 -0.524
25.42000 1.448
25.44000 5.398
25.46000 7.101
25.48000 7.989
25.50000 4.785
25.52000 1.844
25.54000 7.940
25.56000 4.822
25.58000 5.911
25.60000 3.681
25.62000 2.080
25.64000 0.615
25.66000 2.571
25.68000 2.810
25.70000 2.695
25.72000 4.300
25.74000 6.567
25.76000 2.681
25.78000 2.105
25.80000 7.560
25.82000 6.967
25.84000 1.463
25.86000 3.494
25.88000 3.104
25.90000 5.345
25.92000 11.083
25.94000 7.615
25.96000 5.403
25.98000 5.267
26.00000 -0.565
26.02000 1.485
26.04000 -0.668
26.06000 -1.378
26.08000 3.586
26.10000 7.904
26.12000 6.628
26.14000 2.356
26.16000 4.683
26.18000 5.742
26.20000 2.840
26.22000 5.734
26.24000 6.155
26.26000 3.567
26.28000 5.222
26.30000 3.043
26.32000 0.335
26.34000 -3.861
26.36000 -0.071
26.38000 3.196
26.40000 8.129
26.42000 14.137
26.44000 7.413
26.46000 2.823
26.48000 11.007
26.50000 7.162
26.52000 4.218
26.54000 4.768
26.56000 7.627
26.58000 10.136
26.60000 7.769
26.62000 6.062
26.64000 4.217
26.66000 9.763
26.68000 6.201
26.70000 7.710
26.72000 5.097
26.74000 4.008
26.76000 7.143
26.78000 11.660
26.80000 9.410
26.82000 7.894
26.84000 3.199
26.86000 5.659
26.88000 9.770
26.90000 0.332
26.92000 1.561
26.94000 0.266
26.96000 0.222
26.98000 8.344
27.00000 10.621
27.02000 12.004
27.04000 9.052
27.06000 4.373
27.08000 3.155
27.10000 5.423
27.12000 2.592
27.14000 0.206
27.16000 1.731
27.18000 1.922
27.20000 8.517
27.22000 7.789
27.24000 3.621
27.26000 0.665
27.28000 -1.966
27.30000 2.428
27.32000 6.969
27.34000 6.208
27.36000 6.840
27.38000 8.127
27.40000 9.136
27.42000 4.028
27.44000 8.642
27.46000 7.094
27.48000 4.408
27.50000 3.796
27.52000 5.079
27.54000 3.863
27.56000 7.850
27.58000 5.406
27.60000 6.770
27.62000 7.556
27.64000 6.542
27.66000 6.110
27.68000 7.093
27.70000 7.216
27.72000 8.474
27.74000 8.362
27.76000 7.366
27.78000 5.212
27.80000 2.902
27.82000 4.306
27.84000 6.908
27.86000 11.990
27.88000 10.562
27.90000 9.817
27.92000 9.046
27.94000 7.394
27.96000 7.893
27.98000 5.438
28.00000 6.088
28.02000 11.035
28.04000 12.713
28.06000 8.358
28.08000 5.296
28.10000 4.998
28.12000 4.309
28.14000 -1.111
28.16000 -3.719
28.18000 3.999
28.20000 9.190
28.22000 5.385
28.24000 10.479
28.26000 7.922
28.28000 4.819
28.30000 5.811
28.32000 4.215
28.34000 -2.027
28.36000 0.476
28.38000 5.377
28.40000 10.651
28.42000 10.013
28.44000 7.273
28.46000 6.274
28.48000 3.299
28.50000 3.789
28.52000 5.452
28.54000 0.780
28.56000 -0.388
28.58000 2.491
28.60000 7.674
28.62000 9.013
28.64000 6.410
28.66000 1.703
28.68000 5.562
28.70000 7.311
28.72000 -1.381
28.74000 1.460
28.76000 5.251
28.78000 6.701
28.80000 6.819
28.82000 2.932
28.84000 -2.276
28.86000 6.277
28.88000 4.143
28.90000 6.962
28.92000 4.449
28.94000 5.416
28.96000 6.681
28.98000 7.925
29.00000 6.439
29.02000 1.191
29.04000 3.877
29.06000 9.876
29.08000 5.559
29.10000 3.931
29.12000 3.813
29.14000 2.195
29.16000 3.084
29.18000 -1.974
29.20000 -3.711
29.22000 3.427
29.24000 3.979
29.26000 7.985
29.28000 6.154
29.30000 6.014
29.32000 8.720
29.34000 8.291
29.36000 8.584
29.38000 5.427
29.40000 3.077
29.42000 2.105
29.44000 4.997
29.46000 7.379
29.48000 4.313
29.50000 0.132
29.52000 -2.890
29.54000 0.661
29.56000 0.427
29.58000 1.963
29.60000 2.476
29.62000 4.261
29.64000 2.156
29.66000 -0.571
29.68000 -1.267
29.70000 -0.177
29.72000 4.941
29.74000 6.803
29.76000 4.004
29.78000 3.618
29.80000 10.332
29.82000 3.108
29.84000 0.005
29.86000 1.027
29.88000 0.117
29.90000 -0.626
29.92000 -0.174
29.94000 0.848
29.96000 1.154
29.98000 -1.418
30.00000 -3.319
30.02000 1.303
30.04000 -3.691
30.06000 1.062
30.08000 6.687
30.10000 0.718
30.12000 0.910
30.14000 4.040
30.16000 5.256
30.18000 4.231
30.20000 3.248
30.22000 -0.763
30.24000 -2.487
30.26000 1.709
30.28000 -2.925
30.30000 -1.502
30.32000 0.116
30.34000 6.691
30.36000 0.541
30.38000 -2.074
30.40000 -0.376
30.42000 2.750
30.44000 5.944
30.46000 4.435
30.48000 1.425
30.50000 -1.435
30.52000 0.535
30.54000 2.279
30.56000 3.883
30.58000 -2.874
30.60000 1.226
30.62000 1.290
30.64000 4.139
30.66000 3.321
30.68000 -0.073
30.70000 -3.657
30.72000 -2.958
30.74000 -2.950
30.76000 0.110
30.78000 1.500
30.80000 3.342
30.82000 3.686
30.84000 2.708
30.86000 8.329
30.88000 6.688
30.90000 5.145
30.92000 2.739
30.94000 3.003
30.96000 3.412
30.98000 2.946
31.00000 1.792
31.02000 0.472
31.04000 -1.416
31.06000 5.407
31.08000 3.752
31.10000 1.314
31.12000 -3.630
31.14000 0.649
31.16000 3.847
31.18000 2.617
31.20000 5.867
31.22000 0.508
31.24000 2.997
31.26000 5.427
31.28000 3.725
31.30000 3.947
31.32000 3.931
31.34000 1.849
31.36000 1.734
31.38000 -3.553
31.40000 -3.090
31.42000 -3.619
31.44000 1.236
31.46000 -1.048
31.48000 -0.697
31.50000 0.761
31.52000 4.647
31.54000 8.077
31.56000 4.719
31.58000 3.388
31.60000 1.522
31.62000 0.237
31.64000 4.616
31.66000 1.073
31.68000 4.075
31.70000 -1.469
31.72000 0.352
31.74000 1.824
31.76000 0.127
31.78000 2.975
31.80000 6.961
31.82000 6.961
31.84000 6.300
31.86000 4.550
31.88000 8.849
31.90000 3.819
31.92000 6.888
31.94000 5.184
31.96000 6.970
31.98000 0.973
32.00000 -3.327
32.02000 -3.586
32.04000 1.062
32.06000 2.548
32.08000 3.617
32.10000 2.938
32.12000 3.498
32.14000 0.715
32.16000 3.907
32.18000 7.113
32.20000 7.357
32.22000 7.238
32.24000 2.328
32.26000 3.313
32.28000 1.645
32.30000 0.690
32.32000 2.754
32.34000 5.753
32.36000 8.414
32.38000 2.628
32.40000 0.752
32.42000 3.433
32.44000 1.867
32.46000 4.722
32.48000 7.565
32.50000 4.888
32.52000 5.228
32.54000 1.493
32.56000 -1.022
32.58000 3.460
32.60000 1.283
32.62000 2.808
32.64000 7.425
32.66000 6.322
32.68000 5.609
32.70000 6.448
32.72000 4.623
32.74000 3.109
32.76000 3.639
32.78000 4.450
32.80000 2.362
32.82000 6.713
32.84000 4.079
32.86000 0.823
32.88000 2.771
32.90000 4.036
32.92000 4.281
32.94000 -0.088
32.96000 -3.555
32.98000 -1.449
33.00000 1.720
33.02000 1.882
33.04000 2.763
33.06000 -0.870
33.08000 -1.008
33.10000 5.517
33.12000 4.939
33.14000 0.125
33.16000 3.696
33.18000 6.578
33.20000 7.918
33.22000 1.686
33.24000 1.048
33.26000 2.239
33.28000 4.095
33.30000 0.422
33.32000 3.361
33.34000 1.377
33.36000 2.161
33.38000 1.031
33.40000 1.821
33.42000 3.526
33.44000 9.916
33.46000 3.150
33.48000 3.774
33.50000 1.964
33.52000 3.064
33.54000 1.827
33.56000 3.335
33.58000 1.991
33.60000 2.630
33.62000 0.069
33.64000 3.904
33.66000 0.954
33.68000 4.433
33.70000 3.909
33.72000 2.514
33.74000 4.958
33.76000 3.712
33.78000 3.120
33.80000 -0.235
33.82000 -0.709
33.84000 4.557
33.86000 7.190
33.88000 5.931
33.90000 4.455
33.92000 4.804
33.94000 5.123
33.96000 1.852
33.98000 3.919
34.00000 2.936
34.02000 2.113
34.04000 4.553
34.06000 4.061
34.08000 1.363
34.10000 -1.392
34.12000 2.156
34.14000 6.572
34.16000 3.409
34.18000 1.806
34.20000 7.204
34.22000 6.131
34.24000 0.348
34.26000 1.761
34.28000 3.300
34.30000 1.023
34.32000 -0.187
34.34000 2.590
34.36000 3.078
34.38000 8.915
34.40000 7.498
34.42000 2.998
34.44000 6.517
34.46000 3.662
34.48000 1.583
34.50000 0.851
34.52000 4.361
34.54000 6.846
34.56000 4.842
34.58000 2.428
34.60000 5.833
34.62000 5.780
34.64000 5.775
34.66000 1.007
34.68000 -3.515
34.70000 3.144
34.72000 5.165
34.74000 5.936
34.76000 6.252
34.78000 10.034
34.80000 7.864
34.82000 5.724
34.84000 4.548
34.86000 9.455
34.88000 2.282
34.90000 -0.781
34.92000 2.268
34.94000 2.176
34.96000 -0.933
34.98000 0.170
35.00000 0.820
35.02000 -0.862
35.04000 -2.650
35.06000 0.268
35.08000 3.536
35.10000 8.747
35.12000 5.567
35.14000 5.569
35.16000 5.234
35.18000 3.945
35.20000 7.372
35.22000 7.969
35.24000 7.351
35.26000 0.686
35.28000 1.240
35.30000 6.020
35.32000 3.233
35.34000 3.996
35.36000 6.159
35.38000 -3.475
35.40000 -1.807
35.42000 0.089
35.44000 3.849
35.46000 7.752
35.48000 7.039
35.50000 6.597
35.52000 1.928
35.54000 2.723
35.56000 3.384
35.58000 3.792
35.60000 7.292
35.62000 10.185
35.64000 5.541
35.66000 5.988
35.68000 2.199
35.70000 -1.775
35.72000 2.439
35.74000 4.202
35.76000 2.841
35.78000 3.789
35.80000 0.523
35.82000 4.218
35.84000 6.107
35.86000 4.850
35.88000 -0.196
35.90000 0.408
35.92000 -0.435
35.94000 -1.471
35.96000 4.018
35.98000 4.840
36.00000 0.827
36.02000 -3.500
36.04000 -2.146
36.06000 4.195
36.08000 1.927
36.10000 4.735
36.12000 5.053
36.14000 7.003
36.16000 7.529
36.18000 7.113
36.20000 7.737
36.22000 3.664
36.24000 2.088
36.26000 0.782
36.28000 -1.925
36.30000 -3.150
36.32000 2.203
36.34000 4.140
36.36000 6.514
36.38000 3.505
36.40000 0.855
36.42000 2.417
36.44000 7.818
36.46000 10.050
36.48000 5.690
36.50000 0.829
36.52000 -2.837
36.54000 1.261
36.56000 3.210
36.58000 4.459
36.60000 2.965
36.62000 0.687
36.64000 2.424
36.66000 -0.878
36.68000 -2.528
36.70000 3.293
36.72000 4.157
36.74000 0.989
36.76000 1.916
36.78000 4.578
36.80000 -0.648
36.82000 -0.535
36.84000 2.586
36.86000 -0.338
36.88000 0.204
36.90000 3.088
36.92000 2.003
36.94000 -2.275
36.96000 2.735
36.98000 4.649
37.00000 1.488
37.02000 3.339
37.04000 1.435
37.06000 0.528
37.08000 8.633
37.10000 4.552
37.12000 3.988
37.14000 0.092
37.16000 2.413
37.18000 3.355
37.20000 -0.267
37.22000 0.827
37.24000 1.638
37.26000 0.520
37.28000 1.691
37.30000 5.196
37.32000 -1.104
37.34000 -1.167
37.36000 -1.521
37.38000 4.462
37.40000 5.244
37.42000 6.900
37.44000 0.761
37.46000 -3.541
37.48000 4.090
37.50000 6.383
37.52000 8.171
37.54000 2.795
37.56000 2.794
37.58000 0.712
37.60000 0.810
37.62000 -0.349
37.64000 1.487
37.66000 3.791
37.68000 7.692
37.70000 8.737
37.72000 5.949
37.74000 4.025
37.76000 5.581
37.78000 7.347
37.80000 6.161
37.82000 5.157
37.84000 4.740
37.86000 4.980
37.88000 9.119
37.90000 8.648
37.92000 6.423
37.94000 8.754
37.96000 7.573
37.98000 5.390
38.00000 9.624
38.02000 11.274
38.04000 8.328
38.06000 2.810
38.08000 7.435
38.10000 12.521
38.12000 12.887
38.14000 14.895
38.16000 11.411
38.18000 16.024
38.20000 8.895
38.22000 12.387
38.24000 13.796
38.26000 11.836
38.28000 7.629
38.30000 8.526
38.32000 12.354
38.34000 13.310
38.36000 14.375
38.38000 17.491
38.40000 14.987
38.42000 15.550
38.44000 11.488
38.46000 12.449
38.48000 12.895
38.50000 13.681
38.52000 14.753
38.54000 15.201
38.56000 14.121
38.58000 17.745
38.60000 18.826
38.62000 18.646
38.64000 24.468
38.66000 25.542
38.68000 23.853
38.70000 24.286
38.72000 22.246
38.74000 22.837
38.76000 20.999
38.78000 24.236
38.80000 23.195
38.82000 23.003
38.84000 23.488
38.86000 27.276
38.88000 30.859
38.90000 30.739
38.92000 28.811
38.94000 32.981
38.96000 29.945
38.98000 29.783
39.00000 28.219
39.02000 32.313
39.04000 36.220
39.06000 39.089
39.08000 35.120
39.10000 39.173
39.12000 46.512
39.14000 42.293
39.16000 41.539
39.18000 46.775
39.20000 46.943
39.22000 44.460
39.24000 49.224
39.26000 59.540
39.28000 65.091
39.30000 61.350
39.32000 61.129
39.34000 65.256
39.36000 66.185
39.38000 69.228
39.40000 76.212
39.42000 74.311
39.44000 81.690
39.46000 86.174
39.48000 87.733
39.50000 89.295
39.52000 96.273
39.54000 98.952
39.56000 106.207
39.58000 110.411
39.60000 117.804
39.62000 121.367
39.64000 121.636
39.66000 125.994
39.68000 135.956
39.70000 146.594
39.72000 154.305
39.74000 162.274
39.76000 157.219
39.78000 165.531
39.80000 182.317
39.82000 189.621
39.84000 196.503
39.86000 200.716
39.88000 213.173
39.90000 228.494
39.92000 242.286
39.94000 248.978
39.96000 259.887
39.98000 265.592
40.00000 275.108
40.02000 293.977
40.04000 307.407
40.06000 323.279
40.08000 337.465
40.10000 344.094
40.12000 354.714
40.14000 381.414
40.16000 393.206
40.18000 404.054
40.20000 417.129
40.22000 420.126
40.24000 430.439
40.26000 451.064
40.28000 469.470
40.30000 474.275
40.32000 481.118
40.34000 493.487
40.36000 503.410
40.38000 506.179
40.40000 518.304
40.42000 522.547
40.44000 518.189
40.46000 522.397
40.48000 531.764
40.50000 536.399
40.52000 530.967
40.54000 526.438
40.56000 514.866
40.58000 502.015
40.60000 508.559
40.62000 506.785
40.64000 496.950
40.66000 491.436
40.68000 475.135
40.70000 471.148
40.72000 450.412
40.74000 441.334
40.76000 431.519
40.78000 419.901
40.80000 402.386
40.82000 383.915
40.84000 373.753
40.86000 360.751
40.88000 352.547
40.90000 335.939
40.92000 319.372
40.94000 307.261
40.96000 291.764
40.98000 282.201
41.00000 265.685
41.02000 254.592
41.04000 242.511
41.06000 233.940
41.08000 223.750
41.10000 211.118
41.12000 199.593
41.14000 184.983
41.16000 178.380
41.18000 170.852
41.20000 162.870
41.22000 151.646
41.24000 142.509
41.26000 132.199
41.28000 134.476
41.30000 126.247
41.32000 119.357
41.34000 109.401
41.36000 104.968
41.38000 100.924
41.40000 94.078
41.42000 90.701
41.44000 87.403
41.46000 81.618
41.48000 78.803
41.50000 74.138
41.52000 66.238
41.54000 64.110
41.56000 61.180
41.58000 57.746
41.60000 56.737
41.62000 52.159
41.64000 51.062
41.66000 47.610
41.68000 44.122
41.70000 44.089
41.72000 47.839
41.74000 42.436
41.76000 40.630
41.78000 39.373
41.80000 37.424
41.82000 33.059
41.84000 27.971
41.86000 28.781
41.88000 33.253
41.90000 32.128
41.92000 26.696
41.94000 25.002
41.96000 25.486
41.98000 20.547
42.00000 21.721
42.02000 21.881
42.04000 16.451
42.06000 15.606
42.08000 19.429
42.10000 19.895
42.12000 19.035
42.14000 19.060
42.16000 16.337
42.18000 12.808
42.20000 10.027
42.22000 12.860
42.24000 11.006
42.26000 13.400
42.28000 15.508
42.30000 13.594
42.32000 13.134
42.34000 9.037
42.36000 10.322
42.38000 10.718
42.40000 13.179
42.42000 9.455
42.44000 7.036
42.46000 4.801
42.48000 7.216
42.50000 8.761
42.52000 8.785
42.54000 8.876
42.56000 6.668
42.58000 6.841
42.60000 10.173
42.62000 10.257
42.64000 7.186
42.66000 7.587
42.68000 7.124
42.70000 3.311
42.72000 6.005
42.74000 4.078
42.76000 1.056
42.78000 -0.550
42.80000 -3.545
42.82000 2.173
42.84000 5.321
42.86000 3.763
42.88000 0.163
42.90000 0.134
42.92000 -1.213
42.94000 -0.408
42.96000 0.983
42.98000 -2.270
43.00000 1.941
43.02000 6.840
43.04000 2.650
43.06000 -0.532
43.08000 1.092
43.10000 2.135
43.12000 6.301
43.14000 3.406
43.16000 2.700
43.18000 3.353
43.20000 2.471
43.22000 2.780
43.24000 4.455
43.26000 6.880
43.28000 4.209
43.30000 2.867
43.32000 2.859
43.34000 6.635
43.36000 5.334
43.38000 5.963
43.40000 1.809
43.42000 -0.876
43.44000 1.528
43.46000 -0.073
43.48000 0.754
43.50000 -1.415
43.52000 -3.454
43.54000 0.559
43.56000 3.744
43.58000 5.913
43.60000 3.447
43.62000 3.176
43.64000 3.747
43.66000 4.229
43.68000 7.038
43.70000 3.776
43.72000 -3.432
43.74000 0.154
43.76000 5.950
43.78000 3.218
43.80000 5.034
43.82000 4.164
43.84000 1.489
43.86000 -2.191
43.88000 -2.179
43.90000 -0.176
43.92000 4.700
43.94000 2.922
43.96000 0.556
43.98000 1.050
44.00000 1.494
44.02000 1.050
44.04000 4.387
44.06000 5.798
44.08000 -0.192
44.10000 -0.976
44.12000 2.064
44.14000 4.505
44.16000 2.695
44.18000 -0.798
44.20000 3.968
44.22000 1.791
44.24000 1.317
44.26000 1.320
44.28000 0.826
44.30000 -0.645
44.32000 -3.440
44.34000 -0.010
44.36000 1.790
44.38000 4.451
44.40000 6.253
44.42000 4.635
44.44000 -0.516
44.46000 3.711
44.48000 1.812
44.50000 5.071
44.52000 3.131
44.54000 1.850
44.56000 1.678
44.58000 2.481
44.60000 -2.068
44.62000 0.065
44.64000 3.539
44.66000 1.384
44.68000 -3.438
44.70000 -0.347
44.72000 2.849
44.74000 0.818
44.76000 -0.280
44.78000 -1.446
44.80000 1.675
44.82000 -0.804
44.84000 -0.667
44.86000 1.059
44.88000 1.900
44.90000 1.038
44.92000 5.132
44.94000 6.912
44.96000 6.675
44.98000 5.127
45.00000 3.344
45.02000 6.687
45.04000 7.601
45.06000 3.664
45.08000 3.698
45.10000 6.127
45.12000 4.542
45.14000 10.026
45.16000 2.126
45.18000 6.513
45.20000 8.936
45.22000 5.360
45.24000 2.043
45.26000 6.202
45.28000 9.327
45.30000 10.669
45.32000 6.544
45.34000 6.965
45.36000 8.612
45.38000 14.409
45.40000 7.926
45.42000 2.349
45.44000 2.088
45.46000 6.034
45.48000 7.015
45.50000 13.092
45.52000 9.291
45.54000 8.469
45.56000 9.618
45.58000 15.920
45.60000 13.420
45.62000 18.281
45.64000 14.702
45.66000 13.516
45.68000 12.662
45.70000 13.770
45.72000 20.528
45.74000 22.586
45.76000 22.994
45.78000 18.879
45.80000 16.901
45.82000 20.142
45.84000 19.157
45.86000 19.578
45.88000 20.081
45.90000 15.569
45.92000 19.165
45.94000 22.669
45.96000 27.199
45.98000 30.062
46.00000 33.412
46.02000 28.775
46.04000 26.494
46.06000 26.262
46.08000 28.087
46.10000 27.749
46.12000 34.732
46.14000 33.283
46.16000 29.205
46.18000 35.286
46.20000 34.321
46.22000 33.939
46.24000 35.633
46.26000 42.314
46.28000 36.898
46.30000 38.072
46.32000 41.564
46.34000 43.254
46.36000 46.614
46.38000 51.798
46.40000 52.319
46.42000 50.328
46.44000 55.519
46.46000 53.320
46.48000 59.533
46.50000 61.088
46.52000 57.027
46.54000 59.494
46.56000 58.429
46.58000 59.537
46.60000 67.178
46.62000 67.233
46.64000 65.493
46.66000 63.212
46.68000 65.165
46.70000 69.701
46.72000 64.151
46.74000 62.384
46.76000 66.317
46.78000 70.277
46.80000 71.334
46.82000 70.461
46.84000 71.320
46.86000 75.417
46.88000 76.101
46.90000 80.142
46.92000 76.706
46.94000 77.058
46.96000 76.122
46.98000 76.439
47.00000 78.867
47.02000 76.369
47.04000 79.906
47.06000 81.727
47.08000 84.696
47.10000 82.038
47.12000 79.612
47.14000 80.216
47.16000 75.974
47.18000 79.447
47.20000 79.582
47.22000 80.824
47.24000 80.377
47.26000 83.325
47.28000 79.764
47.30000 77.238
47.32000 71.577
47.34000 69.689
47.36000 71.689
47.38000 66.133
47.40000 71.129
47.42000 63.040
47.44000 60.231
47.46000 54.773
47.48000 62.900
47.50000 60.251
47.52000 59.162
47.54000 57.213
47.56000 55.020
47.58000 56.038
47.60000 54.601
47.62000 52.514
47.64000 53.191
47.66000 48.417
47.68000 45.901
47.70000 44.840
47.72000 42.073
47.74000 40.543
47.76000 47.425
47.78000 45.884
47.80000 40.516
47.82000 40.735
47.84000 34.426
47.86000 33.057
47.88000 35.964
47.90000 31.774
47.92000 29.376
47.94000 27.952
47.96000 26.466
47.98000 26.527
48.00000 28.271
48.02000 23.399
48.04000 21.957
48.06000 21.809
48.08000 21.796
48.10000 25.261
48.12000 23.866
48.14000 24.024
48.16000 20.150
48.18000 19.495
48.20000 22.288
48.22000 16.859
48.24000 22.335
48.26000 16.232
48.28000 12.707
48.30000 12.237
48.32000 14.846
48.34000 8.936
48.36000 6.387
48.38000 16.852
48.40000 15.034
48.42000 17.116
48.44000 12.503
48.46000 14.458
48.48000 15.299
48.50000 15.516
48.52000 13.566
48.54000 13.603
48.56000 6.505
48.58000 4.820
48.60000 5.988
48.62000 11.323
48.64000 8.561
48.66000 3.690
48.68000 1.053
48.70000 7.760
48.72000 10.313
48.74000 9.735
48.76000 7.317
48.78000 13.024
48.80000 6.943
48.82000 2.214
48.84000 7.750
48.86000 8.743
48.88000 8.801
48.90000 10.199
48.92000 -1.179
48.94000 -0.878
48.96000 1.324
48.98000 -1.586
49.00000 -0.207
49.02000 1.818
49.04000 1.778
49.06000 2.415
49.08000 1.184
49.10000 4.718
49.12000 5.529
49.14000 4.600
49.16000 4.591
49.18000 1.935
49.20000 3.046
49.22000 5.813
49.24000 3.970
49.26000 2.774
49.28000 2.128
49.30000 4.809
49.32000 2.874
49.34000 4.194
49.36000 0.414
49.38000 -1.228
49.40000 3.770
49.42000 2.522
49.44000 -3.030
49.46000 1.421
49.48000 2.602
49.50000 2.429
49.52000 3.467
49.54000 6.254
49.56000 10.841
49.58000 11.050
49.60000 3.831
49.62000 6.249
49.64000 4.836
49.66000 4.924
49.68000 7.233
49.70000 7.100
49.72000 2.509
49.74000 -2.966
49.76000 -0.572
49.78000 4.945
49.80000 5.629
49.82000 1.032
49.84000 -0.289
49.86000 -2.998
49.88000 -0.815
49.90000 6.657
49.92000 5.277
49.94000 2.760
49.96000 3.451
49.98000 6.216
50.00000 3.958
50.02000 6.761
50.04000 7.189
50.06000 5.349
50.08000 -1.916
50.10000 -2.976
50.12000 -0.059
50.14000 1.915
50.16000 3.112
50.18000 1.024
50.20000 -0.672
50.22000 3.886
50.24000 4.482
50.26000 1.254
50.28000 -1.867
50.30000 -1.134
50.32000 -2.373
50.34000 4.138
50.36000 7.476
50.38000 3.309
50.40000 2.311
50.42000 3.647
50.44000 1.441
50.46000 0.055
50.48000 -0.691
50.50000 -0.042
50.52000 2.517
50.54000 0.915
50.56000 -1.663
50.58000 -0.097
50.60000 2.552
50.62000 -0.153
50.64000 2.824
50.66000 0.394
50.68000 3.630
50.70000 8.843
50.72000 5.022
50.74000 5.496
50.76000 0.545
50.78000 2.066
50.80000 0.084
50.82000 4.687
50.84000 0.642
50.86000 -0.464
50.88000 0.668
50.90000 4.215
50.92000 3.298
50.94000 8.278
50.96000 7.204
50.98000 3.834
51.00000 1.145
51.02000 5.433
51.04000 4.285
51.06000 2.890
51.08000 5.942
51.10000 4.801
51.12000 2.374
51.14000 0.477
51.16000 4.002
51.18000 7.056
51.20000 7.531
51.22000 2.061
51.24000 -2.580
51.26000 -0.903
51.28000 7.966
51.30000 8.423
51.32000 6.397
51.34000 1.960
51.36000 5.914
51.38000 4.923
51.40000 2.842
51.42000 0.977
51.44000 3.806
51.46000 0.863
51.48000 1.334
51.50000 -0.251
51.52000 2.352
51.54000 0.794
51.56000 -1.005
51.58000 1.566
51.60000 4.283
51.62000 3.690
51.64000 5.642
51.66000 3.214
51.68000 3.073
51.70000 7.969
51.72000 5.476
51.74000 3.516
51.76000 4.777
51.78000 -1.057
51.80000 -2.849
51.82000 2.669
51.84000 6.795
51.86000 13.714
51.88000 6.726
51.90000 3.335
51.92000 3.207
51.94000 4.198
51.96000 0.642
51.98000 1.502
52.00000 5.046
52.02000 6.075
52.04000 3.854
52.06000 3.176
52.08000 5.765
52.10000 4.808
52.12000 6.002
52.14000 0.792
52.16000 3.511
52.18000 2.245
52.20000 2.584
52.22000 9.394
52.24000 6.574
52.26000 3.695
52.28000 4.209
52.30000 4.007
52.32000 5.616
52.34000 9.263
52.36000 9.799
52.38000 7.729
52.40000 8.941
52.42000 7.619
52.44000 0.745
52.46000 -2.839
52.48000 0.776
52.50000 5.508
52.52000 6.165
52.54000 8.865
52.56000 4.509
52.58000 4.645
52.60000 3.868
52.62000 6.151
52.64000 2.342
52.66000 5.830
52.68000 3.176
52.70000 1.460
52.72000 7.172
52.74000 4.439
52.76000 2.759
52.78000 1.750
52.80000 -1.918
52.82000 -1.457
52.84000 0.420
52.86000 1.799
52.88000 6.287
52.90000 5.418
52.92000 1.286
52.94000 2.425
52.96000 3.553
52.98000 4.277
53.00000 1.426
53.02000 5.673
53.04000 4.395
53.06000 3.618
53.08000 7.517
53.10000 8.295
53.12000 3.420
53.14000 4.979
53.16000 5.209
53.18000 3.620
53.20000 -0.403
53.22000 -1.595
53.24000 2.589
53.26000 2.122
53.28000 2.446
53.30000 0.864
53.32000 1.020
53.34000 3.582
53.36000 2.115
53.38000 2.374
53.40000 3.563
53.42000 3.703
53.44000 3.958
53.46000 5.937
53.48000 4.963
53.50000 7.289
53.52000 6.747
53.54000 -0.321
53.56000 -2.821
53.58000 0.354
53.60000 2.225
53.62000 0.277
53.64000 3.583
53.66000 4.948
53.68000 1.215
53.70000 2.730
53.72000 4.216
53.74000 2.070
53.76000 3.906
53.78000 3.337
53.80000 -0.458
53.82000 1.570
53.84000 5.826
53.86000 5.435
53.88000 2.938
53.90000 5.398
53.92000 9.387
53.94000 3.622
53.96000 -2.800
53.98000 2.186
54.00000 1.690
54.02000 3.393
54.04000 -0.050
54.06000 -1.042
54.08000 -0.761
54.10000 0.040
54.12000 1.844
54.14000 5.564
54.16000 6.646
54.18000 8.251
54.20000 4.190
54.22000 4.796
54.24000 9.109
54.26000 4.613
54.28000 1.335
54.30000 10.344
54.32000 9.276
54.34000 5.553
54.36000 2.509
54.38000 7.838
54.40000 1.906
54.42000 1.565
54.44000 4.989
54.46000 7.648
54.48000 8.825
54.50000 6.897
54.52000 3.829
54.54000 3.794
54.56000 5.095
54.58000 2.338
54.60000 1.969
54.62000 4.543
54.64000 4.972
54.66000 1.782
54.68000 4.470
54.70000 6.359
54.72000 2.204
54.74000 -0.422
54.76000 2.345
54.78000 3.973
54.80000 4.064
54.82000 1.205
54.84000 0.069
54.86000 -2.774
54.88000 0.174
54.90000 10.628
54.92000 7.981
54.94000 0.380
54.96000 2.904
54.98000 4.016
55.00000 6.481
55.02000 3.692
55.04000 6.952
55.06000 6.654
55.08000 4.432
55.10000 3.319
55.12000 0.963
55.14000 4.048
55.16000 2.053
55.18000 2.798
55.20000 5.180
55.22000 3.465
55.24000 1.514
55.26000 3.357
55.28000 2.911
55.30000 7.726
55.32000 3.836
55.34000 2.334
55.36000 0.762
55.38000 5.033
55.40000 3.938
55.42000 0.945
55.44000 1.844
55.46000 7.482
55.48000 9.054
55.50000 6.152
55.52000 2.589
55.54000 4.668
55.56000 7.275
55.58000 2.594
55.60000 -1.296
55.62000 3.839
55.64000 6.790
55.66000 5.089
55.68000 2.372
55.70000 8.597
55.72000 9.175
55.74000 5.968
55.76000 8.257
55.78000 7.087
55.80000 7.471
55.82000 9.351
55.84000 7.524
55.86000 4.960
55.88000 5.843
55.90000 3.745
55.92000 2.291
55.94000 1.930
55.96000 -1.170
55.98000 -2.739
56.00000 1.117
56.02000 8.112
56.04000 9.361
56.06000 7.274
56.08000 -0.021
56.10000 -0.424
56.12000 3.227
56.14000 6.256
56.16000 6.450
56.18000 2.985
56.20000 4.810
56.22000 5.684
56.24000 7.548
56.26000 7.327
56.28000 4.562
56.30000 2.828
56.32000 2.487
56.34000 2.820
56.36000 3.287
56.38000 3.801
56.40000 2.122
56.42000 -1.073
56.44000 4.751
56.46000 4.817
56.48000 3.470
56.50000 5.903
56.52000 5.003
56.54000 2.099
56.56000 3.202
56.58000 4.667
56.60000 -0.878
56.62000 -1.567
56.64000 2.648
56.66000 4.396
56.68000 2.954
56.70000 3.854
56.72000 7.504
56.74000 2.374
56.76000 4.016
56.78000 5.439
56.80000 2.349
56.82000 2.001
56.84000 4.359
56.86000 3.471
56.88000 3.721
56.90000 6.085
56.92000 7.142
56.94000 8.215
56.96000 4.336
56.98000 -2.710
57.00000 -1.879
57.02000 7.847
57.04000 7.595
57.06000 4.287
57.08000 7.468
57.10000 7.679
57.12000 4.437
57.14000 5.263
57.16000 7.011
57.18000 6.932
57.20000 6.541
57.22000 2.124
57.24000 3.253
57.26000 2.006
57.28000 3.218
57.30000 2.846
57.32000 7.252
57.34000 3.976
57.36000 -1.599
57.38000 -2.690
57.40000 2.889
57.42000 5.104
57.44000 8.139
57.46000 4.885
57.48000 4.133
57.50000 4.181
57.52000 8.222
57.54000 4.183
57.56000 9.114
57.58000 9.394
57.60000 9.412
57.62000 8.794
57.64000 7.623
57.66000 2.188
57.68000 2.831
57.70000 5.281
57.72000 4.560
57.74000 4.389
57.76000 3.893
57.78000 2.201
57.80000 4.748
57.82000 1.540
57.84000 -0.292
57.86000 -2.689
57.88000 -2.270
57.90000 3.316
57.92000 3.837
57.94000 2.603
57.96000 4.904
57.98000 3.486
58.00000 2.896
58.02000 2.667
58.04000 3.426
58.06000 6.464
58.08000 -1.763
58.10000 0.379
58.12000 1.804
58.14000 2.563
58.16000 6.459
58.18000 3.612
58.20000 5.068
58.22000 7.606
58.24000 3.026
58.26000 -2.080
58.28000 -0.367
58.30000 3.132
58.32000 4.317
58.34000 2.829
58.36000 0.091
58.38000 -0.128
58.40000 -0.332
58.42000 4.422
58.44000 4.563
58.46000 2.088
58.48000 -0.009
58.50000 -0.561
58.52000 2.369
58.54000 3.778
58.56000 1.091
58.58000 2.845
58.60000 3.674
58.62000 1.029
58.64000 0.018
58.66000 2.205
58.68000 1.666
58.70000 5.913
58.72000 4.652
58.74000 0.521
58.76000 5.374
58.78000 6.323
58.80000 1.850
58.82000 0.393
58.84000 0.332
58.86000 -0.699
58.88000 3.650
58.90000 5.088
58.92000 4.881
58.94000 1.494
58.96000 7.081
58.98000 3.127
59.00000 2.492
59.02000 4.791
59.04000 0.039
59.06000 -2.058
59.08000 4.606
59.10000 5.072
59.12000 2.610
59.14000 4.196
59.16000 2.860
59.18000 -0.179
59.20000 0.401
59.22000 2.677
59.24000 6.915
59.26000 7.871
59.28000 5.029
59.30000 0.256
59.32000 0.630
59.34000 0.076
59.36000 -1.419
59.38000 -2.652
59.40000 4.144
59.42000 8.364
59.44000 8.478
59.46000 2.721
59.48000 2.890
59.50000 5.027
59.52000 3.645
59.54000 1.456
59.56000 2.095
59.58000 -1.112
59.60000 2.138
59.62000 2.782
59.64000 2.872
59.66000 4.848
59.68000 3.678
59.70000 6.830
59.72000 4.860
59.74000 7.325
59.76000 4.921
59.78000 5.573
59.80000 3.172
59.82000 4.391
59.84000 5.953
59.86000 5.135
59.88000 4.675
59.90000 2.431
59.92000 1.963
59.94000 3.794
59.96000 7.994
59.98000 7.537
60.00000 1.349
60.02000 2.486
60.04000 5.697
60.06000 6.993
60.08000 2.474
60.10000 0.093
60.12000 -2.601
60.14000 0.017
60.16000 4.450
60.18000 2.100
60.20000 2.366
60.22000 5.351
60.24000 3.164
60.26000 -1.221
60.28000 1.289
60.30000 3.423
60.32000 3.877
60.34000 6.086
60.36000 1.642
60.38000 5.305
60.40000 4.758
60.42000 8.629
60.44000 10.519
60.46000 5.066
60.48000 5.009
60.50000 7.562
60.52000 5.055
60.54000 4.844
60.56000 0.713
60.58000 0.176
60.60000 -1.801
60.62000 -2.323
60.64000 -2.603
60.66000 -0.188
60.68000 4.521
60.70000 3.082
60.72000 2.549
60.74000 0.659
60.76000 0.888
60.78000 1.516
60.80000 1.845
60.82000 2.204
60.84000 1.933
60.86000 1.382
60.88000 -1.502
60.90000 1.487
60.92000 4.304
60.94000 2.142
60.96000 3.333
60.98000 4.339
61.00000 -0.599
61.02000 2.226
61.04000 3.837
61.06000 5.924
61.08000 3.570
61.10000 4.156
61.12000 -0.116
61.14000 1.309
61.16000 3.032
61.18000 1.239
61.20000 0.870
61.22000 -0.338
61.24000 2.892
61.26000 2.419
61.28000 2.802
61.30000 1.829
61.32000 1.566
61.34000 4.495
61.36000 6.418
61.38000 2.858
61.40000 1.376
61.42000 0.421
61.44000 2.327
61.46000 0.459
61.48000 1.452
61.50000 -0.399
61.52000 1.100
61.54000 0.476
61.56000 0.497
61.58000 7.012
61.60000 4.952
61.62000 3.979
61.64000 -1.187
61.66000 2.542
61.68000 7.585
61.70000 3.470
61.72000 0.735
61.74000 3.009
61.76000 6.436
61.78000 6.719
61.80000 -0.022
61.82000 -2.551
61.84000 3.030
61.86000 3.183
61.88000 4.984
61.90000 3.638
61.92000 4.101
61.94000 -0.474
61.96000 1.270
61.98000 1.349
62.00000 4.598
62.02000 5.835
62.04000 4.424
62.06000 1.031
62.08000 2.757
62.10000 -1.203
62.12000 1.448
62.14000 6.228
62.16000 4.004
62.18000 6.256
62.20000 3.455
62.22000 1.667
62.24000 0.184
62.26000 -0.009
62.28000 4.897
62.30000 4.641
62.32000 5.953
62.34000 4.435
62.36000 3.976
62.38000 1.971
62.40000 1.017
62.42000 -1.578
62.44000 1.511
62.46000 -0.174
62.48000 0.642
62.50000 -1.416
62.52000 0.834
62.54000 2.237
62.56000 2.678
62.58000 -1.412
62.60000 2.211
62.62000 6.873
62.64000 5.931
62.66000 3.531
62.68000 1.894
62.70000 -0.835
62.72000 0.373
62.74000 2.792
62.76000 2.505
62.78000 3.588
62.80000 3.387
62.82000 1.053
62.84000 -1.710
62.86000 -2.341
62.88000 -0.025
62.90000 1.842
62.92000 5.318
62.94000 3.144
62.96000 -0.169
62.98000 1.055
63.00000 2.895
63.02000 4.207
63.04000 2.534
63.06000 6.605
63.08000 7.757
63.10000 2.645
63.12000 1.211
63.14000 4.366
63.16000 2.019
63.18000 1.881
63.20000 4.190
63.22000 4.773
63.24000 6.468
63.26000 3.668
63.28000 6.516
63.30000 3.743
63.32000 4.436
63.34000 2.870
63.36000 5.184
63.38000 1.177
63.40000 6.618
63.42000 9.273
63.44000 4.040
63.46000 6.077
63.48000 5.736
63.50000 2.121
63.52000 1.971
63.54000 5.123
63.56000 6.094
63.58000 1.523
63.60000 3.634
63.62000 2.953
63.64000 1.998
63.66000 4.245
63.68000 6.466
63.70000 5.923
63.72000 5.601
63.74000 2.820
63.76000 2.809
63.78000 5.964
63.80000 5.554
63.82000 5.713
63.84000 4.448
63.86000 1.878
63.88000 1.617
63.90000 -2.516
63.92000 0.600
63.94000 3.487
63.96000 6.735
63.98000 5.892
64.00000 3.892
64.02000 2.234
64.04000 3.364
64.06000 3.928
64.08000 5.411
64.10000 6.725
64.12000 7.198
64.14000 6.292
64.16000 4.015
64.18000 3.353
64.20000 2.935
64.22000 1.582
64.24000 3.187
64.26000 7.182
64.28000 4.024
64.30000 2.846
64.32000 4.955
64.34000 2.034
64.36000 2.508
64.38000 7.861
64.40000 6.851
64.42000 4.773
64.44000 3.714
64.46000 1.443
64.48000 1.455
64.50000 0.208
64.52000 -0.201
64.54000 5.546
64.56000 2.274
64.58000 5.902
64.60000 2.548
64.62000 -0.676
64.64000 -2.170
64.66000 0.003
64.68000 -1.328
64.70000 0.707
64.72000 2.325
64.74000 2.912
64.76000 4.376
64.78000 5.538
64.80000 3.642
64.82000 -0.503
64.84000 1.084
64.86000 -0.437
64.88000 2.834
64.90000 5.392
64.92000 6.097
64.94000 2.638
64.96000 -0.876
64.98000 1.063
65.00000 0.544
65.02000 -2.082
65.04000 -2.461
65.06000 -2.568
65.08000 -1.180
65.10000 -1.336
65.12000 -0.632
65.14000 -0.441
65.16000 -1.125
65.18000 -1.772
65.20000 0.654
65.22000 0.233
65.24000 -0.479
65.26000 -0.006
65.28000 0.083
65.30000 2.468
65.32000 2.529
65.34000 1.966
65.36000 -2.592
65.38000 -1.465
65.40000 1.578
65.42000 1.969
65.44000 4.084
65.46000 2.135
65.48000 -0.146
65.50000 -1.909
65.52000 -0.029
65.54000 3.534
65.56000 7.645
65.58000 2.625
65.60000 2.175
65.62000 1.298
65.64000 0.551
65.66000 0.774
65.68000 -0.998
65.70000 -0.210
65.72000 0.352
65.74000 4.068
65.76000 4.677
65.78000 1.066
65.80000 -0.651
65.82000 1.223
65.84000 3.857
65.86000 3.422
65.88000 0.594
65.90000 2.462
65.92000 1.102
65.94000 -0.574
65.96000 1.373
65.98000 -0.047
66.00000 1.202
66.02000 4.189
66.04000 0.937
66.06000 4.470
66.08000 5.134
66.10000 2.490
66.12000 -0.126
66.14000 0.382
66.16000 1.561
66.18000 3.533
66.20000 4.435
66.22000 0.894
66.24000 0.487
66.26000 0.792
66.28000 1.674
66.30000 2.576
66.32000 0.149
66.34000 3.101
66.36000 1.036
66.38000 -2.592
66.40000 -0.975
66.42000 1.342
66.44000 3.429
66.46000 7.169
66.48000 4.983
66.50000 -0.857
66.52000 -1.591
66.54000 1.238
66.56000 1.349
66.58000 0.654
66.60000 2.607
66.62000 2.333
66.64000 -0.067
66.66000 1.470
66.68000 2.941
66.70000 2.536
66.72000 3.623
66.74000 7.703
66.76000 8.751
66.78000 7.803
66.80000 4.018
66.82000 1.280
66.84000 -0.694
66.86000 -0.008
66.88000 1.613
66.90000 3.268
66.92000 2.741
66.94000 0.485
66.96000 -1.822
66.98000 1.465
67.00000 5.569
67.02000 0.751
67.04000 -1.071
67.06000 -0.801
67.08000 0.586
67.10000 -1.164
67.12000 2.365
67.14000 2.650
67.16000 2.730
67.18000 4.669
67.20000 4.501
67.22000 4.400
67.24000 2.484
67.26000 4.348
67.28000 5.648
67.30000 5.486
67.32000 4.663
67.34000 2.553
67.36000 -1.184
67.38000 2.161
67.40000 0.114
67.42000 4.526
67.44000 8.546
67.46000 5.834
67.48000 5.076
67.50000 5.062
67.52000 3.856
67.54000 3.369
67.56000 5.928
67.58000 3.888
67.60000 2.812
67.62000 3.301
67.64000 4.066
67.66000 4.694
67.68000 4.893
67.70000 5.984
67.72000 6.047
67.74000 10.813
67.76000 8.160
67.78000 7.064
67.80000 8.477
67.82000 4.949
67.84000 11.310
67.86000 12.737
67.88000 12.112
67.90000 13.481
67.92000 10.422
67.94000 12.548
67.96000 14.944
67.98000 10.671
68.00000 9.036
68.02000 11.960
68.04000 15.180
68.06000 12.185
68.08000 10.401
68.10000 12.385
68.12000 13.613
68.14000 12.958
68.16000 14.037
68.18000 13.951
68.20000 14.761
68.22000 14.670
68.24000 15.043
68.26000 16.554
68.28000 20.404
68.30000 19.995
68.32000 22.124
68.34000 23.216
68.36000 17.552
68.38000 19.657
68.40000 20.734
68.42000 22.088
68.44000 22.737
68.46000 21.082
68.48000 17.972
68.50000 18.646
68.52000 17.615
68.54000 22.975
68.56000 23.969
68.58000 20.997
68.60000 20.001
68.62000 19.284
68.64000 19.773
68.66000 24.589
68.68000 22.424
68.70000 26.446
68.72000 25.543
68.74000 26.153
68.76000 25.525
68.78000 24.167
68.80000 23.877
68.82000 28.620
68.84000 29.193
68.86000 26.358
68.88000 24.454
68.90000 21.278
68.92000 21.250
68.94000 22.005
68.96000 20.379
68.98000 23.766
69.00000 20.177
69.02000 19.109
69.04000 22.469
69.06000 26.080
69.08000 23.249
69.10000 19.074
69.12000 18.845
69.14000 23.224
69.16000 22.627
69.18000 17.417
69.20000 19.966
69.22000 16.602
69.24000 16.303
69.26000 16.895
69.28000 17.026
69.30000 15.782
69.32000 13.321
69.34000 13.919
69.36000 13.015
69.38000 15.348
69.40000 13.603
69.42000 12.365
69.44000 9.725
69.46000 7.426
69.48000 5.238
69.50000 7.578
69.52000 9.507
69.54000 9.936
69.56000 5.830
69.58000 9.625
69.60000 12.594
69.62000 9.666
69.64000 10.292
69.66000 9.346
69.68000 6.909
69.70000 6.027
69.72000 7.008
69.74000 4.750
69.76000 1.498
69.78000 9.543
69.80000 9.531
69.82000 1.233
69.84000 3.711
69.86000 6.248
69.88000 1.265
69.90000 1.330
69.92000 3.752
69.94000 7.410
69.96000 2.035
69.98000 2.471
70.00000 5.065
70.02000 3.083
70.04000 6.849
70.06000 7.678
70.08000 7.928
70.10000 1.089
70.12000 0.131
70.14000 1.709
70.16000 3.189
70.18000 1.260
70.20000 -1.285
70.22000 3.800
70.24000 1.921
70.26000 -0.623
70.28000 3.898
70.30000 5.441
70.32000 0.945
70.34000 0.838
70.36000 1.723
70.38000 0.675
70.40000 -0.966
70.42000 -1.602
70.44000 1.506
70.46000 0.551
70.48000 3.400
70.50000 2.176
70.52000 -2.545
70.54000 -0.821
70.56000 2.727
70.58000 3.220
70.60000 4.430
70.62000 1.126
70.64000 2.064
70.66000 2.705
70.68000 5.912
70.70000 6.861
70.72000 3.148
70.74000 3.335
70.76000 1.625
70.78000 0.908
70.80000 2.985
70.82000 -2.507
70.84000 -1.646
70.86000 3.029
70.88000 1.477
70.90000 -1.371
70.92000 4.558
70.94000 4.810
70.96000 2.983
70.98000 3.853
71.00000 2.555
71.02000 0.770
71.04000 3.233
71.06000 5.143
71.08000 -1.959
71.10000 -0.706
71.12000 4.367
71.14000 0.301
71.16000 -2.319
71.18000 4.151
71.20000 5.934
71.22000 3.722
71.24000 2.816
71.26000 4.036
71.28000 1.922
71.30000 -1.542
71.32000 -1.012
71.34000 4.853
71.36000 6.416
71.38000 3.687
71.40000 2.096
71.42000 7.403
71.44000 3.549
71.46000 4.195
71.48000 4.184
71.50000 3.030
71.52000 3.551
71.54000 0.851
71.56000 4.686
71.58000 6.931
71.60000 4.845
71.62000 4.107
71.64000 2.239
71.66000 3.261
71.68000 1.306
71.70000 6.561
71.72000 7.917
71.74000 6.106
71.76000 4.068
71.78000 4.477
71.80000 4.542
71.82000 4.469
71.84000 5.768
71.86000 4.001
71.88000 1.155
71.90000 -2.401
71.92000 3.090
71.94000 1.097
71.96000 7.306
71.98000 8.915
72.00000 7.163
72.02000 5.937
72.04000 3.312
72.06000 4.838
72.08000 6.748
72.10000 4.889
72.12000 3.004
72.14000 3.045
72.16000 5.609
72.18000 8.566
72.20000 9.043
72.22000 5.112
72.24000 2.958
72.26000 3.277
72.28000 1.184
72.30000 1.354
72.32000 1.516
72.34000 3.250
72.36000 2.115
72.38000 3.627
72.40000 6.088
72.42000 8.251
72.44000 8.795
72.46000 6.588
72.48000 3.713
72.50000 8.342
72.52000 7.619
72.54000 0.248
72.56000 -1.673
72.58000 -1.398
72.60000 2.857
72.62000 1.581
72.64000 1.223
72.66000 1.685
72.68000 -0.228
72.70000 3.883
72.72000 4.330
72.74000 4.686
72.76000 3.057
72.78000 2.906
72.80000 2.758
72.82000 5.228
72.84000 3.576
72.86000 0.904
72.88000 3.662
72.90000 8.359
72.92000 8.905
72.94000 5.193
72.96000 -0.530
72.98000 -2.104
73.00000 4.268
73.02000 4.861
73.04000 2.864
73.06000 3.616
73.08000 3.582
73.10000 -0.795
73.12000 2.488
73.14000 2.592
73.16000 4.680
73.18000 5.640
73.20000 8.021
73.22000 10.129
73.24000 -2.063
73.26000 1.592
73.28000 1.957
73.30000 3.473
73.32000 3.423
73.34000 6.053
73.36000 3.381
73.38000 0.800
73.40000 2.098
73.42000 5.754
73.44000 3.674
73.46000 5.837
73.48000 2.122
73.50000 2.694
73.52000 3.896
73.54000 1.228
73.56000 2.859
73.58000 1.206
73.60000 -2.362
73.62000 1.292
73.64000 2.635
73.66000 5.352
73.68000 6.461
73.70000 0.959
73.72000 3.176
73.74000 4.326
73.76000 7.418
73.78000 1.477
73.80000 -2.353
73.82000 0.553
73.84000 0.773
73.86000 3.978
73.88000 12.241
73.90000 6.560
73.92000 3.716
73.94000 4.275
73.96000 7.958
73.98000 4.316
74.00000 4.877
74.02000 5.042
74.04000 8.706
74.06000 4.426
74.08000 5.455
74.10000 3.856
74.12000 2.722
74.14000 1.041
74.16000 -0.277
74.18000 2.007
74.20000 1.657
74.22000 5.029
74.24000 3.680
74.26000 3.203
74.28000 6.053
74.30000 7.236
74.32000 9.331
74.34000 3.999
74.36000 3.285
74.38000 4.328
74.40000 4.894
74.42000 1.289
74.44000 -2.334
74.46000 1.225
74.48000 9.238
74.50000 1.981
74.52000 1.360
74.54000 -0.648
74.56000 0.963
74.58000 2.094
74.60000 2.184
74.62000 3.687
74.64000 4.755
74.66000 5.343
74.68000 3.754
74.70000 -2.360
74.72000 -0.016
74.74000 3.475
74.76000 5.366
74.78000 3.787
74.80000 1.908
74.82000 -0.635
74.84000 1.109
74.86000 5.704
74.88000 8.518
74.90000 11.043
74.92000 8.312
74.94000 4.510
74.96000 1.357
74.98000 1.912
75.00000 3.328
75.02000 3.765
75.04000 5.216
75.06000 5.865
75.08000 5.128
75.10000 6.545
75.12000 6.272
75.14000 3.035
75.16000 0.878
75.18000 3.746
75.20000 2.975
75.22000 1.071
75.24000 -2.367
75.26000 -1.061
75.28000 -0.090
75.30000 3.748
75.32000 5.079
75.34000 3.994
75.36000 5.127
75.38000 8.401
75.40000 5.680
75.42000 1.528
75.44000 4.404
75.46000 7.210
75.48000 3.130
75.50000 5.676
75.52000 9.079
75.54000 3.734
75.56000 2.371
75.58000 -1.719
75.60000 4.192
75.62000 1.849
75.64000 1.616
75.66000 1.634
75.68000 1.179
75.70000 1.483
75.72000 0.213
75.74000 3.232
75.76000 9.751
75.78000 6.827
75.80000 2.821
75.82000 -0.874
75.84000 0.412
75.86000 7.056
75.88000 6.637
75.90000 1.874
75.92000 4.162
75.94000 3.145
75.96000 1.482
75.98000 4.974
76.00000 6.753
76.02000 3.904
76.04000 0.094
76.06000 -0.938
76.08000 -0.302
76.10000 -0.942
76.12000 2.418
76.14000 4.053
76.16000 1.311
76.18000 6.826
76.20000 4.024
76.22000 3.300
76.24000 -0.071
76.26000 0.557
76.28000 2.152
76.30000 0.063
76.32000 1.817
76.34000 0.983
76.36000 6.672
76.38000 4.589
76.40000 3.094
76.42000 4.575
76.44000 4.762
76.46000 4.705
76.48000 5.918
76.50000 3.939
76.52000 0.247
76.54000 -2.217
76.56000 0.771
76.58000 2.789
76.60000 8.123
76.62000 6.618
76.64000 1.806
76.66000 -2.391
76.68000 2.206
76.70000 6.255
76.72000 4.659
76.74000 5.079
76.76000 1.770
76.78000 1.686
76.80000 3.057
76.82000 6.340
76.84000 4.746
76.86000 3.143
76.88000 2.308
76.90000 4.511
76.92000 3.415
76.94000 3.399
76.96000 -0.317
76.98000 1.829
77.00000 6.817
77.02000 6.006
77.04000 2.139
77.06000 -1.862
77.08000 2.496
77.10000 4.294
77.12000 2.334
77.14000 4.512
77.16000 6.981
77.18000 8.231
77.20000 3.776
77.22000 4.652
77.24000 2.658
77.26000 -2.350
77.28000 2.578
77.30000 6.324
77.32000 -0.048
77.34000 -0.405
77.36000 3.564
77.38000 5.832
77.40000 6.095
77.42000 4.180
77.44000 3.816
77.46000 3.327
77.48000 1.741
77.50000 0.905
77.52000 6.574
77.54000 3.641
77.56000 1.194
77.58000 0.942
77.60000 2.616
77.62000 0.529
77.64000 3.929
77.66000 1.270
77.68000 4.914
77.70000 5.066
77.72000 1.171
77.74000 0.869
77.76000 2.780
77.78000 3.352
77.80000 3.752
77.82000 5.591
77.84000 4.035
77.86000 9.458
77.88000 5.987
77.90000 6.227
77.92000 4.612
77.94000 -0.185
77.96000 -2.370
77.98000 3.458
78.00000 2.151
78.02000 4.143
78.04000 11.699
78.06000 6.029
78.08000 4.048
78.10000 2.856
78.12000 8.529
78.14000 5.456
78.16000 3.799
78.18000 4.080
78.20000 4.864
78.22000 8.657
78.24000 8.873
78.26000 2.558
78.28000 1.733
78.30000 2.305
78.32000 -2.400
78.34000 1.640
78.36000 4.447
78.38000 2.494
78.40000 1.567
78.42000 0.879
78.44000 -0.023
78.46000 2.628
78.48000 4.017
78.50000 5.715
78.52000 9.590
78.54000 8.900
78.56000 6.614
78.58000 5.748
78.60000 0.787
78.62000 0.508
78.64000 3.566
78.66000 3.843
78.68000 3.820
78.70000 1.582
78.72000 0.508
78.74000 3.218
78.76000 3.225
78.78000 4.569
78.80000 5.043
78.82000 1.147
78.84000 -2.079
78.86000 1.270
78.88000 3.719
78.90000 1.548
78.92000 2.981
78.94000 5.496
78.96000 -1.235
78.98000 2.249
79.00000 6.824
79.02000 -0.346
79.04000 -2.440
79.06000 0.608
79.08000 1.253
79.10000 8.938
79.12000 8.345
79.14000 3.292
79.16000 4.154
79.18000 2.345
79.20000 3.068
79.22000 4.526
79.24000 5.650
79.26000 -1.012
79.28000 0.673
79.30000 1.309
79.32000 4.175
79.34000 4.352
79.36000 4.358
79.38000 6.624
79.40000 2.747
79.42000 5.716
79.44000 4.825
79.46000 3.365
79.48000 2.795
79.50000 2.736
79.52000 4.099
79.54000 4.358
79.56000 -0.553
79.58000 0.874
79.60000 2.712
79.62000 5.562
79.64000 4.904
79.66000 5.589
79.68000 3.929
79.70000 7.157
79.72000 8.936
79.74000 0.971
79.76000 -2.449
79.78000 2.601
79.80000 1.906
79.82000 3.167
79.84000 4.343
79.86000 4.493
79.88000 5.875
79.90000 7.372
79.92000 2.284
79.94000 -2.182
79.96000 0.198
79.98000 6.759
80.00000 8.209
80.02000 1.126
80.04000 3.093
80.06000 3.302
80.08000 0.825
80.10000 1.545
80.12000 5.462
80.14000 2.448
80.16000 2.804
80.18000 3.428
80.20000 2.843
80.22000 4.014
80.24000 2.690
80.26000 6.594
80.28000 4.987
80.30000 4.611
80.32000 6.551
80.34000 6.169
80.36000 6.881
80.38000 5.402
80.40000 5.001
80.42000 1.177
80.44000 0.878
80.46000 1.969
80.48000 1.590
80.50000 2.262
80.52000 1.825
80.54000 0.816
80.56000 3.855
80.58000 3.900
80.60000 -2.246
80.62000 -2.088
80.64000 -2.544
80.66000 -1.858
80.68000 0.947
80.70000 -2.437
80.72000 -0.601
80.74000 -0.236
80.76000 1.363
80.78000 4.027
80.80000 4.924
80.82000 2.461
80.84000 4.153
80.86000 2.155
80.88000 -1.196
80.90000 -0.332
80.92000 1.786
80.94000 -1.234
80.96000 2.015
80.98000 2.351
81.00000 1.729
81.02000 1.670
81.04000 0.971
81.06000 -2.074
81.08000 -2.591
81.10000 -0.333
81.12000 -1.483
81.14000 -2.283
81.16000 6.308
81.18000 5.957
81.20000 0.898
81.22000 3.039
81.24000 -2.551
81.26000 4.948
81.28000 5.269
81.30000 -0.346
81.32000 -0.925
81.34000 -0.641
81.36000 0.854
81.38000 1.864
81.40000 5.918
81.42000 1.553
81.44000 2.570
81.46000 3.393
81.48000 7.832
81.50000 7.435
81.52000 3.975
81.54000 5.321
81.56000 3.712
81.58000 4.278
81.60000 4.762
81.62000 7.541
81.64000 5.823
81.66000 11.960
81.68000 6.115
81.70000 7.466
81.72000 8.856
81.74000 6.018
81.76000 8.839
81.78000 14.514
81.80000 7.245
81.82000 5.350
81.84000 7.806
81.86000 7.384
81.88000 7.683
81.90000 6.634
81.92000 8.209
81.94000 9.050
81.96000 10.658
81.98000 12.134
82.00000 10.356
82.02000 12.674
82.04000 10.295
82.06000 11.178
82.08000 12.842
82.10000 15.646
82.12000 8.316
82.14000 9.491
82.16000 13.399
82.18000 13.564
82.20000 16.501
82.22000 15.296
82.24000 14.812
82.26000 8.894
82.28000 8.996
82.30000 16.619
82.32000 17.842
82.34000 13.829
82.36000 14.828
82.38000 15.643
82.40000 17.496
82.42000 12.352
82.44000 15.781
82.46000 17.274
82.48000 12.073
82.50000 12.843
82.52000 9.218
82.54000 13.250
82.56000 18.299
82.58000 19.767
82.60000 22.622
82.62000 25.625
82.64000 20.477
82.66000 17.445
82.68000 18.133
82.70000 16.228
82.72000 15.452
82.74000 26.468
82.76000 22.448
82.78000 24.989
82.80000 19.036
82.82000 24.421
82.84000 26.471
82.86000 23.343
82.88000 20.295
82.90000 23.174
82.92000 23.697
82.94000 25.757
82.96000 29.439
82.98000 25.160
83.00000 25.471
83.02000 26.477
83.04000 23.177
83.06000 27.326
83.08000 27.179
83.10000 28.400
83.12000 21.412
83.14000 23.327
83.16000 25.717
83.18000 16.871
83.20000 19.298
83.22000 18.231
83.24000 24.389
83.26000 24.335
83.28000 17.798
83.30000 19.927
83.32000 20.376
83.34000 18.095
83.36000 23.986
83.38000 23.509
83.40000 20.856
83.42000 18.988
83.44000 19.827
83.46000 15.617
83.48000 22.841
83.50000 20.914
83.52000 20.526
83.54000 18.246
83.56000 17.379
83.58000 14.595
83.60000 11.656
83.62000 16.344
83.64000 18.540
83.66000 19.132
83.68000 17.379
83.70000 21.717
83.72000 17.437
83.74000 12.837
83.76000 11.316
83.78000 9.910
83.80000 10.681
83.82000 14.450
83.84000 13.182
83.86000 12.675
83.88000 11.860
83.90000 12.547
83.92000 10.476
83.94000 11.397
83.96000 10.822
83.98000 12.834
84.00000 10.533
84.02000 6.922
84.04000 9.701
84.06000 9.337
84.08000 4.592
84.10000 4.791
84.12000 11.519
84.14000 9.664
84.16000 8.990
84.18000 9.653
84.20000 8.463
84.22000 3.760
84.24000 4.622
84.26000 8.810
84.28000 4.648
84.30000 4.570
84.32000 3.716
84.34000 1.210
84.36000 4.581
84.38000 -1.289
84.40000 -1.332
84.42000 -1.008
84.44000 3.565
84.46000 3.045
84.48000 4.247
84.50000 7.212
84.52000 6.198
84.54000 3.049
84.56000 3.946
84.58000 7.036
84.60000 3.191
84.62000 3.190
84.64000 2.697
84.66000 3.768
84.68000 -0.137
84.70000 4.014
84.72000 5.388
84.74000 4.534
84.76000 1.201
84.78000 1.771
84.80000 -0.722
84.82000 0.570
84.84000 1.297
84.86000 0.674
84.88000 -1.041
84.90000 3.294
84.92000 3.870
84.94000 2.985
84.96000 2.747
84.98000 -0.880
85.00000 4.659
85.02000 3.829
85.04000 4.072
85.06000 6.306
85.08000 3.887
85.10000 3.300
85.12000 8.568
85.14000 9.058
85.16000 5.579
85.18000 2.826
85.20000 1.068
85.22000 -1.837
85.24000 -2.453
85.26000 6.327
85.28000 6.935
85.30000 4.986
85.32000 1.744
85.34000 2.570
85.36000 0.894
85.38000 -0.534
85.40000 1.646
85.42000 7.639
85.44000 6.410
85.46000 3.797
85.48000 2.168
85.50000 2.892
85.52000 6.944
85.54000 7.009
85.56000 4.782
85.58000 9.021
85.60000 5.346
85.62000 8.793
85.64000 4.185
85.66000 -0.737
85.68000 -2.450
85.70000 -0.396
85.72000 3.640
85.74000 1.363
85.76000 -1.361
85.78000 -0.886
85.80000 -2.447
85.82000 -1.325
85.84000 -0.233
85.86000 3.681
85.88000 6.350
85.90000 5.638
85.92000 5.737
85.94000 -2.446
85.96000 1.166
85.98000 4.483
86.00000 6.635
86.02000 5.116
86.04000 3.709
86.06000 7.574
86.08000 2.662
86.10000 2.449
86.12000 2.815
86.14000 3.536
86.16000 4.467
86.18000 5.381
86.20000 1.802
86.22000 2.253
86.24000 0.888
86.26000 -0.529
86.28000 0.942
86.30000 4.211
86.32000 6.138
86.34000 4.393
86.36000 4.231
86.38000 2.996
86.40000 4.741
86.42000 5.523
86.44000 2.923
86.46000 2.813
86.48000 -0.063
86.50000 4.025
86.52000 5.777
86.54000 5.280
86.56000 2.389
86.58000 4.518
86.60000 8.804
86.62000 7.545
86.64000 4.570
86.66000 6.181
86.68000 5.250
86.70000 9.830
86.72000 8.766
86.74000 4.722
86.76000 4.099
86.78000 9.377
86.80000 8.724
86.82000 14.429
86.84000 13.237
86.86000 8.739
86.88000 6.805
86.90000 7.173
86.92000 14.846
86.94000 11.097
86.96000 9.558
86.98000 11.740
87.00000 13.331
87.02000 11.248
87.04000 9.872
87.06000 14.830
87.08000 15.917
87.10000 13.980
87.12000 11.392
87.14000 7.884
87.16000 13.865
87.18000 15.653
87.20000 13.524
87.22000 19.427
87.24000 18.890
87.26000 17.170
87.28000 18.333
87.30000 18.336
87.32000 18.554
87.34000 22.748
87.36000 22.949
87.38000 17.564
87.40000 14.489
87.42000 14.136
87.44000 18.934
87.46000 24.848
87.48000 22.894
87.50000 16.615
87.52000 16.546
87.54000 15.172
87.56000 20.694
87.58000 24.721
87.60000 24.769
87.62000 23.543
87.64000 15.659
87.66000 15.511
87.68000 14.483
87.70000 18.706
87.72000 15.617
87.74000 18.698
87.76000 19.732
87.78000 16.210
87.80000 16.906
87.82000 16.248
87.84000 16.844
87.86000 16.109
87.88000 16.201
87.90000 17.614
87.92000 14.841
87.94000 16.862
87.96000 16.720
87.98000 14.891
88.00000 13.697
88.02000 8.345
88.04000 10.838
88.06000 12.632
88.08000 11.999
88.10000 13.181
88.12000 14.599
88.14000 15.432
88.16000 11.983
88.18000 11.799
88.20000 10.534
88.22000 12.438
88.24000 12.129
88.26000 11.647
88.28000 5.292
88.30000 4.971
88.32000 6.296
88.34000 4.083
88.36000 7.592
88.38000 6.926
88.40000 5.595
88.42000 5.383
88.44000 6.467
88.46000 10.799
88.48000 6.712
88.50000 10.064
88.52000 6.238
88.54000 3.225
88.56000 3.997
88.58000 8.627
88.60000 4.645
88.62000 8.281
88.64000 5.044
88.66000 -0.017
88.68000 3.407
88.70000 6.322
88.72000 8.436
88.74000 6.160
88.76000 0.660
88.78000 -0.459
88.80000 2.657
88.82000 0.112
88.84000 2.475
88.86000 0.313
88.88000 2.693
88.90000 3.788
88.92000 1.640
88.94000 1.772
88.96000 3.203
88.98000 3.353
89.00000 1.747
89.02000 1.976
89.04000 2.246
89.06000 1.294
89.08000 3.515
89.10000 5.446
89.12000 6.468
89.14000 3.071
89.16000 9.250
89.18000 9.926
89.20000 5.857
89.22000 6.214
89.24000 1.861
89.26000 -1.453
89.28000 1.532
89.30000 0.595
89.32000 1.814
89.34000 -0.098
89.36000 1.485
89.38000 2.122
89.40000 0.831
89.42000 -0.202
89.44000 -2.317
89.46000 -2.201
89.48000 -0.915
89.50000 2.210
89.52000 6.043
89.54000 3.214
89.56000 3.450
89.58000 0.116
89.60000 0.318
89.62000 -0.603
89.64000 -0.553
89.66000 3.066
89.68000 2.571
89.70000 2.297
89.72000 1.791
89.74000 0.689
89.76000 3.568
89.78000 0.331
89.80000 -0.580
89.82000 -2.283
89.84000 2.492
89.86000 0.525
89.88000 1.952
89.90000 3.284
89.92000 6.381
89.94000 4.434
89.96000 2.007
89.98000 -1.259
90.00000 -2.143
90.02000 -0.915
90.04000 -0.395
90.06000 2.661
90.08000 2.047
90.10000 4.941
90.12000 2.144
90.14000 6.139
90.16000 2.621
90.18000 6.276
90.20000 0.577
90.22000 -2.280
90.24000 0.533
90.26000 0.393
90.28000 -0.447
90.30000 3.345
90.32000 5.145
90.34000 3.232
90.36000 1.601
90.38000 7.363
90.40000 9.558
90.42000 7.024
90.44000 6.310
90.46000 3.060
90.48000 -0.646
90.50000 -0.411
90.52000 3.816
90.54000 3.560
90.56000 4.398
90.58000 6.707
90.60000 10.179
90.62000 5.257
90.64000 4.370
90.66000 8.549
90.68000 4.539
90.70000 3.082
90.72000 1.741
90.74000 3.562
90.76000 3.460
90.78000 1.638
90.80000 3.587
90.82000 6.676
90.84000 6.886
90.86000 0.283
90.88000 -0.522
90.90000 3.740
90.92000 8.155
90.94000 5.996
90.96000 12.027
90.98000 8.652
91.00000 4.775
91.02000 0.183
91.04000 -2.247
91.06000 1.439
91.08000 0.629
91.10000 6.555
91.12000 2.929
91.14000 4.588
91.16000 4.614
91.18000 4.389
91.20000 5.229
91.22000 7.888
91.24000 6.059
91.26000 5.356
91.28000 3.399
91.30000 0.980
91.32000 -0.193
91.34000 1.350
91.36000 4.006
91.38000 2.576
91.40000 4.702
91.42000 7.374
91.44000 4.104
91.46000 3.218
91.48000 3.330
91.50000 6.755
91.52000 5.715
91.54000 5.082
91.56000 3.059
91.58000 2.984
91.60000 3.093
91.62000 5.272
91.64000 6.744
91.66000 4.667
91.68000 4.127
91.70000 5.876
91.72000 2.994
91.74000 4.044
91.76000 5.395
91.78000 5.921
91.80000 3.118
91.82000 2.421
91.84000 6.150
91.86000 12.752
91.88000 12.440
91.90000 8.860
91.92000 5.532
91.94000 3.473
91.96000 3.154
91.98000 2.002
92.00000 2.329
92.02000 7.894
92.04000 7.385
92.06000 -1.157
92.08000 -2.146
92.10000 -0.276
92.12000 5.722
92.14000 4.321
92.16000 4.777
92.18000 7.764
92.20000 5.226
92.22000 1.190
92.24000 3.362
92.26000 0.773
92.28000 -0.787
92.30000 -2.227
92.32000 6.965
92.34000 4.384
92.36000 5.919
92.38000 8.144
92.40000 7.715
92.42000 4.015
92.44000 5.505
92.46000 7.118
92.48000 5.799
92.50000 7.675
92.52000 4.569
92.54000 3.428
92.56000 1.575
92.58000 7.713
92.60000 7.376
92.62000 10.597
92.64000 9.593
92.66000 7.815
92.68000 9.799
92.70000 7.937
92.72000 2.142
92.74000 5.165
92.76000 6.600
92.78000 5.626
92.80000 7.791
92.82000 6.484
92.84000 7.127
92.86000 8.897
92.88000 8.210
92.90000 4.717
92.92000 2.761
92.94000 6.516
92.96000 9.669
92.98000 11.062
93.00000 3.314
93.02000 -2.178
93.04000 4.521
93.06000 2.839
93.08000 8.749
93.10000 8.926
93.12000 4.549
93.14000 3.164
93.16000 11.148
93.18000 12.656
93.20000 10.040
93.22000 9.940
93.24000 9.292
93.26000 3.408
93.28000 4.322
93.30000 3.059
93.32000 -1.523
93.34000 -1.575
93.36000 4.501
93.38000 7.310
93.40000 10.348
93.42000 8.142
93.44000 8.838
93.46000 0.866
93.48000 1.372
93.50000 5.561
93.52000 8.416
93.54000 11.928
93.56000 8.768
93.58000 8.783
93.60000 9.094
93.62000 8.189
93.64000 9.377
93.66000 7.954
93.68000 1.923
93.70000 0.941
93.72000 2.411
93.74000 3.180
93.76000 0.709
93.78000 8.550
93.80000 6.121
93.82000 5.137
93.84000 4.611
93.86000 3.041
93.88000 3.883
93.90000 6.789
93.92000 6.295
93.94000 6.150
93.96000 7.992
93.98000 0.551
94.00000 2.095
94.02000 1.321
94.04000 8.594
94.06000 5.053
94.08000 6.012
94.10000 7.560
94.12000 3.345
94.14000 2.772
94.16000 1.260
94.18000 4.180
94.20000 2.911
94.22000 4.250
94.24000 2.947
94.26000 -2.271
94.28000 0.159
94.30000 -2.106
94.32000 0.810
94.34000 5.395
94.36000 7.252
94.38000 7.047
94.40000 7.594
94.42000 4.787
94.44000 3.878
94.46000 8.400
94.48000 8.081
94.50000 9.062
94.52000 7.846
94.54000 5.744
94.56000 2.937
94.58000 2.570
94.60000 5.544
94.62000 6.553
94.64000 5.443
94.66000 7.948
94.68000 6.807
94.70000 9.010
94.72000 5.249
94.74000 5.114
94.76000 1.226
94.78000 3.304
94.80000 1.898
94.82000 5.846
94.84000 5.427
94.86000 3.642
94.88000 1.321
94.90000 3.382
94.92000 4.923
94.94000 2.568
94.96000 3.858
94.98000 0.916
95.00000 -0.863
95.02000 4.999
95.04000 1.877
95.06000 -0.329
95.08000 -2.248
95.10000 -0.479
95.12000 -0.668
95.14000 6.787
95.16000 6.987
95.18000 10.110
95.20000 0.981
95.22000 3.999
95.24000 7.470
95.26000 7.597
95.28000 6.238
95.30000 5.786
95.32000 4.597
95.34000 7.721
95.36000 7.954
95.38000 10.881
95.40000 6.436
95.42000 2.722
95.44000 7.766
95.46000 7.396
95.48000 6.385
95.50000 4.161
95.52000 6.593
95.54000 6.277
95.56000 -0.070
95.58000 -2.256
95.60000 -2.255
95.62000 3.164
95.64000 6.220
95.66000 5.382
95.68000 9.546
95.70000 1.682
95.72000 2.175
95.74000 4.902
95.76000 5.325
95.78000 4.828
95.80000 2.226
95.82000 5.269
95.84000 7.975
95.86000 8.668
95.88000 10.519
95.90000 2.618
95.92000 1.671
95.94000 6.904
95.96000 6.748
95.98000 5.260
96.00000 6.420
96.02000 5.747
96.04000 9.480
96.06000 7.112
96.08000 4.617
96.10000 -0.116
96.12000 9.084
96.14000 6.194
96.16000 4.808
96.18000 0.459
96.20000 1.622
96.22000 4.915
96.24000 7.016
96.26000 9.147
96.28000 4.890
96.30000 2.607
96.32000 3.457
96.34000 6.803
96.36000 7.857
96.38000 6.321
96.40000 4.306
96.42000 1.326
96.44000 -2.226
96.46000 3.128
96.48000 6.017
96.50000 2.448
96.52000 -0.410
96.54000 0.304
96.56000 4.448
96.58000 -0.138
96.60000 0.543
96.62000 -0.286
96.64000 1.206
96.66000 1.382
96.68000 1.847
96.70000 4.878
96.72000 6.773
96.74000 6.786
96.76000 9.423
96.78000 10.023
96.80000 7.556
96.82000 11.867
96.84000 10.723
96.86000 13.786
96.88000 6.622
96.90000 2.423
96.92000 1.128
96.94000 4.438
96.96000 -2.155
96.98000 -2.226
97.00000 7.046
97.02000 8.036
97.04000 2.556
97.06000 3.089
97.08000 8.422
97.10000 8.649
97.12000 4.108
97.14000 4.185
97.16000 9.195
97.18000 13.456
97.20000 9.827
97.22000 9.843
97.24000 14.577
97.26000 7.915
97.28000 10.696
97.30000 7.917
97.32000 3.512
97.34000 2.716
97.36000 8.428
97.38000 10.805
97.40000 5.608
97.42000 4.315
97.44000 4.159
97.46000 8.730
97.48000 1.739
97.50000 0.109
97.52000 0.989
97.54000 10.793
97.56000 6.628
97.58000 5.801
97.60000 6.378
97.62000 6.486
97.64000 1.666
97.66000 4.862
97.68000 4.477
97.70000 5.259
97.72000 5.241
97.74000 5.079
97.76000 4.077
97.78000 4.658
97.80000 5.524
97.82000 2.411
97.84000 4.438
97.86000 7.390
97.88000 0.945
97.90000 2.761
97.92000 -0.328
97.94000 9.217
97.96000 7.514
97.98000 7.622
98.00000 7.828
98.02000 8.637
98.04000 7.731
98.06000 1.680
98.08000 0.975
98.10000 -2.224
98.12000 5.305
98.14000 5.728
98.16000 6.424
98.18000 9.795
98.20000 8.122
98.22000 5.505
98.24000 3.089
98.26000 1.510
98.28000 -2.121
98.30000 3.206
98.32000 6.882
98.34000 13.542
98.36000 12.890
98.38000 7.133
98.40000 8.503
98.42000 11.995
98.44000 3.021
98.46000 10.077
98.48000 3.112
98.50000 8.664
98.52000 7.924
98.54000 7.718
98.56000 -0.250
98.58000 10.155
98.60000 11.844
98.62000 5.885
98.64000 -0.021
98.66000 6.917
98.68000 -1.716
98.70000 5.578
98.72000 8.970
98.74000 5.626
98.76000 9.571
98.78000 10.255
98.80000 8.420
98.82000 3.943
98.84000 2.647
98.86000 0.692
98.88000 7.201
98.90000 4.582
98.92000 7.518
98.94000 9.095
98.96000 14.315
98.98000 15.892
99.00000 5.649
99.02000 7.408
99.04000 9.012
99.06000 6.996
99.08000 13.975
99.10000 5.287
99.12000 10.086
99.14000 4.304
99.16000 3.258
99.18000 3.646
99.20000 4.969
99.22000 9.619
99.24000 15.656
99.26000 8.825
99.28000 2.260
99.30000 12.108
99.32000 -6.318
99.34000 0.806
99.36000 10.540
99.38000 2.570
99.40000 1.622
99.42000 4.874
99.44000 -3.915
99.46000 6.087
99.48000 5.319
99.50000 3.594
99.52000 4.574
99.54000 1.630
99.56000 5.579
99.58000 8.451
99.60000 5.236
99.62000 18.761
99.64000 22.743
99.66000 2.987
99.68000 2.445
99.70000 -4.141
99.72000 8.421
99.74000 7.206
99.76000 5.018
99.78000 8.322
99.80000 3.091
99.82000 14.177
99.84000 16.708
99.86000 -2.310
99.88000 -2.350
99.90000 -2.365
99.92000 12.341
99.94000 20.133
99.96000 9.474
99.98000 0.000
