'Id: "0011388" Comment: "Integrate frame 0011388_Au-Ir-Rh_Rh-rich_XRD-Mapping-180-0000.gfrmwith cursor Wedge Cursor #5" Operator: "B?rgel" Anode: "Cu" Wavelength: "1.5406" Scantype: "2Theta (TwoTheta)" TimePerStep: "1" X: "-36" Y: "4.5" Z: "5.95" 
10.00000 0.000
10.02000 10.607
10.04000 8.683
10.06000 2.414
10.08000 6.511
10.10000 23.721
10.12000 21.666
10.14000 11.465
10.16000 11.958
10.18000 22.957
10.20000 15.069
10.22000 16.771
10.24000 10.969
10.26000 7.333
10.28000 0.272
10.30000 -4.433
10.32000 10.126
10.34000 22.750
10.36000 12.892
10.38000 14.597
10.40000 23.184
10.42000 30.758
10.44000 9.636
10.46000 13.571
10.48000 14.296
10.50000 18.829
10.52000 10.511
10.54000 16.620
10.56000 22.912
10.58000 28.401
10.60000 18.075
10.62000 19.393
10.64000 21.443
10.66000 13.027
10.68000 18.214
10.70000 24.891
10.72000 27.551
10.74000 9.799
10.76000 3.078
10.78000 4.318
10.80000 -4.449
10.82000 6.965
10.84000 -4.061
10.86000 3.317
10.88000 2.249
10.90000 -4.143
10.92000 -2.384
10.94000 9.183
10.96000 4.983
10.98000 8.183
11.00000 12.293
11.02000 17.397
11.04000 27.398
11.06000 13.905
11.08000 8.448
11.10000 30.090
11.12000 29.644
11.14000 -3.710
11.16000 -0.490
11.18000 13.998
11.20000 17.507
11.22000 9.423
11.24000 1.846
11.26000 7.934
11.28000 10.383
11.30000 15.571
11.32000 16.252
11.34000 12.096
11.36000 13.086
11.38000 -4.466
11.40000 1.612
11.42000 2.863
11.44000 8.300
11.46000 19.963
11.48000 9.378
11.50000 -0.437
11.52000 -0.071
11.54000 8.922
11.56000 6.114
11.58000 8.325
11.60000 8.381
11.62000 14.007
11.64000 15.417
11.66000 6.591
11.68000 13.048
11.70000 16.702
11.72000 14.160
11.74000 3.539
11.76000 8.916
11.78000 -0.017
11.80000 3.133
11.82000 9.636
11.84000 4.208
11.86000 14.279
11.88000 18.688
11.90000 15.158
11.92000 17.141
11.94000 7.573
11.96000 -1.435
11.98000 1.531
12.00000 0.368
12.02000 4.984
12.04000 6.438
12.06000 3.264
12.08000 -1.267
12.10000 10.550
12.12000 13.144
12.14000 9.598
12.16000 9.260
12.18000 8.873
12.20000 7.330
12.22000 2.132
12.24000 12.352
12.26000 15.575
12.28000 7.989
12.30000 -1.295
12.32000 4.427
12.34000 8.958
12.36000 7.107
12.38000 4.249
12.40000 6.322
12.42000 9.208
12.44000 8.983
12.46000 10.472
12.48000 14.055
12.50000 9.959
12.52000 6.844
12.54000 3.519
12.56000 1.650
12.58000 15.323
12.60000 12.721
12.62000 13.223
12.64000 7.365
12.66000 2.667
12.68000 5.756
12.70000 13.677
12.72000 16.314
12.74000 9.213
12.76000 6.757
12.78000 5.433
12.80000 8.689
12.82000 6.343
12.84000 5.993
12.86000 15.231
12.88000 12.654
12.90000 16.205
12.92000 16.117
12.94000 13.584
12.96000 19.707
12.98000 12.581
13.00000 4.042
13.02000 9.089
13.04000 9.618
13.06000 5.628
13.08000 7.413
13.10000 14.680
13.12000 20.191
13.14000 11.937
13.16000 19.231
13.18000 15.035
13.20000 5.578
13.22000 11.399
13.24000 14.455
13.26000 13.605
13.28000 13.579
13.30000 13.076
13.32000 9.517
13.34000 10.622
13.36000 9.130
13.38000 9.151
13.40000 7.206
13.42000 9.093
13.44000 11.860
13.46000 10.686
13.48000 2.493
13.50000 -4.497
13.52000 5.358
13.54000 14.663
13.56000 14.936
13.58000 13.781
13.60000 15.305
13.62000 18.767
13.64000 13.201
13.66000 10.076
13.68000 13.400
13.70000 7.532
13.72000 0.702
13.74000 4.278
13.76000 6.793
13.78000 6.202
13.80000 0.171
13.82000 3.937
13.84000 3.738
13.86000 5.116
13.88000 12.832
13.90000 8.739
13.92000 6.315
13.94000 9.101
13.96000 10.302
13.98000 7.130
14.00000 13.718
14.02000 6.962
14.04000 9.112
14.06000 10.835
14.08000 15.228
14.10000 12.927
14.12000 1.544
14.14000 2.792
14.16000 -0.336
14.18000 -2.112
14.20000 1.393
14.22000 8.102
14.24000 5.759
14.26000 8.319
14.28000 8.446
14.30000 8.753
14.32000 11.242
14.34000 10.532
14.36000 1.018
14.38000 2.863
14.40000 5.005
14.42000 -0.843
14.44000 1.235
14.46000 6.930
14.48000 14.372
14.50000 11.699
14.52000 15.240
14.54000 18.722
14.56000 8.948
14.58000 5.374
14.60000 7.182
14.62000 10.317
14.64000 16.959
14.66000 8.154
14.68000 -3.459
14.70000 4.934
14.72000 7.310
14.74000 4.751
14.76000 -0.113
14.78000 6.475
14.80000 7.288
14.82000 14.766
14.84000 4.707
14.86000 -4.456
14.88000 7.327
14.90000 9.495
14.92000 5.619
14.94000 8.283
14.96000 12.848
14.98000 14.875
15.00000 10.995
15.02000 9.030
15.04000 2.150
15.06000 -3.141
15.08000 3.372
15.10000 8.579
15.12000 13.628
15.14000 13.551
15.16000 5.747
15.18000 6.813
15.20000 2.340
15.22000 5.213
15.24000 3.450
15.26000 6.665
15.28000 9.668
15.30000 4.819
15.32000 3.402
15.34000 2.471
15.36000 8.521
15.38000 4.915
15.40000 5.678
15.42000 -0.921
15.44000 5.421
15.46000 4.041
15.48000 7.624
15.50000 11.768
15.52000 1.428
15.54000 11.281
15.56000 12.916
15.58000 14.431
15.60000 10.728
15.62000 10.376
15.64000 -3.717
15.66000 -0.164
15.68000 10.019
15.70000 9.082
15.72000 8.968
15.74000 4.372
15.76000 7.033
15.78000 7.778
15.80000 1.198
15.82000 -3.900
15.84000 4.652
15.86000 -3.634
15.88000 10.219
15.90000 14.835
15.92000 4.045
15.94000 4.776
15.96000 -0.616
15.98000 -0.588
16.00000 -4.442
16.02000 -3.040
16.04000 4.954
16.06000 -1.775
16.08000 -1.709
16.10000 2.745
16.12000 -2.634
16.14000 1.595
16.16000 8.790
16.18000 1.810
16.20000 -3.636
16.22000 -2.003
16.24000 2.961
16.26000 3.611
16.28000 5.234
16.30000 2.019
16.32000 -3.871
16.34000 0.715
16.36000 2.736
16.38000 1.755
16.40000 1.136
16.42000 -0.172
16.44000 11.816
16.46000 16.785
16.48000 5.877
16.50000 4.127
16.52000 4.417
16.54000 -3.276
16.56000 2.216
16.58000 9.305
16.60000 9.653
16.62000 1.359
16.64000 0.845
16.66000 4.542
16.68000 -1.362
16.70000 -0.006
16.72000 5.494
16.74000 6.005
16.76000 0.501
16.78000 -2.518
16.80000 -2.832
16.82000 1.714
16.84000 4.446
16.86000 11.925
16.88000 0.618
16.90000 -4.414
16.92000 -1.248
16.94000 2.326
16.96000 -0.148
16.98000 -1.050
17.00000 5.510
17.02000 4.513
17.04000 3.408
17.06000 7.008
17.08000 2.229
17.10000 -3.755
17.12000 -1.277
17.14000 1.550
17.16000 0.253
17.18000 -4.302
17.20000 1.741
17.22000 0.386
17.24000 2.674
17.26000 6.897
17.28000 5.951
17.30000 3.315
17.32000 3.939
17.34000 11.128
17.36000 1.470
17.38000 3.497
17.40000 11.374
17.42000 5.814
17.44000 0.043
17.46000 4.841
17.48000 7.061
17.50000 4.650
17.52000 5.448
17.54000 0.734
17.56000 3.434
17.58000 4.668
17.60000 12.630
17.62000 3.785
17.64000 -3.420
17.66000 5.068
17.68000 6.978
17.70000 1.754
17.72000 0.686
17.74000 6.071
17.76000 4.592
17.78000 2.585
17.80000 6.736
17.82000 12.460
17.84000 15.512
17.86000 1.400
17.88000 -1.512
17.90000 7.198
17.92000 1.764
17.94000 2.089
17.96000 -0.028
17.98000 9.033
18.00000 3.861
18.02000 2.283
18.04000 2.497
18.06000 5.276
18.08000 9.027
18.10000 9.933
18.12000 9.147
18.14000 8.512
18.16000 11.312
18.18000 4.328
18.20000 11.261
18.22000 5.697
18.24000 2.262
18.26000 4.141
18.28000 5.417
18.30000 6.672
18.32000 2.605
18.34000 1.942
18.36000 4.970
18.38000 3.387
18.40000 1.751
18.42000 -4.292
18.44000 5.017
18.46000 8.803
18.48000 5.126
18.50000 3.622
18.52000 7.842
18.54000 2.559
18.56000 7.101
18.58000 6.891
18.60000 5.972
18.62000 4.782
18.64000 4.206
18.66000 5.238
18.68000 11.949
18.70000 7.300
18.72000 8.016
18.74000 3.794
18.76000 5.997
18.78000 3.981
18.80000 5.287
18.82000 2.868
18.84000 -1.755
18.86000 8.188
18.88000 9.490
18.90000 5.625
18.92000 11.177
18.94000 13.116
18.96000 7.030
18.98000 6.000
19.00000 7.582
19.02000 5.274
19.04000 1.623
19.06000 8.844
19.08000 13.539
19.10000 11.569
19.12000 5.116
19.14000 8.525
19.16000 2.638
19.18000 2.706
19.20000 0.356
19.22000 1.525
19.24000 4.433
19.26000 3.867
19.28000 1.029
19.30000 -0.340
19.32000 -4.262
19.34000 2.907
19.36000 7.240
19.38000 6.999
19.40000 3.919
19.42000 7.549
19.44000 0.126
19.46000 4.888
19.48000 4.690
19.50000 7.633
19.52000 5.167
19.54000 1.782
19.56000 2.398
19.58000 -0.876
19.60000 3.909
19.62000 4.265
19.64000 0.033
19.66000 8.576
19.68000 3.171
19.70000 0.440
19.72000 4.873
19.74000 1.757
19.76000 6.039
19.78000 8.651
19.80000 7.070
19.82000 2.756
19.84000 1.299
19.86000 8.619
19.88000 9.598
19.90000 5.436
19.92000 4.485
19.94000 4.791
19.96000 1.144
19.98000 -1.018
20.00000 -1.966
20.02000 -0.809
20.04000 -3.241
20.06000 1.471
20.08000 5.530
20.10000 8.029
20.12000 8.557
20.14000 3.926
20.16000 6.070
20.18000 4.774
20.20000 8.493
20.22000 7.469
20.24000 7.871
20.26000 8.285
20.28000 11.054
20.30000 10.780
20.32000 5.652
20.34000 0.958
20.36000 7.259
20.38000 3.873
20.40000 4.267
20.42000 5.985
20.44000 5.219
20.46000 7.409
20.48000 9.067
20.50000 10.540
20.52000 4.855
20.54000 7.219
20.56000 6.731
20.58000 1.927
20.60000 2.868
20.62000 8.171
20.64000 16.210
20.66000 8.634
20.68000 8.118
20.70000 13.389
20.72000 7.583
20.74000 5.440
20.76000 13.451
20.78000 7.168
20.80000 2.889
20.82000 6.042
20.84000 3.358
20.86000 -2.925
20.88000 1.647
20.90000 5.308
20.92000 8.093
20.94000 4.369
20.96000 8.255
20.98000 14.214
21.00000 8.921
21.02000 6.115
21.04000 10.653
21.06000 9.126
21.08000 7.380
21.10000 9.803
21.12000 9.513
21.14000 7.282
21.16000 8.885
21.18000 19.509
21.20000 12.323
21.22000 9.457
21.24000 4.801
21.26000 -4.109
21.28000 2.542
21.30000 3.452
21.32000 9.137
21.34000 9.849
21.36000 8.876
21.38000 5.917
21.40000 7.049
21.42000 5.068
21.44000 10.823
21.46000 11.559
21.48000 5.164
21.50000 8.037
21.52000 1.428
21.54000 1.515
21.56000 -0.857
21.58000 4.460
21.60000 5.907
21.62000 9.374
21.64000 10.102
21.66000 5.796
21.68000 3.415
21.70000 3.967
21.72000 7.362
21.74000 4.564
21.76000 3.516
21.78000 11.330
21.80000 8.847
21.82000 8.134
21.84000 4.558
21.86000 14.306
21.88000 11.463
21.90000 7.452
21.92000 5.224
21.94000 1.535
21.96000 4.183
21.98000 7.209
22.00000 7.094
22.02000 8.022
22.04000 4.427
22.06000 10.898
22.08000 7.348
22.10000 9.344
22.12000 3.560
22.14000 1.742
22.16000 8.400
22.18000 1.661
22.20000 5.841
22.22000 7.834
22.24000 5.928
22.26000 11.241
22.28000 0.886
22.30000 -4.057
22.32000 1.809
22.34000 4.658
22.36000 9.454
22.38000 13.925
22.40000 4.686
22.42000 2.196
22.44000 3.933
22.46000 7.436
22.48000 4.227
22.50000 3.679
22.52000 2.271
22.54000 5.780
22.56000 9.096
22.58000 7.365
22.60000 5.636
22.62000 6.579
22.64000 0.515
22.66000 5.331
22.68000 5.760
22.70000 7.955
22.72000 14.124
22.74000 14.008
22.76000 11.911
22.78000 8.823
22.80000 5.110
22.82000 3.213
22.84000 4.363
22.86000 3.619
22.88000 -0.663
22.90000 -2.798
22.92000 4.645
22.94000 12.080
22.96000 12.956
22.98000 15.523
23.00000 11.772
23.02000 0.082
23.04000 -1.740
23.06000 4.088
23.08000 4.935
23.10000 8.259
23.12000 1.839
23.14000 3.698
23.16000 10.065
23.18000 2.979
23.20000 -0.121
23.22000 -0.258
23.24000 0.318
23.26000 3.086
23.28000 1.436
23.30000 -3.598
23.32000 -1.815
23.34000 3.799
23.36000 2.832
23.38000 4.641
23.40000 2.412
23.42000 3.009
23.44000 4.668
23.46000 3.167
23.48000 4.902
23.50000 -2.400
23.52000 -1.764
23.54000 -0.162
23.56000 4.386
23.58000 -3.079
23.60000 0.974
23.62000 5.134
23.64000 5.523
23.66000 0.003
23.68000 -1.579
23.70000 -1.262
23.72000 -1.023
23.74000 9.416
23.76000 3.760
23.78000 1.660
23.80000 2.587
23.82000 -2.045
23.84000 0.668
23.86000 1.774
23.88000 4.428
23.90000 4.494
23.92000 -0.310
23.94000 -0.677
23.96000 -1.881
23.98000 0.039
24.00000 0.830
24.02000 -1.272
24.04000 2.419
24.06000 0.199
24.08000 -3.767
24.10000 1.963
24.12000 9.308
24.14000 11.101
24.16000 1.494
24.18000 0.424
24.20000 3.579
24.22000 3.368
24.24000 -1.447
24.26000 -2.474
24.28000 5.889
24.30000 3.935
24.32000 3.034
24.34000 7.103
24.36000 -1.620
24.38000 -0.066
24.40000 1.677
24.42000 2.632
24.44000 7.640
24.46000 -3.128
24.48000 -3.986
24.50000 1.086
24.52000 0.471
24.54000 2.637
24.56000 -2.051
24.58000 -0.724
24.60000 0.791
24.62000 5.683
24.64000 1.036
24.66000 -3.796
24.68000 -1.927
24.70000 3.987
24.72000 -0.979
24.74000 -2.955
24.76000 0.642
24.78000 -0.908
24.80000 2.737
24.82000 4.721
24.84000 1.024
24.86000 1.622
24.88000 0.639
24.90000 -0.020
24.92000 0.465
24.94000 0.468
24.96000 1.867
24.98000 6.235
25.00000 3.287
25.02000 5.640
25.04000 7.286
25.06000 5.350
25.08000 6.662
25.10000 0.039
25.12000 2.770
25.14000 5.148
25.16000 4.032
25.18000 3.704
25.20000 5.858
25.22000 3.427
25.24000 3.135
25.26000 -0.253
25.28000 -1.219
25.30000 -1.001
25.32000 -3.948
25.34000 -2.996
25.36000 -0.875
25.38000 3.644
25.40000 2.149
25.42000 1.223
25.44000 4.313
25.46000 3.103
25.48000 1.864
25.50000 1.893
25.52000 3.282
25.54000 -0.067
25.56000 0.694
25.58000 3.475
25.60000 3.455
25.62000 3.084
25.64000 2.213
25.66000 -1.980
25.68000 2.226
25.70000 0.280
25.72000 -0.021
25.74000 -0.790
25.76000 6.784
25.78000 5.431
25.80000 -1.681
25.82000 -2.380
25.84000 -2.544
25.86000 -3.923
25.88000 -3.067
25.90000 4.544
25.92000 1.431
25.94000 -1.972
25.96000 0.684
25.98000 3.794
26.00000 3.308
26.02000 2.241
26.04000 -1.341
26.06000 3.860
26.08000 3.670
26.10000 4.891
26.12000 8.607
26.14000 7.305
26.16000 3.103
26.18000 -0.919
26.20000 -3.736
26.22000 -3.905
26.24000 -2.232
26.26000 -1.994
26.28000 3.981
26.30000 -0.275
26.32000 -0.262
26.34000 0.302
26.36000 4.669
26.38000 1.279
26.40000 -2.014
26.42000 3.050
26.44000 3.508
26.46000 -1.058
26.48000 0.405
26.50000 7.499
26.52000 5.462
26.54000 3.275
26.56000 0.152
26.58000 0.692
26.60000 4.561
26.62000 5.050
26.64000 3.898
26.66000 4.553
26.68000 2.200
26.70000 -3.876
26.72000 0.550
26.74000 -3.193
26.76000 2.556
26.78000 8.191
26.80000 8.991
26.82000 2.905
26.84000 1.252
26.86000 2.133
26.88000 -1.875
26.90000 -0.114
26.92000 1.319
26.94000 -2.020
26.96000 -1.730
26.98000 5.324
27.00000 10.252
27.02000 8.690
27.04000 7.583
27.06000 2.557
27.08000 3.076
27.10000 1.379
27.12000 1.827
27.14000 3.694
27.16000 5.545
27.18000 10.528
27.20000 4.464
27.22000 3.981
27.24000 3.517
27.26000 4.876
27.28000 5.062
27.30000 4.236
27.32000 2.086
27.34000 6.419
27.36000 5.473
27.38000 1.460
27.40000 0.370
27.42000 4.378
27.44000 6.570
27.46000 10.557
27.48000 10.728
27.50000 2.110
27.52000 -2.675
27.54000 -0.080
27.56000 3.938
27.58000 3.444
27.60000 4.149
27.62000 3.301
27.64000 -0.842
27.66000 0.388
27.68000 4.292
27.70000 4.084
27.72000 2.705
27.74000 2.878
27.76000 8.059
27.78000 9.272
27.80000 8.989
27.82000 2.192
27.84000 1.916
27.86000 4.411
27.88000 4.319
27.90000 5.539
27.92000 4.062
27.94000 1.527
27.96000 -1.146
27.98000 2.846
28.00000 5.808
28.02000 8.951
28.04000 5.965
28.06000 6.007
28.08000 7.034
28.10000 5.826
28.12000 6.117
28.14000 0.895
28.16000 2.194
28.18000 2.596
28.20000 0.980
28.22000 -1.273
28.24000 0.082
28.26000 2.847
28.28000 2.380
28.30000 -3.753
28.32000 -1.358
28.34000 -0.378
28.36000 4.237
28.38000 10.427
28.40000 9.101
28.42000 4.901
28.44000 5.458
28.46000 5.348
28.48000 3.624
28.50000 6.313
28.52000 9.877
28.54000 7.766
28.56000 3.650
28.58000 4.108
28.60000 1.140
28.62000 6.055
28.64000 2.866
28.66000 3.278
28.68000 1.774
28.70000 -1.223
28.72000 -2.728
28.74000 -3.723
28.76000 4.371
28.78000 4.202
28.80000 7.651
28.82000 8.081
28.84000 5.468
28.86000 9.320
28.88000 9.407
28.90000 4.065
28.92000 6.404
28.94000 4.188
28.96000 1.687
28.98000 0.530
29.00000 5.776
29.02000 4.865
29.04000 -1.959
29.06000 3.677
29.08000 2.575
29.10000 2.066
29.12000 -1.027
29.14000 -3.707
29.16000 -1.007
29.18000 0.329
29.20000 7.132
29.22000 8.129
29.24000 4.082
29.26000 2.086
29.28000 2.269
29.30000 7.526
29.32000 5.041
29.34000 4.309
29.36000 8.136
29.38000 5.772
29.40000 2.314
29.42000 8.426
29.44000 8.101
29.46000 5.117
29.48000 4.558
29.50000 -0.936
29.52000 0.257
29.54000 2.116
29.56000 3.147
29.58000 1.873
29.60000 5.990
29.62000 5.633
29.64000 3.107
29.66000 0.788
29.68000 -0.621
29.70000 2.629
29.72000 2.790
29.74000 -1.940
29.76000 1.828
29.78000 1.030
29.80000 1.628
29.82000 2.260
29.84000 -0.976
29.86000 4.337
29.88000 5.468
29.90000 1.834
29.92000 -0.195
29.94000 4.201
29.96000 6.544
29.98000 6.455
30.00000 3.712
30.02000 3.206
30.04000 4.576
30.06000 -1.012
30.08000 -1.794
30.10000 0.556
30.12000 0.126
30.14000 1.136
30.16000 2.636
30.18000 4.116
30.20000 3.432
30.22000 0.245
30.24000 0.468
30.26000 2.149
30.28000 5.306
30.30000 4.593
30.32000 -1.583
30.34000 1.094
30.36000 3.079
30.38000 3.611
30.40000 6.913
30.42000 2.869
30.44000 2.982
30.46000 1.264
30.48000 -1.404
30.50000 -1.158
30.52000 -2.346
30.54000 4.451
30.56000 5.833
30.58000 3.329
30.60000 4.571
30.62000 2.701
30.64000 5.122
30.66000 3.540
30.68000 -0.991
30.70000 0.124
30.72000 -1.176
30.74000 5.833
30.76000 4.098
30.78000 5.575
30.80000 -0.134
30.82000 -3.216
30.84000 -2.473
30.86000 -3.661
30.88000 -0.950
30.90000 -0.894
30.92000 -1.299
30.94000 5.270
30.96000 2.867
30.98000 2.755
31.00000 -0.207
31.02000 0.290
31.04000 1.007
31.06000 2.263
31.08000 4.500
31.10000 1.444
31.12000 0.881
31.14000 0.332
31.16000 0.061
31.18000 0.911
31.20000 -1.506
31.22000 0.558
31.24000 1.767
31.26000 -1.788
31.28000 -3.650
31.30000 1.428
31.32000 2.762
31.34000 4.189
31.36000 -1.324
31.38000 -0.526
31.40000 2.377
31.42000 2.646
31.44000 3.199
31.46000 2.783
31.48000 0.318
31.50000 -1.025
31.52000 -1.598
31.54000 -3.640
31.56000 -1.513
31.58000 -1.467
31.60000 -1.511
31.62000 -3.054
31.64000 0.726
31.66000 -0.381
31.68000 -3.170
31.70000 0.648
31.72000 0.903
31.74000 2.252
31.76000 4.502
31.78000 6.763
31.80000 9.526
31.82000 4.911
31.84000 4.047
31.86000 1.322
31.88000 1.475
31.90000 4.003
31.92000 0.865
31.94000 0.473
31.96000 -0.298
31.98000 0.952
32.00000 1.611
32.02000 0.979
32.04000 -3.061
32.06000 -3.618
32.08000 0.676
32.10000 -2.718
32.12000 -2.902
32.14000 0.218
32.16000 1.829
32.18000 0.973
32.20000 0.525
32.22000 -1.649
32.24000 -1.804
32.26000 -0.935
32.28000 2.925
32.30000 1.395
32.32000 2.222
32.34000 2.455
32.36000 5.084
32.38000 2.094
32.40000 4.386
32.42000 7.183
32.44000 3.992
32.46000 1.538
32.48000 2.231
32.50000 -0.251
32.52000 0.150
32.54000 3.480
32.56000 8.745
32.58000 6.852
32.60000 4.774
32.62000 0.062
32.64000 2.335
32.66000 -1.681
32.68000 -3.579
32.70000 -0.502
32.72000 3.272
32.74000 5.295
32.76000 5.635
32.78000 3.801
32.80000 7.317
32.82000 5.361
32.84000 0.427
32.86000 2.432
32.88000 -0.414
32.90000 3.132
32.92000 2.775
32.94000 4.950
32.96000 3.686
32.98000 -1.742
33.00000 0.879
33.02000 3.630
33.04000 4.634
33.06000 1.229
33.08000 2.659
33.10000 3.733
33.12000 0.709
33.14000 -3.244
33.16000 1.383
33.18000 5.555
33.20000 6.494
33.22000 6.442
33.24000 1.202
33.26000 4.109
33.28000 1.973
33.30000 4.326
33.32000 9.182
33.34000 4.146
33.36000 0.608
33.38000 3.717
33.40000 1.633
33.42000 3.706
33.44000 4.360
33.46000 -0.586
33.48000 5.225
33.50000 10.345
33.52000 11.571
33.54000 6.409
33.56000 3.783
33.58000 8.080
33.60000 2.026
33.62000 1.124
33.64000 8.131
33.66000 5.222
33.68000 2.378
33.70000 6.354
33.72000 1.206
33.74000 5.261
33.76000 6.612
33.78000 6.401
33.80000 2.050
33.82000 0.104
33.84000 -3.545
33.86000 2.254
33.88000 5.495
33.90000 9.846
33.92000 9.015
33.94000 6.597
33.96000 3.088
33.98000 6.910
34.00000 0.724
34.02000 6.894
34.04000 4.699
34.06000 4.950
34.08000 4.250
34.10000 4.889
34.12000 5.792
34.14000 3.762
34.16000 4.273
34.18000 10.104
34.20000 9.976
34.22000 4.753
34.24000 5.553
34.26000 3.466
34.28000 1.013
34.30000 0.361
34.32000 6.511
34.34000 8.796
34.36000 8.003
34.38000 0.942
34.40000 1.720
34.42000 -2.178
34.44000 -3.526
34.46000 0.587
34.48000 4.704
34.50000 4.635
34.52000 7.298
34.54000 6.064
34.56000 3.045
34.58000 5.788
34.60000 8.297
34.62000 10.062
34.64000 9.103
34.66000 6.635
34.68000 0.870
34.70000 6.395
34.72000 2.049
34.74000 5.559
34.76000 7.271
34.78000 7.547
34.80000 -0.097
34.82000 1.393
34.84000 3.285
34.86000 1.842
34.88000 1.794
34.90000 6.086
34.92000 4.799
34.94000 3.370
34.96000 -3.514
34.98000 -2.646
35.00000 3.365
35.02000 1.969
35.04000 1.608
35.06000 1.570
35.08000 0.349
35.10000 -0.840
35.12000 1.246
35.14000 4.171
35.16000 5.108
35.18000 2.738
35.20000 1.852
35.22000 0.554
35.24000 -1.341
35.26000 -0.068
35.28000 2.243
35.30000 4.211
35.32000 2.572
35.34000 6.360
35.36000 1.543
35.38000 -0.806
35.40000 1.183
35.42000 3.114
35.44000 3.027
35.46000 1.025
35.48000 -1.105
35.50000 2.912
35.52000 3.751
35.54000 3.515
35.56000 0.399
35.58000 -0.997
35.60000 1.429
35.62000 3.937
35.64000 1.407
35.66000 5.561
35.68000 5.848
35.70000 3.367
35.72000 2.723
35.74000 1.153
35.76000 1.373
35.78000 -0.137
35.80000 -0.869
35.82000 -0.214
35.84000 0.515
35.86000 -1.637
35.88000 3.837
35.90000 3.132
35.92000 2.545
35.94000 1.838
35.96000 -1.432
35.98000 -2.368
36.00000 1.565
36.02000 2.121
36.04000 4.743
36.06000 5.982
36.08000 4.776
36.10000 1.135
36.12000 -1.922
36.14000 -2.275
36.16000 4.634
36.18000 8.472
36.20000 12.956
36.22000 2.185
36.24000 -1.775
36.26000 -3.548
36.28000 1.162
36.30000 2.748
36.32000 4.940
36.34000 4.850
36.36000 6.048
36.38000 3.261
36.40000 5.250
36.42000 2.591
36.44000 2.615
36.46000 -2.178
36.48000 -0.968
36.50000 -1.520
36.52000 3.078
36.54000 6.330
36.56000 0.527
36.58000 3.152
36.60000 7.099
36.62000 2.769
36.64000 -0.126
36.66000 4.281
36.68000 0.577
36.70000 -3.412
36.72000 -3.556
36.74000 0.462
36.76000 4.759
36.78000 3.950
36.80000 1.206
36.82000 -0.352
36.84000 2.028
36.86000 -2.197
36.88000 1.003
36.90000 2.487
36.92000 3.238
36.94000 -0.025
36.96000 6.547
36.98000 6.847
37.00000 3.059
37.02000 3.020
37.04000 1.538
37.06000 -0.608
37.08000 -1.999
37.10000 -2.703
37.12000 0.164
37.14000 1.508
37.16000 2.934
37.18000 -0.068
37.20000 -0.664
37.22000 0.603
37.24000 1.929
37.26000 -3.618
37.28000 3.280
37.30000 4.271
37.32000 2.815
37.34000 1.330
37.36000 3.344
37.38000 3.030
37.40000 4.949
37.42000 4.374
37.44000 5.097
37.46000 3.057
37.48000 -1.049
37.50000 1.934
37.52000 -2.809
37.54000 0.979
37.56000 5.140
37.58000 5.604
37.60000 6.682
37.62000 7.126
37.64000 4.294
37.66000 4.991
37.68000 6.131
37.70000 4.540
37.72000 5.474
37.74000 -0.045
37.76000 7.079
37.78000 8.778
37.80000 8.197
37.82000 4.983
37.84000 5.209
37.86000 3.950
37.88000 4.522
37.90000 6.443
37.92000 8.293
37.94000 5.765
37.96000 7.804
37.98000 6.520
38.00000 9.900
38.02000 13.576
38.04000 11.299
38.06000 12.332
38.08000 9.880
38.10000 10.190
38.12000 13.789
38.14000 16.698
38.16000 13.115
38.18000 12.148
38.20000 9.731
38.22000 12.602
38.24000 16.940
38.26000 18.248
38.28000 15.006
38.30000 16.861
38.32000 16.793
38.34000 17.829
38.36000 20.227
38.38000 17.030
38.40000 17.666
38.42000 22.710
38.44000 25.225
38.46000 24.545
38.48000 23.615
38.50000 23.262
38.52000 26.099
38.54000 24.795
38.56000 22.760
38.58000 28.931
38.60000 28.769
38.62000 29.348
38.64000 33.004
38.66000 35.105
38.68000 35.122
38.70000 33.948
38.72000 37.528
38.74000 35.575
38.76000 34.562
38.78000 39.164
38.80000 42.504
38.82000 37.829
38.84000 35.595
38.86000 43.346
38.88000 49.555
38.90000 50.165
38.92000 50.936
38.94000 54.754
38.96000 56.225
38.98000 54.950
39.00000 51.288
39.02000 55.169
39.04000 62.827
39.06000 71.606
39.08000 71.396
39.10000 80.014
39.12000 82.614
39.14000 81.606
39.16000 81.321
39.18000 84.741
39.20000 88.916
39.22000 95.629
39.24000 96.141
39.26000 101.570
39.28000 107.367
39.30000 106.940
39.32000 112.339
39.34000 123.529
39.36000 128.718
39.38000 128.723
39.40000 132.217
39.42000 147.067
39.44000 158.179
39.46000 164.454
39.48000 169.088
39.50000 169.472
39.52000 175.079
39.54000 190.839
39.56000 200.427
39.58000 204.945
39.60000 216.479
39.62000 227.924
39.64000 241.565
39.66000 255.205
39.68000 266.643
39.70000 282.219
39.72000 296.198
39.74000 305.286
39.76000 314.258
39.78000 342.883
39.80000 342.390
39.82000 360.206
39.84000 386.130
39.86000 402.318
39.88000 415.449
39.90000 433.742
39.92000 442.519
39.94000 473.157
39.96000 490.847
39.98000 495.586
40.00000 509.168
40.02000 529.748
40.04000 547.926
40.06000 553.936
40.08000 565.521
40.10000 586.409
40.12000 601.612
40.14000 618.255
40.16000 611.451
40.18000 609.972
40.20000 614.458
40.22000 611.994
40.24000 613.288
40.26000 610.712
40.28000 632.320
40.30000 623.220
40.32000 609.873
40.34000 606.468
40.36000 597.746
40.38000 586.453
40.40000 576.166
40.42000 563.640
40.44000 544.009
40.46000 539.158
40.48000 520.151
40.50000 503.086
40.52000 484.104
40.54000 467.896
40.56000 447.165
40.58000 435.442
40.60000 427.791
40.62000 402.617
40.64000 384.976
40.66000 368.033
40.68000 346.602
40.70000 324.406
40.72000 307.688
40.74000 303.690
40.76000 284.260
40.78000 266.779
40.80000 251.474
40.82000 243.001
40.84000 228.368
40.86000 216.392
40.88000 204.730
40.90000 194.361
40.92000 185.189
40.94000 174.699
40.96000 168.313
40.98000 157.782
41.00000 146.140
41.02000 136.047
41.04000 129.305
41.06000 121.740
41.08000 116.957
41.10000 114.291
41.12000 108.901
41.14000 103.533
41.16000 100.354
41.18000 92.420
41.20000 85.056
41.22000 80.605
41.24000 73.461
41.26000 69.980
41.28000 68.166
41.30000 65.825
41.32000 61.610
41.34000 58.733
41.36000 54.451
41.38000 49.952
41.40000 42.620
41.42000 48.364
41.44000 46.727
41.46000 44.344
41.48000 43.760
41.50000 39.813
41.52000 36.438
41.54000 32.563
41.56000 29.403
41.58000 27.782
41.60000 26.269
41.62000 26.820
41.64000 27.425
41.66000 29.351
41.68000 27.616
41.70000 25.760
41.72000 20.473
41.74000 17.163
41.76000 20.628
41.78000 11.877
41.80000 16.665
41.82000 16.644
41.84000 17.528
41.86000 17.827
41.88000 18.536
41.90000 14.552
41.92000 15.999
41.94000 15.554
41.96000 11.862
41.98000 11.159
42.00000 10.418
42.02000 8.153
42.04000 10.721
42.06000 11.035
42.08000 9.569
42.10000 10.851
42.12000 8.560
42.14000 11.625
42.16000 9.260
42.18000 11.958
42.20000 9.387
42.22000 7.632
42.24000 11.300
42.26000 7.687
42.28000 5.731
42.30000 4.924
42.32000 10.676
42.34000 7.001
42.36000 4.152
42.38000 7.578
42.40000 5.170
42.42000 3.182
42.44000 3.756
42.46000 0.934
42.48000 6.778
42.50000 4.175
42.52000 0.058
42.54000 0.248
42.56000 7.182
42.58000 6.709
42.60000 4.354
42.62000 1.687
42.64000 0.613
42.66000 0.779
42.68000 -3.527
42.70000 0.302
42.72000 6.581
42.74000 4.606
42.76000 2.602
42.78000 3.764
42.80000 4.484
42.82000 2.023
42.84000 0.983
42.86000 7.205
42.88000 7.937
42.90000 3.185
42.92000 2.041
42.94000 4.934
42.96000 1.776
42.98000 2.660
43.00000 -0.242
43.02000 2.456
43.04000 8.303
43.06000 3.299
43.08000 2.416
43.10000 4.523
43.12000 3.388
43.14000 4.186
43.16000 3.622
43.18000 1.816
43.20000 5.592
43.22000 7.095
43.24000 4.058
43.26000 4.023
43.28000 3.001
43.30000 2.255
43.32000 -0.818
43.34000 -2.957
43.36000 1.765
43.38000 4.390
43.40000 1.865
43.42000 1.274
43.44000 0.338
43.46000 2.904
43.48000 -0.208
43.50000 3.872
43.52000 4.191
43.54000 1.804
43.56000 0.896
43.58000 0.859
43.60000 5.195
43.62000 5.474
43.64000 2.740
43.66000 0.156
43.68000 4.114
43.70000 11.446
43.72000 7.922
43.74000 1.105
43.76000 -3.425
43.78000 3.312
43.80000 5.443
43.82000 0.609
43.84000 3.823
43.86000 6.167
43.88000 9.657
43.90000 9.340
43.92000 6.009
43.94000 1.406
43.96000 5.014
43.98000 7.408
44.00000 4.647
44.02000 6.390
44.04000 8.777
44.06000 6.112
44.08000 4.543
44.10000 3.061
44.12000 5.004
44.14000 5.783
44.16000 5.406
44.18000 2.901
44.20000 -3.419
44.22000 -0.429
44.24000 1.052
44.26000 0.691
44.28000 1.351
44.30000 3.653
44.32000 1.176
44.34000 1.489
44.36000 3.710
44.38000 2.250
44.40000 -0.424
44.42000 -3.427
44.44000 0.259
44.46000 2.173
44.48000 0.372
44.50000 1.989
44.52000 6.822
44.54000 8.113
44.56000 3.190
44.58000 1.361
44.60000 10.919
44.62000 5.440
44.64000 8.245
44.66000 4.011
44.68000 2.995
44.70000 5.749
44.72000 4.639
44.74000 11.319
44.76000 10.301
44.78000 10.013
44.80000 8.396
44.82000 2.233
44.84000 7.189
44.86000 9.222
44.88000 11.776
44.90000 8.884
44.92000 10.094
44.94000 8.619
44.96000 7.595
44.98000 8.403
45.00000 13.107
45.02000 9.003
45.04000 10.562
45.06000 13.572
45.08000 11.926
45.10000 12.411
45.12000 7.486
45.14000 14.867
45.16000 10.945
45.18000 12.648
45.20000 14.808
45.22000 13.585
45.24000 13.861
45.26000 17.128
45.28000 19.558
45.30000 21.602
45.32000 17.872
45.34000 13.483
45.36000 12.884
45.38000 17.049
45.40000 18.528
45.42000 21.912
45.44000 23.154
45.46000 22.284
45.48000 22.760
45.50000 24.884
45.52000 22.738
45.54000 24.054
45.56000 25.373
45.58000 19.468
45.60000 20.194
45.62000 28.689
45.64000 30.392
45.66000 22.205
45.68000 25.386
45.70000 31.443
45.72000 28.542
45.74000 26.238
45.76000 29.157
45.78000 24.604
45.80000 31.334
45.82000 34.352
45.84000 32.332
45.86000 34.356
45.88000 38.995
45.90000 43.013
45.92000 40.871
45.94000 40.796
45.96000 32.502
45.98000 35.044
46.00000 41.124
46.02000 49.357
46.04000 50.988
46.06000 45.486
46.08000 49.600
46.10000 48.825
46.12000 48.868
46.14000 46.008
46.16000 51.360
46.18000 57.016
46.20000 53.518
46.22000 56.943
46.24000 58.710
46.26000 56.621
46.28000 63.303
46.30000 65.115
46.32000 71.010
46.34000 67.777
46.36000 63.210
46.38000 64.704
46.40000 69.699
46.42000 72.731
46.44000 71.621
46.46000 73.495
46.48000 77.307
46.50000 83.172
46.52000 83.178
46.54000 83.313
46.56000 83.682
46.58000 82.534
46.60000 81.192
46.62000 79.778
46.64000 79.638
46.66000 81.271
46.68000 88.952
46.70000 87.358
46.72000 92.819
46.74000 85.949
46.76000 86.428
46.78000 88.637
46.80000 88.923
46.82000 91.565
46.84000 91.393
46.86000 92.075
46.88000 96.864
46.90000 89.163
46.92000 85.090
46.94000 86.132
46.96000 85.922
46.98000 82.398
47.00000 84.095
47.02000 89.241
47.04000 90.596
47.06000 85.382
47.08000 85.536
47.10000 81.032
47.12000 82.178
47.14000 82.724
47.16000 75.778
47.18000 75.360
47.20000 71.593
47.22000 69.579
47.24000 79.462
47.26000 81.357
47.28000 69.403
47.30000 64.267
47.32000 60.472
47.34000 58.836
47.36000 63.054
47.38000 56.229
47.40000 56.319
47.42000 54.988
47.44000 50.007
47.46000 48.379
47.48000 45.576
47.50000 46.907
47.52000 46.491
47.54000 45.547
47.56000 46.891
47.58000 44.563
47.60000 41.249
47.62000 37.386
47.64000 41.462
47.66000 33.209
47.68000 28.775
47.70000 23.882
47.72000 34.000
47.74000 33.802
47.76000 29.443
47.78000 30.714
47.80000 26.317
47.82000 25.775
47.84000 25.263
47.86000 23.498
47.88000 29.924
47.90000 25.132
47.92000 22.033
47.94000 19.621
47.96000 14.325
47.98000 19.139
48.00000 25.181
48.02000 19.128
48.04000 18.242
48.06000 11.955
48.08000 16.938
48.10000 16.635
48.12000 15.242
48.14000 14.342
48.16000 14.610
48.18000 19.897
48.20000 15.219
48.22000 17.939
48.24000 16.133
48.26000 9.704
48.28000 11.355
48.30000 11.509
48.32000 5.878
48.34000 3.765
48.36000 8.626
48.38000 11.066
48.40000 7.808
48.42000 4.732
48.44000 6.268
48.46000 1.590
48.48000 -0.831
48.50000 5.239
48.52000 4.250
48.54000 2.993
48.56000 2.807
48.58000 -3.126
48.60000 4.135
48.62000 11.724
48.64000 10.618
48.66000 11.185
48.68000 7.035
48.70000 9.400
48.72000 14.536
48.74000 4.298
48.76000 2.984
48.78000 4.932
48.80000 10.424
48.82000 3.814
48.84000 -1.528
48.86000 1.645
48.88000 6.003
48.90000 5.752
48.92000 2.818
48.94000 2.811
48.96000 3.493
48.98000 1.752
49.00000 2.681
49.02000 3.513
49.04000 2.093
49.06000 1.282
49.08000 -1.491
49.10000 2.160
49.12000 6.016
49.14000 4.669
49.16000 4.144
49.18000 3.826
49.20000 4.536
49.22000 -1.114
49.24000 1.443
49.26000 7.265
49.28000 2.768
49.30000 -0.033
49.32000 -0.006
49.34000 5.309
49.36000 4.687
49.38000 3.248
49.40000 -0.620
49.42000 -1.507
49.44000 4.171
49.46000 4.625
49.48000 0.012
49.50000 1.075
49.52000 5.005
49.54000 7.416
49.56000 9.027
49.58000 2.551
49.60000 -2.683
49.62000 2.728
49.64000 7.286
49.66000 1.060
49.68000 2.789
49.70000 4.027
49.72000 2.509
49.74000 -1.488
49.76000 1.216
49.78000 7.448
49.80000 6.237
49.82000 4.646
49.84000 1.968
49.86000 8.653
49.88000 10.357
49.90000 1.796
49.92000 -2.976
49.94000 2.786
49.96000 6.682
49.98000 5.960
50.00000 6.666
50.02000 5.992
50.04000 2.798
50.06000 3.120
50.08000 1.620
50.10000 8.631
50.12000 3.555
50.14000 3.611
50.16000 3.985
50.18000 7.424
50.20000 6.034
50.22000 3.048
50.24000 0.785
50.26000 2.974
50.28000 0.438
50.30000 2.534
50.32000 5.473
50.34000 2.512
50.36000 -0.468
50.38000 0.868
50.40000 -0.728
50.42000 6.347
50.44000 5.887
50.46000 6.921
50.48000 6.934
50.50000 4.043
50.52000 7.590
50.54000 10.665
50.56000 8.108
50.58000 7.299
50.60000 5.964
50.62000 8.670
50.64000 11.491
50.66000 10.838
50.68000 10.736
50.70000 7.166
50.72000 6.416
50.74000 6.486
50.76000 7.500
50.78000 3.462
50.80000 -2.859
50.82000 3.928
50.84000 10.105
50.86000 7.533
50.88000 3.569
50.90000 4.652
50.92000 8.239
50.94000 11.076
50.96000 13.074
50.98000 13.568
51.00000 10.373
51.02000 3.540
51.04000 4.717
51.06000 9.258
51.08000 14.083
51.10000 11.194
51.12000 9.136
51.14000 7.514
51.16000 8.960
51.18000 4.935
51.20000 5.230
51.22000 7.319
51.24000 8.645
51.26000 6.659
51.28000 10.936
51.30000 13.408
51.32000 8.670
51.34000 3.670
51.36000 6.407
51.38000 3.473
51.40000 1.840
51.42000 4.917
51.44000 6.382
51.46000 4.814
51.48000 3.203
51.50000 4.857
51.52000 3.830
51.54000 8.055
51.56000 4.995
51.58000 0.808
51.60000 -2.607
51.62000 3.698
51.64000 4.506
51.66000 6.016
51.68000 6.480
51.70000 3.291
51.72000 5.559
51.74000 1.144
51.76000 4.075
51.78000 8.892
51.80000 6.286
51.82000 4.878
51.84000 4.330
51.86000 7.433
51.88000 4.921
51.90000 3.405
51.92000 3.138
51.94000 4.105
51.96000 5.407
51.98000 7.083
52.00000 4.176
52.02000 -2.712
52.04000 3.455
52.06000 2.443
52.08000 1.498
52.10000 1.282
52.12000 2.607
52.14000 5.316
52.16000 4.482
52.18000 0.712
52.20000 4.301
52.22000 6.842
52.24000 8.069
52.26000 4.346
52.28000 2.332
52.30000 3.267
52.32000 3.216
52.34000 2.727
52.36000 -0.446
52.38000 1.457
52.40000 3.445
52.42000 1.883
52.44000 2.674
52.46000 3.157
52.48000 3.968
52.50000 2.486
52.52000 -0.007
52.54000 -2.863
52.56000 -0.903
52.58000 3.685
52.60000 2.824
52.62000 3.793
52.64000 1.977
52.66000 2.383
52.68000 3.121
52.70000 3.347
52.72000 6.782
52.74000 -0.372
52.76000 3.612
52.78000 1.972
52.80000 -1.491
52.82000 5.793
52.84000 0.781
52.86000 -1.124
52.88000 0.680
52.90000 7.783
52.92000 11.785
52.94000 6.173
52.96000 2.293
52.98000 0.564
53.00000 2.517
53.02000 3.406
53.04000 1.704
53.06000 4.627
53.08000 3.640
53.10000 1.426
53.12000 3.660
53.14000 4.721
53.16000 1.013
53.18000 -1.736
53.20000 2.039
53.22000 6.673
53.24000 4.531
53.26000 3.234
53.28000 5.028
53.30000 5.984
53.32000 4.276
53.34000 0.637
53.36000 -1.689
53.38000 -0.072
53.40000 1.628
53.42000 0.359
53.44000 1.569
53.46000 -2.709
53.48000 -2.272
53.50000 -2.864
53.52000 0.278
53.54000 8.247
53.56000 6.498
53.58000 6.212
53.60000 1.060
53.62000 5.193
53.64000 3.098
53.66000 5.817
53.68000 3.444
53.70000 5.711
53.72000 4.979
53.74000 4.015
53.76000 0.469
53.78000 5.112
53.80000 3.007
53.82000 -1.089
53.84000 4.056
53.86000 1.699
53.88000 1.757
53.90000 8.327
53.92000 4.947
53.94000 3.837
53.96000 7.244
53.98000 6.823
54.00000 3.379
54.02000 3.167
54.04000 4.609
54.06000 6.140
54.08000 3.447
54.10000 0.366
54.12000 0.098
54.14000 1.256
54.16000 0.096
54.18000 -2.833
54.20000 1.966
54.22000 2.672
54.24000 3.283
54.26000 -0.481
54.28000 1.869
54.30000 0.552
54.32000 3.341
54.34000 1.959
54.36000 -0.445
54.38000 0.477
54.40000 2.637
54.42000 0.514
54.44000 2.795
54.46000 -0.140
54.48000 -2.080
54.50000 0.721
54.52000 -1.071
54.54000 1.500
54.56000 1.076
54.58000 5.619
54.60000 3.706
54.62000 1.041
54.64000 5.253
54.66000 3.642
54.68000 1.481
54.70000 0.731
54.72000 1.943
54.74000 2.727
54.76000 5.507
54.78000 4.425
54.80000 4.373
54.82000 1.684
54.84000 3.810
54.86000 5.857
54.88000 2.419
54.90000 4.488
54.92000 3.612
54.94000 4.565
54.96000 5.628
54.98000 0.713
55.00000 -2.799
55.02000 1.031
55.04000 5.020
55.06000 1.538
55.08000 3.433
55.10000 6.217
55.12000 4.602
55.14000 3.754
55.16000 3.521
55.18000 2.025
55.20000 6.156
55.22000 -0.837
55.24000 3.105
55.26000 11.546
55.28000 5.603
55.30000 7.175
55.32000 4.687
55.34000 4.475
55.36000 0.752
55.38000 2.323
55.40000 0.020
55.42000 3.774
55.44000 7.717
55.46000 5.885
55.48000 4.056
55.50000 1.967
55.52000 1.823
55.54000 0.774
55.56000 5.483
55.58000 5.249
55.60000 0.957
55.62000 -2.783
55.64000 1.085
55.66000 -0.337
55.68000 -0.396
55.70000 0.404
55.72000 2.269
55.74000 1.547
55.76000 5.953
55.78000 9.336
55.80000 7.980
55.82000 6.972
55.84000 0.342
55.86000 0.448
55.88000 2.753
55.90000 3.560
55.92000 3.642
55.94000 7.720
55.96000 3.920
55.98000 0.332
56.00000 0.744
56.02000 -0.388
56.04000 1.936
56.06000 3.398
56.08000 4.421
56.10000 5.853
56.12000 10.911
56.14000 6.604
56.16000 3.167
56.18000 -2.761
56.20000 0.963
56.22000 -1.637
56.24000 1.529
56.26000 2.893
56.28000 0.207
56.30000 9.116
56.32000 5.038
56.34000 5.541
56.36000 3.385
56.38000 6.423
56.40000 8.563
56.42000 5.978
56.44000 2.442
56.46000 1.899
56.48000 7.805
56.50000 -1.929
56.52000 -0.624
56.54000 -0.242
56.56000 3.171
56.58000 4.741
56.60000 3.901
56.62000 2.755
56.64000 0.432
56.66000 1.436
56.68000 5.299
56.70000 2.504
56.72000 3.887
56.74000 5.708
56.76000 7.344
56.78000 5.060
56.80000 7.869
56.82000 4.969
56.84000 3.152
56.86000 7.370
56.88000 5.437
56.90000 5.165
56.92000 3.272
56.94000 3.502
56.96000 2.729
56.98000 2.061
57.00000 3.115
57.02000 5.998
57.04000 5.682
57.06000 2.390
57.08000 0.236
57.10000 0.732
57.12000 1.791
57.14000 6.398
57.16000 9.423
57.18000 6.159
57.20000 7.970
57.22000 5.177
57.24000 3.094
57.26000 4.495
57.28000 10.134
57.30000 4.862
57.32000 2.724
57.34000 5.871
57.36000 8.397
57.38000 6.589
57.40000 5.330
57.42000 4.827
57.44000 -2.673
57.46000 3.865
57.48000 7.930
57.50000 9.130
57.52000 10.615
57.54000 4.269
57.56000 5.109
57.58000 7.960
57.60000 10.302
57.62000 8.489
57.64000 2.975
57.66000 1.378
57.68000 0.711
57.70000 3.677
57.72000 5.074
57.74000 2.191
57.76000 2.723
57.78000 0.957
57.80000 5.687
57.82000 6.389
57.84000 3.916
57.86000 2.701
57.88000 2.098
57.90000 -0.956
57.92000 0.956
57.94000 1.846
57.96000 -1.839
57.98000 4.240
58.00000 5.705
58.02000 0.197
58.04000 -0.835
58.06000 0.771
58.08000 5.483
58.10000 4.689
58.12000 -2.678
58.14000 2.017
58.16000 0.991
58.18000 2.065
58.20000 2.537
58.22000 5.028
58.24000 1.537
58.26000 3.664
58.28000 3.386
58.30000 -0.592
58.32000 -0.492
58.34000 1.912
58.36000 4.898
58.38000 5.569
58.40000 6.034
58.42000 5.679
58.44000 3.705
58.46000 6.066
58.48000 7.858
58.50000 7.216
58.52000 5.831
58.54000 9.526
58.56000 10.735
58.58000 4.457
58.60000 2.541
58.62000 2.642
58.64000 2.544
58.66000 3.639
58.68000 6.583
58.70000 5.814
58.72000 3.802
58.74000 4.097
58.76000 6.866
58.78000 -1.280
58.80000 1.174
58.82000 3.507
58.84000 1.581
58.86000 3.953
58.88000 2.590
58.90000 2.228
58.92000 2.048
58.94000 2.917
58.96000 3.899
58.98000 3.693
59.00000 4.692
59.02000 8.156
59.04000 12.480
59.06000 7.277
59.08000 6.572
59.10000 5.647
59.12000 -2.655
59.14000 -1.270
59.16000 2.212
59.18000 -0.365
59.20000 0.657
59.22000 5.927
59.24000 8.098
59.26000 5.543
59.28000 6.551
59.30000 5.018
59.32000 5.474
59.34000 3.035
59.36000 -2.621
59.38000 0.178
59.40000 2.919
59.42000 -0.164
59.44000 2.137
59.46000 3.116
59.48000 3.829
59.50000 -1.313
59.52000 0.170
59.54000 3.717
59.56000 3.347
59.58000 1.151
59.60000 0.670
59.62000 2.447
59.64000 -2.649
59.66000 -2.541
59.68000 -0.665
59.70000 1.856
59.72000 5.506
59.74000 3.331
59.76000 -0.662
59.78000 2.813
59.80000 5.386
59.82000 1.730
59.84000 5.794
59.86000 8.411
59.88000 9.767
59.90000 3.152
59.92000 -0.920
59.94000 4.258
59.96000 7.323
59.98000 3.854
60.00000 0.784
60.02000 2.996
60.04000 3.789
60.06000 2.294
60.08000 2.019
60.10000 3.481
60.12000 1.566
60.14000 0.953
60.16000 1.395
60.18000 -0.698
60.20000 4.524
60.22000 4.088
60.24000 2.052
60.26000 -0.356
60.28000 1.196
60.30000 -0.397
60.32000 1.633
60.34000 -2.195
60.36000 -2.621
60.38000 0.157
60.40000 4.698
60.42000 4.999
60.44000 1.909
60.46000 0.033
60.48000 2.200
60.50000 2.423
60.52000 5.413
60.54000 6.380
60.56000 3.878
60.58000 4.954
60.60000 1.586
60.62000 1.006
60.64000 -0.428
60.66000 6.704
60.68000 6.138
60.70000 2.931
60.72000 -0.743
60.74000 -1.793
60.76000 -0.973
60.78000 -1.637
60.80000 6.178
60.82000 5.322
60.84000 5.358
60.86000 2.439
60.88000 2.695
60.90000 2.931
60.92000 5.956
60.94000 8.228
60.96000 7.957
60.98000 8.312
61.00000 6.147
61.02000 0.303
61.04000 -2.572
61.06000 -1.634
61.08000 3.362
61.10000 6.066
61.12000 2.222
61.14000 1.247
61.16000 1.783
61.18000 3.985
61.20000 6.917
61.22000 7.357
61.24000 5.983
61.26000 9.531
61.28000 8.640
61.30000 6.152
61.32000 1.171
61.34000 -1.016
61.36000 1.874
61.38000 2.466
61.40000 3.344
61.42000 4.575
61.44000 2.566
61.46000 4.413
61.48000 0.932
61.50000 -1.591
61.52000 1.514
61.54000 2.817
61.56000 0.485
61.58000 4.123
61.60000 9.353
61.62000 5.517
61.64000 2.239
61.66000 1.370
61.68000 2.527
61.70000 3.522
61.72000 3.655
61.74000 1.179
61.76000 -0.068
61.78000 2.402
61.80000 3.788
61.82000 2.041
61.84000 1.556
61.86000 -1.585
61.88000 0.488
61.90000 1.374
61.92000 2.118
61.94000 3.110
61.96000 2.330
61.98000 3.009
62.00000 3.248
62.02000 1.492
62.04000 4.861
62.06000 4.346
62.08000 2.249
62.10000 1.061
62.12000 2.787
62.14000 0.138
62.16000 0.135
62.18000 1.489
62.20000 2.351
62.22000 0.351
62.24000 -0.971
62.26000 -2.009
62.28000 -0.842
62.30000 0.771
62.32000 3.954
62.34000 1.621
62.36000 -0.234
62.38000 0.099
62.40000 1.570
62.42000 0.144
62.44000 1.167
62.46000 -0.868
62.48000 1.583
62.50000 1.988
62.52000 -2.445
62.54000 -2.516
62.56000 0.970
62.58000 1.426
62.60000 1.853
62.62000 1.034
62.64000 4.247
62.66000 4.084
62.68000 2.145
62.70000 2.650
62.72000 -0.033
62.74000 -2.586
62.76000 -1.945
62.78000 -1.127
62.80000 -0.601
62.82000 0.892
62.84000 -0.575
62.86000 4.823
62.88000 6.294
62.90000 1.528
62.92000 1.696
62.94000 1.480
62.96000 1.563
62.98000 4.162
63.00000 3.409
63.02000 2.403
63.04000 1.677
63.06000 0.626
63.08000 -2.004
63.10000 -0.951
63.12000 3.678
63.14000 2.849
63.16000 -2.178
63.18000 -2.591
63.20000 -1.023
63.22000 5.554
63.24000 5.156
63.26000 0.331
63.28000 1.513
63.30000 2.233
63.32000 0.975
63.34000 0.125
63.36000 0.282
63.38000 3.246
63.40000 2.549
63.42000 2.358
63.44000 6.200
63.46000 7.218
63.48000 4.906
63.50000 3.365
63.52000 0.303
63.54000 2.694
63.56000 3.902
63.58000 1.504
63.60000 0.880
63.62000 1.698
63.64000 0.351
63.66000 2.307
63.68000 0.536
63.70000 -2.590
63.72000 0.303
63.74000 -0.409
63.76000 0.441
63.78000 2.197
63.80000 -0.408
63.82000 -0.209
63.84000 0.926
63.86000 -0.838
63.88000 1.846
63.90000 0.230
63.92000 -0.431
63.94000 4.224
63.96000 2.315
63.98000 2.360
64.00000 0.036
64.02000 -0.156
64.04000 0.434
64.06000 0.593
64.08000 4.006
64.10000 3.804
64.12000 -0.716
64.14000 -0.738
64.16000 0.762
64.18000 3.152
64.20000 5.377
64.22000 2.566
64.24000 4.957
64.26000 3.680
64.28000 3.164
64.30000 2.349
64.32000 3.850
64.34000 2.787
64.36000 -1.244
64.38000 -2.574
64.40000 -0.028
64.42000 1.565
64.44000 1.959
64.46000 0.788
64.48000 1.260
64.50000 1.298
64.52000 6.380
64.54000 3.620
64.56000 2.252
64.58000 2.344
64.60000 3.515
64.62000 1.750
64.64000 0.133
64.66000 1.942
64.68000 2.391
64.70000 4.825
64.72000 2.977
64.74000 1.894
64.76000 1.168
64.78000 3.573
64.80000 4.854
64.82000 5.047
64.84000 6.178
64.86000 4.089
64.88000 7.254
64.90000 2.301
64.92000 -1.884
64.94000 1.585
64.96000 1.046
64.98000 1.687
65.00000 1.595
65.02000 -0.177
65.04000 -1.998
65.06000 0.401
65.08000 3.773
65.10000 2.183
65.12000 1.909
65.14000 1.466
65.16000 3.455
65.18000 4.696
65.20000 1.487
65.22000 0.317
65.24000 2.959
65.26000 3.199
65.28000 5.416
65.30000 5.697
65.32000 5.793
65.34000 1.961
65.36000 3.370
65.38000 5.591
65.40000 5.490
65.42000 4.335
65.44000 3.024
65.46000 4.567
65.48000 5.528
65.50000 0.152
65.52000 -2.595
65.54000 -0.575
65.56000 -0.183
65.58000 0.470
65.60000 6.119
65.62000 4.941
65.64000 3.153
65.66000 4.751
65.68000 5.466
65.70000 2.178
65.72000 -0.931
65.74000 6.390
65.76000 4.210
65.78000 0.986
65.80000 0.686
65.82000 3.513
65.84000 3.130
65.86000 1.092
65.88000 2.938
65.90000 1.911
65.92000 1.433
65.94000 1.364
65.96000 3.822
65.98000 1.149
66.00000 -2.404
66.02000 -1.656
66.04000 -0.059
66.06000 1.110
66.08000 5.058
66.10000 4.317
66.12000 0.215
66.14000 -1.498
66.16000 -0.213
66.18000 0.629
66.20000 -1.291
66.22000 0.955
66.24000 2.345
66.26000 -1.112
66.28000 -2.142
66.30000 1.040
66.32000 3.444
66.34000 -0.680
66.36000 1.069
66.38000 1.035
66.40000 0.392
66.42000 1.725
66.44000 3.075
66.46000 1.988
66.48000 2.472
66.50000 3.492
66.52000 1.389
66.54000 1.741
66.56000 -1.619
66.58000 -1.163
66.60000 0.743
66.62000 2.913
66.64000 3.261
66.66000 3.232
66.68000 3.097
66.70000 3.418
66.72000 0.543
66.74000 1.284
66.76000 3.279
66.78000 -0.219
66.80000 -0.644
66.82000 -0.928
66.84000 -1.490
66.86000 -0.249
66.88000 -2.698
66.90000 -1.548
66.92000 0.630
66.94000 -0.045
66.96000 1.365
66.98000 2.062
67.00000 3.327
67.02000 4.620
67.04000 5.765
67.06000 5.080
67.08000 2.306
67.10000 4.258
67.12000 4.947
67.14000 6.083
67.16000 5.945
67.18000 6.558
67.20000 6.243
67.22000 3.311
67.24000 1.122
67.26000 4.220
67.28000 4.672
67.30000 0.941
67.32000 1.605
67.34000 2.878
67.36000 5.333
67.38000 8.412
67.40000 6.196
67.42000 3.880
67.44000 8.174
67.46000 4.470
67.48000 3.459
67.50000 6.940
67.52000 5.665
67.54000 4.706
67.56000 9.721
67.58000 10.311
67.60000 10.070
67.62000 10.896
67.64000 13.973
67.66000 15.012
67.68000 10.733
67.70000 7.166
67.72000 12.249
67.74000 15.620
67.76000 13.548
67.78000 13.452
67.80000 12.353
67.82000 16.520
67.84000 17.245
67.86000 12.335
67.88000 13.674
67.90000 14.054
67.92000 14.879
67.94000 20.069
67.96000 15.262
67.98000 12.482
68.00000 15.673
68.02000 14.799
68.04000 19.708
68.06000 18.023
68.08000 16.247
68.10000 14.066
68.12000 14.447
68.14000 16.387
68.16000 21.385
68.18000 20.152
68.20000 21.441
68.22000 21.892
68.24000 19.939
68.26000 16.911
68.28000 20.213
68.30000 18.211
68.32000 17.309
68.34000 22.694
68.36000 18.182
68.38000 13.546
68.40000 17.135
68.42000 16.391
68.44000 13.793
68.46000 16.650
68.48000 19.719
68.50000 22.351
68.52000 20.433
68.54000 18.497
68.56000 18.024
68.58000 17.818
68.60000 15.638
68.62000 13.178
68.64000 16.135
68.66000 16.823
68.68000 17.583
68.70000 14.288
68.72000 18.455
68.74000 15.560
68.76000 10.244
68.78000 8.729
68.80000 13.875
68.82000 13.640
68.84000 8.133
68.86000 7.790
68.88000 13.175
68.90000 10.200
68.92000 9.918
68.94000 7.615
68.96000 6.668
68.98000 11.437
69.00000 9.450
69.02000 10.529
69.04000 11.750
69.06000 7.140
69.08000 13.200
69.10000 8.896
69.12000 8.180
69.14000 8.518
69.16000 9.334
69.18000 7.862
69.20000 6.989
69.22000 4.313
69.24000 5.077
69.26000 6.205
69.28000 8.686
69.30000 4.046
69.32000 2.207
69.34000 2.598
69.36000 1.791
69.38000 2.955
69.40000 3.630
69.42000 1.118
69.44000 0.365
69.46000 0.633
69.48000 1.322
69.50000 2.190
69.52000 -0.187
69.54000 -1.422
69.56000 1.522
69.58000 1.490
69.60000 -2.626
69.62000 1.516
69.64000 1.181
69.66000 -1.578
69.68000 -1.068
69.70000 0.443
69.72000 2.619
69.74000 1.243
69.76000 -1.067
69.78000 -0.621
69.80000 4.343
69.82000 2.875
69.84000 -1.430
69.86000 -1.608
69.88000 3.019
69.90000 2.536
69.92000 -0.404
69.94000 4.111
69.96000 3.607
69.98000 5.031
70.00000 1.527
70.02000 3.848
70.04000 4.022
70.06000 -0.011
70.08000 1.298
70.10000 4.467
70.12000 5.681
70.14000 2.459
70.16000 2.918
70.18000 1.906
70.20000 -0.928
70.22000 -1.269
70.24000 0.869
70.26000 0.443
70.28000 3.268
70.30000 5.352
70.32000 4.409
70.34000 -2.534
70.36000 -1.556
70.38000 -0.234
70.40000 0.511
70.42000 -0.989
70.44000 -1.403
70.46000 -0.906
70.48000 1.972
70.50000 -0.284
70.52000 0.087
70.54000 2.202
70.56000 -1.563
70.58000 -0.291
70.60000 -1.086
70.62000 2.618
70.64000 0.235
70.66000 0.095
70.68000 2.393
70.70000 3.156
70.72000 1.952
70.74000 4.986
70.76000 5.794
70.78000 1.671
70.80000 -1.953
70.82000 -0.071
70.84000 0.103
70.86000 -2.502
70.88000 2.243
70.90000 1.300
70.92000 2.153
70.94000 5.127
70.96000 3.242
70.98000 2.058
71.00000 3.480
71.02000 1.726
71.04000 2.508
71.06000 1.467
71.08000 1.515
71.10000 2.454
71.12000 0.792
71.14000 -2.486
71.16000 0.545
71.18000 2.160
71.20000 2.476
71.22000 -0.202
71.24000 3.405
71.26000 3.001
71.28000 1.526
71.30000 1.808
71.32000 2.930
71.34000 -0.820
71.36000 -0.313
71.38000 -1.875
71.40000 -1.297
71.42000 -2.482
71.44000 2.389
71.46000 0.494
71.48000 2.981
71.50000 3.047
71.52000 -2.313
71.54000 -2.479
71.56000 -1.900
71.58000 0.932
71.60000 0.467
71.62000 -0.098
71.64000 0.853
71.66000 1.252
71.68000 0.283
71.70000 3.993
71.72000 4.374
71.74000 1.268
71.76000 -0.802
71.78000 1.209
71.80000 5.107
71.82000 2.895
71.84000 0.230
71.86000 -1.301
71.88000 0.790
71.90000 0.103
71.92000 -1.904
71.94000 -2.463
71.96000 1.607
71.98000 3.145
72.00000 2.017
72.02000 2.706
72.04000 6.761
72.06000 3.898
72.08000 4.383
72.10000 3.748
72.12000 -0.878
72.14000 -2.461
72.16000 -1.296
72.18000 2.727
72.20000 5.383
72.22000 5.721
72.24000 3.505
72.26000 3.239
72.28000 2.633
72.30000 -0.763
72.32000 0.570
72.34000 3.884
72.36000 0.033
72.38000 3.516
72.40000 4.260
72.42000 3.658
72.44000 3.298
72.46000 1.005
72.48000 0.849
72.50000 3.348
72.52000 2.344
72.54000 3.631
72.56000 3.011
72.58000 1.406
72.60000 2.999
72.62000 1.584
72.64000 0.854
72.66000 -0.668
72.68000 -1.474
72.70000 4.948
72.72000 6.284
72.74000 1.911
72.76000 0.642
72.78000 -1.061
72.80000 2.027
72.82000 0.612
72.84000 -1.877
72.86000 -2.430
72.88000 0.743
72.90000 -0.193
72.92000 1.225
72.94000 1.468
72.96000 -0.936
72.98000 -1.148
73.00000 0.013
73.02000 -0.101
73.04000 3.602
73.06000 1.972
73.08000 5.469
73.10000 8.943
73.12000 6.998
73.14000 0.366
73.16000 2.373
73.18000 4.986
73.20000 1.039
73.22000 4.414
73.24000 3.410
73.26000 4.855
73.28000 6.083
73.30000 0.593
73.32000 1.397
73.34000 -2.403
73.36000 1.399
73.38000 4.132
73.40000 4.212
73.42000 1.579
73.44000 2.141
73.46000 2.323
73.48000 3.798
73.50000 3.313
73.52000 4.294
73.54000 3.941
73.56000 2.736
73.58000 1.967
73.60000 3.693
73.62000 4.830
73.64000 2.623
73.66000 -1.887
73.68000 -2.401
73.70000 3.632
73.72000 1.069
73.74000 5.774
73.76000 6.366
73.78000 6.025
73.80000 4.679
73.82000 -0.938
73.84000 -1.422
73.86000 2.324
73.88000 3.349
73.90000 6.953
73.92000 5.001
73.94000 1.034
73.96000 0.005
73.98000 -0.712
74.00000 2.671
74.02000 1.253
74.04000 3.979
74.06000 3.187
74.08000 5.336
74.10000 4.011
74.12000 1.926
74.14000 1.059
74.16000 1.796
74.18000 0.285
74.20000 -1.810
74.22000 -2.406
74.24000 1.405
74.26000 3.554
74.28000 2.925
74.30000 4.071
74.32000 5.558
74.34000 3.625
74.36000 1.245
74.38000 0.081
74.40000 5.032
74.42000 2.342
74.44000 1.475
74.46000 -1.274
74.48000 1.406
74.50000 5.397
74.52000 -0.422
74.54000 1.035
74.56000 2.754
74.58000 2.308
74.60000 2.259
74.62000 6.651
74.64000 6.364
74.66000 1.818
74.68000 3.087
74.70000 4.604
74.72000 2.448
74.74000 -1.329
74.76000 -0.427
74.78000 -1.403
74.80000 0.118
74.82000 1.800
74.84000 0.655
74.86000 3.118
74.88000 1.682
74.90000 0.671
74.92000 0.994
74.94000 -2.329
74.96000 2.025
74.98000 3.988
75.00000 3.183
75.02000 3.701
75.04000 6.431
75.06000 7.904
75.08000 3.249
75.10000 6.333
75.12000 11.669
75.14000 9.098
75.16000 6.219
75.18000 6.327
75.20000 5.193
75.22000 2.271
75.24000 0.018
75.26000 -1.950
75.28000 0.461
75.30000 2.257
75.32000 -2.381
75.34000 1.469
75.36000 3.805
75.38000 2.171
75.40000 4.518
75.42000 8.467
75.44000 3.410
75.46000 1.760
75.48000 0.340
75.50000 7.146
75.52000 6.476
75.54000 5.400
75.56000 11.170
75.58000 6.240
75.60000 -0.941
75.62000 2.073
75.64000 3.824
75.66000 4.148
75.68000 0.198
75.70000 3.137
75.72000 5.104
75.74000 3.721
75.76000 5.088
75.78000 4.476
75.80000 2.782
75.82000 1.798
75.84000 5.023
75.86000 1.786
75.88000 2.779
75.90000 5.783
75.92000 5.928
75.94000 4.306
75.96000 6.711
75.98000 0.969
76.00000 0.500
76.02000 -2.383
76.04000 0.834
76.06000 3.380
76.08000 4.114
76.10000 -0.674
76.12000 -0.056
76.14000 2.639
76.16000 2.026
76.18000 0.692
76.20000 1.910
76.22000 7.807
76.24000 7.235
76.26000 4.432
76.28000 3.411
76.30000 -0.187
76.32000 2.085
76.34000 3.495
76.36000 1.028
76.38000 -1.218
76.40000 4.030
76.42000 7.613
76.44000 7.947
76.46000 5.043
76.48000 3.442
76.50000 1.387
76.52000 0.149
76.54000 4.792
76.56000 7.813
76.58000 4.407
76.60000 1.393
76.62000 2.276
76.64000 1.688
76.66000 -0.758
76.68000 0.749
76.70000 6.661
76.72000 1.730
76.74000 -0.436
76.76000 1.395
76.78000 2.886
76.80000 3.151
76.82000 4.296
76.84000 5.869
76.86000 3.779
76.88000 6.595
76.90000 4.087
76.92000 7.119
76.94000 5.973
76.96000 3.763
76.98000 2.624
77.00000 2.669
77.02000 1.747
77.04000 2.334
77.06000 7.627
77.08000 4.159
77.10000 5.446
77.12000 4.031
77.14000 4.829
77.16000 6.912
77.18000 8.368
77.20000 4.413
77.22000 8.373
77.24000 6.812
77.26000 -2.389
77.28000 2.631
77.30000 7.082
77.32000 2.158
77.34000 2.213
77.36000 2.745
77.38000 7.746
77.40000 6.210
77.42000 -0.239
77.44000 4.190
77.46000 2.305
77.48000 0.613
77.50000 -2.394
77.52000 4.051
77.54000 3.362
77.56000 4.049
77.58000 5.661
77.60000 1.728
77.62000 1.714
77.64000 6.144
77.66000 8.440
77.68000 4.696
77.70000 5.097
77.72000 9.753
77.74000 9.922
77.76000 9.702
77.78000 6.270
77.80000 4.086
77.82000 3.881
77.84000 4.845
77.86000 4.427
77.88000 6.990
77.90000 6.806
77.92000 8.595
77.94000 5.296
77.96000 4.079
77.98000 0.053
78.00000 1.214
78.02000 5.342
78.04000 7.331
78.06000 7.727
78.08000 7.571
78.10000 0.749
78.12000 5.794
78.14000 5.363
78.16000 -1.791
78.18000 5.407
78.20000 3.251
78.22000 -0.710
78.24000 3.743
78.26000 2.400
78.28000 2.174
78.30000 -0.219
78.32000 1.314
78.34000 1.794
78.36000 3.406
78.38000 2.950
78.40000 -0.448
78.42000 4.406
78.44000 2.145
78.46000 2.611
78.48000 3.465
78.50000 1.467
78.52000 2.106
78.54000 3.089
78.56000 2.766
78.58000 1.630
78.60000 0.055
78.62000 -0.551
78.64000 4.805
78.66000 5.481
78.68000 2.762
78.70000 2.856
78.72000 4.365
78.74000 0.756
78.76000 2.688
78.78000 3.279
78.80000 -2.449
78.82000 -1.155
78.84000 -2.472
78.86000 1.198
78.88000 4.356
78.90000 9.670
78.92000 7.020
78.94000 6.445
78.96000 4.544
78.98000 2.498
79.00000 -0.988
79.02000 2.554
79.04000 6.157
79.06000 4.926
79.08000 2.652
79.10000 1.062
79.12000 0.490
79.14000 0.366
79.16000 5.176
79.18000 7.175
79.20000 1.422
79.22000 0.605
79.24000 0.427
79.26000 1.571
79.28000 2.356
79.30000 2.560
79.32000 5.192
79.34000 5.864
79.36000 1.600
79.38000 -2.507
79.40000 4.617
79.42000 6.444
79.44000 3.259
79.46000 4.472
79.48000 3.777
79.50000 4.613
79.52000 -1.705
79.54000 -0.631
79.56000 3.770
79.58000 6.095
79.60000 6.761
79.62000 3.564
79.64000 2.117
79.66000 2.221
79.68000 1.300
79.70000 3.745
79.72000 -0.296
79.74000 -1.726
79.76000 -0.128
79.78000 3.154
79.80000 3.668
79.82000 4.740
79.84000 1.613
79.86000 4.499
79.88000 -2.529
79.90000 0.448
79.92000 -0.893
79.94000 -0.337
79.96000 7.071
79.98000 9.305
80.00000 5.017
80.02000 5.599
80.04000 4.891
80.06000 6.008
80.08000 3.625
80.10000 3.031
80.12000 0.764
80.14000 3.319
80.16000 4.238
80.18000 5.258
80.20000 3.270
80.22000 5.005
80.24000 8.595
80.26000 9.527
80.28000 7.327
80.30000 3.339
80.32000 1.028
80.34000 0.705
80.36000 -2.572
80.38000 0.206
80.40000 3.418
80.42000 3.391
80.44000 2.603
80.46000 3.812
80.48000 3.058
80.50000 2.573
80.52000 2.161
80.54000 1.959
80.56000 2.469
80.58000 4.479
80.60000 11.904
80.62000 6.076
80.64000 0.282
80.66000 0.523
80.68000 1.865
80.70000 2.993
80.72000 5.353
80.74000 7.318
80.76000 6.961
80.78000 4.255
80.80000 5.657
80.82000 2.065
80.84000 1.197
80.86000 4.670
80.88000 9.275
80.90000 3.801
80.92000 2.876
80.94000 7.668
80.96000 3.208
80.98000 1.786
81.00000 4.297
81.02000 1.570
81.04000 -0.867
81.06000 0.057
81.08000 4.456
81.10000 5.865
81.12000 4.255
81.14000 3.710
81.16000 4.992
81.18000 9.552
81.20000 9.183
81.22000 11.044
81.24000 6.950
81.26000 3.398
81.28000 4.613
81.30000 5.779
81.32000 6.724
81.34000 8.375
81.36000 15.339
81.38000 15.381
81.40000 9.764
81.42000 11.915
81.44000 13.506
81.46000 6.977
81.48000 8.858
81.50000 13.295
81.52000 14.973
81.54000 13.592
81.56000 13.843
81.58000 12.940
81.60000 11.772
81.62000 12.787
81.64000 13.201
81.66000 11.889
81.68000 7.416
81.70000 12.467
81.72000 20.833
81.74000 14.359
81.76000 14.022
81.78000 13.633
81.80000 14.711
81.82000 13.893
81.84000 17.268
81.86000 14.408
81.88000 15.985
81.90000 14.539
81.92000 16.507
81.94000 12.677
81.96000 13.299
81.98000 14.587
82.00000 17.361
82.02000 15.823
82.04000 20.095
82.06000 21.738
82.08000 20.489
82.10000 20.406
82.12000 22.108
82.14000 20.397
82.16000 17.638
82.18000 21.580
82.20000 23.730
82.22000 16.797
82.24000 22.042
82.26000 23.170
82.28000 26.097
82.30000 18.609
82.32000 14.125
82.34000 23.208
82.36000 31.622
82.38000 24.569
82.40000 23.723
82.42000 23.881
82.44000 21.935
82.46000 23.945
82.48000 25.721
82.50000 29.747
82.52000 26.414
82.54000 21.148
82.56000 30.531
82.58000 25.258
82.60000 24.956
82.62000 25.096
82.64000 19.360
82.66000 17.052
82.68000 24.125
82.70000 19.518
82.72000 16.522
82.74000 17.331
82.76000 20.553
82.78000 22.496
82.80000 20.872
82.82000 22.109
82.84000 23.687
82.86000 25.010
82.88000 18.078
82.90000 18.855
82.92000 20.129
82.94000 16.971
82.96000 21.623
82.98000 20.909
83.00000 22.006
83.02000 24.380
83.04000 25.660
83.06000 19.193
83.08000 15.394
83.10000 17.451
83.12000 16.650
83.14000 15.765
83.16000 15.862
83.18000 18.592
83.20000 17.559
83.22000 19.061
83.24000 16.714
83.26000 17.535
83.28000 15.648
83.30000 11.188
83.32000 14.512
83.34000 11.784
83.36000 17.521
83.38000 18.192
83.40000 11.112
83.42000 5.893
83.44000 9.697
83.46000 12.013
83.48000 12.829
83.50000 12.652
83.52000 10.495
83.54000 11.715
83.56000 8.589
83.58000 2.002
83.60000 5.607
83.62000 5.225
83.64000 4.597
83.66000 -0.450
83.68000 4.450
83.70000 5.313
83.72000 5.777
83.74000 7.074
83.76000 11.293
83.78000 11.013
83.80000 4.537
83.82000 0.029
83.84000 -0.519
83.86000 4.933
83.88000 8.931
83.90000 3.692
83.92000 -1.513
83.94000 3.331
83.96000 -0.195
83.98000 2.982
84.00000 2.746
84.02000 4.713
84.04000 6.070
84.06000 6.589
84.08000 3.848
84.10000 0.888
84.12000 -2.317
84.14000 -2.137
84.16000 -2.099
84.18000 -2.542
84.20000 0.237
84.22000 3.927
84.24000 6.202
84.26000 8.415
84.28000 8.512
84.30000 3.379
84.32000 5.010
84.34000 7.040
84.36000 8.587
84.38000 5.635
84.40000 3.695
84.42000 4.175
84.44000 1.443
84.46000 2.056
84.48000 2.821
84.50000 -2.492
84.52000 -2.261
84.54000 2.672
84.56000 7.056
84.58000 8.012
84.60000 5.373
84.62000 2.694
84.64000 4.590
84.66000 4.294
84.68000 6.969
84.70000 3.656
84.72000 0.897
84.74000 3.546
84.76000 3.807
84.78000 0.649
84.80000 -2.505
84.82000 2.478
84.84000 4.068
84.86000 4.903
84.88000 4.452
84.90000 8.924
84.92000 1.612
84.94000 3.978
84.96000 4.787
84.98000 2.109
85.00000 0.485
85.02000 4.226
85.04000 1.753
85.06000 4.243
85.08000 6.241
85.10000 6.772
85.12000 2.918
85.14000 0.846
85.16000 3.547
85.18000 0.740
85.20000 4.740
85.22000 3.624
85.24000 6.408
85.26000 2.763
85.28000 3.729
85.30000 5.306
85.32000 0.663
85.34000 1.528
85.36000 2.955
85.38000 0.516
85.40000 0.305
85.42000 -0.691
85.44000 2.995
85.46000 4.465
85.48000 4.823
85.50000 4.872
85.52000 4.953
85.54000 4.422
85.56000 4.988
85.58000 -0.099
85.60000 0.868
85.62000 2.650
85.64000 3.744
85.66000 6.015
85.68000 4.637
85.70000 0.636
85.72000 0.782
85.74000 7.482
85.76000 8.781
85.78000 0.423
85.80000 0.270
85.82000 4.225
85.84000 8.122
85.86000 7.963
85.88000 14.133
85.90000 10.375
85.92000 10.524
85.94000 7.497
85.96000 10.954
85.98000 13.440
86.00000 15.575
86.02000 16.462
86.04000 10.268
86.06000 14.642
86.08000 10.830
86.10000 8.944
86.12000 11.017
86.14000 14.328
86.16000 14.650
86.18000 13.859
86.20000 12.350
86.22000 19.167
86.24000 17.721
86.26000 12.357
86.28000 11.595
86.30000 13.492
86.32000 12.705
86.34000 14.265
86.36000 15.509
86.38000 20.703
86.40000 22.135
86.42000 21.735
86.44000 24.963
86.46000 24.518
86.48000 32.764
86.50000 28.148
86.52000 23.947
86.54000 22.694
86.56000 19.178
86.58000 18.779
86.60000 20.668
86.62000 20.285
86.64000 27.734
86.66000 26.459
86.68000 22.289
86.70000 22.781
86.72000 26.115
86.74000 27.230
86.76000 27.371
86.78000 23.409
86.80000 23.576
86.82000 20.594
86.84000 25.229
86.86000 24.413
86.88000 22.877
86.90000 18.277
86.92000 23.741
86.94000 21.469
86.96000 27.594
86.98000 22.942
87.00000 28.629
87.02000 27.523
87.04000 24.538
87.06000 25.965
87.08000 19.246
87.10000 20.979
87.12000 22.962
87.14000 23.367
87.16000 24.334
87.18000 24.775
87.20000 21.069
87.22000 23.283
87.24000 19.019
87.26000 17.987
87.28000 21.617
87.30000 21.287
87.32000 19.297
87.34000 16.143
87.36000 13.349
87.38000 14.919
87.40000 13.914
87.42000 18.700
87.44000 19.450
87.46000 19.610
87.48000 12.989
87.50000 12.650
87.52000 14.895
87.54000 13.550
87.56000 11.898
87.58000 13.758
87.60000 13.271
87.62000 12.247
87.64000 14.391
87.66000 12.664
87.68000 11.762
87.70000 6.370
87.72000 7.782
87.74000 4.867
87.76000 4.988
87.78000 6.148
87.80000 8.153
87.82000 6.360
87.84000 8.520
87.86000 6.897
87.88000 3.849
87.90000 8.440
87.92000 9.230
87.94000 6.833
87.96000 5.589
87.98000 5.690
88.00000 1.068
88.02000 1.467
88.04000 2.410
88.06000 -0.908
88.08000 -2.434
88.10000 8.319
88.12000 5.188
88.14000 2.846
88.16000 0.651
88.18000 2.819
88.20000 12.896
88.22000 9.537
88.24000 5.500
88.26000 5.519
88.28000 7.202
88.30000 5.264
88.32000 1.278
88.34000 3.884
88.36000 7.214
88.38000 7.885
88.40000 2.101
88.42000 -0.391
88.44000 5.259
88.46000 4.003
88.48000 2.884
88.50000 -0.177
88.52000 1.296
88.54000 1.817
88.56000 1.041
88.58000 1.411
88.60000 0.644
88.62000 -2.372
88.64000 1.392
88.66000 4.876
88.68000 2.848
88.70000 5.993
88.72000 1.465
88.74000 5.222
88.76000 3.011
88.78000 1.276
88.80000 -1.076
88.82000 0.735
88.84000 7.889
88.86000 2.095
88.88000 0.839
88.90000 1.179
88.92000 1.364
88.94000 2.090
88.96000 2.706
88.98000 1.238
89.00000 1.203
89.02000 4.754
89.04000 5.247
89.06000 4.890
89.08000 6.159
89.10000 5.979
89.12000 5.663
89.14000 1.181
89.16000 -1.647
89.18000 1.602
89.20000 0.886
89.22000 0.541
89.24000 1.115
89.26000 -2.293
89.28000 -0.211
89.30000 4.983
89.32000 6.253
89.34000 1.066
89.36000 0.133
89.38000 2.649
89.40000 3.445
89.42000 8.500
89.44000 9.279
89.46000 8.099
89.48000 4.047
89.50000 -1.585
89.52000 -0.301
89.54000 5.374
89.56000 7.537
89.58000 3.932
89.60000 -2.264
89.62000 1.299
89.64000 8.097
89.66000 11.963
89.68000 9.454
89.70000 7.844
89.72000 7.568
89.74000 8.267
89.76000 10.142
89.78000 8.123
89.80000 7.853
89.82000 2.487
89.84000 4.522
89.86000 1.446
89.88000 1.850
89.90000 9.751
89.92000 7.748
89.94000 3.009
89.96000 0.229
89.98000 -0.337
90.00000 2.818
90.02000 4.802
90.04000 1.458
90.06000 0.577
90.08000 5.813
90.10000 6.771
90.12000 6.202
90.14000 7.611
90.16000 8.857
90.18000 3.406
90.20000 4.500
90.22000 6.161
90.24000 7.722
90.26000 6.078
90.28000 6.497
90.30000 -0.182
90.32000 1.978
90.34000 5.007
90.36000 6.285
90.38000 2.063
90.40000 2.930
90.42000 7.639
90.44000 8.437
90.46000 10.591
90.48000 8.415
90.50000 8.313
90.52000 4.748
90.54000 10.003
90.56000 6.178
90.58000 3.399
90.60000 5.892
90.62000 6.597
90.64000 2.915
90.66000 7.150
90.68000 -2.202
90.70000 0.621
90.72000 8.416
90.74000 7.411
90.76000 11.916
90.78000 7.042
90.80000 4.160
90.82000 4.407
90.84000 -0.090
90.86000 1.242
90.88000 3.255
90.90000 4.202
90.92000 6.663
90.94000 4.380
90.96000 3.075
90.98000 7.163
91.00000 5.883
91.02000 8.395
91.04000 5.627
91.06000 2.422
91.08000 3.491
91.10000 4.774
91.12000 7.484
91.14000 9.601
91.16000 8.350
91.18000 5.176
91.20000 6.096
91.22000 7.746
91.24000 6.032
91.26000 9.164
91.28000 9.675
91.30000 4.507
91.32000 4.921
91.34000 7.024
91.36000 5.649
91.38000 4.531
91.40000 4.956
91.42000 0.824
91.44000 4.567
91.46000 8.246
91.48000 3.154
91.50000 0.712
91.52000 8.065
91.54000 6.229
91.56000 4.428
91.58000 1.413
91.60000 3.196
91.62000 6.189
91.64000 7.777
91.66000 4.811
91.68000 1.122
91.70000 2.551
91.72000 5.203
91.74000 3.636
91.76000 2.322
91.78000 2.102
91.80000 2.920
91.82000 4.371
91.84000 2.955
91.86000 6.535
91.88000 6.651
91.90000 4.802
91.92000 6.053
91.94000 7.409
91.96000 3.124
91.98000 0.081
92.00000 -1.598
92.02000 9.085
92.04000 3.114
92.06000 3.595
92.08000 6.971
92.10000 8.010
92.12000 3.813
92.14000 4.108
92.16000 6.999
92.18000 8.114
92.20000 4.183
92.22000 -0.265
92.24000 1.380
92.26000 3.596
92.28000 5.907
92.30000 13.671
92.32000 11.588
92.34000 10.786
92.36000 6.680
92.38000 6.527
92.40000 9.013
92.42000 8.879
92.44000 7.235
92.46000 7.508
92.48000 11.176
92.50000 9.712
92.52000 8.277
92.54000 3.504
92.56000 1.320
92.58000 8.695
92.60000 6.638
92.62000 5.484
92.64000 5.310
92.66000 6.064
92.68000 6.327
92.70000 2.795
92.72000 7.128
92.74000 3.712
92.76000 1.032
92.78000 -2.210
92.80000 2.919
92.82000 5.364
92.84000 7.105
92.86000 8.502
92.88000 7.078
92.90000 7.998
92.92000 8.306
92.94000 13.829
92.96000 11.132
92.98000 4.945
93.00000 2.863
93.02000 3.419
93.04000 6.451
93.06000 6.832
93.08000 5.541
93.10000 6.035
93.12000 5.165
93.14000 8.397
93.16000 0.396
93.18000 -2.232
93.20000 3.750
93.22000 4.482
93.24000 5.062
93.26000 3.100
93.28000 5.584
93.30000 6.195
93.32000 2.857
93.34000 2.878
93.36000 10.199
93.38000 10.005
93.40000 5.733
93.42000 -0.774
93.44000 -2.252
93.46000 1.973
93.48000 3.950
93.50000 6.605
93.52000 5.158
93.54000 4.012
93.56000 6.603
93.58000 8.019
93.60000 6.096
93.62000 1.475
93.64000 6.346
93.66000 7.364
93.68000 5.319
93.70000 5.972
93.72000 2.371
93.74000 2.501
93.76000 5.808
93.78000 -0.959
93.80000 -0.754
93.82000 2.453
93.84000 8.999
93.86000 4.772
93.88000 3.019
93.90000 2.684
93.92000 6.354
93.94000 5.784
93.96000 2.698
93.98000 4.734
94.00000 8.405
94.02000 3.695
94.04000 2.369
94.06000 3.336
94.08000 7.075
94.10000 2.065
94.12000 1.278
94.14000 1.196
94.16000 1.863
94.18000 0.654
94.20000 -2.291
94.22000 1.634
94.24000 5.682
94.26000 6.010
94.28000 1.104
94.30000 -0.209
94.32000 2.173
94.34000 5.117
94.36000 5.465
94.38000 3.895
94.40000 2.059
94.42000 2.016
94.44000 2.799
94.46000 3.686
94.48000 7.290
94.50000 4.494
94.52000 3.844
94.54000 2.635
94.56000 -1.308
94.58000 2.677
94.60000 4.895
94.62000 7.781
94.64000 6.752
94.66000 8.352
94.68000 8.336
94.70000 5.542
94.72000 5.257
94.74000 10.929
94.76000 4.555
94.78000 3.319
94.80000 2.679
94.82000 5.008
94.84000 3.220
94.86000 1.857
94.88000 2.571
94.90000 0.650
94.92000 1.255
94.94000 1.722
94.96000 -2.303
94.98000 -0.353
95.00000 1.342
95.02000 1.308
95.04000 2.161
95.06000 1.317
95.08000 2.576
95.10000 1.709
95.12000 3.311
95.14000 7.786
95.16000 8.392
95.18000 0.006
95.20000 -0.586
95.22000 -0.097
95.24000 3.476
95.26000 6.168
95.28000 7.071
95.30000 2.276
95.32000 5.894
95.34000 5.683
95.36000 2.042
95.38000 9.767
95.40000 8.134
95.42000 5.964
95.44000 7.809
95.46000 6.183
95.48000 6.664
95.50000 2.829
95.52000 -0.345
95.54000 3.524
95.56000 3.330
95.58000 3.069
95.60000 -0.424
95.62000 1.113
95.64000 -2.291
95.66000 4.018
95.68000 13.299
95.70000 7.760
95.72000 3.677
95.74000 2.878
95.76000 3.105
95.78000 5.026
95.80000 9.418
95.82000 6.135
95.84000 5.354
95.86000 2.252
95.88000 4.919
95.90000 5.012
95.92000 7.767
95.94000 4.551
95.96000 5.259
95.98000 5.606
96.00000 3.820
96.02000 0.530
96.04000 3.527
96.06000 0.842
96.08000 1.189
96.10000 2.661
96.12000 2.854
96.14000 6.861
96.16000 6.262
96.18000 8.850
96.20000 3.392
96.22000 -2.270
96.24000 -1.163
96.26000 3.498
96.28000 3.879
96.30000 3.319
96.32000 6.505
96.34000 9.240
96.36000 8.332
96.38000 5.708
96.40000 1.138
96.42000 1.171
96.44000 0.900
96.46000 6.027
96.48000 5.316
96.50000 1.451
96.52000 3.111
96.54000 6.186
96.56000 6.993
96.58000 4.971
96.60000 5.566
96.62000 2.857
96.64000 0.469
96.66000 4.321
96.68000 3.583
96.70000 3.400
96.72000 9.053
96.74000 8.093
96.76000 7.370
96.78000 2.598
96.80000 -2.250
96.82000 4.931
96.84000 10.216
96.86000 8.181
96.88000 7.861
96.90000 9.127
96.92000 5.673
96.94000 7.512
96.96000 -0.761
96.98000 1.286
97.00000 5.028
97.02000 8.004
97.04000 8.243
97.06000 8.759
97.08000 3.531
97.10000 2.281
97.12000 8.054
97.14000 4.518
97.16000 6.014
97.18000 12.796
97.20000 4.931
97.22000 5.746
97.24000 7.663
97.26000 6.533
97.28000 3.893
97.30000 4.010
97.32000 5.923
97.34000 2.254
97.36000 5.583
97.38000 4.741
97.40000 8.276
97.42000 8.385
97.44000 3.251
97.46000 4.165
97.48000 10.459
97.50000 11.615
97.52000 6.755
97.54000 10.310
97.56000 -0.260
97.58000 -2.128
97.60000 6.299
97.62000 7.911
97.64000 8.133
97.66000 1.987
97.68000 1.622
97.70000 3.543
97.72000 -2.222
97.74000 7.442
97.76000 12.085
97.78000 7.796
97.80000 9.606
97.82000 8.771
97.84000 4.111
97.86000 2.061
97.88000 2.311
97.90000 10.864
97.92000 12.157
97.94000 6.321
97.96000 -0.074
97.98000 6.852
98.00000 14.118
98.02000 9.795
98.04000 7.574
98.06000 11.552
98.08000 7.517
98.10000 12.877
98.12000 9.039
98.14000 6.874
98.16000 10.586
98.18000 13.799
98.20000 6.567
98.22000 4.389
98.24000 2.406
98.26000 5.228
98.28000 11.116
98.30000 -0.899
98.32000 4.094
98.34000 9.254
98.36000 6.558
98.38000 10.169
98.40000 5.033
98.42000 2.560
98.44000 4.879
98.46000 4.091
98.48000 2.749
98.50000 7.592
98.52000 9.317
98.54000 -0.038
98.56000 0.697
98.58000 4.545
98.60000 5.961
98.62000 9.930
98.64000 7.368
98.66000 5.729
98.68000 9.687
98.70000 11.127
98.72000 4.052
98.74000 -1.887
98.76000 1.015
98.78000 -2.172
98.80000 4.648
98.82000 9.244
98.84000 8.905
98.86000 9.078
98.88000 15.063
98.90000 15.145
98.92000 12.280
98.94000 10.745
98.96000 2.943
98.98000 12.255
99.00000 17.611
99.02000 7.663
99.04000 3.437
99.06000 8.051
99.08000 1.883
99.10000 19.485
99.12000 14.346
99.14000 -0.670
99.16000 0.335
99.18000 -2.188
99.20000 0.823
99.22000 4.432
99.24000 3.416
99.26000 4.097
99.28000 14.534
99.30000 5.134
99.32000 3.809
99.34000 6.610
99.36000 7.695
99.38000 11.503
99.40000 1.662
99.42000 2.204
99.44000 8.028
99.46000 7.774
99.48000 7.136
99.50000 0.946
99.52000 4.918
99.54000 3.016
99.56000 2.753
99.58000 1.815
99.60000 10.249
99.62000 7.782
99.64000 1.858
99.66000 3.539
99.68000 4.496
99.70000 1.043
99.72000 2.281
99.74000 1.913
99.76000 0.687
99.78000 -0.411
99.80000 -1.436
99.82000 20.185
99.84000 10.964
99.86000 2.308
99.88000 3.048
99.90000 9.064
99.92000 7.042
99.94000 15.427
99.96000 5.220
99.98000 0.000
