'Id: "0011388" Comment: "Integrate frame 0011388_Au-Ir-Rh_Rh-rich_XRD-Mapping-134-0000.gfrmwith cursor Wedge Cursor #5" Operator: "B?rgel" Anode: "Cu" Wavelength: "1.5406" Scantype: "2Theta (TwoTheta)" TimePerStep: "1" X: "40.5" Y: "-9" Z: "5.95" 
10.00000 0.000
10.02000 -2.981
10.04000 -1.584
10.06000 6.475
10.08000 5.006
10.10000 6.015
10.12000 10.140
10.14000 5.466
10.16000 1.378
10.18000 8.934
10.20000 -3.032
10.22000 1.005
10.24000 3.880
10.26000 8.794
10.28000 11.797
10.30000 8.121
10.32000 5.210
10.34000 -3.069
10.36000 8.469
10.38000 5.163
10.40000 8.987
10.42000 19.049
10.44000 18.787
10.46000 12.918
10.48000 17.990
10.50000 17.230
10.52000 10.184
10.54000 14.544
10.56000 20.180
10.58000 22.406
10.60000 22.786
10.62000 29.886
10.64000 13.127
10.66000 18.798
10.68000 23.290
10.70000 17.794
10.72000 14.478
10.74000 13.411
10.76000 18.364
10.78000 23.785
10.80000 26.705
10.82000 29.675
10.84000 12.307
10.86000 23.484
10.88000 29.651
10.90000 38.139
10.92000 30.123
10.94000 24.905
10.96000 29.217
10.98000 27.231
11.00000 29.126
11.02000 40.059
11.04000 29.282
11.06000 28.168
11.08000 28.769
11.10000 33.398
11.12000 31.861
11.14000 33.504
11.16000 34.770
11.18000 36.318
11.20000 29.940
11.22000 29.552
11.24000 31.098
11.26000 38.095
11.28000 34.972
11.30000 44.175
11.32000 37.121
11.34000 33.745
11.36000 34.477
11.38000 46.917
11.40000 40.881
11.42000 32.518
11.44000 25.779
11.46000 17.462
11.48000 29.505
11.50000 31.998
11.52000 32.561
11.54000 42.739
11.56000 43.862
11.58000 58.758
11.60000 51.436
11.62000 35.893
11.64000 33.858
11.66000 34.655
11.68000 41.239
11.70000 41.014
11.72000 44.147
11.74000 39.368
11.76000 43.171
11.78000 40.390
11.80000 33.962
11.82000 37.085
11.84000 45.118
11.86000 44.507
11.88000 45.267
11.90000 41.709
11.92000 39.665
11.94000 49.338
11.96000 41.226
11.98000 37.546
12.00000 49.078
12.02000 40.524
12.04000 43.975
12.06000 47.452
12.08000 46.986
12.10000 50.117
12.12000 52.251
12.14000 51.727
12.16000 45.849
12.18000 43.220
12.20000 51.608
12.22000 57.829
12.24000 59.439
12.26000 57.510
12.28000 51.101
12.30000 48.881
12.32000 53.272
12.34000 46.985
12.36000 46.915
12.38000 57.565
12.40000 63.830
12.42000 53.671
12.44000 45.819
12.46000 48.690
12.48000 46.900
12.50000 48.549
12.52000 48.613
12.54000 50.198
12.56000 53.295
12.58000 52.359
12.60000 57.519
12.62000 62.739
12.64000 56.267
12.66000 54.266
12.68000 55.297
12.70000 53.526
12.72000 53.669
12.74000 50.959
12.76000 45.078
12.78000 50.509
12.80000 59.841
12.82000 51.096
12.84000 38.544
12.86000 50.500
12.88000 56.642
12.90000 55.408
12.92000 60.330
12.94000 51.607
12.96000 53.598
12.98000 55.298
13.00000 52.317
13.02000 53.407
13.04000 53.427
13.06000 61.366
13.08000 61.767
13.10000 56.400
13.12000 49.307
13.14000 55.737
13.16000 57.261
13.18000 49.957
13.20000 44.041
13.22000 53.332
13.24000 54.541
13.26000 53.181
13.28000 49.182
13.30000 56.252
13.32000 58.521
13.34000 60.118
13.36000 55.142
13.38000 45.907
13.40000 48.966
13.42000 39.348
13.44000 44.831
13.46000 39.844
13.48000 42.780
13.50000 54.408
13.52000 40.512
13.54000 42.489
13.56000 38.388
13.58000 43.586
13.60000 42.872
13.62000 40.950
13.64000 54.377
13.66000 51.752
13.68000 50.202
13.70000 51.200
13.72000 46.080
13.74000 43.552
13.76000 52.592
13.78000 50.832
13.80000 53.818
13.82000 56.599
13.84000 50.217
13.86000 52.553
13.88000 52.111
13.90000 44.701
13.92000 41.495
13.94000 44.906
13.96000 48.141
13.98000 43.704
14.00000 41.623
14.02000 41.295
14.04000 40.617
14.06000 33.980
14.08000 44.769
14.10000 52.627
14.12000 47.306
14.14000 51.991
14.16000 50.927
14.18000 43.971
14.20000 43.869
14.22000 47.008
14.24000 44.646
14.26000 39.576
14.28000 41.087
14.30000 35.111
14.32000 37.098
14.34000 38.714
14.36000 40.454
14.38000 42.961
14.40000 47.657
14.42000 43.756
14.44000 49.948
14.46000 44.386
14.48000 38.148
14.50000 33.536
14.52000 39.191
14.54000 38.978
14.56000 33.256
14.58000 31.062
14.60000 29.546
14.62000 41.350
14.64000 38.348
14.66000 42.589
14.68000 32.649
14.70000 36.317
14.72000 41.426
14.74000 30.963
14.76000 19.297
14.78000 26.303
14.80000 44.522
14.82000 51.677
14.84000 44.784
14.86000 38.011
14.88000 32.056
14.90000 33.870
14.92000 37.893
14.94000 33.573
14.96000 36.063
14.98000 38.465
15.00000 45.235
15.02000 46.026
15.04000 29.957
15.06000 30.507
15.08000 37.814
15.10000 35.590
15.12000 33.658
15.14000 37.446
15.16000 45.213
15.18000 33.742
15.20000 34.968
15.22000 30.672
15.24000 28.416
15.26000 24.768
15.28000 32.163
15.30000 30.386
15.32000 28.095
15.34000 32.306
15.36000 37.450
15.38000 30.163
15.40000 29.820
15.42000 39.394
15.44000 37.409
15.46000 28.855
15.48000 29.504
15.50000 36.806
15.52000 34.309
15.54000 23.825
15.56000 30.969
15.58000 28.431
15.60000 24.615
15.62000 28.068
15.64000 37.180
15.66000 34.808
15.68000 22.406
15.70000 20.760
15.72000 24.968
15.74000 24.085
15.76000 25.599
15.78000 23.648
15.80000 23.798
15.82000 32.092
15.84000 35.884
15.86000 37.332
15.88000 32.422
15.90000 28.132
15.92000 29.301
15.94000 29.877
15.96000 28.653
15.98000 29.099
16.00000 25.080
16.02000 22.496
16.04000 25.151
16.06000 26.955
16.08000 22.352
16.10000 22.754
16.12000 26.945
16.14000 26.758
16.16000 26.783
16.18000 23.579
16.20000 24.269
16.22000 22.337
16.24000 12.176
16.26000 24.077
16.28000 26.355
16.30000 23.870
16.32000 23.025
16.34000 24.138
16.36000 22.748
16.38000 26.144
16.40000 23.654
16.42000 24.991
16.44000 21.738
16.46000 20.382
16.48000 21.540
16.50000 21.249
16.52000 25.371
16.54000 16.996
16.56000 12.195
16.58000 21.197
16.60000 18.370
16.62000 13.653
16.64000 14.320
16.66000 15.205
16.68000 21.205
16.70000 24.788
16.72000 17.366
16.74000 19.177
16.76000 21.223
16.78000 18.798
16.80000 27.036
16.82000 29.352
16.84000 23.832
16.86000 23.909
16.88000 20.466
16.90000 18.480
16.92000 23.219
16.94000 20.108
16.96000 21.772
16.98000 18.354
17.00000 20.334
17.02000 20.615
17.04000 17.691
17.06000 11.316
17.08000 12.986
17.10000 17.697
17.12000 15.331
17.14000 18.565
17.16000 16.567
17.18000 14.954
17.20000 15.897
17.22000 18.612
17.24000 19.035
17.26000 11.881
17.28000 17.931
17.30000 10.981
17.32000 13.898
17.34000 16.854
17.36000 13.614
17.38000 17.011
17.40000 16.888
17.42000 8.652
17.44000 11.028
17.46000 22.301
17.48000 18.625
17.50000 13.170
17.52000 12.028
17.54000 10.935
17.56000 5.459
17.58000 8.474
17.60000 16.022
17.62000 20.729
17.64000 18.442
17.66000 14.381
17.68000 15.161
17.70000 19.070
17.72000 20.219
17.74000 8.923
17.76000 15.962
17.78000 21.543
17.80000 12.965
17.82000 9.460
17.84000 15.310
17.86000 13.379
17.88000 10.661
17.90000 10.572
17.92000 8.116
17.94000 9.728
17.96000 10.266
17.98000 9.893
18.00000 10.088
18.02000 12.776
18.04000 14.860
18.06000 9.629
18.08000 4.827
18.10000 8.798
18.12000 16.336
18.14000 16.939
18.16000 12.608
18.18000 17.053
18.20000 12.792
18.22000 10.909
18.24000 10.647
18.26000 5.896
18.28000 8.516
18.30000 13.994
18.32000 13.020
18.34000 4.372
18.36000 10.078
18.38000 15.413
18.40000 14.337
18.42000 12.724
18.44000 3.910
18.46000 8.130
18.48000 13.661
18.50000 13.444
18.52000 11.274
18.54000 13.653
18.56000 18.544
18.58000 16.159
18.60000 8.838
18.62000 8.585
18.64000 14.193
18.66000 1.101
18.68000 -4.220
18.70000 4.859
18.72000 11.010
18.74000 9.242
18.76000 13.603
18.78000 14.620
18.80000 17.790
18.82000 11.551
18.84000 7.861
18.86000 8.579
18.88000 11.382
18.90000 12.998
18.92000 11.166
18.94000 13.001
18.96000 10.495
18.98000 6.448
19.00000 5.446
19.02000 5.382
19.04000 17.235
19.06000 13.047
19.08000 8.896
19.10000 7.309
19.12000 1.518
19.14000 7.803
19.16000 10.572
19.18000 8.416
19.20000 12.671
19.22000 12.967
19.24000 7.019
19.26000 6.347
19.28000 15.422
19.30000 19.681
19.32000 10.330
19.34000 3.341
19.36000 9.887
19.38000 5.710
19.40000 6.053
19.42000 6.642
19.44000 7.127
19.46000 7.400
19.48000 7.513
19.50000 6.318
19.52000 9.265
19.54000 12.912
19.56000 17.084
19.58000 9.587
19.60000 12.794
19.62000 8.318
19.64000 2.914
19.66000 2.143
19.68000 -0.101
19.70000 -2.694
19.72000 -0.616
19.74000 0.595
19.76000 1.516
19.78000 2.703
19.80000 18.200
19.82000 14.813
19.84000 15.733
19.86000 13.812
19.88000 12.867
19.90000 9.082
19.92000 4.910
19.94000 2.848
19.96000 4.570
19.98000 10.647
20.00000 10.825
20.02000 4.436
20.04000 0.700
20.06000 3.389
20.08000 7.725
20.10000 15.510
20.12000 11.934
20.14000 6.666
20.16000 4.782
20.18000 6.120
20.20000 7.172
20.22000 14.417
20.24000 2.047
20.26000 2.900
20.28000 2.786
20.30000 -4.207
20.32000 1.439
20.34000 4.823
20.36000 8.020
20.38000 9.820
20.40000 9.685
20.42000 4.541
20.44000 3.678
20.46000 6.199
20.48000 1.443
20.50000 2.575
20.52000 2.493
20.54000 4.095
20.56000 7.709
20.58000 6.574
20.60000 3.931
20.62000 -0.156
20.64000 3.158
20.66000 1.288
20.68000 7.979
20.70000 5.440
20.72000 9.244
20.74000 6.426
20.76000 5.672
20.78000 3.963
20.80000 0.816
20.82000 6.052
20.84000 5.586
20.86000 3.052
20.88000 3.035
20.90000 -2.927
20.92000 3.230
20.94000 2.100
20.96000 3.028
20.98000 5.999
21.00000 11.383
21.02000 8.379
21.04000 6.747
21.06000 2.953
21.08000 2.161
21.10000 5.712
21.12000 7.009
21.14000 6.291
21.16000 6.757
21.18000 5.332
21.20000 6.048
21.22000 -0.322
21.24000 -0.662
21.26000 1.497
21.28000 4.002
21.30000 11.028
21.32000 7.764
21.34000 4.297
21.36000 5.034
21.38000 3.928
21.40000 -4.137
21.42000 -2.036
21.44000 7.663
21.46000 7.111
21.48000 0.640
21.50000 0.781
21.52000 4.007
21.54000 6.252
21.56000 4.491
21.58000 2.743
21.60000 6.142
21.62000 5.392
21.64000 5.419
21.66000 2.363
21.68000 2.576
21.70000 7.201
21.72000 13.756
21.74000 8.805
21.76000 2.232
21.78000 4.531
21.80000 1.671
21.82000 9.360
21.84000 6.297
21.86000 5.743
21.88000 4.801
21.90000 2.187
21.92000 -2.256
21.94000 7.379
21.96000 4.097
21.98000 3.595
22.00000 6.708
22.02000 1.409
22.04000 6.531
22.06000 4.071
22.08000 -0.802
22.10000 -1.144
22.12000 -2.117
22.14000 -0.583
22.16000 -0.355
22.18000 4.210
22.20000 5.455
22.22000 2.984
22.24000 3.822
22.26000 2.807
22.28000 0.843
22.30000 6.189
22.32000 9.853
22.34000 7.799
22.36000 1.072
22.38000 2.904
22.40000 7.615
22.42000 -2.070
22.44000 -0.398
22.46000 0.607
22.48000 2.677
22.50000 3.152
22.52000 0.975
22.54000 -1.889
22.56000 -2.147
22.58000 -4.075
22.60000 -1.874
22.62000 0.071
22.64000 6.153
22.66000 3.300
22.68000 2.965
22.70000 7.167
22.72000 2.606
22.74000 4.170
22.76000 3.958
22.78000 0.966
22.80000 3.165
22.82000 4.589
22.84000 3.749
22.86000 5.585
22.88000 7.356
22.90000 6.546
22.92000 0.760
22.94000 2.794
22.96000 3.664
22.98000 4.175
23.00000 9.725
23.02000 3.139
23.04000 -0.230
23.06000 2.622
23.08000 3.085
23.10000 2.310
23.12000 8.330
23.14000 12.858
23.16000 10.520
23.18000 3.789
23.20000 1.682
23.22000 1.926
23.24000 7.584
23.26000 7.002
23.28000 6.991
23.30000 9.787
23.32000 11.536
23.34000 8.158
23.36000 6.582
23.38000 -2.493
23.40000 -0.832
23.42000 6.696
23.44000 6.205
23.46000 5.812
23.48000 4.318
23.50000 2.034
23.52000 4.212
23.54000 8.133
23.56000 7.008
23.58000 7.511
23.60000 2.693
23.62000 2.456
23.64000 4.010
23.66000 2.874
23.68000 4.287
23.70000 7.091
23.72000 4.899
23.74000 3.502
23.76000 6.479
23.78000 9.008
23.80000 5.745
23.82000 6.215
23.84000 6.899
23.86000 9.624
23.88000 8.169
23.90000 3.731
23.92000 3.546
23.94000 6.201
23.96000 7.761
23.98000 4.624
24.00000 -3.969
24.02000 0.924
24.04000 4.966
24.06000 5.663
24.08000 8.356
24.10000 10.864
24.12000 8.546
24.14000 5.817
24.16000 0.806
24.18000 5.295
24.20000 3.264
24.22000 4.020
24.24000 4.176
24.26000 6.193
24.28000 3.494
24.30000 4.884
24.32000 10.034
24.34000 9.520
24.36000 9.362
24.38000 5.305
24.40000 3.758
24.42000 10.240
24.44000 11.538
24.46000 3.840
24.48000 0.477
24.50000 4.205
24.52000 9.920
24.54000 7.762
24.56000 8.207
24.58000 4.425
24.60000 5.519
24.62000 2.021
24.64000 6.981
24.66000 8.509
24.68000 6.133
24.70000 4.830
24.72000 -0.800
24.74000 3.336
24.76000 2.219
24.78000 3.015
24.80000 1.212
24.82000 2.030
24.84000 7.476
24.86000 8.678
24.88000 4.759
24.90000 1.677
24.92000 1.147
24.94000 2.098
24.96000 5.818
24.98000 6.674
25.00000 9.797
25.02000 6.501
25.04000 -3.932
25.06000 -3.353
25.08000 1.296
25.10000 8.420
25.12000 11.282
25.14000 4.600
25.16000 8.791
25.18000 10.422
25.20000 6.444
25.22000 -0.205
25.24000 2.958
25.26000 10.589
25.28000 5.386
25.30000 4.233
25.32000 1.521
25.34000 1.526
25.36000 0.980
25.38000 7.284
25.40000 5.675
25.42000 7.754
25.44000 0.589
25.46000 -1.317
25.48000 5.136
25.50000 4.896
25.52000 7.856
25.54000 9.176
25.56000 7.217
25.58000 2.986
25.60000 0.994
25.62000 3.851
25.64000 7.219
25.66000 6.541
25.68000 6.899
25.70000 2.669
25.72000 -0.028
25.74000 3.774
25.76000 3.212
25.78000 0.155
25.80000 4.217
25.82000 5.736
25.84000 8.084
25.86000 4.756
25.88000 3.172
25.90000 4.912
25.92000 7.595
25.94000 10.888
25.96000 3.334
25.98000 2.581
26.00000 7.163
26.02000 5.212
26.04000 -1.809
26.06000 0.148
26.08000 0.086
26.10000 5.352
26.12000 6.748
26.14000 7.698
26.16000 1.670
26.18000 -3.875
26.20000 2.131
26.22000 0.424
26.24000 5.236
26.26000 4.059
26.28000 0.435
26.30000 4.585
26.32000 5.169
26.34000 3.067
26.36000 3.011
26.38000 -0.482
26.40000 -3.865
26.42000 -2.705
26.44000 0.968
26.46000 4.862
26.48000 6.187
26.50000 3.790
26.52000 1.756
26.54000 -0.463
26.56000 7.101
26.58000 2.142
26.60000 3.094
26.62000 2.320
26.64000 5.255
26.66000 1.362
26.68000 -0.476
26.70000 1.262
26.72000 7.187
26.74000 -0.762
26.76000 0.379
26.78000 7.378
26.80000 7.128
26.82000 8.072
26.84000 6.107
26.86000 5.594
26.88000 1.311
26.90000 -0.108
26.92000 0.418
26.94000 -2.823
26.96000 -0.070
26.98000 4.063
27.00000 5.251
27.02000 10.091
27.04000 2.185
27.06000 4.307
27.08000 4.119
27.10000 2.292
27.12000 4.189
27.14000 7.443
27.16000 4.155
27.18000 0.076
27.20000 -1.531
27.22000 1.001
27.24000 3.778
27.26000 3.825
27.28000 3.902
27.30000 0.471
27.32000 -3.384
27.34000 -0.385
27.36000 7.926
27.38000 6.606
27.40000 0.977
27.42000 2.111
27.44000 1.867
27.46000 3.488
27.48000 3.258
27.50000 1.951
27.52000 -2.494
27.54000 1.135
27.56000 -0.284
27.58000 -3.563
27.60000 -0.078
27.62000 5.207
27.64000 6.721
27.66000 7.260
27.68000 7.596
27.70000 4.457
27.72000 7.340
27.74000 0.723
27.76000 2.755
27.78000 5.331
27.80000 6.295
27.82000 8.442
27.84000 5.167
27.86000 1.510
27.88000 -1.226
27.90000 -3.794
27.92000 -1.073
27.94000 0.077
27.96000 2.044
27.98000 5.783
28.00000 8.288
28.02000 8.417
28.04000 3.476
28.06000 3.465
28.08000 1.718
28.10000 -2.013
28.12000 -1.496
28.14000 1.571
28.16000 1.120
28.18000 3.119
28.20000 4.187
28.22000 8.371
28.24000 4.372
28.26000 3.602
28.28000 7.355
28.30000 1.533
28.32000 -1.638
28.34000 -3.555
28.36000 -2.225
28.38000 -1.922
28.40000 -3.269
28.42000 1.965
28.44000 4.502
28.46000 1.965
28.48000 -1.153
28.50000 -0.238
28.52000 0.918
28.54000 1.391
28.56000 6.154
28.58000 8.182
28.60000 5.956
28.62000 3.495
28.64000 3.818
28.66000 5.870
28.68000 3.692
28.70000 5.101
28.72000 9.827
28.74000 4.299
28.76000 2.749
28.78000 4.366
28.80000 5.786
28.82000 7.672
28.84000 5.446
28.86000 1.555
28.88000 1.227
28.90000 -2.153
28.92000 -0.411
28.94000 6.719
28.96000 9.476
28.98000 6.873
29.00000 7.154
29.02000 4.923
29.04000 2.887
29.06000 3.072
29.08000 4.389
29.10000 2.257
29.12000 2.912
29.14000 0.927
29.16000 0.755
29.18000 4.843
29.20000 2.294
29.22000 4.451
29.24000 5.789
29.26000 0.645
29.28000 -3.718
29.30000 -0.886
29.32000 3.000
29.34000 0.821
29.36000 3.202
29.38000 2.853
29.40000 3.475
29.42000 3.331
29.44000 -2.110
29.46000 2.083
29.48000 1.915
29.50000 5.707
29.52000 4.708
29.54000 6.138
29.56000 2.228
29.58000 0.026
29.60000 -2.113
29.62000 1.254
29.64000 4.397
29.66000 9.255
29.68000 5.097
29.70000 -0.947
29.72000 -2.674
29.74000 -0.787
29.76000 7.420
29.78000 4.818
29.80000 2.018
29.82000 8.736
29.84000 8.240
29.86000 1.839
29.88000 3.344
29.90000 3.592
29.92000 1.584
29.94000 -2.688
29.96000 0.639
29.98000 2.203
30.00000 3.106
30.02000 1.398
30.04000 2.776
30.06000 3.975
30.08000 1.109
30.10000 2.409
30.12000 1.112
30.14000 -0.081
30.16000 2.930
30.18000 3.528
30.20000 1.365
30.22000 -2.305
30.24000 -3.678
30.26000 -2.340
30.28000 -1.116
30.30000 -0.625
30.32000 -0.444
30.34000 -2.049
30.36000 -0.086
30.38000 -1.345
30.40000 -0.948
30.42000 -2.350
30.44000 1.994
30.46000 2.494
30.48000 -1.598
30.50000 1.008
30.52000 1.583
30.54000 2.009
30.56000 -1.590
30.58000 1.553
30.60000 -0.151
30.62000 -2.575
30.64000 -2.309
30.66000 2.826
30.68000 -0.710
30.70000 -1.142
30.72000 6.376
30.74000 -0.024
30.76000 -2.055
30.78000 3.012
30.80000 0.456
30.82000 0.902
30.84000 1.406
30.86000 0.017
30.88000 1.119
30.90000 6.071
30.92000 3.389
30.94000 -0.315
30.96000 3.060
30.98000 8.746
31.00000 5.035
31.02000 0.291
31.04000 -1.153
31.06000 2.430
31.08000 7.540
31.10000 5.284
31.12000 3.931
31.14000 5.872
31.16000 0.639
31.18000 2.050
31.20000 6.058
31.22000 3.991
31.24000 3.927
31.26000 1.140
31.28000 6.284
31.30000 3.677
31.32000 0.741
31.34000 4.408
31.36000 1.900
31.38000 -2.821
31.40000 0.574
31.42000 7.530
31.44000 4.160
31.46000 6.714
31.48000 6.432
31.50000 3.830
31.52000 2.602
31.54000 3.718
31.56000 8.180
31.58000 6.081
31.60000 1.310
31.62000 -3.615
31.64000 1.141
31.66000 0.374
31.68000 1.790
31.70000 3.348
31.72000 0.114
31.74000 3.422
31.76000 5.588
31.78000 2.022
31.80000 4.155
31.82000 2.529
31.84000 1.007
31.86000 -1.754
31.88000 0.504
31.90000 2.474
31.92000 4.210
31.94000 2.938
31.96000 -0.544
31.98000 1.502
32.00000 3.247
32.02000 0.481
32.04000 0.374
32.06000 3.898
32.08000 4.680
32.10000 1.947
32.12000 -0.792
32.14000 2.016
32.16000 3.754
32.18000 2.461
32.20000 0.897
32.22000 -0.588
32.24000 3.485
32.26000 4.199
32.28000 0.759
32.30000 1.613
32.32000 0.440
32.34000 1.874
32.36000 -0.498
32.38000 -1.047
32.40000 1.312
32.42000 1.774
32.44000 3.118
32.46000 4.520
32.48000 8.732
32.50000 6.927
32.52000 4.605
32.54000 3.607
32.56000 8.634
32.58000 6.779
32.60000 2.786
32.62000 1.294
32.64000 -1.084
32.66000 0.477
32.68000 2.844
32.70000 5.661
32.72000 6.142
32.74000 5.725
32.76000 3.415
32.78000 4.014
32.80000 2.788
32.82000 3.398
32.84000 4.754
32.86000 -0.113
32.88000 2.977
32.90000 1.145
32.92000 -0.352
32.94000 -2.350
32.96000 0.315
32.98000 -0.399
33.00000 3.116
33.02000 6.754
33.04000 6.851
33.06000 3.615
33.08000 3.304
33.10000 -3.544
33.12000 5.835
33.14000 6.082
33.16000 6.196
33.18000 4.340
33.20000 7.013
33.22000 5.052
33.24000 5.444
33.26000 7.866
33.28000 5.236
33.30000 7.358
33.32000 4.864
33.34000 5.100
33.36000 3.542
33.38000 4.653
33.40000 0.130
33.42000 6.589
33.44000 8.868
33.46000 8.439
33.48000 8.999
33.50000 10.290
33.52000 7.705
33.54000 6.997
33.56000 3.617
33.58000 -0.091
33.60000 3.320
33.62000 5.254
33.64000 9.621
33.66000 5.020
33.68000 2.904
33.70000 5.615
33.72000 3.643
33.74000 5.857
33.76000 7.746
33.78000 5.762
33.80000 6.317
33.82000 5.647
33.84000 3.107
33.86000 1.598
33.88000 1.498
33.90000 3.001
33.92000 4.599
33.94000 6.037
33.96000 8.148
33.98000 7.742
34.00000 6.737
34.02000 4.828
34.04000 6.670
34.06000 7.598
34.08000 5.353
34.10000 -3.545
34.12000 2.362
34.14000 2.433
34.16000 5.062
34.18000 3.250
34.20000 -2.763
34.22000 -1.917
34.24000 0.135
34.26000 0.700
34.28000 0.507
34.30000 3.899
34.32000 1.793
34.34000 1.751
34.36000 2.112
34.38000 0.056
34.40000 -0.180
34.42000 6.508
34.44000 6.174
34.46000 4.208
34.48000 3.801
34.50000 4.250
34.52000 0.219
34.54000 -0.658
34.56000 3.777
34.58000 -0.368
34.60000 1.971
34.62000 1.744
34.64000 2.731
34.66000 3.295
34.68000 -2.705
34.70000 -2.569
34.72000 0.024
34.74000 2.293
34.76000 1.175
34.78000 1.922
34.80000 1.672
34.82000 -3.283
34.84000 -1.573
34.86000 2.227
34.88000 0.459
34.90000 0.972
34.92000 5.929
34.94000 7.996
34.96000 5.776
34.98000 3.614
35.00000 -1.965
35.02000 -3.313
35.04000 -0.817
35.06000 0.309
35.08000 2.184
35.10000 -0.317
35.12000 -3.108
35.14000 -1.866
35.16000 1.811
35.18000 7.777
35.20000 4.448
35.22000 4.792
35.24000 -0.747
35.26000 0.345
35.28000 -0.302
35.30000 3.172
35.32000 2.950
35.34000 0.481
35.36000 -3.505
35.38000 -1.667
35.40000 4.125
35.42000 6.443
35.44000 9.057
35.46000 4.484
35.48000 0.899
35.50000 3.455
35.52000 0.390
35.54000 -1.633
35.56000 -1.073
35.58000 1.306
35.60000 2.080
35.62000 4.453
35.64000 4.712
35.66000 0.046
35.68000 0.730
35.70000 0.955
35.72000 -0.489
35.74000 -0.969
35.76000 0.903
35.78000 -3.508
35.80000 1.627
35.82000 5.314
35.84000 -0.188
35.86000 -2.187
35.88000 0.308
35.90000 -1.574
35.92000 0.418
35.94000 3.481
35.96000 5.297
35.98000 4.913
36.00000 4.268
36.02000 3.893
36.04000 -0.007
36.06000 1.301
36.08000 1.877
36.10000 7.139
36.12000 4.760
36.14000 6.884
36.16000 2.833
36.18000 4.511
36.20000 6.504
36.22000 3.553
36.24000 6.655
36.26000 3.631
36.28000 2.402
36.30000 6.779
36.32000 5.446
36.34000 0.177
36.36000 -0.323
36.38000 -1.051
36.40000 -1.835
36.42000 -2.032
36.44000 -1.262
36.46000 4.842
36.48000 8.062
36.50000 6.073
36.52000 4.044
36.54000 5.195
36.56000 3.619
36.58000 3.501
36.60000 0.418
36.62000 2.795
36.64000 2.200
36.66000 2.768
36.68000 -0.325
36.70000 4.333
36.72000 6.642
36.74000 5.034
36.76000 -1.647
36.78000 -3.003
36.80000 -3.489
36.82000 -2.630
36.84000 1.495
36.86000 1.163
36.88000 3.701
36.90000 6.149
36.92000 6.756
36.94000 5.549
36.96000 1.929
36.98000 1.846
37.00000 7.631
37.02000 -2.466
37.04000 1.808
37.06000 7.695
37.08000 6.377
37.10000 5.967
37.12000 7.553
37.14000 0.513
37.16000 -3.513
37.18000 2.732
37.20000 3.400
37.22000 1.435
37.24000 -1.532
37.26000 4.269
37.28000 2.290
37.30000 2.106
37.32000 3.765
37.34000 4.002
37.36000 0.444
37.38000 1.174
37.40000 1.400
37.42000 4.382
37.44000 3.746
37.46000 6.526
37.48000 2.172
37.50000 0.780
37.52000 -0.516
37.54000 2.010
37.56000 5.301
37.58000 3.880
37.60000 -0.502
37.62000 4.585
37.64000 2.267
37.66000 -2.612
37.68000 2.429
37.70000 -0.194
37.72000 -1.509
37.74000 3.192
37.76000 6.459
37.78000 1.534
37.80000 1.395
37.82000 4.749
37.84000 7.276
37.86000 8.956
37.88000 5.328
37.90000 -0.444
37.92000 1.124
37.94000 2.815
37.96000 4.430
37.98000 2.362
38.00000 3.964
38.02000 5.243
38.04000 2.269
38.06000 1.795
38.08000 -0.712
38.10000 1.680
38.12000 8.031
38.14000 5.622
38.16000 4.917
38.18000 3.966
38.20000 0.943
38.22000 -0.834
38.24000 0.547
38.26000 9.772
38.28000 12.501
38.30000 10.876
38.32000 8.042
38.34000 9.337
38.36000 11.162
38.38000 12.158
38.40000 5.970
38.42000 9.864
38.44000 12.600
38.46000 12.164
38.48000 11.844
38.50000 13.726
38.52000 10.570
38.54000 12.803
38.56000 15.304
38.58000 20.909
38.60000 17.665
38.62000 13.818
38.64000 15.683
38.66000 13.348
38.68000 16.389
38.70000 19.547
38.72000 19.308
38.74000 17.146
38.76000 15.556
38.78000 16.697
38.80000 15.638
38.82000 17.342
38.84000 17.824
38.86000 16.810
38.88000 24.610
38.90000 30.091
38.92000 27.243
38.94000 22.204
38.96000 22.423
38.98000 28.017
39.00000 24.901
39.02000 25.128
39.04000 18.936
39.06000 22.976
39.08000 28.650
39.10000 29.534
39.12000 24.661
39.14000 28.222
39.16000 30.509
39.18000 26.233
39.20000 27.495
39.22000 30.721
39.24000 30.526
39.26000 31.926
39.28000 35.371
39.30000 35.872
39.32000 38.496
39.34000 41.757
39.36000 41.373
39.38000 41.314
39.40000 45.656
39.42000 45.396
39.44000 41.979
39.46000 45.461
39.48000 50.749
39.50000 48.674
39.52000 54.867
39.54000 56.441
39.56000 57.352
39.58000 62.322
39.60000 66.032
39.62000 69.229
39.64000 74.206
39.66000 76.806
39.68000 79.532
39.70000 79.717
39.72000 84.847
39.74000 91.595
39.76000 93.081
39.78000 92.125
39.80000 98.131
39.82000 102.837
39.84000 105.095
39.86000 114.215
39.88000 123.167
39.90000 124.976
39.92000 131.705
39.94000 142.160
39.96000 143.565
39.98000 153.649
40.00000 160.661
40.02000 169.655
40.04000 181.211
40.06000 186.329
40.08000 193.851
40.10000 203.805
40.12000 217.882
40.14000 225.347
40.16000 234.681
40.18000 243.489
40.20000 256.236
40.22000 270.151
40.24000 292.608
40.26000 306.981
40.28000 309.709
40.30000 326.679
40.32000 336.478
40.34000 353.560
40.36000 372.049
40.38000 392.978
40.40000 407.944
40.42000 412.753
40.44000 435.286
40.46000 463.459
40.48000 481.842
40.50000 489.869
40.52000 503.654
40.54000 523.054
40.56000 538.153
40.58000 549.819
40.60000 568.544
40.62000 580.742
40.64000 604.561
40.66000 605.841
40.68000 614.848
40.70000 623.936
40.72000 618.918
40.74000 637.678
40.76000 645.144
40.78000 658.468
40.80000 663.282
40.82000 659.284
40.84000 660.210
40.86000 649.283
40.88000 645.975
40.90000 646.852
40.92000 631.553
40.94000 630.388
40.96000 620.994
40.98000 604.445
41.00000 597.182
41.02000 577.770
41.04000 549.731
41.06000 528.072
41.08000 520.092
41.10000 500.069
41.12000 488.861
41.14000 481.864
41.16000 459.351
41.18000 427.815
41.20000 414.040
41.22000 398.036
41.24000 379.816
41.26000 367.321
41.28000 349.059
41.30000 327.008
41.32000 318.184
41.34000 302.912
41.36000 289.041
41.38000 268.610
41.40000 256.878
41.42000 238.475
41.44000 229.976
41.46000 219.803
41.48000 206.359
41.50000 194.061
41.52000 184.305
41.54000 177.303
41.56000 172.576
41.58000 160.224
41.60000 148.997
41.62000 142.702
41.64000 136.051
41.66000 129.358
41.68000 119.586
41.70000 111.981
41.72000 107.376
41.74000 98.366
41.76000 99.728
41.78000 99.686
41.80000 91.376
41.82000 84.359
41.84000 80.958
41.86000 76.083
41.88000 74.989
41.90000 69.589
41.92000 66.354
41.94000 58.366
41.96000 51.106
41.98000 53.768
42.00000 49.497
42.02000 45.813
42.04000 44.886
42.06000 42.224
42.08000 42.749
42.10000 42.655
42.12000 40.181
42.14000 32.228
42.16000 33.278
42.18000 32.316
42.20000 29.460
42.22000 29.042
42.24000 27.395
42.26000 30.251
42.28000 23.647
42.30000 24.700
42.32000 23.104
42.34000 21.888
42.36000 27.629
42.38000 26.139
42.40000 21.921
42.42000 18.472
42.44000 15.767
42.46000 16.801
42.48000 17.073
42.50000 17.174
42.52000 12.129
42.54000 14.800
42.56000 12.793
42.58000 10.000
42.60000 9.277
42.62000 12.625
42.64000 10.630
42.66000 10.753
42.68000 11.252
42.70000 12.145
42.72000 9.654
42.74000 12.399
42.76000 10.888
42.78000 6.074
42.80000 7.088
42.82000 7.637
42.84000 5.463
42.86000 4.380
42.88000 1.267
42.90000 2.427
42.92000 2.603
42.94000 4.494
42.96000 4.210
42.98000 6.416
43.00000 1.112
43.02000 0.120
43.04000 0.341
43.06000 4.334
43.08000 -1.201
43.10000 0.280
43.12000 -0.241
43.14000 1.816
43.16000 -0.972
43.18000 -0.344
43.20000 1.293
43.22000 1.654
43.24000 1.531
43.26000 0.725
43.28000 0.261
43.30000 2.463
43.32000 -2.067
43.34000 1.027
43.36000 6.823
43.38000 7.112
43.40000 1.532
43.42000 4.227
43.44000 1.590
43.46000 0.175
43.48000 -1.315
43.50000 -2.733
43.52000 0.001
43.54000 -1.164
43.56000 1.239
43.58000 0.479
43.60000 3.707
43.62000 -1.425
43.64000 -3.586
43.66000 -0.673
43.68000 4.250
43.70000 5.489
43.72000 4.502
43.74000 2.936
43.76000 1.007
43.78000 3.277
43.80000 2.892
43.82000 -3.067
43.84000 -0.806
43.86000 3.839
43.88000 7.656
43.90000 3.959
43.92000 -2.119
43.94000 -2.700
43.96000 -0.425
43.98000 2.036
44.00000 2.951
44.02000 -1.029
44.04000 -0.179
44.06000 0.859
44.08000 0.792
44.10000 -2.479
44.12000 4.606
44.14000 3.157
44.16000 3.204
44.18000 -2.002
44.20000 -1.396
44.22000 0.828
44.24000 4.878
44.26000 5.934
44.28000 7.417
44.30000 -2.475
44.32000 -3.522
44.34000 2.081
44.36000 5.917
44.38000 1.225
44.40000 2.220
44.42000 3.301
44.44000 4.116
44.46000 6.910
44.48000 2.542
44.50000 3.131
44.52000 2.580
44.54000 0.469
44.56000 0.850
44.58000 3.218
44.60000 2.272
44.62000 0.913
44.64000 0.143
44.66000 3.559
44.68000 4.995
44.70000 3.652
44.72000 1.875
44.74000 1.888
44.76000 5.755
44.78000 6.975
44.80000 5.073
44.82000 1.814
44.84000 4.185
44.86000 2.589
44.88000 -2.312
44.90000 -1.039
44.92000 -1.847
44.94000 0.297
44.96000 7.531
44.98000 4.533
45.00000 1.564
45.02000 -0.751
45.04000 3.826
45.06000 5.344
45.08000 6.029
45.10000 2.885
45.12000 -0.353
45.14000 -1.282
45.16000 2.717
45.18000 5.140
45.20000 7.894
45.22000 8.420
45.24000 4.932
45.26000 4.879
45.28000 3.470
45.30000 1.310
45.32000 -3.513
45.34000 2.236
45.36000 5.399
45.38000 6.156
45.40000 6.850
45.42000 4.725
45.44000 -1.661
45.46000 8.079
45.48000 10.736
45.50000 6.516
45.52000 2.670
45.54000 2.484
45.56000 0.818
45.58000 0.905
45.60000 6.221
45.62000 8.785
45.64000 12.274
45.66000 11.189
45.68000 8.235
45.70000 9.832
45.72000 7.169
45.74000 9.538
45.76000 12.854
45.78000 11.691
45.80000 9.636
45.82000 9.297
45.84000 11.341
45.86000 11.794
45.88000 15.419
45.90000 11.814
45.92000 13.080
45.94000 12.849
45.96000 10.303
45.98000 14.592
46.00000 22.243
46.02000 19.783
46.04000 14.224
46.06000 9.211
46.08000 9.821
46.10000 10.133
46.12000 16.733
46.14000 19.623
46.16000 13.682
46.18000 14.651
46.20000 14.280
46.22000 17.300
46.24000 27.931
46.26000 21.919
46.28000 24.339
46.30000 24.205
46.32000 25.879
46.34000 24.412
46.36000 24.900
46.38000 29.354
46.40000 25.255
46.42000 20.459
46.44000 25.919
46.46000 32.571
46.48000 31.370
46.50000 25.663
46.52000 21.582
46.54000 30.854
46.56000 38.376
46.58000 36.231
46.60000 39.778
46.62000 34.255
46.64000 37.059
46.66000 42.581
46.68000 44.601
46.70000 40.323
46.72000 40.332
46.74000 38.863
46.76000 44.963
46.78000 47.493
46.80000 49.992
46.82000 48.465
46.84000 50.941
46.86000 50.059
46.88000 45.038
46.90000 49.036
46.92000 51.420
46.94000 56.854
46.96000 55.621
46.98000 53.519
47.00000 52.068
47.02000 57.671
47.04000 67.994
47.06000 65.383
47.08000 63.156
47.10000 66.225
47.12000 69.693
47.14000 63.127
47.16000 62.551
47.18000 66.332
47.20000 71.018
47.22000 74.161
47.24000 68.029
47.26000 68.805
47.28000 66.794
47.30000 74.857
47.32000 71.922
47.34000 69.956
47.36000 64.958
47.38000 67.509
47.40000 67.520
47.42000 64.417
47.44000 65.053
47.46000 69.285
47.48000 68.367
47.50000 68.474
47.52000 61.752
47.54000 55.635
47.56000 64.320
47.58000 69.862
47.60000 62.237
47.62000 56.442
47.64000 54.532
47.66000 54.610
47.68000 62.173
47.70000 64.300
47.72000 66.735
47.74000 59.894
47.76000 51.534
47.78000 57.021
47.80000 51.432
47.82000 50.483
47.84000 51.203
47.86000 47.545
47.88000 39.924
47.90000 40.105
47.92000 47.088
47.94000 43.761
47.96000 34.842
47.98000 35.049
48.00000 33.628
48.02000 39.105
48.04000 44.254
48.06000 37.126
48.08000 31.794
48.10000 29.799
48.12000 28.282
48.14000 31.470
48.16000 32.623
48.18000 27.529
48.20000 21.708
48.22000 22.701
48.24000 19.604
48.26000 13.572
48.28000 14.936
48.30000 15.866
48.32000 22.579
48.34000 21.654
48.36000 17.162
48.38000 21.117
48.40000 17.895
48.42000 20.016
48.44000 21.382
48.46000 13.231
48.48000 15.727
48.50000 18.842
48.52000 14.736
48.54000 8.718
48.56000 7.336
48.58000 6.322
48.60000 7.150
48.62000 12.307
48.64000 12.438
48.66000 9.369
48.68000 7.416
48.70000 3.741
48.72000 2.266
48.74000 2.543
48.76000 4.300
48.78000 2.312
48.80000 3.259
48.82000 3.732
48.84000 2.159
48.86000 1.171
48.88000 3.519
48.90000 4.201
48.92000 4.748
48.94000 4.128
48.96000 3.866
48.98000 -0.307
49.00000 0.964
49.02000 -2.405
49.04000 -1.044
49.06000 3.486
49.08000 4.057
49.10000 6.454
49.12000 7.531
49.14000 0.180
49.16000 4.527
49.18000 0.788
49.20000 -1.246
49.22000 0.316
49.24000 2.445
49.26000 -0.936
49.28000 1.665
49.30000 4.205
49.32000 7.436
49.34000 5.432
49.36000 8.842
49.38000 3.365
49.40000 4.912
49.42000 1.691
49.44000 0.200
49.46000 1.736
49.48000 -1.143
49.50000 0.681
49.52000 0.971
49.54000 5.529
49.56000 2.036
49.58000 1.937
49.60000 8.475
49.62000 8.772
49.64000 11.484
49.66000 9.581
49.68000 7.307
49.70000 4.440
49.72000 5.607
49.74000 5.110
49.76000 3.695
49.78000 1.194
49.80000 1.254
49.82000 5.214
49.84000 9.156
49.86000 6.533
49.88000 0.623
49.90000 3.925
49.92000 -0.304
49.94000 -3.062
49.96000 2.883
49.98000 4.421
50.00000 0.034
50.02000 5.508
50.04000 2.647
50.06000 2.751
50.08000 2.627
50.10000 3.552
50.12000 6.043
50.14000 10.759
50.16000 9.121
50.18000 7.477
50.20000 1.997
50.22000 0.722
50.24000 5.926
50.26000 6.898
50.28000 5.044
50.30000 5.657
50.32000 6.937
50.34000 5.775
50.36000 2.624
50.38000 3.851
50.40000 3.957
50.42000 4.362
50.44000 3.957
50.46000 2.692
50.48000 9.655
50.50000 5.200
50.52000 1.356
50.54000 8.696
50.56000 4.953
50.58000 4.303
50.60000 5.542
50.62000 4.275
50.64000 0.818
50.66000 0.614
50.68000 1.664
50.70000 2.925
50.72000 -1.180
50.74000 -1.269
50.76000 -1.737
50.78000 -2.381
50.80000 -2.232
50.82000 0.878
50.84000 1.594
50.86000 0.217
50.88000 2.762
50.90000 1.218
50.92000 2.922
50.94000 0.172
50.96000 3.762
50.98000 2.066
51.00000 3.521
51.02000 0.298
51.04000 -1.285
51.06000 0.283
51.08000 5.854
51.10000 5.881
51.12000 3.117
51.14000 -2.123
51.16000 -0.054
51.18000 2.092
51.20000 0.761
51.22000 -1.335
51.24000 5.237
51.26000 2.830
51.28000 6.759
51.30000 3.314
51.32000 -0.683
51.34000 4.536
51.36000 6.345
51.38000 6.581
51.40000 6.802
51.42000 5.867
51.44000 11.786
51.46000 8.922
51.48000 3.167
51.50000 -0.323
51.52000 1.296
51.54000 -2.978
51.56000 -2.977
51.58000 5.582
51.60000 10.414
51.62000 9.258
51.64000 7.510
51.66000 1.834
51.68000 -0.326
51.70000 4.382
51.72000 6.407
51.74000 7.657
51.76000 6.099
51.78000 1.553
51.80000 0.030
51.82000 -0.483
51.84000 3.784
51.86000 3.710
51.88000 4.672
51.90000 2.361
51.92000 3.411
51.94000 2.016
51.96000 -2.579
51.98000 0.179
52.00000 2.987
52.02000 5.118
52.04000 6.022
52.06000 3.790
52.08000 4.739
52.10000 2.160
52.12000 4.586
52.14000 8.573
52.16000 3.333
52.18000 5.489
52.20000 9.670
52.22000 8.063
52.24000 7.610
52.26000 3.997
52.28000 2.822
52.30000 3.554
52.32000 2.895
52.34000 2.710
52.36000 1.155
52.38000 1.275
52.40000 1.797
52.42000 2.880
52.44000 3.286
52.46000 8.575
52.48000 10.903
52.50000 10.778
52.52000 3.011
52.54000 3.494
52.56000 3.380
52.58000 4.613
52.60000 1.569
52.62000 0.229
52.64000 0.611
52.66000 -1.120
52.68000 -2.930
52.70000 -0.149
52.72000 6.354
52.74000 10.370
52.76000 6.596
52.78000 10.373
52.80000 5.796
52.82000 3.435
52.84000 0.972
52.86000 4.952
52.88000 6.444
52.90000 9.841
52.92000 11.221
52.94000 7.163
52.96000 5.214
52.98000 1.149
53.00000 2.893
53.02000 6.786
53.04000 1.047
53.06000 1.947
53.08000 -1.705
53.10000 0.672
53.12000 8.263
53.14000 3.646
53.16000 2.606
53.18000 4.260
53.20000 8.919
53.22000 7.923
53.24000 10.547
53.26000 4.982
53.28000 7.379
53.30000 6.561
53.32000 2.857
53.34000 -2.898
53.36000 7.069
53.38000 8.828
53.40000 5.146
53.42000 3.674
53.44000 5.620
53.46000 0.503
53.48000 0.539
53.50000 0.464
53.52000 1.979
53.54000 3.943
53.56000 1.569
53.58000 -1.885
53.60000 5.000
53.62000 3.787
53.64000 2.435
53.66000 4.650
53.68000 2.137
53.70000 1.339
53.72000 4.662
53.74000 4.513
53.76000 2.776
53.78000 3.162
53.80000 5.579
53.82000 2.098
53.84000 1.910
53.86000 4.837
53.88000 6.288
53.90000 2.606
53.92000 1.232
53.94000 1.047
53.96000 4.405
53.98000 -0.341
54.00000 -2.907
54.02000 0.565
54.04000 8.399
54.06000 9.633
54.08000 4.547
54.10000 1.740
54.12000 1.756
54.14000 9.658
54.16000 10.725
54.18000 11.881
54.20000 5.787
54.22000 4.250
54.24000 6.376
54.26000 3.272
54.28000 1.101
54.30000 3.716
54.32000 2.773
54.34000 6.024
54.36000 5.726
54.38000 3.503
54.40000 2.834
54.42000 0.791
54.44000 5.021
54.46000 4.815
54.48000 -1.341
54.50000 -0.494
54.52000 1.052
54.54000 3.016
54.56000 8.867
54.58000 11.454
54.60000 4.869
54.62000 2.493
54.64000 3.375
54.66000 1.354
54.68000 -0.067
54.70000 -0.653
54.72000 -2.899
54.74000 0.180
54.76000 -0.211
54.78000 0.914
54.80000 4.430
54.82000 0.715
54.84000 3.441
54.86000 7.509
54.88000 6.164
54.90000 -0.304
54.92000 4.878
54.94000 0.963
54.96000 4.404
54.98000 1.691
55.00000 -1.245
55.02000 -2.887
55.04000 1.654
55.06000 4.444
55.08000 2.634
55.10000 -1.009
55.12000 5.174
55.14000 4.624
55.16000 2.316
55.18000 0.947
55.20000 2.538
55.22000 -1.668
55.24000 1.679
55.26000 2.629
55.28000 3.962
55.30000 3.912
55.32000 -0.327
55.34000 3.936
55.36000 -1.879
55.38000 -0.269
55.40000 3.413
55.42000 5.880
55.44000 7.196
55.46000 4.440
55.48000 1.267
55.50000 2.199
55.52000 5.625
55.54000 4.357
55.56000 3.740
55.58000 5.052
55.60000 0.737
55.62000 -1.593
55.64000 -0.144
55.66000 1.443
55.68000 1.845
55.70000 6.295
55.72000 3.422
55.74000 8.556
55.76000 6.343
55.78000 2.508
55.80000 5.045
55.82000 2.772
55.84000 2.488
55.86000 2.916
55.88000 0.249
55.90000 2.377
55.92000 3.520
55.94000 0.918
55.96000 8.824
55.98000 8.836
56.00000 8.680
56.02000 0.086
56.04000 1.987
56.06000 1.448
56.08000 2.678
56.10000 1.872
56.12000 1.558
56.14000 2.713
56.16000 0.945
56.18000 -2.827
56.20000 0.267
56.22000 6.503
56.24000 3.803
56.26000 5.731
56.28000 3.342
56.30000 5.141
56.32000 6.521
56.34000 -0.269
56.36000 0.586
56.38000 2.657
56.40000 4.429
56.42000 4.622
56.44000 1.946
56.46000 1.496
56.48000 2.014
56.50000 7.304
56.52000 0.995
56.54000 5.156
56.56000 5.068
56.58000 2.995
56.60000 1.585
56.62000 1.516
56.64000 0.874
56.66000 -1.280
56.68000 1.785
56.70000 5.515
56.72000 1.451
56.74000 4.599
56.76000 1.973
56.78000 -0.516
56.80000 -0.880
56.82000 -0.891
56.84000 3.000
56.86000 1.822
56.88000 0.421
56.90000 3.432
56.92000 3.811
56.94000 1.117
56.96000 -0.805
56.98000 3.166
57.00000 7.624
57.02000 2.648
57.04000 1.359
57.06000 2.849
57.08000 0.484
57.10000 3.999
57.12000 5.650
57.14000 3.645
57.16000 6.075
57.18000 7.226
57.20000 5.702
57.22000 3.332
57.24000 6.797
57.26000 6.310
57.28000 7.704
57.30000 1.901
57.32000 -2.777
57.34000 -0.602
57.36000 2.678
57.38000 -0.400
57.40000 0.658
57.42000 3.925
57.44000 8.302
57.46000 10.026
57.48000 8.293
57.50000 3.483
57.52000 1.955
57.54000 3.168
57.56000 3.323
57.58000 2.109
57.60000 2.485
57.62000 3.766
57.64000 1.840
57.66000 1.257
57.68000 7.197
57.70000 11.887
57.72000 12.654
57.74000 4.180
57.76000 1.544
57.78000 3.500
57.80000 4.656
57.82000 3.601
57.84000 6.273
57.86000 2.078
57.88000 2.495
57.90000 0.557
57.92000 3.405
57.94000 3.879
57.96000 6.269
57.98000 2.190
58.00000 1.812
58.02000 5.969
58.04000 5.746
58.06000 3.845
58.08000 6.176
58.10000 4.942
58.12000 -1.208
58.14000 4.326
58.16000 2.992
58.18000 6.140
58.20000 6.817
58.22000 5.307
58.24000 2.150
58.26000 -1.313
58.28000 0.109
58.30000 0.664
58.32000 1.733
58.34000 4.353
58.36000 6.511
58.38000 2.220
58.40000 4.333
58.42000 4.026
58.44000 5.698
58.46000 5.821
58.48000 5.924
58.50000 6.167
58.52000 6.031
58.54000 1.906
58.56000 -2.750
58.58000 0.266
58.60000 5.375
58.62000 13.175
58.64000 7.535
58.66000 7.388
58.68000 6.762
58.70000 8.939
58.72000 2.933
58.74000 0.532
58.76000 0.292
58.78000 -1.044
58.80000 2.413
58.82000 3.595
58.84000 5.481
58.86000 4.676
58.88000 8.010
58.90000 6.159
58.92000 5.788
58.94000 5.471
58.96000 -0.551
58.98000 -2.729
59.00000 -0.535
59.02000 3.134
59.04000 6.085
59.06000 3.847
59.08000 0.712
59.10000 -0.267
59.12000 6.465
59.14000 5.570
59.16000 0.848
59.18000 3.252
59.20000 5.851
59.22000 3.657
59.24000 7.869
59.26000 4.504
59.28000 3.736
59.30000 1.989
59.32000 -0.247
59.34000 0.426
59.36000 4.221
59.38000 4.268
59.40000 8.052
59.42000 0.720
59.44000 0.450
59.46000 2.620
59.48000 -0.345
59.50000 4.053
59.52000 8.565
59.54000 10.037
59.56000 2.975
59.58000 3.253
59.60000 5.235
59.62000 3.149
59.64000 2.429
59.66000 4.032
59.68000 7.274
59.70000 2.574
59.72000 1.202
59.74000 1.621
59.76000 -2.725
59.78000 0.692
59.80000 -0.990
59.82000 -0.201
59.84000 1.292
59.86000 2.959
59.88000 2.800
59.90000 4.977
59.92000 0.321
59.94000 -2.234
59.96000 2.274
59.98000 1.024
60.00000 4.085
60.02000 8.547
60.04000 2.539
60.06000 1.633
60.08000 4.021
60.10000 6.045
60.12000 5.501
60.14000 3.646
60.16000 2.021
60.18000 0.127
60.20000 0.737
60.22000 -1.019
60.24000 2.060
60.26000 2.364
60.28000 2.253
60.30000 2.646
60.32000 1.567
60.34000 6.780
60.36000 4.671
60.38000 1.857
60.40000 -0.584
60.42000 0.244
60.44000 3.796
60.46000 3.570
60.48000 3.934
60.50000 -1.443
60.52000 4.089
60.54000 4.857
60.56000 6.312
60.58000 7.715
60.60000 4.219
60.62000 6.768
60.64000 3.893
60.66000 1.030
60.68000 0.590
60.70000 -0.546
60.72000 -2.667
60.74000 1.141
60.76000 8.642
60.78000 7.738
60.80000 4.325
60.82000 1.768
60.84000 3.477
60.86000 4.877
60.88000 5.822
60.90000 7.075
60.92000 11.468
60.94000 10.961
60.96000 5.384
60.98000 6.181
61.00000 5.995
61.02000 6.710
61.04000 5.875
61.06000 5.057
61.08000 5.330
61.10000 1.790
61.12000 4.442
61.14000 7.395
61.16000 3.543
61.18000 0.428
61.20000 -1.516
61.22000 1.360
61.24000 3.143
61.26000 -1.531
61.28000 -0.194
61.30000 -0.663
61.32000 -2.646
61.34000 -1.198
61.36000 -1.037
61.38000 4.351
61.40000 5.167
61.42000 -1.031
61.44000 0.712
61.46000 0.344
61.48000 1.934
61.50000 1.795
61.52000 6.471
61.54000 3.580
61.56000 1.678
61.58000 -1.837
61.60000 4.426
61.62000 5.141
61.64000 7.267
61.66000 3.858
61.68000 7.810
61.70000 0.335
61.72000 0.125
61.74000 -0.919
61.76000 5.297
61.78000 -0.385
61.80000 4.806
61.82000 10.854
61.84000 5.227
61.86000 0.604
61.88000 4.482
61.90000 4.176
61.92000 -2.387
61.94000 -2.099
61.96000 -0.869
61.98000 -0.322
62.00000 0.027
62.02000 2.527
62.04000 3.969
62.06000 2.869
62.08000 -0.113
62.10000 0.009
62.12000 3.180
62.14000 0.587
62.16000 -0.651
62.18000 -1.372
62.20000 -1.936
62.22000 2.877
62.24000 4.358
62.26000 -0.197
62.28000 3.579
62.30000 3.550
62.32000 1.820
62.34000 -2.309
62.36000 -2.615
62.38000 0.602
62.40000 1.060
62.42000 2.708
62.44000 1.433
62.46000 1.547
62.48000 3.318
62.50000 0.016
62.52000 -0.571
62.54000 -0.633
62.56000 1.269
62.58000 4.717
62.60000 4.077
62.62000 1.264
62.64000 -0.154
62.66000 3.538
62.68000 -0.566
62.70000 -2.642
62.72000 2.646
62.74000 4.983
62.76000 1.564
62.78000 -0.589
62.80000 -2.641
62.82000 -1.464
62.84000 0.704
62.86000 -0.780
62.88000 -0.558
62.90000 3.731
62.92000 7.242
62.94000 1.562
62.96000 -0.858
62.98000 2.088
63.00000 0.307
63.02000 1.027
63.04000 1.642
63.06000 7.129
63.08000 4.269
63.10000 0.924
63.12000 -1.736
63.14000 -0.257
63.16000 2.563
63.18000 4.034
63.20000 2.004
63.22000 2.848
63.24000 0.418
63.26000 1.232
63.28000 3.194
63.30000 -2.255
63.32000 2.138
63.34000 0.011
63.36000 -0.606
63.38000 0.278
63.40000 0.427
63.42000 -2.477
63.44000 -1.087
63.46000 3.371
63.48000 5.142
63.50000 2.328
63.52000 2.944
63.54000 2.820
63.56000 5.526
63.58000 3.709
63.60000 2.529
63.62000 0.693
63.64000 0.828
63.66000 -2.612
63.68000 -1.343
63.70000 5.825
63.72000 1.027
63.74000 -0.736
63.76000 1.936
63.78000 3.433
63.80000 2.724
63.82000 2.972
63.84000 1.559
63.86000 4.655
63.88000 8.014
63.90000 3.994
63.92000 2.782
63.94000 2.399
63.96000 5.266
63.98000 7.875
64.00000 9.275
64.02000 7.536
64.04000 5.767
64.06000 6.409
64.08000 4.925
64.10000 3.334
64.12000 3.175
64.14000 4.689
64.16000 4.671
64.18000 -0.242
64.20000 -0.385
64.22000 -2.570
64.24000 1.202
64.26000 4.951
64.28000 8.478
64.30000 12.158
64.32000 7.392
64.34000 7.614
64.36000 5.525
64.38000 2.085
64.40000 1.666
64.42000 1.895
64.44000 -0.962
64.46000 1.385
64.48000 2.512
64.50000 5.360
64.52000 6.483
64.54000 5.428
64.56000 5.211
64.58000 2.475
64.60000 -2.102
64.62000 -0.928
64.64000 -0.861
64.66000 -1.623
64.68000 -1.398
64.70000 2.964
64.72000 4.743
64.74000 1.501
64.76000 1.341
64.78000 3.960
64.80000 3.425
64.82000 0.720
64.84000 4.060
64.86000 4.150
64.88000 3.870
64.90000 -1.901
64.92000 2.591
64.94000 3.476
64.96000 2.770
64.98000 2.365
65.00000 0.010
65.02000 1.443
65.04000 -1.156
65.06000 -0.221
65.08000 0.851
65.10000 2.551
65.12000 1.496
65.14000 0.409
65.16000 0.070
65.18000 0.235
65.20000 -0.085
65.22000 -1.236
65.24000 0.237
65.26000 3.085
65.28000 3.217
65.30000 -0.408
65.32000 0.269
65.34000 0.649
65.36000 3.727
65.38000 -0.791
65.40000 2.587
65.42000 3.415
65.44000 0.878
65.46000 0.558
65.48000 2.073
65.50000 1.799
65.52000 2.946
65.54000 2.645
65.56000 -2.576
65.58000 2.679
65.60000 0.513
65.62000 -1.110
65.64000 1.145
65.66000 4.169
65.68000 0.238
65.70000 1.823
65.72000 0.440
65.74000 1.802
65.76000 1.592
65.78000 5.408
65.80000 5.270
65.82000 1.104
65.84000 0.222
65.86000 0.032
65.88000 -2.337
65.90000 0.361
65.92000 1.333
65.94000 0.228
65.96000 -2.554
65.98000 -1.427
66.00000 4.301
66.02000 5.716
66.04000 3.029
66.06000 2.342
66.08000 -0.231
66.10000 1.407
66.12000 -0.613
66.14000 1.336
66.16000 4.502
66.18000 2.979
66.20000 3.386
66.22000 3.464
66.24000 2.356
66.26000 2.947
66.28000 2.097
66.30000 2.308
66.32000 -1.504
66.34000 0.972
66.36000 4.456
66.38000 2.025
66.40000 -1.513
66.42000 -1.138
66.44000 -1.700
66.46000 -1.917
66.48000 -2.568
66.50000 -0.807
66.52000 2.419
66.54000 3.894
66.56000 1.273
66.58000 0.605
66.60000 0.991
66.62000 2.850
66.64000 3.703
66.66000 1.417
66.68000 -1.073
66.70000 1.312
66.72000 1.737
66.74000 1.136
66.76000 5.299
66.78000 3.713
66.80000 1.978
66.82000 2.907
66.84000 2.269
66.86000 3.511
66.88000 0.930
66.90000 0.031
66.92000 -1.028
66.94000 3.552
66.96000 2.082
66.98000 -1.839
67.00000 -0.034
67.02000 -1.303
67.04000 -2.578
67.06000 -0.142
67.08000 1.615
67.10000 -0.891
67.12000 1.051
67.14000 2.798
67.16000 4.028
67.18000 3.758
67.20000 5.900
67.22000 2.555
67.24000 3.145
67.26000 -1.077
67.28000 -1.629
67.30000 1.555
67.32000 1.626
67.34000 2.650
67.36000 1.997
67.38000 2.452
67.40000 0.526
67.42000 1.124
67.44000 4.854
67.46000 4.363
67.48000 4.830
67.50000 5.868
67.52000 1.171
67.54000 -1.477
67.56000 3.512
67.58000 1.078
67.60000 2.041
67.62000 0.069
67.64000 -0.975
67.66000 -0.702
67.68000 -2.586
67.70000 -1.765
67.72000 1.913
67.74000 3.487
67.76000 0.600
67.78000 -0.443
67.80000 -1.946
67.82000 -2.143
67.84000 -2.292
67.86000 1.283
67.88000 3.109
67.90000 3.659
67.92000 6.097
67.94000 2.017
67.96000 -0.973
67.98000 -1.144
68.00000 0.173
68.02000 1.824
68.04000 1.502
68.06000 6.473
68.08000 5.808
68.10000 3.506
68.12000 1.230
68.14000 0.670
68.16000 2.708
68.18000 6.325
68.20000 4.539
68.22000 7.188
68.24000 7.649
68.26000 5.028
68.28000 3.164
68.30000 3.858
68.32000 7.600
68.34000 5.106
68.36000 6.324
68.38000 5.445
68.40000 5.497
68.42000 12.182
68.44000 16.145
68.46000 10.726
68.48000 9.070
68.50000 13.499
68.52000 8.704
68.54000 8.141
68.56000 10.039
68.58000 7.799
68.60000 8.817
68.62000 10.885
68.64000 11.865
68.66000 10.705
68.68000 12.222
68.70000 15.056
68.72000 15.373
68.74000 16.419
68.76000 14.042
68.78000 16.148
68.80000 14.734
68.82000 14.582
68.84000 14.909
68.86000 15.454
68.88000 18.978
68.90000 23.409
68.92000 20.007
68.94000 20.590
68.96000 17.313
68.98000 17.635
69.00000 17.651
69.02000 19.803
69.04000 27.744
69.06000 27.747
69.08000 22.136
69.10000 20.735
69.12000 21.614
69.14000 18.950
69.16000 24.911
69.18000 26.362
69.20000 27.794
69.22000 28.741
69.24000 26.487
69.26000 25.923
69.28000 24.919
69.30000 26.756
69.32000 28.445
69.34000 27.725
69.36000 23.282
69.38000 23.160
69.40000 24.579
69.42000 24.646
69.44000 25.960
69.46000 25.953
69.48000 30.221
69.50000 23.004
69.52000 21.766
69.54000 18.390
69.56000 20.378
69.58000 20.652
69.60000 21.714
69.62000 25.373
69.64000 25.391
69.66000 23.116
69.68000 20.578
69.70000 18.491
69.72000 14.882
69.74000 18.448
69.76000 21.644
69.78000 23.596
69.80000 18.698
69.82000 13.478
69.84000 15.765
69.86000 17.248
69.88000 13.968
69.90000 10.952
69.92000 12.088
69.94000 12.591
69.96000 12.536
69.98000 12.954
70.00000 15.092
70.02000 13.909
70.04000 12.473
70.06000 8.851
70.08000 9.382
70.10000 9.626
70.12000 8.897
70.14000 9.031
70.16000 9.779
70.18000 13.859
70.20000 8.749
70.22000 5.409
70.24000 5.626
70.26000 4.753
70.28000 6.001
70.30000 4.366
70.32000 6.549
70.34000 9.721
70.36000 9.166
70.38000 10.411
70.40000 8.567
70.42000 4.728
70.44000 7.067
70.46000 5.469
70.48000 5.215
70.50000 6.828
70.52000 6.295
70.54000 6.791
70.56000 5.260
70.58000 3.320
70.60000 4.089
70.62000 3.629
70.64000 1.273
70.66000 4.439
70.68000 12.526
70.70000 3.605
70.72000 1.210
70.74000 2.913
70.76000 5.500
70.78000 0.831
70.80000 -2.418
70.82000 -1.510
70.84000 2.204
70.86000 1.182
70.88000 4.579
70.90000 4.485
70.92000 4.331
70.94000 5.478
70.96000 6.679
70.98000 6.546
71.00000 4.731
71.02000 4.378
71.04000 0.121
71.06000 0.953
71.08000 3.705
71.10000 2.001
71.12000 5.060
71.14000 2.055
71.16000 -1.175
71.18000 4.095
71.20000 2.438
71.22000 0.074
71.24000 2.142
71.26000 -0.085
71.28000 -1.060
71.30000 -0.180
71.32000 2.879
71.34000 1.675
71.36000 0.930
71.38000 1.306
71.40000 6.162
71.42000 5.193
71.44000 2.736
71.46000 4.388
71.48000 3.936
71.50000 4.659
71.52000 5.261
71.54000 2.672
71.56000 1.048
71.58000 1.301
71.60000 4.449
71.62000 9.200
71.64000 5.041
71.66000 3.391
71.68000 0.824
71.70000 4.693
71.72000 6.129
71.74000 6.499
71.76000 3.856
71.78000 2.876
71.80000 0.537
71.82000 -2.306
71.84000 -0.271
71.86000 6.098
71.88000 6.347
71.90000 1.806
71.92000 2.103
71.94000 1.515
71.96000 5.511
71.98000 1.764
72.00000 3.627
72.02000 5.450
72.04000 5.037
72.06000 3.900
72.08000 1.050
72.10000 0.425
72.12000 -0.978
72.14000 1.619
72.16000 4.442
72.18000 3.316
72.20000 2.679
72.22000 4.349
72.24000 -0.735
72.26000 -2.306
72.28000 -0.401
72.30000 -1.016
72.32000 -0.690
72.34000 2.875
72.36000 2.869
72.38000 4.028
72.40000 0.711
72.42000 2.798
72.44000 2.411
72.46000 1.163
72.48000 -0.452
72.50000 -1.198
72.52000 -1.130
72.54000 -0.490
72.56000 1.168
72.58000 3.114
72.60000 1.930
72.62000 -2.211
72.64000 0.600
72.66000 4.754
72.68000 0.789
72.70000 0.904
72.72000 -0.419
72.74000 3.023
72.76000 1.008
72.78000 0.210
72.80000 3.253
72.82000 3.395
72.84000 5.740
72.86000 0.506
72.88000 -0.107
72.90000 2.639
72.92000 -0.882
72.94000 -2.291
72.96000 -0.949
72.98000 -0.722
73.00000 -0.791
73.02000 -1.464
73.04000 2.637
73.06000 -2.287
73.08000 0.932
73.10000 2.537
73.12000 3.974
73.14000 2.004
73.16000 3.815
73.18000 2.531
73.20000 1.754
73.22000 2.485
73.24000 2.669
73.26000 1.317
73.28000 3.585
73.30000 1.796
73.32000 3.098
73.34000 3.173
73.36000 2.652
73.38000 1.569
73.40000 -0.400
73.42000 2.150
73.44000 6.782
73.46000 6.694
73.48000 3.522
73.50000 3.130
73.52000 0.505
73.54000 2.353
73.56000 4.434
73.58000 6.023
73.60000 3.581
73.62000 5.879
73.64000 2.327
73.66000 -0.169
73.68000 -0.657
73.70000 -2.264
73.72000 2.000
73.74000 2.078
73.76000 2.821
73.78000 3.990
73.80000 2.785
73.82000 2.908
73.84000 6.577
73.86000 2.822
73.88000 0.588
73.90000 0.461
73.92000 0.690
73.94000 0.621
73.96000 2.088
73.98000 4.472
74.00000 -2.255
74.02000 -0.098
74.04000 0.330
74.06000 3.165
74.08000 3.075
74.10000 1.818
74.12000 0.094
74.14000 0.969
74.16000 2.861
74.18000 -1.056
74.20000 0.758
74.22000 1.101
74.24000 -0.651
74.26000 5.171
74.28000 0.629
74.30000 -0.106
74.32000 1.038
74.34000 1.921
74.36000 5.475
74.38000 1.102
74.40000 1.274
74.42000 -0.471
74.44000 0.552
74.46000 0.805
74.48000 0.049
74.50000 -0.327
74.52000 -1.928
74.54000 -0.483
74.56000 1.048
74.58000 -0.126
74.60000 1.219
74.62000 -1.041
74.64000 -1.648
74.66000 -2.248
74.68000 3.092
74.70000 2.095
74.72000 2.160
74.74000 2.857
74.76000 0.073
74.78000 3.255
74.80000 5.301
74.82000 7.149
74.84000 4.030
74.86000 3.556
74.88000 4.619
74.90000 4.078
74.92000 0.507
74.94000 0.468
74.96000 0.774
74.98000 -0.744
75.00000 -1.055
75.02000 -2.235
75.04000 1.079
75.06000 1.910
75.08000 4.869
75.10000 1.240
75.12000 3.184
75.14000 1.208
75.16000 2.044
75.18000 5.194
75.20000 5.658
75.22000 1.545
75.24000 -1.000
75.26000 2.260
75.28000 1.815
75.30000 -0.881
75.32000 -0.665
75.34000 -0.765
75.36000 1.196
75.38000 1.971
75.40000 1.898
75.42000 0.568
75.44000 3.192
75.46000 -1.150
75.48000 2.591
75.50000 3.964
75.52000 4.012
75.54000 1.757
75.56000 3.637
75.58000 2.821
75.60000 1.444
75.62000 -2.194
75.64000 -0.056
75.66000 0.067
75.68000 0.557
75.70000 5.683
75.72000 6.031
75.74000 3.679
75.76000 1.418
75.78000 1.548
75.80000 1.707
75.82000 3.793
75.84000 0.493
75.86000 0.775
75.88000 1.124
75.90000 4.516
75.92000 1.973
75.94000 -2.243
75.96000 2.921
75.98000 3.573
76.00000 2.931
76.02000 0.275
76.04000 -1.408
76.06000 1.981
76.08000 7.930
76.10000 7.769
76.12000 4.926
76.14000 2.971
76.16000 -0.578
76.18000 -2.121
76.20000 -0.030
76.22000 4.197
76.24000 6.464
76.26000 3.451
76.28000 -2.093
76.30000 -2.235
76.32000 -0.548
76.34000 2.475
76.36000 1.298
76.38000 -1.469
76.40000 -0.680
76.42000 1.195
76.44000 1.602
76.46000 1.227
76.48000 2.148
76.50000 3.186
76.52000 2.611
76.54000 4.163
76.56000 -0.713
76.58000 3.202
76.60000 1.706
76.62000 5.704
76.64000 6.131
76.66000 3.703
76.68000 3.919
76.70000 5.307
76.72000 6.972
76.74000 5.634
76.76000 5.602
76.78000 5.729
76.80000 4.001
76.82000 3.773
76.84000 -0.582
76.86000 -0.877
76.88000 5.120
76.90000 3.716
76.92000 1.064
76.94000 2.486
76.96000 6.227
76.98000 5.150
77.00000 1.713
77.02000 4.466
77.04000 3.114
77.06000 0.699
77.08000 0.140
77.10000 -1.070
77.12000 -1.845
77.14000 0.389
77.16000 4.149
77.18000 5.014
77.20000 3.804
77.22000 -1.674
77.24000 -2.257
77.26000 -0.324
77.28000 -0.988
77.30000 0.900
77.32000 1.470
77.34000 1.078
77.36000 2.230
77.38000 1.420
77.40000 0.483
77.42000 -0.588
77.44000 1.824
77.46000 4.400
77.48000 3.911
77.50000 7.913
77.52000 8.501
77.54000 4.157
77.56000 3.836
77.58000 3.024
77.60000 -0.186
77.62000 0.033
77.64000 4.139
77.66000 5.368
77.68000 -0.337
77.70000 3.302
77.72000 3.509
77.74000 1.465
77.76000 5.123
77.78000 5.770
77.80000 -1.225
77.82000 0.963
77.84000 3.819
77.86000 3.844
77.88000 3.396
77.90000 -0.082
77.92000 1.049
77.94000 4.811
77.96000 0.487
77.98000 3.566
78.00000 5.379
78.02000 5.628
78.04000 2.265
78.06000 1.815
78.08000 3.723
78.10000 5.453
78.12000 1.570
78.14000 -2.229
78.16000 3.546
78.18000 2.294
78.20000 3.577
78.22000 0.803
78.24000 6.825
78.26000 5.240
78.28000 6.477
78.30000 5.669
78.32000 4.822
78.34000 3.204
78.36000 2.866
78.38000 2.005
78.40000 5.339
78.42000 12.687
78.44000 2.525
78.46000 1.479
78.48000 4.082
78.50000 6.256
78.52000 3.571
78.54000 1.755
78.56000 2.237
78.58000 2.687
78.60000 4.245
78.62000 3.948
78.64000 3.875
78.66000 0.422
78.68000 1.659
78.70000 5.556
78.72000 8.204
78.74000 9.718
78.76000 6.188
78.78000 3.658
78.80000 3.581
78.82000 -2.229
78.84000 3.379
78.86000 5.082
78.88000 2.739
78.90000 7.370
78.92000 5.870
78.94000 8.347
78.96000 7.146
78.98000 4.345
79.00000 3.516
79.02000 5.282
79.04000 4.751
79.06000 0.999
79.08000 0.776
79.10000 0.147
79.12000 2.354
79.14000 6.634
79.16000 4.847
79.18000 0.368
79.20000 5.435
79.22000 5.743
79.24000 2.174
79.26000 2.033
79.28000 7.043
79.30000 5.862
79.32000 1.762
79.34000 1.573
79.36000 1.814
79.38000 -1.060
79.40000 4.466
79.42000 2.845
79.44000 2.751
79.46000 1.888
79.48000 -0.524
79.50000 -2.258
79.52000 1.424
79.54000 5.322
79.56000 6.303
79.58000 -0.692
79.60000 -0.577
79.62000 1.077
79.64000 6.854
79.66000 6.103
79.68000 4.527
79.70000 3.080
79.72000 1.593
79.74000 2.654
79.76000 -0.293
79.78000 2.959
79.80000 4.909
79.82000 -0.100
79.84000 -1.864
79.86000 1.255
79.88000 3.866
79.90000 0.045
79.92000 1.287
79.94000 3.011
79.96000 5.215
79.98000 4.065
80.00000 6.298
80.02000 0.756
80.04000 -0.523
80.06000 3.192
80.08000 5.275
80.10000 3.852
80.12000 4.310
80.14000 2.354
80.16000 -1.346
80.18000 2.773
80.20000 0.623
80.22000 1.336
80.24000 9.576
80.26000 1.862
80.28000 -1.403
80.30000 3.513
80.32000 2.632
80.34000 1.653
80.36000 -0.917
80.38000 -0.819
80.40000 0.934
80.42000 -2.299
80.44000 1.826
80.46000 1.797
80.48000 3.230
80.50000 2.819
80.52000 5.297
80.54000 3.870
80.56000 -0.844
80.58000 2.098
80.60000 2.571
80.62000 6.570
80.64000 3.243
80.66000 3.701
80.68000 5.995
80.70000 1.059
80.72000 1.436
80.74000 6.105
80.76000 5.530
80.78000 3.236
80.80000 1.826
80.82000 4.555
80.84000 2.253
80.86000 1.662
80.88000 1.856
80.90000 -2.293
80.92000 3.232
80.94000 1.870
80.96000 5.208
80.98000 1.065
81.00000 1.277
81.02000 8.096
81.04000 3.335
81.06000 0.203
81.08000 -1.670
81.10000 2.345
81.12000 1.927
81.14000 5.706
81.16000 2.983
81.18000 2.048
81.20000 1.274
81.22000 -0.615
81.24000 1.839
81.26000 2.356
81.28000 1.223
81.30000 4.598
81.32000 4.092
81.34000 6.673
81.36000 6.148
81.38000 0.996
81.40000 -0.080
81.42000 5.166
81.44000 -1.759
81.46000 1.607
81.48000 5.063
81.50000 1.170
81.52000 1.843
81.54000 2.588
81.56000 3.580
81.58000 4.464
81.60000 2.529
81.62000 0.996
81.64000 4.596
81.66000 5.331
81.68000 5.168
81.70000 -0.687
81.72000 -2.373
81.74000 0.630
81.76000 -1.992
81.78000 -0.509
81.80000 6.999
81.82000 6.487
81.84000 6.606
81.86000 5.523
81.88000 0.888
81.90000 4.592
81.92000 6.472
81.94000 2.646
81.96000 2.501
81.98000 2.877
82.00000 8.512
82.02000 4.614
82.04000 6.677
82.06000 5.394
82.08000 3.712
82.10000 4.896
82.12000 5.171
82.14000 5.630
82.16000 2.916
82.18000 1.116
82.20000 3.553
82.22000 2.717
82.24000 2.922
82.26000 4.893
82.28000 -0.753
82.30000 -1.335
82.32000 -2.425
82.34000 0.798
82.36000 2.759
82.38000 1.930
82.40000 2.602
82.42000 5.452
82.44000 0.388
82.46000 3.805
82.48000 2.085
82.50000 4.942
82.52000 7.167
82.54000 5.972
82.56000 4.422
82.58000 6.247
82.60000 8.783
82.62000 7.149
82.64000 6.408
82.66000 7.064
82.68000 8.164
82.70000 5.007
82.72000 6.017
82.74000 10.329
82.76000 7.534
82.78000 5.287
82.80000 7.501
82.82000 6.453
82.84000 7.421
82.86000 6.018
82.88000 10.660
82.90000 14.146
82.92000 10.658
82.94000 10.488
82.96000 14.182
82.98000 13.906
83.00000 13.894
83.02000 13.560
83.04000 6.967
83.06000 8.548
83.08000 7.958
83.10000 9.446
83.12000 11.683
83.14000 15.918
83.16000 13.086
83.18000 18.455
83.20000 14.614
83.22000 11.198
83.24000 16.589
83.26000 15.616
83.28000 17.529
83.30000 20.366
83.32000 17.433
83.34000 19.263
83.36000 20.125
83.38000 16.529
83.40000 15.846
83.42000 14.971
83.44000 17.339
83.46000 12.687
83.48000 14.345
83.50000 17.254
83.52000 17.434
83.54000 23.793
83.56000 24.393
83.58000 17.641
83.60000 17.852
83.62000 19.710
83.64000 24.883
83.66000 28.762
83.68000 23.371
83.70000 20.439
83.72000 22.462
83.74000 21.708
83.76000 18.707
83.78000 23.686
83.80000 20.544
83.82000 20.650
83.84000 21.950
83.86000 27.340
83.88000 23.249
83.90000 25.482
83.92000 24.280
83.94000 21.508
83.96000 22.793
83.98000 24.824
84.00000 22.290
84.02000 26.519
84.04000 24.170
84.06000 23.213
84.08000 25.339
84.10000 26.703
84.12000 19.976
84.14000 13.387
84.16000 14.157
84.18000 18.917
84.20000 18.541
84.22000 21.179
84.24000 19.910
84.26000 19.936
84.28000 17.148
84.30000 16.489
84.32000 12.700
84.34000 17.305
84.36000 20.081
84.38000 14.696
84.40000 12.255
84.42000 14.292
84.44000 13.503
84.46000 13.558
84.48000 7.932
84.50000 8.391
84.52000 9.316
84.54000 9.461
84.56000 9.050
84.58000 8.693
84.60000 7.552
84.62000 7.341
84.64000 7.536
84.66000 10.080
84.68000 8.873
84.70000 7.858
84.72000 8.163
84.74000 8.840
84.76000 9.293
84.78000 11.024
84.80000 14.132
84.82000 12.603
84.84000 5.937
84.86000 7.333
84.88000 9.800
84.90000 9.366
84.92000 0.222
84.94000 0.445
84.96000 1.024
84.98000 4.410
85.00000 8.464
85.02000 2.893
85.04000 0.005
85.06000 -0.309
85.08000 0.478
85.10000 2.581
85.12000 2.969
85.14000 2.897
85.16000 3.751
85.18000 3.499
85.20000 3.588
85.22000 3.944
85.24000 -1.433
85.26000 -2.394
85.28000 0.340
85.30000 -0.558
85.32000 1.527
85.34000 5.522
85.36000 3.227
85.38000 0.903
85.40000 -1.170
85.42000 -0.201
85.44000 -1.583
85.46000 -2.370
85.48000 1.927
85.50000 0.207
85.52000 -0.581
85.54000 0.744
85.56000 0.346
85.58000 1.910
85.60000 6.109
85.62000 8.517
85.64000 7.775
85.66000 1.806
85.68000 1.623
85.70000 0.505
85.72000 3.499
85.74000 2.015
85.76000 1.710
85.78000 5.439
85.80000 5.610
85.82000 -1.952
85.84000 -1.226
85.86000 1.365
85.88000 2.630
85.90000 -2.320
85.92000 3.207
85.94000 5.667
85.96000 1.000
85.98000 2.107
86.00000 1.538
86.02000 3.088
86.04000 1.215
86.06000 0.915
86.08000 0.616
86.10000 1.308
86.12000 0.683
86.14000 1.794
86.16000 1.817
86.18000 1.336
86.20000 0.149
86.22000 0.350
86.24000 1.576
86.26000 -0.927
86.28000 1.461
86.30000 5.087
86.32000 0.389
86.34000 -2.319
86.36000 1.470
86.38000 0.833
86.40000 2.037
86.42000 2.597
86.44000 1.683
86.46000 1.317
86.48000 3.220
86.50000 2.866
86.52000 5.023
86.54000 7.352
86.56000 3.256
86.58000 5.568
86.60000 6.949
86.62000 4.716
86.64000 3.089
86.66000 0.194
86.68000 -2.315
86.70000 -1.403
86.72000 0.981
86.74000 1.462
86.76000 2.770
86.78000 1.879
86.80000 4.313
86.82000 7.195
86.84000 6.659
86.86000 3.381
86.88000 6.681
86.90000 4.971
86.92000 1.403
86.94000 4.097
86.96000 5.799
86.98000 5.015
87.00000 4.234
87.02000 1.455
87.04000 2.165
87.06000 3.000
87.08000 4.882
87.10000 9.381
87.12000 8.058
87.14000 3.523
87.16000 8.655
87.18000 8.394
87.20000 5.071
87.22000 6.186
87.24000 6.090
87.26000 4.780
87.28000 6.913
87.30000 12.544
87.32000 10.711
87.34000 9.626
87.36000 7.870
87.38000 6.638
87.40000 7.362
87.42000 9.069
87.44000 10.937
87.46000 14.492
87.48000 12.985
87.50000 14.032
87.52000 13.086
87.54000 11.651
87.56000 12.469
87.58000 14.795
87.60000 12.601
87.62000 11.043
87.64000 13.549
87.66000 16.174
87.68000 11.379
87.70000 15.128
87.72000 14.953
87.74000 11.213
87.76000 12.764
87.78000 15.086
87.80000 16.265
87.82000 18.965
87.84000 15.377
87.86000 17.290
87.88000 17.099
87.90000 19.917
87.92000 17.414
87.94000 14.593
87.96000 11.964
87.98000 14.212
88.00000 20.788
88.02000 23.794
88.04000 21.861
88.06000 20.044
88.08000 14.580
88.10000 15.973
88.12000 23.846
88.14000 22.691
88.16000 20.831
88.18000 24.635
88.20000 25.913
88.22000 28.214
88.24000 24.866
88.26000 20.867
88.28000 24.152
88.30000 18.609
88.32000 20.338
88.34000 23.571
88.36000 25.793
88.38000 23.830
88.40000 26.315
88.42000 23.737
88.44000 27.177
88.46000 29.100
88.48000 22.684
88.50000 23.458
88.52000 23.492
88.54000 26.233
88.56000 29.581
88.58000 20.311
88.60000 18.556
88.62000 18.930
88.64000 21.316
88.66000 22.271
88.68000 19.056
88.70000 20.083
88.72000 19.004
88.74000 16.414
88.76000 18.888
88.78000 16.364
88.80000 18.046
88.82000 21.339
88.84000 20.927
88.86000 20.044
88.88000 17.567
88.90000 17.404
88.92000 21.397
88.94000 20.163
88.96000 15.363
88.98000 18.207
89.00000 16.284
89.02000 19.267
89.04000 20.356
89.06000 13.351
89.08000 14.816
89.10000 12.273
89.12000 12.359
89.14000 14.828
89.16000 12.887
89.18000 9.904
89.20000 10.620
89.22000 11.873
89.24000 6.146
89.26000 6.747
89.28000 6.732
89.30000 7.787
89.32000 10.175
89.34000 9.866
89.36000 11.806
89.38000 10.751
89.40000 9.491
89.42000 8.141
89.44000 8.374
89.46000 9.815
89.48000 7.349
89.50000 7.798
89.52000 7.746
89.54000 10.250
89.56000 8.783
89.58000 9.705
89.60000 8.139
89.62000 6.759
89.64000 1.142
89.66000 5.306
89.68000 6.961
89.70000 5.267
89.72000 5.232
89.74000 5.733
89.76000 5.764
89.78000 7.746
89.80000 5.801
89.82000 4.128
89.84000 1.163
89.86000 0.093
89.88000 0.121
89.90000 0.870
89.92000 3.737
89.94000 -2.245
89.96000 -1.151
89.98000 1.504
90.00000 2.691
90.02000 1.960
90.04000 -1.494
90.06000 -1.097
90.08000 -0.658
90.10000 3.629
90.12000 1.709
90.14000 3.254
90.16000 0.832
90.18000 0.527
90.20000 2.542
90.22000 6.004
90.24000 6.511
90.26000 5.379
90.28000 4.521
90.30000 2.800
90.32000 1.530
90.34000 2.536
90.36000 1.722
90.38000 0.881
90.40000 7.563
90.42000 4.523
90.44000 2.369
90.46000 1.477
90.48000 1.073
90.50000 5.081
90.52000 2.176
90.54000 0.461
90.56000 -1.326
90.58000 -0.883
90.60000 1.501
90.62000 -0.982
90.64000 0.207
90.66000 2.170
90.68000 1.327
90.70000 -0.102
90.72000 0.064
90.74000 -0.883
90.76000 0.686
90.78000 -0.133
90.80000 -1.397
90.82000 4.059
90.84000 2.710
90.86000 1.092
90.88000 2.441
90.90000 2.637
90.92000 -2.184
90.94000 -2.183
90.96000 0.182
90.98000 -0.467
91.00000 -1.513
91.02000 0.498
91.04000 1.983
91.06000 1.819
91.08000 4.827
91.10000 3.915
91.12000 -1.287
91.14000 2.181
91.16000 7.936
91.18000 0.859
91.20000 -0.696
91.22000 1.691
91.24000 2.185
91.26000 -1.205
91.28000 2.067
91.30000 1.871
91.32000 4.541
91.34000 1.956
91.36000 3.448
91.38000 4.775
91.40000 4.458
91.42000 0.539
91.44000 1.408
91.46000 0.070
91.48000 2.110
91.50000 3.276
91.52000 4.683
91.54000 -1.119
91.56000 1.221
91.58000 3.079
91.60000 5.551
91.62000 1.812
91.64000 -1.297
91.66000 2.958
91.68000 2.054
91.70000 0.709
91.72000 2.731
91.74000 -0.819
91.76000 -2.153
91.78000 2.620
91.80000 6.576
91.82000 4.153
91.84000 3.152
91.86000 4.219
91.88000 1.006
91.90000 -1.218
91.92000 2.315
91.94000 -0.290
91.96000 1.111
91.98000 3.520
92.00000 3.991
92.02000 4.220
92.04000 6.528
92.06000 5.776
92.08000 -0.609
92.10000 0.456
92.12000 6.269
92.14000 2.273
92.16000 0.901
92.18000 4.404
92.20000 3.414
92.22000 4.556
92.24000 4.423
92.26000 0.740
92.28000 -2.141
92.30000 1.982
92.32000 5.790
92.34000 8.096
92.36000 6.388
92.38000 9.439
92.40000 5.891
92.42000 -0.273
92.44000 1.565
92.46000 3.172
92.48000 3.545
92.50000 3.545
92.52000 4.305
92.54000 0.168
92.56000 4.498
92.58000 6.783
92.60000 6.474
92.62000 6.074
92.64000 4.025
92.66000 2.430
92.68000 3.647
92.70000 3.506
92.72000 4.965
92.74000 8.388
92.76000 7.190
92.78000 2.809
92.80000 -0.538
92.82000 0.879
92.84000 4.092
92.86000 3.288
92.88000 -0.764
92.90000 0.148
92.92000 -0.980
92.94000 -0.253
92.96000 -0.120
92.98000 1.263
93.00000 1.780
93.02000 1.355
93.04000 1.335
93.06000 -0.250
93.08000 0.752
93.10000 0.040
93.12000 1.218
93.14000 1.229
93.16000 6.388
93.18000 5.945
93.20000 3.668
93.22000 0.202
93.24000 -2.114
93.26000 3.265
93.28000 5.544
93.30000 0.983
93.32000 4.205
93.34000 1.728
93.36000 3.279
93.38000 1.500
93.40000 4.734
93.42000 2.741
93.44000 -1.179
93.46000 2.726
93.48000 7.316
93.50000 6.914
93.52000 7.783
93.54000 4.846
93.56000 3.609
93.58000 4.275
93.60000 5.824
93.62000 8.116
93.64000 6.997
93.66000 4.306
93.68000 3.682
93.70000 1.104
93.72000 4.046
93.74000 8.201
93.76000 2.068
93.78000 6.234
93.80000 7.244
93.82000 6.166
93.84000 3.810
93.86000 1.188
93.88000 2.451
93.90000 6.504
93.92000 10.347
93.94000 3.602
93.96000 7.986
93.98000 2.435
94.00000 3.497
94.02000 0.326
94.04000 3.784
94.06000 4.219
94.08000 -0.999
94.10000 -1.741
94.12000 -0.480
94.14000 5.395
94.16000 2.173
94.18000 4.856
94.20000 0.701
94.22000 2.065
94.24000 4.224
94.26000 4.561
94.28000 4.738
94.30000 5.821
94.32000 4.759
94.34000 4.314
94.36000 3.196
94.38000 7.751
94.40000 9.903
94.42000 6.804
94.44000 4.572
94.46000 7.298
94.48000 6.357
94.50000 0.901
94.52000 1.486
94.54000 6.546
94.56000 8.259
94.58000 2.794
94.60000 3.483
94.62000 5.148
94.64000 5.883
94.66000 5.702
94.68000 3.622
94.70000 3.053
94.72000 7.184
94.74000 5.802
94.76000 3.990
94.78000 -2.121
94.80000 -0.220
94.82000 3.206
94.84000 0.260
94.86000 0.271
94.88000 7.947
94.90000 8.351
94.92000 2.372
94.94000 6.000
94.96000 7.291
94.98000 5.456
95.00000 4.324
95.02000 3.092
95.04000 1.165
95.06000 2.298
95.08000 2.291
95.10000 3.602
95.12000 5.654
95.14000 2.864
95.16000 4.638
95.18000 3.187
95.20000 4.751
95.22000 7.607
95.24000 5.248
95.26000 6.737
95.28000 7.215
95.30000 6.475
95.32000 6.282
95.34000 3.785
95.36000 5.569
95.38000 3.961
95.40000 10.162
95.42000 10.728
95.44000 4.887
95.46000 2.171
95.48000 -1.780
95.50000 -2.103
95.52000 7.848
95.54000 9.841
95.56000 9.088
95.58000 7.156
95.60000 1.535
95.62000 0.001
95.64000 0.415
95.66000 -0.119
95.68000 -1.841
95.70000 2.326
95.72000 6.511
95.74000 2.479
95.76000 3.399
95.78000 5.216
95.80000 4.255
95.82000 6.776
95.84000 4.837
95.86000 9.339
95.88000 10.675
95.90000 8.457
95.92000 7.218
95.94000 6.881
95.96000 1.072
95.98000 1.630
96.00000 2.853
96.02000 6.678
96.04000 7.873
96.06000 11.797
96.08000 5.462
96.10000 2.202
96.12000 3.305
96.14000 2.816
96.16000 7.380
96.18000 9.027
96.20000 10.366
96.22000 5.449
96.24000 5.057
96.26000 3.769
96.28000 3.546
96.30000 1.200
96.32000 -1.717
96.34000 -0.274
96.36000 8.514
96.38000 8.319
96.40000 2.406
96.42000 3.345
96.44000 1.525
96.46000 1.652
96.48000 3.562
96.50000 -0.256
96.52000 0.568
96.54000 6.570
96.56000 7.162
96.58000 9.721
96.60000 12.443
96.62000 12.228
96.64000 5.138
96.66000 5.079
96.68000 8.285
96.70000 12.044
96.72000 11.927
96.74000 12.681
96.76000 9.325
96.78000 3.219
96.80000 4.020
96.82000 6.256
96.84000 3.026
96.86000 0.423
96.88000 1.612
96.90000 6.745
96.92000 8.153
96.94000 2.582
96.96000 5.756
96.98000 4.749
97.00000 1.224
97.02000 6.259
97.04000 7.877
97.06000 5.812
97.08000 6.198
97.10000 3.739
97.12000 2.333
97.14000 3.870
97.16000 2.532
97.18000 2.459
97.20000 5.500
97.22000 11.549
97.24000 8.850
97.26000 7.488
97.28000 3.697
97.30000 7.773
97.32000 7.588
97.34000 8.774
97.36000 7.821
97.38000 9.090
97.40000 7.854
97.42000 9.131
97.44000 7.546
97.46000 0.163
97.48000 -2.054
97.50000 4.861
97.52000 3.609
97.54000 7.736
97.56000 10.183
97.58000 10.317
97.60000 6.608
97.62000 7.622
97.64000 5.927
97.66000 4.349
97.68000 4.662
97.70000 3.320
97.72000 10.384
97.74000 8.807
97.76000 5.909
97.78000 6.900
97.80000 7.477
97.82000 4.920
97.84000 1.248
97.86000 1.975
97.88000 8.964
97.90000 7.561
97.92000 5.124
97.94000 3.720
97.96000 5.172
97.98000 5.606
98.00000 4.450
98.02000 2.094
98.04000 4.419
98.06000 1.058
98.08000 5.296
98.10000 5.699
98.12000 7.882
98.14000 6.983
98.16000 11.967
98.18000 10.415
98.20000 8.492
98.22000 2.600
98.24000 4.352
98.26000 6.781
98.28000 2.101
98.30000 6.217
98.32000 8.212
98.34000 7.296
98.36000 4.998
98.38000 5.735
98.40000 10.971
98.42000 0.155
98.44000 -2.040
98.46000 9.417
98.48000 15.532
98.50000 15.042
98.52000 7.939
98.54000 12.998
98.56000 14.492
98.58000 11.105
98.60000 7.292
98.62000 8.086
98.64000 11.047
98.66000 12.007
98.68000 -0.909
98.70000 -2.033
98.72000 3.240
98.74000 8.577
98.76000 8.002
98.78000 3.104
98.80000 9.052
98.82000 7.606
98.84000 6.274
98.86000 12.306
98.88000 9.541
98.90000 9.361
98.92000 14.731
98.94000 6.158
98.96000 5.006
98.98000 9.913
99.00000 6.175
99.02000 5.955
99.04000 8.848
99.06000 7.928
99.08000 11.201
99.10000 8.789
99.12000 3.954
99.14000 6.325
99.16000 11.009
99.18000 8.284
99.20000 0.657
99.22000 4.482
99.24000 4.101
99.26000 6.801
99.28000 11.803
99.30000 10.710
99.32000 11.290
99.34000 0.431
99.36000 0.906
99.38000 2.961
99.40000 5.953
99.42000 -2.050
99.44000 0.650
99.46000 2.154
99.48000 5.544
99.50000 11.070
99.52000 5.880
99.54000 2.908
99.56000 11.544
99.58000 10.307
99.60000 12.947
99.62000 12.982
99.64000 11.049
99.66000 10.566
99.68000 0.407
99.70000 -2.089
99.72000 0.138
99.74000 10.600
99.76000 14.396
99.78000 7.435
99.80000 16.710
99.82000 18.247
99.84000 -7.865
99.86000 0.835
99.88000 6.132
99.90000 0.875
99.92000 0.366
99.94000 -2.175
99.96000 8.536
99.98000 0.000
