'Id: "0011388" Comment: "Integrate frame 0011388_Au-Ir-Rh_Rh-rich_XRD-Mapping-109-0000.gfrmwith cursor Wedge Cursor #5" Operator: "B?rgel" Anode: "Cu" Wavelength: "1.5406" Scantype: "2Theta (TwoTheta)" TimePerStep: "1" X: "22.5" Y: "-13.5" Z: "5.95" 
10.00000 0.000
10.02000 12.736
10.04000 11.490
10.06000 26.161
10.08000 23.993
10.10000 15.087
10.12000 28.908
10.14000 29.565
10.16000 28.687
10.18000 25.252
10.20000 18.866
10.22000 31.553
10.24000 23.303
10.26000 21.317
10.28000 23.790
10.30000 34.337
10.32000 20.390
10.34000 20.706
10.36000 18.687
10.38000 24.703
10.40000 33.156
10.42000 34.891
10.44000 30.244
10.46000 30.004
10.48000 31.932
10.50000 25.418
10.52000 24.761
10.54000 14.189
10.56000 17.104
10.58000 27.377
10.60000 20.906
10.62000 29.753
10.64000 33.798
10.66000 26.782
10.68000 25.510
10.70000 31.274
10.72000 30.754
10.74000 30.993
10.76000 28.587
10.78000 25.303
10.80000 36.317
10.82000 22.286
10.84000 22.651
10.86000 21.194
10.88000 16.866
10.90000 28.554
10.92000 30.500
10.94000 33.383
10.96000 46.134
10.98000 36.385
11.00000 34.140
11.02000 31.485
11.04000 32.305
11.06000 36.371
11.08000 32.588
11.10000 37.532
11.12000 24.140
11.14000 31.698
11.16000 21.720
11.18000 18.349
11.20000 33.668
11.22000 36.609
11.24000 40.543
11.26000 43.706
11.28000 37.228
11.30000 27.156
11.32000 29.811
11.34000 29.459
11.36000 19.923
11.38000 27.043
11.40000 35.761
11.42000 32.354
11.44000 25.887
11.46000 27.418
11.48000 28.616
11.50000 39.298
11.52000 38.668
11.54000 26.699
11.56000 32.264
11.58000 35.037
11.60000 28.303
11.62000 36.261
11.64000 37.658
11.66000 41.398
11.68000 33.497
11.70000 34.827
11.72000 39.044
11.74000 37.960
11.76000 41.805
11.78000 27.150
11.80000 20.199
11.82000 21.519
11.84000 29.260
11.86000 34.588
11.88000 39.820
11.90000 36.655
11.92000 32.381
11.94000 46.377
11.96000 35.283
11.98000 28.106
12.00000 33.247
12.02000 29.945
12.04000 36.512
12.06000 43.068
12.08000 37.815
12.10000 28.534
12.12000 25.912
12.14000 33.443
12.16000 43.474
12.18000 42.605
12.20000 40.609
12.22000 44.017
12.24000 43.109
12.26000 34.362
12.28000 25.717
12.30000 28.102
12.32000 38.378
12.34000 30.863
12.36000 33.833
12.38000 36.979
12.40000 45.551
12.42000 34.659
12.44000 44.190
12.46000 47.850
12.48000 43.934
12.50000 46.949
12.52000 43.775
12.54000 35.075
12.56000 35.256
12.58000 44.656
12.60000 39.076
12.62000 31.933
12.64000 37.368
12.66000 36.181
12.68000 30.266
12.70000 36.958
12.72000 37.346
12.74000 33.168
12.76000 26.798
12.78000 26.049
12.80000 34.293
12.82000 41.515
12.84000 40.292
12.86000 40.384
12.88000 42.825
12.90000 42.569
12.92000 35.086
12.94000 32.316
12.96000 31.181
12.98000 32.212
13.00000 34.397
13.02000 27.813
13.04000 30.276
13.06000 32.630
13.08000 33.487
13.10000 36.500
13.12000 37.022
13.14000 25.852
13.16000 32.451
13.18000 42.209
13.20000 35.773
13.22000 34.087
13.24000 52.498
13.26000 43.254
13.28000 44.708
13.30000 40.991
13.32000 32.105
13.34000 40.386
13.36000 28.791
13.38000 37.902
13.40000 37.452
13.42000 30.347
13.44000 43.720
13.46000 41.700
13.48000 41.521
13.50000 35.365
13.52000 28.835
13.54000 36.535
13.56000 29.085
13.58000 24.276
13.60000 29.963
13.62000 32.516
13.64000 28.724
13.66000 30.161
13.68000 30.199
13.70000 24.809
13.72000 29.389
13.74000 31.091
13.76000 17.654
13.78000 20.313
13.80000 23.424
13.82000 24.590
13.84000 24.294
13.86000 29.934
13.88000 30.919
13.90000 26.051
13.92000 18.533
13.94000 21.829
13.96000 23.419
13.98000 21.899
14.00000 34.000
14.02000 28.764
14.04000 25.306
14.06000 31.605
14.08000 28.047
14.10000 31.814
14.12000 24.894
14.14000 32.659
14.16000 34.454
14.18000 30.231
14.20000 26.889
14.22000 24.628
14.24000 21.928
14.26000 27.772
14.28000 21.976
14.30000 31.926
14.32000 34.651
14.34000 32.648
14.36000 24.885
14.38000 30.267
14.40000 40.198
14.42000 34.225
14.44000 24.703
14.46000 23.887
14.48000 13.484
14.50000 25.144
14.52000 22.842
14.54000 17.962
14.56000 21.969
14.58000 26.563
14.60000 27.979
14.62000 20.528
14.64000 26.206
14.66000 30.040
14.68000 23.960
14.70000 30.326
14.72000 28.365
14.74000 20.322
14.76000 19.713
14.78000 21.094
14.80000 18.733
14.82000 19.549
14.84000 20.985
14.86000 17.421
14.88000 19.943
14.90000 13.831
14.92000 20.497
14.94000 30.598
14.96000 20.196
14.98000 21.218
15.00000 24.110
15.02000 18.686
15.04000 17.912
15.06000 23.843
15.08000 18.099
15.10000 15.443
15.12000 8.181
15.14000 5.850
15.16000 10.486
15.18000 22.562
15.20000 22.417
15.22000 24.935
15.24000 28.258
15.26000 15.012
15.28000 10.501
15.30000 19.762
15.32000 6.595
15.34000 8.441
15.36000 11.095
15.38000 13.914
15.40000 17.144
15.42000 16.659
15.44000 17.213
15.46000 20.553
15.48000 26.467
15.50000 21.001
15.52000 16.393
15.54000 11.055
15.56000 23.265
15.58000 23.572
15.60000 19.757
15.62000 12.217
15.64000 11.434
15.66000 12.165
15.68000 16.060
15.70000 11.542
15.72000 9.293
15.74000 7.244
15.76000 7.622
15.78000 11.817
15.80000 16.111
15.82000 17.757
15.84000 12.532
15.86000 13.002
15.88000 6.528
15.90000 7.330
15.92000 6.670
15.94000 10.167
15.96000 12.790
15.98000 13.266
16.00000 8.225
16.02000 11.056
16.04000 14.833
16.06000 12.498
16.08000 6.758
16.10000 12.284
16.12000 20.959
16.14000 10.303
16.16000 2.985
16.18000 5.832
16.20000 13.689
16.22000 11.308
16.24000 1.502
16.26000 1.970
16.28000 6.736
16.30000 5.919
16.32000 11.164
16.34000 17.293
16.36000 8.416
16.38000 -0.004
16.40000 5.399
16.42000 9.914
16.44000 8.789
16.46000 11.165
16.48000 5.927
16.50000 8.541
16.52000 12.982
16.54000 11.264
16.56000 10.073
16.58000 6.672
16.60000 6.727
16.62000 7.047
16.64000 7.832
16.66000 12.650
16.68000 12.374
16.70000 9.092
16.72000 4.586
16.74000 10.884
16.76000 8.468
16.78000 11.134
16.80000 11.441
16.82000 9.495
16.84000 11.419
16.86000 9.824
16.88000 8.804
16.90000 8.887
16.92000 8.721
16.94000 5.921
16.96000 7.705
16.98000 11.918
17.00000 13.652
17.02000 15.837
17.04000 12.109
17.06000 0.795
17.08000 9.990
17.10000 8.336
17.12000 5.515
17.14000 4.802
17.16000 12.437
17.18000 15.208
17.20000 7.174
17.22000 5.838
17.24000 12.824
17.26000 16.333
17.28000 11.038
17.30000 4.883
17.32000 12.617
17.34000 3.209
17.36000 -2.727
17.38000 4.443
17.40000 8.414
17.42000 6.287
17.44000 4.706
17.46000 11.358
17.48000 10.327
17.50000 8.479
17.52000 9.789
17.54000 8.479
17.56000 5.184
17.58000 3.764
17.60000 8.318
17.62000 5.112
17.64000 8.423
17.66000 4.801
17.68000 12.106
17.70000 17.723
17.72000 20.694
17.74000 17.101
17.76000 11.899
17.78000 -1.058
17.80000 -4.333
17.82000 -1.493
17.84000 3.624
17.86000 6.383
17.88000 4.060
17.90000 5.310
17.92000 7.090
17.94000 4.290
17.96000 0.913
17.98000 3.826
18.00000 2.728
18.02000 1.452
18.04000 3.459
18.06000 8.303
18.08000 11.192
18.10000 7.890
18.12000 7.129
18.14000 12.217
18.16000 9.407
18.18000 4.580
18.20000 8.566
18.22000 7.331
18.24000 6.063
18.26000 7.995
18.28000 9.318
18.30000 6.741
18.32000 -0.359
18.34000 5.741
18.36000 0.180
18.38000 2.713
18.40000 1.120
18.42000 -2.783
18.44000 -1.887
18.46000 2.101
18.48000 2.564
18.50000 7.946
18.52000 1.768
18.54000 7.832
18.56000 5.423
18.58000 4.883
18.60000 3.906
18.62000 0.435
18.64000 4.837
18.66000 5.220
18.68000 5.341
18.70000 7.964
18.72000 6.438
18.74000 7.838
18.76000 1.482
18.78000 0.800
18.80000 5.656
18.82000 3.201
18.84000 7.720
18.86000 0.861
18.88000 0.606
18.90000 -0.683
18.92000 -3.978
18.94000 0.485
18.96000 8.355
18.98000 6.925
19.00000 4.406
19.02000 0.988
19.04000 0.735
19.06000 4.268
19.08000 4.986
19.10000 7.812
19.12000 10.461
19.14000 7.420
19.16000 -1.190
19.18000 6.527
19.20000 3.761
19.22000 10.409
19.24000 3.514
19.26000 -4.265
19.28000 0.452
19.30000 7.883
19.32000 12.855
19.34000 11.669
19.36000 9.675
19.38000 5.237
19.40000 6.221
19.42000 6.898
19.44000 4.632
19.46000 0.474
19.48000 -1.572
19.50000 1.218
19.52000 4.700
19.54000 2.828
19.56000 0.137
19.58000 -0.489
19.60000 0.597
19.62000 6.149
19.64000 2.632
19.66000 3.913
19.68000 0.382
19.70000 3.420
19.72000 3.433
19.74000 6.578
19.76000 5.746
19.78000 3.230
19.80000 3.056
19.82000 1.203
19.84000 -3.279
19.86000 -3.037
19.88000 -1.633
19.90000 3.111
19.92000 -2.124
19.94000 -2.254
19.96000 8.165
19.98000 5.771
20.00000 0.436
20.02000 -0.164
20.04000 1.304
20.06000 5.882
20.08000 4.432
20.10000 4.403
20.12000 -0.931
20.14000 -0.370
20.16000 4.730
20.18000 7.084
20.20000 6.882
20.22000 4.899
20.24000 -1.837
20.26000 -4.226
20.28000 2.331
20.30000 3.050
20.32000 3.662
20.34000 4.668
20.36000 8.841
20.38000 9.587
20.40000 4.818
20.42000 3.002
20.44000 2.801
20.46000 8.041
20.48000 4.043
20.50000 9.764
20.52000 2.266
20.54000 0.107
20.56000 -1.166
20.58000 -1.786
20.60000 -1.320
20.62000 -2.884
20.64000 -0.933
20.66000 2.307
20.68000 4.566
20.70000 6.753
20.72000 5.737
20.74000 4.806
20.76000 6.365
20.78000 12.951
20.80000 11.620
20.82000 7.391
20.84000 8.178
20.86000 2.730
20.88000 4.447
20.90000 5.233
20.92000 3.250
20.94000 5.097
20.96000 1.406
20.98000 4.950
21.00000 4.523
21.02000 2.056
21.04000 8.420
21.06000 7.548
21.08000 0.420
21.10000 -2.767
21.12000 11.483
21.14000 6.575
21.16000 8.884
21.18000 4.041
21.20000 -2.825
21.22000 -3.408
21.24000 4.123
21.26000 3.901
21.28000 -2.294
21.30000 -3.859
21.32000 7.475
21.34000 4.878
21.36000 3.372
21.38000 -0.938
21.40000 1.412
21.42000 12.136
21.44000 2.675
21.46000 3.741
21.48000 3.440
21.50000 4.796
21.52000 4.132
21.54000 0.869
21.56000 2.452
21.58000 -2.166
21.60000 0.828
21.62000 7.522
21.64000 10.437
21.66000 11.429
21.68000 7.503
21.70000 1.431
21.72000 3.907
21.74000 9.397
21.76000 14.280
21.78000 9.680
21.80000 4.510
21.82000 9.602
21.84000 10.514
21.86000 9.539
21.88000 0.189
21.90000 -4.079
21.92000 0.737
21.94000 3.634
21.96000 0.745
21.98000 3.363
22.00000 10.290
22.02000 9.410
22.04000 12.219
22.06000 12.966
22.08000 2.662
22.10000 0.268
22.12000 7.771
22.14000 14.123
22.16000 11.219
22.18000 7.724
22.20000 11.482
22.22000 12.663
22.24000 9.587
22.26000 4.517
22.28000 2.123
22.30000 1.567
22.32000 -4.070
22.34000 2.061
22.36000 5.331
22.38000 7.312
22.40000 11.465
22.42000 4.257
22.44000 4.197
22.46000 1.987
22.48000 3.195
22.50000 7.858
22.52000 6.260
22.54000 3.023
22.56000 7.324
22.58000 6.438
22.60000 10.451
22.62000 4.647
22.64000 1.705
22.66000 -0.280
22.68000 1.999
22.70000 5.130
22.72000 7.607
22.74000 8.633
22.76000 11.227
22.78000 10.241
22.80000 10.763
22.82000 7.270
22.84000 3.100
22.86000 5.600
22.88000 3.418
22.90000 2.692
22.92000 -2.951
22.94000 0.795
22.96000 4.574
22.98000 1.105
23.00000 1.563
23.02000 0.802
23.04000 3.801
23.06000 0.663
23.08000 -0.219
23.10000 6.729
23.12000 6.075
23.14000 2.537
23.16000 1.794
23.18000 -1.383
23.20000 4.355
23.22000 5.988
23.24000 5.057
23.26000 2.921
23.28000 0.984
23.30000 2.334
23.32000 2.971
23.34000 -1.505
23.36000 0.588
23.38000 3.824
23.40000 4.680
23.42000 3.716
23.44000 2.431
23.46000 2.745
23.48000 6.068
23.50000 1.869
23.52000 4.432
23.54000 2.364
23.56000 4.535
23.58000 2.798
23.60000 6.069
23.62000 2.297
23.64000 -0.649
23.66000 2.163
23.68000 2.527
23.70000 5.095
23.72000 5.135
23.74000 3.958
23.76000 4.766
23.78000 8.300
23.80000 -1.091
23.82000 1.239
23.84000 4.491
23.86000 5.389
23.88000 -3.928
23.90000 0.288
23.92000 2.429
23.94000 -1.309
23.96000 8.178
23.98000 11.446
24.00000 10.982
24.02000 3.588
24.04000 2.162
24.06000 6.707
24.08000 1.718
24.10000 1.256
24.12000 3.190
24.14000 -1.005
24.16000 1.718
24.18000 6.456
24.20000 4.646
24.22000 -1.303
24.24000 -3.218
24.26000 -3.413
24.28000 0.677
24.30000 0.219
24.32000 1.689
24.34000 1.088
24.36000 -0.376
24.38000 1.777
24.40000 6.428
24.42000 4.795
24.44000 7.789
24.46000 4.431
24.48000 0.971
24.50000 2.886
24.52000 1.876
24.54000 0.693
24.56000 8.472
24.58000 2.817
24.60000 3.527
24.62000 5.455
24.64000 4.154
24.66000 7.527
24.68000 3.965
24.70000 0.670
24.72000 -3.958
24.74000 1.059
24.76000 1.850
24.78000 2.374
24.80000 -0.371
24.82000 0.772
24.84000 4.993
24.86000 4.790
24.88000 4.136
24.90000 5.624
24.92000 1.663
24.94000 4.986
24.96000 9.653
24.98000 4.887
25.00000 7.361
25.02000 2.574
25.04000 5.399
25.06000 8.646
25.08000 4.337
25.10000 5.594
25.12000 8.714
25.14000 7.872
25.16000 1.863
25.18000 7.194
25.20000 9.225
25.22000 4.099
25.24000 0.232
25.26000 3.041
25.28000 3.176
25.30000 1.964
25.32000 0.620
25.34000 4.319
25.36000 10.197
25.38000 5.426
25.40000 5.085
25.42000 10.233
25.44000 7.596
25.46000 4.353
25.48000 0.310
25.50000 2.592
25.52000 3.722
25.54000 3.098
25.56000 6.436
25.58000 7.562
25.60000 7.665
25.62000 6.576
25.64000 4.137
25.66000 -3.900
25.68000 -2.788
25.70000 2.013
25.72000 1.498
25.74000 3.136
25.76000 -0.685
25.78000 -1.358
25.80000 5.035
25.82000 8.376
25.84000 0.561
25.86000 4.545
25.88000 6.317
25.90000 3.474
25.92000 2.324
25.94000 3.404
25.96000 2.960
25.98000 3.114
26.00000 3.418
26.02000 -0.699
26.04000 4.353
26.06000 9.705
26.08000 6.088
26.10000 3.685
26.12000 5.293
26.14000 4.986
26.16000 3.314
26.18000 8.348
26.20000 3.053
26.22000 3.444
26.24000 3.288
26.26000 5.522
26.28000 3.559
26.30000 5.083
26.32000 3.025
26.34000 2.047
26.36000 0.678
26.38000 0.550
26.40000 -0.129
26.42000 -0.279
26.44000 1.856
26.46000 2.284
26.48000 -0.252
26.50000 0.301
26.52000 4.160
26.54000 10.155
26.56000 7.205
26.58000 2.247
26.60000 0.981
26.62000 6.184
26.64000 8.381
26.66000 2.265
26.68000 2.921
26.70000 5.933
26.72000 8.221
26.74000 5.714
26.76000 8.460
26.78000 0.301
26.80000 -0.878
26.82000 5.222
26.84000 2.648
26.86000 -3.851
26.88000 -1.074
26.90000 0.784
26.92000 -0.111
26.94000 0.006
26.96000 4.853
26.98000 5.658
27.00000 3.068
27.02000 6.197
27.04000 7.090
27.06000 8.609
27.08000 5.849
27.10000 4.708
27.12000 3.835
27.14000 3.603
27.16000 -0.200
27.18000 -1.186
27.20000 1.585
27.22000 9.128
27.24000 7.994
27.26000 4.214
27.28000 2.132
27.30000 0.963
27.32000 4.208
27.34000 6.591
27.36000 0.492
27.38000 3.278
27.40000 3.094
27.42000 2.842
27.44000 2.306
27.46000 -0.898
27.48000 -1.789
27.50000 1.260
27.52000 3.291
27.54000 3.466
27.56000 4.998
27.58000 -0.304
27.60000 -2.596
27.62000 -2.613
27.64000 -1.063
27.66000 3.346
27.68000 0.450
27.70000 3.337
27.72000 -2.222
27.74000 -2.386
27.76000 -3.009
27.78000 -0.690
27.80000 0.145
27.82000 -0.175
27.84000 0.356
27.86000 -1.475
27.88000 1.503
27.90000 -0.254
27.92000 -1.694
27.94000 -0.698
27.96000 -0.367
27.98000 2.500
28.00000 5.957
28.02000 3.458
28.04000 3.126
28.06000 7.324
28.08000 4.723
28.10000 5.402
28.12000 7.256
28.14000 3.855
28.16000 2.816
28.18000 2.128
28.20000 1.781
28.22000 -3.134
28.24000 1.835
28.26000 3.907
28.28000 2.279
28.30000 -2.703
28.32000 1.327
28.34000 10.985
28.36000 1.716
28.38000 -3.038
28.40000 -2.337
28.42000 3.066
28.44000 1.148
28.46000 -2.501
28.48000 3.893
28.50000 6.418
28.52000 8.289
28.54000 0.546
28.56000 -0.068
28.58000 3.033
28.60000 2.852
28.62000 2.780
28.64000 5.829
28.66000 -0.326
28.68000 -0.766
28.70000 -3.162
28.72000 2.699
28.74000 8.755
28.76000 1.545
28.78000 -2.135
28.80000 -3.754
28.82000 -2.023
28.84000 4.376
28.86000 1.696
28.88000 0.726
28.90000 -2.010
28.92000 -1.632
28.94000 -3.357
28.96000 -3.740
28.98000 -0.934
29.00000 -0.796
29.02000 3.808
29.04000 4.334
29.06000 -0.113
29.08000 1.206
29.10000 -1.350
29.12000 -3.726
29.14000 1.179
29.16000 -0.367
29.18000 1.490
29.20000 3.874
29.22000 2.329
29.24000 0.091
29.26000 -1.469
29.28000 0.984
29.30000 2.806
29.32000 4.466
29.34000 3.875
29.36000 2.939
29.38000 1.187
29.40000 3.405
29.42000 1.975
29.44000 5.986
29.46000 7.747
29.48000 0.632
29.50000 -3.263
29.52000 3.906
29.54000 2.632
29.56000 4.810
29.58000 2.001
29.60000 1.811
29.62000 -3.134
29.64000 -2.154
29.66000 3.312
29.68000 3.871
29.70000 1.767
29.72000 -1.704
29.74000 1.986
29.76000 -0.336
29.78000 3.227
29.80000 4.569
29.82000 1.376
29.84000 0.586
29.86000 -1.656
29.88000 -1.851
29.90000 5.245
29.92000 1.842
29.94000 -2.696
29.96000 0.331
29.98000 4.732
30.00000 7.562
30.02000 4.059
30.04000 -3.017
30.06000 1.832
30.08000 3.552
30.10000 -1.745
30.12000 -0.261
30.14000 -3.693
30.16000 -2.232
30.18000 -1.987
30.20000 1.068
30.22000 4.161
30.24000 -0.571
30.26000 -0.345
30.28000 3.549
30.30000 3.490
30.32000 -1.560
30.34000 1.029
30.36000 3.642
30.38000 1.762
30.40000 1.805
30.42000 2.142
30.44000 -1.291
30.46000 -1.422
30.48000 0.353
30.50000 -1.694
30.52000 1.650
30.54000 1.466
30.56000 3.188
30.58000 -1.797
30.60000 -2.182
30.62000 -1.723
30.64000 -3.187
30.66000 -0.744
30.68000 -0.404
30.70000 -0.488
30.72000 1.323
30.74000 3.594
30.76000 0.571
30.78000 -0.566
30.80000 1.492
30.82000 -0.065
30.84000 -1.011
30.86000 3.127
30.88000 2.685
30.90000 2.360
30.92000 -1.455
30.94000 -1.049
30.96000 0.401
30.98000 1.351
31.00000 2.691
31.02000 5.261
31.04000 -1.458
31.06000 -3.645
31.08000 -0.060
31.10000 0.719
31.12000 1.305
31.14000 4.647
31.16000 2.202
31.18000 -1.954
31.20000 -0.537
31.22000 2.168
31.24000 3.673
31.26000 1.616
31.28000 8.058
31.30000 6.361
31.32000 0.547
31.34000 3.578
31.36000 4.890
31.38000 2.335
31.40000 -0.630
31.42000 2.777
31.44000 0.085
31.46000 -1.456
31.48000 1.266
31.50000 4.717
31.52000 1.538
31.54000 -0.081
31.56000 2.304
31.58000 1.708
31.60000 -0.672
31.62000 4.261
31.64000 0.027
31.66000 2.170
31.68000 1.767
31.70000 -3.207
31.72000 -3.608
31.74000 2.491
31.76000 4.822
31.78000 3.811
31.80000 3.376
31.82000 1.281
31.84000 4.974
31.86000 3.838
31.88000 -0.707
31.90000 6.830
31.92000 8.748
31.94000 4.127
31.96000 2.462
31.98000 0.855
32.00000 2.789
32.02000 1.802
32.04000 -1.620
32.06000 1.206
32.08000 5.124
32.10000 1.590
32.12000 2.043
32.14000 6.461
32.16000 6.349
32.18000 0.155
32.20000 -0.823
32.22000 0.874
32.24000 2.285
32.26000 3.652
32.28000 5.072
32.30000 7.101
32.32000 0.315
32.34000 -3.584
32.36000 1.102
32.38000 6.112
32.40000 2.906
32.42000 1.094
32.44000 0.682
32.46000 2.122
32.48000 1.440
32.50000 -0.639
32.52000 1.290
32.54000 2.967
32.56000 3.530
32.58000 4.572
32.60000 5.629
32.62000 6.792
32.64000 10.080
32.66000 3.943
32.68000 2.367
32.70000 -0.743
32.72000 2.590
32.74000 2.997
32.76000 7.913
32.78000 6.621
32.80000 7.187
32.82000 4.345
32.84000 2.792
32.86000 1.858
32.88000 2.531
32.90000 2.438
32.92000 7.653
32.94000 2.969
32.96000 3.846
32.98000 1.899
33.00000 -1.344
33.02000 -1.524
33.04000 3.637
33.06000 3.727
33.08000 3.878
33.10000 5.037
33.12000 9.054
33.14000 5.574
33.16000 1.534
33.18000 -3.543
33.20000 0.174
33.22000 1.173
33.24000 3.925
33.26000 8.555
33.28000 10.286
33.30000 4.031
33.32000 9.884
33.34000 8.043
33.36000 1.699
33.38000 -2.499
33.40000 0.981
33.42000 5.004
33.44000 6.628
33.46000 5.020
33.48000 5.513
33.50000 5.912
33.52000 7.386
33.54000 2.020
33.56000 3.603
33.58000 6.630
33.60000 4.132
33.62000 -1.727
33.64000 2.582
33.66000 9.184
33.68000 8.259
33.70000 10.156
33.72000 4.003
33.74000 3.564
33.76000 4.635
33.78000 4.163
33.80000 3.403
33.82000 -1.031
33.84000 0.703
33.86000 2.240
33.88000 2.800
33.90000 4.152
33.92000 0.921
33.94000 1.327
33.96000 0.543
33.98000 1.841
34.00000 3.443
34.02000 5.374
34.04000 6.007
34.06000 3.026
34.08000 -1.454
34.10000 1.682
34.12000 6.277
34.14000 12.060
34.16000 6.778
34.18000 3.174
34.20000 1.490
34.22000 3.714
34.24000 5.677
34.26000 5.114
34.28000 4.285
34.30000 9.605
34.32000 2.367
34.34000 -1.327
34.36000 0.650
34.38000 -1.675
34.40000 1.963
34.42000 7.008
34.44000 3.909
34.46000 3.535
34.48000 2.616
34.50000 -0.689
34.52000 2.369
34.54000 4.364
34.56000 4.475
34.58000 3.785
34.60000 2.278
34.62000 0.521
34.64000 -1.237
34.66000 1.218
34.68000 0.000
34.70000 1.509
34.72000 1.771
34.74000 4.201
34.76000 2.169
34.78000 -0.067
34.80000 0.465
34.82000 4.556
34.84000 0.989
34.86000 -2.378
34.88000 -3.533
34.90000 -1.741
34.92000 0.047
34.94000 0.578
34.96000 1.464
34.98000 5.636
35.00000 4.421
35.02000 0.213
35.04000 1.108
35.06000 3.583
35.08000 6.711
35.10000 4.126
35.12000 -0.084
35.14000 0.484
35.16000 -0.571
35.18000 -3.526
35.20000 1.395
35.22000 3.348
35.24000 2.679
35.26000 -0.172
35.28000 -0.073
35.30000 -2.461
35.32000 -0.498
35.34000 0.408
35.36000 -2.468
35.38000 0.230
35.40000 -1.090
35.42000 -1.516
35.44000 1.268
35.46000 -1.719
35.48000 -1.831
35.50000 -2.222
35.52000 -2.722
35.54000 -0.860
35.56000 0.499
35.58000 0.699
35.60000 -0.297
35.62000 -1.515
35.64000 -2.462
35.66000 -0.893
35.68000 -0.458
35.70000 1.844
35.72000 1.110
35.74000 -2.635
35.76000 -3.528
35.78000 -2.201
35.80000 -3.486
35.82000 -2.114
35.84000 -2.228
35.86000 4.180
35.88000 5.393
35.90000 1.546
35.92000 0.927
35.94000 4.132
35.96000 -0.323
35.98000 2.361
36.00000 -1.127
36.02000 3.248
36.04000 4.701
36.06000 2.166
36.08000 -0.476
36.10000 0.009
36.12000 0.626
36.14000 0.875
36.16000 0.005
36.18000 1.472
36.20000 6.445
36.22000 5.789
36.24000 2.238
36.26000 2.888
36.28000 0.706
36.30000 0.266
36.32000 3.082
36.34000 2.581
36.36000 0.650
36.38000 -3.481
36.40000 -0.331
36.42000 1.381
36.44000 1.309
36.46000 1.474
36.48000 0.651
36.50000 -1.378
36.52000 -0.475
36.54000 2.013
36.56000 4.596
36.58000 1.741
36.60000 3.388
36.62000 -0.296
36.64000 3.067
36.66000 2.614
36.68000 7.706
36.70000 8.344
36.72000 0.172
36.74000 0.043
36.76000 3.644
36.78000 -0.098
36.80000 1.683
36.82000 2.968
36.84000 -1.035
36.86000 0.464
36.88000 1.671
36.90000 1.715
36.92000 0.327
36.94000 1.431
36.96000 -3.515
36.98000 -1.989
37.00000 -0.009
37.02000 1.912
37.04000 -1.391
37.06000 3.518
37.08000 2.557
37.10000 2.534
37.12000 -0.091
37.14000 -1.154
37.16000 0.044
37.18000 1.060
37.20000 6.514
37.22000 4.446
37.24000 3.954
37.26000 2.181
37.28000 2.606
37.30000 1.598
37.32000 -1.081
37.34000 0.543
37.36000 3.760
37.38000 3.854
37.40000 -0.963
37.42000 -3.533
37.44000 -2.190
37.46000 -0.932
37.48000 -0.214
37.50000 4.991
37.52000 4.310
37.54000 5.788
37.56000 3.837
37.58000 -0.167
37.60000 3.352
37.62000 1.416
37.64000 3.251
37.66000 -0.306
37.68000 0.666
37.70000 0.209
37.72000 -0.561
37.74000 -0.267
37.76000 1.717
37.78000 2.288
37.80000 4.483
37.82000 5.389
37.84000 0.487
37.86000 1.603
37.88000 5.419
37.90000 4.553
37.92000 2.999
37.94000 4.948
37.96000 6.706
37.98000 10.484
38.00000 10.956
38.02000 7.229
38.04000 4.672
38.06000 4.270
38.08000 4.955
38.10000 5.345
38.12000 3.226
38.14000 8.306
38.16000 11.635
38.18000 5.052
38.20000 2.852
38.22000 3.429
38.24000 5.274
38.26000 9.822
38.28000 11.158
38.30000 11.403
38.32000 15.314
38.34000 14.768
38.36000 6.643
38.38000 5.565
38.40000 7.709
38.42000 6.693
38.44000 11.786
38.46000 14.973
38.48000 17.072
38.50000 10.690
38.52000 10.184
38.54000 12.875
38.56000 12.358
38.58000 14.752
38.60000 11.017
38.62000 13.877
38.64000 15.475
38.66000 20.673
38.68000 17.946
38.70000 12.028
38.72000 15.546
38.74000 19.754
38.76000 18.214
38.78000 21.848
38.80000 17.467
38.82000 20.316
38.84000 22.267
38.86000 23.468
38.88000 18.291
38.90000 20.496
38.92000 20.281
38.94000 21.096
38.96000 21.701
38.98000 28.752
39.00000 26.138
39.02000 21.467
39.04000 21.876
39.06000 26.237
39.08000 28.741
39.10000 29.111
39.12000 28.257
39.14000 28.351
39.16000 27.712
39.18000 28.340
39.20000 32.924
39.22000 34.649
39.24000 37.590
39.26000 35.263
39.28000 37.021
39.30000 38.359
39.32000 36.863
39.34000 42.366
39.36000 44.435
39.38000 49.050
39.40000 53.196
39.42000 61.810
39.44000 64.904
39.46000 57.366
39.48000 56.090
39.50000 56.290
39.52000 58.203
39.54000 67.316
39.56000 72.010
39.58000 74.477
39.60000 78.039
39.62000 74.453
39.64000 78.964
39.66000 82.095
39.68000 91.497
39.70000 94.463
39.72000 96.109
39.74000 103.318
39.76000 104.791
39.78000 108.330
39.80000 114.588
39.82000 115.035
39.84000 117.386
39.86000 133.678
39.88000 136.841
39.90000 145.090
39.92000 153.057
39.94000 160.675
39.96000 161.936
39.98000 170.071
40.00000 172.756
40.02000 181.024
40.04000 195.971
40.06000 205.011
40.08000 214.236
40.10000 220.704
40.12000 241.400
40.14000 255.223
40.16000 262.935
40.18000 271.968
40.20000 276.284
40.22000 289.804
40.24000 312.638
40.26000 331.001
40.28000 333.992
40.30000 339.825
40.32000 349.653
40.34000 370.919
40.36000 392.267
40.38000 399.003
40.40000 418.031
40.42000 443.600
40.44000 448.021
40.46000 464.702
40.48000 469.821
40.50000 480.670
40.52000 499.928
40.54000 500.651
40.56000 514.390
40.58000 525.869
40.60000 526.740
40.62000 546.167
40.64000 548.612
40.66000 549.589
40.68000 556.146
40.70000 557.513
40.72000 556.765
40.74000 563.966
40.76000 559.537
40.78000 557.945
40.80000 542.518
40.82000 539.338
40.84000 532.926
40.86000 518.254
40.88000 507.607
40.90000 500.791
40.92000 489.126
40.94000 475.300
40.96000 460.961
40.98000 445.900
41.00000 431.417
41.02000 409.692
41.04000 397.508
41.06000 382.570
41.08000 368.645
41.10000 360.302
41.12000 345.658
41.14000 326.453
41.16000 315.552
41.18000 292.257
41.20000 281.448
41.22000 276.823
41.24000 256.582
41.26000 245.078
41.28000 240.043
41.30000 229.668
41.32000 219.300
41.34000 203.021
41.36000 192.877
41.38000 181.955
41.40000 168.032
41.42000 163.560
41.44000 156.340
41.46000 144.494
41.48000 134.996
41.50000 133.886
41.52000 127.182
41.54000 119.376
41.56000 114.128
41.58000 101.675
41.60000 98.381
41.62000 95.795
41.64000 95.189
41.66000 91.350
41.68000 82.333
41.70000 76.355
41.72000 73.355
41.74000 67.656
41.76000 68.578
41.78000 68.186
41.80000 58.725
41.82000 53.992
41.84000 53.911
41.86000 50.329
41.88000 49.104
41.90000 50.498
41.92000 45.029
41.94000 43.766
41.96000 39.297
41.98000 37.217
42.00000 37.836
42.02000 37.217
42.04000 31.521
42.06000 27.529
42.08000 26.955
42.10000 27.635
42.12000 26.527
42.14000 22.722
42.16000 25.612
42.18000 28.337
42.20000 24.034
42.22000 22.272
42.24000 21.812
42.26000 21.301
42.28000 21.973
42.30000 21.976
42.32000 19.192
42.34000 16.158
42.36000 20.723
42.38000 21.935
42.40000 15.555
42.42000 13.275
42.44000 14.606
42.46000 15.664
42.48000 12.442
42.50000 11.782
42.52000 8.317
42.54000 7.288
42.56000 8.693
42.58000 10.657
42.60000 12.663
42.62000 10.067
42.64000 10.543
42.66000 5.373
42.68000 0.502
42.70000 6.474
42.72000 6.590
42.74000 4.798
42.76000 6.699
42.78000 5.845
42.80000 2.701
42.82000 2.043
42.84000 5.053
42.86000 4.709
42.88000 0.555
42.90000 3.360
42.92000 4.945
42.94000 5.588
42.96000 8.205
42.98000 4.746
43.00000 1.933
43.02000 4.712
43.04000 4.913
43.06000 4.241
43.08000 1.703
43.10000 5.309
43.12000 2.624
43.14000 2.759
43.16000 0.268
43.18000 0.936
43.20000 4.021
43.22000 2.742
43.24000 4.118
43.26000 2.191
43.28000 -1.050
43.30000 -0.540
43.32000 7.941
43.34000 4.326
43.36000 3.314
43.38000 1.673
43.40000 -0.026
43.42000 -3.539
43.44000 4.281
43.46000 7.601
43.48000 7.413
43.50000 1.753
43.52000 0.627
43.54000 -0.245
43.56000 1.458
43.58000 3.501
43.60000 2.421
43.62000 3.277
43.64000 -0.170
43.66000 0.457
43.68000 1.015
43.70000 3.966
43.72000 -2.564
43.74000 0.370
43.76000 1.567
43.78000 2.064
43.80000 2.184
43.82000 -1.314
43.84000 -0.121
43.86000 -1.582
43.88000 1.063
43.90000 0.146
43.92000 -1.702
43.94000 -1.722
43.96000 0.073
43.98000 3.113
44.00000 1.314
44.02000 -3.273
44.04000 -0.074
44.06000 1.617
44.08000 5.963
44.10000 2.419
44.12000 -0.687
44.14000 -3.483
44.16000 -2.047
44.18000 1.825
44.20000 2.193
44.22000 1.854
44.24000 2.985
44.26000 -0.206
44.28000 -0.049
44.30000 1.097
44.32000 1.093
44.34000 4.260
44.36000 -2.006
44.38000 -1.931
44.40000 1.243
44.42000 -1.248
44.44000 -1.974
44.46000 -1.881
44.48000 0.378
44.50000 2.535
44.52000 -0.860
44.54000 0.007
44.56000 -3.161
44.58000 0.182
44.60000 2.455
44.62000 2.124
44.64000 0.537
44.66000 -1.462
44.68000 -0.466
44.70000 -1.723
44.72000 -0.818
44.74000 1.227
44.76000 -1.816
44.78000 -3.489
44.80000 0.524
44.82000 1.682
44.84000 2.591
44.86000 3.820
44.88000 0.731
44.90000 -1.065
44.92000 -1.961
44.94000 -0.145
44.96000 -0.251
44.98000 -2.884
45.00000 -1.494
45.02000 2.752
45.04000 -0.681
45.06000 1.239
45.08000 -1.257
45.10000 0.556
45.12000 5.073
45.14000 3.936
45.16000 2.892
45.18000 3.084
45.20000 -1.977
45.22000 2.078
45.24000 -3.490
45.26000 0.187
45.28000 -1.521
45.30000 -2.304
45.32000 2.717
45.34000 8.304
45.36000 7.385
45.38000 3.205
45.40000 4.379
45.42000 7.055
45.44000 7.277
45.46000 4.525
45.48000 4.002
45.50000 2.029
45.52000 3.737
45.54000 2.449
45.56000 2.277
45.58000 3.092
45.60000 -0.595
45.62000 2.779
45.64000 8.947
45.66000 6.609
45.68000 3.496
45.70000 13.378
45.72000 13.037
45.74000 8.679
45.76000 10.825
45.78000 6.784
45.80000 10.026
45.82000 2.526
45.84000 3.985
45.86000 6.860
45.88000 9.366
45.90000 10.897
45.92000 12.139
45.94000 11.177
45.96000 13.458
45.98000 17.789
46.00000 16.130
46.02000 15.858
46.04000 14.118
46.06000 17.898
46.08000 19.813
46.10000 18.249
46.12000 16.634
46.14000 15.808
46.16000 13.468
46.18000 19.727
46.20000 23.055
46.22000 21.382
46.24000 18.438
46.26000 21.881
46.28000 23.774
46.30000 32.163
46.32000 34.050
46.34000 34.740
46.36000 33.089
46.38000 30.248
46.40000 31.486
46.42000 30.597
46.44000 37.002
46.46000 35.074
46.48000 29.350
46.50000 31.462
46.52000 39.126
46.54000 33.239
46.56000 38.362
46.58000 41.495
46.60000 34.532
46.62000 40.303
46.64000 44.228
46.66000 41.178
46.68000 39.640
46.70000 43.942
46.72000 51.691
46.74000 53.558
46.76000 50.777
46.78000 55.154
46.80000 57.765
46.82000 50.791
46.84000 49.991
46.86000 51.710
46.88000 54.590
46.90000 56.059
46.92000 64.080
46.94000 67.069
46.96000 66.361
46.98000 64.667
47.00000 62.056
47.02000 65.502
47.04000 62.731
47.06000 58.823
47.08000 68.647
47.10000 67.294
47.12000 63.574
47.14000 61.391
47.16000 63.798
47.18000 74.232
47.20000 74.768
47.22000 75.122
47.24000 64.131
47.26000 69.023
47.28000 64.002
47.30000 68.403
47.32000 69.149
47.34000 72.429
47.36000 75.061
47.38000 65.442
47.40000 65.262
47.42000 67.956
47.44000 69.104
47.46000 72.618
47.48000 69.492
47.50000 61.785
47.52000 64.383
47.54000 61.929
47.56000 59.808
47.58000 54.293
47.60000 51.450
47.62000 59.120
47.64000 52.446
47.66000 51.918
47.68000 57.598
47.70000 48.266
47.72000 47.741
47.74000 47.448
47.76000 41.911
47.78000 43.203
47.80000 52.932
47.82000 46.765
47.84000 41.420
47.86000 37.933
47.88000 35.781
47.90000 36.861
47.92000 35.337
47.94000 34.703
47.96000 36.846
47.98000 36.630
48.00000 30.185
48.02000 34.961
48.04000 31.233
48.06000 20.577
48.08000 19.390
48.10000 18.582
48.12000 17.417
48.14000 25.110
48.16000 27.903
48.18000 24.261
48.20000 21.247
48.22000 19.270
48.24000 18.701
48.26000 20.644
48.28000 25.623
48.30000 21.153
48.32000 17.285
48.34000 15.579
48.36000 12.113
48.38000 10.294
48.40000 10.614
48.42000 10.700
48.44000 12.365
48.46000 10.139
48.48000 10.524
48.50000 11.724
48.52000 13.450
48.54000 11.708
48.56000 12.398
48.58000 6.189
48.60000 10.479
48.62000 16.962
48.64000 10.628
48.66000 2.327
48.68000 2.848
48.70000 5.954
48.72000 1.779
48.74000 -0.822
48.76000 -0.250
48.78000 2.271
48.80000 -1.829
48.82000 -0.308
48.84000 5.319
48.86000 3.342
48.88000 0.028
48.90000 -3.204
48.92000 -2.587
48.94000 1.020
48.96000 1.186
48.98000 1.018
49.00000 2.438
49.02000 -0.609
49.04000 3.073
49.06000 7.171
49.08000 8.183
49.10000 4.923
49.12000 5.468
49.14000 0.682
49.16000 2.174
49.18000 2.112
49.20000 3.627
49.22000 0.391
49.24000 1.138
49.26000 -1.742
49.28000 4.108
49.30000 6.691
49.32000 2.376
49.34000 1.604
49.36000 4.851
49.38000 2.661
49.40000 3.144
49.42000 -0.393
49.44000 -3.111
49.46000 -2.627
49.48000 -0.804
49.50000 -0.493
49.52000 2.291
49.54000 6.826
49.56000 7.150
49.58000 1.903
49.60000 -0.392
49.62000 1.873
49.64000 -0.440
49.66000 2.930
49.68000 6.200
49.70000 4.201
49.72000 1.247
49.74000 2.223
49.76000 3.913
49.78000 -0.668
49.80000 -1.315
49.82000 -0.183
49.84000 2.782
49.86000 3.314
49.88000 8.570
49.90000 1.217
49.92000 -2.500
49.94000 3.129
49.96000 2.421
49.98000 -2.372
50.00000 -2.219
50.02000 1.303
50.04000 2.226
50.06000 -0.169
50.08000 0.987
50.10000 -0.179
50.12000 4.291
50.14000 6.384
50.16000 7.286
50.18000 5.367
50.20000 4.016
50.22000 6.191
50.24000 0.291
50.26000 0.894
50.28000 2.060
50.30000 6.121
50.32000 3.235
50.34000 0.508
50.36000 1.298
50.38000 2.476
50.40000 3.044
50.42000 1.989
50.44000 3.223
50.46000 0.608
50.48000 3.306
50.50000 6.691
50.52000 3.609
50.54000 7.060
50.56000 4.439
50.58000 1.653
50.60000 1.401
50.62000 -0.720
50.64000 2.197
50.66000 4.977
50.68000 3.976
50.70000 2.336
50.72000 2.801
50.74000 4.544
50.76000 7.694
50.78000 4.306
50.80000 2.122
50.82000 4.246
50.84000 -2.912
50.86000 2.575
50.88000 7.392
50.90000 8.331
50.92000 1.988
50.94000 2.536
50.96000 5.702
50.98000 6.191
51.00000 4.684
51.02000 10.405
51.04000 4.883
51.06000 0.923
51.08000 3.767
51.10000 8.608
51.12000 4.919
51.14000 1.159
51.16000 3.010
51.18000 0.805
51.20000 1.963
51.22000 8.583
51.24000 8.982
51.26000 -0.543
51.28000 1.010
51.30000 2.269
51.32000 1.110
51.34000 3.049
51.36000 4.006
51.38000 4.681
51.40000 5.446
51.42000 3.768
51.44000 5.739
51.46000 6.093
51.48000 3.561
51.50000 8.571
51.52000 6.318
51.54000 7.563
51.56000 8.441
51.58000 6.601
51.60000 5.705
51.62000 2.022
51.64000 2.500
51.66000 -2.881
51.68000 0.408
51.70000 2.867
51.72000 0.567
51.74000 -1.747
51.76000 0.917
51.78000 4.595
51.80000 10.141
51.82000 7.980
51.84000 4.312
51.86000 6.026
51.88000 4.759
51.90000 2.852
51.92000 3.473
51.94000 1.596
51.96000 3.937
51.98000 3.031
52.00000 3.509
52.02000 4.943
52.04000 7.322
52.06000 8.996
52.08000 6.016
52.10000 6.385
52.12000 6.968
52.14000 10.142
52.16000 8.033
52.18000 3.318
52.20000 3.474
52.22000 4.025
52.24000 4.639
52.26000 0.997
52.28000 0.888
52.30000 -2.872
52.32000 -0.030
52.34000 3.477
52.36000 2.154
52.38000 3.010
52.40000 2.992
52.42000 6.582
52.44000 4.580
52.46000 7.287
52.48000 5.162
52.50000 8.462
52.52000 8.406
52.54000 3.157
52.56000 0.311
52.58000 1.115
52.60000 1.308
52.62000 2.047
52.64000 -1.385
52.66000 3.660
52.68000 1.517
52.70000 0.267
52.72000 6.353
52.74000 8.626
52.76000 3.900
52.78000 -0.352
52.80000 1.083
52.82000 1.440
52.84000 3.275
52.86000 0.642
52.88000 -1.901
52.90000 -2.866
52.92000 0.916
52.94000 -2.008
52.96000 2.907
52.98000 2.659
53.00000 7.717
53.02000 7.070
53.04000 4.013
53.06000 -0.028
53.08000 2.130
53.10000 2.136
53.12000 -2.605
53.14000 3.339
53.16000 7.061
53.18000 1.018
53.20000 0.362
53.22000 1.912
53.24000 3.546
53.26000 1.671
53.28000 0.361
53.30000 0.072
53.32000 3.213
53.34000 -0.286
53.36000 1.969
53.38000 2.195
53.40000 2.121
53.42000 3.862
53.44000 5.897
53.46000 3.391
53.48000 -0.593
53.50000 -1.751
53.52000 0.491
53.54000 0.969
53.56000 0.286
53.58000 -0.268
53.60000 -2.195
53.62000 1.445
53.64000 3.260
53.66000 -2.854
53.68000 -2.058
53.70000 -0.713
53.72000 -1.456
53.74000 1.800
53.76000 4.703
53.78000 1.401
53.80000 4.077
53.82000 9.695
53.84000 10.815
53.86000 7.538
53.88000 3.997
53.90000 0.154
53.92000 5.045
53.94000 8.209
53.96000 3.942
53.98000 2.690
54.00000 7.399
54.02000 3.954
54.04000 1.875
54.06000 -0.856
54.08000 -0.197
54.10000 8.389
54.12000 9.965
54.14000 3.634
54.16000 1.302
54.18000 0.314
54.20000 0.997
54.22000 2.515
54.24000 5.025
54.26000 7.824
54.28000 2.363
54.30000 2.615
54.32000 1.920
54.34000 -0.160
54.36000 4.039
54.38000 4.798
54.40000 -1.026
54.42000 -2.598
54.44000 -2.831
54.46000 -1.828
54.48000 0.477
54.50000 1.096
54.52000 1.903
54.54000 3.403
54.56000 1.212
54.58000 3.456
54.60000 3.006
54.62000 8.614
54.64000 7.952
54.66000 2.046
54.68000 0.869
54.70000 0.374
54.72000 -0.402
54.74000 0.345
54.76000 4.940
54.78000 8.710
54.80000 11.749
54.82000 -2.815
54.84000 0.342
54.86000 6.371
54.88000 5.520
54.90000 4.633
54.92000 5.082
54.94000 7.912
54.96000 2.536
54.98000 1.767
55.00000 3.506
55.02000 3.805
55.04000 4.303
55.06000 6.054
55.08000 6.684
55.10000 4.675
55.12000 3.924
55.14000 0.708
55.16000 5.854
55.18000 7.567
55.20000 5.000
55.22000 1.949
55.24000 0.045
55.26000 1.267
55.28000 3.480
55.30000 1.541
55.32000 0.793
55.34000 4.341
55.36000 3.572
55.38000 -2.810
55.40000 -1.067
55.42000 -0.451
55.44000 0.660
55.46000 0.698
55.48000 4.177
55.50000 1.868
55.52000 3.469
55.54000 1.639
55.56000 1.556
55.58000 2.282
55.60000 2.692
55.62000 5.642
55.64000 4.924
55.66000 3.611
55.68000 -0.201
55.70000 -1.885
55.72000 -1.134
55.74000 -0.046
55.76000 -0.641
55.78000 -0.962
55.80000 5.557
55.82000 1.452
55.84000 2.880
55.86000 6.512
55.88000 5.758
55.90000 2.418
55.92000 -0.784
55.94000 4.729
55.96000 3.728
55.98000 5.694
56.00000 5.203
56.02000 4.825
56.04000 3.023
56.06000 7.756
56.08000 9.888
56.10000 1.158
56.12000 -1.633
56.14000 4.252
56.16000 3.799
56.18000 2.551
56.20000 6.561
56.22000 6.446
56.24000 3.235
56.26000 2.886
56.28000 0.066
56.30000 1.699
56.32000 2.431
56.34000 2.585
56.36000 3.597
56.38000 5.364
56.40000 3.457
56.42000 4.839
56.44000 0.688
56.46000 3.630
56.48000 4.899
56.50000 2.704
56.52000 3.502
56.54000 4.603
56.56000 3.706
56.58000 6.005
56.60000 7.263
56.62000 -0.313
56.64000 -1.902
56.66000 0.326
56.68000 1.585
56.70000 4.574
56.72000 6.534
56.74000 5.565
56.76000 3.295
56.78000 4.403
56.80000 8.694
56.82000 8.389
56.84000 4.390
56.86000 -2.737
56.88000 2.068
56.90000 2.167
56.92000 5.542
56.94000 7.274
56.96000 1.826
56.98000 3.631
57.00000 1.568
57.02000 0.939
57.04000 5.265
57.06000 6.148
57.08000 3.125
57.10000 1.977
57.12000 6.155
57.14000 5.438
57.16000 6.732
57.18000 3.083
57.20000 3.243
57.22000 4.336
57.24000 8.018
57.26000 7.818
57.28000 2.425
57.30000 -2.713
57.32000 5.758
57.34000 7.115
57.36000 3.312
57.38000 1.161
57.40000 0.025
57.42000 3.379
57.44000 1.715
57.46000 0.484
57.48000 0.849
57.50000 -0.423
57.52000 2.015
57.54000 -0.413
57.56000 2.382
57.58000 3.430
57.60000 4.657
57.62000 2.071
57.64000 5.803
57.66000 6.331
57.68000 -0.142
57.70000 2.505
57.72000 9.710
57.74000 8.359
57.76000 5.711
57.78000 4.384
57.80000 2.931
57.82000 2.332
57.84000 2.750
57.86000 -0.210
57.88000 0.299
57.90000 2.464
57.92000 8.124
57.94000 6.958
57.96000 5.431
57.98000 3.849
58.00000 4.483
58.02000 7.585
58.04000 3.658
58.06000 2.654
58.08000 -0.630
58.10000 -0.507
58.12000 0.926
58.14000 0.334
58.16000 2.104
58.18000 -2.704
58.20000 -1.910
58.22000 2.272
58.24000 2.695
58.26000 3.945
58.28000 3.212
58.30000 1.222
58.32000 -1.181
58.34000 1.341
58.36000 7.423
58.38000 5.844
58.40000 7.809
58.42000 9.440
58.44000 6.878
58.46000 7.652
58.48000 12.226
58.50000 8.499
58.52000 7.399
58.54000 8.531
58.56000 11.303
58.58000 1.366
58.60000 -0.679
58.62000 -2.449
58.64000 4.130
58.66000 4.963
58.68000 1.566
58.70000 4.624
58.72000 2.071
58.74000 3.409
58.76000 2.994
58.78000 -2.672
58.80000 -0.748
58.82000 -0.435
58.84000 1.418
58.86000 3.396
58.88000 5.817
58.90000 4.481
58.92000 5.525
58.94000 2.670
58.96000 0.071
58.98000 2.206
59.00000 3.038
59.02000 3.962
59.04000 0.190
59.06000 -0.492
59.08000 1.522
59.10000 1.195
59.12000 1.159
59.14000 4.844
59.16000 5.195
59.18000 4.142
59.20000 2.934
59.22000 5.636
59.24000 5.957
59.26000 3.062
59.28000 -1.209
59.30000 -0.873
59.32000 4.663
59.34000 8.743
59.36000 8.402
59.38000 5.895
59.40000 -0.894
59.42000 1.396
59.44000 3.746
59.46000 6.410
59.48000 1.623
59.50000 0.227
59.52000 4.004
59.54000 4.911
59.56000 4.033
59.58000 3.956
59.60000 2.597
59.62000 0.939
59.64000 1.044
59.66000 -2.654
59.68000 0.120
59.70000 1.381
59.72000 6.164
59.74000 4.988
59.76000 9.790
59.78000 3.501
59.80000 0.742
59.82000 2.144
59.84000 5.386
59.86000 4.516
59.88000 5.731
59.90000 5.562
59.92000 7.640
59.94000 2.924
59.96000 0.879
59.98000 5.592
60.00000 6.710
60.02000 0.495
60.04000 -0.144
60.06000 2.680
60.08000 4.025
60.10000 4.402
60.12000 2.163
60.14000 1.859
60.16000 3.575
60.18000 2.467
60.20000 1.645
60.22000 0.349
60.24000 5.596
60.26000 1.916
60.28000 0.410
60.30000 -0.890
60.32000 1.897
60.34000 5.960
60.36000 7.443
60.38000 9.351
60.40000 5.050
60.42000 5.011
60.44000 5.315
60.46000 9.627
60.48000 8.833
60.50000 11.479
60.52000 6.012
60.54000 4.292
60.56000 5.300
60.58000 3.343
60.60000 8.125
60.62000 10.764
60.64000 7.704
60.66000 5.618
60.68000 3.437
60.70000 3.119
60.72000 4.135
60.74000 5.523
60.76000 3.796
60.78000 4.093
60.80000 6.288
60.82000 2.963
60.84000 5.552
60.86000 6.807
60.88000 4.673
60.90000 3.515
60.92000 4.644
60.94000 5.575
60.96000 7.182
60.98000 5.748
61.00000 3.758
61.02000 -2.559
61.04000 2.335
61.06000 3.776
61.08000 7.393
61.10000 6.736
61.12000 5.335
61.14000 3.753
61.16000 1.180
61.18000 0.950
61.20000 6.215
61.22000 4.406
61.24000 4.085
61.26000 5.714
61.28000 6.323
61.30000 -0.033
61.32000 1.212
61.34000 5.852
61.36000 8.811
61.38000 6.160
61.40000 0.272
61.42000 1.585
61.44000 4.045
61.46000 0.383
61.48000 4.502
61.50000 6.266
61.52000 6.407
61.54000 6.990
61.56000 4.769
61.58000 3.281
61.60000 1.464
61.62000 3.846
61.64000 5.992
61.66000 0.320
61.68000 -2.137
61.70000 -0.111
61.72000 5.251
61.74000 4.047
61.76000 3.624
61.78000 3.181
61.80000 2.451
61.82000 -0.390
61.84000 3.414
61.86000 3.759
61.88000 2.858
61.90000 -1.146
61.92000 0.113
61.94000 1.608
61.96000 4.421
61.98000 0.614
62.00000 1.141
62.02000 2.406
62.04000 4.151
62.06000 3.113
62.08000 2.015
62.10000 3.439
62.12000 -0.624
62.14000 -0.309
62.16000 5.542
62.18000 2.799
62.20000 2.718
62.22000 3.762
62.24000 3.070
62.26000 5.277
62.28000 4.860
62.30000 4.684
62.32000 4.104
62.34000 5.069
62.36000 0.688
62.38000 3.481
62.40000 0.041
62.42000 0.264
62.44000 1.997
62.46000 2.715
62.48000 5.002
62.50000 2.384
62.52000 0.205
62.54000 5.185
62.56000 5.186
62.58000 1.438
62.60000 6.053
62.62000 3.345
62.64000 1.294
62.66000 3.313
62.68000 1.535
62.70000 3.978
62.72000 3.953
62.74000 3.212
62.76000 3.853
62.78000 5.536
62.80000 3.236
62.82000 3.257
62.84000 3.215
62.86000 1.627
62.88000 4.581
62.90000 6.793
62.92000 4.988
62.94000 1.959
62.96000 1.689
62.98000 3.091
63.00000 3.469
63.02000 0.047
63.04000 -0.260
63.06000 1.994
63.08000 4.972
63.10000 6.793
63.12000 2.552
63.14000 0.498
63.16000 -2.548
63.18000 0.044
63.20000 -1.202
63.22000 3.282
63.24000 5.292
63.26000 -0.161
63.28000 0.308
63.30000 0.547
63.32000 1.454
63.34000 3.199
63.36000 5.310
63.38000 2.322
63.40000 3.003
63.42000 4.934
63.44000 0.702
63.46000 0.951
63.48000 4.305
63.50000 4.678
63.52000 2.313
63.54000 4.096
63.56000 7.021
63.58000 4.626
63.60000 2.598
63.62000 4.309
63.64000 8.276
63.66000 0.168
63.68000 1.888
63.70000 1.727
63.72000 -0.076
63.74000 0.915
63.76000 2.505
63.78000 3.070
63.80000 3.843
63.82000 5.325
63.84000 6.856
63.86000 6.485
63.88000 3.998
63.90000 6.140
63.92000 3.496
63.94000 1.174
63.96000 0.708
63.98000 0.334
64.00000 -2.565
64.02000 -0.841
64.04000 4.044
64.06000 6.631
64.08000 2.888
64.10000 4.278
64.12000 5.040
64.14000 3.111
64.16000 0.106
64.18000 0.222
64.20000 0.755
64.22000 0.154
64.24000 1.924
64.26000 6.958
64.28000 6.660
64.30000 1.799
64.32000 0.717
64.34000 2.168
64.36000 1.367
64.38000 1.991
64.40000 3.235
64.42000 3.217
64.44000 4.835
64.46000 0.802
64.48000 -2.059
64.50000 0.804
64.52000 -0.370
64.54000 1.642
64.56000 2.766
64.58000 2.469
64.60000 5.389
64.62000 6.781
64.64000 3.878
64.66000 -2.577
64.68000 0.132
64.70000 2.294
64.72000 4.690
64.74000 1.956
64.76000 0.421
64.78000 0.240
64.80000 1.188
64.82000 -0.215
64.84000 5.294
64.86000 5.746
64.88000 5.014
64.90000 2.350
64.92000 1.467
64.94000 1.466
64.96000 1.461
64.98000 4.308
65.00000 4.212
65.02000 3.250
65.04000 1.822
65.06000 4.408
65.08000 3.651
65.10000 4.557
65.12000 1.282
65.14000 1.893
65.16000 -0.378
65.18000 -1.484
65.20000 -0.101
65.22000 4.961
65.24000 2.459
65.26000 4.080
65.28000 3.487
65.30000 3.743
65.32000 0.180
65.34000 -2.578
65.36000 1.579
65.38000 0.280
65.40000 2.814
65.42000 2.312
65.44000 2.160
65.46000 5.808
65.48000 4.132
65.50000 3.880
65.52000 4.419
65.54000 2.007
65.56000 4.112
65.58000 2.162
65.60000 3.881
65.62000 5.558
65.64000 1.536
65.66000 5.570
65.68000 3.189
65.70000 5.621
65.72000 4.047
65.74000 5.180
65.76000 3.684
65.78000 2.903
65.80000 2.612
65.82000 4.436
65.84000 2.521
65.86000 3.533
65.88000 4.267
65.90000 4.011
65.92000 1.554
65.94000 0.884
65.96000 3.676
65.98000 4.358
66.00000 6.672
66.02000 5.684
66.04000 4.790
66.06000 1.441
66.08000 1.305
66.10000 2.523
66.12000 5.593
66.14000 9.017
66.16000 9.371
66.18000 5.339
66.20000 1.847
66.22000 5.540
66.24000 2.507
66.26000 -2.545
66.28000 0.629
66.30000 5.256
66.32000 2.733
66.34000 -0.563
66.36000 -1.239
66.38000 4.063
66.40000 7.375
66.42000 7.235
66.44000 3.066
66.46000 3.894
66.48000 2.909
66.50000 4.760
66.52000 4.747
66.54000 5.826
66.56000 4.649
66.58000 4.109
66.60000 3.428
66.62000 1.817
66.64000 2.028
66.66000 1.587
66.68000 4.300
66.70000 1.129
66.72000 2.240
66.74000 1.025
66.76000 1.235
66.78000 -0.045
66.80000 3.367
66.82000 4.508
66.84000 -0.369
66.86000 0.592
66.88000 2.315
66.90000 -2.395
66.92000 -2.605
66.94000 0.589
66.96000 3.599
66.98000 1.065
67.00000 -0.440
67.02000 1.530
67.04000 4.215
67.06000 3.475
67.08000 0.937
67.10000 -1.042
67.12000 0.126
67.14000 4.757
67.16000 6.102
67.18000 4.250
67.20000 4.284
67.22000 4.846
67.24000 5.540
67.26000 0.159
67.28000 -0.365
67.30000 0.323
67.32000 2.448
67.34000 1.709
67.36000 2.202
67.38000 2.187
67.40000 5.075
67.42000 6.888
67.44000 2.281
67.46000 0.261
67.48000 1.190
67.50000 -2.643
67.52000 -1.091
67.54000 6.883
67.56000 4.568
67.58000 1.844
67.60000 -0.600
67.62000 0.901
67.64000 3.645
67.66000 1.757
67.68000 0.090
67.70000 -1.441
67.72000 -0.569
67.74000 1.545
67.76000 -0.193
67.78000 3.766
67.80000 5.076
67.82000 3.603
67.84000 6.235
67.86000 5.400
67.88000 9.650
67.90000 8.686
67.92000 5.788
67.94000 4.969
67.96000 7.139
67.98000 4.467
68.00000 10.795
68.02000 8.333
68.04000 8.735
68.06000 7.647
68.08000 7.747
68.10000 8.309
68.12000 10.098
68.14000 10.530
68.16000 6.795
68.18000 5.845
68.20000 7.806
68.22000 7.914
68.24000 11.593
68.26000 10.846
68.28000 10.034
68.30000 7.628
68.32000 7.934
68.34000 8.920
68.36000 12.431
68.38000 11.312
68.40000 12.584
68.42000 13.426
68.44000 17.987
68.46000 14.567
68.48000 13.083
68.50000 19.975
68.52000 16.154
68.54000 13.625
68.56000 12.369
68.58000 15.983
68.60000 21.014
68.62000 18.952
68.64000 14.527
68.66000 17.406
68.68000 18.475
68.70000 17.127
68.72000 23.007
68.74000 18.144
68.76000 16.874
68.78000 20.542
68.80000 20.686
68.82000 24.033
68.84000 22.695
68.86000 24.427
68.88000 27.449
68.90000 23.128
68.92000 22.931
68.94000 27.931
68.96000 26.592
68.98000 20.411
69.00000 24.028
69.02000 25.529
69.04000 29.211
69.06000 24.172
69.08000 24.425
69.10000 28.556
69.12000 26.399
69.14000 25.748
69.16000 23.273
69.18000 20.815
69.20000 23.342
69.22000 27.360
69.24000 27.808
69.26000 26.795
69.28000 23.412
69.30000 20.550
69.32000 19.486
69.34000 23.008
69.36000 25.577
69.38000 25.225
69.40000 23.164
69.42000 20.833
69.44000 20.422
69.46000 21.093
69.48000 22.348
69.50000 21.558
69.52000 21.964
69.54000 18.494
69.56000 18.565
69.58000 17.686
69.60000 21.400
69.62000 21.465
69.64000 17.042
69.66000 13.866
69.68000 14.872
69.70000 11.264
69.72000 12.686
69.74000 18.577
69.76000 16.294
69.78000 15.795
69.80000 15.219
69.82000 10.620
69.84000 9.554
69.86000 11.864
69.88000 12.386
69.90000 11.444
69.92000 6.546
69.94000 7.161
69.96000 11.455
69.98000 11.158
70.00000 12.901
70.02000 11.483
70.04000 7.514
70.06000 4.226
70.08000 6.791
70.10000 11.211
70.12000 5.228
70.14000 -0.093
70.16000 4.744
70.18000 8.205
70.20000 3.980
70.22000 7.367
70.24000 6.220
70.26000 4.473
70.28000 1.903
70.30000 6.929
70.32000 2.687
70.34000 5.365
70.36000 -0.338
70.38000 2.021
70.40000 7.505
70.42000 5.342
70.44000 0.294
70.46000 1.205
70.48000 -2.254
70.50000 -1.077
70.52000 -0.525
70.54000 2.253
70.56000 3.738
70.58000 3.635
70.60000 3.346
70.62000 5.878
70.64000 2.870
70.66000 5.097
70.68000 1.557
70.70000 2.983
70.72000 0.007
70.74000 1.415
70.76000 0.364
70.78000 0.897
70.80000 2.539
70.82000 2.379
70.84000 3.874
70.86000 5.027
70.88000 3.157
70.90000 3.419
70.92000 2.501
70.94000 1.115
70.96000 -2.245
70.98000 -1.216
71.00000 3.606
71.02000 -0.477
71.04000 -2.509
71.06000 1.714
71.08000 4.462
71.10000 5.298
71.12000 4.117
71.14000 6.711
71.16000 2.694
71.18000 6.519
71.20000 2.355
71.22000 3.103
71.24000 7.208
71.26000 7.150
71.28000 3.412
71.30000 4.437
71.32000 4.586
71.34000 3.748
71.36000 4.676
71.38000 0.956
71.40000 -1.987
71.42000 0.849
71.44000 3.271
71.46000 -0.422
71.48000 1.641
71.50000 4.777
71.52000 4.165
71.54000 3.553
71.56000 3.829
71.58000 4.093
71.60000 5.672
71.62000 0.651
71.64000 2.264
71.66000 0.189
71.68000 2.913
71.70000 7.288
71.72000 2.857
71.74000 4.504
71.76000 5.016
71.78000 2.526
71.80000 5.410
71.82000 0.555
71.84000 -0.082
71.86000 0.654
71.88000 -1.014
71.90000 4.601
71.92000 3.918
71.94000 1.213
71.96000 7.472
71.98000 4.616
72.00000 3.566
72.02000 5.061
72.04000 5.345
72.06000 2.268
72.08000 -1.574
72.10000 2.491
72.12000 1.001
72.14000 -2.423
72.16000 -1.284
72.18000 1.298
72.20000 2.460
72.22000 5.824
72.24000 7.537
72.26000 5.238
72.28000 0.076
72.30000 -2.411
72.32000 2.413
72.34000 2.917
72.36000 4.872
72.38000 5.893
72.40000 5.322
72.42000 7.028
72.44000 5.218
72.46000 4.195
72.48000 4.721
72.50000 5.237
72.52000 6.213
72.54000 3.477
72.56000 3.036
72.58000 1.277
72.60000 4.634
72.62000 3.404
72.64000 -0.960
72.66000 2.240
72.68000 1.390
72.70000 5.119
72.72000 5.483
72.74000 2.752
72.76000 2.625
72.78000 4.277
72.80000 -1.166
72.82000 0.830
72.84000 4.664
72.86000 4.336
72.88000 0.826
72.90000 -2.278
72.92000 -1.996
72.94000 3.327
72.96000 7.946
72.98000 0.957
73.00000 -1.048
73.02000 0.260
73.04000 0.987
73.06000 -2.395
73.08000 2.889
73.10000 8.318
73.12000 9.635
73.14000 5.796
73.16000 3.250
73.18000 3.930
73.20000 4.678
73.22000 3.933
73.24000 5.210
73.26000 6.069
73.28000 3.174
73.30000 3.165
73.32000 3.172
73.34000 7.984
73.36000 6.139
73.38000 3.252
73.40000 0.320
73.42000 3.842
73.44000 6.950
73.46000 4.387
73.48000 1.781
73.50000 0.631
73.52000 -1.199
73.54000 -1.669
73.56000 3.857
73.58000 6.196
73.60000 7.194
73.62000 5.781
73.64000 3.929
73.66000 0.364
73.68000 -2.199
73.70000 -2.166
73.72000 2.423
73.74000 5.612
73.76000 4.188
73.78000 3.239
73.80000 1.288
73.82000 3.268
73.84000 -0.730
73.86000 0.323
73.88000 3.842
73.90000 4.441
73.92000 7.788
73.94000 2.689
73.96000 2.749
73.98000 6.709
74.00000 5.157
74.02000 2.557
74.04000 4.628
74.06000 3.103
74.08000 2.498
74.10000 4.177
74.12000 3.706
74.14000 3.277
74.16000 5.668
74.18000 8.510
74.20000 5.498
74.22000 1.278
74.24000 3.209
74.26000 -0.313
74.28000 2.349
74.30000 0.747
74.32000 0.785
74.34000 4.228
74.36000 5.119
74.38000 2.646
74.40000 4.074
74.42000 4.186
74.44000 4.915
74.46000 3.741
74.48000 5.990
74.50000 5.500
74.52000 1.718
74.54000 -1.219
74.56000 -2.358
74.58000 0.381
74.60000 1.241
74.62000 2.742
74.64000 4.112
74.66000 4.905
74.68000 5.300
74.70000 4.579
74.72000 5.568
74.74000 5.082
74.76000 5.749
74.78000 8.382
74.80000 6.111
74.82000 2.901
74.84000 1.125
74.86000 4.280
74.88000 2.023
74.90000 3.903
74.92000 1.058
74.94000 5.332
74.96000 3.176
74.98000 -2.376
75.00000 -1.154
75.02000 0.330
75.04000 0.680
75.06000 -2.379
75.08000 5.455
75.10000 6.001
75.12000 3.733
75.14000 6.702
75.16000 6.584
75.18000 2.763
75.20000 -1.797
75.22000 1.271
75.24000 4.861
75.26000 2.680
75.28000 2.108
75.30000 3.921
75.32000 1.588
75.34000 3.404
75.36000 5.919
75.38000 8.439
75.40000 2.174
75.42000 2.513
75.44000 5.620
75.46000 4.746
75.48000 4.721
75.50000 2.678
75.52000 -0.390
75.54000 1.715
75.56000 1.645
75.58000 0.233
75.60000 5.470
75.62000 3.198
75.64000 1.969
75.66000 0.727
75.68000 4.079
75.70000 9.841
75.72000 2.898
75.74000 -1.450
75.76000 -2.394
75.78000 2.093
75.80000 3.522
75.82000 6.655
75.84000 6.767
75.86000 4.091
75.88000 4.256
75.90000 6.414
75.92000 3.538
75.94000 5.955
75.96000 0.310
75.98000 -0.102
76.00000 1.007
76.02000 -1.194
76.04000 4.714
76.06000 12.541
76.08000 2.809
76.10000 3.206
76.12000 3.779
76.14000 7.935
76.16000 4.580
76.18000 3.490
76.20000 5.966
76.22000 7.143
76.24000 6.227
76.26000 6.669
76.28000 5.432
76.30000 7.479
76.32000 4.406
76.34000 0.483
76.36000 2.223
76.38000 4.429
76.40000 1.699
76.42000 1.260
76.44000 4.137
76.46000 5.321
76.48000 5.078
76.50000 6.490
76.52000 6.146
76.54000 4.658
76.56000 -2.370
76.58000 3.808
76.60000 5.403
76.62000 3.555
76.64000 4.058
76.66000 0.872
76.68000 0.605
76.70000 2.272
76.72000 -1.919
76.74000 3.274
76.76000 5.435
76.78000 3.948
76.80000 3.352
76.82000 5.626
76.84000 2.156
76.86000 -0.362
76.88000 6.284
76.90000 4.707
76.92000 1.774
76.94000 1.346
76.96000 6.003
76.98000 9.033
77.00000 7.184
77.02000 6.423
77.04000 3.584
77.06000 -2.401
77.08000 5.031
77.10000 5.067
77.12000 1.794
77.14000 0.732
77.16000 4.973
77.18000 2.214
77.20000 3.185
77.22000 2.193
77.24000 2.814
77.26000 3.857
77.28000 1.387
77.30000 0.951
77.32000 3.472
77.34000 -0.588
77.36000 2.382
77.38000 5.443
77.40000 1.570
77.42000 0.044
77.44000 -0.433
77.46000 1.005
77.48000 3.411
77.50000 4.358
77.52000 1.407
77.54000 1.785
77.56000 0.473
77.58000 3.355
77.60000 1.734
77.62000 2.213
77.64000 4.350
77.66000 2.993
77.68000 1.391
77.70000 2.152
77.72000 3.816
77.74000 -2.441
77.76000 0.664
77.78000 1.739
77.80000 3.206
77.82000 3.594
77.84000 5.123
77.86000 0.235
77.88000 -2.064
77.90000 2.374
77.92000 0.021
77.94000 -0.443
77.96000 0.134
77.98000 1.496
78.00000 -0.567
78.02000 0.671
78.04000 1.693
78.06000 5.975
78.08000 2.697
78.10000 2.557
78.12000 3.567
78.14000 3.387
78.16000 0.083
78.18000 0.535
78.20000 5.160
78.22000 5.401
78.24000 1.278
78.26000 3.823
78.28000 4.825
78.30000 3.304
78.32000 3.762
78.34000 1.869
78.36000 0.402
78.38000 3.661
78.40000 2.763
78.42000 3.610
78.44000 4.135
78.46000 3.774
78.48000 2.271
78.50000 3.490
78.52000 1.063
78.54000 3.741
78.56000 -2.448
78.58000 0.218
78.60000 8.012
78.62000 2.209
78.64000 0.885
78.66000 -1.152
78.68000 1.668
78.70000 1.741
78.72000 2.154
78.74000 1.310
78.76000 0.815
78.78000 3.323
78.80000 4.333
78.82000 3.204
78.84000 4.038
78.86000 5.708
78.88000 5.215
78.90000 3.720
78.92000 3.284
78.94000 5.921
78.96000 6.628
78.98000 6.929
79.00000 5.046
79.02000 8.779
79.04000 6.031
79.06000 6.658
79.08000 3.438
79.10000 3.517
79.12000 2.977
79.14000 6.031
79.16000 6.544
79.18000 2.426
79.20000 1.188
79.22000 0.493
79.24000 3.221
79.26000 2.006
79.28000 2.979
79.30000 6.354
79.32000 3.290
79.34000 0.772
79.36000 5.907
79.38000 1.739
79.40000 3.796
79.42000 2.238
79.44000 -0.140
79.46000 1.017
79.48000 6.655
79.50000 3.345
79.52000 -1.315
79.54000 -1.336
79.56000 -1.592
79.58000 0.565
79.60000 2.725
79.62000 2.311
79.64000 3.265
79.66000 2.364
79.68000 -2.202
79.70000 0.570
79.72000 -1.475
79.74000 -0.881
79.76000 -2.445
79.78000 8.289
79.80000 6.475
79.82000 1.266
79.84000 7.316
79.86000 5.446
79.88000 -2.446
79.90000 -0.330
79.92000 2.747
79.94000 4.242
79.96000 3.688
79.98000 -0.959
80.00000 -1.272
80.02000 2.354
80.04000 2.033
80.06000 4.033
80.08000 3.351
80.10000 3.529
80.12000 5.904
80.14000 2.698
80.16000 3.703
80.18000 9.278
80.20000 3.520
80.22000 6.697
80.24000 4.175
80.26000 3.468
80.28000 1.131
80.30000 -2.453
80.32000 0.748
80.34000 1.196
80.36000 -1.075
80.38000 -2.459
80.40000 -0.407
80.42000 4.254
80.44000 3.016
80.46000 3.900
80.48000 4.001
80.50000 -1.004
80.52000 -1.815
80.54000 2.993
80.56000 4.088
80.58000 2.461
80.60000 0.877
80.62000 1.287
80.64000 -0.538
80.66000 1.145
80.68000 2.650
80.70000 0.285
80.72000 0.021
80.74000 3.349
80.76000 1.290
80.78000 -0.819
80.80000 3.808
80.82000 5.418
80.84000 6.637
80.86000 -0.140
80.88000 -0.247
80.90000 0.643
80.92000 2.683
80.94000 -1.962
80.96000 -2.252
80.98000 -0.614
81.00000 2.669
81.02000 7.203
81.04000 6.445
81.06000 0.463
81.08000 5.123
81.10000 8.218
81.12000 3.932
81.14000 4.730
81.16000 7.873
81.18000 5.593
81.20000 5.068
81.22000 2.268
81.24000 -0.811
81.26000 -2.543
81.28000 4.734
81.30000 5.754
81.32000 5.552
81.34000 5.934
81.36000 5.724
81.38000 4.371
81.40000 -0.305
81.42000 6.840
81.44000 1.321
81.46000 -0.980
81.48000 -1.710
81.50000 -0.280
81.52000 5.621
81.54000 10.482
81.56000 6.578
81.58000 -0.770
81.60000 0.853
81.62000 0.467
81.64000 5.461
81.66000 1.274
81.68000 1.789
81.70000 2.286
81.72000 -1.651
81.74000 -2.595
81.76000 2.581
81.78000 4.640
81.80000 4.349
81.82000 2.482
81.84000 1.558
81.86000 1.343
81.88000 0.889
81.90000 -1.234
81.92000 2.285
81.94000 3.701
81.96000 2.105
81.98000 3.234
82.00000 3.929
82.02000 4.640
82.04000 2.486
82.06000 3.597
82.08000 6.846
82.10000 5.269
82.12000 2.082
82.14000 7.381
82.16000 8.081
82.18000 4.571
82.20000 9.082
82.22000 12.536
82.24000 7.534
82.26000 3.488
82.28000 3.347
82.30000 6.402
82.32000 6.118
82.34000 5.448
82.36000 6.817
82.38000 7.662
82.40000 9.349
82.42000 8.078
82.44000 5.321
82.46000 10.468
82.48000 12.278
82.50000 12.217
82.52000 9.766
82.54000 10.862
82.56000 10.220
82.58000 9.028
82.60000 5.779
82.62000 6.843
82.64000 10.704
82.66000 13.264
82.68000 11.602
82.70000 7.491
82.72000 5.444
82.74000 11.296
82.76000 13.746
82.78000 12.765
82.80000 13.275
82.82000 13.346
82.84000 16.430
82.86000 16.399
82.88000 15.398
82.90000 12.866
82.92000 16.870
82.94000 17.824
82.96000 16.556
82.98000 23.134
83.00000 24.764
83.02000 18.689
83.04000 16.801
83.06000 19.428
83.08000 17.803
83.10000 22.458
83.12000 25.762
83.14000 24.232
83.16000 26.700
83.18000 22.946
83.20000 27.914
83.22000 22.013
83.24000 19.868
83.26000 20.810
83.28000 26.344
83.30000 22.021
83.32000 16.944
83.34000 21.815
83.36000 29.206
83.38000 23.740
83.40000 20.287
83.42000 26.140
83.44000 27.324
83.46000 24.504
83.48000 21.832
83.50000 23.326
83.52000 27.785
83.54000 26.835
83.56000 19.003
83.58000 16.345
83.60000 21.309
83.62000 20.292
83.64000 22.503
83.66000 20.106
83.68000 20.092
83.70000 22.356
83.72000 22.392
83.74000 22.636
83.76000 18.758
83.78000 20.955
83.80000 23.997
83.82000 19.200
83.84000 18.037
83.86000 19.554
83.88000 19.890
83.90000 19.666
83.92000 25.757
83.94000 22.761
83.96000 18.343
83.98000 19.859
84.00000 20.654
84.02000 16.561
84.04000 21.374
84.06000 22.678
84.08000 17.758
84.10000 11.626
84.12000 10.861
84.14000 15.615
84.16000 14.676
84.18000 15.096
84.20000 14.798
84.22000 10.080
84.24000 11.231
84.26000 11.737
84.28000 11.594
84.30000 15.934
84.32000 14.240
84.34000 12.990
84.36000 13.166
84.38000 12.816
84.40000 12.617
84.42000 9.618
84.44000 11.001
84.46000 8.432
84.48000 9.100
84.50000 6.873
84.52000 7.710
84.54000 8.521
84.56000 12.450
84.58000 12.047
84.60000 11.515
84.62000 8.928
84.64000 6.111
84.66000 5.384
84.68000 7.096
84.70000 9.842
84.72000 10.299
84.74000 6.945
84.76000 8.542
84.78000 8.163
84.80000 6.379
84.82000 5.584
84.84000 3.248
84.86000 0.041
84.88000 1.946
84.90000 9.585
84.92000 5.738
84.94000 4.251
84.96000 3.781
84.98000 5.309
85.00000 2.378
85.02000 4.364
85.04000 4.481
85.06000 1.922
85.08000 4.307
85.10000 4.121
85.12000 7.408
85.14000 3.377
85.16000 4.328
85.18000 6.718
85.20000 2.315
85.22000 1.459
85.24000 4.643
85.26000 1.735
85.28000 2.529
85.30000 1.637
85.32000 2.991
85.34000 6.484
85.36000 3.213
85.38000 2.821
85.40000 3.596
85.42000 6.708
85.44000 5.326
85.46000 7.977
85.48000 10.214
85.50000 8.378
85.52000 6.271
85.54000 -2.477
85.56000 -1.487
85.58000 3.557
85.60000 5.037
85.62000 0.813
85.64000 6.443
85.66000 6.871
85.68000 0.527
85.70000 -0.862
85.72000 3.454
85.74000 6.645
85.76000 1.469
85.78000 5.809
85.80000 7.471
85.82000 2.437
85.84000 -0.564
85.86000 -0.822
85.88000 4.544
85.90000 -0.323
85.92000 -2.354
85.94000 0.868
85.96000 4.105
85.98000 2.522
86.00000 1.663
86.02000 3.044
86.04000 1.687
86.06000 0.936
86.08000 -0.424
86.10000 3.165
86.12000 6.601
86.14000 0.002
86.16000 2.420
86.18000 2.951
86.20000 2.072
86.22000 6.289
86.24000 2.066
86.26000 -2.487
86.28000 1.552
86.30000 7.674
86.32000 4.834
86.34000 2.405
86.36000 0.205
86.38000 1.583
86.40000 -0.561
86.42000 0.899
86.44000 4.041
86.46000 5.127
86.48000 3.649
86.50000 1.325
86.52000 -1.567
86.54000 -2.496
86.56000 0.905
86.58000 -2.057
86.60000 -1.452
86.62000 1.438
86.64000 0.621
86.66000 4.710
86.68000 -0.943
86.70000 3.965
86.72000 5.134
86.74000 5.842
86.76000 5.986
86.78000 6.082
86.80000 2.261
86.82000 1.073
86.84000 5.404
86.86000 5.215
86.88000 3.216
86.90000 3.778
86.92000 6.823
86.94000 3.489
86.96000 4.877
86.98000 9.688
87.00000 4.657
87.02000 2.528
87.04000 2.768
87.06000 7.046
87.08000 10.138
87.10000 11.125
87.12000 8.841
87.14000 7.578
87.16000 6.416
87.18000 13.506
87.20000 7.868
87.22000 4.124
87.24000 6.492
87.26000 5.297
87.28000 5.727
87.30000 8.764
87.32000 3.259
87.34000 6.281
87.36000 8.851
87.38000 9.241
87.40000 9.164
87.42000 9.412
87.44000 11.144
87.46000 12.696
87.48000 9.869
87.50000 13.764
87.52000 14.231
87.54000 14.887
87.56000 18.151
87.58000 12.536
87.60000 13.612
87.62000 11.367
87.64000 9.610
87.66000 18.845
87.68000 16.184
87.70000 20.238
87.72000 20.532
87.74000 15.853
87.76000 20.317
87.78000 16.636
87.80000 14.716
87.82000 23.125
87.84000 22.474
87.86000 16.009
87.88000 21.932
87.90000 22.351
87.92000 20.925
87.94000 16.098
87.96000 16.586
87.98000 15.370
88.00000 13.547
88.02000 18.457
88.04000 21.502
88.06000 25.691
88.08000 24.366
88.10000 22.873
88.12000 20.121
88.14000 21.180
88.16000 26.350
88.18000 27.756
88.20000 26.904
88.22000 23.648
88.24000 20.885
88.26000 21.700
88.28000 23.077
88.30000 22.471
88.32000 26.580
88.34000 26.539
88.36000 26.894
88.38000 23.877
88.40000 24.634
88.42000 18.103
88.44000 23.922
88.46000 25.456
88.48000 18.702
88.50000 20.003
88.52000 18.991
88.54000 18.334
88.56000 19.527
88.58000 24.244
88.60000 21.973
88.62000 16.830
88.64000 13.547
88.66000 18.972
88.68000 17.382
88.70000 16.125
88.72000 18.914
88.74000 17.038
88.76000 14.897
88.78000 12.737
88.80000 11.621
88.82000 11.794
88.84000 11.539
88.86000 14.541
88.88000 13.309
88.90000 13.664
88.92000 11.484
88.94000 7.685
88.96000 8.690
88.98000 11.902
89.00000 8.686
89.02000 8.258
89.04000 8.252
89.06000 8.423
89.08000 5.545
89.10000 9.651
89.12000 9.243
89.14000 10.067
89.16000 8.071
89.18000 4.175
89.20000 6.355
89.22000 7.631
89.24000 3.410
89.26000 5.102
89.28000 3.625
89.30000 5.117
89.32000 7.910
89.34000 10.517
89.36000 8.203
89.38000 6.318
89.40000 8.880
89.42000 8.078
89.44000 2.852
89.46000 6.446
89.48000 6.591
89.50000 5.216
89.52000 -0.273
89.54000 3.664
89.56000 4.505
89.58000 4.896
89.60000 -0.096
89.62000 2.461
89.64000 10.467
89.66000 8.868
89.68000 6.867
89.70000 7.561
89.72000 9.531
89.74000 7.053
89.76000 5.443
89.78000 8.755
89.80000 6.425
89.82000 6.269
89.84000 4.565
89.86000 -2.301
89.88000 -0.488
89.90000 4.466
89.92000 7.497
89.94000 6.967
89.96000 4.293
89.98000 3.895
90.00000 4.942
90.02000 6.669
90.04000 7.838
90.06000 6.667
90.08000 6.821
90.10000 1.297
90.12000 -0.627
90.14000 1.422
90.16000 5.228
90.18000 7.922
90.20000 9.526
90.22000 3.465
90.24000 2.831
90.26000 -0.272
90.28000 1.873
90.30000 2.772
90.32000 2.684
90.34000 6.455
90.36000 1.298
90.38000 2.618
90.40000 5.351
90.42000 10.691
90.44000 6.931
90.46000 3.671
90.48000 5.937
90.50000 7.771
90.52000 7.702
90.54000 8.046
90.56000 6.830
90.58000 7.041
90.60000 5.050
90.62000 2.029
90.64000 2.019
90.66000 5.121
90.68000 8.989
90.70000 3.751
90.72000 -2.263
90.74000 4.310
90.76000 7.890
90.78000 5.766
90.80000 5.672
90.82000 6.190
90.84000 7.554
90.86000 6.119
90.88000 4.645
90.90000 1.392
90.92000 3.275
90.94000 5.966
90.96000 6.177
90.98000 5.964
91.00000 1.758
91.02000 2.917
91.04000 3.558
91.06000 3.646
91.08000 8.554
91.10000 7.571
91.12000 9.345
91.14000 9.471
91.16000 13.344
91.18000 7.237
91.20000 1.868
91.22000 1.614
91.24000 4.165
91.26000 4.881
91.28000 3.724
91.30000 0.994
91.32000 0.231
91.34000 5.300
91.36000 8.915
91.38000 5.223
91.40000 3.698
91.42000 -1.230
91.44000 0.908
91.46000 1.762
91.48000 7.157
91.50000 8.222
91.52000 6.788
91.54000 5.298
91.56000 2.903
91.58000 1.588
91.60000 0.689
91.62000 3.027
91.64000 2.362
91.66000 0.490
91.68000 5.450
91.70000 7.191
91.72000 12.275
91.74000 15.382
91.76000 14.895
91.78000 5.824
91.80000 8.900
91.82000 8.137
91.84000 4.378
91.86000 -2.218
91.88000 0.974
91.90000 8.530
91.92000 10.672
91.94000 9.751
91.96000 5.934
91.98000 3.259
92.00000 5.730
92.02000 5.906
92.04000 8.333
92.06000 10.861
92.08000 9.625
92.10000 7.770
92.12000 3.557
92.14000 4.047
92.16000 8.739
92.18000 14.104
92.20000 9.353
92.22000 4.057
92.24000 1.229
92.26000 1.994
92.28000 1.697
92.30000 3.380
92.32000 7.390
92.34000 5.582
92.36000 3.468
92.38000 5.516
92.40000 7.061
92.42000 7.998
92.44000 5.562
92.46000 3.142
92.48000 2.612
92.50000 2.451
92.52000 4.596
92.54000 6.775
92.56000 4.118
92.58000 5.237
92.60000 2.540
92.62000 7.111
92.64000 8.730
92.66000 7.029
92.68000 8.774
92.70000 5.006
92.72000 3.905
92.74000 5.782
92.76000 3.391
92.78000 0.904
92.80000 1.505
92.82000 0.967
92.84000 -0.417
92.86000 3.052
92.88000 6.292
92.90000 10.253
92.92000 7.682
92.94000 3.862
92.96000 4.372
92.98000 7.461
93.00000 8.800
93.02000 9.499
93.04000 5.390
93.06000 8.206
93.08000 9.063
93.10000 8.390
93.12000 8.607
93.14000 7.620
93.16000 8.391
93.18000 5.000
93.20000 6.879
93.22000 9.161
93.24000 5.982
93.26000 3.366
93.28000 4.988
93.30000 3.194
93.32000 1.249
93.34000 -2.243
93.36000 0.093
93.38000 4.511
93.40000 6.400
93.42000 8.499
93.44000 2.891
93.46000 0.089
93.48000 2.450
93.50000 3.937
93.52000 6.341
93.54000 4.508
93.56000 4.374
93.58000 1.404
93.60000 3.039
93.62000 5.848
93.64000 9.588
93.66000 8.057
93.68000 4.978
93.70000 3.071
93.72000 4.212
93.74000 8.412
93.76000 4.232
93.78000 0.113
93.80000 1.904
93.82000 1.399
93.84000 7.105
93.86000 -1.198
93.88000 0.583
93.90000 1.727
93.92000 6.715
93.94000 5.788
93.96000 0.585
93.98000 -0.156
94.00000 4.233
94.02000 4.806
94.04000 7.904
94.06000 7.948
94.08000 4.654
94.10000 5.546
94.12000 3.725
94.14000 5.951
94.16000 10.681
94.18000 7.169
94.20000 6.634
94.22000 3.557
94.24000 3.093
94.26000 5.643
94.28000 6.060
94.30000 3.039
94.32000 4.081
94.34000 3.597
94.36000 2.815
94.38000 1.714
94.40000 1.821
94.42000 1.997
94.44000 3.417
94.46000 2.627
94.48000 -0.446
94.50000 2.581
94.52000 8.222
94.54000 4.622
94.56000 7.030
94.58000 3.663
94.60000 -1.050
94.62000 3.963
94.64000 0.478
94.66000 -0.335
94.68000 7.949
94.70000 8.878
94.72000 11.045
94.74000 8.717
94.76000 6.610
94.78000 7.401
94.80000 4.354
94.82000 7.359
94.84000 3.599
94.86000 7.027
94.88000 7.693
94.90000 2.638
94.92000 4.905
94.94000 0.842
94.96000 -2.279
94.98000 -2.118
95.00000 4.278
95.02000 7.693
95.04000 0.492
95.06000 7.351
95.08000 4.247
95.10000 -0.766
95.12000 -0.626
95.14000 4.219
95.16000 4.009
95.18000 5.650
95.20000 7.942
95.22000 4.553
95.24000 3.210
95.26000 4.380
95.28000 1.961
95.30000 5.220
95.32000 3.008
95.34000 2.134
95.36000 4.590
95.38000 2.956
95.40000 -0.834
95.42000 -2.286
95.44000 3.655
95.46000 6.015
95.48000 7.316
95.50000 3.314
95.52000 10.240
95.54000 10.635
95.56000 13.338
95.58000 10.268
95.60000 5.344
95.62000 2.416
95.64000 3.798
95.66000 2.912
95.68000 3.211
95.70000 6.016
95.72000 4.558
95.74000 5.680
95.76000 9.317
95.78000 11.612
95.80000 7.560
95.82000 5.418
95.84000 2.308
95.86000 6.528
95.88000 9.861
95.90000 4.540
95.92000 1.137
95.94000 -0.818
95.96000 1.173
95.98000 2.611
96.00000 2.566
96.02000 6.570
96.04000 3.117
96.06000 7.774
96.08000 5.259
96.10000 -1.090
96.12000 3.203
96.14000 4.035
96.16000 -1.388
96.18000 -1.245
96.20000 4.520
96.22000 9.501
96.24000 9.917
96.26000 6.070
96.28000 6.390
96.30000 1.856
96.32000 2.923
96.34000 10.478
96.36000 10.070
96.38000 10.842
96.40000 8.033
96.42000 8.537
96.44000 7.167
96.46000 9.611
96.48000 7.238
96.50000 13.352
96.52000 16.195
96.54000 16.471
96.56000 6.255
96.58000 10.783
96.60000 9.583
96.62000 2.344
96.64000 7.191
96.66000 4.386
96.68000 5.177
96.70000 8.646
96.72000 6.560
96.74000 7.836
96.76000 10.512
96.78000 14.783
96.80000 11.489
96.82000 7.012
96.84000 13.368
96.86000 10.299
96.88000 5.448
96.90000 5.837
96.92000 2.046
96.94000 -2.217
96.96000 6.776
96.98000 9.312
97.00000 9.651
97.02000 10.430
97.04000 6.116
97.06000 2.862
97.08000 9.269
97.10000 9.613
97.12000 5.940
97.14000 3.792
97.16000 4.348
97.18000 9.791
97.20000 12.827
97.22000 11.005
97.24000 10.235
97.26000 4.863
97.28000 4.265
97.30000 5.750
97.32000 4.334
97.34000 7.882
97.36000 13.842
97.38000 8.612
97.40000 5.543
97.42000 6.002
97.44000 2.401
97.46000 3.198
97.48000 2.333
97.50000 -0.264
97.52000 3.727
97.54000 6.536
97.56000 8.650
97.58000 7.573
97.60000 7.237
97.62000 4.576
97.64000 4.984
97.66000 1.305
97.68000 6.659
97.70000 9.271
97.72000 9.978
97.74000 7.923
97.76000 6.086
97.78000 6.004
97.80000 3.425
97.82000 -2.224
97.84000 -1.162
97.86000 13.631
97.88000 6.017
97.90000 4.577
97.92000 6.574
97.94000 6.449
97.96000 4.244
97.98000 4.051
98.00000 8.031
98.02000 7.215
98.04000 4.511
98.06000 3.649
98.08000 9.503
98.10000 8.306
98.12000 8.475
98.14000 3.022
98.16000 2.914
98.18000 2.241
98.20000 8.853
98.22000 11.298
98.24000 0.130
98.26000 -0.335
98.28000 3.631
98.30000 -2.230
98.32000 0.573
98.34000 12.289
98.36000 17.450
98.38000 8.435
98.40000 1.244
98.42000 2.608
98.44000 4.094
98.46000 0.168
98.48000 4.200
98.50000 15.502
98.52000 8.828
98.54000 8.318
98.56000 7.874
98.58000 5.475
98.60000 8.416
98.62000 9.046
98.64000 12.723
98.66000 5.703
98.68000 0.169
98.70000 6.657
98.72000 5.084
98.74000 10.398
98.76000 2.864
98.78000 7.998
98.80000 10.887
98.82000 8.916
98.84000 1.321
98.86000 2.166
98.88000 12.828
98.90000 9.056
98.92000 5.586
98.94000 -1.326
98.96000 -0.787
98.98000 6.726
99.00000 -0.296
99.02000 3.012
99.04000 11.494
99.06000 9.775
99.08000 3.909
99.10000 3.406
99.12000 1.447
99.14000 -2.256
99.16000 0.122
99.18000 2.355
99.20000 8.759
99.22000 -1.734
99.24000 2.223
99.26000 13.547
99.28000 14.368
99.30000 14.013
99.32000 2.698
99.34000 8.836
99.36000 1.381
99.38000 3.630
99.40000 2.807
99.42000 2.676
99.44000 -2.274
99.46000 3.484
99.48000 2.442
99.50000 0.745
99.52000 5.040
99.54000 7.690
99.56000 7.513
99.58000 4.186
99.60000 9.043
99.62000 7.862
99.64000 0.074
99.66000 6.449
99.68000 5.519
99.70000 4.849
99.72000 -2.354
99.74000 0.728
99.76000 7.496
99.78000 6.748
99.80000 1.403
99.82000 8.736
99.84000 3.305
99.86000 3.442
99.88000 9.735
99.90000 10.383
99.92000 7.041
99.94000 -0.403
99.96000 9.933
99.98000 0.000
