'Id: "0011388" Comment: "Integrate frame 0011388_Au-Ir-Rh_Rh-rich_XRD-Mapping-089-0000.gfrmwith cursor Wedge Cursor #5" Operator: "B?rgel" Anode: "Cu" Wavelength: "1.5406" Scantype: "2Theta (TwoTheta)" TimePerStep: "1" X: "22.5" Y: "-18" Z: "5.95" 
10.00000 0.000
10.02000 3.732
10.04000 4.257
10.06000 1.068
10.08000 -4.251
10.10000 12.387
10.12000 21.672
10.14000 19.631
10.16000 24.007
10.18000 25.474
10.20000 13.762
10.22000 14.988
10.24000 17.268
10.26000 26.907
10.28000 19.424
10.30000 13.995
10.32000 29.446
10.34000 27.547
10.36000 23.348
10.38000 15.609
10.40000 13.563
10.42000 13.456
10.44000 11.644
10.46000 10.117
10.48000 10.006
10.50000 17.743
10.52000 17.985
10.54000 25.168
10.56000 27.523
10.58000 36.254
10.60000 16.455
10.62000 14.019
10.64000 24.823
10.66000 37.916
10.68000 25.141
10.70000 6.920
10.72000 16.579
10.74000 37.715
10.76000 31.067
10.78000 11.250
10.80000 20.501
10.82000 22.594
10.84000 19.538
10.86000 17.014
10.88000 21.968
10.90000 33.210
10.92000 29.416
10.94000 36.607
10.96000 31.256
10.98000 30.882
11.00000 25.209
11.02000 31.629
11.04000 37.530
11.06000 24.280
11.08000 21.068
11.10000 30.906
11.12000 25.971
11.14000 16.683
11.16000 24.869
11.18000 32.465
11.20000 36.586
11.22000 37.413
11.24000 31.414
11.26000 29.635
11.28000 37.028
11.30000 32.795
11.32000 37.367
11.34000 37.349
11.36000 19.535
11.38000 11.949
11.40000 22.208
11.42000 21.676
11.44000 20.654
11.46000 27.160
11.48000 26.221
11.50000 27.025
11.52000 27.927
11.54000 32.096
11.56000 30.658
11.58000 29.762
11.60000 30.506
11.62000 36.425
11.64000 35.802
11.66000 25.491
11.68000 22.989
11.70000 22.001
11.72000 25.385
11.74000 39.048
11.76000 31.772
11.78000 19.410
11.80000 22.789
11.82000 21.800
11.84000 26.201
11.86000 26.916
11.88000 24.074
11.90000 27.125
11.92000 27.544
11.94000 20.039
11.96000 21.626
11.98000 34.462
12.00000 27.827
12.02000 23.072
12.04000 22.037
12.06000 26.551
12.08000 30.324
12.10000 22.240
12.12000 23.891
12.14000 23.861
12.16000 23.325
12.18000 24.656
12.20000 26.652
12.22000 32.925
12.24000 26.854
12.26000 25.922
12.28000 30.095
12.30000 35.452
12.32000 25.562
12.34000 27.535
12.36000 32.238
12.38000 42.339
12.40000 43.296
12.42000 31.681
12.44000 24.785
12.46000 34.652
12.48000 39.955
12.50000 45.724
12.52000 43.032
12.54000 37.668
12.56000 35.854
12.58000 31.597
12.60000 31.852
12.62000 28.224
12.64000 24.682
12.66000 27.529
12.68000 38.058
12.70000 33.053
12.72000 28.339
12.74000 25.363
12.76000 22.531
12.78000 29.372
12.80000 42.306
12.82000 32.666
12.84000 27.882
12.86000 28.164
12.88000 26.595
12.90000 25.089
12.92000 26.796
12.94000 29.545
12.96000 41.468
12.98000 41.165
13.00000 30.220
13.02000 42.180
13.04000 43.007
13.06000 39.366
13.08000 23.490
13.10000 20.876
13.12000 24.031
13.14000 30.619
13.16000 31.075
13.18000 29.631
13.20000 33.313
13.22000 32.816
13.24000 27.933
13.26000 20.075
13.28000 23.586
13.30000 22.938
13.32000 26.339
13.34000 23.920
13.36000 21.632
13.38000 30.262
13.40000 31.980
13.42000 24.346
13.44000 26.708
13.46000 31.048
13.48000 23.250
13.50000 19.731
13.52000 21.846
13.54000 26.662
13.56000 31.419
13.58000 32.664
13.60000 25.626
13.62000 19.016
13.64000 23.897
13.66000 28.128
13.68000 24.099
13.70000 26.536
13.72000 26.735
13.74000 25.442
13.76000 28.215
13.78000 25.508
13.80000 29.121
13.82000 29.816
13.84000 19.787
13.86000 20.526
13.88000 14.888
13.90000 22.668
13.92000 32.503
13.94000 29.073
13.96000 26.776
13.98000 20.350
14.00000 27.404
14.02000 25.837
14.04000 30.542
14.06000 32.566
14.08000 32.120
14.10000 28.559
14.12000 25.002
14.14000 25.591
14.16000 23.700
14.18000 19.505
14.20000 29.661
14.22000 23.450
14.24000 21.105
14.26000 27.883
14.28000 32.756
14.30000 22.442
14.32000 20.700
14.34000 25.674
14.36000 18.020
14.38000 17.773
14.40000 26.606
14.42000 19.468
14.44000 17.415
14.46000 30.241
14.48000 28.074
14.50000 14.487
14.52000 14.971
14.54000 20.334
14.56000 19.484
14.58000 24.163
14.60000 30.527
14.62000 26.113
14.64000 22.928
14.66000 24.142
14.68000 25.730
14.70000 22.180
14.72000 20.567
14.74000 16.218
14.76000 17.832
14.78000 17.829
14.80000 18.025
14.82000 20.228
14.84000 19.113
14.86000 17.187
14.88000 31.075
14.90000 23.406
14.92000 19.451
14.94000 16.120
14.96000 18.539
14.98000 13.622
15.00000 16.857
15.02000 15.583
15.04000 11.755
15.06000 19.922
15.08000 21.458
15.10000 18.185
15.12000 22.748
15.14000 14.663
15.16000 13.985
15.18000 12.328
15.20000 21.913
15.22000 20.902
15.24000 9.950
15.26000 9.747
15.28000 9.565
15.30000 19.602
15.32000 22.294
15.34000 16.298
15.36000 30.072
15.38000 29.807
15.40000 15.771
15.42000 16.615
15.44000 23.775
15.46000 17.647
15.48000 14.792
15.50000 23.623
15.52000 24.511
15.54000 21.292
15.56000 17.525
15.58000 16.604
15.60000 18.617
15.62000 17.010
15.64000 13.971
15.66000 14.237
15.68000 14.928
15.70000 19.964
15.72000 18.250
15.74000 17.040
15.76000 23.530
15.78000 19.973
15.80000 24.729
15.82000 18.194
15.84000 8.971
15.86000 17.876
15.88000 20.551
15.90000 9.507
15.92000 4.767
15.94000 13.180
15.96000 18.563
15.98000 14.765
16.00000 16.274
16.02000 15.299
16.04000 14.447
16.06000 11.091
16.08000 11.230
16.10000 14.884
16.12000 12.937
16.14000 10.802
16.16000 15.921
16.18000 18.519
16.20000 18.285
16.22000 13.150
16.24000 16.204
16.26000 12.654
16.28000 15.964
16.30000 15.505
16.32000 20.438
16.34000 21.653
16.36000 15.124
16.38000 17.077
16.40000 17.883
16.42000 15.544
16.44000 15.407
16.46000 15.200
16.48000 17.088
16.50000 16.342
16.52000 13.866
16.54000 17.574
16.56000 13.928
16.58000 8.417
16.60000 16.017
16.62000 19.743
16.64000 12.554
16.66000 6.406
16.68000 7.354
16.70000 8.626
16.72000 19.445
16.74000 15.328
16.76000 7.606
16.78000 1.403
16.80000 5.113
16.82000 8.700
16.84000 15.093
16.86000 6.733
16.88000 5.837
16.90000 5.480
16.92000 11.956
16.94000 16.293
16.96000 9.768
16.98000 9.312
17.00000 7.767
17.02000 10.817
17.04000 18.062
17.06000 13.129
17.08000 12.367
17.10000 15.530
17.12000 12.318
17.14000 11.783
17.16000 5.822
17.18000 8.625
17.20000 11.879
17.22000 12.977
17.24000 14.093
17.26000 3.831
17.28000 -4.306
17.30000 5.209
17.32000 11.675
17.34000 11.616
17.36000 13.168
17.38000 14.578
17.40000 16.341
17.42000 14.032
17.44000 11.701
17.46000 15.623
17.48000 11.880
17.50000 6.231
17.52000 11.068
17.54000 10.188
17.56000 5.577
17.58000 19.179
17.60000 18.940
17.62000 17.455
17.64000 13.207
17.66000 12.598
17.68000 10.273
17.70000 12.616
17.72000 15.791
17.74000 4.529
17.76000 9.914
17.78000 3.628
17.80000 6.645
17.82000 14.496
17.84000 22.803
17.86000 9.566
17.88000 10.732
17.90000 16.163
17.92000 16.074
17.94000 11.479
17.96000 6.250
17.98000 9.658
18.00000 8.812
18.02000 11.817
18.04000 9.140
18.06000 2.034
18.08000 1.540
18.10000 10.295
18.12000 12.430
18.14000 14.436
18.16000 9.242
18.18000 10.171
18.20000 5.832
18.22000 8.298
18.24000 18.167
18.26000 6.068
18.28000 4.032
18.30000 3.052
18.32000 9.126
18.34000 12.406
18.36000 11.307
18.38000 -4.259
18.40000 1.230
18.42000 9.511
18.44000 18.647
18.46000 14.385
18.48000 15.503
18.50000 13.624
18.52000 7.132
18.54000 8.322
18.56000 11.230
18.58000 12.739
18.60000 8.730
18.62000 9.632
18.64000 1.888
18.66000 6.154
18.68000 10.427
18.70000 10.513
18.72000 12.357
18.74000 12.362
18.76000 3.578
18.78000 6.686
18.80000 14.817
18.82000 8.208
18.84000 3.464
18.86000 6.268
18.88000 0.524
18.90000 5.826
18.92000 8.976
18.94000 3.315
18.96000 7.560
18.98000 8.814
19.00000 8.293
19.02000 3.466
19.04000 0.913
19.06000 3.702
19.08000 7.512
19.10000 12.959
19.12000 4.169
19.14000 -2.144
19.16000 8.001
19.18000 6.210
19.20000 2.017
19.22000 0.607
19.24000 0.585
19.26000 2.307
19.28000 11.412
19.30000 18.097
19.32000 9.333
19.34000 9.419
19.36000 10.136
19.38000 7.404
19.40000 3.968
19.42000 2.611
19.44000 -2.354
19.46000 -2.895
19.48000 4.647
19.50000 12.843
19.52000 10.788
19.54000 5.281
19.56000 2.751
19.58000 4.688
19.60000 8.851
19.62000 13.331
19.64000 13.899
19.66000 6.549
19.68000 5.201
19.70000 -0.709
19.72000 -1.311
19.74000 3.316
19.76000 5.371
19.78000 2.535
19.80000 5.254
19.82000 6.039
19.84000 6.945
19.86000 11.641
19.88000 6.259
19.90000 4.506
19.92000 6.160
19.94000 8.320
19.96000 2.813
19.98000 1.471
20.00000 6.512
20.02000 7.050
20.04000 6.755
20.06000 0.598
20.08000 1.281
20.10000 -4.203
20.12000 2.411
20.14000 5.490
20.16000 3.132
20.18000 5.336
20.20000 9.035
20.22000 4.994
20.24000 7.144
20.26000 2.530
20.28000 1.419
20.30000 4.761
20.32000 3.005
20.34000 2.046
20.36000 5.349
20.38000 4.184
20.40000 8.219
20.42000 4.018
20.44000 7.479
20.46000 9.498
20.48000 5.678
20.50000 2.202
20.52000 -0.026
20.54000 -1.800
20.56000 0.029
20.58000 -1.464
20.60000 0.189
20.62000 4.624
20.64000 10.148
20.66000 11.686
20.68000 8.917
20.70000 1.786
20.72000 -4.185
20.74000 2.124
20.76000 9.579
20.78000 6.435
20.80000 4.096
20.82000 3.341
20.84000 3.420
20.86000 0.871
20.88000 3.710
20.90000 -1.461
20.92000 -3.211
20.94000 4.250
20.96000 6.115
20.98000 1.024
21.00000 -2.909
21.02000 1.209
21.04000 5.082
21.06000 4.034
21.08000 4.095
21.10000 7.284
21.12000 6.525
21.14000 2.736
21.16000 -0.244
21.18000 -1.698
21.20000 -2.301
21.22000 2.594
21.24000 1.337
21.26000 1.786
21.28000 3.756
21.30000 5.713
21.32000 3.724
21.34000 3.086
21.36000 4.021
21.38000 -1.196
21.40000 -3.144
21.42000 -3.546
21.44000 0.694
21.46000 -1.991
21.48000 0.080
21.50000 -0.120
21.52000 5.473
21.54000 13.747
21.56000 8.262
21.58000 7.276
21.60000 1.505
21.62000 -4.141
21.64000 -2.878
21.66000 2.833
21.68000 4.916
21.70000 2.205
21.72000 3.163
21.74000 6.251
21.76000 1.902
21.78000 1.038
21.80000 4.809
21.82000 2.945
21.84000 6.139
21.86000 4.874
21.88000 1.772
21.90000 3.176
21.92000 6.987
21.94000 -2.541
21.96000 1.462
21.98000 11.531
22.00000 9.043
22.02000 4.640
22.04000 2.775
22.06000 -2.090
22.08000 1.950
22.10000 2.773
22.12000 7.633
22.14000 8.639
22.16000 5.031
22.18000 2.502
22.20000 1.189
22.22000 3.768
22.24000 0.242
22.26000 -1.048
22.28000 -0.294
22.30000 5.090
22.32000 9.859
22.34000 12.276
22.36000 7.005
22.38000 -4.087
22.40000 3.215
22.42000 8.119
22.44000 7.250
22.46000 2.020
22.48000 1.468
22.50000 6.271
22.52000 2.351
22.54000 0.846
22.56000 0.779
22.58000 6.972
22.60000 11.664
22.62000 10.332
22.64000 9.399
22.66000 5.303
22.68000 -0.738
22.70000 0.401
22.72000 3.538
22.74000 -2.060
22.76000 6.856
22.78000 9.542
22.80000 7.673
22.82000 5.936
22.84000 8.335
22.86000 6.864
22.88000 9.760
22.90000 6.465
22.92000 4.923
22.94000 4.827
22.96000 4.150
22.98000 0.263
23.00000 3.784
23.02000 1.637
23.04000 -0.626
23.06000 1.424
23.08000 -1.761
23.10000 8.539
23.12000 11.748
23.14000 9.680
23.16000 12.242
23.18000 4.555
23.20000 -0.848
23.22000 8.777
23.24000 2.412
23.26000 -4.025
23.28000 -1.200
23.30000 1.171
23.32000 1.774
23.34000 5.050
23.36000 14.550
23.38000 9.913
23.40000 7.700
23.42000 5.298
23.44000 8.529
23.46000 3.121
23.48000 1.330
23.50000 1.396
23.52000 4.740
23.54000 10.566
23.56000 9.615
23.58000 9.596
23.60000 5.274
23.62000 7.194
23.64000 10.321
23.66000 10.115
23.68000 6.901
23.70000 -2.002
23.72000 1.348
23.74000 2.027
23.76000 1.697
23.78000 5.378
23.80000 1.140
23.82000 1.858
23.84000 2.019
23.86000 4.718
23.88000 -2.186
23.90000 1.655
23.92000 3.027
23.94000 7.135
23.96000 3.095
23.98000 7.465
24.00000 14.635
24.02000 7.358
24.04000 2.867
24.06000 4.629
24.08000 7.760
24.10000 3.618
24.12000 4.224
24.14000 3.195
24.16000 1.051
24.18000 3.701
24.20000 3.869
24.22000 0.121
24.24000 0.477
24.26000 0.522
24.28000 -1.181
24.30000 1.263
24.32000 8.028
24.34000 10.847
24.36000 6.925
24.38000 1.182
24.40000 5.451
24.42000 4.828
24.44000 -0.287
24.46000 1.405
24.48000 1.700
24.50000 1.479
24.52000 4.105
24.54000 -0.609
24.56000 -1.708
24.58000 2.121
24.60000 2.700
24.62000 1.010
24.64000 1.358
24.66000 0.895
24.68000 -1.088
24.70000 6.478
24.72000 7.626
24.74000 5.242
24.76000 4.815
24.78000 3.301
24.80000 4.662
24.82000 4.574
24.84000 3.176
24.86000 0.288
24.88000 3.459
24.90000 4.689
24.92000 3.341
24.94000 -0.588
24.96000 1.559
24.98000 6.603
25.00000 6.060
25.02000 -0.595
25.04000 -0.814
25.06000 1.240
25.08000 -0.330
25.10000 0.846
25.12000 2.502
25.14000 2.684
25.16000 0.384
25.18000 3.880
25.20000 5.448
25.22000 2.847
25.24000 2.989
25.26000 7.244
25.28000 -3.934
25.30000 -2.669
25.32000 0.277
25.34000 -1.521
25.36000 -0.727
25.38000 5.671
25.40000 2.695
25.42000 4.258
25.44000 5.670
25.46000 7.137
25.48000 6.352
25.50000 1.197
25.52000 -0.048
25.54000 4.215
25.56000 1.934
25.58000 1.047
25.60000 -0.166
25.62000 5.870
25.64000 4.395
25.66000 8.815
25.68000 7.392
25.70000 -0.806
25.72000 -0.940
25.74000 0.468
25.76000 4.214
25.78000 7.204
25.80000 5.463
25.82000 6.372
25.84000 1.556
25.86000 -2.296
25.88000 0.347
25.90000 -1.596
25.92000 0.741
25.94000 6.812
25.96000 5.316
25.98000 3.231
26.00000 -1.872
26.02000 2.108
26.04000 2.791
26.06000 2.739
26.08000 1.760
26.10000 -1.653
26.12000 2.207
26.14000 5.150
26.16000 3.514
26.18000 5.019
26.20000 6.913
26.22000 3.332
26.24000 -0.754
26.26000 3.009
26.28000 -0.610
26.30000 3.294
26.32000 4.844
26.34000 2.493
26.36000 1.721
26.38000 5.319
26.40000 4.294
26.42000 1.364
26.44000 -1.449
26.46000 -3.862
26.48000 4.058
26.50000 7.321
26.52000 1.638
26.54000 0.545
26.56000 1.896
26.58000 3.506
26.60000 2.636
26.62000 4.930
26.64000 2.438
26.66000 -0.269
26.68000 0.321
26.70000 0.393
26.72000 1.256
26.74000 1.794
26.76000 8.095
26.78000 4.683
26.80000 2.923
26.82000 5.403
26.84000 3.004
26.86000 3.271
26.88000 2.160
26.90000 0.289
26.92000 3.326
26.94000 0.292
26.96000 -0.070
26.98000 3.254
27.00000 5.029
27.02000 3.779
27.04000 4.629
27.06000 4.744
27.08000 5.014
27.10000 6.596
27.12000 3.409
27.14000 1.545
27.16000 -3.348
27.18000 -0.208
27.20000 7.045
27.22000 6.533
27.24000 -0.450
27.26000 1.324
27.28000 -0.282
27.30000 1.805
27.32000 3.763
27.34000 7.832
27.36000 5.401
27.38000 6.591
27.40000 2.325
27.42000 6.352
27.44000 1.499
27.46000 5.633
27.48000 -1.700
27.50000 -1.333
27.52000 2.781
27.54000 1.804
27.56000 -3.214
27.58000 -0.644
27.60000 0.774
27.62000 0.547
27.64000 4.562
27.66000 3.344
27.68000 3.897
27.70000 2.931
27.72000 0.232
27.74000 1.703
27.76000 1.815
27.78000 -3.818
27.80000 0.991
27.82000 6.421
27.84000 0.638
27.86000 1.176
27.88000 4.082
27.90000 0.278
27.92000 0.444
27.94000 -3.494
27.96000 -3.038
27.98000 0.501
28.00000 6.760
28.02000 8.572
28.04000 4.136
28.06000 4.171
28.08000 4.163
28.10000 4.694
28.12000 2.351
28.14000 1.950
28.16000 4.402
28.18000 -3.191
28.20000 -3.344
28.22000 1.864
28.24000 -0.341
28.26000 -3.228
28.28000 1.253
28.30000 6.419
28.32000 3.991
28.34000 1.281
28.36000 5.549
28.38000 8.794
28.40000 -0.421
28.42000 -0.555
28.44000 5.278
28.46000 5.785
28.48000 5.384
28.50000 -0.032
28.52000 -0.436
28.54000 1.457
28.56000 3.697
28.58000 1.880
28.60000 8.452
28.62000 6.473
28.64000 0.175
28.66000 2.306
28.68000 0.696
28.70000 6.207
28.72000 4.719
28.74000 -1.034
28.76000 1.257
28.78000 -0.795
28.80000 -1.593
28.82000 6.219
28.84000 3.389
28.86000 5.459
28.88000 0.342
28.90000 -2.036
28.92000 -0.967
28.94000 3.292
28.96000 1.915
28.98000 2.830
29.00000 7.664
29.02000 2.778
29.04000 -1.009
29.06000 3.356
29.08000 3.635
29.10000 3.718
29.12000 4.763
29.14000 8.149
29.16000 7.222
29.18000 7.731
29.20000 4.009
29.22000 3.707
29.24000 5.636
29.26000 4.995
29.28000 7.899
29.30000 8.938
29.32000 13.736
29.34000 10.110
29.36000 8.939
29.38000 6.089
29.40000 7.509
29.42000 6.258
29.44000 -0.853
29.46000 -3.194
29.48000 -3.682
29.50000 -3.091
29.52000 -1.934
29.54000 0.289
29.56000 6.448
29.58000 6.844
29.60000 1.553
29.62000 5.905
29.64000 8.597
29.66000 4.368
29.68000 1.755
29.70000 1.085
29.72000 1.389
29.74000 1.227
29.76000 0.157
29.78000 0.702
29.80000 2.772
29.82000 7.651
29.84000 9.697
29.86000 6.280
29.88000 1.224
29.90000 1.018
29.92000 0.274
29.94000 5.615
29.96000 2.327
29.98000 6.806
30.00000 8.828
30.02000 11.424
30.04000 4.381
30.06000 7.437
30.08000 -2.869
30.10000 -2.570
30.12000 4.886
30.14000 4.126
30.16000 6.024
30.18000 1.566
30.20000 3.595
30.22000 6.023
30.24000 5.779
30.26000 2.285
30.28000 2.947
30.30000 4.031
30.32000 4.640
30.34000 6.403
30.36000 3.411
30.38000 6.074
30.40000 3.684
30.42000 3.785
30.44000 2.523
30.46000 -1.092
30.48000 -0.356
30.50000 1.056
30.52000 0.987
30.54000 2.412
30.56000 2.043
30.58000 1.815
30.60000 3.866
30.62000 -0.769
30.64000 0.819
30.66000 4.689
30.68000 4.776
30.70000 7.597
30.72000 5.219
30.74000 0.299
30.76000 3.763
30.78000 2.393
30.80000 3.372
30.82000 7.739
30.84000 8.329
30.86000 4.617
30.88000 4.460
30.90000 1.499
30.92000 -3.642
30.94000 0.514
30.96000 3.173
30.98000 7.161
31.00000 6.784
31.02000 0.978
31.04000 -0.509
31.06000 0.415
31.08000 2.995
31.10000 4.134
31.12000 0.617
31.14000 1.773
31.16000 -0.335
31.18000 0.578
31.20000 0.465
31.22000 0.523
31.24000 3.755
31.26000 6.036
31.28000 2.956
31.30000 0.267
31.32000 2.625
31.34000 4.196
31.36000 0.211
31.38000 2.921
31.40000 3.916
31.42000 4.608
31.44000 4.957
31.46000 5.122
31.48000 3.373
31.50000 3.383
31.52000 3.001
31.54000 -0.597
31.56000 1.767
31.58000 3.398
31.60000 -3.602
31.62000 2.579
31.64000 2.216
31.66000 4.659
31.68000 2.801
31.70000 1.173
31.72000 1.263
31.74000 4.090
31.76000 1.537
31.78000 -1.253
31.80000 -2.276
31.82000 -1.390
31.84000 4.179
31.86000 7.908
31.88000 6.968
31.90000 6.806
31.92000 12.879
31.94000 4.693
31.96000 2.491
31.98000 -0.755
32.00000 -0.475
32.02000 4.011
32.04000 6.209
32.06000 4.710
32.08000 5.164
32.10000 3.811
32.12000 -1.470
32.14000 4.908
32.16000 4.964
32.18000 1.537
32.20000 0.598
32.22000 -3.091
32.24000 -0.450
32.26000 5.535
32.28000 4.253
32.30000 -0.209
32.32000 1.261
32.34000 0.590
32.36000 0.832
32.38000 -2.992
32.40000 -3.579
32.42000 -2.616
32.44000 1.014
32.46000 3.584
32.48000 0.300
32.50000 -0.353
32.52000 0.432
32.54000 3.073
32.56000 2.119
32.58000 3.163
32.60000 1.231
32.62000 -2.253
32.64000 -1.115
32.66000 -1.978
32.68000 1.752
32.70000 1.866
32.72000 2.785
32.74000 6.304
32.76000 -0.028
32.78000 0.286
32.80000 2.247
32.82000 8.031
32.84000 2.131
32.86000 2.248
32.88000 1.551
32.90000 3.887
32.92000 -0.384
32.94000 -0.168
32.96000 1.078
32.98000 -3.289
33.00000 1.398
33.02000 7.479
33.04000 0.624
33.06000 -2.636
33.08000 -3.245
33.10000 -0.812
33.12000 -0.834
33.14000 -0.367
33.16000 0.162
33.18000 -1.834
33.20000 3.701
33.22000 7.046
33.24000 0.370
33.26000 -0.534
33.28000 -0.384
33.30000 0.563
33.32000 -1.188
33.34000 4.459
33.36000 6.894
33.38000 4.108
33.40000 3.263
33.42000 1.241
33.44000 -3.144
33.46000 -2.688
33.48000 -0.512
33.50000 0.824
33.52000 2.233
33.54000 0.929
33.56000 6.311
33.58000 8.589
33.60000 5.819
33.62000 0.628
33.64000 1.768
33.66000 -2.706
33.68000 -0.694
33.70000 0.293
33.72000 -0.873
33.74000 -1.322
33.76000 -1.304
33.78000 2.644
33.80000 6.090
33.82000 0.664
33.84000 2.574
33.86000 2.145
33.88000 4.239
33.90000 3.605
33.92000 7.990
33.94000 4.176
33.96000 -1.443
33.98000 -1.762
34.00000 2.327
34.02000 7.577
34.04000 6.273
34.06000 1.163
34.08000 1.197
34.10000 2.317
34.12000 4.110
34.14000 7.671
34.16000 13.697
34.18000 13.821
34.20000 10.370
34.22000 4.253
34.24000 0.249
34.26000 -1.119
34.28000 0.635
34.30000 -2.752
34.32000 -3.538
34.34000 3.065
34.36000 0.175
34.38000 -2.665
34.40000 2.722
34.42000 5.960
34.44000 2.714
34.46000 3.343
34.48000 3.805
34.50000 4.301
34.52000 4.354
34.54000 1.912
34.56000 1.901
34.58000 -0.483
34.60000 1.686
34.62000 3.956
34.64000 3.819
34.66000 5.114
34.68000 2.652
34.70000 5.096
34.72000 -0.092
34.74000 -2.306
34.76000 2.474
34.78000 4.151
34.80000 6.982
34.82000 2.076
34.84000 4.267
34.86000 3.678
34.88000 2.266
34.90000 5.530
34.92000 5.549
34.94000 1.372
34.96000 1.205
34.98000 0.426
35.00000 -0.145
35.02000 6.771
35.04000 6.469
35.06000 8.751
35.08000 4.507
35.10000 0.180
35.12000 2.081
35.14000 -3.512
35.16000 -3.439
35.18000 1.158
35.20000 0.749
35.22000 2.958
35.24000 4.062
35.26000 1.149
35.28000 0.167
35.30000 1.600
35.32000 2.307
35.34000 3.275
35.36000 1.458
35.38000 -3.487
35.40000 2.155
35.42000 4.731
35.44000 2.987
35.46000 2.061
35.48000 0.610
35.50000 -2.725
35.52000 2.232
35.54000 3.121
35.56000 -0.904
35.58000 4.210
35.60000 7.025
35.62000 0.586
35.64000 4.787
35.66000 4.799
35.68000 3.483
35.70000 2.751
35.72000 -1.597
35.74000 1.811
35.76000 4.014
35.78000 3.488
35.80000 5.119
35.82000 7.621
35.84000 4.552
35.86000 4.449
35.88000 3.260
35.90000 -1.265
35.92000 0.139
35.94000 3.559
35.96000 3.441
35.98000 1.841
36.00000 1.403
36.02000 -3.488
36.04000 -1.186
36.06000 4.689
36.08000 1.563
36.10000 2.762
36.12000 6.720
36.14000 7.602
36.16000 4.734
36.18000 1.624
36.20000 2.613
36.22000 4.464
36.24000 2.734
36.26000 2.643
36.28000 3.061
36.30000 3.351
36.32000 4.803
36.34000 3.027
36.36000 7.018
36.38000 5.803
36.40000 2.499
36.42000 5.155
36.44000 3.830
36.46000 3.197
36.48000 1.508
36.50000 0.543
36.52000 2.404
36.54000 2.291
36.56000 2.040
36.58000 2.913
36.60000 1.506
36.62000 3.659
36.64000 7.435
36.66000 6.472
36.68000 8.188
36.70000 10.292
36.72000 1.704
36.74000 -3.458
36.76000 2.711
36.78000 5.374
36.80000 6.143
36.82000 6.867
36.84000 8.895
36.86000 7.575
36.88000 8.253
36.90000 5.863
36.92000 3.976
36.94000 5.669
36.96000 3.773
36.98000 3.596
37.00000 -1.554
37.02000 -0.205
37.04000 0.896
37.06000 2.334
37.08000 1.206
37.10000 3.181
37.12000 -0.464
37.14000 1.618
37.16000 4.645
37.18000 3.308
37.20000 -1.897
37.22000 -0.282
37.24000 1.080
37.26000 -0.368
37.28000 -1.448
37.30000 0.860
37.32000 -2.992
37.34000 1.918
37.36000 4.570
37.38000 4.659
37.40000 -2.080
37.42000 2.900
37.44000 4.102
37.46000 0.523
37.48000 4.040
37.50000 -0.961
37.52000 0.472
37.54000 1.573
37.56000 1.367
37.58000 -0.686
37.60000 2.683
37.62000 1.191
37.64000 1.694
37.66000 -3.586
37.68000 -0.625
37.70000 1.126
37.72000 2.060
37.74000 -1.340
37.76000 -2.960
37.78000 -0.909
37.80000 4.263
37.82000 4.093
37.84000 3.939
37.86000 1.582
37.88000 4.711
37.90000 3.298
37.92000 1.649
37.94000 5.063
37.96000 6.673
37.98000 8.197
38.00000 4.940
38.02000 1.412
38.04000 -1.694
38.06000 2.407
38.08000 4.461
38.10000 3.279
38.12000 4.041
38.14000 2.377
38.16000 5.328
38.18000 7.912
38.20000 7.752
38.22000 5.416
38.24000 6.705
38.26000 8.088
38.28000 6.366
38.30000 7.391
38.32000 9.009
38.34000 10.842
38.36000 12.114
38.38000 15.880
38.40000 11.284
38.42000 7.406
38.44000 8.605
38.46000 7.992
38.48000 9.510
38.50000 12.639
38.52000 12.646
38.54000 12.170
38.56000 14.593
38.58000 13.340
38.60000 5.280
38.62000 9.161
38.64000 10.583
38.66000 15.814
38.68000 14.987
38.70000 16.244
38.72000 15.174
38.74000 15.339
38.76000 11.908
38.78000 16.019
38.80000 21.963
38.82000 23.636
38.84000 19.402
38.86000 17.968
38.88000 14.654
38.90000 14.412
38.92000 19.433
38.94000 19.107
38.96000 12.570
38.98000 18.177
39.00000 24.632
39.02000 23.429
39.04000 27.602
39.06000 26.976
39.08000 21.163
39.10000 25.414
39.12000 28.101
39.14000 31.734
39.16000 29.355
39.18000 24.308
39.20000 23.683
39.22000 28.417
39.24000 32.094
39.26000 33.550
39.28000 38.136
39.30000 37.911
39.32000 39.021
39.34000 40.269
39.36000 42.784
39.38000 46.179
39.40000 49.024
39.42000 49.068
39.44000 50.986
39.46000 49.580
39.48000 54.166
39.50000 61.322
39.52000 66.465
39.54000 59.505
39.56000 65.506
39.58000 64.490
39.60000 65.299
39.62000 76.827
39.64000 80.272
39.66000 75.426
39.68000 72.935
39.70000 79.080
39.72000 84.555
39.74000 86.851
39.76000 96.345
39.78000 103.307
39.80000 114.188
39.82000 117.784
39.84000 120.321
39.86000 122.578
39.88000 127.650
39.90000 132.873
39.92000 142.333
39.94000 152.729
39.96000 161.780
39.98000 169.447
40.00000 166.674
40.02000 174.866
40.04000 191.705
40.06000 196.355
40.08000 206.770
40.10000 221.501
40.12000 235.024
40.14000 236.245
40.16000 244.676
40.18000 259.802
40.20000 277.698
40.22000 288.711
40.24000 301.094
40.26000 313.340
40.28000 319.491
40.30000 329.411
40.32000 338.037
40.34000 351.165
40.36000 369.237
40.38000 391.178
40.40000 407.280
40.42000 418.502
40.44000 428.105
40.46000 446.159
40.48000 457.357
40.50000 467.862
40.52000 482.405
40.54000 496.692
40.56000 503.180
40.58000 513.541
40.60000 520.676
40.62000 530.541
40.64000 538.689
40.66000 543.016
40.68000 538.150
40.70000 533.518
40.72000 553.364
40.74000 555.354
40.76000 557.861
40.78000 552.187
40.80000 540.908
40.82000 526.663
40.84000 521.662
40.86000 524.182
40.88000 516.951
40.90000 500.685
40.92000 478.412
40.94000 467.190
40.96000 464.695
40.98000 465.111
41.00000 437.656
41.02000 418.982
41.04000 401.376
41.06000 392.980
41.08000 380.757
41.10000 362.072
41.12000 352.584
41.14000 337.177
41.16000 316.009
41.18000 305.576
41.20000 287.337
41.22000 272.437
41.24000 267.685
41.26000 256.007
41.28000 241.212
41.30000 233.774
41.32000 226.559
41.34000 212.495
41.36000 200.555
41.38000 189.634
41.40000 178.754
41.42000 168.241
41.44000 163.094
41.46000 157.743
41.48000 147.733
41.50000 137.767
41.52000 132.075
41.54000 120.792
41.56000 117.028
41.58000 107.170
41.60000 101.419
41.62000 97.973
41.64000 93.752
41.66000 87.429
41.68000 87.819
41.70000 86.076
41.72000 79.771
41.74000 75.063
41.76000 66.261
41.78000 63.826
41.80000 58.836
41.82000 55.404
41.84000 55.562
41.86000 52.683
41.88000 52.966
41.90000 48.227
41.92000 45.927
41.94000 45.325
41.96000 38.824
41.98000 39.453
42.00000 37.276
42.02000 36.316
42.04000 30.605
42.06000 27.571
42.08000 32.875
42.10000 31.876
42.12000 30.034
42.14000 26.132
42.16000 25.221
42.18000 26.068
42.20000 25.681
42.22000 21.651
42.24000 22.461
42.26000 23.695
42.28000 19.478
42.30000 23.131
42.32000 19.187
42.34000 15.360
42.36000 16.110
42.38000 14.502
42.40000 7.457
42.42000 6.522
42.44000 10.252
42.46000 9.192
42.48000 12.468
42.50000 10.625
42.52000 10.224
42.54000 10.055
42.56000 12.468
42.58000 11.102
42.60000 9.287
42.62000 8.593
42.64000 5.262
42.66000 8.487
42.68000 10.473
42.70000 3.158
42.72000 1.764
42.74000 4.028
42.76000 4.035
42.78000 3.476
42.80000 5.203
42.82000 5.978
42.84000 8.930
42.86000 6.334
42.88000 4.433
42.90000 2.944
42.92000 1.810
42.94000 3.279
42.96000 2.927
42.98000 5.081
43.00000 0.353
43.02000 1.861
43.04000 4.240
43.06000 2.947
43.08000 -0.119
43.10000 3.228
43.12000 9.153
43.14000 4.873
43.16000 0.740
43.18000 0.922
43.20000 -1.762
43.22000 -0.062
43.24000 4.813
43.26000 3.898
43.28000 2.556
43.30000 0.829
43.32000 -1.804
43.34000 0.574
43.36000 3.499
43.38000 1.945
43.40000 -1.272
43.42000 0.417
43.44000 -1.194
43.46000 -3.526
43.48000 -3.174
43.50000 -0.107
43.52000 -2.886
43.54000 0.093
43.56000 0.490
43.58000 -1.469
43.60000 1.060
43.62000 1.486
43.64000 3.449
43.66000 -0.854
43.68000 5.449
43.70000 7.463
43.72000 3.019
43.74000 -0.041
43.76000 2.293
43.78000 1.549
43.80000 1.034
43.82000 4.004
43.84000 5.001
43.86000 6.581
43.88000 -0.772
43.90000 1.188
43.92000 1.897
43.94000 -0.018
43.96000 -0.071
43.98000 1.578
44.00000 -0.462
44.02000 -0.476
44.04000 -3.311
44.06000 -1.309
44.08000 1.756
44.10000 0.259
44.12000 1.539
44.14000 3.101
44.16000 -1.296
44.18000 -2.772
44.20000 2.117
44.22000 -1.448
44.24000 1.974
44.26000 4.337
44.28000 5.610
44.30000 3.661
44.32000 1.424
44.34000 2.035
44.36000 3.541
44.38000 7.335
44.40000 8.258
44.42000 5.301
44.44000 10.282
44.46000 8.067
44.48000 5.754
44.50000 7.679
44.52000 6.929
44.54000 10.246
44.56000 7.105
44.58000 1.789
44.60000 -3.395
44.62000 0.245
44.64000 4.335
44.66000 2.602
44.68000 3.368
44.70000 3.045
44.72000 6.214
44.74000 4.443
44.76000 10.128
44.78000 10.677
44.80000 9.045
44.82000 6.039
44.84000 3.882
44.86000 5.890
44.88000 2.143
44.90000 1.249
44.92000 5.552
44.94000 1.872
44.96000 2.112
44.98000 1.703
45.00000 4.884
45.02000 5.772
45.04000 3.052
45.06000 4.642
45.08000 3.400
45.10000 3.248
45.12000 6.975
45.14000 7.314
45.16000 8.489
45.18000 3.771
45.20000 3.362
45.22000 0.548
45.24000 3.114
45.26000 4.570
45.28000 2.831
45.30000 3.996
45.32000 3.322
45.34000 10.672
45.36000 9.138
45.38000 3.463
45.40000 2.964
45.42000 5.582
45.44000 5.564
45.46000 7.747
45.48000 10.006
45.50000 4.718
45.52000 5.862
45.54000 2.752
45.56000 4.037
45.58000 6.458
45.60000 8.114
45.62000 8.191
45.64000 8.804
45.66000 10.668
45.68000 12.021
45.70000 12.366
45.72000 12.993
45.74000 14.009
45.76000 16.545
45.78000 9.042
45.80000 15.255
45.82000 14.468
45.84000 11.931
45.86000 13.664
45.88000 20.327
45.90000 13.955
45.92000 9.418
45.94000 11.195
45.96000 16.338
45.98000 15.453
46.00000 13.399
46.02000 13.848
46.04000 14.069
46.06000 21.800
46.08000 19.609
46.10000 22.239
46.12000 23.854
46.14000 24.569
46.16000 22.434
46.18000 19.732
46.20000 22.519
46.22000 29.457
46.24000 29.228
46.26000 23.069
46.28000 27.320
46.30000 32.518
46.32000 29.520
46.34000 26.745
46.36000 27.795
46.38000 30.917
46.40000 35.816
46.42000 39.443
46.44000 35.545
46.46000 38.498
46.48000 39.313
46.50000 36.218
46.52000 32.684
46.54000 30.079
46.56000 36.865
46.58000 36.296
46.60000 35.456
46.62000 39.192
46.64000 41.719
46.66000 43.685
46.68000 40.835
46.70000 42.720
46.72000 53.983
46.74000 54.924
46.76000 53.742
46.78000 46.797
46.80000 46.107
46.82000 53.482
46.84000 49.460
46.86000 48.313
46.88000 52.950
46.90000 55.516
46.92000 57.937
46.94000 60.276
46.96000 63.412
46.98000 63.552
47.00000 58.346
47.02000 62.464
47.04000 64.156
47.06000 64.128
47.08000 62.556
47.10000 62.579
47.12000 62.039
47.14000 64.446
47.16000 68.527
47.18000 68.095
47.20000 64.967
47.22000 65.585
47.24000 65.498
47.26000 69.910
47.28000 71.575
47.30000 64.876
47.32000 60.462
47.34000 59.455
47.36000 61.986
47.38000 71.370
47.40000 68.604
47.42000 62.377
47.44000 62.533
47.46000 61.978
47.48000 62.538
47.50000 59.337
47.52000 57.331
47.54000 63.183
47.56000 66.044
47.58000 56.290
47.60000 52.522
47.62000 60.634
47.64000 52.137
47.66000 51.580
47.68000 53.035
47.70000 57.101
47.72000 52.333
47.74000 46.770
47.76000 48.063
47.78000 47.060
47.80000 46.459
47.82000 40.067
47.84000 40.990
47.86000 42.872
47.88000 43.757
47.90000 47.787
47.92000 38.758
47.94000 29.052
47.96000 32.645
47.98000 32.253
48.00000 39.058
48.02000 35.909
48.04000 27.886
48.06000 26.911
48.08000 28.083
48.10000 29.045
48.12000 27.822
48.14000 25.799
48.16000 27.879
48.18000 20.614
48.20000 16.007
48.22000 18.238
48.24000 18.983
48.26000 18.772
48.28000 19.126
48.30000 17.617
48.32000 18.953
48.34000 13.381
48.36000 18.138
48.38000 14.880
48.40000 10.569
48.42000 11.862
48.44000 12.757
48.46000 16.348
48.48000 12.924
48.50000 11.543
48.52000 5.322
48.54000 13.919
48.56000 13.197
48.58000 7.611
48.60000 7.450
48.62000 5.975
48.64000 6.553
48.66000 3.395
48.68000 -1.033
48.70000 -0.225
48.72000 3.379
48.74000 3.767
48.76000 3.773
48.78000 6.687
48.80000 6.581
48.82000 8.090
48.84000 8.877
48.86000 10.140
48.88000 3.414
48.90000 4.059
48.92000 2.657
48.94000 5.183
48.96000 9.984
48.98000 11.443
49.00000 1.312
49.02000 -1.472
49.04000 -0.473
49.06000 0.391
49.08000 1.689
49.10000 3.768
49.12000 2.857
49.14000 1.712
49.16000 2.946
49.18000 3.686
49.20000 5.753
49.22000 3.924
49.24000 -0.692
49.26000 0.311
49.28000 1.001
49.30000 0.096
49.32000 -1.385
49.34000 -3.101
49.36000 1.807
49.38000 1.754
49.40000 1.466
49.42000 2.926
49.44000 7.863
49.46000 3.672
49.48000 -2.394
49.50000 0.092
49.52000 -3.073
49.54000 2.824
49.56000 1.827
49.58000 6.021
49.60000 1.466
49.62000 2.052
49.64000 -2.758
49.66000 3.621
49.68000 7.319
49.70000 0.908
49.72000 3.350
49.74000 5.361
49.76000 6.734
49.78000 3.838
49.80000 4.916
49.82000 2.215
49.84000 0.703
49.86000 1.790
49.88000 5.818
49.90000 5.265
49.92000 -2.922
49.94000 -1.483
49.96000 1.812
49.98000 4.338
50.00000 3.318
50.02000 2.156
50.04000 5.731
50.06000 3.759
50.08000 -2.476
50.10000 -2.988
50.12000 -1.683
50.14000 4.239
50.16000 5.658
50.18000 5.613
50.20000 7.965
50.22000 7.729
50.24000 1.698
50.26000 4.307
50.28000 3.925
50.30000 3.315
50.32000 3.535
50.34000 2.613
50.36000 1.186
50.38000 -0.556
50.40000 3.522
50.42000 2.196
50.44000 2.335
50.46000 5.268
50.48000 8.331
50.50000 7.144
50.52000 4.710
50.54000 4.818
50.56000 5.079
50.58000 1.873
50.60000 3.360
50.62000 2.315
50.64000 2.658
50.66000 1.133
50.68000 3.957
50.70000 3.461
50.72000 1.198
50.74000 3.618
50.76000 3.871
50.78000 3.849
50.80000 4.249
50.82000 4.207
50.84000 2.731
50.86000 3.780
50.88000 7.126
50.90000 9.186
50.92000 6.833
50.94000 3.447
50.96000 0.946
50.98000 0.213
51.00000 2.166
51.02000 6.112
51.04000 2.654
51.06000 1.201
51.08000 2.732
51.10000 2.146
51.12000 1.271
51.14000 4.680
51.16000 1.718
51.18000 4.259
51.20000 7.179
51.22000 4.495
51.24000 7.845
51.26000 4.289
51.28000 0.382
51.30000 4.652
51.32000 3.591
51.34000 3.222
51.36000 3.944
51.38000 2.179
51.40000 3.344
51.42000 2.517
51.44000 6.131
51.46000 3.327
51.48000 4.356
51.50000 10.997
51.52000 8.788
51.54000 9.482
51.56000 1.480
51.58000 -2.906
51.60000 2.780
51.62000 0.961
51.64000 1.723
51.66000 7.053
51.68000 8.789
51.70000 9.037
51.72000 7.265
51.74000 4.952
51.76000 0.527
51.78000 -1.560
51.80000 -0.169
51.82000 1.389
51.84000 2.968
51.86000 0.440
51.88000 1.107
51.90000 6.214
51.92000 5.177
51.94000 2.757
51.96000 1.247
51.98000 5.063
52.00000 4.837
52.02000 3.666
52.04000 4.519
52.06000 4.306
52.08000 2.139
52.10000 0.845
52.12000 4.595
52.14000 4.178
52.16000 5.417
52.18000 0.107
52.20000 0.819
52.22000 1.022
52.24000 -0.867
52.26000 10.564
52.28000 0.938
52.30000 2.756
52.32000 4.063
52.34000 8.165
52.36000 8.077
52.38000 5.273
52.40000 4.037
52.42000 2.825
52.44000 -1.331
52.46000 3.228
52.48000 7.673
52.50000 3.644
52.52000 -0.896
52.54000 -1.831
52.56000 -2.262
52.58000 1.572
52.60000 2.502
52.62000 0.598
52.64000 2.133
52.66000 2.579
52.68000 2.610
52.70000 3.432
52.72000 2.365
52.74000 5.172
52.76000 7.632
52.78000 7.855
52.80000 1.899
52.82000 1.436
52.84000 5.990
52.86000 6.049
52.88000 5.800
52.90000 7.655
52.92000 5.463
52.94000 0.944
52.96000 2.460
52.98000 -2.863
53.00000 -2.317
53.02000 3.500
53.04000 5.198
53.06000 2.096
53.08000 0.879
53.10000 6.404
53.12000 6.487
53.14000 5.147
53.16000 6.493
53.18000 7.918
53.20000 4.741
53.22000 2.752
53.24000 8.446
53.26000 4.308
53.28000 2.627
53.30000 1.279
53.32000 4.998
53.34000 2.427
53.36000 3.126
53.38000 3.892
53.40000 2.808
53.42000 3.091
53.44000 0.350
53.46000 -2.840
53.48000 0.287
53.50000 4.449
53.52000 4.523
53.54000 2.728
53.56000 8.727
53.58000 6.574
53.60000 5.963
53.62000 5.844
53.64000 2.106
53.66000 0.826
53.68000 1.981
53.70000 -2.692
53.72000 2.286
53.74000 1.102
53.76000 1.015
53.78000 5.201
53.80000 5.582
53.82000 3.389
53.84000 4.922
53.86000 2.578
53.88000 1.504
53.90000 0.848
53.92000 6.541
53.94000 5.755
53.96000 6.175
53.98000 1.153
54.00000 6.398
54.02000 5.547
54.04000 8.794
54.06000 8.178
54.08000 11.167
54.10000 2.349
54.12000 -2.806
54.14000 -2.760
54.16000 2.809
54.18000 11.443
54.20000 8.417
54.22000 5.637
54.24000 8.990
54.26000 5.798
54.28000 0.922
54.30000 3.151
54.32000 4.473
54.34000 1.648
54.36000 3.083
54.38000 -1.267
54.40000 2.882
54.42000 5.356
54.44000 6.684
54.46000 4.662
54.48000 6.616
54.50000 4.371
54.52000 -0.859
54.54000 1.829
54.56000 2.006
54.58000 -1.689
54.60000 -1.756
54.62000 3.414
54.64000 2.297
54.66000 -2.792
54.68000 2.196
54.70000 8.981
54.72000 11.411
54.74000 8.521
54.76000 7.026
54.78000 3.642
54.80000 5.647
54.82000 0.869
54.84000 3.744
54.86000 -1.338
54.88000 2.883
54.90000 2.583
54.92000 4.690
54.94000 8.419
54.96000 8.252
54.98000 9.779
55.00000 4.847
55.02000 1.704
55.04000 3.610
55.06000 3.158
55.08000 1.288
55.10000 1.173
55.12000 1.717
55.14000 3.119
55.16000 4.385
55.18000 7.250
55.20000 -2.787
55.22000 2.924
55.24000 5.451
55.26000 0.806
55.28000 7.635
55.30000 6.595
55.32000 1.522
55.34000 -2.536
55.36000 5.513
55.38000 4.166
55.40000 4.501
55.42000 2.869
55.44000 -1.152
55.46000 -2.230
55.48000 0.173
55.50000 7.256
55.52000 3.180
55.54000 1.040
55.56000 1.530
55.58000 0.124
55.60000 1.793
55.62000 -0.931
55.64000 -1.485
55.66000 4.865
55.68000 4.219
55.70000 -0.835
55.72000 -0.257
55.74000 1.871
55.76000 2.654
55.78000 5.251
55.80000 1.889
55.82000 4.864
55.84000 0.223
55.86000 0.162
55.88000 3.208
55.90000 0.479
55.92000 -0.852
55.94000 5.507
55.96000 -1.925
55.98000 0.601
56.00000 -0.329
56.02000 2.193
56.04000 4.824
56.06000 0.677
56.08000 1.648
56.10000 4.327
56.12000 4.002
56.14000 6.001
56.16000 4.451
56.18000 5.737
56.20000 6.981
56.22000 5.395
56.24000 7.228
56.26000 1.801
56.28000 1.925
56.30000 2.321
56.32000 2.759
56.34000 3.158
56.36000 1.311
56.38000 -0.226
56.40000 0.458
56.42000 0.178
56.44000 -1.413
56.46000 -1.855
56.48000 -1.635
56.50000 0.431
56.52000 -1.633
56.54000 -0.700
56.56000 0.046
56.58000 2.573
56.60000 2.064
56.62000 3.162
56.64000 2.515
56.66000 5.046
56.68000 7.403
56.70000 5.561
56.72000 3.349
56.74000 4.890
56.76000 4.757
56.78000 0.038
56.80000 0.091
56.82000 5.589
56.84000 1.361
56.86000 3.489
56.88000 3.326
56.90000 7.239
56.92000 4.158
56.94000 -2.729
56.96000 -1.212
56.98000 -2.155
57.00000 -2.745
57.02000 5.279
57.04000 5.132
57.06000 5.538
57.08000 7.117
57.10000 6.684
57.12000 0.772
57.14000 0.264
57.16000 4.605
57.18000 2.763
57.20000 4.187
57.22000 2.692
57.24000 0.558
57.26000 -0.811
57.28000 3.277
57.30000 4.144
57.32000 1.980
57.34000 2.338
57.36000 6.664
57.38000 6.041
57.40000 1.194
57.42000 1.428
57.44000 1.130
57.46000 1.720
57.48000 4.880
57.50000 3.483
57.52000 0.071
57.54000 3.540
57.56000 10.131
57.58000 7.915
57.60000 -0.291
57.62000 3.006
57.64000 5.752
57.66000 2.940
57.68000 0.953
57.70000 5.234
57.72000 9.075
57.74000 4.853
57.76000 0.690
57.78000 -0.384
57.80000 -1.901
57.82000 -0.808
57.84000 3.636
57.86000 6.974
57.88000 7.198
57.90000 8.043
57.92000 3.538
57.94000 5.384
57.96000 8.694
57.98000 7.655
58.00000 2.875
58.02000 5.113
58.04000 4.547
58.06000 5.284
58.08000 2.090
58.10000 -2.656
58.12000 1.680
58.14000 7.080
58.16000 6.797
58.18000 5.600
58.20000 4.125
58.22000 4.438
58.24000 0.377
58.26000 0.675
58.28000 8.165
58.30000 5.331
58.32000 2.419
58.34000 3.185
58.36000 2.832
58.38000 5.143
58.40000 9.228
58.42000 8.743
58.44000 8.248
58.46000 7.734
58.48000 2.293
58.50000 -1.764
58.52000 -1.650
58.54000 0.281
58.56000 4.899
58.58000 3.452
58.60000 3.748
58.62000 6.672
58.64000 3.657
58.66000 6.738
58.68000 6.029
58.70000 4.544
58.72000 8.320
58.74000 5.927
58.76000 1.577
58.78000 4.672
58.80000 8.574
58.82000 8.900
58.84000 2.922
58.86000 5.298
58.88000 4.150
58.90000 2.944
58.92000 4.267
58.94000 8.559
58.96000 10.255
58.98000 7.900
59.00000 6.546
59.02000 8.860
59.04000 5.298
59.06000 4.717
59.08000 3.701
59.10000 3.869
59.12000 6.539
59.14000 -2.652
59.16000 1.613
59.18000 4.523
59.20000 3.908
59.22000 3.464
59.24000 2.358
59.26000 4.537
59.28000 7.787
59.30000 0.731
59.32000 4.910
59.34000 5.860
59.36000 6.805
59.38000 4.383
59.40000 4.481
59.42000 7.173
59.44000 8.921
59.46000 4.698
59.48000 3.491
59.50000 1.505
59.52000 0.562
59.54000 -1.082
59.56000 1.392
59.58000 4.969
59.60000 4.381
59.62000 -0.868
59.64000 -1.155
59.66000 0.196
59.68000 0.466
59.70000 4.836
59.72000 3.121
59.74000 4.053
59.76000 3.838
59.78000 -1.452
59.80000 3.528
59.82000 2.959
59.84000 1.567
59.86000 0.862
59.88000 2.695
59.90000 1.890
59.92000 -0.360
59.94000 1.434
59.96000 3.002
59.98000 1.547
60.00000 4.180
60.02000 2.044
60.04000 2.872
60.06000 4.009
60.08000 3.559
60.10000 4.466
60.12000 5.194
60.14000 2.551
60.16000 2.091
60.18000 2.312
60.20000 3.025
60.22000 -1.218
60.24000 -0.772
60.26000 2.038
60.28000 6.987
60.30000 6.918
60.32000 -2.639
60.34000 -0.244
60.36000 3.055
60.38000 -1.482
60.40000 0.691
60.42000 -2.635
60.44000 -0.838
60.46000 -0.856
60.48000 -0.905
60.50000 3.384
60.52000 4.937
60.54000 8.122
60.56000 5.470
60.58000 1.790
60.60000 -2.626
60.62000 -1.072
60.64000 3.693
60.66000 2.406
60.68000 4.578
60.70000 1.800
60.72000 1.907
60.74000 2.701
60.76000 5.168
60.78000 -0.381
60.80000 1.017
60.82000 5.022
60.84000 4.474
60.86000 1.082
60.88000 0.108
60.90000 1.405
60.92000 3.427
60.94000 4.661
60.96000 1.907
60.98000 -2.216
61.00000 -2.611
61.02000 1.383
61.04000 1.831
61.06000 2.300
61.08000 4.074
61.10000 6.148
61.12000 5.511
61.14000 4.513
61.16000 2.158
61.18000 -0.825
61.20000 1.630
61.22000 3.317
61.24000 2.785
61.26000 0.740
61.28000 2.137
61.30000 2.947
61.32000 1.109
61.34000 1.463
61.36000 0.866
61.38000 0.855
61.40000 2.491
61.42000 3.406
61.44000 3.379
61.46000 0.898
61.48000 -2.606
61.50000 -0.268
61.52000 0.406
61.54000 -0.858
61.56000 2.968
61.58000 6.215
61.60000 3.130
61.62000 -0.953
61.64000 -0.663
61.66000 0.498
61.68000 4.282
61.70000 3.069
61.72000 3.900
61.74000 3.594
61.76000 3.171
61.78000 1.191
61.80000 3.325
61.82000 4.751
61.84000 5.669
61.86000 0.420
61.88000 3.961
61.90000 7.942
61.92000 2.090
61.94000 0.094
61.96000 1.270
61.98000 1.926
62.00000 0.123
62.02000 0.285
62.04000 2.555
62.06000 0.438
62.08000 1.104
62.10000 -0.839
62.12000 -2.588
62.14000 -1.157
62.16000 -1.137
62.18000 2.090
62.20000 5.429
62.22000 3.047
62.24000 2.396
62.26000 1.408
62.28000 -0.050
62.30000 1.438
62.32000 0.266
62.34000 4.161
62.36000 6.119
62.38000 6.274
62.40000 2.628
62.42000 3.172
62.44000 5.678
62.46000 4.429
62.48000 1.702
62.50000 8.733
62.52000 9.614
62.54000 5.388
62.56000 1.977
62.58000 -0.136
62.60000 -2.045
62.62000 1.721
62.64000 1.570
62.66000 1.017
62.68000 1.439
62.70000 3.793
62.72000 4.355
62.74000 0.924
62.76000 1.793
62.78000 5.394
62.80000 4.994
62.82000 2.079
62.84000 3.017
62.86000 3.487
62.88000 3.670
62.90000 0.936
62.92000 2.033
62.94000 4.794
62.96000 5.210
62.98000 3.010
63.00000 1.327
63.02000 -2.568
63.04000 -1.592
63.06000 -2.129
63.08000 1.182
63.10000 4.146
63.12000 7.856
63.14000 2.448
63.16000 5.492
63.18000 5.829
63.20000 4.102
63.22000 3.998
63.24000 3.583
63.26000 4.910
63.28000 3.084
63.30000 4.772
63.32000 2.838
63.34000 0.671
63.36000 -0.167
63.38000 0.482
63.40000 -0.369
63.42000 -1.207
63.44000 2.533
63.46000 1.866
63.48000 3.064
63.50000 2.000
63.52000 -0.329
63.54000 2.575
63.56000 3.077
63.58000 3.709
63.60000 1.737
63.62000 0.133
63.64000 2.183
63.66000 2.459
63.68000 2.824
63.70000 -0.077
63.72000 -0.200
63.74000 1.813
63.76000 4.130
63.78000 2.700
63.80000 3.237
63.82000 3.450
63.84000 5.167
63.86000 2.324
63.88000 4.768
63.90000 5.057
63.92000 0.414
63.94000 0.213
63.96000 1.836
63.98000 4.486
64.00000 -0.233
64.02000 2.076
64.04000 4.527
64.06000 6.284
64.08000 6.985
64.10000 6.911
64.12000 5.739
64.14000 1.697
64.16000 0.805
64.18000 2.345
64.20000 6.766
64.22000 7.415
64.24000 3.575
64.26000 4.012
64.28000 4.170
64.30000 6.107
64.32000 3.543
64.34000 0.961
64.36000 1.476
64.38000 5.269
64.40000 2.977
64.42000 -1.279
64.44000 -2.543
64.46000 1.602
64.48000 4.321
64.50000 2.583
64.52000 3.682
64.54000 1.863
64.56000 3.424
64.58000 1.588
64.60000 0.460
64.62000 2.524
64.64000 5.107
64.66000 6.115
64.68000 6.887
64.70000 4.682
64.72000 3.669
64.74000 0.481
64.76000 -0.713
64.78000 2.808
64.80000 4.435
64.82000 5.275
64.84000 7.052
64.86000 4.919
64.88000 2.423
64.90000 1.791
64.92000 3.443
64.94000 5.644
64.96000 2.358
64.98000 1.350
65.00000 2.520
65.02000 1.352
65.04000 1.150
65.06000 1.542
65.08000 4.939
65.10000 3.056
65.12000 0.912
65.14000 1.579
65.16000 -0.358
65.18000 1.405
65.20000 4.645
65.22000 7.060
65.24000 1.841
65.26000 0.498
65.28000 3.727
65.30000 -0.883
65.32000 -2.561
65.34000 1.465
65.36000 3.249
65.38000 5.080
65.40000 3.804
65.42000 4.154
65.44000 1.030
65.46000 0.776
65.48000 3.369
65.50000 1.689
65.52000 1.165
65.54000 3.535
65.56000 3.350
65.58000 2.712
65.60000 3.286
65.62000 2.757
65.64000 2.327
65.66000 3.872
65.68000 2.496
65.70000 -0.324
65.72000 1.308
65.74000 4.615
65.76000 2.705
65.78000 0.853
65.80000 2.080
65.82000 2.202
65.84000 1.405
65.86000 -2.024
65.88000 -1.388
65.90000 -2.595
65.92000 -2.265
65.94000 2.702
65.96000 4.900
65.98000 1.681
66.00000 0.424
66.02000 -1.170
66.04000 -0.562
66.06000 0.558
66.08000 2.604
66.10000 4.030
66.12000 2.533
66.14000 -0.389
66.16000 0.145
66.18000 -0.213
66.20000 2.220
66.22000 0.757
66.24000 0.319
66.26000 1.797
66.28000 0.291
66.30000 -0.157
66.32000 1.739
66.34000 2.145
66.36000 0.337
66.38000 2.382
66.40000 -1.116
66.42000 -2.608
66.44000 -2.394
66.46000 -0.257
66.48000 -0.412
66.50000 1.637
66.52000 0.489
66.54000 0.728
66.56000 2.669
66.58000 2.653
66.60000 3.878
66.62000 4.199
66.64000 -1.107
66.66000 -2.356
66.68000 1.595
66.70000 4.646
66.72000 6.414
66.74000 5.309
66.76000 3.032
66.78000 3.231
66.80000 -0.740
66.82000 0.817
66.84000 -0.749
66.86000 -2.611
66.88000 -1.867
66.90000 0.101
66.92000 -1.202
66.94000 -2.611
66.96000 -2.013
66.98000 2.652
67.00000 3.316
67.02000 3.525
67.04000 0.440
67.06000 0.137
67.08000 -2.629
67.10000 -0.516
67.12000 1.346
67.14000 -2.047
67.16000 -0.764
67.18000 0.135
67.20000 -2.011
67.22000 -0.476
67.24000 -0.130
67.26000 -1.905
67.28000 1.146
67.30000 0.463
67.32000 1.326
67.34000 1.736
67.36000 3.724
67.38000 -0.797
67.40000 -1.427
67.42000 -1.861
67.44000 0.434
67.46000 0.543
67.48000 3.442
67.50000 -0.833
67.52000 0.045
67.54000 0.029
67.56000 1.712
67.58000 0.106
67.60000 1.017
67.62000 -0.890
67.64000 -0.610
67.66000 2.873
67.68000 1.475
67.70000 -1.084
67.72000 -1.610
67.74000 1.933
67.76000 2.683
67.78000 2.294
67.80000 -0.186
67.82000 1.715
67.84000 3.085
67.86000 1.946
67.88000 4.199
67.90000 4.203
67.92000 5.088
67.94000 3.682
67.96000 3.698
67.98000 1.662
68.00000 -0.064
68.02000 4.504
68.04000 9.834
68.06000 5.484
68.08000 4.030
68.10000 2.484
68.12000 3.289
68.14000 2.151
68.16000 3.490
68.18000 4.123
68.20000 5.521
68.22000 7.176
68.24000 8.596
68.26000 9.882
68.28000 9.953
68.30000 10.214
68.32000 7.166
68.34000 6.144
68.36000 5.196
68.38000 7.632
68.40000 13.028
68.42000 10.566
68.44000 10.246
68.46000 9.651
68.48000 15.340
68.50000 13.334
68.52000 13.296
68.54000 8.775
68.56000 9.815
68.58000 11.610
68.60000 10.920
68.62000 8.015
68.64000 9.485
68.66000 10.545
68.68000 15.598
68.70000 17.802
68.72000 17.776
68.74000 15.528
68.76000 16.390
68.78000 15.568
68.80000 19.467
68.82000 20.701
68.84000 25.338
68.86000 21.821
68.88000 20.316
68.90000 19.221
68.92000 16.908
68.94000 14.948
68.96000 17.841
68.98000 19.396
69.00000 17.641
69.02000 14.774
69.04000 20.858
69.06000 28.709
69.08000 20.794
69.10000 19.253
69.12000 18.424
69.14000 17.356
69.16000 16.767
69.18000 16.841
69.20000 20.949
69.22000 21.045
69.24000 20.584
69.26000 21.102
69.28000 19.865
69.30000 18.126
69.32000 17.772
69.34000 22.323
69.36000 25.823
69.38000 22.428
69.40000 22.552
69.42000 18.654
69.44000 18.685
69.46000 19.733
69.48000 18.944
69.50000 20.773
69.52000 15.456
69.54000 14.809
69.56000 12.074
69.58000 11.950
69.60000 19.544
69.62000 18.245
69.64000 13.327
69.66000 20.037
69.68000 20.731
69.70000 15.696
69.72000 13.311
69.74000 11.340
69.76000 11.617
69.78000 12.011
69.80000 12.077
69.82000 11.794
69.84000 11.078
69.86000 8.588
69.88000 3.082
69.90000 1.536
69.92000 7.219
69.94000 8.160
69.96000 5.883
69.98000 7.270
70.00000 8.932
70.02000 6.230
70.04000 7.468
70.06000 5.093
70.08000 3.459
70.10000 5.169
70.12000 4.425
70.14000 1.396
70.16000 2.341
70.18000 3.683
70.20000 6.817
70.22000 6.874
70.24000 4.714
70.26000 5.766
70.28000 2.992
70.30000 0.906
70.32000 0.730
70.34000 2.308
70.36000 1.763
70.38000 0.995
70.40000 -0.047
70.42000 7.264
70.44000 5.747
70.46000 1.309
70.48000 -1.046
70.50000 -2.169
70.52000 -1.310
70.54000 1.721
70.56000 2.363
70.58000 4.138
70.60000 3.111
70.62000 2.418
70.64000 1.797
70.66000 -0.129
70.68000 -1.671
70.70000 -2.363
70.72000 1.545
70.74000 3.051
70.76000 -0.933
70.78000 1.425
70.80000 2.378
70.82000 -2.195
70.84000 -2.560
70.86000 0.795
70.88000 -0.911
70.90000 1.626
70.92000 2.352
70.94000 0.766
70.96000 -0.845
70.98000 1.107
71.00000 4.190
71.02000 5.549
71.04000 0.652
71.06000 4.011
71.08000 1.584
71.10000 0.262
71.12000 2.968
71.14000 -2.281
71.16000 -2.529
71.18000 -1.889
71.20000 0.175
71.22000 0.680
71.24000 0.245
71.26000 -0.958
71.28000 4.279
71.30000 7.634
71.32000 6.001
71.34000 1.047
71.36000 2.952
71.38000 2.947
71.40000 -0.224
71.42000 -0.903
71.44000 1.077
71.46000 0.277
71.48000 -0.601
71.50000 2.193
71.52000 1.321
71.54000 1.813
71.56000 4.291
71.58000 -0.509
71.60000 -0.839
71.62000 0.455
71.64000 4.130
71.66000 0.638
71.68000 0.816
71.70000 0.145
71.72000 1.207
71.74000 1.048
71.76000 0.391
71.78000 -2.464
71.80000 -0.023
71.82000 0.423
71.84000 0.983
71.86000 7.489
71.88000 5.182
71.90000 4.035
71.92000 5.670
71.94000 2.204
71.96000 -2.442
71.98000 6.454
72.00000 4.705
72.02000 -0.783
72.04000 -1.721
72.06000 1.600
72.08000 4.397
72.10000 3.839
72.12000 3.205
72.14000 7.371
72.16000 6.248
72.18000 5.216
72.20000 2.181
72.22000 2.527
72.24000 4.316
72.26000 5.048
72.28000 1.624
72.30000 1.903
72.32000 -1.514
72.34000 -0.565
72.36000 3.933
72.38000 3.232
72.40000 1.974
72.42000 1.854
72.44000 4.145
72.46000 3.519
72.48000 3.815
72.50000 0.198
72.52000 2.424
72.54000 0.668
72.56000 4.737
72.58000 4.165
72.60000 3.629
72.62000 -2.385
72.64000 -0.596
72.66000 1.860
72.68000 1.283
72.70000 2.253
72.72000 1.419
72.74000 -2.026
72.76000 0.187
72.78000 2.512
72.80000 1.180
72.82000 1.905
72.84000 1.544
72.86000 4.124
72.88000 5.011
72.90000 4.104
72.92000 5.247
72.94000 2.285
72.96000 2.367
72.98000 3.959
73.00000 2.186
73.02000 1.559
73.04000 4.445
73.06000 6.639
73.08000 8.106
73.10000 7.910
73.12000 7.271
73.14000 5.698
73.16000 0.694
73.18000 0.309
73.20000 -0.131
73.22000 2.984
73.24000 4.358
73.26000 5.974
73.28000 5.117
73.30000 5.366
73.32000 2.519
73.34000 -0.558
73.36000 5.904
73.38000 10.582
73.40000 9.376
73.42000 7.709
73.44000 1.300
73.46000 0.147
73.48000 1.323
73.50000 3.332
73.52000 3.683
73.54000 -0.261
73.56000 -2.351
73.58000 3.014
73.60000 4.726
73.62000 3.894
73.64000 4.934
73.66000 5.502
73.68000 2.599
73.70000 1.164
73.72000 5.017
73.74000 7.371
73.76000 9.126
73.78000 6.757
73.80000 4.392
73.82000 5.720
73.84000 6.946
73.86000 6.884
73.88000 8.196
73.90000 3.798
73.92000 3.887
73.94000 4.597
73.96000 4.398
73.98000 -1.256
74.00000 3.767
74.02000 5.531
74.04000 2.148
74.06000 5.174
74.08000 1.488
74.10000 -2.355
74.12000 0.965
74.14000 2.440
74.16000 3.093
74.18000 2.773
74.20000 2.747
74.22000 4.696
74.24000 4.481
74.26000 4.096
74.28000 10.828
74.30000 10.942
74.32000 6.300
74.34000 4.755
74.36000 4.118
74.38000 1.453
74.40000 -0.479
74.42000 2.579
74.44000 0.254
74.46000 4.227
74.48000 3.544
74.50000 6.134
74.52000 5.063
74.54000 2.616
74.56000 2.155
74.58000 4.430
74.60000 5.065
74.62000 1.426
74.64000 2.251
74.66000 1.708
74.68000 3.232
74.70000 3.086
74.72000 -2.141
74.74000 6.180
74.76000 5.089
74.78000 2.786
74.80000 1.681
74.82000 1.855
74.84000 0.644
74.86000 2.633
74.88000 5.546
74.90000 -0.815
74.92000 5.643
74.94000 0.733
74.96000 1.720
74.98000 0.201
75.00000 -1.098
75.02000 -2.357
75.04000 4.758
75.06000 6.674
75.08000 4.703
75.10000 -0.667
75.12000 0.787
75.14000 1.903
75.16000 6.209
75.18000 4.412
75.20000 1.493
75.22000 3.402
75.24000 2.354
75.26000 2.438
75.28000 7.220
75.30000 7.344
75.32000 7.002
75.34000 3.492
75.36000 6.795
75.38000 10.491
75.40000 8.161
75.42000 7.100
75.44000 5.780
75.46000 3.890
75.48000 1.136
75.50000 3.718
75.52000 1.111
75.54000 2.624
75.56000 3.665
75.58000 1.399
75.60000 -1.814
75.62000 -1.051
75.64000 0.804
75.66000 2.908
75.68000 2.724
75.70000 5.881
75.72000 4.988
75.74000 -0.371
75.76000 2.815
75.78000 2.494
75.80000 3.160
75.82000 0.990
75.84000 1.426
75.86000 4.158
75.88000 6.096
75.90000 6.767
75.92000 5.624
75.94000 0.628
75.96000 6.791
75.98000 5.805
76.00000 4.477
76.02000 0.499
76.04000 -2.350
76.06000 0.996
76.08000 5.564
76.10000 3.747
76.12000 3.693
76.14000 4.801
76.16000 3.970
76.18000 3.710
76.20000 3.503
76.22000 4.162
76.24000 2.527
76.26000 6.256
76.28000 7.015
76.30000 7.466
76.32000 3.971
76.34000 2.494
76.36000 5.337
76.38000 4.729
76.40000 8.255
76.42000 7.599
76.44000 6.802
76.46000 6.709
76.48000 3.032
76.50000 -2.005
76.52000 1.187
76.54000 0.484
76.56000 0.076
76.58000 2.915
76.60000 3.474
76.62000 -0.869
76.64000 2.471
76.66000 1.305
76.68000 4.161
76.70000 5.866
76.72000 2.749
76.74000 -0.945
76.76000 1.200
76.78000 0.140
76.80000 4.253
76.82000 5.797
76.84000 6.208
76.86000 0.994
76.88000 0.439
76.90000 1.433
76.92000 0.903
76.94000 1.447
76.96000 3.139
76.98000 1.069
77.00000 5.841
77.02000 3.676
77.04000 0.352
77.06000 1.783
77.08000 2.257
77.10000 1.013
77.12000 -2.404
77.14000 1.419
77.16000 2.367
77.18000 2.156
77.20000 4.704
77.22000 2.254
77.24000 2.433
77.26000 1.444
77.28000 -0.965
77.30000 2.069
77.32000 -2.200
77.34000 -1.253
77.36000 1.065
77.38000 0.228
77.40000 1.124
77.42000 -0.192
77.44000 -0.025
77.46000 -0.486
77.48000 3.071
77.50000 2.680
77.52000 -0.066
77.54000 1.096
77.56000 3.317
77.58000 -0.180
77.60000 -1.335
77.62000 -0.696
77.64000 2.026
77.66000 -0.390
77.68000 2.772
77.70000 2.600
77.72000 5.887
77.74000 3.896
77.76000 2.177
77.78000 1.860
77.80000 0.516
77.82000 1.475
77.84000 4.781
77.86000 4.581
77.88000 1.419
77.90000 2.064
77.92000 7.952
77.94000 5.950
77.96000 2.942
77.98000 -1.283
78.00000 4.368
78.02000 7.315
78.04000 3.808
78.06000 4.042
78.08000 0.829
78.10000 2.350
78.12000 0.771
78.14000 2.704
78.16000 -0.659
78.18000 2.250
78.20000 2.351
78.22000 -1.224
78.24000 6.330
78.26000 9.512
78.28000 7.493
78.30000 1.143
78.32000 -2.249
78.34000 -0.958
78.36000 1.477
78.38000 5.883
78.40000 6.302
78.42000 4.290
78.44000 0.616
78.46000 3.282
78.48000 0.509
78.50000 3.900
78.52000 6.599
78.54000 6.877
78.56000 5.299
78.58000 4.613
78.60000 5.002
78.62000 2.820
78.64000 -2.399
78.66000 8.828
78.68000 11.054
78.70000 3.803
78.72000 3.708
78.74000 4.074
78.76000 0.623
78.78000 2.973
78.80000 1.714
78.82000 0.323
78.84000 1.061
78.86000 0.303
78.88000 2.839
78.90000 5.193
78.92000 1.206
78.94000 3.898
78.96000 9.128
78.98000 -0.797
79.00000 -2.174
79.02000 -1.401
79.04000 0.919
79.06000 -0.150
79.08000 -0.207
79.10000 3.282
79.12000 5.379
79.14000 4.287
79.16000 8.130
79.18000 5.941
79.20000 -2.183
79.22000 -1.646
79.24000 -1.436
79.26000 2.407
79.28000 5.005
79.30000 8.520
79.32000 9.396
79.34000 5.874
79.36000 3.940
79.38000 4.089
79.40000 3.515
79.42000 6.712
79.44000 3.022
79.46000 2.368
79.48000 2.326
79.50000 3.570
79.52000 -1.153
79.54000 1.826
79.56000 2.792
79.58000 4.467
79.60000 7.005
79.62000 2.210
79.64000 -2.438
79.66000 -2.439
79.68000 2.092
79.70000 1.653
79.72000 3.510
79.74000 2.824
79.76000 4.083
79.78000 5.275
79.80000 1.465
79.82000 -0.417
79.84000 2.961
79.86000 4.014
79.88000 0.533
79.90000 -0.526
79.92000 0.328
79.94000 -0.742
79.96000 0.935
79.98000 2.907
80.00000 5.032
80.02000 3.420
80.04000 1.828
80.06000 2.935
80.08000 6.986
80.10000 4.873
80.12000 0.511
80.14000 2.079
80.16000 0.214
80.18000 0.256
80.20000 4.648
80.22000 1.792
80.24000 -1.907
80.26000 -0.539
80.28000 4.266
80.30000 3.897
80.32000 0.802
80.34000 -0.877
80.36000 2.530
80.38000 1.419
80.40000 3.046
80.42000 4.480
80.44000 2.669
80.46000 2.872
80.48000 4.347
80.50000 1.446
80.52000 2.437
80.54000 0.388
80.56000 1.711
80.58000 -1.972
80.60000 0.351
80.62000 2.504
80.64000 3.409
80.66000 1.090
80.68000 -2.489
80.70000 -2.110
80.72000 -0.179
80.74000 -0.980
80.76000 3.674
80.78000 2.704
80.80000 4.466
80.82000 0.493
80.84000 -0.872
80.86000 2.590
80.88000 0.260
80.90000 -2.214
80.92000 1.396
80.94000 4.264
80.96000 2.315
80.98000 4.299
81.00000 3.042
81.02000 3.483
81.04000 3.027
81.06000 3.873
81.08000 4.831
81.10000 2.175
81.12000 1.125
81.14000 1.370
81.16000 -1.749
81.18000 1.962
81.20000 3.898
81.22000 8.196
81.24000 6.100
81.26000 4.819
81.28000 9.162
81.30000 2.450
81.32000 5.236
81.34000 4.667
81.36000 -1.551
81.38000 -1.406
81.40000 0.656
81.42000 0.865
81.44000 3.850
81.46000 6.388
81.48000 -0.735
81.50000 1.028
81.52000 2.435
81.54000 -2.528
81.56000 -0.960
81.58000 -1.223
81.60000 -0.795
81.62000 6.388
81.64000 5.548
81.66000 5.742
81.68000 4.486
81.70000 2.106
81.72000 1.149
81.74000 -1.141
81.76000 2.841
81.78000 7.322
81.80000 -0.317
81.82000 -0.161
81.84000 4.995
81.86000 9.255
81.88000 5.376
81.90000 7.782
81.92000 7.848
81.94000 4.501
81.96000 7.204
81.98000 4.754
82.00000 7.665
82.02000 3.773
82.04000 5.404
82.06000 7.273
82.08000 5.903
82.10000 6.605
82.12000 2.719
82.14000 2.877
82.16000 3.484
82.18000 1.551
82.20000 3.748
82.22000 1.891
82.24000 7.806
82.26000 8.728
82.28000 13.008
82.30000 13.425
82.32000 10.031
82.34000 3.409
82.36000 4.957
82.38000 8.736
82.40000 7.928
82.42000 7.145
82.44000 11.796
82.46000 9.926
82.48000 10.370
82.50000 7.173
82.52000 6.454
82.54000 5.309
82.56000 6.459
82.58000 12.079
82.60000 13.174
82.62000 8.106
82.64000 10.631
82.66000 11.573
82.68000 12.288
82.70000 9.907
82.72000 9.929
82.74000 8.894
82.76000 12.164
82.78000 17.543
82.80000 12.001
82.82000 13.685
82.84000 13.481
82.86000 13.514
82.88000 18.481
82.90000 19.410
82.92000 17.200
82.94000 20.269
82.96000 14.776
82.98000 15.691
83.00000 19.176
83.02000 15.472
83.04000 14.806
83.06000 20.715
83.08000 24.092
83.10000 20.072
83.12000 25.177
83.14000 20.354
83.16000 20.786
83.18000 22.113
83.20000 25.168
83.22000 26.657
83.24000 23.191
83.26000 21.365
83.28000 27.782
83.30000 23.898
83.32000 17.305
83.34000 22.663
83.36000 26.329
83.38000 24.990
83.40000 21.703
83.42000 28.184
83.44000 23.720
83.46000 22.492
83.48000 27.330
83.50000 27.643
83.52000 27.588
83.54000 24.010
83.56000 20.844
83.58000 21.362
83.60000 23.210
83.62000 24.828
83.64000 25.079
83.66000 20.854
83.68000 23.805
83.70000 26.408
83.72000 25.769
83.74000 28.484
83.76000 20.563
83.78000 21.436
83.80000 24.287
83.82000 22.145
83.84000 15.010
83.86000 19.818
83.88000 21.506
83.90000 23.642
83.92000 21.044
83.94000 23.054
83.96000 19.998
83.98000 16.870
84.00000 15.507
84.02000 13.115
84.04000 21.421
84.06000 20.610
84.08000 14.608
84.10000 19.361
84.12000 17.012
84.14000 14.566
84.16000 14.672
84.18000 13.931
84.20000 13.014
84.22000 10.223
84.24000 14.546
84.26000 12.871
84.28000 5.777
84.30000 6.385
84.32000 12.446
84.34000 14.904
84.36000 12.361
84.38000 15.055
84.40000 11.946
84.42000 16.950
84.44000 15.895
84.46000 14.916
84.48000 11.932
84.50000 9.976
84.52000 11.643
84.54000 8.697
84.56000 9.485
84.58000 13.269
84.60000 12.278
84.62000 10.356
84.64000 6.422
84.66000 10.168
84.68000 12.698
84.70000 11.764
84.72000 10.303
84.74000 10.076
84.76000 3.997
84.78000 6.336
84.80000 3.588
84.82000 2.371
84.84000 5.307
84.86000 4.579
84.88000 2.581
84.90000 4.155
84.92000 6.211
84.94000 3.871
84.96000 0.147
84.98000 1.125
85.00000 -0.278
85.02000 2.021
85.04000 7.780
85.06000 3.122
85.08000 2.472
85.10000 6.524
85.12000 9.313
85.14000 2.765
85.16000 6.011
85.18000 9.396
85.20000 11.297
85.22000 8.584
85.24000 7.775
85.26000 1.995
85.28000 4.325
85.30000 1.178
85.32000 1.706
85.34000 4.166
85.36000 8.578
85.38000 7.847
85.40000 0.688
85.42000 5.053
85.44000 4.546
85.46000 -2.459
85.48000 -1.705
85.50000 6.285
85.52000 7.948
85.54000 1.713
85.56000 -1.700
85.58000 -1.299
85.60000 0.939
85.62000 0.018
85.64000 3.515
85.66000 5.285
85.68000 1.941
85.70000 4.620
85.72000 3.217
85.74000 2.782
85.76000 3.028
85.78000 -1.042
85.80000 -1.157
85.82000 3.604
85.84000 5.084
85.86000 4.276
85.88000 1.539
85.90000 1.975
85.92000 0.781
85.94000 2.922
85.96000 4.764
85.98000 3.626
86.00000 8.160
86.02000 2.031
86.04000 2.247
86.06000 1.041
86.08000 2.553
86.10000 3.158
86.12000 1.023
86.14000 -0.829
86.16000 0.737
86.18000 -0.699
86.20000 -0.967
86.22000 -0.944
86.24000 -2.451
86.26000 -2.483
86.28000 0.419
86.30000 0.900
86.32000 -0.942
86.34000 2.629
86.36000 2.499
86.38000 -0.464
86.40000 -2.323
86.42000 0.324
86.44000 -0.014
86.46000 1.063
86.48000 -0.390
86.50000 5.121
86.52000 -1.234
86.54000 1.843
86.56000 0.172
86.58000 -2.483
86.60000 -1.297
86.62000 8.885
86.64000 4.988
86.66000 5.946
86.68000 8.994
86.70000 10.412
86.72000 0.070
86.74000 -0.490
86.76000 3.470
86.78000 4.036
86.80000 4.193
86.82000 3.891
86.84000 1.508
86.86000 5.919
86.88000 5.850
86.90000 5.235
86.92000 4.919
86.94000 2.073
86.96000 1.645
86.98000 4.139
87.00000 5.957
87.02000 8.843
87.04000 7.672
87.06000 4.103
87.08000 7.219
87.10000 11.832
87.12000 8.178
87.14000 9.244
87.16000 11.697
87.18000 8.432
87.20000 11.187
87.22000 8.864
87.24000 5.340
87.26000 11.128
87.28000 12.358
87.30000 12.053
87.32000 11.222
87.34000 10.615
87.36000 16.170
87.38000 14.502
87.40000 11.968
87.42000 10.040
87.44000 6.762
87.46000 12.758
87.48000 13.589
87.50000 11.198
87.52000 10.106
87.54000 11.832
87.56000 12.931
87.58000 13.079
87.60000 17.264
87.62000 17.710
87.64000 18.790
87.66000 17.302
87.68000 17.118
87.70000 17.531
87.72000 15.941
87.74000 13.844
87.76000 10.973
87.78000 17.882
87.80000 16.749
87.82000 19.508
87.84000 15.112
87.86000 18.349
87.88000 16.061
87.90000 17.180
87.92000 16.928
87.94000 21.403
87.96000 21.373
87.98000 19.484
88.00000 20.086
88.02000 15.769
88.04000 18.055
88.06000 22.023
88.08000 20.389
88.10000 25.291
88.12000 21.597
88.14000 20.314
88.16000 19.023
88.18000 24.116
88.20000 24.190
88.22000 21.097
88.24000 14.984
88.26000 15.132
88.28000 20.392
88.30000 23.519
88.32000 23.397
88.34000 19.873
88.36000 18.698
88.38000 19.796
88.40000 16.007
88.42000 17.043
88.44000 16.612
88.46000 18.613
88.48000 17.712
88.50000 20.048
88.52000 18.237
88.54000 17.357
88.56000 16.695
88.58000 15.271
88.60000 14.802
88.62000 16.908
88.64000 12.476
88.66000 14.851
88.68000 17.238
88.70000 13.209
88.72000 7.648
88.74000 10.860
88.76000 14.835
88.78000 14.545
88.80000 11.822
88.82000 8.893
88.84000 10.579
88.86000 10.392
88.88000 13.131
88.90000 10.862
88.92000 11.535
88.94000 8.372
88.96000 13.151
88.98000 11.654
89.00000 8.933
89.02000 9.921
89.04000 9.087
89.06000 11.943
89.08000 10.496
89.10000 9.305
89.12000 14.262
89.14000 13.976
89.16000 6.574
89.18000 6.555
89.20000 10.329
89.22000 8.164
89.24000 5.749
89.26000 4.339
89.28000 4.307
89.30000 7.663
89.32000 6.280
89.34000 3.687
89.36000 4.587
89.38000 6.327
89.40000 10.700
89.42000 8.653
89.44000 10.633
89.46000 8.482
89.48000 2.506
89.50000 2.330
89.52000 2.202
89.54000 5.010
89.56000 8.279
89.58000 7.793
89.60000 8.832
89.62000 5.384
89.64000 3.893
89.66000 6.588
89.68000 6.900
89.70000 8.001
89.72000 2.618
89.74000 4.417
89.76000 0.845
89.78000 2.341
89.80000 4.451
89.82000 5.994
89.84000 3.789
89.86000 8.169
89.88000 14.647
89.90000 5.761
89.92000 0.719
89.94000 2.823
89.96000 3.126
89.98000 -0.651
90.00000 -2.300
90.02000 -0.630
90.04000 1.042
90.06000 1.757
90.08000 1.633
90.10000 3.625
90.12000 5.520
90.14000 2.296
90.16000 6.535
90.18000 13.821
90.20000 10.363
90.22000 8.622
90.24000 5.999
90.26000 7.764
90.28000 3.068
90.30000 5.969
90.32000 5.656
90.34000 1.442
90.36000 2.590
90.38000 0.356
90.40000 1.240
90.42000 3.895
90.44000 5.368
90.46000 4.683
90.48000 3.291
90.50000 6.131
90.52000 10.962
90.54000 9.080
90.56000 4.113
90.58000 4.821
90.60000 2.304
90.62000 3.775
90.64000 7.772
90.66000 6.145
90.68000 0.133
90.70000 -2.276
90.72000 4.256
90.74000 7.391
90.76000 8.080
90.78000 2.481
90.80000 -0.934
90.82000 0.139
90.84000 -0.795
90.86000 3.810
90.88000 3.456
90.90000 1.699
90.92000 4.988
90.94000 6.558
90.96000 4.333
90.98000 6.391
91.00000 7.033
91.02000 2.728
91.04000 5.467
91.06000 -0.321
91.08000 0.270
91.10000 4.673
91.12000 5.668
91.14000 4.815
91.16000 2.778
91.18000 4.327
91.20000 3.785
91.22000 5.886
91.24000 8.805
91.26000 7.282
91.28000 2.926
91.30000 1.766
91.32000 -0.287
91.34000 0.231
91.36000 1.290
91.38000 3.531
91.40000 3.283
91.42000 4.279
91.44000 -1.265
91.46000 -0.921
91.48000 5.464
91.50000 3.987
91.52000 4.344
91.54000 -2.285
91.56000 0.572
91.58000 3.745
91.60000 3.948
91.62000 3.555
91.64000 0.790
91.66000 4.159
91.68000 5.416
91.70000 4.035
91.72000 2.726
91.74000 3.130
91.76000 1.846
91.78000 9.851
91.80000 6.464
91.82000 0.518
91.84000 3.240
91.86000 2.791
91.88000 4.305
91.90000 5.362
91.92000 4.350
91.94000 1.714
91.96000 4.185
91.98000 4.372
92.00000 4.094
92.02000 -0.322
92.04000 0.413
92.06000 7.511
92.08000 6.833
92.10000 6.700
92.12000 2.756
92.14000 5.103
92.16000 6.395
92.18000 4.539
92.20000 3.533
92.22000 2.664
92.24000 7.034
92.26000 4.268
92.28000 1.385
92.30000 -2.263
92.32000 -1.372
92.34000 3.127
92.36000 9.797
92.38000 4.451
92.40000 3.993
92.42000 0.585
92.44000 3.736
92.46000 0.618
92.48000 -2.162
92.50000 -0.969
92.52000 4.055
92.54000 0.971
92.56000 7.195
92.58000 1.289
92.60000 -2.255
92.62000 0.840
92.64000 2.438
92.66000 -0.531
92.68000 4.837
92.70000 2.826
92.72000 2.896
92.74000 5.036
92.76000 2.702
92.78000 3.666
92.80000 6.596
92.82000 7.383
92.84000 4.455
92.86000 9.240
92.88000 3.747
92.90000 4.782
92.92000 2.760
92.94000 2.522
92.96000 1.735
92.98000 2.254
93.00000 -0.569
93.02000 4.172
93.04000 6.329
93.06000 2.890
93.08000 -2.101
93.10000 -2.003
93.12000 -0.699
93.14000 1.839
93.16000 2.263
93.18000 3.348
93.20000 -0.456
93.22000 1.345
93.24000 5.256
93.26000 1.522
93.28000 1.803
93.30000 4.666
93.32000 2.380
93.34000 0.114
93.36000 6.085
93.38000 5.920
93.40000 4.229
93.42000 5.983
93.44000 4.138
93.46000 2.630
93.48000 5.874
93.50000 6.178
93.52000 8.023
93.54000 5.609
93.56000 7.115
93.58000 13.836
93.60000 11.809
93.62000 9.041
93.64000 8.067
93.66000 8.291
93.68000 3.755
93.70000 1.974
93.72000 5.034
93.74000 2.835
93.76000 5.732
93.78000 4.799
93.80000 5.781
93.82000 6.236
93.84000 2.317
93.86000 1.732
93.88000 2.232
93.90000 5.232
93.92000 8.697
93.94000 7.411
93.96000 1.010
93.98000 -2.275
94.00000 0.808
94.02000 1.170
94.04000 0.683
94.06000 0.555
94.08000 2.629
94.10000 2.704
94.12000 6.896
94.14000 7.489
94.16000 3.693
94.18000 0.921
94.20000 0.721
94.22000 3.605
94.24000 5.297
94.26000 2.385
94.28000 1.614
94.30000 6.037
94.32000 3.734
94.34000 3.829
94.36000 3.977
94.38000 4.619
94.40000 7.283
94.42000 6.494
94.44000 3.034
94.46000 7.056
94.48000 10.203
94.50000 8.858
94.52000 3.240
94.54000 -2.261
94.56000 -0.871
94.58000 -0.306
94.60000 5.769
94.62000 11.093
94.64000 2.951
94.66000 1.172
94.68000 3.700
94.70000 7.283
94.72000 7.678
94.74000 6.393
94.76000 6.769
94.78000 9.072
94.80000 13.137
94.82000 9.726
94.84000 4.154
94.86000 5.406
94.88000 6.793
94.90000 7.840
94.92000 8.468
94.94000 11.610
94.96000 7.444
94.98000 3.089
95.00000 3.683
95.02000 3.817
95.04000 3.445
95.06000 3.885
95.08000 3.705
95.10000 4.838
95.12000 2.647
95.14000 6.750
95.16000 9.629
95.18000 4.155
95.20000 4.336
95.22000 2.290
95.24000 1.486
95.26000 4.228
95.28000 3.306
95.30000 5.296
95.32000 4.032
95.34000 -1.606
95.36000 2.458
95.38000 8.766
95.40000 2.995
95.42000 -1.920
95.44000 -0.549
95.46000 0.496
95.48000 6.020
95.50000 8.182
95.52000 9.425
95.54000 3.880
95.56000 -0.553
95.58000 -1.826
95.60000 1.331
95.62000 2.454
95.64000 2.603
95.66000 3.901
95.68000 4.993
95.70000 3.709
95.72000 7.099
95.74000 5.693
95.76000 0.683
95.78000 5.401
95.80000 3.194
95.82000 6.218
95.84000 3.391
95.86000 6.411
95.88000 7.575
95.90000 4.646
95.92000 4.346
95.94000 5.014
95.96000 1.958
95.98000 3.986
96.00000 5.954
96.02000 8.877
96.04000 4.839
96.06000 1.406
96.08000 -2.271
96.10000 6.916
96.12000 3.917
96.14000 3.214
96.16000 9.880
96.18000 6.780
96.20000 6.663
96.22000 4.589
96.24000 5.730
96.26000 3.510
96.28000 5.087
96.30000 6.230
96.32000 5.683
96.34000 7.454
96.36000 3.933
96.38000 5.433
96.40000 6.367
96.42000 3.852
96.44000 2.896
96.46000 9.157
96.48000 12.020
96.50000 5.073
96.52000 2.466
96.54000 7.369
96.56000 8.068
96.58000 1.018
96.60000 -2.237
96.62000 2.773
96.64000 6.979
96.66000 6.921
96.68000 5.744
96.70000 10.531
96.72000 15.401
96.74000 9.839
96.76000 5.936
96.78000 4.757
96.80000 0.507
96.82000 4.009
96.84000 3.048
96.86000 6.964
96.88000 3.977
96.90000 5.464
96.92000 9.809
96.94000 7.904
96.96000 10.775
96.98000 1.418
97.00000 1.962
97.02000 5.013
97.04000 9.293
97.06000 12.089
97.08000 7.650
97.10000 5.440
97.12000 7.391
97.14000 8.029
97.16000 6.601
97.18000 1.521
97.20000 -2.197
97.22000 3.917
97.24000 5.534
97.26000 12.777
97.28000 9.148
97.30000 4.709
97.32000 9.514
97.34000 11.509
97.36000 8.551
97.38000 9.022
97.40000 7.899
97.42000 6.657
97.44000 5.584
97.46000 2.880
97.48000 0.781
97.50000 0.805
97.52000 2.322
97.54000 9.203
97.56000 9.245
97.58000 7.229
97.60000 7.527
97.62000 3.443
97.64000 6.530
97.66000 12.034
97.68000 6.882
97.70000 5.450
97.72000 11.550
97.74000 3.312
97.76000 5.513
97.78000 6.612
97.80000 6.373
97.82000 6.559
97.84000 3.504
97.86000 6.272
97.88000 2.335
97.90000 3.277
97.92000 12.575
97.94000 9.229
97.96000 2.798
97.98000 0.321
98.00000 2.905
98.02000 10.726
98.04000 18.484
98.06000 15.059
98.08000 2.645
98.10000 -0.239
98.12000 1.020
98.14000 4.049
98.16000 7.079
98.18000 11.896
98.20000 10.698
98.22000 12.733
98.24000 3.397
98.26000 8.602
98.28000 14.941
98.30000 14.924
98.32000 12.194
98.34000 10.367
98.36000 11.226
98.38000 14.075
98.40000 4.590
98.42000 4.942
98.44000 14.407
98.46000 10.883
98.48000 7.077
98.50000 9.924
98.52000 12.259
98.54000 8.898
98.56000 6.766
98.58000 10.120
98.60000 16.687
98.62000 15.639
98.64000 11.826
98.66000 13.886
98.68000 8.992
98.70000 14.273
98.72000 7.883
98.74000 10.428
98.76000 8.761
98.78000 14.379
98.80000 14.523
98.82000 14.256
98.84000 8.019
98.86000 -2.085
98.88000 -0.246
98.90000 11.470
98.92000 18.752
98.94000 13.472
98.96000 9.524
98.98000 17.744
99.00000 18.246
99.02000 16.929
99.04000 8.502
99.06000 11.950
99.08000 9.213
99.10000 13.418
99.12000 24.600
99.14000 20.955
99.16000 10.797
99.18000 12.247
99.20000 22.024
99.22000 18.261
99.24000 14.674
99.26000 6.988
99.28000 5.240
99.30000 8.799
99.32000 7.689
99.34000 9.534
99.36000 11.274
99.38000 12.997
99.40000 8.798
99.42000 -4.328
99.44000 2.081
99.46000 11.556
99.48000 13.932
99.50000 15.602
99.52000 16.893
99.54000 12.796
99.56000 8.817
99.58000 9.965
99.60000 7.087
99.62000 4.812
99.64000 5.679
99.66000 9.350
99.68000 15.134
99.70000 6.956
99.72000 5.097
99.74000 18.191
99.76000 17.729
99.78000 14.375
99.80000 11.796
99.82000 17.335
99.84000 2.869
99.86000 -2.223
99.88000 -0.364
99.90000 5.766
99.92000 3.147
99.94000 -2.370
99.96000 -2.515
99.98000 0.000
