'Id: "0011389" Comment: "Integrate frame 0011389_Au-Ir-Rh_Au-Rich_XRD_Mapping-090-0000.gfrmwith cursor Wedge Cursor #5" Operator: "B?rgel" Anode: "Cu" Wavelength: "1.5406" Scantype: "2Theta (TwoTheta)" TimePerStep: "1" X: "27" Y: "-18" Z: "5.95" 
10.00000 0.000
10.02000 14.926
10.04000 -3.703
10.06000 -2.842
10.08000 -3.672
10.10000 7.462
10.12000 11.366
10.14000 7.676
10.16000 -3.039
10.18000 -3.392
10.20000 -3.598
10.22000 -3.449
10.24000 4.236
10.26000 -2.382
10.28000 7.209
10.30000 5.088
10.32000 10.497
10.34000 22.784
10.36000 16.254
10.38000 7.347
10.40000 -3.603
10.42000 7.829
10.44000 22.429
10.46000 8.832
10.48000 24.622
10.50000 19.900
10.52000 7.625
10.54000 17.727
10.56000 17.520
10.58000 24.006
10.60000 27.041
10.62000 25.363
10.64000 18.727
10.66000 18.155
10.68000 27.409
10.70000 29.668
10.72000 29.978
10.74000 22.558
10.76000 19.831
10.78000 25.673
10.80000 24.786
10.82000 21.606
10.84000 21.818
10.86000 26.855
10.88000 19.259
10.90000 24.941
10.92000 31.292
10.94000 20.398
10.96000 15.861
10.98000 22.565
11.00000 35.829
11.02000 28.649
11.04000 31.804
11.06000 25.448
11.08000 35.007
11.10000 34.979
11.12000 21.830
11.14000 16.884
11.16000 18.331
11.18000 27.897
11.20000 17.996
11.22000 11.010
11.24000 18.335
11.26000 18.284
11.28000 20.571
11.30000 22.764
11.32000 23.338
11.34000 11.126
11.36000 24.163
11.38000 31.252
11.40000 24.646
11.42000 17.606
11.44000 23.444
11.46000 27.353
11.48000 20.359
11.50000 22.260
11.52000 19.840
11.54000 23.198
11.56000 39.215
11.58000 36.462
11.60000 34.236
11.62000 30.185
11.64000 31.703
11.66000 36.095
11.68000 30.349
11.70000 31.961
11.72000 42.612
11.74000 38.601
11.76000 26.402
11.78000 28.542
11.80000 24.624
11.82000 28.535
11.84000 38.451
11.86000 37.913
11.88000 25.619
11.90000 23.472
11.92000 30.730
11.94000 41.754
11.96000 37.482
11.98000 32.300
12.00000 33.299
12.02000 27.185
12.04000 25.913
12.06000 35.685
12.08000 32.350
12.10000 21.259
12.12000 18.535
12.14000 27.221
12.16000 28.240
12.18000 20.920
12.20000 27.219
12.22000 29.330
12.24000 25.728
12.26000 35.790
12.28000 38.799
12.30000 33.277
12.32000 39.433
12.34000 33.045
12.36000 18.808
12.38000 21.104
12.40000 40.187
12.42000 45.120
12.44000 43.393
12.46000 39.824
12.48000 27.850
12.50000 27.077
12.52000 33.654
12.54000 45.156
12.56000 48.762
12.58000 44.053
12.60000 46.286
12.62000 45.051
12.64000 34.781
12.66000 27.120
12.68000 30.099
12.70000 31.348
12.72000 40.096
12.74000 33.595
12.76000 33.770
12.78000 30.060
12.80000 34.006
12.82000 44.257
12.84000 30.079
12.86000 37.174
12.88000 47.985
12.90000 37.964
12.92000 48.305
12.94000 45.430
12.96000 29.639
12.98000 32.731
13.00000 34.280
13.02000 30.370
13.04000 25.769
13.06000 27.743
13.08000 31.660
13.10000 26.296
13.12000 30.639
13.14000 36.592
13.16000 42.056
13.18000 36.315
13.20000 23.502
13.22000 30.120
13.24000 30.354
13.26000 29.926
13.28000 29.250
13.30000 24.853
13.32000 24.864
13.34000 23.443
13.36000 32.777
13.38000 40.259
13.40000 28.848
13.42000 26.860
13.44000 25.319
13.46000 23.328
13.48000 27.772
13.50000 29.498
13.52000 24.544
13.54000 22.962
13.56000 25.429
13.58000 28.325
13.60000 30.323
13.62000 22.174
13.64000 16.716
13.66000 14.512
13.68000 24.259
13.70000 30.278
13.72000 32.273
13.74000 25.059
13.76000 30.144
13.78000 27.938
13.80000 26.727
13.82000 26.348
13.84000 23.240
13.86000 22.314
13.88000 15.746
13.90000 18.734
13.92000 22.440
13.94000 31.671
13.96000 31.590
13.98000 27.714
14.00000 28.645
14.02000 26.090
14.04000 31.391
14.06000 32.714
14.08000 23.314
14.10000 15.988
14.12000 31.481
14.14000 32.771
14.16000 24.169
14.18000 22.986
14.20000 20.653
14.22000 24.841
14.24000 20.389
14.26000 19.142
14.28000 27.231
14.30000 28.275
14.32000 28.721
14.34000 29.683
14.36000 23.040
14.38000 18.373
14.40000 21.353
14.42000 25.757
14.44000 21.850
14.46000 17.753
14.48000 15.071
14.50000 23.231
14.52000 25.157
14.54000 27.751
14.56000 25.221
14.58000 17.766
14.60000 13.926
14.62000 21.837
14.64000 33.816
14.66000 28.569
14.68000 16.964
14.70000 16.964
14.72000 14.638
14.74000 25.426
14.76000 24.543
14.78000 10.601
14.80000 8.453
14.82000 12.393
14.84000 20.328
14.86000 21.539
14.88000 23.096
14.90000 19.926
14.92000 17.700
14.94000 17.115
14.96000 12.482
14.98000 14.338
15.00000 19.382
15.02000 11.547
15.04000 15.736
15.06000 19.476
15.08000 21.035
15.10000 20.082
15.12000 32.550
15.14000 26.375
15.16000 16.694
15.18000 20.471
15.20000 20.994
15.22000 15.905
15.24000 18.915
15.26000 20.805
15.28000 16.669
15.30000 21.719
15.32000 18.977
15.34000 14.351
15.36000 11.507
15.38000 16.121
15.40000 13.510
15.42000 15.063
15.44000 16.748
15.46000 11.708
15.48000 10.498
15.50000 16.386
15.52000 15.905
15.54000 13.455
15.56000 8.571
15.58000 5.939
15.60000 16.622
15.62000 15.224
15.64000 6.057
15.66000 8.156
15.68000 13.842
15.70000 8.399
15.72000 6.236
15.74000 15.746
15.76000 22.035
15.78000 13.320
15.80000 17.900
15.82000 13.446
15.84000 18.045
15.86000 17.098
15.88000 18.357
15.90000 15.676
15.92000 13.193
15.94000 11.275
15.96000 7.643
15.98000 8.997
16.00000 11.921
16.02000 18.086
16.04000 20.325
16.06000 13.781
16.08000 18.812
16.10000 12.095
16.12000 14.037
16.14000 14.148
16.16000 7.609
16.18000 2.778
16.20000 5.562
16.22000 7.935
16.24000 4.654
16.26000 8.281
16.28000 14.083
16.30000 11.581
16.32000 10.613
16.34000 11.733
16.36000 10.725
16.38000 6.331
16.40000 6.588
16.42000 7.609
16.44000 9.741
16.46000 13.640
16.48000 7.747
16.50000 5.869
16.52000 15.378
16.54000 13.563
16.56000 8.245
16.58000 4.941
16.60000 4.572
16.62000 6.624
16.64000 8.700
16.66000 4.379
16.68000 3.051
16.70000 2.708
16.72000 5.076
16.74000 14.593
16.76000 16.137
16.78000 16.284
16.80000 12.343
16.82000 16.964
16.84000 6.675
16.86000 8.924
16.88000 16.633
16.90000 16.550
16.92000 12.477
16.94000 8.788
16.96000 -0.697
16.98000 2.901
17.00000 6.852
17.02000 10.939
17.04000 9.820
17.06000 9.190
17.08000 16.852
17.10000 10.671
17.12000 12.091
17.14000 13.341
17.16000 8.171
17.18000 11.838
17.20000 11.089
17.22000 4.609
17.24000 5.419
17.26000 9.231
17.28000 6.024
17.30000 7.591
17.32000 12.946
17.34000 11.036
17.36000 12.308
17.38000 11.667
17.40000 5.908
17.42000 10.952
17.44000 10.537
17.46000 4.867
17.48000 4.495
17.50000 6.302
17.52000 5.654
17.54000 10.715
17.56000 7.477
17.58000 5.050
17.60000 15.484
17.62000 5.109
17.64000 -4.328
17.66000 7.626
17.68000 5.931
17.70000 1.332
17.72000 6.651
17.74000 6.873
17.76000 3.260
17.78000 6.521
17.80000 4.914
17.82000 8.690
17.84000 5.437
17.86000 1.745
17.88000 9.798
17.90000 15.537
17.92000 11.639
17.94000 11.817
17.96000 2.629
17.98000 7.110
18.00000 7.514
18.02000 6.068
18.04000 5.011
18.06000 3.741
18.08000 2.319
18.10000 5.861
18.12000 1.811
18.14000 5.624
18.16000 3.790
18.18000 1.237
18.20000 -0.356
18.22000 2.964
18.24000 5.832
18.26000 3.461
18.28000 2.694
18.30000 14.765
18.32000 14.371
18.34000 8.392
18.36000 3.723
18.38000 3.758
18.40000 2.099
18.42000 3.676
18.44000 -0.861
18.46000 -2.549
18.48000 2.627
18.50000 0.546
18.52000 -1.479
18.54000 1.571
18.56000 10.908
18.58000 7.498
18.60000 1.805
18.62000 -0.229
18.64000 1.532
18.66000 3.481
18.68000 4.317
18.70000 3.391
18.72000 1.096
18.74000 -1.801
18.76000 4.003
18.78000 7.263
18.80000 8.006
18.82000 6.428
18.84000 7.556
18.86000 0.615
18.88000 -4.296
18.90000 3.421
18.92000 0.124
18.94000 -2.503
18.96000 4.644
18.98000 4.789
19.00000 -2.270
19.02000 -0.776
19.04000 -1.881
19.06000 0.577
19.08000 -0.301
19.10000 3.191
19.12000 3.538
19.14000 3.594
19.16000 6.695
19.18000 3.640
19.20000 3.396
19.22000 -3.329
19.24000 -1.577
19.26000 -1.449
19.28000 1.528
19.30000 -1.542
19.32000 2.685
19.34000 4.410
19.36000 0.200
19.38000 5.529
19.40000 5.865
19.42000 -2.178
19.44000 0.263
19.46000 4.957
19.48000 2.978
19.50000 1.558
19.52000 -2.692
19.54000 -1.922
19.56000 4.151
19.58000 5.286
19.60000 6.823
19.62000 2.608
19.64000 -1.106
19.66000 2.117
19.68000 -4.247
19.70000 -0.041
19.72000 1.889
19.74000 0.328
19.76000 3.602
19.78000 5.666
19.80000 5.835
19.82000 -0.478
19.84000 2.476
19.86000 2.473
19.88000 -0.200
19.90000 5.865
19.92000 11.331
19.94000 8.072
19.96000 -1.027
19.98000 -2.463
20.00000 1.540
20.02000 1.839
20.04000 1.047
20.06000 3.467
20.08000 4.991
20.10000 5.254
20.12000 4.670
20.14000 3.407
20.16000 0.364
20.18000 0.934
20.20000 -2.279
20.22000 -4.210
20.24000 -1.571
20.26000 -1.826
20.28000 3.274
20.30000 1.274
20.32000 3.257
20.34000 -2.059
20.36000 -3.874
20.38000 0.158
20.40000 8.269
20.42000 0.532
20.44000 1.111
20.46000 1.620
20.48000 0.667
20.50000 5.559
20.52000 0.175
20.54000 -2.929
20.56000 -1.179
20.58000 2.459
20.60000 4.031
20.62000 4.669
20.64000 6.821
20.66000 6.206
20.68000 4.644
20.70000 9.022
20.72000 11.717
20.74000 6.000
20.76000 4.986
20.78000 5.469
20.80000 4.340
20.82000 4.823
20.84000 8.233
20.86000 3.340
20.88000 2.572
20.90000 7.551
20.92000 7.494
20.94000 3.065
20.96000 -1.726
20.98000 -2.497
21.00000 3.434
21.02000 -1.291
21.04000 2.128
21.06000 0.828
21.08000 -0.845
21.10000 9.346
21.12000 4.974
21.14000 2.699
21.16000 1.579
21.18000 2.782
21.20000 5.871
21.22000 14.146
21.24000 11.681
21.26000 10.586
21.28000 9.771
21.30000 8.482
21.32000 3.631
21.34000 -0.612
21.36000 -4.114
21.38000 0.110
21.40000 5.956
21.42000 11.583
21.44000 12.793
21.46000 12.174
21.48000 3.511
21.50000 2.562
21.52000 8.219
21.54000 2.811
21.56000 3.143
21.58000 5.643
21.60000 7.701
21.62000 8.896
21.64000 10.201
21.66000 9.554
21.68000 7.972
21.70000 4.957
21.72000 1.089
21.74000 3.211
21.76000 3.530
21.78000 7.530
21.80000 3.752
21.82000 7.470
21.84000 4.462
21.86000 0.023
21.88000 -2.165
21.90000 5.260
21.92000 7.160
21.94000 4.813
21.96000 0.388
21.98000 4.033
22.00000 4.915
22.02000 2.013
22.04000 6.331
22.06000 9.802
22.08000 10.042
22.10000 2.669
22.12000 7.739
22.14000 14.620
22.16000 8.464
22.18000 7.622
22.20000 4.307
22.22000 2.330
22.24000 8.349
22.26000 3.666
22.28000 1.876
22.30000 9.335
22.32000 11.686
22.34000 2.639
22.36000 -2.849
22.38000 9.485
22.40000 15.176
22.42000 8.896
22.44000 7.882
22.46000 9.039
22.48000 3.153
22.50000 6.277
22.52000 4.456
22.54000 1.555
22.56000 3.619
22.58000 4.937
22.60000 6.523
22.62000 9.206
22.64000 5.405
22.66000 3.269
22.68000 2.303
22.70000 6.379
22.72000 10.069
22.74000 7.160
22.76000 3.261
22.78000 -0.022
22.80000 1.335
22.82000 1.471
22.84000 3.293
22.86000 3.844
22.88000 9.955
22.90000 8.492
22.92000 3.353
22.94000 6.824
22.96000 3.995
22.98000 -0.411
23.00000 2.383
23.02000 4.915
23.04000 8.227
23.06000 3.462
23.08000 5.529
23.10000 6.397
23.12000 6.857
23.14000 1.058
23.16000 9.705
23.18000 6.380
23.20000 2.046
23.22000 0.817
23.24000 4.551
23.26000 5.415
23.28000 5.555
23.30000 4.400
23.32000 0.446
23.34000 -4.018
23.36000 -1.881
23.38000 2.457
23.40000 6.774
23.42000 12.617
23.44000 14.045
23.46000 10.079
23.48000 6.328
23.50000 5.209
23.52000 7.095
23.54000 7.321
23.56000 4.947
23.58000 -1.027
23.60000 1.765
23.62000 5.241
23.64000 3.827
23.66000 2.466
23.68000 0.424
23.70000 7.397
23.72000 1.067
23.74000 0.710
23.76000 -1.288
23.78000 -0.662
23.80000 3.887
23.82000 0.034
23.84000 5.491
23.86000 2.146
23.88000 4.366
23.90000 7.048
23.92000 2.866
23.94000 0.923
23.96000 -3.656
23.98000 -1.825
24.00000 2.006
24.02000 -1.803
24.04000 0.802
24.06000 0.024
24.08000 5.612
24.10000 6.435
24.12000 0.676
24.14000 2.018
24.16000 4.592
24.18000 9.855
24.20000 5.559
24.22000 2.665
24.24000 6.119
24.26000 4.738
24.28000 7.552
24.30000 2.357
24.32000 1.688
24.34000 -2.834
24.36000 -0.119
24.38000 5.271
24.40000 14.939
24.42000 11.627
24.44000 -3.036
24.46000 -1.645
24.48000 6.297
24.50000 9.207
24.52000 5.973
24.54000 1.954
24.56000 1.313
24.58000 -2.058
24.60000 4.669
24.62000 2.621
24.64000 2.901
24.66000 0.332
24.68000 4.962
24.70000 5.413
24.72000 7.375
24.74000 12.623
24.76000 10.737
24.78000 1.534
24.80000 1.593
24.82000 4.099
24.84000 5.096
24.86000 5.333
24.88000 7.035
24.90000 8.256
24.92000 2.136
24.94000 0.325
24.96000 1.133
24.98000 9.329
25.00000 9.128
25.02000 -0.672
25.04000 3.717
25.06000 7.861
25.08000 12.083
25.10000 13.203
25.12000 13.015
25.14000 9.781
25.16000 3.896
25.18000 0.803
25.20000 2.474
25.22000 3.483
25.24000 9.538
25.26000 7.665
25.28000 -3.915
25.30000 2.504
25.32000 4.425
25.34000 1.142
25.36000 4.229
25.38000 3.358
25.40000 6.721
25.42000 8.011
25.44000 2.521
25.46000 4.206
25.48000 5.104
25.50000 1.757
25.52000 4.911
25.54000 3.235
25.56000 4.869
25.58000 3.818
25.60000 1.798
25.62000 4.410
25.64000 10.405
25.66000 14.980
25.68000 10.343
25.70000 3.828
25.72000 1.748
25.74000 4.859
25.76000 13.456
25.78000 15.089
25.80000 10.577
25.82000 4.434
25.84000 5.053
25.86000 9.608
25.88000 12.240
25.90000 12.693
25.92000 8.843
25.94000 6.615
25.96000 5.310
25.98000 1.737
26.00000 3.258
26.02000 3.838
26.04000 2.721
26.06000 8.584
26.08000 6.198
26.10000 -3.860
26.12000 -1.915
26.14000 1.394
26.16000 -0.642
26.18000 0.754
26.20000 0.455
26.22000 4.124
26.24000 1.876
26.26000 4.414
26.28000 0.559
26.30000 2.307
26.32000 0.685
26.34000 0.419
26.36000 4.962
26.38000 7.396
26.40000 8.066
26.42000 10.512
26.44000 4.943
26.46000 -0.097
26.48000 2.617
26.50000 6.030
26.52000 3.162
26.54000 1.197
26.56000 1.247
26.58000 0.441
26.60000 1.772
26.62000 -0.194
26.64000 0.669
26.66000 3.188
26.68000 0.454
26.70000 0.813
26.72000 2.932
26.74000 4.311
26.76000 0.139
26.78000 4.284
26.80000 11.266
26.82000 8.019
26.84000 3.386
26.86000 5.711
26.88000 5.336
26.90000 3.828
26.92000 5.114
26.94000 0.033
26.96000 3.796
26.98000 1.887
27.00000 2.826
27.02000 2.156
27.04000 2.575
27.06000 0.111
27.08000 5.217
27.10000 8.957
27.12000 3.555
27.14000 4.257
27.16000 3.359
27.18000 5.967
27.20000 5.845
27.22000 7.212
27.24000 8.078
27.26000 8.717
27.28000 3.564
27.30000 2.208
27.32000 3.985
27.34000 1.904
27.36000 1.554
27.38000 2.988
27.40000 4.035
27.42000 -1.395
27.44000 2.655
27.46000 6.382
27.48000 4.942
27.50000 1.656
27.52000 2.920
27.54000 8.225
27.56000 5.505
27.58000 4.350
27.60000 1.412
27.62000 7.523
27.64000 5.382
27.66000 2.648
27.68000 2.076
27.70000 -1.718
27.72000 -0.155
27.74000 4.427
27.76000 5.446
27.78000 0.004
27.80000 0.931
27.82000 2.087
27.84000 0.943
27.86000 4.488
27.88000 5.037
27.90000 -0.019
27.92000 0.025
27.94000 -0.532
27.96000 6.190
27.98000 5.929
28.00000 6.907
28.02000 2.592
28.04000 -1.562
28.06000 -2.412
28.08000 0.701
28.10000 5.659
28.12000 6.217
28.14000 -1.215
28.16000 -0.217
28.18000 1.356
28.20000 1.628
28.22000 2.420
28.24000 1.869
28.26000 1.923
28.28000 0.497
28.30000 2.604
28.32000 4.479
28.34000 0.375
28.36000 -3.769
28.38000 2.011
28.40000 6.432
28.42000 6.246
28.44000 4.492
28.46000 4.080
28.48000 -1.754
28.50000 3.526
28.52000 1.424
28.54000 2.526
28.56000 3.918
28.58000 -3.751
28.60000 -0.975
28.62000 6.074
28.64000 7.039
28.66000 5.334
28.68000 3.990
28.70000 5.506
28.72000 5.253
28.74000 5.977
28.76000 2.832
28.78000 4.750
28.80000 2.483
28.82000 1.046
28.84000 3.500
28.86000 0.041
28.88000 0.854
28.90000 1.398
28.92000 0.299
28.94000 1.902
28.96000 8.186
28.98000 8.093
29.00000 7.415
29.02000 0.456
29.04000 -2.207
29.06000 3.898
29.08000 7.267
29.10000 5.896
29.12000 2.608
29.14000 0.199
29.16000 1.779
29.18000 0.071
29.20000 -3.747
29.22000 0.222
29.24000 -1.980
29.26000 -0.123
29.28000 2.310
29.30000 3.713
29.32000 0.658
29.34000 1.536
29.36000 1.679
29.38000 5.655
29.40000 3.969
29.42000 0.990
29.44000 -1.025
29.46000 0.131
29.48000 -0.943
29.50000 -3.738
29.52000 1.493
29.54000 1.899
29.56000 -0.600
29.58000 4.025
29.60000 3.104
29.62000 2.931
29.64000 0.692
29.66000 3.282
29.68000 5.657
29.70000 4.785
29.72000 4.472
29.74000 3.580
29.76000 2.760
29.78000 0.523
29.80000 1.766
29.82000 -1.168
29.84000 0.539
29.86000 2.429
29.88000 0.788
29.90000 -2.183
29.92000 3.613
29.94000 1.516
29.96000 5.283
29.98000 3.283
30.00000 4.200
30.02000 5.133
30.04000 0.944
30.06000 3.766
30.08000 3.012
30.10000 3.720
30.12000 1.601
30.14000 -0.638
30.16000 2.065
30.18000 1.136
30.20000 -0.387
30.22000 -0.940
30.24000 0.336
30.26000 0.189
30.28000 1.699
30.30000 0.137
30.32000 -2.349
30.34000 2.385
30.36000 3.139
30.38000 5.127
30.40000 0.134
30.42000 -0.036
30.44000 2.253
30.46000 3.842
30.48000 -1.858
30.50000 1.333
30.52000 1.858
30.54000 2.282
30.56000 7.598
30.58000 4.114
30.60000 -1.909
30.62000 -2.830
30.64000 1.618
30.66000 1.884
30.68000 4.452
30.70000 3.528
30.72000 6.694
30.74000 3.577
30.76000 -0.636
30.78000 -2.981
30.80000 -0.568
30.82000 1.100
30.84000 4.974
30.86000 6.391
30.88000 4.504
30.90000 1.645
30.92000 5.668
30.94000 4.930
30.96000 0.868
30.98000 -2.058
31.00000 -3.641
31.02000 5.214
31.04000 8.353
31.06000 3.418
31.08000 4.759
31.10000 2.036
31.12000 0.118
31.14000 4.421
31.16000 3.567
31.18000 0.943
31.20000 0.863
31.22000 3.631
31.24000 2.604
31.26000 3.181
31.28000 2.146
31.30000 -2.186
31.32000 4.151
31.34000 6.925
31.36000 3.877
31.38000 3.853
31.40000 0.226
31.42000 -3.246
31.44000 -2.335
31.46000 -0.553
31.48000 0.681
31.50000 3.200
31.52000 5.462
31.54000 3.679
31.56000 1.277
31.58000 -2.825
31.60000 0.102
31.62000 1.306
31.64000 -0.773
31.66000 2.732
31.68000 0.057
31.70000 4.436
31.72000 6.628
31.74000 7.058
31.76000 6.359
31.78000 4.220
31.80000 1.204
31.82000 -2.148
31.84000 0.654
31.86000 2.174
31.88000 -2.419
31.90000 2.606
31.92000 -0.592
31.94000 -1.193
31.96000 2.116
31.98000 -0.418
32.00000 5.812
32.02000 4.590
32.04000 0.828
32.06000 0.641
32.08000 2.767
32.10000 1.146
32.12000 -0.154
32.14000 -0.286
32.16000 -2.297
32.18000 -1.109
32.20000 2.481
32.22000 7.243
32.24000 1.856
32.26000 0.272
32.28000 1.335
32.30000 0.163
32.32000 -1.095
32.34000 -3.589
32.36000 1.432
32.38000 2.984
32.40000 -2.019
32.42000 2.085
32.44000 3.174
32.46000 -2.048
32.48000 0.395
32.50000 1.637
32.52000 -0.695
32.54000 -2.079
32.56000 -3.055
32.58000 1.198
32.60000 0.860
32.62000 4.488
32.64000 4.627
32.66000 4.353
32.68000 5.798
32.70000 2.502
32.72000 5.277
32.74000 3.233
32.76000 2.912
32.78000 5.347
32.80000 5.369
32.82000 3.747
32.84000 3.402
32.86000 1.775
32.88000 1.310
32.90000 3.088
32.92000 0.381
32.94000 0.628
32.96000 1.731
32.98000 1.385
33.00000 1.122
33.02000 -0.269
33.04000 -0.855
33.06000 0.828
33.08000 -0.103
33.10000 -2.579
33.12000 -2.086
33.14000 1.885
33.16000 1.582
33.18000 -1.046
33.20000 5.737
33.22000 2.107
33.24000 -2.746
33.26000 -1.579
33.28000 1.558
33.30000 -0.176
33.32000 1.010
33.34000 2.391
33.36000 5.161
33.38000 7.048
33.40000 6.892
33.42000 0.099
33.44000 0.126
33.46000 3.479
33.48000 0.887
33.50000 -0.566
33.52000 -3.580
33.54000 3.188
33.56000 2.395
33.58000 3.159
33.60000 7.175
33.62000 0.566
33.64000 3.198
33.66000 3.756
33.68000 7.886
33.70000 7.204
33.72000 1.075
33.74000 2.969
33.76000 6.483
33.78000 13.638
33.80000 9.803
33.82000 3.935
33.84000 -1.362
33.86000 3.636
33.88000 2.216
33.90000 2.115
33.92000 5.617
33.94000 4.052
33.96000 4.364
33.98000 4.779
34.00000 3.993
34.02000 2.110
34.04000 4.745
34.06000 1.654
34.08000 2.856
34.10000 3.756
34.12000 8.585
34.14000 6.242
34.16000 8.868
34.18000 5.266
34.20000 5.102
34.22000 8.388
34.24000 4.630
34.26000 -0.722
34.28000 0.294
34.30000 4.939
34.32000 1.724
34.34000 4.063
34.36000 7.485
34.38000 6.579
34.40000 6.210
34.42000 0.573
34.44000 -0.423
34.46000 6.579
34.48000 9.927
34.50000 6.567
34.52000 2.866
34.54000 -0.276
34.56000 1.261
34.58000 -0.329
34.60000 5.423
34.62000 8.107
34.64000 5.314
34.66000 4.971
34.68000 2.928
34.70000 6.041
34.72000 3.904
34.74000 -0.481
34.76000 3.470
34.78000 3.951
34.80000 5.818
34.82000 6.880
34.84000 3.714
34.86000 3.476
34.88000 4.021
34.90000 1.998
34.92000 6.255
34.94000 5.137
34.96000 0.570
34.98000 -0.900
35.00000 0.798
35.02000 0.190
35.04000 -2.434
35.06000 0.694
35.08000 3.443
35.10000 4.331
35.12000 2.220
35.14000 7.086
35.16000 5.656
35.18000 -3.536
35.20000 0.719
35.22000 4.333
35.24000 1.189
35.26000 9.701
35.28000 8.975
35.30000 8.067
35.32000 6.535
35.34000 2.551
35.36000 -1.070
35.38000 -1.905
35.40000 0.361
35.42000 4.663
35.44000 3.794
35.46000 4.988
35.48000 1.873
35.50000 2.095
35.52000 2.917
35.54000 -0.944
35.56000 2.318
35.58000 4.797
35.60000 1.888
35.62000 2.051
35.64000 3.056
35.66000 3.111
35.68000 1.339
35.70000 2.304
35.72000 3.137
35.74000 3.343
35.76000 4.235
35.78000 0.889
35.80000 -1.484
35.82000 5.029
35.84000 3.871
35.86000 6.151
35.88000 1.233
35.90000 1.896
35.92000 5.594
35.94000 7.371
35.96000 1.345
35.98000 -3.549
36.00000 -1.603
36.02000 -0.872
36.04000 -0.718
36.06000 -0.988
36.08000 3.375
36.10000 4.728
36.12000 3.097
36.14000 4.187
36.16000 8.647
36.18000 5.214
36.20000 6.467
36.22000 7.843
36.24000 4.853
36.26000 2.361
36.28000 2.902
36.30000 2.939
36.32000 1.163
36.34000 1.640
36.36000 1.913
36.38000 2.425
36.40000 -0.107
36.42000 3.783
36.44000 5.938
36.46000 -3.586
36.48000 -2.416
36.50000 0.571
36.52000 1.443
36.54000 0.867
36.56000 0.267
36.58000 3.964
36.60000 3.249
36.62000 -0.728
36.64000 -1.009
36.66000 4.663
36.68000 3.835
36.70000 3.929
36.72000 0.931
36.74000 5.246
36.76000 3.593
36.78000 1.500
36.80000 1.315
36.82000 2.340
36.84000 0.785
36.86000 1.087
36.88000 0.029
36.90000 -0.827
36.92000 1.113
36.94000 1.967
36.96000 -0.988
36.98000 -1.292
37.00000 1.840
37.02000 4.874
37.04000 3.120
37.06000 2.415
37.08000 2.813
37.10000 1.924
37.12000 3.535
37.14000 2.817
37.16000 2.220
37.18000 5.294
37.20000 6.858
37.22000 4.311
37.24000 5.179
37.26000 5.077
37.28000 2.153
37.30000 2.677
37.32000 9.961
37.34000 9.732
37.36000 5.398
37.38000 1.218
37.40000 -0.549
37.42000 1.372
37.44000 2.573
37.46000 3.342
37.48000 2.352
37.50000 3.423
37.52000 4.885
37.54000 8.661
37.56000 7.833
37.58000 4.511
37.60000 -1.230
37.62000 -0.430
37.64000 8.068
37.66000 10.916
37.68000 14.073
37.70000 10.673
37.72000 7.900
37.74000 8.401
37.76000 9.597
37.78000 12.639
37.80000 12.025
37.82000 8.653
37.84000 14.279
37.86000 12.294
37.88000 10.764
37.90000 8.066
37.92000 7.318
37.94000 7.866
37.96000 15.739
37.98000 17.924
38.00000 9.582
38.02000 9.823
38.04000 17.166
38.06000 15.730
38.08000 13.624
38.10000 15.558
38.12000 19.457
38.14000 24.469
38.16000 27.621
38.18000 25.515
38.20000 24.218
38.22000 23.461
38.24000 29.124
38.26000 29.154
38.28000 28.393
38.30000 24.532
38.32000 27.666
38.34000 30.794
38.36000 31.175
38.38000 36.589
38.40000 36.852
38.42000 33.104
38.44000 31.259
38.46000 34.934
38.48000 39.960
38.50000 43.157
38.52000 41.637
38.54000 39.831
38.56000 43.953
38.58000 49.081
38.60000 48.982
38.62000 52.145
38.64000 51.682
38.66000 54.545
38.68000 55.698
38.70000 56.845
38.72000 60.223
38.74000 61.711
38.76000 63.199
38.78000 67.565
38.80000 66.681
38.82000 73.911
38.84000 78.398
38.86000 83.226
38.88000 87.414
38.90000 90.182
38.92000 94.297
38.94000 99.527
38.96000 101.857
38.98000 102.661
39.00000 110.147
39.02000 117.992
39.04000 126.133
39.06000 132.250
39.08000 139.928
39.10000 143.332
39.12000 146.487
39.14000 152.431
39.16000 169.300
39.18000 181.270
39.20000 189.228
39.22000 196.325
39.24000 209.989
39.26000 212.447
39.28000 225.368
39.30000 244.547
39.32000 256.718
39.34000 265.921
39.36000 282.224
39.38000 299.980
39.40000 322.190
39.42000 338.180
39.44000 353.825
39.46000 370.562
39.48000 394.107
39.50000 417.971
39.52000 423.982
39.54000 448.977
39.56000 476.022
39.58000 496.113
39.60000 515.533
39.62000 536.458
39.64000 552.758
39.66000 559.596
39.68000 577.625
39.70000 587.704
39.72000 604.308
39.74000 615.499
39.76000 617.869
39.78000 614.842
39.80000 626.041
39.82000 640.133
39.84000 638.849
39.86000 637.314
39.88000 643.585
39.90000 638.465
39.92000 628.511
39.94000 618.561
39.96000 605.847
39.98000 586.119
40.00000 574.588
40.02000 563.602
40.04000 546.444
40.06000 533.099
40.08000 515.616
40.10000 494.230
40.12000 469.946
40.14000 447.690
40.16000 429.578
40.18000 413.895
40.20000 393.291
40.22000 374.043
40.24000 358.028
40.26000 339.040
40.28000 317.286
40.30000 294.076
40.32000 277.347
40.34000 266.365
40.36000 250.608
40.38000 236.383
40.40000 222.528
40.42000 202.393
40.44000 195.521
40.46000 180.496
40.48000 169.702
40.50000 161.120
40.52000 150.274
40.54000 137.080
40.56000 126.499
40.58000 122.087
40.60000 111.027
40.62000 105.307
40.64000 104.449
40.66000 100.962
40.68000 91.969
40.70000 91.113
40.72000 86.261
40.74000 77.988
40.76000 73.235
40.78000 64.292
40.80000 58.327
40.82000 58.584
40.84000 59.112
40.86000 53.433
40.88000 51.037
40.90000 51.773
40.92000 48.291
40.94000 42.163
40.96000 38.060
40.98000 35.891
41.00000 31.645
41.02000 32.961
41.04000 35.943
41.06000 31.610
41.08000 29.453
41.10000 27.190
41.12000 26.294
41.14000 27.521
41.16000 25.117
41.18000 26.046
41.20000 23.700
41.22000 21.756
41.24000 18.541
41.26000 18.710
41.28000 20.906
41.30000 22.200
41.32000 16.512
41.34000 11.746
41.36000 12.776
41.38000 15.841
41.40000 15.766
41.42000 11.520
41.44000 10.868
41.46000 13.168
41.48000 8.511
41.50000 9.447
41.52000 10.470
41.54000 7.871
41.56000 9.851
41.58000 10.354
41.60000 10.777
41.62000 8.259
41.64000 5.054
41.66000 5.316
41.68000 3.253
41.70000 3.898
41.72000 5.202
41.74000 6.307
41.76000 7.402
41.78000 8.182
41.80000 7.465
41.82000 2.433
41.84000 2.435
41.86000 1.843
41.88000 4.975
41.90000 7.386
41.92000 9.047
41.94000 8.262
41.96000 5.802
41.98000 1.992
42.00000 0.576
42.02000 2.191
42.04000 0.731
42.06000 -1.404
42.08000 -1.820
42.10000 0.863
42.12000 2.494
42.14000 1.438
42.16000 0.635
42.18000 -1.249
42.20000 0.256
42.22000 1.444
42.24000 1.431
42.26000 3.236
42.28000 2.678
42.30000 1.350
42.32000 -3.368
42.34000 -0.537
42.36000 -0.734
42.38000 5.205
42.40000 6.987
42.42000 2.812
42.44000 -0.141
42.46000 1.108
42.48000 6.310
42.50000 4.828
42.52000 0.645
42.54000 -0.277
42.56000 1.682
42.58000 2.809
42.60000 4.283
42.62000 2.519
42.64000 1.915
42.66000 -1.490
42.68000 3.222
42.70000 2.923
42.72000 2.561
42.74000 5.480
42.76000 5.987
42.78000 1.921
42.80000 0.058
42.82000 0.460
42.84000 1.322
42.86000 2.403
42.88000 0.384
42.90000 3.644
42.92000 0.826
42.94000 2.007
42.96000 1.386
42.98000 -0.724
43.00000 1.859
43.02000 0.028
43.04000 -3.265
43.06000 -0.760
43.08000 0.813
43.10000 2.601
43.12000 -0.156
43.14000 2.907
43.16000 -0.325
43.18000 -3.121
43.20000 -0.812
43.22000 1.066
43.24000 -2.848
43.26000 2.643
43.28000 5.015
43.30000 1.033
43.32000 -0.829
43.34000 0.061
43.36000 0.976
43.38000 0.626
43.40000 -2.713
43.42000 -0.992
43.44000 0.752
43.46000 0.982
43.48000 2.094
43.50000 -1.851
43.52000 -3.075
43.54000 0.478
43.56000 -0.123
43.58000 -0.925
43.60000 1.887
43.62000 3.759
43.64000 2.639
43.66000 2.443
43.68000 1.001
43.70000 -0.337
43.72000 2.701
43.74000 2.094
43.76000 2.720
43.78000 0.785
43.80000 2.100
43.82000 0.141
43.84000 0.968
43.86000 1.322
43.88000 0.682
43.90000 -2.411
43.92000 0.885
43.94000 3.190
43.96000 -0.711
43.98000 -0.121
44.00000 0.965
44.02000 2.615
44.04000 3.413
44.06000 -0.562
44.08000 -2.125
44.10000 -3.175
44.12000 -2.141
44.14000 1.904
44.16000 1.319
44.18000 2.746
44.20000 2.467
44.22000 2.043
44.24000 -0.506
44.26000 4.380
44.28000 5.087
44.30000 -3.160
44.32000 -1.131
44.34000 4.876
44.36000 5.892
44.38000 2.538
44.40000 1.150
44.42000 1.100
44.44000 2.762
44.46000 5.615
44.48000 4.973
44.50000 5.718
44.52000 4.233
44.54000 0.438
44.56000 1.514
44.58000 4.855
44.60000 8.531
44.62000 5.046
44.64000 3.510
44.66000 -0.372
44.68000 4.636
44.70000 5.075
44.72000 3.978
44.74000 2.330
44.76000 2.858
44.78000 5.271
44.80000 4.537
44.82000 1.037
44.84000 4.401
44.86000 2.759
44.88000 2.820
44.90000 4.250
44.92000 5.142
44.94000 5.670
44.96000 4.052
44.98000 2.938
45.00000 3.855
45.02000 6.601
45.04000 6.123
45.06000 5.819
45.08000 6.632
45.10000 7.867
45.12000 4.499
45.14000 3.072
45.16000 2.837
45.18000 7.317
45.20000 9.104
45.22000 12.324
45.24000 8.494
45.26000 6.872
45.28000 6.269
45.30000 7.776
45.32000 6.996
45.34000 6.820
45.36000 7.865
45.38000 14.353
45.40000 11.009
45.42000 10.231
45.44000 11.387
45.46000 12.171
45.48000 11.665
45.50000 16.462
45.52000 16.026
45.54000 15.687
45.56000 18.571
45.58000 25.126
45.60000 18.374
45.62000 22.817
45.64000 20.458
45.66000 25.825
45.68000 27.376
45.70000 26.477
45.72000 26.768
45.74000 21.982
45.76000 25.561
45.78000 28.495
45.80000 29.446
45.82000 27.934
45.84000 30.668
45.86000 29.949
45.88000 30.949
45.90000 32.810
45.92000 36.930
45.94000 37.769
45.96000 31.406
45.98000 33.177
46.00000 39.664
46.02000 42.553
46.04000 38.567
46.06000 41.573
46.08000 44.532
46.10000 49.312
46.12000 51.321
46.14000 49.014
46.16000 50.390
46.18000 53.307
46.20000 52.978
46.22000 58.183
46.24000 61.584
46.26000 64.248
46.28000 65.457
46.30000 64.926
46.32000 67.635
46.34000 62.161
46.36000 62.463
46.38000 66.516
46.40000 67.445
46.42000 62.667
46.44000 66.021
46.46000 67.391
46.48000 68.106
46.50000 64.927
46.52000 65.465
46.54000 67.318
46.56000 72.502
46.58000 74.999
46.60000 68.724
46.62000 63.439
46.64000 63.596
46.66000 60.355
46.68000 63.223
46.70000 66.543
46.72000 64.683
46.74000 59.462
46.76000 58.626
46.78000 55.594
46.80000 60.579
46.82000 55.874
46.84000 51.178
46.86000 47.088
46.88000 46.573
46.90000 43.900
46.92000 44.727
46.94000 41.757
46.96000 42.163
46.98000 36.333
47.00000 38.359
47.02000 41.829
47.04000 34.661
47.06000 32.553
47.08000 31.980
47.10000 30.461
47.12000 27.572
47.14000 25.519
47.16000 23.985
47.18000 24.694
47.20000 22.728
47.22000 20.870
47.24000 17.829
47.26000 26.641
47.28000 21.367
47.30000 19.785
47.32000 14.033
47.34000 15.109
47.36000 17.705
47.38000 19.486
47.40000 15.494
47.42000 18.020
47.44000 17.430
47.46000 14.300
47.48000 13.483
47.50000 14.558
47.52000 13.017
47.54000 13.688
47.56000 8.459
47.58000 8.315
47.60000 9.379
47.62000 7.531
47.64000 6.699
47.66000 8.206
47.68000 4.302
47.70000 4.871
47.72000 5.421
47.74000 5.174
47.76000 7.057
47.78000 10.256
47.80000 8.064
47.82000 5.432
47.84000 3.780
47.86000 2.856
47.88000 4.567
47.90000 1.890
47.92000 -0.917
47.94000 1.305
47.96000 4.941
47.98000 0.892
48.00000 -0.505
48.02000 -0.317
48.04000 4.716
48.06000 1.044
48.08000 4.681
48.10000 -2.837
48.12000 -0.630
48.14000 2.075
48.16000 3.386
48.18000 3.793
48.20000 4.401
48.22000 4.218
48.24000 1.675
48.26000 1.063
48.28000 -1.669
48.30000 -1.793
48.32000 -1.623
48.34000 1.393
48.36000 4.669
48.38000 0.256
48.40000 -1.601
48.42000 0.634
48.44000 1.431
48.46000 2.792
48.48000 1.558
48.50000 2.436
48.52000 1.651
48.54000 -0.323
48.56000 0.192
48.58000 2.510
48.60000 5.468
48.62000 2.467
48.64000 1.796
48.66000 -0.859
48.68000 1.216
48.70000 0.369
48.72000 -1.248
48.74000 -2.750
48.76000 -2.759
48.78000 0.100
48.80000 1.130
48.82000 6.388
48.84000 1.844
48.86000 3.971
48.88000 7.841
48.90000 2.657
48.92000 2.220
48.94000 1.920
48.96000 7.715
48.98000 7.549
49.00000 0.509
49.02000 0.532
49.04000 -0.002
49.06000 2.619
49.08000 5.301
49.10000 0.632
49.12000 0.677
49.14000 1.398
49.16000 3.627
49.18000 0.515
49.20000 3.717
49.22000 2.887
49.24000 4.732
49.26000 5.097
49.28000 0.954
49.30000 2.354
49.32000 1.076
49.34000 -0.236
49.36000 3.041
49.38000 -1.598
49.40000 -0.527
49.42000 0.855
49.44000 1.718
49.46000 -1.969
49.48000 0.869
49.50000 4.618
49.52000 0.254
49.54000 1.961
49.56000 0.945
49.58000 1.511
49.60000 4.299
49.62000 6.819
49.64000 3.805
49.66000 4.479
49.68000 6.806
49.70000 6.238
49.72000 1.973
49.74000 -0.415
49.76000 -2.664
49.78000 -0.033
49.80000 -0.361
49.82000 1.564
49.84000 5.727
49.86000 8.904
49.88000 3.479
49.90000 4.635
49.92000 1.914
49.94000 -0.531
49.96000 -0.926
49.98000 0.853
50.00000 4.515
50.02000 5.143
50.04000 3.851
50.06000 1.309
50.08000 1.832
50.10000 0.864
50.12000 2.772
50.14000 7.664
50.16000 10.261
50.18000 4.099
50.20000 -0.458
50.22000 0.925
50.24000 -1.043
50.26000 -0.966
50.28000 1.815
50.30000 2.361
50.32000 -0.226
50.34000 3.259
50.36000 0.115
50.38000 -2.392
50.40000 -1.085
50.42000 2.440
50.44000 5.048
50.46000 3.655
50.48000 3.667
50.50000 5.351
50.52000 2.600
50.54000 0.104
50.56000 0.215
50.58000 0.262
50.60000 2.070
50.62000 4.417
50.64000 6.549
50.66000 6.389
50.68000 4.285
50.70000 -0.411
50.72000 1.430
50.74000 1.785
50.76000 1.211
50.78000 -0.761
50.80000 -0.875
50.82000 -1.989
50.84000 0.935
50.86000 3.742
50.88000 3.221
50.90000 3.857
50.92000 3.624
50.94000 6.745
50.96000 10.336
50.98000 2.075
51.00000 -0.771
51.02000 -2.010
51.04000 0.729
51.06000 5.784
51.08000 9.613
51.10000 8.525
51.12000 4.054
51.14000 2.543
51.16000 3.706
51.18000 0.178
51.20000 -2.411
51.22000 -2.599
51.24000 1.402
51.26000 0.692
51.28000 5.697
51.30000 8.627
51.32000 6.457
51.34000 6.502
51.36000 7.032
51.38000 6.468
51.40000 5.066
51.42000 4.058
51.44000 1.755
51.46000 1.903
51.48000 6.444
51.50000 4.855
51.52000 4.014
51.54000 0.559
51.56000 0.915
51.58000 4.121
51.60000 -0.901
51.62000 6.965
51.64000 6.856
51.66000 3.506
51.68000 -1.289
51.70000 3.802
51.72000 5.023
51.74000 1.930
51.76000 0.019
51.78000 0.995
51.80000 1.925
51.82000 -0.663
51.84000 0.426
51.86000 1.575
51.88000 2.530
51.90000 1.990
51.92000 -1.404
51.94000 0.107
51.96000 -0.628
51.98000 -0.111
52.00000 -0.384
52.02000 -0.571
52.04000 2.184
52.06000 8.249
52.08000 1.273
52.10000 -1.409
52.12000 2.646
52.14000 3.683
52.16000 2.809
52.18000 1.337
52.20000 3.572
52.22000 3.453
52.24000 3.752
52.26000 0.421
52.28000 -0.843
52.30000 2.593
52.32000 4.680
52.34000 2.106
52.36000 2.471
52.38000 1.965
52.40000 -2.568
52.42000 -0.440
52.44000 2.662
52.46000 3.702
52.48000 0.730
52.50000 4.164
52.52000 3.403
52.54000 2.460
52.56000 3.977
52.58000 5.971
52.60000 5.612
52.62000 7.811
52.64000 2.156
52.66000 0.928
52.68000 3.728
52.70000 3.412
52.72000 4.292
52.74000 2.241
52.76000 2.441
52.78000 2.346
52.80000 4.909
52.82000 7.750
52.84000 3.250
52.86000 1.025
52.88000 1.677
52.90000 1.667
52.92000 0.147
52.94000 2.165
52.96000 1.568
52.98000 -1.457
53.00000 -2.533
53.02000 1.748
53.04000 1.752
53.06000 1.546
53.08000 2.426
53.10000 -0.526
53.12000 1.433
53.14000 4.309
53.16000 9.428
53.18000 7.380
53.20000 1.629
53.22000 3.028
53.24000 5.386
53.26000 3.280
53.28000 5.303
53.30000 5.769
53.32000 3.831
53.34000 0.275
53.36000 -2.545
53.38000 1.907
53.40000 8.443
53.42000 7.300
53.44000 7.569
53.46000 5.673
53.48000 3.296
53.50000 2.754
53.52000 2.850
53.54000 5.212
53.56000 2.440
53.58000 -0.443
53.60000 -1.347
53.62000 0.924
53.64000 2.545
53.66000 2.567
53.68000 6.668
53.70000 7.530
53.72000 9.239
53.74000 2.667
53.76000 4.605
53.78000 5.075
53.80000 5.081
53.82000 6.166
53.84000 2.058
53.86000 4.278
53.88000 4.049
53.90000 2.786
53.92000 0.657
53.94000 0.800
53.96000 5.224
53.98000 3.186
54.00000 3.752
54.02000 4.387
54.04000 0.700
54.06000 4.357
54.08000 5.375
54.10000 5.565
54.12000 6.495
54.14000 3.917
54.16000 2.360
54.18000 4.893
54.20000 4.622
54.22000 6.383
54.24000 6.074
54.26000 1.336
54.28000 -2.502
54.30000 1.218
54.32000 4.443
54.34000 8.398
54.36000 4.792
54.38000 2.046
54.40000 5.033
54.42000 3.597
54.44000 2.149
54.46000 2.483
54.48000 2.337
54.50000 4.631
54.52000 4.274
54.54000 7.996
54.56000 7.610
54.58000 4.385
54.60000 2.766
54.62000 0.088
54.64000 2.078
54.66000 1.672
54.68000 5.235
54.70000 6.496
54.72000 2.602
54.74000 0.909
54.76000 2.963
54.78000 -1.793
54.80000 2.715
54.82000 3.046
54.84000 1.150
54.86000 3.585
54.88000 5.762
54.90000 6.906
54.92000 4.905
54.94000 6.730
54.96000 4.622
54.98000 -1.349
55.00000 -2.397
55.02000 0.295
55.04000 -0.173
55.06000 0.928
55.08000 2.465
55.10000 1.409
55.12000 2.212
55.14000 0.861
55.16000 -1.428
55.18000 0.651
55.20000 1.534
55.22000 0.796
55.24000 0.329
55.26000 2.959
55.28000 2.906
55.30000 2.865
55.32000 4.005
55.34000 7.378
55.36000 5.535
55.38000 1.727
55.40000 2.509
55.42000 4.979
55.44000 3.636
55.46000 4.373
55.48000 2.974
55.50000 1.789
55.52000 0.346
55.54000 -0.077
55.56000 0.948
55.58000 1.835
55.60000 -0.054
55.62000 -1.617
55.64000 1.931
55.66000 3.850
55.68000 5.526
55.70000 5.554
55.72000 -0.072
55.74000 1.028
55.76000 5.743
55.78000 3.913
55.80000 2.239
55.82000 -0.283
55.84000 4.773
55.86000 5.922
55.88000 7.586
55.90000 1.693
55.92000 1.227
55.94000 2.704
55.96000 3.972
55.98000 1.604
56.00000 0.516
56.02000 2.657
56.04000 -1.306
56.06000 0.565
56.08000 0.474
56.10000 3.924
56.12000 2.874
56.14000 4.215
56.16000 3.476
56.18000 1.140
56.20000 5.183
56.22000 7.023
56.24000 3.098
56.26000 4.208
56.28000 3.959
56.30000 7.810
56.32000 5.915
56.34000 3.129
56.36000 -0.214
56.38000 -2.457
56.40000 5.357
56.42000 5.375
56.44000 4.892
56.46000 5.417
56.48000 7.222
56.50000 5.897
56.52000 6.433
56.54000 4.837
56.56000 2.831
56.58000 4.544
56.60000 6.845
56.62000 5.356
56.64000 5.698
56.66000 4.808
56.68000 5.903
56.70000 2.669
56.72000 1.149
56.74000 -0.649
56.76000 4.235
56.78000 3.496
56.80000 -1.642
56.82000 -0.073
56.84000 2.233
56.86000 1.696
56.88000 2.540
56.90000 -0.438
56.92000 5.655
56.94000 4.850
56.96000 1.906
56.98000 0.922
57.00000 1.937
57.02000 2.184
57.04000 0.836
57.06000 -1.329
57.08000 0.089
57.10000 -1.960
57.12000 -2.472
57.14000 5.355
57.16000 4.982
57.18000 0.636
57.20000 0.995
57.22000 4.589
57.24000 1.450
57.26000 -1.736
57.28000 -0.389
57.30000 0.762
57.32000 -0.126
57.34000 1.680
57.36000 0.385
57.38000 2.058
57.40000 6.804
57.42000 5.700
57.44000 0.500
57.46000 2.931
57.48000 -0.679
57.50000 -0.772
57.52000 0.581
57.54000 0.425
57.56000 3.928
57.58000 5.548
57.60000 2.243
57.62000 -0.318
57.64000 2.140
57.66000 2.915
57.68000 -0.044
57.70000 -0.648
57.72000 -0.407
57.74000 1.592
57.76000 2.233
57.78000 2.124
57.80000 -1.481
57.82000 -0.749
57.84000 -0.899
57.86000 0.120
57.88000 -1.765
57.90000 2.507
57.92000 3.408
57.94000 1.518
57.96000 -0.453
57.98000 3.704
58.00000 3.793
58.02000 0.688
58.04000 2.121
58.06000 -2.446
58.08000 -0.183
58.10000 3.194
58.12000 1.898
58.14000 1.536
58.16000 5.278
58.18000 1.802
58.20000 -1.755
58.22000 2.264
58.24000 0.352
58.26000 0.240
58.28000 2.255
58.30000 0.571
58.32000 5.304
58.34000 2.383
58.36000 3.332
58.38000 5.044
58.40000 5.316
58.42000 3.525
58.44000 2.534
58.46000 0.602
58.48000 0.919
58.50000 6.472
58.52000 5.517
58.54000 -1.860
58.56000 -2.389
58.58000 -1.130
58.60000 -0.143
58.62000 1.086
58.64000 2.790
58.66000 3.188
58.68000 1.125
58.70000 2.443
58.72000 1.717
58.74000 2.521
58.76000 2.722
58.78000 -2.430
58.80000 -1.414
58.82000 4.925
58.84000 4.850
58.86000 0.988
58.88000 2.937
58.90000 4.357
58.92000 4.081
58.94000 4.698
58.96000 1.266
58.98000 1.018
59.00000 6.773
59.02000 3.384
59.04000 3.824
59.06000 3.683
59.08000 -0.341
59.10000 -1.289
59.12000 -0.873
59.14000 1.145
59.16000 -0.870
59.18000 3.496
59.20000 0.498
59.22000 -0.572
59.24000 -1.949
59.26000 -2.038
59.28000 -0.171
59.30000 1.756
59.32000 1.213
59.34000 1.049
59.36000 3.189
59.38000 3.391
59.40000 3.333
59.42000 -0.466
59.44000 1.780
59.46000 3.618
59.48000 5.623
59.50000 4.900
59.52000 1.619
59.54000 1.894
59.56000 -1.091
59.58000 1.768
59.60000 2.621
59.62000 3.035
59.64000 0.607
59.66000 0.046
59.68000 0.641
59.70000 -0.975
59.72000 0.188
59.74000 1.886
59.76000 2.255
59.78000 2.299
59.80000 0.711
59.82000 -1.685
59.84000 4.378
59.86000 6.930
59.88000 6.306
59.90000 3.765
59.92000 1.858
59.94000 2.757
59.96000 -1.247
59.98000 -2.383
60.00000 -0.887
60.02000 0.044
60.04000 1.005
60.06000 0.179
60.08000 2.046
60.10000 0.351
60.12000 3.181
60.14000 0.976
60.16000 1.494
60.18000 -1.439
60.20000 2.392
60.22000 3.068
60.24000 3.608
60.26000 3.250
60.28000 3.569
60.30000 2.071
60.32000 -0.027
60.34000 -1.474
60.36000 0.710
60.38000 1.571
60.40000 2.600
60.42000 2.724
60.44000 3.050
60.46000 0.306
60.48000 0.516
60.50000 3.993
60.52000 1.857
60.54000 -1.941
60.56000 -2.356
60.58000 0.933
60.60000 3.254
60.62000 0.912
60.64000 0.262
60.66000 2.055
60.68000 4.754
60.70000 4.206
60.72000 2.947
60.74000 4.793
60.76000 1.981
60.78000 1.202
60.80000 4.108
60.82000 2.209
60.84000 0.161
60.86000 5.858
60.88000 5.413
60.90000 5.572
60.92000 7.243
60.94000 4.756
60.96000 2.782
60.98000 0.142
61.00000 -1.555
61.02000 0.902
61.04000 4.403
61.06000 1.786
61.08000 2.214
61.10000 5.349
61.12000 3.786
61.14000 0.705
61.16000 2.364
61.18000 2.526
61.20000 2.684
61.22000 4.984
61.24000 4.644
61.26000 5.073
61.28000 7.819
61.30000 6.525
61.32000 7.212
61.34000 7.156
61.36000 6.705
61.38000 6.277
61.40000 2.134
61.42000 -2.295
61.44000 -0.802
61.46000 3.154
61.48000 6.805
61.50000 5.795
61.52000 8.387
61.54000 8.435
61.56000 5.891
61.58000 6.166
61.60000 3.362
61.62000 2.962
61.64000 3.701
61.66000 8.107
61.68000 7.017
61.70000 3.132
61.72000 3.705
61.74000 3.070
61.76000 5.010
61.78000 3.224
61.80000 2.489
61.82000 1.679
61.84000 4.720
61.86000 4.633
61.88000 5.407
61.90000 7.966
61.92000 6.656
61.94000 1.284
61.96000 4.372
61.98000 1.545
62.00000 1.719
62.02000 2.867
62.04000 0.886
62.06000 0.572
62.08000 4.980
62.10000 4.999
62.12000 6.554
62.14000 1.042
62.16000 -2.323
62.18000 -1.343
62.20000 0.088
62.22000 2.054
62.24000 4.844
62.26000 3.549
62.28000 3.652
62.30000 -0.412
62.32000 -2.119
62.34000 -0.286
62.36000 0.961
62.38000 -1.339
62.40000 2.996
62.42000 4.129
62.44000 2.628
62.46000 2.789
62.48000 4.642
62.50000 2.882
62.52000 0.469
62.54000 2.664
62.56000 3.375
62.58000 5.041
62.60000 4.037
62.62000 1.802
62.64000 -2.171
62.66000 1.774
62.68000 2.066
62.70000 1.624
62.72000 2.337
62.74000 4.565
62.76000 2.569
62.78000 2.250
62.80000 1.917
62.82000 2.709
62.84000 3.447
62.86000 3.842
62.88000 0.305
62.90000 2.235
62.92000 1.767
62.94000 2.722
62.96000 4.073
62.98000 3.445
63.00000 0.532
63.02000 0.072
63.04000 -1.262
63.06000 -0.164
63.08000 -1.778
63.10000 0.095
63.12000 4.779
63.14000 0.915
63.16000 2.331
63.18000 2.261
63.20000 2.370
63.22000 0.715
63.24000 -0.827
63.26000 -1.505
63.28000 -0.515
63.30000 1.495
63.32000 0.618
63.34000 -0.409
63.36000 0.106
63.38000 -1.674
63.40000 -0.091
63.42000 2.180
63.44000 2.188
63.46000 -0.814
63.48000 -0.117
63.50000 1.474
63.52000 5.516
63.54000 2.858
63.56000 2.435
63.58000 2.590
63.60000 2.385
63.62000 2.950
63.64000 6.043
63.66000 2.275
63.68000 2.748
63.70000 4.042
63.72000 4.606
63.74000 4.080
63.76000 1.580
63.78000 4.270
63.80000 6.295
63.82000 4.814
63.84000 3.663
63.86000 1.912
63.88000 1.505
63.90000 0.779
63.92000 1.529
63.94000 -2.303
63.96000 -2.114
63.98000 3.524
64.00000 3.785
64.02000 1.855
64.04000 1.287
64.06000 4.334
64.08000 4.882
64.10000 1.783
64.12000 3.479
64.14000 4.974
64.16000 3.880
64.18000 3.154
64.20000 2.358
64.22000 5.570
64.24000 6.492
64.26000 3.035
64.28000 3.232
64.30000 3.124
64.32000 2.463
64.34000 2.352
64.36000 2.030
64.38000 0.947
64.40000 -1.015
64.42000 -0.472
64.44000 2.425
64.46000 7.147
64.48000 2.417
64.50000 -1.596
64.52000 -0.211
64.54000 1.132
64.56000 4.109
64.58000 2.889
64.60000 3.032
64.62000 3.227
64.64000 3.750
64.66000 3.512
64.68000 3.646
64.70000 3.416
64.72000 1.382
64.74000 2.581
64.76000 3.634
64.78000 4.223
64.80000 3.264
64.82000 0.640
64.84000 -0.800
64.86000 -2.344
64.88000 1.952
64.90000 3.377
64.92000 -1.242
64.94000 -1.765
64.96000 2.001
64.98000 2.665
65.00000 1.131
65.02000 3.235
65.04000 0.999
65.06000 1.968
65.08000 -0.087
65.10000 -2.346
65.12000 -1.641
65.14000 3.339
65.16000 -0.956
65.18000 2.848
65.20000 4.146
65.22000 1.701
65.24000 -0.160
65.26000 0.088
65.28000 -1.572
65.30000 0.100
65.32000 -0.700
65.34000 2.383
65.36000 1.299
65.38000 3.636
65.40000 1.806
65.42000 1.778
65.44000 1.583
65.46000 3.256
65.48000 1.535
65.50000 0.160
65.52000 0.274
65.54000 -0.166
65.56000 -0.954
65.58000 0.409
65.60000 0.613
65.62000 2.513
65.64000 -0.001
65.66000 -1.066
65.68000 1.612
65.70000 0.113
65.72000 2.283
65.74000 -0.136
65.76000 -2.371
65.78000 -0.603
65.80000 1.018
65.82000 -0.270
65.84000 0.620
65.86000 -1.830
65.88000 -0.312
65.90000 0.485
65.92000 -0.239
65.94000 1.094
65.96000 0.614
65.98000 0.701
66.00000 -1.174
66.02000 1.526
66.04000 4.189
66.06000 4.050
66.08000 0.943
66.10000 -0.444
66.12000 0.107
66.14000 -1.361
66.16000 -0.074
66.18000 2.549
66.20000 1.655
66.22000 -0.211
66.24000 2.058
66.26000 -0.265
66.28000 -1.108
66.30000 1.233
66.32000 0.547
66.34000 1.095
66.36000 0.518
66.38000 0.037
66.40000 -0.458
66.42000 -1.431
66.44000 -0.990
66.46000 0.629
66.48000 4.002
66.50000 0.547
66.52000 -0.937
66.54000 1.382
66.56000 5.393
66.58000 3.413
66.60000 0.035
66.62000 -0.518
66.64000 1.360
66.66000 3.057
66.68000 3.962
66.70000 5.353
66.72000 5.093
66.74000 1.358
66.76000 1.482
66.78000 3.402
66.80000 3.649
66.82000 6.262
66.84000 6.289
66.86000 4.957
66.88000 4.569
66.90000 3.019
66.92000 3.870
66.94000 6.272
66.96000 7.635
66.98000 4.040
67.00000 9.666
67.02000 6.356
67.04000 7.853
67.06000 7.628
67.08000 6.204
67.10000 6.925
67.12000 9.047
67.14000 7.344
67.16000 11.010
67.18000 11.299
67.20000 11.490
67.22000 10.697
67.24000 11.456
67.26000 13.276
67.28000 14.270
67.30000 15.956
67.32000 16.151
67.34000 14.296
67.36000 13.125
67.38000 13.982
67.40000 17.869
67.42000 18.302
67.44000 14.901
67.46000 13.271
67.48000 11.286
67.50000 13.265
67.52000 15.945
67.54000 16.472
67.56000 16.087
67.58000 17.432
67.60000 14.448
67.62000 17.649
67.64000 16.968
67.66000 15.061
67.68000 16.379
67.70000 16.002
67.72000 15.867
67.74000 14.910
67.76000 15.087
67.78000 15.558
67.80000 16.495
67.82000 19.739
67.84000 19.031
67.86000 18.044
67.88000 14.692
67.90000 12.082
67.92000 13.150
67.94000 11.587
67.96000 12.503
67.98000 14.063
68.00000 16.636
68.02000 17.752
68.04000 13.008
68.06000 12.013
68.08000 9.878
68.10000 9.854
68.12000 11.628
68.14000 11.224
68.16000 9.256
68.18000 13.459
68.20000 12.303
68.22000 9.651
68.24000 8.529
68.26000 12.304
68.28000 11.489
68.30000 8.600
68.32000 10.676
68.34000 10.792
68.36000 9.062
68.38000 7.963
68.40000 5.805
68.42000 5.133
68.44000 5.147
68.46000 4.531
68.48000 7.833
68.50000 7.223
68.52000 6.829
68.54000 5.709
68.56000 6.278
68.58000 7.307
68.60000 5.360
68.62000 7.864
68.64000 2.679
68.66000 3.177
68.68000 6.361
68.70000 0.670
68.72000 3.103
68.74000 4.608
68.76000 3.133
68.78000 1.554
68.80000 5.266
68.82000 5.735
68.84000 7.614
68.86000 4.455
68.88000 1.650
68.90000 1.033
68.92000 2.151
68.94000 1.307
68.96000 -0.455
68.98000 1.054
69.00000 2.818
69.02000 2.845
69.04000 2.524
69.06000 4.519
69.08000 3.748
69.10000 3.909
69.12000 0.403
69.14000 0.063
69.16000 1.731
69.18000 2.749
69.20000 4.144
69.22000 6.550
69.24000 5.072
69.26000 4.538
69.28000 4.513
69.30000 1.716
69.32000 -2.268
69.34000 0.697
69.36000 -1.542
69.38000 -1.108
69.40000 2.985
69.42000 3.803
69.44000 4.118
69.46000 5.759
69.48000 4.358
69.50000 5.351
69.52000 2.166
69.54000 0.064
69.56000 1.776
69.58000 2.807
69.60000 0.674
69.62000 1.431
69.64000 -1.430
69.66000 -1.994
69.68000 -0.221
69.70000 1.986
69.72000 1.904
69.74000 0.857
69.76000 -0.241
69.78000 1.658
69.80000 1.563
69.82000 1.652
69.84000 0.459
69.86000 -2.221
69.88000 -0.748
69.90000 1.636
69.92000 0.750
69.94000 -1.035
69.96000 1.696
69.98000 1.176
70.00000 0.635
70.02000 0.273
70.04000 0.632
70.06000 -0.798
70.08000 -2.268
70.10000 1.697
70.12000 5.613
70.14000 2.053
70.16000 0.497
70.18000 0.952
70.20000 -0.388
70.22000 0.042
70.24000 0.862
70.26000 -2.114
70.28000 0.139
70.30000 0.704
70.32000 0.211
70.34000 0.114
70.36000 -0.374
70.38000 1.554
70.40000 2.380
70.42000 4.220
70.44000 1.398
70.46000 1.389
70.48000 1.019
70.50000 0.437
70.52000 -0.851
70.54000 -2.071
70.56000 -0.030
70.58000 2.651
70.60000 1.937
70.62000 0.190
70.64000 1.489
70.66000 3.355
70.68000 1.346
70.70000 1.081
70.72000 1.643
70.74000 3.055
70.76000 3.668
70.78000 0.658
70.80000 1.826
70.82000 2.794
70.84000 3.892
70.86000 3.311
70.88000 0.982
70.90000 1.492
70.92000 1.916
70.94000 2.092
70.96000 -0.238
70.98000 1.880
71.00000 4.693
71.02000 1.916
71.04000 -0.923
71.06000 2.528
71.08000 1.062
71.10000 -0.134
71.12000 -2.232
71.14000 0.525
71.16000 -2.230
71.18000 0.794
71.20000 -0.250
71.22000 2.177
71.24000 2.043
71.26000 2.888
71.28000 1.141
71.30000 2.627
71.32000 1.546
71.34000 -1.000
71.36000 -1.429
71.38000 1.068
71.40000 2.007
71.42000 0.579
71.44000 3.743
71.46000 2.866
71.48000 -0.131
71.50000 0.406
71.52000 1.442
71.54000 5.445
71.56000 7.291
71.58000 4.118
71.60000 0.892
71.62000 -1.046
71.64000 -0.403
71.66000 2.975
71.68000 3.553
71.70000 3.409
71.72000 2.312
71.74000 -0.679
71.76000 0.514
71.78000 6.255
71.80000 3.143
71.82000 2.527
71.84000 1.338
71.86000 -1.640
71.88000 -2.198
71.90000 3.995
71.92000 2.081
71.94000 2.348
71.96000 2.914
71.98000 4.302
72.00000 3.903
72.02000 1.353
72.04000 5.010
72.06000 5.639
72.08000 3.667
72.10000 1.637
72.12000 1.043
72.14000 2.999
72.16000 1.953
72.18000 1.951
72.20000 3.329
72.22000 3.416
72.24000 3.867
72.26000 2.199
72.28000 0.219
72.30000 -0.566
72.32000 -0.743
72.34000 2.626
72.36000 1.882
72.38000 7.451
72.40000 3.036
72.42000 4.318
72.44000 2.869
72.46000 1.653
72.48000 1.026
72.50000 0.510
72.52000 0.251
72.54000 -0.533
72.56000 -0.805
72.58000 1.382
72.60000 5.624
72.62000 6.491
72.64000 6.075
72.66000 6.450
72.68000 6.393
72.70000 5.127
72.72000 3.826
72.74000 5.858
72.76000 1.482
72.78000 1.947
72.80000 1.317
72.82000 3.370
72.84000 5.739
72.86000 4.678
72.88000 1.832
72.90000 -2.115
72.92000 0.742
72.94000 4.360
72.96000 5.213
72.98000 6.350
73.00000 5.640
73.02000 3.841
73.04000 6.023
73.06000 6.909
73.08000 6.543
73.10000 6.847
73.12000 7.525
73.14000 6.101
73.16000 2.394
73.18000 3.223
73.20000 4.478
73.22000 6.048
73.24000 3.712
73.26000 1.529
73.28000 4.092
73.30000 4.486
73.32000 3.531
73.34000 1.768
73.36000 4.915
73.38000 5.214
73.40000 3.881
73.42000 4.284
73.44000 6.046
73.46000 4.787
73.48000 4.007
73.50000 4.508
73.52000 5.885
73.54000 4.564
73.56000 1.736
73.58000 1.858
73.60000 -0.870
73.62000 2.729
73.64000 6.239
73.66000 3.585
73.68000 2.822
73.70000 3.694
73.72000 3.415
73.74000 2.580
73.76000 5.169
73.78000 5.485
73.80000 5.920
73.82000 6.635
73.84000 5.609
73.86000 4.106
73.88000 6.692
73.90000 6.823
73.92000 5.086
73.94000 1.687
73.96000 3.960
73.98000 5.159
74.00000 3.457
74.02000 1.699
74.04000 1.635
74.06000 5.459
74.08000 2.893
74.10000 4.047
74.12000 3.836
74.14000 2.966
74.16000 2.744
74.18000 3.966
74.20000 1.361
74.22000 -0.426
74.24000 5.943
74.26000 5.252
74.28000 3.098
74.30000 2.565
74.32000 3.382
74.34000 5.241
74.36000 8.557
74.38000 7.588
74.40000 3.563
74.42000 1.420
74.44000 0.707
74.46000 -0.783
74.48000 -2.102
74.50000 4.080
74.52000 1.277
74.54000 2.642
74.56000 -0.369
74.58000 0.590
74.60000 0.398
74.62000 -0.450
74.64000 1.647
74.66000 4.300
74.68000 4.115
74.70000 4.988
74.72000 5.804
74.74000 2.843
74.76000 2.315
74.78000 2.369
74.80000 2.088
74.82000 2.495
74.84000 3.150
74.86000 1.733
74.88000 1.454
74.90000 3.488
74.92000 2.854
74.94000 2.335
74.96000 2.203
74.98000 2.288
75.00000 0.613
75.02000 0.560
75.04000 1.378
75.06000 1.243
75.08000 3.277
75.10000 4.549
75.12000 4.034
75.14000 1.346
75.16000 1.595
75.18000 1.920
75.20000 5.333
75.22000 3.846
75.24000 4.519
75.26000 4.646
75.28000 5.460
75.30000 3.261
75.32000 3.955
75.34000 3.416
75.36000 0.230
75.38000 1.662
75.40000 2.598
75.42000 2.328
75.44000 -2.149
75.46000 -2.116
75.48000 1.984
75.50000 5.204
75.52000 1.281
75.54000 0.970
75.56000 8.383
75.58000 8.939
75.60000 5.861
75.62000 5.213
75.64000 5.097
75.66000 5.794
75.68000 1.073
75.70000 2.171
75.72000 0.572
75.74000 2.907
75.76000 2.190
75.78000 0.662
75.80000 2.929
75.82000 5.194
75.84000 4.037
75.86000 0.404
75.88000 2.178
75.90000 4.119
75.92000 6.627
75.94000 3.583
75.96000 -1.275
75.98000 -1.850
76.00000 0.448
76.02000 -1.004
76.04000 -0.223
76.06000 -1.805
76.08000 2.570
76.10000 2.365
76.12000 1.690
76.14000 0.195
76.16000 0.436
76.18000 0.733
76.20000 -0.696
76.22000 0.954
76.24000 -1.211
76.26000 -0.386
76.28000 -0.439
76.30000 -2.169
76.32000 -0.698
76.34000 -0.813
76.36000 -0.561
76.38000 1.827
76.40000 5.611
76.42000 2.307
76.44000 3.402
76.46000 0.692
76.48000 -1.194
76.50000 -0.712
76.52000 1.468
76.54000 -0.440
76.56000 1.281
76.58000 1.836
76.60000 1.789
76.62000 1.529
76.64000 2.148
76.66000 1.919
76.68000 0.122
76.70000 1.287
76.72000 -2.169
76.74000 -2.170
76.76000 1.536
76.78000 2.965
76.80000 3.075
76.82000 3.376
76.84000 5.728
76.86000 6.625
76.88000 3.132
76.90000 2.605
76.92000 3.308
76.94000 4.177
76.96000 2.280
76.98000 0.705
77.00000 2.423
77.02000 5.587
77.04000 3.588
77.06000 2.170
77.08000 5.717
77.10000 7.234
77.12000 5.837
77.14000 3.932
77.16000 2.891
77.18000 2.579
77.20000 3.332
77.22000 2.746
77.24000 5.730
77.26000 1.923
77.28000 -1.512
77.30000 5.251
77.32000 0.662
77.34000 3.404
77.36000 2.386
77.38000 3.457
77.40000 4.460
77.42000 2.527
77.44000 4.281
77.46000 -0.220
77.48000 2.827
77.50000 1.977
77.52000 2.866
77.54000 4.819
77.56000 6.659
77.58000 5.203
77.60000 3.759
77.62000 2.189
77.64000 -0.589
77.66000 -0.748
77.68000 1.437
77.70000 3.560
77.72000 3.165
77.74000 3.322
77.76000 0.032
77.78000 1.262
77.80000 6.514
77.82000 6.662
77.84000 6.464
77.86000 3.752
77.88000 0.196
77.90000 3.055
77.92000 3.820
77.94000 5.054
77.96000 2.268
77.98000 4.744
78.00000 4.778
78.02000 3.960
78.04000 5.571
78.06000 2.723
78.08000 2.557
78.10000 2.739
78.12000 2.324
78.14000 0.327
78.16000 2.553
78.18000 4.321
78.20000 5.514
78.22000 4.222
78.24000 3.829
78.26000 -2.173
78.28000 -0.702
78.30000 4.258
78.32000 5.533
78.34000 3.929
78.36000 5.904
78.38000 5.491
78.40000 2.276
78.42000 0.338
78.44000 -0.258
78.46000 1.841
78.48000 -0.199
78.50000 4.351
78.52000 4.643
78.54000 7.926
78.56000 7.627
78.58000 6.637
78.60000 1.975
78.62000 5.082
78.64000 4.670
78.66000 -1.283
78.68000 2.870
78.70000 1.669
78.72000 1.705
78.74000 2.522
78.76000 0.762
78.78000 1.103
78.80000 -0.882
78.82000 4.060
78.84000 2.726
78.86000 -0.574
78.88000 1.046
78.90000 1.551
78.92000 0.773
78.94000 1.373
78.96000 -0.395
78.98000 2.105
79.00000 1.526
79.02000 1.791
79.04000 3.087
79.06000 1.287
79.08000 -0.757
79.10000 2.179
79.12000 1.986
79.14000 3.491
79.16000 -0.625
79.18000 -1.132
79.20000 1.861
79.22000 2.071
79.24000 -1.334
79.26000 -2.265
79.28000 0.480
79.30000 1.400
79.32000 6.468
79.34000 0.731
79.36000 -0.206
79.38000 0.428
79.40000 3.620
79.42000 3.972
79.44000 -0.596
79.46000 -1.118
79.48000 -0.163
79.50000 1.746
79.52000 -1.640
79.54000 2.217
79.56000 2.292
79.58000 1.928
79.60000 6.098
79.62000 4.754
79.64000 1.634
79.66000 -0.285
79.68000 1.039
79.70000 0.996
79.72000 2.098
79.74000 0.909
79.76000 5.262
79.78000 1.610
79.80000 2.654
79.82000 4.838
79.84000 2.130
79.86000 4.886
79.88000 3.381
79.90000 1.302
79.92000 -2.298
79.94000 0.640
79.96000 0.587
79.98000 -0.399
80.00000 1.502
80.02000 1.036
80.04000 2.291
80.06000 2.248
80.08000 -0.933
80.10000 1.600
80.12000 3.232
80.14000 1.776
80.16000 2.305
80.18000 0.555
80.20000 3.200
80.22000 4.204
80.24000 8.985
80.26000 6.587
80.28000 3.247
80.30000 8.031
80.32000 9.708
80.34000 6.509
80.36000 3.821
80.38000 3.046
80.40000 6.056
80.42000 7.567
80.44000 5.512
80.46000 3.680
80.48000 3.970
80.50000 3.175
80.52000 1.602
80.54000 4.917
80.56000 8.029
80.58000 7.896
80.60000 10.447
80.62000 9.029
80.64000 6.381
80.66000 1.627
80.68000 8.319
80.70000 6.004
80.72000 8.505
80.74000 8.075
80.76000 3.946
80.78000 3.888
80.80000 4.275
80.82000 5.946
80.84000 7.465
80.86000 8.772
80.88000 9.691
80.90000 4.035
80.92000 9.990
80.94000 13.064
80.96000 16.317
80.98000 9.205
81.00000 6.875
81.02000 12.381
81.04000 13.117
81.06000 13.972
81.08000 13.188
81.10000 12.230
81.12000 15.137
81.14000 14.925
81.16000 14.247
81.18000 14.113
81.20000 15.782
81.22000 16.788
81.24000 15.666
81.26000 19.894
81.28000 19.370
81.30000 18.201
81.32000 17.910
81.34000 21.332
81.36000 18.707
81.38000 15.676
81.40000 19.526
81.42000 19.137
81.44000 26.945
81.46000 23.189
81.48000 15.346
81.50000 19.202
81.52000 21.742
81.54000 18.323
81.56000 20.096
81.58000 24.345
81.60000 23.923
81.62000 23.080
81.64000 21.913
81.66000 19.912
81.68000 25.011
81.70000 30.024
81.72000 25.973
81.74000 19.270
81.76000 24.355
81.78000 26.775
81.80000 26.553
81.82000 23.750
81.84000 24.716
81.86000 25.937
81.88000 26.708
81.90000 24.726
81.92000 22.452
81.94000 20.529
81.96000 17.504
81.98000 17.503
82.00000 21.499
82.02000 27.888
82.04000 24.855
82.06000 23.581
82.08000 20.687
82.10000 17.904
82.12000 14.502
82.14000 17.899
82.16000 18.483
82.18000 17.446
82.20000 18.280
82.22000 16.672
82.24000 17.517
82.26000 19.115
82.28000 24.455
82.30000 19.120
82.32000 12.730
82.34000 14.190
82.36000 10.520
82.38000 8.066
82.40000 14.267
82.42000 13.010
82.44000 13.348
82.46000 12.144
82.48000 10.402
82.50000 12.728
82.52000 14.657
82.54000 9.438
82.56000 3.104
82.58000 6.068
82.60000 10.491
82.62000 7.786
82.64000 7.420
82.66000 7.242
82.68000 5.447
82.70000 5.941
82.72000 0.814
82.74000 1.845
82.76000 2.888
82.78000 2.468
82.80000 3.062
82.82000 4.970
82.84000 4.898
82.86000 -0.170
82.88000 0.697
82.90000 1.423
82.92000 0.684
82.94000 4.052
82.96000 2.508
82.98000 3.767
83.00000 3.578
83.02000 2.864
83.04000 1.666
83.06000 -2.385
83.08000 0.440
83.10000 0.889
83.12000 -0.524
83.14000 2.039
83.16000 4.579
83.18000 -1.932
83.20000 -1.044
83.22000 2.497
83.24000 1.275
83.26000 -0.303
83.28000 1.513
83.30000 2.001
83.32000 7.619
83.34000 1.637
83.36000 1.106
83.38000 -0.781
83.40000 -0.199
83.42000 -1.738
83.44000 0.602
83.46000 1.852
83.48000 3.283
83.50000 3.035
83.52000 3.392
83.54000 0.956
83.56000 -0.005
83.58000 -0.843
83.60000 -0.733
83.62000 3.431
83.64000 2.913
83.66000 4.777
83.68000 4.980
83.70000 4.463
83.72000 2.263
83.74000 1.854
83.76000 4.962
83.78000 0.938
83.80000 -2.325
83.82000 -1.989
83.84000 1.736
83.86000 2.063
83.88000 1.726
83.90000 2.961
83.92000 1.382
83.94000 -1.055
83.96000 2.653
83.98000 3.584
84.00000 1.943
84.02000 4.049
84.04000 5.880
84.06000 3.333
84.08000 2.281
84.10000 1.159
84.12000 -1.234
84.14000 -1.158
84.16000 0.414
84.18000 2.563
84.20000 0.608
84.22000 -2.306
84.24000 -1.700
84.26000 2.020
84.28000 2.925
84.30000 1.175
84.32000 1.874
84.34000 3.193
84.36000 0.338
84.38000 1.624
84.40000 3.226
84.42000 4.287
84.44000 4.085
84.46000 0.304
84.48000 0.141
84.50000 0.959
84.52000 0.263
84.54000 2.335
84.56000 3.911
84.58000 4.179
84.60000 3.295
84.62000 3.673
84.64000 1.470
84.66000 -0.085
84.68000 0.476
84.70000 3.969
84.72000 3.803
84.74000 5.176
84.76000 4.159
84.78000 4.664
84.80000 1.343
84.82000 3.012
84.84000 3.793
84.86000 4.929
84.88000 4.122
84.90000 9.754
84.92000 2.179
84.94000 4.439
84.96000 4.305
84.98000 4.647
85.00000 4.782
85.02000 7.116
85.04000 9.347
85.06000 9.903
85.08000 6.523
85.10000 3.752
85.12000 8.907
85.14000 10.432
85.16000 10.684
85.18000 9.517
85.20000 10.597
85.22000 10.842
85.24000 11.146
85.26000 13.111
85.28000 14.096
85.30000 12.702
85.32000 14.328
85.34000 13.655
85.36000 11.933
85.38000 12.673
85.40000 16.163
85.42000 17.578
85.44000 14.704
85.46000 15.126
85.48000 15.253
85.50000 12.702
85.52000 11.854
85.54000 16.906
85.56000 15.501
85.58000 17.752
85.60000 14.883
85.62000 17.045
85.64000 19.040
85.66000 24.610
85.68000 19.077
85.70000 20.321
85.72000 21.654
85.74000 19.849
85.76000 21.041
85.78000 20.921
85.80000 19.140
85.82000 22.287
85.84000 17.539
85.86000 18.639
85.88000 22.106
85.90000 20.177
85.92000 15.022
85.94000 19.110
85.96000 22.978
85.98000 21.616
86.00000 19.434
86.02000 20.942
86.04000 20.648
86.06000 20.273
86.08000 14.694
86.10000 22.070
86.12000 25.005
86.14000 21.986
86.16000 18.490
86.18000 20.270
86.20000 20.300
86.22000 19.316
86.24000 18.244
86.26000 16.492
86.28000 13.257
86.30000 13.944
86.32000 16.556
86.34000 12.703
86.36000 10.046
86.38000 14.065
86.40000 13.589
86.42000 11.678
86.44000 13.433
86.46000 12.549
86.48000 9.608
86.50000 6.673
86.52000 6.616
86.54000 11.764
86.56000 14.904
86.58000 8.194
86.60000 10.844
86.62000 12.254
86.64000 7.136
86.66000 6.004
86.68000 6.244
86.70000 7.230
86.72000 7.366
86.74000 5.346
86.76000 5.353
86.78000 4.550
86.80000 7.677
86.82000 7.343
86.84000 7.386
86.86000 3.646
86.88000 2.376
86.90000 1.483
86.92000 5.440
86.94000 4.869
86.96000 3.976
86.98000 0.999
87.00000 2.572
87.02000 8.878
87.04000 9.551
87.06000 8.182
87.08000 6.328
87.10000 3.652
87.12000 1.370
87.14000 0.236
87.16000 2.088
87.18000 2.355
87.20000 4.028
87.22000 4.046
87.24000 2.026
87.26000 5.478
87.28000 4.624
87.30000 1.125
87.32000 2.812
87.34000 1.782
87.36000 1.012
87.38000 -0.226
87.40000 1.017
87.42000 1.010
87.44000 -0.427
87.46000 1.501
87.48000 2.594
87.50000 -2.113
87.52000 2.005
87.54000 3.280
87.56000 7.004
87.58000 2.693
87.60000 -0.098
87.62000 -1.639
87.64000 1.228
87.66000 3.757
87.68000 3.118
87.70000 0.916
87.72000 6.000
87.74000 5.593
87.76000 1.594
87.78000 0.682
87.80000 3.417
87.82000 4.543
87.84000 2.114
87.86000 -0.627
87.88000 -1.786
87.90000 1.513
87.92000 -0.187
87.94000 0.886
87.96000 2.003
87.98000 5.270
88.00000 4.080
88.02000 4.717
88.04000 2.230
88.06000 4.764
88.08000 3.567
88.10000 4.633
88.12000 3.662
88.14000 4.115
88.16000 5.610
88.18000 0.151
88.20000 3.525
88.22000 8.120
88.24000 6.242
88.26000 4.210
88.28000 1.340
88.30000 -2.038
88.32000 -0.171
88.34000 5.097
88.36000 1.375
88.38000 0.149
88.40000 2.168
88.42000 3.587
88.44000 4.832
88.46000 2.826
88.48000 1.301
88.50000 1.155
88.52000 2.022
88.54000 2.311
88.56000 3.869
88.58000 5.629
88.60000 6.995
88.62000 6.935
88.64000 0.219
88.66000 1.268
88.68000 2.060
88.70000 2.038
88.72000 3.883
88.74000 5.261
88.76000 6.339
88.78000 5.423
88.80000 4.970
88.82000 4.902
88.84000 7.003
88.86000 5.651
88.88000 0.121
88.90000 3.698
88.92000 5.160
88.94000 2.459
88.96000 2.019
88.98000 -1.126
89.00000 0.738
89.02000 1.954
89.04000 -0.033
89.06000 3.160
89.08000 1.587
89.10000 -1.346
89.12000 0.418
89.14000 2.407
89.16000 1.024
89.18000 0.714
89.20000 0.345
89.22000 1.217
89.24000 1.132
89.26000 -0.352
89.28000 -2.019
89.30000 0.776
89.32000 4.181
89.34000 3.447
89.36000 2.041
89.38000 6.986
89.40000 4.485
89.42000 0.703
89.44000 1.709
89.46000 3.086
89.48000 2.795
89.50000 0.352
89.52000 5.072
89.54000 -0.163
89.56000 -1.878
89.58000 6.114
89.60000 1.520
89.62000 2.340
89.64000 4.226
89.66000 4.382
89.68000 5.676
89.70000 6.189
89.72000 2.004
89.74000 1.073
89.76000 3.422
89.78000 5.615
89.80000 2.684
89.82000 -0.690
89.84000 -1.050
89.86000 3.680
89.88000 1.930
89.90000 2.068
89.92000 2.273
89.94000 1.912
89.96000 0.732
89.98000 -1.593
90.00000 -1.067
90.02000 1.136
90.04000 1.152
90.06000 2.508
90.08000 1.732
90.10000 -0.266
90.12000 1.461
90.14000 2.656
90.16000 3.100
90.18000 -0.283
90.20000 -0.947
90.22000 1.195
90.24000 4.601
90.26000 2.696
90.28000 2.929
90.30000 5.029
90.32000 6.291
90.34000 4.995
90.36000 4.261
90.38000 2.675
90.40000 2.653
90.42000 5.274
90.44000 3.110
90.46000 3.379
90.48000 3.987
90.50000 3.040
90.52000 3.893
90.54000 3.610
90.56000 1.459
90.58000 2.640
90.60000 2.344
90.62000 2.323
90.64000 0.080
90.66000 -1.995
90.68000 2.128
90.70000 4.712
90.72000 1.388
90.74000 1.201
90.76000 2.692
90.78000 5.509
90.80000 0.784
90.82000 -1.992
90.84000 2.861
90.86000 7.789
90.88000 8.665
90.90000 4.224
90.92000 2.636
90.94000 3.146
90.96000 -0.053
90.98000 0.342
91.00000 -0.029
91.02000 3.539
91.04000 3.487
91.06000 0.988
91.08000 -1.864
91.10000 -1.989
91.12000 2.584
91.14000 6.089
91.16000 6.854
91.18000 5.112
91.20000 3.327
91.22000 3.973
91.24000 5.694
91.26000 5.398
91.28000 1.689
91.30000 1.481
91.32000 -0.274
91.34000 0.581
91.36000 2.484
91.38000 3.531
91.40000 1.870
91.42000 1.897
91.44000 0.310
91.46000 -0.468
91.48000 0.543
91.50000 1.779
91.52000 5.113
91.54000 4.730
91.56000 3.324
91.58000 5.115
91.60000 4.800
91.62000 0.392
91.64000 -1.879
91.66000 1.453
91.68000 6.312
91.70000 4.109
91.72000 -1.470
91.74000 -0.713
91.76000 1.571
91.78000 -0.364
91.80000 3.592
91.82000 0.609
91.84000 3.080
91.86000 4.609
91.88000 4.557
91.90000 -0.886
91.92000 0.258
91.94000 0.147
91.96000 -0.981
91.98000 -0.867
92.00000 -1.886
92.02000 2.444
92.04000 3.650
92.06000 2.795
92.08000 -0.765
92.10000 0.209
92.12000 3.087
92.14000 1.331
92.16000 0.218
92.18000 0.367
92.20000 2.639
92.22000 4.870
92.24000 4.167
92.26000 -0.251
92.28000 -2.057
92.30000 1.485
92.32000 2.897
92.34000 1.085
92.36000 -1.607
92.38000 1.658
92.40000 2.576
92.42000 2.938
92.44000 -1.789
92.46000 -1.438
92.48000 -1.048
92.50000 1.721
92.52000 1.747
92.54000 3.689
92.56000 4.513
92.58000 7.589
92.60000 5.836
92.62000 1.936
92.64000 1.759
92.66000 4.051
92.68000 -0.547
92.70000 0.437
92.72000 2.969
92.74000 0.341
92.76000 4.775
92.78000 -0.589
92.80000 -1.877
92.82000 -0.865
92.84000 1.721
92.86000 3.005
92.88000 0.368
92.90000 -0.616
92.92000 5.761
92.94000 5.403
92.96000 4.021
92.98000 1.537
93.00000 -1.797
93.02000 1.404
93.04000 4.408
93.06000 6.828
93.08000 4.215
93.10000 -0.310
93.12000 -2.049
93.14000 2.804
93.16000 2.927
93.18000 -2.048
93.20000 1.643
93.22000 2.016
93.24000 1.026
93.26000 2.110
93.28000 3.926
93.30000 1.878
93.32000 1.588
93.34000 1.862
93.36000 3.731
93.38000 0.087
93.40000 -0.756
93.42000 1.985
93.44000 2.779
93.46000 3.135
93.48000 6.920
93.50000 5.414
93.52000 2.049
93.54000 0.549
93.56000 4.492
93.58000 4.939
93.60000 6.215
93.62000 3.234
93.64000 4.254
93.66000 5.932
93.68000 4.461
93.70000 4.654
93.72000 2.760
93.74000 3.718
93.76000 3.780
93.78000 3.425
93.80000 3.389
93.82000 1.815
93.84000 1.865
93.86000 -0.355
93.88000 4.599
93.90000 -2.055
93.92000 0.804
93.94000 3.732
93.96000 5.533
93.98000 5.001
94.00000 3.245
94.02000 4.447
94.04000 -0.604
94.06000 1.962
94.08000 3.184
94.10000 5.081
94.12000 2.817
94.14000 3.560
94.16000 3.102
94.18000 0.342
94.20000 2.405
94.22000 3.555
94.24000 4.977
94.26000 4.007
94.28000 5.186
94.30000 5.911
94.32000 5.247
94.34000 7.822
94.36000 6.534
94.38000 2.187
94.40000 -0.747
94.42000 2.902
94.44000 5.295
94.46000 5.080
94.48000 2.893
94.50000 0.091
94.52000 -2.042
94.54000 1.809
94.56000 4.894
94.58000 2.502
94.60000 3.461
94.62000 2.000
94.64000 3.527
94.66000 2.596
94.68000 4.630
94.70000 2.773
94.72000 3.290
94.74000 3.472
94.76000 5.352
94.78000 1.959
94.80000 0.264
94.82000 4.351
94.84000 8.368
94.86000 3.973
94.88000 2.970
94.90000 -0.044
94.92000 -2.018
94.94000 1.782
94.96000 8.388
94.98000 9.013
95.00000 8.596
95.02000 5.781
95.04000 4.155
95.06000 5.043
95.08000 4.941
95.10000 6.849
95.12000 8.942
95.14000 2.695
95.16000 6.417
95.18000 1.737
95.20000 -0.210
95.22000 5.831
95.24000 3.412
95.26000 1.889
95.28000 4.281
95.30000 6.773
95.32000 4.152
95.34000 3.106
95.36000 2.126
95.38000 5.219
95.40000 7.942
95.42000 9.239
95.44000 4.715
95.46000 3.365
95.48000 4.448
95.50000 2.566
95.52000 0.364
95.54000 1.620
95.56000 1.095
95.58000 2.801
95.60000 2.735
95.62000 3.284
95.64000 2.668
95.66000 -2.029
95.68000 3.138
95.70000 5.348
95.72000 7.026
95.74000 6.563
95.76000 2.324
95.78000 4.108
95.80000 2.570
95.82000 -0.101
95.84000 2.988
95.86000 0.644
95.88000 5.742
95.90000 1.919
95.92000 1.264
95.94000 2.987
95.96000 7.314
95.98000 4.192
96.00000 5.024
96.02000 2.300
96.04000 0.468
96.06000 -0.357
96.08000 1.959
96.10000 2.337
96.12000 3.692
96.14000 1.469
96.16000 6.135
96.18000 5.701
96.20000 6.812
96.22000 8.792
96.24000 8.171
96.26000 5.270
96.28000 2.903
96.30000 -1.504
96.32000 3.320
96.34000 -1.445
96.36000 -1.264
96.38000 2.679
96.40000 -1.307
96.42000 4.837
96.44000 -0.889
96.46000 1.573
96.48000 3.099
96.50000 0.071
96.52000 -2.053
96.54000 -0.224
96.56000 1.510
96.58000 0.492
96.60000 0.759
96.62000 0.136
96.64000 4.817
96.66000 2.281
96.68000 1.821
96.70000 1.596
96.72000 2.217
96.74000 2.875
96.76000 4.942
96.78000 1.529
96.80000 1.553
96.82000 3.042
96.84000 3.162
96.86000 5.098
96.88000 2.751
96.90000 3.580
96.92000 5.559
96.94000 3.975
96.96000 5.731
96.98000 -1.467
97.00000 0.200
97.02000 1.924
97.04000 3.325
97.06000 3.700
97.08000 2.719
97.10000 5.642
97.12000 1.455
97.14000 2.729
97.16000 5.172
97.18000 4.114
97.20000 5.894
97.22000 5.226
97.24000 9.997
97.26000 6.684
97.28000 0.595
97.30000 0.154
97.32000 -1.371
97.34000 1.456
97.36000 8.266
97.38000 6.031
97.40000 2.767
97.42000 5.587
97.44000 6.850
97.46000 3.119
97.48000 -0.114
97.50000 2.906
97.52000 3.626
97.54000 4.417
97.56000 -0.424
97.58000 0.818
97.60000 1.548
97.62000 1.229
97.64000 0.627
97.66000 2.848
97.68000 6.273
97.70000 3.205
97.72000 -0.930
97.74000 3.390
97.76000 5.355
97.78000 3.209
97.80000 -1.125
97.82000 6.033
97.84000 11.075
97.86000 5.434
97.88000 8.939
97.90000 4.344
97.92000 4.107
97.94000 2.616
97.96000 4.083
97.98000 -0.092
98.00000 -0.729
98.02000 7.574
98.04000 7.884
98.06000 9.538
98.08000 9.681
98.10000 6.687
98.12000 2.779
98.14000 6.210
98.16000 2.293
98.18000 0.517
98.20000 -0.463
98.22000 -2.008
98.24000 3.408
98.26000 2.692
98.28000 2.616
98.30000 4.954
98.32000 4.066
98.34000 2.857
98.36000 1.862
98.38000 3.637
98.40000 9.100
98.42000 6.180
98.44000 -1.089
98.46000 1.247
98.48000 5.122
98.50000 1.782
98.52000 0.692
98.54000 3.882
98.56000 9.071
98.58000 5.840
98.60000 4.368
98.62000 6.801
98.64000 7.050
98.66000 7.173
98.68000 4.059
98.70000 6.797
98.72000 2.138
98.74000 4.087
98.76000 2.496
98.78000 5.310
98.80000 4.504
98.82000 3.708
98.84000 0.802
98.86000 3.235
98.88000 4.125
98.90000 5.408
98.92000 4.960
98.94000 0.901
98.96000 6.764
98.98000 -1.980
99.00000 0.750
99.02000 0.828
99.04000 3.894
99.06000 1.924
99.08000 1.311
99.10000 5.010
99.12000 13.103
99.14000 7.347
99.16000 3.304
99.18000 1.014
99.20000 8.735
99.22000 9.050
99.24000 6.569
99.26000 9.313
99.28000 11.227
99.30000 6.312
99.32000 11.982
99.34000 12.951
99.36000 8.080
99.38000 8.355
99.40000 5.041
99.42000 3.677
99.44000 9.854
99.46000 10.405
99.48000 10.080
99.50000 4.315
99.52000 4.271
99.54000 2.615
99.56000 -0.386
99.58000 3.510
99.60000 5.216
99.62000 7.232
99.64000 3.608
99.66000 8.529
99.68000 17.106
99.70000 7.906
99.72000 10.870
99.74000 8.030
99.76000 10.263
99.78000 6.502
99.80000 3.669
99.82000 -1.524
99.84000 6.156
99.86000 1.736
99.88000 -1.943
99.90000 5.954
99.92000 10.842
99.94000 3.116
99.96000 -2.107
99.98000 0.000
