'Id: "0011387" Comment: "Integrate frame 0011387_Au-Ir-Rh_Rh-rich_XRD-Mapping-252-0000.gfrmwith cursor Wedge Cursor #5" Operator: "B?rgel" Anode: "Cu" Wavelength: "1.5406" Scantype: "2Theta (TwoTheta)" TimePerStep: "1" X: "9" Y: "18" Z: "5.95" 
10.00000 0.000
10.02000 -4.115
10.04000 1.109
10.06000 -3.985
10.08000 1.245
10.10000 11.928
10.12000 19.710
10.14000 16.122
10.16000 7.213
10.18000 8.983
10.20000 5.069
10.22000 10.244
10.24000 9.502
10.26000 4.050
10.28000 16.141
10.30000 13.298
10.32000 8.594
10.34000 -2.264
10.36000 4.946
10.38000 15.830
10.40000 21.189
10.42000 24.267
10.44000 25.858
10.46000 15.721
10.48000 12.084
10.50000 22.395
10.52000 11.496
10.54000 2.783
10.56000 19.274
10.58000 22.566
10.60000 22.554
10.62000 30.276
10.64000 33.447
10.66000 22.303
10.68000 22.565
10.70000 19.355
10.72000 2.247
10.74000 13.139
10.76000 19.037
10.78000 16.545
10.80000 8.740
10.82000 4.960
10.84000 14.614
10.86000 12.513
10.88000 19.838
10.90000 22.010
10.92000 24.163
10.94000 21.849
10.96000 34.529
10.98000 19.662
11.00000 11.734
11.02000 15.156
11.04000 10.507
11.06000 16.879
11.08000 18.975
11.10000 22.920
11.12000 11.361
11.14000 -4.121
11.16000 0.436
11.18000 18.487
11.20000 27.723
11.22000 21.660
11.24000 19.951
11.26000 15.207
11.28000 23.205
11.30000 18.781
11.32000 21.414
11.34000 23.853
11.36000 11.509
11.38000 13.860
11.40000 11.764
11.42000 16.921
11.44000 30.934
11.46000 15.285
11.48000 10.088
11.50000 15.808
11.52000 10.641
11.54000 23.834
11.56000 26.575
11.58000 22.223
11.60000 31.992
11.62000 33.508
11.64000 27.993
11.66000 28.194
11.68000 15.863
11.70000 19.475
11.72000 20.732
11.74000 11.275
11.76000 16.475
11.78000 29.865
11.80000 22.205
11.82000 23.302
11.84000 18.223
11.86000 10.658
11.88000 11.730
11.90000 20.746
11.92000 23.883
11.94000 23.745
11.96000 19.571
11.98000 13.330
12.00000 26.944
12.02000 24.037
12.04000 24.267
12.06000 22.519
12.08000 16.767
12.10000 26.047
12.12000 19.311
12.14000 8.868
12.16000 12.206
12.18000 10.606
12.20000 24.564
12.22000 17.905
12.24000 11.729
12.26000 12.684
12.28000 21.042
12.30000 18.400
12.32000 21.218
12.34000 21.856
12.36000 8.902
12.38000 15.835
12.40000 23.880
12.42000 17.254
12.44000 25.892
12.46000 19.994
12.48000 15.197
12.50000 16.374
12.52000 11.926
12.54000 22.653
12.56000 28.976
12.58000 16.515
12.60000 14.819
12.62000 18.728
12.64000 22.394
12.66000 21.960
12.68000 17.572
12.70000 14.802
12.72000 17.173
12.74000 15.731
12.76000 17.301
12.78000 23.045
12.80000 17.116
12.82000 18.608
12.84000 14.961
12.86000 13.760
12.88000 13.984
12.90000 9.430
12.92000 2.677
12.94000 10.918
12.96000 16.825
12.98000 28.927
13.00000 37.659
13.02000 31.379
13.04000 24.190
13.06000 12.959
13.08000 7.461
13.10000 15.242
13.12000 16.281
13.14000 22.685
13.16000 28.024
13.18000 17.142
13.20000 16.930
13.22000 7.565
13.24000 0.410
13.26000 4.135
13.28000 12.816
13.30000 10.799
13.32000 12.413
13.34000 14.159
13.36000 8.966
13.38000 9.345
13.40000 12.043
13.42000 14.351
13.44000 16.701
13.46000 9.706
13.48000 17.667
13.50000 22.736
13.52000 23.843
13.54000 10.416
13.56000 13.543
13.58000 17.032
13.60000 15.190
13.62000 15.026
13.64000 13.142
13.66000 15.144
13.68000 15.169
13.70000 13.466
13.72000 11.066
13.74000 23.140
13.76000 25.325
13.78000 27.668
13.80000 21.246
13.82000 14.685
13.84000 18.302
13.86000 12.458
13.88000 12.374
13.90000 25.851
13.92000 21.901
13.94000 21.438
13.96000 26.948
13.98000 13.059
14.00000 10.360
14.02000 12.433
14.04000 13.993
14.06000 19.405
14.08000 23.247
14.10000 17.889
14.12000 16.260
14.14000 3.901
14.16000 1.999
14.18000 5.258
14.20000 11.836
14.22000 8.170
14.24000 10.217
14.26000 13.680
14.28000 -1.091
14.30000 -3.970
14.32000 2.707
14.34000 5.358
14.36000 3.116
14.38000 11.960
14.40000 14.511
14.42000 16.447
14.44000 8.477
14.46000 9.131
14.48000 7.360
14.50000 9.078
14.52000 8.516
14.54000 9.686
14.56000 5.000
14.58000 10.574
14.60000 10.452
14.62000 0.937
14.64000 9.439
14.66000 10.917
14.68000 14.542
14.70000 5.132
14.72000 1.381
14.74000 3.098
14.76000 1.162
14.78000 6.392
14.80000 -3.213
14.82000 1.483
14.84000 0.867
14.86000 0.325
14.88000 18.074
14.90000 5.298
14.92000 -3.024
14.94000 -4.479
14.96000 0.840
14.98000 4.417
15.00000 4.079
15.02000 5.400
15.04000 7.386
15.06000 6.802
15.08000 11.504
15.10000 7.899
15.12000 6.768
15.14000 3.863
15.16000 -1.110
15.18000 2.889
15.20000 0.154
15.22000 0.997
15.24000 7.354
15.26000 -0.237
15.28000 2.131
15.30000 8.298
15.32000 9.253
15.34000 7.854
15.36000 3.977
15.38000 0.851
15.40000 1.796
15.42000 0.632
15.44000 9.178
15.46000 4.909
15.48000 2.101
15.50000 8.761
15.52000 10.755
15.54000 1.260
15.56000 5.194
15.58000 1.279
15.60000 2.449
15.62000 14.836
15.64000 20.008
15.66000 9.018
15.68000 8.350
15.70000 7.470
15.72000 2.943
15.74000 0.015
15.76000 3.350
15.78000 4.827
15.80000 -4.038
15.82000 -0.819
15.84000 4.489
15.86000 8.944
15.88000 1.438
15.90000 3.542
15.92000 4.761
15.94000 2.570
15.96000 6.862
15.98000 5.734
16.00000 3.904
16.02000 0.087
16.04000 -0.197
16.06000 0.293
16.08000 -1.429
16.10000 -1.087
16.12000 -3.395
16.14000 -0.727
16.16000 -0.288
16.18000 5.465
16.20000 2.900
16.22000 3.589
16.24000 5.021
16.26000 6.255
16.28000 11.015
16.30000 3.048
16.32000 3.587
16.34000 5.040
16.36000 3.185
16.38000 -0.960
16.40000 -0.310
16.42000 0.171
16.44000 -1.518
16.46000 3.800
16.48000 5.364
16.50000 9.772
16.52000 9.717
16.54000 4.780
16.56000 7.932
16.58000 13.817
16.60000 9.026
16.62000 15.923
16.64000 6.024
16.66000 0.059
16.68000 0.457
16.70000 2.320
16.72000 9.851
16.74000 12.701
16.76000 11.028
16.78000 5.848
16.80000 1.332
16.82000 0.920
16.84000 -1.795
16.86000 0.997
16.88000 4.171
16.90000 2.138
16.92000 4.925
16.94000 5.169
16.96000 4.154
16.98000 2.610
17.00000 -3.459
17.02000 4.347
17.04000 8.088
17.06000 5.293
17.08000 1.759
17.10000 0.316
17.12000 -1.249
17.14000 8.350
17.16000 -0.592
17.18000 1.071
17.20000 9.280
17.22000 7.424
17.24000 1.835
17.26000 4.501
17.28000 -1.682
17.30000 -4.412
17.32000 5.006
17.34000 4.871
17.36000 6.108
17.38000 8.876
17.40000 6.986
17.42000 10.198
17.44000 0.934
17.46000 1.121
17.48000 6.260
17.50000 -0.975
17.52000 0.764
17.54000 0.389
17.56000 5.565
17.58000 3.563
17.60000 3.703
17.62000 7.846
17.64000 11.079
17.66000 6.883
17.68000 -1.141
17.70000 -1.316
17.72000 7.782
17.74000 4.528
17.76000 5.300
17.78000 10.090
17.80000 11.186
17.82000 8.964
17.84000 9.007
17.86000 -0.431
17.88000 -1.499
17.90000 -1.693
17.92000 -2.397
17.94000 -4.368
17.96000 1.074
17.98000 1.323
18.00000 6.800
18.02000 3.643
18.04000 9.826
18.06000 6.205
18.08000 4.758
18.10000 -1.153
18.12000 5.568
18.14000 6.153
18.16000 1.989
18.18000 0.769
18.20000 1.319
18.22000 3.066
18.24000 6.225
18.26000 9.798
18.28000 6.631
18.30000 -4.342
18.32000 -0.523
18.34000 1.633
18.36000 3.696
18.38000 5.137
18.40000 4.680
18.42000 3.225
18.44000 -1.350
18.46000 2.296
18.48000 1.234
18.50000 0.578
18.52000 0.112
18.54000 -0.411
18.56000 3.896
18.58000 1.406
18.60000 -1.553
18.62000 -4.316
18.64000 1.195
18.66000 2.730
18.68000 -0.766
18.70000 2.758
18.72000 5.648
18.74000 4.072
18.76000 3.704
18.78000 3.974
18.80000 8.470
18.82000 9.419
18.84000 0.455
18.86000 3.166
18.88000 4.866
18.90000 5.371
18.92000 0.038
18.94000 -0.328
18.96000 1.700
18.98000 2.530
19.00000 3.563
19.02000 -1.359
19.04000 1.673
19.06000 2.605
19.08000 0.201
19.10000 7.439
19.12000 11.717
19.14000 7.339
19.16000 -0.875
19.18000 4.280
19.20000 5.527
19.22000 -0.027
19.24000 -3.727
19.26000 -1.848
19.28000 2.734
19.30000 2.883
19.32000 0.387
19.34000 3.933
19.36000 2.141
19.38000 2.876
19.40000 0.833
19.42000 2.905
19.44000 3.990
19.46000 4.393
19.48000 6.159
19.50000 3.905
19.52000 0.053
19.54000 0.455
19.56000 2.574
19.58000 3.902
19.60000 5.931
19.62000 -4.268
19.64000 -0.936
19.66000 1.934
19.68000 6.959
19.70000 9.744
19.72000 8.511
19.74000 6.632
19.76000 4.754
19.78000 0.553
19.80000 -3.424
19.82000 0.675
19.84000 4.740
19.86000 2.800
19.88000 4.414
19.90000 4.432
19.92000 3.135
19.94000 0.141
19.96000 5.925
19.98000 8.273
20.00000 3.101
20.02000 -3.616
20.04000 1.817
20.06000 8.353
20.08000 9.243
20.10000 1.959
20.12000 4.635
20.14000 7.899
20.16000 5.678
20.18000 5.760
20.20000 5.249
20.22000 3.784
20.24000 -2.513
20.26000 0.565
20.28000 5.629
20.30000 5.153
20.32000 7.884
20.34000 8.087
20.36000 14.683
20.38000 10.416
20.40000 5.073
20.42000 4.780
20.44000 1.091
20.46000 7.747
20.48000 14.276
20.50000 4.942
20.52000 5.115
20.54000 6.118
20.56000 7.405
20.58000 7.272
20.60000 2.624
20.62000 2.804
20.64000 -2.830
20.66000 -1.472
20.68000 8.165
20.70000 10.145
20.72000 4.576
20.74000 4.235
20.76000 -0.577
20.78000 4.531
20.80000 3.061
20.82000 4.267
20.84000 -1.507
20.86000 1.456
20.88000 7.589
20.90000 9.570
20.92000 11.318
20.94000 11.935
20.96000 8.240
20.98000 5.996
21.00000 4.744
21.02000 5.968
21.04000 8.510
21.06000 3.023
21.08000 6.670
21.10000 15.349
21.12000 10.564
21.14000 -4.161
21.16000 1.375
21.18000 3.409
21.20000 10.457
21.22000 9.326
21.24000 3.656
21.26000 -1.057
21.28000 -3.845
21.30000 -1.502
21.32000 11.390
21.34000 11.012
21.36000 10.221
21.38000 7.596
21.40000 6.005
21.42000 6.621
21.44000 5.997
21.46000 4.042
21.48000 7.364
21.50000 7.066
21.52000 8.411
21.54000 7.230
21.56000 4.379
21.58000 4.302
21.60000 6.303
21.62000 5.416
21.64000 1.747
21.66000 10.924
21.68000 17.303
21.70000 14.607
21.72000 13.727
21.74000 8.777
21.76000 3.171
21.78000 -4.103
21.80000 2.568
21.82000 9.282
21.84000 5.578
21.86000 5.957
21.88000 9.777
21.90000 11.501
21.92000 8.533
21.94000 4.024
21.96000 5.967
21.98000 9.635
22.00000 10.687
22.02000 8.116
22.04000 -0.306
22.06000 -1.720
22.08000 3.997
22.10000 10.066
22.12000 4.786
22.14000 3.380
22.16000 10.418
22.18000 8.196
22.20000 8.764
22.22000 3.316
22.24000 4.656
22.26000 9.587
22.28000 6.843
22.30000 7.480
22.32000 2.872
22.34000 6.652
22.36000 5.738
22.38000 6.145
22.40000 5.815
22.42000 4.662
22.44000 4.565
22.46000 11.333
22.48000 7.718
22.50000 6.144
22.52000 1.700
22.54000 0.239
22.56000 10.087
22.58000 15.138
22.60000 9.561
22.62000 14.537
22.64000 8.433
22.66000 4.508
22.68000 5.756
22.70000 9.695
22.72000 11.989
22.74000 5.430
22.76000 5.960
22.78000 9.057
22.80000 10.493
22.82000 4.927
22.84000 -1.804
22.86000 2.139
22.88000 9.207
22.90000 14.598
22.92000 9.155
22.94000 7.017
22.96000 5.331
22.98000 4.124
23.00000 5.576
23.02000 7.695
23.04000 12.844
23.06000 5.610
23.08000 1.988
23.10000 1.014
23.12000 6.397
23.14000 11.808
23.16000 9.150
23.18000 7.207
23.20000 5.735
23.22000 9.866
23.24000 8.445
23.26000 5.825
23.28000 8.675
23.30000 2.506
23.32000 -0.055
23.34000 -1.173
23.36000 1.733
23.38000 8.868
23.40000 9.790
23.42000 6.905
23.44000 5.700
23.46000 2.666
23.48000 3.949
23.50000 6.420
23.52000 7.885
23.54000 1.440
23.56000 3.115
23.58000 7.876
23.60000 7.181
23.62000 10.179
23.64000 0.536
23.66000 -4.006
23.68000 -2.005
23.70000 5.942
23.72000 5.971
23.74000 8.518
23.76000 9.997
23.78000 6.236
23.80000 11.079
23.82000 9.117
23.84000 6.376
23.86000 7.551
23.88000 11.849
23.90000 3.413
23.92000 6.886
23.94000 11.372
23.96000 7.310
23.98000 1.789
24.00000 1.381
24.02000 -1.163
24.04000 -1.225
24.06000 3.103
24.08000 3.902
24.10000 0.864
24.12000 2.091
24.14000 1.414
24.16000 7.283
24.18000 5.388
24.20000 0.294
24.22000 5.276
24.24000 3.942
24.26000 4.819
24.28000 4.299
24.30000 7.671
24.32000 4.626
24.34000 1.994
24.36000 -0.642
24.38000 0.882
24.40000 4.289
24.42000 3.852
24.44000 6.390
24.46000 1.039
24.48000 -0.453
24.50000 3.859
24.52000 8.852
24.54000 5.938
24.56000 0.031
24.58000 2.187
24.60000 7.869
24.62000 10.680
24.64000 6.828
24.66000 9.388
24.68000 6.402
24.70000 6.388
24.72000 1.508
24.74000 -3.971
24.76000 -0.780
24.78000 6.612
24.80000 7.986
24.82000 1.385
24.84000 2.396
24.86000 4.228
24.88000 3.592
24.90000 5.917
24.92000 1.853
24.94000 9.794
24.96000 6.102
24.98000 1.847
25.00000 3.133
25.02000 7.299
25.04000 2.335
25.06000 0.614
25.08000 5.235
25.10000 3.526
25.12000 6.557
25.14000 9.144
25.16000 5.424
25.18000 8.565
25.20000 5.076
25.22000 0.055
25.24000 0.473
25.26000 5.746
25.28000 1.902
25.30000 -0.757
25.32000 4.543
25.34000 2.756
25.36000 2.015
25.38000 3.881
25.40000 7.810
25.42000 2.634
25.44000 4.270
25.46000 -2.868
25.48000 -1.101
25.50000 2.631
25.52000 0.786
25.54000 -0.144
25.56000 7.612
25.58000 4.087
25.60000 1.962
25.62000 4.690
25.64000 4.702
25.66000 -3.042
25.68000 -1.394
25.70000 2.060
25.72000 1.903
25.74000 -0.595
25.76000 -0.559
25.78000 0.262
25.80000 3.993
25.82000 5.524
25.84000 1.889
25.86000 -1.637
25.88000 2.313
25.90000 0.855
25.92000 -0.551
25.94000 1.523
25.96000 4.504
25.98000 2.970
26.00000 0.795
26.02000 -1.151
26.04000 -2.570
26.06000 3.456
26.08000 8.939
26.10000 6.989
26.12000 7.579
26.14000 3.292
26.16000 0.077
26.18000 0.529
26.20000 3.031
26.22000 4.823
26.24000 3.107
26.26000 3.259
26.28000 7.637
26.30000 5.098
26.32000 -1.289
26.34000 4.078
26.36000 6.033
26.38000 1.566
26.40000 0.019
26.42000 1.856
26.44000 -0.261
26.46000 1.322
26.48000 -0.358
26.50000 -2.385
26.52000 -3.601
26.54000 0.988
26.56000 4.892
26.58000 5.205
26.60000 2.917
26.62000 3.309
26.64000 1.164
26.66000 3.135
26.68000 -0.099
26.70000 3.606
26.72000 5.509
26.74000 6.128
26.76000 3.158
26.78000 3.009
26.80000 3.063
26.82000 2.870
26.84000 6.087
26.86000 5.236
26.88000 3.854
26.90000 -1.193
26.92000 -0.737
26.94000 4.750
26.96000 2.254
26.98000 -3.470
27.00000 -1.704
27.02000 2.505
27.04000 2.244
27.06000 3.464
27.08000 -0.029
27.10000 3.048
27.12000 3.571
27.14000 3.689
27.16000 -3.843
27.18000 -2.240
27.20000 1.088
27.22000 2.334
27.24000 2.693
27.26000 2.918
27.28000 2.665
27.30000 0.780
27.32000 4.029
27.34000 2.489
27.36000 -0.116
27.38000 -1.076
27.40000 -0.109
27.42000 -0.375
27.44000 2.628
27.46000 3.125
27.48000 2.817
27.50000 5.229
27.52000 10.513
27.54000 9.947
27.56000 12.291
27.58000 13.996
27.60000 7.423
27.62000 4.618
27.64000 4.048
27.66000 2.068
27.68000 5.938
27.70000 5.242
27.72000 3.458
27.74000 2.388
27.76000 -3.772
27.78000 2.924
27.80000 11.179
27.82000 5.131
27.84000 1.053
27.86000 8.968
27.88000 8.594
27.90000 4.341
27.92000 10.265
27.94000 10.127
27.96000 10.602
27.98000 5.873
28.00000 3.638
28.02000 6.873
28.04000 7.003
28.06000 5.054
28.08000 3.072
28.10000 6.800
28.12000 2.663
28.14000 3.314
28.16000 4.366
28.18000 7.549
28.20000 5.610
28.22000 8.007
28.24000 9.070
28.26000 1.946
28.28000 5.222
28.30000 8.238
28.32000 3.508
28.34000 2.447
28.36000 7.196
28.38000 7.417
28.40000 6.701
28.42000 10.035
28.44000 7.618
28.46000 8.703
28.48000 10.087
28.50000 9.061
28.52000 4.546
28.54000 -0.650
28.56000 -2.800
28.58000 -1.632
28.60000 1.018
28.62000 6.956
28.64000 5.551
28.66000 4.585
28.68000 0.314
28.70000 8.899
28.72000 7.774
28.74000 -2.657
28.76000 -3.541
28.78000 -2.554
28.80000 -0.621
28.82000 -3.764
28.84000 -0.223
28.86000 3.260
28.88000 1.588
28.90000 -1.274
28.92000 2.009
28.94000 1.428
28.96000 0.850
28.98000 3.407
29.00000 4.566
29.02000 3.006
29.04000 -0.496
29.06000 1.500
29.08000 3.828
29.10000 0.806
29.12000 -0.687
29.14000 4.173
29.16000 -1.242
29.18000 -2.320
29.20000 -2.362
29.22000 1.030
29.24000 1.652
29.26000 6.392
29.28000 6.814
29.30000 5.280
29.32000 4.287
29.34000 -1.594
29.36000 3.242
29.38000 2.447
29.40000 0.104
29.42000 0.459
29.44000 -0.335
29.46000 -0.214
29.48000 3.498
29.50000 5.270
29.52000 3.805
29.54000 2.861
29.56000 2.203
29.58000 3.494
29.60000 1.392
29.62000 3.030
29.64000 -0.732
29.66000 -2.812
29.68000 -3.162
29.70000 0.311
29.72000 8.692
29.74000 4.999
29.76000 -3.429
29.78000 -1.692
29.80000 3.347
29.82000 3.888
29.84000 6.398
29.86000 4.103
29.88000 5.932
29.90000 5.641
29.92000 2.358
29.94000 1.075
29.96000 -2.063
29.98000 -1.211
30.00000 2.199
30.02000 -3.385
30.04000 -1.823
30.06000 -1.261
30.08000 -2.751
30.10000 -1.735
30.12000 4.066
30.14000 6.339
30.16000 1.836
30.18000 1.218
30.20000 1.221
30.22000 0.693
30.24000 0.942
30.26000 2.700
30.28000 -1.832
30.30000 -3.683
30.32000 1.886
30.34000 3.659
30.36000 6.297
30.38000 6.000
30.40000 1.321
30.42000 -1.162
30.44000 -3.676
30.46000 1.629
30.48000 3.060
30.50000 5.944
30.52000 2.421
30.54000 5.346
30.56000 9.163
30.58000 6.505
30.60000 6.808
30.62000 7.835
30.64000 3.730
30.66000 1.563
30.68000 -0.471
30.70000 0.863
30.72000 5.826
30.74000 6.776
30.76000 8.210
30.78000 4.768
30.80000 3.539
30.82000 2.902
30.84000 4.609
30.86000 5.255
30.88000 4.773
30.90000 4.847
30.92000 4.745
30.94000 2.045
30.96000 3.543
30.98000 1.232
31.00000 6.863
31.02000 2.971
31.04000 -1.935
31.06000 1.118
31.08000 6.176
31.10000 -0.526
31.12000 -1.030
31.14000 -2.266
31.16000 4.206
31.18000 -0.853
31.20000 -2.078
31.22000 -0.876
31.24000 2.346
31.26000 0.608
31.28000 4.600
31.30000 1.148
31.32000 -2.915
31.34000 -3.645
31.36000 3.568
31.38000 -1.015
31.40000 -3.118
31.42000 -0.878
31.44000 0.898
31.46000 5.257
31.48000 8.308
31.50000 4.737
31.52000 4.691
31.54000 3.959
31.56000 4.302
31.58000 1.973
31.60000 5.023
31.62000 4.406
31.64000 -0.383
31.66000 0.098
31.68000 -1.285
31.70000 0.217
31.72000 -1.069
31.74000 3.738
31.76000 3.136
31.78000 3.592
31.80000 6.041
31.82000 5.972
31.84000 2.080
31.86000 4.938
31.88000 4.873
31.90000 -0.175
31.92000 -0.649
31.94000 1.492
31.96000 -0.336
31.98000 -3.610
32.00000 -0.433
32.02000 1.580
32.04000 -0.626
32.06000 -2.800
32.08000 1.869
32.10000 2.375
32.12000 6.526
32.14000 7.572
32.16000 4.837
32.18000 2.925
32.20000 -3.600
32.22000 2.549
32.24000 7.664
32.26000 -0.750
32.28000 2.247
32.30000 6.840
32.32000 5.760
32.34000 6.345
32.36000 6.525
32.38000 3.916
32.40000 2.043
32.42000 0.074
32.44000 -0.473
32.46000 3.465
32.48000 2.034
32.50000 3.698
32.52000 0.049
32.54000 3.558
32.56000 9.713
32.58000 3.183
32.60000 0.444
32.62000 5.763
32.64000 6.914
32.66000 6.204
32.68000 6.872
32.70000 5.869
32.72000 2.160
32.74000 3.054
32.76000 3.778
32.78000 -1.249
32.80000 5.506
32.82000 7.581
32.84000 3.408
32.86000 4.523
32.88000 2.996
32.90000 -1.574
32.92000 0.573
32.94000 -2.087
32.96000 -1.076
32.98000 1.286
33.00000 0.875
33.02000 4.510
33.04000 7.972
33.06000 4.089
33.08000 2.441
33.10000 4.084
33.12000 9.076
33.14000 9.406
33.16000 6.252
33.18000 1.856
33.20000 6.322
33.22000 7.114
33.24000 8.226
33.26000 10.759
33.28000 11.511
33.30000 6.903
33.32000 1.339
33.34000 4.480
33.36000 4.246
33.38000 0.504
33.40000 1.207
33.42000 0.061
33.44000 -1.501
33.46000 3.171
33.48000 4.497
33.50000 5.802
33.52000 3.197
33.54000 4.224
33.56000 10.600
33.58000 2.324
33.60000 0.399
33.62000 0.018
33.64000 6.119
33.66000 7.226
33.68000 5.569
33.70000 0.603
33.72000 -3.554
33.74000 -3.388
33.76000 -0.435
33.78000 1.603
33.80000 8.285
33.82000 4.508
33.84000 6.251
33.86000 4.520
33.88000 2.962
33.90000 3.721
33.92000 1.774
33.94000 1.116
33.96000 2.502
33.98000 2.434
34.00000 1.009
34.02000 2.632
34.04000 10.243
34.06000 9.166
34.08000 2.474
34.10000 0.603
34.12000 -0.060
34.14000 1.555
34.16000 4.646
34.18000 3.682
34.20000 5.753
34.22000 0.169
34.24000 4.000
34.26000 8.653
34.28000 5.664
34.30000 2.991
34.32000 1.866
34.34000 3.946
34.36000 3.166
34.38000 2.491
34.40000 3.568
34.42000 4.610
34.44000 1.555
34.46000 0.431
34.48000 -0.994
34.50000 0.932
34.52000 0.875
34.54000 5.447
34.56000 1.693
34.58000 -1.159
34.60000 5.580
34.62000 5.296
34.64000 4.758
34.66000 2.291
34.68000 1.154
34.70000 1.560
34.72000 4.010
34.74000 6.012
34.76000 4.173
34.78000 4.418
34.80000 4.240
34.82000 6.605
34.84000 1.766
34.86000 -1.547
34.88000 3.655
34.90000 3.928
34.92000 5.820
34.94000 2.727
34.96000 0.699
34.98000 -1.745
35.00000 -0.419
35.02000 2.021
35.04000 3.147
35.06000 1.934
35.08000 0.692
35.10000 0.325
35.12000 -1.181
35.14000 5.762
35.16000 2.588
35.18000 -3.541
35.20000 -1.442
35.22000 -0.902
35.24000 -0.514
35.26000 1.799
35.28000 1.315
35.30000 -3.537
35.32000 2.304
35.34000 4.805
35.36000 4.858
35.38000 1.148
35.40000 -1.768
35.42000 -1.161
35.44000 1.252
35.46000 2.426
35.48000 7.288
35.50000 2.159
35.52000 0.596
35.54000 1.076
35.56000 4.689
35.58000 5.884
35.60000 4.869
35.62000 2.445
35.64000 4.749
35.66000 0.455
35.68000 2.047
35.70000 1.927
35.72000 -2.541
35.74000 -0.820
35.76000 -0.785
35.78000 -3.533
35.80000 -2.637
35.82000 -2.668
35.84000 1.732
35.86000 -0.657
35.88000 -0.913
35.90000 -2.639
35.92000 -2.340
35.94000 2.492
35.96000 2.964
35.98000 8.039
36.00000 4.383
36.02000 3.206
36.04000 4.423
36.06000 1.310
36.08000 -3.535
36.10000 0.400
36.12000 7.473
36.14000 8.878
36.16000 7.810
36.18000 7.361
36.20000 2.514
36.22000 1.823
36.24000 2.164
36.26000 1.055
36.28000 -0.553
36.30000 3.176
36.32000 3.579
36.34000 0.810
36.36000 3.415
36.38000 3.864
36.40000 2.099
36.42000 2.999
36.44000 3.620
36.46000 1.118
36.48000 0.075
36.50000 5.122
36.52000 4.518
36.54000 3.871
36.56000 5.041
36.58000 3.668
36.60000 2.106
36.62000 3.926
36.64000 -0.203
36.66000 -1.814
36.68000 -1.103
36.70000 3.257
36.72000 5.394
36.74000 1.541
36.76000 0.045
36.78000 4.219
36.80000 2.157
36.82000 2.280
36.84000 1.964
36.86000 6.613
36.88000 4.746
36.90000 0.344
36.92000 3.466
36.94000 3.745
36.96000 0.418
36.98000 1.513
37.00000 6.294
37.02000 2.077
37.04000 -3.549
37.06000 -2.017
37.08000 4.482
37.10000 4.958
37.12000 3.359
37.14000 -0.439
37.16000 -0.006
37.18000 1.754
37.20000 1.906
37.22000 0.658
37.24000 4.183
37.26000 4.617
37.28000 3.452
37.30000 1.557
37.32000 5.670
37.34000 2.105
37.36000 4.037
37.38000 4.903
37.40000 3.736
37.42000 7.216
37.44000 3.066
37.46000 -0.457
37.48000 3.967
37.50000 4.762
37.52000 -3.608
37.54000 3.100
37.56000 1.896
37.58000 1.848
37.60000 1.000
37.62000 2.391
37.64000 6.786
37.66000 6.334
37.68000 1.438
37.70000 6.556
37.72000 10.419
37.74000 7.425
37.76000 4.156
37.78000 2.093
37.80000 6.038
37.82000 12.017
37.84000 8.919
37.86000 7.556
37.88000 10.092
37.90000 15.258
37.92000 11.985
37.94000 5.816
37.96000 8.790
37.98000 5.610
38.00000 3.766
38.02000 6.866
38.04000 5.619
38.06000 10.227
38.08000 13.832
38.10000 11.952
38.12000 14.531
38.14000 14.650
38.16000 15.613
38.18000 11.243
38.20000 13.914
38.22000 16.842
38.24000 12.325
38.26000 17.327
38.28000 16.225
38.30000 16.715
38.32000 21.090
38.34000 18.315
38.36000 12.566
38.38000 11.166
38.40000 15.489
38.42000 18.956
38.44000 22.240
38.46000 21.425
38.48000 21.392
38.50000 16.913
38.52000 23.090
38.54000 22.386
38.56000 24.409
38.58000 24.775
38.60000 21.966
38.62000 27.025
38.64000 32.061
38.66000 29.280
38.68000 34.666
38.70000 38.688
38.72000 28.545
38.74000 30.647
38.76000 33.889
38.78000 36.172
38.80000 37.414
38.82000 41.328
38.84000 39.199
38.86000 41.514
38.88000 46.155
38.90000 44.145
38.92000 44.950
38.94000 46.886
38.96000 46.344
38.98000 49.910
39.00000 50.527
39.02000 53.654
39.04000 49.762
39.06000 55.018
39.08000 62.192
39.10000 64.734
39.12000 68.696
39.14000 74.858
39.16000 76.647
39.18000 72.759
39.20000 81.975
39.22000 84.221
39.24000 82.237
39.26000 87.345
39.28000 97.705
39.30000 99.162
39.32000 104.018
39.34000 109.416
39.36000 114.105
39.38000 120.526
39.40000 121.521
39.42000 132.662
39.44000 138.283
39.46000 141.543
39.48000 144.830
39.50000 153.362
39.52000 162.452
39.54000 170.721
39.56000 176.007
39.58000 193.998
39.60000 211.591
39.62000 224.311
39.64000 224.242
39.66000 236.428
39.68000 251.433
39.70000 260.072
39.72000 271.393
39.74000 288.865
39.76000 304.860
39.78000 320.010
39.80000 328.458
39.82000 344.274
39.84000 367.629
39.86000 384.150
39.88000 401.416
39.90000 423.808
39.92000 440.059
39.94000 462.668
39.96000 475.539
39.98000 497.028
40.00000 508.083
40.02000 529.374
40.04000 546.529
40.06000 556.138
40.08000 571.489
40.10000 582.222
40.12000 584.185
40.14000 602.474
40.16000 622.973
40.18000 615.956
40.20000 624.221
40.22000 628.675
40.24000 634.900
40.26000 629.542
40.28000 619.949
40.30000 619.347
40.32000 618.898
40.34000 602.850
40.36000 590.351
40.38000 582.891
40.40000 573.842
40.42000 558.091
40.44000 540.309
40.46000 527.792
40.48000 516.893
40.50000 506.419
40.52000 481.653
40.54000 463.004
40.56000 445.278
40.58000 426.784
40.60000 410.228
40.62000 392.058
40.64000 374.421
40.66000 361.387
40.68000 344.945
40.70000 322.747
40.72000 308.275
40.74000 294.314
40.76000 275.099
40.78000 263.272
40.80000 244.220
40.82000 236.141
40.84000 229.219
40.86000 222.941
40.88000 204.928
40.90000 191.913
40.92000 187.429
40.94000 168.053
40.96000 159.837
40.98000 153.643
41.00000 143.837
41.02000 139.350
41.04000 135.386
41.06000 129.750
41.08000 118.483
41.10000 108.578
41.12000 102.083
41.14000 99.840
41.16000 94.581
41.18000 84.512
41.20000 84.252
41.22000 80.461
41.24000 70.102
41.26000 71.331
41.28000 71.158
41.30000 64.538
41.32000 61.005
41.34000 58.010
41.36000 58.512
41.38000 51.373
41.40000 47.187
41.42000 49.077
41.44000 42.961
41.46000 41.515
41.48000 44.003
41.50000 39.353
41.52000 37.220
41.54000 35.402
41.56000 31.916
41.58000 27.701
41.60000 28.343
41.62000 27.251
41.64000 27.899
41.66000 28.423
41.68000 26.570
41.70000 27.419
41.72000 27.259
41.74000 18.897
41.76000 23.270
41.78000 19.626
41.80000 15.206
41.82000 15.804
41.84000 19.634
41.86000 16.684
41.88000 10.648
41.90000 12.482
41.92000 13.726
41.94000 13.823
41.96000 14.288
41.98000 8.082
42.00000 8.980
42.02000 10.345
42.04000 12.703
42.06000 4.215
42.08000 3.098
42.10000 5.029
42.12000 6.750
42.14000 8.033
42.16000 5.496
42.18000 5.813
42.20000 7.067
42.22000 6.204
42.24000 9.814
42.26000 5.170
42.28000 6.185
42.30000 6.047
42.32000 2.663
42.34000 2.916
42.36000 2.928
42.38000 6.222
42.40000 6.535
42.42000 5.183
42.44000 0.343
42.46000 0.074
42.48000 3.795
42.50000 1.196
42.52000 -2.613
42.54000 -1.998
42.56000 0.364
42.58000 2.934
42.60000 2.835
42.62000 2.109
42.64000 -1.320
42.66000 -2.004
42.68000 -1.457
42.70000 -2.708
42.72000 1.855
42.74000 2.526
42.76000 2.464
42.78000 1.979
42.80000 2.522
42.82000 3.354
42.84000 3.610
42.86000 2.045
42.88000 -0.838
42.90000 -0.859
42.92000 -1.376
42.94000 -0.809
42.96000 -1.361
42.98000 0.308
43.00000 2.685
43.02000 -1.713
43.04000 -1.969
43.06000 1.652
43.08000 3.709
43.10000 1.504
43.12000 -1.735
43.14000 1.267
43.16000 -0.414
43.18000 -1.667
43.20000 -1.921
43.22000 -1.686
43.24000 -3.424
43.26000 0.013
43.28000 -3.146
43.30000 -0.370
43.32000 1.878
43.34000 6.337
43.36000 6.119
43.38000 2.683
43.40000 0.833
43.42000 -0.393
43.44000 0.087
43.46000 -0.010
43.48000 5.681
43.50000 9.116
43.52000 3.712
43.54000 1.772
43.56000 0.626
43.58000 1.655
43.60000 0.365
43.62000 1.672
43.64000 1.671
43.66000 1.753
43.68000 1.326
43.70000 -2.029
43.72000 -1.290
43.74000 -0.148
43.76000 -0.335
43.78000 -1.085
43.80000 0.147
43.82000 -1.658
43.84000 -2.031
43.86000 3.383
43.88000 2.675
43.90000 1.526
43.92000 3.675
43.94000 3.777
43.96000 0.398
43.98000 -0.252
44.00000 1.188
44.02000 3.095
44.04000 1.055
44.06000 -3.366
44.08000 -1.549
44.10000 3.717
44.12000 2.743
44.14000 0.962
44.16000 2.614
44.18000 3.893
44.20000 2.831
44.22000 3.955
44.24000 2.869
44.26000 2.859
44.28000 3.201
44.30000 -0.373
44.32000 -2.925
44.34000 -1.809
44.36000 1.441
44.38000 4.275
44.40000 -0.165
44.42000 5.612
44.44000 0.854
44.46000 -1.504
44.48000 1.162
44.50000 1.817
44.52000 -1.830
44.54000 -3.379
44.56000 -0.737
44.58000 0.855
44.60000 0.184
44.62000 -3.265
44.64000 -1.846
44.66000 -0.625
44.68000 8.595
44.70000 4.231
44.72000 2.738
44.74000 -1.208
44.76000 4.721
44.78000 0.257
44.80000 0.277
44.82000 6.347
44.84000 5.501
44.86000 5.497
44.88000 4.172
44.90000 -0.032
44.92000 1.890
44.94000 4.421
44.96000 1.169
44.98000 3.104
45.00000 7.411
45.02000 2.737
45.04000 5.480
45.06000 7.217
45.08000 8.945
45.10000 11.737
45.12000 9.883
45.14000 10.123
45.16000 9.826
45.18000 8.839
45.20000 6.523
45.22000 3.367
45.24000 7.503
45.26000 6.593
45.28000 11.345
45.30000 7.967
45.32000 9.036
45.34000 12.742
45.36000 12.015
45.38000 11.801
45.40000 12.595
45.42000 14.674
45.44000 13.772
45.46000 7.168
45.48000 8.357
45.50000 14.365
45.52000 19.191
45.54000 17.540
45.56000 20.619
45.58000 19.779
45.60000 19.447
45.62000 21.613
45.64000 21.658
45.66000 18.415
45.68000 19.277
45.70000 16.051
45.72000 23.445
45.74000 27.448
45.76000 23.894
45.78000 22.707
45.80000 30.788
45.82000 26.076
45.84000 28.088
45.86000 29.231
45.88000 34.321
45.90000 34.194
45.92000 33.023
45.94000 35.526
45.96000 39.960
45.98000 41.261
46.00000 41.434
46.02000 45.972
46.04000 51.504
46.06000 49.862
46.08000 44.928
46.10000 51.161
46.12000 51.026
46.14000 52.577
46.16000 55.137
46.18000 60.549
46.20000 58.520
46.22000 63.111
46.24000 73.883
46.26000 70.992
46.28000 65.848
46.30000 61.199
46.32000 69.797
46.34000 69.977
46.36000 68.911
46.38000 75.679
46.40000 85.445
46.42000 85.556
46.44000 79.831
46.46000 77.595
46.48000 81.973
46.50000 91.502
46.52000 91.481
46.54000 90.588
46.56000 96.856
46.58000 98.384
46.60000 103.909
46.62000 101.903
46.64000 97.463
46.66000 100.811
46.68000 107.079
46.70000 111.830
46.72000 119.340
46.74000 119.131
46.76000 115.158
46.78000 110.720
46.80000 113.288
46.82000 121.649
46.84000 121.836
46.86000 121.715
46.88000 118.605
46.90000 114.562
46.92000 115.249
46.94000 115.905
46.96000 116.787
46.98000 111.712
47.00000 110.635
47.02000 117.896
47.04000 112.948
47.06000 108.994
47.08000 108.721
47.10000 106.139
47.12000 103.087
47.14000 100.523
47.16000 97.300
47.18000 103.309
47.20000 101.108
47.22000 97.730
47.24000 94.104
47.26000 94.442
47.28000 91.835
47.30000 85.315
47.32000 83.473
47.34000 81.371
47.36000 83.691
47.38000 78.643
47.40000 69.661
47.42000 67.331
47.44000 65.967
47.46000 65.871
47.48000 64.180
47.50000 58.869
47.52000 59.846
47.54000 53.956
47.56000 51.390
47.58000 52.406
47.60000 52.886
47.62000 50.216
47.64000 42.026
47.66000 36.757
47.68000 33.154
47.70000 36.808
47.72000 39.123
47.74000 37.806
47.76000 34.283
47.78000 31.271
47.80000 34.401
47.82000 27.368
47.84000 25.417
47.86000 29.872
47.88000 26.640
47.90000 26.437
47.92000 29.334
47.94000 27.432
47.96000 19.490
47.98000 19.625
48.00000 19.341
48.02000 14.796
48.04000 10.743
48.06000 8.200
48.08000 10.467
48.10000 12.112
48.12000 16.301
48.14000 10.395
48.16000 10.372
48.18000 11.344
48.20000 9.617
48.22000 7.473
48.24000 7.753
48.26000 10.924
48.28000 6.698
48.30000 8.292
48.32000 8.552
48.34000 9.497
48.36000 6.271
48.38000 2.043
48.40000 2.562
48.42000 4.985
48.44000 6.595
48.46000 3.705
48.48000 3.043
48.50000 -0.364
48.52000 2.145
48.54000 5.853
48.56000 8.674
48.58000 6.873
48.60000 3.064
48.62000 -0.445
48.64000 1.442
48.66000 3.043
48.68000 0.383
48.70000 5.696
48.72000 6.327
48.74000 1.088
48.76000 4.363
48.78000 7.261
48.80000 1.540
48.82000 1.340
48.84000 0.955
48.86000 -2.967
48.88000 2.230
48.90000 5.094
48.92000 -0.547
48.94000 1.224
48.96000 2.914
48.98000 -0.236
49.00000 6.197
49.02000 5.360
49.04000 1.293
49.06000 -0.977
49.08000 -1.693
49.10000 2.570
49.12000 1.522
49.14000 1.754
49.16000 0.297
49.18000 -2.916
49.20000 -0.908
49.22000 1.369
49.24000 0.511
49.26000 -2.131
49.28000 0.746
49.30000 -0.680
49.32000 -0.515
49.34000 1.406
49.36000 1.506
49.38000 3.270
49.40000 -0.464
49.42000 0.974
49.44000 -0.425
49.46000 3.013
49.48000 3.618
49.50000 0.793
49.52000 0.089
49.54000 1.828
49.56000 1.956
49.58000 0.777
49.60000 1.639
49.62000 -0.865
49.64000 -2.849
49.66000 4.049
49.68000 1.305
49.70000 -0.154
49.72000 0.639
49.74000 -0.973
49.76000 -0.198
49.78000 -2.816
49.80000 -1.322
49.82000 3.307
49.84000 3.160
49.86000 2.340
49.88000 3.253
49.90000 5.486
49.92000 1.070
49.94000 1.647
49.96000 4.073
49.98000 3.187
50.00000 2.936
50.02000 1.805
50.04000 -0.953
50.06000 2.356
50.08000 1.559
50.10000 5.901
50.12000 3.284
50.14000 0.714
50.16000 0.665
50.18000 -2.782
50.20000 -0.976
50.22000 0.159
50.24000 -1.499
50.26000 -1.021
50.28000 2.860
50.30000 4.835
50.32000 4.893
50.34000 1.185
50.36000 2.063
50.38000 4.850
50.40000 5.263
50.42000 6.759
50.44000 3.403
50.46000 5.445
50.48000 1.785
50.50000 4.974
50.52000 8.118
50.54000 4.039
50.56000 3.314
50.58000 -0.177
50.60000 1.332
50.62000 4.584
50.64000 3.131
50.66000 4.370
50.68000 0.938
50.70000 -2.739
50.72000 -0.391
50.74000 2.582
50.76000 5.493
50.78000 6.725
50.80000 3.062
50.82000 4.917
50.84000 5.689
50.86000 8.028
50.88000 4.019
50.90000 6.343
50.92000 4.581
50.94000 6.136
50.96000 3.240
50.98000 1.629
51.00000 3.477
51.02000 4.608
51.04000 2.093
51.06000 3.930
51.08000 6.267
51.10000 4.113
51.12000 0.591
51.14000 2.155
51.16000 4.220
51.18000 2.353
51.20000 6.866
51.22000 5.990
51.24000 9.321
51.26000 8.424
51.28000 4.672
51.30000 4.814
51.32000 2.739
51.34000 2.814
51.36000 1.643
51.38000 -0.414
51.40000 4.044
51.42000 5.648
51.44000 6.141
51.46000 5.133
51.48000 5.527
51.50000 5.550
51.52000 5.900
51.54000 5.294
51.56000 5.689
51.58000 7.185
51.60000 7.753
51.62000 3.716
51.64000 1.028
51.66000 1.917
51.68000 4.472
51.70000 5.910
51.72000 2.973
51.74000 -1.391
51.76000 -2.669
51.78000 -1.427
51.80000 2.655
51.82000 3.668
51.84000 4.220
51.86000 2.879
51.88000 5.532
51.90000 5.494
51.92000 5.848
51.94000 4.963
51.96000 3.500
51.98000 0.816
52.00000 1.647
52.02000 0.688
52.04000 2.492
52.06000 3.681
52.08000 5.247
52.10000 9.583
52.12000 7.746
52.14000 2.329
52.16000 3.692
52.18000 4.944
52.20000 0.813
52.22000 1.987
52.24000 4.336
52.26000 6.348
52.28000 7.930
52.30000 5.219
52.32000 7.435
52.34000 2.130
52.36000 4.245
52.38000 1.206
52.40000 -2.586
52.42000 -2.667
52.44000 1.827
52.46000 3.570
52.48000 2.124
52.50000 1.814
52.52000 3.464
52.54000 3.607
52.56000 2.670
52.58000 1.517
52.60000 0.608
52.62000 1.879
52.64000 0.688
52.66000 2.576
52.68000 3.731
52.70000 3.332
52.72000 5.289
52.74000 3.663
52.76000 4.982
52.78000 2.386
52.80000 -0.830
52.82000 -1.914
52.84000 -0.488
52.86000 2.406
52.88000 3.741
52.90000 3.972
52.92000 3.162
52.94000 5.257
52.96000 6.943
52.98000 4.477
53.00000 2.791
53.02000 1.170
53.04000 3.817
53.06000 2.664
53.08000 4.079
53.10000 4.690
53.12000 5.522
53.14000 0.126
53.16000 2.642
53.18000 4.171
53.20000 2.436
53.22000 -1.281
53.24000 1.233
53.26000 0.042
53.28000 -0.657
53.30000 -0.688
53.32000 1.737
53.34000 1.748
53.36000 1.305
53.38000 5.647
53.40000 4.772
53.42000 4.864
53.44000 4.545
53.46000 -1.007
53.48000 1.004
53.50000 3.479
53.52000 1.868
53.54000 -2.540
53.56000 1.005
53.58000 1.592
53.60000 4.162
53.62000 3.653
53.64000 5.638
53.66000 4.693
53.68000 0.120
53.70000 -1.301
53.72000 -2.362
53.74000 -0.488
53.76000 0.706
53.78000 0.863
53.80000 2.737
53.82000 0.907
53.84000 -1.065
53.86000 0.895
53.88000 4.671
53.90000 5.154
53.92000 5.696
53.94000 -1.151
53.96000 1.756
53.98000 -2.651
54.00000 -1.727
54.02000 1.295
54.04000 1.840
54.06000 2.666
54.08000 4.739
54.10000 4.625
54.12000 3.489
54.14000 1.750
54.16000 3.982
54.18000 6.391
54.20000 4.373
54.22000 1.682
54.24000 -0.191
54.26000 -1.546
54.28000 0.791
54.30000 0.270
54.32000 2.290
54.34000 3.372
54.36000 2.710
54.38000 -0.792
54.40000 1.583
54.42000 3.549
54.44000 6.127
54.46000 2.941
54.48000 0.614
54.50000 2.329
54.52000 1.151
54.54000 3.482
54.56000 1.526
54.58000 2.523
54.60000 2.007
54.62000 -0.309
54.64000 1.685
54.66000 3.202
54.68000 4.312
54.70000 4.212
54.72000 2.474
54.74000 1.126
54.76000 4.591
54.78000 4.581
54.80000 1.130
54.82000 4.969
54.84000 5.677
54.86000 6.218
54.88000 1.463
54.90000 1.861
54.92000 4.596
54.94000 2.656
54.96000 3.746
54.98000 6.678
55.00000 4.546
55.02000 2.046
55.04000 3.512
55.06000 4.019
55.08000 3.873
55.10000 0.874
55.12000 -2.256
55.14000 3.873
55.16000 1.818
55.18000 3.033
55.20000 3.557
55.22000 1.813
55.24000 -2.592
55.26000 -0.702
55.28000 6.720
55.30000 4.301
55.32000 2.092
55.34000 3.569
55.36000 4.849
55.38000 2.928
55.40000 4.503
55.42000 8.901
55.44000 8.977
55.46000 7.689
55.48000 5.824
55.50000 3.431
55.52000 3.748
55.54000 1.834
55.56000 1.599
55.58000 -0.195
55.60000 4.873
55.62000 3.944
55.64000 2.021
55.66000 0.276
55.68000 -0.246
55.70000 1.090
55.72000 2.777
55.74000 5.421
55.76000 4.086
55.78000 1.627
55.80000 1.823
55.82000 0.681
55.84000 2.087
55.86000 -0.148
55.88000 2.883
55.90000 3.809
55.92000 2.338
55.94000 -1.810
55.96000 -2.530
55.98000 -2.592
56.00000 0.475
56.02000 1.929
56.04000 2.082
56.06000 1.410
56.08000 4.485
56.10000 2.147
56.12000 2.143
56.14000 2.034
56.16000 1.306
56.18000 7.460
56.20000 4.718
56.22000 1.533
56.24000 -1.098
56.26000 1.370
56.28000 2.251
56.30000 -2.181
56.32000 -2.387
56.34000 -0.064
56.36000 6.358
56.38000 3.257
56.40000 4.880
56.42000 4.256
56.44000 5.287
56.46000 4.572
56.48000 -1.959
56.50000 -0.550
56.52000 0.036
56.54000 0.452
56.56000 1.850
56.58000 2.106
56.60000 -2.564
56.62000 -1.705
56.64000 -2.046
56.66000 -0.542
56.68000 4.013
56.70000 6.582
56.72000 5.214
56.74000 4.951
56.76000 1.728
56.78000 2.478
56.80000 5.631
56.82000 3.487
56.84000 2.046
56.86000 2.019
56.88000 6.735
56.90000 6.187
56.92000 2.579
56.94000 2.557
56.96000 4.001
56.98000 -2.442
57.00000 1.569
57.02000 0.450
57.04000 -1.833
57.06000 -0.786
57.08000 1.516
57.10000 0.247
57.12000 7.958
57.14000 5.418
57.16000 1.733
57.18000 1.380
57.20000 3.911
57.22000 4.663
57.24000 4.303
57.26000 6.522
57.28000 3.020
57.30000 2.014
57.32000 0.377
57.34000 0.993
57.36000 0.617
57.38000 -1.284
57.40000 -1.069
57.42000 -0.873
57.44000 0.734
57.46000 -2.195
57.48000 -1.036
57.50000 -0.858
57.52000 0.870
57.54000 5.087
57.56000 2.691
57.58000 3.776
57.60000 6.099
57.62000 3.370
57.64000 4.495
57.66000 7.069
57.68000 2.229
57.70000 0.125
57.72000 0.756
57.74000 -2.019
57.76000 0.124
57.78000 5.175
57.80000 8.442
57.82000 2.514
57.84000 3.982
57.86000 6.903
57.88000 3.297
57.90000 5.284
57.92000 2.189
57.94000 3.669
57.96000 -0.711
57.98000 2.187
58.00000 0.518
58.02000 -2.505
58.04000 0.270
58.06000 3.355
58.08000 3.725
58.10000 4.841
58.12000 5.465
58.14000 3.948
58.16000 3.131
58.18000 3.468
58.20000 -2.475
58.22000 -2.479
58.24000 4.220
58.26000 6.851
58.28000 5.435
58.30000 5.368
58.32000 -1.878
58.34000 0.606
58.36000 2.170
58.38000 2.555
58.40000 3.613
58.42000 4.163
58.44000 3.779
58.46000 2.048
58.48000 1.303
58.50000 2.737
58.52000 4.720
58.54000 3.093
58.56000 0.498
58.58000 3.161
58.60000 3.057
58.62000 2.529
58.64000 3.608
58.66000 5.910
58.68000 9.536
58.70000 6.719
58.72000 5.646
58.74000 6.200
58.76000 4.964
58.78000 3.130
58.80000 1.306
58.82000 2.315
58.84000 -0.544
58.86000 -2.275
58.88000 2.900
58.90000 1.592
58.92000 2.104
58.94000 2.065
58.96000 0.752
58.98000 2.094
59.00000 1.948
59.02000 3.491
59.04000 3.794
59.06000 2.069
59.08000 3.475
59.10000 2.616
59.12000 -0.054
59.14000 0.022
59.16000 0.685
59.18000 -1.416
59.20000 1.889
59.22000 -1.044
59.24000 2.355
59.26000 2.825
59.28000 2.460
59.30000 -0.473
59.32000 0.683
59.34000 0.675
59.36000 1.247
59.38000 1.269
59.40000 -0.736
59.42000 2.047
59.44000 2.304
59.46000 3.343
59.48000 3.394
59.50000 3.791
59.52000 1.338
59.54000 4.900
59.56000 7.571
59.58000 4.185
59.60000 0.934
59.62000 7.103
59.64000 6.361
59.66000 2.566
59.68000 3.542
59.70000 3.546
59.72000 1.143
59.74000 3.999
59.76000 4.507
59.78000 5.632
59.80000 4.818
59.82000 4.401
59.84000 4.343
59.86000 0.069
59.88000 3.554
59.90000 4.031
59.92000 2.971
59.94000 7.365
59.96000 2.559
59.98000 2.393
60.00000 1.382
60.02000 2.947
60.04000 4.257
60.06000 1.130
60.08000 1.501
60.10000 2.737
60.12000 3.412
60.14000 7.417
60.16000 7.996
60.18000 3.804
60.20000 5.258
60.22000 7.358
60.24000 8.418
60.26000 5.448
60.28000 4.568
60.30000 4.677
60.32000 5.025
60.34000 1.501
60.36000 0.987
60.38000 3.094
60.40000 0.180
60.42000 -2.388
60.44000 -0.233
60.46000 4.804
60.48000 6.776
60.50000 6.534
60.52000 8.934
60.54000 8.717
60.56000 5.611
60.58000 7.645
60.60000 7.059
60.62000 10.292
60.64000 9.392
60.66000 6.008
60.68000 2.872
60.70000 6.341
60.72000 5.268
60.74000 4.835
60.76000 3.442
60.78000 3.475
60.80000 4.115
60.82000 6.296
60.84000 4.291
60.86000 6.427
60.88000 8.430
60.90000 6.578
60.92000 7.771
60.94000 7.663
60.96000 7.188
60.98000 6.942
61.00000 4.399
61.02000 7.111
61.04000 2.168
61.06000 5.950
61.08000 7.467
61.10000 7.344
61.12000 6.460
61.14000 2.061
61.16000 -2.355
61.18000 4.624
61.20000 7.970
61.22000 7.352
61.24000 4.127
61.26000 6.613
61.28000 8.800
61.30000 5.145
61.32000 5.872
61.34000 4.664
61.36000 6.237
61.38000 6.889
61.40000 8.034
61.42000 7.037
61.44000 8.434
61.46000 8.811
61.48000 4.905
61.50000 0.331
61.52000 2.993
61.54000 2.963
61.56000 2.429
61.58000 5.060
61.60000 6.094
61.62000 5.806
61.64000 4.497
61.66000 1.634
61.68000 3.437
61.70000 1.669
61.72000 0.855
61.74000 3.174
61.76000 5.008
61.78000 7.392
61.80000 4.561
61.82000 2.820
61.84000 3.979
61.86000 3.355
61.88000 2.945
61.90000 5.243
61.92000 4.515
61.94000 3.142
61.96000 5.678
61.98000 4.260
62.00000 1.923
62.02000 3.752
62.04000 6.508
62.06000 3.552
62.08000 1.738
62.10000 2.320
62.12000 1.820
62.14000 3.335
62.16000 1.610
62.18000 2.444
62.20000 4.136
62.22000 6.032
62.24000 4.676
62.26000 0.687
62.28000 -0.702
62.30000 1.682
62.32000 1.105
62.34000 0.922
62.36000 3.270
62.38000 3.772
62.40000 4.566
62.42000 2.061
62.44000 -2.413
62.46000 -0.557
62.48000 -1.789
62.50000 2.748
62.52000 4.666
62.54000 4.319
62.56000 2.497
62.58000 2.433
62.60000 2.714
62.62000 2.564
62.64000 1.315
62.66000 4.333
62.68000 4.687
62.70000 1.277
62.72000 0.233
62.74000 0.386
62.76000 -2.065
62.78000 1.133
62.80000 3.293
62.82000 4.620
62.84000 -0.315
62.86000 0.379
62.88000 4.103
62.90000 0.622
62.92000 -1.146
62.94000 3.892
62.96000 0.816
62.98000 2.889
63.00000 5.849
63.02000 3.364
63.04000 2.743
63.06000 1.382
63.08000 2.814
63.10000 4.229
63.12000 2.072
63.14000 1.231
63.16000 4.121
63.18000 4.835
63.20000 5.022
63.22000 2.856
63.24000 4.116
63.26000 5.140
63.28000 0.585
63.30000 0.119
63.32000 2.225
63.34000 4.821
63.36000 0.979
63.38000 2.778
63.40000 0.996
63.42000 1.444
63.44000 3.519
63.46000 3.583
63.48000 7.331
63.50000 3.074
63.52000 1.318
63.54000 1.093
63.56000 4.794
63.58000 5.132
63.60000 2.488
63.62000 2.507
63.64000 1.406
63.66000 -2.382
63.68000 -0.085
63.70000 0.792
63.72000 1.202
63.74000 3.308
63.76000 3.001
63.78000 2.872
63.80000 3.600
63.82000 3.032
63.84000 2.812
63.86000 5.099
63.88000 4.488
63.90000 1.229
63.92000 2.053
63.94000 5.251
63.96000 6.541
63.98000 3.948
64.00000 2.114
64.02000 4.746
64.04000 1.465
64.06000 3.789
64.08000 0.922
64.10000 1.651
64.12000 2.566
64.14000 0.198
64.16000 1.653
64.18000 3.341
64.20000 1.872
64.22000 -0.160
64.24000 -2.349
64.26000 -0.354
64.28000 4.006
64.30000 4.064
64.32000 2.886
64.34000 3.657
64.36000 3.116
64.38000 5.499
64.40000 2.953
64.42000 2.535
64.44000 0.511
64.46000 -1.956
64.48000 3.146
64.50000 4.454
64.52000 7.388
64.54000 6.029
64.56000 4.428
64.58000 2.999
64.60000 -1.123
64.62000 -1.278
64.64000 1.028
64.66000 -0.085
64.68000 0.366
64.70000 4.364
64.72000 4.829
64.74000 0.238
64.76000 2.528
64.78000 1.499
64.80000 -0.017
64.82000 1.108
64.84000 1.891
64.86000 1.769
64.88000 0.083
64.90000 0.752
64.92000 4.915
64.94000 2.972
64.96000 2.499
64.98000 1.344
65.00000 -0.884
65.02000 2.535
65.04000 5.303
65.06000 4.190
65.08000 3.580
65.10000 7.110
65.12000 2.653
65.14000 0.381
65.16000 1.094
65.18000 1.228
65.20000 2.938
65.22000 3.495
65.24000 6.600
65.26000 4.577
65.28000 3.947
65.30000 5.571
65.32000 4.262
65.34000 4.236
65.36000 0.774
65.38000 -2.397
65.40000 2.720
65.42000 2.207
65.44000 4.058
65.46000 4.565
65.48000 1.570
65.50000 4.084
65.52000 3.083
65.54000 1.826
65.56000 0.670
65.58000 2.210
65.60000 4.990
65.62000 3.005
65.64000 3.992
65.66000 3.277
65.68000 1.979
65.70000 3.056
65.72000 1.940
65.74000 -1.086
65.76000 1.985
65.78000 4.257
65.80000 1.778
65.82000 1.122
65.84000 1.239
65.86000 0.499
65.88000 1.580
65.90000 3.923
65.92000 -0.429
65.94000 -0.827
65.96000 1.416
65.98000 3.768
66.00000 0.406
66.02000 0.842
66.04000 -1.259
66.06000 1.961
66.08000 0.251
66.10000 0.852
66.12000 2.451
66.14000 5.563
66.16000 3.529
66.18000 2.236
66.20000 -0.639
66.22000 -0.080
66.24000 2.890
66.26000 3.910
66.28000 3.807
66.30000 4.997
66.32000 1.232
66.34000 1.083
66.36000 1.437
66.38000 -0.155
66.40000 0.492
66.42000 3.016
66.44000 1.045
66.46000 1.665
66.48000 0.859
66.50000 1.081
66.52000 4.713
66.54000 3.291
66.56000 -0.784
66.58000 -0.883
66.60000 0.560
66.62000 0.993
66.64000 4.602
66.66000 3.666
66.68000 3.133
66.70000 0.258
66.72000 -1.494
66.74000 2.388
66.76000 4.029
66.78000 3.982
66.80000 2.704
66.82000 0.312
66.84000 -2.496
66.86000 2.379
66.88000 2.862
66.90000 3.184
66.92000 2.996
66.94000 5.435
66.96000 3.573
66.98000 3.437
67.00000 7.423
67.02000 6.495
67.04000 5.590
67.06000 7.732
67.08000 4.319
67.10000 4.556
67.12000 5.200
67.14000 5.766
67.16000 7.020
67.18000 7.244
67.20000 6.320
67.22000 10.278
67.24000 10.546
67.26000 8.540
67.28000 13.670
67.30000 12.971
67.32000 6.341
67.34000 5.208
67.36000 8.934
67.38000 7.095
67.40000 6.863
67.42000 4.995
67.44000 10.417
67.46000 13.138
67.48000 14.473
67.50000 14.226
67.52000 12.831
67.54000 9.245
67.56000 10.114
67.58000 12.877
67.60000 14.119
67.62000 11.317
67.64000 14.137
67.66000 12.505
67.68000 13.654
67.70000 11.992
67.72000 12.871
67.74000 14.193
67.76000 13.931
67.78000 14.033
67.80000 14.618
67.82000 13.600
67.84000 12.636
67.86000 17.095
67.88000 17.974
67.90000 20.952
67.92000 21.199
67.94000 17.324
67.96000 19.913
67.98000 23.432
68.00000 20.677
68.02000 19.780
68.04000 23.267
68.06000 22.249
68.08000 17.770
68.10000 23.967
68.12000 24.630
68.14000 24.522
68.16000 21.737
68.18000 24.875
68.20000 25.559
68.22000 23.276
68.24000 22.574
68.26000 26.162
68.28000 24.725
68.30000 27.528
68.32000 28.309
68.34000 28.654
68.36000 28.611
68.38000 30.292
68.40000 24.323
68.42000 26.951
68.44000 30.131
68.46000 33.692
68.48000 29.031
68.50000 31.424
68.52000 33.221
68.54000 29.354
68.56000 25.765
68.58000 27.478
68.60000 27.248
68.62000 32.571
68.64000 30.595
68.66000 30.030
68.68000 22.977
68.70000 27.493
68.72000 28.639
68.74000 22.533
68.76000 22.598
68.78000 25.213
68.80000 25.184
68.82000 25.185
68.84000 25.527
68.86000 20.831
68.88000 21.036
68.90000 21.280
68.92000 20.162
68.94000 20.063
68.96000 18.378
68.98000 19.506
69.00000 19.566
69.02000 17.618
69.04000 17.991
69.06000 16.393
69.08000 15.214
69.10000 15.405
69.12000 11.745
69.14000 13.611
69.16000 11.022
69.18000 11.513
69.20000 9.493
69.22000 10.524
69.24000 7.503
69.26000 11.879
69.28000 13.329
69.30000 10.355
69.32000 9.203
69.34000 7.519
69.36000 8.455
69.38000 10.005
69.40000 9.508
69.42000 8.564
69.44000 10.079
69.46000 9.546
69.48000 7.848
69.50000 10.234
69.52000 6.789
69.54000 2.718
69.56000 2.907
69.58000 4.120
69.60000 5.517
69.62000 5.555
69.64000 9.830
69.66000 5.759
69.68000 2.671
69.70000 1.440
69.72000 2.235
69.74000 4.879
69.76000 3.994
69.78000 7.252
69.80000 5.846
69.82000 0.172
69.84000 -2.340
69.86000 1.580
69.88000 1.357
69.90000 -0.747
69.92000 -1.200
69.94000 3.422
69.96000 6.614
69.98000 3.077
70.00000 -0.201
70.02000 -2.410
70.04000 3.173
70.06000 5.360
70.08000 7.292
70.10000 2.492
70.12000 -1.758
70.14000 0.462
70.16000 1.701
70.18000 -0.688
70.20000 2.461
70.22000 6.217
70.24000 5.049
70.26000 2.999
70.28000 0.429
70.30000 0.385
70.32000 1.364
70.34000 1.734
70.36000 1.497
70.38000 1.028
70.40000 1.045
70.42000 2.702
70.44000 2.234
70.46000 4.077
70.48000 3.026
70.50000 0.892
70.52000 1.285
70.54000 1.262
70.56000 2.558
70.58000 -1.905
70.60000 1.124
70.62000 1.474
70.64000 1.689
70.66000 3.915
70.68000 3.409
70.70000 0.785
70.72000 -2.344
70.74000 -0.972
70.76000 3.368
70.78000 7.963
70.80000 6.614
70.82000 7.007
70.84000 3.455
70.86000 2.315
70.88000 4.478
70.90000 5.508
70.92000 2.654
70.94000 2.851
70.96000 2.226
70.98000 2.421
71.00000 3.465
71.02000 0.989
71.04000 -0.618
71.06000 1.003
71.08000 2.802
71.10000 3.964
71.12000 3.885
71.14000 1.447
71.16000 3.632
71.18000 6.541
71.20000 4.475
71.22000 3.393
71.24000 4.166
71.26000 2.125
71.28000 0.900
71.30000 4.227
71.32000 2.186
71.34000 1.021
71.36000 3.260
71.38000 5.759
71.40000 5.516
71.42000 5.561
71.44000 3.483
71.46000 3.348
71.48000 2.163
71.50000 3.856
71.52000 3.596
71.54000 1.283
71.56000 -2.302
71.58000 -1.373
71.60000 -1.074
71.62000 2.528
71.64000 5.243
71.66000 4.713
71.68000 3.065
71.70000 4.238
71.72000 7.532
71.74000 2.655
71.76000 -0.550
71.78000 3.745
71.80000 6.819
71.82000 4.107
71.84000 1.792
71.86000 5.156
71.88000 7.673
71.90000 3.140
71.92000 6.301
71.94000 5.098
71.96000 0.401
71.98000 5.398
72.00000 4.158
72.02000 3.882
72.04000 2.800
72.06000 3.818
72.08000 0.817
72.10000 3.368
72.12000 4.165
72.14000 3.076
72.16000 2.269
72.18000 1.780
72.20000 2.600
72.22000 4.141
72.24000 5.607
72.26000 1.822
72.28000 -1.441
72.30000 2.679
72.32000 3.197
72.34000 3.166
72.36000 2.189
72.38000 7.423
72.40000 4.440
72.42000 4.732
72.44000 2.730
72.46000 2.009
72.48000 0.504
72.50000 4.083
72.52000 2.260
72.54000 1.195
72.56000 5.335
72.58000 6.657
72.60000 2.956
72.62000 -1.058
72.64000 4.907
72.66000 6.825
72.68000 4.301
72.70000 3.627
72.72000 3.048
72.74000 1.939
72.76000 -2.202
72.78000 -0.223
72.80000 2.997
72.82000 3.752
72.84000 4.616
72.86000 -0.130
72.88000 1.987
72.90000 5.171
72.92000 5.339
72.94000 4.455
72.96000 -0.552
72.98000 -1.093
73.00000 3.126
73.02000 4.526
73.04000 5.740
73.06000 0.706
73.08000 -0.223
73.10000 0.686
73.12000 3.588
73.14000 3.587
73.16000 2.084
73.18000 0.809
73.20000 2.936
73.22000 3.980
73.24000 5.945
73.26000 -0.166
73.28000 3.622
73.30000 5.270
73.32000 3.271
73.34000 2.056
73.36000 2.005
73.38000 2.402
73.40000 2.902
73.42000 3.729
73.44000 5.064
73.46000 5.229
73.48000 4.026
73.50000 3.279
73.52000 3.673
73.54000 0.375
73.56000 4.113
73.58000 7.983
73.60000 6.086
73.62000 1.281
73.64000 5.309
73.66000 4.394
73.68000 5.867
73.70000 0.979
73.72000 1.240
73.74000 3.179
73.76000 3.839
73.78000 1.384
73.80000 1.367
73.82000 3.657
73.84000 1.433
73.86000 1.239
73.88000 1.979
73.90000 5.557
73.92000 3.245
73.94000 2.509
73.96000 1.649
73.98000 3.681
74.00000 2.934
74.02000 3.756
74.04000 4.645
74.06000 6.606
74.08000 6.382
74.10000 3.599
74.12000 0.682
74.14000 3.563
74.16000 9.015
74.18000 8.638
74.20000 2.161
74.22000 -1.099
74.24000 -1.639
74.26000 2.705
74.28000 5.264
74.30000 4.739
74.32000 2.730
74.34000 -0.734
74.36000 2.605
74.38000 3.474
74.40000 -0.456
74.42000 3.306
74.44000 0.672
74.46000 0.402
74.48000 6.075
74.50000 2.340
74.52000 0.562
74.54000 4.392
74.56000 5.453
74.58000 5.073
74.60000 1.990
74.62000 -1.768
74.64000 1.356
74.66000 1.429
74.68000 0.998
74.70000 -0.257
74.72000 4.006
74.74000 2.146
74.76000 0.788
74.78000 2.925
74.80000 3.902
74.82000 -2.205
74.84000 -1.964
74.86000 0.111
74.88000 1.243
74.90000 2.494
74.92000 5.846
74.94000 6.261
74.96000 5.101
74.98000 6.251
75.00000 5.180
75.02000 4.253
75.04000 0.943
75.06000 3.932
75.08000 6.633
75.10000 6.649
75.12000 2.671
75.14000 -0.312
75.16000 1.932
75.18000 3.963
75.20000 5.181
75.22000 5.821
75.24000 7.261
75.26000 6.104
75.28000 4.588
75.30000 5.206
75.32000 4.873
75.34000 1.683
75.36000 1.131
75.38000 0.094
75.40000 -2.234
75.42000 -0.829
75.44000 1.704
75.46000 3.485
75.48000 3.534
75.50000 4.766
75.52000 3.439
75.54000 -1.004
75.56000 1.012
75.58000 0.918
75.60000 0.888
75.62000 2.528
75.64000 1.205
75.66000 1.238
75.68000 0.923
75.70000 3.870
75.72000 5.299
75.74000 2.647
75.76000 3.027
75.78000 4.509
75.80000 2.518
75.82000 4.102
75.84000 4.570
75.86000 3.116
75.88000 1.461
75.90000 1.930
75.92000 3.238
75.94000 5.563
75.96000 0.842
75.98000 0.108
76.00000 2.120
76.02000 1.129
76.04000 -1.146
76.06000 1.356
76.08000 2.934
76.10000 -0.019
76.12000 1.794
76.14000 0.075
76.16000 1.681
76.18000 2.620
76.20000 4.326
76.22000 -0.029
76.24000 0.179
76.26000 3.419
76.28000 1.885
76.30000 2.692
76.32000 0.817
76.34000 2.238
76.36000 2.333
76.38000 -2.264
76.40000 0.138
76.42000 1.662
76.44000 2.795
76.46000 1.027
76.48000 -0.267
76.50000 1.511
76.52000 -0.175
76.54000 2.471
76.56000 5.439
76.58000 4.434
76.60000 0.359
76.62000 0.932
76.64000 0.522
76.66000 1.949
76.68000 3.491
76.70000 1.745
76.72000 -0.835
76.74000 -0.978
76.76000 -0.074
76.78000 -0.662
76.80000 -1.679
76.82000 3.274
76.84000 2.157
76.86000 2.631
76.88000 3.516
76.90000 4.455
76.92000 2.400
76.94000 -2.281
76.96000 0.225
76.98000 0.086
77.00000 2.555
77.02000 0.731
77.04000 3.846
77.06000 2.662
77.08000 0.409
77.10000 -0.761
77.12000 -1.253
77.14000 4.784
77.16000 4.739
77.18000 2.063
77.20000 0.096
77.22000 2.102
77.24000 1.882
77.26000 5.764
77.28000 4.613
77.30000 2.689
77.32000 4.335
77.34000 1.647
77.36000 2.649
77.38000 4.838
77.40000 3.139
77.42000 1.814
77.44000 1.158
77.46000 -2.280
77.48000 4.255
77.50000 3.605
77.52000 -0.418
77.54000 2.622
77.56000 4.709
77.58000 5.878
77.60000 2.728
77.62000 1.403
77.64000 0.206
77.66000 0.420
77.68000 1.315
77.70000 0.679
77.72000 3.374
77.74000 4.031
77.76000 2.288
77.78000 0.441
77.80000 4.583
77.82000 0.917
77.84000 3.334
77.86000 3.894
77.88000 0.171
77.90000 -2.292
77.92000 0.698
77.94000 2.714
77.96000 1.079
77.98000 0.727
78.00000 1.022
78.02000 1.834
78.04000 1.629
78.06000 -0.607
78.08000 -0.604
78.10000 1.137
78.12000 1.429
78.14000 0.911
78.16000 4.723
78.18000 7.473
78.20000 2.493
78.22000 -0.609
78.24000 1.929
78.26000 2.023
78.28000 1.580
78.30000 1.969
78.32000 0.693
78.34000 1.330
78.36000 2.169
78.38000 2.428
78.40000 2.407
78.42000 2.341
78.44000 4.783
78.46000 2.584
78.48000 -1.039
78.50000 3.560
78.52000 4.885
78.54000 4.738
78.56000 3.335
78.58000 1.163
78.60000 -2.292
78.62000 -1.352
78.64000 -1.450
78.66000 3.128
78.68000 6.459
78.70000 8.211
78.72000 6.844
78.74000 -1.222
78.76000 0.485
78.78000 6.464
78.80000 7.217
78.82000 2.350
78.84000 -2.095
78.86000 0.701
78.88000 2.585
78.90000 6.551
78.92000 0.600
78.94000 -2.290
78.96000 1.614
78.98000 1.210
79.00000 1.339
79.02000 0.608
79.04000 3.496
79.06000 7.355
79.08000 1.883
79.10000 1.075
79.12000 1.391
79.14000 3.630
79.16000 2.828
79.18000 -1.633
79.20000 0.669
79.22000 -1.034
79.24000 -0.885
79.26000 0.555
79.28000 5.169
79.30000 5.363
79.32000 4.081
79.34000 0.011
79.36000 0.137
79.38000 0.799
79.40000 1.557
79.42000 1.449
79.44000 1.175
79.46000 2.155
79.48000 1.090
79.50000 0.949
79.52000 -0.148
79.54000 0.287
79.56000 2.689
79.58000 2.229
79.60000 2.457
79.62000 1.174
79.64000 1.612
79.66000 2.604
79.68000 3.564
79.70000 3.059
79.72000 2.962
79.74000 -1.293
79.76000 0.832
79.78000 3.929
79.80000 1.717
79.82000 2.992
79.84000 3.042
79.86000 1.079
79.88000 1.168
79.90000 4.558
79.92000 7.752
79.94000 2.733
79.96000 0.300
79.98000 1.678
80.00000 -1.378
80.02000 3.796
80.04000 3.868
80.06000 -1.019
80.08000 0.047
80.10000 0.624
80.12000 1.299
80.14000 -0.868
80.16000 1.760
80.18000 -2.407
80.20000 -0.298
80.22000 1.630
80.24000 0.394
80.26000 6.635
80.28000 3.730
80.30000 2.814
80.32000 1.468
80.34000 4.495
80.36000 2.011
80.38000 3.494
80.40000 -0.590
80.42000 2.255
80.44000 2.031
80.46000 2.839
80.48000 2.232
80.50000 5.551
80.52000 7.252
80.54000 4.433
80.56000 1.218
80.58000 2.498
80.60000 2.941
80.62000 4.553
80.64000 0.726
80.66000 -2.437
80.68000 0.730
80.70000 5.084
80.72000 4.914
80.74000 1.300
80.76000 3.623
80.78000 4.415
80.80000 1.149
80.82000 -0.341
80.84000 1.999
80.86000 2.241
80.88000 0.235
80.90000 2.231
80.92000 8.709
80.94000 5.360
80.96000 -0.616
80.98000 -2.468
81.00000 -2.311
81.02000 0.838
81.04000 1.120
81.06000 3.469
81.08000 2.715
81.10000 5.303
81.12000 3.256
81.14000 0.050
81.16000 6.757
81.18000 9.688
81.20000 3.141
81.22000 5.400
81.24000 8.495
81.26000 9.159
81.28000 8.115
81.30000 4.718
81.32000 3.389
81.34000 8.625
81.36000 13.487
81.38000 9.381
81.40000 7.842
81.42000 4.691
81.44000 6.043
81.46000 5.732
81.48000 8.586
81.50000 6.487
81.52000 10.362
81.54000 8.375
81.56000 8.061
81.58000 12.223
81.60000 14.012
81.62000 12.794
81.64000 15.262
81.66000 15.305
81.68000 12.240
81.70000 13.310
81.72000 11.768
81.74000 11.790
81.76000 16.947
81.78000 16.672
81.80000 16.556
81.82000 15.046
81.84000 20.428
81.86000 20.678
81.88000 22.630
81.90000 17.160
81.92000 17.717
81.94000 16.945
81.96000 18.207
81.98000 18.391
82.00000 19.377
82.02000 21.106
82.04000 20.160
82.06000 20.126
82.08000 20.973
82.10000 22.020
82.12000 23.277
82.14000 21.020
82.16000 22.098
82.18000 24.486
82.20000 22.958
82.22000 22.937
82.24000 23.675
82.26000 27.388
82.28000 29.722
82.30000 27.866
82.32000 28.444
82.34000 30.098
82.36000 26.715
82.38000 30.936
82.40000 35.503
82.42000 33.466
82.44000 30.529
82.46000 24.613
82.48000 27.741
82.50000 28.649
82.52000 33.066
82.54000 38.678
82.56000 34.442
82.58000 31.827
82.60000 29.668
82.62000 37.350
82.64000 37.964
82.66000 42.943
82.68000 38.880
82.70000 29.150
82.72000 23.076
82.74000 27.658
82.76000 30.567
82.78000 29.018
82.80000 33.266
82.82000 28.288
82.84000 26.621
82.86000 30.481
82.88000 31.741
82.90000 32.402
82.92000 31.996
82.94000 34.932
82.96000 31.061
82.98000 24.457
83.00000 28.591
83.02000 27.536
83.04000 25.964
83.06000 26.438
83.08000 28.847
83.10000 30.659
83.12000 27.361
83.14000 24.965
83.16000 22.398
83.18000 24.694
83.20000 28.331
83.22000 24.515
83.24000 22.219
83.26000 15.045
83.28000 14.151
83.30000 20.002
83.32000 19.188
83.34000 16.542
83.36000 14.547
83.38000 13.092
83.40000 15.975
83.42000 16.482
83.44000 16.551
83.46000 17.796
83.48000 15.482
83.50000 12.343
83.52000 16.205
83.54000 14.826
83.56000 12.436
83.58000 12.920
83.60000 7.280
83.62000 9.864
83.64000 11.893
83.66000 11.463
83.68000 12.411
83.70000 13.221
83.72000 10.697
83.74000 9.101
83.76000 7.786
83.78000 6.807
83.80000 4.205
83.82000 5.018
83.84000 8.759
83.86000 8.710
83.88000 6.120
83.90000 4.038
83.92000 2.028
83.94000 3.368
83.96000 7.005
83.98000 7.827
84.00000 7.454
84.02000 2.643
84.04000 2.798
84.06000 5.269
84.08000 3.813
84.10000 5.174
84.12000 7.253
84.14000 3.168
84.16000 1.487
84.18000 3.458
84.20000 1.744
84.22000 1.336
84.24000 1.113
84.26000 4.271
84.28000 1.294
84.30000 -0.943
84.32000 2.869
84.34000 5.221
84.36000 6.228
84.38000 3.667
84.40000 -0.760
84.42000 -0.139
84.44000 -0.139
84.46000 0.729
84.48000 -2.399
84.50000 -1.627
84.52000 3.075
84.54000 1.453
84.56000 3.593
84.58000 1.796
84.60000 0.908
84.62000 -0.812
84.64000 0.086
84.66000 0.912
84.68000 1.014
84.70000 2.393
84.72000 3.774
84.74000 2.604
84.76000 0.342
84.78000 1.149
84.80000 0.832
84.82000 1.358
84.84000 2.104
84.86000 1.967
84.88000 4.028
84.90000 3.085
84.92000 1.591
84.94000 0.756
84.96000 -0.601
84.98000 2.829
85.00000 1.096
85.02000 1.818
85.04000 4.128
85.06000 7.491
85.08000 1.792
85.10000 2.963
85.12000 3.096
85.14000 0.231
85.16000 6.327
85.18000 6.068
85.20000 4.304
85.22000 2.206
85.24000 4.703
85.26000 2.198
85.28000 3.360
85.30000 -2.291
85.32000 0.496
85.34000 6.993
85.36000 2.363
85.38000 4.318
85.40000 7.767
85.42000 4.657
85.44000 5.132
85.46000 4.477
85.48000 3.621
85.50000 2.027
85.52000 9.293
85.54000 10.163
85.56000 3.445
85.58000 2.485
85.60000 4.836
85.62000 4.984
85.64000 9.493
85.66000 8.963
85.68000 7.158
85.70000 5.100
85.72000 2.567
85.74000 -0.769
85.76000 -0.001
85.78000 1.490
85.80000 4.998
85.82000 1.838
85.84000 -0.041
85.86000 -0.078
85.88000 0.480
85.90000 4.176
85.92000 6.538
85.94000 9.005
85.96000 4.832
85.98000 3.743
86.00000 3.477
86.02000 7.418
86.04000 9.015
86.06000 7.565
86.08000 9.891
86.10000 10.288
86.12000 8.277
86.14000 9.180
86.16000 7.614
86.18000 9.885
86.20000 12.201
86.22000 14.593
86.24000 15.492
86.26000 14.493
86.28000 16.558
86.30000 8.309
86.32000 8.614
86.34000 10.994
86.36000 7.354
86.38000 9.616
86.40000 9.757
86.42000 15.507
86.44000 16.476
86.46000 11.536
86.48000 12.762
86.50000 17.088
86.52000 14.903
86.54000 13.110
86.56000 13.998
86.58000 13.800
86.60000 16.279
86.62000 15.911
86.64000 13.518
86.66000 13.570
86.68000 14.723
86.70000 17.395
86.72000 19.904
86.74000 22.692
86.76000 20.308
86.78000 19.066
86.80000 14.655
86.82000 21.055
86.84000 17.746
86.86000 21.948
86.88000 21.618
86.90000 21.560
86.92000 15.320
86.94000 14.937
86.96000 17.284
86.98000 17.179
87.00000 16.693
87.02000 19.409
87.04000 22.410
87.06000 26.325
87.08000 22.365
87.10000 21.443
87.12000 19.281
87.14000 18.120
87.16000 18.280
87.18000 22.447
87.20000 21.831
87.22000 17.676
87.24000 16.028
87.26000 9.872
87.28000 10.365
87.30000 20.746
87.32000 19.669
87.34000 14.201
87.36000 12.540
87.38000 14.236
87.40000 15.639
87.42000 8.665
87.44000 13.011
87.46000 15.455
87.48000 15.983
87.50000 13.407
87.52000 15.586
87.54000 11.582
87.56000 9.665
87.58000 8.685
87.60000 8.715
87.62000 8.623
87.64000 8.815
87.66000 10.484
87.68000 18.209
87.70000 10.131
87.72000 4.596
87.74000 2.969
87.76000 2.232
87.78000 5.529
87.80000 4.492
87.82000 8.864
87.84000 9.474
87.86000 7.798
87.88000 7.439
87.90000 9.009
87.92000 9.169
87.94000 1.992
87.96000 6.052
87.98000 7.956
88.00000 6.562
88.02000 3.847
88.04000 3.546
88.06000 7.596
88.08000 3.645
88.10000 2.585
88.12000 5.590
88.14000 2.667
88.16000 1.589
88.18000 -0.184
88.20000 -0.531
88.22000 4.176
88.24000 2.451
88.26000 -0.504
88.28000 -1.760
88.30000 2.325
88.32000 3.815
88.34000 -0.496
88.36000 0.029
88.38000 -1.119
88.40000 0.838
88.42000 1.452
88.44000 2.207
88.46000 -0.765
88.48000 0.072
88.50000 2.145
88.52000 4.249
88.54000 1.199
88.56000 4.955
88.58000 6.366
88.60000 2.675
88.62000 6.556
88.64000 3.732
88.66000 -0.812
88.68000 3.698
88.70000 4.033
88.72000 6.037
88.74000 2.551
88.76000 2.897
88.78000 -2.182
88.80000 4.036
88.82000 9.263
88.84000 0.795
88.86000 3.926
88.88000 -0.342
88.90000 2.970
88.92000 6.846
88.94000 7.226
88.96000 7.193
88.98000 2.529
89.00000 3.064
89.02000 2.378
89.04000 2.461
89.06000 -0.961
89.08000 0.101
89.10000 0.420
89.12000 -0.631
89.14000 3.290
89.16000 2.219
89.18000 -0.670
89.20000 1.399
89.22000 2.421
89.24000 2.217
89.26000 5.432
89.28000 0.698
89.30000 -0.354
89.32000 3.535
89.34000 7.667
89.36000 0.936
89.38000 2.072
89.40000 0.248
89.42000 4.548
89.44000 2.797
89.46000 2.402
89.48000 1.470
89.50000 0.381
89.52000 3.859
89.54000 8.773
89.56000 6.930
89.58000 2.557
89.60000 4.601
89.62000 1.729
89.64000 0.316
89.66000 4.072
89.68000 5.178
89.70000 4.374
89.72000 2.620
89.74000 2.013
89.76000 2.001
89.78000 6.221
89.80000 1.570
89.82000 -2.127
89.84000 1.914
89.86000 3.747
89.88000 1.455
89.90000 3.856
89.92000 3.259
89.94000 4.391
89.96000 3.989
89.98000 5.540
90.00000 4.751
90.02000 1.032
90.04000 2.995
90.06000 5.270
90.08000 5.813
90.10000 3.670
90.12000 1.295
90.14000 1.304
90.16000 4.228
90.18000 1.319
90.20000 2.386
90.22000 -1.412
90.24000 0.613
90.26000 1.824
90.28000 0.960
90.30000 5.563
90.32000 4.276
90.34000 0.435
90.36000 1.536
90.38000 0.333
90.40000 2.827
90.42000 5.329
90.44000 2.994
90.46000 3.506
90.48000 1.355
90.50000 3.239
90.52000 -2.111
90.54000 -0.419
90.56000 3.432
90.58000 4.615
90.60000 6.623
90.62000 5.052
90.64000 0.651
90.66000 0.163
90.68000 2.392
90.70000 6.154
90.72000 4.510
90.74000 1.037
90.76000 2.380
90.78000 2.608
90.80000 5.149
90.82000 1.385
90.84000 0.693
90.86000 1.650
90.88000 2.908
90.90000 4.052
90.92000 3.309
90.94000 1.812
90.96000 1.792
90.98000 4.361
91.00000 2.444
91.02000 -1.929
91.04000 -0.536
91.06000 -0.800
91.08000 -1.128
91.10000 -1.233
91.12000 3.068
91.14000 4.479
91.16000 4.701
91.18000 2.520
91.20000 -0.235
91.22000 4.102
91.24000 2.833
91.26000 5.703
91.28000 3.490
91.30000 1.414
91.32000 3.469
91.34000 5.879
91.36000 4.567
91.38000 5.161
91.40000 0.456
91.42000 3.120
91.44000 -2.140
91.46000 0.786
91.48000 8.868
91.50000 5.769
91.52000 2.485
91.54000 8.722
91.56000 6.028
91.58000 4.245
91.60000 3.753
91.62000 4.885
91.64000 5.802
91.66000 0.771
91.68000 0.189
91.70000 4.402
91.72000 9.049
91.74000 4.376
91.76000 2.004
91.78000 3.655
91.80000 0.284
91.82000 0.971
91.84000 2.631
91.86000 1.071
91.88000 6.109
91.90000 1.088
91.92000 3.746
91.94000 2.513
91.96000 0.602
91.98000 -1.516
92.00000 -2.128
92.02000 -1.134
92.04000 2.034
92.06000 0.966
92.08000 1.320
92.10000 -0.550
92.12000 -1.854
92.14000 1.257
92.16000 7.896
92.18000 1.335
92.20000 1.371
92.22000 3.824
92.24000 2.722
92.26000 4.052
92.28000 6.702
92.30000 3.693
92.32000 2.130
92.34000 -0.619
92.36000 4.239
92.38000 5.648
92.40000 4.912
92.42000 4.321
92.44000 -0.074
92.46000 0.987
92.48000 2.886
92.50000 -1.239
92.52000 -0.384
92.54000 2.333
92.56000 -1.475
92.58000 -1.263
92.60000 -1.521
92.62000 -0.542
92.64000 1.746
92.66000 2.300
92.68000 3.123
92.70000 0.720
92.72000 0.996
92.74000 2.580
92.76000 6.615
92.78000 2.852
92.80000 2.128
92.82000 1.835
92.84000 -1.640
92.86000 -0.371
92.88000 3.391
92.90000 3.778
92.92000 5.229
92.94000 9.038
92.96000 3.634
92.98000 5.013
93.00000 1.849
93.02000 3.089
93.04000 1.946
93.06000 1.772
93.08000 -2.128
93.10000 0.836
93.12000 3.022
93.14000 4.773
93.16000 5.315
93.18000 6.382
93.20000 7.224
93.22000 1.295
93.24000 -1.623
93.26000 2.648
93.28000 4.168
93.30000 3.596
93.32000 1.933
93.34000 0.452
93.36000 3.131
93.38000 3.040
93.40000 1.010
93.42000 -0.901
93.44000 1.565
93.46000 2.501
93.48000 0.451
93.50000 0.684
93.52000 3.271
93.54000 4.739
93.56000 -0.473
93.58000 2.597
93.60000 4.337
93.62000 5.076
93.64000 3.906
93.66000 6.020
93.68000 2.871
93.70000 6.013
93.72000 6.459
93.74000 2.259
93.76000 1.584
93.78000 1.508
93.80000 4.538
93.82000 -0.159
93.84000 5.490
93.86000 8.047
93.88000 2.173
93.90000 -2.122
93.92000 -0.303
93.94000 6.970
93.96000 6.445
93.98000 3.113
94.00000 -1.467
94.02000 0.006
94.04000 3.053
94.06000 2.298
94.08000 3.895
94.10000 5.021
94.12000 6.442
94.14000 3.362
94.16000 1.764
94.18000 3.113
94.20000 -0.206
94.22000 -1.505
94.24000 6.135
94.26000 9.044
94.28000 5.498
94.30000 2.968
94.32000 7.402
94.34000 8.074
94.36000 3.694
94.38000 2.916
94.40000 -2.113
94.42000 0.842
94.44000 4.175
94.46000 7.095
94.48000 5.173
94.50000 -0.545
94.52000 1.573
94.54000 -0.098
94.56000 3.684
94.58000 2.213
94.60000 1.487
94.62000 2.677
94.64000 3.697
94.66000 2.939
94.68000 3.107
94.70000 0.122
94.72000 -0.206
94.74000 2.326
94.76000 5.717
94.78000 7.478
94.80000 5.356
94.82000 6.464
94.84000 5.606
94.86000 2.357
94.88000 4.759
94.90000 3.276
94.92000 3.710
94.94000 6.612
94.96000 6.793
94.98000 5.099
95.00000 2.279
95.02000 7.980
95.04000 5.447
95.06000 1.774
95.08000 4.607
95.10000 -1.234
95.12000 1.871
95.14000 6.627
95.16000 9.300
95.18000 4.487
95.20000 0.139
95.22000 4.900
95.24000 4.627
95.26000 -0.302
95.28000 0.720
95.30000 1.042
95.32000 0.039
95.34000 4.317
95.36000 4.978
95.38000 4.404
95.40000 2.260
95.42000 2.382
95.44000 1.518
95.46000 6.077
95.48000 5.468
95.50000 4.895
95.52000 8.584
95.54000 6.749
95.56000 5.183
95.58000 3.402
95.60000 4.750
95.62000 4.352
95.64000 4.160
95.66000 4.262
95.68000 7.431
95.70000 3.568
95.72000 5.964
95.74000 5.335
95.76000 2.403
95.78000 1.094
95.80000 -0.551
95.82000 -2.143
95.84000 1.564
95.86000 3.716
95.88000 4.691
95.90000 8.590
95.92000 6.334
95.94000 9.315
95.96000 1.302
95.98000 2.621
96.00000 7.220
96.02000 0.328
96.04000 0.332
96.06000 2.907
96.08000 5.533
96.10000 5.081
96.12000 4.677
96.14000 8.588
96.16000 8.315
96.18000 7.942
96.20000 7.513
96.22000 3.430
96.24000 -0.013
96.26000 7.386
96.28000 3.958
96.30000 5.976
96.32000 3.188
96.34000 5.626
96.36000 9.695
96.38000 3.859
96.40000 2.407
96.42000 3.432
96.44000 6.085
96.46000 4.918
96.48000 6.189
96.50000 7.281
96.52000 4.044
96.54000 8.197
96.56000 4.333
96.58000 5.751
96.60000 6.735
96.62000 7.289
96.64000 11.858
96.66000 9.744
96.68000 3.694
96.70000 6.779
96.72000 5.293
96.74000 6.414
96.76000 10.868
96.78000 6.711
96.80000 4.666
96.82000 3.743
96.84000 2.172
96.86000 7.140
96.88000 11.383
96.90000 9.385
96.92000 3.880
96.94000 -2.081
96.96000 2.871
96.98000 0.264
97.00000 3.735
97.02000 8.529
97.04000 9.235
97.06000 2.244
97.08000 2.473
97.10000 2.438
97.12000 3.452
97.14000 0.926
97.16000 7.057
97.18000 10.479
97.20000 7.596
97.22000 4.066
97.24000 5.650
97.26000 5.632
97.28000 6.891
97.30000 3.852
97.32000 4.101
97.34000 6.051
97.36000 1.316
97.38000 6.652
97.40000 13.798
97.42000 7.651
97.44000 8.231
97.46000 8.104
97.48000 6.861
97.50000 9.422
97.52000 7.860
97.54000 10.412
97.56000 13.450
97.58000 5.721
97.60000 3.397
97.62000 9.254
97.64000 5.219
97.66000 6.395
97.68000 9.340
97.70000 13.642
97.72000 4.425
97.74000 5.482
97.76000 7.759
97.78000 7.070
97.80000 5.888
97.82000 11.905
97.84000 13.738
97.86000 10.251
97.88000 7.556
97.90000 6.883
97.92000 3.401
97.94000 1.725
97.96000 -1.973
97.98000 -2.031
98.00000 10.313
98.02000 8.425
98.04000 9.007
98.06000 10.314
98.08000 6.222
98.10000 3.419
98.12000 4.235
98.14000 8.147
98.16000 9.956
98.18000 12.962
98.20000 10.026
98.22000 3.622
98.24000 0.320
98.26000 4.126
98.28000 2.689
98.30000 5.345
98.32000 4.943
98.34000 2.285
98.36000 0.754
98.38000 3.602
98.40000 12.031
98.42000 8.098
98.44000 5.477
98.46000 13.470
98.48000 10.518
98.50000 8.957
98.52000 2.734
98.54000 4.194
98.56000 4.231
98.58000 6.727
98.60000 7.287
98.62000 8.896
98.64000 4.706
98.66000 4.332
98.68000 3.577
98.70000 -0.577
98.72000 0.918
98.74000 -0.683
98.76000 7.913
98.78000 6.479
98.80000 7.976
98.82000 4.519
98.84000 0.331
98.86000 4.458
98.88000 5.892
98.90000 5.132
98.92000 7.100
98.94000 4.625
98.96000 0.661
98.98000 0.273
99.00000 -2.102
99.02000 2.325
99.04000 1.901
99.06000 3.381
99.08000 2.755
99.10000 3.272
99.12000 3.029
99.14000 8.523
99.16000 4.528
99.18000 -2.029
99.20000 -2.108
99.22000 2.515
99.24000 9.313
99.26000 5.116
99.28000 5.734
99.30000 4.845
99.32000 5.159
99.34000 -3.346
99.36000 7.645
99.38000 11.888
99.40000 -3.122
99.42000 2.819
99.44000 1.443
99.46000 -0.319
99.48000 4.629
99.50000 2.307
99.52000 1.994
99.54000 1.383
99.56000 3.879
99.58000 -0.007
99.60000 -1.846
99.62000 1.163
99.64000 9.144
99.66000 10.492
99.68000 -2.122
99.70000 -0.537
99.72000 1.581
99.74000 8.094
99.76000 15.560
99.78000 5.940
99.80000 8.343
99.82000 11.103
99.84000 -4.318
99.86000 -0.248
99.88000 5.416
99.90000 0.839
99.92000 2.335
99.94000 5.273
99.96000 -2.219
99.98000 0.000
