'Id: "0011388" Comment: "Integrate frame 0011388_Au-Ir-Rh_Rh-rich_XRD-Mapping-099-0000.gfrmwith cursor Wedge Cursor #5" Operator: "B?rgel" Anode: "Cu" Wavelength: "1.5406" Scantype: "2Theta (TwoTheta)" TimePerStep: "1" X: "-22.5" Y: "-13.5" Z: "5.95" 
10.00000 0.000
10.02000 -0.376
10.04000 2.161
10.06000 -4.237
10.08000 -0.770
10.10000 0.768
10.12000 21.727
10.14000 33.822
10.16000 18.962
10.18000 32.637
10.20000 34.165
10.22000 30.148
10.24000 25.019
10.26000 23.030
10.28000 25.789
10.30000 30.302
10.32000 33.641
10.34000 25.620
10.36000 23.465
10.38000 15.076
10.40000 19.008
10.42000 18.379
10.44000 21.763
10.46000 22.584
10.48000 21.447
10.50000 6.024
10.52000 9.143
10.54000 15.023
10.56000 15.308
10.58000 11.885
10.60000 -3.668
10.62000 1.239
10.64000 18.546
10.66000 17.935
10.68000 11.672
10.70000 13.874
10.72000 9.446
10.74000 30.441
10.76000 18.612
10.78000 13.477
10.80000 22.364
10.82000 10.752
10.84000 14.527
10.86000 17.521
10.88000 13.433
10.90000 20.797
10.92000 23.901
10.94000 21.492
10.96000 23.211
10.98000 21.599
11.00000 9.511
11.02000 14.864
11.04000 15.094
11.06000 13.543
11.08000 20.037
11.10000 27.409
11.12000 23.528
11.14000 18.103
11.16000 15.115
11.18000 21.654
11.20000 28.915
11.22000 22.049
11.24000 20.394
11.26000 23.780
11.28000 25.360
11.30000 21.108
11.32000 8.352
11.34000 -2.541
11.36000 4.075
11.38000 9.226
11.40000 17.681
11.42000 19.198
11.44000 13.350
11.46000 14.194
11.48000 24.525
11.50000 22.467
11.52000 21.227
11.54000 19.636
11.56000 16.549
11.58000 12.098
11.60000 12.480
11.62000 25.729
11.64000 22.059
11.66000 28.282
11.68000 21.133
11.70000 17.001
11.72000 17.504
11.74000 7.655
11.76000 7.190
11.78000 10.644
11.80000 8.773
11.82000 2.919
11.84000 3.443
11.86000 5.831
11.88000 12.874
11.90000 5.126
11.92000 16.846
11.94000 15.190
11.96000 8.507
11.98000 15.440
12.00000 3.856
12.02000 14.212
12.04000 18.485
12.06000 22.093
12.08000 18.900
12.10000 8.490
12.12000 8.060
12.14000 8.907
12.16000 12.597
12.18000 8.878
12.20000 8.443
12.22000 0.486
12.24000 11.200
12.26000 11.139
12.28000 6.187
12.30000 13.366
12.32000 7.297
12.34000 0.158
12.36000 2.321
12.38000 14.484
12.40000 20.016
12.42000 24.507
12.44000 24.871
12.46000 14.182
12.48000 12.109
12.50000 4.287
12.52000 9.723
12.54000 14.820
12.56000 7.747
12.58000 5.225
12.60000 17.282
12.62000 12.649
12.64000 10.004
12.66000 13.214
12.68000 23.875
12.70000 29.125
12.72000 22.813
12.74000 20.576
12.76000 13.191
12.78000 13.892
12.80000 20.982
12.82000 4.475
12.84000 0.907
12.86000 17.676
12.88000 10.135
12.90000 9.108
12.92000 4.629
12.94000 7.138
12.96000 12.049
12.98000 18.379
13.00000 15.833
13.02000 12.354
13.04000 6.717
13.06000 14.432
13.08000 14.237
13.10000 8.796
13.12000 23.573
13.14000 25.831
13.16000 12.300
13.18000 8.227
13.20000 7.327
13.22000 16.197
13.24000 13.399
13.26000 13.179
13.28000 19.538
13.30000 18.549
13.32000 10.931
13.34000 -4.440
13.36000 6.990
13.38000 21.580
13.40000 9.838
13.42000 9.334
13.44000 10.608
13.46000 5.725
13.48000 8.149
13.50000 13.452
13.52000 8.755
13.54000 4.146
13.56000 4.529
13.58000 7.666
13.60000 4.307
13.62000 9.594
13.64000 4.563
13.66000 10.120
13.68000 22.982
13.70000 6.636
13.72000 11.059
13.74000 18.836
13.76000 20.614
13.78000 11.570
13.80000 5.045
13.82000 11.762
13.84000 14.165
13.86000 16.140
13.88000 26.217
13.90000 16.171
13.92000 16.615
13.94000 12.778
13.96000 8.639
13.98000 7.807
14.00000 14.548
14.02000 10.451
14.04000 4.587
14.06000 10.536
14.08000 7.505
14.10000 13.483
14.12000 13.083
14.14000 11.946
14.16000 11.922
14.18000 2.508
14.20000 10.412
14.22000 16.223
14.24000 11.554
14.26000 12.951
14.28000 17.152
14.30000 17.139
14.32000 8.961
14.34000 5.273
14.36000 15.120
14.38000 15.541
14.40000 10.549
14.42000 1.676
14.44000 8.936
14.46000 9.410
14.48000 1.982
14.50000 5.302
14.52000 15.683
14.54000 14.169
14.56000 2.346
14.58000 9.031
14.60000 9.733
14.62000 12.779
14.64000 20.282
14.66000 16.252
14.68000 4.060
14.70000 4.247
14.72000 8.536
14.74000 7.016
14.76000 1.454
14.78000 4.441
14.80000 10.508
14.82000 11.552
14.84000 15.559
14.86000 6.345
14.88000 7.160
14.90000 8.622
14.92000 13.634
14.94000 9.140
14.96000 10.170
14.98000 12.154
15.00000 10.428
15.02000 6.127
15.04000 17.714
15.06000 14.843
15.08000 16.014
15.10000 13.243
15.12000 19.728
15.14000 15.493
15.16000 18.539
15.18000 12.430
15.20000 11.722
15.22000 6.131
15.24000 13.721
15.26000 4.565
15.28000 4.720
15.30000 0.043
15.32000 2.780
15.34000 6.912
15.36000 16.335
15.38000 14.022
15.40000 3.330
15.42000 11.948
15.44000 14.845
15.46000 12.713
15.48000 10.851
15.50000 11.752
15.52000 12.351
15.54000 7.105
15.56000 8.050
15.58000 18.247
15.60000 18.729
15.62000 15.656
15.64000 14.893
15.66000 18.720
15.68000 20.411
15.70000 21.113
15.72000 12.192
15.74000 -4.361
15.76000 -1.952
15.78000 8.985
15.80000 12.694
15.82000 2.827
15.84000 4.870
15.86000 9.101
15.88000 17.562
15.90000 19.104
15.92000 21.778
15.94000 8.596
15.96000 -3.431
15.98000 1.647
16.00000 11.198
16.02000 16.570
16.04000 16.647
16.06000 12.063
16.08000 14.444
16.10000 16.853
16.12000 13.128
16.14000 14.284
16.16000 13.186
16.18000 6.213
16.20000 9.627
16.22000 9.486
16.24000 10.349
16.26000 7.535
16.28000 8.122
16.30000 5.823
16.32000 5.797
16.34000 7.435
16.36000 10.898
16.38000 4.818
16.40000 6.737
16.42000 7.481
16.44000 8.897
16.46000 16.770
16.48000 14.064
16.50000 10.729
16.52000 11.728
16.54000 4.454
16.56000 -4.358
16.58000 -0.045
16.60000 4.970
16.62000 15.462
16.64000 11.684
16.66000 10.193
16.68000 11.724
16.70000 8.220
16.72000 3.082
16.74000 4.656
16.76000 2.634
16.78000 8.021
16.80000 13.611
16.82000 9.070
16.84000 4.782
16.86000 12.210
16.88000 7.894
16.90000 0.282
16.92000 3.018
16.94000 12.902
16.96000 14.234
16.98000 17.148
17.00000 15.293
17.02000 8.295
17.04000 7.886
17.06000 9.514
17.08000 8.368
17.10000 13.257
17.12000 9.331
17.14000 9.940
17.16000 15.324
17.18000 14.052
17.20000 11.914
17.22000 12.461
17.24000 5.934
17.26000 3.316
17.28000 6.319
17.30000 9.480
17.32000 4.255
17.34000 7.474
17.36000 4.435
17.38000 -3.757
17.40000 9.299
17.42000 11.516
17.44000 2.264
17.46000 0.878
17.48000 6.116
17.50000 3.118
17.52000 3.511
17.54000 5.866
17.56000 -1.420
17.58000 3.736
17.60000 6.225
17.62000 0.233
17.64000 0.173
17.66000 5.436
17.68000 10.380
17.70000 7.511
17.72000 8.901
17.74000 9.027
17.76000 9.968
17.78000 -0.693
17.80000 -2.095
17.82000 1.209
17.84000 -1.687
17.86000 0.578
17.88000 9.576
17.90000 4.430
17.92000 2.502
17.94000 1.179
17.96000 4.935
17.98000 6.710
18.00000 7.053
18.02000 0.410
18.04000 1.766
18.06000 2.434
18.08000 3.191
18.10000 3.045
18.12000 2.881
18.14000 5.272
18.16000 7.617
18.18000 4.370
18.20000 1.507
18.22000 1.719
18.24000 5.656
18.26000 6.649
18.28000 0.450
18.30000 -1.921
18.32000 -0.945
18.34000 4.807
18.36000 6.472
18.38000 4.073
18.40000 -1.307
18.42000 -1.712
18.44000 2.280
18.46000 7.720
18.48000 -4.190
18.50000 -1.180
18.52000 1.592
18.54000 6.750
18.56000 10.637
18.58000 7.530
18.60000 1.229
18.62000 -3.759
18.64000 -2.257
18.66000 -0.310
18.68000 -3.082
18.70000 -2.950
18.72000 2.065
18.74000 9.172
18.76000 5.081
18.78000 6.863
18.80000 0.131
18.82000 -3.455
18.84000 1.378
18.86000 -1.116
18.88000 -1.459
18.90000 -2.075
18.92000 0.985
18.94000 3.796
18.96000 2.780
18.98000 5.121
19.00000 6.354
19.02000 7.303
19.04000 6.416
19.06000 -3.990
19.08000 -3.151
19.10000 3.655
19.12000 6.662
19.14000 11.845
19.16000 10.065
19.18000 12.427
19.20000 6.630
19.22000 6.645
19.24000 3.843
19.26000 5.016
19.28000 3.174
19.30000 10.257
19.32000 7.079
19.34000 2.120
19.36000 -0.943
19.38000 -2.406
19.40000 -3.223
19.42000 -2.842
19.44000 3.595
19.46000 7.344
19.48000 1.178
19.50000 -2.649
19.52000 2.189
19.54000 -3.369
19.56000 1.650
19.58000 0.918
19.60000 2.743
19.62000 0.029
19.64000 -4.234
19.66000 -1.220
19.68000 1.431
19.70000 4.126
19.72000 8.472
19.74000 12.366
19.76000 7.301
19.78000 -3.591
19.80000 -3.049
19.82000 0.507
19.84000 1.495
19.86000 -0.246
19.88000 1.366
19.90000 11.193
19.92000 1.491
19.94000 -0.659
19.96000 2.988
19.98000 5.919
20.00000 6.459
20.02000 5.961
20.04000 4.220
20.06000 -0.592
20.08000 -2.796
20.10000 1.457
20.12000 -2.082
20.14000 -1.800
20.16000 1.012
20.18000 2.233
20.20000 3.227
20.22000 1.568
20.24000 3.438
20.26000 5.983
20.28000 4.221
20.30000 0.116
20.32000 4.503
20.34000 4.081
20.36000 1.087
20.38000 1.477
20.40000 0.926
20.42000 7.978
20.44000 -0.397
20.46000 -1.523
20.48000 3.057
20.50000 5.873
20.52000 3.291
20.54000 7.061
20.56000 6.842
20.58000 12.076
20.60000 8.623
20.62000 6.595
20.64000 8.178
20.66000 7.217
20.68000 -0.155
20.70000 -4.155
20.72000 2.040
20.74000 1.946
20.76000 2.953
20.78000 7.113
20.80000 11.329
20.82000 14.537
20.84000 7.005
20.86000 5.510
20.88000 4.320
20.90000 4.287
20.92000 10.317
20.94000 13.411
20.96000 9.152
20.98000 6.125
21.00000 3.463
21.02000 9.637
21.04000 6.949
21.06000 -4.137
21.08000 -1.618
21.10000 8.074
21.12000 6.745
21.14000 2.078
21.16000 2.485
21.18000 2.084
21.20000 7.459
21.22000 0.500
21.24000 0.055
21.26000 9.071
21.28000 0.856
21.30000 -1.879
21.32000 5.685
21.34000 5.244
21.36000 0.428
21.38000 -0.984
21.40000 3.207
21.42000 3.780
21.44000 7.955
21.46000 6.401
21.48000 4.608
21.50000 2.344
21.52000 1.514
21.54000 3.415
21.56000 8.709
21.58000 10.000
21.60000 4.011
21.62000 0.427
21.64000 0.654
21.66000 3.568
21.68000 5.306
21.70000 8.174
21.72000 8.936
21.74000 9.445
21.76000 2.123
21.78000 4.089
21.80000 3.285
21.82000 5.460
21.84000 4.172
21.86000 8.965
21.88000 1.644
21.90000 2.937
21.92000 5.152
21.94000 9.384
21.96000 9.536
21.98000 5.917
22.00000 -0.015
22.02000 -2.503
22.04000 1.791
22.06000 5.953
22.08000 9.080
22.10000 6.059
22.12000 10.241
22.14000 8.842
22.16000 7.046
22.18000 4.937
22.20000 9.394
22.22000 9.092
22.24000 5.107
22.26000 -1.105
22.28000 -4.059
22.30000 0.176
22.32000 9.093
22.34000 8.227
22.36000 6.951
22.38000 8.970
22.40000 13.857
22.42000 4.222
22.44000 3.390
22.46000 10.293
22.48000 15.524
22.50000 9.739
22.52000 2.228
22.54000 -1.043
22.56000 6.498
22.58000 3.690
22.60000 5.367
22.62000 2.790
22.64000 1.084
22.66000 4.196
22.68000 9.947
22.70000 5.266
22.72000 -1.474
22.74000 -0.901
22.76000 2.492
22.78000 1.952
22.80000 -1.443
22.82000 -2.540
22.84000 2.743
22.86000 9.543
22.88000 6.125
22.90000 6.661
22.92000 4.886
22.94000 3.291
22.96000 1.796
22.98000 2.613
23.00000 6.834
23.02000 11.938
23.04000 6.452
23.06000 7.838
23.08000 1.880
23.10000 4.894
23.12000 1.438
23.14000 -1.001
23.16000 5.596
23.18000 1.388
23.20000 2.164
23.22000 7.878
23.24000 9.197
23.26000 3.492
23.28000 2.440
23.30000 4.178
23.32000 5.573
23.34000 0.841
23.36000 1.489
23.38000 0.735
23.40000 -0.186
23.42000 -2.699
23.44000 1.418
23.46000 2.901
23.48000 -1.829
23.50000 3.012
23.52000 0.788
23.54000 -2.084
23.56000 2.076
23.58000 5.056
23.60000 0.759
23.62000 3.747
23.64000 2.054
23.66000 -3.988
23.68000 -2.199
23.70000 6.554
23.72000 6.568
23.74000 7.632
23.76000 8.080
23.78000 4.445
23.80000 2.416
23.82000 1.424
23.84000 6.545
23.86000 5.549
23.88000 2.095
23.90000 -1.038
23.92000 4.273
23.94000 13.054
23.96000 11.584
23.98000 6.874
24.00000 4.846
24.02000 -0.050
24.04000 0.361
24.06000 3.805
24.08000 7.151
24.10000 4.943
24.12000 2.570
24.14000 1.715
24.16000 4.054
24.18000 -1.662
24.20000 0.583
24.22000 5.565
24.24000 1.461
24.26000 2.662
24.28000 1.187
24.30000 1.087
24.32000 0.156
24.34000 0.379
24.36000 7.495
24.38000 2.761
24.40000 3.922
24.42000 6.997
24.44000 8.249
24.46000 -1.925
24.48000 -2.058
24.50000 -0.243
24.52000 7.669
24.54000 4.881
24.56000 -2.300
24.58000 -2.026
24.60000 2.212
24.62000 0.458
24.64000 -3.315
24.66000 -2.602
24.68000 -0.504
24.70000 3.226
24.72000 1.758
24.74000 2.459
24.76000 7.453
24.78000 2.803
24.80000 4.439
24.82000 4.201
24.84000 1.809
24.86000 2.100
24.88000 3.872
24.90000 4.381
24.92000 2.883
24.94000 3.448
24.96000 -1.052
24.98000 1.258
25.00000 5.379
25.02000 0.454
25.04000 1.305
25.06000 -0.918
25.08000 -0.727
25.10000 3.171
25.12000 -0.767
25.14000 -1.862
25.16000 -0.665
25.18000 4.429
25.20000 1.513
25.22000 1.625
25.24000 3.486
25.26000 -1.606
25.28000 3.634
25.30000 4.764
25.32000 8.092
25.34000 2.589
25.36000 1.205
25.38000 3.370
25.40000 -0.624
25.42000 -2.523
25.44000 0.434
25.46000 1.734
25.48000 6.509
25.50000 4.834
25.52000 1.196
25.54000 -1.502
25.56000 -0.673
25.58000 -2.854
25.60000 3.723
25.62000 5.516
25.64000 4.596
25.66000 1.274
25.68000 -2.003
25.70000 3.911
25.72000 1.137
25.74000 5.287
25.76000 6.419
25.78000 3.658
25.80000 -1.689
25.82000 1.205
25.84000 -0.367
25.86000 1.476
25.88000 -1.408
25.90000 -3.883
25.92000 -1.321
25.94000 6.322
25.96000 9.669
25.98000 4.927
26.00000 2.455
26.02000 3.848
26.04000 2.844
26.06000 3.751
26.08000 5.905
26.10000 5.491
26.12000 5.436
26.14000 3.854
26.16000 3.155
26.18000 3.523
26.20000 6.359
26.22000 2.053
26.24000 -0.123
26.26000 -3.477
26.28000 -0.308
26.30000 1.288
26.32000 -2.855
26.34000 -1.854
26.36000 0.912
26.38000 -1.214
26.40000 4.802
26.42000 8.709
26.44000 3.673
26.46000 1.359
26.48000 0.196
26.50000 0.668
26.52000 -0.692
26.54000 4.049
26.56000 5.448
26.58000 4.701
26.60000 3.237
26.62000 4.572
26.64000 1.078
26.66000 3.898
26.68000 1.068
26.70000 1.717
26.72000 1.431
26.74000 1.325
26.76000 3.771
26.78000 1.430
26.80000 2.527
26.82000 1.705
26.84000 -2.994
26.86000 1.736
26.88000 5.814
26.90000 3.099
26.92000 1.087
26.94000 1.556
26.96000 -2.562
26.98000 6.543
27.00000 10.328
27.02000 2.247
27.04000 -3.822
27.06000 -2.172
27.08000 0.018
27.10000 4.519
27.12000 5.621
27.14000 5.380
27.16000 5.356
27.18000 -0.763
27.20000 -2.514
27.22000 3.025
27.24000 5.667
27.26000 5.069
27.28000 0.538
27.30000 -0.761
27.32000 9.271
27.34000 5.284
27.36000 6.229
27.38000 13.043
27.40000 11.411
27.42000 6.881
27.44000 2.575
27.46000 -3.170
27.48000 -1.184
27.50000 10.388
27.52000 3.282
27.54000 2.272
27.56000 12.678
27.58000 10.298
27.60000 0.955
27.62000 -0.460
27.64000 0.847
27.66000 1.230
27.68000 5.042
27.70000 6.968
27.72000 5.295
27.74000 -2.533
27.76000 -3.783
27.78000 -0.891
27.80000 4.093
27.82000 3.628
27.84000 2.335
27.86000 5.571
27.88000 -1.241
27.90000 -0.647
27.92000 -1.065
27.94000 2.054
27.96000 3.696
27.98000 5.074
28.00000 7.815
28.02000 6.259
28.04000 5.126
28.06000 3.038
28.08000 6.018
28.10000 7.136
28.12000 -2.252
28.14000 -3.769
28.16000 5.457
28.18000 6.783
28.20000 -1.360
28.22000 -0.586
28.24000 7.046
28.26000 2.931
28.28000 4.619
28.30000 7.135
28.32000 3.455
28.34000 4.309
28.36000 2.638
28.38000 2.804
28.40000 3.026
28.42000 3.371
28.44000 5.003
28.46000 2.127
28.48000 2.469
28.50000 5.998
28.52000 3.666
28.54000 1.576
28.56000 -0.569
28.58000 2.376
28.60000 3.315
28.62000 2.457
28.64000 -2.525
28.66000 -1.004
28.68000 2.054
28.70000 3.568
28.72000 -0.108
28.74000 -1.994
28.76000 -1.220
28.78000 3.195
28.80000 6.105
28.82000 3.556
28.84000 1.657
28.86000 -1.967
28.88000 -2.610
28.90000 0.000
28.92000 -0.162
28.94000 0.838
28.96000 5.145
28.98000 1.838
29.00000 0.912
29.02000 4.104
29.04000 4.100
29.06000 4.948
29.08000 7.764
29.10000 1.408
29.12000 -1.489
29.14000 -3.140
29.16000 1.236
29.18000 0.918
29.20000 -0.399
29.22000 -2.943
29.24000 -3.740
29.26000 -0.483
29.28000 1.673
29.30000 0.341
29.32000 3.237
29.34000 0.828
29.36000 -0.749
29.38000 2.224
29.40000 -1.559
29.42000 1.226
29.44000 0.235
29.46000 -2.293
29.48000 3.028
29.50000 -0.552
29.52000 6.116
29.54000 4.101
29.56000 1.598
29.58000 -1.106
29.60000 -2.865
29.62000 1.017
29.64000 1.193
29.66000 -1.046
29.68000 0.867
29.70000 -1.677
29.72000 -1.803
29.74000 -2.185
29.76000 2.242
29.78000 2.452
29.80000 5.825
29.82000 5.189
29.84000 0.685
29.86000 0.049
29.88000 0.122
29.90000 -3.700
29.92000 3.841
29.94000 3.137
29.96000 1.061
29.98000 3.411
30.00000 4.208
30.02000 1.220
30.04000 -0.982
30.06000 2.867
30.08000 -0.199
30.10000 -1.519
30.12000 -2.679
30.14000 -3.185
30.16000 1.782
30.18000 3.824
30.20000 4.438
30.22000 2.372
30.24000 0.311
30.26000 -1.007
30.28000 -0.716
30.30000 1.543
30.32000 1.981
30.34000 4.982
30.36000 -0.899
30.38000 -2.104
30.40000 1.897
30.42000 4.501
30.44000 5.233
30.46000 4.931
30.48000 0.140
30.50000 -3.058
30.52000 -0.995
30.54000 -3.411
30.56000 0.054
30.58000 1.881
30.60000 0.752
30.62000 -3.672
30.64000 -3.531
30.66000 -1.463
30.68000 -1.181
30.70000 -2.563
30.72000 0.796
30.74000 8.112
30.76000 5.589
30.78000 4.663
30.80000 3.884
30.82000 -1.473
30.84000 2.542
30.86000 0.665
30.88000 -0.265
30.90000 1.094
30.92000 0.131
30.94000 -2.138
30.96000 0.342
30.98000 -0.838
31.00000 0.715
31.02000 0.796
31.04000 -0.532
31.06000 2.618
31.08000 5.020
31.10000 1.772
31.12000 3.683
31.14000 -1.305
31.16000 0.266
31.18000 0.117
31.20000 2.989
31.22000 2.252
31.24000 -0.557
31.26000 1.606
31.28000 2.177
31.30000 0.805
31.32000 -3.630
31.34000 -2.001
31.36000 -1.642
31.38000 -0.116
31.40000 5.514
31.42000 3.809
31.44000 -0.508
31.46000 -0.651
31.48000 3.423
31.50000 2.528
31.52000 3.352
31.54000 4.538
31.56000 2.115
31.58000 2.257
31.60000 1.809
31.62000 2.221
31.64000 2.208
31.66000 1.898
31.68000 0.295
31.70000 8.167
31.72000 6.681
31.74000 7.755
31.76000 4.020
31.78000 3.108
31.80000 0.921
31.82000 -0.224
31.84000 -0.527
31.86000 -0.394
31.88000 -3.070
31.90000 -3.598
31.92000 5.895
31.94000 4.971
31.96000 1.375
31.98000 1.168
32.00000 5.378
32.02000 1.559
32.04000 -0.424
32.06000 1.933
32.08000 -1.625
32.10000 -3.590
32.12000 -0.292
32.14000 2.931
32.16000 2.468
32.18000 3.589
32.20000 5.248
32.22000 4.755
32.24000 3.359
32.26000 2.491
32.28000 4.539
32.30000 1.317
32.32000 1.894
32.34000 1.726
32.36000 -3.277
32.38000 1.054
32.40000 -3.068
32.42000 -0.392
32.44000 0.469
32.46000 2.186
32.48000 1.657
32.50000 6.367
32.52000 5.769
32.54000 4.164
32.56000 -0.272
32.58000 1.026
32.60000 2.900
32.62000 7.291
32.64000 6.868
32.66000 3.740
32.68000 0.297
32.70000 1.660
32.72000 5.258
32.74000 3.949
32.76000 6.407
32.78000 1.858
32.80000 1.941
32.82000 -0.271
32.84000 -3.549
32.86000 4.290
32.88000 5.718
32.90000 7.897
32.92000 3.017
32.94000 0.564
32.96000 2.076
32.98000 6.319
33.00000 3.882
33.02000 2.555
33.04000 9.912
33.06000 6.599
33.08000 2.492
33.10000 -0.025
33.12000 4.406
33.14000 4.754
33.16000 3.635
33.18000 -0.308
33.20000 2.273
33.22000 2.488
33.24000 3.976
33.26000 7.072
33.28000 5.248
33.30000 5.530
33.32000 8.666
33.34000 4.907
33.36000 3.062
33.38000 2.082
33.40000 1.134
33.42000 1.347
33.44000 -0.972
33.46000 3.165
33.48000 9.239
33.50000 8.152
33.52000 4.470
33.54000 5.991
33.56000 6.690
33.58000 6.409
33.60000 7.413
33.62000 6.055
33.64000 -3.530
33.66000 -2.388
33.68000 8.468
33.70000 0.801
33.72000 -2.196
33.74000 2.160
33.76000 2.182
33.78000 7.983
33.80000 5.921
33.82000 3.148
33.84000 -0.238
33.86000 3.957
33.88000 1.781
33.90000 1.260
33.92000 5.137
33.94000 5.642
33.96000 4.736
33.98000 7.535
34.00000 1.794
34.02000 -3.529
34.04000 7.376
34.06000 11.469
34.08000 3.743
34.10000 3.557
34.12000 -3.051
34.14000 -2.716
34.16000 2.590
34.18000 1.427
34.20000 7.213
34.22000 5.183
34.24000 0.305
34.26000 2.954
34.28000 5.065
34.30000 4.474
34.32000 7.230
34.34000 8.982
34.36000 5.706
34.38000 5.314
34.40000 5.261
34.42000 0.896
34.44000 3.110
34.46000 3.256
34.48000 1.934
34.50000 5.021
34.52000 7.670
34.54000 9.828
34.56000 8.306
34.58000 6.179
34.60000 5.191
34.62000 3.547
34.64000 2.096
34.66000 1.275
34.68000 5.529
34.70000 0.506
34.72000 3.125
34.74000 3.599
34.76000 5.102
34.78000 1.028
34.80000 3.792
34.82000 2.137
34.84000 7.697
34.86000 10.368
34.88000 4.834
34.90000 5.599
34.92000 4.235
34.94000 3.748
34.96000 2.673
34.98000 0.202
35.00000 0.102
35.02000 3.136
35.04000 3.053
35.06000 3.665
35.08000 2.242
35.10000 0.814
35.12000 -3.489
35.14000 -0.892
35.16000 0.818
35.18000 1.626
35.20000 1.369
35.22000 2.662
35.24000 6.968
35.26000 7.439
35.28000 2.794
35.30000 6.520
35.32000 0.972
35.34000 4.234
35.36000 7.997
35.38000 4.876
35.40000 0.686
35.42000 -0.650
35.44000 4.162
35.46000 8.500
35.48000 8.418
35.50000 3.235
35.52000 4.139
35.54000 4.825
35.56000 1.517
35.58000 6.825
35.60000 8.664
35.62000 5.212
35.64000 3.133
35.66000 1.428
35.68000 -1.494
35.70000 -3.462
35.72000 2.222
35.74000 5.548
35.76000 2.358
35.78000 1.882
35.80000 5.056
35.82000 5.311
35.84000 4.720
35.86000 3.459
35.88000 5.551
35.90000 4.373
35.92000 5.766
35.94000 7.108
35.96000 2.118
35.98000 0.828
36.00000 1.436
36.02000 1.666
36.04000 1.715
36.06000 0.556
36.08000 4.380
36.10000 7.922
36.12000 5.263
36.14000 2.045
36.16000 2.526
36.18000 0.840
36.20000 2.724
36.22000 1.829
36.24000 4.061
36.26000 4.669
36.28000 -0.384
36.30000 -1.583
36.32000 0.270
36.34000 2.800
36.36000 3.980
36.38000 5.331
36.40000 0.046
36.42000 -3.485
36.44000 0.749
36.46000 2.839
36.48000 2.276
36.50000 3.400
36.52000 6.440
36.54000 6.006
36.56000 4.137
36.58000 5.040
36.60000 6.932
36.62000 3.483
36.64000 3.498
36.66000 1.222
36.68000 0.739
36.70000 1.498
36.72000 1.010
36.74000 1.539
36.76000 2.243
36.78000 -0.736
36.80000 4.019
36.82000 3.964
36.84000 3.791
36.86000 6.343
36.88000 7.277
36.90000 0.926
36.92000 3.647
36.94000 0.765
36.96000 7.754
36.98000 9.857
37.00000 6.295
37.02000 -3.506
37.04000 -1.831
37.06000 2.294
37.08000 1.943
37.10000 0.554
37.12000 3.404
37.14000 5.314
37.16000 0.951
37.18000 1.107
37.20000 2.532
37.22000 0.137
37.24000 0.703
37.26000 4.280
37.28000 2.254
37.30000 6.585
37.32000 3.614
37.34000 0.685
37.36000 -2.117
37.38000 0.881
37.40000 2.047
37.42000 -2.435
37.44000 -0.911
37.46000 0.821
37.48000 -0.073
37.50000 4.598
37.52000 4.201
37.54000 6.585
37.56000 2.893
37.58000 -1.746
37.60000 -0.816
37.62000 1.827
37.64000 5.092
37.66000 3.008
37.68000 1.539
37.70000 0.422
37.72000 1.348
37.74000 5.963
37.76000 5.931
37.78000 4.689
37.80000 3.742
37.82000 1.853
37.84000 5.246
37.86000 2.419
37.88000 1.785
37.90000 3.774
37.92000 2.502
37.94000 3.699
37.96000 2.061
37.98000 4.442
38.00000 4.161
38.02000 5.777
38.04000 8.088
38.06000 8.151
38.08000 7.217
38.10000 6.752
38.12000 6.325
38.14000 4.096
38.16000 5.459
38.18000 7.440
38.20000 7.678
38.22000 8.822
38.24000 10.527
38.26000 11.403
38.28000 10.809
38.30000 8.170
38.32000 7.543
38.34000 12.435
38.36000 15.103
38.38000 20.233
38.40000 18.336
38.42000 14.430
38.44000 12.367
38.46000 7.871
38.48000 11.606
38.50000 15.459
38.52000 17.082
38.54000 12.960
38.56000 14.237
38.58000 16.093
38.60000 18.644
38.62000 14.100
38.64000 13.503
38.66000 13.527
38.68000 19.239
38.70000 19.499
38.72000 17.438
38.74000 22.066
38.76000 21.432
38.78000 22.001
38.80000 20.827
38.82000 21.162
38.84000 22.464
38.86000 21.720
38.88000 27.188
38.90000 30.393
38.92000 33.284
38.94000 28.719
38.96000 27.246
38.98000 32.049
39.00000 32.098
39.02000 33.768
39.04000 33.899
39.06000 36.419
39.08000 30.357
39.10000 34.540
39.12000 35.626
39.14000 36.650
39.16000 38.258
39.18000 39.916
39.20000 47.123
39.22000 51.876
39.24000 49.176
39.26000 50.477
39.28000 53.096
39.30000 57.964
39.32000 58.248
39.34000 62.197
39.36000 62.814
39.38000 64.425
39.40000 73.621
39.42000 74.539
39.44000 78.981
39.46000 77.739
39.48000 75.387
39.50000 77.958
39.52000 86.163
39.54000 88.025
39.56000 94.211
39.58000 107.493
39.60000 111.947
39.62000 116.112
39.64000 121.812
39.66000 128.551
39.68000 127.990
39.70000 131.655
39.72000 139.565
39.74000 148.504
39.76000 165.488
39.78000 173.217
39.80000 176.161
39.82000 180.330
39.84000 192.951
39.86000 206.972
39.88000 213.481
39.90000 226.369
39.92000 242.114
39.94000 257.174
39.96000 264.186
39.98000 272.670
40.00000 284.377
40.02000 295.337
40.04000 305.248
40.06000 321.131
40.08000 347.231
40.10000 360.469
40.12000 374.612
40.14000 399.299
40.16000 411.484
40.18000 414.956
40.20000 433.284
40.22000 449.392
40.24000 465.227
40.26000 484.668
40.28000 503.072
40.30000 512.206
40.32000 507.937
40.34000 522.109
40.36000 535.468
40.38000 538.583
40.40000 550.593
40.42000 547.061
40.44000 556.377
40.46000 562.300
40.48000 565.903
40.50000 555.065
40.52000 557.472
40.54000 556.199
40.56000 544.502
40.58000 535.956
40.60000 535.851
40.62000 533.737
40.64000 520.090
40.66000 489.960
40.68000 477.905
40.70000 472.304
40.72000 457.069
40.74000 445.913
40.76000 432.077
40.78000 410.652
40.80000 404.652
40.82000 384.822
40.84000 366.506
40.86000 348.396
40.88000 336.165
40.90000 327.534
40.92000 315.526
40.94000 304.896
40.96000 284.875
40.98000 267.583
41.00000 252.574
41.02000 240.342
41.04000 231.152
41.06000 223.669
41.08000 209.585
41.10000 198.405
41.12000 187.383
41.14000 174.766
41.16000 172.383
41.18000 161.892
41.20000 152.865
41.22000 152.975
41.24000 139.700
41.26000 127.475
41.28000 115.098
41.30000 109.989
41.32000 108.262
41.34000 105.713
41.36000 102.350
41.38000 96.189
41.40000 90.094
41.42000 85.370
41.44000 76.451
41.46000 70.793
41.48000 69.625
41.50000 64.276
41.52000 56.919
41.54000 53.566
41.56000 54.794
41.58000 49.341
41.60000 49.494
41.62000 49.831
41.64000 46.699
41.66000 43.808
41.68000 38.797
41.70000 37.080
41.72000 38.952
41.74000 37.455
41.76000 33.341
41.78000 34.372
41.80000 34.784
41.82000 30.421
41.84000 25.928
41.86000 26.777
41.88000 25.469
41.90000 22.959
41.92000 22.185
41.94000 24.421
41.96000 17.679
41.98000 22.798
42.00000 22.291
42.02000 19.770
42.04000 15.713
42.06000 15.713
42.08000 13.396
42.10000 18.409
42.12000 16.869
42.14000 16.881
42.16000 14.043
42.18000 17.187
42.20000 16.118
42.22000 11.651
42.24000 7.267
42.26000 10.898
42.28000 12.883
42.30000 7.561
42.32000 4.125
42.34000 1.934
42.36000 5.129
42.38000 4.436
42.40000 6.540
42.42000 6.562
42.44000 6.861
42.46000 8.383
42.48000 5.326
42.50000 10.888
42.52000 11.893
42.54000 4.573
42.56000 2.925
42.58000 8.627
42.60000 7.998
42.62000 7.015
42.64000 7.305
42.66000 1.670
42.68000 3.472
42.70000 5.343
42.72000 4.559
42.74000 0.073
42.76000 2.088
42.78000 3.646
42.80000 1.920
42.82000 0.000
42.84000 1.631
42.86000 2.672
42.88000 -0.188
42.90000 0.406
42.92000 2.723
42.94000 1.373
42.96000 0.322
42.98000 2.907
43.00000 1.221
43.02000 -2.005
43.04000 -2.570
43.06000 0.511
43.08000 5.126
43.10000 5.446
43.12000 0.699
43.14000 -1.383
43.16000 -0.638
43.18000 -3.487
43.20000 -3.423
43.22000 -0.947
43.24000 1.338
43.26000 2.057
43.28000 3.753
43.30000 0.805
43.32000 -0.369
43.34000 1.385
43.36000 3.088
43.38000 1.774
43.40000 2.439
43.42000 3.111
43.44000 5.415
43.46000 0.873
43.48000 -0.066
43.50000 0.773
43.52000 0.845
43.54000 1.138
43.56000 0.206
43.58000 0.757
43.60000 -0.181
43.62000 0.024
43.64000 2.495
43.66000 5.709
43.68000 2.557
43.70000 4.153
43.72000 -0.952
43.74000 0.456
43.76000 1.076
43.78000 -0.210
43.80000 2.542
43.82000 3.976
43.84000 4.951
43.86000 -0.107
43.88000 0.259
43.90000 -3.431
43.92000 1.104
43.94000 4.788
43.96000 3.717
43.98000 3.360
44.00000 -0.306
44.02000 -0.556
44.04000 -0.784
44.06000 1.912
44.08000 4.122
44.10000 1.234
44.12000 3.955
44.14000 -3.421
44.16000 0.477
44.18000 2.653
44.20000 4.072
44.22000 5.601
44.24000 -1.776
44.26000 -1.124
44.28000 3.057
44.30000 5.601
44.32000 2.146
44.34000 2.211
44.36000 -0.079
44.38000 5.454
44.40000 4.748
44.42000 2.794
44.44000 -0.076
44.46000 -3.415
44.48000 -0.984
44.50000 0.728
44.52000 3.571
44.54000 5.833
44.56000 -0.580
44.58000 2.877
44.60000 -0.181
44.62000 -1.970
44.64000 -0.877
44.66000 -0.411
44.68000 -2.711
44.70000 -2.005
44.72000 0.420
44.74000 2.935
44.76000 6.189
44.78000 1.875
44.80000 0.004
44.82000 -0.400
44.84000 5.069
44.86000 3.738
44.88000 3.341
44.90000 -1.297
44.92000 -3.291
44.94000 2.649
44.96000 5.054
44.98000 5.942
45.00000 0.104
45.02000 1.114
45.04000 4.715
45.06000 4.985
45.08000 5.745
45.10000 6.461
45.12000 3.241
45.14000 2.931
45.16000 5.228
45.18000 6.298
45.20000 6.909
45.22000 5.667
45.24000 8.100
45.26000 1.140
45.28000 0.089
45.30000 4.541
45.32000 5.797
45.34000 3.326
45.36000 4.871
45.38000 5.976
45.40000 5.307
45.42000 7.596
45.44000 5.490
45.46000 6.257
45.48000 8.586
45.50000 8.984
45.52000 8.973
45.54000 13.193
45.56000 13.744
45.58000 13.493
45.60000 13.544
45.62000 12.704
45.64000 14.963
45.66000 10.928
45.68000 10.992
45.70000 11.710
45.72000 9.718
45.74000 10.297
45.76000 16.470
45.78000 10.483
45.80000 15.316
45.82000 19.432
45.84000 24.659
45.86000 23.541
45.88000 21.857
45.90000 25.635
45.92000 33.013
45.94000 30.387
45.96000 24.645
45.98000 26.068
46.00000 31.616
46.02000 28.883
46.04000 31.101
46.06000 26.338
46.08000 26.988
46.10000 30.150
46.12000 34.830
46.14000 34.461
46.16000 31.904
46.18000 37.014
46.20000 38.253
46.22000 42.029
46.24000 39.143
46.26000 40.843
46.28000 37.744
46.30000 35.153
46.32000 40.851
46.34000 47.448
46.36000 46.559
46.38000 46.279
46.40000 49.876
46.42000 52.245
46.44000 46.668
46.46000 49.744
46.48000 58.869
46.50000 57.718
46.52000 57.515
46.54000 58.783
46.56000 55.803
46.58000 56.925
46.60000 60.619
46.62000 62.778
46.64000 64.769
46.66000 67.335
46.68000 73.684
46.70000 74.565
46.72000 74.006
46.74000 72.917
46.76000 74.966
46.78000 76.761
46.80000 74.907
46.82000 72.924
46.84000 70.128
46.86000 77.274
46.88000 76.188
46.90000 80.004
46.92000 84.851
46.94000 80.352
46.96000 84.687
46.98000 80.735
47.00000 77.837
47.02000 79.663
47.04000 86.317
47.06000 85.645
47.08000 85.232
47.10000 75.979
47.12000 82.688
47.14000 77.487
47.16000 82.133
47.18000 82.787
47.20000 82.471
47.22000 88.040
47.24000 86.843
47.26000 80.192
47.28000 81.897
47.30000 80.614
47.32000 79.264
47.34000 69.334
47.36000 68.935
47.38000 76.753
47.40000 82.936
47.42000 77.360
47.44000 71.414
47.46000 71.873
47.48000 69.553
47.50000 68.996
47.52000 63.687
47.54000 64.025
47.56000 56.793
47.58000 59.146
47.60000 54.455
47.62000 57.849
47.64000 51.719
47.66000 49.477
47.68000 47.882
47.70000 44.072
47.72000 42.017
47.74000 51.013
47.76000 41.985
47.78000 38.640
47.80000 39.217
47.82000 38.756
47.84000 34.257
47.86000 32.545
47.88000 34.802
47.90000 33.760
47.92000 28.878
47.94000 34.010
47.96000 31.346
47.98000 28.778
48.00000 30.806
48.02000 24.190
48.04000 22.502
48.06000 21.475
48.08000 20.462
48.10000 18.181
48.12000 21.942
48.14000 19.415
48.16000 20.368
48.18000 23.959
48.20000 20.619
48.22000 14.077
48.24000 14.828
48.26000 16.299
48.28000 13.930
48.30000 12.452
48.32000 14.265
48.34000 12.353
48.36000 9.835
48.38000 14.144
48.40000 10.736
48.42000 10.770
48.44000 9.567
48.46000 11.558
48.48000 8.469
48.50000 12.146
48.52000 10.985
48.54000 5.582
48.56000 7.602
48.58000 6.825
48.60000 4.608
48.62000 4.446
48.64000 5.516
48.66000 4.406
48.68000 3.688
48.70000 8.279
48.72000 10.598
48.74000 9.598
48.76000 7.671
48.78000 0.897
48.80000 -2.129
48.82000 4.547
48.84000 3.070
48.86000 -2.780
48.88000 4.990
48.90000 11.124
48.92000 3.490
48.94000 4.367
48.96000 3.601
48.98000 0.948
49.00000 0.485
49.02000 -3.076
49.04000 0.469
49.06000 3.088
49.08000 4.712
49.10000 4.730
49.12000 2.661
49.14000 3.585
49.16000 3.948
49.18000 4.339
49.20000 5.327
49.22000 4.041
49.24000 4.229
49.26000 -0.887
49.28000 1.913
49.30000 5.807
49.32000 3.853
49.34000 1.214
49.36000 -2.785
49.38000 -0.050
49.40000 3.503
49.42000 -3.020
49.44000 0.526
49.46000 1.607
49.48000 1.674
49.50000 1.948
49.52000 -1.630
49.54000 0.087
49.56000 4.111
49.58000 4.863
49.60000 -2.096
49.62000 -0.908
49.64000 -1.013
49.66000 3.252
49.68000 3.445
49.70000 2.975
49.72000 4.022
49.74000 3.701
49.76000 0.357
49.78000 1.350
49.80000 4.506
49.82000 3.799
49.84000 1.580
49.86000 1.217
49.88000 4.423
49.90000 4.270
49.92000 0.798
49.94000 -2.618
49.96000 1.203
49.98000 1.300
50.00000 1.555
50.02000 3.835
50.04000 3.443
50.06000 1.695
50.08000 2.918
50.10000 0.019
50.12000 2.765
50.14000 8.173
50.16000 6.727
50.18000 5.007
50.20000 2.849
50.22000 3.927
50.24000 4.817
50.26000 6.306
50.28000 3.619
50.30000 0.262
50.32000 4.811
50.34000 6.041
50.36000 5.502
50.38000 2.022
50.40000 -2.902
50.42000 0.230
50.44000 6.489
50.46000 7.530
50.48000 1.911
50.50000 -1.295
50.52000 3.281
50.54000 3.194
50.56000 -2.895
50.58000 2.668
50.60000 3.296
50.62000 9.285
50.64000 7.364
50.66000 9.923
50.68000 4.452
50.70000 -0.383
50.72000 -1.304
50.74000 -1.090
50.76000 -1.372
50.78000 1.001
50.80000 1.218
50.82000 -0.640
50.84000 1.231
50.86000 2.351
50.88000 1.974
50.90000 1.682
50.92000 5.977
50.94000 8.190
50.96000 1.467
50.98000 -0.457
51.00000 5.219
51.02000 0.771
51.04000 0.841
51.06000 3.430
51.08000 -0.280
51.10000 -0.898
51.12000 2.673
51.14000 3.536
51.16000 2.857
51.18000 2.448
51.20000 0.829
51.22000 0.000
51.24000 5.991
51.26000 6.865
51.28000 7.850
51.30000 2.639
51.32000 -1.041
51.34000 6.442
51.36000 6.925
51.38000 2.373
51.40000 -2.837
51.42000 4.615
51.44000 8.601
51.46000 8.320
51.48000 6.491
51.50000 8.252
51.52000 6.580
51.54000 6.627
51.56000 7.074
51.58000 2.159
51.60000 1.703
51.62000 1.514
51.64000 4.372
51.66000 8.013
51.68000 5.366
51.70000 5.325
51.72000 5.907
51.74000 0.854
51.76000 1.639
51.78000 -2.282
51.80000 -1.194
51.82000 1.261
51.84000 3.393
51.86000 3.203
51.88000 0.302
51.90000 -0.519
51.92000 -0.537
51.94000 3.768
51.96000 8.230
51.98000 5.425
52.00000 0.500
52.02000 3.664
52.04000 -1.743
52.06000 -1.004
52.08000 -0.985
52.10000 -0.987
52.12000 -1.646
52.14000 -2.845
52.16000 2.526
52.18000 -0.340
52.20000 1.886
52.22000 4.585
52.24000 5.743
52.26000 7.776
52.28000 4.346
52.30000 7.963
52.32000 7.044
52.34000 3.005
52.36000 0.363
52.38000 2.486
52.40000 0.231
52.42000 0.715
52.44000 5.007
52.46000 3.367
52.48000 -2.703
52.50000 -0.744
52.52000 6.556
52.54000 3.810
52.56000 -1.185
52.58000 -0.427
52.60000 3.099
52.62000 -0.744
52.64000 3.230
52.66000 0.329
52.68000 0.120
52.70000 1.474
52.72000 3.072
52.74000 2.322
52.76000 3.529
52.78000 4.365
52.80000 2.222
52.82000 2.664
52.84000 -0.071
52.86000 -2.830
52.88000 -1.305
52.90000 0.072
52.92000 1.631
52.94000 3.513
52.96000 1.476
52.98000 1.184
53.00000 2.069
53.02000 -2.394
53.04000 -0.540
53.06000 4.343
53.08000 4.030
53.10000 1.282
53.12000 -1.291
53.14000 -1.830
53.16000 0.262
53.18000 1.142
53.20000 3.109
53.22000 -0.202
53.24000 0.803
53.26000 0.131
53.28000 -2.813
53.30000 -2.469
53.32000 -0.404
53.34000 0.739
53.36000 -1.618
53.38000 -2.150
53.40000 -0.973
53.42000 2.185
53.44000 -1.614
53.46000 -1.331
53.48000 -2.783
53.50000 -1.560
53.52000 1.404
53.54000 5.537
53.56000 2.438
53.58000 2.488
53.60000 2.030
53.62000 4.104
53.64000 -0.102
53.66000 3.560
53.68000 1.458
53.70000 -0.852
53.72000 -0.291
53.74000 -0.959
53.76000 -2.069
53.78000 -1.882
53.80000 1.638
53.82000 3.294
53.84000 2.699
53.86000 -0.132
53.88000 0.061
53.90000 -0.831
53.92000 -0.274
53.94000 1.100
53.96000 3.437
53.98000 2.740
54.00000 -1.652
54.02000 -2.786
54.04000 -1.513
54.06000 0.084
54.08000 3.756
54.10000 5.361
54.12000 3.650
54.14000 0.749
54.16000 2.255
54.18000 3.146
54.20000 1.110
54.22000 -0.105
54.24000 -2.738
54.26000 -2.465
54.28000 -0.805
54.30000 3.308
54.32000 4.916
54.34000 2.462
54.36000 4.516
54.38000 1.257
54.40000 3.116
54.42000 3.789
54.44000 4.111
54.46000 3.031
54.48000 1.338
54.50000 -1.778
54.52000 -1.818
54.54000 -0.510
54.56000 0.156
54.58000 -2.773
54.60000 0.153
54.62000 5.409
54.64000 2.404
54.66000 4.938
54.68000 2.689
54.70000 -0.881
54.72000 -0.148
54.74000 2.027
54.76000 0.321
54.78000 -1.244
54.80000 -0.519
54.82000 4.633
54.84000 4.616
54.86000 -1.507
54.88000 -0.349
54.90000 -1.272
54.92000 -2.150
54.94000 -2.411
54.96000 -0.914
54.98000 1.105
55.00000 1.891
55.02000 1.149
55.04000 1.363
55.06000 2.554
55.08000 3.967
55.10000 2.186
55.12000 1.843
55.14000 3.117
55.16000 3.135
55.18000 1.386
55.20000 0.683
55.22000 -2.740
55.24000 -1.393
55.26000 2.821
55.28000 6.383
55.30000 4.778
55.32000 3.014
55.34000 0.895
55.36000 4.793
55.38000 4.080
55.40000 1.279
55.42000 0.343
55.44000 2.933
55.46000 4.347
55.48000 6.977
55.50000 7.116
55.52000 7.299
55.54000 6.498
55.56000 2.462
55.58000 -2.720
55.60000 -2.323
55.62000 -2.004
55.64000 -1.218
55.66000 -0.136
55.68000 -0.264
55.70000 2.242
55.72000 1.507
55.74000 -1.369
55.76000 4.940
55.78000 3.408
55.80000 6.614
55.82000 5.017
55.84000 3.904
55.86000 2.820
55.88000 5.772
55.90000 2.154
55.92000 -1.207
55.94000 -1.305
55.96000 8.677
55.98000 8.255
56.00000 3.517
56.02000 3.968
56.04000 1.929
56.06000 6.819
56.08000 7.926
56.10000 1.488
56.12000 -0.754
56.14000 1.787
56.16000 3.227
56.18000 3.428
56.20000 2.053
56.22000 0.929
56.24000 6.006
56.26000 3.947
56.28000 1.965
56.30000 -0.473
56.32000 2.114
56.34000 7.189
56.36000 3.219
56.38000 -0.518
56.40000 -2.698
56.42000 -0.660
56.44000 -0.015
56.46000 8.134
56.48000 5.880
56.50000 1.572
56.52000 -0.186
56.54000 2.640
56.56000 3.480
56.58000 5.796
56.60000 6.751
56.62000 4.212
56.64000 3.790
56.66000 1.118
56.68000 5.563
56.70000 0.380
56.72000 1.371
56.74000 7.153
56.76000 4.040
56.78000 2.127
56.80000 5.905
56.82000 1.212
56.84000 -0.510
56.86000 0.637
56.88000 -2.643
56.90000 -0.143
56.92000 -1.904
56.94000 2.454
56.96000 4.047
56.98000 2.513
57.00000 5.701
57.02000 0.764
57.04000 -2.637
57.06000 -2.691
57.08000 3.073
57.10000 4.547
57.12000 4.485
57.14000 6.843
57.16000 2.634
57.18000 2.431
57.20000 1.217
57.22000 5.215
57.24000 3.236
57.26000 -0.990
57.28000 1.910
57.30000 -0.047
57.32000 0.654
57.34000 0.577
57.36000 -0.366
57.38000 4.989
57.40000 3.319
57.42000 4.125
57.44000 2.379
57.46000 5.899
57.48000 4.095
57.50000 3.199
57.52000 2.771
57.54000 3.794
57.56000 0.396
57.58000 7.155
57.60000 5.402
57.62000 0.280
57.64000 0.515
57.66000 3.784
57.68000 1.401
57.70000 0.415
57.72000 0.965
57.74000 -0.345
57.76000 -0.660
57.78000 4.502
57.80000 0.574
57.82000 -0.082
57.84000 5.783
57.86000 7.836
57.88000 1.110
57.90000 -0.095
57.92000 -0.564
57.94000 3.839
57.96000 -0.867
57.98000 -2.668
58.00000 -0.042
58.02000 1.120
58.04000 2.219
58.06000 4.451
58.08000 -2.502
58.10000 0.394
58.12000 3.322
58.14000 2.397
58.16000 2.095
58.18000 2.544
58.20000 -0.125
58.22000 2.620
58.24000 2.581
58.26000 3.049
58.28000 4.791
58.30000 0.083
58.32000 2.847
58.34000 4.800
58.36000 3.031
58.38000 0.269
58.40000 0.397
58.42000 1.509
58.44000 0.054
58.46000 1.786
58.48000 4.325
58.50000 2.914
58.52000 2.898
58.54000 1.533
58.56000 0.533
58.58000 -2.649
58.60000 0.149
58.62000 -1.271
58.64000 0.414
58.66000 2.058
58.68000 -0.217
58.70000 3.393
58.72000 9.626
58.74000 3.822
58.76000 -0.948
58.78000 -1.703
58.80000 1.218
58.82000 4.168
58.84000 0.703
58.86000 -0.282
58.88000 -1.586
58.90000 -0.250
58.92000 -0.381
58.94000 0.651
58.96000 1.783
58.98000 0.219
59.00000 2.048
59.02000 3.473
59.04000 4.125
59.06000 0.901
59.08000 0.736
59.10000 -2.642
59.12000 2.935
59.14000 4.798
59.16000 1.564
59.18000 0.980
59.20000 5.329
59.22000 3.505
59.24000 4.174
59.26000 1.410
59.28000 0.313
59.30000 -1.956
59.32000 -1.245
59.34000 3.230
59.36000 0.975
59.38000 1.563
59.40000 -0.028
59.42000 -1.327
59.44000 0.934
59.46000 2.486
59.48000 0.754
59.50000 2.164
59.52000 1.636
59.54000 3.322
59.56000 5.528
59.58000 3.883
59.60000 0.988
59.62000 -0.858
59.64000 1.114
59.66000 6.592
59.68000 4.709
59.70000 3.092
59.72000 0.381
59.74000 0.972
59.76000 1.096
59.78000 2.378
59.80000 3.389
59.82000 3.609
59.84000 3.337
59.86000 3.812
59.88000 2.283
59.90000 3.614
59.92000 6.340
59.94000 4.609
59.96000 1.280
59.98000 0.138
60.00000 -2.145
60.02000 0.757
60.04000 7.741
60.06000 7.698
60.08000 4.300
60.10000 -1.301
60.12000 -2.578
60.14000 -1.384
60.16000 8.437
60.18000 10.229
60.20000 10.157
60.22000 5.640
60.24000 5.547
60.26000 5.853
60.28000 1.880
60.30000 -1.236
60.32000 -0.350
60.34000 1.479
60.36000 1.969
60.38000 0.321
60.40000 3.339
60.42000 0.449
60.44000 1.608
60.46000 1.821
60.48000 2.052
60.50000 1.452
60.52000 4.553
60.54000 2.375
60.56000 1.903
60.58000 3.734
60.60000 3.043
60.62000 6.971
60.64000 6.255
60.66000 6.102
60.68000 6.699
60.70000 3.426
60.72000 3.055
60.74000 3.600
60.76000 7.603
60.78000 3.629
60.80000 0.169
60.82000 -2.080
60.84000 -2.504
60.86000 -1.386
60.88000 -2.553
60.90000 2.510
60.92000 1.445
60.94000 4.222
60.96000 8.812
60.98000 7.305
61.00000 3.708
61.02000 3.245
61.04000 3.588
61.06000 2.840
61.08000 5.580
61.10000 2.395
61.12000 0.966
61.14000 0.167
61.16000 3.810
61.18000 3.667
61.20000 6.910
61.22000 0.727
61.24000 0.316
61.26000 5.378
61.28000 6.368
61.30000 5.835
61.32000 2.176
61.34000 -1.262
61.36000 5.216
61.38000 6.281
61.40000 6.286
61.42000 4.516
61.44000 3.735
61.46000 1.293
61.48000 1.695
61.50000 6.563
61.52000 6.822
61.54000 9.346
61.56000 3.583
61.58000 3.833
61.60000 4.305
61.62000 3.753
61.64000 5.765
61.66000 2.535
61.68000 0.226
61.70000 -2.515
61.72000 2.358
61.74000 6.802
61.76000 8.027
61.78000 3.557
61.80000 2.069
61.82000 3.077
61.84000 6.105
61.86000 6.361
61.88000 4.846
61.90000 8.597
61.92000 3.079
61.94000 1.050
61.96000 1.959
61.98000 4.476
62.00000 4.670
62.02000 5.192
62.04000 4.141
62.06000 1.820
62.08000 7.775
62.10000 4.805
62.12000 5.630
62.14000 4.195
62.16000 1.507
62.18000 5.268
62.20000 5.049
62.22000 4.825
62.24000 1.321
62.26000 0.420
62.28000 1.535
62.30000 4.662
62.32000 5.928
62.34000 5.247
62.36000 2.942
62.38000 0.528
62.40000 -2.497
62.42000 -0.901
62.44000 0.928
62.46000 2.984
62.48000 4.788
62.50000 4.588
62.52000 3.771
62.54000 1.862
62.56000 5.229
62.58000 7.515
62.60000 6.045
62.62000 3.140
62.64000 4.882
62.66000 3.419
62.68000 3.238
62.70000 6.966
62.72000 4.116
62.74000 1.816
62.76000 4.073
62.78000 4.396
62.80000 8.980
62.82000 5.865
62.84000 3.652
62.86000 0.556
62.88000 -1.103
62.90000 4.363
62.92000 0.894
62.94000 2.828
62.96000 1.972
62.98000 5.459
63.00000 4.794
63.02000 3.992
63.04000 0.568
63.06000 1.626
63.08000 1.882
63.10000 3.659
63.12000 3.824
63.14000 3.618
63.16000 3.929
63.18000 2.556
63.20000 -0.395
63.22000 4.673
63.24000 3.048
63.26000 1.435
63.28000 0.720
63.30000 0.664
63.32000 2.450
63.34000 4.602
63.36000 4.318
63.38000 3.747
63.40000 1.734
63.42000 4.172
63.44000 6.912
63.46000 6.867
63.48000 4.987
63.50000 3.946
63.52000 2.784
63.54000 5.282
63.56000 2.778
63.58000 2.756
63.60000 6.108
63.62000 4.706
63.64000 4.489
63.66000 -0.204
63.68000 -2.498
63.70000 0.205
63.72000 -0.898
63.74000 3.933
63.76000 3.717
63.78000 2.684
63.80000 1.047
63.82000 4.820
63.84000 2.942
63.86000 2.061
63.88000 -0.093
63.90000 5.370
63.92000 3.326
63.94000 2.642
63.96000 4.896
63.98000 5.468
64.00000 5.175
64.02000 1.272
64.04000 -1.807
64.06000 0.200
64.08000 3.649
64.10000 2.671
64.12000 4.108
64.14000 3.269
64.16000 3.986
64.18000 0.841
64.20000 4.245
64.22000 4.759
64.24000 4.158
64.26000 0.870
64.28000 5.546
64.30000 3.472
64.32000 3.729
64.34000 6.103
64.36000 5.490
64.38000 6.731
64.40000 5.334
64.42000 6.005
64.44000 5.770
64.46000 3.995
64.48000 4.015
64.50000 6.303
64.52000 2.027
64.54000 2.402
64.56000 1.222
64.58000 0.382
64.60000 -1.340
64.62000 0.369
64.64000 0.672
64.66000 2.278
64.68000 -2.498
64.70000 -0.815
64.72000 0.696
64.74000 4.150
64.76000 4.619
64.78000 5.965
64.80000 4.207
64.82000 5.420
64.84000 2.608
64.86000 0.988
64.88000 0.269
64.90000 3.222
64.92000 0.032
64.94000 0.301
64.96000 1.043
64.98000 2.277
65.00000 2.554
65.02000 -1.747
65.04000 -0.310
65.06000 -0.348
65.08000 2.002
65.10000 4.375
65.12000 2.369
65.14000 2.134
65.16000 5.853
65.18000 4.100
65.20000 2.071
65.22000 -1.677
65.24000 0.792
65.26000 1.378
65.28000 2.391
65.30000 2.379
65.32000 3.066
65.34000 0.490
65.36000 -0.424
65.38000 1.040
65.40000 0.735
65.42000 3.369
65.44000 1.787
65.46000 4.346
65.48000 3.332
65.50000 1.073
65.52000 1.867
65.54000 -2.053
65.56000 -0.827
65.58000 1.046
65.60000 -0.088
65.62000 0.286
65.64000 0.236
65.66000 0.996
65.68000 1.941
65.70000 3.000
65.72000 0.496
65.74000 -1.271
65.76000 -1.642
65.78000 4.413
65.80000 0.770
65.82000 1.292
65.84000 0.830
65.86000 -0.077
65.88000 -2.380
65.90000 -2.565
65.92000 -1.449
65.94000 1.665
65.96000 1.568
65.98000 0.011
66.00000 -0.517
66.02000 -0.425
66.04000 -1.216
66.06000 -0.789
66.08000 0.047
66.10000 -1.798
66.12000 -0.325
66.14000 1.340
66.16000 0.650
66.18000 1.024
66.20000 1.094
66.22000 2.786
66.24000 2.100
66.26000 2.626
66.28000 3.175
66.30000 1.361
66.32000 3.555
66.34000 2.814
66.36000 1.599
66.38000 3.589
66.40000 -0.360
66.42000 -0.521
66.44000 0.473
66.46000 2.712
66.48000 1.911
66.50000 1.836
66.52000 3.432
66.54000 3.626
66.56000 4.755
66.58000 4.569
66.60000 4.078
66.62000 1.491
66.64000 -1.465
66.66000 1.430
66.68000 1.843
66.70000 2.641
66.72000 1.743
66.74000 5.603
66.76000 5.711
66.78000 3.700
66.80000 5.319
66.82000 6.146
66.84000 5.785
66.86000 4.500
66.88000 3.760
66.90000 -2.554
66.92000 2.218
66.94000 2.530
66.96000 2.280
66.98000 3.307
67.00000 5.291
67.02000 2.392
67.04000 0.301
67.06000 2.133
67.08000 3.525
67.10000 2.849
67.12000 3.232
67.14000 3.689
67.16000 2.154
67.18000 2.066
67.20000 2.422
67.22000 2.650
67.24000 4.548
67.26000 2.696
67.28000 2.238
67.30000 7.006
67.32000 5.779
67.34000 4.277
67.36000 5.351
67.38000 6.204
67.40000 5.842
67.42000 5.275
67.44000 4.366
67.46000 7.342
67.48000 7.553
67.50000 5.675
67.52000 6.765
67.54000 8.456
67.56000 3.146
67.58000 5.115
67.60000 5.587
67.62000 8.037
67.64000 9.279
67.66000 5.152
67.68000 5.237
67.70000 1.259
67.72000 2.912
67.74000 6.451
67.76000 7.587
67.78000 8.910
67.80000 9.188
67.82000 7.970
67.84000 8.877
67.86000 11.198
67.88000 12.185
67.90000 11.400
67.92000 12.854
67.94000 8.455
67.96000 5.285
67.98000 7.855
68.00000 8.019
68.02000 10.211
68.04000 10.054
68.06000 13.822
68.08000 11.876
68.10000 8.425
68.12000 9.648
68.14000 14.326
68.16000 12.067
68.18000 12.373
68.20000 13.964
68.22000 19.996
68.24000 20.894
68.26000 14.005
68.28000 14.657
68.30000 16.979
68.32000 19.590
68.34000 18.304
68.36000 19.821
68.38000 20.003
68.40000 17.743
68.42000 18.519
68.44000 19.578
68.46000 22.576
68.48000 24.821
68.50000 22.384
68.52000 23.965
68.54000 23.429
68.56000 22.609
68.58000 23.955
68.60000 26.520
68.62000 26.918
68.64000 22.288
68.66000 22.868
68.68000 20.499
68.70000 22.023
68.72000 25.938
68.74000 24.750
68.76000 19.913
68.78000 20.206
68.80000 20.111
68.82000 21.607
68.84000 21.102
68.86000 19.677
68.88000 19.978
68.90000 23.270
68.92000 24.569
68.94000 25.463
68.96000 26.389
68.98000 20.901
69.00000 17.773
69.02000 21.324
69.04000 19.836
69.06000 21.336
69.08000 21.601
69.10000 21.878
69.12000 16.900
69.14000 17.332
69.16000 20.045
69.18000 18.411
69.20000 18.404
69.22000 18.665
69.24000 14.971
69.26000 11.025
69.28000 9.743
69.30000 15.196
69.32000 15.576
69.34000 14.565
69.36000 10.780
69.38000 11.939
69.40000 15.216
69.42000 17.066
69.44000 10.678
69.46000 8.718
69.48000 9.735
69.50000 10.307
69.52000 13.037
69.54000 11.118
69.56000 10.414
69.58000 8.498
69.60000 2.868
69.62000 4.084
69.64000 6.501
69.66000 6.855
69.68000 5.848
69.70000 3.725
69.72000 3.333
69.74000 2.751
69.76000 5.645
69.78000 7.168
69.80000 9.911
69.82000 7.229
69.84000 8.937
69.86000 6.654
69.88000 4.125
69.90000 6.277
69.92000 7.234
69.94000 5.913
69.96000 5.837
69.98000 3.091
70.00000 1.664
70.02000 2.689
70.04000 3.085
70.06000 2.159
70.08000 3.114
70.10000 2.731
70.12000 3.039
70.14000 -2.528
70.16000 0.341
70.18000 1.685
70.20000 5.563
70.22000 6.754
70.24000 3.338
70.26000 1.774
70.28000 4.387
70.30000 4.404
70.32000 0.551
70.34000 0.348
70.36000 0.074
70.38000 1.315
70.40000 -1.899
70.42000 -0.798
70.44000 4.531
70.46000 3.048
70.48000 1.123
70.50000 0.520
70.52000 3.725
70.54000 3.359
70.56000 2.915
70.58000 5.474
70.60000 5.513
70.62000 1.510
70.64000 -1.533
70.66000 -1.752
70.68000 -2.033
70.70000 -1.635
70.72000 0.147
70.74000 1.146
70.76000 -2.474
70.78000 2.490
70.80000 6.295
70.82000 3.575
70.84000 2.967
70.86000 1.369
70.88000 -1.729
70.90000 -2.157
70.92000 1.845
70.94000 1.850
70.96000 2.415
70.98000 3.527
71.00000 4.992
71.02000 0.913
71.04000 3.231
71.06000 5.103
71.08000 2.121
71.10000 3.101
71.12000 1.428
71.14000 -2.446
71.16000 0.145
71.18000 4.344
71.20000 0.638
71.22000 1.558
71.24000 2.722
71.26000 2.615
71.28000 4.878
71.30000 5.755
71.32000 5.247
71.34000 3.275
71.36000 8.368
71.38000 4.540
71.40000 -0.945
71.42000 1.968
71.44000 2.938
71.46000 2.909
71.48000 2.262
71.50000 -0.191
71.52000 3.415
71.54000 5.746
71.56000 4.358
71.58000 1.912
71.60000 -0.924
71.62000 0.099
71.64000 -2.414
71.66000 1.269
71.68000 4.359
71.70000 3.852
71.72000 2.447
71.74000 1.167
71.76000 3.907
71.78000 4.925
71.80000 2.351
71.82000 2.238
71.84000 5.682
71.86000 4.556
71.88000 3.749
71.90000 -0.385
71.92000 -0.673
71.94000 -1.368
71.96000 -0.581
71.98000 6.003
72.00000 5.951
72.02000 5.118
72.04000 4.021
72.06000 7.862
72.08000 8.294
72.10000 0.843
72.12000 0.530
72.14000 1.886
72.16000 2.488
72.18000 2.292
72.20000 2.270
72.22000 1.345
72.24000 1.079
72.26000 0.731
72.28000 0.552
72.30000 -2.393
72.32000 2.511
72.34000 1.754
72.36000 -1.090
72.38000 1.302
72.40000 1.296
72.42000 -0.843
72.44000 -0.509
72.46000 1.802
72.48000 -2.386
72.50000 0.657
72.52000 -2.092
72.54000 0.804
72.56000 5.521
72.58000 3.181
72.60000 1.725
72.62000 1.961
72.64000 0.800
72.66000 3.801
72.68000 4.999
72.70000 4.926
72.72000 4.713
72.74000 5.013
72.76000 0.625
72.78000 0.374
72.80000 2.252
72.82000 1.477
72.84000 -2.008
72.86000 -0.601
72.88000 7.264
72.90000 4.062
72.92000 1.524
72.94000 4.413
72.96000 5.476
72.98000 4.724
73.00000 2.464
73.02000 -1.882
73.04000 -2.376
73.06000 0.700
73.08000 4.006
73.10000 5.203
73.12000 1.833
73.14000 0.866
73.16000 1.934
73.18000 2.406
73.20000 -1.731
73.22000 4.605
73.24000 9.392
73.26000 4.324
73.28000 3.961
73.30000 8.962
73.32000 0.644
73.34000 0.626
73.36000 4.235
73.38000 4.286
73.40000 1.819
73.42000 7.719
73.44000 5.040
73.46000 -0.690
73.48000 -0.008
73.50000 4.672
73.52000 1.008
73.54000 1.715
73.56000 2.431
73.58000 0.397
73.60000 -2.378
73.62000 -2.042
73.64000 -0.163
73.66000 -0.467
73.68000 4.554
73.70000 4.963
73.72000 8.146
73.74000 5.895
73.76000 3.772
73.78000 1.438
73.80000 0.992
73.82000 3.806
73.84000 0.997
73.86000 -1.567
73.88000 -2.373
73.90000 1.575
73.92000 1.683
73.94000 -2.371
73.96000 -0.914
73.98000 0.369
74.00000 1.319
74.02000 1.751
74.04000 -0.140
74.06000 -1.058
74.08000 2.453
74.10000 3.182
74.12000 3.929
74.14000 6.580
74.16000 6.357
74.18000 3.003
74.20000 3.549
74.22000 1.905
74.24000 2.595
74.26000 5.753
74.28000 7.458
74.30000 4.206
74.32000 -1.065
74.34000 0.668
74.36000 0.953
74.38000 -0.371
74.40000 -2.353
74.42000 -1.773
74.44000 3.807
74.46000 4.399
74.48000 2.524
74.50000 1.814
74.52000 0.011
74.54000 3.676
74.56000 4.107
74.58000 3.983
74.60000 3.673
74.62000 0.242
74.64000 -0.222
74.66000 -1.516
74.68000 -1.555
74.70000 1.379
74.72000 2.439
74.74000 -1.462
74.76000 -0.280
74.78000 2.790
74.80000 8.481
74.82000 7.530
74.84000 1.372
74.86000 -0.727
74.88000 3.915
74.90000 4.006
74.92000 4.540
74.94000 3.080
74.96000 5.611
74.98000 9.169
75.00000 6.591
75.02000 5.636
75.04000 7.017
75.06000 5.891
75.08000 0.920
75.10000 2.387
75.12000 6.547
75.14000 3.723
75.16000 3.559
75.18000 7.487
75.20000 5.190
75.22000 2.150
75.24000 -2.303
75.26000 2.696
75.28000 2.751
75.30000 5.317
75.32000 6.136
75.34000 8.316
75.36000 5.564
75.38000 2.578
75.40000 2.620
75.42000 4.571
75.44000 4.913
75.46000 4.251
75.48000 1.636
75.50000 10.019
75.52000 9.805
75.54000 2.000
75.56000 -1.707
75.58000 4.901
75.60000 5.218
75.62000 6.521
75.64000 4.671
75.66000 3.734
75.68000 5.602
75.70000 2.699
75.72000 2.402
75.74000 4.794
75.76000 7.823
75.78000 6.576
75.80000 4.242
75.82000 4.974
75.84000 5.250
75.86000 5.066
75.88000 7.176
75.90000 7.269
75.92000 4.140
75.94000 -2.293
75.96000 1.409
75.98000 4.348
76.00000 8.529
76.02000 8.835
76.04000 8.424
76.06000 4.327
76.08000 3.828
76.10000 2.661
76.12000 8.641
76.14000 5.774
76.16000 5.527
76.18000 2.092
76.20000 -1.197
76.22000 2.568
76.24000 2.820
76.26000 5.385
76.28000 6.312
76.30000 2.237
76.32000 3.853
76.34000 1.505
76.36000 7.608
76.38000 7.962
76.40000 7.109
76.42000 5.219
76.44000 3.206
76.46000 -0.460
76.48000 0.297
76.50000 -0.817
76.52000 1.314
76.54000 3.015
76.56000 2.395
76.58000 3.206
76.60000 -1.245
76.62000 2.751
76.64000 3.912
76.66000 2.649
76.68000 2.951
76.70000 2.800
76.72000 1.521
76.74000 1.848
76.76000 0.621
76.78000 -0.409
76.80000 2.917
76.82000 3.266
76.84000 3.536
76.86000 3.467
76.88000 1.215
76.90000 0.851
76.92000 4.362
76.94000 3.610
76.96000 3.632
76.98000 3.638
77.00000 4.835
77.02000 3.073
77.04000 2.828
77.06000 6.947
77.08000 2.492
77.10000 0.884
77.12000 0.957
77.14000 3.117
77.16000 5.568
77.18000 3.667
77.20000 -0.084
77.22000 2.601
77.24000 4.222
77.26000 3.554
77.28000 -0.174
77.30000 2.008
77.32000 2.926
77.34000 2.627
77.36000 4.542
77.38000 4.258
77.40000 0.470
77.42000 0.978
77.44000 1.217
77.46000 2.746
77.48000 3.152
77.50000 3.484
77.52000 0.398
77.54000 3.074
77.56000 4.233
77.58000 4.312
77.60000 3.388
77.62000 -0.534
77.64000 -2.383
77.66000 -1.742
77.68000 2.731
77.70000 7.871
77.72000 4.296
77.74000 4.931
77.76000 5.161
77.78000 5.270
77.80000 4.240
77.82000 1.939
77.84000 2.339
77.86000 3.851
77.88000 2.118
77.90000 -2.391
77.92000 0.838
77.94000 3.427
77.96000 3.630
77.98000 5.795
78.00000 9.633
78.02000 2.028
78.04000 -0.551
78.06000 5.734
78.08000 0.047
78.10000 0.801
78.12000 -0.150
78.14000 -2.397
78.16000 -1.012
78.18000 4.119
78.20000 1.043
78.22000 2.630
78.24000 3.440
78.26000 0.392
78.28000 3.303
78.30000 6.037
78.32000 1.083
78.34000 1.169
78.36000 2.494
78.38000 3.948
78.40000 2.625
78.42000 0.784
78.44000 3.900
78.46000 6.013
78.48000 2.305
78.50000 0.214
78.52000 1.934
78.54000 1.781
78.56000 1.895
78.58000 6.198
78.60000 0.754
78.62000 2.386
78.64000 4.683
78.66000 2.655
78.68000 3.442
78.70000 4.262
78.72000 2.089
78.74000 0.566
78.76000 3.520
78.78000 5.877
78.80000 0.046
78.82000 0.040
78.84000 -0.510
78.86000 -1.341
78.88000 1.913
78.90000 3.308
78.92000 4.250
78.94000 0.128
78.96000 1.702
78.98000 1.141
79.00000 2.322
79.02000 3.951
79.04000 4.252
79.06000 5.549
79.08000 5.547
79.10000 5.841
79.12000 1.481
79.14000 -2.417
79.16000 0.395
79.18000 -1.014
79.20000 -0.383
79.22000 2.903
79.24000 3.420
79.26000 4.420
79.28000 5.381
79.30000 2.613
79.32000 1.220
79.34000 -0.236
79.36000 0.464
79.38000 5.362
79.40000 2.640
79.42000 4.622
79.44000 0.186
79.46000 3.296
79.48000 4.463
79.50000 3.023
79.52000 6.422
79.54000 0.650
79.56000 -1.667
79.58000 -0.982
79.60000 1.468
79.62000 0.558
79.64000 -1.831
79.66000 3.309
79.68000 0.032
79.70000 -1.808
79.72000 -0.496
79.74000 -1.312
79.76000 0.698
79.78000 3.047
79.80000 1.627
79.82000 -1.267
79.84000 0.159
79.86000 3.630
79.88000 4.084
79.90000 3.720
79.92000 0.996
79.94000 1.606
79.96000 -1.184
79.98000 -2.421
80.00000 5.068
80.02000 4.047
80.04000 0.439
80.06000 2.183
80.08000 12.604
80.10000 4.704
80.12000 0.079
80.14000 3.155
80.16000 0.577
80.18000 0.931
80.20000 -0.446
80.22000 -2.165
80.24000 -1.237
80.26000 0.398
80.28000 1.222
80.30000 3.529
80.32000 2.195
80.34000 -0.096
80.36000 2.434
80.38000 2.466
80.40000 2.283
80.42000 1.230
80.44000 0.938
80.46000 -2.464
80.48000 -2.168
80.50000 2.297
80.52000 3.494
80.54000 1.433
80.56000 3.100
80.58000 2.919
80.60000 3.673
80.62000 -0.515
80.64000 -1.319
80.66000 -0.828
80.68000 4.120
80.70000 5.605
80.72000 3.389
80.74000 8.389
80.76000 6.630
80.78000 1.051
80.80000 4.751
80.82000 3.890
80.84000 0.972
80.86000 -0.540
80.88000 -0.255
80.90000 3.924
80.92000 7.267
80.94000 8.414
80.96000 8.379
80.98000 5.221
81.00000 3.218
81.02000 1.891
81.04000 0.913
81.06000 -1.200
81.08000 3.481
81.10000 2.493
81.12000 -0.155
81.14000 2.820
81.16000 6.507
81.18000 7.516
81.20000 7.868
81.22000 1.639
81.24000 4.044
81.26000 9.943
81.28000 4.242
81.30000 -2.508
81.32000 4.291
81.34000 7.147
81.36000 8.776
81.38000 8.227
81.40000 9.036
81.42000 4.910
81.44000 6.597
81.46000 11.204
81.48000 15.156
81.50000 10.153
81.52000 7.468
81.54000 10.563
81.56000 8.309
81.58000 11.584
81.60000 9.610
81.62000 6.112
81.64000 8.067
81.66000 11.015
81.68000 7.481
81.70000 4.934
81.72000 6.396
81.74000 5.667
81.76000 7.219
81.78000 8.078
81.80000 12.481
81.82000 10.731
81.84000 3.616
81.86000 8.217
81.88000 12.058
81.90000 12.644
81.92000 7.449
81.94000 8.549
81.96000 9.224
81.98000 9.082
82.00000 12.712
82.02000 13.458
82.04000 12.883
82.06000 11.916
82.08000 18.790
82.10000 15.795
82.12000 11.753
82.14000 14.616
82.16000 16.015
82.18000 16.396
82.20000 14.285
82.22000 15.904
82.24000 18.221
82.26000 18.202
82.28000 15.749
82.30000 14.237
82.32000 20.988
82.34000 25.890
82.36000 26.627
82.38000 19.694
82.40000 20.467
82.42000 23.332
82.44000 24.637
82.46000 23.548
82.48000 17.900
82.50000 20.647
82.52000 17.872
82.54000 22.722
82.56000 29.226
82.58000 26.159
82.60000 27.131
82.62000 30.320
82.64000 28.863
82.66000 34.429
82.68000 29.408
82.70000 24.930
82.72000 15.700
82.74000 22.638
82.76000 23.370
82.78000 24.145
82.80000 29.953
82.82000 28.405
82.84000 27.774
82.86000 25.435
82.88000 25.458
82.90000 20.794
82.92000 25.383
82.94000 23.959
82.96000 25.659
82.98000 25.805
83.00000 22.640
83.02000 25.011
83.04000 26.626
83.06000 27.921
83.08000 29.148
83.10000 25.190
83.12000 24.889
83.14000 26.963
83.16000 31.222
83.18000 31.717
83.20000 28.957
83.22000 26.260
83.24000 26.652
83.26000 26.012
83.28000 21.916
83.30000 24.178
83.32000 20.612
83.34000 23.846
83.36000 21.781
83.38000 23.318
83.40000 27.965
83.42000 21.253
83.44000 22.821
83.46000 18.888
83.48000 17.524
83.50000 17.365
83.52000 19.184
83.54000 19.792
83.56000 12.554
83.58000 13.168
83.60000 17.606
83.62000 19.889
83.64000 25.082
83.66000 18.943
83.68000 14.370
83.70000 11.880
83.72000 16.949
83.74000 18.074
83.76000 14.544
83.78000 13.473
83.80000 8.142
83.82000 10.470
83.84000 14.459
83.86000 12.511
83.88000 8.699
83.90000 11.776
83.92000 9.835
83.94000 7.818
83.96000 6.078
83.98000 9.097
84.00000 8.052
84.02000 4.849
84.04000 3.263
84.06000 3.689
84.08000 5.407
84.10000 8.545
84.12000 3.792
84.14000 3.920
84.16000 2.040
84.18000 1.902
84.20000 11.130
84.22000 12.333
84.24000 10.807
84.26000 6.777
84.28000 6.758
84.30000 1.909
84.32000 -0.750
84.34000 4.235
84.36000 3.822
84.38000 2.371
84.40000 1.718
84.42000 5.369
84.44000 7.731
84.46000 7.049
84.48000 5.720
84.50000 4.860
84.52000 0.954
84.54000 3.304
84.56000 1.742
84.58000 2.453
84.60000 4.329
84.62000 2.974
84.64000 2.174
84.66000 4.545
84.68000 4.841
84.70000 2.119
84.72000 2.853
84.74000 2.870
84.76000 0.134
84.78000 2.004
84.80000 1.656
84.82000 0.148
84.84000 -2.492
84.86000 -0.756
84.88000 -1.977
84.90000 2.491
84.92000 1.353
84.94000 1.497
84.96000 1.538
84.98000 4.479
85.00000 7.107
85.02000 3.979
85.04000 0.632
85.06000 2.070
85.08000 3.830
85.10000 2.552
85.12000 0.915
85.14000 0.809
85.16000 3.048
85.18000 -2.450
85.20000 -2.264
85.22000 0.710
85.24000 1.155
85.26000 3.161
85.28000 0.690
85.30000 1.748
85.32000 0.788
85.34000 3.464
85.36000 2.231
85.38000 -1.980
85.40000 -0.908
85.42000 2.771
85.44000 3.776
85.46000 3.946
85.48000 1.891
85.50000 3.505
85.52000 7.077
85.54000 5.075
85.56000 2.573
85.58000 -2.442
85.60000 -0.864
85.62000 -1.928
85.64000 3.805
85.66000 3.709
85.68000 0.223
85.70000 -0.788
85.72000 -1.270
85.74000 -2.196
85.76000 -2.340
85.78000 -2.453
85.80000 -0.440
85.82000 2.058
85.84000 4.508
85.86000 2.670
85.88000 -1.908
85.90000 -1.692
85.92000 -1.321
85.94000 -0.301
85.96000 0.858
85.98000 4.742
86.00000 2.495
86.02000 2.204
86.04000 4.473
86.06000 0.779
86.08000 1.709
86.10000 -0.473
86.12000 -0.670
86.14000 2.608
86.16000 -0.383
86.18000 -1.165
86.20000 3.707
86.22000 3.194
86.24000 7.026
86.26000 2.362
86.28000 2.016
86.30000 2.672
86.32000 3.846
86.34000 6.089
86.36000 7.003
86.38000 3.301
86.40000 2.825
86.42000 2.830
86.44000 -0.583
86.46000 -1.131
86.48000 3.667
86.50000 10.522
86.52000 8.300
86.54000 8.386
86.56000 9.537
86.58000 7.399
86.60000 6.963
86.62000 7.837
86.64000 6.343
86.66000 8.592
86.68000 13.573
86.70000 9.247
86.72000 7.008
86.74000 5.421
86.76000 7.418
86.78000 12.266
86.80000 7.259
86.82000 2.809
86.84000 7.756
86.86000 15.094
86.88000 16.711
86.90000 12.829
86.92000 8.850
86.94000 13.433
86.96000 15.220
86.98000 15.370
87.00000 17.356
87.02000 17.137
87.04000 14.195
87.06000 13.043
87.08000 16.355
87.10000 18.747
87.12000 19.981
87.14000 15.048
87.16000 13.654
87.18000 17.949
87.20000 18.783
87.22000 17.621
87.24000 18.502
87.26000 12.735
87.28000 22.835
87.30000 26.249
87.32000 22.014
87.34000 19.771
87.36000 21.556
87.38000 23.217
87.40000 33.267
87.42000 27.659
87.44000 22.757
87.46000 19.931
87.48000 20.373
87.50000 21.817
87.52000 21.290
87.54000 20.064
87.56000 20.192
87.58000 24.539
87.60000 24.444
87.62000 24.130
87.64000 16.429
87.66000 12.654
87.68000 11.945
87.70000 19.475
87.72000 17.568
87.74000 15.492
87.76000 13.095
87.78000 13.880
87.80000 16.293
87.82000 12.746
87.84000 15.194
87.86000 15.933
87.88000 12.059
87.90000 13.586
87.92000 16.234
87.94000 12.436
87.96000 7.262
87.98000 4.592
88.00000 8.160
88.02000 11.364
88.04000 17.404
88.06000 14.772
88.08000 14.962
88.10000 12.151
88.12000 12.342
88.14000 12.890
88.16000 14.007
88.18000 7.500
88.20000 6.552
88.22000 6.713
88.24000 6.603
88.26000 3.266
88.28000 2.641
88.30000 8.148
88.32000 7.405
88.34000 5.141
88.36000 6.379
88.38000 4.787
88.40000 13.126
88.42000 4.397
88.44000 2.858
88.46000 5.381
88.48000 5.454
88.50000 0.126
88.52000 4.990
88.54000 6.512
88.56000 0.649
88.58000 3.785
88.60000 3.638
88.62000 6.837
88.64000 6.752
88.66000 6.495
88.68000 2.450
88.70000 4.630
88.72000 3.423
88.74000 1.904
88.76000 5.557
88.78000 6.937
88.80000 7.051
88.82000 5.919
88.84000 3.947
88.86000 -2.361
88.88000 0.514
88.90000 4.227
88.92000 -0.079
88.94000 0.135
88.96000 3.785
88.98000 2.639
89.00000 4.534
89.02000 7.039
89.04000 1.704
89.06000 1.000
89.08000 6.505
89.10000 0.963
89.12000 -0.008
89.14000 0.863
89.16000 1.202
89.18000 3.859
89.20000 5.491
89.22000 -0.621
89.24000 -2.164
89.26000 3.081
89.28000 1.298
89.30000 3.879
89.32000 4.697
89.34000 2.698
89.36000 -0.316
89.38000 2.374
89.40000 2.087
89.42000 -0.630
89.44000 1.372
89.46000 5.282
89.48000 4.054
89.50000 4.740
89.52000 12.349
89.54000 7.493
89.56000 3.281
89.58000 3.875
89.60000 -1.037
89.62000 3.091
89.64000 -0.229
89.66000 -0.611
89.68000 2.699
89.70000 5.559
89.72000 7.639
89.74000 4.797
89.76000 -0.961
89.78000 0.676
89.80000 3.653
89.82000 0.833
89.84000 0.646
89.86000 4.772
89.88000 7.692
89.90000 7.287
89.92000 5.341
89.94000 4.013
89.96000 3.589
89.98000 2.138
90.00000 1.776
90.02000 2.375
90.04000 1.896
90.06000 -0.577
90.08000 -2.232
90.10000 1.715
90.12000 3.749
90.14000 1.860
90.16000 1.910
90.18000 3.542
90.20000 3.524
90.22000 4.811
90.24000 6.330
90.26000 2.379
90.28000 2.897
90.30000 4.709
90.32000 1.936
90.34000 5.304
90.36000 3.920
90.38000 2.463
90.40000 2.082
90.42000 7.135
90.44000 -1.427
90.46000 -0.681
90.48000 -1.606
90.50000 3.097
90.52000 0.571
90.54000 2.908
90.56000 2.774
90.58000 2.945
90.60000 3.551
90.62000 2.852
90.64000 0.205
90.66000 1.297
90.68000 7.799
90.70000 3.854
90.72000 5.379
90.74000 5.155
90.76000 9.362
90.78000 8.106
90.80000 4.024
90.82000 2.599
90.84000 2.327
90.86000 1.982
90.88000 3.642
90.90000 1.476
90.92000 5.347
90.94000 4.701
90.96000 -2.232
90.98000 3.135
91.00000 2.061
91.02000 2.019
91.04000 6.334
91.06000 7.986
91.08000 3.095
91.10000 0.522
91.12000 3.529
91.14000 1.832
91.16000 1.995
91.18000 0.708
91.20000 2.154
91.22000 -1.868
91.24000 1.793
91.26000 0.485
91.28000 1.351
91.30000 -0.110
91.32000 -0.280
91.34000 -1.172
91.36000 1.029
91.38000 1.727
91.40000 2.515
91.42000 4.764
91.44000 3.802
91.46000 4.090
91.48000 2.809
91.50000 8.004
91.52000 8.883
91.54000 5.819
91.56000 6.889
91.58000 8.473
91.60000 3.706
91.62000 2.959
91.64000 6.186
91.66000 3.945
91.68000 3.729
91.70000 5.874
91.72000 5.782
91.74000 3.158
91.76000 0.850
91.78000 2.666
91.80000 2.578
91.82000 5.101
91.84000 4.352
91.86000 6.687
91.88000 4.320
91.90000 2.584
91.92000 -1.616
91.94000 -2.237
91.96000 4.286
91.98000 3.160
92.00000 1.346
92.02000 2.063
92.04000 3.086
92.06000 5.137
92.08000 1.881
92.10000 0.306
92.12000 0.576
92.14000 2.678
92.16000 2.885
92.18000 0.415
92.20000 2.220
92.22000 8.093
92.24000 4.798
92.26000 3.561
92.28000 7.488
92.30000 7.987
92.32000 6.343
92.34000 3.648
92.36000 -1.457
92.38000 2.569
92.40000 5.912
92.42000 3.416
92.44000 -0.240
92.46000 -2.235
92.48000 3.817
92.50000 3.632
92.52000 6.162
92.54000 7.165
92.56000 8.399
92.58000 11.676
92.60000 9.671
92.62000 5.725
92.64000 5.713
92.66000 5.587
92.68000 5.954
92.70000 4.648
92.72000 2.757
92.74000 -1.966
92.76000 -0.473
92.78000 6.008
92.80000 6.072
92.82000 8.679
92.84000 2.398
92.86000 2.584
92.88000 4.874
92.90000 4.177
92.92000 5.512
92.94000 3.555
92.96000 0.568
92.98000 1.174
93.00000 0.847
93.02000 7.259
93.04000 3.270
93.06000 6.809
93.08000 9.939
93.10000 5.703
93.12000 7.273
93.14000 6.216
93.16000 8.485
93.18000 7.691
93.20000 6.605
93.22000 -0.057
93.24000 1.740
93.26000 4.980
93.28000 6.336
93.30000 9.020
93.32000 5.733
93.34000 0.782
93.36000 -0.473
93.38000 -2.183
93.40000 3.924
93.42000 5.679
93.44000 6.832
93.46000 4.481
93.48000 6.987
93.50000 11.565
93.52000 4.958
93.54000 6.898
93.56000 8.530
93.58000 11.094
93.60000 8.159
93.62000 3.530
93.64000 5.546
93.66000 6.425
93.68000 5.650
93.70000 5.128
93.72000 8.711
93.74000 14.769
93.76000 10.045
93.78000 9.400
93.80000 6.878
93.82000 6.193
93.84000 4.833
93.86000 7.502
93.88000 6.535
93.90000 5.424
93.92000 3.502
93.94000 3.438
93.96000 3.311
93.98000 4.115
94.00000 1.139
94.02000 1.655
94.04000 1.500
94.06000 6.962
94.08000 6.172
94.10000 5.155
94.12000 1.119
94.14000 5.079
94.16000 3.443
94.18000 6.496
94.20000 9.058
94.22000 7.524
94.24000 -0.021
94.26000 -0.418
94.28000 1.925
94.30000 6.177
94.32000 6.441
94.34000 8.518
94.36000 7.444
94.38000 10.193
94.40000 10.729
94.42000 8.534
94.44000 6.267
94.46000 3.980
94.48000 7.726
94.50000 4.401
94.52000 0.510
94.54000 2.201
94.56000 6.263
94.58000 5.314
94.60000 3.169
94.62000 3.510
94.64000 2.206
94.66000 3.584
94.68000 4.934
94.70000 4.341
94.72000 6.032
94.74000 3.854
94.76000 4.727
94.78000 8.957
94.80000 3.057
94.82000 0.897
94.84000 2.696
94.86000 4.716
94.88000 5.801
94.90000 5.632
94.92000 7.144
94.94000 3.760
94.96000 3.233
94.98000 -0.136
95.00000 3.211
95.02000 6.251
95.04000 3.292
95.06000 3.417
95.08000 4.355
95.10000 1.249
95.12000 4.404
95.14000 5.587
95.16000 9.943
95.18000 4.832
95.20000 5.845
95.22000 3.528
95.24000 -2.223
95.26000 -0.672
95.28000 5.130
95.30000 7.427
95.32000 6.128
95.34000 3.170
95.36000 8.591
95.38000 10.064
95.40000 5.441
95.42000 0.834
95.44000 2.553
95.46000 0.469
95.48000 0.876
95.50000 4.963
95.52000 6.408
95.54000 6.180
95.56000 6.647
95.58000 3.890
95.60000 1.188
95.62000 -2.227
95.64000 -0.008
95.66000 5.988
95.68000 3.033
95.70000 -0.027
95.72000 5.177
95.74000 8.705
95.76000 10.379
95.78000 6.422
95.80000 3.844
95.82000 1.667
95.84000 4.457
95.86000 8.842
95.88000 9.333
95.90000 9.346
95.92000 12.178
95.94000 9.881
95.96000 5.656
95.98000 6.919
96.00000 -0.797
96.02000 0.739
96.04000 5.237
96.06000 4.882
96.08000 1.712
96.10000 6.674
96.12000 6.395
96.14000 2.946
96.16000 -1.222
96.18000 1.058
96.20000 2.002
96.22000 4.534
96.24000 11.160
96.26000 2.179
96.28000 -1.887
96.30000 -2.238
96.32000 3.302
96.34000 8.598
96.36000 11.461
96.38000 7.128
96.40000 8.547
96.42000 15.568
96.44000 8.995
96.46000 3.824
96.48000 4.320
96.50000 11.350
96.52000 9.147
96.54000 1.133
96.56000 4.481
96.58000 4.747
96.60000 4.832
96.62000 7.745
96.64000 7.380
96.66000 4.578
96.68000 4.131
96.70000 8.708
96.72000 7.167
96.74000 7.941
96.76000 5.162
96.78000 6.234
96.80000 4.700
96.82000 1.509
96.84000 5.380
96.86000 5.449
96.88000 9.288
96.90000 4.982
96.92000 6.489
96.94000 8.280
96.96000 10.148
96.98000 8.257
97.00000 7.917
97.02000 -0.763
97.04000 -2.218
97.06000 1.864
97.08000 5.062
97.10000 2.456
97.12000 8.630
97.14000 8.139
97.16000 5.315
97.18000 8.204
97.20000 8.391
97.22000 11.545
97.24000 9.116
97.26000 8.013
97.28000 9.237
97.30000 10.260
97.32000 7.557
97.34000 5.513
97.36000 3.897
97.38000 2.618
97.40000 3.510
97.42000 0.232
97.44000 8.302
97.46000 4.495
97.48000 4.766
97.50000 5.952
97.52000 4.784
97.54000 5.977
97.56000 4.706
97.58000 9.020
97.60000 3.941
97.62000 2.671
97.64000 6.924
97.66000 2.085
97.68000 3.768
97.70000 9.432
97.72000 8.530
97.74000 5.732
97.76000 5.995
97.78000 9.041
97.80000 3.535
97.82000 2.046
97.84000 3.753
97.86000 0.982
97.88000 5.982
97.90000 4.108
97.92000 2.135
97.94000 2.740
97.96000 -2.216
97.98000 1.262
98.00000 5.048
98.02000 12.660
98.04000 12.619
98.06000 5.480
98.08000 2.578
98.10000 3.771
98.12000 -1.446
98.14000 4.253
98.16000 5.636
98.18000 4.559
98.20000 1.809
98.22000 3.237
98.24000 9.730
98.26000 1.749
98.28000 2.992
98.30000 7.277
98.32000 6.661
98.34000 6.064
98.36000 10.560
98.38000 12.336
98.40000 13.712
98.42000 7.385
98.44000 1.447
98.46000 -2.192
98.48000 -1.539
98.50000 -0.987
98.52000 4.370
98.54000 3.954
98.56000 8.198
98.58000 3.536
98.60000 5.695
98.62000 4.999
98.64000 4.877
98.66000 9.042
98.68000 0.221
98.70000 3.269
98.72000 3.409
98.74000 13.478
98.76000 2.440
98.78000 6.534
98.80000 0.323
98.82000 3.189
98.84000 6.153
98.86000 1.581
98.88000 3.220
98.90000 8.030
98.92000 8.310
98.94000 5.166
98.96000 8.969
98.98000 6.826
99.00000 -2.174
99.02000 1.080
99.04000 11.434
99.06000 4.773
99.08000 5.498
99.10000 4.889
99.12000 2.941
99.14000 4.861
99.16000 4.356
99.18000 7.455
99.20000 5.396
99.22000 7.164
99.24000 6.920
99.26000 1.986
99.28000 -1.082
99.30000 -2.220
99.32000 7.349
99.34000 12.868
99.36000 3.199
99.38000 3.639
99.40000 9.138
99.42000 9.443
99.44000 11.946
99.46000 2.420
99.48000 15.274
99.50000 12.938
99.52000 5.196
99.54000 2.636
99.56000 0.544
99.58000 6.218
99.60000 1.103
99.62000 3.495
99.64000 4.448
99.66000 8.683
99.68000 4.521
99.70000 3.655
99.72000 2.673
99.74000 0.754
99.76000 8.083
99.78000 21.328
99.80000 15.711
99.82000 0.874
99.84000 3.903
99.86000 -1.074
99.88000 -1.098
99.90000 4.197
99.92000 -2.306
99.94000 3.182
99.96000 14.083
99.98000 0.000
