'Id: "0011388" Comment: "Integrate frame 0011388_Au-Ir-Rh_Rh-rich_XRD-Mapping-159-0000.gfrmwith cursor Wedge Cursor #5" Operator: "B?rgel" Anode: "Cu" Wavelength: "1.5406" Scantype: "2Theta (TwoTheta)" TimePerStep: "1" X: "-36" Y: "0" Z: "5.95" 
10.00000 0.000
10.02000 5.650
10.04000 13.710
10.06000 9.171
10.08000 -4.455
10.10000 6.058
10.12000 21.750
10.14000 35.337
10.16000 23.683
10.18000 6.734
10.20000 12.681
10.22000 6.564
10.24000 7.397
10.26000 12.766
10.28000 10.111
10.30000 14.088
10.32000 8.915
10.34000 4.558
10.36000 5.745
10.38000 1.832
10.40000 15.105
10.42000 7.783
10.44000 5.858
10.46000 8.322
10.48000 11.972
10.50000 18.955
10.52000 16.926
10.54000 9.476
10.56000 -3.489
10.58000 2.610
10.60000 13.629
10.62000 30.187
10.64000 12.229
10.66000 11.403
10.68000 15.178
10.70000 4.180
10.72000 18.570
10.74000 24.524
10.76000 13.084
10.78000 7.300
10.80000 14.027
10.82000 17.978
10.84000 15.936
10.86000 8.039
10.88000 4.757
10.90000 4.310
10.92000 18.561
10.94000 25.634
10.96000 22.488
10.98000 16.324
11.00000 13.248
11.02000 9.702
11.04000 26.008
11.06000 20.495
11.08000 11.122
11.10000 12.065
11.12000 12.451
11.14000 16.890
11.16000 -1.220
11.18000 4.900
11.20000 -3.849
11.22000 6.726
11.24000 18.706
11.26000 14.150
11.28000 21.249
11.30000 24.317
11.32000 22.245
11.34000 4.350
11.36000 -4.466
11.38000 8.762
11.40000 8.134
11.42000 8.404
11.44000 18.485
11.46000 17.184
11.48000 11.943
11.50000 3.232
11.52000 3.417
11.54000 11.901
11.56000 10.121
11.58000 15.638
11.60000 12.039
11.62000 16.499
11.64000 10.552
11.66000 2.939
11.68000 10.279
11.70000 18.264
11.72000 1.212
11.74000 6.381
11.76000 8.790
11.78000 1.061
11.80000 2.988
11.82000 2.715
11.84000 -3.139
11.86000 1.133
11.88000 8.077
11.90000 21.242
11.92000 14.480
11.94000 21.068
11.96000 8.196
11.98000 0.451
12.00000 1.300
12.02000 15.006
12.04000 11.068
12.06000 8.822
12.08000 9.060
12.10000 10.282
12.12000 11.372
12.14000 8.105
12.16000 7.886
12.18000 0.425
12.20000 -1.523
12.22000 12.160
12.24000 16.841
12.26000 8.513
12.28000 13.300
12.30000 14.168
12.32000 13.285
12.34000 14.662
12.36000 6.503
12.38000 1.667
12.40000 3.599
12.42000 11.372
12.44000 9.935
12.46000 19.321
12.48000 13.451
12.50000 9.211
12.52000 1.228
12.54000 11.995
12.56000 25.758
12.58000 13.194
12.60000 3.012
12.62000 -1.899
12.64000 1.084
12.66000 14.622
12.68000 6.177
12.70000 4.957
12.72000 6.985
12.74000 13.530
12.76000 10.421
12.78000 11.136
12.80000 2.454
12.82000 5.162
12.84000 -3.829
12.86000 0.083
12.88000 4.419
12.90000 16.252
12.92000 13.065
12.94000 5.407
12.96000 1.403
12.98000 9.128
13.00000 17.958
13.02000 10.714
13.04000 9.411
13.06000 10.255
13.08000 8.112
13.10000 11.779
13.12000 7.866
13.14000 3.908
13.16000 9.387
13.18000 0.519
13.20000 0.280
13.22000 0.560
13.24000 -3.064
13.26000 16.753
13.28000 13.489
13.30000 4.307
13.32000 0.090
13.34000 5.743
13.36000 14.119
13.38000 10.956
13.40000 4.704
13.42000 14.100
13.44000 10.429
13.46000 8.366
13.48000 11.607
13.50000 11.322
13.52000 9.126
13.54000 13.253
13.56000 22.228
13.58000 13.597
13.60000 6.183
13.62000 17.539
13.64000 9.038
13.66000 7.165
13.68000 13.901
13.70000 23.705
13.72000 14.680
13.74000 12.233
13.76000 6.701
13.78000 6.395
13.80000 7.810
13.82000 3.815
13.84000 1.654
13.86000 -0.080
13.88000 5.941
13.90000 3.627
13.92000 1.178
13.94000 -3.995
13.96000 11.751
13.98000 11.801
14.00000 0.187
14.02000 4.420
14.04000 12.183
14.06000 -2.345
14.08000 5.800
14.10000 17.181
14.12000 14.332
14.14000 13.382
14.16000 1.406
14.18000 -3.766
14.20000 1.760
14.22000 7.332
14.24000 12.423
14.26000 6.561
14.28000 5.703
14.30000 6.061
14.32000 -0.127
14.34000 2.954
14.36000 -3.691
14.38000 -4.473
14.40000 0.592
14.42000 7.088
14.44000 9.306
14.46000 9.339
14.48000 14.729
14.50000 16.219
14.52000 11.505
14.54000 15.415
14.56000 6.425
14.58000 8.921
14.60000 7.626
14.62000 9.349
14.64000 4.087
14.66000 2.130
14.68000 11.533
14.70000 6.092
14.72000 9.132
14.74000 10.103
14.76000 -1.143
14.78000 3.538
14.80000 0.994
14.82000 7.985
14.84000 21.581
14.86000 19.275
14.88000 7.886
14.90000 6.026
14.92000 10.680
14.94000 9.165
14.96000 13.188
14.98000 11.740
15.00000 14.339
15.02000 7.131
15.04000 6.773
15.06000 4.069
15.08000 9.681
15.10000 0.131
15.12000 4.284
15.14000 5.872
15.16000 9.546
15.18000 11.399
15.20000 2.946
15.22000 -4.433
15.24000 -2.678
15.26000 7.901
15.28000 11.750
15.30000 9.050
15.32000 7.231
15.34000 8.394
15.36000 10.956
15.38000 7.894
15.40000 1.698
15.42000 3.740
15.44000 9.429
15.46000 10.200
15.48000 6.201
15.50000 15.221
15.52000 9.491
15.54000 10.732
15.56000 12.998
15.58000 11.117
15.60000 2.235
15.62000 2.748
15.64000 1.833
15.66000 3.393
15.68000 1.457
15.70000 -2.455
15.72000 1.147
15.74000 6.111
15.76000 5.535
15.78000 -2.857
15.80000 5.446
15.82000 4.818
15.84000 11.829
15.86000 19.322
15.88000 6.249
15.90000 7.211
15.92000 14.769
15.94000 5.280
15.96000 -0.203
15.98000 3.915
16.00000 1.002
16.02000 0.761
16.04000 5.075
16.06000 9.711
16.08000 9.872
16.10000 13.219
16.12000 12.479
16.14000 5.631
16.16000 6.138
16.18000 11.870
16.20000 7.376
16.22000 2.269
16.24000 0.309
16.26000 7.420
16.28000 3.560
16.30000 4.555
16.32000 4.045
16.34000 3.141
16.36000 8.175
16.38000 5.405
16.40000 -1.247
16.42000 5.347
16.44000 5.912
16.46000 10.453
16.48000 7.107
16.50000 -0.449
16.52000 4.784
16.54000 7.113
16.56000 7.370
16.58000 6.733
16.60000 13.987
16.62000 15.716
16.64000 8.819
16.66000 14.210
16.68000 8.273
16.70000 6.597
16.72000 6.960
16.74000 7.236
16.76000 9.281
16.78000 4.269
16.80000 2.537
16.82000 3.993
16.84000 12.072
16.86000 8.326
16.88000 5.387
16.90000 7.789
16.92000 16.362
16.94000 11.168
16.96000 7.722
16.98000 4.360
17.00000 4.124
17.02000 12.033
17.04000 8.193
17.06000 0.158
17.08000 7.022
17.10000 6.606
17.12000 0.163
17.14000 -1.643
17.16000 4.708
17.18000 9.068
17.20000 4.781
17.22000 8.707
17.24000 5.352
17.26000 4.231
17.28000 -4.378
17.30000 -1.766
17.32000 3.212
17.34000 1.312
17.36000 5.598
17.38000 9.307
17.40000 0.567
17.42000 3.132
17.44000 3.962
17.46000 -2.185
17.48000 5.068
17.50000 5.090
17.52000 9.500
17.54000 5.759
17.56000 7.648
17.58000 10.833
17.60000 4.668
17.62000 -3.113
17.64000 -0.814
17.66000 -1.309
17.68000 3.488
17.70000 7.522
17.72000 11.453
17.74000 9.330
17.76000 3.000
17.78000 2.206
17.80000 4.520
17.82000 8.047
17.84000 6.299
17.86000 8.657
17.88000 6.441
17.90000 4.747
17.92000 0.384
17.94000 -3.019
17.96000 2.615
17.98000 -1.530
18.00000 0.392
18.02000 -1.567
18.04000 0.620
18.06000 1.599
18.08000 -4.337
18.10000 2.966
18.12000 5.971
18.14000 5.968
18.16000 0.334
18.18000 2.294
18.20000 14.051
18.22000 11.140
18.24000 4.663
18.26000 8.020
18.28000 6.909
18.30000 7.332
18.32000 6.572
18.34000 6.712
18.36000 1.352
18.38000 9.527
18.40000 14.550
18.42000 10.717
18.44000 1.274
18.46000 -0.656
18.48000 -0.119
18.50000 10.546
18.52000 5.934
18.54000 3.277
18.56000 6.968
18.58000 -2.273
18.60000 -1.563
18.62000 3.969
18.64000 3.995
18.66000 6.525
18.68000 7.022
18.70000 5.584
18.72000 -3.520
18.74000 -1.106
18.76000 -1.980
18.78000 -1.231
18.80000 5.662
18.82000 4.798
18.84000 4.911
18.86000 8.723
18.88000 5.960
18.90000 1.148
18.92000 7.440
18.94000 4.335
18.96000 2.084
18.98000 6.561
19.00000 4.694
19.02000 2.698
19.04000 4.464
19.06000 -1.135
19.08000 0.046
19.10000 11.322
19.12000 12.767
19.14000 6.637
19.16000 10.229
19.18000 7.343
19.20000 5.672
19.22000 8.045
19.24000 9.659
19.26000 9.133
19.28000 1.994
19.30000 -1.416
19.32000 3.246
19.34000 5.949
19.36000 6.896
19.38000 4.369
19.40000 4.233
19.42000 5.414
19.44000 3.053
19.46000 -4.241
19.48000 1.332
19.50000 4.236
19.52000 6.930
19.54000 -0.553
19.56000 0.757
19.58000 8.383
19.60000 13.711
19.62000 2.293
19.64000 0.642
19.66000 4.743
19.68000 2.049
19.70000 -0.751
19.72000 5.722
19.74000 2.639
19.76000 3.654
19.78000 7.079
19.80000 8.947
19.82000 7.871
19.84000 0.960
19.86000 0.683
19.88000 7.530
19.90000 1.986
19.92000 7.691
19.94000 6.511
19.96000 5.080
19.98000 -0.312
20.00000 3.229
20.02000 10.617
20.04000 8.083
20.06000 7.429
20.08000 4.804
20.10000 5.654
20.12000 10.254
20.14000 10.168
20.16000 5.733
20.18000 6.004
20.20000 3.070
20.22000 1.161
20.24000 0.846
20.26000 -1.717
20.28000 3.182
20.30000 3.088
20.32000 0.642
20.34000 7.290
20.36000 5.820
20.38000 4.529
20.40000 5.040
20.42000 6.655
20.44000 4.180
20.46000 4.817
20.48000 10.442
20.50000 11.652
20.52000 13.890
20.54000 2.679
20.56000 -1.964
20.58000 4.082
20.60000 10.501
20.62000 10.877
20.64000 8.701
20.66000 6.100
20.68000 10.945
20.70000 16.586
20.72000 10.516
20.74000 5.884
20.76000 4.401
20.78000 3.875
20.80000 6.355
20.82000 2.672
20.84000 3.394
20.86000 5.864
20.88000 5.939
20.90000 9.767
20.92000 3.664
20.94000 11.212
20.96000 12.896
20.98000 6.026
21.00000 0.396
21.02000 10.046
21.04000 12.699
21.06000 5.049
21.08000 10.407
21.10000 9.466
21.12000 0.444
21.14000 -0.216
21.16000 10.729
21.18000 6.885
21.20000 4.896
21.22000 -4.137
21.24000 -1.181
21.26000 3.139
21.28000 4.928
21.30000 3.876
21.32000 -1.619
21.34000 -1.565
21.36000 4.236
21.38000 4.162
21.40000 7.424
21.42000 13.280
21.44000 7.805
21.46000 5.168
21.48000 6.744
21.50000 5.097
21.52000 5.001
21.54000 -0.031
21.56000 0.273
21.58000 -1.506
21.60000 -1.117
21.62000 -0.672
21.64000 1.124
21.66000 5.800
21.68000 3.065
21.70000 -0.883
21.72000 -3.565
21.74000 4.034
21.76000 6.010
21.78000 4.873
21.80000 4.552
21.82000 1.488
21.84000 0.781
21.86000 4.024
21.88000 5.491
21.90000 4.066
21.92000 11.044
21.94000 11.799
21.96000 2.418
21.98000 1.204
22.00000 2.342
22.02000 7.070
22.04000 2.599
22.06000 1.682
22.08000 0.809
22.10000 3.710
22.12000 7.999
22.14000 4.952
22.16000 1.663
22.18000 4.044
22.20000 0.705
22.22000 2.085
22.24000 5.014
22.26000 1.608
22.28000 6.332
22.30000 7.192
22.32000 8.963
22.34000 7.808
22.36000 5.950
22.38000 6.915
22.40000 10.016
22.42000 6.048
22.44000 4.363
22.46000 3.424
22.48000 3.890
22.50000 3.864
22.52000 3.045
22.54000 6.212
22.56000 11.865
22.58000 5.487
22.60000 -0.710
22.62000 3.839
22.64000 15.450
22.66000 6.254
22.68000 7.811
22.70000 11.125
22.72000 15.816
22.74000 9.142
22.76000 9.621
22.78000 7.406
22.80000 7.542
22.82000 5.178
22.84000 3.365
22.86000 3.137
22.88000 5.073
22.90000 0.445
22.92000 -0.359
22.94000 4.222
22.96000 4.030
22.98000 0.218
23.00000 -3.258
23.02000 4.210
23.04000 2.175
23.06000 3.592
23.08000 5.168
23.10000 -1.202
23.12000 1.541
23.14000 7.285
23.16000 4.377
23.18000 7.250
23.20000 9.078
23.22000 6.561
23.24000 5.987
23.26000 7.771
23.28000 1.714
23.30000 -4.016
23.32000 -1.970
23.34000 -1.019
23.36000 6.649
23.38000 4.406
23.40000 -0.432
23.42000 1.551
23.44000 0.154
23.46000 6.050
23.48000 5.156
23.50000 5.153
23.52000 5.738
23.54000 9.975
23.56000 9.187
23.58000 6.261
23.60000 8.982
23.62000 4.994
23.64000 3.484
23.66000 7.263
23.68000 9.190
23.70000 6.345
23.72000 5.507
23.74000 7.171
23.76000 12.391
23.78000 4.952
23.80000 1.453
23.82000 4.471
23.84000 7.991
23.86000 5.805
23.88000 1.517
23.90000 -1.177
23.92000 -1.879
23.94000 -1.064
23.96000 3.470
23.98000 7.717
24.00000 4.987
24.02000 3.753
24.04000 9.341
24.06000 3.593
24.08000 9.211
24.10000 6.788
24.12000 -3.995
24.14000 -2.870
24.16000 4.709
24.18000 8.667
24.20000 4.501
24.22000 6.138
24.24000 3.397
24.26000 -2.456
24.28000 0.003
24.30000 3.386
24.32000 1.185
24.34000 -1.378
24.36000 0.731
24.38000 1.003
24.40000 3.993
24.42000 5.238
24.44000 5.875
24.46000 7.684
24.48000 3.337
24.50000 0.472
24.52000 2.751
24.54000 3.841
24.56000 3.055
24.58000 4.323
24.60000 0.127
24.62000 -2.886
24.64000 1.004
24.66000 5.266
24.68000 5.941
24.70000 9.426
24.72000 7.974
24.74000 5.690
24.76000 10.854
24.78000 5.714
24.80000 8.106
24.82000 6.233
24.84000 4.375
24.86000 8.309
24.88000 7.765
24.90000 4.640
24.92000 7.725
24.94000 1.209
24.96000 -0.065
24.98000 -0.336
25.00000 -1.778
25.02000 3.698
25.04000 5.758
25.06000 2.403
25.08000 -1.277
25.10000 1.215
25.12000 -1.736
25.14000 2.824
25.16000 -1.498
25.18000 3.327
25.20000 3.331
25.22000 -0.739
25.24000 -1.469
25.26000 4.622
25.28000 3.276
25.30000 0.598
25.32000 0.316
25.34000 -2.013
25.36000 1.636
25.38000 1.731
25.40000 -1.425
25.42000 -0.471
25.44000 5.533
25.46000 7.187
25.48000 7.086
25.50000 8.292
25.52000 4.927
25.54000 2.584
25.56000 1.399
25.58000 5.302
25.60000 1.496
25.62000 0.046
25.64000 -0.083
25.66000 -3.925
25.68000 -0.070
25.70000 -1.169
25.72000 1.147
25.74000 5.476
25.76000 0.389
25.78000 6.645
25.80000 5.940
25.82000 -2.132
25.84000 0.947
25.86000 3.050
25.88000 5.264
25.90000 7.561
25.92000 7.347
25.94000 7.970
25.96000 5.128
25.98000 2.505
26.00000 3.127
26.02000 5.726
26.04000 1.787
26.06000 0.657
26.08000 -1.082
26.10000 1.568
26.12000 1.958
26.14000 2.159
26.16000 3.767
26.18000 7.483
26.20000 4.714
26.22000 6.171
26.24000 10.484
26.26000 6.398
26.28000 1.659
26.30000 0.392
26.32000 -0.965
26.34000 3.567
26.36000 5.771
26.38000 4.924
26.40000 5.007
26.42000 3.967
26.44000 5.594
26.46000 5.073
26.48000 2.342
26.50000 6.797
26.52000 8.149
26.54000 10.661
26.56000 7.727
26.58000 0.091
26.60000 1.145
26.62000 -3.837
26.64000 0.914
26.66000 4.693
26.68000 5.080
26.70000 5.509
26.72000 7.095
26.74000 9.964
26.76000 7.820
26.78000 4.663
26.80000 2.976
26.82000 -2.286
26.84000 -1.118
26.86000 3.499
26.88000 -1.231
26.90000 -0.024
26.92000 -0.783
26.94000 1.992
26.96000 5.054
26.98000 3.316
27.00000 -2.698
27.02000 7.951
27.04000 9.311
27.06000 2.758
27.08000 2.996
27.10000 3.930
27.12000 3.692
27.14000 3.248
27.16000 7.562
27.18000 2.992
27.20000 0.123
27.22000 4.294
27.24000 2.616
27.26000 0.768
27.28000 1.048
27.30000 1.275
27.32000 4.336
27.34000 0.989
27.36000 6.429
27.38000 10.969
27.40000 0.535
27.42000 5.613
27.44000 7.357
27.46000 5.838
27.48000 6.986
27.50000 6.451
27.52000 3.341
27.54000 -3.825
27.56000 1.162
27.58000 1.512
27.60000 -0.001
27.62000 6.528
27.64000 -1.656
27.66000 1.412
27.68000 3.221
27.70000 2.270
27.72000 4.544
27.74000 4.799
27.76000 -0.539
27.78000 -0.459
27.80000 -3.047
27.82000 -1.938
27.84000 -3.815
27.86000 0.598
27.88000 2.123
27.90000 4.195
27.92000 2.638
27.94000 1.129
27.96000 4.174
27.98000 7.213
28.00000 5.498
28.02000 -1.819
28.04000 2.509
28.06000 2.125
28.08000 4.807
28.10000 1.811
28.12000 -1.818
28.14000 -0.410
28.16000 2.379
28.18000 0.028
28.20000 -1.442
28.22000 4.382
28.24000 3.105
28.26000 2.131
28.28000 6.641
28.30000 4.755
28.32000 -0.600
28.34000 4.384
28.36000 5.125
28.38000 2.381
28.40000 3.549
28.42000 -1.508
28.44000 -2.496
28.46000 3.174
28.48000 3.232
28.50000 2.995
28.52000 4.594
28.54000 5.131
28.56000 0.064
28.58000 -3.381
28.60000 -2.378
28.62000 1.626
28.64000 4.853
28.66000 3.011
28.68000 2.777
28.70000 1.746
28.72000 -2.347
28.74000 1.278
28.76000 1.779
28.78000 -1.398
28.80000 -0.927
28.82000 2.058
28.84000 3.815
28.86000 2.894
28.88000 7.115
28.90000 0.244
28.92000 -0.267
28.94000 -3.752
28.96000 -1.844
28.98000 0.539
29.00000 -1.372
29.02000 -2.389
29.04000 -3.747
29.06000 -3.100
29.08000 0.144
29.10000 -0.610
29.12000 -2.323
29.14000 1.163
29.16000 2.025
29.18000 0.961
29.20000 -3.231
29.22000 1.216
29.24000 2.678
29.26000 0.387
29.28000 -0.667
29.30000 0.438
29.32000 4.225
29.34000 4.884
29.36000 4.246
29.38000 1.942
29.40000 4.213
29.42000 3.193
29.44000 0.930
29.46000 1.224
29.48000 5.354
29.50000 1.733
29.52000 2.852
29.54000 6.101
29.56000 8.338
29.58000 3.564
29.60000 4.478
29.62000 5.363
29.64000 5.405
29.66000 5.276
29.68000 -2.867
29.70000 -3.720
29.72000 1.434
29.74000 2.816
29.76000 6.695
29.78000 4.662
29.80000 1.768
29.82000 -0.792
29.84000 1.563
29.86000 -3.617
29.88000 2.396
29.90000 -1.943
29.92000 -1.575
29.94000 1.170
29.96000 -1.499
29.98000 2.015
30.00000 0.153
30.02000 -1.198
30.04000 -2.534
30.06000 0.553
30.08000 -3.702
30.10000 -1.538
30.12000 1.908
30.14000 1.840
30.16000 -0.828
30.18000 1.206
30.20000 -0.053
30.22000 4.579
30.24000 10.045
30.26000 7.529
30.28000 1.960
30.30000 -0.350
30.32000 -0.274
30.34000 -2.637
30.36000 2.149
30.38000 3.592
30.40000 0.612
30.42000 1.139
30.44000 1.930
30.46000 5.179
30.48000 7.147
30.50000 -0.577
30.52000 -2.322
30.54000 -3.673
30.56000 1.675
30.58000 -0.679
30.60000 -1.292
30.62000 0.075
30.64000 3.385
30.66000 4.693
30.68000 1.353
30.70000 4.185
30.72000 6.529
30.74000 2.697
30.76000 0.644
30.78000 2.846
30.80000 -1.863
30.82000 -2.432
30.84000 1.719
30.86000 -0.022
30.88000 0.578
30.90000 1.812
30.92000 1.269
30.94000 0.283
30.96000 -2.845
30.98000 -2.002
31.00000 -3.346
31.02000 2.066
31.04000 2.563
31.06000 -0.914
31.08000 0.009
31.10000 -2.646
31.12000 -1.269
31.14000 -3.023
31.16000 -1.399
31.18000 -3.644
31.20000 0.714
31.22000 8.365
31.24000 5.069
31.26000 0.582
31.28000 -1.764
31.30000 -2.849
31.32000 -0.269
31.34000 0.285
31.36000 0.766
31.38000 -0.696
31.40000 -2.451
31.42000 1.951
31.44000 8.240
31.46000 4.244
31.48000 1.292
31.50000 0.959
31.52000 1.688
31.54000 2.997
31.56000 0.991
31.58000 0.549
31.60000 -0.636
31.62000 0.597
31.64000 1.775
31.66000 -1.661
31.68000 0.882
31.70000 3.600
31.72000 0.715
31.74000 0.143
31.76000 0.644
31.78000 4.600
31.80000 0.859
31.82000 -1.112
31.84000 -3.596
31.86000 2.042
31.88000 5.764
31.90000 7.519
31.92000 8.007
31.94000 4.088
31.96000 -2.484
31.98000 0.710
32.00000 10.347
32.02000 6.048
32.04000 6.701
32.06000 4.174
32.08000 1.558
32.10000 0.405
32.12000 2.503
32.14000 5.223
32.16000 7.968
32.18000 -0.482
32.20000 4.256
32.22000 7.882
32.24000 2.407
32.26000 0.216
32.28000 7.112
32.30000 6.970
32.32000 4.598
32.34000 4.756
32.36000 9.746
32.38000 5.260
32.40000 3.665
32.42000 6.217
32.44000 6.838
32.46000 3.829
32.48000 -1.353
32.50000 -1.808
32.52000 -1.789
32.54000 -0.494
32.56000 -1.051
32.58000 0.880
32.60000 4.172
32.62000 4.812
32.64000 5.646
32.66000 6.511
32.68000 1.426
32.70000 2.052
32.72000 1.294
32.74000 7.354
32.76000 5.564
32.78000 4.094
32.80000 5.187
32.82000 -0.246
32.84000 2.377
32.86000 -3.565
32.88000 -3.254
32.90000 3.992
32.92000 4.756
32.94000 3.521
32.96000 3.694
32.98000 2.228
33.00000 2.476
33.02000 6.061
33.04000 3.658
33.06000 -2.786
33.08000 -3.230
33.10000 6.410
33.12000 1.561
33.14000 -0.347
33.16000 1.402
33.18000 4.997
33.20000 4.630
33.22000 -0.844
33.24000 3.194
33.26000 0.747
33.28000 -1.911
33.30000 -1.766
33.32000 0.133
33.34000 0.602
33.36000 -0.367
33.38000 -3.567
33.40000 -0.392
33.42000 2.885
33.44000 -0.551
33.46000 -0.972
33.48000 3.814
33.50000 5.672
33.52000 7.462
33.54000 5.041
33.56000 4.622
33.58000 6.768
33.60000 4.400
33.62000 2.317
33.64000 -2.402
33.66000 -0.797
33.68000 3.165
33.70000 4.613
33.72000 4.356
33.74000 0.760
33.76000 3.667
33.78000 4.997
33.80000 7.487
33.82000 4.006
33.84000 4.409
33.86000 6.667
33.88000 5.662
33.90000 6.016
33.92000 1.689
33.94000 1.546
33.96000 -0.275
33.98000 1.010
34.00000 2.510
34.02000 -3.049
34.04000 4.021
34.06000 4.402
34.08000 2.487
34.10000 -0.517
34.12000 -0.751
34.14000 4.856
34.16000 4.103
34.18000 1.158
34.20000 4.710
34.22000 0.601
34.24000 1.488
34.26000 6.092
34.28000 4.056
34.30000 -1.097
34.32000 -0.617
34.34000 1.173
34.36000 5.021
34.38000 7.576
34.40000 2.290
34.42000 -0.869
34.44000 -3.004
34.46000 1.375
34.48000 4.987
34.50000 3.702
34.52000 4.148
34.54000 1.117
34.56000 0.924
34.58000 -1.474
34.60000 -3.546
34.62000 1.539
34.64000 5.513
34.66000 4.209
34.68000 2.997
34.70000 -0.129
34.72000 -0.202
34.74000 2.681
34.76000 3.167
34.78000 -2.495
34.80000 -1.589
34.82000 1.925
34.84000 0.204
34.86000 3.331
34.88000 3.916
34.90000 0.364
34.92000 -3.123
34.94000 -2.129
34.96000 4.920
34.98000 4.847
35.00000 3.969
35.02000 0.809
35.04000 2.833
35.06000 0.495
35.08000 -3.525
35.10000 -1.415
35.12000 -0.272
35.14000 1.624
35.16000 -0.255
35.18000 6.928
35.20000 1.709
35.22000 -2.020
35.24000 0.348
35.26000 1.279
35.28000 0.835
35.30000 -0.325
35.32000 1.937
35.34000 4.922
35.36000 0.418
35.38000 -0.055
35.40000 2.281
35.42000 4.171
35.44000 8.160
35.46000 2.912
35.48000 2.762
35.50000 6.904
35.52000 6.743
35.54000 2.746
35.56000 -3.496
35.58000 -0.815
35.60000 2.746
35.62000 2.396
35.64000 6.642
35.66000 5.191
35.68000 2.960
35.70000 2.001
35.72000 3.717
35.74000 -0.038
35.76000 -0.409
35.78000 -0.494
35.80000 2.596
35.82000 1.422
35.84000 -0.073
35.86000 1.643
35.88000 3.506
35.90000 4.349
35.92000 -0.862
35.94000 1.575
35.96000 -0.731
35.98000 -2.703
36.00000 0.575
36.02000 5.695
36.04000 4.592
36.06000 6.188
36.08000 5.566
36.10000 4.485
36.12000 3.591
36.14000 -0.279
36.16000 -0.057
36.18000 1.151
36.20000 1.978
36.22000 4.500
36.24000 1.012
36.26000 -1.022
36.28000 2.155
36.30000 1.885
36.32000 2.406
36.34000 0.351
36.36000 2.671
36.38000 2.535
36.40000 3.172
36.42000 -0.747
36.44000 2.991
36.46000 6.110
36.48000 6.876
36.50000 2.015
36.52000 -1.239
36.54000 1.723
36.56000 0.460
36.58000 0.457
36.60000 -0.447
36.62000 -2.862
36.64000 -0.842
36.66000 2.952
36.68000 2.584
36.70000 -0.897
36.72000 1.566
36.74000 5.031
36.76000 5.967
36.78000 1.763
36.80000 -1.915
36.82000 2.451
36.84000 0.925
36.86000 2.977
36.88000 0.470
36.90000 -2.183
36.92000 0.019
36.94000 -2.284
36.96000 -2.905
36.98000 0.838
37.00000 1.895
37.02000 0.562
37.04000 -0.682
37.06000 -0.543
37.08000 1.967
37.10000 6.113
37.12000 4.139
37.14000 3.325
37.16000 5.644
37.18000 1.610
37.20000 2.907
37.22000 2.772
37.24000 2.610
37.26000 5.818
37.28000 0.759
37.30000 -3.568
37.32000 -1.669
37.34000 -0.485
37.36000 -0.760
37.38000 1.985
37.40000 6.460
37.42000 10.460
37.44000 10.336
37.46000 3.815
37.48000 5.121
37.50000 5.336
37.52000 7.359
37.54000 3.783
37.56000 0.503
37.58000 3.505
37.60000 -0.603
37.62000 1.126
37.64000 6.964
37.66000 8.226
37.68000 8.168
37.70000 7.267
37.72000 6.980
37.74000 4.481
37.76000 4.973
37.78000 7.111
37.80000 10.546
37.82000 11.827
37.84000 9.921
37.86000 6.644
37.88000 8.049
37.90000 8.345
37.92000 10.783
37.94000 13.255
37.96000 9.330
37.98000 8.549
38.00000 8.805
38.02000 13.646
38.04000 14.797
38.06000 13.350
38.08000 11.900
38.10000 14.440
38.12000 9.132
38.14000 10.460
38.16000 15.345
38.18000 12.719
38.20000 14.404
38.22000 15.029
38.24000 16.142
38.26000 15.577
38.28000 17.818
38.30000 20.238
38.32000 18.760
38.34000 18.352
38.36000 16.801
38.38000 18.173
38.40000 17.540
38.42000 19.918
38.44000 20.819
38.46000 22.139
38.48000 20.251
38.50000 21.078
38.52000 19.999
38.54000 20.049
38.56000 23.400
38.58000 27.792
38.60000 23.475
38.62000 20.035
38.64000 23.057
38.66000 27.806
38.68000 33.056
38.70000 31.520
38.72000 36.707
38.74000 34.816
38.76000 34.834
38.78000 35.099
38.80000 35.580
38.82000 37.063
38.84000 33.965
38.86000 37.188
38.88000 39.970
38.90000 40.665
38.92000 45.321
38.94000 49.235
38.96000 48.451
38.98000 46.790
39.00000 47.511
39.02000 51.848
39.04000 53.637
39.06000 59.011
39.08000 59.326
39.10000 59.125
39.12000 65.650
39.14000 69.501
39.16000 75.198
39.18000 74.235
39.20000 76.259
39.22000 81.827
39.24000 85.265
39.26000 90.494
39.28000 92.592
39.30000 92.876
39.32000 94.083
39.34000 102.265
39.36000 107.837
39.38000 116.771
39.40000 127.170
39.42000 122.806
39.44000 128.079
39.46000 135.040
39.48000 142.205
39.50000 149.732
39.52000 157.230
39.54000 160.703
39.56000 172.628
39.58000 177.514
39.60000 192.479
39.62000 200.025
39.64000 203.984
39.66000 219.742
39.68000 229.847
39.70000 239.497
39.72000 249.660
39.74000 259.432
39.76000 276.026
39.78000 288.328
39.80000 303.315
39.82000 319.638
39.84000 326.549
39.86000 345.735
39.88000 366.862
39.90000 383.245
39.92000 400.230
39.94000 411.265
39.96000 422.683
39.98000 439.699
40.00000 465.032
40.02000 479.402
40.04000 498.597
40.06000 514.493
40.08000 525.321
40.10000 542.017
40.12000 548.256
40.14000 550.781
40.16000 569.558
40.18000 569.315
40.20000 573.604
40.22000 587.807
40.24000 604.720
40.26000 618.821
40.28000 629.500
40.30000 624.763
40.32000 607.808
40.34000 593.631
40.36000 589.431
40.38000 593.939
40.40000 597.325
40.42000 584.976
40.44000 574.451
40.46000 553.122
40.48000 531.837
40.50000 517.017
40.52000 509.820
40.54000 496.065
40.56000 478.532
40.58000 459.568
40.60000 451.877
40.62000 437.564
40.64000 413.688
40.66000 395.265
40.68000 369.571
40.70000 356.517
40.72000 347.018
40.74000 333.680
40.76000 315.558
40.78000 300.071
40.80000 290.351
40.82000 275.120
40.84000 265.180
40.86000 244.728
40.88000 227.290
40.90000 216.940
40.92000 207.351
40.94000 202.672
40.96000 182.945
40.98000 176.164
41.00000 170.471
41.02000 161.993
41.04000 146.399
41.06000 136.836
41.08000 130.694
41.10000 123.172
41.12000 118.202
41.14000 109.146
41.16000 105.052
41.18000 94.779
41.20000 96.032
41.22000 93.203
41.24000 84.227
41.26000 79.542
41.28000 73.944
41.30000 69.706
41.32000 68.608
41.34000 64.817
41.36000 62.061
41.38000 58.575
41.40000 56.705
41.42000 56.471
41.44000 51.019
41.46000 44.517
41.48000 44.521
41.50000 41.434
41.52000 46.880
41.54000 42.378
41.56000 33.385
41.58000 29.766
41.60000 36.261
41.62000 36.067
41.64000 33.653
41.66000 29.081
41.68000 23.831
41.70000 19.999
41.72000 24.711
41.74000 23.866
41.76000 25.241
41.78000 20.503
41.80000 17.975
41.82000 16.004
41.84000 14.703
41.86000 13.021
41.88000 18.692
41.90000 17.605
41.92000 15.731
41.94000 13.287
41.96000 12.344
41.98000 12.747
42.00000 13.578
42.02000 12.933
42.04000 11.230
42.06000 12.021
42.08000 10.912
42.10000 4.935
42.12000 3.614
42.14000 6.436
42.16000 8.382
42.18000 4.381
42.20000 3.990
42.22000 7.651
42.24000 7.540
42.26000 4.842
42.28000 4.486
42.30000 2.882
42.32000 4.741
42.34000 4.222
42.36000 3.336
42.38000 4.855
42.40000 7.569
42.42000 1.094
42.44000 1.677
42.46000 5.518
42.48000 5.777
42.50000 5.045
42.52000 5.496
42.54000 3.403
42.56000 2.584
42.58000 0.262
42.60000 2.948
42.62000 0.225
42.64000 0.923
42.66000 1.473
42.68000 -1.381
42.70000 -3.117
42.72000 -1.749
42.74000 2.667
42.76000 1.997
42.78000 0.022
42.80000 -0.444
42.82000 -1.234
42.84000 0.275
42.86000 1.937
42.88000 -1.366
42.90000 -0.438
42.92000 -3.018
42.94000 -3.301
42.96000 -1.360
42.98000 -3.514
43.00000 -2.438
43.02000 1.213
43.04000 1.972
43.06000 4.895
43.08000 2.064
43.10000 2.774
43.12000 4.868
43.14000 3.855
43.16000 5.741
43.18000 6.577
43.20000 0.579
43.22000 -3.276
43.24000 -1.943
43.26000 -2.857
43.28000 2.792
43.30000 0.568
43.32000 2.624
43.34000 3.065
43.36000 2.746
43.38000 -0.037
43.40000 -3.486
43.42000 -2.434
43.44000 -0.515
43.46000 3.577
43.48000 3.626
43.50000 2.405
43.52000 3.984
43.54000 1.601
43.56000 1.859
43.58000 2.447
43.60000 0.978
43.62000 -2.972
43.64000 -0.675
43.66000 -2.092
43.68000 -3.301
43.70000 -2.685
43.72000 -3.467
43.74000 -0.071
43.76000 -0.879
43.78000 -1.192
43.80000 0.797
43.82000 0.183
43.84000 1.027
43.86000 3.950
43.88000 1.378
43.90000 -0.014
43.92000 -1.507
43.94000 0.175
43.96000 1.797
43.98000 3.048
44.00000 1.628
44.02000 0.619
44.04000 1.902
44.06000 2.404
44.08000 0.346
44.10000 -3.449
44.12000 -1.346
44.14000 -0.406
44.16000 2.212
44.18000 3.356
44.20000 0.388
44.22000 0.942
44.24000 2.995
44.26000 3.752
44.28000 1.105
44.30000 -1.564
44.32000 1.501
44.34000 -1.407
44.36000 0.086
44.38000 2.775
44.40000 0.552
44.42000 2.081
44.44000 2.077
44.46000 5.525
44.48000 1.058
44.50000 1.634
44.52000 7.758
44.54000 4.455
44.56000 5.035
44.58000 2.808
44.60000 -1.519
44.62000 -3.447
44.64000 1.328
44.66000 2.098
44.68000 4.572
44.70000 1.138
44.72000 1.873
44.74000 1.783
44.76000 0.851
44.78000 0.023
44.80000 4.008
44.82000 3.614
44.84000 7.811
44.86000 10.463
44.88000 11.405
44.90000 8.505
44.92000 5.794
44.94000 -0.794
44.96000 2.927
44.98000 7.511
45.00000 4.530
45.02000 5.751
45.04000 4.713
45.06000 5.183
45.08000 7.577
45.10000 4.516
45.12000 2.096
45.14000 2.074
45.16000 5.206
45.18000 8.767
45.20000 5.866
45.22000 8.710
45.24000 9.246
45.26000 13.572
45.28000 9.398
45.30000 8.540
45.32000 15.936
45.34000 15.286
45.36000 13.154
45.38000 9.477
45.40000 9.058
45.42000 14.820
45.44000 17.984
45.46000 15.381
45.48000 14.456
45.50000 19.407
45.52000 17.095
45.54000 18.925
45.56000 26.561
45.58000 21.057
45.60000 19.844
45.62000 15.439
45.64000 24.353
45.66000 29.517
45.68000 28.804
45.70000 20.158
45.72000 25.168
45.74000 27.561
45.76000 25.182
45.78000 25.730
45.80000 28.989
45.82000 33.432
45.84000 35.280
45.86000 34.697
45.88000 34.806
45.90000 35.443
45.92000 37.237
45.94000 32.337
45.96000 30.892
45.98000 33.903
46.00000 39.692
46.02000 38.264
46.04000 37.914
46.06000 42.274
46.08000 41.728
46.10000 44.513
46.12000 51.288
46.14000 54.954
46.16000 49.525
46.18000 51.703
46.20000 55.568
46.22000 52.355
46.24000 56.916
46.26000 58.041
46.28000 58.377
46.30000 57.604
46.32000 58.550
46.34000 59.177
46.36000 59.532
46.38000 61.689
46.40000 60.575
46.42000 61.246
46.44000 66.074
46.46000 73.967
46.48000 78.817
46.50000 74.463
46.52000 74.973
46.54000 78.719
46.56000 77.655
46.58000 78.653
46.60000 83.924
46.62000 84.026
46.64000 85.929
46.66000 84.687
46.68000 86.727
46.70000 86.834
46.72000 92.319
46.74000 91.353
46.76000 94.002
46.78000 86.154
46.80000 86.131
46.82000 87.541
46.84000 85.719
46.86000 81.827
46.88000 93.736
46.90000 85.994
46.92000 85.462
46.94000 88.005
46.96000 91.260
46.98000 90.719
47.00000 89.181
47.02000 87.341
47.04000 86.672
47.06000 85.605
47.08000 88.399
47.10000 87.536
47.12000 77.853
47.14000 81.139
47.16000 78.327
47.18000 76.842
47.20000 77.821
47.22000 80.855
47.24000 76.542
47.26000 71.879
47.28000 72.698
47.30000 73.280
47.32000 68.908
47.34000 62.585
47.36000 62.326
47.38000 68.455
47.40000 63.175
47.42000 60.116
47.44000 57.745
47.46000 56.695
47.48000 50.324
47.50000 49.273
47.52000 53.192
47.54000 50.430
47.56000 48.908
47.58000 43.105
47.60000 38.649
47.62000 35.450
47.64000 38.251
47.66000 34.305
47.68000 36.939
47.70000 36.782
47.72000 39.354
47.74000 40.572
47.76000 37.557
47.78000 28.145
47.80000 32.103
47.82000 30.367
47.84000 29.777
47.86000 27.817
47.88000 25.448
47.90000 22.642
47.92000 24.685
47.94000 22.731
47.96000 19.843
47.98000 17.075
48.00000 21.595
48.02000 20.449
48.04000 22.352
48.06000 19.143
48.08000 19.837
48.10000 18.694
48.12000 18.614
48.14000 19.832
48.16000 17.034
48.18000 16.146
48.20000 15.376
48.22000 11.259
48.24000 11.229
48.26000 11.703
48.28000 10.594
48.30000 10.456
48.32000 12.643
48.34000 16.796
48.36000 12.843
48.38000 5.037
48.40000 11.280
48.42000 12.854
48.44000 8.769
48.46000 11.088
48.48000 4.577
48.50000 -0.984
48.52000 4.085
48.54000 6.643
48.56000 2.167
48.58000 2.793
48.60000 1.941
48.62000 6.546
48.64000 9.804
48.66000 8.444
48.68000 4.105
48.70000 7.323
48.72000 14.059
48.74000 9.892
48.76000 4.688
48.78000 -2.861
48.80000 1.370
48.82000 8.253
48.84000 8.667
48.86000 6.021
48.88000 7.659
48.90000 6.309
48.92000 -3.058
48.94000 -3.054
48.96000 1.820
48.98000 4.522
49.00000 1.662
49.02000 6.235
49.04000 7.016
49.06000 3.182
49.08000 2.410
49.10000 1.716
49.12000 6.300
49.14000 4.387
49.16000 4.882
49.18000 2.675
49.20000 3.856
49.22000 4.314
49.24000 4.568
49.26000 5.067
49.28000 1.363
49.30000 -0.227
49.32000 -0.600
49.34000 -0.914
49.36000 1.914
49.38000 7.296
49.40000 6.755
49.42000 -1.234
49.44000 1.892
49.46000 -1.548
49.48000 -2.029
49.50000 2.251
49.52000 1.929
49.54000 3.592
49.56000 4.490
49.58000 3.577
49.60000 3.380
49.62000 2.348
49.64000 5.645
49.66000 2.771
49.68000 -1.427
49.70000 2.271
49.72000 0.167
49.74000 -1.727
49.76000 6.416
49.78000 5.165
49.80000 2.015
49.82000 -2.998
49.84000 0.493
49.86000 0.043
49.88000 2.959
49.90000 4.930
49.92000 -1.775
49.94000 1.352
49.96000 4.047
49.98000 1.569
50.00000 0.349
50.02000 0.651
50.04000 0.465
50.06000 4.683
50.08000 3.721
50.10000 1.881
50.12000 5.554
50.14000 2.637
50.16000 1.054
50.18000 1.100
50.20000 1.354
50.22000 5.342
50.24000 7.513
50.26000 5.336
50.28000 0.392
50.30000 4.252
50.32000 8.329
50.34000 3.508
50.36000 1.512
50.38000 -1.329
50.40000 -2.941
50.42000 -1.170
50.44000 -0.578
50.46000 -1.737
50.48000 -1.056
50.50000 4.381
50.52000 3.339
50.54000 1.979
50.56000 0.694
50.58000 1.538
50.60000 3.435
50.62000 1.359
50.64000 1.999
50.66000 3.992
50.68000 3.605
50.70000 1.228
50.72000 -0.752
50.74000 8.532
50.76000 10.901
50.78000 3.662
50.80000 4.663
50.82000 3.346
50.84000 2.024
50.86000 7.583
50.88000 5.306
50.90000 -0.885
50.92000 2.585
50.94000 6.533
50.96000 1.549
50.98000 4.367
51.00000 10.366
51.02000 9.362
51.04000 5.632
51.06000 1.142
51.08000 2.180
51.10000 6.519
51.12000 7.859
51.14000 2.492
51.16000 -2.885
51.18000 -2.098
51.20000 1.188
51.22000 4.696
51.24000 4.159
51.26000 7.624
51.28000 2.349
51.30000 -0.411
51.32000 -1.593
51.34000 -2.886
51.36000 2.425
51.38000 6.260
51.40000 3.579
51.42000 3.641
51.44000 1.881
51.46000 2.806
51.48000 5.544
51.50000 3.110
51.52000 1.255
51.54000 3.192
51.56000 5.778
51.58000 2.798
51.60000 2.914
51.62000 4.767
51.64000 6.646
51.66000 8.518
51.68000 4.982
51.70000 -1.138
51.72000 7.485
51.74000 7.858
51.76000 1.040
51.78000 0.460
51.80000 5.460
51.82000 5.583
51.84000 6.031
51.86000 6.723
51.88000 1.542
51.90000 0.110
51.92000 1.770
51.94000 3.389
51.96000 0.052
51.98000 2.683
52.00000 2.572
52.02000 5.009
52.04000 6.023
52.06000 8.501
52.08000 7.685
52.10000 5.624
52.12000 0.294
52.14000 -0.409
52.16000 4.136
52.18000 5.454
52.20000 1.422
52.22000 -1.038
52.24000 4.360
52.26000 4.541
52.28000 3.235
52.30000 0.234
52.32000 -0.890
52.34000 2.996
52.36000 4.378
52.38000 3.477
52.40000 4.190
52.42000 0.651
52.44000 2.269
52.46000 7.561
52.48000 2.347
52.50000 3.338
52.52000 14.610
52.54000 11.210
52.56000 5.779
52.58000 2.200
52.60000 2.552
52.62000 2.041
52.64000 1.033
52.66000 -0.183
52.68000 3.215
52.70000 3.210
52.72000 0.665
52.74000 1.323
52.76000 1.137
52.78000 2.464
52.80000 3.814
52.82000 8.770
52.84000 6.021
52.86000 7.845
52.88000 7.693
52.90000 4.990
52.92000 2.965
52.94000 5.861
52.96000 6.240
52.98000 8.251
53.00000 4.452
53.02000 7.897
53.04000 6.941
53.06000 4.458
53.08000 3.335
53.10000 1.036
53.12000 7.229
53.14000 8.465
53.16000 5.739
53.18000 6.789
53.20000 3.495
53.22000 4.290
53.24000 5.559
53.26000 7.061
53.28000 -2.783
53.30000 -0.962
53.32000 4.017
53.34000 3.160
53.36000 3.667
53.38000 2.824
53.40000 6.690
53.42000 4.395
53.44000 1.762
53.46000 0.381
53.48000 5.050
53.50000 4.812
53.52000 3.775
53.54000 -0.136
53.56000 2.297
53.58000 2.654
53.60000 7.326
53.62000 7.434
53.64000 6.941
53.66000 0.526
53.68000 4.601
53.70000 6.428
53.72000 5.437
53.74000 4.971
53.76000 3.265
53.78000 5.628
53.80000 2.336
53.82000 5.815
53.84000 9.622
53.86000 4.077
53.88000 1.089
53.90000 0.952
53.92000 2.120
53.94000 0.469
53.96000 1.334
53.98000 0.420
54.00000 5.401
54.02000 6.709
54.04000 3.123
54.06000 3.310
54.08000 4.008
54.10000 6.310
54.12000 1.762
54.14000 0.750
54.16000 3.933
54.18000 2.399
54.20000 0.780
54.22000 2.024
54.24000 3.545
54.26000 3.167
54.28000 1.166
54.30000 1.635
54.32000 5.323
54.34000 6.018
54.36000 2.171
54.38000 -0.640
54.40000 1.448
54.42000 4.426
54.44000 2.263
54.46000 2.396
54.48000 1.321
54.50000 3.921
54.52000 3.930
54.54000 -0.270
54.56000 3.290
54.58000 4.351
54.60000 4.191
54.62000 3.412
54.64000 -0.691
54.66000 3.024
54.68000 4.041
54.70000 1.705
54.72000 5.868
54.74000 1.334
54.76000 1.833
54.78000 5.261
54.80000 7.918
54.82000 4.858
54.84000 3.219
54.86000 5.531
54.88000 3.167
54.90000 0.372
54.92000 -0.434
54.94000 -1.074
54.96000 -0.491
54.98000 4.639
55.00000 5.156
55.02000 -2.779
55.04000 -2.410
55.06000 3.022
55.08000 5.548
55.10000 -1.095
55.12000 -0.221
55.14000 1.295
55.16000 2.349
55.18000 3.526
55.20000 2.349
55.22000 1.842
55.24000 2.408
55.26000 6.339
55.28000 3.021
55.30000 2.165
55.32000 0.112
55.34000 0.242
55.36000 -2.332
55.38000 4.826
55.40000 5.659
55.42000 3.541
55.44000 6.618
55.46000 8.266
55.48000 6.763
55.50000 3.960
55.52000 0.066
55.54000 -2.069
55.56000 1.355
55.58000 1.846
55.60000 4.782
55.62000 7.813
55.64000 5.362
55.66000 5.603
55.68000 3.855
55.70000 2.441
55.72000 3.922
55.74000 0.448
55.76000 -1.088
55.78000 3.278
55.80000 2.145
55.82000 1.365
55.84000 0.845
55.86000 1.206
55.88000 4.927
55.90000 0.489
55.92000 0.842
55.94000 1.934
55.96000 2.429
55.98000 1.037
56.00000 5.502
56.02000 2.818
56.04000 2.773
56.06000 3.073
56.08000 4.991
56.10000 4.836
56.12000 4.061
56.14000 4.133
56.16000 4.354
56.18000 5.392
56.20000 4.165
56.22000 3.721
56.24000 7.333
56.26000 3.586
56.28000 2.954
56.30000 2.357
56.32000 1.008
56.34000 4.626
56.36000 2.745
56.38000 2.860
56.40000 -0.134
56.42000 -0.067
56.44000 2.247
56.46000 1.778
56.48000 1.012
56.50000 1.612
56.52000 2.625
56.54000 1.758
56.56000 3.891
56.58000 3.071
56.60000 3.902
56.62000 0.866
56.64000 0.683
56.66000 1.529
56.68000 1.501
56.70000 3.042
56.72000 5.114
56.74000 4.227
56.76000 1.237
56.78000 2.280
56.80000 2.105
56.82000 5.277
56.84000 3.612
56.86000 2.533
56.88000 2.839
56.90000 3.761
56.92000 2.291
56.94000 3.303
56.96000 9.007
56.98000 3.862
57.00000 -1.217
57.02000 1.828
57.04000 0.630
57.06000 -0.472
57.08000 2.806
57.10000 6.030
57.12000 6.174
57.14000 7.827
57.16000 2.232
57.18000 -2.676
57.20000 1.011
57.22000 4.489
57.24000 5.287
57.26000 5.166
57.28000 4.387
57.30000 1.828
57.32000 2.695
57.34000 0.579
57.36000 5.657
57.38000 3.987
57.40000 5.105
57.42000 6.914
57.44000 5.601
57.46000 -0.992
57.48000 -1.052
57.50000 -1.012
57.52000 2.604
57.54000 -0.070
57.56000 2.416
57.58000 3.534
57.60000 2.374
57.62000 3.919
57.64000 7.097
57.66000 4.531
57.68000 7.364
57.70000 7.608
57.72000 2.719
57.74000 5.634
57.76000 4.745
57.78000 5.649
57.80000 2.138
57.82000 8.351
57.84000 7.249
57.86000 4.356
57.88000 -2.079
57.90000 1.004
57.92000 7.259
57.94000 9.080
57.96000 5.986
57.98000 3.103
58.00000 4.274
58.02000 3.673
58.04000 2.679
58.06000 4.266
58.08000 6.489
58.10000 4.330
58.12000 5.396
58.14000 7.543
58.16000 7.941
58.18000 5.420
58.20000 2.073
58.22000 0.330
58.24000 3.813
58.26000 2.341
58.28000 -1.787
58.30000 0.236
58.32000 5.137
58.34000 3.079
58.36000 2.983
58.38000 4.696
58.40000 3.403
58.42000 3.080
58.44000 4.759
58.46000 1.436
58.48000 3.563
58.50000 3.066
58.52000 2.270
58.54000 4.568
58.56000 2.245
58.58000 3.375
58.60000 5.099
58.62000 2.147
58.64000 5.759
58.66000 8.883
58.68000 5.001
58.70000 6.106
58.72000 5.691
58.74000 2.850
58.76000 1.791
58.78000 2.502
58.80000 5.912
58.82000 1.607
58.84000 2.033
58.86000 5.767
58.88000 4.854
58.90000 9.025
58.92000 8.571
58.94000 10.158
58.96000 4.380
58.98000 -2.618
59.00000 0.125
59.02000 3.496
59.04000 1.961
59.06000 0.174
59.08000 1.642
59.10000 5.778
59.12000 4.676
59.14000 2.732
59.16000 3.582
59.18000 0.309
59.20000 0.841
59.22000 2.650
59.24000 2.095
59.26000 3.924
59.28000 4.494
59.30000 2.744
59.32000 4.801
59.34000 2.967
59.36000 0.547
59.38000 6.120
59.40000 4.693
59.42000 5.641
59.44000 3.546
59.46000 2.766
59.48000 5.081
59.50000 3.519
59.52000 4.756
59.54000 6.182
59.56000 6.493
59.58000 3.038
59.60000 2.214
59.62000 2.159
59.64000 3.915
59.66000 1.187
59.68000 2.010
59.70000 1.287
59.72000 4.815
59.74000 6.185
59.76000 6.461
59.78000 1.544
59.80000 3.233
59.82000 1.842
59.84000 2.598
59.86000 -1.773
59.88000 -2.526
59.90000 -0.253
59.92000 6.178
59.94000 8.628
59.96000 2.146
59.98000 0.906
60.00000 -2.609
60.02000 0.779
60.04000 1.294
60.06000 0.601
60.08000 -0.325
60.10000 1.410
60.12000 1.316
60.14000 4.952
60.16000 4.044
60.18000 3.191
60.20000 2.858
60.22000 7.771
60.24000 4.180
60.26000 3.713
60.28000 3.489
60.30000 2.912
60.32000 4.731
60.34000 5.330
60.36000 1.502
60.38000 2.794
60.40000 -1.458
60.42000 -2.561
60.44000 0.318
60.46000 3.525
60.48000 4.686
60.50000 5.750
60.52000 3.853
60.54000 2.445
60.56000 2.717
60.58000 4.451
60.60000 -2.600
60.62000 2.579
60.64000 4.593
60.66000 5.292
60.68000 1.624
60.70000 -0.095
60.72000 -2.419
60.74000 0.486
60.76000 3.964
60.78000 3.064
60.80000 1.796
60.82000 0.153
60.84000 4.418
60.86000 6.642
60.88000 3.849
60.90000 1.099
60.92000 3.554
60.94000 5.947
60.96000 5.533
60.98000 6.524
61.00000 10.093
61.02000 4.262
61.04000 0.982
61.06000 1.644
61.08000 1.648
61.10000 1.389
61.12000 4.277
61.14000 4.965
61.16000 4.972
61.18000 3.937
61.20000 1.419
61.22000 -2.568
61.24000 -2.304
61.26000 0.062
61.28000 5.200
61.30000 5.905
61.32000 3.595
61.34000 3.077
61.36000 0.519
61.38000 1.809
61.40000 2.324
61.42000 2.703
61.44000 1.581
61.46000 -1.955
61.48000 -2.552
61.50000 -0.004
61.52000 5.648
61.54000 5.464
61.56000 4.061
61.58000 2.380
61.60000 1.513
61.62000 2.089
61.64000 5.103
61.66000 5.371
61.68000 4.870
61.70000 5.752
61.72000 5.819
61.74000 5.718
61.76000 2.796
61.78000 2.308
61.80000 5.241
61.82000 3.116
61.84000 1.160
61.86000 3.421
61.88000 6.636
61.90000 7.582
61.92000 6.356
61.94000 3.919
61.96000 2.045
61.98000 -0.210
62.00000 2.125
62.02000 -2.569
62.04000 0.620
62.06000 3.566
62.08000 1.132
62.10000 5.129
62.12000 7.523
62.14000 5.198
62.16000 2.025
62.18000 0.305
62.20000 0.348
62.22000 8.008
62.24000 12.378
62.26000 8.525
62.28000 1.741
62.30000 -1.116
62.32000 0.461
62.34000 0.856
62.36000 0.846
62.38000 2.233
62.40000 0.902
62.42000 0.617
62.44000 3.793
62.46000 6.252
62.48000 2.549
62.50000 1.445
62.52000 2.310
62.54000 4.326
62.56000 5.923
62.58000 1.922
62.60000 -0.131
62.62000 -1.857
62.64000 -0.657
62.66000 5.237
62.68000 4.241
62.70000 2.446
62.72000 -0.078
62.74000 1.010
62.76000 2.778
62.78000 2.862
62.80000 0.600
62.82000 2.302
62.84000 3.558
62.86000 2.188
62.88000 0.888
62.90000 0.165
62.92000 -0.091
62.94000 2.122
62.96000 3.999
62.98000 5.206
63.00000 2.402
63.02000 1.694
63.04000 1.265
63.06000 1.834
63.08000 3.754
63.10000 3.827
63.12000 4.564
63.14000 3.069
63.16000 3.140
63.18000 3.769
63.20000 2.141
63.22000 -0.265
63.24000 1.293
63.26000 2.125
63.28000 0.235
63.30000 -2.546
63.32000 0.274
63.34000 4.872
63.36000 8.104
63.38000 5.950
63.40000 2.797
63.42000 -1.032
63.44000 2.124
63.46000 7.538
63.48000 2.763
63.50000 0.194
63.52000 -0.733
63.54000 5.489
63.56000 9.244
63.58000 6.964
63.60000 5.026
63.62000 3.124
63.64000 1.373
63.66000 -1.002
63.68000 2.458
63.70000 4.578
63.72000 2.348
63.74000 -0.671
63.76000 1.750
63.78000 3.084
63.80000 1.914
63.82000 2.931
63.84000 2.043
63.86000 2.545
63.88000 2.080
63.90000 0.315
63.92000 0.704
63.94000 -1.642
63.96000 1.127
63.98000 -0.932
64.00000 0.003
64.02000 -0.337
64.04000 -0.064
64.06000 1.012
64.08000 1.438
64.10000 -0.749
64.12000 0.455
64.14000 -0.488
64.16000 3.294
64.18000 3.144
64.20000 4.805
64.22000 4.176
64.24000 1.047
64.26000 2.314
64.28000 2.387
64.30000 5.285
64.32000 4.165
64.34000 -2.542
64.36000 -0.310
64.38000 3.516
64.40000 4.411
64.42000 5.874
64.44000 6.847
64.46000 7.851
64.48000 2.346
64.50000 2.227
64.52000 3.165
64.54000 7.382
64.56000 2.414
64.58000 -0.470
64.60000 1.430
64.62000 6.474
64.64000 2.125
64.66000 2.840
64.68000 5.680
64.70000 3.326
64.72000 -1.374
64.74000 0.059
64.76000 4.111
64.78000 3.946
64.80000 1.997
64.82000 2.672
64.84000 3.444
64.86000 -0.388
64.88000 2.944
64.90000 5.103
64.92000 4.739
64.94000 2.074
64.96000 0.931
64.98000 0.294
65.00000 2.058
65.02000 -0.583
65.04000 0.097
65.06000 1.895
65.08000 0.655
65.10000 6.786
65.12000 0.841
65.14000 -1.197
65.16000 -1.545
65.18000 -0.643
65.20000 0.600
65.22000 2.642
65.24000 2.528
65.26000 3.773
65.28000 3.253
65.30000 2.779
65.32000 0.120
65.34000 -0.501
65.36000 2.896
65.38000 -0.250
65.40000 -1.098
65.42000 -2.576
65.44000 -0.416
65.46000 5.243
65.48000 3.448
65.50000 0.665
65.52000 -0.079
65.54000 4.543
65.56000 3.110
65.58000 -0.449
65.60000 1.752
65.62000 -0.142
65.64000 -1.997
65.66000 -1.209
65.68000 2.952
65.70000 2.357
65.72000 0.756
65.74000 3.163
65.76000 -1.023
65.78000 0.255
65.80000 2.892
65.82000 3.762
65.84000 5.095
65.86000 -1.044
65.88000 -2.034
65.90000 1.732
65.92000 6.680
65.94000 3.818
65.96000 2.990
65.98000 -1.920
66.00000 -0.721
66.02000 -2.597
66.04000 0.085
66.06000 4.198
66.08000 4.282
66.10000 2.664
66.12000 3.472
66.14000 1.982
66.16000 -0.233
66.18000 -0.349
66.20000 -0.925
66.22000 1.914
66.24000 1.149
66.26000 0.226
66.28000 1.726
66.30000 1.573
66.32000 -1.410
66.34000 3.682
66.36000 5.590
66.38000 1.388
66.40000 -1.157
66.42000 0.685
66.44000 -0.648
66.46000 0.504
66.48000 4.646
66.50000 5.703
66.52000 1.544
66.54000 0.744
66.56000 -1.896
66.58000 0.436
66.60000 3.005
66.62000 1.090
66.64000 0.090
66.66000 1.766
66.68000 2.297
66.70000 0.692
66.72000 -0.315
66.74000 0.687
66.76000 4.847
66.78000 1.997
66.80000 2.723
66.82000 0.891
66.84000 0.094
66.86000 -1.314
66.88000 -0.110
66.90000 0.685
66.92000 2.345
66.94000 3.058
66.96000 -0.037
66.98000 -2.362
67.00000 2.598
67.02000 2.387
67.04000 3.775
67.06000 5.742
67.08000 4.143
67.10000 -2.683
67.12000 1.272
67.14000 1.076
67.16000 0.640
67.18000 -0.744
67.20000 1.722
67.22000 6.309
67.24000 7.672
67.26000 8.755
67.28000 6.493
67.30000 1.787
67.32000 0.341
67.34000 2.685
67.36000 6.982
67.38000 5.857
67.40000 8.622
67.42000 8.661
67.44000 5.480
67.46000 6.258
67.48000 7.266
67.50000 7.622
67.52000 5.301
67.54000 5.362
67.56000 7.143
67.58000 5.007
67.60000 5.025
67.62000 10.724
67.64000 10.333
67.66000 11.018
67.68000 10.232
67.70000 9.226
67.72000 11.467
67.74000 11.088
67.76000 7.964
67.78000 11.661
67.80000 12.040
67.82000 12.224
67.84000 14.535
67.86000 14.617
67.88000 15.130
67.90000 10.679
67.92000 9.859
67.94000 13.182
67.96000 19.377
67.98000 15.257
68.00000 14.002
68.02000 13.922
68.04000 15.276
68.06000 14.475
68.08000 10.379
68.10000 15.621
68.12000 19.032
68.14000 20.301
68.16000 15.003
68.18000 14.305
68.20000 17.367
68.22000 16.943
68.24000 17.737
68.26000 21.230
68.28000 22.692
68.30000 24.787
68.32000 23.436
68.34000 20.878
68.36000 20.247
68.38000 17.766
68.40000 17.553
68.42000 18.874
68.44000 20.213
68.46000 21.220
68.48000 16.137
68.50000 20.427
68.52000 22.917
68.54000 21.655
68.56000 17.200
68.58000 15.108
68.60000 14.685
68.62000 19.772
68.64000 21.086
68.66000 21.850
68.68000 22.044
68.70000 16.813
68.72000 16.316
68.74000 18.571
68.76000 17.388
68.78000 17.376
68.80000 16.422
68.82000 16.972
68.84000 16.214
68.86000 15.978
68.88000 15.859
68.90000 15.831
68.92000 14.802
68.94000 12.674
68.96000 10.605
68.98000 12.935
69.00000 9.124
69.02000 8.009
69.04000 9.148
69.06000 9.991
69.08000 11.875
69.10000 11.636
69.12000 8.519
69.14000 10.534
69.16000 11.624
69.18000 9.233
69.20000 7.258
69.22000 6.607
69.24000 6.816
69.26000 9.922
69.28000 6.942
69.30000 3.793
69.32000 5.930
69.34000 8.117
69.36000 7.842
69.38000 7.215
69.40000 5.345
69.42000 1.858
69.44000 1.558
69.46000 0.836
69.48000 4.440
69.50000 2.665
69.52000 -2.467
69.54000 -0.802
69.56000 0.848
69.58000 2.449
69.60000 5.194
69.62000 7.116
69.64000 5.184
69.66000 -2.057
69.68000 -2.600
69.70000 1.205
69.72000 -1.457
69.74000 -0.222
69.76000 1.120
69.78000 -1.058
69.80000 1.165
69.82000 3.188
69.84000 2.067
69.86000 2.415
69.88000 -0.591
69.90000 3.441
69.92000 3.468
69.94000 3.696
69.96000 7.814
69.98000 2.580
70.00000 1.408
70.02000 4.410
70.04000 2.383
70.06000 1.474
70.08000 0.108
70.10000 0.601
70.12000 -1.242
70.14000 -2.023
70.16000 0.076
70.18000 -2.448
70.20000 -2.274
70.22000 -2.377
70.24000 -0.783
70.26000 -0.939
70.28000 3.207
70.30000 3.595
70.32000 3.844
70.34000 1.138
70.36000 3.914
70.38000 2.721
70.40000 2.366
70.42000 -1.550
70.44000 -1.237
70.46000 3.423
70.48000 2.021
70.50000 4.798
70.52000 3.993
70.54000 3.674
70.56000 6.047
70.58000 4.425
70.60000 2.152
70.62000 0.038
70.64000 2.258
70.66000 0.688
70.68000 -1.231
70.70000 -2.453
70.72000 -2.465
70.74000 -1.097
70.76000 1.406
70.78000 2.979
70.80000 1.545
70.82000 1.233
70.84000 0.301
70.86000 0.694
70.88000 4.610
70.90000 1.652
70.92000 1.254
70.94000 4.555
70.96000 5.656
70.98000 2.418
71.00000 -0.285
71.02000 1.894
71.04000 3.157
71.06000 2.506
71.08000 4.072
71.10000 4.808
71.12000 0.713
71.14000 -2.447
71.16000 -2.336
71.18000 0.375
71.20000 2.064
71.22000 7.060
71.24000 7.914
71.26000 2.928
71.28000 -2.075
71.30000 -1.698
71.32000 4.296
71.34000 1.329
71.36000 2.543
71.38000 1.229
71.40000 0.593
71.42000 -0.312
71.44000 2.319
71.46000 3.170
71.48000 5.248
71.50000 3.667
71.52000 3.274
71.54000 5.586
71.56000 6.145
71.58000 4.464
71.60000 1.421
71.62000 1.653
71.64000 0.359
71.66000 1.652
71.68000 0.544
71.70000 3.353
71.72000 3.578
71.74000 -1.022
71.76000 -0.838
71.78000 -1.830
71.80000 2.588
71.82000 -0.826
71.84000 1.986
71.86000 -2.219
71.88000 -2.429
71.90000 4.126
71.92000 4.301
71.94000 5.564
71.96000 3.959
71.98000 -1.152
72.00000 0.049
72.02000 -0.892
72.04000 -0.476
72.06000 1.993
72.08000 5.542
72.10000 4.414
72.12000 6.712
72.14000 5.542
72.16000 7.417
72.18000 3.338
72.20000 -0.516
72.22000 -0.556
72.24000 1.460
72.26000 1.240
72.28000 2.622
72.30000 7.753
72.32000 1.097
72.34000 3.969
72.36000 4.504
72.38000 6.799
72.40000 3.201
72.42000 -0.455
72.44000 1.306
72.46000 -0.957
72.48000 1.298
72.50000 3.795
72.52000 0.428
72.54000 1.949
72.56000 0.923
72.58000 3.884
72.60000 -0.218
72.62000 1.293
72.64000 -2.398
72.66000 -0.787
72.68000 1.514
72.70000 1.962
72.72000 3.232
72.74000 5.056
72.76000 7.821
72.78000 5.027
72.80000 2.486
72.82000 2.115
72.84000 1.321
72.86000 1.705
72.88000 0.857
72.90000 6.336
72.92000 6.415
72.94000 2.348
72.96000 0.745
72.98000 3.485
73.00000 1.432
73.02000 -0.254
73.04000 2.085
73.06000 3.778
73.08000 3.063
73.10000 1.252
73.12000 1.653
73.14000 -2.395
73.16000 -1.494
73.18000 -0.658
73.20000 3.629
73.22000 0.780
73.24000 -0.019
73.26000 -0.221
73.28000 0.641
73.30000 1.300
73.32000 -2.134
73.34000 2.350
73.36000 2.404
73.38000 -2.349
73.40000 -1.969
73.42000 3.467
73.44000 5.790
73.46000 3.826
73.48000 2.220
73.50000 2.551
73.52000 3.021
73.54000 0.324
73.56000 -0.054
73.58000 -1.264
73.60000 -0.346
73.62000 1.693
73.64000 1.972
73.66000 1.951
73.68000 1.957
73.70000 1.023
73.72000 2.740
73.74000 2.171
73.76000 5.948
73.78000 2.097
73.80000 0.510
73.82000 -0.062
73.84000 4.218
73.86000 2.921
73.88000 2.294
73.90000 2.815
73.92000 1.310
73.94000 2.204
73.96000 0.662
73.98000 2.278
74.00000 7.240
74.02000 2.039
74.04000 2.957
74.06000 10.148
74.08000 3.450
74.10000 3.609
74.12000 0.068
74.14000 -0.222
74.16000 -0.054
74.18000 3.956
74.20000 1.543
74.22000 0.808
74.24000 1.569
74.26000 3.975
74.28000 7.601
74.30000 3.324
74.32000 4.230
74.34000 2.620
74.36000 3.638
74.38000 -0.373
74.40000 -2.400
74.42000 -0.855
74.44000 2.611
74.46000 3.329
74.48000 4.375
74.50000 5.047
74.52000 3.442
74.54000 2.232
74.56000 3.669
74.58000 3.780
74.60000 5.381
74.62000 2.967
74.64000 0.886
74.66000 0.207
74.68000 2.031
74.70000 4.777
74.72000 0.392
74.74000 3.579
74.76000 3.956
74.78000 2.639
74.80000 4.672
74.82000 5.476
74.84000 6.086
74.86000 3.411
74.88000 5.179
74.90000 4.842
74.92000 1.446
74.94000 1.049
74.96000 2.649
74.98000 5.130
75.00000 4.245
75.02000 3.046
75.04000 1.790
75.06000 5.606
75.08000 10.965
75.10000 7.389
75.12000 4.246
75.14000 -2.375
75.16000 -0.203
75.18000 4.583
75.20000 3.899
75.22000 2.392
75.24000 3.095
75.26000 2.192
75.28000 2.040
75.30000 1.789
75.32000 0.023
75.34000 1.426
75.36000 2.469
75.38000 3.177
75.40000 2.335
75.42000 -1.711
75.44000 0.638
75.46000 4.298
75.48000 4.138
75.50000 4.795
75.52000 3.691
75.54000 -0.597
75.56000 -0.413
75.58000 1.585
75.60000 2.250
75.62000 -0.236
75.64000 3.443
75.66000 2.692
75.68000 1.920
75.70000 6.552
75.72000 7.134
75.74000 5.305
75.76000 3.511
75.78000 3.598
75.80000 0.889
75.82000 -1.244
75.84000 2.935
75.86000 4.519
75.88000 7.863
75.90000 4.645
75.92000 6.241
75.94000 4.588
75.96000 5.195
75.98000 8.394
76.00000 6.391
76.02000 4.610
76.04000 7.315
76.06000 6.602
76.08000 5.359
76.10000 4.242
76.12000 5.880
76.14000 9.379
76.16000 6.956
76.18000 -2.381
76.20000 1.625
76.22000 5.066
76.24000 5.429
76.26000 2.606
76.28000 1.100
76.30000 4.116
76.32000 -0.264
76.34000 3.562
76.36000 4.162
76.38000 1.567
76.40000 -0.966
76.42000 1.913
76.44000 4.370
76.46000 6.301
76.48000 5.812
76.50000 0.376
76.52000 -0.875
76.54000 1.150
76.56000 1.198
76.58000 -0.239
76.60000 3.002
76.62000 5.119
76.64000 5.947
76.66000 1.416
76.68000 -1.894
76.70000 3.456
76.72000 2.078
76.74000 0.936
76.76000 0.076
76.78000 1.475
76.80000 6.472
76.82000 10.238
76.84000 1.419
76.86000 -2.368
76.88000 2.596
76.90000 7.536
76.92000 6.396
76.94000 5.591
76.96000 2.274
76.98000 6.062
77.00000 3.512
77.02000 -1.474
77.04000 2.130
77.06000 5.339
77.08000 7.354
77.10000 4.540
77.12000 2.143
77.14000 0.188
77.16000 3.213
77.18000 10.496
77.20000 6.675
77.22000 4.361
77.24000 6.112
77.26000 6.842
77.28000 5.156
77.30000 6.371
77.32000 9.180
77.34000 10.870
77.36000 4.289
77.38000 0.085
77.40000 3.318
77.42000 5.412
77.44000 3.327
77.46000 2.603
77.48000 1.194
77.50000 -1.890
77.52000 -2.379
77.54000 0.493
77.56000 1.450
77.58000 4.620
77.60000 3.465
77.62000 4.266
77.64000 3.336
77.66000 2.537
77.68000 6.646
77.70000 8.318
77.72000 2.930
77.74000 3.548
77.76000 5.222
77.78000 3.185
77.80000 4.416
77.82000 1.596
77.84000 2.780
77.86000 3.745
77.88000 5.232
77.90000 2.097
77.92000 1.349
77.94000 1.772
77.96000 4.797
77.98000 1.658
78.00000 3.305
78.02000 5.877
78.04000 2.538
78.06000 2.784
78.08000 5.143
78.10000 1.737
78.12000 2.448
78.14000 0.926
78.16000 1.260
78.18000 1.163
78.20000 1.661
78.22000 3.257
78.24000 0.752
78.26000 1.833
78.28000 -2.100
78.30000 1.166
78.32000 5.444
78.34000 4.923
78.36000 3.908
78.38000 -0.156
78.40000 -1.828
78.42000 -0.610
78.44000 -1.976
78.46000 -0.067
78.48000 -1.803
78.50000 0.384
78.52000 1.046
78.54000 4.665
78.56000 2.039
78.58000 -1.960
78.60000 0.719
78.62000 -0.488
78.64000 0.425
78.66000 4.367
78.68000 0.689
78.70000 0.800
78.72000 2.298
78.74000 2.617
78.76000 2.961
78.78000 0.705
78.80000 3.300
78.82000 4.011
78.84000 2.551
78.86000 2.585
78.88000 1.581
78.90000 -2.322
78.92000 1.401
78.94000 -0.563
78.96000 -0.278
78.98000 0.722
79.00000 0.741
79.02000 -1.547
79.04000 2.517
79.06000 0.796
79.08000 1.406
79.10000 -0.462
79.12000 0.910
79.14000 3.613
79.16000 5.541
79.18000 6.290
79.20000 6.190
79.22000 5.344
79.24000 2.350
79.26000 5.621
79.28000 8.983
79.30000 6.774
79.32000 7.047
79.34000 2.222
79.36000 4.465
79.38000 8.309
79.40000 8.771
79.42000 9.554
79.44000 5.129
79.46000 0.153
79.48000 0.844
79.50000 1.179
79.52000 3.170
79.54000 1.362
79.56000 3.321
79.58000 -2.454
79.60000 1.612
79.62000 1.928
79.64000 1.381
79.66000 5.644
79.68000 9.850
79.70000 5.929
79.72000 1.449
79.74000 -1.152
79.76000 5.437
79.78000 3.263
79.80000 7.110
79.82000 3.052
79.84000 1.840
79.86000 4.442
79.88000 2.827
79.90000 -0.864
79.92000 0.283
79.94000 5.599
79.96000 8.942
79.98000 3.949
80.00000 1.226
80.02000 4.037
80.04000 5.884
80.06000 6.554
80.08000 4.498
80.10000 4.692
80.12000 3.588
80.14000 2.298
80.16000 -1.324
80.18000 -0.496
80.20000 3.322
80.22000 6.536
80.24000 6.241
80.26000 5.382
80.28000 0.387
80.30000 -0.848
80.32000 1.967
80.34000 1.552
80.36000 2.543
80.38000 4.352
80.40000 3.733
80.42000 1.805
80.44000 2.540
80.46000 3.813
80.48000 5.744
80.50000 5.734
80.52000 2.834
80.54000 1.839
80.56000 4.457
80.58000 1.468
80.60000 1.550
80.62000 4.291
80.64000 1.354
80.66000 0.940
80.68000 3.821
80.70000 5.470
80.72000 3.781
80.74000 3.939
80.76000 3.299
80.78000 1.718
80.80000 4.112
80.82000 1.145
80.84000 0.899
80.86000 -2.593
80.88000 2.905
80.90000 5.236
80.92000 8.034
80.94000 6.203
80.96000 2.545
80.98000 0.804
81.00000 -0.058
81.02000 2.577
81.04000 3.933
81.06000 1.386
81.08000 1.580
81.10000 5.802
81.12000 7.597
81.14000 9.430
81.16000 4.926
81.18000 8.217
81.20000 9.694
81.22000 9.234
81.24000 5.264
81.26000 -2.382
81.28000 5.166
81.30000 10.235
81.32000 9.948
81.34000 5.177
81.36000 10.350
81.38000 6.311
81.40000 11.761
81.42000 10.511
81.44000 5.363
81.46000 7.535
81.48000 13.273
81.50000 10.553
81.52000 9.943
81.54000 9.371
81.56000 8.456
81.58000 5.953
81.60000 6.298
81.62000 5.077
81.64000 8.179
81.66000 12.723
81.68000 15.206
81.70000 20.409
81.72000 14.932
81.74000 14.832
81.76000 15.814
81.78000 14.318
81.80000 15.894
81.82000 13.458
81.84000 16.451
81.86000 11.985
81.88000 9.634
81.90000 10.078
81.92000 13.161
81.94000 15.151
81.96000 18.077
81.98000 12.740
82.00000 16.191
82.02000 15.175
82.04000 19.228
82.06000 19.403
82.08000 13.521
82.10000 12.398
82.12000 14.351
82.14000 20.778
82.16000 17.970
82.18000 12.864
82.20000 16.207
82.22000 19.927
82.24000 16.223
82.26000 20.700
82.28000 29.404
82.30000 23.655
82.32000 25.049
82.34000 28.483
82.36000 22.875
82.38000 25.068
82.40000 17.453
82.42000 21.530
82.44000 17.795
82.46000 20.850
82.48000 21.613
82.50000 27.952
82.52000 24.319
82.54000 23.968
82.56000 21.691
82.58000 24.940
82.60000 21.759
82.62000 20.892
82.64000 26.303
82.66000 25.665
82.68000 25.937
82.70000 24.130
82.72000 23.506
82.74000 20.891
82.76000 24.055
82.78000 20.181
82.80000 20.234
82.82000 20.699
82.84000 22.747
82.86000 22.896
82.88000 20.566
82.90000 16.693
82.92000 15.838
82.94000 20.595
82.96000 25.864
82.98000 23.785
83.00000 20.249
83.02000 16.411
83.04000 21.860
83.06000 18.496
83.08000 16.910
83.10000 17.176
83.12000 18.100
83.14000 24.085
83.16000 22.772
83.18000 20.365
83.20000 15.651
83.22000 15.006
83.24000 11.005
83.26000 11.343
83.28000 14.327
83.30000 20.156
83.32000 22.768
83.34000 20.577
83.36000 18.131
83.38000 15.545
83.40000 12.469
83.42000 14.699
83.44000 11.206
83.46000 8.485
83.48000 9.482
83.50000 11.700
83.52000 8.982
83.54000 14.973
83.56000 15.101
83.58000 13.035
83.60000 9.619
83.62000 9.357
83.64000 7.960
83.66000 8.887
83.68000 12.474
83.70000 7.817
83.72000 4.415
83.74000 3.459
83.76000 7.665
83.78000 3.292
83.80000 6.289
83.82000 5.301
83.84000 8.956
83.86000 7.451
83.88000 7.836
83.90000 5.134
83.92000 3.052
83.94000 0.987
83.96000 2.546
83.98000 0.118
84.00000 4.817
84.02000 6.145
84.04000 2.981
84.06000 1.089
84.08000 1.246
84.10000 4.408
84.12000 4.781
84.14000 3.981
84.16000 2.958
84.18000 2.272
84.20000 6.333
84.22000 5.692
84.24000 7.331
84.26000 5.461
84.28000 5.085
84.30000 2.729
84.32000 0.315
84.34000 0.072
84.36000 0.974
84.38000 -1.354
84.40000 0.042
84.42000 -1.644
84.44000 0.618
84.46000 -1.885
84.48000 -2.524
84.50000 -1.330
84.52000 0.423
84.54000 1.316
84.56000 -2.514
84.58000 0.825
84.60000 1.263
84.62000 5.839
84.64000 5.571
84.66000 4.847
84.68000 6.358
84.70000 7.159
84.72000 3.766
84.74000 0.752
84.76000 4.085
84.78000 3.354
84.80000 2.469
84.82000 0.426
84.84000 -2.042
84.86000 -1.002
84.88000 4.590
84.90000 6.229
84.92000 1.872
84.94000 -0.215
84.96000 5.289
84.98000 2.694
85.00000 6.276
85.02000 2.036
85.04000 -2.508
85.06000 -2.254
85.08000 0.410
85.10000 3.904
85.12000 1.800
85.14000 -1.096
85.16000 0.677
85.18000 1.477
85.20000 3.769
85.22000 0.592
85.24000 -1.194
85.26000 -2.502
85.28000 3.211
85.30000 1.774
85.32000 2.472
85.34000 5.161
85.36000 0.196
85.38000 6.124
85.40000 4.074
85.42000 3.350
85.44000 5.947
85.46000 6.188
85.48000 3.655
85.50000 6.212
85.52000 -0.614
85.54000 0.103
85.56000 1.885
85.58000 4.540
85.60000 8.083
85.62000 5.746
85.64000 3.478
85.66000 2.341
85.68000 5.878
85.70000 10.389
85.72000 6.327
85.74000 6.632
85.76000 8.259
85.78000 9.027
85.80000 7.613
85.82000 8.592
85.84000 11.330
85.86000 5.573
85.88000 7.747
85.90000 4.172
85.92000 2.204
85.94000 5.920
85.96000 5.084
85.98000 7.300
86.00000 9.179
86.02000 5.859
86.04000 5.638
86.06000 7.122
86.08000 10.011
86.10000 14.570
86.12000 15.434
86.14000 9.086
86.16000 6.824
86.18000 7.120
86.20000 10.449
86.22000 9.137
86.24000 11.484
86.26000 11.954
86.28000 12.213
86.30000 8.724
86.32000 9.827
86.34000 6.693
86.36000 9.103
86.38000 10.076
86.40000 10.133
86.42000 18.206
86.44000 11.950
86.46000 11.439
86.48000 13.761
86.50000 19.661
86.52000 20.722
86.54000 22.126
86.56000 19.784
86.58000 20.003
86.60000 16.756
86.62000 17.158
86.64000 16.652
86.66000 20.750
86.68000 13.065
86.70000 21.894
86.72000 23.004
86.74000 19.382
86.76000 23.187
86.78000 23.233
86.80000 21.507
86.82000 22.416
86.84000 22.759
86.86000 25.054
86.88000 23.530
86.90000 22.262
86.92000 19.780
86.94000 21.755
86.96000 27.402
86.98000 23.531
87.00000 24.107
87.02000 24.033
87.04000 17.277
87.06000 17.421
87.08000 23.090
87.10000 22.588
87.12000 16.989
87.14000 19.876
87.16000 25.747
87.18000 26.030
87.20000 25.110
87.22000 21.434
87.24000 16.667
87.26000 22.298
87.28000 26.212
87.30000 17.990
87.32000 18.653
87.34000 20.892
87.36000 20.435
87.38000 16.959
87.40000 15.690
87.42000 16.450
87.44000 16.709
87.46000 19.924
87.48000 21.170
87.50000 17.897
87.52000 11.782
87.54000 12.889
87.56000 19.727
87.58000 15.371
87.60000 8.974
87.62000 7.351
87.64000 7.769
87.66000 8.034
87.68000 12.323
87.70000 8.690
87.72000 13.153
87.74000 6.372
87.76000 2.509
87.78000 4.784
87.80000 3.953
87.82000 4.859
87.84000 10.003
87.86000 11.721
87.88000 12.010
87.90000 10.810
87.92000 6.856
87.94000 5.185
87.96000 6.832
87.98000 9.500
88.00000 7.837
88.02000 -0.333
88.04000 -1.323
88.06000 3.504
88.08000 9.133
88.10000 4.039
88.12000 2.986
88.14000 6.341
88.16000 6.503
88.18000 9.233
88.20000 4.435
88.22000 3.185
88.24000 0.405
88.26000 0.499
88.28000 4.008
88.30000 5.271
88.32000 0.124
88.34000 -1.544
88.36000 2.709
88.38000 5.561
88.40000 -0.385
88.42000 2.300
88.44000 5.601
88.46000 6.004
88.48000 0.327
88.50000 2.633
88.52000 7.697
88.54000 2.098
88.56000 4.084
88.58000 1.845
88.60000 0.274
88.62000 1.895
88.64000 5.701
88.66000 5.395
88.68000 7.103
88.70000 5.787
88.72000 4.767
88.74000 1.230
88.76000 3.805
88.78000 2.966
88.80000 2.161
88.82000 1.391
88.84000 2.631
88.86000 4.334
88.88000 2.417
88.90000 1.593
88.92000 4.826
88.94000 5.135
88.96000 7.367
88.98000 9.251
89.00000 4.409
89.02000 1.181
89.04000 1.080
89.06000 4.048
89.08000 2.229
89.10000 5.535
89.12000 2.586
89.14000 2.293
89.16000 4.445
89.18000 8.174
89.20000 3.647
89.22000 -2.270
89.24000 -0.586
89.26000 2.608
89.28000 3.268
89.30000 2.183
89.32000 6.201
89.34000 4.430
89.36000 7.048
89.38000 8.585
89.40000 4.444
89.42000 2.306
89.44000 2.297
89.46000 8.718
89.48000 2.397
89.50000 4.450
89.52000 6.733
89.54000 6.595
89.56000 3.107
89.58000 11.077
89.60000 6.116
89.62000 1.382
89.64000 -0.146
89.66000 -2.276
89.68000 2.557
89.70000 3.713
89.72000 4.635
89.74000 -1.395
89.76000 -1.036
89.78000 5.177
89.80000 7.758
89.82000 2.817
89.84000 4.208
89.86000 4.349
89.88000 7.692
89.90000 6.818
89.92000 6.037
89.94000 3.151
89.96000 2.550
89.98000 1.248
90.00000 -0.189
90.02000 1.579
90.04000 2.801
90.06000 4.145
90.08000 2.642
90.10000 2.252
90.12000 1.652
90.14000 4.451
90.16000 5.245
90.18000 2.541
90.20000 0.290
90.22000 0.861
90.24000 -0.075
90.26000 -2.279
90.28000 -1.639
90.30000 5.565
90.32000 3.963
90.34000 0.657
90.36000 0.542
90.38000 0.433
90.40000 3.044
90.42000 -0.087
90.44000 -1.633
90.46000 -1.018
90.48000 5.545
90.50000 3.440
90.52000 3.916
90.54000 7.498
90.56000 0.978
90.58000 -1.926
90.60000 0.326
90.62000 3.111
90.64000 1.778
90.66000 2.681
90.68000 4.606
90.70000 3.785
90.72000 4.043
90.74000 1.999
90.76000 0.336
90.78000 2.878
90.80000 2.048
90.82000 0.630
90.84000 -0.637
90.86000 3.810
90.88000 7.472
90.90000 5.932
90.92000 6.030
90.94000 4.251
90.96000 7.437
90.98000 4.668
91.00000 2.412
91.02000 2.292
91.04000 -0.147
91.06000 -0.229
91.08000 1.196
91.10000 5.179
91.12000 6.239
91.14000 5.474
91.16000 6.497
91.18000 1.322
91.20000 2.919
91.22000 -0.584
91.24000 -2.194
91.26000 1.705
91.28000 1.394
91.30000 2.707
91.32000 -0.263
91.34000 -1.669
91.36000 5.172
91.38000 -0.455
91.40000 1.845
91.42000 3.081
91.44000 1.082
91.46000 2.782
91.48000 0.548
91.50000 2.436
91.52000 11.628
91.54000 9.631
91.56000 5.970
91.58000 3.666
91.60000 1.861
91.62000 -2.267
91.64000 2.313
91.66000 5.751
91.68000 8.677
91.70000 6.109
91.72000 8.454
91.74000 6.289
91.76000 2.490
91.78000 -1.401
91.80000 4.301
91.82000 0.466
91.84000 -2.262
91.86000 3.564
91.88000 4.590
91.90000 0.320
91.92000 2.080
91.94000 5.929
91.96000 2.589
91.98000 1.573
92.00000 0.133
92.02000 2.733
92.04000 5.128
92.06000 5.594
92.08000 9.259
92.10000 8.913
92.12000 7.184
92.14000 2.301
92.16000 5.722
92.18000 4.120
92.20000 6.713
92.22000 7.417
92.24000 4.872
92.26000 2.424
92.28000 3.635
92.30000 6.417
92.32000 2.813
92.34000 3.132
92.36000 2.644
92.38000 6.349
92.40000 10.368
92.42000 6.689
92.44000 10.102
92.46000 8.547
92.48000 3.973
92.50000 2.328
92.52000 6.082
92.54000 10.662
92.56000 7.338
92.58000 6.314
92.60000 4.343
92.62000 -2.241
92.64000 2.175
92.66000 4.274
92.68000 3.383
92.70000 4.540
92.72000 6.857
92.74000 3.383
92.76000 4.116
92.78000 4.880
92.80000 0.170
92.82000 2.892
92.84000 2.992
92.86000 1.370
92.88000 4.658
92.90000 6.085
92.92000 4.705
92.94000 5.799
92.96000 3.504
92.98000 -0.320
93.00000 2.222
93.02000 6.091
93.04000 5.231
93.06000 5.624
93.08000 2.685
93.10000 6.351
93.12000 5.584
93.14000 3.755
93.16000 -0.464
93.18000 -0.088
93.20000 -2.092
93.22000 -0.071
93.24000 10.403
93.26000 5.478
93.28000 5.546
93.30000 -0.889
93.32000 0.681
93.34000 6.426
93.36000 1.772
93.38000 -0.337
93.40000 -0.053
93.42000 10.236
93.44000 7.428
93.46000 8.379
93.48000 3.892
93.50000 6.420
93.52000 5.812
93.54000 2.593
93.56000 1.675
93.58000 1.460
93.60000 2.013
93.62000 5.379
93.64000 6.112
93.66000 5.326
93.68000 3.747
93.70000 0.351
93.72000 0.588
93.74000 0.584
93.76000 4.243
93.78000 0.866
93.80000 -0.736
93.82000 -1.662
93.84000 0.251
93.86000 3.656
93.88000 1.974
93.90000 -2.275
93.92000 3.686
93.94000 7.533
93.96000 5.210
93.98000 6.589
94.00000 4.960
94.02000 1.184
94.04000 3.748
94.06000 4.213
94.08000 3.170
94.10000 -0.608
94.12000 1.556
94.14000 4.891
94.16000 5.089
94.18000 0.646
94.20000 3.382
94.22000 3.956
94.24000 4.919
94.26000 5.264
94.28000 2.275
94.30000 1.061
94.32000 1.603
94.34000 -1.333
94.36000 1.070
94.38000 4.451
94.40000 2.158
94.42000 4.254
94.44000 3.015
94.46000 2.397
94.48000 3.340
94.50000 -0.738
94.52000 1.319
94.54000 2.424
94.56000 2.425
94.58000 -0.074
94.60000 1.127
94.62000 0.823
94.64000 2.443
94.66000 3.134
94.68000 -0.739
94.70000 2.987
94.72000 8.055
94.74000 5.056
94.76000 4.563
94.78000 8.690
94.80000 12.121
94.82000 11.565
94.84000 13.893
94.86000 7.351
94.88000 5.504
94.90000 3.063
94.92000 1.534
94.94000 2.274
94.96000 8.701
94.98000 10.492
95.00000 3.786
95.02000 7.316
95.04000 9.722
95.06000 5.426
95.08000 8.424
95.10000 2.501
95.12000 4.524
95.14000 3.411
95.16000 6.366
95.18000 8.842
95.20000 1.808
95.22000 4.227
95.24000 9.607
95.26000 10.911
95.28000 7.217
95.30000 6.886
95.32000 6.410
95.34000 9.019
95.36000 6.235
95.38000 8.646
95.40000 8.245
95.42000 6.945
95.44000 6.954
95.46000 9.346
95.48000 11.098
95.50000 4.935
95.52000 -2.198
95.54000 1.622
95.56000 0.650
95.58000 4.893
95.60000 7.323
95.62000 7.433
95.64000 7.224
95.66000 2.484
95.68000 5.064
95.70000 11.692
95.72000 14.416
95.74000 11.747
95.76000 7.983
95.78000 4.421
95.80000 4.334
95.82000 5.333
95.84000 0.741
95.86000 5.530
95.88000 6.380
95.90000 3.080
95.92000 7.736
95.94000 8.670
95.96000 6.339
95.98000 4.735
96.00000 2.195
96.02000 1.227
96.04000 4.908
96.06000 3.165
96.08000 10.444
96.10000 9.402
96.12000 9.879
96.14000 5.309
96.16000 4.367
96.18000 10.150
96.20000 11.771
96.22000 9.451
96.24000 7.976
96.26000 6.188
96.28000 9.109
96.30000 7.631
96.32000 6.243
96.34000 11.774
96.36000 9.203
96.38000 5.272
96.40000 9.953
96.42000 11.561
96.44000 4.946
96.46000 4.070
96.48000 0.818
96.50000 2.817
96.52000 4.893
96.54000 6.511
96.56000 4.670
96.58000 10.635
96.60000 13.846
96.62000 12.655
96.64000 5.979
96.66000 6.681
96.68000 4.055
96.70000 5.966
96.72000 8.313
96.74000 6.403
96.76000 5.136
96.78000 7.564
96.80000 4.962
96.82000 2.172
96.84000 0.845
96.86000 1.492
96.88000 -0.802
96.90000 3.501
96.92000 8.177
96.94000 2.127
96.96000 6.694
96.98000 5.985
97.00000 9.305
97.02000 2.948
97.04000 1.535
97.06000 -1.124
97.08000 4.973
97.10000 5.277
97.12000 4.662
97.14000 12.965
97.16000 9.407
97.18000 7.210
97.20000 5.462
97.22000 9.022
97.24000 4.509
97.26000 2.036
97.28000 9.706
97.30000 7.349
97.32000 1.269
97.34000 4.114
97.36000 7.123
97.38000 16.906
97.40000 13.746
97.42000 5.102
97.44000 5.019
97.46000 5.557
97.48000 7.414
97.50000 9.766
97.52000 9.784
97.54000 13.294
97.56000 12.186
97.58000 9.705
97.60000 4.513
97.62000 2.995
97.64000 7.393
97.66000 6.983
97.68000 10.398
97.70000 9.025
97.72000 1.582
97.74000 2.228
97.76000 2.950
97.78000 1.694
97.80000 -0.817
97.82000 2.513
97.84000 4.295
97.86000 9.108
97.88000 9.200
97.90000 8.623
97.92000 8.415
97.94000 9.552
97.96000 15.586
97.98000 8.695
98.00000 14.094
98.02000 12.476
98.04000 9.723
98.06000 11.551
98.08000 8.927
98.10000 3.664
98.12000 4.301
98.14000 6.297
98.16000 8.877
98.18000 9.725
98.20000 10.493
98.22000 8.622
98.24000 5.300
98.26000 7.469
98.28000 7.792
98.30000 4.692
98.32000 -1.793
98.34000 4.327
98.36000 13.274
98.38000 19.186
98.40000 5.955
98.42000 8.456
98.44000 -2.146
98.46000 2.376
98.48000 8.344
98.50000 13.325
98.52000 7.806
98.54000 5.444
98.56000 3.342
98.58000 3.088
98.60000 9.895
98.62000 9.996
98.64000 9.830
98.66000 2.354
98.68000 11.490
98.70000 12.132
98.72000 7.714
98.74000 4.445
98.76000 7.199
98.78000 3.212
98.80000 8.260
98.82000 0.947
98.84000 2.191
98.86000 7.829
98.88000 12.813
98.90000 11.258
98.92000 18.705
98.94000 18.550
98.96000 6.281
98.98000 7.642
99.00000 14.793
99.02000 12.945
99.04000 8.593
99.06000 6.734
99.08000 4.325
99.10000 11.394
99.12000 5.336
99.14000 0.642
99.16000 10.213
99.18000 10.436
99.20000 5.488
99.22000 2.940
99.24000 2.435
99.26000 -5.458
99.28000 8.716
99.30000 15.680
99.32000 6.373
99.34000 4.587
99.36000 12.751
99.38000 14.998
99.40000 9.584
99.42000 5.669
99.44000 7.837
99.46000 3.170
99.48000 4.586
99.50000 11.050
99.52000 9.369
99.54000 9.952
99.56000 7.373
99.58000 -0.340
99.60000 2.083
99.62000 14.099
99.64000 13.076
99.66000 -4.457
99.68000 5.020
99.70000 12.140
99.72000 7.141
99.74000 4.358
99.76000 17.757
99.78000 5.743
99.80000 4.935
99.82000 -2.203
99.84000 2.320
99.86000 9.488
99.88000 0.141
99.90000 -2.365
99.92000 -2.421
99.94000 9.116
99.96000 -2.568
99.98000 0.000
