'Id: "0011389" Comment: "Integrate frame 0011389_Au-Ir-Rh_Au-Rich_XRD_Mapping-139-0000.gfrmwith cursor Wedge Cursor #5" Operator: "B?rgel" Anode: "Cu" Wavelength: "1.5406" Scantype: "2Theta (TwoTheta)" TimePerStep: "1" X: "-31.5" Y: "-4.5" Z: "5.95" 
10.00000 0.000
10.02000 -4.552
10.04000 -4.503
10.06000 -2.243
10.08000 8.177
10.10000 21.072
10.12000 2.817
10.14000 -4.177
10.16000 4.499
10.18000 3.547
10.20000 0.812
10.22000 7.981
10.24000 5.148
10.26000 20.033
10.28000 12.515
10.30000 17.361
10.32000 4.648
10.34000 9.365
10.36000 -3.021
10.38000 -1.483
10.40000 0.161
10.42000 17.726
10.44000 20.803
10.46000 10.339
10.48000 6.172
10.50000 16.033
10.52000 11.581
10.54000 14.085
10.56000 22.315
10.58000 21.594
10.60000 14.385
10.62000 10.337
10.64000 17.242
10.66000 9.327
10.68000 0.691
10.70000 7.323
10.72000 -1.854
10.74000 6.634
10.76000 7.952
10.78000 -4.190
10.80000 6.137
10.82000 16.507
10.84000 18.144
10.86000 -3.816
10.88000 8.532
10.90000 25.149
10.92000 12.536
10.94000 14.512
10.96000 15.599
10.98000 15.726
11.00000 16.436
11.02000 7.177
11.04000 4.635
11.06000 6.729
11.08000 18.337
11.10000 14.062
11.12000 1.002
11.14000 7.093
11.16000 19.735
11.18000 17.442
11.20000 20.186
11.22000 17.977
11.24000 11.986
11.26000 8.994
11.28000 16.136
11.30000 13.051
11.32000 4.884
11.34000 8.341
11.36000 19.709
11.38000 9.899
11.40000 6.488
11.42000 9.313
11.44000 12.605
11.46000 5.942
11.48000 5.436
11.50000 11.911
11.52000 10.044
11.54000 17.026
11.56000 20.557
11.58000 12.529
11.60000 14.640
11.62000 16.336
11.64000 24.978
11.66000 19.377
11.68000 5.059
11.70000 5.886
11.72000 10.572
11.74000 5.053
11.76000 -2.667
11.78000 -2.340
11.80000 11.478
11.82000 11.932
11.84000 -2.902
11.86000 -4.500
11.88000 9.893
11.90000 12.981
11.92000 18.228
11.94000 26.892
11.96000 26.334
11.98000 11.685
12.00000 15.639
12.02000 3.757
12.04000 -4.330
12.06000 -2.133
12.08000 -1.120
12.10000 3.293
12.12000 11.478
12.14000 19.507
12.16000 19.597
12.18000 12.865
12.20000 16.758
12.22000 24.685
12.24000 29.132
12.26000 24.797
12.28000 11.801
12.30000 22.203
12.32000 19.880
12.34000 3.393
12.36000 -4.490
12.38000 9.898
12.40000 10.334
12.42000 9.851
12.44000 -4.491
12.46000 10.014
12.48000 8.756
12.50000 17.178
12.52000 9.797
12.54000 9.060
12.56000 12.326
12.58000 12.986
12.60000 15.379
12.62000 13.592
12.64000 16.771
12.66000 15.291
12.68000 11.589
12.70000 2.937
12.72000 9.884
12.74000 9.185
12.76000 5.601
12.78000 5.077
12.80000 13.282
12.82000 12.966
12.84000 11.243
12.86000 8.780
12.88000 6.198
12.90000 7.780
12.92000 20.370
12.94000 16.732
12.96000 10.152
12.98000 4.238
13.00000 19.744
13.02000 19.360
13.04000 12.365
13.06000 -1.977
13.08000 3.352
13.10000 3.748
13.12000 2.263
13.14000 6.363
13.16000 9.698
13.18000 6.236
13.20000 9.194
13.22000 5.370
13.24000 5.221
13.26000 2.226
13.28000 0.464
13.30000 14.392
13.32000 12.957
13.34000 16.306
13.36000 11.794
13.38000 11.503
13.40000 7.354
13.42000 -2.080
13.44000 2.672
13.46000 3.278
13.48000 -0.228
13.50000 6.048
13.52000 15.677
13.54000 12.620
13.56000 14.335
13.58000 13.774
13.60000 9.021
13.62000 15.101
13.64000 12.734
13.66000 15.473
13.68000 13.006
13.70000 8.515
13.72000 14.694
13.74000 9.897
13.76000 8.219
13.78000 6.393
13.80000 10.366
13.82000 9.351
13.84000 11.649
13.86000 11.212
13.88000 8.368
13.90000 9.335
13.92000 16.287
13.94000 8.858
13.96000 10.832
13.98000 6.228
14.00000 11.982
14.02000 5.636
14.04000 6.393
14.06000 11.256
14.08000 11.261
14.10000 9.529
14.12000 7.604
14.14000 14.240
14.16000 6.704
14.18000 5.297
14.20000 8.961
14.22000 8.881
14.24000 15.158
14.26000 11.019
14.28000 3.093
14.30000 7.387
14.32000 3.452
14.34000 -2.435
14.36000 3.783
14.38000 4.380
14.40000 8.797
14.42000 3.154
14.44000 6.975
14.46000 9.831
14.48000 9.852
14.50000 12.763
14.52000 7.682
14.54000 4.128
14.56000 7.497
14.58000 12.199
14.60000 9.784
14.62000 16.148
14.64000 17.485
14.66000 22.135
14.68000 1.863
14.70000 -4.457
14.72000 8.590
14.74000 16.845
14.76000 11.575
14.78000 4.442
14.80000 7.763
14.82000 6.799
14.84000 2.954
14.86000 -2.553
14.88000 3.749
14.90000 5.537
14.92000 1.015
14.94000 0.444
14.96000 15.870
14.98000 8.781
15.00000 13.763
15.02000 17.268
15.04000 21.209
15.06000 18.246
15.08000 16.480
15.10000 2.358
15.12000 -2.273
15.14000 -0.072
15.16000 -3.657
15.18000 3.738
15.20000 7.411
15.22000 12.719
15.24000 8.800
15.26000 9.402
15.28000 13.733
15.30000 11.078
15.32000 10.925
15.34000 15.425
15.36000 13.178
15.38000 3.182
15.40000 -2.971
15.42000 8.087
15.44000 7.601
15.46000 13.072
15.48000 15.652
15.50000 9.799
15.52000 11.335
15.54000 5.828
15.56000 8.286
15.58000 10.610
15.60000 14.986
15.62000 9.417
15.64000 5.904
15.66000 7.465
15.68000 11.564
15.70000 8.383
15.72000 12.997
15.74000 13.573
15.76000 12.548
15.78000 18.420
15.80000 17.710
15.82000 13.366
15.84000 9.629
15.86000 16.179
15.88000 9.766
15.90000 13.106
15.92000 13.188
15.94000 6.823
15.96000 14.087
15.98000 18.492
16.00000 16.240
16.02000 18.190
16.04000 10.794
16.06000 4.133
16.08000 -4.381
16.10000 5.237
16.12000 26.116
16.14000 21.983
16.16000 14.330
16.18000 13.846
16.20000 4.722
16.22000 12.917
16.24000 13.546
16.26000 12.139
16.28000 8.433
16.30000 5.109
16.32000 6.872
16.34000 4.276
16.36000 10.310
16.38000 7.159
16.40000 6.759
16.42000 10.499
16.44000 16.259
16.46000 16.294
16.48000 12.423
16.50000 9.268
16.52000 10.427
16.54000 8.539
16.56000 2.855
16.58000 0.206
16.60000 16.611
16.62000 13.969
16.64000 9.177
16.66000 21.877
16.68000 21.440
16.70000 10.065
16.72000 13.271
16.74000 11.039
16.76000 9.722
16.78000 6.263
16.80000 6.824
16.82000 4.277
16.84000 4.066
16.86000 11.486
16.88000 2.458
16.90000 4.521
16.92000 7.589
16.94000 12.261
16.96000 6.513
16.98000 3.915
17.00000 5.038
17.02000 1.766
17.04000 6.237
17.06000 7.847
17.08000 5.268
17.10000 0.807
17.12000 6.510
17.14000 8.860
17.16000 10.951
17.18000 13.776
17.20000 15.140
17.22000 13.651
17.24000 6.159
17.26000 5.681
17.28000 8.914
17.30000 2.086
17.32000 6.917
17.34000 11.136
17.36000 7.198
17.38000 1.127
17.40000 7.588
17.42000 14.157
17.44000 10.774
17.46000 10.687
17.48000 15.964
17.50000 13.328
17.52000 13.565
17.54000 12.154
17.56000 8.028
17.58000 0.551
17.60000 6.850
17.62000 6.018
17.64000 3.897
17.66000 5.235
17.68000 10.237
17.70000 8.888
17.72000 4.008
17.74000 6.419
17.76000 -1.893
17.78000 -4.325
17.80000 9.700
17.82000 8.710
17.84000 11.622
17.86000 6.312
17.88000 12.049
17.90000 14.863
17.92000 9.977
17.94000 8.904
17.96000 9.767
17.98000 1.222
18.00000 7.593
18.02000 7.830
18.04000 10.331
18.06000 7.945
18.08000 10.440
18.10000 13.810
18.12000 5.802
18.14000 4.164
18.16000 9.903
18.18000 6.610
18.20000 3.009
18.22000 2.504
18.24000 10.964
18.26000 11.227
18.28000 3.673
18.30000 7.193
18.32000 10.011
18.34000 1.878
18.36000 -4.272
18.38000 4.561
18.40000 5.465
18.42000 2.312
18.44000 0.854
18.46000 1.299
18.48000 3.236
18.50000 1.450
18.52000 -0.339
18.54000 3.026
18.56000 6.508
18.58000 8.079
18.60000 4.765
18.62000 9.856
18.64000 8.581
18.66000 8.746
18.68000 12.050
18.70000 4.348
18.72000 1.660
18.74000 3.920
18.76000 1.832
18.78000 6.152
18.80000 6.149
18.82000 5.827
18.84000 3.222
18.86000 3.718
18.88000 -1.134
18.90000 -0.892
18.92000 7.918
18.94000 9.605
18.96000 3.498
18.98000 3.146
19.00000 0.214
19.02000 4.342
19.04000 3.464
19.06000 5.915
19.08000 9.326
19.10000 4.180
19.12000 -4.258
19.14000 -0.614
19.16000 6.138
19.18000 6.866
19.20000 6.324
19.22000 6.030
19.24000 -1.079
19.26000 0.054
19.28000 4.467
19.30000 7.806
19.32000 4.321
19.34000 1.330
19.36000 0.377
19.38000 1.156
19.40000 1.995
19.42000 4.607
19.44000 0.221
19.46000 6.501
19.48000 3.949
19.50000 5.466
19.52000 8.886
19.54000 9.099
19.56000 4.947
19.58000 6.338
19.60000 6.494
19.62000 8.439
19.64000 12.618
19.66000 8.315
19.68000 7.306
19.70000 0.234
19.72000 -3.415
19.74000 2.620
19.76000 7.509
19.78000 5.010
19.80000 2.459
19.82000 4.762
19.84000 2.133
19.86000 7.893
19.88000 3.443
19.90000 3.524
19.92000 4.164
19.94000 2.655
19.96000 -2.539
19.98000 -3.163
20.00000 2.479
20.02000 6.139
20.04000 11.266
20.06000 0.539
20.08000 3.467
20.10000 3.031
20.12000 1.760
20.14000 -3.342
20.16000 1.815
20.18000 1.400
20.20000 5.521
20.22000 5.167
20.24000 1.951
20.26000 9.843
20.28000 9.165
20.30000 7.665
20.32000 2.817
20.34000 2.593
20.36000 8.482
20.38000 14.051
20.40000 11.222
20.42000 9.392
20.44000 7.383
20.46000 3.643
20.48000 3.704
20.50000 -2.194
20.52000 -3.266
20.54000 -2.007
20.56000 -4.167
20.58000 0.802
20.60000 8.819
20.62000 6.938
20.64000 8.532
20.66000 12.921
20.68000 5.390
20.70000 1.529
20.72000 -1.808
20.74000 -1.055
20.76000 -1.931
20.78000 -3.555
20.80000 0.867
20.82000 2.824
20.84000 0.717
20.86000 -2.468
20.88000 6.500
20.90000 6.509
20.92000 1.905
20.94000 -1.976
20.96000 0.642
20.98000 3.998
21.00000 6.157
21.02000 1.354
21.04000 1.476
21.06000 -0.454
21.08000 1.486
21.10000 0.791
21.12000 1.182
21.14000 3.826
21.16000 5.180
21.18000 3.650
21.20000 2.849
21.22000 0.413
21.24000 2.850
21.26000 2.485
21.28000 6.909
21.30000 3.893
21.32000 2.173
21.34000 0.645
21.36000 0.309
21.38000 0.616
21.40000 5.540
21.42000 2.923
21.44000 -0.467
21.46000 -0.194
21.48000 -0.078
21.50000 3.536
21.52000 -0.094
21.54000 9.266
21.56000 11.611
21.58000 6.326
21.60000 5.065
21.62000 3.535
21.64000 1.806
21.66000 -3.937
21.68000 1.885
21.70000 3.738
21.72000 0.099
21.74000 -1.400
21.76000 0.844
21.78000 3.528
21.80000 -2.271
21.82000 -2.499
21.84000 4.808
21.86000 5.337
21.88000 2.351
21.90000 6.307
21.92000 4.220
21.94000 2.722
21.96000 0.216
21.98000 -4.121
22.00000 5.419
22.02000 2.541
22.04000 7.383
22.06000 6.309
22.08000 3.826
22.10000 2.031
22.12000 3.542
22.14000 3.258
22.16000 8.095
22.18000 10.630
22.20000 9.666
22.22000 8.061
22.24000 6.443
22.26000 5.544
22.28000 1.765
22.30000 6.651
22.32000 -1.195
22.34000 0.006
22.36000 4.662
22.38000 4.198
22.40000 0.049
22.42000 3.173
22.44000 5.975
22.46000 7.884
22.48000 5.136
22.50000 6.035
22.52000 6.321
22.54000 12.374
22.56000 1.749
22.58000 -4.062
22.60000 -3.019
22.62000 -2.983
22.64000 -1.432
22.66000 0.013
22.68000 -1.913
22.70000 1.006
22.72000 2.333
22.74000 -2.968
22.76000 0.444
22.78000 1.501
22.80000 6.667
22.82000 4.495
22.84000 5.873
22.86000 6.244
22.88000 6.888
22.90000 6.342
22.92000 9.767
22.94000 12.352
22.96000 0.239
22.98000 -2.313
23.00000 1.014
23.02000 3.894
23.04000 9.204
23.06000 6.030
23.08000 0.452
23.10000 -4.047
23.12000 1.100
23.14000 1.505
23.16000 2.455
23.18000 -2.115
23.20000 -3.994
23.22000 0.590
23.24000 0.840
23.26000 2.014
23.28000 5.928
23.30000 6.859
23.32000 1.329
23.34000 0.604
23.36000 6.921
23.38000 5.417
23.40000 -0.075
23.42000 3.695
23.44000 -0.098
23.46000 3.689
23.48000 5.263
23.50000 -1.109
23.52000 -1.271
23.54000 -4.022
23.56000 -3.695
23.58000 0.348
23.60000 3.166
23.62000 2.885
23.64000 4.057
23.66000 2.728
23.68000 2.893
23.70000 2.072
23.72000 2.663
23.74000 -4.016
23.76000 2.751
23.78000 4.117
23.80000 4.492
23.82000 4.566
23.84000 -0.974
23.86000 4.414
23.88000 8.383
23.90000 3.026
23.92000 0.551
23.94000 -0.593
23.96000 2.648
23.98000 5.297
24.00000 8.220
24.02000 4.110
24.04000 3.006
24.06000 -1.084
24.08000 -3.515
24.10000 -3.402
24.12000 0.842
24.14000 4.192
24.16000 4.011
24.18000 2.532
24.20000 3.819
24.22000 1.004
24.24000 1.575
24.26000 2.946
24.28000 5.211
24.30000 4.995
24.32000 -3.982
24.34000 1.215
24.36000 4.813
24.38000 4.972
24.40000 9.657
24.42000 6.005
24.44000 3.998
24.46000 4.026
24.48000 0.751
24.50000 5.269
24.52000 10.975
24.54000 5.350
24.56000 6.382
24.58000 0.532
24.60000 -0.161
24.62000 4.867
24.64000 4.662
24.66000 4.396
24.68000 9.298
24.70000 9.227
24.72000 8.136
24.74000 7.157
24.76000 6.764
24.78000 4.914
24.80000 2.159
24.82000 0.940
24.84000 10.463
24.86000 6.969
24.88000 0.240
24.90000 -3.951
24.92000 2.250
24.94000 2.199
24.96000 0.869
24.98000 1.317
25.00000 3.596
25.02000 5.942
25.04000 8.665
25.06000 7.930
25.08000 6.470
25.10000 5.994
25.12000 4.560
25.14000 5.005
25.16000 5.442
25.18000 1.306
25.20000 -3.296
25.22000 -0.556
25.24000 -2.708
25.26000 -1.757
25.28000 1.203
25.30000 3.808
25.32000 3.047
25.34000 6.001
25.36000 7.613
25.38000 3.515
25.40000 2.652
25.42000 4.524
25.44000 2.580
25.46000 1.279
25.48000 4.010
25.50000 -1.263
25.52000 -3.921
25.54000 2.152
25.56000 4.547
25.58000 1.473
25.60000 4.042
25.62000 -2.993
25.64000 -0.318
25.66000 5.171
25.68000 2.684
25.70000 2.083
25.72000 1.931
25.74000 3.253
25.76000 3.917
25.78000 -1.384
25.80000 1.481
25.82000 9.371
25.84000 7.269
25.86000 0.399
25.88000 2.074
25.90000 -0.049
25.92000 -0.030
25.94000 -0.259
25.96000 0.140
25.98000 4.648
26.00000 6.692
26.02000 1.939
26.04000 -0.400
26.06000 -0.262
26.08000 -0.817
26.10000 2.764
26.12000 2.290
26.14000 -3.898
26.16000 0.154
26.18000 -1.526
26.20000 1.719
26.22000 3.770
26.24000 1.348
26.26000 1.570
26.28000 1.138
26.30000 4.127
26.32000 7.179
26.34000 3.105
26.36000 1.465
26.38000 3.885
26.40000 3.747
26.42000 4.392
26.44000 7.941
26.46000 1.896
26.48000 -0.083
26.50000 0.251
26.52000 6.970
26.54000 9.787
26.56000 6.890
26.58000 6.640
26.60000 6.456
26.62000 -0.303
26.64000 -2.562
26.66000 -1.156
26.68000 0.108
26.70000 3.778
26.72000 1.947
26.74000 0.360
26.76000 4.057
26.78000 2.055
26.80000 1.157
26.82000 1.208
26.84000 2.256
26.86000 7.000
26.88000 9.008
26.90000 4.921
26.92000 4.723
26.94000 5.989
26.96000 3.520
26.98000 -2.323
27.00000 -2.744
27.02000 -3.849
27.04000 0.110
27.06000 4.299
27.08000 -0.418
27.10000 2.049
27.12000 2.018
27.14000 3.071
27.16000 4.291
27.18000 4.771
27.20000 5.893
27.22000 6.031
27.24000 0.872
27.26000 3.433
27.28000 1.291
27.30000 -0.848
27.32000 -0.114
27.34000 3.779
27.36000 1.952
27.38000 1.361
27.40000 2.149
27.42000 0.647
27.44000 -2.167
27.46000 -1.503
27.48000 0.305
27.50000 4.600
27.52000 8.413
27.54000 5.304
27.56000 0.635
27.58000 2.200
27.60000 6.881
27.62000 8.387
27.64000 3.446
27.66000 0.032
27.68000 0.617
27.70000 6.656
27.72000 1.786
27.74000 5.581
27.76000 0.145
27.78000 -2.010
27.80000 2.568
27.82000 0.332
27.84000 0.115
27.86000 2.535
27.88000 7.821
27.90000 6.047
27.92000 3.646
27.94000 -1.783
27.96000 -2.019
27.98000 0.052
28.00000 -3.799
28.02000 0.897
28.04000 6.256
28.06000 3.218
28.08000 -0.642
28.10000 -0.575
28.12000 -0.161
28.14000 -3.149
28.16000 -3.026
28.18000 3.310
28.20000 3.179
28.22000 1.143
28.24000 3.599
28.26000 7.416
28.28000 5.892
28.30000 2.275
28.32000 0.839
28.34000 2.494
28.36000 4.326
28.38000 8.921
28.40000 9.287
28.42000 6.672
28.44000 3.709
28.46000 6.891
28.48000 -0.629
28.50000 0.145
28.52000 6.457
28.54000 4.685
28.56000 7.276
28.58000 4.424
28.60000 -3.755
28.62000 -3.656
28.64000 0.496
28.66000 -0.314
28.68000 2.732
28.70000 2.453
28.72000 4.193
28.74000 4.483
28.76000 4.995
28.78000 2.829
28.80000 1.219
28.82000 -0.567
28.84000 2.715
28.86000 -2.042
28.88000 -3.423
28.90000 3.076
28.92000 5.707
28.94000 2.755
28.96000 -0.088
28.98000 -0.523
29.00000 1.325
29.02000 4.887
29.04000 5.574
29.06000 11.171
29.08000 8.954
29.10000 5.267
29.12000 0.039
29.14000 3.391
29.16000 8.033
29.18000 5.767
29.20000 4.824
29.22000 6.651
29.24000 7.525
29.26000 9.637
29.28000 4.917
29.30000 3.387
29.32000 2.994
29.34000 7.230
29.36000 6.477
29.38000 1.021
29.40000 3.711
29.42000 1.642
29.44000 3.377
29.46000 3.564
29.48000 7.923
29.50000 3.976
29.52000 -2.000
29.54000 -2.476
29.56000 0.948
29.58000 0.476
29.60000 0.046
29.62000 1.967
29.64000 1.086
29.66000 3.440
29.68000 3.879
29.70000 6.696
29.72000 5.545
29.74000 4.245
29.76000 2.538
29.78000 1.689
29.80000 1.611
29.82000 -0.005
29.84000 4.346
29.86000 3.258
29.88000 0.723
29.90000 6.445
29.92000 6.510
29.94000 6.658
29.96000 10.013
29.98000 5.886
30.00000 4.941
30.02000 -3.682
30.04000 -0.436
30.06000 -1.694
30.08000 1.699
30.10000 3.378
30.12000 5.960
30.14000 0.724
30.16000 -0.280
30.18000 4.073
30.20000 2.412
30.22000 2.214
30.24000 1.843
30.26000 2.574
30.28000 4.786
30.30000 5.264
30.32000 3.764
30.34000 3.027
30.36000 -0.184
30.38000 1.831
30.40000 3.556
30.42000 3.280
30.44000 2.530
30.46000 1.946
30.48000 3.751
30.50000 2.771
30.52000 3.266
30.54000 1.561
30.56000 3.422
30.58000 3.928
30.60000 3.957
30.62000 0.305
30.64000 -3.676
30.66000 3.894
30.68000 0.137
30.70000 1.222
30.72000 1.025
30.74000 8.111
30.76000 2.994
30.78000 -3.653
30.80000 -0.516
30.82000 1.367
30.84000 4.148
30.86000 3.951
30.88000 0.629
30.90000 0.991
30.92000 -0.001
30.94000 -2.928
30.96000 -1.502
30.98000 -1.593
31.00000 0.831
31.02000 -0.788
31.04000 2.410
31.06000 2.130
31.08000 5.386
31.10000 4.457
31.12000 5.402
31.14000 1.860
31.16000 3.112
31.18000 6.338
31.20000 2.694
31.22000 0.982
31.24000 2.952
31.26000 2.932
31.28000 5.890
31.30000 6.735
31.32000 1.582
31.34000 -2.820
31.36000 -1.005
31.38000 -1.929
31.40000 -2.956
31.42000 -2.414
31.44000 1.190
31.46000 4.958
31.48000 -0.822
31.50000 -2.088
31.52000 -0.239
31.54000 -2.771
31.56000 0.779
31.58000 1.203
31.60000 0.658
31.62000 0.427
31.64000 -0.545
31.66000 -0.390
31.68000 -0.200
31.70000 0.589
31.72000 3.179
31.74000 -0.147
31.76000 -0.683
31.78000 -0.292
31.80000 -1.826
31.82000 -2.755
31.84000 -2.480
31.86000 1.469
31.88000 3.353
31.90000 7.589
31.92000 3.106
31.94000 6.912
31.96000 6.962
31.98000 7.775
32.00000 3.775
32.02000 -0.491
32.04000 0.316
32.06000 -1.297
32.08000 2.236
32.10000 3.593
32.12000 6.173
32.14000 6.291
32.16000 2.045
32.18000 3.357
32.20000 1.456
32.22000 1.120
32.24000 2.881
32.26000 5.502
32.28000 3.462
32.30000 -0.630
32.32000 1.517
32.34000 6.801
32.36000 4.179
32.38000 -3.591
32.40000 0.670
32.42000 5.296
32.44000 6.965
32.46000 8.819
32.48000 9.404
32.50000 9.108
32.52000 9.717
32.54000 3.341
32.56000 5.534
32.58000 2.745
32.60000 1.670
32.62000 2.157
32.64000 -1.298
32.66000 -1.527
32.68000 0.576
32.70000 -0.187
32.72000 2.944
32.74000 5.721
32.76000 7.318
32.78000 5.535
32.80000 0.555
32.82000 0.676
32.84000 -1.045
32.86000 -0.969
32.88000 2.664
32.90000 3.032
32.92000 0.341
32.94000 2.085
32.96000 3.713
32.98000 3.072
33.00000 1.410
33.02000 -3.104
33.04000 1.201
33.06000 5.878
33.08000 4.700
33.10000 4.416
33.12000 3.009
33.14000 -0.394
33.16000 0.974
33.18000 5.664
33.20000 7.616
33.22000 7.821
33.24000 0.363
33.26000 2.197
33.28000 1.010
33.30000 -0.324
33.32000 2.083
33.34000 -1.942
33.36000 -3.089
33.38000 -0.013
33.40000 1.184
33.42000 2.946
33.44000 5.586
33.46000 8.009
33.48000 3.086
33.50000 -0.081
33.52000 4.853
33.54000 2.910
33.56000 3.096
33.58000 1.813
33.60000 1.550
33.62000 -0.772
33.64000 0.505
33.66000 0.386
33.68000 2.319
33.70000 3.961
33.72000 1.403
33.74000 -3.599
33.76000 -3.376
33.78000 3.639
33.80000 7.287
33.82000 -0.792
33.84000 -1.141
33.86000 -1.071
33.88000 -1.419
33.90000 -1.007
33.92000 -0.389
33.94000 6.046
33.96000 2.719
33.98000 2.470
34.00000 -0.201
34.02000 2.988
34.04000 5.263
34.06000 1.343
34.08000 -1.105
34.10000 2.602
34.12000 5.537
34.14000 4.863
34.16000 -0.596
34.18000 2.599
34.20000 5.840
34.22000 4.102
34.24000 2.702
34.26000 2.108
34.28000 6.367
34.30000 4.135
34.32000 1.605
34.34000 -3.228
34.36000 -3.395
34.38000 2.120
34.40000 4.675
34.42000 4.982
34.44000 4.133
34.46000 3.524
34.48000 2.823
34.50000 5.817
34.52000 7.298
34.54000 2.389
34.56000 3.991
34.58000 2.714
34.60000 1.562
34.62000 -0.704
34.64000 1.206
34.66000 1.892
34.68000 3.795
34.70000 0.495
34.72000 -0.086
34.74000 4.533
34.76000 4.575
34.78000 1.960
34.80000 -3.565
34.82000 1.088
34.84000 2.934
34.86000 2.888
34.88000 3.404
34.90000 1.470
34.92000 1.545
34.94000 -1.553
34.96000 -0.166
34.98000 2.927
35.00000 3.015
35.02000 4.959
35.04000 -0.358
35.06000 1.103
35.08000 4.953
35.10000 4.434
35.12000 5.680
35.14000 4.575
35.16000 4.383
35.18000 3.043
35.20000 6.560
35.22000 4.927
35.24000 1.584
35.26000 2.259
35.28000 0.350
35.30000 1.575
35.32000 1.853
35.34000 0.244
35.36000 -0.918
35.38000 -1.033
35.40000 -0.098
35.42000 1.402
35.44000 -0.479
35.46000 2.506
35.48000 3.503
35.50000 2.336
35.52000 3.003
35.54000 4.485
35.56000 0.155
35.58000 -3.302
35.60000 3.273
35.62000 2.850
35.64000 4.528
35.66000 2.449
35.68000 1.910
35.70000 7.505
35.72000 5.588
35.74000 6.585
35.76000 6.356
35.78000 3.131
35.80000 6.454
35.82000 7.119
35.84000 1.227
35.86000 2.646
35.88000 3.429
35.90000 2.077
35.92000 8.644
35.94000 10.219
35.96000 2.897
35.98000 -2.204
36.00000 -3.572
36.02000 -0.283
36.04000 5.917
36.06000 8.846
36.08000 6.373
36.10000 11.117
36.12000 11.115
36.14000 9.784
36.16000 1.580
36.18000 2.657
36.20000 6.592
36.22000 4.496
36.24000 3.449
36.26000 2.101
36.28000 3.386
36.30000 2.493
36.32000 0.149
36.34000 -0.812
36.36000 2.209
36.38000 3.455
36.40000 9.657
36.42000 9.672
36.44000 4.201
36.46000 5.021
36.48000 6.315
36.50000 5.278
36.52000 4.019
36.54000 3.115
36.56000 1.202
36.58000 5.542
36.60000 7.157
36.62000 3.676
36.64000 7.484
36.66000 8.906
36.68000 5.280
36.70000 4.973
36.72000 6.649
36.74000 6.294
36.76000 7.359
36.78000 3.229
36.80000 5.212
36.82000 9.537
36.84000 11.722
36.86000 8.238
36.88000 7.049
36.90000 9.888
36.92000 6.520
36.94000 4.538
36.96000 2.189
36.98000 6.295
37.00000 7.605
37.02000 4.826
37.04000 7.787
37.06000 5.174
37.08000 0.449
37.10000 5.004
37.12000 10.793
37.14000 7.808
37.16000 8.486
37.18000 4.660
37.20000 7.885
37.22000 6.723
37.24000 10.549
37.26000 5.506
37.28000 13.628
37.30000 15.099
37.32000 11.070
37.34000 8.102
37.36000 12.176
37.38000 14.473
37.40000 10.956
37.42000 9.291
37.44000 12.029
37.46000 10.944
37.48000 12.016
37.50000 12.362
37.52000 17.019
37.54000 14.107
37.56000 13.742
37.58000 12.698
37.60000 12.407
37.62000 18.382
37.64000 18.900
37.66000 16.185
37.68000 15.525
37.70000 22.223
37.72000 19.417
37.74000 19.975
37.76000 20.267
37.78000 24.278
37.80000 28.072
37.82000 25.444
37.84000 20.616
37.86000 21.927
37.88000 25.767
37.90000 26.256
37.92000 27.944
37.94000 29.592
37.96000 29.398
37.98000 33.894
38.00000 36.940
38.02000 33.535
38.04000 32.174
38.06000 30.591
38.08000 35.177
38.10000 35.614
38.12000 38.174
38.14000 36.752
38.16000 37.414
38.18000 38.876
38.20000 44.944
38.22000 48.686
38.24000 46.323
38.26000 44.622
38.28000 50.731
38.30000 51.717
38.32000 51.549
38.34000 56.288
38.36000 59.182
38.38000 62.292
38.40000 61.264
38.42000 67.365
38.44000 65.366
38.46000 70.206
38.48000 66.261
38.50000 74.930
38.52000 85.020
38.54000 90.330
38.56000 97.683
38.58000 104.844
38.60000 101.133
38.62000 105.660
38.64000 110.199
38.66000 115.228
38.68000 121.079
38.70000 131.264
38.72000 135.538
38.74000 147.033
38.76000 157.347
38.78000 165.313
38.80000 171.049
38.82000 184.618
38.84000 196.457
38.86000 206.972
38.88000 222.068
38.90000 239.561
38.92000 247.118
38.94000 255.557
38.96000 273.400
38.98000 283.042
39.00000 305.666
39.02000 324.028
39.04000 339.488
39.06000 351.952
39.08000 365.496
39.10000 376.598
39.12000 386.295
39.14000 400.677
39.16000 407.873
39.18000 409.521
39.20000 415.629
39.22000 419.035
39.24000 428.150
39.26000 426.829
39.28000 422.191
39.30000 424.281
39.32000 417.608
39.34000 410.269
39.36000 409.063
39.38000 399.519
39.40000 385.591
39.42000 377.240
39.44000 365.900
39.46000 356.152
39.48000 336.525
39.50000 321.486
39.52000 302.590
39.54000 299.206
39.56000 285.340
39.58000 274.230
39.60000 258.553
39.62000 245.139
39.64000 228.101
39.66000 218.395
39.68000 206.681
39.70000 191.008
39.72000 180.862
39.74000 176.606
39.76000 162.893
39.78000 142.124
39.80000 135.561
39.82000 128.624
39.84000 117.802
39.86000 117.176
39.88000 110.569
39.90000 108.063
39.92000 103.806
39.94000 89.882
39.96000 81.343
39.98000 78.580
40.00000 78.771
40.02000 72.203
40.04000 66.798
40.06000 64.703
40.08000 63.707
40.10000 66.308
40.12000 56.214
40.14000 49.809
40.16000 51.285
40.18000 46.600
40.20000 41.044
40.22000 37.317
40.24000 38.566
40.26000 39.813
40.28000 34.512
40.30000 33.699
40.32000 36.284
40.34000 30.471
40.36000 30.729
40.38000 28.882
40.40000 26.965
40.42000 29.068
40.44000 23.389
40.46000 24.157
40.48000 24.523
40.50000 21.587
40.52000 19.341
40.54000 25.061
40.56000 21.120
40.58000 20.619
40.60000 19.905
40.62000 20.897
40.64000 21.582
40.66000 18.333
40.68000 18.046
40.70000 16.170
40.72000 12.941
40.74000 11.997
40.76000 14.262
40.78000 19.219
40.80000 16.417
40.82000 13.166
40.84000 10.377
40.86000 10.761
40.88000 10.866
40.90000 11.733
40.92000 9.827
40.94000 9.938
40.96000 11.139
40.98000 10.859
41.00000 8.157
41.02000 5.292
41.04000 8.493
41.06000 5.686
41.08000 6.318
41.10000 9.211
41.12000 5.245
41.14000 4.705
41.16000 4.996
41.18000 5.121
41.20000 5.112
41.22000 3.806
41.24000 -0.045
41.26000 2.361
41.28000 4.432
41.30000 4.874
41.32000 3.473
41.34000 12.459
41.36000 9.174
41.38000 4.677
41.40000 0.542
41.42000 -1.550
41.44000 -0.924
41.46000 4.245
41.48000 7.631
41.50000 8.489
41.52000 2.596
41.54000 2.477
41.56000 2.613
41.58000 1.008
41.60000 1.231
41.62000 2.329
41.64000 2.774
41.66000 1.012
41.68000 0.929
41.70000 3.728
41.72000 3.118
41.74000 4.119
41.76000 5.899
41.78000 4.840
41.80000 3.329
41.82000 2.270
41.84000 2.610
41.86000 2.323
41.88000 5.843
41.90000 7.244
41.92000 4.340
41.94000 1.468
41.96000 2.626
41.98000 5.604
42.00000 3.246
42.02000 0.853
42.04000 3.787
42.06000 6.021
42.08000 0.657
42.10000 -1.990
42.12000 -2.429
42.14000 0.513
42.16000 -1.438
42.18000 -3.368
42.20000 -2.214
42.22000 -2.045
42.24000 1.352
42.26000 0.131
42.28000 0.668
42.30000 1.375
42.32000 -0.240
42.34000 1.263
42.36000 6.109
42.38000 3.563
42.40000 5.586
42.42000 2.853
42.44000 1.609
42.46000 4.391
42.48000 4.143
42.50000 0.386
42.52000 -0.455
42.54000 -1.383
42.56000 -0.176
42.58000 -0.209
42.60000 1.812
42.62000 0.587
42.64000 -1.449
42.66000 3.724
42.68000 4.754
42.70000 3.932
42.72000 3.362
42.74000 1.914
42.76000 1.121
42.78000 4.686
42.80000 4.049
42.82000 2.586
42.84000 -0.540
42.86000 -0.222
42.88000 -2.260
42.90000 -1.283
42.92000 3.735
42.94000 3.397
42.96000 0.953
42.98000 -0.025
43.00000 2.964
43.02000 2.968
43.04000 1.840
43.06000 -0.955
43.08000 -0.506
43.10000 0.130
43.12000 3.152
43.14000 3.576
43.16000 2.742
43.18000 -0.678
43.20000 1.404
43.22000 3.624
43.24000 2.640
43.26000 2.206
43.28000 0.040
43.30000 0.583
43.32000 -2.079
43.34000 -1.288
43.36000 1.249
43.38000 0.000
43.40000 0.680
43.42000 2.243
43.44000 0.077
43.46000 1.366
43.48000 1.336
43.50000 2.635
43.52000 2.075
43.54000 3.021
43.56000 1.990
43.58000 -0.040
43.60000 2.214
43.62000 5.452
43.64000 2.227
43.66000 3.031
43.68000 5.580
43.70000 2.522
43.72000 -0.424
43.74000 -3.133
43.76000 -3.188
43.78000 2.195
43.80000 2.487
43.82000 0.117
43.84000 -1.659
43.86000 3.937
43.88000 5.212
43.90000 -3.178
43.92000 -2.574
43.94000 1.284
43.96000 6.518
43.98000 7.761
44.00000 5.683
44.02000 1.650
44.04000 5.021
44.06000 3.424
44.08000 1.537
44.10000 -0.289
44.12000 -1.983
44.14000 1.789
44.16000 3.811
44.18000 3.167
44.20000 3.073
44.22000 2.829
44.24000 2.274
44.26000 3.712
44.28000 1.855
44.30000 0.891
44.32000 -0.222
44.34000 1.217
44.36000 5.527
44.38000 5.442
44.40000 7.125
44.42000 7.529
44.44000 5.486
44.46000 7.090
44.48000 6.478
44.50000 8.887
44.52000 10.203
44.54000 11.457
44.56000 7.141
44.58000 5.911
44.60000 5.201
44.62000 5.348
44.64000 8.682
44.66000 9.910
44.68000 8.478
44.70000 6.002
44.72000 10.084
44.74000 11.636
44.76000 12.374
44.78000 13.780
44.80000 9.876
44.82000 10.855
44.84000 15.101
44.86000 13.592
44.88000 12.425
44.90000 14.586
44.92000 12.368
44.94000 13.744
44.96000 16.378
44.98000 18.363
45.00000 17.092
45.02000 24.296
45.04000 23.385
45.06000 18.657
45.08000 18.822
45.10000 19.178
45.12000 18.161
45.14000 16.940
45.16000 24.020
45.18000 29.692
45.20000 31.392
45.22000 30.258
45.24000 30.137
45.26000 29.677
45.28000 35.069
45.30000 29.055
45.32000 32.185
45.34000 37.309
45.36000 39.882
45.38000 41.186
45.40000 35.475
45.42000 41.446
45.44000 44.646
45.46000 45.994
45.48000 46.675
45.50000 41.242
45.52000 44.164
45.54000 51.625
45.56000 57.466
45.58000 58.238
45.60000 55.565
45.62000 56.470
45.64000 57.908
45.66000 62.966
45.68000 63.464
45.70000 65.248
45.72000 65.265
45.74000 67.481
45.76000 65.895
45.78000 63.652
45.80000 65.832
45.82000 62.290
45.84000 67.957
45.86000 73.653
45.88000 67.783
45.90000 63.631
45.92000 62.481
45.94000 64.616
45.96000 60.465
45.98000 60.443
46.00000 60.026
46.02000 60.485
46.04000 62.251
46.06000 61.832
46.08000 57.639
46.10000 54.330
46.12000 50.541
46.14000 49.719
46.16000 46.105
46.18000 52.162
46.20000 50.887
46.22000 46.322
46.24000 41.918
46.26000 39.587
46.28000 42.550
46.30000 39.959
46.32000 36.866
46.34000 34.073
46.36000 35.475
46.38000 35.044
46.40000 29.803
46.42000 30.281
46.44000 29.312
46.46000 25.565
46.48000 25.787
46.50000 21.345
46.52000 16.887
46.54000 21.553
46.56000 21.466
46.58000 17.098
46.60000 15.121
46.62000 14.106
46.64000 12.888
46.66000 10.307
46.68000 8.234
46.70000 14.041
46.72000 14.449
46.74000 13.064
46.76000 8.867
46.78000 9.041
46.80000 6.293
46.82000 9.250
46.84000 6.213
46.86000 8.047
46.88000 6.630
46.90000 3.985
46.92000 2.680
46.94000 2.689
46.96000 3.362
46.98000 1.412
47.00000 -1.553
47.02000 0.697
47.04000 0.827
47.06000 5.298
47.08000 4.258
47.10000 0.778
47.12000 1.130
47.14000 0.139
47.16000 2.567
47.18000 -1.812
47.20000 0.068
47.22000 5.883
47.24000 1.618
47.26000 -2.857
47.28000 0.024
47.30000 3.484
47.32000 2.438
47.34000 1.500
47.36000 -2.226
47.38000 -1.534
47.40000 4.229
47.42000 7.527
47.44000 5.526
47.46000 0.413
47.48000 1.662
47.50000 -1.616
47.52000 -0.985
47.54000 1.098
47.56000 1.026
47.58000 1.864
47.60000 2.519
47.62000 1.300
47.64000 -1.046
47.66000 0.075
47.68000 -1.026
47.70000 -2.801
47.72000 -0.135
47.74000 0.322
47.76000 0.215
47.78000 2.362
47.80000 -0.136
47.82000 1.849
47.84000 1.821
47.86000 3.656
47.88000 3.394
47.90000 -1.039
47.92000 -1.883
47.94000 0.529
47.96000 2.140
47.98000 4.349
48.00000 4.894
48.02000 7.669
48.04000 4.672
48.06000 4.784
48.08000 2.660
48.10000 -0.714
48.12000 2.106
48.14000 3.048
48.16000 -1.664
48.18000 -0.830
48.20000 -0.215
48.22000 -2.743
48.24000 1.542
48.26000 2.865
48.28000 2.584
48.30000 2.872
48.32000 3.390
48.34000 3.299
48.36000 4.917
48.38000 2.633
48.40000 0.791
48.42000 3.096
48.44000 3.638
48.46000 3.458
48.48000 6.930
48.50000 8.791
48.52000 3.191
48.54000 3.477
48.56000 1.686
48.58000 -0.920
48.60000 -0.566
48.62000 2.674
48.64000 5.725
48.66000 1.883
48.68000 0.586
48.70000 0.412
48.72000 1.989
48.74000 4.333
48.76000 4.165
48.78000 4.449
48.80000 2.396
48.82000 3.220
48.84000 7.432
48.86000 2.604
48.88000 -0.306
48.90000 -2.691
48.92000 -1.313
48.94000 4.571
48.96000 0.235
48.98000 0.151
49.00000 2.324
49.02000 1.546
49.04000 -1.683
49.06000 0.063
49.08000 5.314
49.10000 5.124
49.12000 -0.942
49.14000 2.098
49.16000 6.699
49.18000 1.632
49.20000 0.087
49.22000 0.448
49.24000 0.366
49.26000 1.359
49.28000 1.692
49.30000 0.740
49.32000 0.327
49.34000 1.245
49.36000 0.963
49.38000 1.532
49.40000 1.564
49.42000 1.791
49.44000 2.981
49.46000 0.831
49.48000 3.084
49.50000 4.281
49.52000 6.868
49.54000 5.412
49.56000 5.127
49.58000 2.634
49.60000 4.625
49.62000 4.288
49.64000 2.627
49.66000 2.608
49.68000 1.099
49.70000 2.428
49.72000 7.359
49.74000 8.023
49.76000 4.840
49.78000 6.379
49.80000 6.411
49.82000 2.939
49.84000 5.273
49.86000 2.360
49.88000 1.466
49.90000 -0.548
49.92000 -0.353
49.94000 -0.889
49.96000 -2.621
49.98000 -0.380
50.00000 0.861
50.02000 4.515
50.04000 3.581
50.06000 3.820
50.08000 2.220
50.10000 0.197
50.12000 2.142
50.14000 4.443
50.16000 3.579
50.18000 2.344
50.20000 5.295
50.22000 2.722
50.24000 1.012
50.26000 0.956
50.28000 2.374
50.30000 2.479
50.32000 0.524
50.34000 -2.202
50.36000 3.260
50.38000 4.550
50.40000 3.370
50.42000 2.317
50.44000 4.483
50.46000 2.569
50.48000 -1.090
50.50000 -1.493
50.52000 1.012
50.54000 -1.087
50.56000 0.642
50.58000 1.023
50.60000 5.110
50.62000 2.954
50.64000 2.071
50.66000 4.311
50.68000 4.245
50.70000 5.894
50.72000 6.501
50.74000 2.178
50.76000 -1.046
50.78000 4.001
50.80000 5.270
50.82000 3.128
50.84000 -1.849
50.86000 1.903
50.88000 3.557
50.90000 1.782
50.92000 4.218
50.94000 5.456
50.96000 5.258
50.98000 4.005
51.00000 1.516
51.02000 0.792
51.04000 0.836
51.06000 -0.371
51.08000 0.119
51.10000 -1.968
51.12000 -2.597
51.14000 -0.827
51.16000 3.421
51.18000 4.598
51.20000 6.805
51.22000 7.723
51.24000 4.666
51.26000 4.005
51.28000 0.596
51.30000 -1.373
51.32000 -1.687
51.34000 1.372
51.36000 0.333
51.38000 2.497
51.40000 0.926
51.42000 2.115
51.44000 4.279
51.46000 4.692
51.48000 6.211
51.50000 2.161
51.52000 -1.121
51.54000 0.922
51.56000 1.455
51.58000 0.764
51.60000 -0.303
51.62000 3.352
51.64000 4.361
51.66000 4.185
51.68000 3.879
51.70000 0.767
51.72000 2.100
51.74000 4.225
51.76000 1.486
51.78000 -1.973
51.80000 0.238
51.82000 -2.019
51.84000 -1.393
51.86000 -2.587
51.88000 0.927
51.90000 4.291
51.92000 2.764
51.94000 -1.226
51.96000 -0.295
51.98000 1.963
52.00000 5.359
52.02000 3.241
52.04000 0.268
52.06000 6.807
52.08000 5.160
52.10000 0.266
52.12000 -0.750
52.14000 -1.421
52.16000 -1.021
52.18000 -2.558
52.20000 2.364
52.22000 1.400
52.24000 -2.586
52.26000 1.010
52.28000 4.526
52.30000 2.674
52.32000 4.331
52.34000 1.800
52.36000 -0.798
52.38000 0.070
52.40000 4.293
52.42000 -0.347
52.44000 1.215
52.46000 0.851
52.48000 -0.545
52.50000 -0.687
52.52000 2.364
52.54000 7.808
52.56000 4.654
52.58000 -1.691
52.60000 1.792
52.62000 2.557
52.64000 3.382
52.66000 -1.224
52.68000 -0.669
52.70000 1.041
52.72000 1.646
52.74000 3.461
52.76000 3.528
52.78000 2.380
52.80000 1.246
52.82000 2.159
52.84000 -1.102
52.86000 0.621
52.88000 1.765
52.90000 1.739
52.92000 0.795
52.94000 3.713
52.96000 -0.631
52.98000 -2.273
53.00000 0.987
53.02000 -0.819
53.04000 -0.156
53.06000 2.236
53.08000 1.568
53.10000 1.733
53.12000 1.709
53.14000 0.602
53.16000 1.988
53.18000 -0.162
53.20000 -1.038
53.22000 4.028
53.24000 3.714
53.26000 -2.157
53.28000 -2.295
53.30000 -2.556
53.32000 0.329
53.34000 1.768
53.36000 0.086
53.38000 -0.019
53.40000 0.803
53.42000 6.064
53.44000 2.807
53.46000 1.314
53.48000 0.236
53.50000 2.961
53.52000 4.317
53.54000 8.164
53.56000 3.029
53.58000 1.671
53.60000 5.909
53.62000 5.453
53.64000 3.291
53.66000 2.326
53.68000 0.674
53.70000 -2.531
53.72000 0.355
53.74000 2.097
53.76000 0.542
53.78000 0.978
53.80000 -0.028
53.82000 0.080
53.84000 1.269
53.86000 3.965
53.88000 6.049
53.90000 4.691
53.92000 3.097
53.94000 7.166
53.96000 2.717
53.98000 2.027
54.00000 0.508
54.02000 -2.522
54.04000 -1.614
54.06000 -0.209
54.08000 1.618
54.10000 0.997
54.12000 3.808
54.14000 4.514
54.16000 5.952
54.18000 -0.076
54.20000 4.366
54.22000 4.147
54.24000 5.696
54.26000 2.060
54.28000 1.812
54.30000 2.072
54.32000 0.390
54.34000 3.119
54.36000 2.983
54.38000 4.442
54.40000 3.576
54.42000 3.731
54.44000 5.455
54.46000 0.035
54.48000 -1.439
54.50000 -0.671
54.52000 1.342
54.54000 3.236
54.56000 1.909
54.58000 3.580
54.60000 4.063
54.62000 3.334
54.64000 4.544
54.66000 6.257
54.68000 1.274
54.70000 0.692
54.72000 -2.269
54.74000 2.589
54.76000 2.809
54.78000 6.163
54.80000 5.845
54.82000 3.867
54.84000 3.527
54.86000 3.167
54.88000 3.878
54.90000 3.703
54.92000 4.228
54.94000 5.972
54.96000 8.201
54.98000 5.092
55.00000 -2.499
55.02000 0.853
55.04000 2.516
55.06000 2.431
55.08000 2.315
55.10000 0.735
55.12000 3.420
55.14000 5.496
55.16000 3.843
55.18000 2.178
55.20000 3.157
55.22000 0.205
55.24000 0.286
55.26000 1.464
55.28000 5.381
55.30000 4.707
55.32000 -0.253
55.34000 3.344
55.36000 7.290
55.38000 7.960
55.40000 6.025
55.42000 4.713
55.44000 7.283
55.46000 4.406
55.48000 5.058
55.50000 3.613
55.52000 5.707
55.54000 5.882
55.56000 3.628
55.58000 1.453
55.60000 1.974
55.62000 4.174
55.64000 4.453
55.66000 1.448
55.68000 -0.096
55.70000 -2.450
55.72000 -0.450
55.74000 5.210
55.76000 7.362
55.78000 1.737
55.80000 3.265
55.82000 4.209
55.84000 2.238
55.86000 2.152
55.88000 5.749
55.90000 5.451
55.92000 4.289
55.94000 5.069
55.96000 3.898
55.98000 1.698
56.00000 4.742
56.02000 1.202
56.04000 0.157
56.06000 1.037
56.08000 4.175
56.10000 4.987
56.12000 7.045
56.14000 4.671
56.16000 -2.096
56.18000 -2.390
56.20000 3.314
56.22000 3.299
56.24000 2.775
56.26000 5.492
56.28000 7.153
56.30000 3.922
56.32000 4.899
56.34000 5.718
56.36000 3.463
56.38000 4.480
56.40000 3.441
56.42000 3.665
56.44000 3.594
56.46000 -0.193
56.48000 0.899
56.50000 4.584
56.52000 3.163
56.54000 2.511
56.56000 6.048
56.58000 3.408
56.60000 -0.435
56.62000 1.914
56.64000 3.073
56.66000 2.173
56.68000 -1.474
56.70000 0.433
56.72000 3.969
56.74000 2.629
56.76000 3.381
56.78000 1.441
56.80000 4.712
56.82000 1.346
56.84000 0.762
56.86000 0.137
56.88000 1.080
56.90000 -1.146
56.92000 2.087
56.94000 0.484
56.96000 -0.097
56.98000 2.024
57.00000 5.922
57.02000 2.441
57.04000 4.104
57.06000 3.116
57.08000 2.779
57.10000 2.344
57.12000 4.876
57.14000 7.001
57.16000 7.147
57.18000 3.755
57.20000 3.385
57.22000 -2.423
57.24000 -1.952
57.26000 0.373
57.28000 1.275
57.30000 3.368
57.32000 5.643
57.34000 5.549
57.36000 2.814
57.38000 5.058
57.40000 4.699
57.42000 3.643
57.44000 4.270
57.46000 4.955
57.48000 2.957
57.50000 1.437
57.52000 4.323
57.54000 1.144
57.56000 3.199
57.58000 3.074
57.60000 1.349
57.62000 3.498
57.64000 1.795
57.66000 1.678
57.68000 0.990
57.70000 2.660
57.72000 7.006
57.74000 4.815
57.76000 -2.412
57.78000 -1.327
57.80000 4.424
57.82000 3.664
57.84000 0.499
57.86000 1.619
57.88000 2.351
57.90000 0.866
57.92000 2.956
57.94000 5.660
57.96000 2.624
57.98000 2.085
58.00000 0.980
58.02000 -0.465
58.04000 1.139
58.06000 3.338
58.08000 0.594
58.10000 -0.794
58.12000 -0.354
58.14000 6.228
58.16000 5.232
58.18000 2.119
58.20000 3.270
58.22000 4.395
58.24000 6.669
58.26000 1.509
58.28000 2.463
58.30000 0.248
58.32000 0.309
58.34000 -0.797
58.36000 0.072
58.38000 -2.191
58.40000 1.320
58.42000 1.882
58.44000 -0.224
58.46000 2.169
58.48000 1.640
58.50000 3.839
58.52000 2.260
58.54000 2.690
58.56000 -0.427
58.58000 1.058
58.60000 -0.500
58.62000 1.921
58.64000 0.131
58.66000 3.942
58.68000 0.406
58.70000 -2.391
58.72000 1.057
58.74000 2.197
58.76000 2.858
58.78000 2.864
58.80000 2.007
58.82000 -0.197
58.84000 4.462
58.86000 4.551
58.88000 3.930
58.90000 0.417
58.92000 0.957
58.94000 0.106
58.96000 3.031
58.98000 -1.083
59.00000 0.906
59.02000 4.167
59.04000 3.056
59.06000 0.651
59.08000 1.874
59.10000 5.284
59.12000 0.804
59.14000 1.651
59.16000 1.279
59.18000 0.310
59.20000 2.320
59.22000 4.303
59.24000 3.385
59.26000 1.889
59.28000 -2.348
59.30000 -0.122
59.32000 4.048
59.34000 1.836
59.36000 3.142
59.38000 -0.130
59.40000 3.185
59.42000 0.785
59.44000 1.892
59.46000 1.105
59.48000 2.157
59.50000 1.216
59.52000 -1.276
59.54000 3.225
59.56000 0.739
59.58000 0.845
59.60000 0.442
59.62000 -0.874
59.64000 -1.149
59.66000 0.185
59.68000 4.093
59.70000 4.260
59.72000 3.458
59.74000 4.959
59.76000 2.439
59.78000 5.752
59.80000 -0.922
59.82000 -2.374
59.84000 -2.240
59.86000 -1.647
59.88000 1.286
59.90000 2.623
59.92000 1.412
59.94000 2.631
59.96000 5.950
59.98000 3.795
60.00000 2.560
60.02000 1.186
60.04000 0.348
60.06000 -0.349
60.08000 -0.125
60.10000 -0.862
60.12000 0.460
60.14000 -1.135
60.16000 3.188
60.18000 -1.382
60.20000 -0.630
60.22000 2.660
60.24000 3.020
60.26000 1.573
60.28000 1.641
60.30000 1.427
60.32000 -0.526
60.34000 0.886
60.36000 2.264
60.38000 0.732
60.40000 1.837
60.42000 0.447
60.44000 1.256
60.46000 1.530
60.48000 -1.564
60.50000 -0.130
60.52000 2.322
60.54000 3.342
60.56000 4.586
60.58000 5.943
60.60000 2.789
60.62000 3.211
60.64000 3.612
60.66000 4.745
60.68000 4.775
60.70000 4.911
60.72000 2.099
60.74000 2.579
60.76000 5.477
60.78000 2.709
60.80000 -2.315
60.82000 -0.412
60.84000 3.265
60.86000 2.190
60.88000 0.363
60.90000 -0.452
60.92000 1.528
60.94000 0.039
60.96000 0.403
60.98000 -1.237
61.00000 2.420
61.02000 2.297
61.04000 2.555
61.06000 1.842
61.08000 4.870
61.10000 7.082
61.12000 6.865
61.14000 4.312
61.16000 3.052
61.18000 1.401
61.20000 0.394
61.22000 1.072
61.24000 2.784
61.26000 2.503
61.28000 -0.130
61.30000 0.835
61.32000 -0.712
61.34000 -1.895
61.36000 -0.260
61.38000 2.314
61.40000 2.763
61.42000 3.622
61.44000 3.700
61.46000 4.396
61.48000 2.547
61.50000 3.547
61.52000 2.599
61.54000 4.036
61.56000 -0.350
61.58000 0.515
61.60000 3.749
61.62000 1.314
61.64000 -0.796
61.66000 0.773
61.68000 -0.345
61.70000 0.861
61.72000 2.545
61.74000 0.169
61.76000 3.355
61.78000 4.127
61.80000 2.057
61.82000 -0.312
61.84000 1.059
61.86000 -0.274
61.88000 0.081
61.90000 -1.731
61.92000 -2.140
61.94000 -2.306
61.96000 0.903
61.98000 1.555
62.00000 -0.478
62.02000 1.415
62.04000 3.253
62.06000 2.662
62.08000 0.515
62.10000 -0.541
62.12000 2.456
62.14000 -0.650
62.16000 0.802
62.18000 -0.250
62.20000 0.125
62.22000 1.025
62.24000 1.026
62.26000 -0.323
62.28000 0.603
62.30000 1.837
62.32000 3.683
62.34000 1.331
62.36000 0.022
62.38000 2.796
62.40000 4.808
62.42000 -0.870
62.44000 -1.320
62.46000 4.357
62.48000 4.288
62.50000 3.484
62.52000 1.275
62.54000 3.049
62.56000 0.797
62.58000 -1.371
62.60000 2.018
62.62000 1.617
62.64000 2.101
62.66000 4.357
62.68000 1.387
62.70000 1.905
62.72000 0.304
62.74000 -1.063
62.76000 -0.446
62.78000 1.861
62.80000 1.806
62.82000 -1.681
62.84000 0.755
62.86000 5.806
62.88000 6.214
62.90000 5.302
62.92000 2.524
62.94000 0.891
62.96000 -0.019
62.98000 -0.934
63.00000 -2.269
63.02000 0.128
63.04000 0.264
63.06000 2.346
63.08000 3.267
63.10000 1.900
63.12000 -1.388
63.14000 -1.003
63.16000 1.090
63.18000 3.325
63.20000 4.215
63.22000 4.798
63.24000 4.213
63.26000 3.215
63.28000 0.207
63.30000 1.813
63.32000 2.975
63.34000 1.566
63.36000 2.973
63.38000 3.907
63.40000 2.754
63.42000 1.082
63.44000 3.223
63.46000 2.534
63.48000 4.631
63.50000 4.963
63.52000 2.403
63.54000 -0.465
63.56000 -1.246
63.58000 0.696
63.60000 0.482
63.62000 1.374
63.64000 2.934
63.66000 0.730
63.68000 3.905
63.70000 2.726
63.72000 -2.272
63.74000 -1.266
63.76000 0.365
63.78000 1.922
63.80000 0.801
63.82000 1.791
63.84000 -0.666
63.86000 -1.149
63.88000 -0.642
63.90000 -0.331
63.92000 -0.575
63.94000 2.286
63.96000 1.910
63.98000 0.533
64.00000 2.247
64.02000 1.354
64.04000 2.478
64.06000 6.368
64.08000 3.706
64.10000 3.306
64.12000 -0.360
64.14000 0.189
64.16000 -0.680
64.18000 -1.672
64.20000 1.105
64.22000 2.013
64.24000 3.402
64.26000 2.618
64.28000 0.039
64.30000 0.289
64.32000 -1.517
64.34000 -2.016
64.36000 -1.696
64.38000 1.289
64.40000 0.950
64.42000 0.928
64.44000 2.866
64.46000 0.662
64.48000 -0.093
64.50000 0.015
64.52000 1.586
64.54000 -0.304
64.56000 1.620
64.58000 -1.941
64.60000 0.039
64.62000 -1.158
64.64000 0.881
64.66000 0.316
64.68000 -1.658
64.70000 -0.812
64.72000 1.175
64.74000 1.774
64.76000 1.785
64.78000 -0.793
64.80000 -0.291
64.82000 -1.196
64.84000 -1.208
64.86000 -0.421
64.88000 1.057
64.90000 0.848
64.92000 1.908
64.94000 4.217
64.96000 3.382
64.98000 0.816
65.00000 1.118
65.02000 0.427
65.04000 -0.534
65.06000 2.162
65.08000 4.161
65.10000 3.990
65.12000 1.386
65.14000 0.047
65.16000 1.687
65.18000 3.448
65.20000 -0.036
65.22000 -2.262
65.24000 1.414
65.26000 4.892
65.28000 3.007
65.30000 1.440
65.32000 0.284
65.34000 4.158
65.36000 4.062
65.38000 -0.032
65.40000 1.244
65.42000 0.283
65.44000 0.317
65.46000 1.641
65.48000 4.153
65.50000 3.250
65.52000 -2.259
65.54000 -1.948
65.56000 -1.541
65.58000 3.593
65.60000 2.550
65.62000 2.288
65.64000 0.036
65.66000 -1.098
65.68000 2.808
65.70000 3.524
65.72000 -0.259
65.74000 0.475
65.76000 -0.239
65.78000 -1.243
65.80000 1.328
65.82000 -1.134
65.84000 -0.886
65.86000 1.112
65.88000 1.227
65.90000 0.122
65.92000 -1.497
65.94000 -0.175
65.96000 2.431
65.98000 3.509
66.00000 4.375
66.02000 0.499
66.04000 1.871
66.06000 3.648
66.08000 -1.743
66.10000 -0.335
66.12000 0.676
66.14000 -0.448
66.16000 -2.197
66.18000 -0.624
66.20000 0.592
66.22000 1.200
66.24000 0.282
66.26000 1.695
66.28000 1.339
66.30000 3.363
66.32000 5.658
66.34000 4.379
66.36000 3.706
66.38000 3.646
66.40000 2.128
66.42000 3.435
66.44000 5.096
66.46000 4.407
66.48000 3.255
66.50000 3.767
66.52000 1.742
66.54000 0.117
66.56000 -0.685
66.58000 -0.537
66.60000 2.477
66.62000 4.269
66.64000 4.836
66.66000 7.233
66.68000 6.536
66.70000 5.720
66.72000 3.230
66.74000 1.415
66.76000 4.186
66.78000 2.504
66.80000 0.156
66.82000 3.381
66.84000 3.531
66.86000 2.745
66.88000 0.714
66.90000 1.227
66.92000 2.468
66.94000 5.025
66.96000 4.116
66.98000 2.475
67.00000 3.754
67.02000 3.353
67.04000 4.359
67.06000 2.507
67.08000 1.765
67.10000 1.078
67.12000 0.772
67.14000 1.882
67.16000 2.739
67.18000 4.886
67.20000 3.740
67.22000 2.300
67.24000 1.596
67.26000 0.863
67.28000 2.119
67.30000 0.248
67.32000 0.505
67.34000 1.639
67.36000 1.261
67.38000 1.145
67.40000 2.346
67.42000 2.617
67.44000 2.879
67.46000 3.574
67.48000 1.230
67.50000 2.427
67.52000 -0.260
67.54000 0.325
67.56000 2.536
67.58000 5.685
67.60000 2.062
67.62000 -0.497
67.64000 0.616
67.66000 -1.364
67.68000 -0.590
67.70000 0.438
67.72000 1.184
67.74000 1.225
67.76000 1.607
67.78000 -1.339
67.80000 -0.586
67.82000 -0.567
67.84000 3.049
67.86000 1.865
67.88000 0.193
67.90000 -0.387
67.92000 1.740
67.94000 0.201
67.96000 -1.798
67.98000 0.098
68.00000 -0.212
68.02000 1.759
68.04000 3.662
68.06000 1.623
68.08000 -0.177
68.10000 -0.649
68.12000 0.947
68.14000 2.682
68.16000 2.155
68.18000 2.904
68.20000 0.691
68.22000 -0.281
68.24000 0.961
68.26000 2.348
68.28000 -0.275
68.30000 -2.159
68.32000 -2.158
68.34000 -0.016
68.36000 2.031
68.38000 1.905
68.40000 3.118
68.42000 4.393
68.44000 2.600
68.46000 0.211
68.48000 2.419
68.50000 1.695
68.52000 -1.721
68.54000 0.739
68.56000 2.155
68.58000 0.243
68.60000 1.269
68.62000 0.201
68.64000 1.034
68.66000 -0.692
68.68000 -1.902
68.70000 0.706
68.72000 1.124
68.74000 0.872
68.76000 -0.135
68.78000 1.152
68.80000 -0.219
68.82000 0.511
68.84000 2.784
68.86000 1.853
68.88000 -0.748
68.90000 1.534
68.92000 -0.221
68.94000 1.421
68.96000 0.968
68.98000 -0.285
69.00000 -0.634
69.02000 -0.063
69.04000 0.875
69.06000 2.027
69.08000 1.370
69.10000 1.490
69.12000 0.667
69.14000 0.332
69.16000 -0.838
69.18000 -0.973
69.20000 0.015
69.22000 1.537
69.24000 2.071
69.26000 1.248
69.28000 2.998
69.30000 0.091
69.32000 0.315
69.34000 0.599
69.36000 -0.083
69.38000 3.343
69.40000 4.717
69.42000 1.275
69.44000 0.141
69.46000 -0.600
69.48000 1.969
69.50000 2.121
69.52000 1.028
69.54000 -2.096
69.56000 -0.466
69.58000 -0.182
69.60000 2.803
69.62000 3.713
69.64000 0.851
69.66000 -1.421
69.68000 0.573
69.70000 1.935
69.72000 0.258
69.74000 2.316
69.76000 4.308
69.78000 1.153
69.80000 3.362
69.82000 1.532
69.84000 2.154
69.86000 1.981
69.88000 2.610
69.90000 4.959
69.92000 0.554
69.94000 -0.202
69.96000 2.485
69.98000 0.343
70.00000 -0.019
70.02000 -0.135
70.04000 0.735
70.06000 2.859
70.08000 1.168
70.10000 2.256
70.12000 2.339
70.14000 0.879
70.16000 -2.075
70.18000 0.807
70.20000 1.172
70.22000 1.695
70.24000 0.629
70.26000 1.646
70.28000 2.319
70.30000 -0.056
70.32000 -0.068
70.34000 -0.038
70.36000 3.084
70.38000 1.908
70.40000 1.116
70.42000 -1.024
70.44000 -0.896
70.46000 -0.743
70.48000 1.038
70.50000 1.676
70.52000 1.350
70.54000 0.857
70.56000 1.118
70.58000 2.250
70.60000 1.882
70.62000 2.290
70.64000 1.404
70.66000 1.052
70.68000 3.131
70.70000 0.994
70.72000 -0.234
70.74000 0.167
70.76000 -1.314
70.78000 -0.519
70.80000 1.727
70.82000 2.585
70.84000 1.767
70.86000 -0.533
70.88000 -0.409
70.90000 -0.960
70.92000 0.466
70.94000 3.234
70.96000 4.486
70.98000 2.619
71.00000 -0.233
71.02000 -0.532
71.04000 -0.758
71.06000 1.915
71.08000 1.423
71.10000 3.051
71.12000 1.101
71.14000 1.179
71.16000 0.780
71.18000 -0.447
71.20000 -0.661
71.22000 0.279
71.24000 0.123
71.26000 1.514
71.28000 2.162
71.30000 -2.040
71.32000 1.111
71.34000 2.648
71.36000 2.276
71.38000 -0.891
71.40000 -2.034
71.42000 1.887
71.44000 -0.437
71.46000 -0.288
71.48000 3.120
71.50000 2.881
71.52000 2.176
71.54000 1.136
71.56000 -0.177
71.58000 0.134
71.60000 -1.107
71.62000 0.975
71.64000 2.770
71.66000 0.304
71.68000 0.898
71.70000 0.636
71.72000 -0.081
71.74000 0.726
71.76000 1.980
71.78000 3.509
71.80000 4.254
71.82000 0.310
71.84000 0.324
71.86000 3.259
71.88000 0.346
71.90000 0.235
71.92000 0.048
71.94000 2.193
71.96000 2.421
71.98000 -1.061
72.00000 1.974
72.02000 0.272
72.04000 2.300
72.06000 4.218
72.08000 3.847
72.10000 3.928
72.12000 4.044
72.14000 1.731
72.16000 2.844
72.18000 3.426
72.20000 2.232
72.22000 -1.150
72.24000 0.158
72.26000 0.865
72.28000 2.253
72.30000 1.263
72.32000 0.275
72.34000 3.878
72.36000 2.495
72.38000 1.602
72.40000 1.846
72.42000 3.068
72.44000 3.736
72.46000 1.531
72.48000 1.022
72.50000 5.103
72.52000 3.475
72.54000 1.205
72.56000 -1.969
72.58000 2.786
72.60000 6.505
72.62000 3.808
72.64000 2.705
72.66000 3.306
72.68000 0.889
72.70000 4.258
72.72000 3.778
72.74000 4.641
72.76000 4.526
72.78000 3.474
72.80000 -0.141
72.82000 -0.336
72.84000 0.733
72.86000 2.832
72.88000 2.833
72.90000 1.846
72.92000 1.105
72.94000 0.629
72.96000 3.288
72.98000 3.526
73.00000 4.796
73.02000 2.146
73.04000 1.650
73.06000 2.976
73.08000 0.965
73.10000 1.200
73.12000 2.960
73.14000 6.097
73.16000 2.794
73.18000 2.488
73.20000 4.822
73.22000 2.187
73.24000 2.761
73.26000 3.485
73.28000 1.876
73.30000 2.459
73.32000 5.034
73.34000 4.477
73.36000 1.219
73.38000 -0.181
73.40000 0.628
73.42000 3.320
73.44000 3.037
73.46000 4.253
73.48000 6.466
73.50000 5.597
73.52000 4.821
73.54000 3.064
73.56000 3.137
73.58000 3.226
73.60000 4.481
73.62000 -0.107
73.64000 -1.939
73.66000 -0.990
73.68000 0.601
73.70000 0.825
73.72000 2.034
73.74000 1.960
73.76000 0.212
73.78000 1.030
73.80000 1.717
73.82000 3.331
73.84000 4.120
73.86000 3.186
73.88000 3.336
73.90000 1.465
73.92000 2.482
73.94000 1.343
73.96000 1.844
73.98000 -0.084
74.00000 2.603
74.02000 3.849
74.04000 0.118
74.06000 2.203
74.08000 0.878
74.10000 0.982
74.12000 2.897
74.14000 1.390
74.16000 2.118
74.18000 4.630
74.20000 4.362
74.22000 2.907
74.24000 2.712
74.26000 -0.038
74.28000 3.054
74.30000 4.063
74.32000 3.437
74.34000 1.987
74.36000 0.438
74.38000 2.916
74.40000 0.469
74.42000 1.671
74.44000 3.189
74.46000 0.993
74.48000 3.473
74.50000 1.759
74.52000 3.293
74.54000 1.542
74.56000 0.548
74.58000 -1.017
74.60000 -1.969
74.62000 0.955
74.64000 2.608
74.66000 2.607
74.68000 1.311
74.70000 -0.706
74.72000 -0.441
74.74000 1.333
74.76000 1.999
74.78000 1.866
74.80000 0.750
74.82000 2.004
74.84000 -0.507
74.86000 -1.982
74.88000 0.702
74.90000 -0.999
74.92000 1.161
74.94000 -0.200
74.96000 0.171
74.98000 -0.562
75.00000 0.231
75.02000 0.894
75.04000 -0.351
75.06000 0.357
75.08000 2.211
75.10000 4.124
75.12000 5.156
75.14000 0.891
75.16000 1.601
75.18000 1.749
75.20000 0.807
75.22000 1.039
75.24000 2.635
75.26000 0.186
75.28000 0.343
75.30000 -1.493
75.32000 -1.838
75.34000 1.847
75.36000 -1.192
75.38000 2.766
75.40000 2.223
75.42000 1.788
75.44000 3.420
75.46000 1.384
75.48000 -0.011
75.50000 1.770
75.52000 2.040
75.54000 3.025
75.56000 1.323
75.58000 1.365
75.60000 1.293
75.62000 3.058
75.64000 0.630
75.66000 -0.184
75.68000 0.644
75.70000 2.235
75.72000 3.132
75.74000 0.753
75.76000 -1.353
75.78000 0.518
75.80000 0.634
75.82000 -1.963
75.84000 0.050
75.86000 -1.986
75.88000 1.169
75.90000 3.699
75.92000 4.248
75.94000 2.681
75.96000 3.031
75.98000 0.147
76.00000 -0.030
76.02000 3.751
76.04000 2.374
76.06000 2.172
76.08000 3.374
76.10000 5.290
76.12000 5.288
76.14000 0.515
76.16000 -0.460
76.18000 -0.271
76.20000 -0.843
76.22000 2.159
76.24000 4.211
76.26000 1.171
76.28000 0.435
76.30000 1.711
76.32000 0.873
76.34000 1.599
76.36000 2.280
76.38000 -0.146
76.40000 -0.977
76.42000 2.475
76.44000 4.566
76.46000 1.510
76.48000 1.006
76.50000 0.971
76.52000 0.311
76.54000 -0.660
76.56000 2.552
76.58000 1.589
76.60000 3.011
76.62000 2.886
76.64000 3.154
76.66000 2.894
76.68000 0.956
76.70000 -1.686
76.72000 0.498
76.74000 -1.531
76.76000 -0.721
76.78000 -2.029
76.80000 3.449
76.82000 1.940
76.84000 0.192
76.86000 0.832
76.88000 3.487
76.90000 0.560
76.92000 1.228
76.94000 1.823
76.96000 3.604
76.98000 1.488
77.00000 1.896
77.02000 0.788
77.04000 0.789
77.06000 2.120
77.08000 1.918
77.10000 2.643
77.12000 3.796
77.14000 4.180
77.16000 4.173
77.18000 2.237
77.20000 2.593
77.22000 3.949
77.24000 0.726
77.26000 0.466
77.28000 -0.386
77.30000 -1.942
77.32000 -1.152
77.34000 1.278
77.36000 1.798
77.38000 1.860
77.40000 0.766
77.42000 1.618
77.44000 1.592
77.46000 0.623
77.48000 3.471
77.50000 3.459
77.52000 1.479
77.54000 4.060
77.56000 5.567
77.58000 6.216
77.60000 6.278
77.62000 5.991
77.64000 4.628
77.66000 3.834
77.68000 4.511
77.70000 3.664
77.72000 5.107
77.74000 0.422
77.76000 -2.037
77.78000 0.461
77.80000 2.824
77.82000 0.016
77.84000 1.212
77.86000 2.307
77.88000 2.730
77.90000 2.804
77.92000 0.590
77.94000 1.669
77.96000 -0.450
77.98000 -0.495
78.00000 0.164
78.02000 -0.235
78.04000 1.512
78.06000 4.823
78.08000 -0.403
78.10000 -0.449
78.12000 -1.454
78.14000 0.536
78.16000 0.892
78.18000 -0.641
78.20000 -0.748
78.22000 -0.389
78.24000 -0.794
78.26000 -0.488
78.28000 0.538
78.30000 -0.243
78.32000 1.363
78.34000 2.213
78.36000 0.497
78.38000 -2.094
78.40000 -0.942
78.42000 -0.314
78.44000 -0.804
78.46000 -1.865
78.48000 0.133
78.50000 2.936
78.52000 2.163
78.54000 2.504
78.56000 1.861
78.58000 -0.078
78.60000 0.249
78.62000 1.681
78.64000 1.233
78.66000 -2.110
78.68000 1.957
78.70000 6.520
78.72000 3.417
78.74000 1.017
78.76000 -0.214
78.78000 -2.127
78.80000 1.367
78.82000 3.780
78.84000 2.712
78.86000 1.013
78.88000 1.734
78.90000 4.885
78.92000 4.470
78.94000 4.803
78.96000 1.260
78.98000 2.439
79.00000 3.235
79.02000 6.575
79.04000 4.216
79.06000 -0.540
79.08000 0.511
79.10000 1.328
79.12000 5.860
79.14000 2.383
79.16000 3.574
79.18000 3.590
79.20000 2.486
79.22000 4.474
79.24000 6.215
79.26000 4.738
79.28000 3.437
79.30000 1.014
79.32000 2.710
79.34000 7.540
79.36000 7.386
79.38000 1.498
79.40000 3.112
79.42000 1.388
79.44000 4.465
79.46000 5.361
79.48000 3.419
79.50000 1.849
79.52000 6.501
79.54000 5.440
79.56000 4.364
79.58000 5.159
79.60000 2.768
79.62000 5.187
79.64000 6.560
79.66000 7.773
79.68000 9.780
79.70000 9.319
79.72000 14.292
79.74000 11.136
79.76000 8.318
79.78000 7.422
79.80000 9.418
79.82000 11.832
79.84000 10.701
79.86000 11.824
79.88000 14.351
79.90000 12.342
79.92000 11.475
79.94000 12.757
79.96000 13.240
79.98000 13.588
80.00000 12.786
80.02000 13.070
80.04000 13.741
80.06000 13.957
80.08000 12.608
80.10000 15.533
80.12000 19.189
80.14000 16.336
80.16000 14.466
80.18000 14.280
80.20000 18.171
80.22000 16.323
80.24000 12.702
80.26000 13.431
80.28000 13.576
80.30000 14.852
80.32000 16.646
80.34000 16.429
80.36000 16.137
80.38000 20.530
80.40000 17.849
80.42000 13.846
80.44000 11.890
80.46000 15.745
80.48000 19.733
80.50000 17.016
80.52000 16.009
80.54000 16.453
80.56000 11.623
80.58000 10.469
80.60000 12.132
80.62000 13.921
80.64000 13.746
80.66000 9.543
80.68000 11.618
80.70000 10.879
80.72000 7.890
80.74000 7.531
80.76000 10.752
80.78000 7.930
80.80000 9.336
80.82000 7.518
80.84000 5.537
80.86000 8.798
80.88000 6.584
80.90000 6.474
80.92000 10.243
80.94000 6.235
80.96000 4.553
80.98000 10.714
81.00000 7.576
81.02000 3.501
81.04000 4.332
81.06000 5.915
81.08000 6.339
81.10000 5.519
81.12000 6.077
81.14000 5.434
81.16000 2.345
81.18000 1.108
81.20000 1.868
81.22000 3.069
81.24000 2.947
81.26000 2.089
81.28000 3.200
81.30000 3.370
81.32000 0.786
81.34000 1.775
81.36000 2.406
81.38000 1.687
81.40000 3.839
81.42000 3.305
81.44000 2.271
81.46000 4.152
81.48000 -1.106
81.50000 -1.929
81.52000 -1.031
81.54000 -0.530
81.56000 2.115
81.58000 1.023
81.60000 -0.927
81.62000 0.188
81.64000 0.632
81.66000 -0.919
81.68000 1.614
81.70000 1.692
81.72000 2.444
81.74000 3.136
81.76000 0.023
81.78000 0.400
81.80000 2.610
81.82000 1.560
81.84000 -1.285
81.86000 0.358
81.88000 -1.285
81.90000 -2.236
81.92000 0.648
81.94000 2.702
81.96000 2.870
81.98000 4.150
82.00000 2.682
82.02000 0.967
82.04000 1.824
82.06000 3.150
82.08000 4.062
82.10000 1.652
82.12000 3.249
82.14000 -0.107
82.16000 3.085
82.18000 1.538
82.20000 1.487
82.22000 -0.134
82.24000 3.257
82.26000 4.375
82.28000 2.148
82.30000 2.610
82.32000 1.893
82.34000 2.715
82.36000 0.752
82.38000 1.321
82.40000 0.969
82.42000 1.991
82.44000 2.067
82.46000 1.890
82.48000 2.105
82.50000 0.783
82.52000 1.333
82.54000 4.485
82.56000 4.109
82.58000 0.620
82.60000 -2.238
82.62000 -0.373
82.64000 0.539
82.66000 4.315
82.68000 6.023
82.70000 4.663
82.72000 3.172
82.74000 4.337
82.76000 5.650
82.78000 2.702
82.80000 2.295
82.82000 3.322
82.84000 5.922
82.86000 4.268
82.88000 2.983
82.90000 2.029
82.92000 3.781
82.94000 6.121
82.96000 7.471
82.98000 9.969
83.00000 3.367
83.02000 6.557
83.04000 7.417
83.06000 4.570
83.08000 5.957
83.10000 4.651
83.12000 7.421
83.14000 7.442
83.16000 6.504
83.18000 5.825
83.20000 7.483
83.22000 7.749
83.24000 7.860
83.26000 7.659
83.28000 9.469
83.30000 10.492
83.32000 12.552
83.34000 12.927
83.36000 13.007
83.38000 9.573
83.40000 13.375
83.42000 15.196
83.44000 14.820
83.46000 13.520
83.48000 15.787
83.50000 18.807
83.52000 16.358
83.54000 15.401
83.56000 15.432
83.58000 17.151
83.60000 20.443
83.62000 22.178
83.64000 18.914
83.66000 14.920
83.68000 18.982
83.70000 18.667
83.72000 25.043
83.74000 26.688
83.76000 26.038
83.78000 28.209
83.80000 28.008
83.82000 31.422
83.84000 35.084
83.86000 32.210
83.88000 34.960
83.90000 37.618
83.92000 36.453
83.94000 34.427
83.96000 38.120
83.98000 36.745
84.00000 36.178
84.02000 38.495
84.04000 39.697
84.06000 36.938
84.08000 40.022
84.10000 38.938
84.12000 42.258
84.14000 41.713
84.16000 37.103
84.18000 38.766
84.20000 41.405
84.22000 43.759
84.24000 39.096
84.26000 39.971
84.28000 42.147
84.30000 41.369
84.32000 41.917
84.34000 39.676
84.36000 38.199
84.38000 32.946
84.40000 40.220
84.42000 41.938
84.44000 41.431
84.46000 41.894
84.48000 34.061
84.50000 33.263
84.52000 34.011
84.54000 33.216
84.56000 33.422
84.58000 29.751
84.60000 29.520
84.62000 29.062
84.64000 29.500
84.66000 26.201
84.68000 23.831
84.70000 23.319
84.72000 23.168
84.74000 26.755
84.76000 26.334
84.78000 22.392
84.80000 21.502
84.82000 20.740
84.84000 19.276
84.86000 19.879
84.88000 20.885
84.90000 16.615
84.92000 13.016
84.94000 15.170
84.96000 14.229
84.98000 15.687
85.00000 15.185
85.02000 13.197
85.04000 14.076
85.06000 11.985
85.08000 9.650
85.10000 11.483
85.12000 9.612
85.14000 5.772
85.16000 7.113
85.18000 5.337
85.20000 4.345
85.22000 6.115
85.24000 5.189
85.26000 4.908
85.28000 4.405
85.30000 2.800
85.32000 1.220
85.34000 3.390
85.36000 5.350
85.38000 3.884
85.40000 0.879
85.42000 4.877
85.44000 3.285
85.46000 3.700
85.48000 4.177
85.50000 4.201
85.52000 3.037
85.54000 2.489
85.56000 1.026
85.58000 -0.204
85.60000 -1.815
85.62000 3.968
85.64000 2.852
85.66000 1.544
85.68000 2.558
85.70000 0.262
85.72000 -0.673
85.74000 1.753
85.76000 1.786
85.78000 1.075
85.80000 4.458
85.82000 1.912
85.84000 2.704
85.86000 2.061
85.88000 3.940
85.90000 3.941
85.92000 -0.827
85.94000 -2.019
85.96000 -0.910
85.98000 0.711
86.00000 2.206
86.02000 3.827
86.04000 5.706
86.06000 0.743
86.08000 -0.048
86.10000 -0.776
86.12000 -0.318
86.14000 1.549
86.16000 1.590
86.18000 -1.307
86.20000 1.809
86.22000 0.742
86.24000 -0.224
86.26000 -0.092
86.28000 2.889
86.30000 -1.012
86.32000 0.426
86.34000 -1.974
86.36000 -1.107
86.38000 -1.274
86.40000 0.075
86.42000 1.424
86.44000 -0.338
86.46000 -1.522
86.48000 -0.266
86.50000 0.082
86.52000 -0.766
86.54000 -0.009
86.56000 -1.051
86.58000 0.941
86.60000 -0.298
86.62000 -1.804
86.64000 -1.158
86.66000 -1.732
86.68000 -0.403
86.70000 0.260
86.72000 0.475
86.74000 -0.247
86.76000 -1.195
86.78000 1.124
86.80000 1.578
86.82000 1.370
86.84000 0.091
86.86000 -0.683
86.88000 -0.194
86.90000 -1.037
86.92000 -0.220
86.94000 2.481
86.96000 1.258
86.98000 -0.919
87.00000 0.561
87.02000 1.371
87.04000 1.939
87.06000 -0.939
87.08000 0.465
87.10000 3.057
87.12000 1.294
87.14000 -0.074
87.16000 1.435
87.18000 0.773
87.20000 1.715
87.22000 3.073
87.24000 0.804
87.26000 1.431
87.28000 0.435
87.30000 2.613
87.32000 2.817
87.34000 0.893
87.36000 -1.913
87.38000 -1.468
87.40000 2.498
87.42000 5.237
87.44000 3.898
87.46000 0.886
87.48000 1.013
87.50000 2.308
87.52000 -1.908
87.54000 1.535
87.56000 3.990
87.58000 2.658
87.60000 1.717
87.62000 0.791
87.64000 1.688
87.66000 0.431
87.68000 1.622
87.70000 -1.907
87.72000 -0.387
87.74000 0.820
87.76000 3.955
87.78000 4.933
87.80000 2.155
87.82000 0.187
87.84000 0.035
87.86000 -1.711
87.88000 0.009
87.90000 0.334
87.92000 0.564
87.94000 -0.617
87.96000 1.787
87.98000 2.279
88.00000 4.167
88.02000 2.350
88.04000 2.675
88.06000 2.433
88.08000 2.159
88.10000 2.004
88.12000 2.529
88.14000 2.719
88.16000 2.373
88.18000 0.768
88.20000 0.816
88.22000 0.186
88.24000 -1.372
88.26000 0.226
88.28000 0.978
88.30000 1.904
88.32000 2.000
88.34000 3.061
88.36000 -1.165
88.38000 -0.825
88.40000 0.365
88.42000 1.674
88.44000 2.015
88.46000 1.515
88.48000 1.734
88.50000 2.374
88.52000 0.938
88.54000 1.726
88.56000 0.122
88.58000 2.298
88.60000 1.357
88.62000 0.139
88.64000 0.617
88.66000 2.643
88.68000 2.300
88.70000 0.726
88.72000 -1.859
88.74000 0.159
88.76000 4.604
88.78000 4.064
88.80000 3.566
88.82000 3.305
88.84000 2.609
88.86000 2.629
88.88000 -1.292
88.90000 -1.516
88.92000 4.553
88.94000 3.472
88.96000 1.386
88.98000 0.493
89.00000 0.068
89.02000 1.113
89.04000 1.467
89.06000 2.431
89.08000 1.597
89.10000 1.687
89.12000 2.563
89.14000 3.359
89.16000 0.641
89.18000 1.150
89.20000 0.832
89.22000 1.500
89.24000 0.551
89.26000 1.967
89.28000 1.600
89.30000 -1.663
89.32000 -1.588
89.34000 2.749
89.36000 0.749
89.38000 3.825
89.40000 -0.313
89.42000 1.980
89.44000 3.258
89.46000 0.448
89.48000 0.968
89.50000 0.079
89.52000 1.468
89.54000 4.392
89.56000 4.163
89.58000 3.988
89.60000 2.859
89.62000 2.584
89.64000 2.031
89.66000 0.650
89.68000 2.394
89.70000 1.064
89.72000 1.489
89.74000 2.411
89.76000 -1.151
89.78000 -0.822
89.80000 -0.891
89.82000 -1.848
89.84000 0.813
89.86000 3.542
89.88000 2.028
89.90000 5.021
89.92000 5.420
89.94000 2.341
89.96000 -0.348
89.98000 1.436
90.00000 2.711
90.02000 2.866
90.04000 5.109
90.06000 4.897
90.08000 2.373
90.10000 3.042
90.12000 2.924
90.14000 3.108
90.16000 3.577
90.18000 5.200
90.20000 0.967
90.22000 1.352
90.24000 2.802
90.26000 2.695
90.28000 4.243
90.30000 2.814
90.32000 1.546
90.34000 2.889
90.36000 2.073
90.38000 6.170
90.40000 3.729
90.42000 -1.830
90.44000 -0.255
90.46000 0.569
90.48000 1.004
90.50000 4.445
90.52000 5.941
90.54000 5.990
90.56000 3.301
90.58000 4.748
90.60000 3.934
90.62000 2.600
90.64000 1.780
90.66000 4.124
90.68000 5.362
90.70000 5.649
90.72000 3.135
90.74000 2.783
90.76000 2.354
90.78000 2.832
90.80000 4.920
90.82000 6.511
90.84000 6.636
90.86000 5.141
90.88000 3.162
90.90000 2.105
90.92000 0.329
90.94000 1.513
90.96000 1.831
90.98000 3.017
91.00000 1.656
91.02000 -1.829
91.04000 0.527
91.06000 3.289
91.08000 2.576
91.10000 2.862
91.12000 2.583
91.14000 2.835
91.16000 5.633
91.18000 5.438
91.20000 3.426
91.22000 1.835
91.24000 2.305
91.26000 2.049
91.28000 7.048
91.30000 5.570
91.32000 5.651
91.34000 7.224
91.36000 4.682
91.38000 2.759
91.40000 1.805
91.42000 2.252
91.44000 5.107
91.46000 5.915
91.48000 7.834
91.50000 4.442
91.52000 3.075
91.54000 4.958
91.56000 3.567
91.58000 5.772
91.60000 3.175
91.62000 2.928
91.64000 4.908
91.66000 5.828
91.68000 4.107
91.70000 3.173
91.72000 1.757
91.74000 1.035
91.76000 3.580
91.78000 5.156
91.80000 4.607
91.82000 0.437
91.84000 2.323
91.86000 4.237
91.88000 6.510
91.90000 5.063
91.92000 6.212
91.94000 2.150
91.96000 -1.812
91.98000 0.078
92.00000 4.207
92.02000 6.314
92.04000 7.723
92.06000 7.139
92.08000 5.610
92.10000 5.949
92.12000 5.701
92.14000 6.525
92.16000 1.535
92.18000 1.284
92.20000 3.965
92.22000 3.678
92.24000 3.310
92.26000 3.722
92.28000 6.289
92.30000 6.568
92.32000 1.237
92.34000 2.968
92.36000 2.398
92.38000 -0.052
92.40000 4.153
92.42000 4.909
92.44000 0.735
92.46000 2.715
92.48000 0.075
92.50000 1.185
92.52000 6.390
92.54000 4.264
92.56000 1.593
92.58000 1.105
92.60000 -0.609
92.62000 3.474
92.64000 2.251
92.66000 2.141
92.68000 3.336
92.70000 3.521
92.72000 6.331
92.74000 4.987
92.76000 5.049
92.78000 9.698
92.80000 2.677
92.82000 2.532
92.84000 5.756
92.86000 1.778
92.88000 2.058
92.90000 3.606
92.92000 3.919
92.94000 1.982
92.96000 0.386
92.98000 3.590
93.00000 5.269
93.02000 2.811
93.04000 1.257
93.06000 2.454
93.08000 0.182
93.10000 1.138
93.12000 1.480
93.14000 -1.804
93.16000 5.254
93.18000 6.627
93.20000 3.376
93.22000 7.054
93.24000 7.898
93.26000 6.155
93.28000 4.510
93.30000 4.631
93.32000 2.249
93.34000 3.302
93.36000 2.381
93.38000 2.244
93.40000 3.126
93.42000 3.886
93.44000 4.055
93.46000 6.217
93.48000 4.168
93.50000 1.460
93.52000 2.934
93.54000 4.801
93.56000 3.801
93.58000 6.621
93.60000 6.093
93.62000 2.853
93.64000 2.037
93.66000 0.693
93.68000 0.905
93.70000 2.053
93.72000 2.945
93.74000 3.722
93.76000 3.993
93.78000 4.376
93.80000 3.431
93.82000 3.469
93.84000 6.010
93.86000 0.838
93.88000 2.311
93.90000 2.861
93.92000 2.718
93.94000 2.494
93.96000 2.108
93.98000 2.996
94.00000 3.604
94.02000 5.351
94.04000 4.874
94.06000 2.335
94.08000 4.920
94.10000 7.697
94.12000 4.252
94.14000 2.074
94.16000 0.010
94.18000 -1.870
94.20000 1.955
94.22000 2.058
94.24000 3.459
94.26000 2.633
94.28000 3.132
94.30000 3.226
94.32000 -0.062
94.34000 0.880
94.36000 4.683
94.38000 3.261
94.40000 1.724
94.42000 2.203
94.44000 2.328
94.46000 4.790
94.48000 1.658
94.50000 -0.653
94.52000 0.665
94.54000 -0.440
94.56000 -1.127
94.58000 0.823
94.60000 1.062
94.62000 1.555
94.64000 2.823
94.66000 1.885
94.68000 1.417
94.70000 2.244
94.72000 2.556
94.74000 4.199
94.76000 1.114
94.78000 4.488
94.80000 4.402
94.82000 3.174
94.84000 2.547
94.86000 2.752
94.88000 2.240
94.90000 0.519
94.92000 1.303
94.94000 -1.193
94.96000 -0.462
94.98000 0.516
95.00000 3.023
95.02000 3.103
95.04000 2.589
95.06000 3.140
95.08000 1.290
95.10000 0.302
95.12000 -0.153
95.14000 -1.900
95.16000 -0.074
95.18000 4.175
95.20000 4.156
95.22000 4.498
95.24000 -0.690
95.26000 0.324
95.28000 2.192
95.30000 1.434
95.32000 3.187
95.34000 5.565
95.36000 4.581
95.38000 5.723
95.40000 5.339
95.42000 2.629
95.44000 2.780
95.46000 3.385
95.48000 -0.171
95.50000 0.261
95.52000 3.998
95.54000 7.476
95.56000 5.663
95.58000 5.955
95.60000 4.156
95.62000 6.606
95.64000 3.310
95.66000 4.663
95.68000 2.291
95.70000 7.112
95.72000 7.876
95.74000 2.713
95.76000 1.160
95.78000 2.180
95.80000 3.636
95.82000 6.486
95.84000 3.634
95.86000 6.858
95.88000 3.983
95.90000 0.923
95.92000 0.858
95.94000 -0.400
95.96000 0.436
95.98000 4.092
96.00000 7.518
96.02000 6.234
96.04000 2.356
96.06000 4.166
96.08000 6.838
96.10000 5.953
96.12000 11.919
96.14000 2.841
96.16000 -1.868
96.18000 1.065
96.20000 1.328
96.22000 4.684
96.24000 10.269
96.26000 5.778
96.28000 0.439
96.30000 4.100
96.32000 5.346
96.34000 8.924
96.36000 7.131
96.38000 6.535
96.40000 2.328
96.42000 0.362
96.44000 4.552
96.46000 1.375
96.48000 -0.623
96.50000 3.855
96.52000 4.295
96.54000 3.388
96.56000 2.943
96.58000 0.048
96.60000 0.255
96.62000 0.585
96.64000 4.719
96.66000 4.395
96.68000 2.920
96.70000 1.704
96.72000 1.972
96.74000 1.327
96.76000 1.133
96.78000 -0.051
96.80000 0.747
96.82000 1.582
96.84000 0.383
96.86000 3.712
96.88000 5.049
96.90000 6.320
96.92000 3.199
96.94000 3.935
96.96000 4.304
96.98000 2.511
97.00000 2.325
97.02000 5.950
97.04000 3.636
97.06000 3.390
97.08000 3.339
97.10000 2.302
97.12000 1.727
97.14000 1.099
97.16000 2.909
97.18000 1.946
97.20000 4.373
97.22000 6.465
97.24000 0.607
97.26000 -1.367
97.28000 -0.775
97.30000 2.951
97.32000 1.658
97.34000 -0.356
97.36000 1.557
97.38000 1.562
97.40000 2.333
97.42000 5.672
97.44000 5.057
97.46000 3.484
97.48000 5.677
97.50000 1.839
97.52000 2.888
97.54000 4.522
97.56000 2.879
97.58000 7.006
97.60000 4.617
97.62000 0.249
97.64000 -0.147
97.66000 0.356
97.68000 1.611
97.70000 3.744
97.72000 6.208
97.74000 3.500
97.76000 4.671
97.78000 6.841
97.80000 0.576
97.82000 0.806
97.84000 4.219
97.86000 6.529
97.88000 1.703
97.90000 2.457
97.92000 0.152
97.94000 2.984
97.96000 5.537
97.98000 7.267
98.00000 6.147
98.02000 2.025
98.04000 2.010
98.06000 6.543
98.08000 5.912
98.10000 3.693
98.12000 4.929
98.14000 5.287
98.16000 4.450
98.18000 -0.020
98.20000 -1.228
98.22000 2.795
98.24000 2.627
98.26000 2.262
98.28000 2.555
98.30000 6.915
98.32000 6.064
98.34000 9.113
98.36000 6.550
98.38000 7.306
98.40000 5.640
98.42000 2.604
98.44000 10.029
98.46000 6.510
98.48000 6.064
98.50000 6.739
98.52000 8.727
98.54000 5.723
98.56000 5.408
98.58000 6.253
98.60000 5.298
98.62000 4.022
98.64000 1.518
98.66000 10.208
98.68000 4.846
98.70000 8.834
98.72000 3.076
98.74000 6.964
98.76000 12.596
98.78000 6.733
98.80000 11.814
98.82000 7.816
98.84000 4.091
98.86000 -1.717
98.88000 1.990
98.90000 8.228
98.92000 6.629
98.94000 11.088
98.96000 8.077
98.98000 4.331
99.00000 5.423
99.02000 1.758
99.04000 2.478
99.06000 6.524
99.08000 6.369
99.10000 10.140
99.12000 10.111
99.14000 6.015
99.16000 6.045
99.18000 7.915
99.20000 6.475
99.22000 10.593
99.24000 3.045
99.26000 3.792
99.28000 3.254
99.30000 3.092
99.32000 0.868
99.34000 5.262
99.36000 6.538
99.38000 2.779
99.40000 3.607
99.42000 4.788
99.44000 -2.749
99.46000 5.666
99.48000 7.157
99.50000 9.911
99.52000 9.440
99.54000 1.395
99.56000 7.743
99.58000 2.374
99.60000 2.496
99.62000 2.157
99.64000 9.285
99.66000 9.318
99.68000 -1.300
99.70000 7.692
99.72000 13.195
99.74000 11.807
99.76000 11.411
99.78000 7.820
99.80000 3.792
99.82000 7.575
99.84000 13.789
99.86000 1.188
99.88000 -1.884
99.90000 4.255
99.92000 8.272
99.94000 -2.014
99.96000 -0.537
99.98000 0.000
