'Id: "0011387" Comment: "Integrate frame 0011387_Au-Ir-Rh_Rh-rich_XRD-Mapping-035-0000.gfrmwith cursor Wedge Cursor #5" Operator: "B?rgel" Anode: "Cu" Wavelength: "1.5406" Scantype: "2Theta (TwoTheta)" TimePerStep: "1" X: "18" Y: "-31.5" Z: "5.95" 
10.00000 0.000
10.02000 17.610
10.04000 -1.760
10.06000 9.020
10.08000 -5.175
10.10000 9.186
10.12000 7.441
10.14000 4.142
10.16000 6.791
10.18000 2.000
10.20000 3.805
10.22000 10.750
10.24000 20.344
10.26000 30.769
10.28000 21.971
10.30000 18.049
10.32000 14.989
10.34000 24.354
10.36000 29.646
10.38000 32.250
10.40000 19.411
10.42000 30.226
10.44000 28.647
10.46000 17.317
10.48000 17.319
10.50000 11.785
10.52000 27.057
10.54000 25.034
10.56000 6.502
10.58000 11.825
10.60000 19.777
10.62000 20.915
10.64000 5.467
10.66000 6.631
10.68000 16.194
10.70000 12.189
10.72000 27.027
10.74000 27.001
10.76000 31.263
10.78000 32.976
10.80000 27.934
10.82000 17.376
10.84000 3.517
10.86000 -4.004
10.88000 12.912
10.90000 28.023
10.92000 25.971
10.94000 24.297
10.96000 19.498
10.98000 18.779
11.00000 15.570
11.02000 18.326
11.04000 28.910
11.06000 26.574
11.08000 24.625
11.10000 16.406
11.12000 10.570
11.14000 8.699
11.16000 18.223
11.18000 31.013
11.20000 19.184
11.22000 16.381
11.24000 27.107
11.26000 24.106
11.28000 19.255
11.30000 32.662
11.32000 20.238
11.34000 21.148
11.36000 27.344
11.38000 30.074
11.40000 24.401
11.42000 20.725
11.44000 18.492
11.46000 15.279
11.48000 12.494
11.50000 16.775
11.52000 32.159
11.54000 25.799
11.56000 13.193
11.58000 16.612
11.60000 23.888
11.62000 21.113
11.64000 27.322
11.66000 26.246
11.68000 14.754
11.70000 13.647
11.72000 15.291
11.74000 26.578
11.76000 25.536
11.78000 15.766
11.80000 7.583
11.82000 8.789
11.84000 15.180
11.86000 16.691
11.88000 20.005
11.90000 19.964
11.92000 19.162
11.94000 31.597
11.96000 22.978
11.98000 20.928
12.00000 13.256
12.02000 15.782
12.04000 16.714
12.06000 12.425
12.08000 22.129
12.10000 28.143
12.12000 19.775
12.14000 16.104
12.16000 10.240
12.18000 14.198
12.20000 29.362
12.22000 28.033
12.24000 11.935
12.26000 8.127
12.28000 11.896
12.30000 27.705
12.32000 24.241
12.34000 20.852
12.36000 21.144
12.38000 11.692
12.40000 22.254
12.42000 17.412
12.44000 17.482
12.46000 17.358
12.48000 11.597
12.50000 19.347
12.52000 16.071
12.54000 17.296
12.56000 29.163
12.58000 33.754
12.60000 36.684
12.62000 32.913
12.64000 22.136
12.66000 18.864
12.68000 14.557
12.70000 22.763
12.72000 30.890
12.74000 28.790
12.76000 23.946
12.78000 25.669
12.80000 25.242
12.82000 25.907
12.84000 19.668
12.86000 13.944
12.88000 22.809
12.90000 22.350
12.92000 8.291
12.94000 4.838
12.96000 23.037
12.98000 23.649
13.00000 18.894
13.02000 26.017
13.04000 16.957
13.06000 15.084
13.08000 24.968
13.10000 21.715
13.12000 23.932
13.14000 15.310
13.16000 5.795
13.18000 14.412
13.20000 17.033
13.22000 17.769
13.24000 20.090
13.26000 13.049
13.28000 12.042
13.30000 16.676
13.32000 19.189
13.34000 24.607
13.36000 19.014
13.38000 15.260
13.40000 18.851
13.42000 24.128
13.44000 24.835
13.46000 17.994
13.48000 13.072
13.50000 17.805
13.52000 24.535
13.54000 16.201
13.56000 17.551
13.58000 11.882
13.60000 6.767
13.62000 2.489
13.64000 7.383
13.66000 11.352
13.68000 4.056
13.70000 10.568
13.72000 18.217
13.74000 15.019
13.76000 16.425
13.78000 15.855
13.80000 17.644
13.82000 19.226
13.84000 14.191
13.86000 13.965
13.88000 16.883
13.90000 15.445
13.92000 17.793
13.94000 10.559
13.96000 10.018
13.98000 7.360
14.00000 0.925
14.02000 6.011
14.04000 8.995
14.06000 15.743
14.08000 14.227
14.10000 8.825
14.12000 14.014
14.14000 13.689
14.16000 17.013
14.18000 16.298
14.20000 6.404
14.22000 11.168
14.24000 14.822
14.26000 7.593
14.28000 1.752
14.30000 -0.324
14.32000 2.661
14.34000 6.738
14.36000 10.253
14.38000 12.370
14.40000 19.315
14.42000 17.510
14.44000 14.080
14.46000 13.720
14.48000 13.511
14.50000 10.667
14.52000 7.385
14.54000 3.691
14.56000 7.111
14.58000 6.931
14.60000 9.082
14.62000 5.973
14.64000 11.874
14.66000 17.621
14.68000 23.757
14.70000 8.291
14.72000 13.232
14.74000 9.790
14.76000 0.684
14.78000 3.934
14.80000 3.057
14.82000 2.531
14.84000 9.024
14.86000 5.625
14.88000 7.661
14.90000 -0.002
14.92000 4.818
14.94000 14.713
14.96000 14.720
14.98000 8.890
15.00000 10.372
15.02000 9.860
15.04000 4.670
15.06000 10.327
15.08000 12.430
15.10000 2.488
15.12000 3.394
15.14000 -2.793
15.16000 8.024
15.18000 2.506
15.20000 -3.644
15.22000 -3.694
15.24000 5.681
15.26000 14.773
15.28000 14.668
15.30000 9.709
15.32000 3.223
15.34000 2.502
15.36000 0.408
15.38000 6.139
15.40000 6.772
15.42000 4.288
15.44000 8.569
15.46000 6.787
15.48000 12.260
15.50000 9.330
15.52000 6.177
15.54000 5.519
15.56000 9.082
15.58000 8.348
15.60000 4.108
15.62000 0.379
15.64000 3.776
15.66000 1.571
15.68000 8.399
15.70000 4.631
15.72000 0.367
15.74000 5.758
15.76000 2.113
15.78000 0.669
15.80000 13.326
15.82000 8.515
15.84000 -0.105
15.86000 7.997
15.88000 4.273
15.90000 2.210
15.92000 6.587
15.94000 0.428
15.96000 2.695
15.98000 -1.015
16.00000 3.947
16.02000 7.959
16.04000 13.136
16.06000 3.239
16.08000 2.572
16.10000 3.806
16.12000 8.730
16.14000 4.657
16.16000 3.708
16.18000 7.625
16.20000 9.698
16.22000 10.821
16.24000 6.556
16.26000 11.885
16.28000 7.310
16.30000 2.369
16.32000 -0.490
16.34000 4.198
16.36000 9.495
16.38000 4.189
16.40000 -4.395
16.42000 1.391
16.44000 3.951
16.46000 -1.439
16.48000 -3.435
16.50000 7.500
16.52000 10.007
16.54000 10.457
16.56000 4.786
16.58000 5.418
16.60000 7.336
16.62000 11.550
16.64000 10.684
16.66000 13.405
16.68000 8.588
16.70000 6.527
16.72000 11.056
16.74000 1.698
16.76000 4.545
16.78000 8.257
16.80000 9.247
16.82000 3.554
16.84000 2.193
16.86000 -0.691
16.88000 5.895
16.90000 0.447
16.92000 8.411
16.94000 15.907
16.96000 7.664
16.98000 10.514
17.00000 14.203
17.02000 8.914
17.04000 3.210
17.06000 9.621
17.08000 11.408
17.10000 5.153
17.12000 -1.883
17.14000 -4.372
17.16000 3.372
17.18000 4.820
17.20000 0.949
17.22000 2.507
17.24000 0.803
17.26000 9.432
17.28000 9.997
17.30000 9.341
17.32000 3.741
17.34000 8.347
17.36000 2.336
17.38000 -2.330
17.40000 7.134
17.42000 12.326
17.44000 6.825
17.46000 8.746
17.48000 5.144
17.50000 2.867
17.52000 1.661
17.54000 3.814
17.56000 -0.291
17.58000 -0.964
17.60000 5.635
17.62000 4.775
17.64000 -2.740
17.66000 -1.918
17.68000 1.460
17.70000 0.837
17.72000 3.273
17.74000 3.255
17.76000 6.118
17.78000 6.664
17.80000 4.343
17.82000 -2.253
17.84000 2.969
17.86000 2.095
17.88000 -1.512
17.90000 2.992
17.92000 5.867
17.94000 6.586
17.96000 8.095
17.98000 10.605
18.00000 10.336
18.02000 1.785
18.04000 0.101
18.06000 4.625
18.08000 1.523
18.10000 3.754
18.12000 7.324
18.14000 9.949
18.16000 9.936
18.18000 0.232
18.20000 9.871
18.22000 5.691
18.24000 5.801
18.26000 5.547
18.28000 2.710
18.30000 -0.103
18.32000 -3.538
18.34000 -1.902
18.36000 -1.817
18.38000 2.547
18.40000 -1.453
18.42000 -0.869
18.44000 6.195
18.46000 5.041
18.48000 4.476
18.50000 -4.295
18.52000 2.938
18.54000 0.717
18.56000 3.253
18.58000 4.282
18.60000 0.065
18.62000 6.535
18.64000 5.936
18.66000 -2.459
18.68000 -2.625
18.70000 -1.048
18.72000 -4.277
18.74000 -3.360
18.76000 -0.163
18.78000 4.944
18.80000 5.748
18.82000 2.465
18.84000 3.268
18.86000 3.634
18.88000 2.884
18.90000 3.577
18.92000 3.064
18.94000 6.369
18.96000 4.855
18.98000 4.437
19.00000 5.790
19.02000 -0.095
19.04000 1.517
19.06000 6.061
19.08000 6.456
19.10000 4.127
19.12000 5.987
19.14000 2.984
19.16000 -4.243
19.18000 6.108
19.20000 9.666
19.22000 0.515
19.24000 -2.977
19.26000 -0.863
19.28000 1.818
19.30000 1.972
19.32000 -4.104
19.34000 1.003
19.36000 1.885
19.38000 -0.055
19.40000 3.766
19.42000 2.626
19.44000 4.250
19.46000 4.758
19.48000 1.524
19.50000 3.896
19.52000 0.972
19.54000 3.474
19.56000 5.744
19.58000 2.404
19.60000 -4.214
19.62000 -1.611
19.64000 7.321
19.66000 5.832
19.68000 -1.690
19.70000 -0.458
19.72000 6.272
19.74000 7.999
19.76000 3.275
19.78000 3.484
19.80000 -0.445
19.82000 -2.621
19.84000 7.272
19.86000 7.756
19.88000 4.173
19.90000 3.201
19.92000 5.299
19.94000 6.826
19.96000 6.281
19.98000 0.848
20.00000 -1.514
20.02000 4.179
20.04000 4.110
20.06000 1.646
20.08000 7.057
20.10000 4.067
20.12000 2.456
20.14000 -1.722
20.16000 2.622
20.18000 0.985
20.20000 2.651
20.22000 -0.340
20.24000 8.183
20.26000 7.769
20.28000 5.030
20.30000 3.015
20.32000 7.002
20.34000 4.026
20.36000 -0.582
20.38000 2.979
20.40000 1.753
20.42000 3.219
20.44000 7.417
20.46000 6.445
20.48000 3.914
20.50000 1.455
20.52000 2.812
20.54000 -0.605
20.56000 -4.174
20.58000 -2.613
20.60000 3.218
20.62000 5.563
20.64000 4.147
20.66000 0.734
20.68000 2.595
20.70000 2.518
20.72000 5.685
20.74000 8.970
20.76000 4.249
20.78000 2.141
20.80000 7.507
20.82000 0.968
20.84000 -1.821
20.86000 3.674
20.88000 8.745
20.90000 0.734
20.92000 -4.031
20.94000 -0.826
20.96000 2.819
20.98000 7.348
21.00000 7.487
21.02000 -2.321
21.04000 -1.126
21.06000 -1.539
21.08000 1.372
21.10000 4.733
21.12000 2.325
21.14000 -1.620
21.16000 1.885
21.18000 2.326
21.20000 -0.198
21.22000 2.499
21.24000 6.848
21.26000 6.120
21.28000 0.913
21.30000 5.036
21.32000 4.058
21.34000 2.608
21.36000 7.752
21.38000 0.297
21.40000 7.039
21.42000 3.914
21.44000 5.814
21.46000 0.581
21.48000 -0.056
21.50000 1.851
21.52000 -2.576
21.54000 -1.560
21.56000 5.697
21.58000 4.809
21.60000 -0.467
21.62000 3.476
21.64000 3.001
21.66000 -1.741
21.68000 -3.305
21.70000 0.573
21.72000 2.141
21.74000 2.239
21.76000 1.610
21.78000 -2.768
21.80000 2.250
21.82000 -0.227
21.84000 -1.034
21.86000 3.707
21.88000 5.970
21.90000 -0.145
21.92000 -0.298
21.94000 -1.988
21.96000 2.741
21.98000 8.433
22.00000 9.943
22.02000 8.430
22.04000 10.080
22.06000 7.268
22.08000 -4.082
22.10000 -2.894
22.12000 3.617
22.14000 1.762
22.16000 1.177
22.18000 5.146
22.20000 10.201
22.22000 6.440
22.24000 5.666
22.26000 2.098
22.28000 2.451
22.30000 1.840
22.32000 -4.072
22.34000 0.172
22.36000 1.914
22.38000 3.910
22.40000 1.606
22.42000 4.659
22.44000 6.702
22.46000 0.030
22.48000 -2.617
22.50000 -1.301
22.52000 -3.119
22.54000 -1.453
22.56000 -0.547
22.58000 -0.211
22.60000 -1.043
22.62000 4.802
22.64000 6.187
22.66000 9.876
22.68000 6.332
22.70000 7.472
22.72000 10.540
22.74000 7.825
22.76000 3.956
22.78000 4.074
22.80000 5.831
22.82000 3.532
22.84000 1.089
22.86000 -0.458
22.88000 4.048
22.90000 2.101
22.92000 5.212
22.94000 3.650
22.96000 -4.036
22.98000 2.964
23.00000 -2.567
23.02000 1.620
23.04000 4.494
23.06000 0.786
23.08000 0.008
23.10000 -2.363
23.12000 2.072
23.14000 2.521
23.16000 3.702
23.18000 4.318
23.20000 4.877
23.22000 2.078
23.24000 3.027
23.26000 1.231
23.28000 3.697
23.30000 1.754
23.32000 1.028
23.34000 2.468
23.36000 3.443
23.38000 -1.150
23.40000 -1.830
23.42000 0.008
23.44000 0.493
23.46000 2.577
23.48000 5.710
23.50000 3.083
23.52000 -3.689
23.54000 -1.541
23.56000 1.875
23.58000 1.245
23.60000 8.752
23.62000 6.446
23.64000 2.408
23.66000 2.903
23.68000 3.286
23.70000 5.388
23.72000 7.504
23.74000 5.053
23.76000 5.521
23.78000 1.867
23.80000 0.296
23.82000 1.235
23.84000 7.048
23.86000 4.835
23.88000 0.592
23.90000 -1.646
23.92000 1.562
23.94000 3.391
23.96000 2.874
23.98000 9.414
24.00000 4.530
24.02000 -2.539
24.04000 4.587
24.06000 8.654
24.08000 7.322
24.10000 8.347
24.12000 6.777
24.14000 3.597
24.16000 1.926
24.18000 5.537
24.20000 7.536
24.22000 5.124
24.24000 4.882
24.26000 5.584
24.28000 6.115
24.30000 5.691
24.32000 1.783
24.34000 2.275
24.36000 9.106
24.38000 8.046
24.40000 8.466
24.42000 7.536
24.44000 8.347
24.46000 3.825
24.48000 5.041
24.50000 7.906
24.52000 4.753
24.54000 -1.985
24.56000 -3.903
24.58000 -1.868
24.60000 1.635
24.62000 5.938
24.64000 11.406
24.66000 10.287
24.68000 9.879
24.70000 13.541
24.72000 12.597
24.74000 6.306
24.76000 2.074
24.78000 2.803
24.80000 4.767
24.82000 9.478
24.84000 5.018
24.86000 -0.044
24.88000 1.895
24.90000 0.507
24.92000 -0.326
24.94000 5.568
24.96000 8.177
24.98000 4.550
25.00000 6.016
25.02000 5.236
25.04000 4.264
25.06000 0.232
25.08000 2.821
25.10000 9.799
25.12000 5.715
25.14000 2.078
25.16000 9.698
25.18000 11.539
25.20000 5.833
25.22000 -3.882
25.24000 0.610
25.26000 2.783
25.28000 9.520
25.30000 6.468
25.32000 0.661
25.34000 -0.145
25.36000 -0.605
25.38000 5.524
25.40000 7.861
25.42000 3.540
25.44000 2.407
25.46000 -2.684
25.48000 -2.844
25.50000 5.119
25.52000 4.952
25.54000 0.043
25.56000 1.301
25.58000 5.861
25.60000 5.140
25.62000 4.208
25.64000 3.226
25.66000 3.717
25.68000 6.009
25.70000 6.753
25.72000 -1.340
25.74000 -1.792
25.76000 5.830
25.78000 7.401
25.80000 4.465
25.82000 3.169
25.84000 9.654
25.86000 11.285
25.88000 4.861
25.90000 -1.018
25.92000 -2.964
25.94000 -0.474
25.96000 0.337
25.98000 3.726
26.00000 4.294
26.02000 5.350
26.04000 6.961
26.06000 2.858
26.08000 -3.809
26.10000 -0.493
26.12000 -0.144
26.14000 0.475
26.16000 2.859
26.18000 0.079
26.20000 -0.935
26.22000 0.611
26.24000 0.889
26.26000 3.465
26.28000 3.337
26.30000 2.579
26.32000 1.685
26.34000 -2.275
26.36000 -0.815
26.38000 -0.618
26.40000 -1.675
26.42000 0.818
26.44000 -3.400
26.46000 0.342
26.48000 -3.860
26.50000 -0.563
26.52000 6.293
26.54000 7.419
26.56000 6.830
26.58000 -0.212
26.60000 -1.736
26.62000 1.149
26.64000 -1.464
26.66000 2.151
26.68000 8.769
26.70000 9.985
26.72000 2.835
26.74000 -1.126
26.76000 3.554
26.78000 1.592
26.80000 3.202
26.82000 0.914
26.84000 2.971
26.86000 0.476
26.88000 -0.672
26.90000 4.514
26.92000 5.612
26.94000 2.647
26.96000 4.982
26.98000 3.175
27.00000 7.433
27.02000 3.059
27.04000 0.810
27.06000 2.546
27.08000 1.845
27.10000 3.194
27.12000 4.627
27.14000 5.546
27.16000 4.760
27.18000 1.106
27.20000 2.400
27.22000 2.367
27.24000 1.940
27.26000 1.803
27.28000 1.233
27.30000 2.251
27.32000 0.734
27.34000 0.514
27.36000 5.616
27.38000 2.723
27.40000 -1.007
27.42000 -1.215
27.44000 1.365
27.46000 4.463
27.48000 -1.841
27.50000 -3.782
27.52000 -2.787
27.54000 -0.434
27.56000 8.754
27.58000 8.610
27.60000 4.154
27.62000 -3.205
27.64000 -2.062
27.66000 -0.025
27.68000 1.507
27.70000 3.265
27.72000 3.229
27.74000 4.771
27.76000 1.055
27.78000 5.282
27.80000 3.840
27.82000 0.809
27.84000 3.915
27.86000 3.033
27.88000 -0.911
27.90000 -1.309
27.92000 -3.761
27.94000 -0.131
27.96000 3.970
27.98000 4.836
28.00000 1.861
28.02000 2.180
28.04000 2.367
28.06000 5.146
28.08000 -1.490
28.10000 -1.660
28.12000 0.015
28.14000 0.124
28.16000 3.152
28.18000 4.188
28.20000 1.736
28.22000 0.698
28.24000 7.036
28.26000 5.056
28.28000 5.697
28.30000 7.583
28.32000 6.372
28.34000 8.626
28.36000 9.106
28.38000 11.245
28.40000 8.986
28.42000 -1.177
28.44000 -2.673
28.46000 -2.650
28.48000 2.615
28.50000 7.398
28.52000 -0.171
28.54000 -1.084
28.56000 0.472
28.58000 4.717
28.60000 6.648
28.62000 3.470
28.64000 4.799
28.66000 5.245
28.68000 3.592
28.70000 1.791
28.72000 1.727
28.74000 0.210
28.76000 5.047
28.78000 6.479
28.80000 1.713
28.82000 3.238
28.84000 6.409
28.86000 3.856
28.88000 -0.548
28.90000 -0.467
28.92000 4.243
28.94000 -2.621
28.96000 -3.705
28.98000 -2.377
29.00000 -1.577
29.02000 -0.319
29.04000 1.127
29.06000 3.419
29.08000 8.450
29.10000 11.755
29.12000 5.489
29.14000 -3.699
29.16000 4.258
29.18000 2.895
29.20000 5.168
29.22000 5.383
29.24000 7.100
29.26000 4.665
29.28000 5.398
29.30000 7.284
29.32000 5.406
29.34000 4.944
29.36000 0.720
29.38000 -3.277
29.40000 -3.264
29.42000 1.744
29.44000 -2.907
29.46000 -1.167
29.48000 -0.151
29.50000 -0.095
29.52000 0.738
29.54000 4.878
29.56000 1.424
29.58000 1.862
29.60000 -1.700
29.62000 -0.099
29.64000 -0.399
29.66000 6.734
29.68000 3.717
29.70000 -3.678
29.72000 0.303
29.74000 3.568
29.76000 3.541
29.78000 -2.018
29.80000 3.991
29.82000 0.288
29.84000 -1.933
29.86000 1.013
29.88000 7.042
29.90000 8.815
29.92000 4.419
29.94000 3.656
29.96000 2.134
29.98000 1.628
30.00000 2.436
30.02000 3.899
30.04000 5.497
30.06000 3.221
30.08000 1.790
30.10000 2.524
30.12000 2.127
30.14000 3.730
30.16000 3.922
30.18000 6.208
30.20000 4.219
30.22000 8.032
30.24000 9.347
30.26000 -0.310
30.28000 2.462
30.30000 3.657
30.32000 3.040
30.34000 2.103
30.36000 -0.787
30.38000 8.664
30.40000 11.112
30.42000 2.987
30.44000 -0.018
30.46000 1.269
30.48000 -0.297
30.50000 3.648
30.52000 0.378
30.54000 2.527
30.56000 1.146
30.58000 1.895
30.60000 -0.097
30.62000 0.857
30.64000 -2.881
30.66000 0.697
30.68000 1.458
30.70000 2.039
30.72000 1.934
30.74000 0.703
30.76000 6.759
30.78000 8.918
30.80000 8.545
30.82000 8.903
30.84000 1.895
30.86000 2.221
30.88000 -0.650
30.90000 -0.153
30.92000 -0.795
30.94000 1.630
30.96000 2.939
30.98000 2.456
31.00000 6.767
31.02000 4.027
31.04000 -0.074
31.06000 -1.363
31.08000 -3.572
31.10000 3.343
31.12000 6.485
31.14000 1.931
31.16000 3.962
31.18000 7.449
31.20000 8.171
31.22000 5.952
31.24000 6.318
31.26000 3.355
31.28000 2.695
31.30000 2.473
31.32000 6.168
31.34000 9.885
31.36000 6.172
31.38000 1.135
31.40000 4.233
31.42000 4.722
31.44000 5.982
31.46000 5.397
31.48000 1.896
31.50000 -1.254
31.52000 -0.011
31.54000 2.445
31.56000 0.549
31.58000 -2.889
31.60000 4.937
31.62000 5.458
31.64000 7.151
31.66000 1.864
31.68000 -3.556
31.70000 0.297
31.72000 3.075
31.74000 5.974
31.76000 5.813
31.78000 6.671
31.80000 4.498
31.82000 0.226
31.84000 1.889
31.86000 2.599
31.88000 6.938
31.90000 3.279
31.92000 0.163
31.94000 2.998
31.96000 3.486
31.98000 3.972
32.00000 3.681
32.02000 5.656
32.04000 7.938
32.06000 -1.122
32.08000 -1.616
32.10000 1.015
32.12000 1.553
32.14000 3.241
32.16000 4.179
32.18000 3.094
32.20000 4.076
32.22000 1.580
32.24000 4.722
32.26000 9.112
32.28000 2.769
32.30000 7.350
32.32000 5.940
32.34000 1.859
32.36000 4.084
32.38000 3.718
32.40000 3.254
32.42000 -1.727
32.44000 -2.047
32.46000 2.155
32.48000 6.292
32.50000 7.919
32.52000 2.084
32.54000 -0.783
32.56000 -3.531
32.58000 -2.610
32.60000 5.136
32.62000 5.863
32.64000 5.273
32.66000 6.699
32.68000 5.499
32.70000 4.010
32.72000 3.095
32.74000 2.350
32.76000 -2.658
32.78000 -1.579
32.80000 2.053
32.82000 4.116
32.84000 0.324
32.86000 1.180
32.88000 3.831
32.90000 9.923
32.92000 8.122
32.94000 8.181
32.96000 -3.520
32.98000 -3.385
33.00000 -1.189
33.02000 -2.376
33.04000 -3.520
33.06000 -2.155
33.08000 1.118
33.10000 -0.817
33.12000 1.894
33.14000 3.029
33.16000 6.908
33.18000 7.541
33.20000 4.036
33.22000 -2.865
33.24000 0.049
33.26000 -0.548
33.28000 -1.033
33.30000 1.668
33.32000 9.343
33.34000 6.672
33.36000 -0.147
33.38000 -1.311
33.40000 1.172
33.42000 2.569
33.44000 3.287
33.46000 6.527
33.48000 4.224
33.50000 3.402
33.52000 0.058
33.54000 3.379
33.56000 0.261
33.58000 4.911
33.60000 4.654
33.62000 3.150
33.64000 2.812
33.66000 0.265
33.68000 -3.525
33.70000 -3.388
33.72000 -0.469
33.74000 3.619
33.76000 4.725
33.78000 3.162
33.80000 5.912
33.82000 3.564
33.84000 9.369
33.86000 9.474
33.88000 0.353
33.90000 0.631
33.92000 1.253
33.94000 3.309
33.96000 3.843
33.98000 3.658
34.00000 1.926
34.02000 4.159
34.04000 7.624
34.06000 4.256
34.08000 2.529
34.10000 6.394
34.12000 5.749
34.14000 7.524
34.16000 4.933
34.18000 4.724
34.20000 4.802
34.22000 5.814
34.24000 4.299
34.26000 0.590
34.28000 2.588
34.30000 6.664
34.32000 7.601
34.34000 9.498
34.36000 5.253
34.38000 0.271
34.40000 0.349
34.42000 5.248
34.44000 4.467
34.46000 0.797
34.48000 -2.002
34.50000 2.201
34.52000 4.778
34.54000 -1.240
34.56000 0.335
34.58000 0.811
34.60000 0.948
34.62000 3.826
34.64000 4.550
34.66000 5.608
34.68000 5.566
34.70000 2.707
34.72000 0.139
34.74000 4.544
34.76000 7.876
34.78000 10.774
34.80000 3.528
34.82000 1.647
34.84000 -3.480
34.86000 -0.704
34.88000 -1.283
34.90000 -0.234
34.92000 4.754
34.94000 2.560
34.96000 4.165
34.98000 3.248
35.00000 6.016
35.02000 2.446
35.04000 1.619
35.06000 1.113
35.08000 1.037
35.10000 4.960
35.12000 1.420
35.14000 5.248
35.16000 4.025
35.18000 -3.104
35.20000 -2.818
35.22000 1.178
35.24000 1.713
35.26000 3.475
35.28000 3.341
35.30000 -1.378
35.32000 1.611
35.34000 -3.465
35.36000 -1.023
35.38000 -0.162
35.40000 3.461
35.42000 3.132
35.44000 -0.060
35.46000 0.928
35.48000 1.050
35.50000 1.335
35.52000 1.970
35.54000 -0.413
35.56000 1.163
35.58000 6.074
35.60000 1.408
35.62000 2.976
35.64000 3.501
35.66000 5.343
35.68000 2.885
35.70000 0.845
35.72000 3.241
35.74000 1.210
35.76000 0.461
35.78000 -1.657
35.80000 1.137
35.82000 1.679
35.84000 2.881
35.86000 -0.042
35.88000 2.477
35.90000 1.710
35.92000 3.333
35.94000 2.317
35.96000 1.266
35.98000 -1.052
36.00000 1.999
36.02000 2.604
36.04000 2.948
36.06000 -1.306
36.08000 -3.458
36.10000 2.214
36.12000 1.237
36.14000 -0.761
36.16000 -1.900
36.18000 2.212
36.20000 4.746
36.22000 2.954
36.24000 3.774
36.26000 2.340
36.28000 1.421
36.30000 0.943
36.32000 -3.451
36.34000 0.025
36.36000 3.333
36.38000 3.668
36.40000 2.173
36.42000 2.965
36.44000 0.104
36.46000 -0.270
36.48000 3.160
36.50000 7.740
36.52000 4.575
36.54000 2.223
36.56000 2.759
36.58000 2.806
36.60000 8.583
36.62000 9.814
36.64000 1.438
36.66000 2.101
36.68000 -0.119
36.70000 -3.447
36.72000 0.602
36.74000 -1.313
36.76000 -2.945
36.78000 2.868
36.80000 -2.904
36.82000 -1.051
36.84000 5.291
36.86000 0.774
36.88000 0.648
36.90000 -2.320
36.92000 -2.281
36.94000 2.001
36.96000 7.164
36.98000 -3.468
37.00000 -3.343
37.02000 1.533
37.04000 5.544
37.06000 3.439
37.08000 2.269
37.10000 1.051
37.12000 1.379
37.14000 3.163
37.16000 0.464
37.18000 0.261
37.20000 -0.076
37.22000 -1.842
37.24000 1.046
37.26000 -0.703
37.28000 3.870
37.30000 2.862
37.32000 -0.480
37.34000 1.010
37.36000 3.366
37.38000 5.941
37.40000 2.016
37.42000 2.042
37.44000 -0.594
37.46000 0.385
37.48000 -0.706
37.50000 6.344
37.52000 4.989
37.54000 -1.366
37.56000 -1.054
37.58000 -0.574
37.60000 -3.502
37.62000 0.515
37.64000 3.165
37.66000 2.215
37.68000 1.362
37.70000 6.114
37.72000 4.895
37.74000 0.280
37.76000 1.578
37.78000 1.293
37.80000 6.603
37.82000 8.554
37.84000 4.665
37.86000 4.282
37.88000 2.527
37.90000 1.292
37.92000 3.478
37.94000 4.827
37.96000 5.734
37.98000 6.033
38.00000 8.579
38.02000 11.315
38.04000 14.062
38.06000 9.292
38.08000 1.685
38.10000 4.697
38.12000 8.042
38.14000 8.453
38.16000 10.076
38.18000 11.084
38.20000 14.598
38.22000 13.602
38.24000 11.696
38.26000 11.952
38.28000 14.419
38.30000 13.503
38.32000 13.726
38.34000 15.221
38.36000 12.717
38.38000 8.231
38.40000 8.115
38.42000 13.261
38.44000 13.388
38.46000 12.820
38.48000 11.202
38.50000 10.361
38.52000 17.003
38.54000 17.483
38.56000 15.336
38.58000 12.184
38.60000 16.992
38.62000 16.013
38.64000 15.636
38.66000 19.942
38.68000 18.422
38.70000 22.202
38.72000 21.972
38.74000 15.845
38.76000 13.699
38.78000 15.466
38.80000 19.370
38.82000 19.961
38.84000 21.074
38.86000 23.139
38.88000 19.485
38.90000 17.974
38.92000 19.816
38.94000 21.394
38.96000 26.977
38.98000 25.848
39.00000 26.794
39.02000 26.346
39.04000 30.077
39.06000 31.865
39.08000 28.239
39.10000 27.381
39.12000 32.167
39.14000 30.949
39.16000 32.270
39.18000 33.457
39.20000 34.112
39.22000 35.805
39.24000 42.629
39.26000 42.354
39.28000 42.478
39.30000 47.125
39.32000 49.328
39.34000 43.874
39.36000 42.803
39.38000 45.808
39.40000 51.144
39.42000 50.365
39.44000 54.565
39.46000 55.424
39.48000 59.498
39.50000 64.811
39.52000 66.423
39.54000 67.303
39.56000 71.669
39.58000 73.217
39.60000 83.105
39.62000 90.512
39.64000 87.325
39.66000 88.375
39.68000 96.268
39.70000 102.740
39.72000 110.179
39.74000 112.044
39.76000 122.472
39.78000 127.232
39.80000 139.615
39.82000 145.551
39.84000 157.455
39.86000 164.837
39.88000 176.113
39.90000 194.701
39.92000 210.712
39.94000 224.127
39.96000 241.884
39.98000 256.423
40.00000 262.206
40.02000 279.890
40.04000 305.679
40.06000 313.645
40.08000 343.662
40.10000 365.552
40.12000 391.092
40.14000 420.589
40.16000 449.800
40.18000 472.935
40.20000 508.911
40.22000 538.535
40.24000 571.345
40.26000 610.339
40.28000 634.926
40.30000 665.604
40.32000 709.328
40.34000 741.816
40.36000 781.861
40.38000 809.469
40.40000 844.093
40.42000 870.482
40.44000 893.798
40.46000 922.234
40.48000 924.158
40.50000 935.441
40.52000 945.990
40.54000 948.582
40.56000 955.671
40.58000 950.855
40.60000 945.087
40.62000 937.946
40.64000 920.062
40.66000 898.121
40.68000 866.737
40.70000 842.211
40.72000 832.366
40.74000 815.232
40.76000 795.519
40.78000 763.809
40.80000 738.121
40.82000 702.546
40.84000 659.578
40.86000 641.639
40.88000 612.936
40.90000 593.132
40.92000 564.599
40.94000 527.459
40.96000 507.189
40.98000 482.591
41.00000 462.887
41.02000 429.320
41.04000 402.630
41.06000 389.388
41.08000 365.899
41.10000 345.567
41.12000 325.016
41.14000 306.181
41.16000 299.469
41.18000 285.456
41.20000 263.979
41.22000 247.312
41.24000 235.623
41.26000 223.130
41.28000 210.717
41.30000 200.913
41.32000 192.131
41.34000 177.433
41.36000 166.218
41.38000 155.681
41.40000 147.653
41.42000 143.988
41.44000 141.768
41.46000 131.337
41.48000 122.496
41.50000 123.406
41.52000 116.581
41.54000 110.471
41.56000 96.713
41.58000 93.777
41.60000 91.202
41.62000 88.423
41.64000 86.409
41.66000 75.898
41.68000 75.104
41.70000 68.268
41.72000 65.779
41.74000 62.676
41.76000 68.492
41.78000 66.905
41.80000 57.881
41.82000 54.818
41.84000 56.954
41.86000 54.365
41.88000 49.452
41.90000 45.036
41.92000 43.214
41.94000 39.301
41.96000 40.259
41.98000 39.856
42.00000 42.579
42.02000 37.672
42.04000 33.777
42.06000 34.389
42.08000 28.516
42.10000 29.616
42.12000 28.066
42.14000 31.550
42.16000 24.612
42.18000 24.638
42.20000 22.511
42.22000 25.742
42.24000 24.912
42.26000 23.159
42.28000 20.834
42.30000 23.933
42.32000 20.548
42.34000 16.542
42.36000 13.255
42.38000 13.249
42.40000 15.329
42.42000 12.116
42.44000 17.478
42.46000 17.948
42.48000 12.551
42.50000 9.907
42.52000 15.305
42.54000 14.939
42.56000 9.952
42.58000 11.024
42.60000 8.325
42.62000 10.775
42.64000 7.265
42.66000 9.834
42.68000 6.767
42.70000 6.486
42.72000 7.481
42.74000 6.357
42.76000 3.647
42.78000 6.698
42.80000 11.903
42.82000 9.619
42.84000 10.046
42.86000 5.850
42.88000 6.943
42.90000 2.459
42.92000 2.676
42.94000 3.183
42.96000 0.512
42.98000 3.455
43.00000 2.601
43.02000 3.281
43.04000 4.879
43.06000 3.100
43.08000 3.301
43.10000 2.823
43.12000 1.079
43.14000 2.863
43.16000 0.776
43.18000 1.323
43.20000 5.417
43.22000 4.783
43.24000 2.748
43.26000 -0.928
43.28000 -0.999
43.30000 -0.013
43.32000 2.169
43.34000 0.639
43.36000 -0.143
43.38000 -1.591
43.40000 1.820
43.42000 2.127
43.44000 3.578
43.46000 2.511
43.48000 2.441
43.50000 -1.610
43.52000 -3.343
43.54000 -1.254
43.56000 0.316
43.58000 0.504
43.60000 0.822
43.62000 -1.161
43.64000 0.493
43.66000 -2.041
43.68000 -1.655
43.70000 0.266
43.72000 1.208
43.74000 -0.623
43.76000 0.040
43.78000 -0.092
43.80000 -1.135
43.82000 -1.764
43.84000 -0.472
43.86000 1.826
43.88000 3.316
43.90000 0.097
43.92000 -3.289
43.94000 -1.879
43.96000 0.695
43.98000 1.433
44.00000 3.627
44.02000 3.383
44.04000 -0.274
44.06000 1.556
44.08000 2.666
44.10000 0.472
44.12000 -0.782
44.14000 -1.330
44.16000 -1.442
44.18000 -1.504
44.20000 -3.245
44.22000 -2.227
44.24000 0.305
44.26000 0.870
44.28000 -1.213
44.30000 -0.806
44.32000 0.290
44.34000 3.904
44.36000 0.218
44.38000 -0.120
44.40000 0.570
44.42000 -0.121
44.44000 0.645
44.46000 1.015
44.48000 1.595
44.50000 -0.333
44.52000 2.761
44.54000 1.430
44.56000 2.796
44.58000 3.201
44.60000 1.296
44.62000 -3.193
44.64000 0.169
44.66000 3.304
44.68000 3.440
44.70000 1.163
44.72000 2.012
44.74000 1.336
44.76000 2.223
44.78000 -0.320
44.80000 1.814
44.82000 -0.412
44.84000 -1.764
44.86000 1.308
44.88000 2.909
44.90000 3.319
44.92000 0.706
44.94000 -1.093
44.96000 1.214
44.98000 -0.187
45.00000 -0.411
45.02000 0.212
45.04000 1.808
45.06000 0.652
45.08000 -3.180
45.10000 -0.211
45.12000 5.398
45.14000 3.940
45.16000 2.037
45.18000 0.915
45.20000 -3.016
45.22000 -0.917
45.24000 -0.639
45.26000 3.344
45.28000 0.873
45.30000 0.405
45.32000 5.525
45.34000 3.778
45.36000 -0.882
45.38000 -1.706
45.40000 0.517
45.42000 -0.206
45.44000 1.218
45.46000 2.864
45.48000 3.601
45.50000 3.426
45.52000 -2.041
45.54000 1.059
45.56000 5.938
45.58000 3.533
45.60000 4.410
45.62000 5.533
45.64000 3.159
45.66000 2.346
45.68000 4.182
45.70000 5.239
45.72000 8.795
45.74000 6.438
45.76000 3.636
45.78000 8.220
45.80000 5.250
45.82000 -0.364
45.84000 1.707
45.86000 6.799
45.88000 8.204
45.90000 7.796
45.92000 9.098
45.94000 9.135
45.96000 5.666
45.98000 6.582
46.00000 10.396
46.02000 15.023
46.04000 13.173
46.06000 15.992
46.08000 16.640
46.10000 17.169
46.12000 12.798
46.14000 8.580
46.16000 11.489
46.18000 12.366
46.20000 15.420
46.22000 21.156
46.24000 18.976
46.26000 16.391
46.28000 20.357
46.30000 25.053
46.32000 25.230
46.34000 24.754
46.36000 25.631
46.38000 29.249
46.40000 29.915
46.42000 27.113
46.44000 25.246
46.46000 29.690
46.48000 32.153
46.50000 34.024
46.52000 34.273
46.54000 38.975
46.56000 40.178
46.58000 38.955
46.60000 39.419
46.62000 46.543
46.64000 44.545
46.66000 50.429
46.68000 50.567
46.70000 57.881
46.72000 59.818
46.74000 58.510
46.76000 65.823
46.78000 67.014
46.80000 70.270
46.82000 75.231
46.84000 76.106
46.86000 76.761
46.88000 81.609
46.90000 84.105
46.92000 88.946
46.94000 88.527
46.96000 90.118
46.98000 93.347
47.00000 88.471
47.02000 90.901
47.04000 103.412
47.06000 109.467
47.08000 108.360
47.10000 102.940
47.12000 104.495
47.14000 109.656
47.16000 107.058
47.18000 103.135
47.20000 105.088
47.22000 114.751
47.24000 107.679
47.26000 104.410
47.28000 108.240
47.30000 105.559
47.32000 104.680
47.34000 103.089
47.36000 100.869
47.38000 96.753
47.40000 99.157
47.42000 93.115
47.44000 89.349
47.46000 87.316
47.48000 85.816
47.50000 79.052
47.52000 75.606
47.54000 77.849
47.56000 74.851
47.58000 73.094
47.60000 66.155
47.62000 63.074
47.64000 62.297
47.66000 60.999
47.68000 61.360
47.70000 52.902
47.72000 48.226
47.74000 46.672
47.76000 47.177
47.78000 44.944
47.80000 47.465
47.82000 44.554
47.84000 37.608
47.86000 37.090
47.88000 31.804
47.90000 31.516
47.92000 29.335
47.94000 28.475
47.96000 25.114
47.98000 23.914
48.00000 24.251
48.02000 20.876
48.04000 19.928
48.06000 20.005
48.08000 17.665
48.10000 19.348
48.12000 16.924
48.14000 13.271
48.16000 13.140
48.18000 10.147
48.20000 10.231
48.22000 12.819
48.24000 11.657
48.26000 8.230
48.28000 6.120
48.30000 9.627
48.32000 6.808
48.34000 6.957
48.36000 8.856
48.38000 6.306
48.40000 6.115
48.42000 5.103
48.44000 1.328
48.46000 1.187
48.48000 3.120
48.50000 4.101
48.52000 6.450
48.54000 5.339
48.56000 4.508
48.58000 2.798
48.60000 5.167
48.62000 5.340
48.64000 0.434
48.66000 3.344
48.68000 4.972
48.70000 2.291
48.72000 3.828
48.74000 0.484
48.76000 2.650
48.78000 3.298
48.80000 2.926
48.82000 1.832
48.84000 1.228
48.86000 -2.757
48.88000 -2.062
48.90000 -1.167
48.92000 -2.743
48.94000 -1.518
48.96000 0.013
48.98000 2.279
49.00000 3.609
49.02000 1.310
49.04000 -0.761
49.06000 2.210
49.08000 3.068
49.10000 1.475
49.12000 -1.500
49.14000 1.601
49.16000 4.824
49.18000 0.947
49.20000 -1.888
49.22000 -1.549
49.24000 -2.057
49.26000 -2.081
49.28000 -1.686
49.30000 -2.249
49.32000 1.563
49.34000 -0.025
49.36000 -0.520
49.38000 0.566
49.40000 1.778
49.42000 1.706
49.44000 0.328
49.46000 5.007
49.48000 1.959
49.50000 0.136
49.52000 -2.600
49.54000 -0.336
49.56000 3.002
49.58000 4.509
49.60000 1.051
49.62000 -0.809
49.64000 3.423
49.66000 2.891
49.68000 3.370
49.70000 4.037
49.72000 1.683
49.74000 4.328
49.76000 6.657
49.78000 4.410
49.80000 3.657
49.82000 3.942
49.84000 3.833
49.86000 0.999
49.88000 1.263
49.90000 4.330
49.92000 3.689
49.94000 4.421
49.96000 2.702
49.98000 4.214
50.00000 5.297
50.02000 3.820
50.04000 4.188
50.06000 3.565
50.08000 1.003
50.10000 -0.592
50.12000 2.193
50.14000 5.246
50.16000 -0.496
50.18000 -2.539
50.20000 0.331
50.22000 0.809
50.24000 3.918
50.26000 1.416
50.28000 -2.536
50.30000 1.077
50.32000 1.649
50.34000 3.300
50.36000 2.513
50.38000 -1.404
50.40000 2.627
50.42000 2.324
50.44000 5.706
50.46000 -2.013
50.48000 -2.103
50.50000 -0.023
50.52000 -0.013
50.54000 0.072
50.56000 2.203
50.58000 2.425
50.60000 4.187
50.62000 4.326
50.64000 5.063
50.66000 4.201
50.68000 5.697
50.70000 5.450
50.72000 3.728
50.74000 4.622
50.76000 3.525
50.78000 1.001
50.80000 0.520
50.82000 0.860
50.84000 3.390
50.86000 3.848
50.88000 1.766
50.90000 4.544
50.92000 3.583
50.94000 2.476
50.96000 -0.751
50.98000 1.649
51.00000 1.406
51.02000 1.353
51.04000 -0.433
51.06000 -2.508
51.08000 -2.074
51.10000 1.790
51.12000 2.789
51.14000 5.350
51.16000 2.292
51.18000 0.506
51.20000 1.798
51.22000 3.396
51.24000 5.346
51.26000 4.673
51.28000 3.076
51.30000 2.952
51.32000 2.555
51.34000 0.356
51.36000 -0.472
51.38000 1.200
51.40000 1.629
51.42000 3.518
51.44000 5.178
51.46000 2.522
51.48000 3.485
51.50000 1.879
51.52000 0.878
51.54000 0.545
51.56000 2.536
51.58000 4.241
51.60000 3.932
51.62000 4.949
51.64000 2.921
51.66000 -2.477
51.68000 -1.074
51.70000 0.375
51.72000 2.709
51.74000 0.310
51.76000 1.434
51.78000 1.281
51.80000 -2.479
51.82000 -2.093
51.84000 -0.748
51.86000 2.532
51.88000 2.017
51.90000 3.048
51.92000 2.856
51.94000 1.926
51.96000 -0.448
51.98000 1.930
52.00000 5.802
52.02000 3.979
52.04000 2.811
52.06000 1.435
52.08000 -1.242
52.10000 0.490
52.12000 1.109
52.14000 -1.589
52.16000 1.949
52.18000 3.836
52.20000 0.961
52.22000 3.978
52.24000 3.513
52.26000 1.441
52.28000 0.366
52.30000 1.792
52.32000 -1.304
52.34000 0.904
52.36000 0.792
52.38000 -2.469
52.40000 -0.150
52.42000 0.602
52.44000 1.637
52.46000 1.827
52.48000 1.672
52.50000 -1.052
52.52000 1.071
52.54000 -0.121
52.56000 1.854
52.58000 1.911
52.60000 -0.838
52.62000 0.203
52.64000 2.836
52.66000 0.757
52.68000 2.494
52.70000 4.416
52.72000 -0.304
52.74000 -2.455
52.76000 1.378
52.78000 4.573
52.80000 0.292
52.82000 1.516
52.84000 2.383
52.86000 1.299
52.88000 -0.086
52.90000 3.056
52.92000 2.043
52.94000 -0.939
52.96000 1.756
52.98000 2.965
53.00000 3.809
53.02000 1.397
53.04000 2.284
53.06000 3.276
53.08000 5.561
53.10000 1.686
53.12000 3.855
53.14000 4.420
53.16000 5.015
53.18000 7.828
53.20000 6.540
53.22000 7.477
53.24000 4.857
53.26000 1.512
53.28000 0.160
53.30000 1.900
53.32000 6.196
53.34000 4.774
53.36000 1.067
53.38000 1.092
53.40000 2.718
53.42000 2.591
53.44000 1.965
53.46000 1.730
53.48000 4.069
53.50000 5.238
53.52000 3.489
53.54000 4.181
53.56000 6.298
53.58000 6.509
53.60000 4.517
53.62000 2.178
53.64000 0.906
53.66000 -0.843
53.68000 3.959
53.70000 5.076
53.72000 3.521
53.74000 5.380
53.76000 3.406
53.78000 3.399
53.80000 2.236
53.82000 -2.359
53.84000 -0.516
53.86000 1.913
53.88000 4.722
53.90000 3.167
53.92000 2.310
53.94000 3.305
53.96000 5.484
53.98000 3.730
54.00000 4.234
54.02000 4.071
54.04000 5.799
54.06000 4.139
54.08000 4.274
54.10000 3.900
54.12000 4.861
54.14000 6.111
54.16000 3.358
54.18000 2.566
54.20000 3.516
54.22000 4.954
54.24000 2.241
54.26000 1.773
54.28000 1.726
54.30000 2.130
54.32000 4.774
54.34000 5.624
54.36000 5.629
54.38000 4.935
54.40000 4.719
54.42000 2.449
54.44000 2.619
54.46000 2.604
54.48000 3.646
54.50000 5.169
54.52000 4.650
54.54000 -0.160
54.56000 0.818
54.58000 2.686
54.60000 0.287
54.62000 0.684
54.64000 2.310
54.66000 0.613
54.68000 1.859
54.70000 2.024
54.72000 2.372
54.74000 6.082
54.76000 3.717
54.78000 3.809
54.80000 8.190
54.82000 6.060
54.84000 4.343
54.86000 4.991
54.88000 4.513
54.90000 2.690
54.92000 -2.328
54.94000 0.056
54.96000 3.530
54.98000 2.695
55.00000 5.568
55.02000 6.644
55.04000 3.583
55.06000 4.269
55.08000 3.850
55.10000 3.873
55.12000 4.076
55.14000 1.772
55.16000 2.595
55.18000 3.282
55.20000 -0.117
55.22000 2.431
55.24000 2.812
55.26000 4.800
55.28000 3.897
55.30000 2.683
55.32000 2.023
55.34000 2.313
55.36000 6.182
55.38000 3.636
55.40000 1.641
55.42000 2.162
55.44000 3.284
55.46000 1.412
55.48000 0.050
55.50000 0.669
55.52000 0.958
55.54000 -1.625
55.56000 4.022
55.58000 3.872
55.60000 4.482
55.62000 3.598
55.64000 4.893
55.66000 0.990
55.68000 0.698
55.70000 4.077
55.72000 1.832
55.74000 0.259
55.76000 3.799
55.78000 6.098
55.80000 6.236
55.82000 3.069
55.84000 5.978
55.86000 4.514
55.88000 6.096
55.90000 -1.378
55.92000 0.633
55.94000 2.441
55.96000 4.303
55.98000 4.882
56.00000 4.970
56.02000 3.980
56.04000 3.038
56.06000 6.211
56.08000 7.642
56.10000 4.363
56.12000 4.834
56.14000 2.608
56.16000 4.415
56.18000 0.386
56.20000 0.971
56.22000 2.338
56.24000 2.951
56.26000 0.902
56.28000 0.669
56.30000 0.813
56.32000 2.395
56.34000 3.199
56.36000 2.926
56.38000 6.211
56.40000 7.254
56.42000 3.706
56.44000 1.809
56.46000 2.227
56.48000 4.179
56.50000 7.553
56.52000 6.450
56.54000 2.193
56.56000 0.590
56.58000 -0.137
56.60000 5.453
56.62000 5.170
56.64000 2.191
56.66000 2.237
56.68000 1.264
56.70000 1.990
56.72000 0.901
56.74000 1.838
56.76000 3.976
56.78000 4.939
56.80000 4.502
56.82000 1.918
56.84000 4.979
56.86000 3.105
56.88000 -1.375
56.90000 -2.268
56.92000 0.752
56.94000 5.077
56.96000 3.989
56.98000 3.834
57.00000 4.934
57.02000 0.185
57.04000 1.993
57.06000 5.108
57.08000 7.351
57.10000 7.467
57.12000 8.053
57.14000 3.754
57.16000 2.415
57.18000 2.680
57.20000 4.805
57.22000 7.553
57.24000 3.066
57.26000 5.070
57.28000 6.208
57.30000 8.461
57.32000 6.298
57.34000 6.472
57.36000 3.704
57.38000 4.712
57.40000 2.819
57.42000 2.764
57.44000 -0.048
57.46000 1.334
57.48000 4.628
57.50000 3.192
57.52000 3.609
57.54000 4.229
57.56000 7.454
57.58000 6.392
57.60000 4.315
57.62000 4.505
57.64000 2.513
57.66000 -0.960
57.68000 0.080
57.70000 -0.337
57.72000 -2.270
57.74000 -0.814
57.76000 1.971
57.78000 3.924
57.80000 0.399
57.82000 -0.343
57.84000 3.978
57.86000 3.777
57.88000 -1.414
57.90000 2.705
57.92000 2.446
57.94000 1.687
57.96000 4.609
57.98000 2.257
58.00000 0.569
58.02000 4.559
58.04000 1.771
58.06000 -0.300
58.08000 -0.905
58.10000 3.854
58.12000 0.100
58.14000 0.825
58.16000 3.129
58.18000 3.120
58.20000 1.507
58.22000 1.906
58.24000 -0.076
58.26000 2.847
58.28000 4.605
58.30000 1.037
58.32000 4.011
58.34000 5.678
58.36000 4.486
58.38000 3.943
58.40000 4.183
58.42000 -0.072
58.44000 1.100
58.46000 4.509
58.48000 4.223
58.50000 0.319
58.52000 -0.543
58.54000 1.142
58.56000 1.120
58.58000 2.250
58.60000 3.530
58.62000 2.363
58.64000 3.812
58.66000 -1.527
58.68000 -2.261
58.70000 0.871
58.72000 0.756
58.74000 0.112
58.76000 0.346
58.78000 0.135
58.80000 3.896
58.82000 2.752
58.84000 2.623
58.86000 0.562
58.88000 0.162
58.90000 1.549
58.92000 2.200
58.94000 1.278
58.96000 3.407
58.98000 4.275
59.00000 7.069
59.02000 3.346
59.04000 0.655
59.06000 -2.257
59.08000 -1.455
59.10000 2.274
59.12000 3.858
59.14000 2.237
59.16000 0.147
59.18000 2.067
59.20000 3.048
59.22000 2.083
59.24000 3.229
59.26000 1.933
59.28000 1.759
59.30000 0.966
59.32000 -1.260
59.34000 4.669
59.36000 5.024
59.38000 7.309
59.40000 2.027
59.42000 1.753
59.44000 3.638
59.46000 3.773
59.48000 3.623
59.50000 3.179
59.52000 3.202
59.54000 4.501
59.56000 7.245
59.58000 3.236
59.60000 0.581
59.62000 0.342
59.64000 1.273
59.66000 5.167
59.68000 3.483
59.70000 2.067
59.72000 1.983
59.74000 2.175
59.76000 2.117
59.78000 3.625
59.80000 2.472
59.82000 -0.323
59.84000 0.033
59.86000 0.160
59.88000 0.740
59.90000 4.879
59.92000 3.496
59.94000 4.183
59.96000 2.108
59.98000 1.737
60.00000 0.823
60.02000 2.593
60.04000 3.109
60.06000 5.469
60.08000 7.360
60.10000 3.187
60.12000 3.862
60.14000 6.336
60.16000 0.476
60.18000 -2.186
60.20000 1.715
60.22000 3.426
60.24000 2.352
60.26000 -0.352
60.28000 3.088
60.30000 0.483
60.32000 0.570
60.34000 3.598
60.36000 2.943
60.38000 0.710
60.40000 1.078
60.42000 0.233
60.44000 2.420
60.46000 3.265
60.48000 0.295
60.50000 -0.875
60.52000 0.944
60.54000 3.007
60.56000 1.301
60.58000 2.280
60.60000 3.287
60.62000 5.805
60.64000 4.295
60.66000 3.974
60.68000 4.680
60.70000 1.669
60.72000 1.761
60.74000 0.507
60.76000 2.457
60.78000 2.250
60.80000 0.796
60.82000 0.400
60.84000 1.365
60.86000 1.674
60.88000 0.867
60.90000 0.421
60.92000 0.612
60.94000 -2.203
60.96000 -0.366
60.98000 0.334
61.00000 5.676
61.02000 5.310
61.04000 3.414
61.06000 0.443
61.08000 3.409
61.10000 1.152
61.12000 2.138
61.14000 2.895
61.16000 3.018
61.18000 -0.200
61.20000 -0.274
61.22000 0.733
61.24000 -0.332
61.26000 -2.211
61.28000 -1.521
61.30000 -1.645
61.32000 0.546
61.34000 0.453
61.36000 0.982
61.38000 0.453
61.40000 2.254
61.42000 1.803
61.44000 1.163
61.46000 -0.329
61.48000 -1.682
61.50000 -0.249
61.52000 0.985
61.54000 0.299
61.56000 3.631
61.58000 -0.515
61.60000 1.938
61.62000 3.291
61.64000 0.538
61.66000 0.625
61.68000 1.012
61.70000 1.605
61.72000 2.111
61.74000 3.239
61.76000 1.430
61.78000 2.034
61.80000 -1.120
61.82000 -2.203
61.84000 -0.706
61.86000 0.200
61.88000 -1.192
61.90000 -0.247
61.92000 -0.838
61.94000 -0.221
61.96000 0.483
61.98000 -1.399
62.00000 -2.061
62.02000 -0.397
62.04000 3.156
62.06000 3.295
62.08000 2.753
62.10000 2.583
62.12000 -0.327
62.14000 -0.698
62.16000 -0.710
62.18000 -1.214
62.20000 -0.694
62.22000 1.297
62.24000 3.723
62.26000 1.537
62.28000 1.710
62.30000 0.394
62.32000 1.837
62.34000 3.217
62.36000 6.593
62.38000 3.413
62.40000 1.459
62.42000 0.853
62.44000 2.177
62.46000 4.123
62.48000 2.225
62.50000 1.039
62.52000 1.652
62.54000 -2.149
62.56000 0.721
62.58000 2.945
62.60000 3.094
62.62000 4.345
62.64000 2.704
62.66000 -0.332
62.68000 1.801
62.70000 1.615
62.72000 -0.616
62.74000 2.929
62.76000 4.671
62.78000 2.947
62.80000 -0.257
62.82000 3.226
62.84000 2.789
62.86000 1.524
62.88000 0.699
62.90000 0.249
62.92000 1.490
62.94000 4.849
62.96000 4.062
62.98000 -1.621
63.00000 -0.148
63.02000 0.427
63.04000 0.191
63.06000 0.772
63.08000 -0.683
63.10000 2.821
63.12000 4.024
63.14000 1.556
63.16000 2.260
63.18000 1.870
63.20000 2.483
63.22000 2.878
63.24000 0.513
63.26000 2.265
63.28000 2.534
63.30000 -0.501
63.32000 5.075
63.34000 3.460
63.36000 0.951
63.38000 -2.050
63.40000 -0.440
63.42000 0.422
63.44000 0.535
63.46000 2.227
63.48000 1.335
63.50000 0.656
63.52000 3.585
63.54000 3.513
63.56000 4.403
63.58000 3.080
63.60000 -0.739
63.62000 -2.168
63.64000 0.421
63.66000 2.320
63.68000 1.107
63.70000 -1.685
63.72000 0.535
63.74000 -0.260
63.76000 -0.057
63.78000 1.961
63.80000 4.369
63.82000 0.950
63.84000 2.869
63.86000 2.784
63.88000 1.749
63.90000 -1.722
63.92000 0.699
63.94000 2.221
63.96000 1.969
63.98000 3.861
64.00000 2.079
64.02000 1.125
64.04000 2.264
64.06000 1.826
64.08000 2.271
64.10000 -0.464
64.12000 2.425
64.14000 2.557
64.16000 0.479
64.18000 0.834
64.20000 0.925
64.22000 1.157
64.24000 1.889
64.26000 1.196
64.28000 0.691
64.30000 -1.420
64.32000 1.213
64.34000 1.286
64.36000 1.465
64.38000 -1.374
64.40000 0.810
64.42000 -0.401
64.44000 -0.152
64.46000 -0.449
64.48000 -1.542
64.50000 -2.159
64.52000 -0.804
64.54000 2.351
64.56000 -0.733
64.58000 -0.547
64.60000 1.566
64.62000 2.011
64.64000 3.458
64.66000 2.224
64.68000 2.910
64.70000 2.259
64.72000 1.396
64.74000 0.653
64.76000 0.334
64.78000 0.262
64.80000 -0.045
64.82000 0.606
64.84000 0.712
64.86000 1.958
64.88000 2.093
64.90000 1.682
64.92000 2.084
64.94000 0.155
64.96000 0.364
64.98000 2.074
65.00000 2.452
65.02000 0.126
65.04000 -0.531
65.06000 -0.316
65.08000 0.872
65.10000 1.561
65.12000 3.718
65.14000 2.020
65.16000 4.106
65.18000 4.751
65.20000 2.758
65.22000 0.643
65.24000 1.600
65.26000 2.503
65.28000 1.230
65.30000 4.089
65.32000 2.031
65.34000 -2.159
65.36000 2.047
65.38000 3.280
65.40000 3.145
65.42000 0.708
65.44000 1.480
65.46000 2.592
65.48000 -0.028
65.50000 -1.154
65.52000 0.271
65.54000 0.948
65.56000 6.024
65.58000 2.390
65.60000 4.600
65.62000 1.820
65.64000 0.911
65.66000 1.244
65.68000 0.907
65.70000 1.299
65.72000 4.083
65.74000 4.859
65.76000 1.593
65.78000 -0.273
65.80000 -0.714
65.82000 0.137
65.84000 1.363
65.86000 0.051
65.88000 -1.460
65.90000 1.957
65.92000 3.947
65.94000 3.179
65.96000 1.571
65.98000 1.649
66.00000 2.711
66.02000 0.310
66.04000 -1.004
66.06000 4.304
66.08000 3.563
66.10000 4.614
66.12000 2.626
66.14000 1.454
66.16000 -1.274
66.18000 -1.423
66.20000 1.771
66.22000 1.933
66.24000 3.398
66.26000 3.822
66.28000 1.588
66.30000 0.054
66.32000 1.453
66.34000 1.724
66.36000 3.472
66.38000 -0.077
66.40000 -0.620
66.42000 -0.890
66.44000 -1.175
66.46000 1.410
66.48000 1.606
66.50000 4.128
66.52000 4.587
66.54000 4.025
66.56000 4.923
66.58000 2.557
66.60000 0.647
66.62000 -0.863
66.64000 -2.087
66.66000 -2.139
66.68000 -0.043
66.70000 2.314
66.72000 3.513
66.74000 3.373
66.76000 0.979
66.78000 -0.149
66.80000 0.699
66.82000 1.428
66.84000 0.462
66.86000 -0.878
66.88000 0.045
66.90000 0.758
66.92000 0.081
66.94000 -0.446
66.96000 0.688
66.98000 1.165
67.00000 4.041
67.02000 4.111
67.04000 1.715
67.06000 0.661
67.08000 -0.144
67.10000 0.881
67.12000 0.166
67.14000 -1.903
67.16000 -0.010
67.18000 -0.094
67.20000 -1.282
67.22000 -0.852
67.24000 0.997
67.26000 0.633
67.28000 2.401
67.30000 0.963
67.32000 -1.623
67.34000 -1.688
67.36000 -0.089
67.38000 0.782
67.40000 0.102
67.42000 -0.612
67.44000 1.028
67.46000 0.724
67.48000 -1.497
67.50000 -1.678
67.52000 -0.869
67.54000 0.208
67.56000 -1.788
67.58000 0.930
67.60000 2.515
67.62000 -0.124
67.64000 -1.217
67.66000 -1.024
67.68000 -1.661
67.70000 -0.216
67.72000 2.490
67.74000 -0.411
67.76000 0.047
67.78000 0.010
67.80000 1.663
67.82000 0.932
67.84000 -2.117
67.86000 -2.245
67.88000 0.296
67.90000 0.661
67.92000 -0.756
67.94000 1.317
67.96000 2.687
67.98000 2.022
68.00000 1.748
68.02000 2.198
68.04000 -0.803
68.06000 1.120
68.08000 2.337
68.10000 0.780
68.12000 3.602
68.14000 3.919
68.16000 4.671
68.18000 6.002
68.20000 3.409
68.22000 0.995
68.24000 2.689
68.26000 1.914
68.28000 2.459
68.30000 4.309
68.32000 3.381
68.34000 4.071
68.36000 5.874
68.38000 8.575
68.40000 5.848
68.42000 6.362
68.44000 6.170
68.46000 5.184
68.48000 10.052
68.50000 9.999
68.52000 9.386
68.54000 11.088
68.56000 11.239
68.58000 16.102
68.60000 14.577
68.62000 17.366
68.64000 13.756
68.66000 11.877
68.68000 13.410
68.70000 16.195
68.72000 18.321
68.74000 22.081
68.76000 20.116
68.78000 17.551
68.80000 20.238
68.82000 19.221
68.84000 20.392
68.86000 21.725
68.88000 21.556
68.90000 24.450
68.92000 23.386
68.94000 22.754
68.96000 25.256
68.98000 25.394
69.00000 24.965
69.02000 23.421
69.04000 23.320
69.06000 22.697
69.08000 25.498
69.10000 24.450
69.12000 25.814
69.14000 23.444
69.16000 24.059
69.18000 24.523
69.20000 23.413
69.22000 22.510
69.24000 23.003
69.26000 22.990
69.28000 20.673
69.30000 18.091
69.32000 15.149
69.34000 18.372
69.36000 18.527
69.38000 16.805
69.40000 12.195
69.42000 12.321
69.44000 11.795
69.46000 12.870
69.48000 11.923
69.50000 10.881
69.52000 9.265
69.54000 7.527
69.56000 7.402
69.58000 8.228
69.60000 10.665
69.62000 9.083
69.64000 11.268
69.66000 8.658
69.68000 8.703
69.70000 6.147
69.72000 3.760
69.74000 6.242
69.76000 4.448
69.78000 5.729
69.80000 3.427
69.82000 1.665
69.84000 3.137
69.86000 2.845
69.88000 0.794
69.90000 5.669
69.92000 5.524
69.94000 4.358
69.96000 2.829
69.98000 2.838
70.00000 3.833
70.02000 1.539
70.04000 0.481
70.06000 0.384
70.08000 0.763
70.10000 1.179
70.12000 0.054
70.14000 2.239
70.16000 4.486
70.18000 0.633
70.20000 -1.091
70.22000 -2.190
70.24000 0.040
70.26000 1.867
70.28000 0.548
70.30000 3.130
70.32000 5.906
70.34000 3.738
70.36000 2.224
70.38000 -0.785
70.40000 -0.634
70.42000 1.125
70.44000 1.047
70.46000 0.588
70.48000 -1.562
70.50000 0.729
70.52000 0.954
70.54000 3.413
70.56000 3.459
70.58000 1.536
70.60000 0.336
70.62000 1.112
70.64000 0.222
70.66000 4.291
70.68000 6.865
70.70000 5.777
70.72000 3.788
70.74000 2.159
70.76000 2.380
70.78000 3.123
70.80000 3.586
70.82000 1.366
70.84000 1.510
70.86000 2.829
70.88000 3.233
70.90000 1.571
70.92000 -2.068
70.94000 -1.519
70.96000 1.193
70.98000 1.799
71.00000 3.005
71.02000 3.187
71.04000 4.056
71.06000 4.794
71.08000 2.627
71.10000 0.717
71.12000 4.346
71.14000 4.047
71.16000 2.414
71.18000 3.261
71.20000 2.791
71.22000 1.622
71.24000 3.474
71.26000 3.361
71.28000 2.060
71.30000 3.384
71.32000 2.053
71.34000 2.672
71.36000 3.689
71.38000 0.632
71.40000 0.374
71.42000 3.500
71.44000 1.682
71.46000 0.380
71.48000 3.068
71.50000 4.006
71.52000 -1.230
71.54000 -0.695
71.56000 2.386
71.58000 -0.935
71.60000 1.132
71.62000 0.742
71.64000 2.645
71.66000 1.552
71.68000 1.465
71.70000 0.461
71.72000 0.815
71.74000 3.461
71.76000 1.923
71.78000 1.720
71.80000 2.478
71.82000 2.129
71.84000 4.454
71.86000 -0.505
71.88000 -1.032
71.90000 1.492
71.92000 4.379
71.94000 3.165
71.96000 2.153
71.98000 5.095
72.00000 2.831
72.02000 0.092
72.04000 -1.815
72.06000 -0.848
72.08000 -0.888
72.10000 -0.997
72.12000 3.833
72.14000 3.327
72.16000 2.800
72.18000 3.086
72.20000 1.759
72.22000 2.025
72.24000 -0.235
72.26000 -0.637
72.28000 -1.067
72.30000 0.250
72.32000 1.469
72.34000 -1.926
72.36000 -2.029
72.38000 0.956
72.40000 3.600
72.42000 4.928
72.44000 5.095
72.46000 1.974
72.48000 0.877
72.50000 2.314
72.52000 0.916
72.54000 0.799
72.56000 1.972
72.58000 4.751
72.60000 2.237
72.62000 0.457
72.64000 0.943
72.66000 0.610
72.68000 2.144
72.70000 4.564
72.72000 2.369
72.74000 2.313
72.76000 4.016
72.78000 3.364
72.80000 3.754
72.82000 -1.595
72.84000 -0.910
72.86000 1.443
72.88000 3.308
72.90000 0.745
72.92000 1.612
72.94000 1.595
72.96000 1.198
72.98000 2.516
73.00000 0.414
73.02000 1.886
73.04000 0.932
73.06000 0.092
73.08000 0.454
73.10000 2.528
73.12000 3.016
73.14000 3.874
73.16000 5.380
73.18000 1.545
73.20000 1.109
73.22000 1.488
73.24000 1.817
73.26000 3.925
73.28000 4.413
73.30000 2.166
73.32000 3.184
73.34000 -0.677
73.36000 -0.303
73.38000 0.405
73.40000 -0.435
73.42000 1.332
73.44000 1.873
73.46000 -1.986
73.48000 -0.599
73.50000 2.367
73.52000 2.892
73.54000 0.295
73.56000 1.767
73.58000 4.388
73.60000 1.192
73.62000 1.146
73.64000 2.949
73.66000 5.215
73.68000 4.550
73.70000 1.143
73.72000 3.368
73.74000 3.885
73.76000 1.672
73.78000 1.392
73.80000 3.336
73.82000 3.561
73.84000 1.563
73.86000 -0.294
73.88000 3.805
73.90000 3.215
73.92000 2.875
73.94000 4.452
73.96000 1.873
73.98000 2.317
74.00000 4.630
74.02000 1.984
74.04000 1.783
74.06000 0.525
74.08000 0.184
74.10000 0.670
74.12000 2.513
74.14000 -0.063
74.16000 -1.951
74.18000 -1.562
74.20000 1.508
74.22000 2.761
74.24000 3.585
74.26000 4.445
74.28000 5.278
74.30000 4.886
74.32000 4.885
74.34000 3.444
74.36000 1.150
74.38000 1.473
74.40000 2.815
74.42000 4.030
74.44000 1.932
74.46000 -0.023
74.48000 3.161
74.50000 2.405
74.52000 2.923
74.54000 5.514
74.56000 4.259
74.58000 4.670
74.60000 5.840
74.62000 3.620
74.64000 2.620
74.66000 5.408
74.68000 2.402
74.70000 0.083
74.72000 1.774
74.74000 3.274
74.76000 2.417
74.78000 3.058
74.80000 0.857
74.82000 1.086
74.84000 0.881
74.86000 2.777
74.88000 1.183
74.90000 0.803
74.92000 2.267
74.94000 4.127
74.96000 2.204
74.98000 -0.130
75.00000 -1.971
75.02000 -1.944
75.04000 0.768
75.06000 -0.817
75.08000 1.009
75.10000 2.858
75.12000 1.198
75.14000 -1.502
75.16000 2.953
75.18000 5.406
75.20000 3.491
75.22000 1.221
75.24000 0.858
75.26000 4.462
75.28000 5.097
75.30000 2.410
75.32000 -0.376
75.34000 -0.504
75.36000 0.306
75.38000 1.946
75.40000 1.895
75.42000 2.131
75.44000 1.414
75.46000 1.939
75.48000 1.616
75.50000 -0.940
75.52000 -1.066
75.54000 2.723
75.56000 7.772
75.58000 8.882
75.60000 5.372
75.62000 0.403
75.64000 -0.268
75.66000 1.974
75.68000 -1.998
75.70000 0.040
75.72000 3.578
75.74000 1.941
75.76000 1.699
75.78000 -0.367
75.80000 -1.462
75.82000 0.578
75.84000 4.562
75.86000 4.091
75.88000 3.484
75.90000 4.441
75.92000 3.637
75.94000 2.509
75.96000 3.936
75.98000 2.460
76.00000 1.663
76.02000 -0.190
76.04000 -0.537
76.06000 -0.784
76.08000 2.166
76.10000 4.518
76.12000 1.704
76.14000 -1.532
76.16000 1.359
76.18000 0.524
76.20000 0.189
76.22000 2.123
76.24000 3.486
76.26000 3.250
76.28000 3.074
76.30000 1.410
76.32000 -0.799
76.34000 0.972
76.36000 -1.338
76.38000 -1.355
76.40000 1.539
76.42000 2.837
76.44000 -1.309
76.46000 -1.784
76.48000 0.123
76.50000 -2.010
76.52000 -0.071
76.54000 2.028
76.56000 2.354
76.58000 -0.226
76.60000 0.312
76.62000 4.021
76.64000 1.603
76.66000 0.838
76.68000 0.679
76.70000 -0.470
76.72000 2.173
76.74000 -0.350
76.76000 4.071
76.78000 2.212
76.80000 -1.491
76.82000 -1.636
76.84000 1.954
76.86000 0.119
76.88000 1.924
76.90000 2.126
76.92000 4.906
76.94000 2.419
76.96000 0.549
76.98000 2.386
77.00000 -2.009
77.02000 1.007
77.04000 3.165
77.06000 1.472
77.08000 2.208
77.10000 3.326
77.12000 1.365
77.14000 2.426
77.16000 2.500
77.18000 1.467
77.20000 3.936
77.22000 0.113
77.24000 -1.423
77.26000 1.395
77.28000 0.264
77.30000 -0.060
77.32000 0.699
77.34000 2.475
77.36000 4.559
77.38000 4.794
77.40000 4.339
77.42000 2.711
77.44000 1.352
77.46000 0.049
77.48000 2.129
77.50000 1.963
77.52000 0.794
77.54000 0.309
77.56000 0.032
77.58000 2.165
77.60000 3.419
77.62000 1.726
77.64000 1.992
77.66000 3.616
77.68000 2.362
77.70000 -0.537
77.72000 0.951
77.74000 1.127
77.76000 2.849
77.78000 2.895
77.80000 2.568
77.82000 -1.254
77.84000 -2.008
77.86000 1.332
77.88000 2.778
77.90000 2.690
77.92000 3.728
77.94000 2.151
77.96000 4.816
77.98000 3.352
78.00000 4.174
78.02000 0.319
78.04000 0.217
78.06000 1.995
78.08000 1.711
78.10000 5.843
78.12000 2.115
78.14000 2.258
78.16000 -1.988
78.18000 -0.450
78.20000 1.418
78.22000 1.874
78.24000 4.243
78.26000 3.852
78.28000 2.068
78.30000 3.633
78.32000 4.149
78.34000 0.309
78.36000 0.933
78.38000 1.592
78.40000 2.324
78.42000 1.893
78.44000 2.297
78.46000 0.256
78.48000 -0.297
78.50000 -0.655
78.52000 2.642
78.54000 1.652
78.56000 -1.035
78.58000 -0.832
78.60000 0.156
78.62000 2.022
78.64000 1.094
78.66000 2.023
78.68000 1.087
78.70000 -0.043
78.72000 2.502
78.74000 0.256
78.76000 0.917
78.78000 0.402
78.80000 0.879
78.82000 2.524
78.84000 1.654
78.86000 2.312
78.88000 1.192
78.90000 0.163
78.92000 1.299
78.94000 3.656
78.96000 0.061
78.98000 -2.058
79.00000 0.817
79.02000 -0.496
79.04000 1.014
79.06000 0.185
79.08000 1.768
79.10000 1.680
79.12000 2.857
79.14000 2.386
79.16000 4.784
79.18000 -1.381
79.20000 -0.923
79.22000 -0.077
79.24000 -1.326
79.26000 0.750
79.28000 3.168
79.30000 -0.821
79.32000 0.538
79.34000 0.909
79.36000 0.430
79.38000 -0.061
79.40000 0.395
79.42000 0.068
79.44000 -0.826
79.46000 1.192
79.48000 0.873
79.50000 -1.257
79.52000 0.243
79.54000 -0.505
79.56000 -1.720
79.58000 -2.013
79.60000 -0.968
79.62000 -1.752
79.64000 0.624
79.66000 1.163
79.68000 -1.114
79.70000 -2.072
79.72000 -1.371
79.74000 0.288
79.76000 -0.021
79.78000 2.690
79.80000 0.586
79.82000 2.151
79.84000 1.767
79.86000 2.546
79.88000 1.897
79.90000 0.358
79.92000 -0.353
79.94000 -0.382
79.96000 0.983
79.98000 0.756
80.00000 2.505
80.02000 2.191
80.04000 5.895
80.06000 4.420
80.08000 3.234
80.10000 1.562
80.12000 1.325
80.14000 -1.258
80.16000 0.149
80.18000 -1.549
80.20000 -0.295
80.22000 1.719
80.24000 -0.276
80.26000 0.358
80.28000 1.488
80.30000 1.934
80.32000 6.783
80.34000 4.438
80.36000 1.796
80.38000 -2.066
80.40000 0.894
80.42000 0.993
80.44000 0.347
80.46000 2.816
80.48000 4.745
80.50000 2.957
80.52000 2.805
80.54000 -0.797
80.56000 3.151
80.58000 3.688
80.60000 3.108
80.62000 1.573
80.64000 -0.343
80.66000 3.514
80.68000 2.723
80.70000 0.591
80.72000 5.029
80.74000 5.689
80.76000 3.818
80.78000 -1.031
80.80000 -2.070
80.82000 0.476
80.84000 -0.095
80.86000 1.291
80.88000 -0.262
80.90000 -2.069
80.92000 0.107
80.94000 0.075
80.96000 1.170
80.98000 -0.240
81.00000 1.516
81.02000 4.257
81.04000 5.893
81.06000 6.278
81.08000 4.434
81.10000 5.175
81.12000 4.449
81.14000 1.677
81.16000 0.933
81.18000 3.086
81.20000 5.138
81.22000 6.895
81.24000 4.702
81.26000 2.083
81.28000 -0.592
81.30000 1.621
81.32000 4.500
81.34000 1.783
81.36000 -2.104
81.38000 1.434
81.40000 4.434
81.42000 -0.022
81.44000 1.251
81.46000 -0.727
81.48000 -1.277
81.50000 -0.936
81.52000 2.661
81.54000 5.882
81.56000 6.718
81.58000 3.801
81.60000 3.009
81.62000 -0.010
81.64000 1.617
81.66000 0.264
81.68000 1.806
81.70000 2.707
81.72000 6.253
81.74000 2.858
81.76000 3.285
81.78000 -0.049
81.80000 -0.707
81.82000 1.761
81.84000 1.045
81.86000 -0.287
81.88000 -0.222
81.90000 -0.106
81.92000 4.546
81.94000 3.660
81.96000 0.043
81.98000 -0.069
82.00000 -0.152
82.02000 3.867
82.04000 5.279
82.06000 4.289
82.08000 3.936
82.10000 0.959
82.12000 1.776
82.14000 2.559
82.16000 4.955
82.18000 3.064
82.20000 5.465
82.22000 6.427
82.24000 8.164
82.26000 5.889
82.28000 4.251
82.30000 5.066
82.32000 6.676
82.34000 8.640
82.36000 8.159
82.38000 9.058
82.40000 7.801
82.42000 5.250
82.44000 6.724
82.46000 11.869
82.48000 13.972
82.50000 9.662
82.52000 9.710
82.54000 10.604
82.56000 10.350
82.58000 15.911
82.60000 16.959
82.62000 16.339
82.64000 13.911
82.66000 18.682
82.68000 19.662
82.70000 15.891
82.72000 18.085
82.74000 20.087
82.76000 18.761
82.78000 19.230
82.80000 23.986
82.82000 30.179
82.84000 30.462
82.86000 31.215
82.88000 33.402
82.90000 33.235
82.92000 30.624
82.94000 30.398
82.96000 31.946
82.98000 34.348
83.00000 32.091
83.02000 38.657
83.04000 40.794
83.06000 40.279
83.08000 41.217
83.10000 40.843
83.12000 41.585
83.14000 42.000
83.16000 43.331
83.18000 44.166
83.20000 45.109
83.22000 49.237
83.24000 45.890
83.26000 46.330
83.28000 48.829
83.30000 53.734
83.32000 52.022
83.34000 42.758
83.36000 49.436
83.38000 49.902
83.40000 48.091
83.42000 46.040
83.44000 49.210
83.46000 52.166
83.48000 46.722
83.50000 45.858
83.52000 39.661
83.54000 38.112
83.56000 42.371
83.58000 42.770
83.60000 39.910
83.62000 33.299
83.64000 31.585
83.66000 33.446
83.68000 36.306
83.70000 36.169
83.72000 32.027
83.74000 27.811
83.76000 27.152
83.78000 27.387
83.80000 30.598
83.82000 27.635
83.84000 21.900
83.86000 20.197
83.88000 23.028
83.90000 21.828
83.92000 20.157
83.94000 15.577
83.96000 14.517
83.98000 13.341
84.00000 16.673
84.02000 16.401
84.04000 17.584
84.06000 15.476
84.08000 8.426
84.10000 9.885
84.12000 13.099
84.14000 10.715
84.16000 10.231
84.18000 12.999
84.20000 13.357
84.22000 11.999
84.24000 13.224
84.26000 12.555
84.28000 8.482
84.30000 5.373
84.32000 6.398
84.34000 3.024
84.36000 6.563
84.38000 2.285
84.40000 4.850
84.42000 9.961
84.44000 9.252
84.46000 7.451
84.48000 3.971
84.50000 5.053
84.52000 4.079
84.54000 1.795
84.56000 0.624
84.58000 1.597
84.60000 2.691
84.62000 2.609
84.64000 0.680
84.66000 2.144
84.68000 4.674
84.70000 5.642
84.72000 1.117
84.74000 3.038
84.76000 4.325
84.78000 4.188
84.80000 4.459
84.82000 2.594
84.84000 1.110
84.86000 0.267
84.88000 -0.652
84.90000 1.678
84.92000 3.090
84.94000 2.188
84.96000 1.512
84.98000 1.918
85.00000 0.616
85.02000 2.202
85.04000 -1.198
85.06000 4.176
85.08000 1.528
85.10000 -2.128
85.12000 -0.731
85.14000 -0.504
85.16000 0.534
85.18000 -0.883
85.20000 -0.477
85.22000 3.347
85.24000 2.283
85.26000 -0.563
85.28000 -0.023
85.30000 0.447
85.32000 -1.315
85.34000 1.067
85.36000 3.501
85.38000 -1.619
85.40000 -1.668
85.42000 0.882
85.44000 0.836
85.46000 -0.057
85.48000 -0.539
85.50000 -1.135
85.52000 -1.361
85.54000 2.751
85.56000 5.516
85.58000 4.292
85.60000 -0.280
85.62000 1.348
85.64000 2.256
85.66000 4.388
85.68000 1.538
85.70000 2.233
85.72000 2.849
85.74000 -0.675
85.76000 -1.402
85.78000 -0.740
85.80000 -0.735
85.82000 -0.679
85.84000 2.297
85.86000 2.998
85.88000 -2.053
85.90000 -1.520
85.92000 -1.799
85.94000 -2.086
85.96000 -1.623
85.98000 -0.496
86.00000 0.678
86.02000 0.471
86.04000 0.696
86.06000 0.799
86.08000 -1.105
86.10000 -1.140
86.12000 1.619
86.14000 0.932
86.16000 1.548
86.18000 0.892
86.20000 4.835
86.22000 4.342
86.24000 1.444
86.26000 -2.100
86.28000 -1.747
86.30000 0.399
86.32000 3.365
86.34000 -0.184
86.36000 2.135
86.38000 3.713
86.40000 3.808
86.42000 3.713
86.44000 5.180
86.46000 2.904
86.48000 1.695
86.50000 -1.171
86.52000 -1.442
86.54000 -2.120
86.56000 -1.433
86.58000 -0.041
86.60000 -0.687
86.62000 0.190
86.64000 2.481
86.66000 2.613
86.68000 4.062
86.70000 0.887
86.72000 1.186
86.74000 3.062
86.76000 3.636
86.78000 1.602
86.80000 4.440
86.82000 2.785
86.84000 2.087
86.86000 1.325
86.88000 5.008
86.90000 6.930
86.92000 7.850
86.94000 8.581
86.96000 9.443
86.98000 5.192
87.00000 5.435
87.02000 4.926
87.04000 6.186
87.06000 8.783
87.08000 7.040
87.10000 10.000
87.12000 9.535
87.14000 10.194
87.16000 8.597
87.18000 8.774
87.20000 11.233
87.22000 12.509
87.24000 12.906
87.26000 10.428
87.28000 12.378
87.30000 15.801
87.32000 15.747
87.34000 15.064
87.36000 14.111
87.38000 12.882
87.40000 17.073
87.42000 14.388
87.44000 16.047
87.46000 15.572
87.48000 20.389
87.50000 21.116
87.52000 22.252
87.54000 19.663
87.56000 20.041
87.58000 19.059
87.60000 21.244
87.62000 23.724
87.64000 26.956
87.66000 26.435
87.68000 22.396
87.70000 22.036
87.72000 23.752
87.74000 28.032
87.76000 27.393
87.78000 25.216
87.80000 26.640
87.82000 25.491
87.84000 19.004
87.86000 25.733
87.88000 28.019
87.90000 20.310
87.92000 20.783
87.94000 19.742
87.96000 24.048
87.98000 21.640
88.00000 21.889
88.02000 20.890
88.04000 22.919
88.06000 23.759
88.08000 22.217
88.10000 15.524
88.12000 17.972
88.14000 15.158
88.16000 17.869
88.18000 21.074
88.20000 17.726
88.22000 14.062
88.24000 15.536
88.26000 15.789
88.28000 16.531
88.30000 17.265
88.32000 13.758
88.34000 12.806
88.36000 13.833
88.38000 12.961
88.40000 12.390
88.42000 10.687
88.44000 9.374
88.46000 10.751
88.48000 9.181
88.50000 6.463
88.52000 7.818
88.54000 8.119
88.56000 10.474
88.58000 7.816
88.60000 3.833
88.62000 0.617
88.64000 2.830
88.66000 4.169
88.68000 5.673
88.70000 2.520
88.72000 1.031
88.74000 2.623
88.76000 2.260
88.78000 2.438
88.80000 -0.725
88.82000 5.606
88.84000 5.379
88.86000 3.242
88.88000 4.596
88.90000 4.029
88.92000 4.202
88.94000 4.368
88.96000 5.741
88.98000 3.204
89.00000 0.586
89.02000 0.223
89.04000 -1.603
89.06000 1.482
89.08000 4.984
89.10000 2.157
89.12000 3.493
89.14000 1.493
89.16000 0.589
89.18000 2.620
89.20000 2.648
89.22000 2.594
89.24000 2.764
89.26000 4.429
89.28000 0.483
89.30000 -1.641
89.32000 2.854
89.34000 6.454
89.36000 3.240
89.38000 0.280
89.40000 -1.084
89.42000 0.354
89.44000 1.142
89.46000 4.029
89.48000 -1.328
89.50000 1.458
89.52000 0.702
89.54000 0.552
89.56000 5.003
89.58000 3.216
89.60000 2.372
89.62000 -1.950
89.64000 0.952
89.66000 0.940
89.68000 0.204
89.70000 3.137
89.72000 2.123
89.74000 1.381
89.76000 1.904
89.78000 3.323
89.80000 -1.933
89.82000 -1.403
89.84000 1.320
89.86000 1.748
89.88000 3.180
89.90000 6.136
89.92000 5.505
89.94000 5.094
89.96000 3.806
89.98000 0.100
90.00000 -1.678
90.02000 0.661
90.04000 2.975
90.06000 2.858
90.08000 2.097
90.10000 3.477
90.12000 1.758
90.14000 -0.156
90.16000 2.931
90.18000 1.162
90.20000 2.935
90.22000 2.867
90.24000 -1.879
90.26000 3.348
90.28000 5.610
90.30000 7.716
90.32000 4.299
90.34000 0.845
90.36000 5.112
90.38000 0.967
90.40000 3.234
90.42000 5.382
90.44000 7.988
90.46000 6.473
90.48000 9.055
90.50000 4.816
90.52000 3.504
90.54000 3.435
90.56000 2.392
90.58000 1.639
90.60000 2.625
90.62000 0.426
90.64000 0.270
90.66000 3.624
90.68000 6.532
90.70000 2.534
90.72000 2.733
90.74000 2.619
90.76000 2.769
90.78000 5.344
90.80000 1.519
90.82000 2.555
90.84000 3.337
90.86000 1.104
90.88000 4.745
90.90000 3.794
90.92000 3.199
90.94000 3.028
90.96000 3.432
90.98000 2.548
91.00000 3.015
91.02000 -1.881
91.04000 -0.220
91.06000 1.804
91.08000 1.657
91.10000 3.999
91.12000 4.863
91.14000 3.915
91.16000 -0.203
91.18000 -1.877
91.20000 3.434
91.22000 5.577
91.24000 4.831
91.26000 -0.912
91.28000 1.709
91.30000 3.750
91.32000 6.202
91.34000 2.367
91.36000 3.833
91.38000 2.174
91.40000 0.626
91.42000 0.653
91.44000 1.314
91.46000 3.130
91.48000 4.249
91.50000 1.678
91.52000 3.054
91.54000 1.426
91.56000 -1.865
91.58000 2.271
91.60000 4.421
91.62000 5.073
91.64000 5.487
91.66000 5.793
91.68000 3.099
91.70000 1.959
91.72000 0.952
91.74000 0.406
91.76000 1.421
91.78000 3.447
91.80000 3.606
91.82000 1.291
91.84000 -1.534
91.86000 1.007
91.88000 3.952
91.90000 5.811
91.92000 8.697
91.94000 3.791
91.96000 4.693
91.98000 5.333
92.00000 5.128
92.02000 6.606
92.04000 4.220
92.06000 0.092
92.08000 3.267
92.10000 2.931
92.12000 1.292
92.14000 -1.883
92.16000 3.032
92.18000 4.464
92.20000 2.041
92.22000 3.629
92.24000 1.950
92.26000 1.373
92.28000 2.002
92.30000 4.295
92.32000 3.150
92.34000 0.614
92.36000 0.571
92.38000 2.434
92.40000 1.069
92.42000 1.886
92.44000 0.781
92.46000 1.649
92.48000 4.626
92.50000 2.471
92.52000 -0.057
92.54000 0.414
92.56000 8.015
92.58000 4.631
92.60000 3.582
92.62000 2.793
92.64000 4.729
92.66000 0.914
92.68000 -0.745
92.70000 -1.892
92.72000 0.498
92.74000 0.709
92.76000 2.044
92.78000 -0.348
92.80000 2.800
92.82000 4.192
92.84000 3.928
92.86000 2.221
92.88000 2.526
92.90000 2.324
92.92000 0.810
92.94000 -0.231
92.96000 2.557
92.98000 7.140
93.00000 5.894
93.02000 3.406
93.04000 1.094
93.06000 1.037
93.08000 1.724
93.10000 3.238
93.12000 3.817
93.14000 5.116
93.16000 1.441
93.18000 3.290
93.20000 3.466
93.22000 2.436
93.24000 0.000
93.26000 1.770
93.28000 3.876
93.30000 1.978
93.32000 -1.907
93.34000 0.737
93.36000 0.384
93.38000 2.283
93.40000 4.870
93.42000 0.516
93.44000 1.396
93.46000 5.266
93.48000 2.791
93.50000 2.072
93.52000 3.775
93.54000 0.596
93.56000 1.954
93.58000 2.151
93.60000 0.598
93.62000 1.837
93.64000 1.504
93.66000 2.855
93.68000 1.346
93.70000 3.613
93.72000 1.561
93.74000 4.730
93.76000 4.785
93.78000 3.556
93.80000 2.552
93.82000 1.706
93.84000 -0.216
93.86000 1.634
93.88000 -0.091
93.90000 -1.427
93.92000 0.856
93.94000 1.556
93.96000 1.240
93.98000 2.074
94.00000 1.774
94.02000 1.079
94.04000 6.158
94.06000 5.161
94.08000 0.973
94.10000 0.394
94.12000 -0.215
94.14000 0.026
94.16000 -0.706
94.18000 -1.950
94.20000 -0.755
94.22000 -0.484
94.24000 -1.662
94.26000 -0.586
94.28000 0.056
94.30000 0.309
94.32000 1.877
94.34000 2.858
94.36000 0.153
94.38000 0.946
94.40000 0.154
94.42000 0.452
94.44000 0.168
94.46000 2.230
94.48000 2.559
94.50000 3.270
94.52000 4.271
94.54000 3.408
94.56000 1.938
94.58000 0.031
94.60000 0.989
94.62000 1.532
94.64000 0.576
94.66000 1.934
94.68000 4.857
94.70000 5.650
94.72000 1.856
94.74000 -0.406
94.76000 -1.403
94.78000 -1.948
94.80000 0.792
94.82000 2.092
94.84000 -0.367
94.86000 -1.055
94.88000 -1.309
94.90000 0.869
94.92000 4.559
94.94000 2.549
94.96000 0.155
94.98000 3.815
95.00000 4.077
95.02000 1.661
95.04000 -0.592
95.06000 0.471
95.08000 1.712
95.10000 3.704
95.12000 4.540
95.14000 -1.513
95.16000 1.653
95.18000 3.520
95.20000 3.207
95.22000 3.762
95.24000 0.902
95.26000 5.864
95.28000 2.098
95.30000 -1.632
95.32000 4.857
95.34000 4.179
95.36000 2.691
95.38000 2.863
95.40000 5.398
95.42000 3.172
95.44000 3.208
95.46000 1.312
95.48000 3.381
95.50000 0.633
95.52000 0.441
95.54000 -1.785
95.56000 0.009
95.58000 2.633
95.60000 -1.939
95.62000 1.109
95.64000 1.818
95.66000 4.022
95.68000 4.328
95.70000 3.170
95.72000 0.159
95.74000 -0.642
95.76000 -1.935
95.78000 0.260
95.80000 3.120
95.82000 0.982
95.84000 2.179
95.86000 3.313
95.88000 4.138
95.90000 -0.041
95.92000 2.808
95.94000 3.035
95.96000 3.072
95.98000 4.182
96.00000 3.455
96.02000 1.750
96.04000 3.203
96.06000 4.161
96.08000 6.262
96.10000 6.370
96.12000 3.831
96.14000 3.752
96.16000 -1.006
96.18000 -0.240
96.20000 3.795
96.22000 3.500
96.24000 -1.909
96.26000 -0.912
96.28000 1.000
96.30000 3.515
96.32000 1.995
96.34000 3.026
96.36000 3.868
96.38000 2.233
96.40000 2.161
96.42000 2.033
96.44000 1.874
96.46000 3.729
96.48000 3.837
96.50000 5.235
96.52000 8.705
96.54000 7.057
96.56000 2.574
96.58000 2.934
96.60000 0.257
96.62000 3.784
96.64000 5.495
96.66000 3.340
96.68000 0.479
96.70000 2.917
96.72000 3.175
96.74000 4.592
96.76000 5.461
96.78000 3.308
96.80000 3.822
96.82000 1.372
96.84000 2.831
96.86000 3.957
96.88000 3.818
96.90000 3.736
96.92000 8.392
96.94000 2.923
96.96000 -0.245
96.98000 1.362
97.00000 -0.781
97.02000 -0.995
97.04000 2.880
97.06000 6.595
97.08000 2.693
97.10000 3.502
97.12000 2.864
97.14000 -0.575
97.16000 6.252
97.18000 7.246
97.20000 5.461
97.22000 5.050
97.24000 6.004
97.26000 3.431
97.28000 3.857
97.30000 -0.448
97.32000 -1.909
97.34000 2.908
97.36000 6.389
97.38000 5.071
97.40000 5.867
97.42000 5.666
97.44000 3.427
97.46000 4.226
97.48000 3.450
97.50000 2.288
97.52000 2.132
97.54000 6.340
97.56000 5.435
97.58000 4.386
97.60000 0.537
97.62000 -0.058
97.64000 0.609
97.66000 -0.598
97.68000 3.491
97.70000 3.985
97.72000 1.508
97.74000 -0.535
97.76000 1.239
97.78000 3.508
97.80000 2.017
97.82000 2.276
97.84000 5.996
97.86000 3.741
97.88000 -0.188
97.90000 3.427
97.92000 -1.005
97.94000 6.373
97.96000 5.723
97.98000 8.780
98.00000 12.030
98.02000 8.592
98.04000 1.761
98.06000 3.339
98.08000 3.366
98.10000 2.699
98.12000 2.818
98.14000 9.389
98.16000 7.505
98.18000 2.719
98.20000 -1.842
98.22000 1.876
98.24000 8.028
98.26000 5.748
98.28000 3.079
98.30000 4.445
98.32000 6.301
98.34000 9.813
98.36000 4.667
98.38000 6.596
98.40000 10.392
98.42000 6.365
98.44000 7.189
98.46000 4.210
98.48000 3.830
98.50000 7.150
98.52000 4.653
98.54000 4.042
98.56000 -0.036
98.58000 -1.042
98.60000 1.388
98.62000 6.678
98.64000 6.211
98.66000 8.617
98.68000 6.353
98.70000 -0.947
98.72000 1.473
98.74000 4.591
98.76000 5.462
98.78000 6.718
98.80000 4.423
98.82000 7.794
98.84000 8.839
98.86000 8.025
98.88000 7.254
98.90000 8.001
98.92000 2.185
98.94000 3.858
98.96000 7.282
98.98000 8.904
99.00000 5.094
99.02000 4.917
99.04000 4.808
99.06000 8.791
99.08000 6.981
99.10000 7.079
99.12000 5.159
99.14000 11.555
99.16000 2.931
99.18000 2.729
99.20000 8.418
99.22000 0.254
99.24000 -0.629
99.26000 6.515
99.28000 7.691
99.30000 2.247
99.32000 1.117
99.34000 -1.819
99.36000 5.713
99.38000 8.204
99.40000 8.036
99.42000 3.176
99.44000 2.204
99.46000 5.263
99.48000 5.131
99.50000 3.523
99.52000 2.393
99.54000 1.105
99.56000 5.514
99.58000 5.952
99.60000 9.628
99.62000 6.487
99.64000 15.840
99.66000 8.182
99.68000 1.688
99.70000 5.741
99.72000 3.957
99.74000 5.797
99.76000 3.003
99.78000 2.206
99.80000 3.011
99.82000 5.024
99.84000 13.044
99.86000 3.514
99.88000 -1.949
99.90000 2.835
99.92000 3.254
99.94000 4.420
99.96000 3.616
99.98000 0.000
