'Id: "0011387" Comment: "Integrate frame 0011387_Au-Ir-Rh_Rh-rich_XRD-Mapping-018-0000.gfrmwith cursor Wedge Cursor #5" Operator: "B?rgel" Anode: "Cu" Wavelength: "1.5406" Scantype: "2Theta (TwoTheta)" TimePerStep: "1" X: "4.5" Y: "-36" Z: "5.95" 
10.00000 0.000
10.02000 -4.529
10.04000 17.189
10.06000 10.654
10.08000 -3.435
10.10000 -4.446
10.12000 13.443
10.14000 13.068
10.16000 10.877
10.18000 8.461
10.20000 10.012
10.22000 3.229
10.24000 3.346
10.26000 16.092
10.28000 10.587
10.30000 1.063
10.32000 11.094
10.34000 5.365
10.36000 -0.042
10.38000 -3.287
10.40000 12.155
10.42000 22.212
10.44000 37.672
10.46000 29.930
10.48000 19.094
10.50000 2.797
10.52000 -4.318
10.54000 1.948
10.56000 27.821
10.58000 27.135
10.60000 18.667
10.62000 28.405
10.64000 15.018
10.66000 3.126
10.68000 2.610
10.70000 14.806
10.72000 24.200
10.74000 34.802
10.76000 25.635
10.78000 8.302
10.80000 14.681
10.82000 12.684
10.84000 28.969
10.86000 25.177
10.88000 18.408
10.90000 33.938
10.92000 22.598
10.94000 21.481
10.96000 22.611
10.98000 18.728
11.00000 10.533
11.02000 15.204
11.04000 9.163
11.06000 17.924
11.08000 19.944
11.10000 16.653
11.12000 18.530
11.14000 18.485
11.16000 11.243
11.18000 22.593
11.20000 10.578
11.22000 16.660
11.24000 12.420
11.26000 23.745
11.28000 18.209
11.30000 25.776
11.32000 25.488
11.34000 13.010
11.36000 16.977
11.38000 14.066
11.40000 12.310
11.42000 12.686
11.44000 14.467
11.46000 11.101
11.48000 7.984
11.50000 21.051
11.52000 13.493
11.54000 7.769
11.56000 15.651
11.58000 11.015
11.60000 7.437
11.62000 3.220
11.64000 13.740
11.66000 6.544
11.68000 7.698
11.70000 17.914
11.72000 14.239
11.74000 5.601
11.76000 3.704
11.78000 12.343
11.80000 11.151
11.82000 15.337
11.84000 4.074
11.86000 9.789
11.88000 17.938
11.90000 20.566
11.92000 10.754
11.94000 8.399
11.96000 13.603
11.98000 12.334
12.00000 8.011
12.02000 14.556
12.04000 13.559
12.06000 18.537
12.08000 28.860
12.10000 24.115
12.12000 15.855
12.14000 9.758
12.16000 7.801
12.18000 16.882
12.20000 19.283
12.22000 7.609
12.24000 6.460
12.26000 5.884
12.28000 4.524
12.30000 3.242
12.32000 5.843
12.34000 8.493
12.36000 15.554
12.38000 8.252
12.40000 18.142
12.42000 6.527
12.44000 16.325
12.46000 12.652
12.48000 7.591
12.50000 8.805
12.52000 3.848
12.54000 12.758
12.56000 10.943
12.58000 0.558
12.60000 3.534
12.62000 6.093
12.64000 8.598
12.66000 13.601
12.68000 11.262
12.70000 11.795
12.72000 17.779
12.74000 10.667
12.76000 1.417
12.78000 11.347
12.80000 9.854
12.82000 3.216
12.84000 20.952
12.86000 19.475
12.88000 9.785
12.90000 13.791
12.92000 4.098
12.94000 6.663
12.96000 12.482
12.98000 16.539
13.00000 9.256
13.02000 8.289
13.04000 2.995
13.06000 5.812
13.08000 3.393
13.10000 10.689
13.12000 5.923
13.14000 8.576
13.16000 12.083
13.18000 12.077
13.20000 12.739
13.22000 8.917
13.24000 10.846
13.26000 9.627
13.28000 5.910
13.30000 5.613
13.32000 6.451
13.34000 3.337
13.36000 9.208
13.38000 15.577
13.40000 13.054
13.42000 12.713
13.44000 14.721
13.46000 9.489
13.48000 16.646
13.50000 25.195
13.52000 12.201
13.54000 7.111
13.56000 15.089
13.58000 11.667
13.60000 8.011
13.62000 6.016
13.64000 5.660
13.66000 9.017
13.68000 7.248
13.70000 12.943
13.72000 10.910
13.74000 8.572
13.76000 1.886
13.78000 9.057
13.80000 8.092
13.82000 11.331
13.84000 14.839
13.86000 8.691
13.88000 9.179
13.90000 8.092
13.92000 10.415
13.94000 15.133
13.96000 6.458
13.98000 -1.589
14.00000 5.310
14.02000 1.636
14.04000 5.215
14.06000 2.960
14.08000 6.420
14.10000 17.227
14.12000 17.789
14.14000 13.364
14.16000 5.807
14.18000 6.522
14.20000 3.381
14.22000 9.676
14.24000 0.760
14.26000 4.826
14.28000 6.491
14.30000 3.229
14.32000 4.799
14.34000 1.776
14.36000 3.343
14.38000 19.844
14.40000 20.845
14.42000 15.207
14.44000 12.261
14.46000 16.324
14.48000 11.313
14.50000 14.263
14.52000 16.255
14.54000 8.622
14.56000 4.646
14.58000 10.653
14.60000 15.383
14.62000 27.291
14.64000 25.630
14.66000 17.748
14.68000 10.096
14.70000 13.637
14.72000 9.212
14.74000 11.736
14.76000 7.972
14.78000 1.230
14.80000 9.144
14.82000 12.572
14.84000 2.593
14.86000 10.603
14.88000 -4.524
14.90000 7.316
14.92000 11.319
14.94000 11.099
14.96000 16.456
14.98000 8.336
15.00000 13.717
15.02000 10.370
15.04000 10.864
15.06000 11.903
15.08000 13.803
15.10000 13.870
15.12000 14.095
15.14000 18.930
15.16000 18.700
15.18000 11.617
15.20000 5.737
15.22000 16.274
15.24000 9.475
15.26000 10.920
15.28000 7.949
15.30000 12.284
15.32000 3.566
15.34000 5.489
15.36000 5.011
15.38000 13.367
15.40000 10.959
15.42000 6.383
15.44000 7.769
15.46000 6.764
15.48000 11.066
15.50000 6.865
15.52000 5.651
15.54000 5.185
15.56000 9.052
15.58000 1.257
15.60000 -0.414
15.62000 9.259
15.64000 7.130
15.66000 5.244
15.68000 9.326
15.70000 9.728
15.72000 6.533
15.74000 6.898
15.76000 10.373
15.78000 11.147
15.80000 6.954
15.82000 4.620
15.84000 0.325
15.86000 5.207
15.88000 7.546
15.90000 1.558
15.92000 1.195
15.94000 4.438
15.96000 4.161
15.98000 -1.722
16.00000 -1.576
16.02000 5.673
16.04000 8.190
16.06000 10.312
16.08000 10.215
16.10000 4.036
16.12000 1.311
16.14000 11.476
16.16000 5.531
16.18000 7.384
16.20000 17.061
16.22000 13.132
16.24000 13.808
16.26000 8.898
16.28000 6.787
16.30000 17.176
16.32000 16.741
16.34000 3.942
16.36000 5.390
16.38000 5.517
16.40000 -1.076
16.42000 0.399
16.44000 9.606
16.46000 11.258
16.48000 4.148
16.50000 0.288
16.52000 4.990
16.54000 6.476
16.56000 8.682
16.58000 0.557
16.60000 11.244
16.62000 9.406
16.64000 6.579
16.66000 6.100
16.68000 1.860
16.70000 14.340
16.72000 16.703
16.74000 12.177
16.76000 2.169
16.78000 3.897
16.80000 16.187
16.82000 12.717
16.84000 4.847
16.86000 3.964
16.88000 -1.156
16.90000 6.443
16.92000 3.275
16.94000 0.246
16.96000 7.560
16.98000 5.940
17.00000 4.003
17.02000 11.971
17.04000 8.590
17.06000 7.160
17.08000 2.749
17.10000 6.048
17.12000 2.512
17.14000 6.578
17.16000 9.504
17.18000 13.856
17.20000 17.593
17.22000 14.484
17.24000 9.339
17.26000 5.835
17.28000 0.479
17.30000 3.936
17.32000 7.124
17.34000 3.860
17.36000 4.698
17.38000 11.269
17.40000 1.610
17.42000 -4.429
17.44000 -1.046
17.46000 1.244
17.48000 9.305
17.50000 4.449
17.52000 0.562
17.54000 8.252
17.56000 9.028
17.58000 5.895
17.60000 5.467
17.62000 5.647
17.64000 6.409
17.66000 4.860
17.68000 9.593
17.70000 9.185
17.72000 8.481
17.74000 6.909
17.76000 12.340
17.78000 11.879
17.80000 12.928
17.82000 7.421
17.84000 9.667
17.86000 7.996
17.88000 5.613
17.90000 15.131
17.92000 11.488
17.94000 9.301
17.96000 9.888
17.98000 5.689
18.00000 9.857
18.02000 4.120
18.04000 5.349
18.06000 9.136
18.08000 4.672
18.10000 1.038
18.12000 8.486
18.14000 10.576
18.16000 11.231
18.18000 11.056
18.20000 14.023
18.22000 9.629
18.24000 -4.376
18.26000 4.488
18.28000 19.092
18.30000 16.571
18.32000 3.085
18.34000 1.636
18.36000 7.248
18.38000 2.964
18.40000 3.084
18.42000 9.730
18.44000 2.318
18.46000 3.841
18.48000 5.534
18.50000 8.122
18.52000 6.202
18.54000 1.951
18.56000 0.324
18.58000 -0.608
18.60000 2.031
18.62000 3.688
18.64000 5.406
18.66000 3.537
18.68000 2.885
18.70000 5.229
18.72000 4.662
18.74000 0.028
18.76000 2.373
18.78000 6.491
18.80000 13.351
18.82000 7.600
18.84000 6.490
18.86000 8.294
18.88000 4.963
18.90000 6.477
18.92000 6.302
18.94000 1.973
18.96000 4.573
18.98000 5.298
19.00000 1.205
19.02000 -0.140
19.04000 -2.768
19.06000 1.104
19.08000 5.262
19.10000 -0.663
19.12000 4.393
19.14000 10.791
19.16000 5.990
19.18000 3.588
19.20000 3.771
19.22000 7.934
19.24000 2.260
19.26000 0.715
19.28000 -0.795
19.30000 1.076
19.32000 1.934
19.34000 -0.515
19.36000 -2.097
19.38000 1.730
19.40000 2.783
19.42000 -0.292
19.44000 0.781
19.46000 1.530
19.48000 4.109
19.50000 -3.000
19.52000 2.140
19.54000 2.682
19.56000 3.127
19.58000 5.071
19.60000 5.840
19.62000 5.175
19.64000 3.442
19.66000 -4.139
19.68000 -3.593
19.70000 4.087
19.72000 3.423
19.74000 3.255
19.76000 4.765
19.78000 5.172
19.80000 5.775
19.82000 6.550
19.84000 8.620
19.86000 6.016
19.88000 8.745
19.90000 6.860
19.92000 1.483
19.94000 6.710
19.96000 8.608
19.98000 -2.855
20.00000 -3.006
20.02000 10.389
20.04000 11.954
20.06000 7.130
20.08000 1.230
20.10000 7.008
20.12000 4.770
20.14000 0.802
20.16000 3.629
20.18000 1.544
20.20000 5.098
20.22000 1.878
20.24000 2.325
20.26000 5.098
20.28000 6.699
20.30000 16.734
20.32000 8.593
20.34000 2.368
20.36000 0.377
20.38000 -3.342
20.40000 5.274
20.42000 8.010
20.44000 6.119
20.46000 5.397
20.48000 1.814
20.50000 0.527
20.52000 -4.257
20.54000 -0.355
20.56000 5.561
20.58000 3.246
20.60000 9.105
20.62000 8.531
20.64000 6.731
20.66000 -2.397
20.68000 1.226
20.70000 1.990
20.72000 6.645
20.74000 2.710
20.76000 -1.333
20.78000 10.505
20.80000 8.176
20.82000 6.852
20.84000 7.360
20.86000 4.243
20.88000 3.972
20.90000 4.290
20.92000 -1.504
20.94000 1.717
20.96000 1.063
20.98000 -3.508
21.00000 -1.829
21.02000 1.177
21.04000 4.079
21.06000 7.033
21.08000 8.666
21.10000 8.699
21.12000 1.126
21.14000 -1.544
21.16000 -0.246
21.18000 6.129
21.20000 4.223
21.22000 1.873
21.24000 4.146
21.26000 5.538
21.28000 2.188
21.30000 4.440
21.32000 8.410
21.34000 6.334
21.36000 2.371
21.38000 -0.362
21.40000 0.241
21.42000 2.363
21.44000 8.035
21.46000 5.605
21.48000 4.294
21.50000 10.397
21.52000 8.677
21.54000 14.460
21.56000 6.866
21.58000 6.164
21.60000 -3.493
21.62000 3.627
21.64000 5.005
21.66000 7.277
21.68000 9.234
21.70000 11.555
21.72000 2.271
21.74000 -2.640
21.76000 1.173
21.78000 1.995
21.80000 2.632
21.82000 4.315
21.84000 4.925
21.86000 8.868
21.88000 1.010
21.90000 13.927
21.92000 12.651
21.94000 -0.218
21.96000 0.831
21.98000 4.723
22.00000 6.143
22.02000 0.584
22.04000 2.305
22.06000 6.996
22.08000 8.466
22.10000 7.628
22.12000 2.785
22.14000 1.321
22.16000 3.463
22.18000 7.490
22.20000 8.338
22.22000 3.152
22.24000 9.915
22.26000 9.697
22.28000 0.280
22.30000 -2.567
22.32000 3.218
22.34000 10.276
22.36000 7.343
22.38000 2.829
22.40000 1.631
22.42000 6.505
22.44000 6.877
22.46000 6.150
22.48000 7.793
22.50000 8.559
22.52000 5.342
22.54000 5.181
22.56000 7.058
22.58000 8.595
22.60000 7.164
22.62000 7.382
22.64000 -0.744
22.66000 -4.076
22.68000 3.511
22.70000 9.427
22.72000 4.700
22.74000 7.795
22.76000 10.445
22.78000 20.825
22.80000 12.877
22.82000 9.005
22.84000 2.889
22.86000 4.837
22.88000 4.071
22.90000 5.338
22.92000 6.392
22.94000 14.827
22.96000 9.961
22.98000 12.570
23.00000 16.027
23.02000 13.233
23.04000 4.683
23.06000 10.687
23.08000 8.308
23.10000 6.916
23.12000 10.312
23.14000 14.821
23.16000 18.866
23.18000 8.908
23.20000 5.254
23.22000 10.671
23.24000 10.855
23.26000 11.674
23.28000 7.905
23.30000 11.115
23.32000 11.025
23.34000 10.468
23.36000 6.298
23.38000 3.958
23.40000 10.763
23.42000 14.054
23.44000 6.679
23.46000 4.350
23.48000 7.268
23.50000 4.773
23.52000 2.884
23.54000 -0.252
23.56000 0.441
23.58000 0.964
23.60000 7.667
23.62000 9.822
23.64000 9.021
23.66000 8.044
23.68000 6.416
23.70000 7.870
23.72000 10.608
23.74000 10.797
23.76000 4.614
23.78000 -4.031
23.80000 -3.682
23.82000 2.751
23.84000 2.860
23.86000 6.538
23.88000 5.925
23.90000 9.302
23.92000 8.846
23.94000 9.085
23.96000 3.794
23.98000 4.762
24.00000 2.500
24.02000 6.052
24.04000 11.254
24.06000 7.496
24.08000 2.293
24.10000 1.563
24.12000 5.629
24.14000 10.876
24.16000 8.925
24.18000 3.167
24.20000 1.845
24.22000 -0.024
24.24000 3.845
24.26000 5.802
24.28000 6.215
24.30000 10.751
24.32000 8.451
24.34000 6.493
24.36000 4.956
24.38000 6.111
24.40000 5.080
24.42000 5.266
24.44000 5.781
24.46000 3.788
24.48000 1.015
24.50000 2.508
24.52000 -0.132
24.54000 -0.143
24.56000 3.788
24.58000 4.375
24.60000 5.003
24.62000 2.888
24.64000 10.144
24.66000 3.334
24.68000 -1.163
24.70000 0.761
24.72000 -0.659
24.74000 0.834
24.76000 5.867
24.78000 5.026
24.80000 5.191
24.82000 3.147
24.84000 2.820
24.86000 2.547
24.88000 8.881
24.90000 6.228
24.92000 -0.326
24.94000 0.973
24.96000 -2.759
24.98000 6.319
25.00000 5.250
25.02000 2.754
25.04000 6.191
25.06000 2.082
25.08000 -0.272
25.10000 0.833
25.12000 -4.004
25.14000 -4.003
25.16000 -0.808
25.18000 -2.746
25.20000 -2.719
25.22000 1.910
25.24000 0.590
25.26000 -0.414
25.28000 -1.239
25.30000 -1.244
25.32000 -0.218
25.34000 -0.790
25.36000 2.191
25.38000 5.394
25.40000 4.017
25.42000 5.578
25.44000 11.681
25.46000 6.625
25.48000 5.268
25.50000 4.350
25.52000 0.090
25.54000 -1.547
25.56000 4.898
25.58000 5.727
25.60000 2.885
25.62000 3.429
25.64000 2.343
25.66000 -1.494
25.68000 0.722
25.70000 2.689
25.72000 3.147
25.74000 11.372
25.76000 4.849
25.78000 6.388
25.80000 1.743
25.82000 5.523
25.84000 8.302
25.86000 6.269
25.88000 3.122
25.90000 4.753
25.92000 1.758
25.94000 -2.750
25.96000 4.136
25.98000 6.774
26.00000 7.645
26.02000 -0.658
26.04000 -3.936
26.06000 1.798
26.08000 4.856
26.10000 3.318
26.12000 6.203
26.14000 7.369
26.16000 0.586
26.18000 -0.598
26.20000 -0.196
26.22000 -1.204
26.24000 -0.410
26.26000 -0.124
26.28000 0.610
26.30000 4.479
26.32000 1.701
26.34000 2.206
26.36000 0.474
26.38000 -0.186
26.40000 2.420
26.42000 2.598
26.44000 1.972
26.46000 5.568
26.48000 7.438
26.50000 6.173
26.52000 2.767
26.54000 4.192
26.56000 6.782
26.58000 2.960
26.60000 3.261
26.62000 0.720
26.64000 -3.909
26.66000 0.272
26.68000 4.638
26.70000 1.416
26.72000 6.478
26.74000 4.745
26.76000 -0.340
26.78000 0.160
26.80000 1.193
26.82000 3.514
26.84000 3.302
26.86000 4.622
26.88000 5.396
26.90000 3.717
26.92000 0.941
26.94000 3.178
26.96000 1.261
26.98000 2.926
27.00000 8.188
27.02000 10.557
27.04000 5.167
27.06000 6.441
27.08000 3.953
27.10000 5.440
27.12000 8.563
27.14000 3.122
27.16000 3.368
27.18000 -2.249
27.20000 1.954
27.22000 10.461
27.24000 7.508
27.26000 3.039
27.28000 0.039
27.30000 1.945
27.32000 7.948
27.34000 1.615
27.36000 5.980
27.38000 2.660
27.40000 6.224
27.42000 4.689
27.44000 0.065
27.46000 2.116
27.48000 4.546
27.50000 6.524
27.52000 5.850
27.54000 -3.848
27.56000 -1.746
27.58000 0.553
27.60000 -0.171
27.62000 4.878
27.64000 2.644
27.66000 -1.626
27.68000 1.246
27.70000 4.855
27.72000 1.597
27.74000 0.647
27.76000 1.180
27.78000 7.298
27.80000 0.769
27.82000 0.742
27.84000 1.182
27.86000 3.123
27.88000 5.485
27.90000 3.495
27.92000 2.396
27.94000 1.658
27.96000 3.785
27.98000 6.565
28.00000 8.179
28.02000 7.012
28.04000 4.077
28.06000 -0.021
28.08000 0.290
28.10000 4.278
28.12000 2.713
28.14000 4.374
28.16000 7.556
28.18000 2.488
28.20000 5.550
28.22000 4.904
28.24000 6.192
28.26000 3.452
28.28000 6.343
28.30000 4.307
28.32000 -0.880
28.34000 2.128
28.36000 8.703
28.38000 7.246
28.40000 2.598
28.42000 3.094
28.44000 3.909
28.46000 3.456
28.48000 2.052
28.50000 0.899
28.52000 5.345
28.54000 7.264
28.56000 2.309
28.58000 0.980
28.60000 4.080
28.62000 1.914
28.64000 4.718
28.66000 5.139
28.68000 9.907
28.70000 2.975
28.72000 1.684
28.74000 2.574
28.76000 6.267
28.78000 7.286
28.80000 3.740
28.82000 5.324
28.84000 0.794
28.86000 2.549
28.88000 -0.843
28.90000 1.718
28.92000 3.584
28.94000 2.977
28.96000 1.205
28.98000 3.750
29.00000 2.488
29.02000 -1.628
29.04000 -1.139
29.06000 -0.399
29.08000 -2.666
29.10000 3.932
29.12000 1.575
29.14000 -3.784
29.16000 0.317
29.18000 4.601
29.20000 2.090
29.22000 3.237
29.24000 5.391
29.26000 2.454
29.28000 -3.282
29.30000 -3.770
29.32000 -0.216
29.34000 3.608
29.36000 0.654
29.38000 -3.245
29.40000 2.331
29.42000 7.492
29.44000 3.398
29.46000 -2.526
29.48000 -0.905
29.50000 3.803
29.52000 6.848
29.54000 9.178
29.56000 4.341
29.58000 -1.228
29.60000 5.446
29.62000 1.774
29.64000 -1.745
29.66000 -2.558
29.68000 0.550
29.70000 4.263
29.72000 1.267
29.74000 -1.294
29.76000 -3.762
29.78000 -2.257
29.80000 -2.300
29.82000 3.111
29.84000 6.697
29.86000 4.641
29.88000 2.922
29.90000 2.801
29.92000 2.408
29.94000 5.974
29.96000 3.481
29.98000 6.155
30.00000 4.434
30.02000 0.253
30.04000 2.826
30.06000 4.013
30.08000 4.307
30.10000 4.612
30.12000 6.241
30.14000 2.759
30.16000 3.354
30.18000 5.350
30.20000 5.840
30.22000 1.642
30.24000 4.053
30.26000 3.346
30.28000 0.255
30.30000 2.919
30.32000 1.433
30.34000 5.361
30.36000 5.081
30.38000 0.443
30.40000 -3.738
30.42000 -1.490
30.44000 -2.884
30.46000 -2.465
30.48000 0.390
30.50000 -0.013
30.52000 -2.954
30.54000 1.743
30.56000 4.474
30.58000 5.552
30.60000 1.428
30.62000 3.623
30.64000 7.544
30.66000 2.295
30.68000 2.296
30.70000 6.414
30.72000 2.781
30.74000 -2.935
30.76000 0.492
30.78000 0.977
30.80000 2.001
30.82000 2.741
30.84000 4.353
30.86000 4.321
30.88000 3.363
30.90000 -0.916
30.92000 1.539
30.94000 1.987
30.96000 -3.700
30.98000 2.459
31.00000 3.279
31.02000 10.393
31.04000 3.435
31.06000 1.683
31.08000 1.146
31.10000 1.205
31.12000 1.191
31.14000 0.549
31.16000 3.034
31.18000 4.551
31.20000 3.557
31.22000 3.786
31.24000 1.024
31.26000 2.881
31.28000 8.737
31.30000 1.971
31.32000 0.255
31.34000 -1.279
31.36000 -0.413
31.38000 1.488
31.40000 2.533
31.42000 6.173
31.44000 8.125
31.46000 5.752
31.48000 4.024
31.50000 1.142
31.52000 7.480
31.54000 3.489
31.56000 -3.647
31.58000 -1.986
31.60000 5.195
31.62000 8.531
31.64000 5.148
31.66000 4.774
31.68000 5.401
31.70000 0.905
31.72000 1.368
31.74000 0.947
31.76000 6.146
31.78000 0.254
31.80000 6.677
31.82000 6.076
31.84000 5.794
31.86000 1.744
31.88000 1.705
31.90000 2.388
31.92000 2.526
31.94000 -1.683
31.96000 1.133
31.98000 3.169
32.00000 5.270
32.02000 1.797
32.04000 -3.651
32.06000 -3.012
32.08000 1.411
32.10000 6.173
32.12000 7.249
32.14000 3.448
32.16000 -1.083
32.18000 -0.434
32.20000 -2.068
32.22000 -0.400
32.24000 -1.702
32.26000 2.731
32.28000 2.974
32.30000 0.269
32.32000 4.319
32.34000 0.188
32.36000 -3.027
32.38000 0.906
32.40000 0.385
32.42000 3.399
32.44000 0.201
32.46000 0.268
32.48000 -0.113
32.50000 3.795
32.52000 -1.554
32.54000 -0.223
32.56000 2.286
32.58000 -0.641
32.60000 -0.874
32.62000 3.830
32.64000 3.765
32.66000 4.606
32.68000 4.005
32.70000 2.275
32.72000 0.414
32.74000 2.826
32.76000 0.778
32.78000 -1.566
32.80000 0.127
32.82000 3.697
32.84000 -0.648
32.86000 -3.639
32.88000 -2.984
32.90000 2.028
32.92000 1.409
32.94000 -1.544
32.96000 1.949
32.98000 1.686
33.00000 -0.384
33.02000 4.753
33.04000 5.816
33.06000 1.582
33.08000 6.142
33.10000 4.535
33.12000 3.155
33.14000 -1.868
33.16000 -0.006
33.18000 0.156
33.20000 3.139
33.22000 -3.408
33.24000 -3.593
33.26000 0.504
33.28000 0.267
33.30000 1.377
33.32000 2.073
33.34000 0.164
33.36000 1.567
33.38000 4.596
33.40000 1.568
33.42000 0.066
33.44000 3.414
33.46000 -2.988
33.48000 -0.539
33.50000 3.521
33.52000 1.456
33.54000 1.375
33.56000 8.547
33.58000 3.805
33.60000 3.556
33.62000 5.795
33.64000 3.576
33.66000 4.661
33.68000 6.093
33.70000 4.592
33.72000 4.846
33.74000 2.403
33.76000 -2.585
33.78000 2.126
33.80000 1.862
33.82000 2.513
33.84000 4.520
33.86000 3.352
33.88000 1.262
33.90000 -1.938
33.92000 0.270
33.94000 -3.609
33.96000 -2.582
33.98000 1.718
34.00000 -0.775
34.02000 4.427
34.04000 4.869
34.06000 3.788
34.08000 0.326
34.10000 -3.264
34.12000 -0.685
34.14000 -2.135
34.16000 2.346
34.18000 -2.433
34.20000 -1.950
34.22000 -2.035
34.24000 -0.152
34.26000 3.367
34.28000 6.161
34.30000 -0.437
34.32000 -1.806
34.34000 0.993
34.36000 0.686
34.38000 1.188
34.40000 1.298
34.42000 0.325
34.44000 1.859
34.46000 2.261
34.48000 -1.255
34.50000 0.616
34.52000 0.938
34.54000 -1.525
34.56000 3.985
34.58000 -0.735
34.60000 0.681
34.62000 0.774
34.64000 -1.521
34.66000 -1.106
34.68000 -0.011
34.70000 2.978
34.72000 0.900
34.74000 -0.662
34.76000 0.625
34.78000 -3.581
34.80000 -2.633
34.82000 3.511
34.84000 1.323
34.86000 -0.692
34.88000 7.939
34.90000 8.300
34.92000 2.990
34.94000 -0.248
34.96000 -2.807
34.98000 0.264
35.00000 2.009
35.02000 4.459
35.04000 -2.545
35.06000 -0.412
35.08000 3.398
35.10000 0.513
35.12000 0.235
35.14000 -0.142
35.16000 7.145
35.18000 4.333
35.20000 5.379
35.22000 4.439
35.24000 1.825
35.26000 -0.628
35.28000 1.047
35.30000 -0.161
35.32000 2.000
35.34000 0.674
35.36000 -1.775
35.38000 -0.856
35.40000 1.486
35.42000 2.358
35.44000 1.734
35.46000 4.219
35.48000 -0.120
35.50000 3.536
35.52000 4.069
35.54000 6.235
35.56000 1.234
35.58000 3.324
35.60000 -3.442
35.62000 1.031
35.64000 -1.167
35.66000 3.147
35.68000 9.434
35.70000 4.998
35.72000 -1.430
35.74000 -1.109
35.76000 4.185
35.78000 5.478
35.80000 1.748
35.82000 -3.512
35.84000 -1.122
35.86000 1.729
35.88000 4.155
35.90000 8.364
35.92000 1.951
35.94000 -1.216
35.96000 0.402
35.98000 -1.196
36.00000 3.609
36.02000 2.430
36.04000 2.280
36.06000 7.446
36.08000 3.992
36.10000 -1.630
36.12000 -1.089
36.14000 0.922
36.16000 5.947
36.18000 4.710
36.20000 -0.316
36.22000 1.090
36.24000 5.170
36.26000 5.768
36.28000 2.996
36.30000 1.961
36.32000 3.077
36.34000 0.436
36.36000 0.694
36.38000 5.120
36.40000 0.794
36.42000 -0.970
36.44000 3.745
36.46000 3.344
36.48000 2.118
36.50000 2.119
36.52000 2.128
36.54000 2.032
36.56000 -0.548
36.58000 4.587
36.60000 4.955
36.62000 3.273
36.64000 5.572
36.66000 1.850
36.68000 0.503
36.70000 2.306
36.72000 1.627
36.74000 3.251
36.76000 3.302
36.78000 1.852
36.80000 2.380
36.82000 3.908
36.84000 -0.254
36.86000 -1.521
36.88000 1.604
36.90000 3.811
36.92000 4.315
36.94000 1.249
36.96000 -1.550
36.98000 -3.533
37.00000 4.663
37.02000 7.397
37.04000 7.678
37.06000 4.355
37.08000 1.590
37.10000 0.528
37.12000 -1.367
37.14000 3.291
37.16000 2.264
37.18000 1.469
37.20000 3.552
37.22000 6.913
37.24000 0.349
37.26000 -2.468
37.28000 2.113
37.30000 2.998
37.32000 -0.604
37.34000 -2.773
37.36000 -1.377
37.38000 2.838
37.40000 2.704
37.42000 3.310
37.44000 2.250
37.46000 2.309
37.48000 3.450
37.50000 3.607
37.52000 2.965
37.54000 1.724
37.56000 2.205
37.58000 3.532
37.60000 2.009
37.62000 5.136
37.64000 2.931
37.66000 -0.255
37.68000 -1.545
37.70000 1.257
37.72000 1.140
37.74000 0.836
37.76000 -3.077
37.78000 0.105
37.80000 -0.755
37.82000 -0.106
37.84000 -3.614
37.86000 0.474
37.88000 1.548
37.90000 3.019
37.92000 4.201
37.94000 5.041
37.96000 2.812
37.98000 0.108
38.00000 -0.569
38.02000 -0.651
38.04000 6.009
38.06000 5.659
38.08000 3.944
38.10000 3.328
38.12000 1.845
38.14000 6.671
38.16000 9.739
38.18000 7.505
38.20000 5.533
38.22000 4.829
38.24000 7.219
38.26000 8.157
38.28000 8.021
38.30000 8.309
38.32000 14.326
38.34000 11.204
38.36000 13.520
38.38000 10.362
38.40000 10.706
38.42000 14.200
38.44000 13.405
38.46000 11.079
38.48000 13.205
38.50000 16.305
38.52000 14.402
38.54000 14.773
38.56000 14.632
38.58000 14.782
38.60000 15.247
38.62000 19.902
38.64000 19.231
38.66000 13.358
38.68000 13.630
38.70000 15.329
38.72000 20.787
38.74000 17.783
38.76000 14.244
38.78000 17.367
38.80000 21.697
38.82000 20.673
38.84000 24.641
38.86000 24.646
38.88000 17.123
38.90000 18.055
38.92000 23.545
38.94000 30.162
38.96000 27.350
38.98000 28.912
39.00000 28.231
39.02000 30.643
39.04000 32.607
39.06000 32.086
39.08000 29.882
39.10000 33.672
39.12000 33.175
39.14000 31.843
39.16000 37.992
39.18000 43.976
39.20000 45.697
39.22000 43.751
39.24000 46.578
39.26000 40.142
39.28000 39.203
39.30000 46.328
39.32000 49.459
39.34000 45.733
39.36000 48.848
39.38000 56.016
39.40000 57.955
39.42000 60.256
39.44000 64.139
39.46000 63.974
39.48000 66.784
39.50000 73.501
39.52000 78.733
39.54000 81.111
39.56000 84.496
39.58000 91.879
39.60000 94.630
39.62000 99.303
39.64000 108.469
39.66000 112.266
39.68000 120.020
39.70000 126.490
39.72000 124.394
39.74000 138.108
39.76000 148.372
39.78000 157.784
39.80000 171.209
39.82000 184.339
39.84000 196.820
39.86000 213.170
39.88000 228.040
39.90000 245.408
39.92000 264.259
39.94000 279.990
39.96000 301.248
39.98000 318.206
40.00000 344.341
40.02000 366.161
40.04000 390.712
40.06000 424.700
40.08000 461.199
40.10000 489.796
40.12000 519.946
40.14000 561.417
40.16000 589.835
40.18000 637.753
40.20000 682.480
40.22000 729.653
40.24000 766.769
40.26000 813.192
40.28000 864.457
40.30000 902.513
40.32000 939.359
40.34000 983.128
40.36000 1029.112
40.38000 1053.291
40.40000 1078.643
40.42000 1121.369
40.44000 1143.052
40.46000 1154.038
40.48000 1161.253
40.50000 1158.429
40.52000 1176.208
40.54000 1177.526
40.56000 1158.972
40.58000 1153.795
40.60000 1135.487
40.62000 1100.846
40.64000 1090.953
40.66000 1077.407
40.68000 1028.811
40.70000 1003.533
40.72000 972.771
40.74000 929.013
40.76000 897.047
40.78000 869.350
40.80000 836.890
40.82000 804.247
40.84000 767.579
40.86000 724.347
40.88000 693.022
40.90000 653.328
40.92000 620.464
40.94000 599.689
40.96000 575.927
40.98000 545.705
41.00000 519.474
41.02000 485.211
41.04000 454.146
41.06000 433.121
41.08000 425.503
41.10000 390.913
41.12000 362.914
41.14000 350.855
41.16000 334.023
41.18000 316.103
41.20000 301.036
41.22000 285.721
41.24000 270.529
41.26000 251.504
41.28000 236.868
41.30000 225.171
41.32000 216.409
41.34000 200.654
41.36000 193.520
41.38000 180.100
41.40000 171.018
41.42000 168.175
41.44000 162.439
41.46000 151.676
41.48000 140.053
41.50000 137.176
41.52000 131.742
41.54000 122.310
41.56000 113.405
41.58000 111.787
41.60000 107.383
41.62000 101.754
41.64000 103.032
41.66000 96.727
41.68000 93.210
41.70000 85.295
41.72000 82.859
41.74000 82.355
41.76000 83.635
41.78000 70.985
41.80000 63.398
41.82000 62.736
41.84000 64.545
41.86000 60.706
41.88000 55.915
41.90000 51.291
41.92000 53.555
41.94000 53.321
41.96000 49.267
41.98000 44.201
42.00000 41.355
42.02000 37.709
42.04000 41.199
42.06000 38.287
42.08000 34.629
42.10000 39.178
42.12000 38.110
42.14000 32.860
42.16000 29.645
42.18000 31.308
42.20000 28.498
42.22000 27.191
42.24000 27.825
42.26000 29.748
42.28000 27.204
42.30000 23.638
42.32000 22.630
42.34000 22.803
42.36000 24.029
42.38000 21.464
42.40000 19.560
42.42000 18.933
42.44000 18.719
42.46000 17.440
42.48000 16.117
42.50000 15.970
42.52000 13.349
42.54000 12.714
42.56000 15.833
42.58000 11.367
42.60000 11.574
42.62000 12.555
42.64000 8.267
42.66000 8.946
42.68000 8.787
42.70000 10.327
42.72000 6.839
42.74000 6.803
42.76000 8.857
42.78000 9.788
42.80000 7.315
42.82000 2.167
42.84000 3.121
42.86000 5.339
42.88000 6.392
42.90000 8.623
42.92000 11.090
42.94000 7.698
42.96000 3.990
42.98000 5.340
43.00000 6.818
43.02000 3.062
43.04000 3.055
43.06000 5.717
43.08000 4.602
43.10000 4.909
43.12000 4.788
43.14000 2.477
43.16000 1.861
43.18000 3.540
43.20000 2.211
43.22000 4.082
43.24000 4.709
43.26000 2.048
43.28000 2.555
43.30000 6.333
43.32000 6.250
43.34000 5.972
43.36000 3.416
43.38000 5.699
43.40000 5.047
43.42000 3.440
43.44000 1.176
43.46000 2.691
43.48000 1.726
43.50000 2.352
43.52000 2.410
43.54000 1.676
43.56000 0.068
43.58000 0.932
43.60000 -0.099
43.62000 3.177
43.64000 1.380
43.66000 2.229
43.68000 1.395
43.70000 2.530
43.72000 2.073
43.74000 -2.045
43.76000 -1.163
43.78000 -0.454
43.80000 1.394
43.82000 2.362
43.84000 1.354
43.86000 -1.103
43.88000 -3.309
43.90000 0.735
43.92000 6.680
43.94000 5.706
43.96000 2.014
43.98000 4.256
44.00000 1.399
44.02000 -2.571
44.04000 -3.242
44.06000 0.154
44.08000 2.554
44.10000 0.146
44.12000 -3.282
44.14000 -2.658
44.16000 0.245
44.18000 0.080
44.20000 0.896
44.22000 -0.864
44.24000 1.452
44.26000 0.600
44.28000 1.902
44.30000 0.223
44.32000 0.175
44.34000 2.433
44.36000 0.147
44.38000 -2.678
44.40000 -2.448
44.42000 0.952
44.44000 -0.895
44.46000 2.346
44.48000 -2.408
44.50000 -2.187
44.52000 1.152
44.54000 -0.523
44.56000 0.229
44.58000 -1.537
44.60000 0.215
44.62000 2.513
44.64000 4.605
44.66000 4.339
44.68000 2.977
44.70000 2.232
44.72000 -2.503
44.74000 -3.237
44.76000 -1.660
44.78000 -1.459
44.80000 -1.087
44.82000 -3.037
44.84000 4.138
44.86000 1.251
44.88000 -1.418
44.90000 -3.004
44.92000 0.811
44.94000 3.680
44.96000 -0.699
44.98000 0.249
45.00000 2.417
45.02000 2.779
45.04000 6.006
45.06000 6.472
45.08000 4.571
45.10000 -0.906
45.12000 -1.723
45.14000 -0.815
45.16000 0.116
45.18000 0.663
45.20000 -1.822
45.22000 -3.220
45.24000 0.408
45.26000 5.931
45.28000 1.357
45.30000 -1.689
45.32000 -0.110
45.34000 1.831
45.36000 4.250
45.38000 0.182
45.40000 -2.923
45.42000 2.466
45.44000 2.863
45.46000 1.025
45.48000 2.500
45.50000 1.832
45.52000 4.513
45.54000 5.988
45.56000 6.215
45.58000 2.872
45.60000 2.694
45.62000 5.685
45.64000 4.975
45.66000 6.727
45.68000 6.671
45.70000 5.216
45.72000 6.543
45.74000 4.129
45.76000 7.098
45.78000 4.102
45.80000 8.222
45.82000 8.848
45.84000 7.110
45.86000 5.781
45.88000 4.258
45.90000 8.465
45.92000 7.320
45.94000 10.035
45.96000 12.423
45.98000 12.285
46.00000 10.521
46.02000 5.577
46.04000 9.475
46.06000 10.766
46.08000 13.998
46.10000 17.512
46.12000 12.830
46.14000 14.064
46.16000 13.075
46.18000 15.788
46.20000 17.041
46.22000 20.386
46.24000 16.553
46.26000 17.095
46.28000 21.197
46.30000 23.203
46.32000 24.765
46.34000 25.445
46.36000 25.228
46.38000 29.588
46.40000 30.070
46.42000 30.166
46.44000 32.917
46.46000 34.872
46.48000 37.167
46.50000 37.284
46.52000 44.841
46.54000 51.845
46.56000 51.450
46.58000 49.805
46.60000 48.763
46.62000 53.009
46.64000 49.635
46.66000 51.202
46.68000 59.154
46.70000 59.375
46.72000 61.070
46.74000 62.886
46.76000 64.937
46.78000 74.614
46.80000 74.762
46.82000 74.724
46.84000 75.065
46.86000 82.036
46.88000 89.377
46.90000 92.676
46.92000 98.441
46.94000 104.717
46.96000 102.742
46.98000 103.789
47.00000 107.978
47.02000 108.861
47.04000 101.841
47.06000 107.003
47.08000 115.187
47.10000 114.294
47.12000 114.561
47.14000 112.723
47.16000 113.908
47.18000 115.072
47.20000 114.594
47.22000 118.429
47.24000 114.132
47.26000 109.474
47.28000 109.349
47.30000 112.167
47.32000 111.458
47.34000 107.380
47.36000 105.374
47.38000 106.522
47.40000 106.832
47.42000 99.153
47.44000 93.114
47.46000 82.841
47.48000 84.353
47.50000 87.529
47.52000 82.154
47.54000 84.550
47.56000 82.502
47.58000 74.512
47.60000 69.358
47.62000 66.332
47.64000 61.062
47.66000 57.971
47.68000 58.059
47.70000 55.459
47.72000 56.194
47.74000 51.655
47.76000 45.149
47.78000 44.280
47.80000 42.005
47.82000 42.826
47.84000 42.314
47.86000 38.536
47.88000 33.706
47.90000 33.341
47.92000 32.053
47.94000 26.941
47.96000 25.380
47.98000 28.284
48.00000 32.005
48.02000 21.488
48.04000 16.963
48.06000 16.636
48.08000 14.008
48.10000 12.519
48.12000 12.893
48.14000 14.046
48.16000 11.503
48.18000 12.808
48.20000 13.223
48.22000 11.306
48.24000 7.847
48.26000 5.854
48.28000 7.239
48.30000 10.872
48.32000 8.746
48.34000 7.848
48.36000 6.411
48.38000 4.230
48.40000 2.369
48.42000 2.398
48.44000 2.951
48.46000 -2.731
48.48000 -0.460
48.50000 4.686
48.52000 3.836
48.54000 6.351
48.56000 2.977
48.58000 0.945
48.60000 1.012
48.62000 2.964
48.64000 5.559
48.66000 9.429
48.68000 0.726
48.70000 2.778
48.72000 0.708
48.74000 2.927
48.76000 1.458
48.78000 -0.074
48.80000 -0.470
48.82000 -0.118
48.84000 -2.353
48.86000 -2.725
48.88000 -1.621
48.90000 0.250
48.92000 5.135
48.94000 3.863
48.96000 -2.394
48.98000 -0.567
49.00000 -2.651
49.02000 1.029
49.04000 -1.064
49.06000 -0.026
49.08000 -2.004
49.10000 0.574
49.12000 0.525
49.14000 0.360
49.16000 -0.505
49.18000 3.544
49.20000 1.199
49.22000 -0.140
49.24000 2.502
49.26000 4.852
49.28000 3.922
49.30000 1.167
49.32000 -0.611
49.34000 2.419
49.36000 2.331
49.38000 0.355
49.40000 -0.713
49.42000 0.178
49.44000 2.528
49.46000 2.392
49.48000 5.732
49.50000 2.076
49.52000 -0.285
49.54000 6.145
49.56000 3.978
49.58000 2.459
49.60000 2.889
49.62000 2.198
49.64000 -0.547
49.66000 -2.561
49.68000 0.442
49.70000 0.838
49.72000 1.812
49.74000 0.796
49.76000 4.662
49.78000 4.920
49.80000 6.973
49.82000 4.011
49.84000 2.585
49.86000 3.215
49.88000 4.220
49.90000 0.232
49.92000 -2.530
49.94000 -1.476
49.96000 5.218
49.98000 3.407
50.00000 2.665
50.02000 3.764
50.04000 4.248
50.06000 2.127
50.08000 0.143
50.10000 1.653
50.12000 1.432
50.14000 -1.001
50.16000 0.232
50.18000 0.195
50.20000 2.680
50.22000 4.800
50.24000 2.489
50.26000 0.422
50.28000 -1.088
50.30000 -1.600
50.32000 0.749
50.34000 0.953
50.36000 2.435
50.38000 2.971
50.40000 1.106
50.42000 -2.002
50.44000 -0.382
50.46000 0.464
50.48000 -1.422
50.50000 1.788
50.52000 3.175
50.54000 2.382
50.56000 0.647
50.58000 1.498
50.60000 2.864
50.62000 0.352
50.64000 -1.481
50.66000 -0.763
50.68000 2.749
50.70000 1.563
50.72000 -1.077
50.74000 -1.291
50.76000 -2.483
50.78000 1.392
50.80000 3.893
50.82000 1.093
50.84000 -0.777
50.86000 -0.501
50.88000 2.986
50.90000 0.146
50.92000 0.804
50.94000 -0.436
50.96000 0.590
50.98000 -0.134
51.00000 -0.775
51.02000 -0.165
51.04000 0.052
51.06000 1.103
51.08000 0.379
51.10000 3.362
51.12000 0.686
51.14000 1.375
51.16000 3.066
51.18000 5.147
51.20000 2.034
51.22000 -1.476
51.24000 -1.217
51.26000 -0.212
51.28000 0.290
51.30000 -0.685
51.32000 1.482
51.34000 2.489
51.36000 -1.438
51.38000 -1.036
51.40000 0.507
51.42000 1.281
51.44000 -1.169
51.46000 -1.845
51.48000 -1.919
51.50000 -0.763
51.52000 -1.487
51.54000 -0.807
51.56000 0.162
51.58000 -2.141
51.60000 -1.796
51.62000 -1.762
51.64000 1.431
51.66000 -1.079
51.68000 -0.057
51.70000 0.270
51.72000 0.381
51.74000 3.267
51.76000 1.066
51.78000 0.185
51.80000 1.791
51.82000 -0.174
51.84000 -2.448
51.86000 -1.361
51.88000 1.202
51.90000 2.525
51.92000 3.137
51.94000 0.888
51.96000 -0.154
51.98000 -0.620
52.00000 1.502
52.02000 -0.020
52.04000 -0.737
52.06000 -1.222
52.08000 2.222
52.10000 -0.419
52.12000 -0.663
52.14000 1.471
52.16000 5.717
52.18000 1.721
52.20000 3.064
52.22000 0.734
52.24000 -2.416
52.26000 -0.312
52.28000 1.027
52.30000 1.860
52.32000 1.392
52.34000 2.139
52.36000 3.064
52.38000 2.808
52.40000 -0.047
52.42000 -0.210
52.44000 3.602
52.46000 6.099
52.48000 6.297
52.50000 1.765
52.52000 1.667
52.54000 4.696
52.56000 3.072
52.58000 1.259
52.60000 3.454
52.62000 1.101
52.64000 -0.492
52.66000 1.281
52.68000 2.517
52.70000 3.217
52.72000 4.887
52.74000 3.508
52.76000 0.075
52.78000 0.481
52.80000 0.832
52.82000 -1.827
52.84000 1.175
52.86000 1.666
52.88000 4.714
52.90000 4.959
52.92000 1.608
52.94000 -1.017
52.96000 -2.385
52.98000 1.153
53.00000 2.166
53.02000 1.389
53.04000 2.241
53.06000 1.206
53.08000 2.213
53.10000 2.550
53.12000 0.791
53.14000 1.591
53.16000 3.165
53.18000 3.093
53.20000 1.864
53.22000 0.410
53.24000 1.069
53.26000 -0.302
53.28000 1.965
53.30000 4.688
53.32000 1.603
53.34000 3.302
53.36000 1.506
53.38000 2.040
53.40000 2.885
53.42000 2.661
53.44000 1.429
53.46000 0.669
53.48000 0.109
53.50000 1.902
53.52000 3.543
53.54000 2.096
53.56000 1.192
53.58000 1.533
53.60000 3.024
53.62000 5.323
53.64000 2.397
53.66000 4.260
53.68000 2.684
53.70000 1.861
53.72000 3.354
53.74000 3.552
53.76000 2.233
53.78000 1.062
53.80000 1.202
53.82000 1.136
53.84000 -2.370
53.86000 0.623
53.88000 2.908
53.90000 2.336
53.92000 4.113
53.94000 3.651
53.96000 2.423
53.98000 0.235
54.00000 2.472
54.02000 2.228
54.04000 0.179
54.06000 4.718
54.08000 3.478
54.10000 4.320
54.12000 1.658
54.14000 0.734
54.16000 0.935
54.18000 4.823
54.20000 -1.075
54.22000 0.095
54.24000 2.612
54.26000 0.644
54.28000 1.507
54.30000 1.297
54.32000 -0.733
54.34000 4.482
54.36000 7.522
54.38000 1.676
54.40000 -0.969
54.42000 -2.345
54.44000 -0.540
54.46000 2.199
54.48000 2.672
54.50000 -0.891
54.52000 1.049
54.54000 4.680
54.56000 5.844
54.58000 3.298
54.60000 1.717
54.62000 2.923
54.64000 2.785
54.66000 3.683
54.68000 3.730
54.70000 2.686
54.72000 -0.797
54.74000 4.599
54.76000 2.166
54.78000 1.713
54.80000 3.878
54.82000 3.086
54.84000 2.071
54.86000 -0.973
54.88000 1.298
54.90000 2.116
54.92000 0.609
54.94000 0.644
54.96000 1.542
54.98000 1.068
55.00000 1.958
55.02000 5.859
55.04000 3.941
55.06000 1.017
55.08000 2.022
55.10000 -0.262
55.12000 3.400
55.14000 6.516
55.16000 6.665
55.18000 4.868
55.20000 2.330
55.22000 -2.306
55.24000 -0.075
55.26000 -1.543
55.28000 2.040
55.30000 1.287
55.32000 2.194
55.34000 4.703
55.36000 3.836
55.38000 2.594
55.40000 2.772
55.42000 2.071
55.44000 0.103
55.46000 1.799
55.48000 -1.097
55.50000 -0.149
55.52000 1.360
55.54000 4.564
55.56000 1.428
55.58000 3.817
55.60000 3.918
55.62000 1.563
55.64000 1.108
55.66000 1.794
55.68000 4.309
55.70000 3.912
55.72000 0.379
55.74000 1.770
55.76000 5.985
55.78000 6.997
55.80000 1.452
55.82000 2.189
55.84000 2.240
55.86000 3.799
55.88000 -0.649
55.90000 2.108
55.92000 3.684
55.94000 5.834
55.96000 3.576
55.98000 5.163
56.00000 2.438
56.02000 0.814
56.04000 2.956
56.06000 2.061
56.08000 -2.301
56.10000 -0.202
56.12000 3.123
56.14000 -1.226
56.16000 0.570
56.18000 1.102
56.20000 -1.392
56.22000 0.808
56.24000 3.977
56.26000 3.484
56.28000 2.259
56.30000 3.901
56.32000 2.720
56.34000 2.129
56.36000 2.421
56.38000 0.727
56.40000 2.344
56.42000 1.719
56.44000 -1.849
56.46000 -1.413
56.48000 -1.636
56.50000 -1.361
56.52000 -0.064
56.54000 0.755
56.56000 2.981
56.58000 3.972
56.60000 2.550
56.62000 0.973
56.64000 0.746
56.66000 -0.414
56.68000 1.002
56.70000 0.713
56.72000 0.061
56.74000 2.052
56.76000 2.308
56.78000 1.170
56.80000 1.752
56.82000 0.210
56.84000 -0.082
56.86000 1.202
56.88000 0.939
56.90000 0.817
56.92000 0.636
56.94000 -0.122
56.96000 -1.282
56.98000 -0.774
57.00000 0.996
57.02000 -2.000
57.04000 0.176
57.06000 -1.909
57.08000 1.221
57.10000 1.787
57.12000 2.079
57.14000 2.392
57.16000 -0.381
57.18000 -0.600
57.20000 -1.286
57.22000 3.748
57.24000 4.313
57.26000 1.648
57.28000 2.944
57.30000 2.564
57.32000 3.300
57.34000 2.907
57.36000 5.421
57.38000 5.252
57.40000 -0.188
57.42000 0.345
57.44000 3.974
57.46000 6.022
57.48000 4.761
57.50000 2.751
57.52000 3.009
57.54000 1.528
57.56000 1.144
57.58000 -2.242
57.60000 0.003
57.62000 1.180
57.64000 0.840
57.66000 0.575
57.68000 2.056
57.70000 3.823
57.72000 8.814
57.74000 5.406
57.76000 3.869
57.78000 1.251
57.80000 0.473
57.82000 3.839
57.84000 3.263
57.86000 4.928
57.88000 2.912
57.90000 3.396
57.92000 1.243
57.94000 1.866
57.96000 3.412
57.98000 3.325
58.00000 3.053
58.02000 -1.683
58.04000 -1.050
58.06000 -2.200
58.08000 2.540
58.10000 2.765
58.12000 0.850
58.14000 -1.284
58.16000 3.860
58.18000 1.957
58.20000 2.532
58.22000 2.005
58.24000 0.623
58.26000 -0.693
58.28000 -0.578
58.30000 -1.841
58.32000 1.339
58.34000 2.658
58.36000 3.665
58.38000 1.729
58.40000 0.725
58.42000 -0.193
58.44000 1.159
58.46000 0.185
58.48000 -0.298
58.50000 1.126
58.52000 3.418
58.54000 2.003
58.56000 0.243
58.58000 -1.289
58.60000 3.290
58.62000 1.210
58.64000 0.081
58.66000 1.728
58.68000 2.295
58.70000 -0.055
58.72000 1.564
58.74000 -0.250
58.76000 1.525
58.78000 3.477
58.80000 1.618
58.82000 0.515
58.84000 0.070
58.86000 -0.718
58.88000 -2.220
58.90000 -0.451
58.92000 2.006
58.94000 0.919
58.96000 -0.537
58.98000 3.894
59.00000 2.701
59.02000 1.949
59.04000 0.603
59.06000 4.155
59.08000 3.489
59.10000 0.631
59.12000 2.758
59.14000 1.988
59.16000 2.867
59.18000 2.764
59.20000 2.723
59.22000 0.305
59.24000 -0.203
59.26000 2.885
59.28000 0.959
59.30000 1.036
59.32000 0.864
59.34000 0.930
59.36000 4.281
59.38000 1.178
59.40000 -2.205
59.42000 2.546
59.44000 2.325
59.46000 0.864
59.48000 2.164
59.50000 1.969
59.52000 2.756
59.54000 2.508
59.56000 4.735
59.58000 1.742
59.60000 2.889
59.62000 4.458
59.64000 6.434
59.66000 4.130
59.68000 3.926
59.70000 4.631
59.72000 1.341
59.74000 4.159
59.76000 1.154
59.78000 0.657
59.80000 2.069
59.82000 1.802
59.84000 2.811
59.86000 0.998
59.88000 -0.634
59.90000 -0.087
59.92000 2.667
59.94000 0.543
59.96000 3.944
59.98000 3.073
60.00000 0.105
60.02000 1.803
60.04000 1.537
60.06000 -1.305
60.08000 2.518
60.10000 2.183
60.12000 3.372
60.14000 3.122
60.16000 -0.535
60.18000 -2.178
60.20000 3.317
60.22000 3.628
60.24000 1.812
60.26000 0.275
60.28000 1.736
60.30000 2.907
60.32000 2.291
60.34000 4.390
60.36000 1.380
60.38000 0.284
60.40000 1.545
60.42000 1.906
60.44000 -2.177
60.46000 -1.316
60.48000 -0.200
60.50000 2.730
60.52000 2.717
60.54000 3.417
60.56000 5.264
60.58000 3.482
60.60000 0.703
60.62000 1.604
60.64000 1.178
60.66000 0.218
60.68000 -0.504
60.70000 0.729
60.72000 2.356
60.74000 3.257
60.76000 1.544
60.78000 0.637
60.80000 1.168
60.82000 0.720
60.84000 1.139
60.86000 0.029
60.88000 2.178
60.90000 1.983
60.92000 1.399
60.94000 0.137
60.96000 3.829
60.98000 7.123
61.00000 3.486
61.02000 3.076
61.04000 3.634
61.06000 1.395
61.08000 -0.798
61.10000 -0.296
61.12000 -0.700
61.14000 1.709
61.16000 2.624
61.18000 0.563
61.20000 -1.735
61.22000 -2.152
61.24000 -0.045
61.26000 1.895
61.28000 1.461
61.30000 -1.823
61.32000 2.173
61.34000 2.901
61.36000 0.783
61.38000 2.203
61.40000 1.792
61.42000 1.791
61.44000 3.611
61.46000 1.173
61.48000 -0.868
61.50000 0.109
61.52000 1.392
61.54000 1.592
61.56000 3.927
61.58000 0.525
61.60000 2.642
61.62000 3.581
61.64000 1.436
61.66000 1.107
61.68000 2.366
61.70000 2.556
61.72000 3.823
61.74000 5.630
61.76000 4.297
61.78000 1.443
61.80000 0.929
61.82000 1.989
61.84000 2.518
61.86000 -0.624
61.88000 -1.383
61.90000 0.332
61.92000 2.003
61.94000 1.570
61.96000 3.959
61.98000 2.535
62.00000 3.331
62.02000 1.506
62.04000 1.974
62.06000 2.325
62.08000 5.778
62.10000 2.213
62.12000 1.348
62.14000 0.235
62.16000 -0.439
62.18000 1.107
62.20000 -1.319
62.22000 0.662
62.24000 -0.909
62.26000 0.888
62.28000 0.208
62.30000 1.583
62.32000 0.230
62.34000 0.498
62.36000 0.106
62.38000 1.644
62.40000 0.677
62.42000 1.619
62.44000 1.825
62.46000 0.539
62.48000 2.398
62.50000 0.246
62.52000 -2.150
62.54000 1.571
62.56000 1.232
62.58000 0.105
62.60000 2.190
62.62000 1.135
62.64000 -0.214
62.66000 0.894
62.68000 -0.394
62.70000 1.544
62.72000 0.495
62.74000 0.643
62.76000 2.028
62.78000 3.582
62.80000 1.355
62.82000 2.719
62.84000 1.486
62.86000 -1.122
62.88000 -2.124
62.90000 -0.102
62.92000 -0.018
62.94000 0.566
62.96000 0.639
62.98000 1.807
63.00000 0.165
63.02000 1.127
63.04000 -0.792
63.06000 -0.288
63.08000 -1.391
63.10000 1.247
63.12000 1.923
63.14000 2.434
63.16000 0.090
63.18000 -0.126
63.20000 -1.187
63.22000 0.623
63.24000 3.922
63.26000 1.392
63.28000 1.688
63.30000 4.789
63.32000 1.017
63.34000 0.016
63.36000 1.651
63.38000 2.179
63.40000 2.105
63.42000 2.338
63.44000 3.349
63.46000 4.226
63.48000 1.002
63.50000 0.464
63.52000 -0.261
63.54000 2.108
63.56000 -0.212
63.58000 -2.135
63.60000 -1.703
63.62000 0.758
63.64000 -0.403
63.66000 0.378
63.68000 0.226
63.70000 -1.945
63.72000 -0.438
63.74000 4.141
63.76000 1.656
63.78000 0.941
63.80000 3.174
63.82000 1.900
63.84000 3.187
63.86000 2.356
63.88000 0.311
63.90000 -0.279
63.92000 0.366
63.94000 -0.521
63.96000 -1.091
63.98000 0.825
64.00000 0.806
64.02000 -0.895
64.04000 -0.574
64.06000 -0.055
64.08000 2.030
64.10000 2.471
64.12000 1.537
64.14000 -0.580
64.16000 2.630
64.18000 2.696
64.20000 2.603
64.22000 1.800
64.24000 2.571
64.26000 -0.536
64.28000 4.100
64.30000 2.112
64.32000 -0.100
64.34000 -0.188
64.36000 0.353
64.38000 1.963
64.40000 2.144
64.42000 0.981
64.44000 2.661
64.46000 3.484
64.48000 1.538
64.50000 1.307
64.52000 3.597
64.54000 2.689
64.56000 3.440
64.58000 2.889
64.60000 6.921
64.62000 2.518
64.64000 -2.092
64.66000 1.109
64.68000 3.802
64.70000 4.231
64.72000 4.619
64.74000 4.865
64.76000 2.956
64.78000 4.176
64.80000 2.879
64.82000 0.935
64.84000 2.935
64.86000 3.682
64.88000 3.933
64.90000 3.848
64.92000 0.569
64.94000 2.915
64.96000 3.397
64.98000 4.027
65.00000 4.171
65.02000 1.918
65.04000 1.885
65.06000 0.542
65.08000 0.814
65.10000 0.994
65.12000 3.062
65.14000 1.728
65.16000 1.030
65.18000 2.097
65.20000 3.241
65.22000 2.934
65.24000 1.550
65.26000 2.237
65.28000 1.846
65.30000 2.355
65.32000 2.208
65.34000 2.515
65.36000 1.130
65.38000 1.659
65.40000 4.010
65.42000 3.427
65.44000 1.163
65.46000 1.393
65.48000 0.474
65.50000 2.310
65.52000 1.524
65.54000 1.196
65.56000 2.729
65.58000 2.998
65.60000 2.548
65.62000 1.904
65.64000 0.235
65.66000 0.142
65.68000 1.473
65.70000 0.654
65.72000 1.989
65.74000 2.472
65.76000 0.883
65.78000 0.825
65.80000 0.680
65.82000 -0.228
65.84000 0.638
65.86000 2.271
65.88000 2.241
65.90000 0.949
65.92000 2.684
65.94000 3.730
65.96000 1.546
65.98000 2.457
66.00000 3.018
66.02000 5.150
66.04000 4.346
66.06000 4.478
66.08000 0.777
66.10000 -2.105
66.12000 -0.369
66.14000 1.826
66.16000 5.052
66.18000 1.444
66.20000 2.099
66.22000 4.602
66.24000 2.199
66.26000 0.453
66.28000 0.558
66.30000 2.296
66.32000 2.330
66.34000 2.372
66.36000 2.481
66.38000 0.488
66.40000 0.107
66.42000 -0.435
66.44000 1.039
66.46000 1.708
66.48000 1.063
66.50000 2.065
66.52000 4.273
66.54000 3.378
66.56000 2.732
66.58000 0.882
66.60000 0.269
66.62000 0.680
66.64000 0.693
66.66000 1.591
66.68000 -0.120
66.70000 -1.425
66.72000 0.762
66.74000 2.978
66.76000 1.381
66.78000 1.528
66.80000 -0.374
66.82000 1.838
66.84000 1.747
66.86000 2.357
66.88000 2.962
66.90000 1.239
66.92000 -1.051
66.94000 -1.024
66.96000 -0.599
66.98000 -0.687
67.00000 1.334
67.02000 2.664
67.04000 -1.242
67.06000 -2.144
67.08000 1.193
67.10000 1.948
67.12000 1.595
67.14000 1.914
67.16000 0.120
67.18000 -0.027
67.20000 1.643
67.22000 1.718
67.24000 1.703
67.26000 0.297
67.28000 -0.166
67.30000 2.088
67.32000 0.571
67.34000 -2.094
67.36000 -1.038
67.38000 0.125
67.40000 1.388
67.42000 -0.582
67.44000 -0.312
67.46000 -0.503
67.48000 -1.938
67.50000 -2.074
67.52000 -0.107
67.54000 -1.624
67.56000 -1.037
67.58000 -0.105
67.60000 -1.219
67.62000 -1.210
67.64000 0.699
67.66000 0.460
67.68000 1.465
67.70000 1.571
67.72000 -0.434
67.74000 -0.849
67.76000 -0.406
67.78000 -0.373
67.80000 -2.139
67.82000 -2.124
67.84000 -2.205
67.86000 -1.245
67.88000 0.692
67.90000 0.274
67.92000 -1.180
67.94000 -0.790
67.96000 -0.337
67.98000 -0.590
68.00000 -0.135
68.02000 -0.423
68.04000 0.055
68.06000 -0.848
68.08000 -1.175
68.10000 0.233
68.12000 1.974
68.14000 2.016
68.16000 2.788
68.18000 2.351
68.20000 2.755
68.22000 1.837
68.24000 3.670
68.26000 1.417
68.28000 1.241
68.30000 2.785
68.32000 4.041
68.34000 4.812
68.36000 7.680
68.38000 4.205
68.40000 4.559
68.42000 7.152
68.44000 6.597
68.46000 6.062
68.48000 8.127
68.50000 10.776
68.52000 10.813
68.54000 12.947
68.56000 13.280
68.58000 12.883
68.60000 11.899
68.62000 8.690
68.64000 11.979
68.66000 17.375
68.68000 19.557
68.70000 17.074
68.72000 17.132
68.74000 18.260
68.76000 19.407
68.78000 19.704
68.80000 19.732
68.82000 19.065
68.84000 20.739
68.86000 23.350
68.88000 25.739
68.90000 25.080
68.92000 25.553
68.94000 22.754
68.96000 21.633
68.98000 23.227
69.00000 21.927
69.02000 22.534
69.04000 22.490
69.06000 21.109
69.08000 21.614
69.10000 22.067
69.12000 22.754
69.14000 23.824
69.16000 20.047
69.18000 18.961
69.20000 19.862
69.22000 16.770
69.24000 17.938
69.26000 19.761
69.28000 17.169
69.30000 13.880
69.32000 14.714
69.34000 15.150
69.36000 13.908
69.38000 15.379
69.40000 11.922
69.42000 5.941
69.44000 8.543
69.46000 10.442
69.48000 11.005
69.50000 8.815
69.52000 8.513
69.54000 8.896
69.56000 6.878
69.58000 6.959
69.60000 6.349
69.62000 8.140
69.64000 6.465
69.66000 4.267
69.68000 4.324
69.70000 4.442
69.72000 2.732
69.74000 1.495
69.76000 5.452
69.78000 4.541
69.80000 4.839
69.82000 5.589
69.84000 6.397
69.86000 5.034
69.88000 5.392
69.90000 6.660
69.92000 6.012
69.94000 3.600
69.96000 2.031
69.98000 2.734
70.00000 2.618
70.02000 3.041
70.04000 4.315
70.06000 2.086
70.08000 2.550
70.10000 5.481
70.12000 2.974
70.14000 1.024
70.16000 1.495
70.18000 3.308
70.20000 1.200
70.22000 2.537
70.24000 3.688
70.26000 3.359
70.28000 3.069
70.30000 3.024
70.32000 3.734
70.34000 2.475
70.36000 2.221
70.38000 0.363
70.40000 -1.297
70.42000 -0.500
70.44000 -2.083
70.46000 0.375
70.48000 1.347
70.50000 0.808
70.52000 0.564
70.54000 2.563
70.56000 0.411
70.58000 -1.256
70.60000 -0.465
70.62000 2.399
70.64000 3.791
70.66000 2.824
70.68000 -1.980
70.70000 -0.267
70.72000 4.156
70.74000 2.461
70.76000 2.467
70.78000 1.420
70.80000 -0.403
70.82000 0.713
70.84000 -1.309
70.86000 -0.486
70.88000 -0.128
70.90000 1.384
70.92000 1.807
70.94000 -0.141
70.96000 -1.270
70.98000 0.299
71.00000 0.284
71.02000 -0.890
71.04000 1.496
71.06000 2.123
71.08000 -0.158
71.10000 -0.002
71.12000 1.507
71.14000 0.831
71.16000 1.450
71.18000 -0.655
71.20000 2.492
71.22000 0.231
71.24000 -0.533
71.26000 0.617
71.28000 3.673
71.30000 2.254
71.32000 2.672
71.34000 3.620
71.36000 2.378
71.38000 -0.149
71.40000 0.489
71.42000 -2.017
71.44000 0.015
71.46000 1.049
71.48000 -0.271
71.50000 1.316
71.52000 2.122
71.54000 2.184
71.56000 2.634
71.58000 0.068
71.60000 0.970
71.62000 2.209
71.64000 2.758
71.66000 1.089
71.68000 2.283
71.70000 0.226
71.72000 0.096
71.74000 3.268
71.76000 6.236
71.78000 3.727
71.80000 0.914
71.82000 -0.199
71.84000 0.663
71.86000 -0.937
71.88000 -1.663
71.90000 -1.495
71.92000 0.932
71.94000 4.718
71.96000 0.205
71.98000 -1.994
72.00000 -0.998
72.02000 1.219
72.04000 3.293
72.06000 4.854
72.08000 6.472
72.10000 5.069
72.12000 0.425
72.14000 -0.444
72.16000 2.065
72.18000 2.358
72.20000 1.141
72.22000 2.057
72.24000 2.135
72.26000 0.279
72.28000 -1.250
72.30000 -0.712
72.32000 2.015
72.34000 1.629
72.36000 4.250
72.38000 1.101
72.40000 -0.856
72.42000 -1.979
72.44000 -0.421
72.46000 0.376
72.48000 0.347
72.50000 -0.512
72.52000 2.157
72.54000 1.370
72.56000 -1.259
72.58000 1.408
72.60000 1.787
72.62000 0.183
72.64000 3.524
72.66000 1.329
72.68000 1.952
72.70000 2.912
72.72000 0.269
72.74000 1.806
72.76000 2.412
72.78000 2.928
72.80000 3.923
72.82000 4.229
72.84000 5.514
72.86000 4.809
72.88000 3.445
72.90000 0.359
72.92000 1.060
72.94000 1.773
72.96000 3.247
72.98000 2.317
73.00000 2.742
73.02000 1.300
73.04000 0.741
73.06000 3.143
73.08000 3.982
73.10000 3.643
73.12000 4.119
73.14000 2.891
73.16000 2.105
73.18000 3.819
73.20000 5.533
73.22000 -0.675
73.24000 -1.950
73.26000 1.804
73.28000 1.159
73.30000 -0.170
73.32000 -0.040
73.34000 1.244
73.36000 2.518
73.38000 4.062
73.40000 2.284
73.42000 0.153
73.44000 1.932
73.46000 2.675
73.48000 2.380
73.50000 0.638
73.52000 0.591
73.54000 3.583
73.56000 2.397
73.58000 0.928
73.60000 3.241
73.62000 1.999
73.64000 2.296
73.66000 1.334
73.68000 0.092
73.70000 1.143
73.72000 1.716
73.74000 2.332
73.76000 1.027
73.78000 0.374
73.80000 1.576
73.82000 2.143
73.84000 0.945
73.86000 -0.274
73.88000 0.872
73.90000 0.318
73.92000 -0.602
73.94000 2.041
73.96000 -0.597
73.98000 -0.015
74.00000 0.691
74.02000 0.293
74.04000 -0.297
74.06000 -0.639
74.08000 3.185
74.10000 0.331
74.12000 0.613
74.14000 1.303
74.16000 -0.576
74.18000 1.322
74.20000 2.164
74.22000 1.575
74.24000 -0.151
74.26000 -0.820
74.28000 0.624
74.30000 -0.423
74.32000 0.760
74.34000 0.706
74.36000 -0.270
74.38000 -1.291
74.40000 -1.049
74.42000 -0.261
74.44000 -0.039
74.46000 -1.032
74.48000 -0.099
74.50000 2.963
74.52000 2.631
74.54000 -1.845
74.56000 -0.405
74.58000 2.437
74.60000 3.441
74.62000 3.651
74.64000 1.048
74.66000 -0.498
74.68000 2.074
74.70000 4.849
74.72000 3.930
74.74000 2.021
74.76000 0.110
74.78000 1.169
74.80000 3.744
74.82000 3.376
74.84000 2.432
74.86000 4.104
74.88000 1.775
74.90000 -0.157
74.92000 -1.224
74.94000 -0.560
74.96000 2.665
74.98000 2.487
75.00000 0.063
75.02000 1.266
75.04000 -1.927
75.06000 -1.725
75.08000 9.119
75.10000 7.152
75.12000 1.149
75.14000 1.936
75.16000 4.933
75.18000 3.270
75.20000 4.002
75.22000 4.407
75.24000 3.769
75.26000 4.500
75.28000 2.030
75.30000 1.650
75.32000 6.513
75.34000 4.343
75.36000 4.212
75.38000 2.055
75.40000 1.970
75.42000 2.247
75.44000 5.864
75.46000 3.575
75.48000 2.202
75.50000 2.244
75.52000 2.171
75.54000 0.983
75.56000 -0.086
75.58000 0.066
75.60000 0.822
75.62000 2.864
75.64000 2.223
75.66000 1.942
75.68000 1.636
75.70000 4.835
75.72000 4.091
75.74000 3.885
75.76000 1.581
75.78000 0.866
75.80000 4.984
75.82000 2.036
75.84000 -0.237
75.86000 1.691
75.88000 2.977
75.90000 0.443
75.92000 2.089
75.94000 -0.161
75.96000 -0.549
75.98000 1.400
76.00000 4.174
76.02000 1.931
76.04000 0.289
76.06000 0.681
76.08000 0.469
76.10000 1.440
76.12000 1.844
76.14000 4.374
76.16000 5.347
76.18000 5.176
76.20000 3.525
76.22000 0.586
76.24000 0.873
76.26000 3.486
76.28000 2.068
76.30000 0.518
76.32000 -1.930
76.34000 0.085
76.36000 0.538
76.38000 1.952
76.40000 5.159
76.42000 3.521
76.44000 4.496
76.46000 1.889
76.48000 0.652
76.50000 -1.012
76.52000 0.778
76.54000 2.426
76.56000 7.421
76.58000 2.406
76.60000 1.962
76.62000 1.512
76.64000 0.358
76.66000 1.922
76.68000 -0.422
76.70000 0.036
76.72000 1.097
76.74000 2.498
76.76000 1.585
76.78000 0.745
76.80000 2.862
76.82000 0.879
76.84000 0.316
76.86000 2.305
76.88000 2.451
76.90000 -0.146
76.92000 2.104
76.94000 0.848
76.96000 0.756
76.98000 1.947
77.00000 1.837
77.02000 2.433
77.04000 1.131
77.06000 2.752
77.08000 2.339
77.10000 5.591
77.12000 3.991
77.14000 -0.158
77.16000 0.762
77.18000 2.269
77.20000 1.108
77.22000 1.291
77.24000 1.002
77.26000 6.032
77.28000 6.218
77.30000 -0.185
77.32000 0.396
77.34000 0.072
77.36000 -0.488
77.38000 2.026
77.40000 1.771
77.42000 3.462
77.44000 1.952
77.46000 -0.905
77.48000 1.603
77.50000 0.621
77.52000 -1.997
77.54000 0.299
77.56000 -0.306
77.58000 2.821
77.60000 -0.629
77.62000 2.321
77.64000 3.814
77.66000 2.345
77.68000 1.477
77.70000 2.118
77.72000 2.759
77.74000 0.412
77.76000 0.225
77.78000 -0.011
77.80000 -0.294
77.82000 1.886
77.84000 0.231
77.86000 -1.053
77.88000 1.444
77.90000 4.117
77.92000 3.883
77.94000 2.225
77.96000 -1.250
77.98000 -1.047
78.00000 2.592
78.02000 -0.908
78.04000 2.628
78.06000 2.026
78.08000 -0.747
78.10000 -1.993
78.12000 -0.358
78.14000 0.597
78.16000 -1.869
78.18000 -1.487
78.20000 -1.883
78.22000 -0.813
78.24000 0.069
78.26000 1.136
78.28000 2.613
78.30000 -0.304
78.32000 1.825
78.34000 3.015
78.36000 0.852
78.38000 1.758
78.40000 -0.231
78.42000 -0.847
78.44000 1.360
78.46000 0.769
78.48000 -1.746
78.50000 0.030
78.52000 -0.198
78.54000 1.906
78.56000 -2.019
78.58000 -0.825
78.60000 1.312
78.62000 4.021
78.64000 2.347
78.66000 4.016
78.68000 4.228
78.70000 2.691
78.72000 0.359
78.74000 2.038
78.76000 1.979
78.78000 1.010
78.80000 -0.095
78.82000 1.998
78.84000 2.806
78.86000 2.176
78.88000 1.907
78.90000 0.164
78.92000 0.327
78.94000 1.242
78.96000 3.186
78.98000 1.972
79.00000 1.454
79.02000 4.985
79.04000 0.990
79.06000 1.643
79.08000 -0.785
79.10000 0.566
79.12000 2.177
79.14000 0.975
79.16000 1.369
79.18000 1.949
79.20000 1.687
79.22000 3.472
79.24000 3.705
79.26000 1.659
79.28000 -0.677
79.30000 -0.058
79.32000 0.944
79.34000 -0.782
79.36000 -0.807
79.38000 1.177
79.40000 2.812
79.42000 -2.010
79.44000 1.335
79.46000 7.939
79.48000 5.045
79.50000 -0.001
79.52000 4.130
79.54000 5.113
79.56000 5.638
79.58000 4.607
79.60000 7.466
79.62000 4.632
79.64000 6.028
79.66000 3.757
79.68000 1.458
79.70000 2.767
79.72000 0.003
79.74000 -2.013
79.76000 1.020
79.78000 3.294
79.80000 1.668
79.82000 3.506
79.84000 3.226
79.86000 4.652
79.88000 4.209
79.90000 2.560
79.92000 0.740
79.94000 1.410
79.96000 3.088
79.98000 3.120
80.00000 1.751
80.02000 2.142
80.04000 0.680
80.06000 2.672
80.08000 3.322
80.10000 2.016
80.12000 0.618
80.14000 0.727
80.16000 1.617
80.18000 2.740
80.20000 3.404
80.22000 3.775
80.24000 2.793
80.26000 -0.743
80.28000 0.587
80.30000 1.357
80.32000 2.713
80.34000 1.546
80.36000 3.855
80.38000 0.833
80.40000 0.232
80.42000 3.115
80.44000 0.195
80.46000 1.879
80.48000 2.518
80.50000 -1.933
80.52000 -0.157
80.54000 1.525
80.56000 1.186
80.58000 2.838
80.60000 0.886
80.62000 -0.084
80.64000 -0.450
80.66000 -0.643
80.68000 -0.483
80.70000 -0.269
80.72000 -2.065
80.74000 0.388
80.76000 1.182
80.78000 -0.189
80.80000 0.583
80.82000 0.938
80.84000 2.857
80.86000 2.920
80.88000 7.864
80.90000 2.788
80.92000 3.572
80.94000 2.467
80.96000 3.423
80.98000 2.405
81.00000 3.769
81.02000 2.939
81.04000 2.209
81.06000 0.725
81.08000 2.269
81.10000 3.196
81.12000 4.597
81.14000 1.426
81.16000 1.327
81.18000 2.560
81.20000 6.790
81.22000 6.192
81.24000 0.803
81.26000 -2.067
81.28000 -0.281
81.30000 4.207
81.32000 5.207
81.34000 1.383
81.36000 3.035
81.38000 3.116
81.40000 0.904
81.42000 2.612
81.44000 2.577
81.46000 2.566
81.48000 1.347
81.50000 2.202
81.52000 2.151
81.54000 1.078
81.56000 -0.060
81.58000 1.967
81.60000 1.696
81.62000 2.396
81.64000 2.656
81.66000 2.856
81.68000 0.773
81.70000 1.332
81.72000 1.070
81.74000 -1.904
81.76000 1.037
81.78000 1.549
81.80000 -2.157
81.82000 -0.424
81.84000 1.943
81.86000 6.228
81.88000 3.432
81.90000 3.815
81.92000 4.216
81.94000 3.631
81.96000 3.088
81.98000 5.336
82.00000 4.127
82.02000 3.974
82.04000 4.122
82.06000 2.519
82.08000 3.265
82.10000 3.857
82.12000 8.223
82.14000 12.008
82.16000 6.136
82.18000 4.798
82.20000 2.870
82.22000 0.793
82.24000 5.237
82.26000 6.938
82.28000 10.673
82.30000 11.621
82.32000 13.129
82.34000 8.684
82.36000 10.362
82.38000 10.090
82.40000 9.931
82.42000 9.571
82.44000 10.218
82.46000 16.555
82.48000 16.702
82.50000 12.499
82.52000 13.957
82.54000 17.137
82.56000 22.231
82.58000 22.661
82.60000 18.224
82.62000 22.526
82.64000 20.359
82.66000 23.846
82.68000 23.190
82.70000 22.882
82.72000 22.855
82.74000 26.812
82.76000 27.368
82.78000 28.303
82.80000 28.444
82.82000 35.765
82.84000 34.190
82.86000 30.866
82.88000 31.436
82.90000 38.635
82.92000 43.189
82.94000 45.975
82.96000 45.048
82.98000 44.124
83.00000 42.548
83.02000 46.261
83.04000 49.005
83.06000 46.166
83.08000 46.482
83.10000 47.706
83.12000 51.024
83.14000 52.363
83.16000 49.921
83.18000 50.973
83.20000 61.406
83.22000 53.850
83.24000 49.839
83.26000 53.813
83.28000 53.675
83.30000 51.923
83.32000 51.340
83.34000 51.070
83.36000 49.235
83.38000 48.400
83.40000 46.257
83.42000 45.444
83.44000 43.592
83.46000 45.604
83.48000 45.583
83.50000 43.364
83.52000 46.336
83.54000 42.524
83.56000 42.669
83.58000 40.694
83.60000 44.487
83.62000 39.945
83.64000 33.261
83.66000 34.607
83.68000 28.790
83.70000 28.378
83.72000 35.217
83.74000 31.403
83.76000 24.493
83.78000 24.990
83.80000 22.675
83.82000 22.621
83.84000 22.700
83.86000 20.087
83.88000 21.296
83.90000 21.505
83.92000 24.137
83.94000 18.415
83.96000 17.989
83.98000 21.306
84.00000 16.479
84.02000 17.215
84.04000 13.300
84.06000 16.613
84.08000 15.885
84.10000 11.668
84.12000 11.737
84.14000 13.596
84.16000 15.029
84.18000 12.948
84.20000 9.062
84.22000 5.322
84.24000 7.722
84.26000 7.988
84.28000 6.802
84.30000 3.651
84.32000 5.904
84.34000 3.191
84.36000 3.131
84.38000 4.020
84.40000 4.302
84.42000 8.100
84.44000 7.226
84.46000 6.034
84.48000 5.210
84.50000 1.530
84.52000 1.744
84.54000 0.746
84.56000 1.615
84.58000 5.862
84.60000 4.116
84.62000 3.801
84.64000 1.629
84.66000 2.851
84.68000 2.917
84.70000 0.550
84.72000 2.419
84.74000 1.161
84.76000 -0.327
84.78000 -0.890
84.80000 1.646
84.82000 1.000
84.84000 2.391
84.86000 2.781
84.88000 3.155
84.90000 1.256
84.92000 0.964
84.94000 0.674
84.96000 -0.572
84.98000 -1.681
85.00000 -2.114
85.02000 0.063
85.04000 -1.960
85.06000 -2.118
85.08000 0.181
85.10000 3.886
85.12000 1.488
85.14000 -1.453
85.16000 0.600
85.18000 3.303
85.20000 2.315
85.22000 2.273
85.24000 -0.824
85.26000 -2.105
85.28000 -1.949
85.30000 -0.669
85.32000 -0.108
85.34000 1.813
85.36000 2.554
85.38000 1.109
85.40000 0.747
85.42000 0.056
85.44000 -0.994
85.46000 0.721
85.48000 -1.946
85.50000 -1.276
85.52000 -1.056
85.54000 0.345
85.56000 1.371
85.58000 -0.685
85.60000 0.662
85.62000 1.500
85.64000 2.004
85.66000 2.052
85.68000 1.467
85.70000 -0.267
85.72000 -0.253
85.74000 -1.061
85.76000 -2.059
85.78000 -0.793
85.80000 -0.561
85.82000 0.426
85.84000 0.607
85.86000 1.002
85.88000 2.836
85.90000 0.771
85.92000 2.197
85.94000 -0.083
85.96000 -2.046
85.98000 -0.385
86.00000 1.939
86.02000 0.553
86.04000 1.427
86.06000 2.106
86.08000 2.477
86.10000 -0.147
86.12000 3.186
86.14000 4.575
86.16000 1.474
86.18000 -0.130
86.20000 1.050
86.22000 1.110
86.24000 1.654
86.26000 2.145
86.28000 1.579
86.30000 1.540
86.32000 -2.056
86.34000 -0.948
86.36000 -0.299
86.38000 0.166
86.40000 1.219
86.42000 3.333
86.44000 4.443
86.46000 2.978
86.48000 2.108
86.50000 2.201
86.52000 2.636
86.54000 0.405
86.56000 0.637
86.58000 4.130
86.60000 4.438
86.62000 5.488
86.64000 4.260
86.66000 6.646
86.68000 7.163
86.70000 3.294
86.72000 3.865
86.74000 4.447
86.76000 4.380
86.78000 8.861
86.80000 5.031
86.82000 3.855
86.84000 3.983
86.86000 3.273
86.88000 4.559
86.90000 7.285
86.92000 8.449
86.94000 7.909
86.96000 10.739
86.98000 10.725
87.00000 8.984
87.02000 8.323
87.04000 13.632
87.06000 12.140
87.08000 12.749
87.10000 10.791
87.12000 11.337
87.14000 11.225
87.16000 15.007
87.18000 17.013
87.20000 13.860
87.22000 17.515
87.24000 17.504
87.26000 16.928
87.28000 20.089
87.30000 19.432
87.32000 20.675
87.34000 19.139
87.36000 25.402
87.38000 26.209
87.40000 24.174
87.42000 24.830
87.44000 22.412
87.46000 26.530
87.48000 25.781
87.50000 27.410
87.52000 27.963
87.54000 26.150
87.56000 28.104
87.58000 28.555
87.60000 30.078
87.62000 27.093
87.64000 30.385
87.66000 31.896
87.68000 28.394
87.70000 23.499
87.72000 24.117
87.74000 27.787
87.76000 26.545
87.78000 28.585
87.80000 28.355
87.82000 29.742
87.84000 27.692
87.86000 28.240
87.88000 28.882
87.90000 29.643
87.92000 28.414
87.94000 26.144
87.96000 24.896
87.98000 22.088
88.00000 23.962
88.02000 26.524
88.04000 24.133
88.06000 23.664
88.08000 27.130
88.10000 23.303
88.12000 18.023
88.14000 18.644
88.16000 19.475
88.18000 20.110
88.20000 20.475
88.22000 17.101
88.24000 17.455
88.26000 11.471
88.28000 12.697
88.30000 13.464
88.32000 13.740
88.34000 13.196
88.36000 13.531
88.38000 15.127
88.40000 11.747
88.42000 15.334
88.44000 12.061
88.46000 7.206
88.48000 2.864
88.50000 5.577
88.52000 6.944
88.54000 4.737
88.56000 8.636
88.58000 8.013
88.60000 8.166
88.62000 9.177
88.64000 7.199
88.66000 11.248
88.68000 7.763
88.70000 4.783
88.72000 4.024
88.74000 3.615
88.76000 3.421
88.78000 0.978
88.80000 6.358
88.82000 4.906
88.84000 4.553
88.86000 3.667
88.88000 2.493
88.90000 1.029
88.92000 2.745
88.94000 5.987
88.96000 5.145
88.98000 5.192
89.00000 6.156
89.02000 4.782
89.04000 -0.392
89.06000 -1.232
89.08000 0.336
89.10000 2.807
89.12000 0.115
89.14000 0.512
89.16000 -0.395
89.18000 0.737
89.20000 2.371
89.22000 2.944
89.24000 2.163
89.26000 0.553
89.28000 0.430
89.30000 -0.176
89.32000 -1.046
89.34000 -1.055
89.36000 2.368
89.38000 3.519
89.40000 1.163
89.42000 0.847
89.44000 -0.023
89.46000 0.527
89.48000 1.888
89.50000 -1.926
89.52000 -0.882
89.54000 -0.556
89.56000 -0.700
89.58000 4.842
89.60000 2.325
89.62000 -0.242
89.64000 -0.043
89.66000 2.825
89.68000 2.053
89.70000 2.460
89.72000 0.370
89.74000 0.135
89.76000 3.264
89.78000 4.182
89.80000 5.172
89.82000 1.875
89.84000 -1.247
89.86000 0.952
89.88000 -1.918
89.90000 -0.993
89.92000 0.867
89.94000 1.995
89.96000 1.525
89.98000 0.515
90.00000 1.299
90.02000 3.454
90.04000 3.224
90.06000 1.501
90.08000 1.293
90.10000 2.660
90.12000 -0.305
90.14000 3.832
90.16000 2.103
90.18000 1.918
90.20000 -1.897
90.22000 0.376
90.24000 3.205
90.26000 3.961
90.28000 2.607
90.30000 1.055
90.32000 0.362
90.34000 -1.617
90.36000 1.796
90.38000 0.875
90.40000 1.606
90.42000 1.618
90.44000 4.792
90.46000 0.727
90.48000 0.516
90.50000 2.165
90.52000 0.493
90.54000 0.665
90.56000 0.664
90.58000 1.111
90.60000 3.993
90.62000 4.662
90.64000 4.113
90.66000 -0.193
90.68000 1.306
90.70000 2.047
90.72000 -0.751
90.74000 -0.458
90.76000 1.110
90.78000 1.675
90.80000 4.141
90.82000 3.065
90.84000 -0.356
90.86000 1.228
90.88000 -1.670
90.90000 -1.869
90.92000 1.048
90.94000 0.921
90.96000 2.781
90.98000 1.824
91.00000 2.389
91.02000 2.458
91.04000 2.785
91.06000 1.389
91.08000 3.978
91.10000 6.547
91.12000 5.082
91.14000 0.446
91.16000 -1.843
91.18000 2.411
91.20000 3.745
91.22000 -1.842
91.24000 2.218
91.26000 3.271
91.28000 3.122
91.30000 2.346
91.32000 4.176
91.34000 2.663
91.36000 0.102
91.38000 2.238
91.40000 3.804
91.42000 3.340
91.44000 2.999
91.46000 3.853
91.48000 5.281
91.50000 6.130
91.52000 4.538
91.54000 -0.093
91.56000 0.212
91.58000 -0.251
91.60000 2.618
91.62000 4.802
91.64000 3.230
91.66000 2.282
91.68000 1.840
91.70000 3.437
91.72000 2.728
91.74000 3.015
91.76000 3.372
91.78000 3.243
91.80000 -1.843
91.82000 0.904
91.84000 -0.354
91.86000 0.524
91.88000 3.869
91.90000 2.174
91.92000 0.290
91.94000 -1.849
91.96000 0.034
91.98000 4.342
92.00000 7.174
92.02000 10.397
92.04000 7.713
92.06000 2.252
92.08000 -1.094
92.10000 3.105
92.12000 3.699
92.14000 3.264
92.16000 1.213
92.18000 2.419
92.20000 3.924
92.22000 -0.047
92.24000 1.807
92.26000 3.088
92.28000 3.384
92.30000 0.090
92.32000 -1.525
92.34000 -1.475
92.36000 2.504
92.38000 3.195
92.40000 -0.817
92.42000 -1.865
92.44000 0.223
92.46000 1.259
92.48000 3.840
92.50000 -0.093
92.52000 5.144
92.54000 7.352
92.56000 3.945
92.58000 0.982
92.60000 -1.053
92.62000 1.079
92.64000 1.678
92.66000 1.057
92.68000 0.520
92.70000 1.437
92.72000 4.366
92.74000 5.094
92.76000 0.933
92.78000 1.679
92.80000 3.977
92.82000 2.688
92.84000 6.107
92.86000 3.502
92.88000 1.778
92.90000 -1.194
92.92000 0.610
92.94000 1.966
92.96000 3.192
92.98000 4.927
93.00000 5.388
93.02000 1.567
93.04000 0.420
93.06000 1.661
93.08000 1.569
93.10000 1.084
93.12000 2.680
93.14000 1.602
93.16000 -1.172
93.18000 3.904
93.20000 6.089
93.22000 6.196
93.24000 3.419
93.26000 1.629
93.28000 3.022
93.30000 2.416
93.32000 -0.983
93.34000 -1.885
93.36000 1.635
93.38000 1.983
93.40000 3.433
93.42000 3.421
93.44000 2.549
93.46000 0.710
93.48000 0.766
93.50000 0.992
93.52000 1.858
93.54000 1.586
93.56000 -1.883
93.58000 -0.112
93.60000 7.555
93.62000 6.251
93.64000 1.951
93.66000 3.281
93.68000 0.282
93.70000 0.948
93.72000 -0.614
93.74000 1.357
93.76000 4.450
93.78000 2.967
93.80000 2.503
93.82000 0.833
93.84000 1.683
93.86000 3.328
93.88000 3.616
93.90000 3.760
93.92000 0.568
93.94000 -1.541
93.96000 0.793
93.98000 2.779
94.00000 1.941
94.02000 -1.370
94.04000 2.283
94.06000 6.126
94.08000 2.250
94.10000 5.767
94.12000 5.729
94.14000 2.070
94.16000 -0.077
94.18000 1.500
94.20000 4.110
94.22000 0.643
94.24000 0.836
94.26000 -0.465
94.28000 -1.901
94.30000 0.485
94.32000 1.063
94.34000 1.440
94.36000 1.644
94.38000 -0.548
94.40000 -0.194
94.42000 1.291
94.44000 0.970
94.46000 1.995
94.48000 3.253
94.50000 2.519
94.52000 3.244
94.54000 3.452
94.56000 1.643
94.58000 2.520
94.60000 3.587
94.62000 5.191
94.64000 1.539
94.66000 -0.885
94.68000 2.802
94.70000 4.416
94.72000 1.638
94.74000 -0.563
94.76000 2.047
94.78000 1.088
94.80000 1.110
94.82000 0.549
94.84000 2.343
94.86000 3.771
94.88000 1.951
94.90000 0.978
94.92000 -0.031
94.94000 0.438
94.96000 5.465
94.98000 2.505
95.00000 -0.375
95.02000 0.177
95.04000 3.470
95.06000 4.789
95.08000 2.914
95.10000 2.955
95.12000 4.910
95.14000 2.193
95.16000 3.333
95.18000 1.523
95.20000 5.496
95.22000 5.095
95.24000 3.167
95.26000 1.883
95.28000 1.166
95.30000 -1.870
95.32000 4.232
95.34000 6.317
95.36000 6.035
95.38000 3.666
95.40000 5.351
95.42000 3.429
95.44000 1.418
95.46000 6.786
95.48000 6.928
95.50000 6.114
95.52000 2.816
95.54000 2.466
95.56000 -0.658
95.58000 -1.250
95.60000 1.664
95.62000 1.979
95.64000 -0.060
95.66000 -0.365
95.68000 2.171
95.70000 2.639
95.72000 7.308
95.74000 8.785
95.76000 7.025
95.78000 5.012
95.80000 -0.630
95.82000 1.656
95.84000 0.384
95.86000 -1.570
95.88000 -1.885
95.90000 -1.168
95.92000 -1.611
95.94000 0.079
95.96000 4.409
95.98000 4.997
96.00000 6.046
96.02000 4.245
96.04000 6.106
96.06000 3.511
96.08000 3.045
96.10000 2.485
96.12000 4.299
96.14000 2.756
96.16000 4.922
96.18000 3.160
96.20000 3.174
96.22000 1.365
96.24000 2.104
96.26000 -1.801
96.28000 2.294
96.30000 1.476
96.32000 2.105
96.34000 4.011
96.36000 8.177
96.38000 7.156
96.40000 4.329
96.42000 1.371
96.44000 0.916
96.46000 3.434
96.48000 1.276
96.50000 -1.885
96.52000 3.240
96.54000 2.791
96.56000 2.390
96.58000 1.212
96.60000 1.028
96.62000 3.698
96.64000 4.824
96.66000 6.169
96.68000 1.703
96.70000 -0.735
96.72000 3.131
96.74000 6.174
96.76000 4.557
96.78000 3.617
96.80000 3.718
96.82000 -0.168
96.84000 3.705
96.86000 5.772
96.88000 0.038
96.90000 0.289
96.92000 0.414
96.94000 0.499
96.96000 3.492
96.98000 3.656
97.00000 2.106
97.02000 4.786
97.04000 1.414
97.06000 -1.895
97.08000 1.520
97.10000 1.781
97.12000 1.695
97.14000 2.732
97.16000 4.301
97.18000 4.153
97.20000 -0.709
97.22000 -0.332
97.24000 3.194
97.26000 -0.128
97.28000 1.098
97.30000 4.275
97.32000 2.023
97.34000 2.542
97.36000 2.084
97.38000 3.309
97.40000 4.471
97.42000 1.440
97.44000 1.248
97.46000 1.107
97.48000 1.926
97.50000 4.346
97.52000 6.845
97.54000 5.867
97.56000 2.307
97.58000 3.614
97.60000 0.612
97.62000 1.627
97.64000 0.263
97.66000 5.199
97.68000 5.847
97.70000 3.142
97.72000 4.616
97.74000 3.259
97.76000 0.340
97.78000 -0.446
97.80000 3.886
97.82000 4.291
97.84000 3.955
97.86000 3.331
97.88000 4.125
97.90000 4.203
97.92000 4.992
97.94000 4.079
97.96000 1.532
97.98000 2.358
98.00000 -0.072
98.02000 0.559
98.04000 3.827
98.06000 4.834
98.08000 1.453
98.10000 1.200
98.12000 2.938
98.14000 7.144
98.16000 12.589
98.18000 4.464
98.20000 1.513
98.22000 -0.468
98.24000 2.195
98.26000 2.821
98.28000 5.188
98.30000 0.387
98.32000 2.996
98.34000 5.378
98.36000 3.432
98.38000 2.080
98.40000 -0.456
98.42000 1.250
98.44000 1.291
98.46000 6.025
98.48000 1.420
98.50000 1.086
98.52000 3.874
98.54000 -1.841
98.56000 3.620
98.58000 4.496
98.60000 4.163
98.62000 1.639
98.64000 5.382
98.66000 6.230
98.68000 5.146
98.70000 3.011
98.72000 -1.746
98.74000 1.799
98.76000 2.377
98.78000 2.260
98.80000 6.361
98.82000 8.073
98.84000 2.694
98.86000 2.677
98.88000 7.420
98.90000 5.962
98.92000 4.299
98.94000 -0.058
98.96000 3.408
98.98000 0.395
99.00000 -1.822
99.02000 7.177
99.04000 5.338
99.06000 6.393
99.08000 9.877
99.10000 10.654
99.12000 7.203
99.14000 7.006
99.16000 -0.418
99.18000 3.829
99.20000 10.134
99.22000 7.558
99.24000 7.718
99.26000 3.036
99.28000 6.515
99.30000 4.784
99.32000 1.606
99.34000 0.099
99.36000 5.734
99.38000 0.040
99.40000 -1.237
99.42000 5.704
99.44000 8.370
99.46000 7.179
99.48000 12.572
99.50000 8.310
99.52000 2.690
99.54000 1.248
99.56000 1.726
99.58000 1.588
99.60000 0.843
99.62000 1.988
99.64000 2.923
99.66000 -0.331
99.68000 -0.073
99.70000 3.638
99.72000 3.659
99.74000 0.579
99.76000 10.046
99.78000 7.952
99.80000 7.044
99.82000 7.790
99.84000 11.779
99.86000 4.885
99.88000 0.391
99.90000 -1.922
99.92000 1.634
99.94000 0.703
99.96000 3.349
99.98000 0.000
